787
960
1134
1314
1495
1659
1748
1822
1945
2058
2171
2286
2384
2433
2450
2441
2415
2369
2283
2163
2032
1904
1793
1701
1620
1538
1449
1356
1268
1187
1125
1073
1016
957
907
889
879
872
867
862
856
848
820
766
693
606
523
454
394
328
252
170
81
-19
-132
-248
-364
-484
-603
-710
-799
-866
-898
-911
-918
-923
-927
-929
-930
-929
-927
-923
-918
-911
-898
-868
-831
-803
-783
-761
-722
-669
-637
-605
-578
-556
-530
-498
-478
-469
-463
-483
-509
-530
-540
-543
-545
-547
-548
-550
-553
-556
-559
-561
-564
-567
-571
-577
-592
-618
-656
-700
-753
-813
-888
-974
-1063
-1153
-1233
-1309
-1385
-1462
-1530
-1576
-1597
-1607
-1615
-1618
-1610
-1597
-1587
-1578
-1569
-1561
-1553
-1545
-1532
-1514
-1501
-1487
-1464
-1435
-1408
-1393
-1384
-1379
-1375
-1376
-1381
-1387
-1393
-1396
-1400
-1405
-1410
-1413
-1414
-1410
-1405
-1399
-1391
-1383
-1372
-1361
-1352
-1344
-1334
-1321
-1302
-1284
-1266
-1249
-1232
-1210
-1180
-1148
-1119
-1099
-1083
-1062
-1032
-1003
-966
-922
-873
-846
-820
-789
-755
-721
-695
-676
-662
-643
-617
-590
-559
-522
-490
-469
-452
-433
-416
-401
-392
-384
-373
-352
-308
-238
-145
-32
78
154
195
209
200
173
93
-11
-125
-232
-316
-350
-362
-346
-321
-291
-240
-175
-117
-67
-35
0
34
67
102
123
135
143
147
146
141
133
125
118
110
103
98
97
98
103
109
121
143
168
197
224
243
262
282
302
319
339
369
397
417
432
450
477
508
538
562
579
591
606
629
656
681
695
702
708
716
724
733
748
768
782
800
824
850
876
898
913
924
932
938
941
934
921
910
899
890
888
888
888
887
885
885
889
901
918
943
967
994
1017
1035
1051
1066
1081
1098
1110
1118
1125
1132
1139
1146
1153
1160
1167
1170
1166
1157
1145
1132
1117
1102
1088
1064
1030
995
965
948
937
924
910
886
852
828
813
799
787
767
736
718
708
701
696
693
693
694
696
699
701
704
710
714
709
696
674
649
629
607
583
557
528
497
463
432
404
379
357
335
295
245
212
172
141
116
96
67
22
-35
-66
-90
-108
-126
-150
-177
-220
-267
-282
-291
-297
-308
-326
-342
-353
-351
-334
-310
-286
-277
-271
-266
-263
-262
-267
-274
-282
-288
-293
-298
-304
-309
-314
-318
-321
-325
-329
-335
-343
-359
-378
-399
-419
-437
-453
-468
-477
-483
-488
-492
-495
-494
-487
-472
-430
-370
-289
-197
-109
-50
-27
-26
-42
-86
-161
-258
-368
-472
-553
-581
-591
-577
-534
-478
-412
-344
-275
-204
-142
-93
-60
-24
9
43
70
78
80
82
83
83
83
83
83
82
83
85
86
88
89
90
92
93
94
95
98
102
108
117
128
137
145
153
158
162
165
167
168
169
170
172
175
178
182
185
187
190
192
195
198
202
207
212
219
225
230
232
232
229
224
217
210
202
194
185
176
169
163
158
152
147
142
137
133
129
126
122
117
112
107
103
100
97
93
87
82
79
82
88
97
105
112
119
127
135
142
147
151
155
158
162
165
169
171
172
171
170
168
167
165
164
162
160
159
160
162
164
167
171
174
179
184
187
186
179
169
161
156
153
150
147
144
142
140
140
139
138
136
133
131
129
127
126
124
122
120
118
116
113
109
104
98
92
86
80
74
67
61
56
51
47
42
36
31
28
27
28
31
35
38
42
46
50
55
60
62
62
59
54
47
39
29
16
3
-7
-18
-30
-44
-56
-66
-73
-77
-80
-83
-86
-89
-93
-96
-100
-104
-107
-110
-114
-121
-127
-131
-130
-126
-118
-106
-86
-52
3
65
128
150
140
108
-19
-212
-450
-691
-893
-1035
-1076
-1090
-1073
-1020
-936
-842
-757
-693
-669
-660
-655
-645
-627
-599
-561
-542
-534
-528
-523
-519
-514
-510
-507
-503
-498
-485
-461
-440
-417
-402
-394
-389
-382
-374
-366
-358
-348
-334
-321
-309
-294
-276
-254
-235
-219
-206
-196
-183
-167
-147
-133
-124
-115
-106
-97
-89
-81
-75
-68
-61
-54
-46
-39
-33
-26
-19
-14
-11
-11
-14
-19
-25
-32
-41
-56
-69
-79
-88
-94
-102
-111
-123
-144
-173
-191
-202
-214
-225
-244
-276
-304
-319
-328
-335
-340
-344
-348
-351
-353
-354
-354
-353
-350
-348
-345
-343
-340
-337
-334
-330
-327
-324
-322
-322
-322
-321
-320
-321
-323
-326
-330
-334
-339
-343
-350
-363
-386
-399
-407
-413
-419
-423
-425
-425
-422
-418
-411
-405
-399
-392
-382
-371
-362
-356
-351
-346
-340
-334
-326
-313
-299
-289
-281
-275
-269
-263
-258
-254
-251
-247
-243
-235
-222
-204
-195
-191
-188
-185
-182
-180
-176
-172
-168
-164
-161
-157
-154
-150
-146
-142
-138
-135
-130
-125
-121
-116
-111
-105
-98
-87
-67
-52
-39
-28
-15
0
11
20
28
34
39
41
43
45
46
47
48
50
52
54
56
59
62
65
67
68
69
70
71
72
73
74
76
77
80
84
87
91
93
95
98
100
104
108
114
129
163
222
301
400
515
628
712
724
701
584
406
191
-21
-189
-271
-299
-291
-266
-206
-130
-67
-21
5
24
35
49
64
72
78
82
85
88
90
93
95
97
99
100
102
103
103
104
104
105
105
107
109
111
114
117
121
125
130
136
142
150
158
167
177
185
190
193
197
203
210
219
229
240
251
263
276
289
302
313
324
332
340
347
351
354
356
358
361
364
365
365
360
353
343
329
308
293
272
246
220
188
158
136
108
91
80
72
66
61
57
53
50
46
42
39
35
31
26
21
14
6
-2
-13
-28
-43
-54
-64
-73
-81
-89
-97
-106
-113
-123
-136
-158
-183
-197
-205
-211
-216
-220
-224
-229
-233
-237
-240
-245
-251
-257
-265
-275
-290
-306
-313
-319
-323
-327
-331
-334
-337
-340
-342
-343
-344
-345
-346
-347
-348
-347
-346
-345
-344
-342
-339
-336
-334
-331
-328
-326
-323
-320
-315
-305
-294
-283
-272
-262
-253
-246
-239
-232
-226
-219
-211
-204
-197
-190
-184
-176
-168
-158
-148
-139
-131
-122
-113
-106
-100
-96
-92
-89
-86
-83
-79
-77
-74
-70
-65
-60
-53
-44
-34
-20
0
13
23
32
41
46
38
22
9
-3
-14
-21
-27
-31
-35
-39
-43
-46
-48
-47
-42
-34
-25
-16
-9
-1
5
12
18
24
29
33
37
42
49
63
98
140
181
250
333
427
522
579
599
569
479
320
123
-74
-245
-362
-406
-405
-360
-296
-233
-171
-128
-77
-26
24
72
94
104
111
117
121
125
129
134
137
141
145
149
152
157
164
173
183
194
206
215
221
226
230
233
235
237
239
241
243
246
249
251
254
256
258
260
262
264
266
268
272
277
283
289
295
300
304
307
309
312
314
316
319
322
325
329
331
332
331
329
324
317
309
297
278
255
233
211
182
162
147
134
122
113
105
96
87
78
70
62
56
52
49
46
42
39
37
37
37
38
40
43
47
52
56
60
64
67
70
74
78
83
87
91
94
97
99
100
98
95
92
90
88
85
82
79
75
72
69
66
61
56
49
42
35
29
22
15
8
1
-4
-8
-12
-16
-21
-26
-31
-36
-39
-42
-44
-45
-45
-43
-40
-36
-31
-26
-20
-15
-9
-3
2
7
12
18
23
29
35
41
45
50
54
58
62
66
69
73
77
81
86
91
95
100
104
107
110
111
113
113
114
114
115
115
116
117
119
121
122
122
117
107
96
85
79
73
67
61
57
52
49
45
42
39
36
34
32
33
34
35
36
37
40
45
50
57
63
71
80
129
203
289
384
476
539
561
528
427
228
-7
-224
-376
-427
-444
-416
-334
-267
-223
-184
-153
-118
-93
-75
-62
-49
-39
-33
-28
-24
-19
-14
-10
-5
-1
2
6
10
13
16
20
23
26
32
40
46
51
52
52
50
47
44
40
32
26
36
53
60
65
69
74
79
84
89
94
98
101
105
108
110
112
114
115
116
117
119
121
123
126
129
133
137
139
140
139
135
128
118
106
93
76
48
26
7
-14
-39
-66
-76
-80
-84
-87
-91
-93
-96
-97
-99
-100
-101
-103
-104
-104
-103
-103
-103
-103
-103
-103
-103
-103
-103
-103
-103
-103
-102
-101
-99
-98
-96
-94
-92
-89
-86
-83
-80
-78
-75
-73
-70
-67
-63
-59
-54
-49
-44
-38
-33
-29
-25
-21
-18
-15
-12
-10
-7
-5
-2
1
6
12
17
21
24
26
29
32
34
38
41
44
47
49
51
54
58
61
63
64
65
67
68
70
73
76
79
81
83
85
86
87
88
89
90
89
89
88
87
85
83
80
78
75
72
69
66
62
59
55
52
48
44
40
35
30
26
22
19
18
18
18
19
21
23
25
28
31
35
40
44
49
62
90
134
192
259
335
414
460
476
445
353
189
-13
-207
-352
-421
-444
-425
-370
-308
-245
-191
-158
-131
-110
-83
-71
-64
-59
-55
-52
-49
-47
-45
-43
-41
-38
-35
-33
-31
-29
-28
-27
-24
-22
-18
-14
-9
-2
4
10
17
24
31
38
45
54
62
70
78
86
98
113
128
140
155
173
193
212
232
251
263
272
279
283
283
279
273
265
250
219
190
169
151
132
113
94
79
67
56
47
39
22
-6
-34
-55
-71
-93
-119
-138
-152
-169
-182
-192
-198
-202
-204
-204
-205
-206
-207
-208
-209
-209
-208
-207
-205
-203
-202
-198
-194
-192
-193
-195
-196
-198
-199
-200
-201
-203
-204
-206
-207
-208
-208
-208
-207
-205
-202
-200
-197
-194
-191
-187
-183
-177
-165
-158
-154
-152
-149
-146
-145
-143
-143
-143
-142
-143
-144
-145
-148
-150
-151
-152
-153
-154
-155
-156
-157
-158
-159
-160
-162
-163
-165
-165
-165
-164
-162
-160
-157
-154
-151
-146
-142
-139
-134
-123
-114
-106
-103
-102
-101
-101
-101
-100
-99
-98
-98
-97
-96
-95
-94
-92
-91
-91
-90
-90
-88
-86
-83
-81
-78
-73
-68
-62
-57
-53
-50
-47
-43
-38
-30
-22
-14
10
52
113
191
283
380
467
505
498
424
272
80
-114
-274
-375
-408
-406
-360
-286
-210
-151
-121
-95
-66
-42
-23
-9
8
29
48
68
85
98
108
115
120
124
122
115
106
100
95
89
85
82
82
86
92
98
105
110
117
125
131
135
138
140
142
143
145
147
149
151
153
155
158
160
162
164
165
165
166
167
169
171
173
175
177
178
178
179
178
175
172
168
162
156
145
133
121
102
77
59
45
26
17
12
6
2
-1
-3
-4
-4
-5
-6
-6
-5
-4
-2
-1
0
1
3
7
12
16
21
26
32
38
46
53
59
62
64
65
67
69
71
72
74
75
76
77
77
77
76
75
75
74
73
73
73
72
72
71
70
70
68
67
65
63
60
58
56
53
47
40
31
21
6
-10
-15
-19
-21
-24
-27
-32
-38
-44
-50
-56
-60
-63
-65
-68
-71
-73
-75
-78
-81
-83
-87
-92
-102
-119
-128
-132
-136
-138
-138
-133
-126
-120
-117
-114
-111
-108
-105
-102
-99
-98
-97
-97
-96
-97
-98
-101
-103
-107
-110
-112
-114
-116
-119
-121
-123
-124
-124
-125
-126
-127
-129
-131
-132
-133
-134
-135
-136
-137
-137
-138
-138
-139
-139
-142
-144
-145
-145
-141
-134
-122
-84
-35
29
114
218
336
449
514
515
458
310
106
-120
-327
-469
-515
-530
-515
-467
-398
-327
-262
-206
-164
-140
-117
-92
-69
-53
-37
-31
-27
-24
-22
-20
-18
-16
-14
-13
-12
-13
-14
-15
-17
-19
-21
-24
-28
-31
-34
-37
-39
-43
-48
-53
-57
-58
-57
-55
-52
-50
-47
-45
-41
-36
-31
-28
-25
-23
-19
-14
-9
-4
2
10
18
29
38
45
49
52
55
58
61
63
61
57
50
45
41
38
33
28
24
23
23
24
26
28
29
30
32
34
36
37
38
38
39
39
40
39
38
36
34
33
33
32
30
28
26
24
21
19
17
14
12
13
16
21
25
29
35
38
33
25
18
12
6
3
2
1
0
-1
-3
-5
-6
-8
-10
-13
-16
-19
-22
-24
-27
-30
-34
-38
-42
-45
-48
-51
-53
-56
-58
-59
-61
-62
-63
-64
-66
-68
-70
-72
-74
-76
-78
-80
-82
-84
-86
-88
-91
-95
-99
-103
-106
-109
-112
-115
-117
-119
-122
-125
-128
-131
-131
-127
-122
-116
-112
-108
-104
-99
-95
-91
-87
-84
-81
-78
-74
-67
-62
-60
-58
-57
-55
-53
-52
-51
-53
-57
-63
-69
-74
-79
-85
-90
-95
-100
-105
-110
-114
-117
-120
-123
-126
-128
-130
-132
-133
-133
-133
-132
-130
-127
-124
-119
-113
-106
-90
-76
-40
10
82
171
273
376
456
463
424
272
58
-174
-375
-502
-549
-564
-550
-508
-463
-412
-354
-304
-259
-219
-183
-162
-150
-145
-142
-140
-136
-133
-129
-125
-122
-117
-112
-106
-100
-93
-86
-77
-65
-56
-47
-35
-16
2
22
33
38
42
45
47
49
53
55
58
62
66
70
76
82
88
94
102
115
139
156
166
174
183
190
200
213
227
237
245
251
254
257
258
261
265
264
249
235
221
210
202
191
177
162
149
140
132
124
117
108
98
91
85
82
80
77
76
74
73
71
69
67
65
62
59
56
49
37
48
59
66
73
79
86
99
116
127
135
136
130
127
125
123
122
121
120
120
121
123
125
127
129
130
132
135
137
139
138
135
131
126
122
119
116
113
110
107
105
104
104
104
104
104
104
104
105
106
107
107
108
108
110
111
112
113
113
113
113
113
113
113
113
112
111
110
110
109
109
109
108
106
104
103
102
100
97
94
90
87
84
81
78
75
69
63
55
47
43
39
36
32
29
26
24
23
23
23
23
24
25
27
30
33
37
40
48
67
77
83
88
90
91
90
88
83
76
62
39
23
13
3
-6
-21
-43
-52
-56
-60
-63
-65
-67
-67
-68
-68
-68
-68
-68
-66
-65
-63
-61
-59
-57
-55
-50
-46
-41
-34
-10
36
103
190
292
400
494
527
514
420
249
42
-158
-321
-421
-465
-469
-445
-388
-318
-242
-160
-83
-25
8
18
26
34
42
55
78
90
95
100
103
105
107
107
107
108
108
108
107
106
105
103
102
100
96
98
110
118
124
129
133
134
134
131
128
124
120
116
111
105
101
99
100
102
105
107
110
114
118
118
112
104
94
81
70
62
55
49
41
33
26
19
11
4
-3
-11
-22
-31
-39
-45
-50
-56
-63
-73
-82
-90
-98
-105
-111
-116
-121
-124
-125
-126
-128
-129
-131
-133
-134
-135
-137
-139
-141
-144
-145
-147
-149
-152
-157
-166
-176
-186
-197
-208
-221
-232
-241
-248
-255
-260
-265
-271
-276
-282
-289
-300
-315
-336
-345
-351
-356
-360
-364
-367
-369
-371
-372
-372
-372
-371
-369
-365
-362
-358
-354
-350
-346
-343
-338
-333
-329
-324
-320
-316
-312
-308
-305
-302
-299
-296
-290
-285
-282
-281
-280
-278
-275
-273
-272
-273
-276
-279
-281
-282
-283
-284
-287
-290
-293
-296
-299
-302
-305
-308
-311
-314
-317
-321
-325
-330
-334
-336
-336
-335
-334
-333
-332
-331
-330
-327
-325
-323
-321
-320
-317
-314
-311
-308
-306
-304
-301
-296
-289
-283
-276
-271
-265
-259
-254
-249
-244
-239
-235
-230
-223
-213
-200
-186
-163
-137
-119
-104
-85
-68
-54
-43
-36
-28
-20
-9
2
20
47
95
158
242
345
457
568
661
691
679
593
435
239
34
-140
-220
-247
-231
-185
-131
-82
-35
12
57
107
136
159
177
190
206
230
258
287
301
307
312
315
317
319
322
325
328
331
334
337
340
344
350
358
367
377
384
388
392
396
399
403
407
411
414
418
423
428
433
438
445
452
458
462
464
466
468
470
472
474
476
477
478
478
478
476
473
470
465
460
454
445
436
429
423
411
390
368
344
324
308
290
272
254
235
220
209
199
188
177
165
151
136
120
113
109
106
104
102
101
100
100
100
99
98
96
94
92
90
88
85
83
81
79
78
78
77
76
74
72
69
67
64
61
58
55
51
49
47
45
44
42
41
39
37
35
33
30
27
25
22
20
19
17
15
14
13
11
10
8
6
3
0
-1
-3
-5
-7
-9
-11
-13
-15
-17
-20
-24
-29
-34
-39
-44
-48
-53
-56
-59
-59
-58
-56
-55
-53
-52
-50
-47
-45
-44
-43
-43
-41
-39
-35
-31
-28
-26
-24
-21
-19
-18
-18
-20
-23
-25
-28
-30
-33
-36
-39
-42
-45
-48
-51
-55
-60
-65
-71
-75
-80
-83
-87
-90
-93
-96
-98
-102
-107
-113
-118
-121
-121
-119
-115
-109
-101
-87
-56
-23
10
70
142
225
304
340
335
275
143
-27
-207
-367
-484
-530
-545
-528
-477
-403
-322
-248
-214
-197
-186
-174
-159
-140
-119
-96
-85
-78
-73
-68
-65
-61
-56
-51
-47
-44
-41
-38
-35
-33
-31
-29
-26
-23
-19
-14
-10
-5
-1
3
7
11
16
20
25
30
34
39
44
49
53
58
62
67
72
78
83
89
95
102
109
119
128
134
137
140
143
147
151
152
150
143
134
123
106
86
67
50
35
22
9
-3
-18
-36
-45
-51
-56
-61
-66
-69
-73
-76
-79
-82
-84
-86
-88
-90
-91
-92
-93
-95
-96
-98
-99
-99
-100
-100
-99
-98
-95
-92
-88
-85
-82
-79
-78
-77
-76
-75
-74
-74
-74
-74
-73
-72
-71
-70
-70
-70
-70
-69
-69
-69
-69
-68
-67
-66
-64
-62
-60
-58
-56
-53
-49
-46
-43
-37
-31
-25
-21
-18
-16
-14
-13
-12
-11
-11
-10
-11
-11
-10
-8
-6
-4
-1
0
3
6
10
12
15
18
20
24
28
32
37
40
42
43
42
39
35
30
24
18
11
1
-8
-14
-18
-21
-22
-24
-25
-27
-28
-29
-29
-30
-30
-31
-31
-31
-31
-30
-29
-27
-27
-26
-25
-24
-23
-21
-19
-17
-14
4
48
113
194
278
350
381
375
311
180
0
-194
-360
-439
-465
-446
-388
-323
-259
-213
-189
-168
-146
-123
-98
-69
-40
-23
-15
-9
-5
-2
-1
0
0
0
0
1
3
4
5
6
8
11
15
19
23
27
30
35
41
47
52
56
59
63
67
72
77
82
87
93
100
108
118
128
138
148
161
178
194
207
216
223
227
229
231
233
236
239
240
240
237
231
224
215
206
193
179
166
153
143
133
124
117
112
107
103
99
94
88
82
75
68
53
32
18
9
0
-11
-20
-29
-35
-35
-30
-24
-20
-17
-14
-12
-10
-8
-7
-6
-6
-7
-9
-12
-15
-18
-22
-26
-34
-41
-46
-51
-55
-59
-62
-65
-70
-76
-83
-93
-106
-109
-110
-110
-111
-112
-112
-113
-114
-116
-120
-124
-129
-133
-137
-142
-148
-153
-157
-160
-163
-164
-166
-168
-170
-171
-172
-171
-171
-170
-170
-171
-171
-170
-169
-169
-168
-168
-168
-167
-167
-167
-167
-167
-168
-169
-169
-170
-171
-173
-175
-178
-181
-185
-191
-208
-223
-240
-254
-260
-263
-267
-269
-271
-269
-263
-255
-243
-229
-228
-227
-226
-227
-238
-245
-250
-254
-257
-258
-257
-254
-250
-244
-234
-210
-162
-89
1
99
185
224
219
153
14
-157
-330
-484
-585
-617
-627
-615
-581
-525
-456
-381
-312
-262
-238
-222
-209
-197
-184
-172
-162
-148
-127
-106
-91
-78
-66
-54
-40
-28
-19
-10
-2
6
17
30
40
49
58
67
77
89
100
114
133
155
176
198
220
238
251
265
276
284
292
298
304
310
315
321
325
329
332
335
337
339
341
343
343
342
338
333
327
321
313
300
290
281
268
247
236
233
229
225
222
220
220
219
218
218
218
218
219
220
220
220
220
219
219
219
219
219
218
218
218
218
219
219
217
215
214
216
222
229
238
251
260
264
269
272
275
276
276
273
269
264
258
252
244
234
224
213
203
193
185
179
174
168
161
150
134
115
98
85
69
45
23
8
0
-5
-8
-11
-13
-16
-19
-23
-27
-29
-31
-32
-34
-35
-37
-39
-40
-42
-44
-46
-49
-51
-53
-55
-57
-59
-63
-69
-76
-82
-88
-92
-95
-99
-101
-104
-105
-107
-109
-111
-113
-115
-116
-117
-118
-119
-121
-124
-127
-130
-134
-138
-142
-145
-148
-151
-153
-154
-156
-158
-160
-161
-162
-162
-162
-161
-158
-155
-153
-150
-146
-141
-139
-141
-147
-156
-173
-195
-202
-205
-208
-211
-214
-216
-217
-218
-219
-219
-220
-221
-221
-222
-222
-223
-222
-222
-222
-221
-221
-220
-219
-217
-213
-210
-205
-200
-173
-114
-41
38
120
194
239
239
189
62
-116
-314
-491
-612
-645
-656
-638
-584
-537
-495
-447
-391
-339
-296
-273
-258
-249
-238
-225
-219
-215
-212
-209
-206
-204
-201
-199
-197
-195
-193
-190
-187
-183
-178
-166
-152
-132
-108
-87
-72
-64
-59
-54
-51
-56
-66
-75
-84
-90
-90
-82
-71
-60
-47
-34
-23
-11
0
8
14
17
20
22
24
26
26
27
28
28
27
25
23
20
16
12
7
1
-10
-22
-32
-45
-60
-78
-96
-114
-129
-138
-144
-149
-152
-154
-156
-157
-158
-159
-160
-160
-161
-162
-164
-165
-166
-167
-166
-165
-163
-160
-156
-150
-143
-130
-105
-80
-50
-14
21
57
82
93
100
104
103
95
82
59
30
17
8
3
0
0
3
10
20
37
67
88
102
115
128
135
141
146
150
153
155
156
156
156
154
152
148
143
136
124
97
79
69
60
49
39
24
7
-3
-10
-16
-21
-28
-37
-45
-53
-62
-70
-79
-87
-93
-96
-99
-102
-105
-108
-110
-111
-112
-112
-113
-113
-112
-110
-107
-103
-100
-96
-92
-87
-81
-73
-65
-56
-45
-32
-16
-4
3
9
13
17
20
25
30
36
42
49
61
81
100
112
122
130
133
130
124
115
99
73
61
56
52
47
43
40
37
36
35
35
35
36
38
41
44
47
50
54
58
62
67
73
80
86
92
102
117
139
156
176
208
247
283
317
349
380
406
418
426
431
434
434
431
424
415
399
378
366
357
356
369
404
459
537
632
730
795
817
783
683
498
278
54
-139
-271
-318
-332
-312
-255
-169
-84
-23
11
48
80
94
100
106
111
115
118
122
126
130
133
135
138
141
144
147
150
153
154
155
155
155
155
154
152
151
149
147
145
143
141
141
140
140
140
141
143
145
148
151
154
157
160
163
166
169
172
176
181
185
188
192
194
196
196
194
192
189
185
181
176
171
163
154
145
138
129
112
82
60
49
40
33
26
21
15
9
3
-4
-14
-27
-43
-62
-87
-101
-109
-110
-111
-111
-111
-112
-113
-115
-116
-116
-117
-117
-118
-118
-118
-116
-114
-113
-111
-110
-109
-109
-109
-108
-108
-108
-109
-109
-109
-110
-110
-110
-111
-111
-112
-112
-112
-113
-114
-114
-115
-115
-116
-118
-119
-121
-122
-124
-127
-130
-133
-136
-137
-139
-139
-141
-142
-145
-147
-151
-154
-158
-162
-166
-169
-169
-168
-165
-161
-156
-151
-146
-140
-135
-131
-128
-126
-124
-122
-119
-116
-113
-111
-110
-108
-107
-106
-105
-105
-106
-106
-106
-106
-106
-105
-105
-104
-103
-102
-102
-103
-103
-104
-104
-104
-103
-103
-102
-102
-101
-100
-100
-100
-101
-103
-104
-105
-107
-109
-110
-111
-112
-112
-111
-111
-110
-110
-109
-108
-106
-103
-101
-99
-96
-94
-89
-76
-61
-43
-33
-26
-19
-13
-8
-5
-3
-4
-5
-7
-9
-11
-13
-15
-18
-23
-28
-32
-34
-34
-32
-30
-27
-24
-21
-18
-15
-13
-12
-12
-14
-16
-20
-24
-29
-35
-43
-50
-53
-51
-44
-31
5
76
164
261
358
426
449
422
341
174
-23
-220
-388
-504
-544
-556
-533
-499
-455
-406
-366
-313
-251
-203
-172
-158
-146
-138
-132
-128
-125
-122
-120
-117
-115
-114
-114
-114
-114
-114
-113
-111
-109
-108
-106
-104
-102
-100
-99
-98
-97
-95
-92
-89
-86
-83
-80
-76
-71
-65
-59
-53
-47
-40
-33
-25
-17
-9
0
7
15
23
29
35
39
44
48
54
60
65
68
67
63
57
48
39
30
19
6
-3
-12
-21
-33
-48
-62
-75
-89
-106
-120
-129
-136
-141
-146
-149
-152
-154
-157
-161
-165
-168
-170
-168
-163
-157
-151
-147
-144
-140
-136
-132
-128
-124
-120
-116
-111
-107
-104
-100
-97
-94
-91
-88
-85
-82
-79
-76
-73
-70
-68
-66
-64
-62
-61
-59
-57
-53
-50
-45
-40
-36
-32
-28
-24
-19
-13
-8
-3
2
7
12
17
22
27
31
36
42
49
56
63
70
77
85
93
99
103
105
107
108
111
114
116
117
114
109
103
97
93
88
82
77
74
75
80
85
89
91
93
95
98
101
104
108
110
112
115
116
118
118
117
115
114
113
113
115
116
118
122
126
128
127
124
122
120
118
115
113
111
108
102
96
89
84
79
76
71
67
62
58
54
50
47
45
42
40
37
35
32
30
26
23
19
15
10
5
1
-3
-8
-14
-20
-26
-32
-38
-44
-48
-53
-57
-61
-64
-67
-69
-72
-74
-76
-76
-76
-75
-73
-71
-69
-67
-63
-59
-54
-50
-37
-9
37
103
195
306
421
503
531
506
430
265
64
-128
-282
-345
-365
-347
-291
-228
-175
-127
-77
-15
54
107
123
133
141
146
150
155
164
177
184
187
188
190
190
191
192
195
197
201
205
209
213
217
222
230
239
247
254
261
269
278
287
298
309
315
320
325
329
332
335
338
340
342
344
346
347
349
350
353
355
357
359
360
358
355
351
345
338
328
308
291
275
262
250
239
220
194
172
157
144
128
106
82
55
36
26
18
9
0
-8
-18
-30
-38
-42
-45
-46
-48
-49
-50
-51
-51
-51
-51
-50
-49
-47
-44
-42
-39
-37
-36
-34
-32
-30
-29
-28
-27
-26
-25
-24
-23
-23
-24
-26
-28
-30
-32
-35
-38
-41
-44
-45
-47
-48
-49
-52
-55
-57
-60
-63
-66
-71
-75
-78
-80
-81
-82
-82
-83
-83
-83
-84
-85
-89
-94
-96
-94
-87
-81
-76
-71
-67
-63
-60
-59
-62
-66
-71
-76
-79
-82
-86
-89
-94
-98
-102
-106
-110
-114
-118
-122
-125
-128
-131
-133
-137
-141
-145
-149
-152
-156
-158
-161
-162
-162
-160
-158
-154
-151
-148
-144
-141
-137
-134
-130
-126
-121
-115
-110
-105
-100
-96
-93
-91
-89
-88
-87
-85
-82
-79
-77
-75
-76
-79
-84
-88
-92
-94
-96
-98
-99
-101
-103
-105
-107
-108
-109
-110
-110
-110
-110
-110
-109
-108
-106
-104
-102
-100
-98
-95
-93
-90
-88
-84
-78
-61
-45
-4
54
131
222
321
412
468
471
427
299
111
-104
-309
-455
-517
-521
-482
-406
-324
-252
-189
-155
-128
-108
-88
-69
-49
-34
-25
-19
-15
-12
-11
-14
-20
-28
-36
-46
-61
-70
-71
-72
-74
-75
-76
-77
-77
-75
-71
-65
-60
-56
-51
-46
-40
-34
-27
-20
-12
-3
7
19
28
38
47
57
68
80
93
103
113
121
128
133
138
142
145
148
150
153
155
157
158
158
155
151
147
142
137
131
121
110
95
80
66
54
43
34
26
19
13
8
4
0
-5
-9
-12
-14
-16
-17
-20
-24
-27
-29
-29
-26
-22
-18
-15
-13
-10
-6
-2
1
2
1
0
-3
-6
-8
-9
-11
-13
-15
-17
-18
-18
-18
-18
-18
-17
-17
-16
-15
-15
-16
-17
-19
-20
-21
-22
-23
-24
-25
-27
-28
-29
-30
-31
-33
-36
-38
-41
-44
-46
-47
-49
-50
-51
-52
-53
-53
-54
-55
-56
-57
-58
-59
-59
-59
-60
-60
-60
-60
-60
-60
-61
-62
-63
-65
-66
-67
-67
-69
-71
-73
-74
-73
-70
-65
-59
-55
-52
-49
-47
-44
-41
-39
-37
-35
-33
-33
-33
-33
-34
-36
-38
-40
-43
-45
-47
-49
-49
-50
-50
-50
-50
-49
-48
-47
-46
-46
-45
-46
-46
-46
-47
-47
-48
-50
-52
-54
-56
-59
-61
-65
-71
-79
-85
-90
-94
-98
-101
-103
-106
-108
-110
-111
-112
-113
-114
-115
-115
-115
-114
-112
-111
-109
-107
-104
-100
-95
-89
-84
-69
-36
20
90
173
262
343
383
379
319
186
5
-191
-366
-492
-547
-550
-512
-439
-365
-310
-289
-277
-262
-239
-195
-140
-92
-76
-66
-57
-49
-41
-35
-29
-23
-18
-13
-10
-8
-7
-7
-5
-4
-1
0
3
5
7
10
13
16
20
24
29
37
48
57
65
73
80
86
93
99
106
112
118
123
129
135
142
148
155
161
166
170
174
177
181
184
186
187
188
189
188
187
185
183
179
175
171
166
160
148
135
123
104
81
63
40
21
10
-2
-15
-21
-25
-29
-32
-36
-39
-41
-44
-45
-46
-46
-45
-44
-43
-41
-39
-37
-35
-34
-32
-30
-28
-23
-17
-15
-18
-25
-34
-39
-44
-49
-54
-58
-63
-67
-71
-74
-77
-81
-86
-90
-93
-93
-91
-87
-82
-78
-73
-66
-60
-57
-55
-54
-52
-50
-49
-48
-49
-54
-61
-68
-74
-81
-87
-93
-98
-101
-103
-105
-108
-112
-114
-114
-111
-105
-101
-98
-97
-96
-95
-93
-92
-91
-90
-88
-87
-85
-84
-83
-82
-82
-82
-81
-80
-79
-78
-76
-74
-71
-67
-62
-57
-51
-46
-42
-38
-33
-22
-5
2
8
11
5
-7
-21
-39
-52
-58
-63
-66
-69
-71
-72
-73
-73
-73
-71
-70
-68
-66
-64
-62
-59
-56
-54
-52
-50
-48
-46
-44
-41
-38
-34
-28
-2
35
81
139
209
287
364
417
421
384
266
90
-110
-293
-425
-466
-480
-462
-407
-336
-256
-174
-111
-70
-56
-44
-34
-16
7
25
38
54
62
65
68
71
73
75
78
82
85
89
93
97
101
104
106
109
111
114
118
123
128
132
136
140
144
147
150
152
154
159
167
175
183
189
195
200
205
211
218
225
232
237
244
250
255
257
256
251
244
238
233
229
224
220
215
211
207
203
198
190
177
165
150
131
111
89
70
55
38
29
24
20
16
12
8
4
2
0
-3
-7
-14
-26
-32
-35
-37
-38
-40
-41
-42
-44
-45
-45
-45
-45
-44
-43
-43
-43
-43
-44
-44
-45
-47
-49
-53
-58
-64
-73
-86
-100
-118
-141
-157
-167
-174
-179
-182
-185
-187
-189
-190
-191
-192
-189
-184
-177
-170
-164
-157
-150
-142
-135
-128
-122
-116
-109
-101
-93
-88
-87
-86
-85
-85
-84
-83
-82
-82
-82
-82
-83
-84
-85
-85
-85
-84
-84
-82
-81
-78
-76
-74
-71
-70
-68
-66
-64
-62
-59
-56
-53
-51
-50
-51
-53
-56
-59
-63
-68
-71
-76
-81
-86
-89
-91
-91
-88
-83
-78
-73
-69
-64
-58
-53
-48
-44
-41
-37
-33
-28
-21
-11
0
10
24
37
69
114
183
279
389
494
535
527
446
288
97
-83
-217
-299
-318
-321
-311
-256
-188
-114
-52
-3
27
49
61
71
80
88
94
99
106
112
120
128
135
140
145
149
152
154
155
156
157
158
161
164
163
157
148
134
110
97
91
85
81
77
75
73
73
73
75
76
79
83
88
94
101
110
127
139
146
157
178
196
207
214
220
224
227
229
231
233
234
235
236
236
236
235
234
231
228
223
217
210
201
182
171
162
155
144
128
116
105
96
89
84
78
71
60
45
38
35
33
31
30
29
28
27
25
23
21
18
16
13
11
10
8
7
5
4
4
3
2
0
-2
-5
-7
-9
-10
-11
-13
-15
-17
-19
-19
-19
-20
-22
-24
-26
-28
-30
-33
-36
-40
-45
-48
-51
-53
-53
-54
-54
-54
-53
-53
-52
-52
-52
-53
-53
-54
-54
-54
-54
-54
-54
-55
-56
-56
-56
-57
-57
-59
-61
-63
-64
-66
-67
-68
-70
-73
-75
-76
-76
-75
-75
-75
-73
-71
-67
-61
-55
-48
-30
-13
-10
-7
-7
-16
-22
-27
-31
-34
-36
-35
-34
-33
-32
-31
-30
-29
-28
-28
-27
-28
-28
-27
-25
-24
-23
-23
-24
-24
-22
-20
-16
-12
-8
11
56
120
198
282
363
426
446
428
374
256
102
-62
-208
-308
-352
-368
-369
-354
-314
-257
-189
-121
-62
-17
-2
7
16
24
33
42
51
56
59
61
63
65
66
68
70
72
74
75
75
75
75
75
75
75
75
76
78
80
83
84
84
83
81
80
78
74
77
95
109
120
130
136
142
146
150
154
158
161
165
169
173
177
180
184
188
192
196
198
199
198
194
189
183
175
165
149
135
122
110
98
86
75
62
47
33
20
7
-7
-19
-30
-39
-47
-52
-55
-58
-60
-62
-63
-63
-62
-61
-59
-57
-55
-54
-52
-50
-48
-46
-44
-43
-42
-42
-41
-40
-40
-41
-42
-43
-44
-44
-44
-45
-45
-46
-47
-47
-48
-49
-52
-53
-51
-46
-43
-40
-38
-36
-35
-34
-34
-35
-38
-41
-45
-49
-53
-61
-68
-75
-81
-88
-96
-99
-95
-87
-83
-79
-76
-73
-71
-70
-71
-74
-77
-79
-82
-84
-87
-90
-92
-94
-96
-97
-98
-99
-101
-101
-101
-100
-99
-98
-98
-98
-98
-97
-95
-93
-91
-88
-82
-79
-81
-84
-85
-87
-89
-91
-92
-93
-94
-94
-94
-93
-91
-88
-86
-83
-80
-78
-76
-75
-72
-69
-66
-63
-59
-56
-53
-51
-48
-46
-44
-42
-40
-37
-33
-32
-36
-44
-52
-58
-63
-68
-73
-78
-81
-83
-85
-87
-89
-90
-90
-91
-93
-96
-98
-98
-94
-88
-82
-77
-74
-70
-66
-62
-57
-54
-51
-45
-24
25
93
180
285
390
462
468
430
291
101
-93
-263
-386
-437
-454
-444
-411
-362
-310
-260
-212
-169
-146
-125
-105
-84
-58
-39
-31
-25
-20
-17
-14
-11
-8
-6
-2
2
10
22
33
43
49
49
49
49
51
49
37
30
24
20
16
15
15
16
19
22
27
33
42
52
63
82
106
127
146
163
182
202
224
242
253
264
274
287
301
308
311
313
315
316
317
318
318
317
315
312
308
303
296
286
268
255
240
218
202
193
185
178
171
166
161
156
151
145
139
135
132
128
125
123
121
119
118
118
118
117
116
115
114
111
109
109
110
112
114
116
118
120
118
113
105
96
82
69
59
52
45
37
27
19
10
1
-6
-12
-16
-19
-22
-25
-29
-32
-34
-33
-31
-28
-24
-21
-16
-11
-10
-13
-18
-21
-23
-26
-28
-31
-33
-35
-38
-40
-42
-43
-43
-43
-44
-45
-46
-47
-48
-50
-53
-57
-61
-65
-68
-71
-75
-82
-88
-90
-89
-89
-89
-90
-90
-91
-91
-91
-91
-91
-91
-90
-90
-89
-89
-89
-90
-92
-93
-95
-97
-98
-100
-102
-104
-106
-107
-108
-110
-112
-113
-115
-116
-116
-116
-116
-116
-116
-115
-115
-114
-113
-112
-112
-111
-110
-110
-109
-109
-109
-109
-110
-111
-111
-113
-114
-117
-121
-125
-129
-138
-160
-174
-182
-188
-193
-198
-202
-206
-210
-214
-217
-221
-226
-232
-235
-232
-227
-222
-218
-214
-211
-209
-206
-203
-199
-197
-193
-189
-185
-178
-148
-96
-22
65
157
252
334
374
370
308
171
-5
-198
-371
-502
-561
-566
-533
-490
-443
-388
-326
-258
-190
-132
-87
-73
-64
-58
-53
-43
-24
-14
-8
-4
-1
0
0
0
0
-1
-2
-3
-3
-5
-6
-8
-10
-13
-16
-20
-24
-29
-34
-41
-53
-61
-63
-64
-66
-67
-69
-69
-68
-63
-56
-48
-38
-29
-21
-7
12
30
42
51
57
61
65
67
68
66
62
58
54
49
44
43
44
47
49
52
54
55
51
42
32
26
19
11
4
0
-1
-1
0
2
4
6
10
13
13
11
9
6
4
2
2
4
7
10
12
16
20
25
27
27
25
22
19
17
12
9
10
12
16
22
7
-2
-7
-12
-17
-19
-20
-19
-19
-18
-17
-17
-17
-16
-15
-15
-15
-15
-15
-14
-14
-13
-13
-13
-14
-14
-14
-13
-12
-11
-11
-11
-11
-11
-11
-11
-11
-10
-10
-9
-8
-8
-7
-6
-6
-5
-5
-6
-6
-6
-6
-6
-5
-6
-6
-6
-6
-5
-5
-5
-5
-5
-5
-4
-3
-2
-1
-1
0
0
0
1
0
0
0
-1
-1
-1
-1
0
0
0
1
1
1
0
0
-1
-2
-3
-4
-5
-5
-5
-4
-2
0
1
3
5
7
9
11
13
15
17
19
21
24
27
30
31
30
25
17
8
0
-8
-21
-33
-42
-46
-49
-51
-52
-53
-55
-56
-58
-59
-59
-60
-61
-62
-62
-62
-61
-60
-59
-58
-58
-56
-54
-50
-46
-41
-17
25
88
165
253
345
428
483
488
452
328
146
-61
-252
-384
-430
-445
-429
-384
-334
-288
-239
-198
-152
-120
-84
-48
-15
7
15
19
21
23
24
26
28
29
31
33
34
35
37
39
40
42
45
47
50
53
57
61
64
67
70
73
77
80
84
87
90
94
98
103
107
112
115
118
121
125
130
137
148
160
173
179
184
189
193
196
199
200
201
201
201
200
199
196
192
188
183
178
171
154
138
123
107
91
82
76
71
66
60
54
49
44
40
34
29
25
23
22
23
23
23
22
20
20
19
20
21
23
24
25
26
29
30
30
25
17
11
7
5
3
1
0
-1
-3
-4
-4
-4
-5
-6
-8
-8
-8
-9
-9
-10
-12
-13
-15
-18
-21
-26
-37
-45
-50
-53
-54
-56
-58
-59
-60
-61
-62
-62
-62
-63
-63
-64
-65
-65
-66
-67
-68
-68
-69
-70
-72
-73
-74
-75
-76
-78
-80
-81
-83
-83
-83
-83
-82
-80
-78
-76
-74
-72
-70
-68
-66
-65
-64
-63
-63
-63
-63
-64
-65
-67
-68
-70
-71
-73
-76
-78
-80
-77
-70
-64
-61
-59
-58
-56
-54
-51
-49
-47
-46
-45
-44
-42
-40
-39
-39
-39
-38
-37
-32
-25
-13
-6
-1
3
8
11
11
9
4
-1
-9
-23
-46
-54
-58
-62
-65
-67
-68
-68
-69
-70
-71
-71
-71
-71
-70
-69
-68
-68
-66
-64
-62
-60
-57
-56
-53
-49
-39
-25
-6
21
78
154
244
343
437
491
492
441
312
128
-68
-238
-360
-435
-454
-461
-440
-377
-302
-230
-168
-112
-85
-70
-62
-54
-46
-36
-19
2
11
15
19
22
24
26
29
31
33
36
38
40
42
44
47
51
55
57
57
53
49
44
39
32
26
25
29
34
38
42
45
48
51
54
59
64
71
77
84
91
99
109
117
122
127
131
134
137
140
143
145
147
148
148
147
147
146
145
142
139
135
131
120
100
86
74
62
47
24
10
4
0
-4
-7
-11
-14
-17
-20
-23
-25
-26
-27
-28
-28
-28
-29
-29
-30
-31
-32
-33
-34
-35
-35
-35
-35
-35
-35
-35
-35
-35
-36
-37
-38
-39
-39
-39
-40
-39
-40
-40
-42
-43
-45
-47
-50
-52
-55
-59
-64
-69
-72
-74
-76
-77
-79
-80
-81
-82
-83
-85
-86
-88
-89
-89
-90
-90
-91
-91
-90
-89
-87
-84
-82
-80
-77
-74
-71
-69
-67
-65
-64
-63
-62
-61
-59
-58
-56
-53
-51
-49
-47
-46
-44
-43
-42
-40
-39
-39
-39
-38
-38
-37
-36
-34
-33
-32
-30
-27
-24
-19
-7
0
5
10
16
23
34
43
52
57
52
42
32
18
7
-8
-27
-39
-46
-51
-52
-48
-44
-41
-39
-36
-33
-31
-29
-27
-25
-24
-22
-20
-18
-16
-14
-11
-8
-4
0
1
4
10
31
81
156
248
344
422
434
420
321
161
-18
-193
-337
-418
-445
-439
-421
-356
-272
-187
-141
-129
-121
-113
-109
-102
-75
-37
-17
-8
-4
-1
0
1
5
10
16
22
29
40
59
70
76
80
84
87
88
89
89
89
88
87
85
84
83
83
83
86
91
97
104
114
126
141
149
155
159
163
167
170
173
175
176
176
177
178
179
179
180
180
182
183
185
186
184
181
177
170
159
139
127
119
112
103
92
75
50
26
7
-8
-30
-48
-58
-65
-68
-67
-66
-64
-62
-59
-57
-56
-59
-64
-68
-70
-71
-73
-75
-77
-78
-80
-81
-83
-85
-87
-88
-88
-88
-88
-89
-89
-88
-88
-88
-87
-88
-89
-90
-90
-90
-90
-89
-90
-89
-88
-87
-86
-86
-86
-86
-86
-86
-82
-76
-72
-68
-65
-64
-66
-70
-75
-78
-82
-85
-88
-90
-91
-93
-94
-95
-95
-94
-93
-91
-90
-88
-86
-84
-81
-78
-75
-72
-68
-64
-60
-56
-53
-50
-48
-46
-44
-41
-38
-36
-34
-33
-32
-32
-32
-31
-31
-30
-30
-28
-25
-24
-25
-29
-33
-40
-50
-61
-73
-85
-96
-106
-113
-122
-131
-137
-143
-148
-150
-151
-148
-144
-139
-133
-127
-121
-116
-113
-109
-106
-103
-99
-96
-92
-85
-62
-29
17
79
153
232
307
358
362
334
229
79
-100
-278
-422
-489
-497
-469
-398
-314
-241
-186
-141
-99
-76
-56
-36
-17
2
14
20
25
30
36
41
47
55
65
75
86
91
94
95
97
99
101
103
104
106
108
109
111
112
113
113
114
116
118
123
131
140
148
155
162
169
178
187
194
200
206
211
216
221
226
229
232
235
238
240
241
242
241
239
237
235
231
227
221
209
197
190
186
183
180
176
172
169
165
160
150
129
108
93
81
75
71
68
65
61
57
53
47
38
24
12
7
4
1
0
-1
-3
-3
-4
-5
-6
-7
-9
-10
-12
-14
-16
-18
-20
-22
-24
-26
-27
-28
-29
-29
-30
-30
-30
-31
-32
-33
-35
-36
-38
-39
-40
-41
-42
-43
-43
-42
-42
-42
-44
-45
-47
-49
-50
-52
-53
-55
-57
-58
-58
-58
-59
-60
-61
-62
-63
-64
-66
-67
-69
-71
-72
-73
-74
-75
-76
-78
-79
-80
-81
-82
-84
-86
-89
-91
-94
-96
-98
-101
-102
-103
-102
-101
-99
-96
-93
-90
-87
-84
-80
-77
-73
-70
-69
-68
-69
-72
-76
-81
-86
-91
-97
-103
-108
-113
-117
-121
-124
-126
-128
-129
-131
-132
-133
-133
-134
-133
-133
-131
-129
-126
-122
-118
-113
-106
-91
-75
-53
-25
20
86
175
272
354
382
373
299
153
-27
-218
-391
-507
-544
-545
-515
-465
-409
-357
-309
-268
-228
-204
-180
-154
-138
-129
-123
-118
-112
-108
-104
-102
-100
-98
-97
-96
-95
-95
-96
-96
-95
-94
-94
-94
-93
-92
-91
-91
-90
-89
-88
-86
-84
-81
-77
-74
-70
-60
-50
-43
-36
-26
-13
0
6
11
15
18
22
27
31
36
42
50
62
71
76
80
83
85
88
90
90
90
87
83
77
71
58
33
16
5
-5
-15
-21
-25
-29
-32
-34
-36
-37
-37
-37
-35
-33
-31
-28
-26
-24
-22
-18
-14
-11
-10
-10
-10
-9
-9
-9
-10
-11
-13
-13
-8
-2
1
4
6
9
12
15
18
20
22
24
26
30
34
36
36
33
28
23
20
16
13
9
6
4
2
0
-3
-5
-7
-10
-13
-16
-19
-21
-21
-19
-16
-12
-7
0
0
-11
-28
-42
-47
-51
-54
-54
-51
-45
-36
-19
-5
3
7
3
-3
-9
-17
-25
-34
-44
-54
-56
-58
-60
-59
-50
-44
-40
-37
-34
-32
-30
-28
-25
-21
-19
-18
-16
-14
-11
-8
-6
-6
-7
-9
-11
-13
-15
-20
-26
-17
-10
-5
-1
5
14
25
35
49
58
60
61
62
63
62
49
34
20
16
13
10
8
7
7
8
9
11
14
19
11
6
3
1
0
-1
-2
-3
-4
-5
-5
-3
-1
1
5
11
16
28
54
98
159
245
351
467
573
624
619
544
383
173
-29
-187
-298
-350
-367
-359
-334
-279
-207
-131
-67
-13
25
45
63
85
98
104
108
112
115
117
119
120
121
122
123
124
125
126
127
128
130
132
134
138
141
145
148
151
153
155
157
160
163
167
170
174
178
183
187
191
196
200
207
214
220
224
228
231
234
238
243
249
256
263
270
277
282
285
282
276
270
264
260
255
250
244
239
232
221
205
195
181
162
139
115
97
87
79
70
63
57
51
46
42
39
35
32
30
28
27
26
25
23
22
20
18
17
15
14
12
11
10
9
8
7
6
5
3
1
0
-2
-4
-6
-8
-10
-12
-13
-14
-14
-14
-14
-15
-16
-16
-18
-19
-21
-24
-27
-30
-35
-39
-43
-47
-50
-53
-55
-58
-60
-62
-64
-66
-68
-71
-74
-77
-79
-81
-83
-85
-87
-89
-91
-92
-94
-98
-106
-113
-118
-122
-124
-126
-128
-130
-132
-134
-134
-135
-135
-135
-135
-135
-134
-134
-134
-134
-134
-134
-135
-136
-138
-138
-139
-138
-138
-138
-138
-139
-139
-139
-139
-141
-144
-146
-146
-141
-134
-127
-122
-118
-113
-108
-103
-98
-95
-92
-91
-90
-88
-86
-84
-82
-81
-81
-80
-80
-80
-80
-81
-83
-87
-90
-94
-97
-101
-105
-109
-113
-116
-118
-119
-120
-121
-123
-125
-127
-128
-128
-125
-120
-115
-110
-105
-99
-93
-87
-81
-77
-75
-71
-65
-39
13
93
197
315
416
444
431
339
176
-21
-221
-383
-498
-546
-562
-552
-519
-472
-402
-339
-282
-238
-212
-185
-159
-133
-106
-91
-84
-79
-74
-69
-64
-59
-56
-53
-52
-49
-47
-45
-43
-41
-40
-38
-36
-34
-32
-30
-29
-28
-26
-22
-14
-6
3
9
13
18
22
27
31
35
39
43
49
58
74
92
101
107
111
115
118
121
124
127
130
133
136
138
140
143
146
149
152
154
154
153
151
149
145
140
132
117
101
89
81
73
65
57
48
41
32
26
23
24
24
24
24
24
24
24
24
24
25
25
26
27
28
29
30
32
32
32
31
30
29
29
29
29
29
28
28
27
27
26
25
24
22
20
18
16
15
14
14
13
13
13
13
13
14
14
14
14
13
13
13
12
12
11
11
10
10
10
10
10
10
9
8
8
8
8
8
7
6
6
7
8
9
10
10
11
12
13
14
16
17
18
19
20
22
24
25
27
27
29
32
36
41
44
44
42
40
37
35
34
32
30
27
24
21
19
17
16
14
13
13
12
11
10
6
2
0
2
5
8
10
12
14
16
18
20
21
22
23
23
21
19
16
13
10
5
0
-7
-24
-38
-44
-48
-51
-54
-56
-59
-61
-64
-66
-68
-70
-73
-76
-78
-81
-84
-88
-91
-94
-95
-94
-92
-90
-86
-81
-65
-27
23
90
175
268
361
427
449
423
342
185
-4
-184
-333
-410
-438
-439
-425
-387
-351
-308
-263
-214
-169
-127
-85
-42
-24
-16
-12
-10
-8
-5
-2
2
6
10
12
14
16
16
17
17
19
20
22
25
28
30
31
32
33
34
36
38
41
45
49
57
66
74
81
87
93
99
104
110
116
122
128
132
137
142
146
149
151
153
154
156
157
159
162
164
166
167
166
163
158
152
144
130
115
95
73
52
31
9
-12
-24
-31
-35
-40
-44
-48
-53
-59
-69
-78
-83
-87
-91
-93
-93
-89
-84
-79
-76
-74
-73
-71
-70
-69
-68
-67
-66
-65
-64
-62
-61
-60
-60
-59
-58
-57
-56
-54
-53
-51
-48
-42
-35
-35
-39
-45
-50
-56
-61
-63
-62
-58
-53
-50
-45
-42
-42
-48
-54
-59
-64
-69
-72
-73
-70
-67
-63
-58
-52
-49
-51
-57
-62
-68
-68
-60
-55
-51
-48
-45
-43
-42
-42
-41
-38
-39
-48
-54
-58
-62
-66
-68
-69
-70
-72
-74
-75
-76
-76
-74
-71
-66
-61
-55
-47
-41
-39
-37
-36
-35
-34
-33
-32
-32
-32
-32
-32
-33
-34
-36
-39
-42
-45
-47
-50
-54
-58
-61
-64
-66
-68
-69
-71
-74
-77
-79
-81
-84
-87
-91
-94
-96
-99
-101
-102
-103
-103
-103
-102
-99
-96
-91
-82
-64
-32
17
85
170
263
351
423
441
429
347
200
4
-199
-375
-490
-527
-502
-437
-362
-306
-278
-263
-241
-208
-160
-108
-58
-25
-10
-5
-2
0
0
1
1
1
0
0
-2
-3
-4
-5
-7
-9
-10
-10
-10
-9
-8
-5
-2
1
9
27
36
40
43
46
48
50
52
53
54
54
53
53
52
50
48
46
43
41
39
38
38
