-189
-231
-270
-311
-332
-337
-340
-342
-341
-334
-327
-323
-321
-320
-319
-318
-316
-315
-315
-315
-314
-312
-310
-308
-306
-304
-302
-299
-296
-294
-291
-289
-287
-284
-280
-276
-271
-266
-261
-256
-251
-247
-243
-239
-236
-233
-231
-228
-225
-221
-216
-212
-207
-203
-200
-196
-192
-188
-185
-181
-178
-175
-172
-168
-164
-161
-156
-152
-148
-142
-136
-128
-120
-113
-107
-102
-98
-95
-91
-89
-88
-91
-98
-106
-114
-118
-123
-128
-132
-137
-141
-146
-150
-153
-154
-154
-154
-153
-152
-150
-147
-143
-139
-134
-129
-102
-48
25
108
187
243
261
252
226
165
91
9
-78
-165
-230
-254
-255
-236
-208
-171
-146
-132
-122
-112
-104
-99
-94
-90
-88
-86
-84
-82
-79
-76
-72
-68
-65
-61
-57
-53
-50
-47
-45
-42
-40
-37
-35
-34
-31
-29
-27
-24
-23
-22
-21
-21
-20
-19
-17
-15
-13
-10
-3
4
14
25
33
40
46
52
58
65
71
78
85
93
100
106
111
116
120
123
127
130
133
135
136
137
138
137
135
132
127
122
115
107
96
73
53
35
20
8
-2
-9
-14
-18
-22
-26
-32
-37
-44
-51
-59
-69
-78
-86
-93
-98
-101
-104
-106
-108
-110
-112
-113
-115
-116
-116
-116
-115
-114
-111
-108
-104
-100
-96
-91
-87
-83
-79
-73
-66
-59
-53
-48
-44
-41
-38
-36
-35
-34
-34
-34
-33
-33
-32
-32
-32
-31
-31
-31
-31
-31
-32
-32
-32
-32
-32
-32
-32
-32
-32
-32
-31
-30
-30
-29
-28
-28
-27
-27
-27
-28
-28
-29
-29
-29
-29
-28
-27
-25
-24
-22
-21
-20
-19
-18
-17
-16
-14
-12
-9
-7
-3
4
13
21
25
29
32
36
40
44
46
45
37
27
15
5
-6
-17
-24
-27
-30
-32
-34
-36
-38
-40
-41
-42
-42
-42
-42
-41
-39
-35
-30
-24
-17
-7
33
97
173
245
294
310
301
277
223
155
76
-8
-89
-149
-172
-173
-158
-136
-103
-75
-58
-46
-37
-31
-26
-21
-17
-13
-9
-4
0
4
7
9
11
12
13
14
14
15
15
16
17
18
18
19
20
21
22
23
24
25
26
28
30
32
35
38
41
45
49
53
58
62
66
70
73
76
80
84
90
100
110
120
129
137
145
152
156
159
161
163
164
166
168
169
170
168
163
155
148
140
130
120
112
105
97
85
69
50
34
22
12
0
-9
-13
-15
-17
-19
-21
-22
-23
-24
-25
-26
-27
-28
-28
-28
-27
-26
-26
-25
-24
-23
-22
-21
-21
-21
-21
-21
-21
-21
-21
-20
-19
-18
-17
-16
-15
-15
-14
-14
-15
-16
-17
-18
-19
-21
-22
-24
-25
-27
-29
-31
-34
-37
-41
-46
-50
-55
-59
-64
-67
-70
-72
-74
-75
-76
-77
-78
-78
-79
-80
-80
-81
-82
-82
-83
-84
-84
-82
-78
-73
-67
-60
-52
-41
-30
-20
-10
-2
3
9
15
22
27
32
38
46
56
63
66
69
71
74
76
75
65
53
43
34
25
18
12
7
2
0
-3
-7
-10
-12
-14
-14
-15
-15
-13
-11
-6
-1
5
14
51
114
200
301
402
470
475
427
282
89
-98
-235
-276
-272
-212
-143
-96
-84
-77
-71
-65
-58
-53
-48
-45
-43
-41
-39
-38
-38
-37
-36
-35
-33
-32
-31
-31
-31
-30
-29
-27
-26
-25
-24
-23
-22
-21
-20
-19
-18
-16
-15
-12
-10
-7
-5
-1
6
15
23
30
36
41
46
51
56
61
67
74
81
89
95
100
105
109
114
118
122
126
129
132
134
135
134
133
131
127
124
120
116
111
106
101
95
84
72
62
53
44
34
24
13
1
-9
-12
-14
-16
-18
-19
-21
-23
-24
-25
-26
-27
-27
-27
-27
-26
-25
-24
-23
-21
-20
-19
-18
-17
-16
-16
-15
-14
-13
-13
-13
-15
-15
-15
-16
-16
-17
-17
-18
-19
-20
-21
-21
-22
-23
-23
-23
-24
-24
-24
-25
-25
-26
-27
-27
-28
-29
-29
-30
-30
-30
-30
-30
-30
-31
-31
-32
-32
-33
-34
-35
-36
-37
-38
-38
-39
-42
-45
-41
-37
-35
-33
-33
-32
-33
-33
-33
-32
-33
-33
-33
-32
-31
-30
-29
-28
-28
-27
-27
-26
-25
-25
-25
-24
-24
-23
-22
-21
-20
-19
-17
-15
-14
-12
-11
-9
-8
-6
-3
-1
1
4
11
20
26
30
33
35
38
41
44
46
46
41
33
24
15
4
-7
-18
-28
-35
-41
-47
-51
-54
-56
-57
-58
-58
-56
-54
-50
-46
-40
-34
-20
10
63
135
230
340
442
492
485
396
220
13
-170
-270
-283
-251
-180
-129
-114
-104
-91
-80
-74
-69
-65
-62
-58
-56
-53
-51
-49
-47
-45
-42
-40
-38
-37
-36
-35
-34
-33
-31
-30
-28
-27
-25
-23
-21
-19
-18
-16
-15
-13
-12
-10
-8
-7
-5
-3
-1
1
4
6
10
17
25
32
38
45
54
64
77
91
99
106
112
116
120
123
124
125
126
126
127
127
128
130
131
132
133
133
130
126
121
115
108
96
85
74
62
48
33
20
8
-1
-10
-17
-22
-27
-31
-36
-40
-43
-45
-46
-48
-49
-51
-52
-52
-52
-52
-51
-51
-50
-48
-46
-44
-42
-40
-39
-38
-37
-36
-35
-34
-34
-34
-35
-35
-34
-34
-34
-34
-34
-35
-34
-33
-32
-31
-30
-29
-28
-26
-25
-24
-22
-22
-21
-20
-19
-18
-17
-16
-15
-14
-12
-11
-10
-8
-7
-7
-6
-6
-6
-5
-5
-4
-3
-3
-2
0
0
1
2
3
3
3
4
4
5
5
6
6
6
6
7
7
8
8
8
8
9
10
11
12
13
13
13
14
14
14
15
15
15
15
16
16
17
18
19
20
21
22
22
22
22
23
23
24
25
26
28
30
32
34
37
39
41
43
46
48
51
52
53
52
50
47
44
41
37
32
25
17
10
4
0
-4
-8
-12
-16
-20
-24
-29
-34
-42
-55
-61
-63
-67
-71
-60
-25
26
100
200
321
445
531
538
490
335
129
-78
-231
-283
-281
-224
-159
-113
-91
-79
-72
-62
-49
-38
-27
-18
-11
-6
-3
0
1
3
5
7
10
13
17
20
23
26
28
29
31
33
35
36
37
38
39
40
42
43
45
46
47
48
49
50
51
52
54
56
58
62
68
73
78
84
90
94
98
102
105
108
111
113
115
117
118
120
122
123
125
128
130
132
132
132
130
126
122
117
110
96
85
73
61
52
39
25
12
-2
-14
-20
-26
-33
-40
-46
-54
-59
-62
-64
-65
-66
-67
-68
-68
-69
-70
-71
-71
-71
-71
-70
-70
-69
-69
-68
-68
-68
-68
-68
-68
-68
-68
-67
-67
-66
-66
-65
-64
-63
-63
-63
-63
-64
-64
-65
-65
-65
-65
-65
-65
-65
-64
-64
-64
-64
-64
-65
-65
-66
-66
-67
-67
-67
-68
-67
-67
-67
-67
-66
-66
-66
-65
-65
-65
-65
-65
-65
-65
-65
-64
-64
-62
-60
-59
-57
-55
-54
-52
-52
-51
-50
-50
-50
-50
-50
-50
-51
-50
-50
-50
-50
-49
-49
-48
-47
-47
-47
-47
-47
-47
-47
-47
-47
-47
-47
-47
-46
-45
-45
-44
-43
-42
-41
-41
-40
-40
-39
-38
-37
-35
-32
-29
-26
-23
-20
-16
-12
-6
3
14
20
25
29
31
31
28
24
19
9
-6
-15
-20
-25
-31
-38
-43
-48
-52
-56
-58
-58
-57
-54
-51
-47
-44
-39
-33
-28
-23
-15
12
63
140
246
370
486
539
530
432
241
20
-167
-281
-312
-272
-201
-134
-89
-64
-51
-38
-23
-16
-13
-11
-9
-8
-7
-7
-6
-5
-5
-3
-2
-1
-1
0
0
2
3
5
7
9
13
18
20
22
24
26
27
29
28
26
23
21
18
15
15
17
22
29
38
50
59
67
73
81
88
92
95
98
100
102
104
106
108
110
112
114
115
117
119
121
124
127
131
133
133
132
130
127
123
115
99
82
65
51
40
33
25
18
7
-1
-7
-13
-17
-22
-27
-35
-44
-48
-51
-53
-54
-55
-56
-57
-57
-57
-56
-56
-55
-55
-54
-53
-52
-51
-50
-50
-50
-49
-48
-47
-47
-46
-46
-46
-46
-45
-45
-45
-46
-46
-46
-45
-44
-43
-42
-41
-40
-39
-38
-37
-36
-36
-36
-35
-35
-34
-34
-34
-34
-34
-34
-33
-33
-32
-32
-32
-32
-31
-31
-32
-32
-33
-33
-34
-34
-33
-33
-32
-31
-30
-29
-28
-27
-26
-25
-25
-24
-24
-24
-24
-23
-23
-22
-20
-19
-18
-16
-15
-14
-13
-12
-12
-11
-10
-9
-8
-6
-4
0
10
17
25
32
40
45
49
52
51
47
39
30
18
8
0
-10
-20
-25
-28
-31
-34
-35
-37
-37
-38
-38
-37
-36
-35
-33
-31
-28
-22
-10
11
45
97
173
269
368
445
475
432
310
134
-53
-203
-268
-272
-226
-156
-100
-72
-62
-53
-44
-35
-25
-20
-15
-12
-9
-6
-2
0
3
6
8
11
13
14
16
17
19
21
22
24
26
28
30
32
35
38
40
42
44
45
47
48
49
50
51
53
54
55
57
58
60
62
64
70
75
80
85
91
97
103
112
124
132
136
139
142
145
146
148
150
152
153
154
153
149
145
140
134
124
117
112
106
98
89
77
64
52
39
27
12
-3
-20
-32
-40
-43
-44
-45
-45
-45
-45
-45
-46
-46
-46
-46
-46
-46
-45
-45
-45
-45
-44
-44
-43
-43
-42
-42
-41
-39
-38
-36
-34
-32
-30
-28
-23
-18
-16
-14
-14
-14
-13
-13
-12
-12
-11
-11
-10
-9
-8
-8
-8
-8
-7
-7
-7
-7
-6
-6
-5
-3
-2
-1
-1
0
0
0
0
-1
-2
-3
-4
-5
-6
-6
-7
-8
-8
-9
-9
-9
-9
-9
-9
-10
-10
-10
-10
-11
-11
-11
-12
-12
-12
-12
-12
-12
-11
-11
-10
-10
-9
-8
-7
-6
-5
-4
-2
-1
2
12
20
25
29
33
34
33
29
24
15
0
-13
-22
-32
-40
-47
-52
-55
-58
-59
-61
-62
-63
-64
-65
-65
-65
-64
-63
-60
-58
-55
-43
-19
24
93
189
300
405
460
456
377
202
-10
-202
-326
-358
-314
-234
-160
-109
-92
-88
-85
-82
-78
-73
-68
-62
-52
-47
-45
-43
-41
-40
-39
-38
-37
-35
-34
-32
-31
-30
-29
-28
-27
-25
-24
-22
-21
-19
-17
-16
-14
-13
-12
-11
-9
-7
-5
-3
-1
1
4
7
10
14
18
26
33
38
45
53
62
71
80
87
93
97
100
104
109
113
116
120
123
125
127
127
126
124
121
118
115
109
104
98
91
82
74
64
51
38
24
10
-3
-14
-23
-31
-34
-35
-37
-38
-38
-39
-40
-40
-40
-41
-41
-41
-41
-40
-40
-39
-39
-38
-37
-36
-34
-33
-31
-30
-29
-28
-28
-28
-27
-27
-28
-28
-27
-27
-27
-27
-27
-26
-26
-26
-26
-27
-27
-28
-28
-28
-29
-30
-30
-31
-31
-31
-32
-32
-32
-32
-32
-32
-32
-31
-31
-31
-30
-30
-30
-30
-30
-30
-29
-28
-26
-24
-22
-21
-20
-19
-17
-17
-16
-17
-17
-18
-18
-19
-20
-22
-24
-26
-28
-32
-35
-36
-34
-32
-31
-30
-29
-28
-27
-26
-26
-25
-24
-23
-23
-23
-22
-22
-22
-21
-21
-21
-20
-19
-17
-15
-14
-11
-8
-5
0
4
10
15
22
27
30
30
31
31
32
31
24
13
-1
-14
-24
-33
-38
-41
-43
-46
-48
-49
-50
-50
-50
-50
-50
-49
-48
-46
-44
-41
-30
-6
30
85
163
264
375
472
518
487
369
185
-18
-187
-275
-285
-252
-186
-130
-99
-86
-76
-61
-50
-46
-43
-41
-38
-36
-34
-32
-31
-29
-28
-27
-25
-23
-22
-21
-20
-20
-19
-19
-18
-18
-19
-19
-20
-20
-20
-20
-21
-22
-23
-24
-24
-22
-19
-15
-12
-9
-5
-1
2
6
8
10
13
17
23
29
36
46
61
71
77
83
88
94
98
102
106
108
109
109
109
110
110
110
111
107
100
93
86
79
72
65
58
50
42
32
21
12
4
-4
-11
-22
-34
-40
-43
-46
-47
-48
-47
-46
-44
-42
-42
-41
-41
-40
-40
-39
-39
-39
-38
-38
-37
-37
-37
-36
-36
-35
-34
-33
-32
-32
-31
-30
-29
-28
-27
-25
-24
-22
-21
-19
-19
-18
-19
-19
-19
-20
-20
-20
-21
-21
-22
-23
-23
-24
-24
-24
-23
-23
-22
-21
-20
-19
-19
-18
-18
-19
-21
-22
-23
-24
-24
-25
-26
-27
-27
-27
-27
-26
-26
-26
-25
-25
-25
-24
-24
-24
-24
-25
-25
-26
-26
-27
-28
-29
-29
-30
-31
-31
-32
-33
-33
-34
-35
-36
-36
-37
-38
-39
-39
-40
-39
-39
-39
-39
-40
-40
-39
-39
-39
-40
-41
-41
-42
-42
-43
-43
-43
-43
-44
-44
-45
-47
-49
-46
-39
-33
-28
-24
-21
-20
-18
-15
-11
-11
-20
-33
-49
-60
-69
-77
-88
-101
-111
-119
-127
-130
-133
-135
-136
-137
-138
-139
-140
-141
-141
-141
-142
-144
-148
-138
-107
-53
25
124
235
339
384
374
279
105
-95
-272
-381
-402
-397
-350
-297
-255
-228
-203
-192
-185
-181
-191
-209
-221
-225
-228
-230
-230
-229
-227
-225
-222
-219
-217
-220
-226
-231
-237
-241
-242
-243
-244
-245
-245
-247
-247
-248
-249
-249
-249
-250
-251
-251
-251
-251
-251
-252
-254
-255
-256
-255
-251
-246
-237
-221
-210
-204
-199
-195
-191
-186
-181
-176
-169
-161
-154
-147
-140
-135
-132
-129
-126
-124
-122
-120
-119
-118
-117
-115
-112
-111
-112
-114
-119
-125
-132
-142
-149
-154
-158
-161
-166
-172
-177
-182
-187
-191
-193
-194
-197
-200
-202
-199
-193
-188
-183
-177
-171
-166
-161
-156
-151
-146
-142
-138
-128
-113
-102
-93
-85
-79
-75
-71
-67
-62
-58
-52
-44
-35
-22
-6
2
6
8
10
12
14
17
19
21
23
26
31
41
62
79
91
100
112
126
141
157
172
181
188
193
203
217
233
249
262
272
281
291
304
317
333
346
353
359
365
370
373
375
377
379
380
382
384
385
387
388
390
392
394
399
408
414
423
435
447
456
463
482
508
523
538
553
579
616
657
693
724
768
837
933
1048
1163
1260
1336
1392
1431
1457
1466
1454
1416
1356
1308
1279
1268
1263
1260
1260
1262
1264
1265
1264
1256
1247
1238
1228
1215
1199
1172
1148
1132
1115
1097
1067
1027
982
943
911
880
850
839
832
834
858
892
937
990
1044
1098
1143
1149
1131
1039
873
637
373
149
10
-21
-31
-18
-3
8
9
2
-16
-48
-75
-91
-108
-121
-132
-144
-155
-164
-173
-185
-201
-221
-239
-255
-270
-290
-314
-338
-349
-356
-360
-367
-376
-384
-389
-395
-401
-406
-412
-426
-438
-443
-446
-442
-436
-431
-430
-433
-437
-441
-439
-436
-434
-433
-435
-439
-442
-439
-436
-434
-432
-431
-431
-431
-431
-430
-430
-429
-429
-429
-430
-430
-430
-430
-431
-432
-434
-436
-438
-449
-474
-490
-508
-530
-559
-580
-589
-596
-600
-599
-597
-595
-594
-593
-592
-592
-591
-591
-592
-593
-595
-597
-599
-602
-605
-608
-611
-612
-611
-608
-604
-597
-588
-575
-569
-566
-563
-562
-561
-559
-557
-555
-552
-549
-544
-537
-523
-499
-483
-470
-456
-438
-418
-404
-394
-384
-375
-365
-353
-336
-314
-289
-268
-239
-206
-171
-139
-108
-78
-47
-24
2
26
60
93
127
150
176
201
226
248
258
264
268
271
272
272
270
266
261
255
249
242
235
230
226
223
218
210
199
192
189
186
184
182
179
177
174
172
168
164
153
134
123
116
111
107
104
101
98
94
91
87
83
79
73
67
63
66
71
74
78
81
83
83
80
74
67
55
32
13
-1
-12
-26
-45
-63
-75
-83
-88
-92
-95
-96
-96
-94
-90
-86
-83
-78
-74
-69
-65
-58
-35
4
61
139
236
338
401
402
348
207
22
-161
-298
-351
-351
-302
-233
-179
-151
-143
-136
-128
-121
-115
-110
-104
-100
-97
-95
-94
-93
-92
-91
-90
-89
-88
-88
-89
-88
-87
-86
-86
-85
-84
-83
-81
-80
-79
-79
-78
-76
-74
-70
-67
-64
-60
-56
-53
-50
-46
-44
-41
-39
-36
-34
-31
-29
-27
-26
-23
-19
-13
-6
2
15
34
44
49
53
57
59
60
61
61
61
61
60
58
56
52
49
45
40
30
19
9
-2
-16
-34
-50
-64
-75
-85
-89
-92
-94
-96
-98
-99
-101
-102
-104
-105
-107
-108
-108
-109
-109
-108
-106
-104
-102
-100
-97
-95
-92
-89
-86
-82
-79
-75
-70
-63
-57
-52
-48
-44
-41
-39
-37
-36
-35
-34
-32
-31
-30
-28
-27
-25
-24
-22
-21
-21
-20
-20
-20
-19
-18
-16
-12
-9
-6
-6
-7
-9
-11
-13
-15
-18
-20
-22
-23
-23
-22
-21
-20
-19
-18
-17
-16
-15
-14
-14
-14
-13
-13
-13
-14
-14
-14
-15
-14
-14
-14
-14
-14
-14
-13
-12
-11
-10
-9
-8
-7
-5
-4
-3
-2
-2
0
0
1
2
3
4
5
6
8
9
9
10
10
10
11
11
12
13
14
15
16
17
18
19
20
21
22
22
23
24
25
27
29
32
35
39
43
48
52
56
58
60
61
62
64
65
68
71
70
64
55
44
28
13
3
-4
-12
-16
-16
-14
-11
-9
-7
-6
-4
-2
0
3
7
12
20
48
114
201
306
422
530
583
576
484
299
81
-110
-234
-254
-244
-176
-108
-59
-43
-33
-26
-18
-10
-4
0
3
4
6
7
9
10
11
13
15
17
19
21
23
24
25
26
28
29
30
32
33
34
35
37
38
38
39
40
41
42
43
44
46
47
49
51
53
55
58
62
71
80
89
97
105
112
120
126
133
138
142
144
148
151
154
156
157
158
159
159
159
158
157
155
153
152
149
147
142
131
119
102
81
58
35
20
11
5
0
-3
-6
-9
-13
-19
-24
-30
-33
-35
-38
-40
-42
-43
-44
-45
-46
-46
-47
-47
-47
-46
-46
-47
-48
-48
-48
-45
-42
-39
-37
-36
-34
-32
-30
-29
-28
-28
-28
-27
-26
-26
-26
-26
-27
-27
-28
-28
-29
-30
-32
-33
-34
-35
-36
-37
-39
-39
-39
-39
-40
-41
-43
-44
-45
-44
-44
-44
-43
-43
-42
-40
-38
-37
-36
-35
-33
-32
-30
-29
-28
-27
-26
-24
-22
-21
-21
-22
-24
-26
-27
-30
-33
-34
-34
-31
-29
-28
-27
-26
-25
-24
-23
-21
-20
-19
-18
-17
-17
-16
-17
-17
-18
-18
-17
-16
-15
-14
-13
-10
-8
-7
-8
-9
-10
-11
-8
-2
3
12
20
24
26
29
31
33
34
35
35
35
34
33
31
28
25
21
17
12
4
-3
-12
-17
-20
-24
-27
-29
-31
-32
-32
-32
-31
-30
-28
-25
-21
-17
0
33
88
169
272
387
491
533
522
427
253
50
-127
-241
-273
-235
-169
-110
-75
-63
-51
-35
-20
-14
-12
-10
-9
-8
-6
-4
-1
0
3
6
8
9
10
10
11
12
13
14
15
16
17
19
20
21
22
23
25
27
28
30
32
34
38
48
54
57
59
61
62
63
65
67
71
75
80
85
91
100
109
116
122
128
134
139
143
148
152
160
168
169
170
171
171
172
171
169
166
160
151
135
121
111
103
93
79
61
42
26
17
9
3
-3
-10
-18
-24
-29
-32
-35
-39
-43
-47
-51
-54
-56
-59
-62
-64
-64
-64
-62
-61
-60
-59
-58
-56
-54
-53
-53
-52
-52
-52
-52
-52
-53
-55
-56
-58
-59
-61
-63
-65
-66
-66
-65
-63
-62
-61
-59
-57
-56
-54
-54
-55
-57
-58
-59
-60
-62
-64
-65
-66
-66
-65
-63
-62
-60
-59
-57
-54
-53
-52
-53
-55
-57
-60
-62
-66
-69
-71
-68
-62
-56
-54
-52
-51
-50
-48
-47
-46
-45
-44
-43
-42
-41
-40
-40
-39
-39
-39
-39
-39
-38
-38
-38
-38
-37
-37
-36
-35
-34
-32
-31
-28
-20
-8
0
5
9
11
13
14
16
17
18
19
20
21
21
21
20
17
14
9
1
-13
-21
-24
-27
-30
-32
-34
-34
-35
-35
-34
-34
-34
-32
-30
-27
-25
-21
-7
26
78
148
236
334
423
462
455
378
228
53
-109
-223
-254
-251
-202
-144
-95
-60
-38
-23
-16
-10
-5
-1
2
6
9
13
16
18
21
23
24
25
26
26
27
28
29
31
33
35
36
38
39
41
43
44
46
47
49
51
54
56
59
61
63
64
66
67
69
71
77
90
97
101
104
107
110
114
118
122
130
142
154
162
168
173
175
174
172
170
168
166
165
164
162
160
157
154
149
143
132
119
100
80
66
55
45
31
15
0
-15
-27
-33
-38
-44
-50
-54
-57
-59
-61
-62
-63
-64
-65
-66
-67
-68
-69
-70
-71
-71
-70
-70
-70
-69
-69
-68
-67
-66
-66
-67
-68
-68
-66
-64
-61
-60
-59
-59
-58
-57
-57
-57
-56
-56
-57
-57
-57
-57
-57
-57
-57
-57
-57
-57
-57
-57
-57
-57
-57
-57
-57
-55
-54
-53
-52
-50
-49
-48
-47
-46
-46
-46
-46
-46
-46
-46
-46
-45
-45
-43
-42
-41
-39
-38
-38
-37
-36
-34
-33
-31
-29
-26
-22
-16
-11
-6
-1
3
7
11
14
17
19
20
20
19
17
14
10
5
-4
-24
-33
-36
-40
-42
-45
-47
-49
-50
-51
-52
-52
-51
-51
-51
-50
-48
-47
-44
-42
-39
-24
8
64
147
250
358
448
489
455
340
162
-34
-200
-285
-296
-265
-203
-144
-101
-72
-60
-55
-53
-51
-50
-47
-43
-38
-28
-14
-9
-6
-4
-4
-3
-3
-2
0
2
4
5
7
8
9
10
12
14
16
19
22
25
28
32
35
38
42
45
48
52
55
58
61
64
68
72
76
79
83
87
92
98
104
109
114
120
128
143
151
156
160
163
166
168
169
169
169
169
168
167
165
162
159
155
145
130
113
92
68
47
35
26
18
8
0
-3
-7
-11
-15
-18
-22
-27
-34
-39
-42
-44
-46
-48
-49
-50
-50
-50
-49
-48
-47
-46
-44
-44
-46
-49
-51
-54
-56
-57
-56
-52
-49
-47
-46
-44
-42
-41
-39
-38
-38
-37
-37
-38
-38
-39
-40
-40
-41
-42
-43
-44
-45
-47
-48
-49
-48
-45
-42
-40
-37
-33
-32
-33
-38
-42
-45
-47
-50
-52
-55
-57
-58
-59
-60
-60
-59
-59
-58
-56
-55
-54
-52
-51
-50
-48
-46
-44
-44
-46
-49
-52
-54
-56
-58
-60
-61
-62
-60
-58
-54
-51
-47
-42
-37
-32
-27
-24
-21
-19
-18
-16
-14
-12
-10
-8
-7
-5
-3
0
4
8
7
3
-2
-11
-27
-42
-53
-58
-61
-64
-66
-66
-65
-63
-61
-59
-57
-59
-61
-63
-65
-66
-64
-59
-46
-15
35
110
206
316
418
471
467
388
223
23
-154
-264
-294
-263
-208
-159
-116
-89
-81
-76
-72
-70
-67
-64
-60
-55
-46
-41
-39
-37
-35
-34
-32
-31
-30
-29
-28
-27
-26
-25
-25
-24
-23
-22
-19
-14
-6
-1
0
3
5
7
9
11
13
14
15
17
18
20
22
24
29
33
37
41
46
52
57
61
68
79
90
102
113
121
125
127
129
130
131
131
131
132
132
131
130
128
125
121
117
107
91
80
71
62
52
35
18
6
-2
-9
-15
-21
-28
-33
-38
-42
-45
-46
-47
-47
-48
-49
-50
-50
-50
-50
-50
-50
-50
-50
-50
-49
-48
-47
-46
-46
-45
-44
-43
-42
-41
-40
-39
-38
-37
-36
-35
-34
-33
-32
-31
-29
-28
-27
-27
-27
-28
-29
-30
-31
-32
-33
-34
-35
-36
-37
-37
-37
-35
-34
-32
-30
-29
-27
-25
-23
-22
-22
-23
-25
-27
-29
-31
-33
-36
-39
-40
-40
-38
-35
-33
-30
-28
-25
-23
-22
-23
-25
-26
-28
-29
-30
-31
-32
-33
-33
-33
-33
-33
-32
-31
-29
-28
-28
-27
-27
-26
-26
-27
-27
-27
-28
-27
-27
-26
-25
-24
-24
-23
-22
-21
-20
-20
-19
-19
-19
-18
-17
-16
-14
-13
-11
-9
-8
-6
-5
-4
-3
-3
-2
0
1
5
14
23
31
36
41
46
51
55
58
61
63
62
60
56
51
44
33
23
12
2
0
-2
-4
-6
-7
-8
-8
-8
-8
-8
-7
-5
-2
1
5
13
31
62
108
174
266
377
487
552
551
481
315
109
-77
-195
-227
-190
-125
-71
-41
-32
-26
-22
-16
-4
2
4
6
8
9
10
12
13
15
17
19
21
22
23
24
26
27
28
29
30
31
33
34
36
37
38
40
41
42
43
44
45
47
48
51
54
57
60
64
66
68
70
72
75
79
83
90
98
107
117
124
129
133
137
140
142
144
145
147
148
149
150
150
150
148
145
141
137
132
125
118
110
101
88
73
60
47
34
20
8
-2
-11
-18
-26
-36
-44
-46
-48
-49
-50
-51
-52
-52
-53
-53
-53
-53
-54
-53
-53
-54
-54
-54
-54
-53
-52
-51
-50
-49
-48
-47
-46
-44
-43
-41
-40
-39
-38
-37
-36
-35
-35
-34
-33
-32
-31
-30
-29
-28
-28
-27
-27
-27
-27
-27
-27
-27
-28
-28
-28
-28
-28
-28
-28
-29
-29
-28
-28
-28
-28
-28
-28
-28
-28
-28
-28
-28
-27
-27
-26
-25
-25
-25
-25
-25
-25
-24
-24
-24
-24
-24
-24
-24
-23
-23
-22
-21
-20
-19
-18
-16
-15
-14
-13
-12
-11
-11
-9
-7
-4
-1
0
1
1
0
-1
-2
-4
-6
-9
-10
-11
-10
-8
-7
-6
-5
-4
-2
-1
0
1
2
4
6
8
9
11
12
15
20
26
33
40
44
48
52
56
59
61
61
60
58
56
54
51
47
41
30
15
8
4
0
-2
-6
-9
-10
-11
-11
-11
-11
-11
-10
-7
-4
0
4
9
34
77
144
239
356
475
560
568
526
378
176
-28
-181
-244
-247
-200
-128
-66
-35
-27
-22
-18
-14
-11
-8
-5
-4
-3
-2
-1
-1
-1
-1
0
0
1
2
2
1
1
0
0
-1
-1
-2
-2
-1
0
0
0
0
0
1
1
2
3
4
5
6
8
10
12
15
17
20
23
26
28
32
35
42
53
65
73
80
85
89
93
96
98
100
102
103
104
105
105
105
104
103
100
97
91
85
71
51
39
30
21
8
-7
-27
-42
-49
-54
-57
-60
-62
-64
-67
-69
-71
-75
-80
-86
-89
-92
-94
-97
-99
-101
-101
-102
-102
-102
-102
-100
-98
-96
-93
-90
-88
-84
-75
-71
-69
-68
-67
-67
-66
-66
-65
-65
-64
-64
-63
-62
-61
-61
-60
-60
-60
-60
-60
-59
-59
-58
-58
-57
-56
-56
-55
-55
-54
-54
-54
-54
-54
-54
-54
-54
-54
-53
-53
-52
-52
-51
-51
-50
-49
-48
-47
-46
-45
-44
-43
-42
-42
-41
-41
-41
-40
-40
-40
-39
-39
-38
-37
-36
-35
-34
-33
-32
-31
-30
-30
-29
-28
-28
-27
-26
-25
-25
-24
-23
-22
-22
-21
-20
-20
-19
-18
-18
-17
-17
-16
-16
-15
-14
-13
-12
-10
-8
-2
3
8
14
22
31
38
42
45
47
49
49
49
46
43
38
29
15
6
2
-1
-5
-10
-16
-21
-27
-32
-34
-36
-37
-38
-41
-39
-29
-14
0
21
50
91
152
234
333
433
495
495
430
269
68
-111
-224
-256
-225
-170
-122
-93
-80
-69
-57
-33
-7
4
8
10
11
12
13
13
14
15
16
18
19
20
21
23
24
26
27
29
31
33
35
37
38
39
40
42
43
44
45
47
48
49
51
52
54
56
57
59
61
64
67
72
82
91
99
106
112
117
122
127
131
137
144
150
156
161
162
163
164
164
165
166
166
166
166
164
161
156
148
134
122
110
98
85
68
52
39
30
21
14
6
-1
-11
-24
-33
-36
-39
-41
-43
-45
-47
-48
-49
-50
-51
-52
-54
-56
-57
-58
-57
-56
-55
-54
-53
-52
-51
-50
-49
-48
-47
-46
-45
-45
-44
-44
-44
-44
-44
-43
-43
-42
-42
-42
-41
-41
-40
-40
-40
-40
-40
-40
-40
-40
-41
-41
-42
-43
-44
-44
-45
-46
-47
-48
-49
-50
-50
-52
-53
-55
-56
-56
-56
-56
-55
-54
-53
-51
-49
-48
-47
-46
-45
-45
-43
-42
-41
-40
-38
-37
-36
-35
-34
-33
-32
-31
-30
-29
-27
-25
-22
-18
-15
-12
-11
-9
-7
-5
-1
-3
-13
-25
-37
-44
-51
-58
-66
-72
-76
-80
-83
-85
-86
-87
-88
-90
-92
-93
-91
-88
-83
-76
-63
-42
-8
41
109
188
268
325
330
297
187
37
-116
-231
-271
-271
-232
-187
-152
-129
-118
-99
-77
-56
-51
-48
-45
-42
-39
-37
-34
-32
-29
-26
-24
-22
-20
-18
-16
-14
-11
-9
-6
-3
0
3
6
9
12
14
17
19
22
24
26
28
29
32
35
39
43
47
50
54
59
65
72
77
82
87
92
96
101
105
108
112
115
118
125
138
148
154
157
159
160
161
162
163
163
159
153
146
137
129
118
106
94
81
66
51
35
20
10
4
-1
-8
-15
-24
-34
-40
-45
-48
-50
-52
-54
-55
-56
-57
-57
-58
-59
-60
-61
-61
-62
-62
-61
-60
-58
-55
-53
-50
-48
-46
-44
-43
-43
-42
-42
-41
-41
-40
-39
-39
-38
-37
-36
-36
-35
-35
-35
-36
-36
-36
-36
-36
-36
-35
-35
-35
-35
-35
-35
-36
-37
-37
-38
-38
-38
-38
-38
-37
-37
-36
-35
-34
-34
-33
-33
-32
-27
-21
-13
-7
-3
0
3
5
7
7
8
8
8
8
9
9
6
0
-5
-13
-24
-31
-35
-39
-42
-44
-46
-47
-47
-48
-48
-49
-50
-51
-52
-51
-48
-43
-28
-5
30
76
131
192
252
299
303
281
193
68
-58
-157
-195
-208
-196
-159
-119
-88
-73
-63
-55
-45
-35
-25
-13
-8
-6
-4
-3
-2
-1
0
0
0
1
1
2
3
4
5
5
6
6
7
8
9
10
12
13
15
18
20
22
24
26
28
30
31
33
35
37
40
43
47
51
55
60
66
74
81
89
98
104
109
113
115
118
120
122
124
127
129
132
136
139
140
139
135
130
124
115
106
94
79
65
51
37
22
9
0
-11
-22
-31
-38
-45
-48
-51
-53
-55
-57
-59
-60
-61
-62
-62
-63
-63
-64
-63
-63
-63
-63
-63
-64
-64
-64
-64
-64
-64
-63
-61
-59
-56
-53
-51
-49
-46
-43
-40
-38
-37
-38
-39
-41
-42
-43
-43
-45
-46
-48
-49
-49
-47
-45
-43
-41
-40
-39
-37
-36
-35
-35
-35
-34
-34
-33
-32
-31
-31
-31
-30
-29
-28
-27
-25
-24
-22
-17
-7
2
9
14
19
20
19
14
9
4
-1
-6
-11
-14
-18
-22
-27
-33
-39
-45
-50
-54
-56
-57
-59
-62
-61
-56
-51
-47
-41
-34
-24
-11
9
38
76
126
187
245
287
293
278
203
84
-49
-162
-221
-227
-199
-145
-103
-88
-81
-75
-67
-56
-41
-23
-9
-1
4
4
0
-2
-4
-6
-8
-8
-6
-3
0
0
0
1
2
4
6
7
9
11
13
14
16
18
19
20
22
24
26
29
31
34
36
39
41
44
47
50
53
58
68
76
83
87
90
93
96
99
102
106
109
113
120
131
138
142
145
147
149
148
146
142
137
130
119
110
98
84
72
58
44
29
15
4
-5
-13
-19
-24
-31
-37
-39
-41
-42
-43
-44
-45
-47
-48
-48
-49
-50
-50
-51
-51
-51
-50
-50
-49
-49
-49
-49
-49
-48
-47
-47
-46
-46
-45
-45
-44
-44
-45
-45
-45
-46
-46
-46
-46
-46
-46
-47
-47
-48
-51
-54
-55
-52
-47
-44
-40
-37
-35
-35
-36
-37
-38
-40
-41
-42
-43
-42
-41
-40
-40
-39
-38
-36
-35
-34
-33
-32
-32
-32
-32
-33
-34
-36
-36
-37
-37
-38
-38
-38
-38
-38
-39
-39
-40
-41
-42
-42
-40
-38
-35
-33
-32
-30
-29
-28
-27
-26
-26
-25
-24
-22
-21
-20
-20
-20
-19
-19
-17
-14
-7
1
5
8
10
13
15
17
19
21
23
24
25
27
28
31
33
34
32
26
20
14
7
0
-4
-9
-12
-15
-18
-20
-22
-23
-24
-24
-24
-23
-21
-19
-15
-11
-6
3
24
61
114
188
277
367
429
434
394
270
108
-44
-148
-178
-175
-130
-77
-43
-32
-24
-18
-13
-9
-5
-1
2
6
9
12
14
16
18
20
22
23
24
25
26
28
29
30
30
31
32
32
33
33
34
34
35
36
37
38
40
41
43
45
48
50
52
55
58
61
64
67
69
72
74
77
79
82
85
89
93
97
101
105
109
113
116
119
122
125
127
129
129
129
127
126
123
120
117
112
103
95
87
74
57
43
33
20
8
-1
-9
-17
-20
-23
-25
-27
-28
-30
-31
-32
-33
-34
-35
-35
-36
-37
-37
-38
-39
-40
-41
-41
-41
-42
-42
-42
-41
-41
-41
-41
-41
-41
-42
-42
-42
-42
-42
-42
-42
-42
-41
-40
-39
-39
-39
-39
-39
-39
-39
-40
-40
-40
-40
-40
-40
-40
-40
-40
-40
-40
-40
-40
-41
-41
-42
-42
-42
-41
-41
-41
-41
-40
-40
-39
-38
-38
-37
-37
-37
-36
-36
-36
-36
-36
-36
-36
-36
-36
-36
-37
-37
-37
-38
-38
-38
-38
-39
-39
-39
-39
-39
-39
-38
-38
-38
-37
-36
-35
-35
-35
-34
-34
-34
-34
-34
-34
-33
-33
-32
-31
-31
-31
-31
-31
-31
-31
-31
-31
-31
-31
-30
-29
-28
-28
-28
-28
-28
-27
-27
-27
-27
-27
-26
-26
-25
-25
-24
-24
-24
-24
-24
-24
-24
-23
-23
-22
-20
-18
-16
-13
-11
-8
-4
0
9
14
17
19
21
22
24
25
26
26
26
25
23
21
18
14
10
4
-7
-13
-15
-17
-19
-21
-22
-23
-24
-24
-24
-24
-23
-21
-18
-15
-12
0
30
75
144
237
343
445
505
503
436
281
91
-82
-195
-226
-191
-135
-86
-62
-57
-54
-51
-49
-45
-42
-40
-37
-33
-27
-18
-11
-5
-3
-1
0
0
1
1
2
2
3
4
5
7
8
9
10
11
12
13
14
15
16
17
18
20
23
25
28
30
33
36
39
42
46
49
53
58
63
70
76
81
87
93
99
106
114
121
127
131
135
139
142
145
147
147
145
142
139
136
132
126
116
108
103
97
90
81
73
67
60
55
49
42
32
24
18
11
5
-6
-22
-31
-38
-41
-42
-40
-37
-35
-33
-31
-30
-29
-30
-31
-33
-35
-37
-39
-39
-36
-31
-28
-25
-22
-20
-19
-19
-21
-23
-25
-27
-30
-33
-35
-35
-33
-31
-28
-26
-24
-22
-20
-19
-18
-18
-18
-19
-20
-22
-23
-24
-26
-27
-29
-30
-31
-32
-32
-32
-32
-31
-30
-30
-29
-28
-28
-28
-27
-27
-27
-26
-25
-25
-24
-24
-24
-25
-26
-28
-30
-33
-35
-38
-41
-43
-43
-41
-38
-35
-33
-30
-26
-24
-23
-24
-24
-25
-25
-26
-27
-28
-29
-30
-30
-30
-30
-30
-30
-30
-29
-27
-26
-25
-25
-25
-24
-22
-20
-19
-20
-21
-22
-22
-23
-23
-24
-25
-26
-27
-27
-25
-23
-21
-18
-16
-14
-11
-8
-5
-3
-2
0
1
4
9
14
21
30
38
41
43
44
45
44
40
34
25
11
0
-9
-19
-24
-27
-30
-32
-34
-35
-35
-35
-35
-34
-33
-32
-30
-28
-25
-18
-8
15
54
112
194
297
409
503
548
511
385
195
-7
-172
-257
-266
-229
-157
-91
-60
-51
-46
-42
-39
-36
-34
-31
-28
-25
-19
-14
-10
-8
-8
-7
-6
-4
-3
-2
0
0
1
2
3
4
4
5
5
6
7
8
10
12
13
15
17
19
21
22
24
26
28
32
36
40
44
47
53
61
71
80
87
94
101
106
110
113
116
118
119
121
122
123
124
124
125
126
126
126
125
124
123
120
117
114
109
99
92
83
70
57
41
25
14
6
0
-5
-11
-16
-20
-23
-26
-30
-34
-38
-41
-43
-46
-48
-49
-50
-50
-49
-48
-47
-46
-45
-45
-44
-43
-42
-41
-40
-39
-39
-38
-38
-37
-37
-37
-37
-37
-37
-37
-37
-37
-36
-36
-36
-36
-36
-35
-35
-36
-36
-37
-38
-39
-40
-41
-42
-43
-44
-45
-46
-47
-48
-50
-53
-56
-57
-57
-55
-53
-51
-50
-49
-48
-47
-46
-44
-43
-43
-42
-42
-42
-41
-41
-41
-41
-41
-41
-41
-40
-39
-38
-38
-38
-39
-39
-39
-39
-39
-40
-40
-40
-39
-39
-39
-39
-39
-39
-39
-39
-38
-38
-38
-37
-36
-34
-32
-30
-29
-27
-26
-25
-24
-23
-22
-20
-19
-18
-16
-15
-14
-13
-12
-10
-9
-7
-4
1
6
11
15
19
22
23
22
18
12
6
-2
-10
-17
-22
-28
-35
-38
-41
-44
-46
-48
-49
-49
-49
-49
-48
-47
-45
-42
-38
-32
-15
21
79
162
265
376
474
518
510
426
258
59
-120
-237
-270
-234
-167
-109
-77
-68
-62
-55
-49
-37
-21
-14
-11
-10
-8
-7
-6
-5
-3
-1
0
2
3
4
5
8
12
20
23
24
25
25
26
27
28
28
29
31
32
35
37
40
43
49
54
58
62
67
71
77
84
88
91
93
96
98
101
105
108
113
119
130
140
148
155
160
164
166
168
170
171
172
172
172
171
168
166
163
159
153
146
138
126
110
94
81
71
60
48
35
26
21
17
12
8
0
-13
-22
-27
-30
-31
-32
-32
-31
-32
-32
-32
-31
-28
-26
-25
-24
-24
-23
-21
-20
-18
-18
-17
-17
-17
-17
-18
-18
-19
-20
-21
-21
-22
-22
-23
-23
-24
-24
-26
-27
-27
-25
-23
-21
-20
-18
-17
-16
-15
-15
-15
-15
-16
-18
-20
-22
-25
-27
-28
-31
-33
-36
-39
-42
-44
-47
-49
-52
-55
-56
-58
-58
-59
-59
-60
-61
-62
-63
-64
-65
-66
-67
-68
-68
-68
-67
-67
-66
-66
-66
-67
-67
-69
-71
-72
-71
-67
-62
-59
-55
-51
-47
-43
-39
-35
-30
-23
-17
-12
-5
1
3
5
7
0
-14
-29
-38
-44
-48
-52
-56
-58
-60
-63
-65
-66
-68
-68
-69
-69
-69
-68
-67
-65
-62
-59
-55
-51
-29
13
78
164
263
357
412
411
348
197
9
-160
-271
-306
-278
-217
-159
-120
-106
-99
-95
-89
-82
-76
-73
-69
-66
-63
-60
-57
-54
-52
-48
-45
-42
-41
-41
-42
-44
-45
-46
-48
-50
-51
-51
-49
-45
-41
-38
-35
-32
-29
-26
-23
-20
-17
-13
-5
1
7
12
17
23
28
31
35
40
45
50
57
67
75
82
87
91
96
100
104
108
112
118
124
128
132
136
138
140
139
137
133
129
121
107
93
80
70
62
53
41
27
12
-2
-13
-22
-31
-40
-49
-60
-65
-68
-71
-73
-75
-77
-77
-77
-77
-76
-75
-74
-72
-70
-67
-66
-64
-63
-61
-58
-56
-53
-51
-49
-47
-45
-42
-40
-39
-38
-37
-37
-36
-35
-35
-34
-34
-34
-33
-32
-31
-30
-30
-30
-30
-30
-30
-30
-29
-29
-29
-28
-27
-26
-25
-24
-24
-23
-23
-22
-21
-21
-20
-19
-19
-18
-17
-16
-16
-16
-15
-15
-14
-13
-12
-12
-11
-11
-10
-9
-8
-7
-6
-4
-3
-1
1
6
12
17
21
25
29
34
38
41
42
44
45
46
48
48
47
43
37
28
12
0
-8
-13
-17
-19
-21
-22
-23
-24
-24
-25
-25
-25
-25
-24
-23
-21
-17
-14
-10
5
32
74
133
217
317
416
474
474
413
264
77
-98
-221
-259
-257
-208
-156
-116
-88
-73
-57
-40
-22
-11
-9
-7
-7
-7
-7
-7
-7
-7
-7
-5
-4
-2
-1
0
1
3
5
6
7
9
10
11
13
15
18
20
22
24
26
27
29
30
31
32
34
40
45
51
58
66
75
81
86
90
94
98
101
105
109
116
123
132
136
140
143
145
147
149
150
150
149
148
146
145
142
139
136
129
122
116
106
92
76
62
49
35
22
13
4
-3
-10
-15
-20
-28
-42
-55
-62
-66
-69
-71
-73
-75
-75
-73
-69
-67
-64
-62
-60
-60
-60
-61
-61
-61
-62
-63
-63
-64
-65
-65
-65
-64
-64
-63
-62
-61
-60
-59
-58
-57
-57
-57
-56
-56
-56
-55
-55
-54
-54
-53
-53
-53
-53
-53
-52
-51
-50
-50
-49
-49
-48
-48
-47
-47
-46
-46
-46
-46
-45
-45
-45
-44
-44
-44
-43
-43
-42
-42
-43
-43
-44
-44
-44
-44
-44
-43
-43
-42
-41
-40
-39
-39
-39
-38
-38
-37
-36
-36
-35
-34
-32
-29
-25
-22
-18
-15
-11
-7
0
11
14
16
17
18
19
19
19
18
15
11
6
1
-6
-14
-22
-30
-40
-48
-53
-55
-58
-60
-61
-62
-62
-62
-62
-62
-60
-58
-56
-53
-41
-15
29
98
192
305
415
480
480
416
259
64
-119
-246
-279
-273
-210
-142
-93
-78
-74
-72
-70
-64
-56
-50
-45
-41
-37
-34
-31
-28
-25
-21
-15
-10
-5
-2
0
0
2
3
4
4
5
6
8
9
10
11
12
13
15
17
19
21
24
29
34
39
43
46
50
54
58
62
66
71
77
84
92
101
110
118
124
129
133
136
138
139
141
142
144
145
145
145
145
144
143
141
139
136
133
130
125
117
109
103
94
79
63
46
30
18
4
-5
-12
-18
-22
-26
-29
-30
-31
-32
-32
-32
-33
-33
-33
-34
-34
-33
-33
-33
-33
-33
-33
-33
-32
-32
-31
-31
-31
-31
-31
-31
-32
-33
-34
-35
-35
-36
-36
-36
-36
-37
-37
-37
-37
-37
-38
-40
-41
-38
-35
-32
-28
-26
-25
-27
-31
-34
-36
-38
-41
-43
-45
-46
-46
-46
-46
-45
-44
-42
-41
-39
-37
-36
-35
-34
-34
-34
-34
-34
-35
-35
-36
-36
-37
-37
-38
-39
-39
-39
-39
-39
-39
-39
-39
-39
-38
-37
-37
-36
-35
-34
-33
-32
-31
-30
-28
-27
-25
-24
-22
-19
-16
-13
-10
-7
-4
0
6
17
25
30
35
38
38
35
28
19
7
-9
-18
-25
-31
-36
-40
-42
-44
-46
-47
-48
-49
-49
-49
-49
-48
-46
-43
-39
-35
-28
-3
44
119
218
331
437
490
484
402
231
25
-158
-276
-314
-284
-220
-154
-106
-86
-77
-72
-69
-65
-61
-56
-52
-47
-41
-35
-30
-25
-22
-20
-19
-18
-17
-16
-16
-14
-13
-11
-10
-9
-7
-5
-4
-2
0
1
5
12
19
23
26
28
30
32
33
35
36
38
40
42
44
47
50
53
58
66
74
81
88
96
106
115
124
128
132
135
137
139
140
141
142
142
142
141
139
138
136
133
130
125
118
110
102
90
73
56
40
26
16
5
-4
-13
-20
-27
-32
-36
-40
-42
-44
-46
-47
-47
-47
-47
-48
-48
-48
-48
-48
-48
-48
-48
-47
-47
-46
-46
-45
-45
-46
-46
-46
-46
-47
-47
-47
-47
-47
-47
-47
-47
-47
-48
-48
-49
-49
-50
-50
-50
-50
-50
-50
-50
-49
-49
-49
-49
-49
-49
-50
-50
-51
-51
-51
-51
-52
-52
-51
-51
-51
-50
-50
-50
-50
-51
-51
-51
-50
-50
-50
-50
-49
-48
-48
-47
-47
-46
-46
-45
-43
-42
-41
-41
-41
-40
-39
-38
-37
-36
-36
-36
-35
-34
-33
-32
-31
-30
-29
-27
-26
-24
-22
-21
-20
-18
-16
-14
-10
-5
2
11
16
21
25
28
30
31
31
30
29
26
23
20
16
10
-1
-13
-19
-23
-26
-29
-32
-34
-36
-37
-37
-37
-37
-37
-36
-34
-31
-29
-26
-15
8
51
114
202
309
416
487
492
444
307
127
-50
-185
-241
-244
-204
-148
-103
-74
-59
-45
-28
-16
-11
-7
-4
-1
1
3
4
6
8
9
11
13
15
17
18
20
22
25
27
28
30
31
32
33
35
36
38
40
42
44
46
48
50
52
54
56
60
64
68
72
74
77
80
84
88
94
99
105
113
123
134
142
147
151
155
157
158
159
161
162
163
164
165
166
165
163
160
156
152
145
133
126
118
105
91
75
55
39
28
19
11
1
-14
-25
-30
-35
-38
-41
-43
-44
-45
-46
-46
-47
-47
-48
-49
-50
-50
-50
-51
-51
-51
-51
-51
-50
-50
-50
-51
-51
-52
-52
-52
-52
-52
-52
-52
-52
-52
-51
-51
-51
-51
-52
-51
-51
-50
-50
-50
-50
-50
-50
-50
-50
-50
-51
-52
-53
-53
-53
-53
-53
-53
-53
-53
-53
-52
-52
-53
-54
-54
-54
-54
-53
-53
-53
-53
-52
-50
-49
-47
-46
-46
-45
-44
-43
-43
-42
-42
-42
-42
-41
-40
-39
-39
-38
-38
-37
-37
-37
-38
-38
-39
-39
-38
-38
-38
-37
-37
-36
-34
-33
-32
-31
-30
-27
-23
-17
-12
-7
-2
2
6
10
12
14
16
18
20
21
20
18
14
8
0
-17
-28
-35
-39
-42
-44
-46
-48
-50
-51
-50
-50
-50
-49
-49
-49
-48
-47
-46
-43
-35
0
59
146
260
382
485
533
496
369
178
-29
-200
-279
-285
-236
-161
-104
-84
-78
-73
-68
-62
-54
-43
-32
-26
-22
-19
-17
-15
-12
-10
-8
-6
-4
0
5
10
12
13
14
14
15
16
16
17
19
19
20
21
21
22
23
24
27
30
34
38
43
48
54
61
67
71
75
78
80
83
87
92
100
109
118
127
134
140
144
147
148
149
150
151
152
152
152
152
151
149
146
143
139
133
122
114
107
99
90
77
62
47
32
17
2
-10
-20
-26
-31
-36
-40
-43
-45
-45
-46
-47
-48
-49
-50
-50
-51
-51
-51
-52
-52
-52
-52
-52
-52
-51
-51
-51
-50
-50
-50
-50
-50
-49
-49
-49
-48
-48
-48
-47
-47
-47
-46
-46
-46
-45
-45
-45
-46
-46
-45
-45
-44
-44
-44
-44
-44
-43
-43
-43
-43
-43
-43
-41
-40
-39
-39
-40
-41
-42
-43
-45
-48
-49
-47
-44
-41
-38
-35
-34
-33
-34
-35
-35
-37
-39
-40
-39
-37
-35
-34
-33
-32
-30
-29
-27
-26
-25
-25
-25
-25
-24
-24
-23
-23
-23
-22
-20
-18
-15
-11
-7
-2
4
16
23
28
31
34
35
33
30
24
15
0
-10
-19
-26
-37
-48
-53
-57
-60
-58
-53
-50
-48
-46
-45
-43
-41
-39
-38
-36
-34
-30
-16
28
93
181
289
402
490
513
445
295
101
-90
-232
-281
-281
-231
-173
-127
-97
-81
-68
-52
-42
-38
-35
-32
-30
-28
-27
-25
-24
-23
-21
-20
-18
-15
-12
-8
-5
-2
0
0
2
3
5
6
7
9
10
12
13
14
15
16
18
21
27
33
37
42
48
53
57
61
63
65
68
72
76
80
86
94
100
105
111
117
125
131
135
139
142
145
148
151
155
158
157
153
147
139
129
121
113
105
96
84
69
58
50
42
32
17
6
-1
-8
-14
-20
-28
-37
-44
-51
-57
-62
-64
-65
-66
-67
-69
-70
-71
-72
-73
-74
-75
-75
-76
-75
-73
-72
-70
-68
-67
-65
-64
-63
-62
-61
-61
-61
-60
-59
-58
-57
-56
-55
-54
-53
-52
-52
-51
-51
-51
-51
-51
-51
-51
-50
-50
-50
-50
-50
-50
-50
-50
-50
-50
-50
-50
-49
-49
-48
-47
-47
-46
-46
-45
-45
-45
-45
-45
-45
-46
-46
-46
-46
-45
-45
-45
-45
-45
-45
-45
-45
-45
-46
-46
-45
-42
-39
-37
-35
-33
-32
-30
-28
-26
-23
-20
-17
-14
-11
-6
-1
2
6
10
14
18
23
28
30
30
27
24
20
13
0
-13
-23
-31
-35
-38
-40
-43
-45
-47
-48
-49
-49
-49
-49
-48
-47
-45
-42
-40
-37
-25
8
63
141
241
353
452
494
485
390
210
0
-183
-295
-318
-270
-193
-124
-88
-77
-71
-66
-63
-57
-49
-38
-29
-23
-18
-14
-11
-9
-7
-5
-3
-2
0
1
3
5
7
9
10
12
13
15
16
18
20
23
25
27
29
32
38
44
49
54
57
60
62
65
68
70
72
75
78
83
89
97
106
112
117
122
126
130
133
137
141
147
154
161
166
170
173
175
176
174
170
165
157
142
130
121
112
101
85
71
61
51
42
32
22
10
-5
-15
-19
-23
-26
-29
-32
-34
-36
-37
-39
-41
-42
-44
-45
-46
-47
-48
-48
-48
-48
-47
-46
-46
-45
-45
-44
-43
-42
-41
-41
-41
-40
-39
-37
-36
-34
-33
-31
-30
-28
-26
-24
-23
-21
-20
-19
-18
-17
-16
-15
-14
-13
-13
-12
