-301
-366
-437
-513
-580
-626
-645
-665
-682
-696
-710
-725
-733
-738
-743
-746
-749
-752
-756
-757
-758
-758
-757
-756
-754
-751
-749
-745
-741
-737
-732
-728
-720
-711
-702
-692
-682
-671
-658
-647
-639
-632
-623
-609
-590
-575
-563
-553
-545
-538
-530
-520
-509
-497
-488
-481
-476
-470
-465
-460
-455
-452
-449
-447
-445
-444
-442
-440
-438
-436
-434
-432
-431
-429
-427
-424
-421
-417
-414
-410
-406
-402
-397
-392
-387
-380
-374
-366
-358
-350
-342
-334
-327
-321
-316
-312
-307
-303
-298
-293
-287
-280
-271
-260
-249
-240
-231
-224
-217
-211
-207
-207
-213
-221
-231
-240
-251
-262
-271
-280
-286
-292
-298
-302
-306
-308
-310
-310
-310
-309
-307
-303
-297
-289
-280
-243
-181
-94
19
149
270
348
374
359
316
225
114
-7
-131
-245
-336
-366
-377
-356
-320
-286
-274
-268
-264
-262
-259
-257
-253
-249
-246
-243
-240
-237
-233
-229
-223
-216
-207
-200
-193
-186
-180
-175
-171
-166
-162
-157
-153
-149
-145
-139
-131
-119
-106
-93
-82
-71
-61
-51
-42
-31
-19
-8
0
9
19
31
46
57
65
73
81
89
98
107
117
130
141
149
154
160
168
174
174
166
154
141
126
114
103
85
59
35
17
-1
-16
-27
-38
-49
-61
-71
-82
-91
-94
-95
-96
-97
-98
-99
-99
-100
-101
-101
-102
-102
-102
-101
-101
-100
-99
-99
-98
-97
-96
-95
-94
-92
-90
-88
-86
-83
-80
-77
-74
-70
-65
-58
-51
-45
-39
-34
-29
-27
-26
-24
-23
-21
-20
-18
-18
-17
-16
-16
-16
-15
-15
-14
-14
-13
-12
-12
-11
-10
-9
-8
-6
-5
-5
-4
-3
-1
0
2
4
6
7
10
14
18
23
28
32
36
41
45
48
53
57
63
72
80
87
93
99
104
109
115
117
116
110
101
89
73
50
40
34
30
25
22
19
19
19
21
24
26
28
30
33
37
41
46
53
78
142
237
361
493
605
668
674
644
559
449
325
195
68
-43
-115
-139
-129
-100
-46
-14
-1
2
6
8
10
12
14
16
17
18
18
18
19
20
21
22
24
26
28
30
32
34
36
39
41
43
45
48
50
54
57
61
65
69
73
77
79
82
84
87
90
94
100
110
121
130
139
150
163
176
189
199
208
216
223
230
237
242
248
254
258
260
258
254
247
237
219
187
157
127
97
70
45
19
-2
-19
-36
-48
-56
-64
-72
-81
-88
-92
-95
-98
-102
-105
-108
-110
-113
-114
-116
-116
-116
-115
-113
-111
-108
-105
-102
-99
-97
-94
-92
-91
-90
-89
-87
-86
-84
-83
-82
-81
-80
-80
-80
-80
-80
-81
-81
-82
-82
-82
-82
-82
-82
-82
-83
-84
-85
-86
-87
-89
-91
-92
-94
-95
-97
-98
-100
-102
-104
-106
-109
-111
-114
-117
-120
-121
-122
-123
-123
-122
-121
-120
-118
-116
-114
-113
-111
-110
-108
-107
-105
-104
-102
-100
-97
-94
-92
-92
-97
-105
-115
-127
-142
-157
-172
-184
-194
-203
-210
-215
-220
-224
-228
-231
-234
-236
-237
-237
-235
-230
-223
-215
-185
-132
-51
62
209
378
533
600
586
449
188
-114
-377
-527
-551
-523
-435
-350
-288
-263
-257
-255
-253
-253
-252
-251
-251
-250
-249
-248
-247
-246
-245
-244
-243
-243
-242
-242
-241
-239
-236
-232
-228
-220
-211
-202
-190
-179
-170
-162
-154
-149
-146
-144
-143
-142
-141
-140
-138
-135
-131
-124
-115
-106
-96
-86
-75
-64
-51
-37
-23
-11
0
12
22
31
37
43
47
51
53
52
50
47
41
33
18
-6
-29
-55
-84
-113
-140
-168
-191
-208
-226
-245
-263
-273
-278
-282
-286
-288
-289
-287
-282
-275
-268
-262
-257
-252
-247
-242
-237
-233
-229
-226
-222
-217
-209
-197
-185
-174
-165
-158
-152
-145
-138
-132
-126
-118
-108
-99
-90
-83
-78
-75
-71
-68
-65
-61
-58
-55
-51
-46
-42
-38
-35
-32
-30
-27
-23
-19
-15
-12
-8
-5
-2
1
4
7
10
13
16
19
22
26
29
33
36
38
41
43
46
49
52
56
61
69
78
89
99
107
113
119
124
127
126
123
117
110
102
94
83
74
67
62
58
55
51
48
46
44
43
43
43
44
47
51
57
63
70
85
123
198
311
466
649
830
951
963
896
678
380
82
-137
-203
-197
-98
13
69
79
86
91
95
98
101
103
107
111
114
117
119
118
118
118
119
120
121
123
126
128
132
135
139
142
146
148
150
151
151
152
152
153
154
155
157
159
162
165
168
171
173
175
178
182
187
196
214
234
250
263
275
287
298
308
316
323
328
333
337
340
345
349
354
356
353
346
335
316
287
261
232
199
168
138
108
85
67
49
37
29
23
18
15
13
12
11
10
9
7
6
4
3
1
0
0
0
0
0
2
3
6
8
10
12
13
14
15
15
15
15
15
15
15
17
19
21
24
26
28
30
33
36
40
44
50
55
62
76
88
92
95
97
100
104
106
102
95
91
88
85
82
79
76
73
71
69
69
70
72
74
76
78
79
81
84
87
90
94
98
103
108
114
120
125
130
135
138
142
146
150
153
155
155
152
145
138
129
117
100
87
76
69
63
58
54
51
49
49
49
51
53
57
63
71
102
175
282
424
594
769
907
957
884
690
416
130
-96
-206
-220
-182
-104
-40
-7
5
9
13
16
19
21
24
25
26
27
29
30
32
34
35
37
39
42
44
47
50
52
55
57
59
62
65
67
70
72
75
77
79
81
82
84
85
87
89
92
97
104
112
121
131
141
150
160
169
178
187
196
206
216
226
238
251
262
273
281
289
295
298
296
290
281
267
243
219
193
164
134
107
87
72
52
32
15
-6
-19
-24
-28
-32
-35
-37
-39
-40
-41
-41
-41
-41
-40
-40
-39
-38
-37
-36
-35
-35
-35
-35
-35
-35
-34
-33
-31
-29
-27
-25
-23
-20
-19
-18
-17
-17
-17
-16
-15
-14
-13
-13
-12
-12
-11
-11
-12
-13
-15
-17
-18
-20
-21
-22
-23
-23
-24
-23
-23
-24
-25
-27
-28
-30
-30
-31
-31
-31
-31
-30
-28
-25
-22
-19
-16
-14
-10
-4
2
10
18
26
34
41
47
52
56
61
64
66
65
62
56
47
31
7
-9
-22
-33
-39
-43
-46
-49
-51
-53
-55
-56
-58
-60
-62
-66
-74
-64
-35
19
103
219
373
554
734
860
870
794
559
249
-54
-275
-349
-349
-274
-188
-126
-104
-97
-93
-92
-92
-95
-97
-98
-99
-100
-101
-102
-102
-103
-102
-101
-100
-98
-97
-95
-93
-92
-90
-89
-87
-86
-84
-82
-80
-78
-76
-73
-70
-66
-61
-54
-45
-40
-35
-31
-25
-18
-10
0
9
18
27
36
47
59
72
85
98
110
122
134
147
160
170
177
182
186
190
193
193
188
179
164
141
119
97
61
26
4
-18
-38
-54
-72
-87
-96
-105
-113
-117
-120
-122
-124
-126
-127
-129
-130
-130
-130
-129
-128
-127
-126
-125
-123
-122
-121
-119
-118
-117
-114
-111
-109
-108
-109
-111
-112
-114
-117
-121
-124
-121
-112
-103
-91
-77
-70
-64
-60
-57
-54
-53
-52
-51
-51
-50
-49
-48
-47
-46
-46
-45
-44
-44
-43
-42
-41
-40
-39
-38
-37
-35
-32
-29
-26
-23
-20
-16
-11
-3
4
12
18
22
26
31
35
39
43
46
52
61
65
68
70
72
73
72
67
60
51
39
28
16
5
-1
-5
-8
-11
-12
-13
-14
-14
-14
-14
-13
-11
-8
-4
0
20
83
178
307
467
637
780
847
796
620
351
56
-187
-310
-326
-286
-201
-122
-69
-49
-40
-34
-31
-33
-38
-40
-41
-43
-45
-46
-46
-46
-47
-46
-45
-42
-40
-37
-34
-32
-30
-29
-27
-26
-24
-23
-21
-20
-18
-15
-13
-10
-8
-5
-1
4
11
17
23
30
37
45
53
59
64
70
79
90
101
112
123
136
154
171
189
199
205
209
212
213
213
212
209
204
198
186
166
147
127
106
86
54
21
-11
-32
-47
-57
-68
-78
-86
-92
-97
-101
-104
-107
-109
-111
-112
-113
-114
-115
-117
-117
-118
-118
-118
-118
-118
-118
-117
-116
-114
-112
-110
-108
-106
-104
-101
-98
-96
-93
-91
-88
-86
-83
-80
-78
-76
-75
-74
-74
-75
-75
-76
-77
-78
-79
-80
-82
-83
-83
-84
-85
-86
-88
-89
-89
-89
-89
-89
-90
-89
-88
-86
-84
-81
-79
-77
-75
-72
-68
-64
-60
-56
-52
-48
-44
-38
-31
-24
-22
-20
-19
-17
-15
-13
-18
-27
-35
-43
-50
-58
-67
-72
-77
-82
-86
-89
-91
-93
-93
-94
-93
-93
-91
-90
-87
-83
-78
-58
-2
89
226
401
584
730
785
716
522
242
-52
-285
-388
-395
-325
-220
-136
-108
-100
-95
-92
-90
-89
-87
-85
-84
-83
-82
-80
-80
-79
-78
-77
-76
-74
-71
-68
-64
-60
-57
-54
-51
-48
-44
-41
-38
-34
-31
-28
-24
-20
-16
-13
-8
-4
0
5
9
12
15
19
24
33
41
48
61
78
95
115
131
144
158
172
185
196
202
206
209
212
214
214
213
211
207
201
193
179
151
125
99
72
48
25
5
-12
-31
-45
-56
-67
-76
-84
-88
-90
-91
-91
-91
-92
-92
-93
-93
-93
-93
-93
-93
-92
-91
-90
-88
-86
-83
-81
-80
-78
-76
-74
-72
-69
-66
-63
-60
-58
-56
-53
-50
-48
-46
-44
-43
-42
-41
-40
-40
-39
-39
-39
-38
-37
-36
-35
-35
-35
-36
-37
-39
-40
-42
-43
-45
-47
-49
-50
-51
-52
-52
-53
-52
-51
-50
-48
-45
-43
-40
-37
-34
-30
-22
-14
-8
-2
0
4
7
10
13
14
14
13
12
10
8
5
1
-6
-29
-43
-49
-55
-59
-63
-65
-67
-69
-70
-70
-71
-72
-73
-74
-76
-75
-64
-34
19
101
221
381
566
740
826
819
696
446
151
-114
-286
-342
-309
-232
-154
-96
-75
-71
-67
-65
-63
-62
-61
-59
-58
-57
-56
-54
-54
-53
-52
-50
-48
-46
-43
-40
-37
-34
-31
-28
-25
-22
-19
-16
-13
-11
-9
-6
-3
-1
0
2
5
7
10
15
24
32
39
50
67
82
93
105
116
128
139
149
157
165
172
180
191
206
224
239
244
248
251
254
253
248
240
228
207
186
165
143
123
94
63
44
30
20
12
3
-5
-17
-27
-34
-40
-44
-48
-50
-52
-54
-55
-57
-58
-58
-57
-57
-56
-55
-54
-51
-47
-41
-31
-28
-26
-25
-24
-22
-19
-15
-12
-10
-7
-5
-2
0
1
3
5
8
11
14
17
19
21
23
24
25
26
26
26
25
25
25
25
25
25
25
25
26
26
26
27
27
28
28
29
30
31
32
34
37
40
43
47
50
53
56
59
63
69
78
88
97
105
108
110
113
115
106
94
84
74
65
57
50
44
38
34
30
26
21
15
9
2
-4
-11
-14
-12
-9
-2
15
63
135
234
367
534
715
869
938
878
684
396
95
-141
-243
-251
-187
-97
-35
-20
-14
-21
-28
-33
-37
-36
-30
-23
-19
-17
-15
-14
-13
-11
-9
-7
-5
-4
-2
-1
0
0
1
2
2
4
5
8
10
13
15
18
21
23
25
27
30
33
38
43
50
56
63
69
75
80
85
92
101
112
124
135
147
159
171
184
194
201
208
213
217
222
228
231
231
227
219
207
190
164
136
105
76
47
29
9
-12
-31
-44
-54
-61
-68
-75
-84
-89
-93
-96
-100
-103
-104
-103
-102
-102
-101
-101
-100
-100
-98
-97
-97
-97
-98
-98
-98
-98
-97
-97
-97
-96
-94
-92
-90
-87
-85
-84
-82
-81
-78
-76
-73
-70
-68
-66
-64
-62
-60
-58
-57
-56
-56
-56
-55
-53
-52
-51
-51
-52
-53
-54
-55
-56
-58
-60
-62
-64
-65
-64
-63
-60
-57
-53
-49
-44
-39
-34
-30
-26
-21
-15
-9
-4
1
6
11
16
23
29
33
37
41
44
47
47
41
33
22
7
-3
-19
-39
-51
-57
-61
-64
-67
-69
-70
-71
-73
-73
-75
-76
-78
-82
-81
-72
-45
5
85
200
353
533
710
818
821
722
480
178
-101
-291
-362
-331
-248
-163
-123
-110
-104
-101
-101
-103
-104
-106
-108
-110
-109
-104
-98
-96
-93
-91
-88
-86
-83
-80
-77
-74
-71
-68
-65
-60
-51
-40
-28
-20
-15
-10
-5
-1
1
4
6
8
11
13
17
20
24
30
35
42
50
58
63
68
78
94
110
121
132
146
162
177
194
206
212
217
220
221
220
217
213
207
196
177
158
137
113
90
66
43
19
-3
-22
-36
-48
-56
-63
-68
-73
-78
-83
-86
-89
-92
-95
-97
-99
-100
-101
-101
-101
-99
-97
-95
-93
-91
-89
-87
-85
-84
-82
-81
-79
-78
-75
-73
-71
-69
-66
-64
-62
-61
-60
-58
-57
-55
-54
-52
-51
-49
-48
-46
-45
-43
-42
-41
-40
-39
-38
-36
-34
-33
-31
-30
-29
-28
-27
-26
-26
-26
-25
-24
-21
-19
-16
-13
-11
-8
-5
-2
0
3
6
9
15
25
36
47
54
60
64
69
72
74
74
73
70
67
63
59
54
46
38
30
23
14
4
-1
-6
-8
-11
-13
-15
-16
-16
-16
-13
-9
-5
1
25
73
148
256
402
574
745
845
845
744
505
212
-53
-233
-299
-268
-192
-115
-65
-48
-40
-34
-31
-29
-28
-27
-26
-26
-24
-23
-22
-20
-18
-16
-14
-12
-11
-10
-8
-7
-6
-5
-4
-2
-1
0
3
5
8
10
12
13
15
17
19
21
23
27
32
39
45
50
56
61
69
79
88
97
107
119
130
142
153
166
174
179
183
187
191
194
198
203
209
212
209
200
187
167
147
127
92
54
31
6
-13
-30
-46
-62
-79
-91
-98
-104
-110
-116
-122
-127
-131
-135
-138
-141
-143
-145
-146
-148
-149
-150
-151
-151
-150
-149
-147
-145
-142
-138
-135
-131
-128
-125
-122
-118
-115
-112
-110
-109
-108
-107
-107
-106
-106
-105
-103
-102
-101
-104
-108
-113
-114
-116
-118
-119
-121
-123
-124
-126
-128
-130
-131
-132
-132
-131
-131
-130
-129
-127
-126
-125
-124
-123
-122
-120
-119
-117
-115
-111
-107
-103
-99
-95
-90
-84
-75
-61
-49
-42
-38
-34
-31
-29
-29
-31
-34
-38
-43
-50
-61
-72
-82
-90
-96
-98
-99
-100
-100
-101
-101
-102
-102
-102
-101
-99
-97
-93
-80
-38
33
140
287
459
627
752
790
709
508
229
-51
-260
-330
-327
-242
-143
-71
-51
-44
-56
-68
-77
-83
-83
-76
-66
-54
-39
-28
-23
-20
-18
-15
-13
-10
-7
-5
-2
0
2
5
8
11
14
17
21
24
27
31
36
42
48
55
61
68
75
81
86
91
98
108
117
125
130
136
143
150
160
174
185
196
207
219
234
256
270
277
283
287
288
287
285
281
276
266
248
229
212
197
179
157
137
105
76
58
40
22
5
-13
-23
-28
-32
-35
-38
-42
-45
-48
-51
-53
-55
-58
-60
-62
-63
-64
-64
-63
-62
-60
-58
-55
-52
-49
-47
-44
-42
-39
-36
-33
-30
-26
-24
-21
-19
-16
-14
-12
-11
-10
-9
-8
-7
-5
-3
-2
-2
-2
-3
-4
-5
-6
-9
-11
-14
-16
-18
-21
-23
-25
-28
-29
-31
-31
-32
-32
-31
-31
-29
-28
-26
-23
-22
-20
-18
-16
-12
-8
-2
2
5
9
13
20
29
39
45
49
52
54
55
54
51
46
40
29
9
-3
-11
-17
-22
-27
-30
-33
-35
-38
-40
-43
-45
-47
-50
-54
-60
-63
-59
-48
-20
42
137
270
436
615
769
843
793
610
336
37
-207
-324
-335
-278
-184
-114
-95
-92
-90
-88
-87
-87
-86
-84
-83
-81
-80
-78
-77
-76
-75
-73
-72
-71
-70
-68
-66
-64
-61
-58
-56
-53
-50
-48
-46
-45
-43
-42
-40
-38
-35
-31
-27
-23
-18
-13
-8
-2
2
8
15
25
38
50
63
73
84
95
106
117
127
136
145
153
164
176
187
193
198
203
205
201
192
179
159
140
121
102
81
59
37
14
-7
-24
-38
-51
-63
-76
-86
-90
-93
-95
-97
-99
-100
-101
-102
-102
-103
-103
-103
-103
-103
-102
-101
-100
-99
-96
-94
-91
-89
-87
-84
-78
-73
-69
-67
-66
-64
-63
-61
-60
-59
-58
-56
-54
-52
-49
-45
-42
-35
-30
-29
-33
-37
-39
-40
-42
-44
-46
-48
-50
-52
-54
-56
-57
-58
-59
-59
-60
-60
-61
-62
-63
-64
-65
-66
-67
-68
-68
-67
-66
-64
-61
-58
-55
-51
-45
-32
-19
-12
-7
-3
-1
1
3
4
6
7
8
9
11
14
16
15
10
3
-5
-17
-31
-45
-59
-69
-75
-79
-82
-84
-86
-87
-89
-90
-91
-92
-93
-96
-101
-91
-61
-5
81
204
361
538
704
801
800
694
443
131
-156
-342
-397
-341
-237
-143
-99
-83
-83
-88
-90
-92
-93
-94
-95
-95
-93
-91
-88
-86
-84
-83
-82
-81
-79
-77
-75
-72
-70
-68
-66
-64
-61
-59
-56
-54
-50
-43
-35
-29
-25
-22
-19
-16
-13
-9
-5
-1
3
9
23
43
57
75
87
93
98
104
109
114
120
128
135
141
151
165
181
194
203
208
210
207
198
189
177
163
144
123
90
59
39
21
7
-6
-24
-47
-65
-76
-84
-91
-94
-97
-98
-100
-101
-102
-103
-104
-105
-105
-105
-105
-105
-105
-104
-103
-101
-99
-98
-96
-94
-93
-90
-88
-86
-84
-82
-78
-72
-68
-64
-60
-56
-55
-53
-52
-50
-49
-48
-47
-47
-46
-45
-45
-44
-44
-43
-43
-42
-41
-40
-40
-40
-40
-40
-40
-40
-41
-41
-41
-41
-41
-40
-40
-40
-40
-39
-39
-39
-39
-38
-38
-37
-35
-33
-31
-29
-26
-24
-21
-19
-16
-12
-9
-5
0
11
21
30
35
39
42
45
47
48
48
46
43
38
34
28
20
4
-10
-17
-21
-26
-30
-34
-36
-38
-39
-39
-39
-38
-37
-34
-31
-26
-19
-12
22
89
189
324
488
656
788
830
751
550
269
-22
-246
-340
-347
-284
-191
-112
-64
-43
-36
-33
-32
-30
-29
-27
-26
-24
-22
-20
-18
-16
-14
-12
-9
-6
-1
8
15
20
23
25
27
29
30
32
34
36
38
40
42
45
49
56
70
82
89
94
98
102
106
111
115
120
127
137
146
153
162
172
184
196
208
217
226
232
239
246
251
256
259
261
261
259
255
249
238
220
201
179
152
127
104
82
62
42
23
5
-6
-13
-20
-27
-34
-41
-48
-54
-55
-55
-55
-55
-55
-55
-55
-56
-55
-54
-51
-47
-42
-38
-33
-28
-24
-19
-15
-12
-10
-7
-5
-4
-2
-1
-1
0
-1
-1
-2
-4
-6
-7
-8
-10
-12
-14
-15
-17
-18
-19
-19
-20
-21
-21
-21
-19
-18
-16
-15
-14
-12
-10
-8
-5
-2
0
4
9
14
18
21
24
26
29
31
35
39
44
50
56
61
67
73
78
82
85
88
91
96
100
103
103
101
96
90
80
60
47
39
33
28
24
21
19
17
15
13
10
7
4
0
-5
-13
-14
-8
8
45
103
188
299
431
564
671
712
657
497
257
-6
-223
-328
-340
-299
-231
-202
-192
-199
-208
-214
-199
-174
-149
-135
-128
-124
-120
-117
-115
-112
-108
-99
-83
-68
-53
-40
-30
-18
-5
6
16
23
28
32
35
38
40
42
43
44
45
46
47
49
50
52
54
57
60
63
70
83
93
100
106
113
119
127
139
158
174
185
195
204
214
221
225
229
232
233
233
231
228
222
213
194
172
150
127
105
83
62
40
18
3
-6
-14
-22
-34
-52
-68
-80
-89
-99
-108
-113
-117
-120
-123
-122
-116
-109
-104
-100
-96
-93
-89
-86
-82
-78
-73
-69
-64
-59
-53
-48
-42
-38
-34
-32
-30
-28
-27
-25
-23
-21
-20
-18
-16
-15
-13
-12
-10
-9
-8
-8
-7
-7
-7
-6
-6
-6
-5
-4
-4
-3
-2
-2
-2
-1
0
0
1
1
2
4
6
8
10
13
16
21
33
43
51
57
61
64
68
70
72
71
70
67
63
59
54
48
37
27
16
10
6
1
-1
-4
-6
-7
-8
-8
-7
-6
-5
-2
0
2
15
56
119
206
317
442
560
620
614
521
332
106
-100
-242
-284
-283
-234
-176
-123
-80
-63
-58
-55
-53
-52
-51
-50
-51
-53
-56
-59
-63
-67
-73
-84
-90
-90
-90
-89
-89
-90
-91
-93
-94
-93
-92
-90
-89
-87
-84
-81
-81
-82
-83
-85
-86
-87
-88
-89
-88
-87
-84
-81
-77
-72
-66
-60
-54
-48
-41
-30
-16
-1
5
10
14
17
19
20
21
21
20
19
17
15
11
5
-9
-26
-44
-62
-82
-100
-113
-128
-143
-159
-176
-190
-202
-209
-213
-216
-217
-219
-220
-220
-221
-221
-222
-223
-224
-225
-225
-224
-223
-222
-220
-218
-216
-213
-211
-208
-206
-205
-203
-202
-200
-197
-195
-193
-190
-187
-184
-181
-178
-175
-173
-171
-168
-166
-164
-162
-160
-157
-155
-152
-150
-147
-145
-144
-143
-142
-140
-139
-137
-135
-132
-127
-121
-114
-107
-98
-89
-81
-71
-63
-58
-56
-56
-55
-55
-54
-52
-51
-50
-52
-54
-58
-61
-64
-67
-70
-73
-75
-78
-79
-80
-79
-79
-77
-73
-69
-64
-58
-33
15
86
184
303
430
539
575
562
454
269
60
-117
-213
-224
-189
-114
-57
-40
-31
-22
-15
-8
-2
4
11
17
22
26
29
31
33
35
39
43
47
52
56
60
63
67
71
74
77
79
81
84
86
88
90
92
94
96
99
103
106
110
114
118
122
126
131
136
141
146
151
158
168
183
199
211
221
229
235
240
243
246
248
250
251
252
253
252
251
249
246
241
236
225
202
177
152
134
123
112
101
93
86
79
74
69
65
63
62
61
60
59
57
56
55
54
54
54
54
54
54
54
55
55
56
56
56
56
56
56
57
57
58
58
59
60
62
63
64
64
64
65
65
66
66
66
66
67
68
70
71
71
70
67
65
63
61
59
56
54
52
52
54
59
64
70
76
85
92
93
89
83
77
69
61
53
42
23
11
4
0
-5
-9
-13
-16
-20
-24
-25
-24
-21
-17
-13
-8
-3
0
7
32
75
146
254
390
527
605
603
513
317
83
-123
-251
-281
-235
-158
-89
-59
-53
-48
-45
-43
-43
-44
-45
-46
-48
-50
-51
-53
-54
-55
-55
-55
-56
-57
-58
-59
-59
-59
-59
-59
-59
-58
-57
-55
-54
-53
-52
-50
-49
-47
-45
-43
-42
-40
-38
-34
-30
-26
-23
-19
-15
-8
0
8
15
21
25
28
33
37
41
46
54
66
74
79
84
87
88
86
81
74
62
43
26
9
-8
-27
-44
-57
-67
-77
-86
-94
-103
-111
-121
-129
-137
-140
-141
-142
-143
-142
-140
-139
-138
-136
-136
-137
-139
-141
-144
-147
-148
-145
-137
-131
-125
-119
-115
-112
-107
-103
-97
-91
-86
-81
-77
-77
-76
-76
-76
-75
-74
-73
-73
-72
-72
-72
-71
-70
-70
-69
-69
-68
-67
-66
-64
-62
-60
-59
-57
-55
-53
-50
-47
-39
-25
-19
-16
-14
-12
-10
-9
-8
-8
-9
-10
-12
-14
-16
-19
-24
-33
-42
-48
-51
-55
-57
-59
-60
-60
-59
-58
-57
-54
-51
-38
-8
39
112
211
332
458
561
610
573
445
245
21
-165
-260
-270
-232
-159
-102
-78
-70
-65
-60
-56
-53
-50
-47
-44
-41
-39
-37
-35
-32
-27
-19
-11
-7
-5
-3
-2
0
0
2
3
5
7
9
12
16
25
32
37
41
44
47
50
53
57
61
65
71
78
84
90
95
100
103
107
112
120
129
142
157
171
185
197
209
215
218
220
222
223
223
221
218
213
207
194
176
161
147
134
120
104
91
83
79
76
71
66
60
55
49
44
40
37
35
31
28
25
25
30
35
38
40
42
43
45
46
48
50
53
55
57
59
61
62
64
66
69
71
73
75
76
78
79
79
79
78
77
75
72
70
67
62
51
41
34
29
26
23
21
21
23
25
29
33
38
44
51
55
58
61
64
66
68
70
71
73
75
80
86
90
92
94
95
95
91
86
81
75
69
64
57
49
43
39
37
35
34
33
33
33
34
36
39
44
61
102
172
276
410
557
685
749
713
568
339
84
-127
-250
-272
-219
-145
-86
-62
-54
-50
-48
-47
-46
-46
-46
-45
-45
-45
-45
-45
-45
-45
-44
-44
-45
-45
-45
-44
-43
-42
-41
-40
-39
-38
-36
-34
-33
-31
-29
-26
-22
-18
-15
-13
-11
-9
-6
-3
1
5
11
21
35
47
56
64
71
79
88
101
115
125
133
142
151
159
162
164
165
166
167
166
163
159
153
141
128
113
95
76
59
42
26
11
-2
-16
-26
-34
-41
-44
-47
-49
-51
-52
-54
-54
-55
-55
-55
-54
-53
-52
-51
-49
-48
-47
-45
-44
-43
-42
-40
-38
-36
-34
-31
-29
-26
-24
-22
-19
-17
-15
-12
-9
-6
-4
-3
-2
-2
-2
-2
-2
-2
-2
-1
-1
-1
0
0
0
0
0
0
0
0
0
0
0
1
2
4
6
8
10
14
18
22
26
31
37
45
51
56
59
62
64
66
67
67
65
61
57
52
46
36
29
23
16
8
-2
-7
-11
-14
-17
-18
-19
-19
-18
-17
-15
-11
-6
12
54
123
228
369
526
666
741
708
558
317
50
-167
-264
-273
-220
-147
-112
-104
-97
-94
-92
-91
-91
-92
-92
-93
-94
-95
-96
-97
-98
-99
-99
-100
-100
-101
-100
-99
-98
-97
-95
-93
-90
-85
-71
-65
-62
-60
-58
-57
-55
-54
-52
-51
-49
-47
-45
-42
-40
-37
-33
-28
-23
-19
-16
-12
-3
10
21
30
38
48
63
74
79
83
88
92
96
101
108
111
109
104
96
84
71
58
43
28
1
-27
-44
-56
-65
-73
-82
-91
-100
-106
-111
-115
-120
-123
-124
-124
-125
-125
-126
-126
-127
-127
-126
-124
-122
-121
-119
-118
-116
-114
-112
-110
-108
-106
-104
-103
-101
-100
-99
-98
-97
-96
-95
-93
-92
-91
-89
-88
-87
-86
-86
-87
-88
-90
-92
-93
-95
-96
-97
-98
-99
-99
-99
-100
-101
-102
-102
-103
-104
-105
-105
-105
-105
-104
-103
-101
-100
-98
-96
-94
-92
-90
-85
-80
-77
-73
-66
-52
-41
-33
-28
-24
-20
-17
-15
-14
-16
-20
-25
-31
-39
-48
-59
-74
-87
-96
-98
-100
-101
-102
-102
-101
-99
-98
-96
-96
-101
-106
-111
-100
-66
-7
81
202
348
500
619
661
593
414
170
-75
-262
-334
-336
-273
-194
-147
-131
-133
-135
-136
-137
-138
-138
-135
-132
-128
-125
-122
-119
-115
-111
-107
-102
-99
-95
-92
-89
-86
-84
-82
-81
-79
-78
-77
-75
-74
-73
-71
-70
-68
-66
-64
-61
-55
-48
-41
-34
-26
-20
-15
-10
-5
0
6
13
21
28
38
53
68
86
102
113
119
123
126
128
129
127
124
119
114
107
100
94
84
70
47
25
2
-12
-29
-46
-62
-80
-94
-102
-108
-112
-115
-118
-122
-128
-135
-140
-143
-146
-148
-150
-150
-147
-144
-140
-136
-133
-131
-128
-125
-122
-119
-117
-115
-113
-111
-110
-108
-106
-104
-101
-94
-87
-79
-72
-66
-61
-60
-59
-59
-58
-58
-57
-57
-58
-60
-62
-63
-64
-65
-66
-67
-68
-69
-70
-70
-71
-70
-70
-69
-68
-67
-66
-65
-64
-62
-60
-59
-57
-54
-50
-45
-40
-35
-30
-24
-18
-12
-7
0
7
18
25
29
33
36
37
35
30
23
17
8
0
-6
-15
-25
-31
-36
-39
-42
-46
-50
-54
-58
-62
-65
-68
-68
-66
-62
-56
-37
6
69
157
278
427
584
713
768
712
538
285
25
-174
-252
-254
-188
-104
-58
-40
-38
-39
-41
-42
-32
-25
-22
-19
-18
-16
-16
-15
-13
-11
-8
-6
-5
-3
-2
0
0
2
3
5
6
8
11
13
15
16
18
19
20
21
22
24
27
34
42
50
55
61
67
73
81
90
102
116
128
137
145
156
171
185
199
208
213
219
226
232
238
242
242
239
234
226
212
199
184
160
135
122
108
95
81
66
48
31
20
14
8
0
-7
-11
-14
-17
-20
-22
-25
-27
-28
-29
-29
-29
-29
-29
-29
-29
-29
-30
-30
-30
-30
-30
-30
-29
-26
-22
-18
-13
-8
-4
0
4
7
7
7
7
7
7
7
7
7
8
8
7
7
7
6
5
4
2
1
0
0
0
-1
-2
-2
-3
-4
-4
-4
-5
-6
-6
-7
-6
-5
-4
-3
-1
1
3
7
10
15
24
30
35
39
42
45
49
52
56
59
62
65
67
66
63
56
48
35
14
1
-6
-12
-16
-20
-23
-25
-28
-29
-30
-31
-31
-31
-30
-28
-24
-20
-14
-5
26
103
219
369
538
695
783
781
677
441
155
-101
-268
-318
-272
-186
-107
-67
-60
-55
-51
-48
-46
-44
-42
-39
-36
-34
-32
-30
-30
-29
-28
-26
-25
-24
-22
-20
-17
-15
-13
-11
-9
-8
-7
-6
-5
-4
-3
-3
-2
-1
0
1
3
4
6
8
11
15
23
41
56
65
72
77
83
91
103
112
118
123
128
132
136
144
160
170
175
179
181
182
181
177
171
163
149
123
98
75
53
32
14
-5
-27
-50
-68
-78
-85
-91
-96
-98
-100
-102
-104
-105
-107
-108
-108
-109
-109
-109
-108
-107
-105
-102
-99
-96
-94
-91
-88
-85
-82
-79
-76
-73
-70
-67
-64
-62
-60
-58
-56
-54
-53
-52
-51
-50
-50
-49
-49
-48
-47
-46
-45
-44
-43
-42
-41
-41
-41
-42
-42
-43
-44
-44
-43
-41
-39
-37
-37
-37
-38
-39
-40
-42
-45
-47
-47
-44
-40
-35
-31
-27
-22
-17
-11
-5
0
7
14
25
33
37
40
43
45
47
49
47
43
37
30
21
12
0
-9
-19
-27
-35
-41
-45
-48
-50
-53
-55
-56
-56
-55
-52
-48
-43
-37
-11
37
112
218
360
523
674
738
725
593
349
70
-166
-288
-302
-249
-148
-69
-51
-46
-55
-65
-73
-71
-54
-45
-40
-37
-34
-31
-30
-28
-26
-24
-22
-20
-18
-17
-17
-17
-16
-16
-15
-14
-12
-10
-8
-3
1
6
11
17
24
33
41
49
53
56
58
60
62
65
68
70
74
78
83
92
107
121
132
142
152
161
173
186
194
199
202
205
206
207
206
203
199
193
182
163
143
121
99
78
57
35
13
-8
-25
-37
-47
-57
-67
-79
-84
-86
-89
-91
-94
-96
-97
-99
-100
-101
-101
-101
-101
-100
-99
-98
-97
-96
-95
-95
-94
-94
-93
-92
-91
-89
-87
-85
-83
-81
-79
-78
-77
-77
-78
-79
-81
-82
-84
-86
-89
-91
-93
-96
-100
-104
-108
-111
-114
-117
-119
-121
-123
-125
-127
-128
-130
-131
-131
-131
-131
-130
-129
-128
-127
-126
-125
-123
-121
-119
-118
-115
-112
-108
-104
-100
-96
-91
-86
-80
-71
-64
-61
-58
-55
-51
-49
-53
-61
-70
-82
-90
-101
-116
-132
-149
-157
-162
-166
-169
-170
-171
-172
-172
-172
-172
-171
-169
-166
-163
-160
-146
-100
-26
80
225
395
557
644
642
538
306
22
-238
-408
-460
-410
-315
-226
-164
-152
-152
-152
-152
-152
-152
-151
-150
-148
-146
-142
-138
-135
-131
-125
-121
-116
-112
-107
-103
-99
-95
-91
-87
-84
-80
-77
-73
-69
-65
-60
-56
-51
-46
-41
-37
-33
-29
-26
-21
-16
-10
-4
3
17
37
53
64
73
83
92
103
113
124
134
145
155
167
179
189
192
193
193
194
195
191
184
175
165
156
143
127
109
90
70
49
31
18
6
-5
-16
-25
-29
-31
-33
-35
-36
-37
-38
-38
-38
-37
-37
-35
-33
-30
-27
-25
-22
-19
-14
-9
-4
0
5
10
17
24
30
35
43
53
63
69
72
75
77
79
81
83
86
88
90
92
93
94
95
97
98
99
100
100
101
102
103
103
104
105
106
106
107
108
109
109
110
112
113
114
115
117
118
120
122
124
127
130
134
138
141
145
148
153
161
175
190
197
201
205
208
210
212
213
214
213
211
209
206
203
199
195
186
176
166
159
153
148
144
141
139
138
136
135
134
131
129
129
135
148
183
247
340
466
617
775
904
956
890
702
432
149
-73
-164
-167
-95
3
75
94
96
97
99
101
102
104
106
108
108
109
109
109
109
109
109
109
109
110
110
111
111
112
112
113
113
113
112
112
112
112
112
113
113
114
115
116
117
118
119
121
122
125
134
142
150
156
161
166
172
176
182
192
209
223
233
244
255
266
273
278
283
286
285
280
271
261
247
235
218
198
179
161
145
129
115
99
81
63
46
34
17
6
-1
-7
-11
-14
-16
-18
-20
-21
-23
-24
-25
-26
-25
-23
-20
-17
-14
-12
-9
-7
-5
-2
0
2
4
5
6
6
7
7
8
8
8
8
8
9
10
10
10
10
9
8
7
6
4
3
1
0
0
0
-1
-2
-3
-3
-4
-5
-5
-6
-6
-6
-5
-5
-4
-3
-2
0
0
2
4
5
7
9
12
14
17
21
26
33
39
45
51
55
60
63
67
70
73
76
77
76
75
73
70
66
61
53
40
27
15
2
-12
-22
-29
-34
-38
-41
-43
-45
-46
-48
-50
-53
-55
-52
-44
-20
28
103
212
355
518
666
725
710
571
315
18
-236
-371
-387
-332
-224
-142
-124
-120
-125
-127
-128
-129
-129
-129
-128
-127
-126
-123
-120
-117
-114
-112
-109
-107
-106
-104
-103
-102
-100
-98
-96
-94
-92
-92
-91
-91
-91
-90
-88
-87
-85
-83
-79
-75
-70
-65
-60
-54
-48
-41
-33
-25
-17
-7
6
16
27
38
51
62
72
81
90
95
99
102
105
107
108
108
107
105
101
97
91
79
58
39
20
0
-20
-43
-65
-83
-97
-109
-121
-133
-145
-151
-154
-156
-159
-161
-163
-164
-165
-165
-165
-164
-163
-161
-158
-155
-152
-148
-145
-141
-135
-129
-124
-120
-117
-115
-114
-113
-111
-110
-109
-108
-108
-107
-106
-105
-104
-104
-103
-103
-103
-103
-104
-104
-104
-104
-104
-104
-105
-105
-105
-106
-106
-106
-106
-107
-108
-108
-108
-107
-107
-106
-106
-105
-103
-101
-99
-96
-94
-89
-78
-70
-63
-56
-49
-42
-36
-32
-29
-26
-24
-23
-22
-22
-23
-26
-29
-33
-38
-45
-58
-69
-79
-88
-95
-100
-104
-106
-109
-111
-113
-115
-117
-119
-121
-125
-131
-131
-118
-85
-29
56
176
322
474
598
653
607
448
204
-68
-299
-419
-433
-386
-288
-202
-167
-158
-153
-149
-146
-142
-138
-134
-131
-128
-125
-121
-118
-115
-113
-110
-108
-106
-104
-101
-99
-97
-94
-92
-90
-87
-84
-81
-77
-73
-70
-67
-65
-62
-60
-58
-55
-52
-49
-45
-41
-36
-26
-18
-11
-4
1
7
13
19
27
38
50
65
85
99
108
115
119
122
125
127
129
130
130
128
126
122
116
106
86
66
45
22
0
-20
-41
-61
-80
-94
-105
-114
-122
-129
-133
-135
-136
-137
-138
-139
-140
-140
-138
-134
-130
-126
-123
-119
-114
-109
-105
-100
-97
-94
-90
-86
-81
-77
-74
-71
-69
-67
-64
-62
-60
-59
-58
-59
-59
-59
-59
-59
-60
-61
-61
-57
-55
-53
-52
-51
-50
-49
-49
-47
-46
-45
-44
-44
-43
-43
-42
-41
-40
-38
-37
-34
-30
-24
-17
-9
-2
3
9
15
20
25
29
34
39
42
44
45
46
48
50
49
39
28
17
7
-3
-20
-34
-43
-48
-51
-53
-55
-57
-56
-52
-46
-40
-34
-28
-22
-16
7
43
99
187
311
463
612
700
701
616
409
152
-88
-258
-322
-294
-214
-128
-63
-38
-29
-30
-39
-50
-61
-63
-67
-63
-47
-37
-28
-24
-21
-20
-18
-16
-14
-11
-8
-5
-2
0
2
5
6
8
9
11
13
15
18
20
21
22
24
25
27
29
31
34
38
44
49
53
58
66
76
86
97
107
116
125
134
146
159
171
180
186
191
195
198
201
204
208
210
205
194
177
157
130
106
79
53
26
-1
-21
-37
-47
-54
-60
-66
-70
-74
-78
-80
-82
-83
-85
-85
-86
-87
-88
-90
-91
-92
-91
-90
-88
-87
-85
-83
-81
-78
-75
-73
-70
-67
-64
-60
-57
-54
-52
-50
-48
-47
-44
-42
-41
-40
-39
-39
-39
-39
-40
-42
-43
-45
-46
-47
-49
-50
-50
-51
-52
-53
-53
-54
-54
-54
-54
-53
-52
-49
-47
-43
-39
-35
-31
-27
-21
-14
-10
-7
-5
-4
-2
0
1
3
4
2
0
-4
-9
-16
-26
-37
-49
-60
-73
-80
-84
-87
-90
-91
-93
-94
-95
-96
-97
-96
-97
-99
-103
-88
-43
37
156
310
482
639
717
710
591
351
73
-171
-326
-369
-321
-236
-158
-120
-113
-108
-104
-101
-98
-97
-94
-92
-90
-88
-87
-86
-85
-84
-81
-74
-67
-60
-57
-55
-54
-52
-50
-49
-48
-48
-47
-46
-44
-43
-42
-42
-41
-40
-39
-37
-35
-33
-30
-26
-16
-7
0
9
20
31
39
46
52
58
64
76
93
107
118
127
137
147
154
159
162
165
167
167
165
161
155
145
128
109
88
63
39
15
-4
-21
-37
-50
-60
-69
-75
-80
-84
-86
-88
-89
-90
-91
-92
-93
-93
-94
-94
-94
-95
-95
-94
-94
-93
-91
-89
-87
-85
-82
-80
-77
-70
-63
-55
-49
-45
-41
-38
-36
-35
-34
-33
-33
-33
-32
-31
-30
-29
-28
-27
-26
-25
-25
-24
-24
-24
-23
-23
-21
-19
-17
-16
-16
-18
-19
-20
-22
-24
-25
-25
-22
-18
-14
-10
-7
-4
-1
2
6
9
11
14
16
21
28
35
41
45
50
53
54
53
49
44
36
22
10
-3
-17
-27
-32
-35
-39
-41
-41
-40
-36
-33
-30
-27
-24
-21
-17
-12
-3
24
83
173
303
466
638
774
821
742
538
257
-22
-221
-300
-271
-184
-100
-44
-32
-29
-28
-26
-25
-24
-23
-21
-20
-18
-16
-15
-14
-13
-12
-11
-10
-8
-6
-4
-2
0
1
3
4
6
7
9
10
12
15
17
21
24
29
33
38
42
47
51
55
59
61
64
67
71
76
82
89
97
111
130
143
153
162
174
190
201
207
211
214
216
218
221
225
224
213
201
188
178
164
148
124
97
70
54
38
23
9
-6
-23
-34
-36
-37
-38
-39
-40
-40
-41
-41
-41
-42
-43
-43
-43
-42
-41
-40
-39
-38
-37
-36
-34
-33
-32
-31
-31
-30
-29
-27
-25
-24
-23
-22
-21
-19
-18
-16
-16
-15
-15
-15
-15
-14
-14
-14
-14
-14
-14
-13
-13
-12
-13
-13
-14
-14
-14
-14
-14
-14
-14
-15
-15
-15
-15
-15
-15
-14
-14
-13
-12
-10
-8
-5
-3
0
2
6
15
24
32
39
45
51
55
60
62
64
66
67
69
72
74
69
59
48
34
23
12
1
-6
-10
-13
-16
-17
-19
-19
-20
-20
-19
-18
-15
-11
-6
1
29
86
173
294
448
617
769
853
825
672
420
127
-128
-283
-313
-245
-144
-58
-24
-11
-11
-19
-24
-27
-29
-31
-32
-33
-33
-32
-31
-29
-27
-24
-22
-20
-19
-17
-15
-13
-11
-9
-7
-5
-3
0
1
2
4
6
9
13
20
27
32
37
41
45
50
56
62
69
76
83
89
94
99
107
117
128
140
151
162
172
183
194
207
218
222
224
226
228
229
227
222
215
204
184
163
141
119
98
79
62
46
29
13
-3
-16
-24
-29
-35
-39
-43
-46
-49
-52
-53
-54
-54
-55
-56
-56
-57
-58
-58
-55
-51
-46
-43
-41
-38
-36
-34
-31
-29
-28
-26
-25
-24
-23
-22
-21
-20
-19
-17
-16
-16
-15
-15
-15
-16
-17
-18
-20
-22
-24
-26
-28
-30
-31
-32
-34
-36
-37
-39
-40
-41
-41
-41
-41
-41
-40
-39
-39
-38
-38
-38
-37
-36
-36
-35
-35
-34
-34
-32
-30
-28
-26
-24
-21
-15
-8
-1
9
21
26
29
31
33
34
33
30
26
21
11
-5
-17
-25
-31
-37
-45
-58
-64
-67
-70
-72
-73
-74
-74
-74
-74
-73
-72
-70
-68
-64
-51
-1
79
198
350
516
659
733
698
539
289
12
-219
-354
-378
-321
-239
-170
-129
-113
-104
-93
-85
-80
-77
-81
-89
-97
-105
-109
-106
-100
-92
-82
-75
-72
-70
-70
-69
-67
-66
-65
-63
-62
-61
-60
-59
-57
-56
-55
-51
-43
-34
-29
-25
-22
-19
-16
-13
-10
-6
0
9
16
24
31
37
46
57
67
75
81
89
101
117
133
152
168
176
181
184
186
185
181
177
170
155
139
124
103
79
52
24
-1
-16
-31
-46
-57
-64
-71
-78
-83
-87
-90
-92
-95
-96
-98
-99
-100
-101
-102
-104
-105
-105
-104
-102
-99
-96
-93
-90
-87
-82
-78
-73
-69
-64
-60
-55
-51
-47
-45
-43
-41
-40
-39
-38
-36
-35
-34
-33
-33
-32
-31
-31
-30
-30
-31
-31
-31
-30
-30
-29
-29
-29
-29
-28
-27
-27
-27
-27
-27
-27
-26
-26
-25
-25
-24
-23
-22
-21
-20
-18
-17
-15
-11
-2
6
17
33
43
48
53
55
55
53
50
45
36
21
7
-1
-10
-16
-20
-23
-27
-30
-33
-35
-37
-40
-42
-44
-45
-45
-44
-41
-38
-33
-24
-8
18
67
147
264
411
566
691
737
669
487
226
-43
-242
-308
-307
-236
-157
-106
-89
-85
-82
-77
-68
-63
-59
-55
-52
-50
-47
-45
-44
-43
-41
-39
-36
-29
-21
-17
-13
-10
-9
-9
-10
-12
-15
-18
-21
-24
-20
-12
-5
1
8
15
24
33
41
46
49
52
55
58
62
67
73
80
87
93
102
118
132
140
147
152
157
164
173
183
193
199
204
208
210
207
200
190
174
156
139
113
87
61
44
26
10
-3
-20
-34
-41
-47
-54
-60
-63
-66
-69
-71
-74
-76
-78
-80
-81
-81
-81
-81
-79
-77
-75
-73
-70
-67
-65
-63
-61
-59
-58
-56
-55
-53
-51
-49
-47
-45
-43
-42
-41
-40
-40
-40
-40
-40
-41
-42
-42
-43
-43
-44
-44
-45
-46
-47
-47
-48
-49
-50
-51
-52
-53
-53
-53
-54
-54
-54
-54
-55
-55
-55
-56
-58
-59
-55
-47
-41
-36
-31
-26
-20
-14
-9
-5
-2
0
2
4
5
7
8
9
9
9
9
8
6
5
2
0
-4
-8
-14
-28
-38
-45
-51
-56
-60
-64
-68
-71
-74
-78
-80
-81
-79
-76
-71
-64
-40
7
83
193
338
503
656
727
718
596
357
79
-161
-311
-351
-301
-213
-134
-101
-93
-89
-86
-83
-79
-77
-74
-72
-70
-69
-67
-66
-65
-64
-62
-61
-59
-58
-57
-55
-54
-53
-52
-51
-49
-47
-44
-41
-38
-34
-31
-27
-24
-21
-17
-14
-10
-6
-2
1
6
10
15
21
27
33
38
48
67
83
93
102
109
120
137
154
170
178
183
186
188
189
188
185
181
176
165
148
132
117
103
87
68
48
26
2
-16
-31
-45
-55
-62
-68
-75
-81
-87
-90
-92
-95
-97
-99
-101
-103
-104
-105
-106
-106
-106
-106
-105
-104
-103
-102
-101
-99
-98
-96
-95
-93
-92
-92
-91
-90
-89
-88
-88
-88
-88
-88
-88
-88
-89
-90
-91
-92
-93
-94
-95
-97
-99
-101
-103
-105
-108
-110
-112
-116
-121
-126
-130
-134
-138
-140
-143
-146
-148
-150
-152
-153
-155
-156
-157
-159
-160
-161
-163
-164
-166
-168
-169
-171
-171
-171
-171
-171
-170
-168
-165
-161
-157
-154
-151
-149
-145
-140
-136
-132
-131
-132
-134
-137
-142
-147
-156
-172
-186
-197
-207
-217
-226
-233
-238
-243
-246
-249
-251
-253
-256
-258
-262
-265
-265
-262
-255
-235
-198
-138
-53
61
204
360
493
557
510
340
82
-189
-400
-494
-502
-450
-372
-318
-294
-283
-276
-268
-258
-253
-249
-245
-242
-240
-238
-235
-232
-229
-226
-222
-219
-215
-209
-204
-198
-194
-189
-185
-181
-177
-173
-168
-164
-159
-154
-148
-140
-133
-127
-121
-113
-103
-93
-85
-79
-74
-68
-61
-49
-30
-16
-7
0
6
17
33
51
69
83
91
101
113
127
142
151
156
160
163
165
165
163
158
151
140
120
101
82
64
44
22
1
-15
-28
-37
-42
-46
-49
-51
-52
-50
-47
-42
-38
-35
-32
-29
-27
-24
-21
-19
-17
-15
-13
-12
-10
-8
-5
-1
3
9
15
23
31
39
47
54
59
64
69
74
79
84
89
95
102
108
113
116
119
122
124
127
129
131
133
136
138
141
144
147
151
155
159
163
166
168
171
173
175
177
179
182
184
186
188
190
193
195
198
201
204
208
211
214
217
220
223
227
230
233
237
240
244
247
250
254
260
267
275
285
295
304
311
318
321
324
327
329
331
331
330
327
322
316
309
302
291
280
273
266
262
258
255
252
250
248
247
248
249
252
256
260
266
290
333
402
502
635
796
958
1064
1071
995
783
502
230
34
-25
-21
58
146
193
206
214
219
222
223
223
222
223
223
223
223
223
222
222
221
220
218
216
216
215
214
213
212
211
210
210
210
209
209
209
209
210
210
211
211
211
212
213
214
215
216
218
220
222
224
226
230
239
247
253
261
271
282
294
305
316
326
335
341
346
350
354
357
358
356
351
343
330
309
289
266
241
216
190
164
143
127
112
99
88
77
66
57
49
43
36
29
22
16
10
4
0
-2
-4
-6
-8
-9
-9
-10
-10
-10
-10
-10
-9
-9
-8
-7
-7
-6
-6
-5
-5
-4
-3
-3
-2
-2
-1
0
0
0
-1
-2
-3
-5
-7
-9
-12
-14
-16
-17
-19
-20
-21
-22
-24
-25
-28
-30
-33
-36
-38
-41
-44
-46
-48
-49
-49
-49
-49
-49
-50
-50
-50
-49
-49
-49
-49
-50
-50
-50
-50
-50
-50
-50
-50
-48
-44
-39
-34
-32
-29
-26
-22
-19
-16
-13
-11
-10
-8
-7
-7
-7
-8
-8
-9
-10
-12
-14
-16
-18
-20
-23
-28
-39
-51
-64
-75
-86
-96
-107
-117
-125
-132
-138
-143
-147
-150
-154
-158
-165
-168
-164
-152
-117
-58
32
158
312
471
599
650
589
413
158
-109
-319
-413
-421
-370
-297
-250
-234
-223
-215
-201
-185
-180
-178
-176
-174
-173
-172
-172
-171
-170
-168
-167
-166
-166
-166
-166
-165
-164
-163
-163
-162
-160
-158
-156
-153
-151
-149
-148
-145
-143
-140
-137
-134
-130
-125
-118
-111
-103
-94
-86
-78
-70
-64
-60
-56
-49
-39
-26
-16
-8
0
10
22
37
57
73
84
92
98
101
102
99
94
87
74
53
31
7
-20
-47
-73
-95
-111
-124
-134
-146
-163
-172
-175
-178
-180
-182
-184
-185
-186
-187
-188
-189
-189
-189
-189
-188
-187
-186
-184
-183
-181
-179
-178
-176
-175
-173
-171
-169
-167
-165
-162
-159
-156
-152
-149
-146
-143
-140
-138
-135
-133
-132
-131
-129
-128
-126
-125
-123
-122
-120
-119
-117
-116
-115
-115
-114
-115
-115
-115
-114
-114
-114
-114
-114
-113
-111
-110
-108
-106
-105
-104
-103
-103
-103
-102
-102
-102
-101
-100
-98
-96
-95
-93
-91
-88
-86
-84
-82
-80
-77
-73
-68
-59
-51
-44
-33
-15
-3
4
9
10
10
10
10
10
10
9
9
8
6
2
-2
-8
-17
-32
-44
-54
-61
-64
-66
-67
-69
-70
-71
-72
-73
-72
-71
-69
-67
-63
-48
-15
39
122
239
388
547
681
742
692
523
267
-9
-234
-338
-346
-286
-190
-115
-92
-86
-82
-78
-75
-72
-70
-67
-65
-64
-63
-62
-61
-60
-58
-56
-54
-53
-52
-51
-49
-48
-46
-44
-42
-39
-35
-32
-29
-27
-25
-22
-19
-15
-7
0
7
13
19
25
31
38
44
50
56
60
64
73
86
101
117
130
138
146
154
163
174
187
198
208
213
216
218
221
223
222
216
207
192
170
152
133
114
94
72
51
29
10
-6
-22
-36
-46
-57
-64
-69
-73
-76
-77
-78
-79
-79
-80
-80
-81
-81
-81
-81
-81
-81
-81
-81
-79
-77
-76
-74
-72
-70
-68
-66
-64
-62
-59
-57
-54
-51
-48
-45
-42
-40
-38
-36
-33
-31
-29
-27
-26
-26
-25
-26
-26
-27
-29
-30
-31
-32
-33
-34
-35
-36
-37
-38
-38
-38
-38
-37
-37
-36
-34
-33
-31
-30
-29
-29
-28
-28
-28
-28
-28
-29
-29
-29
-29
-29
-28
-27
-27
-26
-25
-23
-22
-20
-19
-17
-15
-11
-6
-1
2
6
10
15
20
25
31
37
41
46
50
53
53
50
46
41
34
23
16
6
-8
-20
-27
-33
-38
-42
-44
-46
-48
-50
-51
-51
-51
-51
-49
-46
-41
-35
-12
40
123
241
393
559
703
775
731
558
291
4
-222
-309
-311
-237
-145
-97
-81
-83
-86
-89
-74
-65
-61
-57
-54
-51
-49
-48
-46
-44
-42
-40
-38
-37
-36
-35
-34
-32
-30
-27
-24
-22
-20
-18
-15
-13
-10
-6
-2
1
4
8
11
14
18
22
26
32
38
46
53
59
67
77
86
95
102
109
115
125
138
152
166
178
188
199
208
214
219
220
219
216
211
203
188
172
155
137
117
97
75
54
32
12
-6
-23
-39
-52
-61
-72
-78
-82
-86
-88
-89
-90
-90
-90
-90
-90
-91
-92
-92
-89
-83
-77
-74
-72
-70
-68
-66
-63
-60
-57
-55
-53
-50
-48
-46
-44
-43
-41
-40
-39
-37
-35
-32
-30
-29
-28
-28
-28
-28
-29
-31
-33
-36
-38
-40
-41
-43
-44
-46
-48
-50
-51
-51
-52
-52
-53
-54
-54
-54
-53
-53
-53
-53
-52
-52
-51
-50
-48
-47
-46
-44
-43
-42
-42
-41
-41
-41
-40
-39
-38
-37
-35
-33
-32
-30
-29
-27
-24
-22
-19
-14
-3
6
12
16
20
23
25
26
26
25
23
20
17
12
2
-8
-19
-30
-42
-49
-54
-58
-60
-62
-64
-64
-64
-64
-64
-62
-60
-57
-54
-42
-4
57
150
276
424
571
670
676
609
410
146
-114
-307
-368
-365
-286
-192
-120
-81
-66
-61
-58
-56
-55
-53
-51
-48
-46
-45
-43
-41
-40
-39
-38
-37
-35
-34
-32
-30
-27
-24
-21
-18
-16
-13
-9
-4
0
2
5
8
11
14
17
20
23
26
30
34
40
48
56
63
72
83
94
104
112
120
128
140
159
172
179
185
192
197
202
206
210
213
214
213
210
205
199
186
168
142
112
92
69
48
29
9
-6
-17
-31
-42
-52
-60
-68
-72
-74
-76
-78
-80
-82
-84
-86
-87
-88
-88
-88
-87
-86
-85
-83
-81
-79
-77
-75
-73
-71
-68
-63
-57
-53
-49
-46
-44
-42
-40
-38
-37
-36
-35
-34
-34
-33
-33
-34
-34
-34
-34
-34
-33
-33
-32
-32
-31
-30
-30
-30
-30
-31
-32
-32
-33
-33
-34
-34
-34
-34
-33
-32
-32
-31
-30
-30
-30
-30
-30
-29
-28
-27
-26
-25
-23
-19
-14
-9
-4
0
3
8
15
25
32
38
41
43
46
48
50
50
48
45
40
36
31
25
18
12
6
-2
-13
-22
-26
-29
-32
-34
-35
-36
-36
-36
-35
-33
-30
-26
-21
-1
48
122
226
356
499
626
675
661
537
311
52
-169
-301
-331
-280
-201
-128
-75
-49
-44
-40
-37
-35
-34
-32
-31
-30
-28
-26
-24
-23
-22
-21
-20
-19
-18
-16
-14
-11
-8
-5
-3
-1
1
3
5
7
9
11
14
18
21
25
28
32
35
39
44
48
53
59
67
79
91
102
113
123
130
136
142
150
160
169
178
185
191
195
200
204
208
209
207
202
195
185
172
161
148
128
104
79
54
29
6
-14
-32
-53
-68
-77
-83
-88
-91
-94
-96
-99
-101
-104
-106
-109
-111
-114
-117
-119
-120
-117
-112
-108
-106
-105
-103
-101
-99
-96
-94
-92
-91
-90
-89
-88
-88
-88
-88
-88
-88
-88
-88
-87
-87
-86
-85
-84
-84
-84
-86
-89
-92
-95
-97
-100
-103
-106
-108
-110
-112
-113
-113
-114
-114
-114
-114
-113
-113
-114
-115
-116
-117
-118
-117
-117
-116
-115
-113
-112
-110
-107
-105
-100
-94
-87
-81
-72
-65
-64
-64
-64
-64
-63
-65
-77
-88
-98
-106
-110
-118
-134
-145
-150
-155
-159
-161
-162
-163
-163
-163
-162
-161
-159
-155
-152
-147
-127
-80
-9
91
218
363
500
570
563
458
235
-27
-259
-404
-441
-392
-311
-237
-193
-180
-171
-164
-159
-155
-152
-149
-147
-144
-142
-140
-138
-135
-132
-128
-125
-121
-118
-115
-111
-104
-97
-87
-82
-79
-76
-74
-72
-70
-68
-66
-65
-64
-63
-61
-58
-52
-38
-28
-23
-18
-12
-6
1
12
21
29
36
44
53
69
90
107
120
129
138
147
160
174
187
189
191
193
194
191
183
171
152
132
110
86
64
43
26
13
-2
-19
-40
-55
-64
-70
-73
-75
-75
-76
-76
-76
-77
-77
-77
-77
-76
-76
-76
-76
-76
-75
-74
-72
-70
-67
-64
-61
-55
-45
-34
-25
-17
-13
-11
-10
-10
-9
-9
-8
-8
-6
-5
-3
-1
0
2
4
6
8
10
12
14
17
19
20
20
20
19
19
18
17
15
12
10
10
15
22
26
29
32
35
38
41
44
46
49
51
55
60
70
76
80
83
85
87
87
86
83
79
74
69
61
55
50
46
40
32
22
15
10
5
2
0
-2
-6
-10
-12
-9
-1
20
61
127
221
350
506
667
791
834
765
585
329
63
-143
-223
-224
-147
-48
19
37
34
23
19
15
13
13
14
15
17
19
22
26
33
39
42
46
48
49
49
47
46
44
41
39
42
48
52
54
56
57
59
61
64
66
68
71
73
76
80
86
92
98
104
112
123
133
143
154
166
179
191
202
210
217
224
231
242
258
268
273
277
279
279
277
272
266
254
236
209
182
154
136
117
97
77
56
38
25
15
11
9
6
4
3
2
1
0
0
1
1
2
4
6
8
10
12
13
15
17
19
21
24
26
28
31
34
37
40
42
44
48
53
58
61
62
63
64
65
67
68
69
69
69
69
69
69
69
69
68
68
67
67
67
69
70
71
72
73
74
75
76
77
78
79
80
82
83
85
87
90
96
112
126
135
139
142
145
146
148
148
145
141
136
131
126
121
116
111
105
99
93
87
82
78
74
71
68
65
62
61
61
63
65
69
80
123
192
290
421
573
724
834
860
774
577
315
51
-147
-220
-221
-158
-81
-38
-22
-20
-20
-20
-21
-21
-21
-20
-20
-20
-20
-19
-18
-17
-14
-12
-10
-9
-8
-8
-8
-7
-7
-6
-5
-4
-2
0
1
2
4
6
8
10
12
15
19
24
29
32
34
37
41
48
60
72
84
94
104
115
126
138
149
160
170
178
186
194
202
211
215
216
218
221
220
211
199
182
165
145
122
102
73
46
18
0
-18
-32
-44
-56
-68
-77
-80
-83
-85
-87
-89
-90
-91
-92
-93
-94
-94
-94
-93
-93
-92
-91
-90
-89
-88
-86
-84
-82
-80
-77
-74
-70
-65
-61
-58
-55
-53
-51
-50
-49
-47
-46
-46
-45
-45
-45
-45
-45
-45
-46
-47
-48
-49
-49
-50
-50
-50
-50
-50
-49
-49
-48
-48
-47
-47
-46
-45
-44
-43
-41
-39
-37
-34
-31
-28
-25
-22
-19
-16
-13
-10
-7
-2
4
11
17
22
27
32
36
36
31
24
15
3
-5
-16
-33
-50
-61
-66
-69
-71
-72
-74
-74
-74
-74
-72
-69
-65
-59
-49
-15
60
176
330
508
675
763
758
644
400
108
-152
-319
-363
-314
-227
-154
-133
-127
-137
-147
-156
-156
-146
-141
-138
-136
-134
-132
-130
-129
-127
-124
-122
-120
-118
-117
-116
-115
-113
-111
-109
-107
-105
-103
-101
-99
-96
-94
-92
-90
-88
-85
-82
-79
-76
-73
-70
-66
-60
-52
-38
-27
-16
-6
7
20
30
39
46
54
64
77
91
104
114
120
124
128
130
130
127
122
114
100
79
59
40
23
5
-13
-33
-54
-74
-91
-104
-115
-125
-133
-140
-147
-153
-157
-161
-164
-166
-168
-170
-171
-172
-173
-174
-175
-175
-176
-176
-176
-175
-174
-172
-170
-167
-165
-162
-157
-147
-135
-128
-123
-119
-116
-113
-110
-107
-106
-105
-104
-104
-103
-102
-101
-100
-100
-99
-98
-97
-97
-96
-96
-96
-96
-96
-97
-97
-97
-97
-97
-98
-98
-98
-98
-98
-98
-98
-98
-98
-98
-98
-97
-96
-95
-94
-92
-89
-82
-74
-67
-58
-49
-42
-38
-35
-32
-30
-29
-29
-30
-32
-36
-41
-46
-53
-65
-73
-79
-85
-90
-94
-99
-103
-108
-112
-116
-117
-115
-112
-107
-92
-57
-3
72
172
296
434
561
622
613
507
288
26
-210
-361
-405
-361
-280
-202
-150
-127
-121
-113
-105
-99
-94
-91
-87
-85
-82
-79
-77
-75
-74
-72
-71
-69
-68
-66
-64
-63
-61
-59
-57
-55
-53
-51
-49
-46
-44
-41
-38
-36
-34
-32
-29
-26
-22
-14
-7
-1
4
8
12
16
21
26
33
44
53
62
72
85
103
125
144
157
169
176
182
186
188
188
186
183
177
167
149
131
110
86
62
39
15
-7
-29
-45
-54
-63
-70
-77
-84
-91
-99
-103
-107
-110
-112
-114
-114
-113
-111
-108
-106
-103
-102
-100
-98
-96
-94
-92
-89
-86
-83
-81
-78
-76
-74
-71
-69
-67
-65
-63
-60
-57
-54
-51
-48
-46
-44
-43
-41
-39
-37
-35
-32
-30
-27
-26
-25
-25
-24
-24
-24
-24
-24
-23
-23
-23
-22
-22
-22
-21
-19
-17
-14
-12
-9
-6
-2
2
7
12
17
20
23
26
29
31
33
35
35
35
35
34
33
32
29
26
23
18
7
-1
-5
-9
-12
-14
-15
-16
-16
-16
-15
-13
-11
-8
4
41
101
186
300
436
576
684
718
651
483
247
4
-182
-252
-253
-189
-103
-36
-7
0
3
6
9
13
16
20
23
25
28
30
31
32
33
35
36
38
39
41
42
42
43
43
44
46
47
49
51
54
59
63
69
74
78
82
87
91
95
99
103
107
111
116
120
124
128
136
151
165
175
183
194
208
222
232
244
252
258
262
265
266
265
263
259
253
244
226
208
188
166
143
119
97
79
63
50
35
22
16
11
8
5
0
-4
-13
-17
-19
-21
-23
-25
-26
-27
-28
-28
-28
-27
-26
-25
-23
-21
-19
-17
-15
-13
-10
-8
-4
-1
1
4
6
9
11
13
14
16
16
17
17
18
19
19
19
19
19
19
19
19
19
19
19
19
19
19
19
19
19
20
20
21
21
22
23
25
26
28
31
35
45
55
62
67
71
73
74
73
71
67
63
59
53
47
43
39
35
30
25
19
14
9
6
2
0
-1
-1
0
1
3
6
17
44
89
159
256
382
524
656
721
714
609
393
135
-95
-243
-284
-239
-158
-88
-55
-45
-40
-36
-32
-30
-28
-27
-26
-25
-25
-24
-24
-24
-23
-23
-22
-22
-21
-21
-20
-20
-19
-18
-17
-17
-16
-16
-16
-15
-15
-14
-13
-11
-10
-6
1
10
17
21
25
29
34
39
44
50
56
61
66
72
81
92
106
124
138
148
156
166
179
187
191
194
196
194
191
187
179
168
152
128
100
72
46
29
12
-5
-22
-39
-54
-64
-70
-77
-83
-86
-87
-88
-89
-90
-91
-91
-92
-92
-91
-91
-91
-90
-88
-86
-85
-84
-83
-83
-83
-82
-81
-80
-79
-78
-76
-75
-72
-69
-66
-63
-61
-59
-58
-57
-55
-54
-53
-52
-52
-51
-49
-48
-47
-46
-46
-45
-44
-43
-43
-43
-43
-43
-43
-43
-42
-42
-42
-42
-41
-41
-39
-37
-35
-30
-24
-19
-13
-8
-3
1
4
7
9
11
12
12
10
8
4
0
-6
-17
-27
-36
-44
-52
-58
-62
-65
-68
-70
-71
-72
-72
-72
-71
-69
-67
-63
-58
-38
19
111
240
397
558
684
727
655
466
206
-53
-248
-321
-323
-261
-183
-126
-112
-109
-106
-104
-103
-101
-99
-96
-94
-92
-90
-89
-88
-87
-85
-84
-82
-81
-79
-78
-76
-75
-74
-73
-73
-72
-71
-70
-68
-66
-63
-61
-58
-55
-52
-49
-45
-42
-37
-33
-27
-19
-12
-5
1
8
15
20
26
34
40
49
60
73
88
106
124
143
161
171
178
182
182
178
173
163
149
127
107
87
64
39
12
-12
-36
-52
-64
-71
-76
-82
-87
-92
-96
-100
-103
-105
-107
-110
-113
-116
-116
-114
-112
-111
-109
-108
-108
-107
-105
-104
-102
-100
-98
-97
-95
-92
-87
-82
-78
-76
-75
-73
-72
-70
-68
-66
-65
-63
-61
-58
-56
-54
-53
-53
-51
-50
-48
-46
-45
-44
-43
-41
-40
-40
-40
-41
-42
-44
-44
-45
-46
-47
-49
-50
-51
-52
-54
-57
-60
-62
-60
-57
-52
-45
-31
-17
-7
0
5
10
13
15
15
13
10
7
2
-4
-12
-21
-29
-38
-44
-50
-55
-59
-63
-65
-68
-70
-72
-73
-73
-71
-67
-63
-56
-32
20
101
219
371
541
697
771
761
634
385
99
-145
-291
-322
-265
-182
-115
-84
-75
-68
-61
-58
-56
-54
-53
-52
-51
-50
-49
-48
-48
-46
-45
-44
-43
-43
-43
-42
-41
-40
-39
-37
-36
-35
-33
-31
-30
-28
-26
-24
-22
-19
-16
-12
-7
-2
2
9
15
19
23
30
42
53
62
69
77
85
93
103
117
133
147
160
173
185
198
206
212
214
212
207
198
184
169
155
132
110
88
64
40
15
0
-15
-30
-43
-58
-67
-72
-75
-78
-81
-84
-86
-88
-89
-91
-92
-93
-94
-95
-95
-95
-95
-95
-95
-95
-94
-94
-93
-93
-92
-90
-89
-87
-84
-82
-77
-72
-68
-64
-62
-60
-59
-58
-56
-55
-54
-53
-51
-50
-49
-48
-47
-47
-47
-47
-48
-48
-48
-48
-48
-49
-49
-49
-50
-50
-51
-51
-52
-52
-53
-53
-54
-54
-55
-55
-56
-56
-57
-58
-61
-64
-63
-59
-52
-45
-37
-30
-25
-20
-16
-12
-12
-16
-21
-27
-34
-41
-46
-55
-69
-83
-92
-100
-107
-114
-119
-125
-128
-131
-133
-136
-138
-140
-142
-145
-150
-156
-146
-117
-58
37
177
356
544
696
756
687
488
208
-78
-299
-391
-398
-342
-264
-208
-186
-179
-173
-169
-165
-161
-158
-157
-158
-160
-162
-164
-166
-167
-164
-158
-151
-145
-141
-136
-131
-127
-123
-120
-117
-114
-111
-107
-102
-96
-90
-85
-80
-76
-72
-68
-65
-63
-61
-58
-53
-49
-44
-39
-29
-15
0
15
28
37
46
57
71
85
100
116
131
143
153
163
171
177
181
181
177
171
160
142
124
105
84
66
40
15
-11
-28
-48
-67
-80
-89
-94
-97
-98
-99
-100
-101
-102
-102
-103
-103
-103
-102
-101
-99
-96
-93
-90
-88
-85
-83
-81
-79
-76
-73
-71
-69
-67
-65
-63
-61
-59
-56
-52
-43
-34
-26
-18
-16
-15
-15
-15
-14
-14
-14
-14
-14
-13
-13
-12
-11
-9
-8
-6
-4
-1
0
2
4
7
10
12
15
17
19
21
23
25
27
29
32
36
42
48
54
58
62
66
70
74
78
82
88
97
105
112
119
124
127
131
136
135
126
116
106
98
90
82
75
72
70
68
66
65
64
64
64
65
66
69
72
76
90
124
180
261
369
504
652
786
845
834
720
499
233
-6
-165
-219
-181
-101
-24
25
49
65
74
78
81
83
85
88
90
92
94
96
97
98
100
100
100
101
101
103
104
106
108
109
110
111
112
113
115
117
119
123
129
136
141
146
151
156
161
166
170
174
178
182
187
193
200
209
216
222
232
246
258
272
284
293
304
311
316
320
323
323
321
316
310
299
282
257
230
201
173
146
117
95
73
57
47
39
33
28
21
16
13
12
10
8
6
5
4
3
2
1
0
0
1
2
4
6
8
11
14
17
20
23
25
27
29
31
33
36
38
40
42
43
45
47
48
49
50
50
50
50
50
49
47
45
44
42
40
38
35
33
31
29
27
25
23
21
19
17
15
13
12
11
11
12
14
16
19
22
25
28
32
36
40
44
47
50
51
52
53
54
54
55
56
57
58
59
57
51
44
35
22
5
-2
-8
-13
-18
-21
-23
-25
-25
-25
-25
-24
-22
-19
-15
-10
-3
24
80
165
282
422
564
673
705
630
452
209
-36
-224
-299
-304
-256
-186
-127
-89
-66
-56
-53
-51
-49
-48
-47
-46
-45
-44
-43
-42
-41
-40
-39
-38
-37
-37
-36
-36
-35
-34
-32
-30
-27
-23
-18
-12
-7
-2
3
8
13
17
22
26
30
32
35
37
40
43
46
50
54
60
67
80
102
119
132
146
160
173
186
193
198
202
206
208
208
207
205
200
193
185
168
140
118
95
72
49
25
5
-7
-14
-20
-27
-34
-41
-50
-58
-64
-72
-80
-82
-83
-85
-86
-86
-86
-83
-81
-80
-79
-79
-78
-76
-75
-74
-73
-72
-71
-69
-68
-66
-65
-64
-62
-59
-55
-52
-51
-49
-47
-45
-44
-42
-40
-39
-38
-36
-34
-33
-31
-30
-30
-30
-29
-29
-29
-28
-28
-27
-27
-26
-25
-24
-23
-22
-22
-22
-22
-21
-20
-19
-17
-15
-11
-1
7
17
27
37
44
49
53
55
54
51
47
43
39
35
31
27
24
19
13
6
-3
-9
-13
-17
-20
-22
-24
-24
-24
-23
-22
-21
-19
-16
-5
29
86
168
282
422
567
681
718
646
466
218
-36
-231
-305
-306
-240
-158
-117
-107
-100
-95
-92
-90
-88
-86
-84
-82
-81
-80
-78
-78
-77
-75
-74
-72
-71
-69
-68
-67
-65
-64
-63
-62
-60
-59
-58
-57
-55
-53
-51
-49
-47
-45
-43
-39
-35
-31
-28
-25
-21
-14
-1
13
27
40
54
66
75
87
97
105
112
118
125
133
143
154
164
169
173
176
178
174
165
150
133
108
83
56
29
4
-22
-40
-61
-82
-94
-100
-104
-108
-110
-113
-115
-117
-118
-120
-121
-123
-124
-125
-126
-126
-127
-128
-129
-130
-132
-135
-137
-137
-133
-126
-118
-108
-99
-94
-91
-88
-85
-83
-81
-79
-77
-76
-74
-72
-70
-69
-67
-65
-63
-61
-60
-59
-58
-58
-58
-58
-58
-58
-58
-58
-58
-56
-54
-53
-53
-53
-53
-53
-53
-53
-54
-54
-54
-54
-53
-51
-48
-45
-42
-36
-31
-26
-19
-12
-6
-1
1
4
4
0
-3
-7
-12
-17
-23
-31
-38
-46
-52
-56
-60
-66
-75
-79
-81
-83
-84
-85
-85
-84
-81
-78
-73
-55
-23
32
119
245
403
567
696
739
664
472
208
-58
-259
-337
-342
-283
-207
-150
-133
-129
-126
-124
-123
-121
-119
-117
-115
-114
-112
-111
-111
-111
-111
-111
-111
-110
-108
-107
-105
-104
-102
-101
-100
-99
-97
-95
-91
-82
-72
-66
-63
-61
-59
-57
-54
-52
-50
-48
-46
-44
-40
-33
-24
-13
0
13
25
37
51
66
82
99
112
120
125
131
138
144
150
153
154
151
146
139
126
113
100
75
52
28
13
-11
-35
-59
-74
-86
-94
-100
-105
-109
-112
-114
-116
-119
-122
-125
-128
-130
-133
-136
-139
-139
-138
-136
-132
-128
-123
-115
-109
-104
-101
-99
-97
-95
-93
-91
-89
-86
-83
-81
-78
-75
-73
-70
-68
-65
-63
-61
-59
-58
-58
-58
-57
-56
-55
-54
-51
-49
-49
-51
-53
-54
-56
-58
-59
-61
-61
-61
-60
-59
-58
-58
-57
-56
-54
-52
-50
-47
-43
-40
-36
-31
-26
-21
-16
-11
-7
-2
1
4
7
8
8
9
10
12
13
14
12
7
1
-4
-10
-16
-22
-28
-33
-36
-39
-42
-44
-45
-45
-46
-46
-47
-49
-51
-41
-9
44
129
252
411
582
729
802
761
597
344
66
-163
-280
-294
-250
-166
-99
-76
-72
-69
-66
-65
-63
-62
-60
-57
-55
-54
-52
-52
-51
-51
-49
-48
-46
-44
-41
-39
-36
-34
-32
-30
-29
-27
-25
-23
-21
-19
-16
-14
-10
-8
-5
-2
1
8
19
26
33
38
44
50
60
73
84
92
100
109
123
141
157
170
180
187
197
212
223
229
233
235
234
230
225
216
202
178
150
122
106
90
72
54
34
11
-10
-27
-39
-49
-55
-59
-61
-63
-65
-66
-68
-69
-70
-71
-72
-76
-79
-79
-76
-73
-70
-69
-68
-67
-65
-63
-61
-58
-56
-54
-51
-49
-47
-44
-42
-40
-37
-35
-32
-30
-28
-27
-26
-25
-25
-25
-24
-24
-24
-25
-25
-25
-25
-24
-25
-25
-25
-26
-26
-25
-25
-25
-25
-25
-25
-24
-23
-22
-21
-20
-19
-18
-17
-15
-13
-12
-9
-5
0
4
8
12
16
21
26
31
34
36
37
39
41
43
39
32
23
12
0
-12
-25
-35
-41
-44
-47
-49
-51
-52
-54
-55
-56
-57
-58
-60
-65
-55
-26
26
107
224
372
536
686
763
758
650
417
133
-124
-291
-337
-285
-194
-112
-75
-66
-60
-56
-53
-50
-47
-46
-44
-43
-42
-41
-40
-40
-40
-39
-39
-37
-35
-33
-31
-30
-29
-27
-25
-22
-19
-15
-11
-4
3
9
13
16
19
21
23
26
29
32
35
38
41
45
50
55
60
65
71
83
100
114
129
142
157
171
181
194
201
207
212
215
215
213
209
205
196
183
163
137
105
72
42
25
7
-8
-24
-41
-53
-59
-63
-68
-74
-79
-82
-85
-87
-89
-92
-94
-96
-97
-97
-97
-98
-98
-99
-98
-98
-97
-97
-98
-99
-99
-96
-89
-83
-80
-77
-75
-73
-70
-67
-65
-63
-61
-59
-57
-56
-55
-55
-55
-55
-55
-54
-54
-54
-53
-52
-51
-50
-49
-49
-49
-50
-51
-51
-52
-53
-54
-55
-56
-56
-56
-57
-57
-58
-58
-58
-58
-58
-57
-56
-54
-51
-47
-43
-39
-34
-26
-19
-14
-11
-6
-2
0
-4
-14
-28
-49
-63
-71
-77
-82
-86
-89
-92
-94
-96
-98
-98
-99
-98
-97
-96
-93
-89
-83
-60
-10
66
173
307
451
575
639
609
474
254
3
-215
-348
-377
-326
-245
-172
-134
-122
-115
-108
-102
-98
-95
-93
-91
-89
-86
-84
-81
-79
-77
-75
-73
-70
-65
-59
-55
-52
-50
-49
-47
-46
-45
-44
-43
-41
-40
-38
-36
-34
-33
-31
-28
-25
-20
-15
-10
-6
0
10
30
45
56
67
76
84
93
103
114
128
137
145
154
165
180
198
209
216
220
221
219
214
205
192
168
143
118
92
69
47
28
13
-1
-13
-26
-35
-40
-44
-48
-51
-53
-55
-56
-58
-59
-60
-60
-60
-59
-58
-57
-55
-53
-51
-46
-38
-29
-18
-7
-2
0
2
5
9
13
16
19
21
23
25
27
29
31
33
36
38
41
43
47
52
63
69
72
72
73
73
74
74
75
76
77
77
77
77
77
77
77
77
78
78
78
78
79
80
82
83
85
86
88
92
101
109
120
131
136
139
141
142
141
137
132
125
116
107
100
96
91
85
80
73
64
59
56
55
53
52
51
51
52
54
58
63
83
128
205
319
467
626
764
838
811
671
439
167
-70
-218
-252
-199
-112
-36
-8
-1
3
6
9
11
14
16
18
19
20
21
21
22
22
23
24
24
25
25
25
26
26
27
27
28
29
30
30
31
32
33
34
36
37
39
42
45
49
52
55
57
59
63
68
77
86
97
111
125
139
150
159
169
181
195
205
211
216
221
226
231
233
230
223
213
197
182
168
146
123
98
74
51
37
23
8
-6
-22
-37
-51
-59
-63
-66
-69
-72
-74
-77
-79
-81
-84
-86
-89
-90
-90
-88
-86
-83
-81
-78
-76
-74
-72
-69
-68
-66
-64
-62
-60
-57
-56
-54
-53
-51
-49
-47
-45
-44
-43
-42
-41
-40
-39
-38
-37
-36
-35
-34
-33
-32
-31
-30
-30
-30
-30
-30
-30
-30
-30
-30
-30
-31
-31
-31
-31
-31
-31
-32
-32
-32
-33
-32
-31
-29
-26
-22
-18
-13
-3
5
17
31
38
42
45
47
47
45
41
36
29
18
6
-2
-9
-15
-20
-24
-27
-30
-32
-34
-36
-38
-40
-43
-46
-50
-57
-57
-49
-24
27
111
229
379
546
693
777
755
610
366
81
-166
-315
-348
-293
-201
-123
-89
-79
-72
-69
-69
-71
-74
-76
-78
-80
-82
-84
-86
-86
-85
-83
-80
-76
-72
-67
-61
-55
-49
-46
-43
-41
-40
-39
-38
-37
-36
-35
-33
-32
-31
-30
-30
-28
-27
-25
-23
-18
-8
0
10
20
29
39
48
59
69
77
84
92
104
121
139
156
168
176
179
180
181
182
181
171
156
138
121
105
79
52
24
7
-8
-24
-39
-54
-71
-86
-95
-100
-103
-106
-108
-110
-111
-112
-113
-114
-114
-115
-115
-115
-115
-114
-112
-110
-107
-105
-102
-100
-98
-97
-94
-92
-89
-86
-83
-81
-79
-77
-76
-73
-71
-69
-64
-60
-57
-54
-51
-48
-47
-48
-50
-51
-53
-54
-56
-57
-58
-59
-58
-57
-55
-53
-52
-50
-48
-47
-45
-44
-44
-44
-45
-46
-47
-49
-51
-52
-54
-55
-56
-58
-59
-59
-58
-57
-56
-54
-52
-50
-46
-41
-36
-30
-25
-20
-14
-9
-5
0
6
15
22
27
32
35
34
30
24
15
0
-16
-31
-41
-49
-57
-61
-64
-66
-68
-70
-71
-71
-71
-70
-67
-64
-59
-53
-27
24
107
226
380
552
707
797
776
625
371
83
-161
-304
-328
-270
-186
-117
-94
-90
-86
-84
-82
-81
-80
-78
-77
-75
-73
-72
-71
-71
-70
-69
-67
-63
-60
-58
-56
-55
-53
-52
-51
-50
-49
-48
-47
-46
-44
-42
-39
-33
-21
-12
-4
4
10
14
18
21
24
28
31
35
41
47
54
66
84
104
122
137
147
154
162
176
187
195
198
199
200
201
201
199
191
169
145
119
97
74
57
37
19
2
-12
-25
-39
-53
-69
-80
-87
-91
-91
-91
-91
-91
-91
-91
-91
-91
-91
-92
-92
-92
-92
-91
-90
-89
-88
-86
-85
-84
-83
-81
-79
-77
-73
-70
-65
-60
-55
-49
-40
-35
-34
-34
-34
-34
-34
-33
-33
-32
-32
-31
-31
-31
-31
-32
-33
-33
-34
-34
-34
-35
-35
-35
-35
-34
-34
-34
-34
-35
-36
-36
-36
-37
-37
-38
-39
-40
-40
-39
-40
-43
-37
-32
-29
-27
-24
-21
-19
-17
-15
-12
-8
-4
2
10
16
22
27
31
33
32
29
24
19
12
1
-7
-14
-21
-29
-38
-43
-47
-51
-54
-56
-57
-57
-57
-57
-56
-54
-52
-49
-36
3
66
159
286
438
588
698
723
636
441
180
-79
-273
-345
-347
-285
-211
-152
-117
-99
-84
-75
-74
-73
-73
-72
-71
-70
-67
-63
-61
-59
-57
-56
-55
-54
-52
-50
-48
-46
-44
-42
-40
-39
-37
-36
-34
-32
-30
-28
-27
-25
-23
-21
-19
-14
-4
4
11
17
24
31
40
50
61
70
78
85
90
100
114
129
144
157
173
182
188
191
193
193
191
187
182
172
154
135
116
97
80
56
31
5
-19
-35
-47
-57
-67
-78
-88
-96
-103
-108
-112
-115
-117
-118
-120
-121
-122
-123
-124
-123
-121
-119
-115
-112
-108
-102
-96
-90
-84
-80
-76
-73
-70
-67
-64
-61
-58
-55
-50
-46
-42
-38
-36
-35
-34
-33
-33
-32
-31
-30
-29
-28
-27
-26
-26
-25
-25
-25
-25
-24
-24
-23
-23
-22
-21
-20
-19
-18
-17
-16
-15
-15
-14
-13
-12
-11
-10
-9
-7
-5
-3
-1
2
6
10
13
16
18
21
26
33
44
51
56
60
62
63
62
59
55
49
39
20
9
2
-2
-7
-11
-14
-18
-22
-25
-28
-29
-31
-32
-34
-38
-30
-5
36
100
193
319
468
616
713
718
643
437
168
-89
-269
-335
-299
-213
-127
-69
-47
-43
-39
-37
-35
-33
-32
-30
-28
-27
-25
-24
-23
-21
-20
-18
-17
-15
-13
-12
-11
-9
-8
-6
-4
-2
0
2
6
10
13
17
20
24
27
32
37
43
50
56
64
71
76
81
88
97
106
116
125
133
143
156
170
185
199
209
216
223
230
236
241
245
245
237
226
213
201
188
173
157
128
99
82
64
47
32
15
-4
-22
-33
-40
-44
-47
-50
-51
-52
-54
-55
-57
-58
-59
-60
-61
-61
-61
-61
-59
-58
-56
-55
-53
-51
-49
-47
-45
-43
-39
-34
-29
-24
-19
-15
-11
-9
-7
-5
-4
-2
-1
-1
-1
0
0
0
0
-1
-1
-1
-1
0
0
0
1
1
1
1
1
1
1
1
0
0
0
1
2
3
4
5
7
8
10
11
13
14
16
22
29
36
44
50
57
63
66
68
69
70
71
74
72
62
53
46
39
31
24
19
14
9
5
1
0
-2
-4
-6
-9
-12
-16
-17
-16
-11
-3
20
76
162
285
441
607
743
801
747
576
323
52
-165
-276
-291
-255
-180
-119
-83
-70
-60
-46
-31
-21
-15
-12
-16
-25
-31
-36
-41
-45
-46
-45
-41
-36
-32
-30
-29
-27
-25
-23
-21
-19
-17
-16
-14
-12
-10
-9
-8
-7
-6
-5
-3
-1
1
5
14
22
28
34
40
47
54
66
83
98
109
120
133
149
165
183
196
203
209
214
219
225
232
232
223
209
189
168
147
127
104
79
56
34
15
1
-8
-19
-34
-52
-60
-63
-65
-68
-69
-71
-73
-74
-75
-76
-77
-78
-79
-80
-80
-81
-82
-83
-85
-86
-86
-84
-80
-76
-72
-68
-64
-60
-56
-52
-48
-44
-41
-38
-35
-32
-30
-28
-26
-25
-24
-23
-23
-23
-24
-25
-27
-28
-28
-29
-30
-31
-32
-33
-34
-35
-36
-38
-39
-40
-40
-40
-40
-39
-38
-36
-34
-32
-31
-29
-28
-27
-26
-24
-22
-20
-18
-15
-12
-9
-5
1
11
18
22
24
27
29
32
32
31
28
24
18
11
0
-8
-16
-25
-39
-46
-51
-55
-59
-61
-63
-63
-63
-62
-60
-56
-52
-46
-20
33
122
252
417
590
730
784
719
535
268
-8
-222
-309
-314
-255
-176
-120
-101
-97
-94
-92
-90
-89
-88
-87
-86
-85
-84
-82
-82
-81
-80
-79
-78
-76
-75
-73
-72
-70
-68
-66
-64
-62
-61
-59
-57
-54
-52
-49
-47
-44
-40
-36
-31
-26
-21
-16
-9
-2
5
11
17
25
35
42
48
54
61
69
82
98
114
130
143
153
164
172
178
183
185
183
179
173
163
146
131
113
93
71
47
24
2
-17
-34
-53
-67
-76
-84
-90
-94
-96
-98
-100
-101
-102
-103
-103
-103
-103
-103
-104
-103
-103
-103
-102
-102
-101
-100
-99
-97
-95
-92
-89
-85
-81
-76
-71
-65
-58
-51
-49
-47
-45
-43
-41
-40
-38
-37
-36
-35
-34
-33
-33
-33
-33
-33
-34
-33
-33
-33
-33
-33
-33
-33
-33
-33
-33
-34
-34
-34
-34
-34
-33
-33
-33
-33
-33
-32
-31
-30
-29
-28
-26
-24
-22
-19
-16
-13
-10
-7
-4
0
4
12
26
34
38
42
45
47
49
50
49
47
43
38
33
25
10
-1
-8
-13
-17
-20
-23
-26
-29
-32
-34
-36
-40
-44
-48
-49
-47
-40
-28
7
80
193
347
526
696
793
792
692
453
157
-114
-296
-361
-322
-233
-144
-82
-66
-65
-64
-63
-63
-63
-62
-62
-62
-61
-61
-60
-59
-59
-58
-57
-56
-54
-52
-50
-48
-46
-43
-38
-33
-29
-25
-21
-17
-14
-12
-9
-7
-5
-2
0
3
7
11
16
23
36
46
54
64
75
88
98
106
114
121
128
138
150
162
175
188
199
206
211
214
217
217
214
210
203
191
170
150
128
104
81
59
37
17
-3
-21
-34
-45
-53
-59
-64
-69
-74
-78
-81
-83
-84
-86
-87
-89
-90
-91
-92
-92
-93
-93
-92
-91
-90
-88
-86
-84
-81
-79
-77
-74
-71
-67
-63
-59
-55
-52
-48
-45
-43
-41
-40
-39
-39
-39
-39
-39
-39
-39
-39
-39
-39
-38
-38
-38
-39
-39
-40
-40
-41
-41
-42
-42
-43
-43
-42
-42
-41
-40
-39
-39
-38
-37
-35
-34
-34
-33
-32
-31
-29
-27
-23
-19
-14
-10
-6
-2
2
7
12
18
25
31
38
43
45
46
46
47
48
46
36
26
14
3
-7
-19
-32
-39
-44
-48
-51
-53
-54
-55
-55
-55
-55
-56
-57
-58
-46
-12
49
145
277
440
607
740
793
731
549
285
6
-215
-316
-324
-267
-175
-106
-85
-80
-77
-75
-74
-72
-71
-68
-65
-63
-61
-59
-57
-56
-54
-53
-51
-49
-47
-45
-43
-41
-38
-36
-34
-32
-29
-27
-25
-23
-20
-17
-14
-10
-7
-4
-2
-1
0
3
6
9
14
19
26
39
57
70
79
86
92
101
115
129
144
157
166
177
191
203
209
212
214
214
211
204
194
177
158
136
110
87
66
45
26
6
-14
-33
-46
-53
-60
-67
-73
-76
-78
-80
-81
-83
-85
-86
-87
-87
-88
-88
-88
-88
-87
-86
-84
-82
-81
-80
-78
-76
-74
-70
-62
-56
-53
-52
-50
-48
-47
-45
-44
-42
-40
-38
-36
-34
-33
-32
-30
-28
-26
-24
-23
-21
-20
-19
-18
-18
-20
-21
-23
-25
-27
-28
-30
-32
-33
-34
-36
-38
-41
-44
-46
-46
-46
-45
-43
-42
-40
-39
-37
-35
-33
-30
-28
-26
-24
-22
-19
-15
-11
-5
0
4
8
12
16
20
24
28
31
35
39
42
42
40
36
31
25
13
-3
-18
-32
-40
-43
-46
-48
-50
-51
-52
-52
-51
-50
-48
-45
-41
-35
-13
39
123
247
408
580
725
793
746
579
325
48
-179
-310
-333
-274
-189
-116
-85
-80
-76
-73
-71
-70
-69
-68
-67
-66
-64
-61
-60
-60
-59
-59
-58
-57
-55
-53
-51
-48
-45
-41
-37
-34
-31
-27
-24
-21
-17
-14
-11
-9
-8
-7
-5
-3
-2
0
2
5
9
15
27
44
55
64
74
87
103
119
135
147
157
167
182
198
206
211
215
216
216
214
209
202
189
169
150
132
114
98
72
47
20
4
-12
-27
-41
-57
-73
-83
-86
-87
-87
-87
-88
-88
-89
-89
-89
-90
-91
-91
-91
-90
-90
-89
-88
-87
-86
-84
-83
-81
-80
-79
-78
-76
-72
-67
-63
-59
-55
-51
-48
-45
-42
-40
-37
-35
-34
-32
-30
-29
-28
-27
-26
-25
-24
-23
-22
-22
-22
-22
-22
-22
-22
-23
-24
-24
-25
-26
-26
-26
-26
-26
-27
-27
-27
-27
-27
-27
-26
-26
-26
-25
-24
-23
-22
-20
-18
-16
-10
-3
3
11
17
25
31
36
40
46
52
54
55
56
57
56
47
38
30
22
14
4
-6
-12
-15
-18
-20
-21
-22
-23
-23
-23
-23
-22
-20
-16
-13
-8
10
54
125
229
364
515
656
733
730
637
424
156
-97
-275
-344
-311
-226
-139
-78
-51
-45
-41
-38
-36
-33
-31
-29
-28
-26
-24
-22
-21
-20
-20
-19
-18
-17
-16
-15
-13
-12
-11
-10
-9
-7
-5
-3
-1
0
3
5
8
12
16
20
24
28
34
41
48
56
70
87
99
106
113
120
127
136
146
155
165
174
184
200
216
227
235
240
244
247
248
246
240
232
218
197
177
156
133
110
86
65
46
28
16
6
-3
-12
-20
-28
-36
-39
-42
-44
-45
-47
-48
-49
-50
-51
-52
-53
-53
-54
-53
-53
-52
-51
-50
-48
-46
-43
-41
-39
-37
-34
-27
-20
-13
-10
-8
-6
-4
-3
-1
0
0
0
0
0
-1
-1
-2
-3
-4
-5
-6
-7
-7
-8
-9
-10
-10
-11
-11
-11
-11
-11
-11
-10
-10
-9
-8
-8
-8
-7
-7
-6
-5
-4
-3
-1
0
1
3
5
8
13
19
25
31
35
39
43
45
47
47
45
42
38
33
28
21
14
7
1
-7
-19
-30
-36
-41
-44
-47
-48
-49
-48
-47
-44
-40
-35
-27
-8
28
89
179
296
431
560
638
637
558
361
111
-128
-294
-355
-324
-249
-172
-123
-102
-94
-90
-86
-83
-79
-74
-70
-69
-67
-66
-65
-64
-63
-62
-61
-60
-59
-58
-56
-55
-54
-54
-54
-53
-53
-52
-51
-50
-48
-46
-43
-39
-36
-32
-29
-26
-23
-20
-16
-12
-7
-3
2
9
20
29
38
47
57
66
73
80
86
93
102
113
124
135
141
146
150
152
149
141
130
114
99
81
62
42
22
1
-18
-37
-53
-70
-82
-90
-97
-104
-107
-109
-111
-113
-114
-116
-116
-117
-118
-118
-118
-118
-117
-116
-114
-113
-112
-110
-108
-106
-103
-98
-92
-87
-81
-76
-71
-66
-61
-55
-50
-45
-38
-33
-31
-30
-29
-28
-27
-26
-25
-25
-26
-27
-30
-32
-33
-36
-38
-40
-42
-40
-37
-33
-29
-26
-24
-22
-19
-17
-15
-13
-11
-10
-8
-6
-5
-3
-2
0
1
5
9
18
24
29
32
36
38
40
39
36
31
27
22
18
12
7
1
-3
-7
-10
-13
-16
-19
-20
-21
-20
-19
-17
-15
-12
-8
8
52
121
220
345
479
599
653
645
548
358
131
-73
-209
-257
-230
-171
-114
-79
-69
-61
-55
-47
-37
-24
-18
-13
-10
-7
-4
-3
-2
-2
-1
-1
-1
0
0
0
0
-1
-1
-1
0
0
0
0
1
1
2
3
3
5
6
8
10
14
20
28
35
43
51
58
62
66
70
74
79
86
92
99
105
110
115
123
139
149
155
159
161
162
161
157
152
144
130
105
82
60
37
16
-3
-21
-32
-40
-47
-54
-61
-70
-81
-88
-92
-96
-99
-101
-102
-102
-103
-103
-103
-103
-103
-103
-103
-103
-104
-104
-104
-103
-103
-103
-103
-102
-100
-97
-94
-90
-87
-83
-79
-73
-67
-63
-62
-63
-63
-63
-64
-64
-64
-64
-63
-63
-64
-64
-64
-65
-66
-67
-68
-69
-70
-70
-71
-70
-69
-68
-66
-65
-63
-61
-59
-57
-56
-54
-53
-51
-48
-45
-42
-40
-40
-41
-42
-44
-47
-51
-57
-68
-80
-86
-91
-94
-97
-99
-101
-103
-105
-106
-107
-109
-112
-117
-117
-110
-90
-46
20
112
229
362
488
560
560
486
309
85
-121
-255
-294
-252
-178
-116
-90
-84
-80
-74
-67
-62
-59
-57
-55
-53
-52
-51
-50
-50
-49
-48
-45
-43
-42
-40
-39
-38
-37
-36
-35
-34
-33
-31
-29
-27
-24
-21
-19
-17
-15
-13
-11
-9
-8
-6
-4
0
3
6
9
13
17
22
30
39
50
62
73
82
92
103
114
123
126
127
128
128
129
129
127
122
114
101
81
64
47
30
12
-1
-12
-23
-30
-35
-39
-41
-43
-45
-46
-47
-49
-50
-51
-52
-53
-54
-54
-53
-51
-48
-44
-40
-37
-33
-29
-25
-22
-19
-16
-13
-11
-7
-4
-1
1
4
6
9
12
16
19
23
26
29
32
35
38
41
43
46
48
50
53
55
57
58
59
60
61
62
62
63
64
65
66
68
70
71
73
75
78
82
90
94
97
99
101
103
103
100
94
84
69
58
52
47
45
43
40
38
37
39
42
45
47
50
52
55
56
60
71
101
155
236
343
464
578
629
621
526
345
135
-46
-154
-179
-140
-74
-14
16
25
31
35
40
46
45
38
31
25
21
24
30
36
43
48
51
54
55
56
57
60
62
65
67
69
71
72
74
75
76
76
75
74
74
73
71
68
76
84
88
92
96
100
104
109
117
126
133
138
143
148
153
159
167
177
182
186
189
192
192
191
189
185
181
175
164
156
144
128
113
97
82
69
57
45
33
18
2
-6
-8
-8
-9
-10
-10
-11
-11
-12
-13
-15
-18
-21
-28
-38
-43
-47
-46
-37
-28
-18
-12
-9
-6
-5
-4
-4
-6
-7
-9
-11
-13
-15
-15
-15
-15
-14
-14
-14
-13
-12
-11
-10
-9
-10
-11
-12
-13
-14
-15
-16
-17
-18
-18
-18
-18
-18
-18
-18
-18
-18
-18
-19
-19
-20
-20
-21
-22
-22
-23
-24
-26
-28
-34
-47
-56
-60
-64
-68
-72
-76
-80
-84
-88
-91
-94
-98
-101
-106
-109
-107
-103
-90
-64
-19
52
157
286
415
508
530
458
295
78
-135
-289
-338
-335
-274
-207
-167
-152
-145
-142
-140
-138
-137
-136
-134
-133
-133
-133
-132
-132
-131
-131
-131
-130
-128
-135
-139
-140
-142
-144
-145
-145
-145
-145
-145
-144
-143
-142
-140
-139
-137
-136
-135
-134
-132
-130
-128
-127
-125
-124
-123
-122
-120
-118
-113
-102
-91
-79
-68
-60
-50
-44
-40
-36
-34
-34
-35
-38
-42
-47
-55
-62
-70
-83
-99
-115
-133
-149
-164
-178
-193
-207
-221
-235
-248
-261
-267
-269
-272
-274
-275
-277
-278
-279
-280
-280
-280
-280
-279
-277
-275
-272
-270
-268
-266
-264
-262
-261
-259
-258
-255
-253
-250
-248
-245
-243
-241
-240
-238
-237
-235
-233
-230
-222
-213
-210
-208
-207
-206
-205
-204
-202
-200
-199
-197
-196
-194
-192
-191
-189
-187
-184
-180
-176
-174
-171
-168
-165
-161
-158
-153
-149
-143
-133
-117
-106
-99
-95
-90
-86
-84
-83
-81
-80
-79
-78
-77
-76
-75
-74
-73
-73
-72
-72
-71
-70
-70
-68
-67
-65
-62
-57
-53
-49
-35
-7
36
101
195
316
457
593
675
678
610
435
213
1
-148
-209
-185
-111
-31
25
53
63
74
83
91
97
102
107
114
122
130
139
148
156
163
169
174
179
184
189
195
201
209
218
226
232
238
242
247
251
255
259
265
271
277
284
291
300
310
319
328
336
343
352
364
378
393
406
416
425
436
451
464
473
482
490
499
509
520
529
530
531
531
530
522
509
493
477
459
439
420
405
393
383
372
356
343
334
326
318
310
301
295
291
288
285
284
283
282
281
281
280
279
278
277
277
277
276
276
275
275
274
274
274
274
273
272
271
270
271
272
275
277
280
282
285
289
291
293
293
291
288
285
282
279
276
273
269
266
264
262
260
258
256
254
252
250
249
248
246
245
243
241
239
238
236
234
232
230
228
226
223
220
218
215
213
210
207
204
201
200
202
204
208
211
215
218
222
225
226
225
223
220
216
207
191
174
159
147
135
123
109
95
86
79
75
71
68
63
58
52
47
44
46
51
66
109
181
281
411
558
694
761
755
657
451
203
-19
-169
-209
-206
-148
-91
-66
-61
-58
-54
-52
-51
-50
-49
-49
-49
-50
-51
-54
-57
-60
-63
-69
-80
-89
-95
-100
-103
-105
-107
-108
-109
-110
-111
-112
-113
-113
-114
-115
-116
-116
-117
-118
-119
-120
-121
-124
-128
-128
-120
-112
-103
-95
-86
-74
-63
-49
-37
-30
-23
-17
-11
-5
0
3
6
9
11
12
12
10
6
1
-8
-25
-42
-57
-79
-101
-125
-141
-156
-168
-183
-194
-201
-207
-211
-213
-216
-217
-219
-221
-222
-223
-223
-224
-224
-224
-223
-221
-219
-216
-214
-212
-211
-209
-208
-206
-205
-203
-201
-198
-196
-193
-190
-187
-185
-183
-181
-178
-176
-175
-173
-171
-168
-166
-164
-163
-161
-160
-159
-158
-158
-158
-158
-158
-157
-157
-156
-156
-156
-156
-155
-154
-154
-153
-153
-153
-153
-152
-152
-152
-152
-152
-152
-152
-151
-150
-149
-148
-147
-147
-146
-146
-145
-144
-142
-141
-139
-137
-135
-132
-130
-125
-120
-116
-113
-110
-107
-103
-100
-97
-94
-90
-86
-82
-79
-75
-72
-68
-65
-64
-64
-65
-68
-72
-78
-85
-98
-109
-124
-143
-154
-160
-165
-170
-174
-178
-182
-186
-191
-195
-198
-200
-201
-205
-201
-177
-131
-61
41
178
338
490
569
563
454
225
-46
-286
-434
-471
-421
-341
-276
-262
-259
-257
-255
-254
-252
-251
-248
-246
-244
-243
-242
-239
-237
-234
-231
-229
-226
-223
-220
-218
-215
-212
-209
-206
-203
-200
-197
-194
-191
-189
-186
-184
-181
-178
-175
-171
-165
-159
-152
-142
-133
-125
-117
-109
-101
-94
-88
-83
-77
-69
-61
-50
-36
-25
-14
-4
3
8
12
15
17
17
16
14
10
4
-5
-23
-42
-63
-85
-107
-129
-149
-169
-187
-201
-212
-223
-230
-234
-238
-241
-244
-247
-251
-253
-255
-257
-259
-260
-262
-263
-264
-265
-266
-267
-268
-268
-267
-267
-266
-264
-263
-261
-260
-258
-256
-255
-253
-251
-248
-244
-241
-238
-234
-231
-228
-226
-224
-224
-223
-223
-222
-221
-220
-219
-217
-216
-216
-215
-214
-214
-213
-213
-212
-212
-212
-211
-210
-208
-206
-205
-203
-202
-200
-196
-187
-181
-178
-177
-176
-176
-175
-175
-174
-173
-171
-170
-169
-168
-167
-165
-163
-161
-158
-155
-149
-142
-136
-130
-125
-119
-113
-108
-104
-100
-96
-90
-83
-76
-67
-52
-35
-23
-13
-3
3
8
11
13
12
9
6
1
-3
-11
-14
-16
-17
-19
-21
-22
-21
-19
-15
-13
-11
-9
-6
-2
0
3
9
30
74
142
239
369
525
686
815
864
803
632
387
134
-63
-147
-152
-97
-20
31
50
57
64
81
91
98
103
107
110
113
116
118
120
124
130
139
147
153
157
162
170
178
187
197
205
213
218
222
225
228
232
235
237
240
248
265
278
284
288
293
297
301
307
316
325
338
353
369
384
400
417
429
436
442
447
453
460
470
482
495
507
516
523
529
531
528
521
510
496
473
447
418
398
374
353
336
316
301
293
287
280
274
269
264
259
256
251
247
244
242
241
239
238
237
236
235
234
234
234
233
233
233
233
233
234
234
235
235
236
237
238
239
239
240
241
241
241
241
242
243
245
245
245
245
245
245
244
242
241
241
242
242
242
240
239
237
235
234
233
231
229
226
223
213
205
196
191
188
187
185
184
183
181
179
177
176
175
174
172
170
168
166
164
160
156
153
149
145
139
135
131
128
125
123
120
117
115
113
111
110
109
110
113
116
120
123
126
129
132
134
137
141
145
147
147
145
140
134
126
112
99
87
75
62
52
44
37
30
23
15
7
0
-9
-19
-30
-39
-47
-51
-49
-41
-15
32
103
199
325
473
625
730
738
674
472
198
-78
-284
-359
-361
-293
-205
-144
-134
-130
-126
-122
-120
-119
-119
-120
-122
-125
-126
-127
-127
-125
-124
-122
-122
-121
-122
-123
-124
-123
-122
-119
-117
-115
-113
-112
-111
-111
-110
-109
-107
-104
-100
-96
-91
-87
-83
-78
-73
-68
-63
-58
-54
-51
-47
-43
-39
-36
-32
-24
-10
3
16
29
43
56
69
77
83
88
92
92
88
81
69
50
31
10
-14
-38
-60
-82
-99
-113
-127
-141
-156
-171
-181
-189
-194
-197
-199
-200
-201
-203
-205
-208
-209
-210
-209
-208
-206
-204
-203
-200
-199
-197
-195
-192
-190
-188
-184
-179
-174
-168
-163
-158
-154
-149
-146
-143
-139
-135
-131
-127
-124
-121
-120
-118
-115
-112
-109
-107
-105
-104
-103
-102
-99
-97
-95
-95
-96
-97
-98
-97
-95
-92
-89
-87
-86
-87
-89
-92
-96
-99
-101
-104
-106
-107
-104
-99
-93
-89
-86
-84
-81
-80
-79
-79
-79
-80
-80
-79
-77
-73
-69
-64
-60
-56
-52
-50
-48
-46
-44
-42
-41
-40
-38
-34
-28
-22
-14
0
6
10
12
16
19
21
21
18
12
5
-1
-7
-13
-21
-30
-40
-51
-65
-75
-82
-87
-90
-94
-97
-101
-104
-106
-107
-106
-106
-106
-105
-101
-94
-60
20
140
298
477
646
734
730
616
366
66
-200
-365
-409
-359
-268
-187
-140
-121
-112
-110
-110
-112
-113
-113
-112
-111
-111
-112
-114
-117
-118
-119
-117
-114
-110
-106
-102
-99
-95
-90
-85
-80
-75
-71
-66
-63
-60
-59
-57
-55
-53
-51
-48
-44
-35
-23
-12
-4
2
6
9
13
18
26
35
44
51
59
70
85
105
126
146
159
166
170
174
176
179
180
178
174
168
160
144
118
95
69
41
15
-9
-34
-50
-59
-66
-74
-82
-91
-99
-107
-114
-120
-123
-126
-129
-131
-132
-134
-135
-135
-134
-134
-134
-134
-134
-133
-132
-131
-129
-127
-125
-123
-121
-117
-112
-105
-98
-87
-77
-74
-72
-72
-76
-73
-72
-73
-76
-77
-77
-78
-79
-81
-82
-83
-84
-83
-83
-81
-80
-79
-77
-76
-76
-76
-76
-76
-76
-77
-77
-77
-77
-76
-76
-76
-77
-77
-77
-77
-77
-77
-77
-76
-74
-73
-71
-68
-66
-64
-62
-61
-60
-59
-59
-58
-57
-55
-53
-51
-48
-46
-44
-42
-42
-41
-41
-40
-39
-37
-34
-30
-26
-20
-10
0
8
15
19
23
27
30
32
33
32
31
28
23
18
11
1
-9
-22
-31
-40
-46
-50
-52
-53
-54
-56
-58
-60
-62
-62
-61
-57
-49
-38
-8
43
121
234
381
544
690
747
732
597
351
68
-173
-304
-321
-276
-178
-92
-65
-57
-48
-38
-25
-3
28
