-13
-15
-17
-19
-21
-23
-24
-25
-26
-28
-36
-46
-53
-53
-48
-40
-30
-18
2
28
47
62
73
78
76
70
60
50
37
23
10
-6
-26
-43
-60
-76
-91
-96
-99
-101
-103
-105
-106
-107
-107
-107
-107
-107
-106
-105
-105
-104
-104
-104
-104
-104
-105
-105
-106
-107
-108
-109
-110
-112
-114
-120
-124
-117
-103
-87
-68
-53
-45
-40
-35
-31
-27
-23
-19
-15
-11
-7
-4
0
2
5
8
11
14
18
21
24
27
27
27
27
27
28
30
33
36
39
42
46
51
56
62
66
69
72
74
77
79
82
86
88
90
89
88
85
83
81
80
79
77
75
74
74
73
73
72
71
70
69
68
66
66
66
66
68
70
71
71
70
70
70
71
71
70
69
68
67
68
69
70
70
71
71
72
72
73
72
72
72
72
73
73
74
75
76
79
82
84
86
87
89
91
92
94
95
97
100
104
107
110
110
108
105
100
95
89
82
76
70
66
63
60
57
54
51
48
45
42
39
38
37
38
40
43
45
47
49
51
52
53
53
52
52
51
52
52
53
54
54
54
51
44
35
25
12
5
1
-2
-6
-8
-9
-8
-4
2
10
17
26
36
46
57
72
90
107
123
139
158
173
187
194
194
193
192
191
190
190
189
184
177
171
167
164
161
158
157
156
156
156
155
152
150
148
147
147
146
145
142
138
135
132
127
121
114
106
97
90
85
81
78
75
72
69
65
61
57
53
49
46
44
41
38
34
30
25
22
18
15
12
8
4
0
-1
-2
-2
-3
-5
-7
-10
-12
-15
-18
-21
-24
-28
-32
-37
-45
-58
-66
-62
-54
-49
-45
-43
-42
-42
-43
-45
-49
-56
-71
-92
-100
-103
-106
-108
-110
-112
-116
-121
-126
-132
-138
-144
-151
-160
-170
-180
-189
-197
-207
-218
-233
-246
-258
-267
-275
-282
-284
-281
-272
-260
-248
-233
-220
-209
-202
-197
-193
-189
-184
-179
-174
-170
-166
-161
-156
-146
-129
-118
-114
-113
-113
-111
-109
-106
-103
-99
-95
-91
-87
-83
-79
-77
-74
-73
-71
-68
-66
-62
-58
-54
-50
-47
-45
-43
-42
-40
-37
-32
-20
10
75
165
278
399
519
633
727
759
770
743
662
540
394
252
133
40
-33
-75
-90
-96
-86
-71
-63
-58
-54
-50
-47
-43
-39
-35
-32
-29
-26
-22
-19
-16
-11
-5
1
8
16
26
37
52
60
49
30
18
8
0
-6
-8
-7
-3
2
11
30
54
61
64
66
67
67
69
71
74
77
80
83
85
87
90
94
99
108
116
121
125
128
132
135
139
142
146
149
152
157
163
176
199
223
253
280
298
309
315
320
323
327
330
335
339
345
355
393
439
486
511
527
539
539
523
481
430
384
359
336
310
259
198
153
134
115
91
58
29
8
-12
-30
-45
-59
-72
-91
-121
-155
-186
-200
-207
-211
-215
-219
-225
-231
-237
-243
-250
-258
-269
-279
-284
-286
-287
-289
-293
-292
-280
-270
-262
-254
-247
-239
-233
-230
-226
-223
-221
-218
-215
-214
-213
-212
-213
-214
-216
-218
-220
-223
-226
-228
-231
-233
-236
-239
-240
-240
-237
-231
-223
-213
-201
-181
-171
-166
-163
-160
-159
-157
-156
-155
-154
-152
-150
-149
-149
-150
-149
-147
-145
-143
-141
-139
-138
-136
-134
-131
-129
-127
-125
-123
-119
-116
-114
-112
-108
-103
-97
-92
-90
-91
-93
-97
-100
-104
-111
-119
-120
-116
-111
-108
-106
-104
-101
-99
-97
-94
-92
-90
-88
-85
-83
-81
-78
-72
-68
-71
-76
-80
-86
-84
-72
-62
-54
-47
-41
-35
-30
-26
-22
-18
-14
-12
-12
-15
-20
-26
-32
-39
-51
-58
-52
-41
-33
-25
-18
-13
-10
-7
-5
-3
-2
0
1
3
5
7
10
12
14
15
17
18
19
20
21
23
27
31
36
38
38
35
31
26
19
7
7
25
40
53
62
66
68
72
76
75
63
59
57
56
54
53
52
50
49
48
46
44
43
42
42
43
44
45
46
46
46
46
44
42
37
34
38
46
50
54
57
59
62
63
63
60
55
49
43
36
31
25
20
15
12
9
7
7
8
9
12
15
18
20
22
26
31
35
39
40
39
36
33
30
29
28
27
25
22
20
19
18
18
18
19
19
19
19
19
19
19
18
18
17
17
18
18
19
19
19
19
20
19
19
18
16
14
12
11
10
9
7
6
5
3
0
-3
-6
-7
-7
-5
-2
1
5
8
12
17
21
25
27
27
26
25
24
22
20
17
14
12
10
9
8
8
8
8
9
11
13
16
19
23
26
30
42
63
74
82
81
67
46
18
2
-6
-11
-14
-10
-3
5
13
25
33
36
38
41
45
47
43
36
29
22
18
22
31
36
41
45
49
52
51
46
39
32
23
9
1
6
15
20
23
26
29
32
33
35
37
39
40
40
41
41
40
40
41
42
44
45
47
49
52
54
56
57
58
58
57
56
55
56
56
58
59
59
60
61
62
62
62
62
60
58
56
55
53
53
52
52
52
53
54
55
56
55
54
52
51
52
54
58
61
64
69
74
78
78
72
64
57
49
42
40
44
50
57
62
67
73
78
81
83
84
85
86
89
91
93
92
88
82
76
70
62
55
51
53
56
60
63
66
68
69
70
70
70
69
68
66
63
60
56
50
43
40
41
45
52
59
65
70
76
83
89
94
102
131
210
326
467
616
766
895
972
974
908
724
476
213
-9
-152
-186
-182
-120
-57
-16
-2
1
-5
-22
-48
-82
-95
-98
-102
-105
-108
-110
-113
-114
-116
-117
-118
-118
-118
-116
-114
-112
-110
-108
-107
-106
-104
-102
-101
-99
-98
-97
-97
-96
-95
-95
-95
-95
-94
-92
-90
-88
-86
-84
-82
-79
-75
-70
-66
-62
-56
-44
-31
-23
-17
-12
-8
-6
-2
0
5
10
14
19
26
33
43
54
63
73
92
121
151
182
202
212
219
229
238
248
270
301
316
325
331
336
340
342
345
351
359
340
321
309
297
286
275
255
222
162
100
41
-5
-36
-69
-104
-143
-176
-204
-230
-249
-264
-280
-301
-331
-359
-377
-382
-385
-388
-391
-392
-388
-380
-371
-365
-358
-352
-346
-342
-341
-341
-342
-344
-346
-348
-350
-353
-352
-345
-333
-317
-296
-279
-268
-258
-252
-253
-261
-271
-277
-283
-289
-294
-297
-298
-297
-295
-292
-288
-284
-278
-268
-256
-243
-229
-213
-199
-185
-170
-147
-136
-131
-128
-125
-122
-118
-113
-109
-104
-101
-97
-92
-88
-83
-79
-76
-73
-70
-66
-62
-59
-55
-51
-46
-42
-39
-37
-36
-35
-34
-31
-22
-8
-6
-5
-4
-4
-9
-19
-34
-57
-83
-109
-125
-135
-143
-146
-143
-134
-124
-115
-105
-95
-87
-78
-60
-27
-2
9
18
27
34
42
54
69
73
78
82
65
51
41
33
29
27
26
24
21
17
36
66
97
126
152
191
243
307
369
408
420
427
433
437
442
464
519
588
637
655
656
645
615
562
501
469
458
476
532
572
586
575
546
490
466
450
439
455
482
511
541
570
601
632
651
661
669
675
679
682
686
693
701
679
644
613
598
587
575
561
537
507
479
451
431
415
398
387
381
375
369
362
356
351
345
338
331
322
314
305
297
287
272
271
280
295
294
256
205
186
180
176
174
173
171
169
166
162
160
157
152
144
132
110
70
44
31
23
15
7
0
-9
-18
-27
-34
-41
-46
-50
-57
-72
-92
-104
-112
-109
-84
-69
-58
-47
-39
-33
-32
-36
-42
-48
-54
-59
-64
-69
-75
-81
-86
-91
-94
-97
-100
-104
-107
-112
-118
-129
-136
-129
-117
-106
-94
-87
-95
-111
-122
-133
-142
-150
-155
-159
-166
-176
-174
-152
-135
-123
-111
-100
-91
-81
-59
-36
-27
-19
-22
-41
-56
-67
-77
-85
-90
-94
-101
-111
-118
-113
-104
-98
-93
-89
-86
-85
-85
-84
-83
-84
-87
-94
-103
-112
-125
-146
-145
-123
-108
-98
-89
-80
-72
-65
-58
-47
-30
-30
-50
-61
-69
-77
-83
-86
-87
-86
-85
-84
-81
-77
-71
-65
-58
-53
-49
-45
-43
-40
-36
-32
-26
-21
-15
-9
-4
0
2
6
11
17
24
35
49
62
72
82
92
104
117
129
136
141
143
144
145
146
147
149
151
151
150
149
148
147
147
146
143
140
136
133
130
128
125
121
116
112
111
114
119
125
132
138
144
153
162
170
175
178
180
184
189
196
200
200
194
184
171
156
135
118
107
97
90
85
82
83
85
89
94
101
111
125
110
62
2
-32
-92
-147
-218
-305
-396
-446
-462
-470
-477
-483
-489
-494
-506
-519
-499
-469
-432
-365
-266
-139
3
150
276
354
381
368
327
215
67
-97
-271
-442
-569
-607
-619
-600
-541
-466
-422
-412
-404
-398
-394
-392
-391
-390
-389
-389
-390
-390
-391
-394
-397
-400
-402
-403
-407
-408
-397
-378
-366
-357
-349
-342
-335
-328
-322
-316
-311
-304
-291
-273
-267
-266
-266
-266
-266
-265
-265
-264
-262
-261
-259
-256
-253
-250
-246
-242
-234
-215
-198
-176
-140
-92
-51
-31
-22
-15
-9
-5
0
6
11
17
25
35
52
69
86
114
159
196
219
239
257
286
332
375
405
421
431
438
444
448
447
439
426
412
401
391
380
370
362
355
349
343
335
322
298
266
222
173
141
122
105
88
32
-67
-186
-282
-318
-319
-295
-231
-178
-158
-160
-185
-200
-211
-220
-228
-232
-234
-234
-234
-235
-236
-237
-237
-235
-233
-231
-231
-232
-231
-226
-219
-211
-206
-202
-198
-194
-188
-183
-178
-175
-173
-173
-174
-173
-173
-173
-173
-174
-175
-174
-173
-170
-169
-169
-172
-176
-180
-184
-187
-191
-197
-202
-205
-203
-196
-187
-179
-171
-162
-152
-143
-138
-137
-139
-142
-145
-150
-156
-162
-163
-157
-149
-142
-134
-128
-126
-128
-131
-135
-141
-149
-127
-108
-98
-89
-78
-66
-54
-43
-28
-17
-15
-20
-27
-32
-37
-44
-52
-60
-70
-87
-106
-85
-66
-54
-44
-35
-26
-19
-15
-12
-7
-3
0
4
8
11
13
16
20
27
36
73
144
245
379
537
696
833
940
1001
1006
969
841
643
401
159
-31
-149
-188
-185
-132
-59
-31
-24
-20
-17
-14
-12
-11
-11
-11
-11
-11
-12
-13
-16
-18
-21
-25
-28
-33
-43
-42
-23
4
33
45
52
57
61
63
62
59
54
49
42
31
31
45
52
55
59
63
66
68
72
77
82
88
94
100
106
113
123
135
147
156
163
172
186
207
227
246
265
284
299
313
319
313
301
291
282
274
271
272
276
283
301
350
404
444
469
495
525
547
561
568
563
552
534
510
490
468
444
418
391
367
331
291
250
206
163
139
103
62
17
-6
-21
-31
-42
-53
-71
-97
-120
-137
-150
-169
-188
-196
-200
-203
-206
-207
-207
-206
-205
-204
-202
-199
-194
-188
-177
-152
-137
-129
-124
-121
-120
-123
-127
-131
-136
-142
-147
-147
-143
-139
-135
-132
-129
-126
-122
-117
-109
-95
-74
-60
-51
-53
-72
-85
-96
-104
-109
-111
-111
-111
-112
-114
-117
-119
-120
-119
-117
-116
-115
-115
-113
-111
-109
-107
-108
-110
-113
-115
-116
-117
-119
-122
-123
-123
-120
-114
-107
-100
-94
-88
-81
-75
-72
-72
-72
-73
-74
-74
-74
-73
-72
-72
-71
-72
-71
-70
-67
-63
-60
-56
-54
-50
-47
-43
-41
-39
-38
-37
-38
-39
-42
-47
-53
-60
-66
-74
-87
-99
-101
-94
-84
-73
-61
-54
-51
-47
-43
-38
-38
-44
-52
-57
-61
-65
-68
-70
-71
-72
-71
-68
-64
-59
-55
-50
-43
-35
-31
-33
-40
-48
-56
-66
-72
-73
-73
-74
-76
-78
-70
-56
-50
-46
-42
-39
-36
-34
-32
-29
-27
-25
-23
-21
-20
-20
-20
-20
-20
-20
-21
-21
-21
-20
-19
-17
-16
-15
-15
-15
-15
-15
-15
-17
-19
-22
-24
-22
-17
-12
-9
-6
-3
-1
1
4
4
2
-1
-5
-10
-14
-17
-23
-29
-34
-38
-38
-34
-30
-26
-23
-21
-18
-14
-10
-8
-7
-8
-11
-14
-16
-19
-20
-22
-24
-26
-28
-30
-31
-32
-34
-35
-35
-35
-33
-31
-29
-26
-23
-21
-18
-15
-11
-3
3
8
14
19
27
31
27
16
0
-27
-57
-79
-91
-98
-84
-60
-36
-21
-11
-2
5
16
26
11
-12
-34
-47
-56
-55
-41
-33
-29
-26
-23
-20
-18
-15
-11
-8
-5
-2
1
7
20
49
80
105
121
134
152
170
187
200
209
215
219
225
232
241
249
258
265
269
266
261
254
248
242
236
233
233
237
242
248
255
265
271
265
253
242
232
221
213
206
197
187
181
182
186
189
193
196
197
191
181
167
141
127
121
116
111
108
106
105
106
107
108
110
114
120
129
130
117
96
76
68
65
63
61
58
55
52
50
48
46
41
34
22
13
5
-1
0
14
28
43
44
35
25
15
15
24
33
41
41
28
9
-15
-29
-36
-40
-43
-44
-43
-39
-33
-23
-4
19
29
35
39
39
33
25
16
7
-4
-17
-40
-57
-62
-67
-66
-52
-40
-32
-24
-15
-6
1
11
18
19
13
4
-1
-6
-10
-14
-17
-19
-20
-20
-20
-18
-15
-11
-4
19
102
224
369
526
680
803
864
868
827
702
522
303
85
-73
-134
-153
-135
-105
-84
-74
-67
-82
-93
-99
-104
-109
-112
-114
-115
-118
-124
-132
-131
-116
-98
-80
-64
-53
-45
-39
-40
-46
-56
-74
-97
-106
-111
-115
-117
-117
-115
-111
-107
-101
-92
-77
-62
-43
-25
-18
-15
-11
-8
-7
-7
-8
-10
-13
-15
-17
-22
-25
-26
-21
-14
-6
3
13
25
44
68
86
101
119
145
173
190
200
208
218
228
236
244
252
259
265
272
285
312
344
372
396
423
441
453
459
462
464
468
472
471
459
446
432
416
395
371
335
292
246
205
182
146
107
63
36
7
-22
-46
-64
-82
-100
-118
-132
-146
-161
-176
-184
-190
-195
-199
-200
-200
-197
-194
-192
-190
-189
-187
-185
-183
-181
-180
-180
-182
-185
-189
-192
-196
-203
-207
-203
-196
-190
-185
-179
-172
-161
-149
-138
-126
-116
-111
-110
-109
-109
-108
-106
-108
-117
-123
-126
-130
-133
-136
-137
-136
-133
-130
-127
-125
-124
-122
-119
-116
-112
-109
-108
-106
-104
-101
-98
-95
-93
-92
-91
-88
-84
-80
-77
-76
-76
-76
-76
-77
-78
-79
-81
-83
-85
-87
-87
-87
-87
-87
-87
-86
-84
-82
-80
-77
-74
-72
-70
-65
-60
-59
-62
-66
-69
-71
-74
-75
-74
-70
-65
-61
-58
-55
-51
-47
-43
-41
-39
-39
-38
-38
-37
-37
-37
-37
-34
-36
-50
-61
-69
-75
-78
-77
-72
-64
-56
-48
-38
-26
-17
-8
2
15
4
-4
-8
-11
-16
-21
-26
-31
-35
-39
-45
-50
-54
-55
-54
-50
-45
-40
-35
-29
-19
-9
-4
0
0
2
4
7
11
16
20
23
26
30
32
31
27
22
17
14
11
8
5
3
2
5
10
18
25
34
46
55
59
61
64
67
69
68
61
53
50
48
46
44
41
38
36
34
32
31
30
29
28
28
28
28
28
28
28
29
29
29
29
29
28
27
26
26
26
26
26
26
26
26
26
26
25
21
15
10
9
9
10
11
11
12
13
15
18
20
21
22
22
22
21
19
16
13
10
7
6
5
4
1
-2
-5
-6
-4
0
7
14
22
34
40
36
30
25
22
18
16
15
14
14
12
11
9
7
6
6
7
7
9
10
11
13
15
18
19
21
24
28
33
38
46
51
50
42
34
28
24
20
17
16
19
24
31
37
42
48
55
60
62
60
56
51
45
33
11
0
-7
-13
-15
-11
0
11
20
33
43
44
42
39
36
34
32
32
32
34
36
37
39
41
44
47
48
47
41
32
24
18
11
4
-1
-4
-3
0
3
8
12
18
23
23
18
11
3
-7
-14
-20
-23
-26
-28
-32
-35
-39
-42
-46
-51
-55
-62
-72
-81
-90
-98
-106
-112
-111
-103
-93
-86
-79
-73
-68
-66
-65
-68
-74
-81
-88
-95
-107
-117
-118
-112
-105
-98
-93
-87
-81
-73
-64
-55
-44
-36
-37
-46
-58
-65
-71
-76
-81
-85
-87
-86
-83
-78
-71
-65
-58
-49
-39
-31
-24
-17
-6
7
14
17
20
23
24
24
23
19
14
8
0
-12
-12
3
27
52
86
129
190
270
367
474
590
705
804
856
857
807
677
502
302
120
-25
-101
-109
-77
-22
14
26
9
-41
-73
-85
-84
-69
-47
-19
-4
5
10
9
2
-8
-18
-30
-38
-42
-48
-54
-52
-37
-20
-2
4
8
11
14
15
16
15
15
14
12
9
11
21
30
36
41
49
56
60
64
67
71
74
76
79
82
86
89
93
97
101
105
110
116
123
131
138
144
150
159
173
194
212
227
240
250
257
270
291
311
322
335
349
371
404
425
436
444
452
459
467
484
507
519
526
531
533
530
521
508
486
457
417
369
320
276
231
187
157
122
87
52
24
2
-20
-42
-67
-94
-123
-150
-167
-174
-177
-178
-180
-182
-184
-185
-188
-191
-196
-200
-204
-208
-212
-218
-225
-230
-230
-228
-222
-215
-202
-175
-158
-149
-143
-138
-133
-130
-129
-127
-121
-127
-146
-156
-162
-163
-162
-160
-159
-157
-156
-156
-156
-159
-164
-171
-185
-203
-213
-221
-220
-206
-195
-186
-179
-173
-169
-164
-159
-152
-148
-149
-153
-155
-158
-160
-162
-163
-163
-164
-164
-164
-163
-159
-155
-150
-144
-138
-127
-106
-93
-83
-73
-68
-67
-70
-73
-77
-81
-69
-58
-51
-45
-42
-42
-43
-45
-47
-48
-51
-53
-50
-44
-40
-36
-32
-31
-34
-41
-50
-58
-70
-76
-69
-56
-44
-31
-19
-10
-1
6
12
12
6
-1
-7
-14
-21
-24
-23
-18
-11
-4
5
12
16
20
25
28
27
25
22
20
17
16
16
19
22
24
25
27
30
33
34
34
30
25
19
14
9
3
-2
-8
-10
-7
-1
7
16
27
45
53
57
61
63
65
65
63
60
56
53
49
44
41
39
37
35
34
31
29
27
26
29
33
38
42
45
50
55
59
61
61
60
59
59
59
60
60
57
51
45
39
32
27
27
34
42
49
58
65
65
55
43
33
22
12
3
-5
-13
-22
-29
-29
-26
-23
-21
-19
-16
-10
-2
4
10
15
19
24
27
30
32
35
38
46
57
48
42
38
35
33
32
32
33
35
37
39
42
45
48
52
56
60
63
63
63
62
61
60
58
56
54
51
49
47
47
46
44
42
38
35
30
21
21
29
34
36
38
39
40
41
41
41
40
39
37
37
35
34
32
30
27
22
18
17
15
13
12
10
8
7
6
4
3
1
0
0
2
4
5
7
8
8
9
10
12
14
15
16
17
21
25
30
32
32
29
23
17
5
-8
-16
-22
-15
-9
-6
-2
3
9
15
22
32
31
19
9
2
-4
-13
-22
-30
-33
-35
-38
-40
-43
-45
-47
-49
-50
-52
-52
-53
-53
-52
-51
-50
-48
-47
-46
-45
-44
-43
-41
-40
-39
-38
-38
-35
-28
-28
-42
-51
-59
-65
-69
-68
-64
-59
-52
-44
-29
-13
-2
6
12
11
3
-5
-9
-11
-14
-17
-20
-23
-25
-26
-27
-28
-28
-29
-28
-27
-25
-23
-22
-21
-19
-18
-16
-14
-12
-8
-3
1
6
11
15
14
11
5
0
-7
-18
-18
-7
20
65
128
207
297
393
493
597
696
757
758
698
556
379
192
20
-112
-201
-234
-233
-195
-125
-51
13
42
53
51
35
11
-19
-40
-54
-64
-73
-79
-85
-90
-92
-90
-84
-76
-66
-50
-35
-18
-3
3
8
12
15
12
7
3
1
0
-2
-3
-4
-3
-2
0
4
10
16
26
44
60
70
79
85
87
85
78
68
51
30
18
9
10
23
43
69
95
120
142
164
175
181
186
191
197
201
207
215
225
235
245
261
287
308
319
329
338
346
361
385
411
438
461
475
482
485
488
492
495
488
472
448
412
375
344
303
263
216
173
148
123
96
72
55
38
21
4
-12
-34
-62
-93
-123
-145
-159
-167
-171
-175
-179
-183
-183
-177
-168
-160
-153
-146
-142
-142
-142
-142
-142
-142
-143
-145
-146
-146
-141
-134
-126
-118
-108
-99
-98
-100
-103
-107
-111
-115
-118
-118
-114
-109
-105
-102
-99
-95
-92
-89
-86
-83
-80
-78
-75
-73
-71
-67
-60
-56
-63
-75
-87
-101
-108
-113
-116
-119
-121
-124
-125
-123
-118
-112
-104
-92
-87
-85
-83
-79
-78
-79
-80
-81
-82
-83
-83
-81
-79
-77
-77
-77
-77
-77
-76
-76
-76
-77
-77
-77
-76
-75
-75
-75
-76
-76
-75
-74
-72
-70
-68
-64
-55
-54
-62
-69
-78
-77
-65
-56
-49
-42
-37
-36
-37
-39
-42
-45
-49
-56
-58
-51
-46
-43
-40
-38
-37
-36
-34
-32
-28
-24
-19
-15
-7
7
7
-3
-20
-40
-51
-57
-60
-60
-54
-43
-33
-24
-15
-7
-1
-1
-2
-2
-2
-2
-1
0
1
1
0
0
1
2
4
6
9
11
15
21
27
30
28
25
21
19
16
13
10
8
9
13
18
24
33
47
47
33
21
11
3
-2
-6
-10
-14
-17
-17
-12
-6
-2
2
6
11
16
21
24
28
32
35
36
36
34
31
28
26
25
22
20
17
15
14
13
13
13
13
14
15
16
18
19
21
22
23
23
22
20
17
14
10
6
2
-2
-11
-19
-24
-27
-32
-38
-37
-26
-21
-17
-14
-10
-7
-5
-3
-1
-1
-1
-2
-2
-2
-3
-4
-5
-6
-7
-6
-6
-6
-7
-8
-10
-10
-10
-10
-9
-9
-8
-6
-2
0
3
3
0
-3
-6
-8
-12
-16
-18
-17
-13
-7
1
12
19
23
26
29
31
29
25
20
18
16
13
11
10
8
7
6
6
6
6
7
8
9
10
11
12
13
16
18
15
8
-1
-13
-22
-29
-36
-39
-31
-18
-10
-4
2
7
12
14
14
13
11
8
6
4
2
-1
-5
-9
-15
-19
-24
-28
-32
-36
-39
-40
-40
-40
-40
-40
-39
-36
-33
-29
-25
-22
-18
-14
-10
-7
-6
-7
-10
-13
-16
-18
-20
-23
-25
-28
-30
-31
-31
-32
-32
-31
-30
-29
-29
-29
-29
-29
-28
-27
-27
-27
-27
-27
-25
-22
-18
-12
-5
0
7
15
21
28
42
57
65
71
71
56
43
32
23
17
13
7
0
1
16
28
37
45
51
56
61
72
90
120
165
232
319
417
522
635
744
814
817
759
611
422
240
101
30
3
2
18
61
107
124
129
132
133
134
134
134
134
133
131
128
125
123
121
119
118
118
117
116
115
112
110
107
106
105
105
105
105
106
107
107
108
109
109
109
109
109
111
112
113
114
115
117
120
125
129
132
134
135
139
144
144
136
130
126
122
120
121
126
133
140
149
162
175
186
199
214
222
227
230
234
237
241
245
249
255
261
271
283
297
318
349
375
394
409
423
437
449
462
473
464
437
397
384
375
367
354
333
308
284
268
258
247
235
198
152
127
89
49
5
-36
-60
-74
-80
-85
-90
-97
-104
-113
-126
-144
-157
-164
-170
-176
-179
-181
-180
-177
-173
-169
-163
-155
-153
-156
-156
-156
-157
-157
-156
-155
-153
-150
-146
-144
-142
-140
-137
-135
-133
-132
-130
-128
-126
-124
-123
-122
-121
-121
-121
-121
-121
-119
-117
-115
-112
-109
-107
-105
-104
-104
-103
-103
-104
-106
-107
-108
-109
-110
-112
-114
-119
-124
-125
-119
-113
-110
-108
-106
-104
-102
-99
-96
-93
-92
-91
-90
-88
-86
-83
-78
-74
-74
-77
-80
-80
-81
-82
-84
-86
-87
-88
-89
-89
-88
-87
-84
-81
-77
-73
-69
-65
-56
-40
-40
-40
-40
-39
-39
-39
-38
-38
-38
-38
-39
-42
-42
-32
-26
-21
-16
-12
-11
-12
-15
-18
-20
-22
-26
-30
-35
-37
-36
-33
-29
-26
-24
-22
-19
-16
-13
-11
-11
-11
-11
-11
-12
-12
-15
-17
-19
-21
-22
-23
-24
-26
-28
-29
-29
-25
-20
-13
-6
0
10
19
26
32
37
42
49
55
54
48
41
36
33
30
27
25
23
21
20
19
19
19
21
24
27
30
33
36
39
42
46
53
61
66
67
63
57
51
46
39
33
28
25
24
24
23
23
23
24
25
27
28
29
30
31
31
32
31
28
25
21
17
13
10
7
1
-5
-13
-22
-29
-35
-40
-45
-49
-53
-54
-55
-55
-56
-56
-57
-58
-59
-59
-58
-53
-45
-38
-32
-27
-21
-15
-11
-8
-7
-7
-7
-6
-6
-6
-5
-5
-5
-4
-3
-1
0
2
3
5
8
11
14
21
26
26
19
11
5
0
-5
-9
-11
-9
-7
-4
-2
0
2
6
10
12
12
10
7
5
4
2
0
-2
-5
-6
-5
-3
-1
1
3
5
8
10
11
11
10
7
3
0
-5
-14
-28
-33
-37
-41
-43
-42
-31
-19
-10
-1
7
12
13
10
5
0
-12
-30
-37
-41
-45
-47
-47
-45
-40
-34
-29
-26
-22
-17
-12
-7
-4
-2
-1
-1
-1
-2
-4
-7
-10
-12
-13
-15
-17
-21
-24
-25
-23
-18
-11
-5
0
7
15
16
10
1
-8
-19
-26
-27
-27
-28
-29
-14
0
11
17
14
9
5
1
-1
-3
-3
0
8
18
36
58
69
78
79
75
70
64
64
68
75
80
73
66
61
57
56
58
64
72
97
148
220
306
399
495
584
658
696
697
667
580
448
287
120
-32
-146
-178
-173
-112
-38
26
65
79
63
35
14
6
0
-1
4
15
26
38
43
37
24
13
1
-4
2
13
19
25
29
33
36
37
36
34
32
30
28
27
25
23
22
20
20
20
22
25
29
36
48
68
79
87
85
75
68
63
59
56
54
54
57
61
66
71
77
82
89
96
102
107
113
125
148
168
183
197
213
240
259
268
275
281
286
290
293
297
303
310
319
329
345
370
395
412
425
433
439
444
446
444
439
431
405
367
324
283
258
234
210
174
127
78
38
26
15
6
-7
-31
-51
-64
-74
-84
-95
-109
-129
-141
-150
-156
-162
-165
-165
-162
-157
-151
-147
-144
-140
-135
-130
-127
-126
-126
-127
-128
-128
-128
-130
-133
-131
-117
-107
-100
-95
-91
-88
-87
-86
-84
-83
-81
-79
-77
-76
-77
-81
-87
-95
-107
-120
-130
-141
-140
-123
-114
-108
-103
-98
-94
-90
-86
-83
-81
-78
-74
-69
-57
-40
-32
-26
-41
-60
-76
-85
-91
-96
-100
-100
-94
-87
-80
-72
-65
-65
-73
-82
-89
-97
-103
-106
-103
-98
-91
-85
-78
-71
-67
-64
-60
-54
-54
-64
-71
-76
-80
-83
-84
-82
-78
-74
-69
-64
-54
-47
-44
-42
-40
-37
-36
-36
-37
-38
-39
-40
-41
-42
-43
-45
-47
-50
-52
-54
-56
-60
-67
-66
-53
-39
-23
-12
-5
1
5
3
-2
-11
-17
-25
-31
-32
-29
-26
-22
-18
-14
-13
-14
-19
-26
-32
-43
-57
-44
-35
-30
-25
-19
-15
-12
-10
-8
-5
-1
1
4
7
9
12
18
21
18
10
4
0
-4
-7
-8
-6
-3
1
7
17
31
34
37
41
41
35
31
28
25
23
22
23
24
25
26
28
33
36
34
29
24
20
16
14
14
15
16
17
19
22
26
29
30
28
26
23
20
16
16
24
28
31
33
35
37
37
35
32
28
26
23
20
15
11
8
7
10
14
20
25
30
38
45
46
40
31
22
11
3
-1
-7
-14
-13
2
15
26
34
37
38
39
40
42
45
45
37
28
22
17
13
9
5
3
1
1
1
2
4
6
9
13
16
12
5
1
-2
-5
-8
-10
-10
-11
-12
-13
-13
-12
-10
-7
-4
-1
2
7
18
17
1
-6
-10
-13
-16
-19
-22
-26
-30
-33
-35
-37
-40
-44
-49
-58
-74
-74
-74
-73
-73
-74
-75
-75
-76
-78
-81
-85
-89
-94
-98
-102
-107
-114
-119
-123
-126
-129
-133
-138
-146
-152
-152
-146
-139
-134
-129
-124
-121
-120
-123
-129
-137
-144
-149
-154
-159
-165
-170
-174
-176
-177
-178
-179
-179
-179
-178
-176
-174
-173
-172
-171
-170
-168
-168
-167
-167
-168
-171
-176
-181
-187
-195
-210
-221
-230
-237
-244
-249
-249
-244
-235
-221
-199
-178
-156
-116
-56
29
146
279
406
508
536
519
401
198
-43
-265
-409
-442
-435
-403
-386
-394
-421
-457
-466
-471
-475
-481
-485
-489
-494
-502
-515
-522
-516
-504
-495
-486
-479
-475
-475
-477
-479
-481
-483
-485
-487
-489
-490
-492
-494
-496
-498
-500
-502
-503
-505
-510
-508
-494
-484
-476
-469
-463
-458
-454
-449
-444
-439
-433
-427
-420
-410
-390
-361
-346
-336
-327
-319
-305
-281
-257
-239
-230
-223
-218
-215
-219
-225
-231
-238
-241
-234
-220
-203
-183
-167
-146
-119
-90
-61
-33
-8
13
39
88
153
215
259
276
289
301
314
332
341
347
352
356
359
360
361
361
360
359
358
356
353
348
341
353
389
436
485
533
571
594
620
640
655
664
645
631
623
616
611
608
607
608
609
612
615
620
629
649
686
730
777
827
878
930
992
1064
1141
1217
1291
1371
1460
1558
1671
1817
2012
2272
2608
2992
3369
3701
3959
4123
4183
4145
4030
3863
3677
3504
3372
3325
3309
3331
3354
3372
3380
3376
3367
3354
3336
3305
3265
3212
3151
3087
3023
2964
2908
2845
2779
2715
2663
2621
2594
2545
2481
2413
2356
2308
2266
2227
2177
2104
2005
1890
1771
1646
1508
1361
1221
1100
999
907
826
764
741
729
721
739
793
883
1010
1178
1371
1568
1746
1892
2007
2086
2137
2153
2160
2154
2108
2079
2068
2070
2092
2152
2226
2249
2236
2146
2001
1850
1705
1569
1449
1340
1225
1099
974
858
770
741
743
785
847
918
987
1046
1093
1111
1118
1123
1129
1136
1145
1154
1143
1109
1058
994
926
860
798
739
695
680
695
742
761
767
752
707
657
613
576
558
546
539
553
594
648
666
653
614
569
551
532
499
439
360
310
308
347
414
456
420
275
74
-130
-352
-605
-895
-1226
-1573
-1881
-2104
-2233
-2282
-2306
-2338
-2387
-2430
-2472
-2501
-2512
-2514
-2512
-2506
-2488
-2440
-2355
-2255
-2130
-1985
-1857
-1774
-1756
-1751
-1747
-1741
-1734
-1709
-1689
-1692
-1726
-1757
-1753
-1705
-1642
-1583
-1529
-1487
-1445
-1357
-1205
-1018
-836
-676
-543
-427
-335
-299
-312
-415
-646
-960
-1325
-1720
-2071
-2305
-2388
-2339
-2228
-2161
-2229
-2440
-2766
-3139
-3459
-3660
-3737
-3747
-3720
-3652
-3579
-3500
-3415
-3322
-3223
-3120
-3021
-2925
-2831
-2747
-2663
-2572
-2482
-2399
-2311
-2212
-2089
-1933
-1745
-1537
-1325
-1126
-943
-771
-611
-473
-377
-339
-337
-363
-403
-436
-455
-486
-525
-561
-582
-596
-604
-611
-616
-619
-623
-627
-630
-631
-630
-626
-620
-598
-568
-550
-518
-477
-416
-326
-204
-64
68
181
230
219
113
-145
-529
-994
-1466
-1873
-2167
-2342
-2406
-2409
-2361
-2321
-2306
-2300
-2287
-2234
-2119
-1945
-1747
-1584
-1474
-1401
-1350
-1304
-1253
-1194
-1129
-1068
-1017
-975
-941
-914
-894
-879
-871
-866
-862
-860
-858
-857
-856
-852
-842
-813
-768
-716
-661
-608
-559
-509
-461
-426
-408
-393
-380
-369
-356
-346
-340
-335
-332
-322
-301
-280
-268
-256
-244
-221
-194
-165
-141
-118
-88
-40
30
126
242
381
540
710
881
1037
1150
1192
1151
1023
829
609
411
265
190
179
197
242
276
299
307
315
323
330
326
312
290
261
251
243
246
271
319
390
477
567
648
714
763
798
824
832
834
835
825
811
799
790
779
763
732
694
657
623
595
572
558
548
540
534
528
520
509
502
498
493
488
484
478
472
472
479
499
538
590
642
682
711
734
750
764
771
764
752
704
649
615
599
605
616
630
641
651
665
695
731
752
760
768
775
778
778
779
770
763
757
757
760
763
767
768
764
759
750
738
727
700
657
613
572
527
474
415
360
313
270
239
212
184
153
115
84
63
39
10
-11
-26
-43
-62
-96
-159
-266
-426
-609
-779
-909
-969
-978
-949
-906
-874
-842
-829
-824
-831
-841
-856
-878
-896
-901
-897
-885
-863
-847
-826
-808
-792
-775
-763
-756
-750
-745
-742
-739
-736
-732
-732
-730
-729
-725
-721
-716
-706
-695
-684
-670
-654
-640
-637
-636
-635
-633
-630
-626
-621
-616
-607
-597
-590
-581
-564
-538
-523
-509
-492
-474
-461
-443
-423
-395
-365
-340
-333
-331
-328
-323
-316
-308
-298
-287
-277
-264
-249
-242
-240
-237
-233
-231
-230
-228
-224
-216
-203
-184
-172
-163
-157
-152
-149
-151
-160
-183
-205
-223
-231
-238
-244
-244
-243
-240
-235
-219
-192
-176
-162
-150
-142
-133
-121
-109
-103
-100
-100
-103
-105
-104
-98
-90
-83
-76
-68
-65
-63
-55
-41
-31
-27
-27
-30
-32
-29
-25
-22
-17
-13
-9
-5
0
3
6
7
7
9
13
13
13
13
17
29
52
79
87
89
89
91
96
102
108
113
115
114
113
115
115
113
107
101
99
111
124
134
143
151
158
165
172
178
182
184
182
177
170
162
155
149
143
139
131
121
118
124
136
154
167
173
178
179
183
186
187
185
185
187
195
206
222
234
245
254
259
263
269
273
277
276
278
279
280
282
280
276
273
269
256
243
240
243
248
247
241
236
230
214
199
194
186
161
122
104
101
99
98
99
103
105
106
101
95
95
88
86
88
91
88
86
88
92
115
148
156
154
136
111
96
88
70
42
26
14
9
24
63
93
118
129
134
141
141
132
110
86
51
10
-13
-19
-23
-22
-18
-11
0
15
35
46
49
47
44
40
36
33
29
26
27
29
30
32
35
39
44
49
56
65
73
76
79
99
115
119
118
117
122
126
127
123
108
72
36
9
-8
-28
-68
-127
-169
-182
-174
-153
-123
-114
-110
-101
-86
-58
-24
-8
-3
-3
-2
2
12
24
31
30
23
12
3
-4
-11
-14
-12
-8
-3
2
7
14
18
22
27
33
37
39
38
37
34
30
28
29
28
24
16
15
31
65
117
194
296
413
535
657
770
850
875
866
797
663
489
303
137
20
-17
-18
21
45
55
52
48
43
44
54
68
85
106
124
133
132
130
127
123
118
115
113
111
103
94
87
78
72
51
25
11
-11
