-16
-16
-18
-20
-24
-29
-33
-36
-37
-37
-38
-38
-38
-39
-39
-40
-42
-43
-45
-46
-47
-49
-51
-52
-52
-51
-49
-46
-45
-44
-43
-42
-41
-39
-37
-35
-33
-31
-29
-28
-28
-30
-33
-37
-41
-47
-56
-64
-64
-54
-42
-33
-25
-17
-10
-4
0
4
7
10
13
17
19
21
24
28
33
39
45
51
58
70
82
91
101
110
119
126
126
121
115
110
106
100
94
88
82
76
71
66
61
55
50
46
42
38
33
30
29
30
33
40
48
59
81
118
172
230
307
401
493
539
555
535
471
386
291
188
79
-24
-109
-142
-140
-97
-33
25
77
107
139
172
198
217
233
240
243
246
248
250
252
255
258
261
264
267
271
276
282
289
300
310
317
324
331
340
347
349
344
336
332
328
325
321
319
318
318
318
319
319
320
323
325
328
330
331
331
331
330
328
326
322
317
311
306
297
280
265
251
239
228
218
202
175
150
132
116
103
94
85
77
68
60
53
44
34
23
12
0
-7
0
13
27
43
53
60
64
68
71
74
77
80
81
81
81
80
80
80
79
78
76
75
74
73
70
65
80
90
95
99
102
104
105
104
102
98
92
87
81
76
69
63
57
51
44
38
33
29
25
22
20
17
15
12
10
10
10
13
16
18
21
25
29
34
40
45
50
55
60
65
68
68
67
63
58
51
43
33
14
0
-11
-23
-35
-48
-62
-73
-82
-90
-97
-104
-113
-130
-159
-177
-186
-192
-194
-192
-186
-175
-143
-82
10
112
175
198
198
179
127
51
-47
-164
-287
-400
-469
-495
-497
-480
-431
-374
-319
-272
-253
-232
-220
-210
-203
-197
-193
-189
-185
-181
-176
-173
-169
-164
-159
-154
-148
-141
-129
-111
-98
-86
-73
-56
-45
-37
-31
-26
-22
-18
-13
-9
-5
-1
2
6
10
14
19
22
24
26
27
29
31
33
35
37
38
39
39
38
37
35
32
30
27
23
19
14
8
-2
-32
-64
-93
-113
-128
-144
-156
-168
-173
-166
-152
-141
-129
-121
-121
-127
-136
-150
-178
-197
-207
-214
-218
-219
-216
-210
-201
-184
-155
-144
-141
-138
-135
-133
-130
-128
-127
-126
-126
-124
-123
-121
-120
-120
-119
-118
-117
-116
-116
-116
-116
-115
-113
-112
-110
-109
-108
-107
-105
-104
-103
-103
-103
-102
-100
-99
-97
-96
-94
-92
-90
-86
-82
-78
-74
-65
-55
-45
-35
-20
-3
3
7
10
12
14
15
15
16
16
15
12
8
3
-2
-8
-16
-33
-51
-63
-73
-80
-83
-82
-78
-73
-69
-64
-60
-57
-57
-58
-61
-64
-68
-74
-61
-22
42
127
231
356
499
631
699
691
578
340
56
-195
-343
-366
-337
-229
-121
-40
4
17
27
40
51
62
74
83
93
101
109
113
115
117
120
123
126
128
131
134
137
140
144
146
148
150
151
151
152
152
153
156
160
164
169
174
178
181
185
190
196
203
219
246
251
254
258
261
262
259
251
223
180
145
133
128
133
142
149
156
162
165
165
160
150
137
113
74
38
5
-16
-30
-43
-56
-77
-105
-123
-133
-140
-145
-150
-156
-162
-142
-129
-124
-120
-116
-113
-110
-107
-104
-102
-101
-99
-97
-95
-94
-92
-89
-84
-79
-75
-72
-70
-69
-68
-66
-65
-65
-65
-65
-64
-64
-64
-64
-65
-66
-67
-68
-69
-69
-69
-69
-69
-68
-67
-65
-64
-64
-64
-64
-63
-62
-61
-59
-57
-55
-53
-51
-49
-47
-45
-43
-41
-39
-36
-33
-29
-26
-25
-24
-25
-29
-33
-39
-44
-49
-54
-58
-62
-66
-70
-74
-78
-82
-86
-91
-95
-98
-101
-104
-109
-114
-124
-133
-136
-134
-130
-123
-101
-42
51
180
338
503
638
706
665
500
232
-85
-375
-564
-621
-551
-412
-274
-176
-139
-130
-125
-121
-117
-112
-108
-104
-101
-96
-83
-55
-26
-3
9
18
23
23
19
12
5
-2
-1
14
26
36
43
46
43
37
28
13
-9
-21
-29
-34
-32
-21
-7
2
13
23
31
36
40
44
48
51
54
59
66
75
83
90
98
106
111
112
111
106
99
91
75
45
18
0
-7
-14
-19
-3
43
90
109
117
124
128
125
117
93
48
-21
-91
-114
-121
-114
-107
-104
-100
-96
-91
-86
-81
-77
-72
-67
-63
-60
-60
-61
-61
-61
-61
-62
-65
-63
-50
-41
-34
-28
-24
-23
-24
-26
-29
-33
-37
-43
-48
-48
-43
-37
-34
-33
-32
-32
-31
-30
-28
-26
-24
-22
-21
-20
-19
-19
-18
-17
-14
-11
-2
18
33
42
48
54
59
62
66
68
70
71
72
71
68
64
57
49
34
7
-5
-13
-19
-23
-26
-26
-25
-23
-20
-17
-13
-6
-6
-14
-22
-30
-30
-19
11
67
153
267
401
534
632
666
616
474
256
0
-241
-416
-461
-452
-357
-235
-132
-69
-44
-33
-26
-18
-9
2
16
30
39
45
50
54
58
62
65
68
70
72
74
76
78
80
81
84
86
89
92
95
99
104
113
130
141
149
156
164
173
184
195
196
186
178
169
165
169
181
200
217
224
229
231
226
213
194
168
143
127
120
116
128
141
153
152
140
105
67
32
-3
-27
-54
-71
-78
-84
-69
-59
-52
-47
-44
-42
-42
-44
-49
-54
-60
-67
-80
-87
-91
-94
-98
-96
-84
-71
-57
-46
-39
-33
-28
-24
-23
-25
-29
-34
-38
-41
-45
-50
-54
-57
-57
-56
-54
-51
-48
-44
-36
-35
-44
-53
-63
-64
-54
-48
-43
-39
-35
-34
-35
-37
-40
-43
-46
-50
-57
-64
-68
-65
-59
-51
-45
-41
-38
-34
-29
-23
-17
-12
-7
-2
2
8
13
14
13
8
2
-4
-18
-41
-50
-55
-59
-63
-65
-67
-68
-70
-72
-73
-73
-73
-72
-71
-69
-68
-66
-64
-62
-59
-43
2
79
197
347
494
584
586
501
292
31
-227
-423
-505
-507
-437
-314
-185
-92
-68
-72
-99
-115
-127
-126
-97
-74
-68
-65
-62
-61
-59
-57
-55
-52
-48
-42
-29
-14
-10
-8
-7
-2
8
20
28
35
42
47
52
55
58
61
63
65
67
71
78
85
93
107
119
123
125
127
130
132
134
136
137
139
141
143
143
141
135
128
120
108
88
76
64
52
36
14
-10
-35
-58
-71
-77
-82
-86
-90
-94
-98
-101
-104
-108
-113
-118
-122
-127
-135
-145
-131
-107
-95
-94
-93
-93
-93
-93
-93
-93
-92
-91
-91
-91
-92
-92
-93
-93
-93
-94
-95
-96
-96
-96
-95
-94
-93
-93
-92
-91
-89
-88
-87
-86
-85
-85
-85
-84
-84
-83
-82
-80
-79
-78
-76
-75
-74
-74
-75
-76
-78
-82
-85
-89
-95
-105
-90
-71
-54
-42
-34
-27
-23
-19
-16
-13
-8
-3
-15
-26
-33
-40
-48
-57
-75
-98
-106
-111
-115
-118
-120
-121
-122
-123
-123
-122
-121
-119
-116
-112
-107
-101
-90
-62
-7
70
181
322
470
589
636
574
397
139
-131
-347
-449
-460
-413
-330
-258
-201
-159
-126
-102
-89
-80
-74
-70
-67
-64
-59
-54
-44
-29
-18
-9
-2
3
8
12
15
18
22
27
33
41
50
57
63
70
77
83
88
92
97
104
114
126
139
146
150
154
158
161
165
169
172
174
177
180
184
188
192
201
207
207
203
197
192
187
180
172
162
147
128
112
92
67
43
15
-6
-19
-28
-33
-36
-37
-38
-38
-39
-41
-42
-43
-44
-44
-43
-43
-44
-44
-43
-42
-41
-40
-40
-40
-40
-39
-38
-37
-37
-37
-37
-37
-35
-34
-33
-33
-34
-36
-37
-37
-37
-37
-38
-38
-39
-39
-38
-39
-39
-42
-45
-47
-48
-46
-41
-37
-32
-26
-21
-20
-24
-29
-32
-36
-39
-42
-43
-41
-36
-29
-20
-7
12
24
29
34
37
40
42
45
47
50
53
56
59
62
66
74
88
89
75
64
54
46
41
38
34
28
25
29
39
45
50
55
59
61
59
55
50
43
33
17
11
3
-3
8
48
115
211
335
476
609
694
697
633
452
205
-45
-243
-346
-361
-332
-259
-190
-131
-100
-76
-58
-44
-30
-16
0
19
35
39
42
45
46
46
41
36
31
25
22
28
40
54
70
84
97
109
115
117
119
120
121
122
124
126
128
131
135
140
148
171
191
202
209
211
212
212
212
211
211
211
210
210
210
208
204
199
194
188
180
166
152
139
125
112
102
95
87
79
67
51
26
-5
-35
-61
-83
-107
-121
-129
-134
-139
-143
-147
-149
-150
-151
-152
-152
-153
-153
-153
-153
-154
-154
-154
-154
-154
-155
-155
-155
-156
-157
-158
-159
-161
-164
-165
-167
-168
-170
-173
-178
-185
-189
-189
-184
-178
-172
-167
-161
-154
-148
-145
-145
-148
-152
-157
-162
-171
-176
-171
-163
-157
-151
-146
-143
-143
-146
-150
-155
-159
-164
-169
-172
-170
-164
-156
-149
-141
-133
-127
-124
-120
-102
-53
6
63
101
114
121
122
118
110
85
44
-7
-36
-43
-48
-51
-56
-60
-64
-68
-73
-79
-88
-96
-102
-108
-114
-120
-127
-134
-141
-146
-149
-152
-155
-157
-158
-159
-158
-156
-153
-150
-145
-137
-109
-54
32
156
305
451
530
526
430
213
-55
-313
-496
-556
-555
-490
-393
-301
-235
-190
-160
-141
-130
-122
-115
-108
-103
-97
-91
-85
-77
-68
-58
-49
-38
-27
-18
-8
10
26
30
32
35
39
43
48
52
57
64
72
80
95
120
139
150
160
170
177
182
187
192
197
200
203
204
205
207
210
211
207
202
198
199
200
201
202
202
200
193
184
171
146
119
94
76
61
46
32
18
8
1
-4
-10
-19
-29
-43
-59
-67
-71
-75
-79
-81
-80
-77
-71
-64
-58
-49
-42
-42
-48
-55
-58
-59
-61
-63
-64
-67
-69
-71
-73
-75
-77
-78
-79
-78
-78
-77
-76
-74
-72
-70
-68
-66
-65
-64
-63
-62
-61
-59
-58
-57
-55
-52
-49
-46
-44
-43
-43
-44
-45
-46
-47
-49
-51
-54
-56
-59
-61
-63
-66
-69
-71
-73
-74
-75
-75
-74
-73
-70
-67
-63
-59
-55
-46
-21
6
27
37
44
48
48
42
34
29
23
17
11
4
-3
-20
-45
-56
-62
-66
-69
-70
-68
-64
-58
-51
-41
-25
-25
-41
-53
-65
-72
-73
-74
-77
-79
-65
-22
55
160
290
428
549
599
587
477
263
7
-227
-383
-437
-438
-390
-315
-234
-160
-96
-55
-44
-37
-32
-27
-21
-17
-13
-9
-1
12
27
33
36
38
40
42
45
49
52
56
59
62
66
70
76
87
108
120
131
140
151
163
172
180
186
193
200
206
212
218
225
232
238
243
247
253
260
263
256
243
234
228
222
217
212
208
205
202
197
190
176
160
140
114
90
72
59
43
19
-9
-33
-41
-45
-48
-52
-54
-57
-58
-59
-59
-59
-58
-57
-54
-51
-48
-45
-43
-41
-40
-40
-39
-39
-39
-39
-38
-37
-35
-32
-29
-26
-25
-24
-25
-25
-26
-25
-25
-25
-24
-23
-21
-19
-16
-13
-12
-13
-15
-17
-19
-22
-24
-27
-31
-35
-38
-39
-40
-42
-46
-53
-55
-52
-49
-47
-46
-45
-46
-45
-44
-42
-41
-41
-41
-43
-45
-47
-48
-50
-52
-55
-58
-60
-63
-72
-69
-50
-39
-31
-25
-19
-16
-15
-18
-23
-29
-35
-39
-42
-45
-48
-51
-52
-54
-56
-58
-62
-65
-68
-71
-73
-74
-75
-76
-77
-78
-79
-81
-82
-85
-92
-99
-102
-99
-91
-80
-60
-30
18
86
181
305
446
574
631
619
497
269
3
-237
-404
-460
-386
-222
-30
130
198
201
150
61
-26
-95
-120
-129
-135
-139
-138
-129
-119
-110
-102
-95
-88
-81
-75
-68
-60
-52
-44
-37
-29
-21
-17
-13
-10
-7
-5
-2
0
3
8
12
16
21
26
31
36
41
47
53
59
64
68
68
67
63
57
51
45
38
30
20
8
-4
-19
-34
-51
-66
-76
-84
-100
-130
-168
-196
-212
-224
-224
-210
-174
-117
-37
50
124
148
135
95
13
-64
-120
-138
-153
-165
-188
-206
-217
-212
-164
-129
-116
-116
-126
-142
-143
-110
-45
20
60
71
78
83
84
85
86
87
88
89
89
90
91
92
92
92
91
87
81
72
58
29
-3
-34
-66
-98
-131
-164
-185
-198
-207
-210
-207
-200
-188
-167
-138
-123
-116
-111
-104
-97
-89
-80
-66
-47
-40
-37
-34
-31
-29
-28
-29
-33
-37
-42
-48
-57
-62
-52
-34
-19
-6
5
15
21
28
39
54
56
42
5
-41
-62
-75
-85
-89
-93
-97
-86
-67
-49
-42
-37
-34
-33
-37
-46
-56
-65
-76
-87
-96
-104
-113
-125
-130
-126
-116
-89
-46
16
104
217
343
462
552
579
563
451
251
16
-198
-342
-388
-351
-267
-164
-56
42
121
181
212
223
216
196
157
114
72
45
26
13
8
15
29
52
68
71
73
76
85
97
107
114
122
129
135
141
149
164
187
198
204
208
213
217
222
228
236
248
249
240
226
224
250
288
312
321
321
310
299
289
279
271
242
205
170
160
154
149
146
143
139
133
135
149
163
177
178
166
148
128
112
95
60
12
-36
-81
-100
-107
-97
-87
-81
-76
-70
-63
-48
-36
-34
-33
-32
-30
-28
-26
-23
-19
-11
4
16
22
31
42
54
67
69
60
36
1
-13
-21
-26
-33
-42
-53
-64
-66
-64
-62
-60
-58
-57
-59
-64
-70
-78
-88
-98
-105
-112
-120
-131
-148
-162
-168
-172
-164
-150
-135
-124
-117
-108
-99
-89
-79
-79
-91
-124
-154
-165
-166
-162
-158
-155
-151
-149
-148
-147
-146
-145
-143
-141
-138
-133
-127
-118
-104
-96
-87
-74
-67
-63
-61
-58
-56
-55
-55
-56
-57
-59
-61
-63
-65
-69
-74
-79
-85
-98
-114
-121
-125
-129
-131
-133
-133
-134
-134
-134
-133
-132
-130
-129
-126
-118
-71
-4
87
199
320
433
508
515
472
324
116
-109
-298
-419
-446
-395
-308
-263
-248
-241
-237
-235
-224
-170
-98
-21
52
114
159
188
197
198
190
170
138
122
112
105
102
104
109
124
150
179
196
208
217
216
206
191
171
154
143
142
150
162
179
192
202
211
221
229
221
207
197
192
188
190
202
212
222
226
223
215
205
186
162
144
131
117
95
68
61
56
52
48
44
40
32
17
3
-9
-30
-63
-107
-149
-163
-168
-171
-173
-170
-163
-155
-146
-135
-130
-131
-134
-137
-141
-126
-109
-97
-87
-81
-71
-58
-47
-41
-53
-72
-88
-96
-100
-105
-112
-120
-129
-140
-140
-128
-111
-93
-85
-81
-78
-72
-65
-55
-46
-34
-26
-22
-19
-15
-9
-9
-18
-32
-47
-55
-60
-63
-65
-65
-65
-64
-63
-62
-61
-60
-59
-60
-62
-65
-66
-69
-71
-73
-75
-78
-81
-84
-88
-92
-98
-104
-118
-137
-127
-110
-88
-71
-60
-49
-39
-21
-3
10
8
-17
-36
-46
-52
-60
-69
-76
-84
-90
-94
-98
-101
-104
-107
-110
-110
-110
-109
-106
-104
-102
-99
-95
-92
-89
-84
-70
-13
73
191
331
460
524
513
399
180
-76
-289
-420
-445
-437
-372
-298
-235
-186
-151
-114
-60
-17
16
31
38
40
42
43
45
47
50
54
57
61
66
73
80
86
94
103
113
122
129
135
139
143
147
152
157
162
170
180
190
201
219
236
242
246
249
252
256
260
264
268
273
279
288
297
304
312
319
322
321
316
309
296
272
245
225
215
209
199
187
172
156
145
135
124
112
82
48
28
17
12
9
6
4
3
2
2
2
2
2
2
3
4
5
6
7
10
12
9
1
-2
-6
-10
-14
-16
-16
-14
-11
-9
-7
-5
-2
1
4
6
6
4
2
0
0
-1
-2
-4
-6
-7
-8
-9
-10
-12
-14
-15
-16
-15
-15
-15
-15
-14
-12
-10
-7
-5
-3
-2
-1
0
2
4
7
10
15
20
26
31
35
38
42
47
53
60
66
70
75
79
83
88
94
100
105
110
116
123
130
132
129
122
111
92
61
46
40
34
29
25
22
18
15
12
9
7
4
1
-2
-6
-8
-8
-3
4
13
29
59
109
175
265
379
506
612
648
631
510
294
39
-184
-350
-418
-420
-370
-283
-201
-131
-95
-84
-74
-65
-59
-52
-45
-41
-43
-50
-58
-67
-79
-86
-80
-69
-61
-55
-49
-45
-44
-45
-46
-48
-50
-52
-55
-52
-35
-21
-10
0
9
18
25
32
38
43
47
51
53
55
57
58
61
64
68
72
76
79
83
87
91
92
89
82
73
63
53
39
27
18
11
1
-11
-30
-56
-85
-101
-111
-120
-130
-140
-153
-167
-178
-187
-191
-195
-198
-201
-204
-206
-208
-208
-208
-207
-206
-204
-202
-199
-195
-192
-188
-185
-182
-179
-176
-173
-170
-168
-167
-167
-166
-166
-167
-168
-171
-175
-179
-184
-194
-194
-180
-159
-139
-132
-129
-126
-123
-121
-119
-116
-112
-108
-103
-99
-95
-92
-88
-85
-82
-79
-78
-77
-77
-77
-77
-78
-78
-80
-82
-85
-88
-92
-94
-94
-89
-82
-75
-68
-62
-54
-45
-37
-30
-22
-14
-5
5
14
23
30
37
42
44
41
36
30
22
13
1
-15
-26
-35
-45
-52
-55
-55
-52
-48
-44
-41
-36
-31
-30
-31
-33
-38
-35
-1
50
123
226
359
499
625
679
639
481
237
-28
-257
-391
-429
-388
-317
-265
-221
-191
-137
-83
-37
-20
-11
-3
2
9
18
23
26
29
31
33
36
38
41
43
46
48
52
57
64
72
79
86
94
101
111
123
134
142
150
156
162
165
165
164
162
159
156
153
148
150
168
187
207
220
228
234
239
242
242
239
233
225
216
203
192
182
165
143
122
96
68
38
5
-24
-43
-55
-64
-70
-75
-79
-84
-88
-90
-90
-90
-91
-90
-91
-92
-92
-92
-91
-89
-88
-86
-84
-87
-103
-112
-119
-124
-129
-132
-133
-134
-135
-135
-135
-136
-138
-135
-121
-111
-103
-95
-90
-86
-82
-76
-69
-81
-103
-116
-118
-119
-120
-121
-117
-111
-105
-103
-101
-100
-98
-97
-96
-95
-94
-93
-92
-90
-88
-87
-86
-85
-84
-84
-83
-83
-82
-80
-77
-71
-57
-50
-46
-44
-41
-39
-36
-33
-31
-29
-26
-23
-14
5
33
50
58
65
50
25
-1
-14
-20
-25
-29
-33
-37
-40
-43
-47
-52
-59
-73
-84
-93
-100
-104
-99
-86
-53
-16
22
70
137
224
332
449
554
611
610
549
394
183
-52
-263
-409
-446
-436
-348
-238
-132
-73
-54
-45
-42
-39
-27
6
54
104
115
116
116
116
115
112
109
107
104
102
102
104
109
116
128
146
163
184
201
213
219
223
225
227
228
231
235
241
247
252
257
263
267
270
272
275
278
284
288
283
274
268
264
260
256
253
250
247
244
240
236
230
221
212
203
174
141
103
63
39
14
-10
-34
-59
-75
-82
-88
-96
-105
-113
-119
-123
-128
-133
-138
-142
-145
-145
-145
-145
-143
-141
-138
-135
-130
-127
-124
-121
-118
-114
-109
-104
-100
-98
-99
-102
-107
-112
-116
-120
-124
-130
-135
-140
-144
-147
-148
-147
-146
-144
-142
-139
-135
-132
-128
-125
-123
-119
-113
-107
-103
-100
-100
-102
-105
-108
-112
-119
-131
-130
-111
-99
-89
-81
-75
-71
-69
-67
-65
-62
-59
-55
-51
-46
-40
-33
-29
-23
-18
-14
-12
-13
-18
-26
-34
-43
-52
-64
-76
-85
-92
-99
-104
-111
-118
-123
-124
-121
-116
-107
-94
-68
-36
-7
37
97
187
308
440
555
591
576
462
257
19
-207
-373
-437
-438
-376
-289
-213
-158
-114
-83
-58
-42
-30
-20
-12
-6
-1
2
6
9
11
13
15
16
18
20
22
25
28
32
36
40
44
48
54
61
69
76
82
89
97
114
143
168
186
199
206
211
216
220
222
222
221
219
218
217
216
213
212
210
210
211
212
213
214
217
219
218
211
198
177
149
113
63
37
25
18
12
8
5
2
0
-4
-7
-10
-13
-16
-20
-25
-31
-36
-38
-36
-34
-32
-31
-31
-30
-27
-23
-19
-14
-10
-7
-4
-1
2
3
3
0
-5
-12
-18
-23
-28
-34
-40
-44
-45
-44
-43
-41
-40
-37
-34
-29
-24
-25
-35
-49
-64
-82
-93
-101
-110
-123
-144
-172
-203
-225
-242
-257
-278
-297
-303
-306
-309
-311
-312
-313
-313
-310
-307
-303
-298
-293
-288
-279
-269
-260
-251
-244
-237
-231
-229
-230
-234
-239
-246
-257
-269
-275
-280
-284
-288
-290
-291
-289
-285
-281
-277
-275
-273
-270
-266
-262
-257
-253
-248
-241
-210
-164
-95
0
117
240
350
385
370
253
49
-178
-372
-484
-503
-483
-415
-345
-291
-266
-252
-243
-233
-221
-203
-173
-152
-143
-135
-130
-125
-122
-119
-115
-107
-89
-68
-45
-31
-26
-23
-21
-18
-14
-10
-7
-5
-1
3
16
41
58
67
75
83
92
99
107
114
121
128
135
141
146
150
154
158
161
164
166
167
167
168
167
166
165
163
161
158
155
150
143
127
113
95
71
44
18
-3
-19
-33
-39
-44
-48
-52
-55
-57
-57
-57
-57
-57
-57
-56
-55
-54
-53
-53
-54
-54
-54
-51
-47
-43
-40
-38
-36
-34
-31
-29
-26
-24
-22
-19
-16
-13
-10
-6
-2
2
10
18
26
31
36
41
50
63
76
83
88
91
93
96
101
105
109
114
120
130
149
164
186
212
226
232
237
241
245
251
257
263
270
280
294
307
317
350
405
467
508
520
529
532
532
528
520
508
470
413
357
338
330
325
320
315
312
312
317
324
329
333
336
339
343
347
351
356
362
371
388
423
483
561
669
814
981
1132
1197
1134
945
684
399
162
64
67
182
377
564
680
698
675
592
502
438
414
415
432
456
481
497
509
507
491
472
452
438
428
420
415
415
416
417
419
422
423
418
406
392
375
358
336
312
297
289
279
268
256
241
222
208
197
188
178
168
160
152
145
145
149
155
160
166
171
173
170
161
149
129
96
66
32
-4
-36
-63
-90
-111
-127
-144
-162
-179
-196
-208
-215
-222
-229
-236
-243
-252
-265
-285
-304
-318
-330
-338
-338
-332
-320
-303
-273
-243
-223
-217
-212
-207
-218
-248
-288
-333
-350
-358
-364
-367
-361
-346
-322
-294
-274
-261
-275
-298
-321
-333
-340
-345
-347
-347
-339
-327
-313
-301
-287
-274
-264
-256
-247
-234
-217
-211
-207
-205
-203
-202
-201
-201
-199
-197
-194
-189
-184
-179
-175
-170
-163
-154
-147
-140
-134
-129
-124
-119
-114
-110
-107
-107
-110
-116
-124
-131
-138
-143
-150
-157
-164
-169
-172
-172
-171
-169
-165
-161
-157
-152
-146
-138
-131
-125
-119
-110
-75
-6
99
246
412
558
607
588
444
207
-50
-276
-436
-512
-520
-481
-394
-292
-208
-144
-100
-84
-79
-81
-87
-92
-97
-100
-95
-84
-72
-57
-37
-23
-13
-5
0
3
6
9
11
12
14
16
21
27
34
41
49
58
68
76
82
88
94
98
102
107
113
122
131
138
143
148
153
158
164
168
171
173
175
176
176
175
173
169
165
161
157
152
139
112
87
61
35
8
-12
-25
-41
-59
-69
-76
-81
-85
-88
-92
-96
-100
-104
-107
-111
-115
-119
-122
-124
-127
-130
-133
-136
-139
-139
-137
-134
-131
-129
-127
-125
-123
-119
-115
-111
-109
-108
-107
-107
-107
-107
-108
-109
-111
-112
-112
-112
-111
-111
-111
-110
-109
-107
-101
-93
-88
-85
-84
-82
-80
-78
-77
-76
-75
-73
-70
-67
-64
-62
-59
-57
-53
-49
-44
-39
-32
-23
-4
10
16
19
23
28
32
35
30
17
3
-5
-12
-18
-24
-29
-35
-40
-44
-49
-52
-55
-57
-59
-60
-61
-63
-65
-70
-75
-78
-75
-65
-47
8
109
254
423
577
668
669
586
381
121
-125
-303
-368
-369
-312
-237
-196
-157
-118
-75
-40
-25
-17
-12
-7
-2
3
9
15
24
40
64
78
83
85
87
89
91
94
97
100
103
106
109
112
115
119
124
130
138
147
160
174
185
195
204
208
212
215
218
222
225
227
230
232
234
235
236
237
238
238
238
239
241
246
249
240
223
208
194
180
167
153
135
112
91
74
59
39
15
-9
-33
-44
-50
-54
-56
-58
-59
-60
-60
-61
-63
-65
-67
-67
-68
-68
-69
-70
-70
-70
-69
-69
-69
-71
-73
-74
-74
-73
-71
-70
-69
-68
-68
-66
-65
-64
-63
-64
-64
-64
-64
-64
-64
-65
-66
-67
-67
-66
-66
-65
-65
-64
-62
-60
-58
-57
-57
-57
-56
-54
-52
-51
-50
-48
-45
-41
-36
-32
-29
-28
-26
-23
-19
-15
-12
-10
-7
-3
1
4
5
1
-4
-11
-18
-25
-33
-43
-52
-61
-68
-73
-77
-82
-85
-88
-89
-88
-83
-77
-71
-59
-32
23
103
216
358
510
633
670
652
524
302
37
-212
-397
-449
-443
-359
-261
-181
-121
-79
-53
-25
-5
1
4
7
8
9
11
15
19
24
29
34
38
43
48
53
58
63
68
71
75
80
85
92
104
118
126
130
134
137
139
142
146
150
155
159
162
165
168
171
174
178
181
183
185
187
188
189
190
189
188
187
185
182
179
175
171
165
153
128
106
82
61
45
27
9
-8
-23
-32
-39
-44
-50
-56
-62
-68
-73
-78
-84
-87
-88
-86
-82
-77
-73
-70
-67
-63
-59
-57
-57
-58
-61
-64
-67
-70
-75
-80
-80
-76
-70
-66
-61
-56
-53
-51
-49
-47
-45
-43
-41
-39
-37
-36
-33
-29
-43
-68
-87
-92
-96
-98
-99
-100
-100
-100
-101
-101
-100
-98
-96
-92
-87
-82
-71
-47
-28
-14
-2
10
21
29
35
42
41
31
16
-1
-19
-37
-54
-72
-85
-95
-94
-81
-75
-72
-69
-66
-63
-61
-59
-56
-54
-53
-50
-47
-45
-42
-25
13
75
169
301
454
589
644
630
502
258
-35
-304
-489
-542
-536
-455
-344
-230
-132
-70
-46
-41
-37
-35
-31
-26
-22
-18
-11
5
29
39
42
44
46
49
53
58
63
69
75
86
104
115
121
125
128
131
134
138
141
144
148
153
163
185
199
208
214
217
219
219
220
223
227
224
221
218
218
222
225
228
230
230
224
214
204
191
183
176
170
163
156
136
102
67
48
33
22
8
-9
-33
-45
-50
-54
-57
-60
-63
-65
-67
-69
-70
-71
-73
-74
-75
-78
-83
-87
-87
-82
-74
-68
-61
-56
-54
-56
-61
-69
-81
-98
-108
-115
-115
-108
-100
-93
-94
-110
-124
-136
-145
-151
-155
-159
-164
-168
-168
-167
-165
-162
-159
-170
-181
-190
-193
-187
-174
-163
-153
-144
-137
-132
-120
-98
-82
-73
-67
-61
-56
-52
-46
-39
-35
-40
-51
-60
-71
-80
-88
-101
-119
-131
-139
-143
-139
-130
-114
-92
-78
-71
-65
-63
-64
-65
-68
-74
-71
-39
21
113
234
370
494
562
557
467
262
10
-221
-381
-443
-447
-407
-348
-284
-220
-162
-107
-64
-47
-36
-27
-18
-11
-5
-1
0
1
2
3
6
9
12
17
21
25
30
35
41
47
53
60
68
78
88
95
101
112
131
142
149
154
162
170
178
183
188
192
196
199
201
203
205
206
208
210
212
214
219
222
218
210
204
198
191
184
176
162
137
117
104
93
84
70
49
27
7
-5
-14
-24
-35
-42
-47
-51
-55
-59
-63
-66
-69
-72
-75
-80
-84
-87
-87
-84
-79
-73
-66
-59
-49
-40
-34
-30
-26
-23
-19
-16
-15
-15
-19
-25
-30
-36
-45
-50
-48
-44
-43
-43
-42
-42
-42
-41
-41
-40
-39
-38
-38
-38
-37
-36
-35
-35
-34
-33
-32
-31
-29
-26
-23
-19
-13
-5
1
7
12
20
30
30
15
-7
-32
-46
-55
-65
-74
-80
-84
-88
-92
-96
-100
-103
-106
-109
-113
-117
-122
-130
-136
-135
-130
-120
-92
-39
29
114
222
345
466
541
540
461
258
-7
-264
-451
-512
-510
-437
-350
-286
-255
-230
-200
-144
-104
-90
-85
-86
-89
-93
-96
-85
-76
-70
-65
-63
-66
-71
-78
-84
-90
-96
-98
-94
-85
-75
-68
-61
-53
-45
-38
-30
-23
-18
-15
-11
-8
-4
-1
0
3
5
8
10
13
16
19
22
24
27
30
32
34
35
34
32
28
23
18
12
6
-2
-12
-22
-31
-42
-58
-79
-91
-102
-114
-132
-152
-169
-174
-176
-178
-179
-180
-180
-181
-180
-177
-172
-166
-159
-153
-145
-137
-131
-126
-121
-116
-113
-111
-109
-108
-107
-106
-106
-105
-104
-103
-101
-99
-97
-96
-95
-94
-93
-91
-89
-87
-84
-80
-76
-67
-60
-57
-54
-52
-51
-50
-50
-49
-48
-48
-46
-44
-41
-40
-38
-36
-32
-28
-22
-7
15
23
27
31
35
38
40
41
42
42
41
39
35
31
26
21
16
10
-2
-13
-19
-23
-25
-27
-29
-32
-34
-37
-38
-40
-42
-50
-46
-2
82
208
371
560
730
825
824
730
515
240
-39
-268
-391
-406
-356
-238
-114
-14
39
59
69
79
90
112
128
139
145
151
155
160
163
166
170
173
175
179
182
186
188
190
192
195
200
212
236
262
277
281
284
286
289
292
297
303
309
318
330
338
343
346
349
352
353
351
345
338
330
322
312
302
292
283
276
269
262
255
249
241
223
195
174
158
143
123
96
66
39
18
3
-8
-18
-29
-42
-52
-61
-67
-73
-79
-86
-91
-96
-102
-108
-99
-95
-93
-91
-89
-88
-87
-87
-87
-87
-87
-87
-86
-87
-87
-86
-86
-86
-86
-86
-87
-87
-87
-87
-87
-87
-87
-86
-85
-83
-83
-85
-89
-94
-98
-104
-110
-115
-121
-131
-149
-170
-182
-186
-190
-193
-182
-163
-144
-115
-88
-60
-30
-20
-20
-30
-55
-90
-105
-112
-116
-119
-120
-120
-118
-114
-109
-102
-92
-92
-102
-131
-160
-177
-188
-195
-199
-199
-195
-189
-169
-138
-126
-121
-119
-116
-112
-108
-92
-30
69
200
343
463
514
461
298
52
-209
-415
-494
-495
-421
-324
-242
-194
-174
-159
-141
-120
-101
-84
-69
-62
-59
-56
-51
-45
-38
-31
-23
-16
-13
-11
-7
-3
-4
-15
-32
-45
-49
-53
-52
-43
-30
-11
8
29
53
75
90
99
108
114
121
127
134
143
156
174
182
186
189
192
193
194
194
193
191
188
185
181
175
166
157
149
135
115
99
86
75
65
54
45
19
-9
-40
-56
-64
-68
-71
-73
-76
-79
-83
-88
-97
-129
-162
-172
-177
-177
-171
-161
-145
-122
-87
-52
-40
-41
-54
-89
-122
-131
-137
-141
-143
-142
-139
-133
-126
-118
-105
-85
-73
-62
-53
-48
-45
-42
-38
-39
-54
-63
-68
-73
-78
-81
-84
-87
-90
-92
-94
-96
-98
-101
-104
-110
-114
-108
-99
-93
-89
-87
-84
-83
-80
-77
-73
-69
-65
-61
-56
-49
-37
-27
-19
-12
-7
-2
0
0
-4
-10
-17
-25
-35
-47
-58
-73
-88
-96
-100
-104
-107
-109
-110
-108
-105
-100
-95
-90
-85
-78
-72
-68
-62
-41
3
73
171
298
436
550
601
558
411
179
-90
-331
-485
-527
-476
-375
-269
-183
-126
-89
-77
-70
-65
-61
-52
-35
-15
5
29
48
56
59
62
63
65
67
70
73
77
81
85
90
95
101
107
113
119
126
137
152
165
174
182
189
196
202
205
208
211
215
218
220
222
223
225
225
226
225
225
224
222
221
220
218
216
213
210
202
180
161
146
134
119
99
78
58
41
27
15
-10
-49
-65
-70
-73
-76
-79
-80
-80
-79
-76
-73
-70
-68
-66
-64
-61
-59
-58
-56
-55
-54
-54
-55
-57
-58
-60
-61
-63
-64
-65
-67
-68
-71
-76
-81
-85
-84
-79
-72
-66
-63
-60
-56
-50
-45
-42
-39
-39
-40
-41
-42
-43
-46
-50
-55
-61
-74
-90
-95
-99
-101
-97
-86
-74
-60
-44
-22
-4
3
10
8
-10
-23
-34
-43
-49
-48
-44
-35
-23
-2
31
51
63
70
70
63
50
31
0
-37
-62
-70
-74
-78
-81
-83
-85
-88
-89
-90
-90
-91
-91
-91
-90
-90
-90
-89
-90
-93
-92
-76
-31
28
118
235
362
473
502
481
343
114
-142
-364
-488
-506
-477
-399
-331
-283
-256
-227
-193
-156
-118
-97
-86
-78
-73
-67
-62
-56
-51
-47
-42
-37
-32
-28
-24
-20
-16
-13
-10
-6
-1
4
10
18
27
36
45
52
60
68
77
85
94
104
116
127
136
144
148
151
154
157
160
162
164
166
167
167
167
166
165
163
160
157
153
149
145
139
130
109
91
68
39
7
-22
-46
-65
-81
-91
-97
-101
-105
-108
-111
-113
-114
-114
-115
-115
-117
-118
-119
-120
-120
-121
-122
-123
-122
-120
-117
-113
-110
-106
-103
-100
-98
-96
-94
-94
-94
-94
-95
-94
-93
-91
-90
-89
-88
-86
-85
-84
-84
-84
-84
-85
-85
-84
-83
-82
-81
-79
-77
-75
-73
-71
-70
-69
-68
-66
-65
-64
-63
-62
-61
-60
-58
-55
-52
-50
-47
-46
-44
-43
-41
-40
-39
-36
-33
-29
-24
-16
0
14
28
39
49
57
64
69
73
76
80
86
89
81
63
46
28
16
7
3
1
-1
-4
-6
-8
-10
-12
-12
-12
-12
-11
-10
-7
-4
0
5
10
15
27
60
129
221
334
454
557
589
571
446
226
-34
-277
-442
-476
-464
-363
-236
-124
-41
-13
-5
-1
0
4
12
24
35
43
51
58
64
69
73
77
81
84
88
92
95
98
100
102
105
108
112
117
123
128
134
142
152
162
171
179
186
190
195
199
204
207
210
211
212
213
214
214
212
210
208
205
202
198
194
189
182
169
157
146
137
130
122
111
98
82
51
10
-16
-37
-55
-78
-107
-133
-150
-157
-161
-165
-169
-174
-179
-184
-188
-192
-198
-204
-212
-219
-222
-224
-226
-228
-229
-230
-230
-230
-231
-231
-232
-232
-232
-231
-230
-230
-231
-232
-233
-233
-233
-234
-234
-235
-237
-238
-240
-241
-243
-246
-249
-253
-256
-259
-261
-263
-263
-262
-260
-257
-252
-247
-241
-235
-230
-223
-214
-204
-196
-192
-189
-187
-185
-182
-178
-175
-172
-169
-166
-161
-155
-145
-130
-112
-103
-97
-93
-89
-86
-82
-79
-77
-75
-72
-67
-56
-32
-2
22
36
44
53
63
74
85
97
107
113
119
130
146
155
162
165
161
153
149
145
142
139
138
136
134
133
131
131
131
131
132
132
133
135
137
141
144
149
157
179
202
229
286
363
465
586
708
799
812
786
644
428
182
-34
-181
-238
-203
-103
15
112
141
152
140
125
113
113
127
148
178
197
207
215
217
216
213
210
208
207
204
202
201
200
198
197
196
197
198
202
206
211
216
221
229
246
259
274
293
301
304
307
310
313
315
316
316
315
314
313
311
309
306
302
298
294
291
287
282
276
271
267
264
260
254
241
220
205
193
180
162
136
105
81
68
61
54
42
30
24
20
16
13
11
9
7
5
3
1
0
-2
-3
-4
-5
-5
-6
-7
-6
-6
-7
-8
-9
-10
-12
-13
-15
-18
-19
-21
-21
-20
-19
-19
-19
-20
-20
-21
-23
-26
-26
-15
-7
0
6
6
0
-8
-14
-20
-26
-29
-26
-19
-9
4
24
36
47
57
55
34
21
10
1
-4
-6
-4
-1
3
10
21
44
61
72
80
87
91
95
98
99
99
96
89
82
76
68
61
57
60
67
74
79
84
87
91
95
98
102
105
109
112
116
120
127
140
153
166
179
190
200
210
209
194
188
184
180
177
173
170
167
165
163
162
162
162
164
166
168
171
174
178
183
187
192
199
208
214
218
224
248
290
359
461
600
760
903
965
954
836
615
357
125
-34
-66
-56
25
113
181
238
270
293
307
318
327
338
352
367
375
380
384
388
390
393
397
401
405
410
416
422
428
436
445
454
461
469
474
478
482
486
489
492
495
497
499
501
503
504
505
505
504
503
503
502
500
498
496
493
489
486
481
470
457
442
427
415
403
395
386
375
361
346
330
315
300
282
256
235
222
212
203
188
165
139
114
97
86
75
64
54
45
36
27
16
1
-17
-36
-50
-61
-71
-79
-87
-96
-106
-117
-130
-145
-162
-181
-200
-218
-235
-245
-250
-255
-260
-265
-271
-276
-281
-285
-291
-299
-307
-316
-325
-330
-334
-339
-343
-347
-350
-353
-356
-360
-364
-368
-372
-375
-378
-384
-391
-396
-400
-404
-406
-409
-411
-414
-416
-418
-418
-417
-414
-411
-408
-405
-402
-400
-399
-398
-398
-399
-399
-398
-397
-396
-395
-395
-395
-395
-395
-394
-394
-394
-393
-392
-391
-390
-389
-388
-387
-385
-384
-382
-380
-378
-376
-374
-371
-368
-364
-359
-347
-335
-327
-320
-311
-298
-277
-263
-253
-245
-241
-242
-248
-258
-269
-284
-306
-320
-332
-344
-346
-346
-346
-346
-346
-348
-349
-349
-349
-347
-345
-343
-341
-339
-336
-333
-329
-326
-322
-316
-306
-268
-202
-105
25
170
301
364
360
273
89
-143
-371
-537
-593
-593
-534
-440
-345
-278
-255
-248
-244
-242
-238
-233
-226
-217
-199
-170
-150
-138
-127
-116
-106
-98
-89
-79
-68
-60
-51
-43
-36
-29
-22
-13
-3
8
21
35
49
61
72
79
85
90
96
106
117
128
136
144
151
158
164
169
173
177
180
183
187
190
194
199
204
208
207
203
197
188
179
167
155
143
131
119
104
88
64
30
5
-10
-23
-34
-39
-42
-46
-49
-51
-53
-54
-56
-57
-58
-59
-60
-60
-60
-59
-59
-58
-57
-55
-54
-52
-49
-47
-45
-43
-41
-40
-39
-38
-38
-38
-37
-33
-28
-25
-25
-28
-33
-38
-40
-41
-42
-44
-45
-47
-48
-49
-49
-49
-48
-47
-46
-45
-44
-44
-44
-45
-45
-46
-47
-48
-49
-49
-50
-51
-52
-52
-51
-51
-51
-52
-53
-54
-55
-56
-56
-56
-57
-57
-57
-57
-58
-58
-58
-58
-58
-58
-58
-59
-61
-62
-63
-62
-61
-59
-57
-55
-53
-50
-47
-44
-41
-39
-36
-33
-29
-23
-16
-9
-2
3
7
9
8
5
1
-3
-8
-13
-18
-25
-34
-42
-50
-56
-62
-65
-70
-74
-77
-80
-82
-84
-86
-88
-90
-90
-89
-88
-86
-84
-80
-77
-71
-64
-55
-14
60
161
283
407
497
506
463
299
68
-173
-369
-476
-511
-497
-455
-383
-314
-251
-188
-148
-114
-89
-72
-63
-58
-53
-49
-46
-44
-41
-38
-35
-33
-30
-27
-24
-21
-17
-13
-8
-2
4
11
18
28
39
53
75
89
96
102
107
112
118
124
131
138
147
158
175
185
191
193
196
198
201
204
206
207
207
207
207
207
205
202
197
192
187
181
175
158
122
94
72
48
24
0
-20
-36
-48
-58
-68
-78
-85
-89
-91
-93
-95
-96
-97
-98
-99
-99
-100
-101
-101
-101
-101
-101
-101
-100
-99
-98
-97
-97
-97
-98
-99
-101
-102
-104
-105
-106
-108
-109
-110
-111
-114
-118
-121
-120
-116
-109
-102
-98
-94
-90
-86
-82
-80
-79
-79
-80
-81
-82
-83
-84
-86
-87
-89
-91
-93
-95
-96
-96
-96
-96
-95
-93
-91
-87
-84
-80
-77
-73
-70
-68
-66
-64
-63
-62
-61
-60
-58
-56
-54
-52
-51
-50
-49
-48
-47
-46
-45
-45
-45
-44
-43
-42
-40
-37
-34
-31
-26
-18
-9
0
9
18
29
42
49
43
31
20
10
0
-7
-16
-27
-41
-51
-56
-59
-62
-65
-66
-67
-67
-67
-66
-64
-61
-57
-51
-44
-32
-18
15
63
132
224
338
459
566
593
571
435
212
-40
-257
-381
-400
-372
-284
-183
-101
-61
-49
-42
-34
-28
-21
-10
5
20
32
39
45
51
58
64
69
73
77
80
84
89
94
99
105
112
119
127
136
143
148
151
155
162
174
191
208
225
244
252
257
261
265
267
269
270
272
275
277
278
280
281
281
282
282
283
284
286
289
296
295
280
263
244
229
208
179
146
110
76
52
39
27
14
-5
-13
-16
-20
-23
-26
-28
-31
-32
-34
-35
-36
-37
-36
-35
-34
-33
-33
-33
-32
-31
-31
-31
-32
-33
-33
-33
-32
-32
-32
-32
-32
-31
-31
-32
-34
-37
-39
-39
-39
-38
-38
-38
-37
-36
-34
-33
-31
-30
-29
-28
-26
-24
-22
-20
-17
-12
-9
-9
-15
-23
-29
-35
-40
-45
-48
-52
-56
-61
-68
-72
-68
-60
-55
-52
-49
-47
-45
-43
-41
-40
-38
-37
-37
-37
-36
-36
-34
-33
-31
-29
-27
-26
-23
-18
-12
1
21
34
42
42
38
35
33
31
30
30
30
32
34
37
40
47
55
43
22
-2
-22
-38
-51
-68
-84
-96
-103
-96
-73
-39
-6
15
36
58
81
104
143
199
285
399
525
621
630
580
404
166
-78
-276
-381
-396
-367
-294
-223
-165
-115
-60
-7
21
28
33
36
41
45
49
54
59
67
74
74
68
60
53
45
41
47
58
68
78
87
97
104
109
113
117
121
125
128
132
141
158
171
178
184
191
198
207
219
225
227
230
231
233
234
234
235
235
235
235
233
231
228
225
221
216
209
194
181
165
146
115
80
58
38
23
6
-14
-40
-60
-74
-86
-91
-94
-97
-99
-101
-102
-102
-102
-102
-102
-102
-103
-103
-103
-103
-102
-102
-101
-102
-102
-103
-104
-104
-105
-106
-106
-106
-106
-105
-104
-103
-103
-102
-102
-103
-102
-101
-100
-99
-99
-97
-94
-92
-93
-95
-96
-97
-99
-101
-102
-104
-105
-106
-107
-109
-110
-111
-111
-112
-115
-117
-115
-109
-105
-101
-97
-93
-87
-82
-78
-74
-70
-67
-65
-63
-61
-58
-55
-52
-48
-45
-41
-37
-31
-24
-18
-11
-4
1
6
11
16
20
23
24
22
19
15
8
1
-9
-27
-35
-39
-42
-45
-48
-50
-51
-52
-53
-53
-53
-52
-51
-48
-46
-42
-38
-34
-24
-1
43
113
210
328
452
559
599
584
471
266
26
-188
-330
-380
-381
-335
-257
-173
-102
-46
-17
-10
-6
0
8
17
26
37
45
46
41
35
29
22
18
20
32
46
57
68
77
82
86
89
93
96
98
101
105
110
115
120
127
138
157
169
200
241
256
263
269
268
250
237
227
218
212
212
214
218
222
226
232
235
230
218
204
188
174
159
144
127
111
97
84
73
55
30
10
-4
-20
-41
-70
-85
-92
-97
-102
-105
-109
-112
-115
-117
-119
-121
-125
-130
-135
-137
-134
-128
-119
-102
-88
-85
-83
-81
-80
-80
-81
-84
-87
-90
-94
-97
-96
-93
-90
-87
-84
-81
-79
-77
-77
-77
-78
-79
-81
-84
-88
-92
-92
-87
-79
-74
-69
-64
-62
-63
-66
-70
-77
-90
-113
-128
-136
-141
-143
-142
-137
-129
-116
-93
-54
-11
20
32
36
31
19
0
-26
-50
-72
-89
-100
-92
-68
-34
1
14
26
34
42
47
47
40
28
7
-14
-22
-27
-31
-33
-34
-33
-30
-28
-24
-19
-21
-36
-48
-58
-66
-66
-59
-46
-26
-2
28
63
105
156
221
306
403
494
539
532
449
270
44
-166
-316
-362
-358
-291
-213
-152
-112
-90
-68
-49
-31
-10
5
16
23
27
30
33
34
35
36
39
42
45
50
54
57
61
64
68
72
76
80
85
91
101
118
130
146
167
178
183
186
190
192
195
197
200
203
206
209
213
216
219
223
227
232
235
237
236
233
229
224
218
211
198
189
181
169
149
125
99
69
42
16
-9
-35
-61
-82
-96
-104
-108
-110
-112
-114
-116
-119
-121
-122
-123
-123
-123
-122
-121
-118
-115
-113
-110
-107
-104
-101
-98
-95
-92
-88
-84
-80
-77
-74
-73
-72
-72
-73
-74
-76
-79
-82
-86
-88
-91
-96
-101
-106
-109
-108
-105
-100
-95
-92
-89
-86
-83
-79
-77
-75
-75
-75
-76
-78
-80
-82
-84
-86
-87
-90
-92
-94
-96
-96
-95
-92
-88
-84
-79
-74
-69
-64
-58
-50
-42
-33
-26
-18
-11
-5
-1
0
-1
-3
-7
-11
-17
-25
-40
-59
-73
-85
-93
-97
-99
-101
-102
-104
-105
-103
-100
-97
-94
-92
-95
-100
-105
-111
-110
-99
-71
-12
82
218
390
565
685
691
599
338
-7
-341
-572
-660
-612
-480
-328
-200
-115
-90
-84
-79
-76
-77
-82
-91
-103
-116
-100
-74
-40
-9
10
18
24
30
33
29
21
14
5
0
0
8
19
27
32
37
42
46
51
55
60
66
71
79
90
102
114
135
168
199
220
225
228
231
233
234
231
222
212
205
200
194
189
184
178
174
170
165
159
144
117
92
66
45
29
10
-5
-17
-28
-38
-45
-48
-51
-54
-56
-58
-60
-61
-62
-64
-65
-67
-68
-69
-70
-70
-69
-68
-67
-65
-63
-61
-59
-56
-55
-53
-52
-51
-49
-47
-46
-44
-43
-41
-39
-37
-35
-34
-33
-34
-34
-34
-33
-33
-34
-34
-35
-36
-37
-38
-39
-40
-42
-44
-47
-49
-52
-54
-56
-58
-60
-64
-68
-72
-73
-70
-65
-57
-49
-40
-29
-16
-3
8
17
25
33
39
43
46
48
50
51
53
55
54
46
35
24
10
-3
-17
-23
-27
-32
-36
-40
-44
-46
-47
-48
-48
-48
-48
-46
-44
-40
-36
-33
-29
-11
36
122
246
403
558
673
686
638
449
187
-79
-289
-399
-414
-388
-322
-267
-239
-200
-155
-99
-43
5
22
29
26
20
15
10
6
4
9
19
32
46
64
75
83
88
92
96
99
101
102
101
99
95
89
81
64
44
35
28
29
46
63
83
101
125
157
192
212
220
226
211
200
194
188
184
181
179
179
180
180
180
180
182
184
189
174
129
76
21
-28
-53
-67
-77
-83
-85
-81
-74
-66
-56
-57
-78
-109
-137
-149
-156
-160
-161
-155
-147
-136
-122
-109
-96
-85
-86
-101
-112
-122
-130
-133
-131
-126
-118
-109
-95
-78
-62
-48
-47
-60
-96
-140
-155
-159
-163
-165
-164
-157
-144
-123
-95
-79
-67
-62
-63
-67
-73
-79
-70
-66
-64
-63
-63
-63
-64
-64
-64
-62
-61
-59
-58
-57
-56
-55
-53
-52
-50
-48
-46
-43
-37
-27
-18
-12
-7
-3
1
4
5
4
0
-8
-18
-29
-44
-59
-73
-82
-89
-95
-100
-104
-106
-105
-102
-98
-93
-88
-80
-68
-57
-46
-14
34
101
185
285
387
470
481
451
308
93
-145
-343
-442
-454
-419
-361
-334
-312
-291
-253
-183
-102
-33
-8
0
5
7
7
2
-6
-16
-30
-50
-58
-67
-75
-65
-31
9
50
75
91
101
107
107
101
93
84
72
72
89
102
112
120
127
132
136
142
148
154
161
168
181
204
221
233
237
231
220
212
206
201
196
191
188
185
181
175
166
155
141
101
62
39
22
11
-1
-15
-25
-33
-40
-47
-54
-60
-65
-68
-70
-73
-75
-77
-79
-80
-81
-83
-84
-86
-87
-86
-85
-84
-83
-81
-79
-77
-74
-72
-70
-68
-66
-65
-63
-62
-60
-57
-53
-48
-44
-40
-37
-35
-34
-33
-32
-32
-32
-33
-34
-34
-33
-32
-33
-37
-44
-51
-57
-63
-69
-74
-77
-78
-76
-72
-66
-58
-48
-31
-19
-13
-10
-7
-5
-4
-3
-2
-1
0
0
0
0
0
-2
-4
-7
-9
-12
-16
-20
-24
-29
-37
-54
-68
-77
-84
-89
-92
-92
-86
-78
-68
-57
-44
-31
-21
-10
31
91
175
284
411
529
599
596
516
323
71
-180
-370
-449
-452
-391
-289
-189
-108
-61
-47
-37
-27
-19
-12
-6
-1
3
8
13
18
22
27
32
37
41
45
48
50
53
57
61
66
69
72
74
76
79
83
87
99
127
141
148
154
159
163
166
170
173
177
181
185
188
192
196
201
206
210
213
215
216
215
215
214
211
206
200
193
185
167
135
109
80
46
11
-10
-21
-30
-38
-45
-53
-59
-65
-69
-72
-76
-79
-81
-82
-84
-87
-89
-91
-92
-93
-93
-94
-94
-94
-94
-92
-90
-88
-86
-84
-82
-80
-77
-75
-74
-73
-72
-70
-68
-65
-63
-62
-61
-61
-61
-61
-61
-61
-62
-64
-66
-67
-68
-68
-69
-70
-73
-75
-77
-77
-76
-75
-73
-72
-71
-69
-67
-63
-59
-54
-49
-44
-39
-33
-27
-23
-19
-17
-14
-11
-7
-3
-2
-2
-4
-5
-6
-6
-6
-6
-8
