67
75
80
76
67
51
26
7
-4
-18
-34
-50
-65
-79
-90
-104
-120
-133
-139
-142
-146
-148
-150
-150
-150
-150
-150
-150
-150
-148
-146
-143
-141
-139
-136
-135
-133
-131
-128
-126
-124
-123
-123
-123
-124
-124
-122
-120
-117
-115
-112
-108
-104
-99
-94
-88
-82
-73
-64
-56
-45
-30
-11
-5
0
4
7
2
-5
-11
-16
-21
-23
-19
-9
3
20
46
64
81
99
118
135
149
163
176
186
194
201
207
212
217
220
222
224
226
227
229
230
230
229
229
228
228
229
231
232
232
233
234
236
238
241
245
249
257
276
294
319
342
350
355
358
361
363
365
367
369
370
372
374
376
380
399
445
516
620
765
941
1123
1283
1394
1419
1407
1320
1179
998
788
566
359
197
85
14
-8
-12
-13
-15
-15
-17
-18
-21
-23
-25
-28
-32
-36
-48
-76
-91
-98
-104
-108
-113
-116
-120
-123
-124
-125
-126
-127
-129
-131
-134
-137
-140
-143
-144
-144
-144
-143
-141
-138
-134
-129
-124
-119
-113
-101
-88
-76
-66
-58
-51
-45
-40
-35
-32
-29
-26
-21
-16
-16
-23
-35
-54
-80
-102
-125
-148
-173
-199
-227
-254
-284
-311
-331
-351
-372
-392
-406
-415
-421
-426
-431
-436
-441
-446
-451
-456
-461
-464
-463
-458
-450
-444
-441
-437
-434
-431
-428
-426
-424
-422
-419
-416
-414
-412
-412
-411
-411
-410
-410
-408
-406
-404
-401
-397
-393
-388
-383
-379
-375
-371
-365
-353
-323
-306
-298
-292
-288
-283
-279
-275
-272
-269
-265
-257
-243
-225
-200
-170
-139
-110
-82
-56
-33
-2
35
72
109
145
174
195
214
226
237
244
247
244
237
226
207
180
162
147
129
103
72
51
38
24
11
0
-13
-23
-32
-37
-41
-44
-47
-51
-55
-60
-65
-72
-80
-93
-105
-117
-131
-148
-163
-177
-190
-190
-176
-139
-73
25
159
320
496
660
786
843
844
790
663
493
299
97
-97
-270
-400
-462
-483
-473
-441
-390
-360
-344
-336
-330
-326
-323
-320
-317
-316
-314
-311
-308
-304
-297
-293
-297
-304
-308
-313
-317
-319
-318
-312
-303
-292
-280
-264
-251
-244
-237
-229
-217
-199
-184
-175
-166
-158
-150
-143
-136
-128
-120
-111
-101
-90
-77
-59
-45
-32
-22
-13
-7
-1
2
5
9
13
17
18
15
8
-1
-14
-33
-50
-67
-85
-104
-122
-141
-161
-182
-202
-221
-239
-257
-269
-275
-278
-282
-285
-287
-287
-286
-283
-279
-273
-266
-258
-248
-234
-220
-207
-201
-197
-195
-193
-191
-190
-190
-189
-187
-185
-182
-181
-180
-180
-178
-177
-175
-174
-171
-169
-166
-158
-150
-145
-147
-154
-165
-183
-210
-223
-231
-236
-240
-240
-236
-230
-223
-216
-206
-198
-193
-194
-198
-203
-207
-211
-215
-214
-207
-197
-185
-167
-147
-133
-120
-111
-111
-117
-124
-129
-134
-139
-142
-143
-142
-138
-132
-127
-122
-116
-110
-105
-105
-111
-120
-130
-139
-148
-156
-162
-166
-168
-170
-172
-173
-175
-176
-178
-178
-176
-171
-164
-152
-128
-110
-102
-95
-87
-80
-71
-59
-13
62
173
327
528
755
968
1109
1122
1044
791
439
71
-231
-426
-481
-481
-421
-343
-278
-248
-224
-198
-174
-157
-140
-123
-107
-96
-90
-86
-84
-82
-80
-77
-74
-71
-68
-64
-59
-47
-23
-2
12
32
46
56
64
72
80
86
92
101
113
126
139
155
173
188
202
216
230
249
273
294
310
327
341
352
360
366
371
375
378
381
383
385
386
387
386
384
380
375
368
361
351
334
321
310
299
284
261
237
215
198
186
175
166
158
151
147
144
141
139
137
135
134
132
131
130
130
131
132
133
135
137
141
146
151
156
163
177
195
215
233
248
253
256
257
259
260
260
261
261
260
260
259
258
256
255
254
253
253
253
253
253
254
254
256
258
261
263
265
267
270
273
276
280
285
290
295
301
307
312
316
319
321
323
325
325
326
327
330
334
337
335
325
312
302
291
282
278
278
278
279
279
279
279
279
281
283
288
293
299
307
318
332
344
354
362
370
377
384
393
403
412
417
422
427
433
436
432
424
413
404
415
443
503
598
732
909
1123
1353
1569
1709
1719
1628
1342
948
537
213
34
4
11
76
141
194
211
217
221
223
218
208
204
200
197
194
191
188
184
181
178
176
174
170
167
163
159
154
148
143
140
136
134
130
127
123
119
117
118
122
130
140
159
191
210
222
232
242
252
258
264
269
273
276
280
283
286
289
292
296
301
308
314
314
306
293
277
255
239
219
189
158
136
120
100
75
34
-13
-45
-83
-117
-143
-162
-182
-199
-214
-228
-242
-257
-271
-286
-302
-314
-324
-332
-340
-345
-350
-356
-367
-381
-387
-390
-392
-394
-396
-397
-396
-393
-389
-384
-380
-375
-370
-365
-361
-357
-354
-351
-349
-349
-350
-351
-352
-352
-351
-350
-349
-348
-347
-347
-347
-348
-348
-349
-350
-351
-351
-350
-348
-345
-342
-340
-338
-336
-335
-334
-334
-334
-333
-333
-332
-331
-329
-326
-324
-322
-320
-319
-318
-317
-316
-314
-314
-313
-311
-309
-307
-305
-304
-301
-294
-297
-315
-335
-356
-374
-385
-392
-399
-404
-405
-399
-390
-381
-374
-367
-359
-352
-345
-340
-336
-333
-331
-330
-327
-325
-323
-321
-318
-315
-312
-308
-303
-294
-257
-196
-112
-1
136
308
512
733
928
1028
1023
902
629
280
-71
-356
-529
-564
-554
-473
-389
-317
-260
-211
-185
-175
-171
-167
-164
-162
-159
-155
-151
-146
-140
-133
-123
-101
-64
-39
-20
5
21
32
41
49
56
62
68
75
85
103
121
136
149
161
175
198
230
252
266
279
294
319
351
370
380
390
404
419
431
441
451
460
469
478
486
494
502
511
518
523
525
528
533
542
541
521
491
454
427
406
386
360
323
283
248
223
203
181
159
138
117
105
98
91
84
76
69
61
52
39
17
-9
-23
-29
-35
-39
-44
-48
-54
-59
-64
-69
-73
-77
-82
-87
-95
-104
-115
-125
-136
-148
-164
-185
-201
-214
-222
-228
-234
-238
-240
-240
-238
-232
-224
-216
-208
-203
-198
-193
-189
-185
-182
-180
-178
-177
-176
-175
-174
-172
-169
-166
-162
-158
-155
-152
-148
-144
-140
-136
-131
-125
-119
-113
-107
-102
-98
-95
-93
-91
-90
-89
-89
-88
-88
-88
-89
-90
-90
-88
-86
-84
-82
-78
-74
-70
-66
-61
-55
-44
-21
-2
6
12
17
22
27
31
34
38
42
45
47
50
54
60
69
86
103
121
150
188
247
331
456
629
843
1078
1299
1461
1521
1448
1237
924
566
241
6
-94
-127
-113
-67
-12
19
48
78
108
143
187
231
251
259
265
269
272
274
277
280
284
287
290
292
294
297
300
304
309
314
319
325
330
335
339
343
348
354
362
379
413
450
485
509
523
537
552
562
570
577
584
593
602
611
619
626
635
643
650
652
650
644
635
623
606
579
559
544
534
525
515
506
496
482
464
445
426
407
387
371
357
341
323
308
296
286
274
261
249
240
234
228
222
217
212
206
200
194
188
183
178
174
170
167
163
160
157
154
151
148
145
142
140
138
137
135
133
130
127
122
113
92
73
49
17
-15
-50
-87
-123
-151
-172
-195
-218
-241
-266
-292
-316
-335
-360
-395
-427
-451
-476
-495
-509
-522
-535
-546
-553
-559
-563
-568
-573
-578
-583
-589
-595
-601
-608
-617
-631
-646
-657
-667
-676
-683
-690
-698
-706
-715
-724
-736
-752
-770
-790
-800
-807
-814
-821
-826
-830
-833
-836
-838
-839
-839
-838
-836
-832
-828
-823
-818
-813
-808
-804
-800
-796
-792
-787
-782
-778
-773
-769
-766
-764
-762
-757
-748
-710
-650
-559
-428
-254
-46
178
389
521
529
436
170
-187
-555
-850
-989
-1035
-1017
-964
-891
-822
-781
-739
-700
-664
-626
-587
-553
-529
-510
-487
-467
-450
-436
-424
-406
-376
-340
-302
-261
-223
-188
-154
-124
-85
-55
-40
-29
-17
-6
5
18
35
49
62
77
94
117
141
166
191
215
240
266
299
340
369
386
397
403
407
410
413
415
417
419
421
422
422
421
419
417
413
408
404
399
393
386
376
356
337
318
300
282
260
234
213
197
184
174
167
161
157
154
151
149
148
148
148
148
150
152
154
155
156
157
156
156
155
154
153
152
151
150
149
148
146
145
144
144
143
141
137
133
133
138
146
150
153
156
159
161
163
165
167
169
168
166
161
155
147
138
128
120
111
101
82
69
66
63
62
60
58
56
55
55
56
58
62
65
67
69
67
64
58
52
46
39
33
27
21
14
3
-11
-25
-39
-52
-63
-73
-80
-85
-89
-93
-97
-101
-106
-111
-116
-120
-123
-125
-125
-124
-123
-123
-124
-125
-127
-130
-132
-135
-137
-139
-141
-143
-145
-149
-153
-158
-164
-172
-185
-194
-193
-178
-145
-60
63
236
451
690
917
1083
1106
1054
806
455
78
-244
-463
-538
-566
-542
-495
-446
-420
-406
-396
-387
-378
-370
-362
-353
-345
-337
-328
-318
-307
-296
-283
-266
-236
-188
-146
-96
-72
-62
-55
-49
-45
-42
-39
-36
-33
-30
-28
-28
-28
-27
-24
-19
-12
-1
18
41
65
86
104
122
141
157
174
190
207
223
236
245
251
258
265
272
280
289
296
302
308
313
319
327
335
339
339
331
319
301
276
242
231
224
217
222
253
298
354
392
418
430
437
445
453
448
415
378
338
306
280
259
241
223
207
198
191
185
180
175
170
165
160
155
151
148
143
137
130
118
97
74
49
28
12
-1
-17
-34
-49
-61
-70
-78
-86
-94
-101
-109
-116
-123
-131
-139
-148
-160
-178
-196
-210
-223
-233
-241
-247
-252
-258
-264
-272
-280
-289
-299
-309
-318
-326
-335
-343
-352
-361
-369
-376
-383
-388
-394
-402
-413
-431
-452
-479
-505
-532
-556
-577
-590
-601
-610
-617
-622
-626
-627
-625
-619
-611
-601
-590
-579
-569
-559
-548
-538
-527
-518
-511
-506
-501
-498
-495
-493
-490
-486
-482
-478
-473
-469
-463
-459
-454
-448
-439
-425
-391
-336
-260
-158
-24
145
349
567
755
829
813
653
343
-30
-382
-648
-780
-825
-811
-770
-686
-627
-587
-566
-552
-540
-528
-517
-509
-503
-497
-492
-488
-485
-482
-478
-473
-468
-463
-459
-454
-448
-441
-433
-425
-416
-406
-396
-386
-376
-368
-361
-354
-347
-339
-327
-311
-293
-277
-260
-240
-212
-172
-134
-102
-87
-79
-74
-71
-68
-66
-63
-61
-60
-60
-59
-61
-64
-70
-77
-86
-96
-108
-134
-181
-223
-264
-305
-348
-394
-442
-481
-510
-550
-570
-580
-587
-593
-597
-602
-608
-616
-623
-631
-637
-644
-649
-653
-658
-663
-669
-676
-684
-691
-698
-702
-703
-702
-696
-688
-677
-665
-652
-638
-622
-596
-573
-564
-560
-556
-553
-551
-548
-546
-545
-544
-544
-549
-558
-569
-584
-599
-618
-647
-671
-690
-699
-705
-709
-712
-715
-717
-720
-723
-725
-725
-724
-720
-714
-708
-701
-692
-683
-673
-662
-650
-632
-612
-594
-573
-552
-536
-522
-509
-498
-489
-484
-482
-484
-487
-495
-505
-517
-530
-545
-567
-591
-614
-639
-668
-703
-727
-744
-760
-776
-797
-825
-858
-897
-931
-976
-1028
-1074
-1126
-1185
-1242
-1286
-1320
-1360
-1399
-1437
-1478
-1511
-1538
-1557
-1567
-1576
-1582
-1588
-1592
-1596
-1599
-1599
-1596
-1585
-1570
-1550
-1482
-1373
-1223
-1037
-842
-668
-581
-589
-714
-990
-1339
-1682
-1939
-2025
-2053
-2013
-1894
-1794
-1710
-1627
-1526
-1414
-1302
-1191
-1083
-1022
-963
-905
-848
-789
-687
-569
-428
-262
-70
155
416
692
970
1246
1517
1776
2018
2234
2417
2562
2671
2730
2783
2845
2888
2911
2926
2934
2939
2942
2945
2948
2951
2954
2957
2959
2959
2957
2950
2939
2925
2907
2882
2839
2805
2762
2712
2668
2617
2572
2538
2507
2482
2460
2440
2422
2392
2342
2294
2259
2227
2184
2134
2089
2035
1981
1944
1916
1898
1883
1872
1868
1877
1900
1932
1986
2068
2144
2221
2300
2382
2435
2468
2488
2490
2476
2452
2415
2353
2290
2226
2159
2100
2049
1998
1947
1890
1825
1758
1690
1619
1543
1463
1377
1295
1215
1142
1076
1009
971
954
943
935
932
934
942
951
960
968
976
985
994
1002
1008
1012
1010
1005
995
982
967
951
931
909
886
863
840
819
794
773
767
775
793
821
894
1010
1137
1267
1324
1356
1380
1379
1337
1225
1070
877
672
477
304
160
38
-72
-180
-294
-370
-456
-528
-631
-726
-819
-923
-989
-1063
-1128
-1174
-1208
-1243
-1277
-1311
-1346
-1382
-1419
-1455
-1503
-1568
-1627
-1671
-1719
-1748
-1769
-1786
-1797
-1802
-1801
-1795
-1783
-1765
-1729
-1665
-1561
-1420
-1232
-1000
-749
-530
-433
-446
-614
-925
-1293
-1636
-1872
-1920
-1937
-1892
-1815
-1727
-1639
-1551
-1505
-1482
-1463
-1449
-1439
-1431
-1426
-1422
-1419
-1419
-1420
-1423
-1425
-1426
-1426
-1425
-1423
-1419
-1413
-1406
-1398
-1389
-1378
-1362
-1329
-1299
-1284
-1275
-1268
-1263
-1257
-1251
-1245
-1239
-1233
-1226
-1219
-1210
-1201
-1188
-1168
-1126
-1094
-1070
-1040
-1005
-968
-937
-911
-884
-855
-809
-740
-669
-592
-505
-431
-368
-296
-251
-227
-208
-196
-190
-189
-188
-189
-189
-190
-190
-190
-191
-199
-219
-246
-280
-329
-376
-424
-466
-489
-499
-505
-509
-512
-515
-517
-518
-519
-516
-510
-501
-488
-473
-457
-436
-397
-360
-324
-288
-252
-220
-193
-162
-126
-95
-70
-50
-33
-18
-6
1
6
12
17
23
28
30
33
39
44
50
60
73
88
104
124
161
191
205
213
218
226
232
235
233
227
216
200
183
169
160
155
151
147
145
143
142
140
140
144
149
153
154
154
152
148
141
132
122
113
104
94
82
63
39
15
-3
-19
-33
-48
-64
-80
-98
-119
-141
-163
-184
-204
-222
-234
-243
-250
-257
-264
-270
-277
-285
-294
-301
-307
-313
-319
-325
-331
-340
-348
-360
-372
-382
-385
-378
-358
-324
-233
-124
13
182
373
563
683
721
655
457
122
-244
-563
-782
-863
-895
-863
-804
-733
-673
-630
-601
-584
-571
-558
-548
-540
-536
-538
-543
-549
-556
-564
-572
-578
-582
-587
-594
-603
-613
-623
-628
-628
-619
-606
-591
-576
-563
-552
-545
-541
-536
-530
-524
-517
-509
-501
-495
-489
-484
-476
-468
-458
-442
-419
-393
-374
-362
-353
-348
-344
-343
-343
-343
-342
-341
-340
-340
-341
-344
-350
-358
-368
-379
-390
-400
-408
-413
-418
-426
-437
-449
-462
-476
-490
-504
-516
-528
-537
-544
-550
-556
-561
-565
-567
-569
-573
-577
-581
-586
-592
-599
-605
-611
-617
-622
-627
-635
-645
-657
-668
-677
-684
-689
-692
-692
-691
-691
-693
-698
-704
-710
-714
-716
-716
-716
-718
-721
-725
-730
-735
-739
-741
-740
-736
-728
-718
-708
-696
-684
-672
-660
-645
-624
-599
-576
-557
-538
-522
-508
-494
-481
-468
-455
-442
-429
-414
-397
-375
-352
-326
-299
-275
-250
-228
-214
-202
-193
-188
-184
-182
-180
-177
-175
-172
-167
-162
-155
-148
-140
-132
-124
-116
-108
-102
-95
-89
-83
-78
-72
-65
-58
-51
-44
-37
-30
-24
-18
-12
-4
3
14
26
40
54
66
77
84
89
94
100
110
137
191
278
398
560
754
956
1135
1224
1253
1199
1036
761
437
131
-95
-172
-200
-159
-90
-16
29
53
72
90
107
121
132
141
152
165
183
203
224
240
249
255
260
266
272
278
285
292
298
303
306
306
306
304
302
299
297
297
299
303
308
313
319
324
330
336
344
363
385
403
420
435
448
458
466
472
476
478
479
477
472
464
454
442
429
416
403
388
372
357
343
332
322
310
297
279
251
228
209
196
187
179
171
162
152
142
132
121
107
89
71
55
41
34
29
24
20
17
14
12
9
8
7
6
5
4
3
2
0
-1
-2
-4
-6
-9
-12
-14
-17
-19
-21
-24
-29
-35
-42
-52
-67
-85
-100
-109
-115
-122
-128
-134
-140
-147
-154
-160
-162
-162
-161
-161
-161
-162
-162
-163
-163
-160
-155
-150
-146
-144
-141
-140
-139
-138
-135
-131
-126
-122
-119
-117
-114
-110
-107
-105
-103
-100
-100
-102
-107
-111
-114
-117
-119
-121
-122
-125
-127
-127
-125
-120
-113
-105
-96
-88
-79
-70
-60
-50
-40
-30
-22
-13
-4
9
31
50
63
71
76
78
80
83
88
92
96
105
121
194
310
468
665
887
1101
1239
1286
1232
1066
772
434
117
-125
-256
-300
-284
-233
-145
-83
-23
17
46
63
74
82
89
99
109
122
136
156
182
205
225
239
248
256
264
271
279
285
291
296
300
307
314
319
322
325
329
334
340
347
352
358
367
376
386
398
417
438
456
471
485
499
514
528
538
544
549
554
558
562
566
569
570
568
561
547
530
513
498
481
464
448
433
416
393
366
345
329
315
302
288
275
265
257
252
248
243
237
225
211
192
167
154
149
146
143
141
139
138
141
148
158
166
172
176
177
177
176
173
171
167
161
153
144
136
130
125
121
116
112
108
102
92
82
74
67
62
56
50
43
35
29
22
15
7
-1
-11
-26
-37
-43
-48
-54
-58
-60
-59
-56
-50
-43
-36
-29
-24
-23
-29
-41
-56
-68
-82
-98
-111
-120
-126
-133
-139
-143
-150
-159
-170
-179
-186
-194
-200
-207
-215
-224
-232
-239
-246
-252
-256
-259
-263
-266
-266
-267
-267
-267
-265
-262
-259
-256
-254
-253
-253
-252
-253
-254
-255
-253
-251
-248
-244
-240
-224
-179
-99
14
169
365
586
800
962
1022
943
727
408
51
-267
-480
-540
-561
-536
-460
-396
-359
-332
-313
-293
-274
-251
-225
-198
-181
-172
-165
-160
-156
-151
-146
-140
-135
-129
-122
-114
-107
-102
-98
-95
-90
-84
-78
-71
-61
-48
-35
-24
-11
4
29
56
82
104
120
132
144
159
174
182
190
199
206
210
212
213
213
214
215
213
211
209
208
208
206
202
196
192
190
188
183
174
151
124
97
68
42
21
3
-15
-36
-47
-53
-56
-59
-62
-63
-65
-67
-67
-67
-67
-66
-67
-67
-68
-70
-72
-75
-77
-80
-83
-86
-89
-90
-90
-88
-86
-83
-79
-71
-63
-57
-53
-49
-43
-39
-38
-38
-42
-42
-43
-45
-47
-51
-55
-58
-62
-64
-67
-70
-71
-72
-74
-77
-81
-84
-88
-92
-95
-97
-96
-93
-90
-86
-82
-78
-74
-70
-65
-53
-40
-30
-20
-11
-4
2
5
7
6
3
-2
-10
-19
-29
-42
-61
-79
-93
-103
-111
-118
-123
-125
-125
-123
-119
-114
-108
-103
-99
-95
-91
-87
-83
-80
-78
-76
-75
-74
-73
-73
-71
-70
-68
-67
-65
-64
-64
-63
-62
-59
-55
-43
-7
60
158
295
475
688
906
1091
1173
1167
1051
807
489
166
-96
-257
-310
-330
-311
-277
-234
-187
-141
-106
-79
-54
-42
-35
-31
-27
-24
-20
-16
-13
-9
-4
0
3
8
13
20
28
35
42
48
53
57
61
65
69
72
77
82
88
94
102
113
131
149
165
184
207
234
248
256
263
270
275
279
282
285
287
288
288
288
288
289
290
293
295
295
293
287
278
268
256
239
222
208
191
170
146
125
108
92
77
65
55
46
38
30
22
17
11
5
1
-1
-3
-3
-1
0
5
10
16
22
30
45
51
53
54
55
57
59
61
62
63
63
61
58
54
50
46
42
39
37
36
32
27
24
23
26
32
39
45
49
53
57
62
66
69
70
70
69
67
65
62
60
56
52
47
42
40
46
56
66
72
79
87
93
97
97
94
89
83
78
74
70
66
61
57
52
48
44
39
34
28
22
14
4
-5
-13
-19
-24
-30
-37
-42
-44
-44
-44
-45
-45
-46
-46
-47
-47
-48
-48
-48
-47
-46
-45
-44
-42
-41
-40
-37
-32
-25
-15
23
104
222
383
592
836
1069
1235
1281
1176
924
567
182
-146
-357
-420
-420
-359
-285
-225
-195
-179
-170
-161
-152
-143
-136
-130
-124
-119
-113
-108
-104
-100
-96
-89
-78
-70
-63
-59
-56
-54
-52
-50
-47
-44
-40
-36
-31
-27
-22
-17
-11
-4
1
5
9
13
17
24
35
49
69
93
117
140
152
160
165
168
166
160
154
149
146
142
139
135
131
127
124
119
112
99
72
47
19
-10
-37
-54
-66
-78
-90
-108
-133
-158
-181
-195
-204
-209
-212
-213
-213
-214
-215
-215
-215
-213
-210
-206
-202
-200
-197
-194
-191
-188
-186
-184
-184
-184
-184
-185
-187
-189
-192
-196
-199
-203
-208
-215
-222
-231
-239
-249
-254
-249
-239
-229
-218
-207
-198
-189
-181
-177
-182
-191
-198
-204
-210
-215
-219
-222
-225
-229
-233
-235
-235
-231
-223
-214
-206
-196
-186
-179
-174
-169
-166
-163
-160
-158
-156
-157
-160
-166
-173
-181
-188
-200
-209
-213
-216
-219
-223
-227
-227
-220
-212
-208
-204
-201
-197
-194
-191
-188
-185
-183
-182
-181
-181
-181
-180
-180
-179
-179
-178
-176
-173
-170
-167
-163
-158
-154
-148
-141
-133
-126
-119
-90
-42
42
172
350
566
792
984
1075
1069
947
689
370
60
-175
-276
-309
-293
-242
-185
-138
-97
-73
-58
-51
-46
-40
-32
-25
-15
4
33
53
68
80
87
90
93
96
100
104
106
109
112
116
124
137
155
169
180
189
197
203
210
215
219
223
227
231
236
246
268
286
296
303
310
315
325
343
364
387
401
409
415
417
415
410
403
390
367
340
316
298
285
270
259
251
243
234
226
210
184
162
146
133
123
115
101
81
66
54
43
37
33
29
27
25
23
21
20
18
17
16
16
17
18
21
24
28
32
36
40
43
47
50
54
57
60
65
70
73
71
62
52
45
38
32
27
24
25
27
31
35
39
42
47
53
59
63
68
72
78
87
88
81
77
74
71
70
69
70
71
73
76
80
85
90
96
102
108
113
115
114
111
106
101
95
87
80
76
78
81
85
89
94
98
98
94
89
85
80
76
76
84
94
103
112
120
121
117
112
109
104
100
97
96
97
100
104
108
112
116
122
130
138
150
191
267
374
518
698
905
1111
1277
1354
1307
1121
818
462
137
-93
-177
-204
-185
-127
-70
-39
-16
0
13
31
54
67
75
80
83
86
89
92
95
99
102
106
110
113
116
119
123
128
133
138
144
149
154
158
161
164
168
171
176
180
185
188
191
194
198
202
207
215
231
248
259
266
272
276
278
276
271
265
259
253
247
241
235
229
224
219
211
199
179
159
132
104
79
54
30
0
-27
-44
-56
-65
-76
-89
-111
-136
-158
-170
-176
-180
-184
-187
-188
-190
-191
-191
-189
-186
-181
-175
-168
-160
-153
-143
-126
-112
-107
-104
-102
-100
-99
-98
-97
-96
-96
-97
-98
-99
-101
-104
-107
-111
-114
-116
-118
-120
-123
-127
-130
-132
-131
-129
-124
-119
-115
-111
-108
-104
-100
-96
-92
-88
-84
-81
-79
-78
-77
-77
-76
-76
-75
-75
-73
-70
-66
-62
-59
-61
-67
-75
-83
-88
-92
-97
-102
-107
-111
-115
-118
-122
-125
-128
-131
-134
-138
-141
-145
-150
-158
-166
-175
-184
-193
-201
-208
-215
-220
-225
-230
-235
-239
-243
-246
-249
-252
-256
-262
-267
-271
-271
-264
-253
-238
-212
-164
-81
37
197
394
609
805
923
929
840
586
241
-115
-421
-627
-705
-711
-664
-582
-502
-431
-363
-338
-331
-328
-326
-324
-322
-318
-314
-309
-304
-298
-291
-283
-270
-258
-246
-234
-226
-220
-215
-210
-205
-200
-195
-190
-184
-178
-170
-158
-139
-122
-108
-94
-80
-65
-50
-32
-12
12
28
39
48
58
67
76
86
99
116
132
148
158
166
172
177
181
183
181
176
169
159
148
131
102
82
61
40
14
-2
-12
-20
-28
-35
-43
-49
-55
-61
-69
-81
-92
-95
-95
-95
-95
-94
-94
-95
-96
-96
-91
-84
-76
-69
-65
-60
-55
-50
-45
-40
-36
-33
-29
-25
-20
-16
-13
-11
-9
-7
-5
-4
-3
-2
-2
-2
-2
-1
0
1
2
3
4
4
5
6
7
8
8
8
8
8
9
10
12
14
18
21
25
28
32
36
42
58
64
65
66
67
67
67
66
60
50
40
35
30
26
23
19
16
13
11
8
6
3
1
0
-2
-3
-4
-5
-6
-6
-6
-6
-6
-7
-7
-7
-8
-10
-12
-15
-17
-20
-21
-23
-24
-26
-28
-30
-32
-35
-40
-52
-59
-55
-45
-14
41
128
254
417
611
822
1018
1134
1136
1030
756
407
59
-211
-329
-367
-340
-294
-258
-239
-226
-207
-181
-144
-123
-114
-106
-100
-94
-90
-85
-81
-78
-75
-73
-71
-69
-67
-66
-64
-63
-60
-57
-54
-50
-46
-41
-37
-33
-29
-25
-20
-14
-6
3
12
19
26
35
48
67
85
94
100
105
108
111
114
117
120
122
124
126
129
131
135
142
148
148
138
126
114
102
90
80
70
60
49
38
27
15
1
-13
-28
-43
-58
-74
-86
-96
-105
-115
-124
-133
-141
-148
-153
-152
-142
-129
-117
-105
-94
-85
-77
-70
-64
-60
-56
-52
-47
-41
-36
-31
-27
-22
-18
-13
-8
-3
1
5
8
10
13
14
15
15
15
15
15
16
18
20
23
25
26
27
28
29
31
33
36
38
42
47
56
67
78
88
98
104
109
114
119
123
126
128
129
130
131
131
131
130
130
129
128
127
126
125
123
121
118
114
111
108
103
98
90
78
62
57
55
52
51
51
51
52
54
55
56
58
59
56
49
40
31
20
10
1
-6
-13
-19
-24
-28
-31
-33
-35
-36
-40
-46
-33
3
75
190
352
553
772
968
1078
1081
990
747
420
80
-207
-400
-477
-486
-454
-388
-322
-266
-215
-185
-169
-161
-156
-152
-147
-143
-139
-136
-133
-130
-127
-124
-122
-119
-117
-114
-111
-107
-103
-99
-95
-90
-84
-73
-62
-53
-44
-35
-27
-19
-11
-6
0
8
21
35
47
55
63
72
81
88
96
102
108
113
116
122
132
153
177
200
216
227
231
226
215
199
175
153
128
99
70
48
31
13
-2
-14
-25
-33
-46
-70
-91
-103
-116
-127
-135
-141
-146
-151
-154
-157
-159
-160
-162
-164
-168
-172
-172
-166
-155
-137
-114
-107
-105
-102
-100
-99
-98
-98
-98
-97
-96
-95
-95
-95
-95
-95
-96
-97
-97
-98
-98
-99
-99
-98
-98
-97
-96
-95
-98
-106
-110
-113
-116
-119
-121
-124
-127
-129
-132
-133
-134
-136
-138
-140
-141
-142
-141
-139
-135
-131
-126
-121
-114
-105
-96
-88
-79
-68
-55
-44
-34
-22
-8
0
6
13
17
13
5
1
-2
-5
-9
-12
-14
-16
-17
-18
-19
-18
-17
-14
-12
-9
-5
0
7
30
48
56
62
66
69
73
75
78
81
84
85
87
89
91
92
92
93
97
100
113
168
245
348
483
652
851
1061
1245
1316
1301
1147
861
511
166
-110
-283
-335
-331
-257
-150
-56
5
34
49
59
67
74
81
87
90
93
96
100
107
114
122
128
133
138
144
149
154
159
162
165
170
176
185
206
235
246
251
256
262
270
278
286
294
303
312
319
325
329
333
337
341
347
354
361
371
389
412
421
426
430
431
432
429
423
415
406
392
369
356
340
316
291
274
261
244
223
200
175
149
124
107
97
84
70
55
41
28
17
0
-29
-55
-74
-92
-104
-111
-117
-122
-128
-134
-140
-148
-161
-182
-191
-196
-200
-203
-206
-208
-212
-216
-220
-225
-229
-233
-236
-239
-241
-244
-247
-250
-254
-258
-262
-266
-269
-271
-272
-272
-272
-272
-272
-273
-274
-275
-277
-280
-284
-288
-291
-293
-295
-297
-298
-299
-299
-299
-300
-302
-307
-310
-303
-286
-270
-251
-241
-235
-231
-227
-224
-222
-221
-224
-229
-235
-240
-243
-246
-249
-252
-255
-258
-260
-263
-264
-265
-265
-265
-264
-263
-261
-258
-255
-252
-248
-243
-239
-234
-227
-212
-197
-183
-173
-164
-157
-150
-143
-137
-131
-126
-122
-119
-116
-112
-109
-105
-101
-99
-94
-88
-80
-43
13
103
229
391
582
775
935
999
987
858
598
270
-57
-318
-473
-502
-496
-438
-375
-320
-287
-253
-217
-180
-148
-128
-115
-108
-114
-126
-135
-143
-150
-153
-149
-140
-129
-119
-108
-96
-85
-74
-63
-52
-41
-32
-22
-10
6
22
33
39
44
49
55
60
65
72
83
101
119
142
171
195
213
233
243
249
254
258
261
264
266
267
268
267
266
265
262
258
254
249
243
236
223
210
197
181
163
141
124
111
98
83
68
57
47
39
32
27
23
19
16
13
11
8
5
2
0
0
-1
-1
-1
-1
0
0
1
2
3
4
5
5
6
7
9
13
18
17
5
-8
-13
-17
-20
-24
-27
-30
-34
-37
-39
-40
-41
-43
-45
-46
-47
-47
-46
-46
-46
-47
-48
-48
-49
-50
-52
-55
-58
-62
-65
-68
-70
-73
-76
-79
-81
-83
-84
-86
-91
-96
-100
-103
-100
-93
-84
-75
-67
-59
-50
-40
-30
-20
-12
-5
0
3
8
13
17
22
26
30
34
38
41
43
46
47
48
50
52
54
57
61
64
68
71
75
77
79
80
81
81
81
81
81
82
84
86
89
93
96
99
102
104
106
109
113
119
156
216
311
445
615
806
990
1129
1185
1127
951
679
365
73
-146
-248
-281
-265
-219
-159
-98
-58
-35
-25
-18
-13
-9
-4
0
4
8
12
16
19
23
28
36
44
54
63
68
72
75
79
83
87
90
93
97
101
105
109
114
118
124
132
147
162
175
188
199
209
219
229
239
249
257
263
269
275
280
285
288
290
290
290
288
286
283
279
273
267
256
236
214
195
179
161
142
125
110
99
91
85
75
62
51
47
44
42
40
39
38
38
38
38
37
35
33
32
31
29
26
23
19
16
13
10
7
5
3
1
0
-2
-4
-6
-8
-10
-12
-13
-14
-14
-14
-15
-14
-14
-14
-15
-16
-17
-17
-18
-19
-21
-23
-25
-27
-29
-31
-33
-38
-51
-61
-63
-65
-66
-68
-69
-71
-71
-66
-60
-54
-51
-49
-47
-45
-43
-41
-39
-37
-35
-33
-31
-29
-28
-27
-27
-27
-27
-27
-26
-24
-22
-20
-20
-21
-23
-27
-31
-35
-39
-43
-48
-53
-56
-58
-58
-57
-54
-49
-44
-38
-28
-20
-20
-28
-37
-42
-46
-51
-56
-60
-63
-65
-67
-68
-69
-70
-69
-67
-65
-62
-59
-57
-54
-50
-46
-36
-27
-17
13
71
174
327
523
746
964
1126
1179
1088
851
510
142
-164
-354
-403
-401
-344
-281
-225
-186
-164
-154
-147
-142
-137
-133
-128
-124
-121
-118
-115
-112
-105
-92
-71
-59
-53
-48
-43
-40
-36
-33
-29
-26
-23
-20
-17
-14
-11
-7
-3
1
7
12
18
25
35
49
62
75
89
107
125
140
153
167
182
200
219
234
241
247
251
255
257
258
257
254
249
243
234
217
188
164
139
114
84
50
19
-11
-39
-66
-94
-115
-129
-138
-145
-150
-154
-157
-161
-166
-171
-178
-186
-199
-219
-233
-242
-249
-254
-256
-254
-249
-242
-234
-224
-215
-206
-200
-196
-193
-189
-186
-183
-180
-177
-173
-169
-165
-160
-154
-148
-142
-136
-130
-125
-119
-112
-106
-100
-94
-90
-87
-84
-82
-80
-78
-77
-76
-76
-76
-77
-77
-78
-79
-82
-84
-86
-88
-91
-97
-100
-94
-81
-65
-46
-33
-26
-22
-18
-15
-11
-7
-2
2
7
11
15
18
21
25
27
30
32
34
36
37
39
40
39
38
35
32
29
26
23
19
14
5
-4
-15
-21
-26
-30
-33
-36
-38
-39
-39
-38
-38
-36
-33
-30
-25
-20
-13
1
18
31
41
49
53
56
58
61
64
67
70
74
79
98
136
195
282
407
571
763
957
1115
1191
1147
973
692
352
25
-222
-339
-354
-320
-235
-146
-78
-35
-12
0
5
10
13
15
15
14
12
10
7
2
12
29
50
64
73
79
83
86
89
92
96
101
108
117
126
138
146
153
157
159
161
162
165
169
173
176
180
186
197
219
240
262
276
284
289
289
284
277
268
255
242
229
217
203
192
182
171
160
147
132
119
105
93
81
67
48
29
8
-13
-37
-57
-72
-86
-97
-107
-119
-136
-145
-151
-156
-161
-166
-169
-170
-170
-170
-169
-167
-165
-161
-157
-153
-149
-145
-142
-138
-134
-130
-127
-125
-123
-123
-123
-124
-126
-129
-133
-138
-142
-146
-153
-160
-164
-162
-156
-147
-136
-120
-102
-90
-79
-71
-70
-76
-85
-101
-126
-140
-148
-153
-157
-158
-156
-150
-142
-133
-125
-115
-106
-100
-96
-93
-91
-88
-85
-81
-82
-91
-103
-112
-122
-130
-135
-135
-130
-124
-118
-114
-110
-106
-102
-97
-94
-90
-87
-84
-81
-78
-75
-73
-71
-67
-63
-60
-61
-66
-74
-84
-95
-112
-116
-116
-116
-117
-117
-117
-114
-108
-101
-94
-85
-79
-76
-73
-70
-67
-65
-64
-68
-74
-81
-86
-91
-95
-99
-102
-103
-101
-96
-89
-78
-59
-22
39
122
231
368
532
720
904
1045
1103
1047
861
563
212
-110
-343
-443
-454
-408
-321
-235
-168
-116
-83
-67
-59
-54
-50
-46
-43
-40
-36
-33
-30
-26
-23
-20
-16
-11
-3
4
12
21
29
35
41
46
50
54
57
60
63
66
68
71
74
79
87
103
119
136
153
168
179
187
195
205
217
233
251
257
261
263
266
268
268
265
259
251
238
210
194
186
180
176
172
169
166
163
161
158
153
143
117
85
47
24
11
2
-3
-7
-10
-12
-14
-15
-16
-16
-17
-18
-19
-19
-20
-20
-19
-18
-17
-15
-14
-13
-12
-10
-9
-9
-8
-7
-6
-3
0
2
3
2
1
0
-1
-3
-5
-8
-11
-13
-14
-14
-14
-14
-15
-17
-18
-19
-20
-21
-24
-28
-31
-34
-37
-39
-41
-42
-43
-43
-41
-40
-40
-42
-45
-48
-50
-53
-54
-55
-56
-56
-55
-52
-48
-43
-37
-32
-27
-22
-17
-12
-6
-1
4
11
17
23
28
32
33
33
31
29
25
21
17
13
8
3
0
-1
-1
3
10
19
28
38
53
66
67
60
49
41
32
24
19
17
16
14
11
6
2
11
28
37
43
48
52
56
60
66
71
74
77
81
86
93
126
201
309
447
609
788
964
1097
1114
1070
870
576
247
-43
-240
-294
-313
-283
-232
-188
-159
-122
-100
-90
-83
-77
-71
-63
-56
-50
-42
-32
-12
15
18
18
18
17
17
18
19
20
20
19
18
17
15
13
11
9
6
4
5
13
24
37
48
59
70
80
89
95
100
107
120
151
170
179
186
191
194
196
196
194
192
189
186
183
180
176
172
166
161
154
146
133
114
93
66
29
2
-14
-27
-38
-48
-57
-66
-74
-84
-93
-98
-102
-105
-108
-110
-112
-113
-115
-116
-116
-116
-114
-111
-107
-102
-98
-95
-92
-89
-87
-85
-84
-83
-81
-78
-75
-71
-67
-64
-61
-59
-56
-54
-53
-51
-49
-47
-42
-36
-32
-33
-39
-47
-53
-56
-57
-59
-61
-63
-65
-67
-68
-70
-71
-71
-72
-73
-75
-76
-78
-79
-79
-79
-78
-79
-79
-80
-82
-83
-83
-84
-85
-87
-89
-91
-92
-93
-95
-99
-104
-106
-102
-93
-81
-66
-46
-34
-29
-24
-21
-19
-17
-17
-19
-23
-28
-34
-39
-44
-47
-51
-55
-59
-63
-66
-69
-71
-74
-76
-77
-78
-78
-76
-74
-72
-70
-67
-64
-62
-59
-57
-54
-52
-49
-46
-43
-39
-35
-31
-27
-23
-19
-17
-14
-11
-6
0
15
48
107
199
330
499
695
898
1073
1158
1151
1033
781
465
152
-103
-274
-346
-369
-351
-296
-206
-123
-57
-18
-1
4
8
11
13
15
17
18
19
21
24
26
28
30
32
33
35
37
39
43
47
53
69
84
97
109
120
132
147
162
175
187
198
209
218
227
238
251
263
273
285
300
318
328
336
342
347
348
347
344
339
333
329
326
322
318
313
308
303
297
291
282
263
230
206
188
173
154
124
96
75
61
48
34
16
6
0
-5
-9
-12
-16
-21
-25
-30
-33
-36
-38
-40
-41
-42
-42
-42
-43
-44
-45
-46
-46
-47
-47
-47
-47
-47
-48
-48
-49
-49
-50
-51
-53
-55
-57
-60
-63
-66
-70
-74
-83
-103
-109
-110
-112
-115
-98
-77
-58
-45
-37
-30
-25
-24
-29
-40
-52
-65
-80
-92
-99
-105
-109
-114
-117
-119
-120
-119
-116
-110
-104
-96
-85
-80
-76
-75
-73
-71
-69
-68
-67
-67
-67
-66
-66
-65
-66
-67
-68
-69
-69
-68
-67
-67
-67
-67
-67
-68
-68
-70
-71
-73
-75
-76
-78
-79
-81
-82
-84
-86
-88
-89
-91
-94
-97
-100
-103
-106
-107
-108
-109
-110
-112
-113
-114
-114
-114
-114
-114
-114
-114
-113
-111
-109
-107
-104
-101
-98
-94
-91
-82
-56
-4
74
184
329
510
720
928
1086
1141
1059
835
504
138
-184
-412
-510
-520
-476
-390
-296
-211
-150
-119
-99
-82
-65
-48
-31
-15
-3
4
10
15
20
23
25
27
29
31
33
35
37
40
43
46
51
56
62
70
85
97
107
118
132
152
166
175
182
189
195
199
203
208
215
224
236
250
266
285
299
308
316
322
326
326
322
315
306
293
274
254
226
196
179
169
160
148
134
115
92
79
67
54
37
19
1
-13
-23
-29
-34
-38
-44
-51
-58
-64
-68
-72
-76
-80
-84
-87
-90
-92
-92
-93
-94
-94
-93
-92
-91
-91
-92
-93
-93
-90
-84
-79
-76
-74
-71
-68
-65
-62
-62
-62
-64
-67
-69
-72
-76
-81
-86
-95
-104
-111
-117
-123
-128
-130
-128
-124
-119
-114
-111
-108
-105
-101
-98
-95
-93
-92
-90
-89
-88
-87
-86
-83
-78
-94
-106
-114
-119
-123
-125
-124
-119
-113
-106
-99
-90
-79
-67
-56
-46
-39
-34
-29
-24
-19
-15
-11
-7
-4
-1
2
6
10
17
23
28
28
25
20
13
4
-8
-14
-19
-24
-22
-7
3
12
20
28
34
40
48
57
67
77
90
104
115
124
132
136
132
124
118
112
107
104
104
108
114
121
127
133
140
148
154
164
199
271
376
519
702
915
1124
1284
1343
1257
1025
684
310
-9
-211
-253
-247
-177
-110
-56
-11
33
77
125
152
169
181
187
183
176
170
163
158
157
165
176
187
202
209
213
215
216
218
220
222
223
224
226
228
230
232
235
238
241
246
254
265
275
287
308
341
362
373
382
387
389
390
391
392
394
396
397
398
394
385
376
369
364
359
354
349
343
338
334
328
320
303
273
224
179
151
123
91
54
29
19
13
9
5
1
-3
-9
-16
-27
-42
-57
-70
-79
-86
-92
-98
-106
-116
-128
-138
-146
-154
-162
-169
-176
-181
-186
-190
-195
-199
-203
-209
-215
-225
-236
-245
-253
-260
-266
-273
-280
-288
-296
-303
-309
-314
-319
-324
-329
-333
-337
-340
-343
-346
-349
-351
-353
-354
-356
-357
-359
-361
-363
-364
-365
-365
-365
-366
-367
-368
-368
-368
-367
-367
-366
-365
-364
-363
-360
-358
-355
-353
-351
-349
-346
-341
-331
-320
-309
-297
-287
-277
-269
-260
-251
-242
-233
-225
-218
-213
-208
-204
-200
-198
-196
-195
-195
-195
-196
-198
-200
-203
-207
-210
-214
-217
-220
-223
-226
-229
-231
-231
-229
-225
-220
-214
-208
-201
-193
-180
-168
-157
-149
-144
-141
-138
-135
-132
-129
-127
-125
-122
-120
-119
-117
-115
-111
-106
-79
-15
83
226
413
627
830
984
1046
989
808
532
210
-89
-306
-385
-410
-387
-358
-334
-319
-283
-235
-179
-119
-86
-71
-64
-59
-55
-52
-49
-45
-41
-37
-34
-30
-25
-21
-17
-13
-6
0
7
13
19
25
33
43
58
73
88
105
124
142
155
164
172
180
187
194
201
208
216
225
236
248
260
272
283
290
294
298
302
307
311
314
314
308
298
287
276
259
244
230
216
200
187
176
168
162
157
151
142
132
121
111
100
90
80
71
63
55
46
36
27
22
19
17
16
13
9
7
16
33
43
50
57
63
68
72
75
77
78
79
79
80
80
79
80
83
85
80
70
66
63
61
60
58
57
55
52
50
49
48
48
48
47
46
45
43
43
42
41
40
39
38
37
37
36
34
31
28
25
23
24
27
32
38
45
56
62
59
53
49
46
42
38
36
34
33
33
33
33
34
36
39
39
29
22
15
10
7
10
19
30
38
48
56
60
56
46
34
25
15
5
0
-4
-7
-9
-10
-12
-14
-16
-18
-21
-22
-24
-24
-25
-24
-23
-22
-21
-20
-19
-19
-18
-18
-19
-19
-19
-19
-18
-18
-17
-15
-12
-9
-5
0
5
12
27
56
105
172
270
407
581
781
986
1151
1232
1185
988
664
281
-77
-340
-454
-467
-421
-332
-249
-185
-138
-114
-103
-98
-95
-93
-90
-86
-83
-81
-78
-75
-72
-69
-66
-63
-60
-56
-51
-44
-35
-21
-12
-5
-2
0
2
4
7
9
11
14
16
19
21
24
28
34
42
53
66
83
104
120
135
150
167
178
185
192
195
197
195
190
183
175
166
153
139
124
112
102
94
87
81
76
71
59
34
13
2
-8
-18
-28
-40
-57
-75
-93
-111
-123
-130
-136
-140
-143
-144
-141
-135
-129
-123
-115
-109
-107
-109
-112
-115
-119
-125
-124
-113
-106
-101
-96
-92
-87
-82
-77
-74
-71
-70
-70
-69
-68
-66
-63
-59
-57
-55
-53
-51
-48
-46
-44
-43
-40
-37
-33
-29
-27
-27
-28
-29
-29
-29
-29
-31
-34
-37
-40
-41
-41
-40
-40
-39
-37
-34
-29
-24
-20
-17
-16
-15
-14
-13
-11
-9
-7
-5
-2
0
3
6
9
10
11
11
12
13
15
17
20
22
26
32
40
47
52
54
55
56
58
61
64
67
65
58
49
40
35
31
25
19
13
8
3
0
-3
-6
-10
-14
-17
-21
-30
-38
-38
-30
-20
-16
-12
-10
-8
-6
-5
-3
-1
1
4
6
8
9
10
11
13
15
18
21
27
56
103
173
273
401
556
729
906
1058
1141
1141
1053
825
506
156
-149
-349
-393
-383
-289
-184
-99
-40
-9
7
17
24
28
28
28
26
25
25
25
25
25
25
24
23
23
24
27
30
32
34
36
38
41
44
47
49
52
55
60
66
72
78
84
93
103
113
121
127
133
139
149
162
173
181
187
192
196
199
199
195
188
180
175
170
165
160
154
148
141
133
123
108
83
68
58
50
43
34
25
13
-2
-23
-41
-57
-74
-86
-91
-94
-98
-101
-104
-106
-108
-109
-111
-111
-112
-111
-109
-106
-103
-100
-96
-92
-87
-83
-79
-69
-50
-45
-43
-41
-39
-38
-37
-36
-35
-35
-36
-37
-37
-38
-38
-39
-39
-40
-41
-42
-42
-43
-44
-45
-46
-46
-47
-47
-48
-48
-48
-49
-49
-50
-53
-57
-60
-58
-52
-46
-41
-35
-30
-25
-22
-22
-24
-26
-27
-29
-31
-33
-35
-38
-40
-41
-41
-41
-40
-38
-36
-33
-28
-24
-20
-15
-11
-5
0
7
14
20
26
33
46
64
68
71
73
75
72
61
50
45
42
39
36
33
30
28
25
24
23
21
20
20
20
21
23
25
27
29
31
33
35
37
38
39
40
40
41
42
43
45
46
48
50
53
56
58
61
64
69
76
104
150
218
312
432
574
732
892
1025
1062
1040
887
622
308
9
-218
-326
-340
-303
-222
-147
-102
-87
-74
-64
-47
-18
18
46
55
57
59
60
61
61
62
63
64
64
66
68
69
71
72
73
74
75
78
81
85
88
93
100
109
118
127
134
141
149
159
168
175
181
184
187
190
193
195
197
198
199
199
199
198
197
195
191
187
183
178
171
156
141
121
96
74
58
42
26
10
-12
-37
-59
-73
-84
-93
-104
-116
-130
-146
-164
-176
-185
-192
-198
-203
-207
-211
-216
-220
-224
-228
-231
-234
-236
-240
-246
-244
-229
-212
-194
-179
-163
-149
-145
-143
-141
-139
-138
-137
-135
-133
-130
-126
-121
-117
-112
-107
-99
-92
-88
-84
-82
-80
-77
-75
-72
-70
-68
-66
-65
-65
-64
-63
-62
-62
-62
-61
-58
-55
-53
-55
-61
-69
-78
-90
-97
-101
-105
-109
-112
-115
-115
-113
-107
-99
-91
-80
-62
-49
-36
-23
-3
5
10
14
17
21
24
26
29
32
35
37
40
43
47
51
60
78
93
103
111
117
121
123
126
127
130
132
134
135
135
132
128
123
119
116
113
109
106
103
101
100
101
102
103
104
107
110
114
118
125
140
154
161
167
171
174
178
181
184
186
188
192
198
219
258
319
405
515
656
823
1002
1164
1257
1257
1164
932
623
299
24
-151
-204
-206
-161
-99
-41
11
64
118
152
171
181
188
194
198
200
202
203
205
208
212
214
215
214
210
207
204
201
197
193
189
188
191
197
204
208
213
217
221
226
231
236
239
242
245
249
256
264
275
287
295
304
312
320
327
331
335
339
343
348
353
356
357
356
352
346
339
324
300
278
254
228
200
179
167
157
148
140
131
121
110
96
75
41
17
4
-5
-15
-22
-29
-36
-42
-48
-56
-68
-79
-84
-88
-91
-93
-96
-97
-99
-101
-102
-103
-105
-107
-108
-109
-109
-109
-109
-110
-111
-113
-116
-119
-122
-125
-128
-132
-137
-143
-149
-154
-159
-164
-168
-174
-179
-184
-190
-196
-202
-209
-217
-227
-236
-244
-249
-252
-255
-258
-259
-260
-262
-264
-267
-269
-272
-274
-275
-276
-277
-278
-279
-279
-279
-279
-279
-280
-282
-284
-287
-291
-293
-295
-296
-296
-294
-291
-286
-280
-273
-267
-262
-258
-254
-250
-245
-241
-236
-232
-229
-227
-226
-227
-230
-235
-241
-247
-252
-257
-261
-265
-269
-274
-278
-283
-288
-292
-297
-302
-306
-311
-314
-318
-321
-324
-328
-336
-343
-346
-340
-328
-316
-310
-305
-301
-298
-295
-291
-287
-283
-278
-274
-272
-269
-267
-264
-259
-253
-240
-206
-141
-46
84
252
446
645
813
878
866
735
480
163
-145
-386
-532
-571
-566
-502
-423
-356
-319
-281
-248
-233
-226
-221
-217
-210
-203
-197
-190
-181
-166
-141
-117
-103
-95
-89
-83
-77
-70
-65
-59
-53
-46
-38
-29
-21
-16
-9
0
15
34
49
60
71
82
93
108
126
143
155
164
174
187
200
208
216
222
228
232
236
238
240
241
242
244
245
247
249
254
256
247
229
212
193
178
166
154
142
128
113
99
86
72
57
43
28
17
8
3
0
-2
-5
-6
-7
-7
-5
-2
1
6
11
17
26
35
39
37
32
26
21
14
8
5
7
13
20
28
42
42
27
17
10
3
-2
-4
-3
-1
0
3
7
15
14
3
-2
-5
-7
-10
-12
-15
-18
-22
-26
-29
-33
-37
-42
-51
-66
-70
-71
-73
-75
-76
-72
-63
-52
-41
-25
-16
-21
-32
-42
-54
-62
-69
-72
-74
-76
-79
-81
-83
-85
-86
-86
-85
-82
-79
-75
-69
-63
-57
-48
-29
-8
1
7
12
17
20
23
25
27
28
27
25
23
20
17
13
9
5
0
-4
-13
-23
-28
-28
-26
-24
-23
-21
-19
-17
-16
-14
-12
-11
-10
-10
-11
-12
-14
-16
-19
-21
-24
-28
-31
-36
-47
-52
-46
-35
-28
-24
-21
-17
-13
-9
-4
2
11
47
126
234
369
533
731
950
1154
1275
1278
1171
894
529
159
-139
-323
-369
-366
-302
-236
-185
-157
-130
-102
-80
-63
-41
-26
-16
-8
-1
4
10
15
21
27
34
41
48
55
62
68
75
81
84
85
85
86
86
87
87
88
90
91
94
98
104
111
124
153
179
196
208
217
226
231
227
216
203
186
172
165
161
158
155
152
149
145
142
140
137
132
127
113
84
58
39
19
0
-20
-44
-69
-93
-118
-140
-158
-170
-179
-184
-188
-193
-197
-199
-200
-198
-196
-193
-189
-186
-180
-174
-169
-167
-168
-170
-173
-175
-177
-180
-183
-186
-189
-190
-191
-191
-190
-187
-182
-176
-170
-164
-159
-154
-151
-148
-145
-143
-141
-139
-137
-134
-131
-128
-127
-126
-126
-126
-126
-127
-127
-128
-128
-128
-127
-125
-122
-120
-118
-117
-115
-113
-111
-110
-108
-107
-105
-102
-99
-95
-91
-87
-83
-78
-73
-69
-65
-62
-60
-57
-55
-52
-50
-48
-46
-44
-41
-38
-34
-31
-28
-25
-22
-17
-13
-10
-7
-4
-1
2
6
12
18
24
33
51
67
77
85
89
93
97
100
103
105
107
106
105
104
102
101
99
97
95
92
90
88
86
85
83
81
79
78
77
76
74
72
69
66
59
54
55
65
80
97
121
147
158
164
170
175
180
184
189
194
197
199
204
209
215
224
267
363
503
686
900
1116
1293
1351
1330
1158
857
512
201
-18
-90
-114
-86
-40
5
34
58
88
109
124
137
150
163
175
186
200
211
214
216
217
217
217
218
219
220
221
222
222
222
222
222
221
220
220
220
222
226
230
235
239
242
246
249
252
255
257
259
262
266
270
275
281
285
290
293
294
295
295
293
291
288
284
279
275
270
264
254
230
212
193
173
150
126
102
79
62
50
40
31
22
13
4
-3
-12
-21
-31
-41
-52
-65
-82
-94
-98
-101
-103
-106
-109
-109
-103
-91
-81
-78
-76
-74
-72
-69
-67
-64
-62
-60
-58
-57
-55
-55
-55
-55
-55
-55
-55
-55
-56
-56
-56
-56
-55
-54
-54
-54
-53
-51
-50
-48
-48
-48
-48
-48
-47
-46
-45
-45
-44
-44
-44
-44
-43
-42
-42
-43
-43
-43
-44
-44
-45
-46
-47
-48
-47
-47
-46
-47
-48
-49
-50
-51
-51
-51
-52
-52
-51
-49
-47
-45
-43
-43
-42
-42
-42
-40
-37
-34
-33
-33
-32
-32
-31
-30
-28
-26
-23
-20
-17
-15
-13
-11
-10
-9
-8
-7
-5
-3
0
5
10
15
19
24
28
33
37
41
43
45
46
48
51
54
57
60
63
65
68
70
71
70
68
66
64
63
63
62
61
60
59
58
58
57
56
53
51
49
50
58
71
86
115
163
239
339
471
628
799
956
1056
1064
1002
813
547
250
-19
-213
-280
-302
-278
-240
-202
-171
-132
-85
-49
-35
-28
-23
-17
-14
-11
-8
-5
-3
-2
-1
-1
-2
-3
-5
-6
-6
-5
-3
-1
1
3
5
6
8
9
12
15
19
25
30
37
47
59
71
82
94
106
117
126
135
144
151
158
165
172
179
186
193
199
205
212
221
230
238
241
237
227
214
198
176
141
121
105
91
72
49
28
9
-8
-21
-34
-59
-87
-98
-105
-110
-114
-115
-113
-110
-105
-101
-99
-96
-93
-88
-84
-80
-77
-74
-71
-68
-66
-64
-64
-64
-64
-63
-62
-61
-59
-57
-55
-53
-51
-49
-48
-48
-49
-49
-50
-50
-50
-51
-51
-51
-52
-52
-52
-53
-54
-55
-57
-60
-63
-66
-69
-72
-74
-77
-78
-81
-83
-86
-89
-91
-93
-94
-94
-94
-94
-94
-92
-91
-89
-88
-87
-86
-85
-83
-81
-79
-79
-80
-83
-85
-87
-89
-92
-95
-98
-101
-100
-97
-92
-86
-82
-80
-77
-74
-71
-68
-65
-62
-60
-58
-55
-53
-52
-52
-52
-53
-55
-57
-59
-62
-66
-70
-74
-77
-80
-83
-86
-89
-94
-100
-106
-112
-118
-123
-128
-133
-136
-138
-138
-137
-136
-135
-135
-134
-134
-133
-133
-133
-135
-136
-136
-136
-133
-131
-128
-126
-125
-122
-120
-117
-114
-112
-111
-108
-103
-96
-68
-7
82
209
378
586
811
1012
1125
1129
1035
793
467
118
-182
-382
-452
-456
-405
-326
-256
-201
-168
-133
-95
-68
-54
-44
-37
-32
-29
-27
-24
-22
-20
-18
-16
-13
-11
-7
-3
1
6
11
18
29
41
50
58
65
72
80
88
98
111
123
134
145
156
165
172
176
182
195
217
241
270
287
295
301
306
309
310
309
306
300
294
288
283
277
270
262
252
242
231
220
208
197
188
182
175
161
132
102
81
66
53
41
32
24
19
15
12
8
3
-1
-6
-11
-15
-18
-22
-25
-28
-29
-30
-30
-28
-27
-25
-22
-19
-16
-12
-7
-2
3
9
13
17
21
24
26
28
28
29
29
28
25
22
17
12
7
0
-11
-22
-31
-42
-54
-58
-61
-64
-62
-47
-40
-34
-30
-26
-23
-21
-20
-19
-18
-19
-21
-23
-26
-28
-31
-34
-38
-42
-46
-51
-54
-57
-59
-62
-64
-66
-68
-69
-71
-73
-75
-76
-75
-73
-68
-63
-59
-54
-47
-40
-34
-29
-24
-20
-15
-11
-12
-20
-30
-36
-41
-46
-50
-53
-54
-54
-53
-51
-48
-45
-41
-36
-29
-22
-17
-13
-8
-1
-2
-17
-30
-41
-50
-58
-64
-74
-85
-93
-97
-100
-102
-104
-104
-102
-97
-91
-86
-84
-82
-79
-77
-75
-74
-73
-73
-71
-69
-67
-66
-65
-65
-66
-66
-66
-65
-63
-61
-48
10
102
230
396
593
805
997
1101
1100
992
730
382
24
-272
-461
-507
-502
-425
-332
-256
-205
-186
-180
-177
-174
-171
-165
-154
-136
-114
-106
-103
-100
-99
-98
-96
-94
-91
-87
-84
-81
-78
-74
-70
-66
-61
-57
-52
-46
-36
-22
-4
7
16
23
31
37
45
61
83
97
105
116
129
138
145
152
158
164
169
174
187
211
225
233
239
243
242
239
233
225
211
187
170
156
140
118
92
68
43
18
-4
-25
-46
-64
-77
-84
-87
-88
-89
-89
-90
-91
-91
-93
-94
-96
-98
-99
-99
-100
-100
-101
-103
-104
-105
-107
-111
-116
-119
-118
-112
-104
-91
-77
-76
-76
-75
-74
-72
-71
-71
-70
-69
-68
-68
-68
-68
-70
-72
-74
-76
-77
-79
-80
-81
-81
-82
-82
-82
-83
-84
-85
-86
-87
-88
-89
-91
-93
-95
-96
-98
-99
-101
-104
-107
-110
-114
-118
-123
-130
-145
-155
-156
-156
-156
-156
-157
-158
-160
-160
-157
-153
-149
-146
-143
-140
-136
-131
-125
-118
-112
-104
-94
-78
-64
-50
-42
-36
-31
-26
-19
-12
-5
1
7
14
23
32
40
46
50
53
57
60
64
66
67
65
60
53
46
40
35
30
24
19
15
12
11
12
14
16
19
22
26
29
33
36
40
45
48
51
51
51
49
46
44
41
38
34
30
28
27
28
31
36
43
55
75
108
163
251
376
537
724
915
1082
1170
1166
1057
798
462
122
-143
-267
-281
-230
-132
-44
17
52
89
115
124
130
134
137
138
137
135
134
131
130
131
140
151
156
159
162
164
167
171
175
178
182
184
186
189
191
193
196
199
206
219
231
243
252
258
263
268
274
280
285
290
296
305
318
326
333
336
339
341
343
345
346
346
346
345
343
339
334
328
321
310
289
273
253
227
202
174
144
117
91
64
43
30
18
5
0
-4
-7
-11
-14
-18
-21
-24
-27
-29
-30
-31
-31
-31
-32
-34
-41
-47
-48
-40
-31
-29
-28
-28
-27
-26
-24
-22
-19
-17
-15
-14
-13
-12
-12
-11
-12
-12
-14
-15
-15
-14
-12
-11
-10
-10
-10
-10
-10
-9
-8
-8
-9
-9
-9
-8
-8
-8
-9
-10
-11
-12
-12
-12
-11
-10
-9
-6
-3
-1
1
2
2
1
0
-1
-4
-9
-15
-21
-28
-34
-40
-47
-55
-63
-69
-73
-78
-81
-84
-86
-87
-88
-89
-89
-89
-88
-88
-87
-87
-87
-88
-89
-89
-90
-90
-90
-90
-90
-90
-91
-92
-95
-97
-100
-102
-105
-108
-111
-113
-114
-116
-117
-118
-120
-122
-125
-128
-132
-136
-140
-143
-145
-146
-147
-146
-146
-145
-144
-143
-143
-143
-145
-147
-148
-150
-151
-151
-151
-151
-149
-145
-140
-134
-126
-116
-99
-63
-5
71
173
310
485
691
897
1041
1054
979
729
392
35
-268
-461
-518
-516
-451
-360
-284
-224
-198
-188
-183
-180
-176
-169
-160
-151
-145
-141
-136
-133
-130
-127
-123
-119
-115
-110
-106
-102
-98
-95
-92
-88
-84
-79
-73
-68
-63
-58
-54
-51
-48
-45
-41
-36
-27
-8
13
37
59
80
91
98
103
108
114
120
125
130
136
143
153
168
181
192
200
209
216
220
216
207
194
172
138
105
72
43
22
2
-9
-17
-23
-28
-34
-39
-45
-50
-55
-59
-63
-66
-68
-71
-73
-76
-79
-82
-84
-85
-86
-85
-84
-82
-80
-76
-73
-69
-65
-62
-58
-55
-53
-50
-46
-42
-37
-33
-30
-27
-26
-25
-24
-24
-24
-25
-26
-25
-24
-22
-20
-20
-21
-24
-26
-29
-30
-32
-35
-39
-41
-41
-38
-32
-26
-21
-18
-15
-12
-8
-5
-3
-3
-3
-3
-4
-4
-4
-4
-4
-4
-3
-2
-1
0
0
0
0
0
0
0
0
-1
-1
-1
0
0
1
3
5
8
10
12
14
16
18
20
23
26
28
30
35
42
49
55
59
58
56
53
50
47
46
44
41
36
32
27
23
18
13
8
3
0
-4
-7
-11
-19
-28
-35
-39
-36
-31
-25
-20
-17
-15
-13
-10
-7
-5
-3
-2
0
1
3
4
4
4
3
3
3
5
7
23
86
172
282
425
600
802
1003
1163
1237
1191
1008
707
346
11
-228
-305
-330
-308
-242
-191
-161
-132
-100
-65
-24
-1
9
18
26
31
36
42
46
50
54
58
62
64
66
67
70
74
78
82
86
90
94
99
103
107
111
114
118
126
135
144
151
157
163
170
179
188
199
211
224
239
257
268
274
278
282
285
287
289
287
282
276
268
261
253
244
234
225
215
201
181
160
139
119
104
94
88
82
74
67
57
38
10
-8
-19
-32
-46
-57
-68
-76
-81
-84
-86
-88
-91
-94
-94
-89
-81
-71
-58
-49
-45
-42
-40
-37
-36
-35
-35
-35
-36
-37
-39
-41
-45
-48
-52
-55
-58
-61
-64
-67
-70
-74
-79
-84
-91
-99
-108
-115
-123
-130
-139
-146
-150
-154
-157
-159
-161
-162
-164
-165
-167
-168
-169
-170
-172
-174
-176
-178
-181
-184
-187
-190
-193
-195
-197
-199
-200
-202
-203
-205
-207
-208
-208
-205
-201
-197
-195
-192
-190
-187
-184
-181
-178
-175
-173
-170
-166
-163
-158
-152
-137
-124
-112
-101
-94
-90
-87
-84
-82
-80
-80
-82
-85
-89
-92
-94
-96
-99
-101
-104
-106
-108
-109
-109
-108
-106
-104
-101
-97
-93
-89
-86
-83
-82
-80
-79
-77
-76
-75
-74
-73
-72
-71
-70
-69
-68
-67
-67
-66
-66
-65
-64
-63
-62
-59
-51
-31
0
54
127
223
347
500
676
863
1037
1150
1155
1069
816
473
109
-191
-365
-404
-363
-301
-244
-197
-159
-132
-100
-69
-40
-10
3
9
13
16
19
22
25
27
29
30
31
33
36
42
61
74
79
82
85
88
90
93
95
97
99
103
108
130
170
194
213
225
237
248
255
261
266
269
272
274
276
278
279
280
281
282
283
284
285
285
285
285
284
283
281
278
275
270
262
239
211
184
157
134
114
92
69
42
17
0
-16
-23
-28
-32
-36
-39
-42
-45
-47
-49
-50
-52
-53
-54
-54
-56
-58
-60
-61
-62
-62
-61
-60
-59
-58
-57
-55
-53
-50
-48
-46
-44
-43
-43
-43
-43
-43
-43
-42
-41
-37
-33
-33
-37
-42
-45
-47
-49
-51
-52
-53
-55
-58
-60
-62
-63
-64
-64
-65
-67
-68
-69
-70
-71
-74
-78
-81
-84
-84
-82
-79
-75
-71
-67
-61
-53
-46
-41
-38
-35
-31
-27
-25
-28
-35
-44
-51
-57
-62
-67
-71
-71
-69
-64
-57
-50
-43
-35
-27
-20
-15
-11
-7
-3
0
2
4
7
8
8
6
3
0
-5
-12
-19
-32
-44
-57
-63
-68
-72
-75
-77
-79
-82
-85
-88
-91
-94
-97
-99
-101
-103
-106
-110
-113
-115
-114
-112
-108
-105
-102
-100
-97
-93
-89
-87
-86
-86
-86
-87
-89
-92
-96
-103
-89
-47
22
124
263
441
653
876
1072
1169
1165
1048
789
455
120
-155
-325
-372
-370
-317
-257
-207
-176
-142
-110
-90
-78
-70
-65
-60
-58
-56
-54
-52
-50
-49
-50
-51
-54
-58
-63
-69
-78
-84
-77
-64
-57
-51
-46
-42
-38
-34
-29
-25
-20
-16
-11
-4
3
19
33
45
56
66
76
85
95
108
124
146
156
163
168
173
176
178
180
181
181
180
178
176
173
168
163
157
150
136
123
111
92
64
39
21
4
-11
-27
-50
-60
-65
-70
-75
-79
-83
-87
-89
-91
-91
-90
-90
-88
-86
-84
-81
-80
-79
-79
-79
-79
-79
-78
-77
-76
-74
-73
-71
-70
-69
-70
-72
-75
-78
-81
-84
-87
-90
-92
-93
-94
-95
-95
-95
-96
-95
-95
-95
-95
-96
-97
-99
-100
-102
-102
-103
-104
-105
-105
-106
-106
-107
-108
-109
-110
-112
-113
-114
-116
-121
-126
-130
-130
-123
-112
-101
-93
-85
-77
-69
-63
-59
-57
-55
-54
-53
-51
-48
-46
-44
-43
-45
-48
-51
-55
-58
-62
-65
-66
-62
-52
-40
-27
-10
2
12
17
21
25
28
30
32
33
34
34
33
32
30
28
25
22
18
15
12
10
7
5
3
1
0
-3
-5
-8
-11
-15
-18
-21
-25
-28
-32
-36
-40
-45
-50
-55
-61
-66
-70
-74
-77
-81
-84
-89
-95
-107
-116
-122
-129
-136
-134
-121
-85
-19
81
227
417
640
869
1072
1189
1193
1094
840
510
178
-72
-167
-199
-179
-120
-53
5
53
100
120
127
130
132
135
136
137
137
137
137
137
136
135
134
133
132
130
128
126
125
124
125
127
130
132
135
137
140
143
145
148
151
156
161
169
179
198
221
238
250
261
266
268
268
269
268
268
268
268
268
268
268
268
268
268
266
264
261
258
254
249
243
230
201
177
160
148
133
110
85
56
23
-4
-17
-25
-31
-37
-42
-46
-48
-49
-50
-52
-53
-55
-57
-59
-61
-62
-62
-62
-61
-61
-60
-60
-60
-60
-61
-61
-62
-63
-64
-66
-67
-68
-69
-69
-69
-69
-69
-70
-71
-72
-74
-77
-80
-83
-86
-88
-89
-91
-92
-93
-95
-96
-97
-98
-100
-102
-103
-105
-107
-108
-110
-113
-115
-117
-118
-118
-119
-120
-120
-121
-122
-123
-125
-130
-135
-140
-141
-138
-133
-128
-124
-120
-116
-112
-108
-104
-99
-95
-91
-86
-82
-77
-71
-64
-61
-61
-64
-68
-72
-75
-79
-83
-86
-85
-79
-69
-58
-49
-40
-30
-23
-19
-15
-13
-11
-10
-9
-8
-7
-6
-6
-8
-11
-14
-17
-19
-21
-23
-26
-28
-30
-32
-33
-34
-36
-38
-40
-41
-40
-39
-38
-37
-35
-34
-32
-30
-29
-28
-28
-27
-26
-24
-21
-19
-16
-13
-9
-4
0
2
5
8
14
39
85
153
253
399
597
840
1091
1288
1364
1274
1025
665
287
-20
-214
-270
-287
-269
-215
-171
-129
-86
-58
-26
5
38
55
59
61
62
63
64
65
67
68
71
74
79
83
94
115
125
129
133
136
138
141
143
147
151
153
156
159
162
166
173
186
198
208
220
234
250
267
284
305
323
339
345
347
349
351
352
352
353
353
354
354
352
349
344
338
331
322
308
283
270
255
234
212
190
169
150
134
117
99
80
66
58
51
43
36
26
14
3
-3
-9
-13
-15
-15
-11
-7
-3
0
3
6
9
11
11
9
5
2
0
-3
-5
-8
-10
-12
-14
-15
-16
-17
-18
-18
-17
-16
-16
-15
-14
-13
-12
-11
-9
-4
-6
-20
-27
-32
-35
-39
-42
-44
-45
-45
-45
-45
-45
-45
-44
-43
-42
-40
-39
-39
-42
-47
-53
-61
-72
-80
-84
-89
-92
-95
-95
-93
-89
-85
-80
-76
-72
-67
-62
-59
-57
-56
-53
-47
-57
-65
-70
-74
-78
-81
-82
-83
-84
-87
-92
-80
-68
-61
-53
-44
-35
-29
-24
-20
-16
-12
-10
-9
-9
-8
-7
-7
-6
-6
-4
-6
-18
-27
-35
-43
-51
-60
-68
-77
-83
-83
-81
-78
-76
-74
-73
-72
-71
-71
-72
-74
-76
-79
-82
-86
-89
-94
-98
-102
-103
-102
-98
-93
-88
-83
-77
-72
-66
-63
-59
-53
-34
9
79
179
313
483
678
875
1046
1137
1133
1022
759
410
44
-255
-422
-457
-408
-321
-238
-191
-176
-167
-162
-153
-140
-125
-109
-90
-71
-60
-55
-50
-48
-47
-47
-48
-49
-51
-52
-54
-55
-55
-52
-46
-36
-18
-2
9
22
32
40
47
54
60
66
74
82
92
107
127
142
154
164
178
197
217
237
258
279
294
303
310
315
320
324
327
322
313
306
299
292
285
277
262
236
205
179
157
134
112
89
63
40
23
10
-4
-16
-24
-31
-36
-41
-44
-47
-50
-52
-54
-55
-56
-57
-58
-58
-59
-61
-62
-62
-61
-57
-51
-46
-43
-40
-37
-34
-31
-28
-27
-27
-28
-29
-30
-31
-32
-34
-37
-40
-42
-42
-40
-37
-35
-33
-30
-27
-25
-26
-30
-36
-44
-55
-63
-68
-73
-77
-78
-75
-69
-63
-55
-47
-39
-31
-23
-19
-20
-24
-27
-29
-32
-34
-34
-32
-28
-25
-21
-19
-16
-12
-9
-6
-5
-7
-10
-13
-17
-20
-23
-26
-31
-35
-38
-40
-39
-36
-32
-27
-24
-22
-19
-16
-14
-11
-9
-7
-5
-4
-2
0
0
0
0
0
0
1
1
1
2
3
5
8
8
2
-3
-6
-8
-11
-13
-16
-19
-22
-24
-26
-28
-30
-31
-32
-33
-33
-34
-35
-37
-38
-40
-43
-46
-50
-55
-61
-66
-70
-75
-82
-95
-107
-110
-111
-111
-111
-112
-114
-114
-109
-100
-89
-73
-57
-19
37
122
239
389
565
749
910
1000
1002
915
694
399
89
-177
-360
-433
-440
-407
-339
-269
-211
-163
-120
-102
-96
-93
-91
-88
-86
-84
-82
-81
-78
-75
-72
-68
-63
-56
-50
-49
-50
-52
-54
-57
-56
-44
-34
-24
-15
-6
8
27
36
40
44
46
49
52
55
58
62
67
74
87
104
129
155
169
177
184
188
188
184
177
171
166
162
158
154
150
146
143
140
137
134
128
117
96
75
55
34
11
-11
-38
-64
-82
-99
-106
-110
-114
-117
-119
-121
-122
-122
-122
-122
-121
-121
-120
-120
-119
-118
-116
-114
-112
-107
-103
-102
-106
-110
-114
-118
-121
-123
-120
-112
-103
-90
-71
-56
-46
-38
-31
-26
-26
-29
-34
-40
-46
-53
-59
-59
-51
-40
-26
-6
8
21
33
32
17
-3
-34
-53
-61
-67
-72
-76
-80
-83
-85
-88
-91
-95
-101
-111
-116
-110
-99
-92
-85
-79
-74
-71
-72
-77
-83
-89
-94
-99
-104
-109
-115
-121
-126
-130
-134
-138
-142
-146
-151
-156
-161
-164
-167
-169
-171
-173
-174
-174
-174
-174
-176
-180
-178
-161
-143
-126
-118
-115
-113
-111
-109
-115
-125
-130
-135
-140
-144
-146
-148
-148
-148
-146
-143
-139
-135
-130
-126
-123
-121
-120
-118
-115
-112
-108
-104
-99
-94
-89
-85
-82
-79
-77
-74
-69
-58
-37
-35
-33
-31
-30
-28
-28
-30
-32
-35
-40
-38
-19
30
93
175
284
429
604
794
972
1101
1147
1080
894
612
288
-8
-214
-272
-292
-266
-224
-184
-153
-118
-79
-39
-10
6
19
32
42
47
51
55
59
63
66
68
69
71
72
74
76
78
81
84
88
94
101
110
122
144
182
201
210
217
222
225
228
232
235
239
242
247
257
283
309
327
350
363
372
379
384
389
393
396
399
403
408
411
404
388
369
347
327
313
302
291
279
266
249
227
208
188
168
146
134
126
121
116
109
101
94
86
80
72
62
51
43
40
39
38
37
34
29
25
24
26
31
38
44
49
57
66
71
69
61
51
38
23
16
14
13
12
10
9
9
10
11
11
10
8
7
5
3
1
-2
-6
-11
-15
-19
-23
-26
-29
-32
-34
-37
-39
-42
-45
-48
-50
-52
-54
-56
-57
-59
-61
-63
-66
-68
-70
-72
-73
-74
-76
-78
-79
-81
-82
-83
-85
-88
-92
-95
-98
-101
-103
-105
-106
-108
-108
-107
-107
-106
-105
-105
-105
-104
-103
-103
-105
-106
-107
-106
-99
-89
-80
-74
-68
-63
-58
-53
-49
-47
-48
-51
-57
-63
-70
-78
-87
-101
-126
-139
-145
-149
-154
-157
-159
-156
-147
-138
-132
-126
-121
-117
-113
-110
-109
-109
-111
-113
-117
-121
-126
-132
-141
-151
-156
-154
-146
-135
-128
-122
-117
-111
-105
-97
-90
-82
-72
-57
3
106
245
416
610
808
974
1043
1032
899
635
308
-17
-274
-396
-436
-418
-368
-299
-257
-219
-192
-171
-163
-160
-157
-154
-151
-149
-146
-144
-141
-137
-134
-131
-128
-125
-122
-118
-114
-104
-81
-59
-47
-39
-33
-27
-22
-17
-11
-5
0
5
11
18
25
36
48
59
70
81
91
103
115
128
140
154
173
197
210
216
220
224
226
228
229
230
230
228
225
219
212
202
192
179
155
135
119
100
77
50
28
12
-2
-16
-30
-44
-61
-77
-92
-100
-107
-113
-117
-120
-118
-114
-107
-100
-95
-92
-89
-87
-84
-81
-78
-77
-76
-75
-74
-73
-72
-73
-75
-76
-77
-77
-76
-76
-76
-76
-77
-77
-76
-75
-75
-75
-75
-75
-72
-70
-68
-73
-87
-101
-112
-122
-132
-140
-148
-153
-157
-158
-159
-158
-158
-160
-161
-163
-163
-163
-161
-159
-157
-155
-155
-154
-153
-151
-150
-149
-149
-149
-150
-150
-151
-152
-155
-157
-160
-160
-160
-158
-155
-152
-149
-146
-142
-139
-136
-135
-134
-133
-131
-128
-122
-116
-109
-102
-94
-84
-74
-64
-55
-49
-44
-42
-40
-38
-36
-34
-31
-28
-25
-22
-18
-15
-13
-13
-13
-15
-17
-19
-21
-21
-21
-20
-19
-18
-17
-16
-14
-13
-12
-12
-11
-9
-7
-5
-2
0
1
3
6
8
11
13
14
15
17
20
23
27
30
33
36
38
40
43
46
51
58
95
166
276
430
626
851
1073
1247
1314
1236
1014
682
315
-9
-236
-326
-333
-277
-191
-117
-74
-27
5
17
22
26
29
31
35
39
44
49
54
58
61
63
66
69
73
78
84
90
95
102
108
114
119
127
136
145
154
163
171
178
186
194
202
211
221
233
243
252
261
270
279
288
295
300
305
310
317
330
352
366
373
379
384
387
389
386
379
369
359
348
337
324
311
298
284
267
246
226
208
185
159
143
130
119
106
90
78
68
59
52
45
40
36
32
28
25
23
22
23
24
26
28
30
32
34
37
40
42
43
44
45
46
46
45
44
41
38
34
32
29
26
24
22
20
18
16
13
9
5
1
-2
-6
-9
-11
-13
-14
-15
-15
-16
-18
-21
-28
-35
-39
-37
-33
-28
-24
-20
-16
-13
-12
-15
-20
-26
-32
-38
-44
-48
-48
-44
-37
-29
-21
-11
0
8
16
23
29
35
39
40
36
28
18
8
2
-4
-11
-18
-24
-26
-23
-18
-11
-4
1
5
11
17
22
27
31
34
35
36
35
34
31
26
21
16
11
6
0
-7
-14
-20
-26
-30
-34
-37
-41
-44
-46
-47
-47
-47
-46
-46
-45
-44
-43
-41
-40
-39
-38
-37
-38
-41
-45
-51
-57
-63
-69
-76
-82
-86
-87
-85
-80
-73
-64
-34
19
96
204
352
537
743
933
1044
1049
961
732
419
86
-201
-401
-479
-484
-433
-354
-290
-262
-240
-214
-182
-151
-134
-126
-120
-115
-111
-106
-102
-99
-95
-91
-88
-84
-82
-79
-77
-74
-70
-66
-61
-56
-51
-46
-41
-35
-26
-10
1
11
18
23
28
33
38
45
51
58
67
77
101
141
157
165
171
177
181
184
185
187
188
188
186
184
182
178
173
168
162
151
131
109
91
75
63
53
37
13
-11
-36
-60
-85
-112
-137
-149
-155
-159
-163
-165
-166
-165
-164
-161
-159
-157
-157
-155
-154
-152
-150
-150
-150
-150
-151
-151
-150
-150
-150
-150
-149
-148
-146
-144
-143
-142
-141
-140
-139
-136
-135
-134
-132
-130
-125
-121
-118
-119
-126
-135
-143
-148
-152
-156
-161
-164
-168
-170
-172
-174
-175
-178
-180
-182
-183
-184
-185
-185
-186
-186
-187
-188
-188
-188
-190
-192
-195
-197
-198
-197
-194
-191
-188
-185
-182
-179
-177
-174
-170
-166
-161
-156
-150
-145
-141
-138
-133
-129
-124
-118
-113
-108
-103
-98
-92
-86
-79
-69
-59
-49
-40
-32
-25
-17
-10
-3
2
6
8
10
11
12
13
15
17
18
19
20
20
19
18
16
15
14
13
12
10
8
7
6
6
8
10
12
14
16
19
22
25
28
30
32
35
39
43
48
52
56
60
65
71
77
82
88
95
106
147
215
317
454
624
818
1018
1190
1257
1240
1084
792
440
100
-164
-284
-324
-299
-226
-132
-52
2
35
51
58
63
67
71
76
81
85
90
95
100
106
112
120
131
142
148
152
155
159
161
164
166
170
174
179
185
191
198
207
217
228
237
244
252
262
275
289
304
317
331
346
363
384
407
428
439
446
452
457
460
462
462
460
456
451
445
437
428
412
398
384
367
348
330
315
302
289
275
253
223
199
180
160
142
127
111
95
87
81
77
73
70
66
62
58
54
51
48
44
41
37
29
15
5
-1
-8
-14
-18
-18
-16
-13
-8
-1
-22
-45
-63
-76
-87
-96
-105
-111
-110
-102
-91
-80
-66
-59
-65
-81
-99
-121
-140
-161
-177
-177
-179
-181
-182
-182
-180
-178
-177
-176
-181
-189
-193
-196
-198
-200
-202
-204
-206
-208
-210
-212
-214
-216
-218
-219
-221
-224
-227
-231
-234
-236
-238
-241
-246
-248
-243
-231
-218
-201
-179
-164
-152
-143
-139
-140
-145
-150
-155
-162
-167
-167
-160
-148
-128
-95
-68
-50
-42
-37
-33
-29
-25
-20
-14
-9
-5
0
4
8
9
6
0
-7
-15
-23
-34
-44
-44
-33
-21
-16
-12
-9
-7
-5
-3
-1
0
2
3
3
4
5
6
7
8
9
10
10
11
11
12
13
13
14
14
16
17
20
23
27
38
67
113
187
297
447
636
854
1072
1243
1315
1253
1049
725
357
30
-199
-278
-305
-284
-222
-162
-109
-55
-17
8
21
30
37
45
53
58
63
66
68
70
71
71
72
72
73
74
76
78
80
83
84
86
87
89
91
93
96
101
106
115
136
151
161
170
178
186
199
213
223
231
238
244
249
253
257
261
264
267
270
274
277
280
283
284
284
281
277
271
263
254
240
214
195
175
155
137
114
81
55
40
21
0
-14
-26
-36
-44
-51
-55
-59
-61
-63
-63
-63
-63
-63
-63
-63
-63
-63
-63
-63
-63
-63
-63
-63
-63
-63
-63
-62
-61
-60
-59
-58
-57
-57
-56
-57
-57
-57
-57
-57
-57
-57
-58
-58
-57
-56
-54
-53
-51
-51
-50
-50
-49
-49
-49
-49
-50
-51
-52
-52
-52
-52
-52
-53
-53
-53
-53
-54
-54
-55
-56
-56
-55
-54
-53
-53
-54
-54
-54
-54
-54
-52
-51
-49
-48
-45
-43
-40
-37
-36
-36
-36
-36
-37
-38
-39
-40
-40
-41
-40
-39
-37
-35
-34
-33
-32
-31
-31
-31
-30
-30
-29
-28
-26
-25
-23
-23
-23
-24
-25
-27
-30
-33
-36
-40
-44
-48
-53
-67
-96
-109
-115
-118
-122
-125
-127
-129
-131
-132
-132
-133
-134
-135
-135
-135
-136
-136
-137
-138
-139
-140
-140
-139
-137
-135
-133
-131
-129
-127
-125
-123
-121
-117
-112
-99
-61
7
107
241
407
599
806
991
1086
1078
943
654
300
-29
-273
-391
-435
-437
-414
-380
-337
-294
-242
-206
-188
-175
-164
-153
-144
-134
-123
-109
-97
-90
-84
-78
-75
-73
-71
-68
-63
-55
-46
-37
-28
-21
-15
-9
-3
2
8
14
20
24
28
33
38
45
54
71
86
101
119
141
177
198
211
222
231
238
242
244
245
245
245
246
248
249
250
251
250
247
239
228
214
195
164
143
121
100
78
58
42
27
14
0
-17
-30
-37
-42
-47
-50
-51
-51
-49
-46
-43
-40
-39
-39
-38
-37
-36
-35
-34
-33
-32
-32
-32
-33
-33
-32
-31
-30
-29
-29
-29
-28
-28
-27
-27
-27
-27
-28
-28
-27
-26
-24
-24
-23
-23
-24
-26
-28
-30
-33
-36
-39
-42
-44
-45
-47
-52
-58
-64
-67
-68
-67
-65
-62
-58
-52
-40
-41
-58
-65
-69
-72
-74
-75
-76
-78
-80
-82
-83
-85
-86
-88
-89
-90
-91
-91
-91
-90
-90
-90
-91
-92
-93
-95
-98
-102
-104
-104
-99
-92
-85
-79
-74
-69
-64
-57
-52
-47
-43
-40
-36
-31
-23
-15
-11
-16
-25
-35
-40
-44
-49
-54
-59
-63
-67
-69
-72
-74
-76
-78
-78
-77
-77
-77
-77
-78
-79
-80
-80
-81
-83
-84
-84
-84
-82
-80
-78
-76
-75
-74
-73
-71
-68
-66
-64
-61
-58
-54
-49
-46
-42
-35
-24
16
106
236
404
602
816
1016
1164
1216
1135
912
579
214
-101
-313
-380
-383
-332
-275
-226
-174
-141
-102
-75
-65
-61
-58
-55
-53
-50
-46
-41
-36
-32
-26
-21
-15
-10
-4
1
7
13
19
26
32
37
43
49
56
62
69
76
84
92
102
111
120
129
138
148
157
165
171
177
188
212
238
256
274
283
289
294
298
301
302
302
301
298
295
290
284
275
259
240
220
200
179
152
119
85
52
30
18
8
-2
-11
-18
-25
-30
-36
-42
-48
-55
-60
-64
-67
-69
-72
-74
-76
-77
-79
-80
-81
-81
-80
-80
-79
-78
-77
-75
-74
-73
-72
-71
-69
-68
-67
-68
-69
-70
-71
-72
-74
-77
-81
-86
-91
-95
-99
-102
-106
-110
-114
-116
-117
-118
-118
-119
-120
-121
-122
-123
-124
-125
-126
-127
-127
-127
-127
-127
-127
-127
-126
-126
-125
-124
-122
-118
-113
-108
-104
-100
-95
-90
-86
-82
-79
-77
-76
-74
-73
-72
-71
-69
-68
-66
-63
-59
-56
-53
-51
-48
-44
-40
-34
-27
-19
-11
-5
0
5
10
15
20
25
31
36
40
43
45
47
49
52
54
55
53
51
48
46
44
43
41
39
37
36
35
34
32
32
31
32
33
34
36
37
38
39
41
42
44
44
44
44
44
44
44
43
42
42
43
44
44
44
44
45
47
49
54
58
63
86
154
250
376
532
707
881
1028
1091
1084
976
753
459
143
-135
-322
-375
-373
-317
-252
-196
-151
-123
-95
-71
-63
-61
-60
-58
-57
-57
-57
-58
-58
-59
-59
-58
-58
-57
-57
-56
-56
-55
-53
-51
-49
-47
-45
-42
-38
-34
-27
-19
-12
-6
-2
1
4
8
16
38
60
74
85
96
104
110
115
120
126
131
137
144
151
158
160
157
150
139
126
106
91
79
69
58
47
36
27
18
7
-3
-24
-55
-76
-89
-101
-110
-125
-150
-170
-181
-190
-198
-205
-210
-214
-218
-221
-224
-225
-226
-226
-226
-224
-222
-218
-213
-209
-204
-200
-197
-194
-191
-187
-184
-181
-179
-178
-178
-177
-178
-179
-180
-181
-182
-183
-184
-185
-187
-189
-189
-187
-185
-183
-181
-179
-178
-176
-175
-173
-172
-171
-169
-167
-166
-164
-164
-164
-164
-163
-161
-158
-156
-154
-151
-146
-141
-135
-128
-121
-116
-112
-107
-103
-99
-95
-92
-88
-85
-79
-72
-60
-49
-37
-27
-19
-11
-4
2
8
13
17
22
25
28
28
28
27
25
24
23
22
21
21
24
31
40
50
63
73
82
88
94
99
102
101
97
89
80
67
48
26
12
2
-5
-9
-10
-11
-12
-14
-16
-1
22
47
60
68
74
77
78
73
66
58
53
47
41
36
32
29
29
31
34
37
42
48
60
74
94
117
157
217
309
442
616
820
1020
1173
1230
1154
943
635
291
-14
-226
-299
-301
-238
-144
-63
-42
-37
-34
-28
-22
-13
5
35
54
64
71
74
71
66
62
59
56
52
50
52
58
66
81
108
126
135
142
150
158
166
177
191
205
211
215
218
221
223
225
229
231
234
238
243
249
262
292
314
328
340
350
358
366
372
375
373
367
359
350
339
329
319
307
293
273
246
216
195
179
161
138
109
90
81
73
63
51
41
34
27
20
14
9
5
3
1
0
-1
-3
-3
-3
-4
-6
-8
-10
-9
-3
4
12
15
18
21
23
26
29
31
31
31
32
32
33
34
34
34
34
34
33
32
30
27
24
20
17
15
13
11
9
7
6
5
5
5
4
2
0
-1
-3
-5
-7
-8
-10
-11
-11
-11
-11
-11
-11
-11
-11
-10
-10
-10
-11
-11
-11
-12
-13
-14
-14
-14
-11
-8
-3
1
5
11
17
22
26
26
23
18
12
7
3
-3
-10
-14
-11
-2
8
19
34
42
43
43
44
46
48
48
47
39
28
18
13
8
4
-1
-6
-11
-15
-20
-23
-27
-30
-34
-36
-38
-40
-42
-44
-47
-49
-51
-54
-56
-59
-62
-65
-67
-69
-69
-69
-69
-70
-70
-70
-69
-69
-68
-67
-65
-63
-60
-56
-52
-47
-42
-28
10
85
194
344
532
742
945
1103
1169
1115
935
653
320
2
-253
-411
-456
-456
-412
-353
-297
-244
-208
-168
-126
-105
-95
-88
-81
-76
-72
-69
-66
-64
-63
-63
-63
-62
-62
-61
-61
-60
-58
-56
-54
-51
-48
-46
-44
-41
-37
-32
-23
-6
9
19
25
31
37
43
48
53
59
67
76
90
105
123
138
151
162
170
175
179
184
191
195
187
173
162
153
143
133
124
112
88
53
29
10
-7
-26
-44
-67
-82
-92
-100
-108
-117
-126
-137
-151
-168
-183
-194
-204
-213
-221
-225
-229
-231
-233
-234
-235
-234
-229
-219
-207
-197
-192
-187
-183
-179
-176
-173
-170
-167
-165
-163
-161
-161
-162
-162
-163
-163
-164
-164
-164
-164
-163
-162
-160
-159
-159
-159
-158
-156
-154
-153
-151
-150
-148
-145
-142
-138
-136
-134
-133
-132
-130
-128
-126
-125
-125
-124
-123
-121
-118
-116
-114
-113
-111
-110
-108
-106
-105
-105
-103
-100
-97
-92
-88
-85
-81
-79
-77
-75
-74
-74
-73
-72
-70
-68
-66
-63
-60
-56
-52
-47
-42
-36
-30
-23
-14
2
27
32
34
36
38
41
43
45
45
45
45
43
42
38
34
30
27
24
22
20
16
11
7
5
8
14
22
31
38
50
61
66
61
53
44
39
36
32
28
24
20
17
16
15
15
16
18
22
28
35
42
49
57
68
82
94
104
115
136
176
255
372
535
740
962
1158
1263
1263
1160
906
560
192
-119
-326
-390
-387
-313
-206
-106
-29
11
27
34
39
44
48
52
56
59
62
64
67
68
69
69
69
70
71
73
76
79
83
86
90
93
96
99
101
103
105
108
113
120
134
149
165
178
190
200
211
222
232
244
260
272
281
286
291
294
298
301
303
304
305
305
304
303
300
296
291
285
278
270
260
240
224
210
196
182
167
150
130
106
83
60
37
14
1
-8
-16
-21
-23
-24
-24
-25
-25
-25
-24
-25
-25
-26
-27
-27
-26
-24
-22
-20
-18
-17
-15
-13
-11
-10
-10
-10
-11
-12
-13
-14
-15
-15
-15
-15
-15
-15
-14
-13
-13
-13
-13
-13
-12
-12
-12
-12
-13
-15
-18
-19
-21
-22
-24
-26
-27
-28
-29
-29
-30
-31
-34
-38
-42
-47
-51
-55
-58
-60
-60
-58
-56
-53
-50
-47
-44
-40
-37
-35
-33
-31
-23
-16
-16
-25
-38
-52
-71
-73
-72
-72
-72
-73
-74
-75
-74
-73
-72
-71
-68
-64
-58
-51
-45
-39
-32
-25
-18
-12
-7
-2
2
6
10
14
19
23
25
25
22
17
11
6
0
-6
-16
-26
-31
-34
-37
-40
-43
-46
-49
-52
-54
-56
-58
-61
-62
-64
-67
-70
-75
-81
-84
-81
-74
-67
-64
-62
-59
-57
-54
-51
-48
-44
-41
-38
-36
-35
-33
-29
-25
-18
14
71
161
289
459
667
889
1086
1180
1172
1030
739
375
15
-269
-432
-459
-450
-375
-297
-230
-192
-153
-126
-116
-111
-107
-104
-99
-95
-89
-84
-78
-74
-71
-68
-67
-66
-66
-64
-61
-57
-53
-49
-46
-44
-42
-39
-37
-33
-29
-24
-13
11
27
42
54
69
86
100
110
119
129
138
147
157
167
178
189
198
205
212
219
227
234
238
238
232
224
214
206
196
186
176
163
151
138
124
111
100
93
84
68
34
7
-7
-19
-31
-40
-47
-53
-59
-65
-69
-71
-72
-73
-74
-75
-77
-78
-80
-82
-83
-84
-85
-86
-85
-84
-81
-78
-74
-69
-64
-59
-54
-51
-48
-44
-40
-35
-32
-33
-37
-44
-51
-57
-60
-62
-64
-66
-69
-71
-73
-75
-78
-80
-83
-86
-88
-90
-91
-91
-91
-90
-90
-90
-90
-90
-91
-92
-93
-96
-98
-100
-102
-103
-104
-105
-106
-107
-109
-109
-110
-110
-111
-112
-113
-114
-114
-115
-116
-117
-119
-121
-123
-124
-125
-126
-126
-126
-124
-122
-119
-116
-113
-110
-107
-104
-101
-98
-95
-92
-88
-85
-82
-80
-78
-76
-75
-74
-73
-72
-72
-71
-69
-67
-66
-64
-63
-64
-67
-71
-77
-82
-87
-91
-94
-97
-99
-100
-102
-102
-103
-104
-105
-106
-107
-109
-110
-111
-111
-112
-113
-114
-115
-115
-115
-116
-116
-117
-118
-119
-120
-121
-123
-126
-129
-131
-131
-128
-123
-116
-107
-94
-71
-55
-16
39
125
247
411
609
821
1012
1116
1115
1005
741
408
73
-198
-373
-437
-459
-440
-380
-307
-237
-174
-140
-121
-112
-106
-99
-90
-81
-72
-60
-44
-30
-17
-10
-6
-2
0
3
6
10
14
17
20
24
28
33
40
52
63
72
80
88
97
106
115
125
138
154
169
188
215
244
277
293
299
304
309
312
315
317
319
321
322
323
324
324
324
323
323
323
323
325
329
314
290
262
238
221
205
185
158
135
118
103
92
81
70
57
47
39
33
25
17
8
0
-8
-18
-27
-33
-33
-29
-23
-15
-5
9
14
17
19
22
23
22
18
13
8
5
1
-1
-5
-8
-9
-9
-7
-4
-1
0
2
4
7
10
13
15
18
20
21
22
22
22
20
18
16
13
10
7
4
1
-1
-4
-11
-17
-21
-24
-27
-31
-36
-40
-40
-33
-23
-16
-9
-2
2
2
-1
-6
-10
-13
-15
-17
-19
-21
-24
-26
-29
-30
-32
-33
-34
-34
-34
-34
-34
-33
-33
-34
-34
-35
-35
-33
-32
-30
-28
-26
-23
-19
-15
-11
-8
-5
-1
7
16
21
24
26
28
30
33
36
39
41
41
41
41
40
39
38
35
31
26
22
19
9
-7
-15
-20
-24
-25
-21
-12
-3
0
2
5
8
11
14
17
18
18
19
20
20
20
19
17
15
14
14
13
11
9
6
5
3
1
-2
-6
