-234
-285
-336
-388
-444
-468
-479
-487
-485
-475
-470
-466
-463
-461
-459
-459
-460
-463
-469
-477
-486
-501
-526
-539
-551
-562
-573
-583
-594
-595
-581
-564
-546
-530
-521
-515
-511
-508
-506
-504
-504
-503
-502
-501
-499
-497
-496
-497
-498
-500
-502
-506
-509
-505
-496
-491
-485
-479
-473
-471
-471
-471
-472
-472
-473
-474
-476
-476
-471
-463
-454
-442
-432
-424
-421
-418
-416
-414
-413
-412
-412
-411
-409
-407
-405
-403
-402
-400
-397
-393
-387
-381
-364
-339
-330
-324
-320
-314
-308
-302
-298
-294
-290
-287
-286
-286
-287
-290
-292
-295
-299
-305
-310
-312
-310
-303
-295
-284
-268
-254
-234
-208
-185
-168
-154
-134
-118
-112
-109
-106
-107
-114
-124
-135
-147
-162
-182
-194
-204
-212
-218
-222
-224
-224
-221
-217
-212
-205
-197
-188
-171
-159
-151
-142
-132
-127
-132
-146
-168
-193
-210
-219
-206
-167
-99
1
135
292
455
599
680
706
687
628
522
394
254
111
-15
-114
-168
-187
-194
-187
-173
-167
-164
-161
-160
-158
-156
-153
-150
-148
-147
-146
-145
-144
-142
-142
-142
-143
-143
-143
-142
-141
-138
-135
-132
-125
-117
-108
-97
-75
-55
-49
-47
-46
-46
-46
-47
-48
-48
-47
-46
-46
-46
-46
-46
-45
-44
-43
-42
-40
-38
-35
-26
-2
20
37
52
61
67
72
75
80
84
89
94
100
110
127
143
164
192
224
251
266
275
284
294
304
311
317
323
327
330
330
327
320
311
298
274
234
200
171
148
120
85
46
13
-7
-19
-26
-36
-58
-81
-98
-111
-119
-124
-127
-133
-140
-149
-158
-166
-174
-181
-188
-192
-197
-200
-206
-213
-214
-207
-201
-198
-193
-186
-175
-163
-151
-138
-127
-122
-120
-118
-115
-110
-107
-107
-110
-115
-120
-118
-102
-95
-92
-90
-89
-88
-86
-84
-81
-79
-77
-74
-73
-71
-70
-69
-68
-66
-64
-60
-51
-33
-18
-9
-4
0
4
6
6
4
0
-3
-7
-10
-13
-17
-20
-22
-23
-22
-18
-12
-5
1
7
14
21
27
30
32
31
29
26
21
16
7
-6
-17
-24
-31
-35
-35
-29
-18
-4
13
22
26
30
34
36
38
39
40
39
37
33
27
20
13
6
-1
-11
-21
-27
-29
-31
-34
-37
-42
-25
-14
-8
-3
0
3
6
9
12
14
16
17
18
18
19
21
23
26
28
29
29
30
32
35
38
40
42
44
46
50
55
60
64
69
75
80
85
87
86
84
81
79
76
74
71
67
62
59
58
59
61
63
65
67
69
73
76
79
82
84
85
87
86
85
83
80
77
74
71
68
61
50
63
101
195
330
504
710
921
1103
1195
1192
1084
841
538
245
18
-116
-150
-146
-114
-85
-69
-61
-55
-51
-48
-46
-45
-43
-41
-38
-32
-48
-73
-99
-110
-116
-121
-125
-127
-130
-132
-132
-133
-134
-135
-136
-138
-142
-139
-121
-111
-104
-98
-95
-93
-93
-95
-98
-102
-106
-111
-117
-123
-127
-126
-120
-111
-100
-90
-76
-64
-55
-48
-42
-38
-34
-31
-27
-22
-17
-10
-2
11
33
48
68
95
117
134
150
167
184
199
220
247
269
286
305
324
342
356
365
371
376
379
379
376
369
360
344
317
292
261
222
183
142
108
78
52
29
2
-16
-27
-35
-44
-50
-57
-64
-73
-81
-88
-93
-96
-98
-101
-103
-105
-108
-111
-114
-117
-120
-124
-129
-138
-147
-157
-167
-176
-185
-193
-201
-210
-216
-220
-222
-225
-228
-231
-234
-235
-236
-237
-237
-237
-236
-233
-229
-224
-219
-215
-211
-204
-188
-171
-147
-117
-98
-86
-79
-78
-82
-87
-91
-96
-102
-106
-108
-107
-105
-102
-100
-98
-95
-92
-87
-83
-78
-72
-66
-59
-48
-37
-23
-13
-4
1
0
-6
-15
-21
-27
-33
-38
-40
-39
-35
-30
-23
-16
-7
7
21
33
42
50
57
60
59
54
47
38
27
13
-2
-16
-28
-40
-52
-63
-74
-85
-93
-97
-99
-100
-100
-101
-102
-103
-105
-106
-107
-108
-109
-110
-110
-109
-108
-107
-107
-107
-107
-108
-107
-107
-107
-108
-110
-110
-106
-98
-89
-78
-62
-53
-46
-41
-36
-33
-32
-34
-37
-41
-45
-49
-57
-56
-40
-27
-15
-4
4
13
33
46
47
48
49
50
47
41
33
23
8
-2
-9
-15
-20
-23
-21
-13
-2
11
31
45
51
56
61
64
66
67
67
66
63
59
54
48
37
20
9
-2
-12
9
76
200
369
571
784
973
1080
1083
992
767
483
201
-25
-165
-200
-197
-142
-82
-32
-5
11
24
29
25
17
13
10
8
6
4
3
2
0
0
-1
-2
-2
-2
-2
-1
-1
0
0
0
0
1
3
6
10
14
18
27
51
64
72
78
81
82
81
79
78
76
74
69
69
76
81
85
90
95
101
107
113
121
130
140
151
171
194
204
208
212
214
217
221
224
228
235
244
260
292
325
355
375
388
405
426
439
450
459
467
471
471
468
462
454
444
431
407
382
348
312
261
208
148
106
56
10
-13
-25
-34
-41
-48
-54
-61
-67
-73
-78
-83
-89
-94
-97
-99
-98
-95
-90
-84
-79
-75
-72
-71
-69
-66
-64
-62
-60
-59
-58
-56
-55
-53
-52
-51
-51
-51
-52
-52
-53
-54
-55
-55
-56
-55
-54
-53
-52
-51
-51
-51
-52
-53
-54
-55
-57
-60
-62
-63
-64
-64
-63
-63
-65
-66
-68
-69
-71
-72
-75
-78
-81
-82
-82
-81
-81
-80
-80
-78
-76
-73
-69
-64
-60
-53
-41
-32
-33
-35
-37
-39
-41
-42
-43
-45
-48
-51
-56
-59
-63
-66
-70
-77
-84
-87
-84
-78
-72
-71
-70
-69
-69
-68
-67
-65
-63
-60
-58
-56
-55
-55
-55
-55
-57
-58
-61
-64
-67
-70
-73
-75
-77
-78
-80
-81
-83
-84
-87
-92
-97
-101
-102
-101
-97
-91
-86
-80
-76
-71
-65
-60
-56
-53
-52
-53
-53
-54
-55
-56
-58
-61
-63
-66
-69
-71
-72
-73
-71
-67
-60
-53
-45
-37
-27
-16
-4
7
21
40
64
72
76
80
83
85
86
86
86
86
85
82
76
68
60
51
44
38
29
18
9
3
4
8
15
23
30
39
54
67
74
79
84
90
94
94
86
71
46
8
-20
-40
-46
-54
-44
25
155
344
584
846
1075
1177
1169
1020
736
412
128
-59
-109
-125
-91
-71
-64
-59
-54
-50
-46
-43
-40
-36
-31
-26
-22
-20
-19
-19
-19
-18
-17
-15
-11
-4
2
7
8
5
1
-4
-9
-17
-24
-30
-29
-21
-8
4
13
22
31
40
47
52
55
56
58
60
63
66
68
72
75
75
71
65
59
51
47
55
73
91
111
121
127
131
135
138
142
148
154
163
175
197
236
268
292
315
335
352
368
381
389
395
400
404
407
409
409
408
405
400
392
383
371
353
319
288
247
203
172
147
119
97
81
67
55
42
28
11
-5
-21
-27
-30
-33
-36
-38
-39
-40
-40
-40
-41
-41
-41
-42
-42
-42
-43
-44
-46
-48
-49
-50
-52
-53
-56
-57
-59
-60
-61
-62
-63
-65
-67
-69
-70
-73
-77
-80
-83
-82
-78
-72
-65
-59
-56
-53
-50
-47
-45
-43
-43
-43
-43
-42
-41
-39
-37
-37
-36
-36
-34
-32
-31
-29
-28
-26
-24
-22
-19
-17
-15
-13
-11
-9
-7
-7
-6
-5
-4
-2
-2
-2
-3
-4
-7
-11
-15
-20
-25
-30
-34
-37
-39
-42
-44
-46
-47
-48
-48
-49
-50
-51
-51
-52
-51
-48
-45
-42
-39
-36
-32
-28
-24
-20
-17
-14
-11
-9
-4
1
6
9
8
2
-6
-17
-29
-43
-63
-82
-96
-107
-116
-124
-131
-137
-143
-146
-149
-150
-152
-154
-157
-159
-160
-157
-153
-148
-144
-142
-140
-138
-136
-135
-134
-133
-132
-131
-129
-127
-126
-125
-124
-121
-118
-115
-111
-106
-101
-92
-76
-59
-45
-33
-25
-17
-10
-4
-1
-1
-7
-16
-25
-32
-36
-41
-46
-52
-58
-62
-65
-67
-68
-68
-66
-62
-57
-50
-43
-37
-32
-26
-18
-10
-3
0
0
-5
-13
-23
-34
-48
-72
-75
-57
-7
103
270
481
715
939
1115
1176
1161
1018
758
448
157
-55
-143
-172
-142
-90
-41
-27
-22
-18
-14
-10
-7
-5
-2
0
0
1
1
1
0
0
0
0
1
3
4
6
7
8
10
13
16
19
21
23
26
30
34
38
42
49
59
70
79
83
84
83
80
77
74
71
64
57
58
73
91
102
111
118
124
130
137
144
150
155
160
165
172
184
209
233
257
280
306
320
329
336
343
350
357
363
370
377
387
405
434
446
453
458
462
465
464
459
448
434
408
362
316
272
227
183
140
95
45
-6
-46
-71
-95
-118
-133
-144
-154
-163
-174
-186
-197
-208
-218
-230
-241
-252
-261
-269
-275
-279
-282
-285
-288
-291
-294
-297
-300
-303
-306
-308
-309
-309
-309
-309
-307
-305
-301
-295
-289
-283
-278
-274
-270
-266
-262
-259
-256
-252
-248
-242
-237
-231
-225
-220
-215
-210
-205
-201
-197
-195
-191
-187
-182
-175
-167
-154
-139
-128
-119
-110
-103
-98
-95
-91
-89
-86
-84
-82
-81
-81
-82
-83
-84
-84
-84
-83
-82
-78
-74
-68
-63
-58
-53
-48
-44
-41
-38
-36
-34
-33
-32
-30
-27
-25
-22
-19
-16
-13
-10
-8
-7
-7
-7
-7
-7
-7
-7
-7
-7
-7
-6
-6
-5
-5
-5
-4
-2
-1
0
2
3
5
7
9
11
14
16
18
21
23
26
28
31
33
35
37
39
40
42
43
45
47
49
51
53
56
58
61
64
66
69
71
75
79
84
90
97
105
113
121
128
134
137
138
137
134
129
124
118
112
105
100
95
92
89
86
83
80
77
73
69
66
63
60
59
59
59
58
57
56
55
55
55
54
53
52
50
47
44
41
33
17
16
43
117
253
445
670
887
1055
1099
1077
916
649
341
56
-148
-222
-248
-215
-160
-108
-85
-71
-60
-56
-61
-71
-81
-84
-86
-88
-91
-94
-98
-101
-105
-107
-110
-111
-112
-112
-111
-109
-108
-107
-107
-107
-108
-109
-110
-111
-111
-112
-112
-112
-112
-112
-112
-113
-113
-114
-115
-115
-114
-114
-112
-110
-108
-106
-104
-103
-101
-99
-97
-96
-95
-95
-93
-90
-85
-79
-73
-67
-60
-54
-47
-40
-32
-24
-15
-4
15
37
57
78
107
143
166
179
188
197
202
204
205
204
200
194
185
175
160
132
100
67
35
6
-32
-80
-128
-175
-204
-220
-232
-245
-260
-270
-275
-278
-281
-284
-287
-289
-292
-295
-297
-300
-302
-304
-304
-304
-303
-302
-301
-299
-296
-293
-290
-287
-284
-283
-281
-279
-276
-273
-269
-265
-261
-253
-243
-233
-226
-220
-213
-208
-202
-197
-191
-185
-179
-172
-166
-159
-150
-139
-122
-96
-82
-78
-76
-73
-71
-70
-69
-69
-69
-67
-65
-62
-60
-58
-57
-55
-53
-49
-45
-40
-35
-29
-16
-2
10
21
30
35
39
43
47
51
54
55
56
57
59
62
65
68
71
74
78
83
89
95
100
104
108
111
114
117
120
122
123
124
125
126
128
129
130
131
131
131
131
131
131
131
132
132
133
134
136
138
141
143
144
146
147
149
151
153
155
157
160
164
168
171
173
173
171
170
169
168
168
166
164
161
159
159
159
161
163
166
170
176
184
192
200
207
212
217
223
229
234
238
240
241
241
239
235
231
225
219
212
206
201
198
194
190
186
183
179
176
173
170
166
163
161
158
156
155
154
153
153
151
150
147
144
140
135
129
111
109
129
181
279
424
618
846
1070
1233
1257
1207
991
696
391
140
13
-32
-30
4
28
47
60
69
72
73
74
74
75
76
77
78
77
75
73
71
70
70
71
71
72
72
73
76
80
85
89
93
97
100
103
106
109
110
112
113
115
117
120
123
125
127
130
132
134
135
136
137
137
138
140
142
145
149
155
162
170
179
188
199
210
222
234
246
257
270
281
290
297
303
309
317
330
353
382
412
442
471
498
521
532
539
544
549
553
555
555
550
541
529
508
471
434
395
355
314
271
227
190
162
135
119
108
99
90
83
76
70
62
52
37
24
11
6
3
1
0
-1
-2
-4
-5
-7
-10
-13
-15
-17
-18
-18
-18
-19
-21
-23
-27
-31
-36
-43
-51
-59
-69
-79
-89
-96
-101
-106
-110
-114
-118
-122
-124
-126
-127
-127
-127
-127
-125
-122
-118
-114
-111
-107
-104
-101
-97
-94
-93
-93
-95
-96
-98
-100
-103
-108
-114
-120
-124
-128
-135
-142
-150
-154
-154
-151
-146
-141
-138
-134
-130
-125
-121
-117
-115
-114
-115
-118
-122
-127
-134
-141
-149
-156
-163
-169
-174
-180
-184
-187
-188
-188
-189
-190
-191
-192
-193
-193
-192
-192
-193
-194
-194
-193
-192
-191
-190
-190
-190
-189
-187
-185
-183
-183
-185
-187
-188
-188
-187
-188
-189
-190
-191
-190
-187
-185
-183
-182
-180
-177
-173
-170
-167
-166
-165
-164
-162
-159
-155
-151
-147
-143
-138
-132
-127
-122
-118
-115
-112
-108
-104
-100
-95
-90
-84
-76
-67
-59
-54
-54
-54
-55
-56
-57
-58
-60
-61
-63
-64
-66
-70
-76
-81
-84
-86
-89
-91
-93
-94
-95
-95
-96
-97
-99
-101
-103
-104
-105
-105
-106
-108
-110
-114
-118
-121
-133
-154
-141
-98
1
160
372
615
846
1003
1024
976
773
492
199
-47
-210
-268
-287
-263
-226
-185
-166
-155
-148
-144
-141
-141
-140
-139
-138
-136
-134
-132
-131
-130
-130
-129
-129
-127
-126
-124
-124
-123
-123
-121
-118
-114
-110
-106
-103
-99
-95
-91
-87
-84
-82
-79
-75
-71
-66
-63
-62
-62
-64
-65
-68
-70
-74
-80
-85
-77
-60
-47
-37
-27
-17
-6
5
17
29
40
51
60
68
74
80
87
97
108
120
132
146
164
189
221
244
260
272
281
287
292
296
301
306
311
314
316
313
305
292
274
242
190
141
96
61
34
4
-26
-55
-77
-91
-101
-110
-123
-140
-155
-165
-172
-179
-185
-190
-193
-196
-198
-200
-201
-200
-198
-195
-192
-190
-187
-185
-182
-179
-177
-174
-171
-168
-165
-163
-162
-163
-165
-168
-170
-173
-176
-179
-182
-186
-190
-193
-194
-194
-193
-190
-186
-180
-173
-164
-155
-145
-134
-122
-113
-107
-102
-98
-95
-92
-90
-87
-84
-83
-83
-85
-87
-90
-94
-98
-103
-111
-119
-118
-102
-83
-74
-67
-60
-53
-47
-41
-35
-31
-27
-24
-22
-21
-21
-23
-25
-28
-30
-32
-33
-34
-35
-35
-36
-37
-38
-41
-47
-53
-55
-51
-46
-44
-42
-39
-37
-34
-30
-26
-22
-18
-15
-13
-11
-10
-9
-8
-4
0
2
3
0
-5
-12
-19
-24
-33
-43
-50
-50
-43
-33
-24
-21
-18
-16
-13
-10
-7
-4
-3
-1
0
2
4
4
4
3
2
1
2
3
4
6
8
11
15
19
23
27
32
38
49
63
74
84
91
95
98
102
106
110
114
118
121
124
127
130
132
132
131
129
126
123
121
119
118
117
115
114
114
113
112
110
106
100
95
92
90
89
89
89
90
91
94
97
99
99
94
85
73
60
41
26
14
2
-9
-16
-7
19
96
214
378
581
800
999
1120
1131
1061
859
592
317
94
-1
-27
-45
-57
-63
-65
-64
-60
-54
-49
-44
-41
-36
-30
-25
-22
-20
-20
-20
-21
-22
-24
-26
-28
-30
-32
-34
-38
-43
-47
-47
-41
-32
-24
-18
-12
-5
1
7
11
12
11
9
7
4
2
0
-5
-8
-10
-9
-4
2
8
13
18
24
30
35
40
46
51
57
64
72
80
90
104
119
133
147
160
172
184
197
211
225
238
253
271
296
319
341
354
363
372
379
384
387
388
385
379
371
360
346
327
290
257
223
189
157
115
62
17
-14
-40
-59
-74
-86
-94
-100
-104
-105
-106
-107
-109
-111
-112
-112
-112
-113
-115
-117
-119
-121
-121
-121
-121
-122
-124
-124
-125
-125
-126
-129
-133
-137
-138
-134
-125
-116
-108
-103
-98
-93
-87
-81
-78
-76
-77
-79
-82
-85
-88
-92
-96
-101
-106
-111
-115
-118
-119
-119
-116
-109
-100
-91
-82
-75
-71
-68
-66
-64
-62
-60
-58
-56
-55
-55
-54
-54
-54
-54
-54
-54
-55
-54
-52
-50
-48
-46
-44
-42
-40
-38
-37
-36
-36
-35
-33
-31
-28
-25
-23
-21
-19
-17
-15
-15
-15
-16
-17
-18
-17
-17
-16
-16
-16
-15
-14
-13
-12
-12
-12
-13
-14
-14
-14
-15
-16
-17
-17
-18
-18
-18
-18
-18
-18
-18
-17
-17
-16
-16
-16
-17
-18
-20
-22
-24
-26
-27
-28
-28
-28
-28
-26
-25
-23
-22
-22
-23
-23
-23
-23
-22
-21
-21
-20
-18
-15
-11
-7
-3
-1
1
3
6
10
14
18
22
28
37
48
58
68
79
88
95
104
113
121
127
128
124
115
104
91
79
66
49
31
20
15
12
10
8
7
5
4
4
5
5
3
1
0
-1
-1
-1
0
0
-1
-2
-4
-5
-7
-14
-27
0
82
212
393
616
850
1043
1109
1092
938
670
352
55
-170
-270
-304
-278
-197
-103
-86
-87
-88
-89
-91
-92
-93
-92
-91
-91
-91
-91
-93
-96
-100
-103
-104
-105
-105
-105
-105
-105
-104
-102
-101
-99
-96
-94
-92
-91
-90
-90
-90
-89
-88
-86
-84
-81
-78
-74
-70
-66
-62
-58
-55
-51
-47
-44
-41
-38
-34
-26
-18
-9
-1
4
10
17
23
31
39
46
53
61
69
77
85
91
96
103
111
124
144
164
185
210
239
272
302
329
342
348
354
360
364
363
350
331
307
274
239
191
141
106
78
55
26
-20
-55
-73
-87
-99
-112
-125
-134
-138
-141
-144
-147
-149
-152
-154
-156
-157
-159
-160
-162
-163
-163
-164
-164
-163
-163
-162
-162
-161
-160
-160
-159
-159
-160
-161
-161
-160
-158
-157
-155
-154
-153
-151
-148
-145
-143
-141
-140
-138
-135
-130
-126
-123
-120
-118
-115
-112
-109
-106
-105
-104
-102
-100
-98
-96
-95
-94
-93
-91
-88
-85
-83
-82
-81
-80
-77
-73
-70
-68
-66
-65
-63
-60
-58
-55
-54
-53
-51
-48
-45
-41
-38
-34
-31
-28
-25
-21
-19
-18
-18
-18
-17
-16
-14
-12
-10
-8
-5
-2
0
4
7
10
12
13
14
14
14
13
12
11
10
9
9
9
10
11
12
13
13
12
12
12
12
12
10
9
7
5
5
5
5
4
3
4
6
12
20
27
33
36
40
43
47
50
52
53
55
57
60
63
66
68
70
73
76
79
82
84
85
87
90
93
98
102
106
109
111
112
111
109
104
98
91
85
80
77
75
74
72
71
70
71
71
72
73
72
70
68
66
64
61
58
55
52
48
44
38
27
3
-11
-8
5
44
146
305
517
759
991
1171
1215
1190
1014
737
416
118
-102
-190
-219
-184
-126
-65
-45
-39
-33
-28
-23
-19
-15
-11
-7
-5
-4
-3
-2
-2
-2
0
0
3
5
8
9
10
10
9
8
8
9
11
13
14
15
16
18
21
23
24
25
26
27
29
31
34
37
41
45
51
57
63
68
72
75
79
84
89
96
102
111
122
135
147
158
167
175
185
197
215
238
266
284
296
307
317
326
334
340
345
350
356
366
381
396
410
421
432
440
439
428
412
392
364
337
301
256
211
168
143
130
119
105
92
78
65
52
38
23
8
-6
-18
-29
-40
-49
-56
-60
-62
-64
-65
-67
-69
-72
-75
-76
-76
-76
-75
-74
-72
-70
-68
-64
-60
-57
-56
-57
-61
-64
-68
-71
-74
-77
-79
-81
-82
-82
-81
-80
-78
-74
-71
-67
-63
-60
-58
-56
-55
-54
-53
-52
-51
-51
-51
-51
-52
-52
-52
-52
-52
-52
-52
-53
-53
-52
-53
-53
-53
-53
-52
-51
-51
-51
-52
-53
-54
-54
-54
-55
-56
-57
-58
-59
-60
-61
-63
-65
-67
-69
-70
-72
-74
-76
-79
-81
-82
-83
-84
-85
-86
-88
-89
-92
-94
-98
-101
-103
-105
-105
-104
-102
-99
-96
-93
-90
-88
-86
-84
-83
-81
-78
-75
-72
-70
-70
-70
-73
-77
-81
-86
-90
-94
-98
-103
-107
-111
-112
-109
-103
-94
-85
-77
-70
-63
-54
-47
-41
-40
-42
-45
-49
-52
-55
-59
-65
-71
-76
-77
-70
-56
-39
-22
-8
10
29
42
45
45
43
40
38
36
35
33
29
22
11
0
-9
-17
-25
-33
-41
-47
-50
-50
-46
-41
-36
-31
-25
-20
-11
-2
5
9
7
3
-2
-9
-17
-29
-37
-31
-12
42
138
279
469
691
912
1075
1099
1047
822
517
204
-46
-180
-224
-208
-158
-96
-87
-80
-73
-67
-63
-60
-58
-56
-53
-52
-51
-51
-52
-53
-54
-54
-53
-52
-50
-48
-45
-42
-40
-38
-37
-35
-33
-31
-30
-29
-28
-28
-26
-25
-23
-22
-20
-19
-16
-12
-9
-6
-4
-2
0
2
5
9
12
16
21
28
37
45
53
60
65
69
75
81
89
101
123
146
161
170
178
185
193
200
208
218
229
243
259
278
299
322
349
366
376
384
390
395
398
398
393
383
368
341
301
268
233
197
159
126
101
72
48
27
9
-7
-21
-32
-42
-52
-63
-72
-77
-81
-85
-89
-92
-95
-96
-97
-97
-96
-95
-93
-91
-88
-85
-83
-81
-79
-77
-75
-72
-69
-68
-68
-71
-75
-80
-83
-85
-88
-92
-95
-98
-99
-98
-95
-91
-88
-84
-82
-80
-78
-77
-76
-74
-73
-72
-71
-71
-71
-70
-70
-69
-69
-68
-68
-67
-65
-63
-61
-59
-56
-53
-50
-47
-43
-41
-40
-40
-39
-39
-39
-40
-42
-45
-48
-50
-51
-51
-52
-53
-54
-55
-55
-55
-55
-56
-56
-56
-55
-55
-56
-56
-57
-57
-57
-58
-59
-61
-62
-64
-65
-65
-65
-66
-67
-67
-67
-68
-69
-70
-71
-71
-71
-69
-67
-66
-65
-64
-63
-61
-60
-59
-58
-59
-60
-62
-64
-66
-68
-70
-72
-72
-72
-71
-69
-68
-68
-68
-69
-71
-73
-76
-80
-82
-84
-84
-83
-80
-76
-69
-62
-54
-47
-40
-35
-30
-26
-21
-16
-11
-6
-1
2
6
9
12
13
14
14
14
14
15
15
16
16
17
18
19
20
18
12
5
-2
-10
-19
-29
-44
-58
-66
-70
-72
-77
-84
-89
-80
-62
-50
-38
-28
-20
-18
-19
-24
-30
-36
-47
-65
-64
-35
46
180
365
581
793
955
996
976
833
606
345
99
-90
-189
-225
-225
-201
-167
-118
-91
-79
-70
-63
-59
-58
-57
-57
-58
-61
-66
-71
-78
-85
-90
-97
-103
-108
-111
-111
-105
-96
-85
-76
-70
-65
-61
-57
-53
-49
-45
-42
-40
-37
-33
-30
-27
-25
-23
-22
-21
-19
-17
-15
-12
-8
-4
2
9
16
24
31
38
43
47
52
57
63
71
81
91
104
117
131
145
159
171
182
192
203
214
226
240
253
271
305
351
378
396
410
420
430
441
446
437
415
390
360
340
316
279
238
196
151
112
80
47
17
-18
-36
-41
-47
-51
-56
-59
-61
-63
-64
-65
-67
-70
-72
-75
-77
-79
-81
-84
-86
-88
-89
-91
-92
-93
-94
-96
-97
-97
-98
-98
-98
-98
-98
-97
-95
-93
-91
-89
-89
-88
-89
-89
-89
-89
-89
-90
-90
-89
-87
-84
-81
-78
-76
-75
-74
-73
-72
-72
-72
-72
-71
-69
-66
-63
-61
-58
-56
-52
-49
-46
-43
-42
-42
-42
-41
-40
-39
-39
-38
-38
-37
-35
-34
-33
-33
-34
-35
-35
-34
-33
-31
-30
-28
-23
-12
-30
-46
-59
-67
-67
-58
-45
-32
-15
-3
6
16
27
33
22
2
-8
-16
-23
-30
-36
-41
-46
-50
-54
-56
-58
-59
-60
-61
-63
-67
-71
-74
-68
-56
-42
-30
-16
-3
5
7
2
-5
-13
-19
-24
-29
-35
-40
-46
-50
-53
-54
-54
-52
-50
-48
-45
-42
-39
-38
-37
-37
-36
-35
-32
-30
-27
-24
-21
-18
-13
-9
-5
-3
-1
0
3
7
13
19
24
29
36
45
54
61
64
64
60
55
49
43
39
36
33
31
30
29
27
25
23
20
16
13
11
8
6
4
3
2
0
0
-3
-5
-8
-12
-17
-24
-30
-36
-40
-43
-47
-50
-58
-69
-53
-5
81
217
404
628
851
1024
1065
1041
871
601
310
60
-112
-171
-191
-165
-121
-83
-64
-50
-51
-70
-86
-101
-111
-111
-104
-93
-85
-75
-68
-69
-79
-91
-99
-107
-114
-118
-117
-106
-92
-79
-72
-67
-62
-58
-54
-50
-47
-45
-43
-41
-39
-38
-36
-35
-33
-31
-28
-26
-23
-20
-18
-16
-14
-11
-9
-6
-1
4
12
19
27
34
40
45
50
55
60
67
77
99
119
132
140
148
156
164
171
182
201
234
267
308
345
368
381
389
394
400
404
407
406
399
386
368
335
283
245
215
182
150
118
90
67
48
27
1
-30
-64
-74
-79
-83
-87
-90
-93
-96
-98
-101
-103
-104
-105
-104
-103
-102
-101
-102
-102
-102
-103
-104
-105
-106
-105
-104
-101
-98
-95
-94
-93
-93
-93
-93
-93
-95
-96
-98
-99
-100
-100
-100
-99
-97
-94
-91
-89
-86
-83
-80
-77
-75
-73
-72
-71
-70
-68
-67
-66
-65
-64
-63
-61
-59
-58
-58
-59
-60
-60
-60
-60
-60
-61
-62
-61
-60
-57
-55
-52
-50
-49
-47
-46
-44
-43
-42
-42
-42
-42
-42
-41
-40
-40
-39
-39
-39
-39
-39
-39
-39
-38
-37
-35
-32
-31
-29
-28
-27
-27
-27
-27
-27
-27
-26
-24
-22
-19
-18
-18
-18
-18
-18
-19
-20
-23
-26
-28
-29
-29
-29
-29
-30
-31
-31
-30
-29
-29
-29
-30
-31
-31
-30
-28
-27
-26
-26
-26
-25
-25
-24
-24
-25
-25
-25
-25
-23
-22
-21
-21
-21
-21
-22
-22
-22
-23
-24
-25
-24
-23
-21
-18
-16
-14
-11
-9
-7
-5
-3
-1
0
1
3
7
13
20
28
37
45
51
56
59
62
64
66
68
71
73
78
84
89
93
90
80
67
54
46
38
30
21
12
4
-2
-5
-6
-6
-6
-7
-7
-7
-7
-8
-10
-13
-15
-17
-19
-19
-18
-16
-13
-8
-1
9
24
79
202
379
591
804
977
1055
1050
951
744
485
217
-13
-151
-202
-206
-184
-149
-107
-92
-87
-83
-80
-77
-75
-73
-71
-70
-69
-68
-67
-67
-68
-68
-67
-65
-63
-60
-59
-58
-56
-55
-54
-52
-50
-48
-45
-41
-37
-33
-30
-28
-28
-28
-28
-27
-27
-26
-25
-23
-20
-16
-11
-8
-4
-2
0
3
6
9
12
16
21
31
42
55
66
77
87
98
111
128
145
161
176
192
207
223
243
263
278
291
302
312
321
328
334
339
345
351
358
366
372
374
370
362
349
331
299
244
202
170
142
120
103
86
69
52
33
13
-7
-32
-58
-86
-101
-111
-115
-118
-121
-122
-123
-124
-124
-123
-121
-119
-117
-115
-113
-111
-109
-107
-106
-105
-104
-104
-103
-101
-99
-97
-96
-95
-95
-96
-97
-98
-99
-100
-101
-102
-102
-102
-100
-98
-95
-93
-91
-90
-88
-86
-83
-81
-80
-79
-80
-80
-81
-80
-80
-80
-79
-80
-80
-79
-79
-78
-77
-76
-74
-72
-69
-65
-61
-58
-55
-53
-51
-49
-47
-45
-44
-43
-42
-42
-41
-41
-40
-40
-40
-41
-42
-43
-43
-43
-43
-42
-41
-40
-38
-35
-33
-31
-30
-29
-28
-27
-26
-25
-25
-24
-23
-21
-19
-18
-16
-15
-14
-13
-13
-13
-14
-16
-19
-21
-24
-26
-27
-28
-29
-28
-27
-26
-24
-23
-23
-26
-30
-34
-36
-36
-35
-35
-35
-36
-36
-36
-35
-34
-34
-34
-34
-35
-37
-38
-40
-41
-41
-41
-41
-39
-38
-36
-35
-34
-32
-31
-29
-28
-26
-25
-24
-22
-21
-19
-16
-13
-11
-9
-6
-4
0
3
7
12
16
22
33
45
54
59
63
66
69
72
75
77
78
77
74
67
57
45
34
24
17
11
6
3
1
0
-2
-5
-7
-10
-13
-15
-19
-21
-23
-25
-26
-26
-26
-26
-27
-28
-31
-37
-49
-61
-63
-50
-21
67
227
447
699
936
1097
1122
1077
868
575
270
20
-143
-185
-198
-158
-139
-133
-129
-125
-120
-116
-112
-108
-104
-99
-96
-93
-91
-90
-90
-91
-91
-92
-93
-93
-95
-96
-97
-97
-97
-96
-94
-93
-93
-92
-91
-89
-87
-85
-83
-82
-80
-77
-73
-69
-65
-61
-57
-52
-45
-38
-30
-23
-18
-13
-9
-5
-1
2
5
8
12
18
27
39
51
61
71
81
91
103
115
130
151
173
193
213
232
246
256
263
270
277
286
295
305
316
326
334
343
351
357
357
351
340
327
313
292
273
255
228
187
145
103
68
41
11
-19
-47
-65
-73
-78
-83
-87
-90
-93
-96
-100
-104
-107
-109
-109
-110
-111
-113
-115
-118
-120
-123
-127
-131
-136
-140
-139
-136
-130
-123
-117
-111
-105
-97
-89
-82
-78
-76
-74
-72
-69
-65
-62
-62
-65
-70
-75
-79
-81
-85
-89
-93
-97
-98
-96
-90
-84
-77
-70
-66
-62
-58
-54
-51
-48
-45
-44
-42
-40
-39
-38
-38
-39
-40
-41
-41
-41
-42
-42
-43
-42
-41
-40
-39
-38
-38
-39
-38
-36
-34
-32
-32
-32
-31
-31
-29
-29
-29
-30
-32
-33
-33
-32
-31
-31
-31
-32
-33
-34
-36
-41
-45
-47
-43
-37
-35
-34
-32
-30
-28
-25
-22
-20
-18
-17
-17
-17
-18
-19
-20
-22
-25
-28
-31
-32
-34
-34
-35
-35
-36
-37
-37
-37
-37
-37
-38
-40
-41
-43
-45
-48
-50
-53
-54
-54
-53
-51
-49
-45
-42
-40
-37
-34
-31
-28
-25
-22
-19
-15
-9
-1
5
13
19
24
27
31
35
38
40
42
44
46
49
52
55
57
58
58
58
57
56
53
50
46
42
38
36
34
32
28
25
22
19
16
14
11
8
4
2
0
-1
-4
-8
-14
-21
-33
-58
-76
-91
-106
-105
-80
-13
96
253
447
660
869
1046
1127
1119
992
727
394
73
-156
-231
-226
-189
-169
-157
-156
-159
-162
-166
-171
-138
-110
-90
-75
-66
-62
-59
-56
-53
-49
-46
-45
-44
-44
-46
-48
-49
-50
-51
-51
-51
-50
-49
-48
-46
-45
-44
-43
-41
-39
-37
-35
-33
-30
-27
-23
-19
-15
-12
-9
-5
0
3
8
13
17
21
24
28
31
34
36
38
41
46
56
68
84
103
121
141
160
178
196
210
222
233
243
252
259
268
278
291
307
326
351
377
396
411
424
430
423
407
383
348
313
280
249
213
171
129
93
66
40
14
-10
-32
-47
-59
-68
-75
-81
-84
-85
-86
-86
-87
-87
-87
-87
-87
-88
-89
-89
-89
-89
-88
-88
-88
-88
-89
-90
-91
-92
-95
-98
-100
-103
-104
-106
-109
-115
-122
-128
-128
-121
-109
-98
-88
-77
-65
-57
-55
-57
-61
-67
-72
-79
-85
-88
-85
-79
-74
-71
-69
-66
-62
-59
-56
-54
-52
-50
-48
-45
-43
-42
-42
-41
-39
-37
-35
-33
-31
-30
-29
-27
-24
-22
-20
-20
-20
-21
-21
-22
-23
-24
-26
-29
-32
-34
-37
-40
-44
-51
-59
-63
-60
-54
-48
-45
-44
-42
-40
-38
-35
-33
-31
-28
-25
-23
-21
-20
-19
-18
-18
-19
-21
-23
-25
-27
-29
-32
-35
-38
-41
-44
-45
-46
-48
-52
-58
-63
-67
-70
-72
-73
-74
-73
-72
-69
-65
-62
-59
-57
-54
-52
-49
-46
-44
-43
-42
-41
-41
-41
-41
-40
-40
-38
-36
-33
-31
-29
-27
-27
-27
-28
-28
-27
-26
-24
-22
-19
-16
-13
-8
-3
2
8
14
21
36
64
79
90
100
105
92
69
57
48
41
33
25
18
13
10
8
6
4
2
2
3
4
4
2
0
-3
-6
-10
-13
-17
-21
-25
-30
-34
-40
-51
-60
-61
-49
-24
51
194
390
619
849
1044
1141
1139
1025
771
453
137
-107
-212
-248
-225
-153
-73
-42
-29
-16
-18
-45
-64
-81
-92
-96
-88
-73
-59
-52
-49
-46
-43
-40
-38
-35
-33
-32
-31
-30
-29
-30
-31
-32
-32
-32
-31
-30
-29
-28
-26
-25
-23
-20
-18
-16
-14
-12
-8
-4
0
5
11
17
23
29
34
38
41
44
48
52
57
62
68
76
84
92
100
107
114
122
134
152
170
190
209
227
247
267
286
303
318
330
340
346
353
359
364
368
370
370
368
363
357
350
340
328
307
284
258
216
162
127
105
79
49
23
0
-19
-36
-51
-63
-73
-82
-89
-95
-99
-103
-105
-106
-108
-110
-114
-117
-118
-116
-110
-101
-91
-83
-76
-67
-57
-48
-42
-43
-47
-52
-57
-61
-64
-66
-70
-73
-76
-78
-80
-82
-86
-89
-90
-90
-89
-88
-87
-86
-83
-80
-75
-71
-68
-66
-65
-63
-61
-60
-59
-59
-59
-59
-58
-56
-54
-53
-53
-52
-51
-50
-48
-48
-48
-49
-50
-49
-48
-46
-45
-44
-44
-43
-41
-40
-39
-40
-41
-42
-42
-43
-44
-46
-48
-49
-49
-49
-49
-49
-50
-51
-51
-51
-52
-53
-54
-54
-54
-53
-52
-50
-48
-46
-44
-41
-40
-40
-41
-43
-45
-47
-49
-51
-53
-55
-56
-57
-56
-55
-55
-55
-56
-57
-58
-58
-59
-59
-60
-61
-62
-63
-62
-61
-60
-58
-56
-55
-54
-53
-52
-51
-51
-52
-52
-52
-51
-49
-46
-44
-42
-39
-37
-34
-32
-30
-29
-28
-27
-25
-21
-17
-12
-8
-2
4
13
22
31
40
48
59
71
80
83
77
65
52
40
35
31
27
23
19
15
12
9
6
3
0
-1
-4
-5
-7
-8
-9
-10
-11
-13
-14
-16
-18
-20
-24
-29
-34
-45
-72
-83
-89
-100
-92
-28
85
255
469
704
923
1072
1092
1043
845
569
282
41
-123
-179
-200
-195
-156
-125
-98
-76
-72
-78
-87
-95
-105
-112
-110
-98
-84
-79
-76
-74
-71
-68
-66
-63
-60
-58
-57
-55
-55
-54
-54
-54
-53
-52
-51
-50
-48
-46
-44
-41
-38
-36
-34
-32
-28
-24
-19
-14
-10
-5
0
4
10
15
19
23
27
33
39
45
50
56
62
68
75
83
91
98
108
123
139
154
168
182
194
205
217
229
244
258
275
296
326
342
350
356
361
364
367
369
370
366
358
347
334
315
282
255
220
175
130
82
45
23
0
-22
-37
-48
-57
-65
-72
-79
-86
-93
-100
-105
-109
-113
-117
-120
-123
-125
-127
-129
-130
-131
-132
-134
-134
-134
-134
-134
-134
-133
-132
-130
-129
-127
-124
-122
-119
-116
-114
-112
-110
-108
-106
-104
-102
-101
-101
-99
-95
-90
-85
-84
-88
-95
-103
-110
-115
-121
-127
-132
-135
-135
-128
-117
-106
-96
-90
-84
-79
-74
-70
-66
-62
-59
-55
-51
-47
-44
-41
-39
-38
-38
-38
-38
-38
-39
-41
-41
-41
-38
-33
-28
-27
-29
-33
-37
-39
-40
-41
-43
-45
-48
-49
-50
-50
-48
-45
-41
-36
-31
-26
-22
-19
-17
-16
-16
-15
-14
-13
-13
-13
-13
-13
-13
-13
-14
-16
-18
-20
-21
-22
-22
-22
-21
-20
-19
-18
-16
-16
-15
-15
-14
-13
-12
-11
-10
-9
-7
-4
-1
0
1
1
0
-1
-4
-7
-9
-11
-13
-14
-15
-17
-18
-20
-23
-29
-34
-33
-16
1
10
17
24
31
38
44
50
56
62
67
72
77
80
82
85
88
91
94
98
102
107
113
118
121
122
121
118
113
108
102
96
91
85
81
77
74
71
67
63
59
55
51
48
44
41
38
37
35
33
31
29
26
22
18
13
5
-9
-21
-22
-17
-5
29
124
275
479
719
958
1141
1181
1153
966
678
364
91
-95
-156
-178
-174
-148
-126
-110
-95
-83
-73
-67
-62
-58
-52
-48
-46
-45
-44
-45
-47
-50
-54
-58
-63
-69
-73
-78
-84
-90
-95
-98
-98
-93
-85
-75
-66
-58
-52
-48
-44
-42
-39
-36
-33
-28
-23
-18
-14
-10
-7
-3
0
3
4
6
7
10
15
20
26
33
39
45
52
59
65
71
76
82
89
99
111
124
137
151
164
177
190
203
214
225
236
251
271
289
304
322
342
359
373
385
391
384
364
335
293
253
212
172
129
82
38
4
-21
-44
-66
-88
-118
-129
-134
-139
-144
-148
-151
-154
-157
-159
-161
-162
-162
-163
-163
-163
-162
-162
-162
-161
-161
-161
-162
-162
-162
-162
-160
-159
-157
-155
-153
-151
-149
-147
-146
-146
-146
-146
-146
-145
-145
-144
-144
-142
-140
-136
-133
-130
-129
-128
-128
-129
-130
-130
-130
-131
-131
-131
-129
-127
-124
-121
-119
-117
-116
-116
-115
-114
-112
-110
-107
-99
-90
-90
-96
-103
-108
-111
-115
-119
-122
-124
-126
-127
-126
-122
-117
-110
-102
-95
-90
-86
-81
-76
-70
-64
-59
-55
-52
-49
-45
-42
-41
-40
-41
-41
-41
-41
-41
-42
-43
-44
-44
-42
-40
-39
-41
-46
-52
-57
-61
-65
-70
-74
-79
-82
-83
-82
-80
-76
-71
-65
-58
-51
-43
-32
-22
-15
-11
-7
-5
-4
-3
-2
-1
0
-1
-5
-11
-17
-23
-28
-34
-41
-47
-51
-53
-51
-46
-38
-29
-22
-16
-10
-3
2
9
15
20
25
31
37
43
51
58
66
77
88
98
107
115
121
126
131
135
138
142
144
144
142
136
130
122
113
104
92
73
57
49
43
37
29
24
24
31
40
45
50
53
56
59
61
63
63
62
58
54
48
42
32
15
15
44
121
257
445
668
897
1092
1183
1175
1039
762
426
121
-80
-135
-122
-83
-66
-55
-47
-41
-35
-30
-25
-18
-10
0
3
1
-7
-16
-23
-31
-37
-38
-30
-16
-3
1
4
8
11
15
19
23
26
28
31
33
35
36
37
37
37
37
37
37
36
34
32
30
27
25
24
22
20
18
16
14
12
10
7
-1
-9
-10
0
15
33
59
88
111
128
144
160
174
186
195
203
211
220
227
235
243
254
269
287
308
331
353
367
375
382
390
396
396
385
367
337
294
254
211
172
142
112
82
52
26
13
5
-1
-7
-13
-19
-26
-33
-40
-47
-53
-58
-62
-65
-67
-71
-74
-78
-83
-86
-90
-92
-95
-97
-99
-99
-99
-97
-95
-94
-94
-94
-94
-94
-94
-93
-91
-90
-89
-88
-85
-82
-78
-75
-73
-71
-69
-66
-64
-62
-61
-60
-60
-59
-58
-55
-53
-52
-51
-51
-52
-53
-55
-58
-63
-68
-72
-77
-82
-87
-91
-91
-84
-73
-62
-52
-43
-33
-25
-20
-18
-20
-25
-30
-36
-40
-44
-48
-52
-56
-58
-60
-60
-58
-55
-52
-48
-46
-43
-39
-35
-30
-27
-25
-25
-26
-28
-30
-33
-37
-42
-46
-50
-52
-54
-56
-57
-59
-61
-62
-63
-63
-63
-62
-60
-58
-55
-51
-49
-47
-45
-42
-38
-35
-33
-31
-31
-31
-32
-33
-35
-37
-40
-42
-43
-43
-43
-42
-42
-41
-41
-40
-39
-39
-39
-39
-38
-37
-35
-32
-29
-27
-24
-22
-19
-17
-15
-14
-13
-10
-6
0
6
14
21
26
30
34
36
37
38
39
40
44
49
56
61
64
63
56
48
39
30
21
12
4
-1
-6
-10
-13
-15
-16
-15
-15
-17
-21
-27
-32
-34
-32
-27
-21
-17
-13
-9
-4
2
11
18
25
35
52
119
256
442
657
865
1002
1048
1003
865
602
303
28
-174
-237
-258
-220
-155
-98
-83
-79
-74
-71
-68
-65
-63
-60
-58
-58
-59
-60
-62
-64
-66
-67
-67
-67
-65
-63
-60
-56
-54
-52
-50
-49
-47
-45
-43
-41
-39
-36
-33
-29
-26
-22
-19
-16
-13
-11
-9
-7
-6
-4
-1
1
4
8
11
15
18
22
26
31
37
44
52
60
68
76
84
91
98
104
110
117
126
142
176
206
226
240
252
264
279
296
311
325
338
350
360
366
368
370
371
373
375
380
382
370
342
310
272
244
210
159
111
75
44
20
2
-11
-25
-37
-40
-42
-45
-48
-51
-54
-57
-61
-64
-68
-70
-72
-72
-72
-72
-72
-72
-72
-73
-73
-74
-75
-77
-79
-80
-80
-79
-78
-78
-77
-77
-76
-76
-76
-76
-78
-80
-81
-83
-83
-83
-84
-84
-83
-82
-80
-78
-75
-74
-73
-72
-71
-70
-68
-67
-65
-62
-60
-57
-53
-50
-48
-47
-48
-49
-50
-51
-54
-56
-58
-60
-62
-62
-62
-62
-67
-70
-64
-56
-54
-54
-54
-55
-56
-57
-57
-56
-55
-53
-52
-50
-49
-47
-47
-47
-47
-48
-49
-50
-49
-48
-47
-46
-46
-46
-46
-46
-46
-46
-47
-48
-49
-50
-51
-51
-51
-51
-51
-50
-50
-51
-52
-53
-54
-55
-56
-57
-58
-59
-59
-59
-58
-58
-58
-58
-57
-57
-56
-55
-55
-56
-56
-56
-56
-55
-55
-55
-55
-54
-52
-51
-49
-49
-48
-49
-49
-45
-37
-35
-34
-34
-35
-35
-35
-35
-34
-33
-32
-29
-25
-21
-16
-11
-6
0
5
11
17
24
31
39
48
57
66
73
79
82
83
81
77
71
63
56
49
42
36
32
28
25
21
17
12
7
3
-1
-5
-9
-12
-15
-18
-21
-23
-22
-20
-17
-15
-12
-9
-5
0
5
12
20
31
100
260
473
718
952
1104
1122
1055
833
548
266
36
-115
-171
-200
-219
-190
-141
-84
-42
-15
-5
-15
-31
-38
-42
-45
-49
-52
-55
-57
-60
-63
-65
-66
-66
-64
-62
-60
-58
-57
-57
-57
-56
-55
-53
-51
-48
-45
-42
-39
-35
-32
-28
-25
-23
-20
-17
-15
-14
-12
-10
-7
-2
3
9
16
22
28
35
41
46
50
54
57
60
65
70
75
82
89
98
108
118
128
138
149
162
182
211
235
255
279
308
343
362
376
388
396
400
401
400
396
390
380
367
342
294
253
223
201
173
137
99
58
28
12
-1
-16
-30
-41
-50
-58
-65
-73
-81
-90
-98
-104
-109
-113
-118
-122
-126
-128
-129
-131
-132
-132
-132
-132
-130
-127
-124
-122
-120
-119
-117
-114
-109
-104
-100
-101
-106
-114
-121
-125
-130
-134
-138
-143
-146
-147
-146
-143
-139
-134
-129
-123
-119
-115
-112
-110
-107
-104
-101
-99
-97
-95
-94
-92
-90
-88
-86
-85
-85
-85
-85
-84
-84
-83
-82
-82
-81
-80
-79
-79
-79
-79
-79
-79
-79
-79
-79
-79
-79
-80
-80
-79
-78
-77
-77
-77
-77
-78
-78
-78
-78
-78
-78
-79
-79
-79
-77
-75
-73
-71
-70
-70
-69
-67
-67
-66
-66
-65
-64
-59
-54
-48
-44
-43
-44
-47
-53
-59
-67
-73
-81
-88
-94
-99
-103
-106
-107
-106
-102
-95
-87
-78
-70
-62
-56
-50
-43
-37
-33
-29
-26
-24
-23
-22
-22
-22
-22
-22
-21
-21
-21
-22
-24
-26
-28
-29
-30
-30
-30
-29
-27
-23
-18
-12
-7
-1
2
7
13
19
25
32
38
46
56
66
76
83
91
99
106
113
118
121
119
116
111
107
102
97
91
82
71
61
50
42
36
31
27
24
22
20
18
15
12
7
3
1
0
-1
-3
-6
-10
-15
-20
-31
-39
-40
-28
-4
69
189
348
537
743
940
1083
1104
1059
854
568
264
16
-116
-160
-142
-112
-72
-46
-34
-24
-20
-21
-27
-37
-45
-52
-59
-67
-73
-75
-71
-62
-52
-43
-38
-35
-30
-26
-22
-19
-16
-15
-14
-13
-12
-11
-11
-11
-11
-11
-11
-10
-8
-6
-4
-2
-1
1
4
7
10
13
16
19
23
29
35
41
47
53
58
64
69
74
77
79
81
83
87
92
98
108
133
158
180
200
218
236
257
281
311
330
342
352
359
365
369
372
376
380
387
392
392
381
363
342
313
285
260
239
219
200
183
168
154
141
126
98
53
13
-15
-45
-61
-73
-84
-91
-96
-98
-98
-97
-97
-97
-97
-97
-97
-97
-98
-100
-100
-101
-101
-100
-100
-100
-100
-99
-98
-98
-98
-99
-99
-100
-100
-100
-100
-101
-101
-100
-99
-99
-99
-98
-98
-97
-95
-92
-90
-88
-85
-82
-79
-76
-73
-71
-70
-69
-68
-67
-65
-62
-60
-58
-55
-52
-49
-46
-44
-42
-41
-40
-38
-37
-35
-33
-32
-31
-30
-29
-28
-27
-28
-30
-31
-33
-34
-34
-35
-35
-36
-36
-36
-35
-34
-34
-35
-37
-40
-40
-38
-34
-29
-25
-22
-19
-15
-10
-6
-2
0
1
1
1
0
-2
-5
-9
-12
-15
-16
-17
-18
-18
-19
-21
-23
-24
-24
-24
-24
-23
-24
-24
-23
-21
-18
-15
-13
-14
-17
-21
-25
-26
-28
-31
-34
-37
-39
-40
-40
-40
-39
-39
-38
-38
-36
-35
-35
-36
-38
-41
-42
-43
-43
-44
-44
-44
-44
-43
-41
-39
-39
-39
-41
-41
-41
-40
-38
-35
-33
-31
-27
-22
-16
-10
-6
-2
1
7
24
41
49
52
55
59
67
72
64
44
27
8
-5
-15
-23
-27
-30
-34
-37
-39
-41
-42
-43
-44
-45
-46
-48
-50
-52
-54
-56
-60
-62
-65
-67
-70
-72
-76
-82
-92
-101
-101
-88
-62
14
165
374
621
867
1070
1155
1146
1000
717
374
43
-209
-301
-332
-299
-202
-137
-125
-117
-110
-104
-99
-95
-91
-84
-79
-75
-72
-70
-70
-72
-73
-74
-74
-75
-75
-75
-74
-73
-70
-66
-61
-56
-53
-50
-47
-46
-44
-43
-42
-41
-40
-37
-33
-29
-25
-21
-18
-16
-14
-13
-12
-13
-15
-17
-20
-23
-25
-29
-32
-32
-21
-6
7
21
36
49
62
75
87
98
110
121
131
142
153
164
175
186
197
210
227
249
276
307
325
339
352
362
370
373
371
366
358
349
337
320
287
264
235
195
157
130
102
75
46
5
-22
-40
-55
-68
-79
-88
-96
-101
-106
-111
-115
-119
-121
-120
-118
-115
-112
-109
-107
-104
-101
-99
-97
-95
-94
-93
-92
-90
-88
-87
-87
-88
-90
-92
-94
-96
-97
-98
-99
-99
-99
-98
-97
-95
-94
-92
-92
-91
-90
-88
-86
-83
-80
-76
-72
-67
-62
-56
-51
-48
-46
-46
-46
-46
-47
-48
-51
-53
-56
-57
-58
-59
-62
-66
-70
-70
-64
-54
-44
-38
-32
-27
-21
-16
-12
-10
-11
-14
-19
-24
-28
-32
-37
-43
-50
-55
-56
-54
-50
-46
-43
-40
-37
-33
-29
-25
-23
-21
-21
-22
-23
-24
-24
-25
-27
-27
-28
-28
-28
-28
-29
-30
-32
-34
-35
-37
-38
-39
-39
-39
-38
-37
-36
-35
-34
-34
-35
-36
-36
-36
-35
-34
-34
-33
-32
-32
-32
-32
-34
-35
-37
-38
-38
-38
-38
-37
-37
-36
-36
-35
-35
-36
-37
-38
-38
-38
-37
-36
-34
-33
-32
-30
-29
-28
-26
-25
-22
-16
-9
-1
8
22
37
52
67
77
86
92
97
99
100
99
95
87
77
66
56
47
41
36
31
26
21
15
10
5
0
-3
-6
-9
-11
-12
-13
-14
-15
-15
-15
-15
-16
-18
-21
-25
-31
-43
-50
-43
-21
38
167
358
599
854
1075
1192
1193
1080
812
476
153
-78
-168
-198
-174
-134
-82
-55
-44
-33
-24
-17
-12
-10
-7
-6
-7
-10
-14
-20
-28
-37
-47
-57
-70
-97
-112
-120
-127
-134
-140
-144
-148
-149
-147
-140
-130
-118
-102
-74
-39
-20
-8
0
8
14
20
25
30
35
41
46
52
56
60
64
69
75
81
86
91
97
103
110
120
129
139
151
167
185
201
217
230
242
253
263
274
284
294
303
312
322
335
348
360
372
381
389
397
404
411
415
415
413
408
400
389
370
333
296
257
222
195
168
131
89
55
31
3
-11
-20
-28
-34
-40
-45
-49
-54
-58
-63
-67
-71
-75
-79
-83
-86
-89
-91
-93
-94
-96
-97
-98
-98
-97
-96
-95
-93
-93
-92
-90
-88
-85
-83
-80
-78
-76
-74
-73
-71
-71
-70
-68
-65
-63
-61
-62
-63
-64
-65
-65
-65
-66
-68
-69
-70
-69
-69
-68
-67
-66
-64
-62
-59
-57
-56
-55
-55
-53
-52
-51
-50
-51
-53
-55
-57
-58
-59
-61
-63
-66
-68
-68
-67
-64
-60
-56
-52
-48
-45
-40
-36
-33
-32
-34
-40
-46
-54
-61
-66
-73
-79
-86
-91
-93
-91
-87
-82
-77
-73
-68
-63
-55
-47
-40
-38
-42
-47
-52
-55
-56
-57
-58
-60
-62
-63
-65
-67
-70
-73
-76
-77
-77
-76
-75
-73
-72
-70
-69
-67
-65
-65
-66
-68
-69
-70
-71
-72
-73
-75
-76
-76
-76
-75
-74
-73
-73
-73
-73
-73
-74
-76
-77
-78
-79
-79
-78
-73
-66
-59
-54
-50
-46
-43
-39
-36
-33
-31
-28
-25
-21
-16
-11
-7
-2
2
7
14
20
27
34
40
46
51
55
57
55
50
44
37
31
24
17
6
-5
-14
-20
-25
-29
-33
-37
-41
-43
-44
-44
-45
-46
-47
-49
-50
-50
-49
-48
-47
-47
-46
-44
-41
-36
-31
-24
-17
18
124
282
477
687
887
1042
1076
1049
871
586
262
-26
-217
-274
-272
-206
-122
-83
-79
-75
-72
-69
-67
-66
-64
-62
-60
-58
-57
-57
-59
-61
-61
-59
-57
-55
-54
-53
-52
-51
-50
-48
-47
-45
-44
-42
-40
-38
-36
-33
-31
-26
-21
-14
-7
-2
1
5
7
10
13
15
18
20
23
26
29
33
37
42
46
50
54
60
67
78
98
115
129
139
148
157
167
180
193
208
228
254
277
298
312
323
332
340
349
358
366
374
382
391
401
408
409
403
392
378
360
332
303
280
262
245
230
215
189
144
102
71
43
15
-12
-42
-57
-66
-74
-80
-84
-86
-86
-85
-83
-81
-80
-79
-77
-75
-74
-73
-72
-71
-70
-67
-64
-61
-60
-59
-60
-61
-63
-66
-69
-72
-76
-79
-82
-84
-87
-94
-100
-99
-87
-72
-63
-57
-52
-48
-44
-40
-37
-33
-32
-32
-33
-34
-35
-36
-38
-39
-42
-45
-47
-49
-53
-62
-69
-65
-57
-54
-53
-51
-49
-48
-47
-45
-42
-39
-37
-36
-36
-37
-37
-37
-36
-36
-35
-36
-36
-36
-35
-34
-34
-34
-34
-35
-36
-36
-37
-39
-41
-43
-45
-47
-48
-49
-49
-50
-51
-51
-51
-50
-50
-50
-50
-50
-49
-48
-47
-46
-44
-43
-40
-37
-34
-31
-29
-27
-25
-24
-23
-23
-23
-23
-24
-24
-23
-23
-23
-24
-27
-30
-34
-37
-40
-42
-45
-47
-49
-51
-52
-53
-54
-55
-56
-56
-55
-54
-52
-50
-48
-46
-45
-43
-42
-41
-40
-39
-37
-35
-33
-32
-32
-32
-31
-30
-28
-27
-26
-24
-22
-20
-17
-14
-10
-5
-1
4
11
18
27
41
66
76
80
83
84
86
86
86
84
78
69
59
51
47
43
40
37
33
30
26
23
19
15
12
10
8
8
8
8
7
5
3
0
-4
-9
-18
-28
-39
-49
-58
-67
-79
-95
-95
-69
0
112
262
444
648
853
1021
1102
1101
1004
788
504
205
-52
-186
-231
-208
-137
-80
-60
-53
-60
-75
-86
-97
-105
-106
-98
-84
-71
-63
-57
-50
-44
-39
-35
-33
-33
-33
-35
-36
-38
-42
-45
-49
-53
-58
-63
-68
-72
-73
-72
-70
-66
-61
-54
-45
-36
-27
-19
-14
-10
-6
-2
1
6
11
16
22
28
33
38
40
41
42
42
42
43
44
45
48
54
69
87
109
130
151
172
191
211
231
250
269
284
298
309
317
323
328
332
337
341
345
347
348
346
340
332
321
307
286
249
218
178
131
85
39
5
-15
-35
-53
-65
-74
-82
-89
-96
-104
-110
-115
-119
-121
-123
-126
-128
-129
-131
-133
-136
-139
-141
-142
-141
-139
-138
-137
-137
-137
-136
-136
-135
-135
-135
-136
-136
-135
-133
-130
-128
-126
-124
-123
-121
-119
-118
-116
-116
-116
-115
-113
-111
-108
-104
-101
-99
-96
-94
-92
-91
-90
-91
-91
-91
-90
-88
-86
-83
-81
-79
-76
-74
-71
-69
-68
-68
-67
-66
-65
-64
-63
-61
-60
-58
-56
-54
-53
-52
-51
-50
-49
-49
-49
-50
-51
-51
-50
-49
-49
-49
-50
-50
-49
-48
-47
-47
-48
-49
-49
-48
-46
-45
-44
-43
-41
-39
-37
-35
-34
-34
-35
-35
-35
-35
-36
-38
-40
-41
-41
-41
-40
-41
-42
-44
-46
-49
-51
-53
-56
-58
-58
-57
-55
-51
-48
-45
-42
-38
-34
-31
-29
-28
-28
-27
-26
-24
-22
-20
-19
-18
-18
-17
-17
-18
-18
-19
-20
-21
-20
-18
-16
-13
-10
-7
-4
0
3
7
12
16
22
30
40
51
61
68
72
74
76
77
79
80
82
84
86
87
85
77
65
54
48
43
38
33
29
25
22
20
19
18
17
16
15
13
10
8
5
2
0
-1
-3
-5
-8
-11
-15
-22
-38
-48
-42
-23
28
134
291
494
722
940
1109
1146
1119
935
652
340
66
-117
-167
-185
-151
-128
-117
-110
-102
-95
-89
-82
-75
-69
-63
-58
-53
-50
-48
-47
-46
-45
-45
-44
-42
-41
-39
-37
-35
-34
-34
-34
-34
-33
-32
-29
-26
-22
-18
-14
-10
-6
-1
1
5
8
10
13
15
19
23
27
31
35
38
42
45
47
49
51
51
51
52
53
55
58
62
66
72
80
94
110
128
146
166
187
211
234
251
267
289
316
337
348
356
363
368
371
373
374
375
374
373
369
364
356
346
335
312
267
225
187
154
115
79
53
34
19
6
-10
-34
-54
-73
-86
-93
-97
-102
-106
-109
-110
-109
-104
-98
-92
-89
-85
-81
-78
-75
-72
-70
-69
-68
-70
-73
-77
-81
-86
-91
-96
-101
-106
-111
-116
-118
-119
-119
-117
-112
-106
-98
-90
-83
-77
-75
-73
-72
-70
-67
-65
-62
-60
-57
-55
-52
-51
-50
-50
-50
-51
-52
-52
-52
-52
-53
-53
-52
-51
-50
-48
-46
-45
-44
-43
-42
-41
-40
-40
-41
-42
-44
-45
-47
-48
-49
-49
-50
-49
-49
-49
-49
-49
-49
-49
-50
-52
-54
-55
-53
-50
-48
-46
-45
-43
-41
-39
-37
-36
-35
-35
-34
-33
-33
-33
-35
-38
-43
-47
-50
-53
-57
-61
-66
-70
-74
-77
-82
-89
-95
-99
-99
-95
-88
-78
-66
-46
-19
-18
-17
-16
-14
-13
-13
-18
-26
-33
-38
-43
-48
-53
-58
-62
-64
-65
-65
-65
-63
-60
-56
-51
-46
-41
-36
-31
-25
-15
-3
4
6
6
7
8
9
10
11
11
10
9
9
10
12
14
16
18
21
24
27
28
26
19
9
-1
-10
-17
-24
-31
-37
-43
-47
-49
-50
-50
-50
-50
-49
-48
-46
-42
-38
-34
-26
-21
-27
-40
-53
-70
-72
-58
-22
79
242
454
691
910
1057
1076
1021
812
525
226
-11
-152
-186
-190
-195
-197
-193
-180
-159
-125
-101
-85
-79
-82
-89
-93
-97
-102
-106
-107
-104
-96
-88
-81
-78
-75
-72
-68
-63
-58
-55
-52
-49
-47
-45
-44
-42
-41
-40
-39
-39
-39
-39
-39
-38
-36
-34
-33
-32
-30
-28
-25
-22
-19
-17
-14
-9
-3
3
10
19
28
36
45
56
69
86
101
114
125
137
148
158
166
172
179
188
201
216
234
252
269
287
303
316
328
336
344
350
355
358
359
355
348
338
325
306
275
251
225
199
175
144
102
64
37
10
-16
-43
-72
-82
-87
-92
-97
-100
-104
-106
-108
-109
-109
-110
-111
-111
-111
-110
-111
-111
-113
-114
-114
-114
-114
-113
-112
-111
-110
-109
-107
-107
-106
-106
-105
-104
-102
-100
-99
-97
-94
-91
-88
-85
-82
-79
-74
-67
-59
-53
-50
-50
-52
-55
-58
-61
-66
-73
-81
-85
-81
-72
-64
-62
-60
-58
-55
-51
-47
-43
-40
-38
-37
-37
-37
-38
-40
-42
-44
-45
-47
-48
-49
-49
-48
-47
-46
-46
-47
-48
-50
-51
-52
-52
-53
-54
-54
-54
-52
-50
-48
-47
-46
-44
-42
-39
-37
-36
-36
-36
-36
-36
-35
-36
-36
-37
-36
-31
-25
-25
-34
-46
-54
-62
-68
-73
-76
-77
-75
-70
-63
-56
-50
-45
-41
-36
-32
-29
-26
-26
-27
-29
-32
-35
-38
-41
-44
-48
-52
-54
-56
-57
-57
-58
-58
-58
-57
-54
-51
-49
-47
-45
-41
-36
-31
-26
-18
-10
-6
-7
-7
-8
-10
-14
-11
9
26
41
53
60
66
70
75
79
83
86
86
83
74
63
51
40
32
26
19
13
7
2
0
-2
-5
-7
-10
-13
-14
-15
-16
-16
-17
-18
-19
-19
-19
-19
-19
-19
-21
-23
-31
-31
-13
33
124
260
444
664
888
1060
1086
1050
847
560
260
13
-146
-192
-206
-172
-129
-93
-73
-63
-57
-52
-48
-45
-44
-42
-42
-44
-46
-48
-51
-54
-59
-63
-64
-58
-46
-35
-31
-28
-26
-23
-21
-19
-18
-16
-15
-15
-14
-14
-13
-11
-9
-7
-5
-4
-2
-1
0
3
4
6
7
9
13
18
24
30
40
52
63
73
84
93
102
109
116
123
129
135
141
146
151
155
162
169
180
198
215
233
261
306
337
353
365
373
378
382
385
390
396
400
402
397
385
367
346
313
283
242
193
158
134
112
91
71
52
32
9
-13
-37
-48
-54
-57
-59
-62
-65
-68
-71
-75
-78
-81
-85
-89
-92
-93
-94
-94
-94
-95
-97
-101
-104
-108
-111
-113
-114
-115
-114
-112
-109
-105
-101
-98
-96
-94
-92
-89
-87
-84
-82
-79
-70
-61
-60
-66
-75
-82
-89
-96
-100
-102
-98
-91
-84
-78
-76
-74
-71
-68
-66
-64
-62
-60
-58
-56
-54
-54
-54
-55
-56
-56
-57
-57
-58
-58
-58
-58
-57
-55
-54
-52
-49
-47
-44
-41
-39
-37
-35
-33
-32
-31
-30
-30
-30
-30
-30
-30
-30
-30
-30
-31
-32
-33
-33
-34
-35
-36
-37
-37
-38
-39
-39
-38
-38
-38
-38
-39
-39
-38
-38
-37
-36
-35
-34
-34
-33
-33
-34
-35
-36
-37
-38
-39
-41
-42
-43
-43
-43
-43
-41
-40
-40
-40
-40
-40
-40
-38
-37
-36
-35
-36
-37
-37
-36
-36
-37
-38
-39
-38
-36
-33
-31
-29
-26
-24
-20
-15
-10
-6
-2
2
14
30
42
48
50
52
54
56
59
62
64
64
63
63
62
62
60
57
52
46
39
33
29
25
22
18
14
11
9
7
5
3
0
-3
-7
-8
-9
-9
-10
-11
-12
-14
-16
-18
-20
-27
-41
-22
35
126
257
429
631
835
1006
1077
1065
929
674
374
104
-83
-145
-165
-126
-92
-71
-56
-46
-41
-38
-36
-34
-32
-29
-26
-24
-24
-27
-33
-40
-47
-53
-58
-66
-75
-82
-85
-80
-67
-53
-40
-34
-29
-24
-19
-14
-11
-8
-7
-6
-4
-3
-1
-1
-1
-1
-1
0
0
1
2
3
4
5
7
9
12
14
18
22
28
34
42
62
82
99
115
127
135
143
150
159
168
178
189
201
217
238
259
276
293
308
322
336
347
357
367
374
382
390
395
398
394
385
370
353
328
288
262
228
188
151
111
76
50
19
-10
-38
-64
-79
-91
-100
-107
-109
-108
-105
-102
-99
-98
-96
-93
-91
-88
-87
-85
-84
-84
-84
-86
-89
-95
-100
-106
-111
-115
-119
-123
-128
-133
-138
-141
-143
-143
-140
-134
-127
-119
-110
-101
-94
-85
-76
-67
-60
-56
-55
-55
-56
-58
-60
-62
-65
-69
-75
-80
-84
-84
-82
-79
-76
-73
-71
-68
-65
-61
-59
-57
-56
-56
-56
-57
-57
-58
-59
-59
-58
-56
-54
-52
-50
-49
-48
-47
-47
-47
-48
-49
-50
-51
-50
-49
-48
-46
-46
-47
-50
-54
-57
-60
-64
-67
-69
-71
-71
-69
-66
-60
-55
-49
-44
-39
-35
-31
-27
-24
-21
-20
-19
-19
-19
-21
-24
-27
-31
-34
-37
-40
-43
-46
-49
-54
-60
-63
-62
-58
-53
-48
-45
-42
-39
-37
-35
-34
-33
-32
-32
-33
-34
-36
-38
-39
-40
-42
-44
-45
-45
-44
-42
-40
-38
-36
-34
-32
-29
-27
-25
-22
-20
-17
-12
-7
-2
3
9
14
20
25
29
31
33
35
37
39
42
44
47
51
55
58
61
63
65
64
59
51
41
29
17
7
-1
-12
-25
-36
-45
-50
-50
-48
-44
-38
-31
-22
-10
9
23
33
43
53
58
48
23
-7
-40
-50
-64
-56
12
142
329
568
835
1082
1224
1229
1113
827
476
153
-73
-154
-182
-154
-106
-61
-39
-24
-18
-28
-49
-76
-103
-105
-107
-110
-106
-79
-54
-29
-22
-21
-21
-20
-19
-17
-15
-14
-14
-14
-15
-17
-19
-22
-26
-30
-34
-38
-41
-44
-47
-51
-56
-59
-61
-58
-52
-42
-31
-16
8
24
35
44
51
56
57
53
48
42
36
28
22
22
33
50
67
88
106
121
133
144
154
166
180
193
208
225
242
260
277
294
311
327
344
361
374
388
400
407
407
401
388
373
352
320
287
258
234
210
186
162
138
115
94
70
41
6
-42
-93
-114
-124
-131
-137
-140
-141
-140
-136
-131
-123
-116
-110
-105
-98
-91
-84
-78
-76
-78
-84
-92
-101
-110
-118
-130
-141
-151
-155
-150
-139
-126
-117
-113
-109
-105
-101
-97
-93
-89
-86
-82
-79
-76
-75
-74
-74
-75
-76
-76
-77
-76
-75
-73
-71
-70
-68
-67
-67
-66
-66
-65
-65
-64
-63
-61
-60
-59
-59
-59
-59
-60
-61
-62
-64
-67
-69
-71
-72
-73
-74
-75
-76
-76
-76
-76
-76
-77
-78
-79
-80
-79
-79
-78
-77
-77
-77
-77
-77
-77
-78
-79
-80
-80
-80
-79
-79
-80
-82
-84
-86
-88
-91
-93
-96
-98
-101
-103
-104
-105
-106
-106
-107
-109
-111
-113
-115
-116
-116
-114
-112
-109
-106
-101
-95
-89
-83
-78
-74
-70
-67
-64
-61
-57
-54
-51
-47
-43
-38
-34
-29
-26
-23
-21
-19
-17
-17
-17
-17
-17
-16
-15
-12
-10
-8
-7
-6
-6
-5
-4
-5
-5
-6
-7
-8
-9
-10
-10
-10
-10
-10
-10
-10
-10
-9
-9
-10
-11
-12
-14
-16
-19
-22
-24
-25
-25
-26
-27
-27
-26
-25
-21
-17
-13
-7
15
99
228
407
628
859
1053
1116
1092
899
577
220
-85
-244
-296
-266
-175
-104
-77
-76
-85
-92
-98
-103
-102
-88
-73
-68
-66
-65
-64
-63
-59
-55
-51
-48
-46
-45
-43
-41
-40
-38
-37
-35
-34
-32
-30
-28
-26
-24
-21
-19
-15
-12
-8
-6
-3
-2
-1
0
0
0
0
0
0
2
6
11
17
23
29
35
41
48
54
60
66
71
77
84
93
102
112
121
129
136
143
151
159
173
199
225
249
269
291
316
331
342
352
360
366
370
372
371
368
365
360
353
344
325
284
241
192
146
112
84
59
38
18
0
-22
-47
-76
-95
-109
-120
-126
-126
-119
-107
-95
-86
-76
-66
-59
-57
-60
-68
-77
-85
-90
-94
-99
-104
-110
-115
-119
-122
-124
-123
-121
-118
-113
-109
-104
-99
-93
-88
-83
-80
-77
-76
-74
-72
-71
-69
-69
-68
-69
-69
-68
-67
-65
-64
-64
-63
-62
-61
-59
-57
-55
-52
-50
-48
-45
-43
-42
-40
-39
-38
-36
-34
-33
-32
-32
-34
-36
-38
-39
-41
-42
-44
-46
-46
-46
-44
-42
-41
-40
-39
-39
-38
-36
-34
-33
-31
-28
-24
-19
-16
-14
-16
-20
-24
-28
-30
-33
-37
-41
-45
-49
-52
-54
-55
-56
-55
-54
-53
-51
-48
-45
-43
-40
-38
-36
-34
-33
-31
-29
-27
-25
-24
-23
-20
-18
-15
-13
-12
-13
-14
-16
-17
-18
-20
-23
-25
-28
-30
-31
-33
-35
-40
-44
-43
-29
-12
0
10
20
28
35
42
49
55
60
64
68
73
78
83
86
85
77
66
53
40
32
24
15
8
1
-4
-7
-8
-8
-7
-6
-6
-5
-4
-3
-1
0
0
1
2
3
3
0
-4
-12
-21
-32
-49
-59
-55
-40
2
117
289
508
743
953
1072
1112
1062
908
643
344
65
-137
-198
-219
-179
-109
-54
-29
-9
-8
-22
-28
-30
-32
-32
-33
-34
-35
-37
-39
-42
-45
-48
-49
-49
-48
-48
-48
-48
-49
-49
-50
-51
-54
-61
-67
-66
-50
-33
-25
-18
-12
-6
0
4
9
11
11
10
9
7
5
1
-2
-7
-12
-17
-22
-29
-37
-42
-41
-31
-14
3
19
37
56
72
88
103
120
138
155
170
185
203
223
243
262
273
280
288
294
299
302
304
304
302
300
297
293
287
279
268
246
221
186
146
118
100
80
58
43
32
23
14
5
-3
-12
-22
-35
-53
-70
-87
-105
-123
-133
-141
-145
-148
-151
-153
-155
-157
-158
-159
-158
-158
-156
-153
-150
-146
-141
-136
-132
-128
-125
-123
-120
-116
-112
-108
-105
-104
-104
-102
-100
-97
-95
-93
-93
-92
-92
-90
-89
-89
-90
-92
-94
-95
-96
-97
-98
-98
-99
-98
-98
-97
-98
-102
-106
-96
-79
-73
-70
-67
-64
-61
-58
-54
-49
-45
-42
-39
-37
-36
-35
-36
-36
-38
-39
-41
-43
-45
-46
-46
-47
-46
-46
-47
-47
-48
-49
-53
-58
-63
-63
-58
-48
-39
-33
-27
-21
-17
-12
-9
-7
-7
-8
-8
-9
-10
-12
-14
-16
-19
-21
-25
-27
-30
-33
-37
-40
-43
-45
-47
-48
-51
-55
-66
-72
-61
-41
-30
-22
-15
-9
-7
-7
-8
-11
-13
-16
-18
-20
-22
-26
-30
-34
-37
-40
-41
-40
-38
-34
-28
-22
-16
-9
-4
1
5
9
13
17
22
27
33
38
43
47
50
53
55
57
59
60
60
60
61
62
64
66
68
70
70
70
69
70
70
70
67
63
58
54
49
44
40
34
29
24
22
20
18
14
9
3
-1
-5
-8
-10
-13
-16
-18
-20
-22
-23
-27
-38
-37
-9
63
190
368
584
805
990
1085
1088
1001
791
521
247
19
-118
-164
-139
-97
-60
-49
-46
-44
-41
-39
-36
-34
-32
-29
-26
-24
-22
-22
-23
-24
-25
-26
-26
-25
-24
-22
-21
-19
-16
-12
-7
-4
-3
-2
-3
-3
-3
-3
-3
-4
-4
-3
-1
1
5
9
12
16
22
28
34
38
42
45
47
51
55
59
65
72
78
84
90
95
100
106
111
117
123
132
149
168
182
192
203
218
240
269
292
309
322
334
344
354
364
376
388
397
403
409
417
428
434
425
404
371
324
278
230
181
132
94
64
27
7
-5
-14
-22
-28
-32
-35
-37
-38
-39
-40
-43
-46
-49
-52
-55
-57
-61
-64
-67
-70
-71
-72
-72
-73
-74
-75
-77
-79
-80
-83
-85
-87
-89
-89
-87
-85
-82
-78
-74
-71
-67
-64
-61
-59
-58
-58
-59
-59
-58
-56
-54
-52
-50
-51
-53
-55
-58
-60
-61
-63
-64
-66
-68
-70
-71
-71
-72
-72
-72
-72
-70
-67
-63
-60
-58
-56
-56
-55
-55
-56
-56
-58
-60
-61
-63
-63
-62
-62
-61
-61
-61
-61
-60
-60
-59
-59
-59
-60
-60
-60
-59
-58
-57
-58
-58
-59
-59
-59
-58
-59
-60
-61
-61
-60
-59
-58
-58
-59
-61
-62
-61
-59
-58
-56
-56
-56
-56
-54
-53
-53
-54
-55
-57
-59
-60
-61
-62
-64
-66
-67
-67
-68
-68
-69
-70
-70
-69
-68
-67
-66
-65
-65
-63
-61
-59
-56
-53
-50
-47
-45
-43
-42
-42
-42
-42
-42
-42
-43
-43
-41
-39
-36
-34
-33
-34
-35
-36
-36
-36
-37
-38
-39
-36
-28
-15
0
23
46
57
65
73
79
84
86
87
86
82
76
70
63
54
45
34
19
5
-2
-7
-10
-12
-14
-16
-17
-19
-20
-21
-23
-25
-26
-26
-25
-22
-20
-17
-15
-11
-6
-1
4
11
50
139
276
459
674
889
1064
1121
1103
949
680
369
84
-115
-171
-190
-145
-113
-96
-83
-72
-63
-56
-51
-46
-43
-39
-36
-33
-31
-31
-32
-33
-34
-34
-33
-31
-30
-30
-30
-29
-28
-26
-25
-24
-23
-22
-20
-18
-15
-13
-11
-10
-7
-4
0
3
6
8
11
14
17
20
23
25
26
27
30
33
37
41
44
47
50
54
58
63
69
74
81
91
112
134
152
169
189
211
233
254
272
289
304
321
337
347
356
365
371
376
380
382
383
382
380
375
368
359
348
336
316
276
247
218
188
151
117
88
63
41
24
10
-2
-17
-35
-51
-58
-63
-68
-73
-77
-82
-86
-90
-93
-96
-99
-100
-100
-98
-95
-91
-88
-85
-82
-80
-77
-75
-74
-75
-77
-77
-76
-72
-67
-65
-67
-71
-77
-83
-87
-91
-96
-101
-105
-108
-108
-105
-99
-92
-86
-81
-77
-73
-69
-66
-63
-61
-61
-61
-61
-61
-61
-60
-60
-61
-61
-60
-59
-57
-55
-53
-52
-51
-50
-49
-47
-45
-45
-45
-45
-45
-43
-41
-38
-37
-35
-35
-35
-34
-34
-35
-37
-39
-41
-42
-42
-41
-40
-38
-37
-35
-32
-30
-28
-26
-25
-24
-23
-23
-22
-21
-21
-21
-20
-20
-20
-20
-21
-22
-24
-26
-28
-31
-34
-37
-39
-41
-42
-44
-46
-47
-48
-47
-46
-44
-44
-44
-44
-43
-41
-40
-40
-41
-42
-42
-42
-40
-38
-38
-38
-38
-38
-37
-36
-36
-37
-39
-42
-44
-46
-46
-46
-47
-47
-46
-45
-43
-42
-40
-39
-38
-36
-33
-30
-27
-23
-19
-15
-10
-6
0
5
11
17
23
28
32
36
38
41
43
44
45
47
49
51
55
60
64
66
65
58
48
38
30
26
22
17
13
10
8
6
4
2
0
-2
-5
-7
-8
-10
-12
-14
-16
-18
-19
-20
-21
-23
-26
-30
-35
-40
-56
-66
-58
-32
40
176
372
613
863
1072
1157
1146
1002
733
415
118
-101
-196
-231
-232
-209
-182
-155
-123
-99
-79
-64
-63
-70
-78
-85
-93
-100
-103
-96
-83
-71
-68
-66
-64
-61
-58
-55
-53
-51
-50
-47
-45
-43
-42
-41
-40
-39
-36
-34
-33
-32
-31
-30
-27
-23
-20
-18
-17
-15
-14
-11
-8
-6
-4
-1
1
5
10
15
21
26
31
36
41
47
55
65
79
104
122
135
145
153
160
169
180
193
207
223
242
261
277
293
307
322
335
341
345
348
351
353
355
357
357
351
339
323
293
246
212
185
163
133
94
60
36
15
-1
-15
-31
-50
-63
-73
-82
-88
-93
-96
-98
-100
-102
-102
-102
-103
-102
-102
-101
-100
-99
-99
-99
-100
-101
-101
-101
-101
-101
-101
-102
-101
-100
-98
-97
-97
-97
-96
-96
-94
-92
-91
-89
-88
-86
-82
-76
-71
-66
-60
-56
-50
-44
-40
-37
-38
-39
-41
-42
-43
-43
-45
-46
-48
-49
-49
-48
-47
-44
-41
-38
-34
-31
-28
-25
-23
-21
-20
-19
-18
-17
-16
-15
-16
-17
-18
-20
-23
-26
-29
-33
-35
-37
-38
-39
-40
-41
-42
-44
-45
-45
-46
-48
-49
-50
-51
-51
-50
-49
-48
-48
-48
-48
-49
-50
-52
-55
-57
-59
-61
-63
-64
-64
-64
-64
-65
-66
-68
-71
-73
-77
-80
-83
-86
-87
-87
-87
-86
-85
-85
-84
-84
-83
-83
-83
-83
-84
-84
-85
-85
-85
-83
-81
-78
-75
-72
-68
-64
-60
-57
-56
-56
-58
-59
-61
-65
-70
-67
-44
-35
-29
-23
-18
-13
-8
-4
0
2
4
4
4
4
2
0
-2
-6
-9
-13
-17
-21
-25
-29
-32
-36
-39
-42
-46
-49
-51
-53
-54
-54
-55
-57
-58
-60
-62
-63
-63
-62
-62
-62
-63
-65
-67
-72
-83
-84
-71
-36
67
234
449
680
891
1046
1106
1041
850
563
244
-31
-206
-255
-248
-213
-194
-179
-168
-154
-137
-112
-101
-96
-91
-86
-82
-80
-79
-79
-78
-77
-77
-76
-75
-75
-74
-71
-67
-63
-58
-55
-52
-49
-47
-44
-41
-39
-37
-34
-32
-28
-24
-20
-16
-13
-10
-6
-2
0
2
3
3
3
3
4
5
7
8
9
10
12
14
17
21
30
41
53
67
85
108
133
158
182
201
213
220
226
232
241
250
260
272
286
307
324
338
346
352
358
363
367
369
369
368
364
359
352
343
325
287
247
205
169
141
117
86
47
8
-28
-45
-54
-62
-67
-70
-72
-73
-74
-75
-75
-74
-74
-73
-74
-75
-77
-79
-81
-82
-82
-84
-86
-87
-88
-89
-89
-89
-92
-95
-98
-100
-97
-90
-82
-75
-70
-63
-56
-48
-42
-39
-39
-40
-41
-43
-45
-47
-51
-54
-58
-62
-65
-67
-70
-73
-77
-79
-82
-86
-95
-100
-92
-75
-62
-48
-36
-27
-19
-10
1
8
0
-13
-22
-31
-38
-44
-47
-47
-45
-43
-41
-38
-35
-32
-29
-26
-24
-23
-23
-23
-22
-22
-23
-25
-29
-33
-36
-40
-44
-47
-49
-51
-52
-53
-54
-55
-56
-58
-59
-60
-60
-61
-62
-62
-61
-60
-58
-56
-54
-52
-51
-50
-49
-49
-50
-51
-52
-54
-55
-56
-56
-55
-53
-52
-50
-49
-48
-47
-48
-51
-55
-59
-64
-68
-71
-74
-76
-79
-83
-88
-91
-93
-93
-90
-86
-80
-72
-61
-41
-30
-24
-19
-13
-9
-9
-10
-11
-13
-15
-16
-14
-7
1
9
14
21
28
35
39
40
35
26
16
6
-1
-11
-23
-34
-39
-39
-37
-35
-33
-32
-30
-28
-26
-23
-21
-20
-19
-20
-22
-25
-30
-35
-42
-53
-71
-91
-107
-122
-123
-106
-63
34
181
369
579
784
947
1012
1004
894
680
412
143
-73
-183
-221
-207
-163
-96
-71
-59
-50
-53
-76
-86
-91
-95
-99
-102
-104
-107
-110
-113
-116
-118
-120
-120
-119
-118
-116
-114
-112
-109
-106
-102
-99
-95
-91
-86
-81
-76
-65
-41
-29
-25
-23
-21
-19
-18
-16
-14
-13
-12
-10
-8
-6
-5
-5
-5
-5
-5
-5
-4
-2
0
2
5
10
15
20
25
32
40
50
65
91
117
143
170
196
218
238
257
277
296
315
330
342
350
358
365
369
369
362
351
337
323
302
284
267
248
224
197
170
144
115
87
58
28
1
-20
-40
-60
-76
-91
-102
-107
-110
-111
-113
-114
-116
-118
-118
-118
-117
-114
-110
-105
-100
-97
-93
-89
-85
-83
-81
-80
-81
-82
-84
-85
-87
-89
-91
-93
-94
-95
-96
-98
-102
-108
-111
-108
-100
-92
-88
-85
-82
-80
-77
-74
-72
-71
-71
-72
-73
-73
-72
-72
-71
-71
-71
-70
-67
-64
-62
-59
-57
-56
-54
-51
-48
-46
-44
-42
-39
-36
-34
-32
-31
-30
-29
-28
-27
-27
-26
-26
-25
-23
-21
-20
-19
-18
-18
-17
-17
-16
-14
-12
-10
-8
-6
-3
-2
0
0
-2
-6
-11
-16
-21
-24
-27
-28
-30
-32
-33
-33
-33
-33
-35
-37
-38
-39
-38
-38
-38
-38
-39
-40
-40
-40
-41
-43
-45
-48
-50
-52
-54
-56
-57
-58
-59
-59
-58
-57
-56
-55
-54
-52
-51
-49
-47
-46
-45
-43
-41
-39
-37
-34
-32
-29
-26
-23
-21
-19
-17
-14
-12
-9
-7
-4
0
8
16
24
31
36
41
47
52
56
61
66
70
74
77
80
81
80
77
71
65
57
48
39
27
5
-13
-29
-40
-51
-60
-66
-68
-65
-61
-56
-52
-48
-44
-40
-36
-32
-27
-24
-21
-17
-14
-8
15
92
206
360
551
761
954
1069
1076
987
746
434
124
-116
-225
-262
-230
-177
-125
-96
-77
-69
-79
-97
-109
-120
-128
-134
-136
-132
-124
-114
-106
-102
-99
-95
-92
-87
-83
-79
-75
-73
-71
-71
-71
-72
-73
-74
-74
-73
-72
-70
-69
-66
-64
-62
-61
-60
-59
-60
-61
-61
-62
-61
-59
-56
-52
-48
-43
-38
-33
-28
-23
-17
-11
-4
3
13
27
42
55
68
81
95
108
121
134
146
159
176
196
216
237
252
264
274
284
294
302
310
318
326
335
341
344
340
331
318
302
280
244
214
174
123
80
48
22
0
-17
-41
-69
-84
-93
-101
-108
-115
-121
-126
-131
-136
-140
-144
-148
-152
-156
-159
-163
-167
-171
-175
-179
-181
-181
-180
-179
-176
-173
-170
-165
-160
-154
-149
-145
-140
-133
-124
-114
-108
-106
-106
-107
-108
-109
-110
-112
-115
-118
-122
-124
-125
-124
-122
-117
-110
-102
-92
-82
-72
-65
-61
-59
-57
-55
-53
-50
-47
-44
-41
-38
-34
-31
-29
-28
-28
-27
-27
-26
-25
-25
-26
-27
-26
-24
-21
-18
-16
-16
-15
-14
-12
-10
-8
-7
-6
-5
-3
0
2
5
8
12
16
20
25
28
31
32
33
33
35
36
38
38
39
39
40
41
43
43
42
41
39
37
36
35
34
34
34
34
35
36
38
39
40
41
43
44
44
44
44
45
46
47
49
50
51
51
51
51
51
50
49
48
48
48
49
49
49
50
52
53
55
56
57
58
59
60
63
65
68
72
75
80
85
93
101
109
118
127
137
146
153
159
165
169
173
175
176
172
165
155
144
132
123
116
110
104
98
92
87
82
79
76
74
71
68
66
65
64
63
63
62
62
61
60
59
58
56
53
47
35
27
37
63
135
272
462
692
928
1132
1229
1224
1094
824
493
178
-54
-167
-205
-172
-117
-55
-34
-30
-26
-22
-18
-14
-10
-5
-1
1
3
5
6
5
5
4
4
4
4
5
6
8
11
13
16
18
20
22
23
23
23
22
21
20
18
16
16
16
17
19
21
22
24
26
28
30
31
33
35
37
41
57
74
87
100
109
116
122
128
133
138
142
146
151
156
161
168
175
184
197
222
246
269
283
293
302
310
316
323
329
333
337
340
344
349
356
365
374
377
372
358
340
317
283
256
219
168
120
87
66
50
36
13
-21
-39
-51
-62
-72
-81
-88
-93
-96
-97
-96
-95
-94
-93
-91
-89
-87
-86
-85
-85
-86
-85
-84
-83
-82
-81
-81
-81
-80
-78
-77
-77
-79
-81
-83
-84
-84
-84
-84
-85
-85
-85
-84
-82
-81
-81
-80
-80
-79
-78
-78
-78
-77
-77
-75
-72
-70
-68
-66
-64
-62
-59
-57
-57
-57
-58
-58
-58
-54
-50
-46
-45
-47
-49
-51
-51
-51
-52
-53
-55
-57
-58
-60
-61
-64
-65
-66
-66
-64
-61
-60
-58
-58
-58
-58
-58
-59
-61
-63
-66
-68
-68
-67
-67
-66
-66
-66
-66
-65
-65
-66
-68
-71
-73
-75
-76
-77
-77
-77
-75
-73
-70
-68
-66
-65
-65
-66
-67
-68
-69
-70
-71
-73
-74
-76
-76
-77
-77
-78
-80
-83
-85
-87
-91
-95
-101
-105
-108
-106
-100
-91
-81
-72
-66
-60
-53
-45
-39
-34
-32
-31
-31
-31
-31
-32
-34
-38
-42
-45
-47
-49
-51
-54
-59
-61
-59
-50
-37
-22
-7
14
26
28
30
31
32
33
33
34
35
36
35
34
32
28
22
16
8
0
-6
-12
-17
-21
-25
-29
-33
-37
-40
-42
-45
-48
-52
-55
-57
-59
-61
-64
-70
-76
-80
-78
-73
-63
-48
0
114
275
479
714
948
1121
1144
1094
866
551
220
-52
-228
-267
-281
-243
-178
-124
-100
-81
-74
-83
-102
-116
-129
-139
-142
-134
-119
-104
-95
-88
-81
-75
-71
-66
-64
-63
-64
-66
-69
-72
-76
-79
-82
-87
-92
-97
-100
-97
-90
-80
-72
-67
-63
-59
-56
-52
-48
-44
-41
-38
-35
-31
-27
-24
-22
-19
-17
-13
-9
-4
0
6
14
29
45
57
65
72
78
82
87
91
97
105
114
125
138
155
181
201
216
235
257
281
295
307
316
322
323
321
314
305
293
277
251
232
213
193
173
148
114
82
58
37
11
-21
-54
-84
-104
-116
-131
-149
-159
-167
-174
-179
-183
-186
-187
-185
-182
-177
-171
-166
-160
-154
-146
-137
-132
-130
-128
-127
-126
-124
-122
-122
-129
-132
-135
-137
-139
-140
-140
-140
-139
-138
-136
-133
-129
-125
-120
-116
-111
-106
-102
-99
-98
-98
-98
-99
-100
-102
-103
-104
-103
-94
-84
-76
-70
-64
-59
-54
-50
-47
-45
-44
-43
-42
-40
-39
-37
-34
-32
-29
-26
-22
-19
-16
-14
-13
-12
-10
-6
-2
0
-1
-4
-8
-12
-15
-16
-18
-21
-24
-27
-29
-31
-33
-34
-34
-33
-31
-27
-22
-16
-10
-4
1
6
11
17
24
31
35
37
34
30
24
18
14
11
8
4
0
-3
-6
-8
-9
-9
-10
-10
-10
-9
-8
-6
-5
-5
-5
-5
-4
-3
-2
-2
-2
-2
-2
-2
-1
-2
-3
-5
-7
-7
-4
0
0
1
2
3
5
7
8
10
10
10
10
9
10
11
12
13
15
17
20
24
28
31
34
38
41
45
50
55
59
63
67
71
75
80
85
89
93
98
105
112
117
120
122
123
123
125
128
130
122
104
89
75
64
57
51
44
36
30
29
32
38
42
47
51
52
47
37
26
19
12
6
0
-5
-7
-8
-7
-4
1
9
38
100
202
347
532
738
930
1071
1128
1077
919
675
393
134
-51
-137
-166
-145
-107
-74
-61
-55
-51
-47
-42
-36
-29
-21
-14
-7
0
8
17
22
23
18
10
0
-9
-17
-30
-42
-51
-54
-56
-57
-61
-66
-52
-40
-33
-26
-20
-13
-8
-3
0
5
11
15
19
21
23
25
27
30
31
32
34
35
37
40
43
47
51
54
59
64
71
78
87
104
117
126
138
153
175
192
203
214
224
232
241
258
290
317
333
351
369
392
415
425
431
438
441
433
414
394
368
346
319
280
236
195
157
120
86
48
14
-9
-28
-37
-42
-46
-50
-53
-55
-58
-63
-67
-72
-77
-81
-85
-89
-94
-99
-104
-109
-114
-117
-120
-120
-120
-117
-114
-110
-107
-104
-103
-102
-101
-99
-98
-97
-95
-94
-93
-93
-93
-95
-96
-98
-99
-100
-101
-103
-104
-104
-103
-101
-98
-95
-92
-88
-85
-82
-79
-77
-76
-75
-74
-72
-70
-69
-67
-65
-62
-59
-57
-54
-53
-53
-54
-54
-55
-54
-54
-54
-54
-54
-54
-54
-53
-53
-52
-51
-50
-50
-50
-50
-50
-49
-49
-48
-48
-48
-48
-49
-50
-51
-51
-52
-52
-52
-52
-51
-51
-50
-50
-49
-48
-47
-46
-46
-46
-46
-44
-43
-42
-42
-42
-44
-46
-47
-49
-51
-53
-56
-58
-60
-60
-61
-61
-61
-61
-62
-65
-70
-74
-77
-77
-76
-75
-73
-71
-69
-67
-64
-61
-59
-57
-56
-57
-58
-60
-63
-66
-69
-72
-75
-78
-80
-81
-82
-86
-92
-96
-96
-91
-83
-75
-71
-68
-66
-63
-61
-59
-58
-58
-59
-59
-58
-57
-55
-53
-50
-48
-44
-40
-34
-29
-24
-20
-15
-9
-2
5
14
21
29
34
36
36
34
30
24
16
7
-2
-20
-53
-65
-71
-75
-78
-82
-85
-88
-91
-93
-95
-97
-98
-100
-102
-103
-105
-107
-108
-110
-112
-114
-115
-116
-113
-110
-104
-96
-67
27
172
360
579
796
971
1031
1014
867
596
269
-39
-261
-342
-345
-276
-181
-112
-89
-81
-87
-100
-107
-114
-120
-123
-125
-125
-122
-116
-109
-101
-94
-87
-80
-73
-65
-58
-52
-46
-42
-40
-38
-37
-36
-35
-34
-33
-32
-30
-27
-22
-18
-14
-12
-11
-9
-7
-5
-2
0
4
7
13
19
26
33
39
45
50
56
62
68
74
81
91
104
117
130
143
155
166
176
186
195
205
214
225
237
251
268
287
311
343
378
395
407
416
423
429
433
434
434
433
429
422
413
401
386
353
293
255
230
204
179
148
114
83
59
41
24
1
-20
-28
-32
-36
-39
-42
-45
-46
-48
-49
-51
-54
-57
-58
-60
-61
-63
-65
-67
-69
-70
-71
-70
-70
-70
-71
-71
-71
-72
-72
-74
-76
-78
-79
-79
-79
-78
-76
-73
-70
-66
-63
-60
-58
-57
-57
-57
-57
-58
-58
-58
-54
-48
-45
-48
-56
-64
-70
-75
-81
-86
-89
-90
-88
-83
-78
-73
-70
-67
-63
-59
-55
-52
-49
-48
-47
-46
-46
-46
-47
-48
-48
-48
-47
-46
-44
-44
-44
-44
-45
-46
-48
-50
-52
-53
-54
-55
-57
-58
-60
-60
-60
-60
-61
-62
-63
-64
-64
-63
-61
-61
-61
-61
-61
-60
-59
-58
-57
-56
-54
-52
-49
-46
-45
-46
-47
-48
-48
-49
-51
-54
-58
-61
-63
-63
-63
-63
-65
-68
-70
-70
-66
-61
-56
-51
-48
-42
-35
-28
-22
-20
-21
-23
-26
-28
-30
-33
-37
-41
-45
-49
-52
-53
-53
-53
-52
-49
-44
-38
-30
-23
-16
-10
-5
0
4
10
17
24
31
38
44
50
56
62
66
70
74
79
85
89
92
91
86
75
62
50
40
33
27
22
17
12
7
3
0
-3
-5
-7
-8
-9
-11
-12
-13
-13
-12
-12
-12
-13
-14
-17
-20
-22
-26
-37
-56
-33
37
174
369
608
855
1069
1183
1185
1079
817
466
99
-201
-360
-414
-385
-295
-176
-105
-80
-70
-78
-96
-108
-120
-129
-135
-136
-132
-125
-117
-110
-102
-94
-90
-93
-98
-105
-110
-116
-122
-126
-124
-112
-95
-80
-72
-65
-60
-54
-49
-44
-40
-37
-34
-30
-27
-24
-22
-20
-17
-15
-13
-12
-12
-11
-11
-10
-8
-6
-2
0
6
17
31
46
63
82
104
132
156
176
189
198
205
212
218
226
234
242
251
261
274
292
310
326
340
355
371
382
389
394
399
404
408
409
404
389
367
329
274
236
205
176
147
118
84
59
40
21
-4
-28
-37
-44
-49
-55
-60
-65
-69
-72
-75
-77
-80
-83
-84
-84
-83
-82
-83
-83
-84
-84
-84
-84
-85
-86
-88
-88
-88
-87
-87
-87
-87
-87
-86
-85
-84
-83
-82
-82
-81
-80
-78
-77
-76
-75
-73
-70
-67
-64
-61
-58
-56
-53
-50
-48
-47
-46
-46
-47
-46
-44
-42
-40
-39
-37
-35
-33
-31
-30
-31
-32
-34
-36
-37
-38
-39
-40
-41
-41
-42
-43
-44
-45
-47
-49
-51
-52
-53
-54
-54
-53
-52
-51
-50
-47
-45
-44
-43
-42
-41
-41
-41
-41
-41
-41
-41
-40
-40
-40
-41
-41
-42
-43
-44
-45
-46
-47
-47
-46
-47
-47
-47
-47
-46
-44
-42
-39
-36
-33
-27
-13
-14
-40
-56
-69
-80
-88
-90
-87
-80
-73
-68
-66
-65
-64
-62
-60
-58
-57
-56
-55
-55
-54
-54
-55
-56
-58
-59
-60
-60
-60
-59
-59
-58
-57
-56
-55
-55
-54
-53
-51
-48
-45
-42
-38
-33
-28
-22
-18
-13
-10
-3
14
32
38
40
42
43
46
48
49
50
49
45
38
29
20
12
5
-2
-9
-15
-21
-24
-27
-28
-29
-29
-28
-27
-26
-25
-23
-20
-18
-16
-12
-7
-2
0
-5
-19
-36
-56
-82
-93
-98
-103
-111
-85
-42
13
121
277
480
711
931
1088
1112
1071
867
572
253
-25
-215
-269
-287
-248
-182
-127
-110
-101
-94
-88
-83
-78
-74
-68
-64
-62
-61
-60
-59
-58
-55
-51
-47
-42
-40
-39
-39
-40
-41
-43
-45
-48
-52
-54
-49
-38
-28
-23
-19
-15
-11
-7
-4
-1
1
3
6
9
11
14
15
17
17
18
18
17
18
19
21
25
30
35
40
45
52
58
65
72
80
90
102
123
162
191
213
230
247
265
284
301
317
332
341
348
353
358
363
368
372
374
376
373
368
359
348
336
320
294
266
238
205
166
128
90
53
17
-2
-14
-24
-31
-37
-42
-48
-54
-60
-66
-73
-79
-86
-93
-99
-103
-105
-107
-108
-109
-113
-118
-123
-125
-120
-109
-99
-94
-91
-88
-85
-82
-79
-76
-75
-74
-74
-74
-74
-74
-73
-73
-73
-73
-73
-74
-75
-76
-78
-79
-80
-80
-81
-81
-79
-77
-75
-72
-69
-67
-66
-66
-66
-67
-67
-67
-67
-67
-66
-65
-64
-63
-61
-60
-59
-58
-57
-55
-54
-53
-53
-52
-52
-52
-51
-51
-50
-50
-49
-49
-48
-47
-45
-43
-42
-43
-44
-45
-46
-47
-47
-48
-49
-50
-51
-51
-50
-50
-50
-50
-50
-50
-50
-51
-51
-51
-51
-51
-50
-49
-48
-47
-47
-46
-45
-43
-42
-41
-41
-41
-41
-41
-42
-43
-45
-47
-49
-51
-52
-52
-52
-52
-52
-52
-52
-52
-53
-55
-58
-62
-64
-64
-61
-56
-52
-48
-46
-44
-41
-38
-36
-34
-34
-35
-35
-34
-33
-32
-32
-33
-32
-31
-28
-24
-20
-17
-13
-9
-3
2
9
15
21
27
34
43
52
60
67
71
74
75
73
70
66
60
53
47
41
37
33
30
25
20
16
12
8
4
0
-3
-8
-12
-15
-18
-19
-21
-21
-23
-24
-26
-28
-31
-35
-41
-55
-64
-53
-18
80
219
403
622
850
1041
1113
1101
962
718
441
177
-26
-123
-157
-169
-154
-129
-120
-114
-109
-105
-102
-100
-97
-94
-89
-86
-84
-82
-80
-78
-75
-72
-69
-66
-63
-62
-60
-58
-56
-54
-52
-50
-48
-45
-43
-41
-38
-35
-33
-30
-28
-26
-23
-21
-20
-18
-17
-16
-14
-12
-10
-7
-5
-3
0
2
5
8
11
13
15
18
22
28
35
42
50
56
62
70
80
92
120
170
202
219
236
259
281
294
305
315
324
331
336
340
342
342
340
338
334
328
320
311
302
286
254
229
204
177
148
128
114
101
88
77
65
42
0
-34
-52
-67
-82
-94
-100
-104
-107
-110
-112
-114
-116
-118
-119
-121
-122
-124
-126
-128
-130
-131
-132
-132
-132
-130
-128
-125
-122
-119
-117
-115
-114
-113
-111
-110
-109
-108
-105
-101
-96
-91
-86
-83
-82
-81
-81
-82
-83
-85
-87
-89
-91
-91
-91
-91
-91
-92
-93
-93
-93
-93
-94
-95
-96
-96
-95
-93
-90
-89
-88
-88
-87
-86
-84
-82
-81
-80
-79
-77
-75
-71
-68
-66
-64
-62
-61
-59
-58
-57
-57
-56
-56
-55
-53
-50
-48
-46
-45
-44
-44
-43
-41
-40
-40
-40
-40
-39
-39
-37
-36
-36
-36
-37
-37
-37
-37
-36
-35
-34
-33
-31
-28
-27
-26
-26
-27
-28
-29
-29
-30
-31
-32
-32
-31
-30
-28
-26
-25
-27
-29
-32
-35
-39
-41
-44
-46
-48
-48
-46
-42
-39
-35
-32
-29
-28
-28
-28
-29
-29
-30
-30
-29
-27
-26
-24
-22
-20
-19
-19
-18
-18
-18
-17
-16
-14
-10
-6
-1
4
10
16
22
27
31
35
40
45
50
55
60
66
72
76
80
82
83
84
84
84
83
83
82
82
84
86
89
91
87
78
67
58
52
47
41
36
31
27
24
21
17
13
9
6
3
0
-2
-5
-9
-13
-17
-22
-29
-44
-57
-57
-50
-35
8
96
223
383
572
774
967
1112
1133
1093
887
590
277
16
-120
-171
-175
-152
-125
-96
-78
-62
-47
-40
-45
-55
-61
-66
-71
-74
-73
-65
-55
-47
-43
-39
-36
-33
-30
-27
-25
-24
-24
-24
-24
-25
-27
-28
-28
-27
-25
-22
-19
-17
-15
-12
-10
-7
-6
-4
-3
-2
0
4
8
13
19
25
32
39
45
49
53
55
58
62
66
71
76
81
87
94
102
110
116
121
126
133
141
160
202
241
269
295
320
345
368
383
394
402
407
407
401
392
382
371
358
345
333
321
304
282
262
238
207
174
139
99
62
25
-10
-28
-37
-43
-48
-54
-60
-67
-73
-78
-82
-85
-88
-91
-94
-97
-100
-102
-105
-106
-108
-108
-108
-106
-105
-103
-101
-99
-97
-96
-94
-93
-92
-91
-89
-84
-79
-76
-78
-82
-86
-90
-96
-102
-105
-103
-94
-83
-73
-62
-51
-47
-49
-56
-63
-67
-71
-76
-80
-83
-86
-88
-90
-91
-91
-89
-86
-83
-79
-76
-72
-68
-63
-60
-57
-55
-53
-51
-48
-45
-42
-40
-38
-37
-37
-37
-37
-39
-41
-43
-45
-47
-48
-49
-51
-53
-55
-57
-58
-58
-58
-59
-60
-62
-63
-63
-62
-57
-50
-43
-36
-31
-24
-17
-11
-7
-9
-15
-24
-32
-39
-43
-47
-52
-56
-60
-64
-66
-69
-71
-73
-74
-74
-73
-71
-70
-69
-67
-66
-64
-62
-61
-60
-60
-60
-60
-61
-61
-62
-63
-63
-63
-62
-61
-60
-59
-57
-55
-53
-50
-47
-46
-44
-43
-41
-39
-36
-34
-32
-30
-27
-24
-21
-18
-15
-14
-13
-13
-12
-10
-8
-6
-3
0
4
11
17
24
30
35
40
45
51
57
65
72
76
75
67
55
42
29
13
0
-8
-12
-15
-17
-17
-18
-18
-19
-19
-18
-19
-20
-21
-23
-25
-27
-29
-31
-34
-38
-42
-47
-54
-69
-77
-72
-59
-21
62
185
347
542
749
938
1051
1056
959
713
403
102
-122
-211
-241
-214
-168
-132
-122
-118
-114
-111
-108
-104
-100
-94
-89
-83
-79
-76
-73
-71
-69
-67
-65
-63
-62
-59
-57
-55
-53
-51
-50
-50
-49
-49
-49
-49
-49
-50
-49
-48
-45
-43
-41
-39
-37
-35
-32
-30
-27
-25
-23
-19
-13
-5
2
10
17
25
33
41
48
56
62
68
74
79
85
90
93
96
100
106
116
135
158
175
188
199
210
221
233
248
266
289
311
334
355
375
391
406
418
423
418
405
388
366
334
312
285
247
204
156
110
76
45
20
0
-20
-42
-63
-85
-103
-116
-125
-133
-139
-143
-143
-137
-127
-113
-94
-68
-60
-56
-54
-52
-50
-50
-54
-63
-73
-82
-87
-91
-97
-103
-109
-114
-118
-121
-124
-125
-125
-123
-120
-115
-109
-104
-98
-93
-89
-85
-82
-80
-78
-76
-75
-72
-70
-67
-64
-62
-59
-58
-57
-58
-58
-59
-59
-60
-59
-59
-57
-55
-52
-49
-46
-44
-43
-42
-41
-41
-41
-41
-42
-42
-42
-41
-40
-38
-37
-35
-33
-31
-29
-27
-28
-29
-30
-31
-32
-32
-33
-33
-34
-34
-32
-31
-29
-29
-29
-30
-31
-32
-34
-36
-38
-40
-41
-41
-41
-40
-39
-39
-38
-38
-38
-39
-41
-42
-44
-45
-45
-45
-44
-43
-42
-41
-40
-39
-38
-38
-37
-37
-38
-38
-40
-41
-43
-44
-44
-45
-45
-46
-46
-46
-45
-44
-43
-41
-41
-40
-39
-39
-39
-38
-38
-38
-36
-34
-31
-27
-22
-17
-11
-6
0
4
8
12
15
19
23
28
34
39
44
49
52
55
57
57
56
54
51
47
43
38
34
30
27
24
22
20
16
12
7
2
-2
-7
-11
-16
-20
-23
-25
-27
-28
-27
-26
-25
-22
-19
-15
-11
-5
1
9
17
26
83
180
320
500
704
900
1026
1070
1024
882
625
341
89
-89
-142
-160
-160
-150
-142
-139
-132
-117
-94
-63
-32
-29
-27
-25
-25
-26
-27
-30
-33
-38
-41
-44
-47
-52
-56
-59
-61
-62
-61
-58
-53
-48
-42
-35
-29
-24
-19
-15
-12
-10
-8
-6
-5
-3
-1
0
2
4
7
9
11
12
13
13
15
17
21
25
30
35
40
49
60
72
83
92
101
110
120
131
142
154
165
175
187
203
226
249
274
293
309
322
332
340
346
352
357
363
368
373
375
375
371
364
354
342
326
297
271
237
198
162
123
81
40
1
-38
-73
-97
-104
-107
-110
-112
-114
-115
-116
-116
-116
-116
-115
-113
-111
-108
-105
-102
-100
-98
-96
-93
-90
-83
-76
-72
-73
-79
-84
-88
-92
-95
-98
-100
-103
-105
-105
-104
-100
-95
-89
-83
-77
-73
-68
-62
-57
-54
-51
-51
-53
-55
-59
-64
-70
-76
-82
-87
-95
-102
-108
-111
-111
-107
-100
-91
-81
-70
-53
-43
-40
-38
-37
-36
-35
-34
-35
-35
-36
-37
-38
-40
-43
-47
-51
-54
-57
-59
-62
-64
-66
-66
-65
-64
-62
-60
-58
-56
-54
-51
-50
-49
-49
-48
-47
-46
-45
-44
-44
-45
-45
-46
-47
-48
-50
-52
-54
-54
-54
-53
-52
-51
-51
-49
-48
-46
-45
-45
-46
-47
-49
-50
-49
-48
-48
-47
-47
-47
-46
-45
-45
-45
-46
-47
-49
-50
-51
-52
-53
-53
-53
-52
-51
-50
-48
-47
-45
-44
-43
-42
-41
-40
-39
-39
-39
-39
-38
-37
-35
-33
-31
-29
-28
-25
-22
-18
-14
-9
-4
0
5
14
31
46
57
65
69
73
77
81
85
88
89
89
88
85
81
76
69
61
53
46
40
35
30
23
16
9
2
-3
-7
-11
-13
-13
-12
-10
-8
-7
-6
-6
-5
-4
-2
0
0
3
6
10
15
20
26
37
73
181
335
528
741
937
1061
1070
995
773
481
183
-59
-197
-242
-224
-174
-102
-65
-50
-41
-35
-31
-29
-30
-33
-38
-44
-50
-54
-59
-64
-68
-71
-74
-75
-77
-77
-77
-75
-73
-69
-66
-62
-58
-54
-51
-47
-44
-41
-39
-37
-35
-34
-33
-32
-31
-30
-28
-27
-25
-22
-18
-14
-10
-5
0
4
12
32
41
44
47
48
50
52
55
58
63
69
75
83
92
102
117
131
143
154
169
186
206
227
252
279
310
337
361
375
383
390
397
402
404
399
387
372
356
335
314
294
269
239
211
176
134
95
52
14
-12
-34
-44
-50
-55
-60
-63
-66
-69
-73
-77
-80
-82
-84
-85
-86
-87
-89
-90
-92
-94
-97
-100
-103
-106
-107
-108
-108
-108
-108
-108
-107
-106
-104
-103
-101
-99
-97
-94
-90
-85
-80
-74
-70
-67
-64
-60
-54
-46
-39
-36
-37
-40
-44
-48
-50
-52
-54
-56
-60
-63
-67
-70
-74
-77
-79
-80
-78
-74
-69
-64
-58
-53
-47
-42
-38
-35
-32
-26
-20
-13
-9
-8
-11
-16
-22
-27
-32
-38
-45
-52
-57
-58
-55
-50
-44
-39
-36
-32
-28
-24
-20
-18
-16
-15
-15
-16
-16
-18
-20
-22
-25
-27
-31
-39
-46
-47
-39
-31
-28
-27
-25
-24
-23
-21
-18
-15
-13
-12
-12
-12
-12
-12
-12
-13
-14
-15
-14
-12
-11
-10
-10
-11
-12
-12
-12
-13
-14
-16
-17
-17
-17
-17
-17
-17
-17
-17
-17
-16
-15
-15
-14
-13
-12
-11
-10
-9
-8
-9
-9
-9
-9
-9
-8
-8
-7
-6
-5
-3
-1
0
0
-1
-1
-2
-2
-2
-1
0
4
10
