-311
-372
-441
-513
-554
-567
-575
-579
-581
-579
-574
-568
-561
-554
-546
-537
-528
-522
-517
-510
-500
-490
-477
-469
-464
-460
-456
-452
-448
-443
-438
-433
-429
-425
-422
-418
-414
-410
-407
-404
-401
-400
-400
-402
-404
-407
-411
-416
-421
-425
-428
-432
-437
-443
-449
-454
-459
-461
-463
-465
-467
-469
-470
-471
-472
-474
-475
-475
-473
-466
-458
-450
-442
-433
-424
-415
-409
-404
-400
-396
-392
-387
-383
-380
-377
-373
-369
-364
-359
-352
-346
-338
-331
-324
-318
-311
-305
-300
-296
-291
-288
-284
-281
-278
-274
-271
-268
-265
-262
-258
-251
-238
-226
-215
-204
-195
-186
-177
-168
-156
-141
-124
-114
-107
-101
-96
-91
-85
-79
-72
-62
-49
-38
-31
-26
-22
-18
-16
-14
-14
-14
-15
-15
-16
-17
-18
-19
-21
-22
-23
-26
-28
-31
-32
-32
-31
-30
-28
-27
-24
-21
-18
-15
-13
-12
-12
-12
-10
-9
-7
-6
-4
-3
-1
1
4
7
10
11
12
13
15
17
21
29
34
29
20
14
10
6
2
0
-1
-2
-1
1
5
10
16
23
30
39
48
52
54
56
59
62
64
63
55
45
36
27
18
6
-5
-15
-24
-30
-35
-38
-41
-43
-46
-48
-50
-52
-54
-57
-60
-64
-68
-73
-78
-85
-95
-103
-109
-114
-120
-128
-129
-118
-89
-41
23
93
155
200
217
217
202
159
82
-15
-121
-223
-305
-349
-365
-366
-355
-323
-275
-242
-206
-171
-154
-149
-144
-140
-137
-135
-132
-129
-125
-122
-119
-116
-113
-110
-107
-103
-97
-90
-84
-78
-73
-68
-65
-62
-61
-60
-59
-58
-57
-57
-56
-56
-55
-55
-55
-56
-56
-57
-56
-56
-55
-55
-54
-52
-49
-47
-44
-41
-39
-36
-33
-29
-25
-19
-10
-1
6
11
16
21
27
34
43
53
63
71
77
83
88
93
98
102
104
107
110
113
115
116
115
112
107
101
95
89
81
73
64
54
46
41
36
32
28
25
22
20
17
15
13
12
13
15
17
19
22
24
27
31
36
40
45
52
68
82
95
105
112
119
126
134
141
148
153
158
163
168
172
176
179
182
185
187
188
189
191
192
193
194
195
195
196
197
198
198
198
197
195
192
189
185
181
176
172
167
162
155
148
142
138
135
132
131
129
127
124
123
122
121
121
122
123
125
129
133
138
144
148
151
155
159
163
168
171
173
174
174
173
170
167
163
158
154
150
146
143
139
135
130
126
122
118
115
112
110
109
111
113
117
121
125
128
132
137
141
146
150
154
159
164
169
175
179
181
182
181
180
179
176
173
168
164
161
158
154
150
145
139
134
130
127
123
118
111
99
82
82
82
82
82
82
86
95
105
111
117
122
128
133
136
136
134
130
126
119
111
99
77
57
41
28
15
0
-8
-15
-21
-26
-31
-35
-38
-41
-45
-50
-59
-74
-93
-110
-123
-135
-146
-154
-163
-170
-173
-171
-166
-157
-128
-74
-2
84
169
219
221
178
66
-91
-264
-415
-496
-523
-506
-456
-395
-349
-331
-316
-303
-293
-281
-266
-253
-240
-232
-229
-227
-224
-222
-220
-219
-223
-230
-239
-248
-257
-268
-284
-300
-315
-329
-340
-343
-344
-346
-347
-349
-350
-350
-351
-352
-353
-354
-355
-356
-356
-356
-356
-356
-356
-356
-356
-354
-349
-343
-336
-328
-316
-305
-295
-283
-268
-252
-242
-236
-231
-225
-217
-209
-198
-183
-161
-145
-132
-121
-109
-95
-84
-75
-66
-59
-51
-44
-37
-30
-22
-14
-9
-10
-16
-25
-33
-38
-42
-47
-52
-57
-61
-64
-67
-68
-70
-72
-74
-76
-79
-83
-86
-90
-92
-94
-96
-99
-101
-104
-108
-111
-113
-113
-111
-108
-104
-100
-96
-92
-87
-83
-83
-88
-95
-103
-108
-113
-119
-124
-128
-130
-129
-125
-119
-112
-105
-98
-90
-81
-72
-65
-58
-52
-47
-40
-33
-27
-25
-26
-31
-37
-42
-45
-46
-49
-51
-54
-57
-59
-60
-61
-63
-64
-66
-68
-68
-70
-71
-73
-76
-79
-81
-84
-88
-92
-98
-103
-108
-111
-113
-114
-114
-115
-115
-116
-116
-117
-118
-120
-119
-114
-108
-102
-95
-90
-91
-100
-110
-114
-117
-120
-123
-126
-129
-131
-134
-138
-141
-145
-148
-150
-152
-154
-157
-160
-164
-170
-176
-181
-183
-185
-186
-188
-190
-192
-193
-194
-190
-186
-183
-179
-175
-171
-170
-172
-176
-180
-185
-188
-193
-199
-203
-205
-203
-196
-187
-178
-170
-160
-150
-144
-140
-138
-137
-137
-136
-135
-133
-132
-130
-130
-128
-125
-121
-116
-111
-106
-99
-90
-80
-69
-59
-49
-39
-28
-19
-12
-7
-3
0
4
8
10
7
0
-6
-12
-18
-23
-28
-29
-27
-21
-15
-9
-6
-4
-2
0
0
1
1
2
4
7
10
12
13
13
15
17
19
23
29
37
79
158
245
333
410
451
449
399
278
115
-49
-175
-229
-248
-232
-205
-177
-134
-82
-24
35
53
59
64
65
63
61
58
60
71
76
78
79
80
80
80
82
84
86
88
90
92
93
93
93
93
93
94
95
97
99
101
104
108
112
116
120
125
129
135
141
148
155
164
174
182
189
195
201
209
217
226
233
240
253
276
293
300
306
313
322
330
337
344
351
359
368
377
387
395
400
405
410
415
419
422
423
425
426
426
426
424
421
416
412
407
402
396
386
374
360
345
333
323
314
306
299
293
288
283
279
275
271
266
261
255
250
245
240
236
233
230
227
223
219
214
210
206
202
198
193
189
185
181
178
175
172
169
165
162
158
155
151
148
145
143
141
140
138
135
133
131
128
126
122
118
113
108
103
97
92
88
83
79
76
73
70
67
62
58
54
49
45
41
38
34
32
29
28
26
23
20
17
14
10
6
2
-2
-6
-11
-14
-17
-19
-22
-24
-26
-27
-29
-31
-34
-38
-41
-45
-49
-52
-56
-60
-64
-68
-71
-74
-77
-80
-83
-86
-90
-94
-97
-101
-105
-109
-113
-116
-118
-120
-122
-124
-126
-129
-132
-135
-137
-140
-143
-146
-148
-150
-152
-153
-154
-155
-156
-156
-155
-155
-154
-152
-151
-150
-148
-146
-145
-143
-142
-140
-139
-139
-138
-138
-138
-137
-135
-134
-131
-129
-127
-125
-122
-119
-116
-114
-111
-108
-105
-99
-87
-79
-73
-71
-70
-67
-65
-62
-60
-59
-58
-57
-56
-55
-55
-56
-57
-58
-59
-59
-58
-57
-57
-57
-57
-58
-59
-60
-62
-65
-68
-71
-75
-78
-81
-85
-88
-93
-103
-113
-121
-122
-117
-110
-99
-79
-46
7
65
132
206
276
299
284
236
114
-35
-182
-291
-323
-333
-314
-255
-196
-174
-158
-142
-125
-102
-84
-73
-62
-53
-45
-38
-33
-29
-25
-21
-18
-15
-12
-8
-5
-1
2
6
9
12
15
18
20
22
24
27
30
33
36
38
41
43
46
49
51
52
53
55
57
59
61
63
64
67
70
74
78
82
86
91
95
100
105
111
116
123
132
143
152
160
167
173
177
180
184
188
192
195
199
201
204
205
207
207
207
206
204
201
199
196
193
189
185
180
175
169
157
143
132
123
114
103
89
73
53
39
30
22
16
11
8
5
3
1
0
0
0
-1
-1
-2
-1
-1
-2
-2
-3
-4
-4
-3
-3
-2
-2
-2
-1
-1
-1
-2
-4
-7
-9
-12
-14
-17
-20
-23
-25
-26
-27
-28
-28
-30
-31
-33
-34
-36
-38
-41
-44
-47
-49
-51
-52
-53
-53
-54
-54
-53
-53
-52
-51
-50
-50
-50
-49
-49
-49
-49
-49
-50
-50
-49
-48
-46
-45
-45
-44
-44
-43
-43
-43
-43
-44
-45
-45
-46
-46
-47
-48
-49
-50
-50
-50
-50
-50
-50
-49
-49
-49
-50
-50
-50
-49
-49
-49
-49
-49
-48
-46
-45
-43
-43
-43
-43
-42
-41
-40
-40
-40
-40
-40
-40
-39
-39
-39
-40
-41
-41
-41
-41
-41
-42
-42
-41
-40
-39
-39
-39
-40
-40
-41
-41
-41
-40
-40
-39
-39
-38
-39
-39
-40
-40
-41
-41
-42
-43
-44
-44
-44
-43
-43
-44
-44
-44
-44
-44
-43
-43
-42
-40
-38
-36
-33
-31
-27
-24
-20
-17
-14
-12
-10
-8
-5
-2
0
0
0
-1
-5
-10
-16
-23
-30
-37
-42
-48
-54
-61
-67
-71
-73
-72
-71
-70
-69
-69
-67
-64
-58
-54
-61
-76
-88
-99
-107
-111
-108
-100
-85
-38
37
131
233
329
391
395
352
227
58
-114
-255
-325
-351
-352
-337
-314
-280
-242
-202
-159
-123
-108
-100
-95
-90
-86
-81
-75
-70
-65
-61
-58
-56
-54
-52
-50
-47
-44
-42
-40
-39
-37
-36
-35
-35
-35
-34
-33
-32
-30
-28
-26
-24
-21
-19
-16
-14
-12
-10
-9
-7
-5
-2
0
4
9
14
19
23
27
31
35
39
43
47
51
56
63
70
77
82
87
93
100
110
124
136
145
151
157
162
166
168
168
164
159
153
147
143
138
133
127
122
118
114
109
104
98
88
71
56
43
32
19
5
0
-1
-4
-7
-10
-12
-14
-15
-15
-15
-16
-16
-15
-15
-15
-15
-15
-15
-15
-14
-14
-14
-13
-12
-11
-9
-8
-7
-7
-7
-7
-7
-8
-9
-10
-10
-8
-7
-5
-6
-10
-15
-18
-19
-21
-22
-25
-27
-30
-31
-32
-33
-34
-36
-37
-38
-38
-37
-36
-35
-35
-36
-37
-37
-39
-44
-47
-45
-40
-36
-32
-29
-25
-24
-24
-25
-26
-26
-27
-27
-28
-30
-31
-33
-34
-34
-34
-34
-33
-33
-33
-32
-31
-30
-29
-29
-29
-28
-26
-23
-20
-16
-13
-12
-10
-9
-7
-5
-4
-1
0
4
8
13
18
22
27
30
34
37
39
42
45
47
49
50
51
53
56
58
61
62
63
64
64
64
64
63
61
59
57
56
55
54
54
53
52
51
51
50
50
48
46
43
42
40
39
38
37
37
37
37
37
36
34
33
31
29
28
28
27
28
30
33
36
41
45
48
52
55
59
63
66
70
73
75
77
78
77
76
72
68
63
58
55
52
50
47
44
40
36
32
29
25
20
16
13
11
10
9
8
6
3
-1
-14
-21
-27
-33
-33
-17
6
39
95
165
250
339
406
429
411
354
220
53
-105
-223
-266
-280
-265
-220
-178
-155
-137
-122
-103
-77
-47
-33
-26
-21
-17
-16
-15
-15
-16
-17
-19
-21
-24
-27
-29
-32
-34
-37
-39
-40
-40
-39
-37
-35
-33
-32
-31
-30
-28
-26
-24
-24
-24
-24
-23
-23
-22
-22
-22
-22
-22
-21
-20
-19
-19
-18
-16
-14
-11
-9
-6
-2
0
7
26
42
50
55
59
63
66
69
74
78
83
87
91
95
99
103
107
110
114
116
117
117
116
113
110
105
100
93
85
72
60
52
44
36
27
13
-6
-16
-23
-29
-34
-38
-42
-45
-47
-50
-52
-54
-56
-58
-58
-59
-60
-62
-63
-63
-64
-64
-64
-63
-61
-59
-56
-54
-52
-51
-50
-48
-47
-46
-46
-46
-45
-45
-44
-44
-44
-45
-46
-47
-47
-46
-46
-46
-46
-45
-44
-43
-42
-42
-43
-43
-43
-41
-40
-38
-37
-36
-35
-34
-32
-31
-31
-31
-31
-32
-31
-31
-31
-31
-30
-29
-29
-28
-29
-31
-34
-36
-38
-41
-44
-48
-51
-53
-52
-50
-47
-44
-42
-41
-39
-37
-36
-35
-35
-35
-34
-33
-32
-32
-32
-33
-33
-32
-31
-30
-29
-29
-28
-26
-24
-22
-21
-20
-19
-17
-15
-13
-11
-9
-7
-6
-5
-5
-4
-5
-7
-9
-12
-15
-18
-22
-25
-28
-31
-33
-35
-36
-38
-39
-41
-43
-45
-46
-47
-48
-49
-51
-52
-53
-53
-53
-52
-52
-51
-51
-50
-48
-47
-46
-46
-46
-45
-43
-41
-39
-37
-35
-33
-29
-24
-19
-14
-11
-9
-8
-5
-3
-1
1
3
5
8
9
8
2
-5
-12
-18
-23
-27
-31
-36
-40
-44
-47
-49
-52
-55
-59
-62
-66
-70
-73
-77
-80
-84
-85
-85
-84
-81
-79
-76
-71
-53
-1
71
160
253
323
347
322
245
89
-91
-251
-342
-372
-357
-312
-242
-184
-166
-156
-149
-144
-136
-125
-104
-85
-70
-60
-52
-47
-45
-44
-44
-43
-42
-41
-41
-40
-40
-40
-39
-38
-36
-34
-32
-30
-29
-28
-26
-25
-24
-24
-23
-23
-21
-20
-19
-18
-18
-17
-17
-16
-15
-15
-14
-14
-14
-14
-13
-12
-11
-10
-10
-9
-6
-3
3
20
36
44
49
54
58
63
67
71
75
78
82
86
90
93
97
100
104
108
111
114
114
114
113
112
109
106
102
96
85
63
42
23
8
-3
-14
-28
-50
-61
-65
-69
-72
-75
-78
-79
-81
-82
-83
-83
-83
-83
-83
-83
-82
-81
-79
-77
-75
-73
-70
-68
-66
-64
-62
-59
-56
-53
-49
-45
-42
-39
-37
-34
-31
-29
-26
-25
-24
-23
-22
-21
-21
-21
-21
-21
-21
-21
-20
-20
-20
-19
-18
-17
-16
-16
-16
-16
-15
-14
-13
-12
-11
-10
-9
-7
-5
-3
-1
1
4
7
10
12
14
16
18
19
20
20
19
19
18
19
19
19
19
19
19
18
18
17
16
15
13
12
10
9
8
8
8
9
10
10
10
9
8
6
2
1
5
6
7
8
9
11
12
13
14
16
16
15
14
12
10
9
8
7
6
5
4
4
4
4
3
2
0
0
-1
-1
-2
-1
-1
-1
0
0
1
1
1
1
1
1
1
1
2
3
3
5
8
11
15
18
21
23
25
28
31
34
37
40
43
44
46
46
46
44
42
40
37
34
31
28
24
19
13
9
5
3
0
0
-2
-4
-5
-7
-8
-10
-12
-15
-18
-20
-23
-26
-30
-33
-39
-49
-58
-59
-54
-45
-15
42
121
215
310
387
403
389
303
167
7
-142
-249
-287
-288
-257
-211
-168
-134
-113
-91
-71
-40
-3
8
13
17
7
-1
-9
-14
-14
-9
0
10
22
21
20
20
20
21
22
23
23
24
24
25
25
24
23
24
29
34
37
39
40
41
43
44
46
48
50
52
53
54
56
57
58
60
62
64
68
76
85
93
100
105
109
113
117
120
124
127
131
134
138
143
148
154
162
170
174
175
177
180
183
185
180
170
161
152
145
139
134
127
118
101
89
80
73
68
63
58
52
45
38
31
23
14
0
-15
-28
-29
-30
-30
-31
-31
-30
-30
-30
-29
-29
-29
-28
-27
-27
-25
-24
-22
-21
-20
-20
-19
-19
-18
-18
-17
-16
-16
-17
-18
-19
-19
-21
-23
-25
-27
-29
-33
-36
-33
-27
-22
-17
-13
-16
-22
-26
-29
-32
-34
-35
-35
-36
-38
-40
-41
-42
-42
-43
-46
-46
-40
-36
-32
-28
-25
-24
-25
-27
-29
-30
-31
-33
-35
-37
-38
-37
-34
-31
-28
-26
-24
-20
-15
-11
-7
-4
-1
4
2
-9
-19
-26
-33
-37
-40
-41
-41
-43
-46
-39
-30
-23
-22
-26
-29
-31
-34
-36
-39
-42
-45
-48
-51
-54
-56
-58
-58
-58
-59
-59
-60
-61
-61
-61
-61
-62
-60
-58
-54
-50
-46
-42
-38
-35
-33
-33
-35
-39
-43
-49
-59
-69
-75
-81
-85
-87
-85
-80
-74
-66
-57
-51
-47
-46
-44
-42
-40
-39
-38
-36
-34
-31
-28
-24
-20
-16
-12
-5
2
7
11
14
18
24
26
21
10
0
-8
-16
-21
-26
-34
-47
-56
-63
-66
-63
-57
-52
-47
-43
-40
-38
-36
-31
-26
-39
-56
-71
-81
-88
-94
-97
-94
-85
-60
-10
53
128
213
296
361
371
355
262
117
-54
-209
-309
-328
-323
-279
-236
-200
-177
-151
-127
-102
-81
-67
-57
-43
-38
-35
-32
-30
-29
-28
-28
-28
-28
-28
-27
-26
-24
-22
-20
-18
-17
-15
-14
-13
-11
-10
-9
-8
-6
-4
-2
0
4
7
10
12
15
17
19
20
22
23
25
27
29
32
34
37
40
42
45
48
50
53
57
62
68
73
79
89
106
126
141
147
151
155
157
157
154
150
146
143
141
139
137
135
133
131
129
126
124
121
119
115
110
103
95
85
72
56
42
28
14
-4
-11
-15
-19
-23
-26
-29
-32
-34
-36
-36
-36
-36
-36
-34
-32
-29
-26
-25
-24
-23
-22
-20
-18
-16
-14
-11
-8
-4
-2
-1
-1
-4
-8
-12
-16
-18
-21
-24
-27
-29
-30
-30
-28
-26
-23
-21
-20
-19
-18
-17
-15
-14
-13
-13
-12
-11
-11
-10
-10
-11
-12
-14
-17
-18
-20
-22
-23
-25
-27
-28
-29
-29
-30
-32
-35
-38
-40
-41
-42
-43
-45
-48
-51
-52
-53
-52
-52
-51
-50
-49
-47
-44
-41
-39
-38
-37
-35
-33
-31
-29
-28
-27
-28
-28
-28
-28
-28
-30
-31
-32
-32
-32
-33
-34
-35
-37
-38
-39
-40
-41
-42
-43
-43
-43
-42
-42
-42
-43
-43
-44
-44
-45
-46
-48
-49
-49
-50
-49
-48
-48
-47
-46
-44
-42
-40
-38
-36
-35
-33
-33
-32
-31
-31
-31
-31
-30
-29
-28
-27
-26
-25
-24
-22
-21
-20
-18
-15
-12
-8
-5
-1
3
12
21
27
29
31
32
34
37
34
17
10
6
3
0
-2
-4
-5
-7
-8
-10
-12
-14
-16
-18
-19
-21
-21
-22
-23
-25
-26
-30
-36
-42
-45
-44
-37
-24
13
74
152
243
334
406
433
427
366
244
85
-85
-231
-307
-314
-279
-204
-136
-95
-79
-65
-47
-21
6
31
41
46
49
51
54
56
58
60
62
64
65
66
66
66
67
67
68
69
69
69
69
71
72
74
76
78
79
79
80
81
82
83
83
83
84
84
85
87
88
90
91
93
95
98
100
102
104
106
108
111
116
122
127
132
138
143
149
155
161
166
169
171
173
175
178
180
181
182
183
183
184
184
183
181
178
174
170
164
154
132
109
84
65
56
49
42
35
28
20
9
-2
-16
-29
-43
-57
-72
-77
-81
-84
-87
-90
-92
-94
-96
-98
-100
-101
-101
-102
-102
-102
-103
-103
-103
-103
-103
-103
-104
-104
-104
-104
-102
-101
-100
-99
-97
-96
-94
-93
-93
-94
-95
-96
-96
-95
-94
-93
-92
-90
-87
-87
-87
-88
-89
-91
-92
-93
-94
-94
-95
-94
-93
-89
-85
-81
-76
-72
-66
-59
-55
-55
-59
-66
-73
-77
-81
-84
-87
-91
-94
-97
-99
-99
-99
-97
-95
-92
-87
-82
-77
-73
-69
-66
-60
-53
-46
-41
-41
-45
-51
-57
-62
-66
-73
-80
-86
-89
-87
-81
-73
-67
-63
-60
-56
-51
-47
-44
-42
-41
-41
-42
-43
-44
-47
-50
-53
-56
-59
-63
-68
-70
-66
-57
-49
-44
-40
-37
-35
-33
-31
-29
-27
-26
-24
-23
-22
-22
-20
-19
-18
-17
-17
-17
-16
-14
-12
-9
-6
-2
1
12
21
27
31
34
36
39
41
43
45
46
46
46
45
44
42
39
36
33
29
26
22
19
15
11
7
2
-2
-7
-13
-19
-24
-29
-35
-41
-46
-50
-53
-55
-56
-56
-55
-53
-49
-43
-36
-25
16
82
167
260
339
365
354
271
126
-42
-195
-282
-315
-317
-304
-285
-262
-224
-175
-125
-99
-86
-79
-73
-67
-58
-52
-48
-45
-44
-42
-41
-40
-39
-37
-36
-34
-34
-33
-33
-31
-30
-29
-28
-27
-25
-24
-22
-20
-19
-18
-16
-14
-12
-8
-6
-3
-1
1
4
8
11
14
17
20
23
27
31
37
43
48
54
58
63
67
71
74
78
81
84
86
89
93
96
100
104
108
112
116
123
130
136
141
146
150
153
158
162
165
167
167
167
165
162
157
151
139
115
97
86
75
64
53
42
31
22
16
11
8
5
2
0
-5
-9
-14
-18
-23
-29
-37
-44
-47
-47
-46
-45
-44
-44
-43
-43
-42
-42
-42
-41
-39
-37
-34
-32
-30
-28
-26
-24
-22
-21
-20
-21
-23
-25
-27
-28
-30
-33
-36
-39
-41
-41
-41
-41
-41
-41
-40
-37
-34
-32
-30
-29
-28
-27
-25
-22
-19
-17
-16
-15
-15
-14
-14
-15
-17
-20
-23
-26
-27
-28
-29
-31
-33
-35
-36
-37
-38
-39
-40
-42
-42
-42
-41
-40
-39
-39
-39
-38
-37
-35
-35
-35
-35
-36
-37
-37
-38
-38
-40
-41
-42
-43
-44
-45
-46
-48
-50
-50
-46
-38
-30
-26
-23
-20
-18
-15
-13
-11
-9
-7
-6
-6
-5
-6
-6
-7
-7
-9
-10
-12
-13
-13
-14
-15
-16
-17
-17
-18
-18
-19
-21
-19
-6
5
15
23
28
32
35
37
39
42
44
46
47
48
50
51
53
54
55
55
55
56
58
62
64
63
58
50
44
40
37
33
30
26
23
21
19
18
16
15
13
13
14
16
17
19
20
22
24
25
28
31
35
56
113
193
287
376
429
428
375
249
91
-61
-178
-232
-250
-241
-213
-167
-117
-91
-74
-63
-53
-45
-31
-8
4
11
16
19
21
22
23
24
25
27
28
29
29
30
32
33
35
36
37
38
40
41
43
43
44
44
45
47
49
51
53
55
57
58
60
61
61
61
61
62
63
64
66
67
68
70
72
74
76
78
80
83
87
92
96
102
112
121
128
136
146
158
166
171
174
177
179
181
181
179
175
170
166
162
158
153
148
143
139
135
131
126
120
110
101
92
82
69
55
46
39
34
29
23
18
13
8
3
-3
-9
-14
-16
-18
-20
-21
-22
-24
-26
-27
-28
-28
-28
-28
-27
-27
-26
-25
-25
-23
-22
-21
-21
-20
-19
-17
-14
-12
-12
-15
-18
-22
-26
-32
-37
-38
-37
-35
-34
-33
-32
-31
-31
-30
-29
-28
-27
-26
-25
-25
-25
-25
-24
-24
-24
-23
-23
-23
-24
-25
-25
-26
-27
-29
-31
-33
-36
-38
-39
-40
-44
-49
-54
-57
-57
-57
-57
-58
-59
-60
-60
-59
-59
-60
-64
-69
-72
-74
-75
-76
-79
-82
-83
-85
-85
-85
-85
-86
-86
-85
-84
-83
-82
-82
-81
-81
-80
-79
-77
-77
-76
-75
-74
-72
-72
-71
-72
-73
-74
-75
-74
-73
-73
-72
-72
-72
-70
-69
-67
-66
-66
-65
-64
-62
-60
-59
-61
-65
-71
-77
-83
-93
-98
-94
-87
-82
-78
-74
-70
-65
-59
-53
-48
-44
-40
-35
-31
-28
-25
-23
-21
-19
-17
-15
-13
-11
-10
-8
-6
-4
-2
-1
0
0
-1
-2
-4
-6
-10
-14
-20
-31
-46
-53
-57
-61
-64
-68
-70
-72
-74
-75
-75
-76
-76
-77
-77
-76
-76
-78
-81
-69
-35
21
96
182
270
348
384
379
316
186
20
-149
-285
-345
-365
-348
-297
-235
-179
-136
-123
-112
-103
-92
-79
-65
-60
-58
-57
-56
-55
-55
-55
-54
-54
-53
-52
-51
-50
-50
-49
-48
-47
-46
-45
-44
-43
-43
-42
-41
-40
-39
-38
-37
-36
-35
-33
-32
-31
-30
-29
-27
-25
-19
-12
-4
4
11
17
22
27
32
37
42
46
51
55
59
63
67
70
73
75
78
81
86
94
101
109
121
140
153
160
165
167
165
159
151
143
133
122
109
100
92
84
77
70
63
52
38
25
17
10
4
-3
-15
-25
-29
-33
-36
-39
-42
-44
-46
-47
-48
-50
-51
-53
-53
-53
-53
-52
-52
-52
-51
-50
-49
-48
-48
-47
-46
-45
-43
-41
-40
-39
-38
-37
-37
-37
-37
-37
-36
-35
-34
-32
-31
-30
-28
-27
-25
-24
-23
-23
-23
-23
-24
-24
-25
-25
-24
-23
-22
-21
-21
-21
-21
-21
-21
-21
-22
-23
-24
-24
-24
-23
-23
-23
-23
-24
-24
-25
-26
-27
-28
-29
-29
-29
-29
-30
-30
-29
-28
-25
-23
-21
-20
-20
-20
-19
-18
-17
-17
-18
-19
-19
-19
-20
-21
-22
-23
-23
-23
-22
-23
-23
-24
-24
-24
-24
-24
-24
-24
-24
-24
-23
-22
-21
-20
-19
-17
-16
-14
-12
-10
-8
-6
-4
-1
2
5
8
10
10
11
12
12
12
11
10
10
11
11
12
12
10
7
5
5
4
3
2
0
0
0
0
0
0
-1
-1
-1
-1
0
0
0
0
0
1
3
4
5
6
8
10
12
15
17
19
22
29
36
42
46
49
51
55
60
63
56
42
28
13
3
-3
-8
-13
-17
-20
-21
-19
-15
-12
-9
-5
-2
-1
-4
-9
-17
-26
-41
-57
-69
-79
-87
-88
-81
-68
-28
38
125
229
338
428
464
427
316
152
-27
-172
-238
-262
-263
-251
-231
-207
-184
-160
-135
-109
-92
-83
-76
-68
-60
-53
-48
-43
-38
-34
-30
-27
-25
-24
-22
-20
-18
-16
-16
-16
-15
-14
-13
-12
-11
-11
-10
-9
-8
-7
-7
-6
-5
-4
-1
0
3
5
7
8
10
12
15
18
21
24
27
30
34
38
41
44
48
51
56
65
82
96
110
124
137
143
148
152
156
159
161
163
165
167
169
170
171
173
175
178
182
186
189
189
185
180
171
156
130
108
92
76
63
51
39
26
15
4
-2
-7
-12
-14
-15
-16
-17
-18
-19
-19
-19
-19
-19
-19
-19
-20
-21
-22
-23
-23
-24
-25
-26
-28
-29
-30
-31
-33
-39
-44
-44
-37
-28
-17
-4
0
1
1
2
3
4
4
4
5
5
4
4
3
2
1
1
0
0
0
0
0
0
0
-1
-2
1
8
13
18
23
25
26
24
22
19
17
16
14
12
11
11
11
11
11
10
9
8
7
7
6
5
4
3
3
3
4
4
4
3
3
2
1
0
-1
-3
-5
-7
-9
-11
-12
-14
-14
-15
-14
-14
-14
-15
-16
-18
-20
-22
-24
-26
-28
-30
-33
-36
-38
-41
-43
-45
-46
-47
-49
-51
-53
-54
-56
-57
-59
-60
-61
-61
-61
-61
-60
-60
-59
-59
-59
-60
-60
-61
-61
-61
-61
-61
-61
-60
-60
-60
-59
-59
-60
-60
-60
-60
-60
-61
-61
-61
-60
-59
-58
-56
-55
-54
-53
-52
-51
-50
-49
-48
-47
-46
-45
-44
-42
-38
-34
-33
-36
-44
-54
-64
-77
-88
-96
-101
-104
-106
-108
-110
-111
-113
-115
-117
-120
-121
-123
-125
-127
-130
-134
-138
-146
-162
-166
-170
-175
-166
-140
-105
-56
3
71
137
174
186
162
88
-36
-172
-284
-356
-376
-381
-385
-373
-353
-332
-298
-257
-217
-195
-182
-175
-170
-164
-157
-150
-145
-141
-139
-137
-135
-133
-131
-130
-129
-127
-125
-123
-120
-118
-116
-114
-113
-111
-109
-106
-102
-99
-94
-88
-82
-76
-70
-64
-58
-53
-47
-42
-37
-32
-29
-27
-24
-22
-19
-16
-12
-7
-3
1
7
18
35
49
63
77
92
101
108
114
120
126
132
137
144
152
161
168
176
181
185
188
191
195
198
202
205
208
211
214
218
221
223
223
220
216
212
206
201
194
186
178
169
161
152
142
133
123
114
108
103
98
95
92
89
86
84
81
80
79
78
77
76
75
74
73
72
72
71
70
68
66
65
64
64
62
61
59
58
56
54
50
45
41
41
46
53
60
66
72
79
86
93
100
106
112
119
125
130
133
135
136
138
140
142
144
145
144
140
134
128
122
115
107
98
90
85
81
77
73
69
63
57
51
44
38
32
26
19
13
7
3
0
-3
-6
-8
-10
-10
-10
-10
-10
-11
-12
-13
-14
-15
-17
-19
-22
-25
-28
-30
-33
-36
-39
-44
-50
-56
-60
-63
-65
-67
-69
-70
-72
-74
-77
-79
-81
-81
-81
-80
-79
-78
-75
-71
-68
-73
-80
-83
-85
-88
-90
-92
-94
-96
-97
-98
-97
-97
-96
-95
-94
-92
-91
-90
-89
-89
-89
-90
-91
-91
-91
-91
-91
-90
-90
-88
-86
-83
-80
-78
-75
-72
-69
-64
-60
-55
-51
-47
-43
-39
-36
-32
-30
-27
-23
-14
-8
-14
-25
-36
-47
-59
-70
-74
-78
-81
-84
-87
-90
-92
-93
-94
-96
-97
-99
-99
-99
-98
-98
-98
-99
-100
-101
-102
-105
-110
-109
-94
-52
7
83
169
253
303
303
256
142
6
-122
-221
-280
-301
-302
-290
-259
-206
-153
-110
-92
-87
-84
-82
-81
-78
-76
-73
-71
-68
-65
-62
-59
-57
-54
-51
-48
-45
-41
-37
-33
-30
-27
-25
-23
-21
-18
-15
-11
-9
-9
-13
-19
-26
-31
-39
-45
-48
-46
-40
-32
-21
-5
10
18
22
26
30
32
34
36
38
41
43
45
47
49
51
55
59
67
82
101
116
127
136
141
144
146
148
149
150
151
152
153
153
153
154
153
151
148
145
141
136
132
128
122
113
102
92
83
74
63
51
36
18
10
6
2
0
-2
-4
-6
-8
-10
-12
-13
-15
-16
-18
-19
-21
-22
-22
-22
-23
-24
-25
-26
-27
-29
-30
-32
-33
-33
-34
-33
-33
-32
-32
-32
-31
-31
-31
-31
-32
-32
-32
-32
-32
-32
-33
-34
-35
-36
-37
-39
-40
-42
-43
-44
-45
-46
-47
-47
-48
-48
-49
-49
-49
-49
-49
-48
-47
-46
-45
-43
-43
-42
-41
-39
-38
-37
-37
-37
-37
-37
-37
-37
-38
-38
-38
-39
-39
-39
-39
-39
-40
-42
-43
-44
-46
-47
-49
-50
-51
-52
-52
-53
-53
-54
-55
-56
-57
-58
-60
-62
-64
-66
-67
-68
-69
-70
-70
-70
-70
-70
-71
-72
-73
-74
-75
-76
-76
-76
-76
-76
-76
-76
-76
-77
-78
-78
-79
-79
-79
-78
-79
-79
-79
-79
-79
-79
-79
-80
-80
-81
-81
-80
-79
-78
-77
-77
-76
-75
-74
-72
-70
-68
-65
-62
-59
-55
-53
-50
-48
-46
-45
-43
-41
-38
-35
-31
-25
-19
-13
-8
-6
-5
-5
-5
-5
-5
-6
-7
-8
-6
-4
-2
-2
-5
-10
-13
-15
-16
-17
-20
-23
-25
-27
-28
-29
-30
-32
-33
-34
-34
-35
-36
-38
-40
-43
-46
-51
-61
-62
-49
-13
39
108
194
291
382
427
425
369
246
83
-79
-213
-288
-313
-301
-267
-207
-170
-142
-124
-109
-96
-80
-61
-41
-28
-20
-15
-10
-4
2
9
16
23
28
33
38
43
48
53
58
62
66
69
73
76
79
81
83
84
86
89
91
94
97
99
101
103
105
107
108
108
109
110
111
113
114
116
118
121
124
127
130
133
137
141
145
150
155
161
170
181
192
202
212
218
224
230
235
240
243
246
249
251
253
257
260
265
273
277
271
258
244
226
213
200
187
167
146
126
112
100
86
67
57
51
45
41
37
34
32
30
29
28
26
25
24
24
23
22
20
18
17
16
15
15
14
13
11
11
10
7
1
0
4
6
8
11
13
14
11
6
0
-4
-8
-12
-16
-21
-25
-29
-31
-33
-36
-38
-41
-44
-46
-47
-49
-51
-54
-56
-58
-59
-60
-60
-60
-60
-60
-60
-60
-60
-60
-60
-59
-57
-56
-60
-68
-71
-73
-75
-76
-77
-78
-79
-81
-82
-83
-84
-84
-85
-85
-85
-84
-84
-83
-83
-83
-83
-82
-82
-82
-82
-83
-84
-84
-84
-84
-84
-84
-85
-86
-85
-85
-84
-84
-84
-84
-84
-83
-82
-81
-80
-80
-79
-79
-78
-77
-77
-77
-78
-78
-78
-78
-77
-77
-77
-77
-77
-76
-75
-76
-76
-78
-79
-79
-79
-79
-80
-80
-80
-79
-78
-76
-74
-73
-72
-71
-70
-68
-65
-63
-59
-48
-48
-61
-70
-76
-82
-86
-87
-85
-81
-74
-67
-59
-45
-36
-30
-26
-24
-21
-19
-17
-15
-14
-12
-11
-9
-8
-7
-6
-6
-6
-5
-4
-3
-2
-1
-1
0
0
1
1
-1
-7
-15
-22
-26
-30
-34
-38
-42
-46
-49
-51
-52
-53
-54
-54
-55
-55
-55
-55
-57
-60
-59
-43
-1
61
148
252
350
411
415
372
247
79
-94
-238
-313
-338
-317
-255
-183
-140
-127
-115
-105
-93
-78
-61
-52
-46
-42
-39
-36
-33
-30
-26
-22
-19
-15
-12
-9
-7
-6
-4
-3
-2
0
0
2
3
5
7
8
10
11
12
12
12
12
12
13
13
14
15
15
16
18
19
22
24
27
29
32
35
40
44
49
53
58
63
70
77
84
90
95
101
108
115
124
133
142
151
157
162
168
174
178
181
183
184
184
184
183
180
176
171
165
159
144
118
102
92
79
64
54
46
38
32
25
19
14
9
4
0
-4
-8
-11
-12
-11
-8
-4
0
4
8
12
16
20
25
29
32
34
36
37
38
39
40
40
40
40
40
41
43
44
44
44
43
40
36
30
24
20
16
14
12
10
7
5
4
2
1
0
-2
-4
-6
-8
-9
-11
-12
-15
-17
-19
-22
-25
-28
-32
-37
-42
-47
-51
-56
-60
-62
-64
-64
-62
-59
-56
-53
-50
-47
-44
-41
-39
-37
-36
-34
-32
-29
-26
-23
-20
-17
-15
-12
-11
-9
-8
-7
-6
-5
-4
-3
-2
-1
0
1
2
5
7
10
12
13
14
14
13
11
8
4
-1
-7
-13
-19
-24
-30
-37
-44
-50
-55
-58
-60
-62
-64
-66
-67
-68
-69
-70
-70
-70
-70
-70
-69
-69
-69
-69
-69
-70
-71
-72
-72
-72
-73
-73
-74
-74
-75
-76
-76
-76
-77
-78
-80
-82
-83
-84
-83
-80
-75
-71
-66
-62
-58
-53
-50
-47
-45
-45
-46
-48
-51
-54
-58
-61
-63
-65
-67
-69
-71
-73
-75
-77
-79
-81
-83
-84
-85
-84
-83
-82
-80
-78
-75
-72
-68
-64
-59
-55
-49
-32
5
60
124
196
266
310
312
274
168
23
-126
-247
-311
-332
-317
-293
-266
-242
-213
-179
-143
-116
-99
-87
-77
-72
-69
-67
-65
-63
-60
-58
-55
-53
-52
-50
-48
-47
-46
-45
-44
-43
-43
-41
-40
-37
-35
-32
-29
-26
-24
-22
-20
-17
-15
-12
-8
-4
0
6
11
18
24
30
38
48
60
72
82
90
99
108
118
128
138
148
157
165
174
184
195
207
217
226
233
239
245
249
252
254
255
257
259
261
261
261
258
254
250
244
239
230
220
210
199
189
179
170
162
155
144
131
118
108
100
93
84
75
71
68
65
62
60
57
55
52
49
46
42
39
35
32
28
22
13
3
-5
-13
-19
-25
-30
-35
-40
-46
-50
-54
-56
-60
-64
-71
-77
-81
-84
-85
-85
-86
-86
-87
-87
-87
-87
-88
-89
-90
-91
-91
-91
-91
-92
-93
-94
-94
-93
-92
-90
-89
-89
-88
-86
-84
-82
-80
-79
-78
-76
-73
-67
-62
-58
-56
-55
-55
-54
-54
-54
-54
-54
-54
-54
-54
-54
-54
-53
-51
-49
-45
-42
-38
-32
-27
-23
-23
-26
-33
-40
-46
-55
-62
-62
-55
-46
-39
-32
-25
-20
-18
-18
-19
-20
-21
-23
-26
-29
-31
-30
-28
-27
-27
-27
-27
-27
-25
-24
-22
-21
-19
-18
-17
-16
-15
-13
-12
-11
-9
-8
-5
-2
0
1
3
4
3
2
0
-4
-8
-12
-15
-18
-22
-26
-30
-32
-32
-29
-26
-22
-18
-14
-9
-2
4
9
13
17
20
25
29
29
23
15
8
3
0
-3
-7
-11
-15
-19
-23
-26
-30
-34
-37
-39
-39
-37
-34
-30
-27
-21
-17
-18
-28
-42
-53
-64
-74
-78
-76
-73
-66
-45
0
62
130
198
260
302
316
296
235
114
-22
-150
-247
-285
-299
-298
-283
-261
-235
-193
-155
-144
-137
-130
-124
-117
-102
-75
-57
-46
-39
-40
-48
-60
-72
-85
-93
-97
-101
-105
-108
-111
-111
-110
-108
-105
-102
-98
-94
-88
-84
-81
-79
-76
-73
-71
-68
-67
-68
-70
-72
-74
-77
-80
-87
-86
-71
-58
-48
-37
-26
-16
-6
2
10
18
25
31
36
41
46
52
59
64
71
80
94
113
130
146
152
154
155
155
156
156
157
155
149
141
134
127
120
114
107
101
95
91
86
83
79
76
72
68
64
59
54
49
44
40
35
31
26
22
19
16
13
9
5
1
0
-2
-4
-6
-9
-12
-14
-15
-14
-14
-15
-16
-17
-17
-17
-16
-14
-14
-14
-13
-13
-11
-10
-10
-10
-10
-11
-11
-11
-12
-12
-13
-14
-14
-15
-16
-18
-24
-31
-32
-26
-20
-17
-14
-12
-10
-9
-9
-9
-10
-12
-15
-18
-22
-24
-26
-27
-28
-28
-29
-30
-31
-31
-31
-30
-30
-30
-31
-32
-33
-33
-34
-34
-35
-36
-37
-38
-40
-43
-50
-58
-59
-50
-39
-31
-23
-16
-12
-13
-19
-27
-33
-37
-40
-43
-46
-48
-50
-52
-54
-56
-58
-60
-62
-64
-66
-67
-67
-67
-68
-68
-70
-71
-73
-74
-75
-76
-78
-79
-80
-81
-82
-83
-82
-81
-80
-77
-74
-71
-69
-68
-64
-60
-56
-53
-54
-58
-63
-69
-72
-76
-80
-84
-88
-90
-89
-84
-77
-69
-62
-56
-51
-45
-39
-35
-32
-30
-30
-31
-32
-34
-36
-37
-39
-41
-44
-47
-50
-52
-53
-52
-51
-49
-47
-45
-43
-40
-37
-35
-35
-38
-42
-47
-52
-58
-63
-71
-79
-83
-83
-79
-72
-61
-27
41
127
227
332
409
435
404
313
138
-57
-219
-290
-314
-291
-253
-217
-188
-156
-123
-88
-70
-61
-55
-50
-44
-36
-29
-21
-14
-7
0
7
13
18
22
24
27
29
31
32
34
35
35
35
36
37
39
41
43
45
48
50
53
57
60
63
65
68
71
75
79
83
87
90
94
97
101
104
107
108
109
109
111
113
116
118
121
124
129
134
140
146
150
155
159
165
172
181
188
193
198
205
214
220
217
209
202
196
189
182
170
159
150
141
134
127
122
117
113
109
103
96
84
64
42
29
20
12
6
0
-6
-12
-17
-22
-25
-29
-33
-37
-40
-44
-47
-49
-51
-51
-51
-49
-46
-43
-39
-35
-30
-26
-23
-20
-18
-17
-16
-15
-13
-11
-9
-7
-4
-1
0
3
5
7
8
10
11
12
13
12
12
12
12
11
11
10
8
6
4
2
1
0
-3
-6
-8
-11
-12
-14
-16
-19
-21
-22
-23
-24
-25
-26
-27
-28
-28
-27
-27
-26
-27
-27
-28
-29
-31
-33
-34
-36
-37
-39
-40
-41
-42
-43
-44
-44
-45
-47
-49
-51
-53
-54
-55
-56
-57
-57
-56
-55
-53
-51
-50
-49
-49
-48
-48
-47
-47
-46
-45
-44
-42
-39
-37
-36
-35
-34
-34
-33
-33
-33
-34
-35
-35
-35
-34
-34
-34
-35
-36
-37
-38
-40
-42
-45
-48
-51
-53
-55
-57
-59
-61
-62
-62
-60
-54
-47
-39
-33
-27
-21
-15
-10
-6
-2
0
1
2
2
1
0
-1
-3
-5
-7
-9
-12
-14
-17
-20
-23
-26
-30
-33
-37
-39
-42
-44
-46
-47
-48
-49
-51
-52
-54
-58
-65
-71
-71
-67
-56
-25
29
102
185
270
343
368
353
307
187
37
-114
-239
-299
-318
-305
-264
-209
-149
-113
-72
-37
-24
-19
-16
-12
-9
-7
-5
-4
-3
-3
-3
-2
-3
-4
-6
-7
-9
-11
-12
-14
-15
-17
-19
-20
-20
-21
-21
-22
-23
-24
-23
-19
-13
-6
0
3
8
13
17
22
26
30
34
38
43
47
52
57
63
71
80
88
96
104
111
118
123
128
133
136
139
142
145
149
153
155
157
159
161
163
165
167
170
174
184
190
185
174
166
159
152
144
135
126
115
103
92
82
74
65
55
46
39
35
32
29
27
25
23
20
17
14
12
9
7
4
1
-4
-10
-14
-15
-13
-9
-6
-2
1
6
10
11
8
4
0
-2
-5
-8
-12
-15
-16
-16
-14
-11
-8
-3
1
7
15
23
27
28
29
31
33
35
36
31
20
10
5
1
-2
-6
-10
-14
-17
-20
-22
-24
-26
-27
-28
-28
-28
-28
-28
-28
-28
-27
-27
-26
-26
-26
-27
-27
-28
-29
-30
-29
-28
-27
-27
-27
-27
-27
-26
-25
-24
-23
-23
-23
-23
-23
-23
-25
-27
-30
-32
-34
-36
-38
-41
-43
-45
-46
-47
-47
-49
-50
-52
-54
-55
-57
-59
-61
-63
-65
-67
-67
-67
-67
-68
-68
-67
-67
-66
-66
-66
-66
-66
-66
-66
-65
-65
-64
-64
-62
-60
-58
-57
-55
-54
-52
-51
-51
-50
-50
-50
-50
-49
-46
-43
-40
-37
-34
-32
-29
-28
-28
-29
-31
-33
-36
-38
-41
-44
-47
-50
-52
-53
-56
-58
-62
-65
-68
-71
-72
-74
-75
-75
-75
-73
-72
-70
-67
-65
-64
-65
-68
-73
-78
-65
-27
32
109
191
263
298
298
256
155
13
-139
-262
-320
-338
-325
-286
-241
-216
-199
-186
-171
-151
-119
-96
-80
-71
-70
-72
-76
-79
-84
-87
-89
-86
-78
-71
-65
-61
-57
-54
-50
-48
-46
-45
-44
-43
-41
-39
-36
-36
-38
-42
-46
-49
-53
-57
-60
-57
-50
-42
-36
-30
-25
-20
-14
-8
-2
3
10
17
25
33
40
44
48
52
55
58
61
65
69
74
78
83
87
93
100
107
115
123
130
136
142
147
152
155
155
153
148
143
138
134
129
124
118
112
107
101
94
82
63
49
38
28
19
11
5
0
-3
-6
-7
-8
-9
-10
-11
-12
-13
-15
-17
-20
-21
-20
-19
-17
-15
-14
-12
-11
-9
-5
0
5
10
14
18
22
27
33
36
38
37
35
33
31
30
29
28
27
26
26
25
25
25
24
23
23
22
21
21
20
19
19
18
18
18
18
17
16
15
13
12
11
10
9
8
7
6
5
4
0
-4
-6
-4
-1
1
2
3
4
6
8
9
11
12
12
13
13
13
12
11
9
7
5
4
3
2
0
-2
-4
-6
-8
-12
-16
-21
-24
-27
-29
-31
-35
-41
-45
-41
-33
-29
-25
-22
-20
-19
-17
-15
-13
-11
-10
-10
-9
-9
-9
-8
-8
-9
-10
-11
-11
-11
-10
-10
-10
-11
-11
-12
-13
-14
-15
-17
-17
-17
-17
-16
-16
-15
-14
-12
-11
-9
-8
-7
-5
-3
-1
2
5
7
7
6
4
0
-4
-9
-16
-26
-34
-40
-42
-44
-45
-46
-46
-46
-46
-47
-49
-50
-52
-54
-55
-57
-58
-60
-62
-66
-74
-92
-102
-111
-120
-120
-105
-66
5
98
203
300
364
372
346
245
94
-77
-231
-331
-351
-345
-294
-237
-193
-169
-150
-136
-125
-109
-91
-72
-51
-41
-37
-34
-32
-30
-28
-28
-27
-27
-27
-28
-27
-26
-25
-25
-24
-24
-23
-21
-19
-17
-15
-13
-12
-9
-3
3
7
10
12
16
22
24
19
14
9
6
10
20
25
29
32
34
37
40
44
48
52
55
59
65
73
82
93
105
113
120
128
134
139
144
147
151
154
157
160
164
166
168
170
173
176
180
182
181
176
167
156
142
122
110
100
93
87
81
73
66
57
48
37
26
15
9
3
-2
-8
-12
-15
-17
-18
-19
-21
-22
-23
-22
-21
-21
-21
-23
-24
-24
-24
-24
-24
-25
-25
-24
-23
-21
-20
-19
-17
-16
-14
-12
-10
-9
-8
-8
-8
-7
-6
-6
-6
-6
-7
-7
-6
-6
-5
-4
-4
-4
-4
-5
-6
-7
-9
-11
-13
-15
-16
-17
-18
-18
-18
-18
-18
-18
-19
-21
-23
-24
-26
-28
-29
-30
-30
-30
-30
-30
-30
-31
-31
-32
-32
-33
-34
-35
-36
-36
-36
-36
-36
-37
-38
-39
-41
-43
-45
-48
-50
-52
-53
-54
-54
-55
-57
-58
-59
-60
-62
-64
-66
-69
-71
-72
-73
-73
-73
-74
-74
-74
-73
-73
-72
-71
-70
-70
-70
-70
-70
-70
-69
-69
-68
-68
-67
-66
-65
-65
-64
-63
-62
-61
-60
-58
-57
-56
-55
-54
-51
-47
-42
-37
-33
-30
-26
-22
-19
-17
-18
-23
-30
-39
-45
-49
-52
-54
-57
-59
-62
-64
-66
-68
-70
-73
-76
-78
-80
-81
-82
-83
-85
-86
-89
-91
-95
-102
-114
-126
-128
-124
-115
-86
-27
49
141
239
330
381
380
321
179
-5
-184
-313
-354
-353
-304
-257
-242
-232
-223
-213
-195
-165
-131
-102
-89
-83
-78
-74
-72
-70
-68
-67
-66
-65
-65
-65
-65
-65
-64
-63
-62
-60
-58
-56
-54
-51
-47
-43
-40
-38
-37
-37
-36
-35
-33
-31
-29
-28
-26
-24
-21
-19
-17
-16
-16
-15
-12
-9
-6
-2
0
4
11
20
29
38
46
54
61
68
75
82
88
94
98
103
108
115
124
132
139
144
148
154
162
166
158
144
135
130
125
120
116
111
107
104
100
95
89
76
48
28
17
8
0
-6
-8
-8
-9
-11
-12
-13
-14
-15
-16
-16
-17
-17
-18
-18
-18
-19
-20
-21
-22
-22
-23
-23
-23
-23
-22
-21
-21
-20
-20
-19
-18
-18
-18
-18
-18
-18
-18
-17
-17
-16
-15
-14
-13
-12
-11
-11
-12
-13
-14
-14
-15
-15
-16
-17
-17
-17
-16
-16
-16
-17
-17
-18
-18
-19
-21
-22
-23
-25
-26
-27
-27
-28
-28
-28
-29
-36
-40
-36
-28
-24
-20
-17
-15
-13
-12
-13
-14
-16
-19
-21
-22
-23
-24
-25
-26
-27
-29
-30
-31
-33
-34
-36
-37
-39
-40
-41
-41
-42
-42
-43
-43
-43
-43
-44
-45
-45
-46
-46
-47
-48
-48
-49
-49
-49
-48
-46
-45
-44
-43
-42
-41
-40
-40
-40
-40
-40
-40
-40
-40
-40
-40
-40
-40
-39
-38
-37
-36
-34
-32
-29
-26
-22
-19
-15
-12
-8
-5
0
3
8
11
14
15
15
15
14
14
14
14
13
12
11
10
10
9
8
5
0
-6
-11
-16
-19
-23
-28
-32
-35
-38
-40
-42
-44
-45
-47
-48
-50
-52
-56
-65
-66
-56
-30
21
93
187
295
395
448
446
379
223
29
-154
-283
-326
-327
-288
-238
-207
-175
-145
-115
-88
-76
-70
-67
-64
-61
-57
-52
-46
-41
-37
-33
-30
-27
-25
-23
-21
-18
-16
-13
-11
-9
-7
-5
-3
-1
0
1
2
3
4
5
5
5
5
6
6
8
9
11
13
15
17
19
21
23
25
27
30
35
44
54
62
71
80
90
99
106
112
116
119
122
124
127
131
135
140
145
150
155
160
165
169
173
176
178
180
182
184
188
193
193
183
169
150
132
112
96
86
77
69
60
52
45
38
31
24
14
3
-1
-3
-5
-7
-8
-9
-10
-11
-11
-11
-12
-12
-13
-13
-13
-13
-14
-14
-14
-15
-16
-16
-17
-19
-21
-26
-29
-27
-23
-19
-16
-13
-9
-6
-2
0
1
4
6
8
8
7
4
0
-2
-5
-8
-11
-15
-19
-22
-23
-23
-22
-19
-15
-12
-6
3
4
-2
-7
-10
-13
-16
-17
-16
-14
-11
-7
-3
2
6
1
-6
-11
-15
-18
-22
-24
-26
-28
-29
-31
-33
-35
-38
-40
-41
-39
-35
-30
-25
-19
-14
-12
-13
-18
-23
-28
-35
-39
-38
-35
-33
-31
-29
-28
-27
-29
-31
-34
-37
-40
-45
-50
-53
-52
-50
-48
-47
-46
-45
-44
-43
-41
-40
-40
-40
-40
-41
-42
-44
-46
-49
-52
-55
-58
-62
-73
-73
-61
-52
-45
-39
-34
-31
-29
-26
-22
-23
-31
-40
-48
-48
-40
-35
-32
-30
-28
-26
-24
-22
-19
-17
-14
-11
-7
-4
-1
1
5
8
11
12
14
15
16
18
23
22
12
2
-7
-16
-25
-30
-33
-35
-38
-41
-43
-46
-48
-50
-51
-53
-55
-57
-61
-66
-70
-70
-67
-61
-40
7
82
179
286
382
438
440
396
276
111
-68
-226
-324
-338
-329
-270
-203
-144
-101
-84
-77
-74
-71
-66
-59
-51
-46
-42
-38
-35
-32
-30
-27
-24
-22
-19
-17
-16
-15
-14
-13
-13
-12
-11
-10
-8
-7
-5
-4
-4
-4
-4
-4
-3
-3
-3
-3
-2
-1
0
0
2
4
7
10
14
18
22
26
29
33
37
41
44
47
50
55
61
70
79
87
93
98
104
111
121
130
135
139
144
148
152
155
157
159
160
160
160
159
157
154
150
146
141
136
130
117
106
97
83
59
43
35
28
22
16
10
5
1
0
-2
-4
-6
-9
-11
-12
-14
-16
-17
-18
-19
-19
-18
-17
-15
-14
-12
-11
-10
-9
-9
-8
-8
-8
-8
-8
-7
-7
-6
-6
-5
-5
-5
-5
-5
-6
-7
-9
-11
-13
-16
-19
-20
-17
-13
-10
-5
-1
0
0
-5
-10
-16
-24
-28
-24
-16
-11
-7
-2
1
3
2
-1
-5
-9
-12
-14
-17
-19
-22
-25
-26
-26
-26
-26
-25
-24
-22
-20
-17
-15
-13
-10
-6
-1
0
-1
-6
-10
-13
-15
-17
-19
-21
-23
-25
-27
-30
-32
-33
-34
-34
-34
-34
-34
-34
-35
-35
-35
-35
-36
-37
-39
-39
-39
-39
-39
-39
-38
-38
-37
-36
-35
-35
-34
-33
-32
-31
-27
-43
-54
-60
-65
-69
-71
-72
-72
-70
-67
-63
-58
-53
-48
-42
-36
-30
