403
494
592
683
743
764
754
748
746
744
742
740
737
734
732
729
725
721
716
702
670
653
648
643
640
638
636
634
633
631
630
629
627
625
623
621
619
617
615
614
613
612
610
606
598
591
592
600
611
620
629
638
642
645
648
651
655
658
663
672
683
699
720
739
751
758
764
770
777
784
794
807
827
844
867
892
914
943
966
979
991
1000
1008
1024
1053
1076
1089
1098
1101
1103
1104
1106
1109
1106
1087
1069
1053
1038
1025
1004
972
936
903
872
846
809
766
721
672
637
596
557
520
487
457
425
401
386
375
366
354
341
328
310
285
265
252
239
226
216
210
204
198
192
186
180
171
153
121
93
64
35
6
-7
-14
-20
-24
-28
-32
-37
-42
-48
-54
-61
-69
-80
-92
-100
-106
-112
-117
-122
-128
-134
-139
-144
-149
-158
-170
-159
-126
-62
24
128
240
357
471
559
597
598
563
488
389
278
163
55
-31
-99
-153
-182
-208
-232
-255
-281
-296
-302
-307
-311
-315
-320
-325
-330
-335
-340
-345
-349
-354
-360
-364
-367
-366
-362
-355
-347
-340
-334
-328
-322
-316
-311
-308
-306
-304
-304
-303
-304
-307
-310
-313
-315
-318
-325
-324
-312
-303
-296
-289
-280
-271
-266
-262
-258
-256
-254
-253
-253
-251
-249
-247
-245
-244
-243
-243
-241
-238
-234
-230
-220
-200
-193
-191
-189
-188
-187
-186
-184
-181
-177
-174
-171
-168
-166
-162
-158
-152
-146
-136
-125
-115
-106
-96
-88
-80
-73
-67
-62
-56
-52
-47
-44
-41
-37
-35
-33
-32
-33
-34
-35
-36
-37
-38
-39
-41
-43
-45
-46
-45
-44
-42
-39
-37
-34
-32
-30
-29
-27
-26
-26
-26
-27
-29
-30
-32
-33
-34
-34
-34
-34
-34
-38
-41
-34
-22
-16
-11
-8
-4
-1
1
4
7
10
11
11
9
7
5
4
4
3
2
1
0
0
-1
-3
-7
4
10
13
15
17
18
19
21
23
25
26
26
26
26
27
28
29
29
28
28
28
29
30
31
32
31
31
30
29
29
29
29
30
31
33
35
37
38
38
37
36
32
27
26
33
37
38
39
41
43
46
49
52
56
60
63
66
68
71
74
77
82
87
92
96
99
100
100
98
95
91
86
81
78
75
72
69
66
63
61
58
55
53
51
50
47
45
43
41
38
34
29
25
20
16
13
11
9
8
6
2
-1
12
55
125
220
336
464
587
696
781
818
818
780
705
603
489
369
255
164
103
68
40
19
1
-21
-48
-66
-78
-89
-99
-106
-111
-114
-117
-119
-121
-124
-125
-127
-128
-130
-131
-133
-133
-131
-127
-120
-108
-91
-80
-72
-93
-107
-116
-123
-129
-132
-132
-131
-128
-124
-120
-116
-110
-104
-103
-106
-110
-112
-114
-115
-117
-118
-116
-112
-107
-101
-97
-93
-88
-84
-80
-77
-74
-72
-71
-72
-73
-74
-75
-76
-75
-75
-75
-75
-77
-83
-80
-60
-50
-44
-39
-35
-30
-26
-21
-17
-13
-10
-8
-6
-6
-5
-4
-2
0
1
3
6
8
10
11
10
7
4
0
-4
-7
-11
-13
-15
-17
-18
-19
-21
-23
-26
-29
-32
-35
-37
-39
-42
-43
-45
-46
-47
-49
-54
-66
-73
-78
-84
-90
-89
-75
-67
-61
-55
-50
-48
-46
-47
-50
-54
-59
-66
-76
-82
-80
-75
-69
-63
-63
-69
-73
-75
-76
-78
-78
-77
-74
-70
-67
-64
-62
-60
-58
-55
-54
-53
-52
-52
-52
-52
-53
-54
-55
-55
-55
-54
-54
-52
-51
-49
-48
-47
-46
-45
-44
-43
-43
-43
-42
-42
-39
-36
-32
-29
-26
-23
-20
-17
-15
-15
-14
-12
-9
-6
-5
-7
-12
-18
-23
-27
-34
-42
-47
-48
-45
-39
-28
-9
6
16
16
8
4
0
-3
-6
-5
0
7
17
29
47
52
53
54
56
57
56
48
36
21
2
-12
-20
-26
-32
-37
-41
-42
-42
-41
-39
-37
-36
-33
-33
-36
-37
-38
-38
-39
-38
-39
-40
-42
-43
-45
-45
-46
-48
-52
-59
-42
10
92
208
359
536
727
899
1001
1009
943
761
534
317
151
91
73
62
55
50
26
-23
-48
-61
-71
-76
-74
-65
-56
-51
-46
-41
-37
-31
-25
-18
-11
-4
2
7
12
16
20
25
31
36
40
44
46
49
50
50
49
48
47
46
47
48
50
52
53
55
56
57
58
58
58
57
56
54
52
49
47
46
44
43
42
41
39
37
35
33
31
29
27
24
22
21
21
22
23
25
27
29
31
33
34
35
36
37
38
39
41
44
47
50
53
56
58
59
60
60
59
58
56
55
54
53
52
51
49
48
46
44
41
37
34
30
27
24
20
15
9
5
1
-3
-9
-14
-20
-26
-31
-36
-41
-46
-49
-52
-56
-58
-60
-63
-65
-67
-69
-70
-71
-71
-71
-72
-73
-73
-73
-73
-73
-73
-73
-73
-72
-71
-70
-69
-69
-68
-68
-68
-66
-62
-59
-56
-55
-53
-50
-48
-45
-44
-42
-39
-37
-36
-35
-36
-37
-39
-41
-42
-44
-46
-49
-51
-53
-53
-54
-56
-60
-63
-64
-61
-55
-48
-43
-41
-40
-38
-36
-33
-32
-30
-29
-28
-26
-24
-23
-23
-23
-24
-24
-24
-23
-23
-23
-24
-25
-25
-24
-23
-22
-21
-20
-19
-18
-17
-15
-14
-12
-11
-7
-1
7
16
24
34
49
70
87
99
108
116
127
140
152
163
175
184
194
207
225
242
250
256
260
263
266
269
273
276
280
284
289
299
316
333
356
384
406
423
441
459
478
499
510
517
523
528
533
538
541
546
553
581
637
723
843
1002
1187
1376
1535
1635
1645
1599
1436
1204
956
755
649
607
582
556
515
465
405
346
313
281
249
222
203
186
169
152
132
105
75
53
36
17
1
-10
-19
-23
-27
-36
-55
-81
-113
-137
-148
-156
-162
-166
-169
-172
-174
-176
-177
-178
-179
-180
-181
-183
-184
-186
-188
-191
-194
-198
-202
-206
-209
-214
-219
-224
-227
-228
-225
-220
-213
-207
-200
-192
-182
-172
-165
-161
-159
-158
-157
-154
-151
-148
-146
-144
-141
-138
-135
-131
-127
-123
-117
-105
-95
-89
-84
-81
-79
-77
-74
-71
-67
-64
-61
-58
-55
-52
-50
-47
-45
-43
-41
-39
-36
-33
-30
-26
-18
-14
-19
-30
-35
-39
-43
-46
-48
-51
-53
-55
-57
-59
-62
-64
-66
-68
-71
-74
-76
-79
-82
-85
-87
-90
-92
-96
-101
-105
-106
-101
-91
-80
-72
-64
-56
-49
-43
-39
-36
-31
-25
-20
-19
-24
-32
-41
-50
-57
-62
-67
-73
-73
-60
-48
-36
-26
-16
-11
-6
-2
1
3
4
2
-1
-4
-6
-8
-12
-17
-21
-23
-21
-17
-11
-6
-1
4
10
16
18
17
13
9
5
0
-4
-7
-6
-4
-1
0
1
4
6
8
10
12
14
15
15
15
14
13
13
13
12
12
11
12
12
13
13
13
13
13
13
13
14
15
17
19
21
24
27
31
35
38
41
44
48
52
57
61
65
68
71
73
74
74
75
76
76
78
81
88
88
79
73
70
66
60
54
47
40
28
11
2
-3
-7
-10
-11
-11
-9
-7
-4
0
5
9
4
-4
-14
-24
-32
-37
-43
-49
-49
-36
-18
3
41
100
185
297
431
581
734
867
937
937
866
708
522
346
214
134
92
70
50
30
0
-43
-87
-109
-117
-121
-123
-125
-126
-127
-128
-128
-129
-129
-128
-128
-127
-126
-124
-122
-120
-117
-114
-112
-109
-106
-102
-98
-95
-92
-89
-87
-86
-84
-82
-80
-79
-78
-76
-74
-71
-68
-67
-66
-65
-63
-60
-56
-51
-47
-41
-35
-28
-21
-15
-9
-5
-3
0
1
4
7
9
11
13
15
18
20
22
23
23
23
25
27
30
34
37
40
44
49
54
59
64
68
70
73
76
81
85
89
93
97
100
103
104
104
103
100
97
93
89
87
84
82
79
77
74
72
68
64
60
55
50
45
41
38
34
31
28
26
23
21
19
17
14
12
9
8
6
5
4
4
5
7
9
11
13
15
18
21
24
27
29
32
34
37
40
42
43
43
43
43
44
44
44
44
44
45
45
46
47
48
48
49
50
51
51
52
51
50
50
50
50
51
52
52
52
52
53
56
54
39
32
29
25
22
20
18
16
14
12
10
9
9
10
9
9
8
7
7
6
6
5
3
1
0
0
-1
-4
-6
-8
-10
-13
-16
-21
-35
-43
-47
-50
-53
-56
-59
-60
-58
-56
-54
-52
-50
-48
-45
-43
-42
-42
-43
-44
-45
-46
-47
-48
-50
-52
-53
-53
-52
-48
-43
-38
-33
-28
-23
-18
-13
-9
-6
-4
-3
-2
-3
-4
-7
-10
-15
-20
-26
-31
-37
-46
-56
-65
-72
-78
-82
-85
-87
-89
-90
-91
-91
-91
-93
-95
-97
-98
-99
-100
-100
-101
-103
-104
-106
-108
-113
-124
-123
-111
-78
-18
70
190
336
496
658
805
901
910
859
699
489
281
128
57
28
3
-27
-69
-117
-154
-165
-168
-171
-174
-176
-178
-180
-181
-183
-184
-185
-187
-188
-188
-189
-190
-189
-188
-185
-182
-180
-178
-177
-176
-175
-173
-171
-170
-169
-167
-166
-164
-161
-159
-157
-154
-151
-148
-145
-141
-138
-136
-134
-132
-129
-127
-124
-120
-117
-113
-108
-102
-96
-91
-86
-81
-76
-72
-67
-60
-51
-37
-21
-5
11
28
43
55
67
80
93
104
123
149
169
184
195
210
229
249
271
297
321
340
354
369
389
413
430
440
448
455
461
467
472
477
481
482
480
475
468
460
453
442
431
422
413
397
369
347
335
324
312
300
287
271
261
253
245
237
228
219
207
193
180
166
152
135
124
118
113
107
102
97
93
88
82
72
64
57
48
38
26
19
14
10
6
1
-4
-11
-16
-20
-24
-28
-32
-35
-38
-41
-45
-48
-52
-56
-60
-62
-64
-68
-72
-76
-78
-79
-78
-77
-76
-75
-74
-73
-72
-70
-69
-68
-68
-67
-67
-67
-68
-70
-73
-77
-80
-83
-86
-90
-95
-99
-101
-100
-97
-93
-89
-85
-80
-76
-76
-83
-90
-95
-99
-103
-106
-109
-111
-112
-112
-112
-111
-110
-107
-104
-100
-97
-94
-87
-82
-81
-88
-96
-102
-108
-114
-119
-120
-118
-114
-109
-104
-100
-96
-92
-88
-84
-81
-77
-73
-70
-66
-61
-56
-43
-22
-10
-3
0
-4
-13
-28
-52
-69
-79
-86
-91
-95
-97
-99
-100
-101
-101
-102
-102
-103
-104
-106
-107
-108
-109
-109
-110
-110
-111
-112
-112
-113
-114
-116
-119
-121
-119
-115
-109
-87
-48
19
124
269
447
643
825
944
958
908
733
506
285
107
-7
-46
-58
-67
-75
-83
-91
-99
-107
-117
-128
-136
-142
-147
-151
-155
-158
-160
-161
-162
-165
-169
-172
-172
-166
-158
-149
-139
-128
-117
-106
-93
-92
-100
-106
-113
-116
-112
-102
-94
-88
-82
-75
-67
-59
-52
-46
-40
-34
-28
-23
-19
-15
-13
-10
-7
-6
-5
-5
-5
-5
-3
-1
0
2
3
4
6
8
10
13
15
16
18
19
21
24
26
27
28
29
31
34
38
40
41
41
41
42
44
46
48
49
49
51
55
61
66
70
74
78
81
86
90
94
96
95
90
84
77
70
64
57
49
42
36
31
28
25
23
20
18
16
15
13
11
8
6
4
3
4
5
6
8
11
16
23
9
3
1
-1
-3
-6
-9
-11
-12
-14
-16
-17
-17
-17
-16
-14
-12
-9
-7
-4
-1
1
3
4
5
6
6
6
7
8
9
11
13
14
16
17
18
18
18
18
17
16
14
13
13
12
12
12
11
11
11
11
10
10
9
8
8
8
8
7
6
5
5
5
6
7
8
8
10
11
12
13
14
14
14
13
13
12
12
12
13
16
18
17
15
14
13
11
9
8
6
4
2
0
0
1
4
7
10
14
18
22
26
30
34
37
42
48
54
60
64
65
65
66
67
68
68
67
67
66
67
67
66
62
56
50
47
44
41
39
37
35
35
35
35
35
33
31
29
28
28
27
26
25
22
20
18
16
12
3
-1
5
26
85
174
287
422
576
739
889
987
998
949
784
569
369
224
145
117
103
70
18
-41
-87
-104
-111
-107
-97
-87
-77
-71
-78
-89
-94
-96
-97
-99
-101
-103
-105
-107
-109
-110
-111
-112
-112
-111
-110
-110
-109
-110
-110
-110
-110
-109
-109
-108
-107
-106
-104
-101
-100
-99
-99
-99
-98
-97
-95
-89
-83
-81
-81
-83
-85
-86
-87
-89
-91
-92
-89
-83
-74
-66
-60
-55
-49
-43
-38
-34
-31
-29
-29
-29
-28
-27
-27
-27
-27
-26
-26
-25
-23
-21
-17
-12
-6
1
13
24
33
39
43
47
50
53
55
56
57
57
58
60
64
67
67
60
52
47
43
39
36
32
29
27
25
23
21
19
16
15
14
12
9
7
4
3
3
4
6
8
10
14
21
11
0
-9
-10
-6
-3
-1
0
1
2
3
4
5
6
7
7
8
8
9
11
13
17
20
19
17
16
14
13
12
12
11
11
11
10
10
11
13
15
17
19
20
21
23
24
26
26
26
26
25
25
24
23
21
19
18
17
16
17
16
16
15
15
15
14
13
13
13
13
14
15
16
17
18
19
20
20
19
19
18
18
17
16
15
14
13
12
12
9
4
4
11
16
20
24
28
31
34
42
51
38
30
26
22
19
16
15
14
14
13
14
16
19
23
28
32
37
43
52
62
72
82
93
100
100
93
85
75
64
54
44
28
10
3
0
-2
-4
-4
-4
-4
-4
-5
-7
-8
-10
-10
-11
-13
-15
-18
-20
-22
-25
-31
-39
-47
-57
-75
-90
-95
-100
-88
-49
5
93
220
389
591
793
953
1006
994
873
662
423
212
77
52
44
35
26
-3
-57
-93
-112
-128
-140
-148
-152
-155
-157
-160
-161
-161
-161
-160
-159
-157
-154
-151
-148
-146
-144
-143
-142
-141
-139
-138
-137
-136
-134
-132
-130
-128
-127
-126
-125
-124
-124
-123
-122
-120
-118
-116
-113
-109
-99
-93
-90
-87
-85
-85
-84
-83
-81
-77
-72
-68
-62
-58
-54
-50
-45
-41
-37
-34
-31
-28
-26
-25
-25
-24
-23
-22
-20
-18
-16
-13
-11
-8
-3
1
6
10
14
19
24
30
35
41
45
49
54
59
64
68
70
73
76
79
82
85
87
88
89
89
87
85
81
76
70
65
59
52
39
28
24
23
23
21
20
26
30
33
36
38
40
40
38
34
31
28
25
21
17
13
9
6
3
0
-3
-7
-9
-6
0
6
10
13
17
20
24
27
28
29
29
29
28
26
23
20
17
14
11
9
6
2
-1
-4
-5
-5
-4
-3
-2
0
2
7
7
-3
-9
-13
-17
-20
-21
-23
-24
-27
-30
-33
-35
-37
-39
-41
-44
-48
-52
-56
-58
-59
-60
-61
-62
-63
-63
-63
-63
-63
-63
-63
-63
-64
-65
-66
-66
-68
-68
-69
-70
-71
-72
-73
-74
-76
-78
-80
-82
-85
-88
-90
-92
-94
-95
-95
-93
-90
-87
-84
-81
-77
-74
-71
-67
-64
-60
-56
-52
-48
-43
-38
-34
-31
-28
-26
-23
-20
-14
-9
-7
-11
-21
-31
-41
-51
-61
-67
-73
-77
-79
-81
-84
-86
-89
-91
-92
-93
-94
-94
-95
-97
-98
-99
-100
-101
-101
-101
-101
-100
-98
-95
-93
-89
-85
-80
-75
-45
30
141
288
463
645
797
881
885
819
653
445
237
77
18
-1
9
29
30
-6
-68
-134
-189
-204
-209
-213
-192
-178
-172
-167
-163
-160
-156
-153
-149
-146
-143
-142
-140
-137
-135
-132
-130
-128
-125
-121
-115
-109
-103
-96
-89
-80
-71
-63
-56
-50
-44
-39
-34
-27
-21
-16
-9
3
26
48
69
89
113
134
149
164
185
210
235
259
281
303
323
346
372
403
438
469
497
526
555
583
608
630
662
703
728
756
776
785
792
795
790
780
764
744
715
680
647
611
572
548
525
503
467
424
381
360
345
333
318
281
239
201
180
161
139
114
85
61
47
35
26
11
-14
-47
-74
-87
-94
-100
-107
-115
-123
-132
-144
-153
-160
-169
-180
-188
-193
-196
-199
-203
-207
-211
-215
-221
-234
-254
-267
-276
-282
-288
-292
-298
-301
-299
-294
-291
-289
-287
-285
-282
-278
-273
-267
-258
-242
-213
-167
-112
-51
6
58
75
63
25
-93
-270
-491
-734
-968
-1157
-1277
-1340
-1368
-1390
-1403
-1410
-1398
-1325
-1211
-1077
-940
-801
-670
-557
-476
-427
-406
-394
-383
-369
-350
-326
-283
-231
-179
-132
-107
-84
-67
-60
-57
-54
-52
-48
-45
-41
-38
-34
-30
-26
-21
-15
-9
-3
0
4
8
13
17
22
26
31
34
37
39
42
44
46
49
52
55
58
60
63
67
73
86
112
129
140
150
160
176
202
215
220
225
228
231
234
237
239
241
241
241
240
240
238
236
233
230
227
223
220
217
212
203
193
183
173
164
155
146
137
128
118
100
70
41
13
-8
-25
-40
-60
-85
-110
-135
-151
-160
-168
-178
-188
-195
-201
-206
-211
-215
-218
-221
-224
-227
-228
-230
-231
-233
-235
-236
-237
-237
-237
-237
-235
-233
-230
-226
-222
-217
-214
-211
-208
-207
-204
-202
-201
-200
-199
-198
-195
-193
-191
-190
-189
-188
-187
-184
-179
-174
-167
-130
-53
58
201
370
550
708
788
786
694
503
275
73
-60
-86
-95
-85
-71
-61
-84
-153
-218
-253
-266
-266
-255
-244
-235
-231
-238
-250
-258
-264
-271
-275
-276
-272
-266
-257
-248
-239
-229
-221
-214
-211
-208
-204
-201
-197
-194
-193
-195
-197
-199
-201
-203
-205
-207
-209
-207
-202
-196
-191
-188
-184
-181
-177
-173
-170
-168
-166
-164
-161
-158
-156
-154
-153
-152
-150
-147
-144
-142
-140
-138
-136
-132
-129
-126
-123
-120
-118
-114
-111
-106
-101
-93
-85
-77
-71
-67
-62
-57
-51
-42
-31
-17
-1
16
35
47
54
60
64
68
71
73
75
77
79
82
88
91
91
85
78
73
68
63
60
60
65
73
80
85
90
95
99
102
104
105
105
104
101
98
94
90
86
82
77
71
65
61
60
62
65
69
73
80
91
91
83
78
75
72
70
68
67
67
67
69
70
72
74
79
78
67
61
56
51
46
43
42
43
44
46
48
51
56
64
57
50
43
43
56
65
74
82
89
95
101
109
119
121
115
110
107
103
98
94
91
87
83
76
67
57
47
43
41
39
37
35
34
33
33
33
32
31
29
28
27
26
25
24
22
19
17
13
9
0
-18
-22
-25
-28
-12
34
101
198
331
495
676
843
967
1006
995
891
705
481
269
109
45
26
15
5
0
-9
-27
-55
-75
-90
-108
-116
-121
-125
-129
-133
-135
-136
-136
-136
-135
-135
-134
-132
-130
-129
-128
-128
-129
-129
-129
-129
-128
-128
-127
-126
-124
-123
-122
-122
-122
-121
-120
-119
-117
-117
-116
-115
-114
-111
-108
-105
-101
-96
-91
-86
-83
-80
-79
-77
-74
-70
-64
-58
-50
-42
-32
-31
-37
-42
-46
-50
-53
-49
-40
-30
-23
-16
-11
-6
-1
3
8
13
18
23
27
32
38
44
50
55
60
65
71
76
82
86
90
94
98
103
107
106
100
93
89
86
84
82
81
79
77
75
73
70
68
67
65
63
60
57
55
53
51
49
47
43
39
35
32
30
29
28
26
25
24
23
21
19
17
15
13
14
17
21
25
30
35
40
43
42
41
40
39
37
35
32
31
31
33
36
39
41
43
47
52
56
58
56
51
46
42
38
33
28
23
21
22
26
29
32
32
32
33
35
37
39
41
42
43
44
44
44
43
42
41
41
40
40
39
39
38
38
39
39
39
38
37
35
35
34
33
32
31
29
28
27
27
26
24
21
19
16
16
17
20
23
27
31
33
36
39
42
45
48
52
56
61
66
73
80
87
96
114
124
116
103
91
80
68
53
39
33
28
24
19
15
12
9
7
5
4
2
0
0
0
0
0
0
-1
-2
-4
-4
-5
-6
-7
-10
-16
-37
-55
-65
-69
-61
-39
22
132
282
460
647
822
958
1008
995
879
673
446
259
135
82
61
47
12
-40
-88
-106
-112
-108
-101
-94
-86
-82
-87
-96
-103
-111
-116
-118
-117
-115
-113
-111
-109
-107
-111
-119
-126
-134
-139
-134
-127
-123
-120
-117
-114
-112
-109
-106
-103
-101
-99
-97
-94
-91
-86
-81
-79
-82
-88
-95
-100
-105
-109
-111
-107
-98
-90
-84
-79
-73
-69
-64
-61
-57
-53
-50
-47
-45
-43
-40
-38
-36
-33
-31
-30
-28
-27
-24
-22
-20
-19
-17
-16
-14
-12
-9
-6
-3
0
2
5
9
13
22
41
63
80
88
93
97
99
94
85
75
70
65
60
56
52
48
44
41
37
34
31
28
26
24
23
21
20
18
17
15
14
12
11
9
9
10
12
14
15
15
15
16
17
18
19
20
21
21
21
22
21
21
21
20
20
20
20
19
18
17
16
17
17
17
17
16
14
14
17
24
32
38
44
50
54
54
50
42
35
31
27
23
19
16
13
11
10
10
11
11
11
12
13
15
16
17
18
19
20
21
21
22
22
23
23
22
20
17
13
10
7
1
-3
-3
0
4
6
7
8
9
9
11
12
14
16
16
17
17
17
17
18
18
18
19
19
19
20
21
21
21
21
23
24
25
26
27
31
30
20
12
4
0
6
19
31
44
56
67
75
82
88
92
92
89
85
78
68
47
27
13
0
-6
-9
-11
-13
-14
-15
-16
-17
-17
-17
-18
-19
-19
-20
-20
-21
-21
-21
-21
-22
-23
-25
-26
-29
-33
-44
-45
-34
-4
68
183
334
513
702
877
1004
1050
986
819
592
355
165
78
50
35
29
23
-1
-46
-73
-88
-95
-101
-107
-112
-117
-122
-126
-132
-138
-143
-146
-146
-144
-141
-138
-136
-134
-132
-129
-125
-121
-118
-115
-114
-113
-112
-112
-112
-112
-113
-113
-113
-112
-110
-109
-107
-105
-103
-100
-98
-95
-92
-89
-85
-82
-79
-76
-72
-68
-64
-61
-57
-54
-51
-48
-46
-44
-43
-42
-41
-40
-39
-37
-34
-30
-24
-19
-13
-7
-2
3
10
16
21
24
26
28
33
40
31
23
17
12
10
13
20
30
49
73
83
90
95
97
95
91
88
85
84
81
79
76
74
71
67
63
59
54
50
46
41
36
31
26
21
16
12
6
-2
-8
-7
-4
-1
0
1
2
3
2
1
1
1
2
1
1
0
0
1
2
3
3
3
2
2
2
2
2
1
1
4
4
0
-1
-1
-2
-2
-1
-1
0
-1
-3
-5
-6
-6
-4
-3
-3
-3
-3
-4
-3
-4
-8
-7
3
10
15
20
24
26
26
24
23
21
19
17
13
9
6
6
8
9
10
12
14
16
17
17
15
13
11
10
7
4
1
0
0
2
6
9
12
13
15
18
22
24
25
25
25
25
26
26
26
25
23
22
22
21
20
19
17
15
14
12
7
10
30
60
94
107
114
120
125
128
130
130
130
128
126
123
120
115
106
91
73
64
60
55
52
50
48
47
46
46
45
44
41
39
37
35
33
30
27
25
22
19
17
13
6
-1
-6
-7
-3
2
11
42
113
220
356
504
649
780
882
916
906
821
672
491
313
173
79
37
23
9
-5
-53
-88
-101
-105
-102
-96
-88
-80
-81
-98
-118
-138
-147
-154
-160
-158
-138
-126
-118
-109
-103
-100
-100
-102
-105
-108
-112
-120
-130
-122
-117
-114
-111
-109
-107
-106
-104
-102
-99
-95
-93
-91
-89
-87
-84
-81
-78
-76
-75
-73
-71
-70
-68
-67
-67
-68
-69
-69
-68
-66
-65
-63
-62
-60
-58
-56
-53
-51
-49
-47
-44
-40
-36
-30
-21
-5
0
1
2
2
3
4
4
4
5
7
10
14
19
23
27
32
39
47
52
55
57
58
60
63
66
68
69
65
57
48
42
38
34
30
25
21
18
16
15
14
13
10
8
7
6
5
3
2
0
0
0
0
0
0
0
-1
-1
-2
-2
-3
-3
-4
-4
-4
-3
0
2
5
7
9
11
12
13
13
12
11
9
8
8
8
9
9
9
9
10
11
12
12
12
12
11
11
12
12
13
14
15
16
17
18
18
18
17
17
17
18
20
22
23
22
19
16
12
8
3
-2
-7
-8
-4
2
9
14
18
23
28
32
34
33
30
24
18
13
10
5
0
-7
-11
-13
-11
-8
-4
-2
-1
0
3
7
11
13
12
10
8
7
6
5
1
-3
-7
-7
-1
7
15
20
25
30
36
42
47
52
55
57
60
63
66
68
69
73
77
80
80
75
66
54
39
16
3
-3
-9
-14
-17
-19
-19
-17
-13
-9
-5
-2
1
4
8
10
12
12
12
10
5
0
-7
-15
-24
-41
-50
-47
-40
-17
45
141
272
433
612
786
925
991
990
918
756
547
341
186
112
84
65
42
0
-34
-54
-66
-75
-81
-86
-95
-106
-112
-115
-117
-118
-119
-120
-120
-120
-120
-120
-121
-121
-120
-118
-115
-112
-109
-107
-105
-104
-102
-100
-98
-97
-96
-95
-94
-91
-89
-87
-87
-86
-86
-84
-82
-81
-79
-78
-78
-77
-76
-74
-73
-72
-72
-71
-69
-66
-64
-61
-58
-56
-53
-50
-46
-43
-39
-37
-34
-32
-29
-27
-24
-21
-18
-14
-11
-6
-2
0
3
6
9
12
15
19
24
30
37
45
52
57
60
63
65
68
70
72
73
75
78
80
82
82
78
72
65
60
57
54
51
48
44
39
35
32
29
26
23
20
17
15
13
11
10
8
6
5
4
3
1
1
0
-1
-2
-3
-3
-3
-3
-3
-3
-3
-3
-3
-3
-3
-3
-3
-3
-1
0
0
0
0
0
0
0
0
0
0
-1
0
0
1
2
1
2
3
4
5
6
5
4
3
3
4
5
4
4
4
5
7
9
11
12
12
13
14
15
17
18
18
18
19
19
19
19
19
19
19
20
21
22
23
23
22
21
21
20
20
19
17
15
12
10
9
8
9
9
9
9
9
9
9
8
6
5
3
2
1
1
0
0
-1
-2
-3
-6
-10
-19
-25
-16
0
10
16
20
24
28
32
37
41
46
51
54
57
59
61
64
69
74
79
81
81
77
72
66
59
51
40
28
15
2
-5
-12
-18
-23
-27
-30
-30
-28
-27
-25
-22
-20
-16
-12
-7
-1
1
1
-3
-10
-18
-30
-46
-48
-36
-3
73
184
325
489
663
825
945
976
960
846
652
429
232
101
61
49
41
33
26
-4
-62
-97
-138
-159
-164
-166
-167
-167
-168
-166
-163
-159
-158
-156
-155
-153
-150
-147
-144
-141
-139
-137
-136
-134
-133
-132
-132
-131
-131
-130
-129
-127
-124
-120
-117
-114
-112
-110
-107
-104
-102
-100
-98
-97
-95
-92
-89
-86
-83
-80
-77
-74
-70
-67
-63
-60
-58
-56
-54
-51
-49
-47
-45
-44
-42
-40
-38
-36
-34
-33
-32
-30
-28
-24
-19
-10
-2
5
8
11
14
17
19
22
25
28
32
35
39
44
54
69
73
76
77
79
79
79
76
72
67
64
61
58
54
51
48
44
41
37
33
29
26
23
18
12
6
0
-3
-7
-12
-17
-22
-26
-28
-28
-26
-24
-23
-21
-16
-13
-15
-21
-26
-31
-37
-40
-38
-33
-28
-23
-17
-12
-9
-9
-10
-11
-13
-16
-18
-20
-19
-16
-13
-12
-10
-8
-6
-4
-3
-2
-1
-2
-4
-6
-9
-12
-14
-16
-17
-18
-19
-19
-15
-10
-3
2
8
14
21
28
34
38
38
36
32
27
23
17
5
6
19
29
37
43
46
47
47
47
48
49
49
49
50
51
52
53
55
56
57
58
59
59
59
58
57
55
48
54
82
111
132
143
151
154
152
146
139
134
127
120
118
121
128
137
150
168
179
188
196
206
218
232
248
256
260
263
265
266
267
268
269
271
272
272
271
270
269
269
270
270
269
269
269
271
275
284
295
303
311
319
324
329
332
335
337
340
343
347
351
354
356
360
366
391
437
517
644
820
1034
1261
1458
1563
1571
1508
1346
1131
915
751
658
613
592
566
525
473
426
401
377
352
328
305
283
257
228
197
165
136
116
100
83
61
35
17
6
-2
-11
-18
-25
-32
-40
-48
-58
-71
-83
-99
-122
-145
-160
-160
-159
-160
-160
-160
-160
-159
-156
-152
-148
-146
-144
-142
-139
-136
-133
-131
-129
-126
-124
-121
-116
-112
-107
-102
-96
-88
-79
-70
-61
-53
-48
-44
-40
-37
-33
-30
-26
-24
-21
-18
-15
-12
-8
-5
-3
0
4
10
16
20
21
22
24
29
37
26
17
11
5
1
0
1
4
6
8
10
16
14
-2
-17
-28
-41
-56
-70
-77
-82
-88
-93
-97
-100
-102
-103
-104
-105
-106
-107
-108
-108
-109
-110
-111
-112
-112
-112
-113
-113
-112
-112
-112
-113
-114
-115
-116
-116
-116
-117
-117
-118
-118
-116
-114
-112
-110
-109
-107
-103
-98
-94
-92
-93
-93
-94
-94
-93
-93
-94
-95
-96
-97
-96
-93
-89
-86
-83
-81
-79
-76
-73
-70
-68
-67
-66
-65
-64
-63
-61
-59
-57
-54
-45
-40
-43
-49
-54
-58
-62
-65
-65
-62
-58
-54
-50
-46
-41
-34
-29
-25
-25
-27
-30
-33
-38
-45
-44
-26
-16
-9
-2
3
6
7
5
1
-2
-6
-10
-13
-16
-20
-24
-27
-28
-27
-24
-20
-16
-11
-4
2
14
26
39
50
57
64
72
79
83
83
79
72
65
58
51
42
32
24
17
13
11
9
6
4
1
0
-2
-4
-5
-7
-8
-9
-8
-7
-7
-9
-10
-12
-13
-15
-17
-20
-24
-28
-32
-36
-41
-49
-47
-33
5
82
200
354
526
695
844
939
971
941
848
658
447
271
157
109
94
80
68
47
13
-23
-61
-78
-85
-91
-96
-100
-103
-107
-109
-111
-112
-111
-111
-110
-108
-106
-104
-102
-99
-97
-95
-94
-93
-91
-86
-80
-75
-72
-73
-77
-82
-87
-91
-98
-105
-110
-111
-107
-101
-95
-91
-88
-85
-81
-77
-72
-69
-67
-67
-68
-69
-69
-70
-71
-73
-75
-77
-78
-79
-82
-90
-87
-66
-58
-54
-50
-48
-46
-44
-42
-40
-38
-35
-32
-30
-28
-27
-26
-26
-25
-25
-24
-24
-23
-22
-18
-14
-10
-7
-4
-2
-1
0
1
1
0
0
-1
-1
-1
-1
-2
-3
-6
-8
-11
-13
-17
-22
-28
-36
-44
-52
-60
-68
-77
-84
-87
-84
-79
-75
-71
-69
-66
-61
-56
-51
-47
-45
-44
-44
-44
-44
-47
-50
-54
-58
-60
-62
-63
-67
-71
-75
-77
-75
-70
-65
-60
-57
-50
-43
-37
-35
-38
-43
-47
-49
-51
-54
-58
-62
-66
-69
-72
-73
-74
-73
-72
-69
-66
-61
-56
-52
-47
-42
-33
-11
11
72
134
200
242
282
307
295
256
144
-27
-245
-485
-720
-920
-1066
-1156
-1198
-1219
-1234
-1240
-1232
-1210
-1147
-1027
-871
-708
-556
-434
-356
-318
-287
-254
-222
-185
-142
-95
-42
9
43
64
80
95
107
119
131
143
158
172
180
186
190
194
197
202
207
212
217
220
223
227
231
235
239
243
248
255
263
271
277
283
287
290
293
296
298
299
300
300
301
303
306
310
313
317
319
322
325
330
335
339
343
349
356
365
372
378
384
388
393
401
412
424
438
449
458
465
468
465
459
450
441
429
417
405
387
361
336
309
280
252
227
199
167
137
115
102
88
75
52
24
5
-6
-18
-30
-49
-81
-103
-115
-124
-131
-137
-142
-145
-147
-148
-149
-149
-150
-152
-153
-154
-156
-158
-160
-161
-162
-163
-163
-163
-164
-166
-169
-173
-177
-178
-174
-168
-162
-159
-157
-154
-151
-149
-147
-146
-146
-145
-144
-143
-143
-143
-144
-144
-145
-146
-148
-151
-157
-158
-153
-151
-150
-148
-146
-144
-142
-140
-137
-134
-132
-131
-130
-129
-128
-126
-123
-119
-117
-115
-115
-115
-115
-116
-119
-122
-126
-126
-123
-119
-114
-108
-105
-105
-107
-107
-107
-108
-109
-111
-111
-112
-113
-113
-114
-114
-114
-114
-114
-113
-112
-111
-110
-108
-107
-105
-103
-101
-100
-98
-97
-96
-94
-91
-89
-86
-84
-81
-79
-76
-73
-72
-70
-70
-70
-69
-68
-66
-65
-63
-62
-60
-58
-55
-53
-52
-52
-51
-50
-49
-46
-40
-35
-35
-38
-43
-46
-50
-54
-57
-57
-52
-45
-37
-30
-24
-17
-11
-5
-1
0
2
3
3
3
4
4
4
4
5
6
7
8
9
9
8
8
7
6
5
4
4
6
7
9
10
12
14
17
20
23
25
27
30
35
40
44
46
45
42
40
37
34
31
27
22
18
16
16
17
17
16
14
14
14
16
17
16
16
16
20
27
36
51
72
80
85
89
92
94
93
91
88
84
80
74
68
59
45
36
30
27
25
22
19
16
14
11
9
8
7
5
3
0
-3
-9
-15
-18
-16
-14
-12
-11
-10
-9
-7
-3
0
7
30
101
217
376
569
774
959
1086
1103
1063
893
656
399
175
65
30
42
57
69
47
-19
-92
-112
-117
-121
-115
-109
-104
-101
-102
-108
-116
-123
-132
-136
-132
-127
-126
-125
-125
-124
-123
-122
-120
-117
-114
-111
-110
-109
-108
-106
-103
-98
-89
-74
-72
-70
-67
-67
-72
-75
-77
-80
-83
-84
-83
-79
-74
-70
-67
-65
-63
-60
-57
-53
-50
-47
-43
-38
-33
-28
-24
-20
-15
-7
1
10
17
23
26
30
35
42
53
61
69
72
74
76
78
80
82
85
89
94
100
105
110
115
120
129
139
145
148
149
151
155
160
160
146
139
135
132
130
128
125
122
117
112
108
103
98
92
87
82
78
75
73
69
65
61
58
54
51
48
46
44
43
42
42
42
40
38
37
36
35
33
32
30
28
26
25
24
23
22
20
18
14
9
5
3
2
3
5
7
10
11
13
16
19
21
22
23
23
24
25
25
24
23
20
16
12
7
0
-6
-5
-3
-1
0
1
4
7
9
11
12
12
11
11
9
7
5
3
1
0
0
0
0
0
-2
-3
-4
-5
-6
-8
-10
-12
-12
-10
-8
-6
-4
-4
-3
-2
0
2
4
6
12
19
21
18
12
8
2
-3
-6
-5
0
7
14
20
28
37
45
49
49
47
43
38
35
32
28
23
18
13
8
5
2
-1
-4
-7
-12
-16
-21
-26
-30
-34
-36
-38
-38
-38
-38
-38
-38
-38
-39
-39
-39
-40
-40
-40
-38
-33
-26
-16
21
94
207
362
553
752
919
995
994
917
755
560
368
206
100
58
38
26
9
-11
-30
-46
-60
-71
-81
-93
-108
-113
-115
-118
-121
-123
-125
-124
-121
-117
-113
-111
-109
-105
-101
-97
-95
-95
-95
-96
-96
-97
-99
-101
-102
-103
-102
-101
-100
-99
-97
-94
-90
-85
-81
-78
-74
-69
-65
-62
-61
-62
-64
-67
-70
-74
-80
-87
-87
-80
-72
-69
-67
-65
-63
-61
-59
-56
-52
-49
-46
-43
-41
-39
-38
-37
-35
-32
-30
-27
-25
-22
-18
-13
-8
-3
1
5
10
15
21
26
30
34
39
46
54
62
66
66
63
59
55
51
48
44
40
36
33
32
32
31
30
28
27
27
29
30
31
31
31
34
37
39
36
27
14
-3
-24
-25
-28
-31
-14
-4
0
5
10
14
16
18
19
20
21
20
19
18
16
15
14
12
11
8
6
1
-7
-6
9
19
28
36
39
37
32
26
21
16
11
7
6
8
11
15
18
23
29
34
35
32
26
20
13
2
-2
4
17
24
30
36
41
44
44
43
40
36
34
32
30
27
25
23
22
21
21
20
18
17
17
19
20
21
21
22
23
24
25
26
26
25
25
27
29
32
35
38
43
48
53
59
64
68
73
78
84
88
93
97
101
105
107
106
100
90
79
69
62
57
51
46
42
38
34
31
28
25
23
21
19
17
16
14
13
12
12
10
8
6
4
3
0
-3
-9
-14
-18
-18
-15
-10
-2
9
51
134
252
408
599
800
965
1035
1029
927
730
510
324
191
109
69
41
20
-6
-24
-36
-46
-55
-62
-68
-74
-80
-90
-104
-116
-126
-133
-138
-144
-148
-151
-150
-143
-134
-126
-120
-114
-108
-102
-96
-91
-89
-88
-88
-89
-91
-93
-95
-99
-103
-106
-108
-111
-116
-122
-125
-120
-110
-99
-93
-90
-87
-84
-81
-78
-74
-71
-69
-67
-66
-65
-63
-61
-59
-57
-55
-53
-51
-48
-45
-43
-41
-39
-37
-34
-32
-29
-25
-22
-17
-13
-8
-4
0
3
6
10
13
17
21
25
30
36
42
47
51
54
57
59
62
64
65
66
66
68
71
73
75
73
67
57
48
41
37
34
30
26
22
19
17
16
15
14
13
12
13
14
15
15
14
12
10
10
9
8
7
5
3
2
1
2
1
0
0
-2
-3
-4
-4
-5
-6
-7
-7
-6
-4
-1
0
1
1
2
3
3
2
1
0
-2
-2
-2
-2
-2
-2
-3
-5
-6
-7
-8
-9
-11
-14
-17
-19
-20
-22
-22
-23
-25
-29
-32
-34
-35
-35
-34
-34
-33
-31
-30
-28
-26
-24
-24
-25
-28
-34
-39
-44
-47
-50
-53
-56
-58
-59
-60
-60
-61
-62
-63
-63
-63
-63
-63
-64
-64
-63
-63
-63
-63
-62
-61
-59
-58
-56
-54
-52
-49
-46
-42
-40
-37
-34
-28
-14
-2
3
8
13
18
23
26
22
11
0
-10
-19
-27
-34
-40
-46
-50
-54
-58
-61
-66
-73
-79
-81
-78
-73
-67
-62
-57
-52
-49
-47
-49
-52
-57
-63
-69
-77
-84
-88
-84
-75
-60
-12
70
185
329
489
653
804
903
935
906
817
639
428
244
114
51
31
18
8
0
-13
-30
-48
-72
-102
-121
-133
-140
-138
-124
-108
-98
-91
-85
-79
-73
-69
-66
-63
-60
-58
-55
-53
-52
-50
-49
-46
-42
-36
-28
-18
-8
0
11
21
29
35
39
42
46
50
54
58
60
62
63
66
70
74
77
79
83
87
95
104
113
123
133
144
155
167
177
187
197
207
219
233
247
263
278
293
306
315
323
339
367
390
403
415
425
442
469
490
501
511
519
527
543
570
595
613
630
652
684
704
715
723
727
727
723
716
705
686
651
613
580
531
474
416
366
336
304
272
241
211
182
157
136
112
86
55
27
10
-1
-9
-22
-45
-71
-89
-102
-114
-128
-144
-151
-156
-159
-163
-166
-169
-171
-173
-175
-178
-181
-185
-189
-192
-197
-202
-207
-212
-216
-219
-220
-221
-222
-223
-223
-222
-222
-221
-221
-221
-221
-222
-221
-220
-220
-220
-220
-220
-219
-219
-218
-217
-216
-216
-216
-217
-217
-217
-217
-217
-216
-216
-216
-215
-214
-213
-212
-211
-209
-206
-203
-201
-198
-194
-190
-186
-184
-182
-181
-181
-181
-180
-179
-177
-176
-176
-177
-180
-184
-188
-194
-202
-186
-174
-167
-162
-157
-152
-147
-143
-139
-134
-128
-123
-117
-111
-105
-98
-93
-88
-84
-80
-78
-76
-74
-73
-74
-75
-77
-80
-84
-88
-91
-95
-100
-106
-114
-124
-135
-150
-158
-150
-135
-126
-117
-109
-103
-102
-104
-108
-114
-122
-133
-149
-151
-155
-159
-146
-124
-104
-78
-37
31
131
261
412
579
740
867
918
911
821
651
456
279
144
93
78
63
48
1
-67
-132
-153
-161
-167
-165
-148
-139
-133
-130
-128
-126
-125
-123
-120
-117
-113
-110
-108
-105
-102
-99
-97
-94
-93
-91
-90
-89
-87
-85
-83
-80
-77
-74
-72
-71
-71
-71
-70
-70
-69
-67
-66
-64
-57
-55
-55
-55
-55
-56
-56
-53
-46
-40
-36
-33
-30
-26
-22
-18
-14
-10
-6
-3
0
3
5
7
9
11
13
15
17
20
22
25
28
31
32
34
36
39
43
48
53
58
64
72
79
85
90
94
96
98
100
102
104
106
105
104
103
102
101
99
97
94
91
88
86
85
84
81
78
74
71
68
66
65
65
65
64
63
63
64
65
65
65
63
60
57
55
54
53
51
49
46
45
44
44
44
43
42
39
38
37
37
36
36
35
34
34
35
35
35
35
34
33
32
31
31
31
30
29
29
29
29
30
30
30
29
27
25
24
24
24
23
23
22
21
21
20
20
19
19
18
18
17
18
18
18
18
18
18
17
16
15
14
13
12
12
13
14
14
14
14
13
12
11
11
10
8
8
8
11
14
18
23
27
31
35
39
43
47
49
51
53
56
58
60
61
62
63
66
70
75
78
79
75
68
59
50
42
32
21
11
4
0
-3
-5
-7
-10
-12
-15
-16
-17
-18
-20
-23
-24
-23
-22
-20
-19
-18
-17
-15
-12
-6
-2
1
23
86
180
309
475
668
856
986
1004
966
814
610
407
249
138
67
25
-2
-19
-31
-41
-48
-57
-71
-88
-100
-109
-116
-120
-121
-121
-120
-120
-120
-119
-118
-117
-116
-116
-117
-118
-119
-119
-120
-121
-123
-125
-125
-124
-120
-116
-111
-107
-101
-94
-86
-81
-81
-85
-91
-95
-99
-102
-105
-107
-110
-112
-113
-112
-111
-108
-104
-99
-92
-87
-82
-77
-72
-66
-61
-56
-52
-49
-47
-46
-44
-42
-41
-39
-38
-35
-33
-30
-26
-23
-19
-15
-10
-5
0
3
8
13
18
23
27
32
37
41
45
49
53
56
58
60
62
63
64
65
64
63
61
59
58
57
55
52
49
47
45
43
41
38
35
32
30
30
30
30
32
33
33
35
37
39
41
40
35
29
19
1
-12
-20
-23
-17
-5
3
12
19
25
29
32
34
35
38
40
41
42
42
41
42
43
44
44
43
41
39
39
39
40
39
38
36
33
32
30
28
26
24
22
22
23
25
27
29
31
35
40
34
26
19
20
32
40
46
52
55
56
54
50
46
43
41
39
37
35
32
29
27
25
24
24
23
23
24
25
26
28
30
31
31
30
30
30
31
32
33
34
36
40
40
36
32
28
30
45
57
67
74
78
81
83
85
88
91
93
94
93
93
91
88
83
77
64
35
14
0
-8
-9
-9
-8
-7
-6
-4
-3
-4
-6
-9
-12
-16
-19
-19
-14
-7
0
8
13
5
-10
-25
-40
-47
-41
-24
22
98
203
340
501
672
823
932
954
937
824
649
461
292
171
117
93
63
11
-60
-129
-159
-170
-153
-143
-138
-133
-130
-126
-123
-121
-119
-118
-118
-118
-119
-120
-121
-122
-123
-125
-126
-126
-126
-126
-126
-127
-129
-131
-133
-132
-128
-122
-116
-112
-108
-104
-100
-96
-93
-91
-91
-91
-92
-94
-95
-96
-97
-101
-99
-86
-80
-76
-72
-69
-67
-65
-64
-62
-60
-57
-55
-53
-51
-50
-48
-45
-42
-37
-33
-29
-24
-19
-14
-8
-1
3
9
14
18
22
25
28
31
34
37
40
43
46
50
53
56
59
62
64
67
70
73
75
77
79
79
77
74
70
65
60
55
51
48
44
41
38
34
31
28
25
22
20
18
16
15
13
12
11
12
13
14
14
14
13
12
10
8
6
4
3
4
4
5
6
8
10
13
16
19
21
23
25
29
34
36
33
24
15
7
-1
-9
-12
-10
-5
0
2
5
9
12
14
17
19
21
22
23
25
27
30
34
45
44
29
21
17
13
9
5
4
3
2
2
2
2
4
7
10
13
16
16
17
19
20
22
23
23
23
22
22
22
23
23
22
22
22
22
23
23
23
23
25
27
29
32
34
36
37
39
42
46
51
54
58
64
69
76
82
88
91
91
89
85
80
74
68
63
56
47
39
31
23
17
12
9
7
6
5
4
4
4
3
2
0
-1
-2
-2
-2
-3
-5
-7
-10
-12
-16
-28
-46
-56
-63
-45
8
86
189
322
493
693
893
1050
1117
1064
893
644
383
178
95
67
80
103
103
57
-15
-71
-87
-96
-103
-109
-112
-114
-118
-122
-126
-128
-130
-131
-130
-130
-130
-130
-130
-129
-128
-127
-126
-125
-124
-122
-119
-116
-114
-113
-114
-115
-117
-119
-124
-127
-121
-109
-104
-102
-99
-97
-95
-93
-91
-88
-86
-84
-81
-78
-75
-73
-72
-71
-71
-71
-70
-69
-69
-67
-65
-63
-60
-57
-53
-50
-47
-44
-40
-38
-35
-34
-31
-27
-22
-14
-5
0
3
7
13
21
28
35
39
42
45
48
49
50
52
54
55
56
57
57
57
58
59
61
61
62
61
61
59
56
52
47
43
39
36
34
31
29
26
24
22
21
20
18
16
14
13
12
12
12
12
11
11
12
12
13
12
11
9
6
3
4
9
14
18
22
25
29
32
32
29
25
20
15
11
7
3
0
-3
-5
-4
-2
1
7
14
30
47
52
55
58
59
55
46
37
27
14
7
9
13
15
16
18
20
22
24
25
27
28
30
32
34
34
35
35
37
39
40
42
43
43
43
42
40
37
34
30
26
20
15
13
16
22
28
32
37
41
45
48
50
50
49
47
44
41
36
26
27
40
54
69
76
79
82
84
86
88
89
90
90
90
88
86
82
79
74
69
58
34
21
15
10
8
6
4
3
1
0
0
0
-1
-3
-7
-9
-8
-3
3
9
15
18
18
13
7
-1
-11
5
54
143
274
438
622
806
967
1057
1061
989
801
554
311
128
68
49
58
73
69
17
-51
-102
-120
-122
-119
-118
-116
-115
-115
-116
-116
-118
-120
-123
-124
-125
-129
-133
-137
-137
-133
-127
-121
-117
-114
-112
-110
-108
-106
-103
-100
-98
-95
-94
-93
-93
-94
-95
-96
-97
-97
-96
-94
-91
-88
-86
-87
-88
-89
-90
-91
-93
-94
-92
-86
-79
-70
-59
-54
-51
-48
-46
-44
-42
-41
-40
-38
-35
-32
-29
-27
-25
-23
-20
-16
-12
-9
-6
-4
-1
3
7
12
15
16
18
21
25
28
32
34
37
39
42
44
46
46
46
46
47
49
51
52
53
53
54
54
54
52
50
46
42
37
33
28
23
19
15
13
10
8
6
5
3
0
-2
-9
-15
-15
-9
0
16
36
47
56
55
36
25
17
8
1
-2
-2
-1
0
1
2
3
3
5
7
11
16
20
25
30
35
38
38
35
29
23
14
2
-8
-20
-29
-16
7
22
27
31
30
23
17
13
10
7
6
8
13
17
22
28
37
43
38
27
17
8
0
-5
-7
-9
-18
-11
7
15
21
26
30
32
33
33
35
38
41
43
42
36
28
21
15
7
0
-6
-7
-2
4
13
21
28
35
42
49
56
62
69
76
83
87
89
90
90
91
94
93
79
68
59
50
43
37
32
27
22
16
12
10
8
6
6
5
5
5
5
5
4
2
0
-2
-3
-5
-6
-8
-11
-14
-22
-37
-39
-41
-44
-27
25
110
236
398
574
748
905
1012
1028
997
855
635
387
178
51
34
30
25
16
2
-21
-52
-66
-74
-79
-84
-88
-91
-95
-100
-107
-115
-122
-125
-122
-116
-110
-103
-93
-94
-106
-114
-121
-127
-131
-131
-127
-120
-110
-97
-79
-76
-73
-70
-81
-92
-101
-105
-101
-93
-88
-83
-78
-74
-72
-72
-73
-75
-78
-81
-86
-95
-78
-65
-56
-49
-43
-41
-43
-46
-50
-54
-58
-66
-70
-65
-55
-43
-28
