228
282
339
402
472
548
609
664
731
788
839
887
904
904
888
864
840
824
814
831
857
892
934
971
1006
1034
1053
1065
1046
1015
981
954
933
913
887
855
799
731
666
606
540
470
399
331
263
201
152
104
73
19
-36
-94
-149
-198
-228
-255
-273
-281
-288
-293
-295
-289
-274
-252
-226
-203
-179
-154
-122
-100
-87
-79
-76
-79
-87
-98
-112
-131
-147
-158
-169
-176
-176
-167
-152
-127
-89
-54
-25
14
64
96
125
146
166
183
198
208
214
220
226
231
230
222
207
182
145
107
75
26
-29
-84
-135
-182
-209
-237
-263
-286
-308
-321
-328
-332
-333
-330
-323
-314
-303
-286
-265
-253
-244
-236
-230
-227
-227
-230
-235
-242
-250
-262
-284
-301
-325
-352
-377
-404
-433
-465
-495
-516
-528
-535
-540
-544
-547
-548
-547
-542
-534
-523
-503
-468
-411
-338
-251
-152
-48
51
136
178
192
177
132
65
-14
-95
-167
-230
-249
-258
-253
-213
-162
-111
-66
-39
-11
13
34
59
78
87
93
101
108
115
122
128
136
143
150
158
170
186
203
216
226
233
239
242
246
249
252
254
254
249
242
235
229
221
214
209
208
212
219
228
238
252
267
281
306
336
356
369
383
397
407
416
423
427
428
428
428
428
428
429
429
430
430
428
423
416
408
400
390
380
371
364
355
343
326
304
295
291
288
285
283
281
280
279
279
278
276
275
274
273
272
271
270
270
269
268
267
265
263
259
255
249
235
221
209
196
184
173
161
153
146
140
136
135
137
143
150
158
165
176
187
197
206
213
218
223
227
230
232
232
230
226
220
213
203
188
163
145
131
119
104
85
71
60
51
43
36
30
25
19
10
-1
-14
-26
-31
-35
-38
-41
-44
-47
-49
-50
-49
-48
-46
-43
-40
-37
-34
-31
-27
-24
-20
-17
-14
-13
-12
-13
-17
-23
-30
-37
-44
-48
-53
-59
-65
-70
-74
-78
-80
-81
-82
-82
-80
-78
-74
-70
-64
-57
-49
-13
40
111
199
298
392
474
538
559
548
515
424
308
189
85
-6
-83
-137
-156
-158
-146
-128
-109
-102
-98
-95
-93
-93
-95
-99
-102
-107
-111
-116
-123
-127
-128
-123
-114
-102
-88
-64
-45
-25
-5
18
33
42
50
57
62
68
73
78
82
86
89
92
94
96
97
99
100
101
102
102
103
104
104
103
102
102
101
100
100
99
98
97
96
96
96
97
97
98
98
99
101
102
103
104
105
108
111
114
116
117
114
110
104
98
92
85
78
71
66
61
58
55
53
52
51
49
48
46
44
42
40
39
39
39
40
41
44
45
47
48
49
50
50
51
51
51
53
57
55
40
25
12
0
-13
-25
-36
-45
-51
-55
-57
-58
-59
-60
-61
-63
-65
-66
-68
-69
-69
-69
-68
-68
-67
-66
-65
-65
-64
-65
-66
-67
-65
-59
-53
-49
-46
-44
-42
-41
-40
-39
-39
-39
-39
-38
-38
-36
-35
-35
-34
-34
-34
-33
-32
-31
-31
-29
-23
-18
-18
-25
-34
-44
-56
-61
-62
-63
-64
-66
-67
-69
-70
-70
-71
-71
-71
-70
-68
-65
-61
-57
-53
-48
-42
-28
0
49
110
182
262
348
432
500
522
507
459
332
176
9
-150
-282
-371
-392
-399
-379
-316
-256
-215
-201
-196
-203
-216
-225
-231
-237
-242
-243
-241
-235
-228
-219
-208
-191
-179
-170
-166
-162
-159
-157
-156
-155
-154
-154
-153
-152
-152
-150
-148
-147
-146
-144
-143
-140
-137
-134
-130
-126
-122
-114
-105
-96
-88
-81
-74
-67
-61
-55
-48
-41
-33
-27
-21
-16
-11
-7
-5
-4
-3
-2
0
0
3
5
4
-3
-15
-25
-36
-46
-53
-60
-65
-68
-71
-74
-78
-83
-88
-94
-101
-107
-113
-121
-130
-136
-136
-132
-125
-116
-107
-94
-82
-71
-58
-43
-28
-22
-18
-14
-10
-8
-5
-3
-1
0
1
1
0
-1
-3
-5
-7
-11
-14
-19
-23
-27
-32
-40
-49
-57
-62
-67
-71
-74
-78
-82
-84
-86
-86
-84
-79
-73
-66
-58
-49
-37
-25
-17
-11
-7
-4
-1
0
3
6
8
9
11
12
14
15
15
15
14
13
11
10
10
9
8
7
6
6
6
6
6
5
5
4
2
1
0
-3
-5
-7
-9
-11
-11
-12
-13
-13
-14
-15
-16
-18
-20
-22
-25
-29
-32
-35
-38
-40
-42
-44
-47
-51
-59
-75
-85
-93
-100
-103
-98
-85
-46
11
85
169
258
346
424
474
491
466
389
242
65
-118
-261
-311
-312
-266
-208
-165
-155
-148
-143
-139
-135
-132
-129
-127
-126
-125
-123
-120
-116
-113
-110
-110
-113
-117
-120
-124
-127
-130
-132
-129
-121
-112
-103
-92
-82
-71
-61
-51
-41
-31
-19
-7
0
5
10
15
19
24
29
33
37
41
45
48
50
51
52
53
53
55
57
59
61
62
63
65
66
67
67
67
67
67
67
68
68
69
69
70
71
73
74
76
77
81
84
85
83
78
70
58
38
19
2
-5
-9
-13
-16
-19
-20
-19
-17
-14
-11
-9
-7
-4
-1
1
3
6
7
9
10
12
13
14
14
15
16
18
20
21
22
23
22
21
19
17
13
9
5
0
-3
-11
-18
-21
-22
-23
-24
-24
-24
-23
-23
-23
-22
-21
-21
-20
-19
-19
-19
-19
-19
-20
-21
-22
-23
-25
-27
-29
-31
-34
-39
-46
-52
-59
-64
-69
-73
-77
-81
-84
-87
-90
-93
-98
-106
-106
-97
-94
-92
-91
-89
-89
-88
-87
-86
-85
-85
-85
-85
-85
-85
-85
-85
-85
-86
-87
-87
-88
-89
-89
-88
-87
-87
-86
-85
-84
-83
-81
-79
-75
-71
-67
-40
18
97
191
295
405
510
593
617
607
528
395
222
35
-123
-228
-266
-266
-224
-152
-82
-37
-21
-19
-27
-30
-32
-34
-36
-37
-38
-39
-39
-40
-41
-41
-41
-40
-39
-37
-36
-35
-35
-35
-35
-36
-37
-38
-38
-39
-38
-38
-38
-38
-37
-37
-35
-32
-30
-26
-22
-16
-6
3
14
23
32
40
48
56
63
70
76
81
86
90
94
98
101
104
105
103
98
93
87
82
78
73
69
64
61
58
56
53
50
44
33
23
16
13
9
7
4
2
0
-1
-4
-8
-13
-17
-19
-20
-23
-26
-26
-22
-19
-16
-14
-14
-16
-22
-29
-41
-56
-65
-73
-81
-91
-102
-106
-109
-111
-113
-113
-112
-110
-108
-106
-105
-103
-102
-100
-97
-95
-93
-90
-86
-77
-61
-53
-48
-45
-45
-47
-49
-52
-54
-56
-56
-53
-50
-47
-44
-41
-41
-45
-50
-57
-65
-70
-74
-78
-77
-64
-46
-26
-13
-3
6
13
19
23
25
23
17
11
5
0
-4
-9
-14
-19
-22
-25
-28
-30
-32
-34
-35
-36
-38
-39
-41
-43
-44
-45
-46
-47
-49
-52
-59
-66
-73
-77
-81
-84
-87
-90
-93
-96
-101
-111
-128
-140
-148
-148
-141
-123
-79
-15
65
158
255
344
408
432
428
382
284
141
-22
-178
-300
-353
-356
-321
-266
-230
-229
-261
-323
-386
-421
-432
-416
-365
-290
-218
-162
-126
-101
-84
-73
-67
-62
-56
-49
-43
-38
-33
-29
-25
-20
-16
-12
-5
7
29
60
90
128
171
212
246
280
313
325
329
326
318
310
301
293
286
280
278
281
289
298
309
322
331
337
341
345
346
345
343
340
335
330
321
309
301
294
288
286
285
284
283
282
281
281
280
280
280
279
277
275
273
271
268
265
259
253
245
236
227
216
207
200
196
193
191
189
186
184
181
178
174
168
157
136
114
90
72
61
55
53
52
50
48
47
48
51
54
58
48
35
23
10
-6
-26
-46
-65
-78
-87
-96
-105
-111
-116
-119
-123
-126
-129
-131
-134
-136
-138
-140
-143
-146
-149
-150
-150
-148
-146
-143
-140
-137
-133
-129
-126
-125
-128
-134
-139
-142
-146
-150
-154
-158
-161
-163
-165
-166
-167
-168
-169
-171
-172
-174
-176
-179
-182
-184
-187
-189
-192
-195
-199
-207
-213
-218
-222
-227
-231
-232
-230
-227
-225
-223
-220
-219
-219
-220
-222
-225
-230
-235
-227
-204
-162
-100
-22
70
172
270
353
403
407
376
267
105
-84
-268
-418
-491
-499
-464
-400
-344
-318
-308
-307
-311
-315
-319
-318
-305
-294
-286
-278
-271
-265
-256
-244
-233
-224
-218
-212
-206
-201
-197
-194
-192
-190
-188
-186
-184
-182
-180
-178
-175
-171
-163
-143
-130
-122
-115
-107
-99
-93
-87
-82
-77
-72
-67
-61
-52
-39
-33
-28
-24
-20
-13
-5
0
4
8
12
16
20
24
28
33
40
49
59
69
78
87
92
94
96
96
97
97
97
97
98
97
97
96
96
94
92
90
88
86
84
82
80
77
73
70
69
71
77
83
89
94
98
103
108
113
116
118
120
121
122
122
123
124
125
127
129
129
126
120
111
100
85
70
49
25
6
-6
-13
-15
-17
-18
-20
-21
-23
-23
-23
-24
-23
-22
-19
-16
-11
-7
-2
1
5
9
14
18
20
21
20
17
12
7
1
-7
-23
-39
-55
-70
-89
-99
-106
-112
-118
-122
-125
-127
-128
-129
-130
-131
-133
-134
-135
-138
-140
-134
-123
-111
-96
-83
-66
-41
-9
10
16
20
23
25
25
23
18
11
2
-6
-17
-28
-37
-45
-53
-60
-68
-76
-85
-93
-102
-110
-116
-122
-128
-136
-140
-136
-127
-101
-54
7
93
199
316
431
519
545
534
446
295
113
-65
-208
-281
-305
-293
-257
-223
-217
-212
-209
-206
-204
-202
-199
-197
-194
-192
-189
-187
-184
-178
-158
-139
-125
-109
-100
-96
-92
-89
-87
-84
-81
-78
-75
-73
-71
-68
-64
-60
-52
-41
-27
-20
-14
-9
-5
-1
1
5
9
12
16
20
23
26
28
31
35
37
40
42
44
45
45
45
45
44
43
42
40
39
38
36
35
33
30
28
29
36
47
56
62
67
73
79
84
88
92
94
95
95
95
94
91
87
83
78
72
66
60
49
38
29
22
16
11
6
1
-1
-2
0
7
17
26
36
50
61
63
63
63
63
63
63
62
59
52
45
41
38
35
33
31
29
27
25
23
22
22
21
20
18
17
16
16
17
18
20
21
22
24
26
29
30
31
31
31
31
31
32
32
32
33
34
36
38
39
37
33
28
23
19
16
12
7
3
0
-2
-3
-3
-1
0
2
5
9
14
18
22
24
26
30
34
38
41
41
38
34
30
27
25
23
20
16
13
11
9
7
6
6
7
10
13
18
23
29
36
47
70
89
113
143
193
259
346
448
548
604
623
591
496
344
181
40
-56
-110
-129
-138
-144
-125
-92
-50
-20
-1
9
9
4
-3
-8
-13
-18
-21
-22
-20
-14
-7
1
19
50
74
93
116
128
137
144
149
154
158
160
161
161
162
163
164
165
165
166
167
168
168
168
164
157
149
140
130
115
101
91
82
72
60
49
37
26
14
1
-12
-24
-34
-45
-55
-66
-80
-98
-114
-125
-134
-142
-150
-157
-162
-166
-170
-174
-176
-177
-176
-174
-171
-167
-162
-156
-148
-134
-124
-115
-110
-106
-102
-98
-97
-97
-100
-104
-109
-114
-120
-127
-135
-143
-151
-158
-164
-170
-177
-183
-188
-194
-199
-204
-209
-215
-222
-227
-228
-226
-222
-216
-210
-203
-193
-184
-176
-168
-158
-148
-136
-125
-111
-95
-78
-71
-67
-64
-61
-59
-58
-56
-55
-54
-53
-52
-50
-49
-48
-48
-47
-47
-46
-45
-45
-44
-43
-42
-40
-38
-37
-35
-33
-31
-28
-25
-23
-19
-16
-12
-6
0
7
13
20
28
38
49
60
70
78
84
88
91
93
96
99
101
101
98
92
85
79
71
64
57
51
45
40
36
33
30
28
27
26
26
26
27
29
32
36
41
61
96
143
200
269
348
438
527
607
645
644
595
480
328
167
36
-25
-47
-55
-51
-43
-36
-29
-19
-6
0
5
8
12
16
20
23
26
29
32
35
37
39
42
47
58
65
69
71
73
75
78
79
80
80
80
79
78
76
75
73
71
69
67
66
65
64
63
62
61
60
58
57
56
56
57
58
60
63
66
69
72
74
76
78
81
84
87
89
91
93
94
95
95
95
95
94
92
90
88
86
83
80
76
72
66
55
44
36
28
17
3
-13
-28
-40
-49
-55
-60
-62
-65
-67
-69
-71
-72
-72
-70
-66
-60
-54
-48
-42
-35
-28
-20
-14
-8
-3
1
5
10
14
17
19
21
22
22
20
18
14
9
5
0
-3
-10
-17
-21
-23
-24
-25
-26
-27
-28
-28
-29
-29
-30
-31
-33
-36
-40
-44
-48
-52
-58
-66
-75
-84
-91
-96
-102
-111
-122
-134
-145
-151
-155
-159
-162
-165
-166
-166
-165
-163
-159
-156
-151
-147
-141
-131
-121
-112
-104
-97
-92
-87
-82
-77
-71
-65
-59
-54
-49
-43
-36
-31
-30
-32
-37
-43
-49
-53
-59
-66
-71
-75
-74
-70
-65
-60
-56
-52
-48
-44
-38
-33
-28
-23
-17
-7
30
86
159
242
330
410
474
501
510
492
434
342
225
93
-30
-136
-199
-220
-208
-188
-159
-141
-135
-130
-126
-123
-121
-118
-115
-111
-108
-106
-104
-101
-98
-95
-88
-73
-56
-40
-27
-15
-4
2
7
12
16
20
22
25
27
29
32
34
36
37
39
41
44
45
44
40
33
26
19
14
9
3
-1
-6
-9
-10
-10
-9
-7
-5
-2
0
4
7
9
13
17
21
25
28
30
32
35
37
39
41
42
44
48
52
56
57
56
51
46
41
36
29
22
17
13
10
7
6
4
2
1
0
0
0
0
1
3
5
9
13
17
22
27
37
43
45
45
46
46
47
47
48
48
48
48
48
48
47
47
46
46
46
46
46
47
47
48
48
47
46
44
43
43
42
42
42
42
42
43
43
43
42
41
39
37
35
33
31
28
25
22
18
9
-13
-28
-35
-41
-46
-49
-50
-50
-48
-46
-42
-39
-37
-35
-32
-29
-27
-25
-22
-19
-16
-12
-9
-5
0
10
32
52
75
96
109
112
113
114
115
116
113
106
98
89
78
71
65
58
49
35
27
22
17
14
12
11
10
10
10
12
15
17
22
28
53
133
258
401
537
650
724
736
720
647
536
402
270
155
91
70
79
94
108
115
120
118
104
91
79
71
66
59
51
45
42
38
36
34
34
37
43
51
65
88
103
111
118
125
132
139
148
154
157
159
161
163
162
157
150
143
134
126
117
113
110
108
106
103
102
100
98
97
96
94
93
93
92
93
93
93
92
90
88
87
86
86
87
89
91
95
99
106
110
107
100
92
82
73
60
43
21
4
-2
-6
-8
-9
-11
-13
-16
-19
-22
-25
-28
-33
-42
-49
-55
-58
-61
-63
-65
-67
-69
-72
-74
-75
-77
-78
-80
-81
-83
-84
-86
-87
-89
-91
-93
-94
-96
-97
-98
-100
-101
-103
-105
-106
-109
-111
-115
-118
-121
-125
-130
-138
-145
-151
-154
-157
-160
-162
-166
-170
-175
-179
-184
-190
-195
-199
-201
-203
-205
-207
-209
-211
-212
-211
-209
-206
-203
-200
-196
-192
-187
-182
-178
-173
-169
-165
-163
-161
-160
-158
-156
-153
-151
-151
-154
-159
-161
-164
-166
-168
-169
-170
-170
-170
-168
-166
-163
-158
-152
-158
-169
-179
-186
-190
-189
-181
-174
-168
-163
-158
-152
-144
-134
-132
-130
-128
-127
-126
-127
-129
-132
-134
-138
-138
-127
-97
-39
44
150
269
381
467
500
494
429
298
132
-36
-184
-282
-314
-312
-274
-228
-195
-176
-158
-141
-116
-86
-76
-74
-72
-71
-67
-59
-47
-31
-23
-17
-14
-14
-19
-25
-29
-33
-36
-38
-40
-40
-38
-36
-34
-31
-28
-23
-18
-13
-9
-5
-1
3
8
15
26
45
66
84
102
119
135
150
162
170
175
178
180
181
182
182
179
176
173
171
169
167
165
164
162
160
158
157
156
156
156
157
158
160
162
164
166
169
171
174
177
183
190
196
203
212
222
233
239
244
247
250
251
251
249
246
242
236
230
219
209
196
179
163
147
139
136
132
129
126
122
118
114
110
106
99
93
89
85
83
80
79
77
74
71
68
64
60
56
51
45
40
35
31
27
24
21
18
14
10
5
1
-3
-9
-16
-24
-29
-34
-41
-50
-57
-63
-69
-68
-58
-51
-45
-41
-38
-36
-37
-39
-42
-45
-48
-53
-57
-57
-52
-47
-42
-37
-33
-31
-33
-37
-43
-50
-61
-68
-73
-78
-80
-79
-75
-72
-69
-67
-72
-80
-88
-95
-101
-104
-107
-112
-118
-117
-105
-96
-90
-84
-80
-78
-79
-80
-82
-85
-88
-93
-87
-67
-22
42
122
215
314
412
490
512
500
415
269
86
-92
-238
-339
-364
-360
-316
-260
-214
-184
-167
-151
-133
-120
-111
-106
-105
-107
-111
-114
-118
-120
-118
-113
-110
-109
-109
-108
-108
-107
-107
-106
-105
-103
-103
-102
-101
-100
-100
-99
-98
-97
-95
-92
-85
-66
-56
-52
-49
-46
-44
-42
-40
-37
-35
-34
-32
-30
-27
-20
-4
4
8
11
13
14
15
16
16
16
16
15
14
13
11
9
9
11
16
18
20
21
21
22
22
23
24
23
22
21
19
18
17
15
13
9
6
5
5
6
8
10
13
17
21
21
19
17
15
13
16
25
36
47
51
53
54
55
57
58
60
61
61
62
63
65
67
69
71
73
76
80
84
90
94
98
102
107
114
117
112
101
94
86
79
74
71
69
67
66
63
61
59
58
57
56
55
53
51
50
49
49
48
46
44
42
41
40
40
40
40
41
43
45
47
49
51
53
54
55
56
58
60
62
64
65
66
67
66
65
63
61
58
55
52
49
42
24
14
10
6
4
3
2
0
0
-2
-3
-5
-7
-10
-16
-20
-15
-7
0
5
10
11
8
0
-7
-16
-28
-28
-14
22
83
156
241
334
427
509
563
582
562
504
381
226
66
-70
-164
-195
-205
-193
-156
-116
-93
-82
-77
-74
-71
-68
-66
-62
-59
-57
-55
-52
-51
-49
-47
-44
-39
-38
-41
-47
-56
-65
-77
-82
-85
-87
-90
-92
-94
-93
-90
-85
-79
-76
-72
-69
-65
-62
-59
-55
-52
-49
-46
-43
-39
-34
-27
-19
-13
-7
-2
3
10
19
29
36
43
48
51
52
50
46
41
36
30
25
19
14
9
4
0
-2
-3
-5
-6
-8
-9
-11
-12
-13
-14
-14
-14
-14
-14
-13
-12
-10
-9
-8
-7
-6
-6
-5
-4
-3
-3
-3
-2
-2
0
0
1
0
0
-4
-9
-14
-18
-23
-28
-33
-37
-40
-40
-37
-33
-27
-21
-10
4
5
6
6
7
8
8
5
0
-4
-7
-9
-11
-14
-18
-22
-25
-28
-31
-33
-35
-38
-40
-41
-42
-45
-48
-52
-55
-56
-55
-53
-50
-47
-44
-42
-40
-36
-32
-28
-23
-19
-15
-8
3
4
-4
-10
-14
-18
-21
-22
-19
-14
-9
-5
-2
1
5
9
12
13
12
9
5
1
-2
-5
-10
-16
-20
-22
-23
-24
-25
-26
-28
-30
-30
-28
-26
-24
-22
-20
-18
-18
-18
-19
-21
-24
-28
-33
-36
-32
-23
3
44
108
196
307
433
553
648
675
665
581
434
251
64
-90
-178
-202
-201
-168
-123
-91
-82
-75
-69
-63
-53
-33
-20
-12
-7
-5
-8
-13
-22
-35
-59
-76
-87
-93
-97
-100
-103
-107
-109
-105
-97
-91
-87
-84
-80
-75
-70
-64
-57
-48
-35
-26
-21
-11
6
21
30
38
46
52
57
60
63
65
68
70
72
74
74
76
77
79
81
83
86
88
90
93
98
102
107
113
120
131
141
146
151
157
163
170
176
185
194
204
210
215
218
221
221
219
214
207
195
175
166
161
158
154
151
147
143
139
135
130
121
114
107
103
101
99
97
95
93
91
90
88
87
86
85
85
83
82
81
79
77
74
71
68
64
60
56
51
43
29
19
6
-10
-26
-44
-63
-82
-94
-101
-106
-110
-113
-115
-116
-118
-119
-121
-122
-122
-122
-121
-120
-119
-117
-115
-113
-110
-108
-105
-102
-98
-95
-90
-84
-73
-62
-55
-48
-45
-45
-50
-57
-63
-69
-75
-78
-81
-82
-84
-85
-87
-90
-93
-97
-101
-104
-107
-110
-113
-115
-117
-117
-116
-114
-112
-109
-106
-102
-96
-90
-85
-80
-76
-73
-70
-67
-64
-60
-56
-51
-44
-29
-4
33
86
153
234
323
407
467
489
487
453
376
263
124
-24
-163
-265
-300
-311
-298
-259
-227
-211
-197
-181
-170
-163
-158
-151
-145
-139
-135
-131
-125
-118
-111
-106
-103
-99
-96
-93
-90
-87
-85
-84
-82
-80
-78
-76
-73
-71
-69
-66
-62
-58
-55
-52
-48
-42
-33
-17
-7
0
7
14
21
28
36
45
55
60
63
66
69
72
74
76
77
77
77
77
76
75
72
69
66
63
60
57
52
47
43
39
37
35
33
32
30
29
28
27
27
26
24
22
20
18
16
13
10
6
2
-3
-12
-32
-47
-56
-63
-69
-73
-73
-70
-65
-60
-57
-53
-50
-48
-45
-41
-38
-33
-30
-26
-22
-18
-15
-9
0
7
10
13
15
18
20
22
23
21
16
10
4
0
-2
-6
-10
-13
-16
-19
-22
-25
-27
-29
-30
-31
-32
-32
-33
-34
-35
-36
-38
-40
-42
-43
-44
-42
-39
-36
-33
-29
-26
-23
-20
-15
-11
-7
-5
-3
-2
-1
0
0
0
0
0
-1
-1
-1
0
0
1
3
4
5
5
6
6
6
6
5
6
6
7
9
9
5
0
-4
-7
-10
-13
-17
-21
-25
-29
-31
-33
-35
-37
-40
-43
-48
-52
-53
-50
-45
-38
-15
29
90
164
250
343
427
478
495
472
404
282
137
-20
-162
-244
-271
-260
-226
-174
-124
-106
-99
-95
-92
-92
-94
-96
-98
-101
-103
-102
-99
-96
-93
-95
-107
-114
-120
-126
-129
-128
-124
-118
-111
-107
-103
-99
-95
-90
-86
-83
-81
-78
-75
-72
-66
-58
-50
-41
-34
-27
-20
-12
-4
3
11
19
26
32
36
39
41
42
44
46
48
50
51
52
52
53
53
53
52
51
50
50
49
49
49
48
48
48
48
48
48
47
46
45
45
44
44
45
46
47
48
49
51
52
47
37
28
18
13
12
12
12
11
11
11
12
12
13
13
15
16
18
21
23
25
26
27
28
29
30
31
33
34
34
35
35
34
33
31
29
26
23
19
14
9
-1
-22
-38
-57
-72
-82
-86
-88
-90
-91
-93
-95
-95
-96
-96
-96
-95
-94
-93
-90
-85
-81
-77
-72
-65
-59
-55
-51
-44
-37
-31
-28
-25
-23
-21
-21
-23
-28
-35
-40
-45
-49
-54
-59
-62
-63
-62
-58
-53
-48
-44
-41
-38
-36
-34
-32
-31
-29
-27
-25
-22
-20
-19
-17
-16
-14
-13
-11
-8
-6
3
23
42
60
69
75
79
79
76
70
65
58
54
59
72
108
153
208
279
366
465
566
650
699
716
695
632
499
318
120
-60
-183
-217
-213
-161
-97
-44
-19
-5
3
12
22
37
61
84
99
103
106
109
110
106
95
82
68
57
51
47
44
41
38
34
29
24
19
13
7
0
-7
-12
-12
-9
-5
0
5
14
22
31
38
44
50
57
64
71
81
92
100
108
112
115
117
120
121
122
122
122
120
118
114
111
107
104
100
98
97
95
93
91
89
87
86
85
84
84
83
81
81
80
81
81
81
81
80
79
78
77
76
74
71
68
64
61
59
58
57
57
56
55
55
56
56
55
55
54
53
53
54
56
59
62
65
68
71
74
77
79
81
83
85
87
90
94
97
96
90
81
71
56
43
36
32
29
27
25
23
21
18
15
11
9
6
4
2
0
-1
-3
-4
-5
-6
-8
-10
-12
-13
-14
-15
-17
-19
-21
-23
-24
-25
-26
-27
-29
-31
-34
-35
-37
-39
-41
-43
-46
-48
-50
-51
-53
-54
-56
-58
-59
-59
-60
-60
-61
-63
-64
-66
-67
-68
-69
-70
-74
-82
-85
-86
-87
-88
-90
-92
-93
-92
-89
-86
-83
-81
-79
-76
-73
-70
-66
-62
-57
-46
-24
18
73
146
234
323
403
457
464
446
369
251
111
-26
-136
-209
-233
-232
-206
-166
-130
-118
-110
-103
-99
-95
-93
-90
-88
-86
-85
-84
-84
-83
-83
-82
-80
-78
-76
-75
-76
-79
-82
-84
-86
-89
-90
-91
-90
-87
-83
-78
-74
-68
-62
-55
-47
-39
-32
-26
-19
-14
-9
-5
-1
1
4
6
8
10
10
10
9
7
5
2
0
-2
-5
-7
-9
-11
-14
-17
-20
-23
-25
-26
-27
-26
-24
-22
-19
-15
-12
-8
-5
-2
0
2
5
8
11
13
15
17
17
17
17
16
15
13
11
9
7
5
2
1
0
-2
-4
-5
-6
-8
-9
-9
-10
-11
-13
-14
-14
-15
-13
-11
-7
-3
0
2
4
6
8
9
11
12
14
15
16
18
19
20
21
21
21
21
21
21
21
23
24
27
30
32
30
23
15
8
0
-8
-16
-23
-28
-32
-36
-40
-42
-44
-45
-46
-46
-45
-43
-41
-38
-33
-29
-23
-15
2
16
29
43
53
59
63
66
69
72
73
75
76
77
78
79
80
82
84
85
85
82
76
70
65
59
53
48
42
37
33
29
25
21
18
16
15
13
12
9
10
15
18
19
21
23
25
27
30
34
39
61
110
184
280
388
494
588
650
659
642
555
429
290
159
41
-62
-136
-160
-158
-122
-75
-25
0
10
10
1
-2
-5
-8
-9
-10
-11
-11
-10
-9
-6
-3
-1
0
3
6
9
11
13
12
10
7
4
1
-2
-10
-10
2
11
18
24
31
37
43
50
59
64
59
49
43
39
35
31
29
29
30
32
35
38
42
45
48
50
52
54
56
58
60
63
65
65
66
66
66
65
63
61
60
58
55
53
51
46
40
33
29
27
25
24
22
20
17
15
13
11
8
6
4
2
0
-2
-5
-8
-10
-10
-10
-8
-6
-3
0
5
16
27
33
38
42
44
46
46
44
41
36
31
27
21
15
11
8
6
4
3
1
0
0
0
0
0
0
1
3
6
9
12
16
19
24
29
33
34
34
33
31
27
21
8
-1
-8
-15
-21
-32
-46
-55
-61
-66
-69
-71
-74
-76
-77
-75
-72
-67
-62
-56
-51
-47
-45
-43
-42
-40
-39
-39
-38
-37
-36
-35
-35
-36
-36
-37
-37
-38
-40
-41
-43
-45
-47
-52
-65
-77
-93
-107
-116
-119
-116
-109
-101
-91
-84
-75
-61
-46
-37
-35
-33
-32
-38
-45
-50
-52
-48
-37
-6
52
132
227
332
434
523
590
612
604
538
419
265
89
-79
-210
-270
-275
-239
-169
-107
-60
-31
-22
-17
-13
-10
-6
-2
2
7
11
15
18
21
24
27
30
32
33
35
36
38
39
39
39
39
38
37
36
34
31
28
24
16
10
7
4
2
0
0
0
0
2
4
6
8
10
12
11
8
4
0
-4
-11
-19
-32
-49
-65
-80
-90
-96
-104
-111
-116
-119
-122
-125
-127
-128
-128
-128
-127
-126
-124
-121
-117
-110
-94
-82
-75
-67
-61
-52
-37
-25
-19
-15
-13
-11
-10
-10
-10
-10
-9
-9
-8
-8
-7
-6
-5
-3
-2
-1
-1
0
0
0
1
2
3
4
6
7
9
10
11
12
13
14
14
14
13
12
12
11
10
9
7
6
4
2
0
-7
-26
-40
-50
-60
-70
-79
-90
-97
-103
-107
-110
-113
-117
-122
-130
-136
-140
-144
-145
-142
-137
-135
-133
-131
-129
-128
-126
-125
-124
-124
-124
-125
-126
-128
-130
-133
-136
-139
-143
-148
-160
-162
-154
-145
-135
-125
-113
-97
-81
-64
-50
-42
-34
-28
-19
-11
-8
-6
-5
-4
-4
-3
-4
-7
-9
-12
-15
-18
-21
-23
-25
-24
-23
-20
-16
-11
-2
6
12
17
22
28
34
46
65
103
156
227
313
404
488
551
581
580
550
482
387
275
158
42
-51
-99
-115
-103
-68
-25
-13
-10
-8
-6
-3
3
13
28
43
59
67
71
73
75
77
80
83
85
87
89
91
94
98
100
101
102
103
106
109
105
101
99
97
96
96
98
101
105
112
125
136
144
156
161
164
166
167
169
170
171
172
173
173
174
174
175
175
175
175
175
175
175
175
175
176
176
174
168
162
157
152
148
144
141
137
134
131
128
123
116
109
102
94
84
70
61
54
48
41
35
30
27
24
21
19
17
16
17
21
25
29
33
36
39
42
46
49
52
53
52
51
50
48
45
42
38
33
24
18
15
13
11
9
8
7
7
7
7
6
6
6
7
9
10
10
6
2
0
-2
-4
-6
-9
-13
-16
-19
-22
-25
-29
-33
-36
-39
-43
-46
-50
-55
-58
-61
-63
-65
-66
-68
-69
-70
-71
-73
-75
-74
-69
-61
-52
-39
-26
-17
-10
-3
2
7
12
16
19
24
29
34
43
54
59
61
62
64
65
65
65
64
61
57
54
51
48
44
41
38
36
35
33
32
32
31
30
29
27
25
22
21
23
28
36
48
67
83
104
144
208
298
405
516
604
635
628
555
410
231
62
-58
-112
-130
-119
-83
-57
-50
-46
-47
-52
-59
-67
-77
-89
-104
-123
-134
-139
-144
-148
-150
-150
-149
-148
-145
-143
-140
-137
-133
-128
-121
-114
-106
-96
-85
-76
-68
-59
-48
-39
-35
-31
-28
-26
-24
-22
-22
-22
-23
-23
-24
-26
-28
-31
-34
-36
-38
-41
-45
-49
-53
-53
-50
-46
-42
-39
-37
-35
-33
-30
-26
-22
-18
-13
-8
-3
2
10
17
24
30
36
41
46
51
55
57
56
52
47
41
31
17
8
3
0
-3
-6
-8
-10
-11
-13
-15
-16
-19
-21
-23
-27
-35
-35
-22
-15
-10
-6
-3
0
1
3
6
8
10
11
12
13
15
17
20
22
24
24
23
20
17
13
8
2
-9
-19
-28
-33
-38
-42
-45
-49
-54
-58
-63
-68
-76
-89
-96
-99
-101
-102
-104
-106
-108
-109
-109
-110
-109
-109
-109
-109
-108
-106
-105
-104
-104
-103
-101
-99
-96
-92
-88
-84
-79
-73
-67
-61
-55
-49
-44
-40
-37
-34
-31
-28
-26
-23
-21
-20
-19
-18
-17
-17
-17
-18
-20
-21
-23
-25
-26
-26
-27
-29
-31
-32
-34
-36
-38
-40
-43
-46
-48
-50
-51
-51
-51
-49
-47
-43
-38
-32
-20
3
43
101
179
278
388
496
583
614
605
528
384
207
25
-128
-215
-244
-233
-199
-142
-109
-102
-96
-91
-88
-86
-85
-84
-84
-84
-85
-85
-87
-89
-91
-93
-94
-95
-95
-96
-97
-98
-98
-99
-99
-100
-99
-97
-94
-90
-86
-80
-73
-62
-51
-41
-31
-18
-5
7
20
34
39
43
45
48
50
52
54
56
58
60
62
63
64
64
64
63
63
63
64
66
67
69
71
73
75
76
78
79
80
81
81
82
83
84
87
89
92
95
97
99
101
102
102
100
97
94
91
87
83
78
71
62
54
47
43
39
35
31
28
26
25
26
28
30
33
36
41
46
52
61
67
68
69
69
70
71
71
71
71
71
71
70
68
64
60
56
52
47
41
33
26
18
12
6
1
-4
-9
-13
-16
-19
-20
-22
-24
-26
-28
-29
-29
-29
-29
-28
-28
-28
-27
-26
-25
-24
-23
-23
-22
-20
-19
-18
-16
-14
-13
-10
-6
-2
1
5
8
10
14
18
22
27
32
37
43
50
58
65
71
78
88
102
113
122
130
140
151
159
167
173
176
173
168
161
156
150
145
138
132
124
115
103
95
89
80
63
42
22
9
0
-2
0
8
30
73
134
213
303
402
507
607
677
686
658
547
374
165
-37
-189
-257
-279
-265
-220
-167
-129
-115
-104
-88
-73
-67
-62
-58
-58
-62
-68
-70
-72
-74
-76
-78
-80
-82
-84
-86
-87
-87
-87
-87
-85
-83
-81
-79
-77
-75
-72
-68
-65
-60
-55
-44
-33
-23
-13
-6
0
4
9
13
16
18
20
21
22
22
23
24
24
24
24
24
25
26
27
29
30
31
33
35
37
39
42
44
47
52
64
70
73
75
77
79
80
82
82
82
82
82
82
81
79
76
72
68
64
55
36
17
-2
-18
-28
-34
-38
-42
-46
-48
-44
-37
-31
-27
-22
-18
-12
-7
-1
4
10
17
21
24
26
28
30
32
34
35
36
37
38
39
39
40
41
41
43
43
38
29
18
5
-6
-19
-31
-36
-38
-40
-42
-43
-44
-46
-47
-48
-49
-50
-51
-51
-51
-50
-49
-48
-47
-47
-45
-44
-42
-40
-38
-35
-31
-22
-12
-3
4
10
16
19
19
17
12
6
-1
-14
-26
-38
-49
-52
-53
-55
-57
-57
-55
-48
-41
-36
-31
-27
-23
-21
-21
-22
-24
-28
-32
-37
-47
-56
-61
-65
-69
-72
-74
-74
-73
-71
-67
-64
-61
-55
-51
-50
-51
-54
-59
-64
-56
-32
7
69
161
276
402
517
600
631
594
488
327
132
-57
-208
-302
-319
-311
-251
-184
-127
-106
-102
-99
-98
-96
-95
-93
-91
-89
-87
-85
-83
-81
-79
-77
-75
-73
-70
-67
-64
-61
-58
-55
-53
-51
-49
-46
-44
-43
-41
-38
-36
-32
-29
-26
-23
-21
-19
-15
-11
-4
7
18
26
33
39
44
49
53
56
58
60
60
58
55
50
44
35
21
7
1
0
-2
-4
-5
-7
-8
-9
-10
-11
-12
-13
-14
-14
-14
-13
-13
-12
-12
-13
-13
-14
-14
-14
-14
-14
-13
-13
-12
-12
-12
-11
-10
-9
-9
-8
-7
-5
-3
-1
0
0
-2
-4
-7
-12
-20
-19
-5
5
15
22
24
25
26
26
27
28
29
29
28
26
24
22
19
18
16
13
11
9
6
3
0
-2
-5
-9
-12
-16
-24
-40
-51
-57
-60
-63
-65
-67
-69
-70
-70
-69
-66
-63
-60
-58
-56
-55
-53
-52
-51
-50
-49
-48
-47
-45
-43
-42
-41
-40
-40
-39
-39
-39
-39
-38
-35
-31
-29
-32
-38
-43
-45
-47
-49
-51
-54
-56
-58
-60
-62
-64
-66
-67
-68
-69
-69
-69
-70
-70
-70
-71
-73
-75
-77
-80
-81
-83
-84
-85
-86
-86
-87
-87
-88
-91
-96
-86
-56
-2
77
182
301
413
505
558
562
530
415
255
70
-109
-254
-341
-366
-365
-332
-286
-248
-212
-186
-171
-165
-161
-158
-155
-152
-150
-147
-144
-141
-138
-136
-134
-131
-128
-123
-118
-117
-116
-117
-117
-117
-117
-116
-116
-115
-115
-115
-114
-113
-111
-109
-107
-103
-99
-92
-76
-62
-44
-21
0
25
41
51
58
63
66
69
73
77
81
90
99
105
109
113
117
119
121
122
122
121
120
118
117
114
112
109
106
101
96
92
91
91
93
94
95
97
98
99
100
100
99
97
96
95
94
93
91
90
89
89
88
89
90
91
93
95
98
101
104
107
110
112
114
116
117
118
118
119
120
121
122
121
117
109
101
90
84
82
81
79
79
78
77
76
76
75
73
72
71
70
69
67
66
63
60
55
49
44
38
33
30
28
26
24
23
22
20
18
17
15
14
13
12
11
10
9
8
6
2
0
3
11
17
24
29
31
33
34
34
35
36
38
39
39
40
41
41
42
42
41
41
40
39
38
36
35
34
31
28
24
15
-1
-16
-30
-42
-50
-61
-66
-69
-73
-76
-78
-79
-80
-81
-81
-81
-80
-80
-78
-76
-73
-69
-64
-44
1
66
146
239
339
434
519
574
580
556
460
324
164
5
-134
-234
-281
-286
-261
-201
-146
-120
-111
-108
-111
-115
-117
-119
-120
-121
-121
-121
-119
-116
-112
-107
-96
-76
-64
-58
-53
-49
-48
-48
-50
-54
-57
-61
-67
-71
-69
-65
-62
-61
-60
-58
-57
-55
-53
-50
-47
-44
-39
-32
-26
-21
-14
-5
5
15
22
28
34
40
46
52
58
62
65
69
73
76
82
88
92
96
99
102
104
104
103
101
98
94
88
79
77
75
73
73
74
76
79
68
58
52
47
43
41
39
36
33
30
31
35
41
45
48
52
54
55
54
51
48
45
43
41
40
39
38
37
36
35
34
33
31
29
28
27
27
26
26
25
23
22
20
17
14
10
5
1
-1
-3
-5
-8
-10
-12
-15
-17
-19
-21
-24
-30
-42
-50
-55
-60
-64
-69
-78
-91
-100
-105
-108
-112
-115
-118
-122
-127
-126
-117
-110
-104
-98
-93
-89
-82
-71
-64
-60
-56
-54
-53
-53
-55
-57
-60
-62
-64
-67
-71
-74
-76
-78
-79
-81
-83
-86
-89
-93
-97
-101
-104
-109
-114
-120
-128
-142
-158
-168
-175
-180
-181
-182
-183
-184
-185
-186
-187
-188
-188
-189
-189
-190
-191
-193
-196
-191
-177
-151
-107
-44
34
126
225
320
405
466
494
473
392
267
116
-44
-187
-286
-316
-313
-269
-212
-193
-187
-183
-181
-181
-181
-181
-182
-182
-182
-183
-184
-184
-181
-174
-163
-146
-138
-134
-132
-130
-128
-125
-123
-121
-118
-115
-111
-107
-101
-95
-92
-88
-84
-77
-65
-56
-50
-44
-38
-33
-28
-23
-16
-11
-7
-5
0
11
20
24
28
32
37
42
49
59
66
73
78
85
92
96
99
102
104
106
108
110
112
113
115
116
117
119
121
123
125
126
124
121
117
114
112
110
108
107
105
103
101
99
97
95
93
91
89
86
84
83
82
81
81
80
80
79
78
78
76
74
72
70
68
66
64
61
58
54
51
48
41
25
19
17
17
16
16
16
15
15
14
14
15
15
15
14
13
12
12
11
11
10
9
7
5
4
2
0
-1
-4
-7
-11
-14
-16
-18
-20
-23
-27
-36
-52
-58
-61
-64
-67
-68
-69
-68
-66
-62
-57
-53
-48
-41
-34
-29
-25
-20
-11
4
14
19
23
26
30
33
37
41
47
54
60
64
68
73
79
82
79
72
62
43
31
25
21
17
15
13
12
12
12
13
13
13
13
14
14
15
15
16
18
23
30
42
65
109
173
260
367
485
598
681
711
704
636
508
334
136
-49
-178
-214
-213
-176
-129
-95
-83
-79
-79
-82
-85
-89
-90
-87
-80
-70
-56
-50
-47
-45
-44
-43
-44
-45
-47
-50
-53
-55
-50
-42
-35
-30
-25
-21
-17
-15
-12
-9
-5
0
7
17
24
30
35
41
46
50
53
56
60
64
69
73
77
81
85
89
93
98
104
110
116
119
122
125
127
130
132
134
136
138
140
141
141
141
140
139
138
137
135
134
133
131
129
127
124
121
113
94
83
76
71
65
60
54
50
47
44
41
38
35
32
29
26
23
20
17
15
12
10
7
6
5
4
5
6
7
8
9
11
13
15
17
17
13
7
0
-5
-10
-15
-20
-25
-28
-31
-35
-38
-42
-45
-47
-49
-52
-54
-57
-59
-60
-61
-63
-65
-68
-70
-72
-72
-69
-66
-63
-59
-56
-53
-49
-45
-41
-37
-33
-30
-27
-23
-20
-17
-15
-14
-12
-10
-8
-6
-4
-3
-2
1
5
8
8
6
2
-1
-5
-11
-15
-16
-14
-11
-8
-3
-4
-15
-26
-37
-49
-58
-66
-69
-65
-57
-45
-26
-9
2
10
14
16
18
20
21
24
26
27
29
31
34
41
56
74
94
133
182
241
306
373
436
474
476
449
365
241
101
-30
-136
-209
-230
-225
-179
-127
-105
-99
-96
-92
-87
-81
-75
-69
-61
-52
-44
-42
-42
-43
-44
-44
-44
-43
-42
-43
-46
-50
-55
-58
-61
-65
-68
-70
-72
-72
-71
-69
-67
-63
-60
-56
-52
-47
-43
-38
-34
-31
-26
-17
2
19
29
36
41
45
49
52
52
50
48
45
42
39
40
47
56
67
81
93
99
104
108
112
113
112
108
103
98
94
90
85
81
76
72
69
65
60
54
48
41
34
26
8
-12
-23
-31
-40
-51
-63
-78
-90
-97
-103
-107
-108
-108
-104
-99
-92
-85
-74
-66
-60
-55
-50
-47
-48
-54
-62
-70
-78
-85
-88
-91
-92
-93
-94
-95
-97
-98
-98
-99
-99
-99
-99
-98
-96
-94
-92
-90
-87
-85
-82
-79
-77
-73
-67
-62
-62
-68
-78
-90
-106
-118
-130
-141
-155
-163
-169
-173
-177
-179
-180
-179
-176
-171
-166
-161
-154
-145
-135
-127
-119
-107
-92
-80
-70
-62
-52
-42
-25
0
13
18
22
26
29
31
33
35
36
36
35
35
34
33
32
31
29
28
26
25
24
23
21
20
18
17
16
15
15
15
17
19
22
26
29
33
39
45
51
58
71
89
115
151
200
264
338
419
493
557
595
598
571
476
337
182
38
-67
-113
-128
-115
-76
-45
-35
-31
-36
-45
-51
-55
-59
-62
-64
-66
-67
-68
-70
-73
-76
-79
-80
-80
-77
-73
-69
-68
-66
-65
-63
-60
-58
-55
-52
-49
-46
-42
-38
-34
-30
-25
-14
-6
-1
1
4
7
8
10
13
16
19
23
26
29
33
36
39
42
45
47
50
54
58
62
65
67
68
70
73
76
79
80
81
82
82
82
82
82
80
78
76
74
73
71
68
65
59
46
29
18
11
5
0
-6
-11
-16
-21
-26
-30
-35
-40
-44
-46
-47
-46
-43
-40
-36
-32
-30
-27
-24
-20
-16
-13
-12
-12
-12
-12
-12
-12
-13
-15
-17
-19
-20
-20
-20
-19
-18
-16
-12
-13
-26
-30
-33
-35
-37
-38
-40
-41
-43
-45
-47
-49
-51
-52
-53
-54
-54
-54
-54
-54
-55
-56
-57
-59
-61
-63
-65
-66
-68
-69
-69
-68
-68
-67
-65
-64
-62
-61
-59
-58
-55
-50
-46
-47
-52
-58
-62
-64
-66
-68
-70
-71
-71
-69
-65
-60
-55
-50
-48
-45
-43
-41
-39
-38
-36
-34
-32
-30
-29
-28
-28
-28
-29
-30
-31
-33
-35
-37
-39
-41
-43
-44
-45
-46
-47
-48
-50
-54
-59
-61
-58
-50
-37
6
72
160
261
365
457
518
538
525
487
393
270
133
-10
-133
-199
-220
-202
-173
-135
-114
-104
-97
-92
-88
-84
-80
-76
-73
-70
-67
-64
-61
-58
-55
-52
-49
-46
-42
-37
-32
-23
-8
5
17
27
39
54
66
76
84
92
100
106
109
110
112
113
115
116
117
117
117
118
121
124
127
128
129
130
131
132
134
135
136
137
140
143
147
151
153
154
154
153
153
153
152
152
151
150
149
149
150
150
150
149
148
148
147
147
146
145
143
140
137
135
132
129
122
115
111
109
107
106
105
103
102
100
99
98
96
94
92
90
88
86
84
81
79
78
79
82
86
91
94
98
102
106
108
108
106
104
100
97
93
87
81
74
67
63
59
55
52
48
44
40
37
33
29
25
20
16
13
10
6
3
1
-1
-3
-5
-8
-10
-13
-15
-16
-15
-14
-12
-10
-8
-5
0
3
5
5
3
1
0
0
-1
-3
-4
-4
-4
-2
-1
0
2
3
5
7
9
9
9
9
9
8
6
3
0
-2
-5
-8
-9
-11
-13
-16
-19
-21
-24
-26
-28
-31
-34
-36
-39
-41
-43
-46
-50
-53
-57
-59
-60
-60
-60
-59
-57
-55
-50
-44
-22
10
63
136
223
318
410
485
529
533
509
423
301
161
19
-115
-219
-272
-291
-283
-269
-257
-251
-249
-247
-246
-244
-242
-239
-235
-231
-226
-221
-208
-183
-164
-151
-149
-151
-152
-152
-151
-151
-151
-151
-152
-153
-153
-155
-157
-160
-163
-167
-174
-186
-197
-211
-228
-245
-265
-286
-309
-333
-358
-373
-381
-387
-390
-390
-387
-381
-374
-360
-339
-322
-304
-289
-278
-266
-238
-205
-184
-166
-152
-141
-127
-108
-92
-79
-70
-62
-55
-50
-45
-41
-38
-35
-33
-32
-32
-34
-35
-36
-37
-38
-39
-41
-43
-45
-47
-50
-54
-58
-66
-70
-71
-74
-77
-69
-57
-43
-20
2
28
41
48
52
56
58
58
57
56
54
52
54
69
76
81
85
89
92
94
94
94
94
92
90
88
85
81
72
61
49
39
35
32
29
28
32
39
45
53
58
61
63
66
69
70
70
68
66
65
64
62
61
60
60
60
62
64
66
69
71
74
77
80
83
84
86
86
87
87
88
88
88
89
89
90
91
92
94
95
95
97
98
101
103
106
109
112
116
119
122
125
127
129
132
135
136
137
136
133
128
123
116
106
102
100
99
98
97
96
95
94
93
91
89
87
84
78
70
68
65
68
95
140
206
294
401
518
625
697
706
677
576
432
275
124
4
-77
-97
-92
-50
7
57
83
91
96
101
104
108
116
130
137
140
142
143
144
144
143
144
144
143
142
141
140
139
138
137
136
135
134
136
139
143
147
150
153
157
160
163
167
169
170
170
171
171
171
172
172
172
172
172
172
172
169
164
158
153
147
141
137
133
127
121
119
118
118
117
116
116
116
116
117
117
118
118
119
120
120
121
121
121
119
116
113
109
105
101
97
92
86
79
72
67
63
58
53
48
43
39
34
28
20
11
4
-3
-17
-38
-53
-61
-67
-74
-79
-83
-85
-87
-88
-90
-90
-91
-92
-92
-93
-95
-96
-98
-100
-101
-102
-103
-105
-106
-107
-109
-113
-120
-127
-132
-135
-139
-142
-145
-148
-150
-153
-156
-159
-163
-169
-182
-199
-206
-209
-212
-214
-215
-212
-208
-204
-201
-198
-193
-190
-190
-191
-194
-196
-198
-200
-201
-202
-203
-204
-205
-206
-206
-206
-206
-206
-205
-204
-203
-201
-198
-196
-191
-183
-191
-197
-200
-203
-205
-206
-205
-203
-200
-196
-193
-190
-186
-182
-178
-177
-179
-183
-189
-195
-201
-209
-217
-221
-221
-222
-222
-221
-222
-215
-207
-201
-200
-204
-208
-212
-210
-197
-179
-155
-117
-58
21
120
234
354
464
539
547
516
398
245
84
-58
-163
-212
-227
-213
-172
-120
-78
-40
-17
0
13
24
33
42
47
45
40
35
29
26
32
43
51
59
65
68
68
66
65
63
60
58
59
66
73
77
80
83
86
89
93
96
98
100
102
105
110
121
140
148
152
155
158
162
166
169
175
185
203
218
238
264
286
305
326
342
352
361
370
385
398
403
406
407
401
386
364
339
326
315
299
282
267
261
257
255
251
246
238
230
223
217
210
203
195
188
184
181
178
175
172
170
168
166
163
161
158
156
153
151
148
141
127
115
104
95
88
82
79
76
73
71
69
69
69
71
74
79
86
110
142
186
237
289
339
380
414
426
426
411
373
313
256
208
169
144
118
89
54
39
37
36
35
33
28
21
16
13
10
7
4
1
-1
-4
-8
-12
-18
-24
-31
-37
-42
-45
-48
-52
-58
-68
-85
-96
-103
-108
-114
-119
-123
-128
-139
-157
-168
-174
-180
-186
-192
-195
-199
-202
-205
-208
-212
-216
-221
-225
-230
-236
-241
-246
-250
-253
-256
-260
-263
-267
-270
-272
-273
-273
-271
-266
-261
-256
-249
-239
-231
-228
-226
-222
-217
-225
-233
-239
-238
-229
-202
-154
-82
13
130
256
368
438
444
409
282
94
-118
-314
-452
-502
-506
-475
-426
-375
-332
-289
-258
-248
-243
-238
-235
-231
-225
-217
-205
-196
-189
-184
-184
-188
-193
-196
-199
-201
-204
-205
-203
-200
-196
-191
-186
-177
-171
-165
-156
-139
-117
-93
-78
-70
-64
-59
-53
-48
-43
-39
-34
-29
-24
-20
-17
-14
-10
-4
0
0
-1
-6
-11
-18
-23
-28
-34
-40
-39
-28
-22
-17
-13
-9
-7
-5
-3
-2
-1
0
1
2
2
4
7
10
7
1
-6
-16
-23
-33
-42
-47
-51
-52
-49
-44
-44
-49
-44
-31
-21
-8
2
10
