341
406
475
545
595
614
620
614
603
596
591
585
581
579
577
575
572
571
570
569
568
566
564
563
566
573
584
597
615
630
650
675
696
712
728
744
760
780
800
818
832
843
854
865
877
887
895
902
910
918
926
934
942
949
954
954
950
943
932
913
886
847
805
760
711
677
636
597
558
522
487
454
423
394
371
354
334
321
311
303
295
287
279
273
267
261
256
253
251
250
249
249
248
247
245
244
243
242
245
250
258
267
277
290
302
313
322
329
334
338
342
346
350
353
356
359
364
372
387
402
417
432
447
466
490
512
537
559
576
592
609
625
634
640
644
647
649
650
649
644
637
628
616
596
580
560
534
510
483
454
426
398
370
343
315
288
261
235
211
187
162
141
125
106
93
84
77
69
63
57
49
41
33
24
15
2
-13
-30
-43
-53
-62
-70
-77
-81
-84
-86
-88
-89
-91
-93
-95
-98
-102
-105
-108
-111
-114
-117
-120
-123
-125
-128
-130
-133
-136
-138
-141
-143
-146
-148
-150
-152
-153
-154
-155
-156
-157
-158
-159
-161
-163
-167
-170
-173
-173
-171
-165
-158
-149
-137
-119
-105
-100
-98
-97
-96
-96
-96
-96
-96
-96
-96
-96
-96
-97
-97
-97
-97
-98
-98
-98
-98
-97
-97
-96
-94
-93
-91
-89
-87
-85
-83
-82
-81
-80
-80
-80
-81
-81
-82
-83
-84
-85
-87
-88
-90
-92
-94
-97
-99
-102
-104
-106
-108
-111
-116
-121
-126
-127
-125
-120
-113
-105
-95
-80
-74
-71
-70
-69
-68
-68
-68
-68
-70
-73
-76
-78
-79
-80
-81
-82
-82
-82
-82
-81
-81
-80
-79
-78
-77
-76
-75
-74
-73
-73
-72
-72
-72
-73
-73
-74
-74
-75
-76
-76
-77
-78
-78
-79
-80
-81
-82
-83
-83
-84
-84
-83
-82
-80
-79
-77
-76
-74
-72
-70
-68
-66
-61
-46
-33
-20
-11
-3
2
10
17
24
33
45
64
81
99
117
137
153
167
180
193
202
208
213
218
222
227
231
236
241
248
255
263
271
279
288
299
313
322
327
331
336
339
338
331
319
299
267
232
196
157
121
87
55
23
-6
-35
-66
-83
-91
-97
-100
-102
-101
-97
-92
-86
-81
-79
-77
-76
-74
-72
-70
-68
-67
-65
-63
-62
-60
-58
-57
-56
-54
-52
-50
-48
-45
-41
-37
-31
-24
-17
-10
-5
-1
2
6
11
17
27
37
49
61
73
84
95
107
123
141
159
177
198
219
239
259
278
297
313
325
334
342
348
354
359
364
369
373
377
378
377
374
369
362
349
325
302
273
240
207
174
143
115
87
60
32
9
-8
-26
-43
-60
-76
-89
-101
-114
-127
-138
-147
-155
-165
-175
-185
-189
-193
-196
-199
-201
-204
-206
-208
-209
-211
-213
-214
-215
-216
-217
-218
-218
-219
-218
-218
-217
-215
-213
-211
-208
-206
-203
-199
-195
-191
-186
-181
-174
-157
-145
-141
-139
-138
-137
-137
-137
-137
-137
-138
-139
-140
-140
-140
-141
-141
-141
-142
-142
-142
-142
-142
-141
-141
-140
-140
-139
-138
-137
-135
-134
-132
-131
-130
-130
-130
-129
-130
-130
-131
-132
-133
-134
-135
-136
-137
-138
-138
-139
-139
-139
-138
-137
-136
-135
-133
-131
-128
-126
-123
-120
-115
-101
-90
-87
-86
-84
-83
-81
-80
-79
-80
-83
-86
-89
-92
-94
-96
-97
-99
-101
-102
-102
-103
-103
-104
-104
-104
-104
-104
-103
-103
-102
-101
-100
-99
-98
-98
-97
-97
-96
-95
-95
-94
-94
-93
-92
-92
-92
-92
-91
-91
-90
-89
-89
-88
-87
-85
-84
-82
-80
-78
-76
-69
-50
-31
-16
-3
4
10
14
16
17
18
17
17
17
17
17
17
17
17
18
18
19
20
21
22
24
26
28
31
35
39
44
55
68
79
91
106
126
144
168
197
219
236
253
265
273
280
288
295
303
315
333
350
393
443
503
569
637
703
760
807
824
825
816
792
739
668
578
473
361
250
152
76
25
-4
-26
-43
-63
-76
-87
-95
-98
-98
-98
-97
-97
-97
-96
-97
-97
-97
-98
-98
-97
-97
-96
-96
-94
-93
-91
-89
-87
-85
-83
-81
-79
-77
-74
-72
-68
-64
-59
-54
-50
-46
-41
-37
-32
-27
-21
-14
-8
-2
4
11
23
40
56
76
102
129
156
184
211
235
262
285
303
319
336
352
371
381
389
395
400
402
403
401
397
391
383
368
343
321
297
273
245
214
181
145
111
78
47
18
-9
-34
-61
-81
-94
-106
-119
-130
-141
-151
-161
-171
-177
-182
-187
-191
-195
-197
-199
-200
-200
-199
-197
-194
-191
-186
-181
-181
-170
-150
-130
-122
-118
-114
-110
-108
-107
-106
-105
-105
-106
-108
-111
-113
-114
-116
-117
-118
-118
-117
-115
-114
-113
-112
-112
-110
-109
-107
-106
-105
-106
-106
-107
-108
-110
-110
-110
-109
-108
-108
-108
-108
-107
-107
-106
-105
-105
-106
-106
-107
-108
-109
-111
-112
-112
-110
-108
-106
-103
-100
-95
-90
-81
-61
-46
-34
-27
-23
-20
-19
-18
-18
-18
-19
-20
-22
-24
-26
-28
-30
-31
-31
-31
-29
-27
-26
-25
-24
-24
-23
-23
-23
-23
-24
-26
-28
-31
-33
-36
-39
-41
-42
-43
-45
-46
-47
-49
-50
-52
-54
-56
-59
-63
-67
-71
-74
-76
-78
-79
-79
-78
-75
-73
-69
-63
-56
-47
-32
-19
-12
-6
-2
0
2
2
1
0
-3
-6
-10
-14
-17
-20
-22
-24
-25
-25
-23
-19
-14
-9
-4
0
2
4
6
7
7
7
6
5
4
3
2
2
2
3
2
2
2
2
2
1
1
0
1
4
6
8
10
14
18
30
58
84
113
142
172
200
228
256
284
308
326
343
352
356
361
366
373
378
382
387
393
405
418
434
453
474
490
501
509
514
513
503
487
462
427
377
331
282
233
184
155
123
92
63
34
7
-20
-42
-58
-73
-81
-87
-92
-96
-100
-104
-107
-111
-114
-116
-119
-122
-126
-129
-130
-128
-121
-111
-99
-83
-57
-33
-19
-10
-4
0
4
8
12
14
17
20
22
25
29
34
41
48
57
69
81
94
109
127
148
169
189
208
227
247
266
286
306
324
340
353
364
372
378
384
389
392
394
393
389
382
372
361
348
329
311
293
272
246
221
197
173
152
131
110
89
73
61
49
38
26
15
4
-5
-17
-28
-41
-57
-74
-91
-107
-122
-134
-144
-152
-155
-158
-161
-162
-164
-165
-164
-163
-160
-158
-157
-156
-156
-155
-155
-154
-153
-152
-152
-153
-154
-155
-156
-155
-154
-153
-151
-151
-151
-152
-152
-153
-153
-155
-156
-159
-161
-164
-167
-169
-170
-169
-167
-165
-162
-160
-156
-150
-144
-135
-118
-101
-91
-85
-82
-80
-80
-80
-79
-78
-79
-80
-83
-85
-87
-89
-90
-90
-90
-90
-89
-89
-89
-89
-89
-89
-89
-89
-89
-89
-90
-90
-90
-89
-89
-89
-89
-88
-88
-87
-86
-86
-86
-87
-88
-90
-91
-93
-95
-98
-100
-104
-107
-111
-113
-117
-120
-122
-123
-120
-112
-100
-87
-76
-68
-62
-57
-54
-51
-49
-49
-50
-52
-54
-57
-60
-64
-68
-70
-72
-72
-72
-70
-68
-65
-63
-61
-60
-59
-58
-56
-54
-53
-53
-55
-56
-57
-58
-60
-61
-61
-62
-61
-61
-60
-60
-59
-59
-59
-59
-59
-60
-61
-62
-64
-66
-67
-68
-67
-65
-62
-58
-54
-50
-44
-37
-29
-14
3
15
22
26
29
30
32
33
35
37
41
46
54
64
79
103
125
147
170
196
216
230
242
252
260
267
272
277
282
289
296
304
313
323
339
353
368
387
410
438
457
471
481
483
478
469
457
438
398
350
305
264
222
181
138
94
52
12
-18
-26
-29
-31
-33
-34
-35
-36
-36
-36
-36
-36
-37
-39
-42
-45
-47
-48
-49
-51
-52
-52
-50
-47
-43
-38
-33
-29
-24
-20
-17
-13
-9
-4
2
7
13
17
20
22
25
28
34
40
47
57
68
79
90
106
127
146
163
176
191
206
224
246
265
284
303
323
343
364
387
408
426
438
446
452
457
462
464
460
449
434
415
388
359
331
302
273
244
216
187
158
129
100
77
57
39
21
3
-14
-32
-51
-67
-81
-96
-114
-132
-140
-146
-153
-158
-162
-166
-169
-171
-174
-177
-179
-181
-183
-185
-188
-189
-189
-190
-190
-191
-191
-191
-190
-188
-184
-180
-174
-168
-161
-153
-146
-138
-131
-123
-117
-111
-107
-104
-101
-99
-98
-99
-100
-102
-105
-108
-110
-112
-113
-113
-113
-112
-112
-111
-110
-110
-109
-108
-108
-108
-107
-107
-107
-107
-106
-107
-107
-108
-108
-108
-107
-106
-106
-106
-106
-106
-107
-108
-110
-112
-114
-118
-122
-127
-132
-136
-138
-138
-135
-131
-124
-117
-108
-99
-91
-84
-77
-70
-63
-59
-56
-55
-56
-58
-61
-65
-69
-74
-78
-82
-86
-89
-92
-93
-94
-93
-93
-92
-92
-92
-91
-90
-89
-87
-85
-84
-85
-86
-87
-88
-88
-87
-85
-83
-82
-82
-83
-84
-84
-84
-84
-84
-85
-87
-90
-93
-95
-97
-98
-98
-97
-94
-90
-84
-78
-71
-63
-54
-45
-35
-24
-13
-2
6
12
15
15
14
13
11
10
8
6
6
7
7
8
10
12
16
20
23
25
27
28
30
31
32
32
34
36
39
42
45
50
58
77
97
117
141
169
197
218
234
248
261
272
281
287
292
296
300
306
312
318
325
333
347
374
400
429
459
497
524
544
558
563
558
547
532
507
460
404
354
308
263
222
182
143
101
67
42
11
-8
-23
-36
-46
-53
-58
-62
-65
-68
-70
-72
-74
-76
-78
-78
-78
-76
-74
-72
-70
-69
-68
-66
-63
-60
-58
-55
-52
-49
-46
-43
-40
-37
-35
-31
-25
-19
-13
2
19
34
49
71
99
124
147
166
184
201
219
237
256
274
292
310
329
350
372
394
413
431
441
451
459
466
470
472
471
466
459
449
437
423
406
378
351
326
301
277
252
227
201
176
151
125
99
73
49
26
4
-15
-37
-66
-94
-106
-114
-122
-128
-134
-138
-142
-146
-147
-147
-145
-142
-138
-134
-130
-127
-124
-123
-123
-124
-126
-128
-132
-135
-139
-143
-146
-148
-149
-150
-151
-151
-149
-147
-145
-143
-140
-138
-136
-135
-134
-134
-133
-133
-133
-134
-135
-136
-137
-137
-137
-137
-136
-135
-134
-134
-134
-135
-135
-134
-133
-133
-133
-134
-134
-136
-137
-137
-136
-133
-130
-127
-123
-118
-111
-93
-78
-69
-62
-56
-52
-49
-47
-46
-46
-47
-48
-51
-54
-57
-60
-62
-64
-66
-66
-67
-66
-65
-64
-62
-62
-61
-61
-62
-63
-65
-67
-69
-71
-74
-77
-81
-84
-86
-88
-89
-90
-91
-93
-95
-97
-100
-103
-106
-109
-112
-116
-121
-128
-134
-140
-144
-146
-146
-143
-138
-130
-120
-109
-98
-89
-80
-74
-69
-65
-63
-62
-61
-61
-62
-64
-66
-69
-71
-73
-74
-75
-75
-75
-75
-74
-73
-72
-71
-70
-69
-68
-68
-67
-66
-65
-63
-63
-62
-62
-61
-59
-58
-56
-54
-52
-51
-50
-49
-48
-48
-47
-47
-47
-47
-47
-48
-48
-48
-46
-42
-38
-33
-28
-23
-16
0
50
91
134
175
217
235
243
250
255
258
261
264
265
266
266
268
271
275
279
283
287
292
299
311
329
349
367
383
396
409
425
436
436
422
398
357
298
254
220
187
160
139
115
87
59
32
5
-22
-35
-45
-54
-63
-71
-79
-86
-91
-95
-97
-98
-97
-93
-88
-81
-72
-63
-53
-43
-34
-26
-19
-11
-5
0
6
10
13
16
18
21
24
27
31
35
39
44
51
60
72
85
98
109
121
133
147
164
181
198
215
234
256
279
303
326
347
365
381
394
403
412
420
427
432
434
435
432
426
417
405
390
375
355
324
297
274
251
229
208
190
175
163
153
140
127
112
93
70
48
26
4
-17
-44
-76
-93
-105
-115
-123
-129
-134
-140
-144
-147
-149
-151
-152
-153
-154
-156
-158
-159
-161
-162
-163
-164
-166
-168
-169
-170
-170
-169
-169
-168
-167
-167
-166
-166
-166
-167
-167
-168
-169
-170
-171
-172
-173
-173
-172
-170
-168
-164
-158
-152
-143
-135
-127
-119
-112
-105
-100
-96
-93
-91
-90
-91
-94
-97
-101
-104
-106
-108
-109
-110
-110
-109
-108
-106
-104
-102
-101
-100
-100
-100
-100
-100
-101
-101
-101
-101
-102
-103
-103
-103
-103
-102
-100
-99
-98
-98
-98
-99
-101
-104
-106
-109
-113
-116
-120
-125
-129
-132
-131
-128
-123
-117
-108
-98
-87
-77
-67
-58
-50
-43
-37
-32
-29
-27
-27
-29
-32
-35
-39
-43
-46
-48
-49
-50
-50
-49
-48
-45
-42
-40
-37
-34
-32
-31
-30
-29
-27
-27
-28
-29
-30
-32
-33
-34
-34
-33
-33
-32
-32
-33
-34
-34
-33
-33
-32
-31
-31
-32
-33
-34
-34
-34
-32
-30
-27
-24
-17
-7
3
15
29
41
48
54
57
58
59
59
58
57
54
51
49
47
47
49
52
56
62
69
78
89
104
134
162
189
210
228
243
255
268
279
287
294
299
304
311
319
328
337
347
359
374
391
410
431
451
472
489
499
507
515
527
525
500
463
413
359
304
259
227
199
179
165
150
133
115
97
78
60
43
28
20
14
8
2
-2
-7
-11
-14
-15
-15
-15
-13
-11
-7
-3
0
4
7
10
13
15
18
21
23
25
25
26
26
27
29
32
35
39
42
46
50
55
64
77
90
100
109
118
128
142
163
183
200
222
247
274
301
329
362
396
429
468
491
507
520
529
535
536
535
530
522
510
496
476
443
411
383
361
338
317
291
262
233
208
187
167
147
126
106
85
61
38
14
-8
-30
-46
-59
-69
-79
-90
-102
-112
-119
-125
-131
-135
-140
-145
-149
-154
-157
-161
-165
-168
-171
-172
-172
-171
-168
-164
-158
-151
-144
-136
-128
-119
-111
-103
-96
-90
-85
-81
-78
-77
-77
-78
-79
-81
-83
-85
-86
-88
-88
-89
-88
-87
-84
-81
-77
-75
-73
-73
-72
-71
-70
-69
-68
-68
-68
-69
-71
-73
-74
-74
-73
-73
-72
-72
-73
-75
-77
-78
-79
-80
-82
-84
-86
-89
-91
-92
-94
-94
-94
-93
-90
-85
-75
-62
-50
-41
-34
-29
-24
-21
-18
-17
-17
-19
-21
-24
-27
-31
-35
-39
-42
-44
-46
-47
-48
-48
-48
-49
-50
-51
-52
-53
-53
-53
-53
-53
-53
-54
-55
-56
-57
-58
-58
-58
-58
-58
-58
-58
-59
-61
-62
-64
-66
-68
-69
-71
-72
-73
-73
-72
-69
-65
-59
-52
-44
-36
-28
-20
-13
-5
1
7
13
18
22
25
26
26
24
23
20
18
16
14
13
13
14
16
17
19
21
22
22
23
24
24
24
24
24
23
22
22
21
20
20
21
22
25
28
31
35
42
60
78
98
122
149
176
195
208
219
229
237
245
253
259
267
277
289
304
323
350
374
395
414
434
456
472
484
495
502
505
503
497
488
477
459
418
367
319
271
226
184
146
118
98
77
50
13
-16
-35
-51
-64
-70
-74
-77
-81
-84
-86
-87
-87
-88
-88
-87
-86
-84
-82
-81
-79
-78
-77
-77
-76
-74
-73
-70
-68
-65
-62
-58
-54
-49
-41
-21
-2
15
34
53
69
85
98
110
123
134
145
156
166
178
191
205
221
239
257
274
295
320
346
369
389
406
419
428
435
441
445
448
448
445
438
428
416
399
372
353
328
303
282
260
238
214
188
162
135
110
87
63
41
15
-7
-26
-44
-62
-79
-95
-101
-105
-107
-109
-110
-112
-114
-117
-120
-122
-126
-129
-133
-136
-140
-144
-148
-153
-156
-159
-161
-163
-164
-165
-164
-164
-162
-161
-160
-159
-158
-157
-155
-154
-153
-153
-153
-153
-154
-155
-156
-157
-157
-157
-157
-156
-156
-156
-156
-156
-156
-156
-157
-158
-159
-160
-162
-163
-164
-165
-164
-163
-162
-160
-158
-154
-150
-142
-125
-105
-95
-88
-82
-78
-75
-74
-74
-75
-76
-78
-80
-83
-86
-88
-90
-91
-91
-90
-88
-85
-82
-79
-76
-74
-72
-70
-68
-67
-66
-65
-65
-66
-67
-70
-74
-78
-83
-87
-90
-94
-97
-100
-104
-107
-111
-115
-119
-124
-129
-133
-138
-142
-147
-151
-154
-155
-153
-148
-140
-132
-122
-113
-100
-87
-81
-79
-78
-77
-77
-78
-78
-79
-81
-83
-85
-87
-89
-90
-90
-90
-89
-87
-85
-84
-82
-81
-80
-79
-77
-76
-75
-73
-72
-71
-70
-69
-68
-67
-66
-64
-62
-59
-57
-55
-54
-52
-51
-50
-50
-50
-50
-50
-51
-52
-53
-53
-53
-52
-50
-48
-46
-43
-39
-33
-23
-1
20
43
66
85
105
123
141
160
179
196
208
215
222
228
235
242
250
258
267
275
285
298
315
335
353
368
382
396
413
431
450
461
471
478
482
481
474
463
449
424
389
340
290
253
210
169
130
91
50
11
-27
-61
-87
-106
-119
-128
-137
-142
-141
-132
-120
-109
-96
-85
-75
-66
-62
-60
-59
-58
-58
-57
-56
-55
-55
-54
-53
-52
-51
-49
-46
-42
-39
-34
-29
-23
-13
-2
6
15
24
33
43
52
60
68
79
94
111
129
147
163
183
205
227
251
273
290
307
324
341
359
374
387
394
397
398
399
401
403
404
405
403
398
390
381
371
357
344
332
314
289
264
238
209
179
147
116
85
52
23
2
-18
-39
-59
-79
-92
-99
-105
-111
-118
-126
-134
-142
-147
-152
-156
-160
-163
-166
-170
-173
-176
-179
-181
-183
-185
-186
-188
-189
-190
-192
-193
-195
-197
-200
-202
-205
-208
-210
-212
-213
-212
-209
-203
-195
-185
-174
-163
-153
-145
-139
-132
-126
-120
-116
-113
-112
-111
-111
-113
-116
-119
-123
-126
-128
-129
-130
-130
-129
-128
-126
-124
-122
-121
-119
-117
-115
-113
-112
-111
-110
-110
-109
-109
-110
-110
-110
-109
-108
-107
-106
-105
-105
-104
-104
-104
-104
-104
-104
-104
-106
-107
-110
-111
-113
-113
-112
-107
-101
-93
-83
-73
-64
-56
-49
-42
-36
-31
-26
-22
-21
-20
-21
-23
-25
-29
-32
-34
-36
-37
-38
-38
-37
-35
-33
-31
-29
-27
-26
-25
-25
-24
-24
-24
-24
-26
-27
-29
-30
-32
-32
-33
-32
-32
-32
-33
-33
-34
-35
-36
-37
-38
-40
-43
-45
-48
-50
-51
-52
-52
-54
-56
-56
-50
-36
-19
-3
14
29
36
41
44
46
46
47
46
45
43
41
40
38
35
34
32
32
32
33
35
39
42
45
49
55
61
74
99
119
139
159
180
200
220
246
261
270
276
281
284
288
292
295
297
299
301
305
309
312
315
319
323
330
339
350
364
382
395
404
413
422
427
423
410
389
357
326
295
266
236
205
174
144
109
80
61
48
38
32
28
25
23
21
21
21
20
20
21
21
21
23
25
27
28
29
29
29
29
30
32
33
36
39
41
43
45
47
49
51
54
59
64
69
74
79
83
88
95
103
115
134
151
166
190
223
253
285
318
352
385
417
448
486
507
518
526
533
539
542
545
545
543
539
533
526
518
508
494
468
446
423
400
379
352
318
288
266
239
212
184
159
134
108
84
63
46
28
8
-7
-20
-32
-45
-57
-68
-78
-89
-99
-108
-115
-121
-127
-133
-137
-141
-144
-147
-147
-146
-143
-136
-126
-116
-105
-96
-90
-84
-80
-77
-75
-75
-75
-76
-78
-81
-83
-86
-89
-90
-92
-93
-93
-93
-92
-90
-88
-86
-84
-83
-82
-80
-80
-80
-81
-82
-84
-85
-87
-89
-90
-91
-92
-93
-94
-96
-96
-97
-97
-98
-98
-100
-102
-104
-107
-109
-111
-112
-113
-116
-118
-119
-116
-108
-95
-82
-69
-53
-38
-30
-30
-31
-33
-34
-35
-36
-38
-40
-44
-47
-50
-52
-54
-56
-58
-59
-58
-57
-57
-57
-58
-58
-59
-59
-60
-62
-63
-65
-66
-69
-71
-74
-75
-77
-78
-79
-80
-81
-82
-83
-84
-85
-87
-88
-88
-89
-90
-91
-92
-94
-95
-96
-95
-93
-89
-86
-81
-75
-68
-60
-49
-28
-14
-9
-5
-3
-2
-3
-4
-4
-6
-9
-12
-15
-18
-20
-21
-22
-23
-22
-21
-20
-18
-17
-16
-15
-14
-13
-12
-12
-12
-13
-13
-14
-16
-17
-18
-19
-20
-21
-22
-23
-23
-23
-23
-22
-21
-18
-15
-11
-7
-3
0
9
34
55
81
115
145
166
185
211
242
266
283
300
312
320
327
336
345
353
361
368
375
384
396
409
422
434
443
449
450
447
441
432
419
393
348
303
257
210
164
120
83
49
18
-8
-36
-65
-94
-106
-111
-116
-120
-124
-128
-132
-134
-135
-135
-136
-138
-140
-142
-143
-142
-140
-137
-133
-129
-125
-121
-116
-110
-101
-84
-68
-54
-40
-27
-13
0
8
13
16
19
23
27
33
37
41
45
51
60
75
90
105
124
146
167
188
209
230
251
273
294
313
329
343
353
360
365
370
373
375
376
375
372
366
357
348
335
313
293
275
256
235
215
193
169
143
119
98
78
57
33
17
7
0
-7
-14
-20
-26
-34
-41
-49
-59
-71
-83
-98
-115
-129
-141
-151
-156
-160
-164
-167
-169
-170
-170
-169
-169
-168
-167
-166
-165
-164
-163
-161
-160
-160
-160
-160
-160
-160
-159
-158
-157
-156
-155
-154
-154
-153
-153
-153
-153
-154
-154
-155
-157
-158
-160
-161
-161
-161
-161
-160
-158
-156
-153
-149
-144
-138
-130
-112
-95
-83
-74
-69
-67
-66
-65
-65
-66
-67
-69
-71
-73
-75
-76
-76
-75
-74
-72
-70
-67
-64
-61
-59
-57
-56
-56
-56
-56
-56
-56
-56
-57
-58
-59
-60
-60
-60
-60
-60
-60
-61
-62
-64
-66
-68
-70
-72
-75
-79
-83
-86
-88
-89
-88
-86
-82
-77
-71
-64
-57
-49
-41
-32
-23
-15
-8
-3
0
0
0
0
-4
-7
-11
-15
-18
-22
-24
-25
-25
-24
-24
-23
-23
-23
-24
-23
-23
-23
-22
-22
-21
-21
-21
-21
-21
-19
-17
-14
-12
-9
-7
-5
-4
-3
-1
-1
-1
-1
-1
-3
-5
-7
-8
-10
-10
-8
-6
-3
0
3
7
12
19
36
52
64
74
80
84
86
89
94
99
105
110
116
125
139
165
189
210
227
244
261
275
285
294
304
312
320
329
337
346
357
367
377
389
405
421
437
457
480
503
518
529
537
539
534
522
506
477
428
377
326
275
226
176
129
85
40
2
-22
-30
-32
-33
-34
-35
-36
-36
-36
-34
-33
-34
-35
-37
-39
-40
-41
-42
-44
-45
-45
-43
-41
-38
-34
-29
-24
-20
-16
-12
-9
-4
0
5
9
13
18
22
26
29
32
36
42
49
58
72
86
98
111
126
142
158
175
196
219
241
262
284
305
326
347
367
385
399
415
433
448
463
473
477
479
480
483
486
483
461
436
408
378
347
318
290
262
233
204
174
144
114
89
68
48
31
17
4
-7
-21
-34
-46
-59
-72
-86
-100
-114
-126
-132
-137
-141
-144
-147
-151
-155
-159
-162
-164
-166
-169
-171
-174
-176
-177
-178
-179
-180
-179
-177
-173
-169
-163
-157
-150
-142
-133
-125
-116
-107
-99
-92
-87
-83
-79
-77
-76
-76
-77
-80
-82
-85
-87
-88
-90
-90
-91
-90
-90
-88
-86
-84
-83
-82
-81
-80
-79
-78
-77
-76
-75
-75
-75
-75
-74
-73
-72
-69
-67
-65
-63
-62
-62
-62
-61
-62
-63
-64
-67
-70
-73
-76
-78
-79
-77
-74
-70
-65
-59
-52
-43
-35
-27
-19
-13
-7
-2
0
1
0
0
-3
-6
-10
-13
-17
-20
-22
-23
-23
-22
-20
-18
-15
-13
-11
-9
-8
-7
-6
-5
-4
-4
-4
-5
-7
-8
-9
-10
-11
-12
-12
-13
-14
-15
-17
-19
-21
-23
-24
-26
-27
-29
-31
-33
-37
-39
-40
-40
-34
-24
-11
2
14
22
29
36
41
47
51
55
57
58
57
56
54
51
48
45
43
41
40
40
41
42
44
46
47
48
48
48
48
48
48
47
47
46
46
46
47
48
50
54
60
71
96
122
148
173
194
215
235
256
268
276
280
283
286
288
291
295
300
307
318
335
350
371
398
426
459
489
512
533
547
559
566
566
560
544
499
448
393
336
275
236
195
157
129
108
83
62
44
27
10
4
0
-4
-7
-11
-14
-18
-21
-24
-26
-28
-29
-30
-30
-31
-31
-31
-31
-30
-30
-30
-30
-31
-31
-31
-31
-30
-29
-26
-23
-20
-16
-11
-5
0
12
40
63
86
108
131
151
167
183
197
212
227
241
256
274
294
315
335
356
376
397
418
439
458
474
487
496
502
508
513
515
511
501
486
467
439
417
390
358
328
298
269
242
216
191
165
140
113
89
67
45
24
3
-17
-39
-59
-74
-91
-109
-126
-139
-147
-152
-156
-158
-157
-155
-150
-144
-138
-133
-128
-124
-122
-120
-120
-121
-124
-128
-132
-135
-139
-142
-145
-147
-148
-149
-150
-149
-147
-145
-142
-140
-136
-133
-131
-129
-127
-125
-124
-123
-122
-121
-121
-121
-121
-122
-122
-122
-122
-123
-123
-123
-124
-126
-128
-130
-133
-136
-139
-142
-145
-147
-150
-155
-160
-159
-154
-145
-134
-120
-106
-89
-69
-57
-51
-47
-46
-46
-48
-51
-55
-60
-64
-68
-71
-74
-76
-78
-78
-77
-75
-72
-70
-68
-67
-67
-67
-66
-65
-64
-63
-63
-64
-66
-67
-69
-70
-70
-70
-70
-70
-70
-70
-71
-72
-74
-76
-79
-81
-83
-84
-85
-88
-92
-97
-103
-107
-108
-107
-104
-100
-94
-87
-78
-63
-45
-36
-30
-25
-22
-20
-19
-19
-19
-21
-24
-26
-28
-29
-29
-29
-29
-28
-26
-24
-22
-18
-15
-12
-10
-8
-6
-5
-4
-3
-2
-2
-2
-2
-1
-1
-1
-1
0
0
0
0
0
-1
-3
-4
-6
-8
-10
-12
-15
-18
-20
-23
-26
-30
-33
-33
-30
-24
-15
0
22
52
81
111
140
168
198
232
256
278
293
302
306
307
307
308
309
310
312
314
318
323
327
333
344
353
362
374
388
403
416
427
433
435
438
441
435
415
384
345
304
265
230
199
167
134
102
69
38
6
-14
-37
-58
-79
-96
-104
-109
-113
-115
-115
-112
-107
-99
-85
-66
-49
-28
-17
-13
-10
-8
-7
-6
-5
-4
-5
-5
-6
-6
-5
-5
-4
-3
-2
0
1
7
19
32
43
52
59
66
75
85
96
107
118
128
138
148
160
178
198
216
235
256
275
292
310
327
339
346
350
353
355
356
356
355
351
345
339
329
315
303
293
282
275
264
250
236
220
202
184
164
147
121
96
66
47
23
0
-21
-42
-63
-82
-97
-108
-122
-132
-138
-143
-148
-153
-157
-162
-166
-170
-174
-177
-179
-181
-182
-184
-187
-188
-189
-189
-188
-187
-187
-187
-186
-185
-184
-184
-183
-182
-182
-182
-183
-185
-187
-187
-187
-186
-185
-184
-183
-181
-178
-174
-162
-137
-119
-106
-100
-97
-95
-93
-91
-90
-93
-99
-106
-113
-120
-127
-130
-132
-133
-136
-138
-140
-139
-133
-124
-114
-102
-97
-96
-95
-95
-95
-93
-93
-93
-93
-94
-95
-96
-96
-95
-95
-95
-96
-97
-99
-101
-104
-106
-108
-110
-116
-123
-129
-133
-135
-136
-137
-139
-140
-138
-132
-123
-108
-87
-68
-53
-47
-44
-43
-43
-44
-45
-46
-48
-50
-54
-58
-61
-62
-63
-64
-64
-64
-63
-61
-59
-59
-59
-59
-59
-58
-56
-55
-55
-54
-54
-54
-54
-55
-54
-53
-51
-49
-47
-47
-47
-48
-48
-47
-47
-47
-47
-48
-49
-51
-53
-54
-54
-52
-50
-48
-46
-44
-41
-34
-15
3
22
41
53
58
60
61
61
61
61
60
58
56
54
52
50
49
48
48
47
48
51
53
57
61
66
74
91
103
118
139
160
181
201
219
235
254
273
286
301
311
317
322
326
329
332
335
342
353
366
382
404
428
451
491
532
573
614
639
660
676
678
673
654
616
571
516
452
377
288
197
115
52
7
-15
-29
-37
-44
-54
-64
-72
-80
-86
-91
-91
-89
-83
-77
-71
-67
-64
-62
-61
-60
-59
-58
-57
-57
-56
-54
-52
-49
-46
-42
-38
-34
-30
-26
-21
-17
-13
-10
-7
-3
0
5
11
18
23
30
40
53
66
82
105
130
153
192
229
264
301
325
350
373
393
415
434
447
459
466
472
476
479
478
473
466
454
435
417
400
384
367
347
328
299
270
240
211
183
154
125
97
70
42
23
2
-16
-33
-53
-70
-82
-92
-100
-107
-115
-122
-129
-136
-141
-144
-147
-150
-154
-157
-158
-158
-157
-155
-150
-144
-134
-116
-100
-88
-80
-76
-74
-72
-71
-71
-72
-74
-77
-80
-82
-84
-86
-88
-89
-89
-89
-88
-84
-77
-72
-69
-67
-66
-66
-65
-65
-65
-66
-67
-68
-68
-69
-69
-69
-68
-68
-68
-68
-68
-68
-69
-69
-69
-69
-70
-70
-71
-72
-73
-73
-74
-75
-77
-77
-75
-73
-71
-69
-63
-49
-33
-15
4
20
29
33
35
34
28
20
13
5
-1
-5
-8
-11
-17
-23
-25
-25
-26
-27
-27
-23
-17
-12
-7
-4
-4
-5
-8
-11
-15
-19
-24
-28
-32
-35
-36
-37
-39
-41
-42
-43
-43
-44
-46
-50
-56
-59
-62
-65
-72
-82
-90
-95
-98
-100
-100
-100
-98
-93
-83
-66
-47
-29
-19
-14
-11
-8
-7
-7
-9
-12
-16
-20
-23
-26
-29
-31
-33
-34
-35
-35
-34
-33
-30
-27
-24
-22
-21
-21
-21
-21
-21
-20
-21
-23
-24
-24
-22
-21
-21
-21
-21
-21
-21
-22
-23
-23
-22
-21
-21
-22
-24
-25
-22
-15
-3
5
15
37
66
101
135
165
192
220
250
276
287
289
288
288
288
285
280
274
271
271
272
276
280
284
295
311
330
347
362
375
387
400
411
407
384
343
300
260
225
191
156
126
101
80
59
36
12
-12
-28
-38
-42
-45
-50
-56
-61
-64
-67
-72
-77
-82
-86
-88
-91
-92
-93
-92
-90
-87
-82
-75
-62
-49
-32
-14
2
14
22
30
37
44
50
54
57
60
65
71
76
80
84
89
96
106
120
135
148
171
195
220
243
266
289
311
335
352
370
386
401
419
435
446
448
450
450
451
452
448
439
424
404
386
372
351
329
303
275
248
222
198
172
143
115
89
65
51
37
24
12
1
-8
-13
-19
-27
-38
-50
-63
-75
-88
-101
-115
-127
-136
-144
-151
-159
-163
-166
-168
-167
-165
-163
-160
-157
-153
-149
-145
-143
-142
-143
-146
-148
-150
-152
-153
-153
-152
-151
-150
-149
-148
-148
-147
-147
-147
-149
-152
-155
-156
-156
-157
-159
-164
-170
-175
-177
-177
-175
-174
-171
-167
-157
-137
-117
-99
-85
-77
-74
-74
-74
-75
-77
-80
-85
-91
-93
-95
-97
-98
-97
-96
-94
-91
-89
-88
-86
-83
-80
-79
-80
-81
-81
-81
-80
-81
-83
-84
-84
-83
-83
-84
-86
-87
-86
-84
-84
-86
-89
-91
-91
-91
-91
-92
-94
-96
-97
-98
-101
-107
-113
-117
-119
-117
-113
-106
-95
-76
-57
-37
-25
-17
-14
-15
-20
-27
-33
-38
-43
-49
-53
-54
-54
-54
-54
-55
-53
-51
-48
-46
-43
-41
-38
-36
-34
-34
-35
-37
-38
-40
-42
-43
-45
-45
-45
-43
-41
-39
-37
-37
-38
-39
-39
-39
-38
-39
-41
-43
-45
-47
-48
-50
-53
-57
-59
-60
-57
-52
-46
-34
-16
3
22
36
44
46
48
50
52
52
49
44
38
34
33
34
43
55
70
93
117
141
166
193
221
248
265
277
284
292
298
304
309
311
308
307
314
330
349
364
373
383
396
416
440
460
475
487
498
507
504
488
449
399
349
304
266
227
186
145
106
69
38
10
1
0
2
5
5
4
2
0
-2
-7
-15
-27
-34
-37
-37
-35
-35
-35
-36
-37
-36
-34
-31
-28
-26
-21
-11
1
9
14
16
19
20
21
22
23
24
26
29
33
37
44
54
63
72
81
88
98
110
123
137
152
168
186
201
222
244
266
290
313
337
360
383
409
436
463
489
502
509
514
516
513
504
481
455
427
406
381
359
329
301
274
247
223
195
168
142
115
100
85
69
55
37
17
-1
-23
-42
-58
-74
-86
-96
-106
-115
-122
-128
-132
-136
-137
-138
-138
-138
-138
-138
-139
-141
-143
-144
-145
-147
-149
-151
-152
-152
-149
-145
-143
-140
-135
-119
-100
-79
-62
-52
-48
-47
-46
-44
-43
-43
-46
-53
-61
-66
-69
-70
-71
-71
-73
-74
-73
-70
-65
-60
-56
-53
-51
-48
-44
-42
-41
-42
-45
-47
-48
-49
-50
-51
-52
-52
-52
-51
-49
-49
-49
-50
-52
-54
-55
-56
-60
-67
-73
-77
-79
-81
-84
-85
-86
-85
-82
-75
-64
-44
-24
-4
7
13
17
20
18
14
6
-3
-16
-24
-27
-27
-28
-29
-30
-30
-32
-34
-36
-36
-36
-35
-33
-32
-32
-30
-29
-26
-25
-25
-27
-29
-29
-29
-29
-29
-30
-30
-30
-29
-29
-29
-29
-28
-28
-29
-29
-30
-32
-34
-37
-41
-45
-49
-51
-50
-48
-45
-39
-26
-4
16
34
47
55
60
65
70
72
70
63
55
49
44
39
36
34
33
32
31
29
28
32
42
48
53
56
58
59
59
59
58
56
54
51
48
46
45
46
47
48
51
54
62
81
110
138
163
188
203
219
231
247
268
296
336
394
474
571
681
796
911
1017
1104
1168
1201
1203
1185
1133
1052
938
792
627
460
308
186
100
44
7
-20
-44
-60
-76
-90
-95
-98
-98
-98
-98
-98
-99
-101
-102
-103
-104
-104
-105
-106
-106
-104
-102
-100
-98
-97
-96
-94
-93
-91
-89
-87
-86
-85
-84
-83
-83
-82
-81
-82
-82
-82
-81
-79
-77
-70
-58
-47
-32
-14
6
28
47
64
80
96
112
123
131
139
148
157
165
176
190
205
219
242
264
288
305
325
345
367
382
388
393
394
388
378
362
342
316
286
253
220
189
161
132
102
72
43
15
-9
-36
-54
-73
-88
-97
-104
-112
-121
-131
-136
-139
-141
-143
-145
-146
-145
-140
-133
-124
-113
-102
-93
-84
-78
-75
-72
-71
-69
-70
-73
-79
-85
-90
-94
-98
-102
-103
-104
-103
-101
-99
-96
-94
-91
-88
-85
-84
-83
-83
-83
-83
-84
-84
-86
-86
-87
-88
-89
-89
-89
-89
-88
-87
-86
-85
-87
-88
-89
-90
-91
-92
-94
-97
-100
-104
-108
-111
-113
-112
-110
-107
-103
-95
-78
-59
-37
-21
-11
-8
-9
-9
-7
-5
-6
-12
-22
-29
-33
-36
-36
-36
-36
-37
-38
-37
-35
-32
-29
-26
-25
-25
-25
-25
-24
-23
-24
-25
-28
-31
-34
-36
-37
-38
-40
-42
-47
-52
-56
-58
-60
-61
-64
-67
-71
-76
-80
-84
-88
-92
-96
-98
-100
-101
-102
-100
-94
-86
-72
-50
-39
-33
-30
-28
-28
-27
-28
-30
-34
-39
-43
-46
-48
-50
-50
-50
-49
-48
-46
-45
-43
-41
-40
-40
-40
-40
-41
-43
-44
-45
-45
-45
-45
-44
-43
-42
-41
-38
-36
-35
-34
-33
-32
-32
-33
-34
-35
-35
-36
-37
-39
-41
-44
-47
-50
-52
-53
-51
-46
-40
-34
-24
-14
1
20
40
58
75
91
106
124
144
162
180
195
205
210
216
223
228
231
232
232
233
234
237
242
247
252
255
258
260
263
270
285
305
321
334
349
360
368
375
370
348
313
273
233
200
172
147
122
96
65
35
2
-29
-57
-74
-88
-98
-103
-108
-112
-113
-110
-101
-88
-70
-50
-36
-32
-31
-30
-29
-29
-30
-32
-33
-34
-35
-35
-33
-31
-29
-27
-24
-18
-7
3
13
20
26
31
36
44
53
62
70
76
84
95
108
122
138
154
168
183
199
217
236
257
278
299
320
340
360
379
394
404
410
414
416
417
416
412
405
396
385
376
367
359
351
341
328
314
296
275
256
229
200
169
139
110
81
48
27
3
-17
-36
-57
-75
-88
-99
-107
-112
-117
-124
-130
-136
-142
-146
-150
-157
-164
-170
-174
-177
-180
-182
-183
-184
-186
-187
-189
-190
-191
-191
-192
-193
-194
-196
-199
-203
-207
-210
-211
-212
-211
-209
-206
-202
-196
-188
-174
-160
-146
-132
-118
-109
-102
-98
-97
-100
-106
-112
-118
-125
-133
-139
-144
-148
-150
-151
-153
-156
-158
-159
-156
-149
-142
-135
-132
-130
-129
-128
-126
-123
-122
-122
-124
-125
-126
-124
-122
-119
-116
-115
-116
-117
-117
-117
-116
-117
-118
-121
-125
-128
-132
-135
-137
-139
-143
-146
-148
-146
-141
-132
-117
-93
-79
-72
-66
-62
-61
-60
-61
-64
-69
-75
-81
-85
-88
-90
-93
-96
-98
-100
-99
-97
-93
-90
-87
-85
-84
-83
-82
-82
-82
-83
-86
-89
-92
-94
-95
-97
-97
-97
-96
-94
-91
-89
-88
-88
-89
-89
-90
-91
-93
-94
-97
-101
-105
-109
-113
-115
-116
-115
-114
-111
-106
-96
-79
-47
-24
-10
-3
-3
-4
-3
-1
0
-1
-4
-7
-11
-14
-17
-18
-18
-18
-19
-18
-17
-14
-11
-8
-5
-3
-2
0
3
10
26
35
46
63
82
105
133
160
180
194
206
217
229
242
251
256
261
265
273
286
303
319
332
343
351
363
383
406
429
449
465
481
494
504
513
514
501
461
421
376
330
280
229
182
138
96
68
35
6
-18
-45
-57
-61
-64
-66
-68
-68
-68
-66
-64
-64
-64
-65
-65
-65
-66
-67
-70
-73
-76
-78
-78
-76
-73
-70
-68
-66
-64
-61
-58
-55
-52
-50
-48
-45
-42
-39
-36
-34
-30
-26
-16
0
15
36
61
85
113
145
176
208
235
258
280
302
327
349
365
381
395
407
415
421
425
428
431
432
430
426
419
410
399
383
369
351
327
303
276
247
217
187
157
128
101
76
52
29
7
-13
-32
-49
-65
-80
-98
-115
-128
-141
-151
-159
-168
-178
-190
-204
-212
-215
-217
-218
-219
-220
-217
-209
-197
-181
-161
-148
-142
-138
-135
-133
-132
-132
-134
-138
-142
-146
-149
-151
-153
-155
-158
-159
-159
-156
-151
-146
-141
-138
-136
-135
-133
-132
-132
-132
-133
-135
-137
-139
-140
-141
-142
-143
-143
-144
-144
-145
-147
-149
-151
-151
-152
-153
-155
-157
-160
-165
-169
-172
-174
-173
-171
-168
-164
-160
-154
-141
-112
-89
-74
-68
-66
-66
-65
-64
-63
-65
-70
-78
-85
-91
-94
-97
-99
-101
-101
-101
-99
-97
-96
-95
-95
-94
-93
-93
-93
-94
-95
-96
-98
-100
-101
-102
-101
-101
-100
-100
-100
-100
-101
-102
-102
-103
-106
-109
-111
-113
-114
-116
-119
-122
-126
-131
-135
-136
-134
-131
-127
-120
-111
-98
-78
-63
-57
-53
-52
-52
-52
-52
-53
-54
-57
-60
-61
-61
-61
-59
-58
-55
-53
-49
-45
-40
-36
-31
-27
-23
-19
-16
-14
-13
-12
-11
-11
-11
-11
-11
-10
-10
-9
-7
-5
-4
-4
-5
-7
-9
-10
-11
-11
-13
-17
-22
-26
-30
-35
-36
-29
-16
2
25
59
100
147
197
245
274
298
312
315
316
318
318
315
308
299
293
289
287
286
284
284
287
294
304
318
339
354
372
390
403
412
407
386
345
295
245
202
161
136
108
84
62
39
13
-11
-34
-58
-69
-75
-80
-85
-89
-92
-94
-95
-96
-98
-100
-101
-101
-98
-95
-92
-88
-84
-78
-70
-52
-34
-19
-7
3
12
17
20
21
22
22
24
27
30
32
34
37
42
53
71
85
97
109
121
138
160
178
192
204
220
240
260
281
301
319
336
356
375
389
404
414
420
426
430
431
430
425
419
411
402
388
373
353
331
301
269
248
224
200
177
153
129
108
93
84
76
65
50
35
18
0
-20
-41
-62
-82
-103
-122
-141
-157
-170
-183
-187
-189
-192
-194
-196
-197
-197
-197
-196
-195
-196
-197
-197
-196
-197
-199
-200
-201
-201
-201
-200
-198
-196
-194
-193
-191
-189
-188
-186
-184
-184
-185
-185
-184
-183
-183
-184
-186
-189
-192
-193
-192
-190
-191
-190
-189
-183
-165
-143
-122
-108
-100
-95
-91
-88
-85
-85
-87
-91
-95
-97
-98
-100
-101
-102
-102
-100
-99
-98
-97
-96
-93
-88
-83
-80
-78
-76
-73
-70
-68
-69
-72
-76
-78
-79
-79
-79
-81
-82
-83
-83
-83
-84
-85
-87
-90
-95
-101
-105
-108
-109
-110
-113
-117
-120
-121
-119
-116
-112
-107
-95
-73
-51
-35
-29
-28
-27
-26
-25
-25
-28
-34
-39
-43
-45
-47
-49
-51
-53
-54
-52
-51
-50
-50
-49
-48
-47
-46
-47
-48
-49
-49
-48
-46
-45
-45
-44
-42
-39
-36
-35
-34
-33
-32
-29
-25
-24
-23
-23
-22
-21
-20
-21
-23
-25
-27
-28
-29
-30
-30
-28
-24
-15
3
21
41
59
72
79
81
81
81
81
79
77
74
72
72
72
73
72
73
74
77
84
98
126
152
175
208
240
272
302
320
335
344
350
355
359
361
362
363
364
369
376
388
405
417
427
437
449
469
492
508
518
523
529
536
530
506
462
408
355
311
276
245
226
206
186
165
146
118
89
61
34
17
2
-10
-23
-31
-35
-38
-40
-43
-45
-46
-45
-42
-38
-35
-30
-26
-22
-19
-16
-13
-11
-8
-6
-5
-4
-4
-3
-1
0
2
3
4
8
13
17
22
29
39
51
62
72
82
92
102
113
126
141
153
166
190
218
249
278
304
330
359
391
424
457
477
497
512
519
524
526
521
511
495
474
456
435
413
389
364
340
316
291
265
241
220
201
182
161
137
114
91
71
50
28
8
-13
-29
-41
-55
-71
-88
-103
-113
-120
-125
-131
-138
-144
-149
-153
-157
-161
-166
-171
-175
-180
-184
-187
-189
-188
-183
-176
-168
-157
-140
-119
-106
-97
-90
-86
-83
-82
-83
-87
-91
-98
-104
-109
-112
-114
-117
-119
-121
-123
-122
-119
-116
-111
-107
-102
-98
-94
-93
-93
-94
-96
-99
-101
-101
-100
-99
-98
-97
-96
-96
-95
-94
-92
-91
-89
-88
-86
-84
-82
-82
-82
-83
-85
-87
-91
-95
-98
-100
-100
-100
-97
-90
-78
-60
-41
-21
-8
-2
1
3
3
1
-2
-8
-14
-20
-25
-29
-32
-35
-36
-37
-38
-38
-39
-39
-38
-37
-36
-36
-36
-38
-39
-39
-39
-39
-39
-42
-45
-48
-50
-49
-48
-48
-50
-52
-54
-56
-57
-58
-58
-60
-62
-65
-71
-80
-88
-94
-98
-100
-101
-101
-99
-97
-92
-83
-66
-47
-25
-12
-6
-2
-1
0
0
0
-2
-5
-9
-12
-15
-18
-20
-21
-22
-21
-20
-18
-16
-15
-15
-14
-13
-10
-9
-8
-8
-9
-9
-10
-11
-13
-15
-16
-18
-18
-18
-16
-15
-14
-14
-14
-8
6
23
43
66
88
108
127
146
165
180
191
200
209
218
226
236
250
262
277
296
316
337
354
363
367
372
381
393
408
418
426
433
436
442
442
425
392
349
301
254
212
178
150
133
115
99
73
46
16
-2
-17
-25
-33
-42
-50
-54
-57
-58
-60
-63
-65
-66
-66
-67
-67
-68
-68
-69
-69
-68
-68
-69
-70
-70
-69
-66
-62
-57
-50
-37
-26
-11
7
27
47
63
74
84
93
103
113
122
132
141
150
159
170
187
204
221
238
257
276
307
336
365
395
413
428
445
461
473
477
478
478
478
477
472
465
454
436
416
395
373
352
330
305
276
251
215
180
157
130
103
76
48
21
-2
-23
-41
-57
-75
-93
-107
-118
-123
-124
-123
-122
-122
-123
-125
-128
-131
-134
-138
-143
-150
-157
-164
-169
-173
-176
-179
-181
-185
-186
-186
-184
-181
-177
-174
-171
-168
-165
-162
-159
-158
-157
-158
-158
-159
-161
-163
-164
-165
-165
-165
-164
-164
-163
-162
-162
-162
-164
-167
-170
-173
-176
-179
-183
-187
-193
-197
-200
-200
-196
-191
-185
-176
-163
-141
-119
-110
-105
-103
-100
-98
-96
-96
-97
-99
-102
-105
-107
-109
-110
-112
-113
-114
-114
-113
-111
-108
-105
-102
-100
-99
-99
-99
-98
-97
-97
-97
-97
-97
-95
-93
-92
-92
-92
-92
-90
-89
-88
-87
-88
-88
-87
-86
-87
-91
-96
-101
-106
-111
-117
-125
-132
-135
-133
-129
-124
-118
-105
-81
-58
-42
-33
-29
-27
-24
-23
-25
-29
-36
-42
-46
-49
-52
-55
-58
-61
-63
-63
-59
-55
-49
-43
-38
-33
-28
-25
-21
-18
-17
-17
-18
-20
-20
-18
-15
-12
-11
-12
-12
-11
-7
-4
-3
-4
-5
-7
-7
-6
-6
-9
-13
-16
-18
-20
-21
-21
-20
-17
-13
-7
-1
9
28
44
58
69
80
91
102
113
128
147
169
192
217
240
261
281
297
307
316
322
326
329
333
336
339
341
344
351
360
369
375
379
382
389
405
425
438
445
449
453
454
452
442
409
368
320
287
250
222
181
142
100
53
26
-2
-27
-48
-74
-93
-105
-111
-110
-104
-94
-83
-69
-58
-51
-45
-42
-42
-47
-50
-51
-52
-53
-54
-55
-57
-58
-57
-54
-50
-46
-41
-37
-32
-27
-22
-15
-8
-1
3
7
10
14
19
25
32
39
48
57
68
78
89
101
116
130
145
160
178
197
216
234
253
272
293
308
319
326
331
333
336
339
342
345
346
345
343
340
336
330
321
305
279
255
231
196
164
133
111
85
59
32
7
-17
-36
-51
-65
-80
-96
-111
-121
-132
-142
-150
-159
-167
-174
-178
-182
-187
-192
-198
-203
-206
-207
-209
-210
-213
-215
-217
-218
-218
-217
-217
-216
-216
-216
-217
-218
-219
-220
-221
-222
-222
-221
-219
-216
-214
-211
-200
-179
-160
-137
-120
-110
-106
-106
-112
-119
-124
-132
-141
-148
-151
-153
-154
-152
-151
-151
-152
-154
-153
-149
-142
-136
-133
-131
-130
-130
-129
-128
-126
-124
-123
-124
-124
-124
-124
-125
-125
-123
-121
-119
-118
-118
-118
-119
-120
-122
-122
-124
-128
-133
-139
-145
-150
-154
-155
-154
-152
-147
-141
-128
-106
-88
-76
-69
-66
-63
-61
-60
-60
-65
-72
-81
-90
-98
-106
-111
-112
-113
-114
-115
-115
-115
-113
-110
-108
-106
-105
-104
-102
-100
-98
-98
-99
-101
-103
-104
-103
-103
-103
-104
-104
-104
-103
-102
-102
-102
-102
-103
-104
-104
-104
-105
-106
-108
-109
-110
-110
-108
-106
-103
-102
-100
-91
-70
-49
-28
-13
-6
-1
1
5
8
10
10
9
7
6
6
7
7
6
5
5
5
6
8
10
12
15
16
17
18
20
22
26
37
45
53
65
80
97
126
157
180
205
225
239
254
267
276
286
294
300
305
308
311
318
330
341
352
361
373
389
409
443
478
510
539
568
578
584
580
547
498
439
378
321
269
220
177
138
101
63
26
-7
-36
-48
-62
-68
-71
-73
-74
-76
-78
-81
-83
-84
-83
-82
-81
-81
-82
-82
-81
-78
-76
-74
-73
-71
-69
-66
-64
-62
-59
-55
-50
-44
-38
-33
-30
-28
-25
-22
-19
-13
-5
5
15
29
45
70
97
126
155
183
211
238
265
294
313
335
355
374
391
407
423
436
445
454
461
466
469
470
470
469
465
458
447
427
406
387
361
338
311
281
249
218
190
163
136
110
85
59
45
19
-7
-26
-49
-70
-90
-108
-127
-143
-160
-177
-190
-200
-209
-215
-219
-222
-225
-227
-225
-221
-214
-204
-191
-180
-174
-171
-168
-165
-164
-164
-167
-172
-177
-181
-183
-186
-187
-188
-188
-188
-186
-183
-179
-174
-168
-164
-161
-157
-154
-153
-151
-150
-148
-148
-149
-149
-149
-149
-149
-149
-148
-147
-146
-146
-146
-146
-147
-148
-148
-149
-149
-151
-153
-155
-156
-156
-155
-155
-154
-153
-152
-150
-145
-132
-119
-104
-85
-66
-48
-33
-25
-21
-20
-25
-34
-47
-60
-65
-67
-69
-71
-72
-72
-71
-69
-68
-67
-67
-66
-65
-64
-64
-64
-64
-65
-65
-65
-65
-67
-70
-74
-76
-78
-79
-79
-82
-85
-88
-91
-93
-94
-95
-97
-98
-101
-104
-107
-114
-121
-128
-134
-140
-143
-144
-142
-137
-131
-123
-111
-99
-81
-65
-59
-57
-56
-56
-57
-57
-58
-59
-62
-65
-67
-69
-70
-70
-69
-70
-70
-70
-68
-65
-62
-59
-57
-55
-52
-49
-44
-38
-34
-31
-30
-29
-29
-27
-26
-24
-23
-23
-22
-21
-19
-17
-16
-15
-15
-15
-15
-17
-20
-22
-25
-26
-26
-25
-22
-15
-2
20
53
97
144
189
227
256
274
286
295
300
301
294
282
272
263
256
254
256
258
261
263
266
272
286
298
314
331
354
384
420
430
435
430
391
343
296
257
222
191
157
126
96
67
37
18
-2
-20
-33
-44
-55
-64
-71
-77
-83
-90
-98
-105
-111
-115
-118
-120
-121
-120
-118
-113
-106
-92
-73
-56
-39
-25
-15
-6
-2
0
0
0
0
0
1
3
4
5
6
7
10
19
36
52
69
87
101
115
127
140
156
174
192
209
224
239
256
276
296
317
337
351
362
374
382
389
393
395
395
393
388
381
370
352
335
317
291
265
242
219
205
188
170
148
128
110
99
93
85
73
56
35
17
1
-13
-28
-47
-70
-90
-108
-124
-134
-142
-153
-159
-164
-167
-170
-171
-171
-171
-171
-170
-170
-171
-171
-170
-170
-170
-171
-174
-176
-178
-178
-177
-175
-174
-173
-173
-173
-173
-172
-170
-168
-168
-169
-171
-172
-173
-174
-175
-175
-175
-174
-174
-173
-173
-172
-166
-151
-135
-118
-103
-93
-88
-85
-81
-79
-79
-81
-86
-91
-95
-98
-102
-105
-107
-108
-107
-104
-102
-100
-96
-90
-80
-63
-57
-56
-56
-56
-55
-53
-52
-52
-54
-55
-56
-55
-54
-53
-52
-51
-51
-52
-52
-53
-54
-55
-57
-58
-60
-62
-64
-67
-70
-74
-79
-81
-80
-75
-68
-61
-51
-41
-28
-9
7
18
22
24
24
25
25
23
16
8
2
-2
-6
-9
-11
-12
-12
-11
-7
-2
2
4
6
7
8
9
10
11
11
10
9
7
6
5
4
3
2
2
2
3
4
5
5
3
1
0
1
1
1
-2
-6
-11
-15
-18
-19
-19
-17
-15
-12
-8
2
21
39
57
74
86
90
93
93
92
87
82
76
68
61
56
51
47
45
48
55
64
78
99
124
150
174
198
222
246
263
276
283
287
290
299
313
325
332
338
349
364
388
412
426
440
452
475
502
533
551
566
573
578
583
577
552
506
449
391
336
289
248
214
189
173
158
143
117
87
60
37
22
11
4
-3
-11
-16
-19
-22
-25
-28
-30
-30
-29
-26
-23
-20
-16
-11
-3
3
9
11
12
12
12
13
14
15
17
18
20
22
24
28
34
43
49
54
59
66
72
80
91
103
117
131
148
167
183
198
212
235
261
290
320
349
381
415
449
481
511
536
547
553
558
559
554
543
527
509
485
461
445
427
411
387
358
323
286
252
230
209
188
167
147
126
106
79
51
22
-6
-23
-41
-60
-75
-87
-96
-103
-111
-122
-131
-140
-146
-151
-155
-157
-160
-164
-167
-169
-171
-174
-178
-182
-187
-190
-191
-188
-183
-178
-170
-154
-137
-115
-99
-89
-83
-82
-84
-84
-84
-85
-86
-89
-92
-94
-96
-97
-98
-100
-101
-101
-100
-98
-95
-91
-88
-86
-84
-83
-82
-81
-82
-83
-84
-85
-88
-89
-91
-92
-92
-91
-90
-89
-87
-85
-83
-82
-82
-83
-85
-87
-88
-90
-93
-100
-112
-120
-125
-127
-128
-126
-123
-117
-107
-89
-72
-52
-39
-33
-29
-27
-27
-28
-32
-37
-43
-49
-57
-64
-67
-70
-73
-74
-74
-73
-71
-70
-68
-67
-66
-64
-64
-66
-69
-71
-74
-77
-80
-81
-82
-81
-80
-79
-79
-80
-80
-79
-78
-79
-81
-83
-85
-85
-83
-84
-84
-86
-88
-89
-90
-91
-93
-96
-98
-99
-95
-87
-75
-57
-37
-17
0
10
12
13
14
16
16
15
11
7
3
0
-1
-4
-7
-10
-11
-12
-10
-7
-2
2
7
12
15
17
18
18
17
15
10
4
1
0
0
0
0
0
-1
-1
2
9
21
39
53
66
86
111
139
167
192
206
217
225
233
240
245
249
252
253
255
258
265
277
286
291
293
294
294
295
297
303
310
317
322
326
332
338
334
315
283
244
205
173
146
124
109
93
78
54
27
-3
-31
-55
-66
-74
-76
-77
-79
-81
-85
-87
-88
-85
-80
-76
-74
-74
-74
-73
-71
-68
-67
-68
-70
-72
-73
-72
-70
-69
-69
-67
-64
-57
-39
-22
-4
15
35
54
70
82
94
103
111
119
127
135
143
154
167
181
195
218
241
263
283
303
324
348
373
390
407
423
432
440
446
448
444
436
426
412
399
387
366
343
318
293
272
252
229
205
179
154
129
104
77
47
26
0
-24
-47
-68
-85
-101
-112
-121
-132
-139
-143
-145
-145
-145
-145
-145
-146
-146
-146
-145
-148
-154
-165
-179
-188
-193
-195
-198
-202
-204
-203
-199
-195
-191
-189
-186
-183
-181
-181
-181
-181
-181
-180
-178
-178
-178
-178
-177
-176
-173
-171
-169
-169
-170
-169
-168
-168
-169
-171
-173
-175
-177
-177
-178
-180
-183
-187
-189
-190
-190
-190
-189
-187
-184
-177
-163
-140
-117
-96
-87
-84
-82
-79
-76
-76
-77
-80
-83
-86
-89
-90
-91
-92
-93
-93
-91
-89
-87
-86
-84
-82
-80
-79
-79
-78
-77
-77
-77
-78
-80
-82
-84
-85
-85
-86
-87
-89
-91
-92
-94
-95
-96
-98
-100
-104
-109
-113
-117
-120
-124
-128
-131
-134
-135
-136
-135
-131
-124
-113
-94
-78
-67
-60
-57
-56
-55
-54
-54
-55
-57
-61
-65
-69
-72
-75
-78
-79
-80
-80
-80
-78
-74
-70
-65
-61
-58
-56
-55
-54
-52
-51
-49
-49
-48
-46
-44
-40
-38
-34
-31
-28
-25
-23
-21
-21
-21
-20
-20
-19
-18
-19
-21
-23
-27
-28
-28
-27
-26
-25
-22
-19
-14
-1
21
40
56
70
85
102
119
136
151
163
175
187
203
225
247
264
274
280
288
301
317
334
349
358
368
383
403
425
445
461
478
495
514
534
554
566
572
576
577
574
567
547
510
466
419
370
322
275
232
193
156
117
72
24
-19
-56
-84
-93
-97
-100
-99
-89
-76
-61
-48
-37
-28
-23
-19
-17
-17
-17
-18
-19
-20
-21
-21
-21
-22
-22
-20
-18
-16
-14
-12
-9
-5
-2
0
5
9
14
19
24
30
36
42
47
54
65
78
88
100
115
132
150
170
190
213
233
250
268
287
304
319
335
348
359
371
381
388
393
397
400
404
407
409
410
407
403
397
389
372
354
332
305
278
252
225
197
168
136
108
83
62
42
21
0
-20
-36
-44
-52
-61
-69
-77
-85
-93
-100
-106
-112
-119
-128
-136
-141
-145
-149
-152
-153
-153
-154
-155
-157
-159
-161
-163
-163
-166
-169
-173
-177
-183
-188
-193
-196
-196
-192
-187
-183
-178
-171
-159
-139
-121
-111
-105
-100
-96
-92
-90
-92
-98
-107
-116
-123
-128
-132
-138
-143
-146
-149
-152
-152
-151
-148
-145
-142
-140
-138
-136
-134
-133
-132
-133
-133
-134
-134
-134
-133
-132
-131
-130
-129
-128
-127
-128
-129
-130
-131
-132
-133
-135
-137
-140
-142
-143
-145
-149
-153
-159
-166
-168
-167
-162
-153
-141
-123
-99
-84
-77
-73
-72
-71
-70
-71
-74
-77
-80
-82
-86
-90
-93
-97
-99
-100
-100
-100
-100
-97
-93
-89
-86
-85
-85
-86
-87
-89
-91
-93
-95
-97
-100
-102
-103
-103
-101
-101
-102
-104
-105
-106
-106
-107
-109
-111
-112
-113
-113
-113
-114
-116
-118
-119
-120
-122
-121
-116
-108
-97
-82
-59
-40
-24
-9
0
5
8
8
6
4
2
1
-1
-4
-7
-8
-8
-5
-2
-1
0
0
3
8
13
16
17
16
17
21
28
41
50
58
73
97
123
149
175
199
219
234
244
248
251
252
252
250
247
244
240
237
237
238
241
242
243
243
244
249
263
292
321
350
385
412
432
445
434
397
350
302
271
238
206
176
147
119
89
59
26
9
3
-1
-6
-10
-12
-11
-9
-7
-6
-6
-6
-7
-8
-11
-14
-16
-17
-16
-15
-15
-16
-18
-17
-15
-11
-7
-3
0
4
8
12
16
19
22
24
27
30
33
37
43
51
66
77
93
115
137
163
193
225
260
293
323
350
373
395
415
434
452
474
492
504
512
516
519
522
524
525
524
516
504
484
456
431
408
388
370
342
314
282
252
224
197
167
134
100
68
48
29
10
-7
-26
-44
-60
-74
-88
-102
-120
-136
-148
-162
-173
-182
-190
-197
-202
-207
-212
-215
-215
-212
-206
-197
-184
-166
-150
-142
-138
-136
-133
-130
-129
-130
-131
-132
-133
-133
-134
-135
-136
-137
-137
-137
-136
-136
-135
-133
-130
-127
-123
-117
-111
-108
-105
-103
-103
-103
-104
-104
-103
-104
-103
-102
-101
-100
-100
-101
-102
-103
-104
-106
-107
-108
-109
-110
-111
-112
-114
-116
-119
-123
-126
-128
-126
-121
-115
-103
-84
-64
-43
-30
-25
-22
-23
-21
-20
-19
-20
-23
-27
-31
-35
-37
-39
-40
-41
-41
-42
-43
-42
-40
-38
-36
-35
-35
-36
-37
-39
-40
-42
-43
-45
-48
-50
-51
-51
-51
-49
-48
-47
-47
-48
-48
-49
-49
-50
-53
-56
-60
-64
-69
-73
-77
-79
-81
-80
-77
-71
-62
-50
-39
-28
-14
3
16
23
28
29
30
31
31
29
26
21
17
14
11
9
8
7
6
8
12
19
25
29
32
34
35
34
34
36
38
39
39
38
36
35
35
36
37
37
37
34
31
29
28
27
27
26
25
23
21
19
20
24
30
39
53
74
98
123
154
190
231
270
305
334
359
381
396
406
411
413
413
415
418
424
432
443
449
457
468
480
493
507
519
531
542
553
560
555
535
495
445
391
340
294
251
212
179
147
114
78
39
4
-23
-39
-50
-57
-63
-69
-74
-76
-77
-79
-82
-86
-90
-91
-91
-90
-88
-86
-83
-80
-74
-61
-45
-27
-7
9
21
28
32
36
38
40
41
41
41
41
43
45
47
49
53
59
69
79
93
110
127
143
160
178
194
209
222
237
254
271
287
300
312
325
338
355
366
372
376
379
379
380
379
378
374
369
361
346
331
315
296
275
253
231
210
191
173
157
142
127
115
106
97
89
80
68
52
32
13
-4
-20
-35
-51
-68
-85
-104
-117
-125
-130
-134
-136
-138
-140
-140
-140
-138
-137
-136
-138
-140
-142
-144
-147
-149
-151
-152
-154
-154
-154
-154
-154
-155
-154
-152
-149
-147
-147
-147
-148
-148
-147
-146
-146
-148
-151
-154
-157
-158
-157
-156
-155
-154
-153
-146
-129
-111
-91
-76
-66
-63
-62
-61
-60
-60
-63
-68
-73
-76
-78
-80
-80
-81
-81
-81
-79
-77
-73
-68
-64
-61
-60
-59
-59
-58
-57
-55
-55
-55
-56
-59
-62
-64
-66
-67
-68
-70
-71
-73
-75
-77
-79
-80
-82
-84
-88
-94
-100
-105
-111
-116
-121
-123
-122
-120
-117
-112
-101
-83
-67
-56
-45
-39
-36
-33
-30
-27
-26
-29
-33
-37
-41
-45
-49
-53
-57
-61
-65
-66
-65
-62
-58
-52
-48
-44
-42
-40
-38
-38
-37
-38
-39
-40
-42
-42
-41
-39
-37
-36
-35
-34
-33
-32
-31
-31
-31
-32
-34
-35
-36
-36
-36
-36
-37
-38
-38
-35
-31
-28
-25
-16
-7
7
29
51
66
72
72
72
71
72
74
73
71
68
66
64
65
65
67
71
77
92
111
130
160
188
216
248
270
290
302
304
305
305
304
302
300
297
295
295
297
302
306
311
320
329
341
359
379
398
417
433
445
453
452
440
406
353
296
247
209
177
159
130
104
87
75
67
60
53
47
37
22
9
-1
-11
-15
-17
-17
-17
-17
-18
-21
-22
-22
-20
-17
-14
-12
-9
-6
-3
0
4
10
15
20
24
26
28
30
32
35
39
45
53
61
68
74
81
90
100
113
128
143
158
173
189
208
226
246
264
280
299
320
341
372
402
433
464
494
525
544
558
567
571
570
565
557
545
526
506
483
456
429
402
373
344
318
281
244
218
188
162
139
117
96
77
58
39
20
0
-22
-44
-63
-76
-88
-101
-114
-129
-138
-143
-145
-148
-151
-156
-161
-166
-168
-171
-173
-175
-178
-181
-185
-188
-190
-191
-192
-191
-188
-185
-181
-175
-167
-155
-133
-114
-104
-97
-91
-87
-84
-83
-85
-88
-93
-97
-100
-102
-103
-105
-107
-107
-107
-106
-104
-103
-102
-100
-99
-98
-97
-97
-98
-98
-99
-98
-98
-99
-99
-100
-100
-100
-98
-96
-93
-91
-89
-88
-86
-85
-83
-82
-81
-81
-82
-83
-84
-85
-86
-88
-91
-92
-92
-89
-86
-82
-76
-65
-53
-37
-19
-8
-3
0
0
0
0
-1
-5
-10
-14
-17
-20
-22
-23
-25
-27
-29
-28
-26
-25
-25
-26
-26
-26
-25
-24
-24
-26
-28
-30
-32
-33
-33
-34
-35
-36
-37
-37
-38
-38
-38
-38
-40
-42
-44
-47
-50
-53
-55
-58
-61
-64
-67
-69
-72
-73
-73
-70
-65
-57
-41
-19
-2
14
24
28
31
33
33
31
27
22
17
13
10
6
3
1
0
0
0
2
4
7
10
14
16
18
18
19
18
17
16
16
15
13
11
11
11
12
16
23
36
53
65
78
101
126
155
186
206
225
241
250
258
266
270
273
275
276
277
280
287
302
325
347
368
387
406
427
449
469
487
497
502
504
500
491
468
423
369
316
269
230
199
169
139
105
69
35
7
-7
-17
-25
-36
-48
-59
-70
-75
-78
-80
-83
-85
-86
-86
-87
-88
-89
-88
-88
-88
-87
-88
-88
-87
-86
-84
-82
-81
-80
-80
-79
-78
-75
-73
-69
-60
-53
-41
-24
-3
15
35
52
67
82
96
111
123
133
142
154
169
182
197
211
228
247
267
289
310
330
349
369
386
395
401
404
405
403
399
391
379
360
343
327
313
297
280
259
234
210
185
164
144
123
100
76
53
33
16
1
-12
-28
-48
-71
-92
-106
-117
-122
-126
-129
-131
-132
-131
-128
-123
-120
-117
-116
-115
-113
-113
-115
-118
-122
-125
-128
-130
-132
-134
-136
-137
-139
-139
-137
-135
-132
-130
-128
-127
-125
-124
-122
-121
-120
-119
-120
-120
-121
-121
-121
-122
-122
-122
-122
-122
-122
-122
-123
-126
-130
-133
-135
-137
-139
-142
-146
-152
-157
-162
-162
-161
-159
-157
-153
-147
-134
-111
-93
-81
-73
-67
-63
-58
-55
-53
-54
-57
-60
-64
-67
-70
-74
-77
-79
-80
-79
-78
-77
-76
-75
-74
-72
-71
-70
-70
-70
-70
-71
-73
-74
-75
-75
-74
-74
-74
-73
-73
-72
-71
-69
-70
-72
-74
-76
-78
-80
-83
-87
-91
-96
-103
-109
-113
-115
-115
-112
-108
-101
-92
-81
-62
-48
-40
-37
-35
-34
-34
-34
-34
-34
-36
-39
-43
-45
-47
-49
-51
-53
-53
-53
-52
-50
-46
-42
-38
-33
-29
-25
-23
-20
-19
-18
-19
-20
-23
-25
-26
-27
-25
-23
-21
-19
-17
-17
-16
-16
-17
-19
-22
-24
-27
-30
-33
-37
-41
-45
-46
-45
-40
-33
-25
-17
-4
5
16
28
42
56
70
81
96
116
136
158
181
204
222
235
246
252
256
259
262
266
270
274
278
286
297
312
333
352
364
375
390
411
434
456
469
475
478
477
472
464
437
399
355
311
270
232
190
147
106
66
43
18
-7
-32
-56
-79
-97
-105
-111
-115
-116
-112
-101
-85
-65
-47
-29
-20
-17
-15
-15
-15
-15
-16
-18
-18
-19
-19
-18
-16
-13
-10
-7
-4
-1
2
9
20
30
36
42
48
55
62
67
73
79
85
93
104
117
131
142
157
177
197
217
235
253
272
291
310
332
352
367
380
388
393
397
401
402
403
403
401
397
393
389
385
379
367
356
341
321
300
277
250
220
185
151
120
92
67
41
15
-9
-32
-57
-75
-89
-104
-116
-126
-135
-144
-152
-159
-166
-173
-179
-186
-192
-197
-201
-204
-206
-208
-210
-211
-211
-212
-213
-215
-215
-215
-214
-215
-215
-214
-214
-215
-215
-215
-215
-216
-217
-218
-217
-213
-210
-206
-203
-199
-194
-184
-162
-143
-134
-131
-130
-129
-128
-127
-127
-127
-127
-128
-130
-133
-135
-135
-136
-135
-134
-132
-130
-128
-125
-122
-118
-116
-115
-116
-117
-118
-119
-119
-120
-121
-121
-122
-121
-121
-120
-118
-116
-115
-116
-117
-117
-118
-119
-120
-120
-121
-124
-127
-131
-134
-137
-139
-141
-143
-146
-147
-143
-133
-119
-103
-85
-76
-71
-69
-67
-67
-66
-66
-69
-74
-80
-85
-89
-93
-96
-98
-100
-102
-104
-104
-102
-101
-100
-100
-99
-99
-100
-100
-99
-98
-97
-97
-98
-97
-96
-95
-95
-93
-90
-89
-88
-87
-87
-87
-88
-89
-89
-89
-89
-90
-91
-93
-94
-95
-96
-96
-94
-92
-90
-88
-85
-80
-70
-47
-26
-7
9
15
17
17
16
14
11
8
6
5
2
0
-2
-3
-2
0
2
5
8
11
14
17
19
20
20
22
26
31
42
51
59
74
100
128
158
184
203
221
238
253
261
265
266
265
264
263
261
261
261
261
261
260
260
261
263
268
276
292
319
342
368
399
419
430
438
430
401
362
320
277
235
192
162
127
95
66
41
21
5
-11
-28
-43
-45
-44
-43
-43
-44
-44
-44
-42
-40
-38
-37
-39
-41
-44
-45
-45
-45
-44
-41
-39
-36
-33
-31
-29
-28
-25
-22
-19
-16
-14
-13
-11
-8
-3
2
9
18
26
33
41
58
84
107
131
155
179
207
236
267
296
319
336
350
364
379
393
407
418
427
434
439
444
447
448
448
447
443
435
421
398
375
352
333
321
305
280
248
218
188
163
146
129
105
75
51
33
16
1
-13
-30
-48
-66
-86
-103
-118
-132
-145
-154
-161
-167
-171
-174
-174
-173
-169
-162
-153
-143
-135
-130
-126
-123
-120
-117
-115
-115
-117
-120
-124
-128
-130
-132
-135
-138
-140
-141
-142
-141
-140
-138
-134
-130
-127
-125
-124
-124
-123
-122
-121
-121
-124
-128
-131
-132
-132
-132
-132
-131
-130
-129
-129
-130
-131
-132
-134
-135
-136
-137
-141
-145
-148
-151
-152
-152
-153
-154
-155
-154
-149
-141
-130
-117
-101
-77
-66
-60
-57
-56
-56
-57
-59
-61
-62
-66
-71
-76
-80
-82
-83
-82
-81
-79
-77
-75
-72
-68
-66
-64
-64
-65
-66
-66
-67
-69
-71
-74
-76
-78
-79
-80
-80
-80
-80
-80
-80
-81
-83
-86
-88
-90
-92
-96
-102
-108
-116
-123
-128
-131
-131
-129
-125
-120
-114
-105
-96
-84
-68
-54
-46
-41
-38
-37
-37
-38
-39
-42
-46
-49
-51
-52
-53
-55
-56
-56
-57
-56
-53
-50
-48
-47
-46
-44
-42
-38
-34
-31
-30
-31
-31
-31
-30
-30
-28
-27
-27
-27
-25
-22
-21
-20
-20
-19
-19
-19
-19
-19
-21
-24
-28
-30
-32
-31
-30
-28
-23
-8
12
42
83
128
167
202
234
257
274
293
305
312
317
320
324
328
332
337
345
357
369
382
401
428
455
486
522
557
578
591
598
597
590
578
540
492
440
385
349
312
274
235
193
148
104
60
22
-11
-42
-64
-80
-100
-110
-116
-122
-127
-132
-137
-140
-142
-142
-140
-134
-128
-121
-113
-105
-94
-77
-61
-49
-38
-32
-29
-28
-27
-26
-24
-21
-18
-17
-15
-13
-10
-5
0
6
15
25
35
47
61
75
88
100
114
131
150
170
190
209
229
248
268
287
306
324
342
362
384
396
404
410
415
417
420
419
416
410
400
389
374
351
332
314
295
269
249
234
222
210
200
187
171
154
138
118
95
72
48
24
-1
-23
-42
-63
-89
-102
-112
-120
-126
-131
-136
-140
-141
-142
-141
-140
-140
-140
-141
-141
-141
-142
-144
-146
-149
-152
-154
-156
-158
-158
-157
-158
-158
-159
-159
-161
-162
-163
-164
-166
-170
-174
-178
-181
-183
-185
-185
-183
-180
-176
-170
-161
-151
-141
-131
-121
-112
-104
-99
-95
-93
-93
-94
-96
-99
-102
-105
-108
-109
-110
-111
-111
-110
-109
-108
-106
-103
-101
-98
-96
-95
-94
-93
-92
-91
-90
-89
-89
-90
-92
-94
-95
-94
-93
-93
-92
-91
-89
-88
-88
-86
-85
-86
-87
-88
-90
-93
-98
-103
-107
-109
-111
-110
-106
-98
-88
-77
-65
-55
-46
-39
-32
-25
-18
-13
-10
-10
-10
-10
-11
-14
-16
-19
-22
-26
-28
-29
-29
-29
-30
-29
-28
-26
-23
-21
-18
-17
-17
-18
-19
-18
-18
-17
-16
-17
-17
-18
-18
-17
-16
-14
-13
-12
-13
-12
-11
-11
-11
-12
-14
-16
-18
-20
-21
-20
-19
-16
-13
-10
-4
2
12
34
54
68
80
86
91
96
100
101
100
97
94
93
92
93
92
90
88
87
88
93
100
106
113
119
130
157
184
211
239
268
289
304
315
322
327
331
333
334
334
332
329
325
323
323
324
326
328
331
333
338
346
357
369
380
393
405
414
418
415
408
397
382
364
338
315
296
277
261
244
225
201
173
144
125
111
99
89
80
71
64
60
58
57
54
53
52
54
57
61
66
69
70
70
69
68
68
68
67
65
63
61
60
61
64
68
70
73
75
78
81
85
88
93
100
109
117
124
130
137
145
158
176
196
214
235
260
282
314
351
384
421
455
478
501
515
525
533
538
539
536
528
516
502
484
455
431
408
386
362
338
315
294
274
252
223
194
166
136
106
75
46
19
-2
-21
-39
-55
-70
-85
-102
-119
-132
-142
-150
-158
-167
-177
-187
-194
-200
-206
-211
-216
-222
-228
-233
-237
-238
-237
-235
-231
-225
-218
-209
-200
-190
-182
-176
-172
-169
-167
-165
-163
-164
-166
-169
-173
-177
-180
-181
-182
-182
-184
-186
-187
-186
-185
-182
-180
-176
-174
-172
-170
-168
-166
-166
-166
-166
-166
-167
-167
-169
-171
-171
-172
-171
-170
-168
-167
-168
-168
-169
-170
-171
-172
-174
-176
-178
-181
-183
-184
-183
-180
-176
-171
-165
-157
-149
-141
-133
-124
-116
-110
-104
-101
-100
-103
-109
-114
-119
-122
-126
-129
-132
-134
-135
-135
-133
-131
-128
-126
-124
-123
-122
-122
-122
-123
-124
-125
-125
-126
-127
-129
-131
-132
-132
-131
-130
-129
-129
-130
-131
-132
-133
-133
-134
-135
-136
-137
-138
-140
-141
-142
-142
-141
-138
-133
-127
-121
-116
-109
-101
-89
-64
-43
-32
-25
-23
-24
-26
-28
-30
-33
-35
-37
-39
-40
-41
-41
-40
-38
-36
-33
-30
-26
-24
-22
-21
-21
-20
-19
-17
-16
-15
-14
-15
-15
-16
-17
-17
-17
-17
-17
-17
-17
-18
-19
-20
-21
-19
-17
-13
-9
-6
0
20
39
66
99
133
165
195
223
251
286
318
342
369
387
398
405
412
420
428
436
444
453
463
478
495
512
529
543
550
550
547
540
530
516
487
435
383
329
277
227
176
130
88
46
12
-11
-35
-54
-71
-83
-92
-97
-99
-100
-101
-104
-105
-106
-106
-105
-104
-103
-102
-103
-103
-100
-95
-91
-86
-81
-74
-64
-44
-24
-3
9
17
23
29
33
38
44
47
49
51
53
56
61
66
73
81
89
98
109
124
142
162
181
199
217
233
250
267
286
307
322
336
348
356
360
363
365
368
370
371
370
369
366
358
349
339
325
302
280
257
236
214
192
170
146
123
99
76
60
50
42
35
28
20
11
2
-7
-18
-30
-42
-57
-74
-92
-107
-120
-131
-139
-146
-152
-155
-158
-160
-161
-161
-161
-162
-162
-160
-158
-157
-157
-158
-159
-160
-160
-160
-160
-161
-163
-163
-163
-161
-158
-157
-155
-155
-155
-154
-152
-150
-149
-149
-149
-149
-149
-150
-151
-153
-154
-154
-153
-150
-146
-141
-137
-133
-126
-114
-91
-71
-60
-52
-49
-48
-47
-45
-46
-48
-52
-55
-57
-59
-61
-63
-65
-65
-65
-62
-57
-53
-49
-46
-43
-40
-38
-36
-34
-34
-36
-38
-39
-39
-39
-39
-39
-40
-41
-41
-41
-39
-38
-40
-42
-45
-49
-52
-55
-58
-61
-66
-71
-77
-82
-87
-89
-87
-78
-64
-47
-32
-22
-13
-5
0
3
6
8
9
9
6
2
0
-3
-6
-7
-8
-9
-11
-11
-10
-9
-8
-9
-9
-9
-9
-8
-7
-5
-5
-5
-6
-7
-6
-5
-4
-3
-1
0
1
3
5
6
7
8
9
9
10
9
8
6
4
2
1
1
2
3
4
6
8
11
18
36
57
79
92
100
106
110
111
113
113
113
111
109
106
104
104
105
108
113
118
128
149
172
203
239
268
289
314
326
333
338
341
342
341
339
337
334
333
333
334
337
341
343
345
347
353
364
385
406
423
442
461
466
474
471
430
376
315
277
240
205
182
170
160
151
144
136
128
119
108
94
77
59
49
43
40
37
33
29
27
26
27
27
27
28
29
31
35
39
43
46
49
52
56
60
62
64
65
67
68
70
73
80
88
96
103
110
117
124
133
144
156
169
181
191
202
212
223
240
261
279
296
313
331
357
390
422
455
488
519
548
575
590
599
604
605
601
592
578
560
533
507
482
458
433
399
360
330
306
281
258
234
205
175
147
120
98
79
61
41
18
-7
-30
-46
-59
-74
-92
-110
-121
-129
-135
-140
-147
-153
-159
-164
-166
-168
-170
-172
-174
-178
-182
-187
-191
-194
-196
-197
-196
-192
-184
-174
-162
-150
-139
-131
-125
-119
-115
-111
-107
-104
-103
-104
-105
-106
-107
-107
-108
-108
-110
-111
-112
-113
-113
-112
-112
-112
-111
-110
-108
-106
-105
-105
-105
-105
-104
-104
-102
-102
-102
-102
-101
-100
-98
-96
-95
-94
-93
-93
-94
-94
-94
-95
-96
-98
-100
-102
-105
-107
-108
-108
-106
-104
-102
-99
-94
-88
-76
-51
-38
-29
-24
-22
-22
-21
-22
-23
-27
-29
-32
-36
-40
-45
-48
-51
-52
-52
-51
-50
-47
-45
-44
-43
-43
-43
-43
-42
-42
-42
-42
-43
-45
-48
-51
-54
-56
-57
-58
-58
-59
-60
-61
-63
-64
-67
-70
-74
-79
-83
-86
-88
-89
-90
-90
-91
-90
-88
-83
-75
-66
-54
-35
-20
-10
-2
2
5
7
9
10
8
6
2
0
-2
-5
-8
-11
-13
-14
-15
-15
-14
-13
-12
-11
-11
-9
-8
-7
-6
-5
-4
-4
-4
-4
-4
-4
-3
-2
0
1
3
6
9
11
19
40
58
80
109
132
149
166
184
202
221
238
251
262
274
288
305
322
345
373
398
424
446
462
479
496
511
526
538
547
555
561
563
561
554
544
514
469
417
360
322
282
248
218
186
153
116
77
38
6
-18
-45
-59
-66
-72
-77
-82
-85
-89
-92
-95
-97
-98
-99
-99
-101
-103
-106
-108
-110
-110
-111
-110
-109
-106
-102
-99
-95
-90
-83
-75
-62
-37
-19
-3
9
23
35
44
51
57
63
69
73
79
87
99
112
126
141
158
176
193
212
237
263
288
308
327
346
364
373
380
386
391
393
393
391
387
381
374
365
351
329
311
293
277
261
240
216
194
171
149
128
108
85
60
34
8
-18
-40
-56
-72
-80
-84
-86
-88
-89
-89
-91
-92
-95
-97
-100
-104
-109
-114
-119
-124
-129
-135
-140
-145
-149
-150
-150
-148
-145
-141
-137
-133
-130
-128
-126
-125
-123
-122
-122
-122
-124
-125
-127
-128
-130
-132
-134
-135
-135
-136
-136
-137
-138
-138
-137
-138
-139
-140
-141
-142
-144
-145
-145
-144
-142
-140
-138
-135
-131
-125
-118
-107
-87
-74
-65
-61
-58
-56
-55
-54
-54
-55
-57
-60
-63
-65
-67
-68
-69
-69
-68
-68
-67
-66
-65
-64
-62
-61
-60
-59
-59
-58
-58
-59
-59
-60
-61
-63
-63
-64
-64
-64
-64
-64
-65
-66
-68
-70
-71
-73
-74
-75
-78
-82
-87
-93
-99
-102
-103
-100
-96
-90
-82
-72
-59
-39
-25
-20
-16
-14
-13
-13
-13
-14
-16
-18
-21
-24
-26
-29
-30
-32
-32
-32
-32
-30
-28
-25
-23
-22
-21
-19
-17
-16
-14
-13
-12
-12
-12
-13
-14
-14
-14
-13
-11
-9
-7
-6
-6
-5
-5
-5
-6
-7
-9
-11
-14
-18
-22
-24
-25
-24
-22
-21
-19
-16
-12
-3
16
39
53
60
65
68
69
72
76
79
81
82
85
89
102
126
149
175
198
215
234
251
265
276
287
293
296
299
301
304
309
314
320
324
329
338
349
363
380
401
421
440
458
471
482
492
492
479
439
390
340
292
246
198
167
132
97
65
34
1
-21
-31
-36
-38
-35
-25
-15
-10
-5
0
3
4
4
2
1
0
-1
-2
-4
-4
-4
-3
-1
0
3
8
14
20
27
33
39
45
51
55
58
61
64
67
70
72
76
82
90
99
110
121
132
143
156
172
191
209
228
244
266
291
312
335
357
373
389
407
424
443
460
475
488
497
503
508
513
516
516
512
502
488
463
427
396
362
325
288
248
212
177
144
118
98
78
58
38
17
-2
-17
-33
-49
-65
-80
-99
-119
-128
-134
-140
-146
-152
-157
-162
-164
-165
-166
-167
-167
-169
-171
-173
-175
-176
-176
-177
-177
-178
-179
-182
-185
-187
-189
-189
-187
-182
-177
-171
-165
-157
-148
-135
-114
-98
-90
-85
-83
-82
-83
-83
-83
-84
-86
-88
-91
-94
-96
-98
-99
-100
-100
-98
-96
-93
-89
-86
-84
-82
-81
-80
-79
-77
-75
-73
-72
-73
-74
-75
-76
-76
-74
-73
-72
-71
-71
-73
-74
-75
-75
-76
-77
-80
-83
-87
-90
-92
-92
-91
-89
-86
-84
-80
-76
-69
-60
-48
-26
-17
-14
-13
-12
-12
-13
-14
-20
-29
-37
-43
-48
-52
-54
-56
-55
-54
-53
-51
-50
-49
-48
-48
-47
-47
-46
-45
-45
-46
-48
-50
-52
-54
-56
-56
-55
-53
-52
-52
-51
-51
-51
-50
-50
-49
-48
-48
-49
-50
-51
-52
-53
-53
-51
-48
-46
-44
-41
-38
-33
-23
0
19
37
54
59
60
59
59
58
58
56
54
52
49
47
44
42
40
39
39
41
43
44
46
46
47
48
48
49
50
50
51
50
51
51
52
53
55
58
61
71
96
120
147
175
204
228
245
260
271
279
289
299
316
339
381
435
505
588
679
772
857
927
967
982
974
947
894
829
754
664
556
431
302
179
79
12
-20
-40
-53
-66
-77
-81
-84
-86
-88
-90
-93
-95
-97
-98
-97
-97
-97
-97
-98
-99
-100
-100
-100
-100
-100
-99
-98
-97
-96
-95
-93
-91
-89
-88
-86
-84
-82
-80
-78
-77
-74
-72
-69
-65
-56
-45
-36
-26
-12
5
23
41
59
75
90
105
118
132
146
162
174
184
195
206
220
237
254
278
306
328
344
361
380
397
406
412
418
421
417
408
395
374
349
326
292
260
225
190
157
123
100
72
45
21
-1
-22
-42
-60
-79
-94
-105
-118
-125
-131
-136
-139
-142
-143
-142
-140
-137
-133
-127
-121
-112
-97
-88
-82
-78
-75
-73
-73
-74
-77
-82
-88
-93
-96
-99
-101
-103
-105
-106
-106
-106
-104
-103
-101
-100
-100
-100
-100
-100
-100
-100
-100
-101
-102
-104
-106
-106
-107
-107
-106
-106
-104
-103
-103
-103
-104
-105
-105
-106
-107
-109
-111
-113
-114
-117
-119
-121
-122
-122
-121
-118
-112
-104
-89
-66
-48
-35
-26
-22
-20
-19
-18
-18
-20
-24
-29
-34
-38
-42
-45
-47
-48
-48
-47
-45
-43
-40
-39
-38
-37
-36
-35
-34
-33
-32
-31
-32
-34
-36
-38
-40
-41
-41
-41
-42
-44
-46
-48
-50
-52
-55
-62
-71
-83
-90
-96
-102
-106
-109
-111
-111
-111
-108
-105
-100
-94
-86
-72
-58
-51
-46
-43
-40
-38
-37
-37
-39
-41
-44
-47
-50
-53
-55
-56
-57
-57
-57
-56
-55
-53
-52
-50
-49
-48
-48
-47
-47
-46
-44
-43
-42
-40
-39
-37
-36
-35
-34
-33
-32
-31
-30
-29
-30
-31
-32
-34
-35
-37
-38
-40
-41
-43
-43
-44
-43
-40
-38
-35
-31
-21
-8
9
30
46
58
71
84
96
109
126
145
161
178
196
215
231
243
253
261
270
279
292
306
320
337
356
378
404
427
451
472
503
535
571
608
644
665
682
693
694
686
664
625
579
531
483
429
365
286
199
112
35
-24
-67
-90
-106
-116
-122
-124
-127
-130
-129
-119
-104
-82
-64
-51
-45
-44
-43
-43
-42
-42
-42
-43
-45
-47
-48
-48
-48
-46
-44
-43
-40
-37
-33
-26
-13
0
7
11
15
18
23
28
33
38
45
51
58
70
88
107
126
142
154
167
184
205
226
248
269
290
311
332
352
373
387
394
399
402
405
406
408
409
409
410
410
408
403
396
384
361
337
310
280
255
217
180
141
101
75
46
20
-4
-30
-51
-66
-81
-91
-97
-102
-109
-117
-124
-130
-135
-139
-144
-149
-156
-161
-165
-168
-171
-173
-175
-176
-177
-178
-180
-182
-184
-186
-188
-189
-190
-192
-194
-196
-200
-204
-208
-213
-215
-216
-214
-209
-201
-192
-180
-161
-143
-133
-126
-120
-116
-114
-114
-114
-115
-118
-122
-125
-128
-132
-135
-137
-138
-139
-139
-139
-138
-137
-135
-133
-131
-130
-128
-126
-124
-121
-118
-116
-114
-114
-114
-114
-115
-115
-114
-113
-112
-111
-110
-111
-112
-112
-112
-112
-113
-113
-114
-116
-118
-120
-122
-124
-124
-123
-121
-119
-116
-113
-108
-100
-83
-64
-53
-44
-38
-34
-33
-34
-36
-41
-46
-53
-59
-64
-68
-71
-72
-73
-74
-74
-73
-71
-70
-69
-69
-69
-69
-69
-69
-69
-70
-71
-72
-73
-74
-75
-76
-76
-75
-73
-73
-73
-74
-75
-75
-77
-78
-81
-83
-85
-86
-89
-93
-96
-101
-104
-107
-107
-105
-99
-91
-81
-67
-46
-25
-15
-10
-6
-3
-1
0
1
2
1
-1
-3
-5
-7
-7
-6
-6
-5
-5
-4
-3
0
1
4
7
9
9
10
11
13
16
18
19
20
23
29
42
69
97
125
153
182
206
222
228
231
232
233
234
234
231
229
226
226
226
227
228
228
230
232
237
248
274
304
333
364
394
426
443
453
453
425
381
330
279
231
185
159
137
119
101
77
48
19
-7
-16
-18
-21
-24
-28
-31
-33
-34
-35
-35
-37
-39
-41
-43
-44
-45
-44
-44
-42
-42
-42
-42
-41
-40
-38
-37
-35
-34
-32
-30
-28
-27
-26
-24
-21
-19
-15
-4
6
17
33
55
75
98
124
149
172
196
214
228
243
263
285
304
326
345
360
378
396
414
429
438
446
450
453
455
454
450
444
435
420
398
380
362
341
316
290
263
236
212
190
168
144
118
90
61
37
20
2
-14
-32
-52
-73
-94
-114
-131
-145
-156
-164
-169
-174
-178
-180
-181
-178
-171
-163
-155
-148
-144
-141
-138
-135
-133
-132
-132
-134
-137
-140
-144
-147
-149
-150
-152
-152
-152
-151
-150
-148
-147
-145
-142
-140
-137
-134
-132
-130
-129
-129
-128
-128
-129
-130
-130
-130
-130
-131
-132
-133
-135
-137
-138
-140
-142
-144
-145
-148
-150
-153
-156
-158
-160
-164
-167
-170
-172
-168
-159
-146
-131
-112
-87
-77
-72
-69
-67
-66
-65
-65
-66
-69
-72
-76
-79
-81
-83
-84
-85
-86
-87
-87
-85
-83
-81
-80
-79
-78
-77
-76
-76
-76
-76
-76
-77
-78
-78
-78
-77
-78
-78
-79
-80
-82
-83
-84
-85
-85
-87
-89
-92
-94
-97
-99
-102
-107
-111
-114
-115
-113
-108
-99
-89
-78
-68
-60
-53
-47
-41
-36
-32
-30
-30
-31
-31
-33
-36
-39
-41
-42
-42
-41
-40
-37
-34
-30
-25
-22
-19
-17
-15
-13
-12
-11
-10
-11
-11
-12
-13
-15
-16
-16
-14
-13
-12
-10
-8
-7
-6
-5
-6
-6
-8
-9
-12
-15
-18
-21
-23
-24
-24
-23
-22
-21
-19
-14
-8
5
36
65
94
123
150
176
205
229
244
257
268
277
284
291
297
302
307
313
319
329
343
358
376
397
414
432
452
479
505
527
535
538
540
540
540
534
518
471
423
373
318
281
239
202
167
130
91
50
7
-34
-59
-75
-86
-95
-102
-107
-113
-118
-121
-123
-122
-115
-103
-89
-73
-52
-37
-26
-20
-16
-15
-15
-16
-16
-17
-17
-16
-14
-13
-11
-9
-6
-4
0
4
10
17
29
41
51
62
71
79
86
93
99
106
115
126
136
147
160
176
193
211
229
249
266
281
297
314
329
344
354
357
357
356
355
355
356
357
356
350
340
329
320
311
302
294
286
279
267
248
221
195
169
144
121
91
54
24
1
-22
-43
-60
-76
-94
-105
-114
-120
-127
-133
-139
-146
-154
-160
-164
-166
-169
-171
-174
-177
-180
-181
-183
-183
-183
-183
-184
-185
-186
-187
-187
-188
-189
-190
-191
-193
-195
-196
-197
-197
-197
-195
-192
-189
-185
-180
-175
-168
-160
-148
-127
-110
-101
-96
-94
-94
-95
-96
-97
-99
-102
-105
-109
-113
-117
-119
-120
-120
-119
-116
-113
-109
-106
-103
-101
-99
-96
-94
-91
-89
-87
-85
-85
-85
-86
-86
-86
-85
-84
-84
-84
-85
-86
-88
-90
-93
-95
-98
-101
-104
-108
-111
-114
-116
-117
-116
-114
-111
-106
-100
-94
-87
-79
-72
-64
-55
-47
-40
-36
-34
-36
-39
-45
-51
-57
-64
-70
-74
-76
-78
-80
-80
-79
-76
-75
-73
-73
-73
-72
-72
-71
-71
-72
-73
-75
-76
-78
-79
-79
-79
-78
-77
-75
-75
-74
-73
-73
-72
-71
-72
-73
-75
-76
-78
-80
-83
-84
-83
-79
-74
-70
-65
-60
-53
-45
-32
-2
14
24
29
32
32
31
30
30
29
27
25
22
19
18
18
18
19
20
21
23
25
27
29
30
31
33
37
40
43
47
52
57
67
92
115
139
164
190
216
240
264
278
285
291
296
299
304
308
313
318
324
332
344
358
373
393
418
448
478
508
534
553
568
577
577
569
552
499
439
370
320
264
213
166
120
77
35
-1
-45
-71
-83
-93
-101
-105
-108
-111
-113
-114
-114
-114
-113
-113
-113
-113
-112
-111
-111
-110
-108
-106
-104
-101
-96
-92
-88
-85
-82
-79
-75
-71
-67
-63
-59
-55
-50
-46
-42
-35
-28
-18
-6
13
32
52
76
104
131
159
186
210
233
257
279
300
322
346
364
378
391
407
422
433
444
454
463
469
472
472
469
464
455
445
433
415
382
352
321
291
263
235
208
179
150
123
100
75
49
20
-4
-24
-42
-59
-77
-95
-116
-141
-162
-185
-202
-207
-207
-206
-207
-207
-208
-207
-204
-200
-196
-192
-187
-182
-178
-176
-175
-175
-176
-177
-179
-181
-184
-187
-190
-192
-193
-194
-193
-192
-190
-189
-187
-185
-182
-178
-176
-173
-172
-171
-170
-169
-169
-170
-170
-169
-169
-169
-169
-169
-169
-168
-167
-167
-167
-168
-169
-171
-174
-177
-180
-181
-182
-184
-185
-185
-185
-183
-180
-177
-172
-165
-154
-135
-117
-103
-92
-86
-82
-80
-78
-77
-76
-77
-80
-84
-88
-91
-94
-97
-98
-99
-99
-98
-97
-96
-94
-93
-91
-90
-89
-88
-87
-87
-87
-86
-87
-90
-91
-93
-93
-93
-94
-94
-95
-97
-99
-102
-104
-107
-109
-112
-115
-119
-123
-129
-135
-142
-149
-153
-156
-156
-152
-142
-129
-114
-100
-88
-81
-75
-70
-65
-62
-60
-58
-57
-58
-60
-63
-67
-70
-73
-74
-75
-75
-74
-72
-70
-67
-65
-63
-61
-59
-56
-53
-49
-46
-43
-41
-39
-39
-38
-37
-34
-30
-27
-25
-23
-22
-22
-22
-22
-22
-22
-21
-21
-23
-26
-29
-31
-32
-33
-34
-32
-31
-30
-28
-25
-20
-7
28
61
93
126
158
190
221
249
263
270
274
275
275
275
276
279
282
284
287
290
294
300
305
311
318
331
349
368
386
402
416
430
440
446
445
439
429
416
388
342
298
251
212
183
153
122
92
58
25
-7
-40
-58
-72
-84
-93
-100
-106
-109
-107
-99
-89
-78
-68
-59
-51
-43
-36
-30
-24
-19
-15
-12
-12
-12
-13
-14
-14
-12
-10
-7
-3
0
4
10
16
23
32
42
52
62
71
79
87
96
105
116
128
140
153
167
185
207
226
242
263
287
316
342
364
382
399
408
416
423
429
433
434
434
433
428
422
414
407
398
389
379
363
345
329
312
294
273
251
227
199
165
130
99
73
47
21
0
-16
-32
-51
-73
-91
-100
-105
-110
-115
-121
-126
-133
-138
-144
-149
-154
-158
-161
-165
-169
-172
-173
-175
-176
-176
-177
-177
-176
-175
-175
-175
-174
-174
-175
-177
-179
-182
-184
-186
-187
-187
-186
-185
-183
-181
-175
-166
-154
-142
-130
-120
-115
-111
-109
-108
-107
-107
-107
-108
-110
-112
-115
-119
-122
-124
-125
-126
-126
-125
-124
-122
-122
-121
-121
-120
-118
-116
-114
-112
-111
-110
-110
-110
-109
-108
-107
-106
-105
-104
-103
-102
-101
-102
-102
-103
-103
-104
-105
-107
-109
-111
-114
-116
-116
-116
-113
-110
-106
-101
-94
-87
-79
-71
-64
-58
-51
-44
-39
-34
-32
-32
-34
-38
-44
-51
-58
-64
-68
-70
-71
-71
-71
-70
-68
-67
-66
-65
-64
-62
-61
-60
-60
-60
-60
-61
-61
-61
-62
-62
-62
-62
-63
-64
-65
-66
-68
-69
-71
-74
-76
-78
-80
-83
-85
-88
-88
-88
-87
-84
-80
-73
-65
-57
-47
-36
-27
-17
-8
0
5
10
13
15
15
13
11
8
6
4
2
1
0
0
0
0
1
4
7
10
11
12
14
17
22
27
33
40
47
54
64
87
112
134
157
179
199
217
233
246
257
266
273
279
285
291
300
309
318
326
336
348
367
392
418
446
476
508
530
543
556
571
578
567
541
499
438
380
322
265
210
167
132
93
54
18
-14
-26
-32
-38
-43
-48
-51
-54
-54
-54
-54
-55
-56
-57
-57
-56
-55
-56
-57
-59
-60
-60
-59
-58
-56
-55
-54
-53
-53
-53
-52
-50
-48
-45
-44
-41
-37
-32
-24
-18
-13
-7
-1
6
19
56
87
112
138
163
186
208
231
256
282
308
331
351
370
391
409
421
431
441
451
459
465
468
470
468
463
456
446
434
421
407
389
356
327
302
271
237
206
181
160
137
113
89
64
41
19
0
-17
-35
-55
-76
-95
-114
-131
-143
-154
-163
-171
-178
-184
-188
-190
-189
-185
-179
-171
-161
-152
-143
-137
-132
-129
-128
-127
-127
-128
-130
-133
-137
-141
-145
-147
-148
-149
-148
-147
-146
-143
-141
-138
-136
-134
-133
-131
-130
-130
-130
-129
-129
-130
-131
-131
-132
-133
-132
-132
-131
-132
-132
-134
-136
-138
-139
-142
-145
-149
-153
-157
-162
-165
-167
-167
-164
-161
-156
-151
-144
-136
-127
-117
-107
-97
-87
-79
-72
-67
-63
-62
-62
-65
-70
-75
-81
-86
-90
-93
-95
-96
-96
-94
-93
-91
-88
-87
-86
-86
-86
-87
-88
-89
-90
-92
-94
-96
-97
-99
-101
-102
-103
-104
-105
-106
-108
-110
-112
-114
-117
-119
-122
-124
-127
-130
-133
-135
-137
-137
-136
-133
-129
-124
-117
-108
-100
-91
-82
-75
-69
-64
-60
-57
-56
-55
-55
-57
-59
-63
-66
-68
-69
-68
-67
-64
-61
-57
-54
-51
-48
-46
-43
-40
-38
-36
-35
-35
-35
-35
-35
-36
-36
-35
-34
-33
-31
-30
-29
-29
-30
-31
-33
-34
-36
-37
-41
-45
-49
-52
-55
-55
-53
-49
-45
-39
-31
-24
-15
3
46
85
123
161
208
230
243
253
262
267
271
273
275
275
274
274
273
273
274
275
277
279
283
289
298
314
332
347
359
370
378
386
392
395
389
375
354
317
259
213
178
140
112
91
72
53
35
10
-20
-52
-69
-80
-90
-100
-108
-115
-119
-119
-113
-103
-91
-78
-66
-56
-47
-39
-31
-22
-15
-9
-5
-2
0
0
0
0
1
3
6
9
12
16
20
26
33
43
56
69
83
96
110
122
134
146
159
171
183
194
207
221
237
254
273
293
315
336
357
376
388
398
408
417
424
429
433
433
430
423
415
406
396
385
374
362
344
326
311
299
286
270
251
231
210
183
153
125
98
70
40
14
-7
-29
-53
-74
-93
-110
-128
-143
-148
-151
-156
-160
-163
-167
-170
-173
-176
-179
-183
-187
-191
-194
-196
-197
-197
-196
-195
-195
-196
-197
-199
-199
-199
-199
-200
-200
-201
-202
-203
-204
-207
-208
-208
-205
-202
-198
-194
-188
-182
-175
-168
-161
-155
-148
-142
-135
-129
-123
-118
-115
-113
-112
-112
-113
-115
-116
-118
-120
-122
-123
-124
-124
-123
-121
-119
-117
-115
-113
-111
-109
-108
-106
-104
-102
-100
-99
-98
-98
-98
-98
-98
-97
-97
-96
-97
-97
-98
-100
-101
-103
-106
-110
-114
-117
-120
-122
-122
-122
-120
-117
-113
-108
-102
-96
-90
-85
-79
-73
-68
-64
-62
-60
-59
-59
-60
-62
-64
-67
-71
-73
-75
-76
-78
-78
-78
-77
-76
-75
-75
-75
-75
-75
-75
-75
-74
-74
-75
-75
-76
-77
-77
-78
-78
-77
-75
-74
-73
-72
-72
-72
-72
-71
-70
-70
-70
-71
-72
-73
-74
-75
-75
-75
-73
-67
-58
-45
-32
-20
-9
-1
5
11
17
21
25
27
29
30
30
28
26
24
24
23
24
24
25
26
27
28
29
31
34
38
43
48
53
59
65
75
100
125
151
176
201
228
255
270
280
287
294
300
306
311
317
324
330
336
342
350
359
369
381
398
417
439
463
488
506
522
534
538
533
521
504
473
424
379
332
284
233
179
127
78
27
-10
-34
-52
-66
-71
-74
-76
-79
-83
-87
-90
-92
-92
-92
-91
-91
-91
-90
-90
-91
-91
-91
-91
-89
-87
-85
-82
-80
-79
-76
-74
-71
-68
-64
-59
-55
-51
-48
-45
-42
-38
-34
-28
-14
2
16
30
45
67
97
127
157
189
219
244
265
287
310
332
352
369
384
397
405
413
420
427
431
434
436
436
434
429
422
413
403
392
375
343
317
291
264
234
203
173
144
119
98
77
55
32
11
-9
-28
-48
-69
-91
-113
-133
-152
-169
-178
-184
-188
-189
-189
-190
-190
-190
-188
-185
-182
-180
-177
-173
-168
-164
-161
-158
-158
-158
-158
-160
-162
-165
-169
-172
-174
-175
-176
-177
-177
-176
-174
-173
-171
-170
-168
-167
-165
-164
-163
-161
-160
-159
-158
-158
-158
-159
-159
-160
-159
-158
-157
-156
-156
-156
-157
-159
-160
-161
-162
-162
-163
-164
-165
-165
-164
-163
-162
-159
-155
-150
-144
-136
-120
-103
-92
-82
-76
-72
-69
-68
-67
-66
-66
-67
-68
-69
-71
-72
-74
-75
-76
-76
-76
-75
-73
-71
-70
-68
-67
-66
-66
-65
-65
-65
-65
-65
-66
-67
-69
-71
-73
-76
-77
-80
-82
-84
-86
-89
-92
-96
-100
-104
-108
-111
-114
-117
-123
-129
-136
-141
-144
-142
-133
-120
-104
-90
-79
-72
-68
-64
-60
-56
-54
-51
-49
-48
-48
-49
-52
-54
-56
-57
-58
-58
-57
-56
-54
-53
-52
-51
-51
-50
-48
-46
-44
-42
-40
-37
-35
-34
-33
-33
-31
-29
-26
-24
-22
-21
-19
-18
-18
-18
-20
-22
-24
-26
-28
-29
-31
-31
-30
-30
-29
-28
-26
-23
-18
-5
32
69
107
144
180
211
236
256
273
283
289
294
298
302
306
310
315
321
328
336
345
359
384
407
428
454
483
513
531
545
556
562
560
551
537
518
485
430
381
335
293
253
216
177
137
90
44
11
-19
-43
-63
-79
-91
-101
-108
-115
-121
-126
-130
-131
-129
-121
-109
-94
-80
-68
-60
-52
-46
-40
-34
-28
-23
-18
-14
-12
-11
-11
-11
-10
-8
-5
-2
1
6
11
18
26
37
48
59
71
84
97
110
123
136
149
162
178
199
218
238
259
280
303
328
351
374
389
396
401
405
409
413
416
417
417
413
405
393
381
369
356
343
329
316
304
293
282
270
255
239
223
205
181
148
120
94
67
35
11
-6
-24
-49
-72
-82
-88
-94
-99
-103
-107
-110
-114
-118
-122
-125
-128
-130
-133
-135
-137
-139
-140
-142
-143
-144
-146
-147
-147
-148
-148
-148
-148
-149
-149
-150
-151
-152
-154
-157
-159
-162
-164
-165
-165
-163
-158
-150
-139
-127
-116
-107
-101
-95
-91
-87
-84
-82
-82
-83
-84
-86
-90
-93
-97
-100
-103
-104
-105
-105
-104
-103
-102
-101
-99
-97
-95
-94
-92
-90
-87
-85
-84
-84
-84
-85
-85
-85
-85
-84
-83
-82
-82
-81
-82
-84
-85
-86
-87
-89
-90
-92
-95
-97
-99
-100
-100
-99
-97
-93
-87
-82
-75
-69
-63
-57
-50
-42
-33
-23
-15
-10
-7
-7
-10
-14
-20
-26
-31
-35
-37
-38
-38
-37
-37
-35
-34
-33
-32
-32
-32
-32
-32
-33
-34
-35
-37
-39
-41
-43
-45
-46
-48
-49
-50
-51
-53
-54
-57
-59
-61
-63
-65
-67
-70
-73
-76
-78
-79
-79
-78
-75
-72
-67
-61
-54
-47
-41
-35
-29
-24
-18
-14
-10
-8
-6
-5
-5
-6
-8
-11
-13
-15
-17
-18
-17
-16
-14
-11
-8
-4
-1
2
5
9
13
