-436
-525
-613
-697
-754
-776
-783
-777
-764
-754
-744
-735
-726
-718
-709
-700
-690
-679
-668
-657
-646
-636
-625
-613
-602
-592
-583
-575
-569
-562
-555
-548
-539
-531
-521
-504
-477
-453
-435
-416
-401
-390
-380
-371
-362
-356
-352
-347
-343
-339
-335
-331
-326
-321
-313
-302
-290
-278
-257
-229
-199
-170
-142
-118
-97
-70
-55
-51
-47
-45
-43
-42
-40
-38
-36
-33
-30
-28
-27
-26
-25
-25
-24
-22
-19
-12
-6
-3
-5
-12
-22
-32
-45
-60
-77
-86
-92
-97
-103
-107
-110
-113
-114
-115
-114
-114
-113
-112
-111
-109
-108
-107
-105
-105
-103
-101
-96
-93
-101
-117
-132
-148
-156
-149
-129
-70
53
210
374
541
681
781
818
815
767
664
531
384
237
122
34
-34
-56
-69
-79
-86
-94
-103
-110
-115
-119
-121
-122
-122
-122
-124
-125
-126
-126
-126
-126
-126
-125
-125
-125
-125
-125
-125
-125
-125
-124
-124
-123
-122
-120
-118
-116
-114
-112
-111
-109
-106
-103
-100
-95
-85
-75
-66
-58
-49
-38
-25
-11
1
13
23
30
36
40
43
46
49
50
52
53
53
52
49
45
40
34
28
18
8
0
-8
-20
-36
-54
-73
-91
-110
-129
-149
-170
-199
-231
-258
-287
-306
-318
-327
-335
-342
-345
-347
-350
-351
-352
-353
-354
-354
-355
-355
-355
-355
-355
-355
-355
-355
-354
-352
-349
-347
-344
-341
-338
-335
-332
-330
-327
-325
-323
-320
-315
-310
-305
-301
-298
-294
-290
-286
-281
-276
-269
-260
-248
-235
-228
-223
-219
-216
-213
-209
-206
-202
-199
-196
-193
-190
-188
-185
-182
-177
-170
-161
-153
-146
-137
-127
-115
-101
-85
-76
-70
-66
-62
-59
-56
-52
-49
-46
-43
-40
-37
-33
-29
-23
-18
-12
-7
-1
4
9
15
20
26
31
37
43
49
57
68
78
86
94
104
119
137
148
155
160
164
167
171
174
177
179
183
188
195
203
214
226
237
247
256
259
258
257
256
255
254
254
254
253
252
251
250
249
247
246
244
242
241
241
242
243
243
244
243
243
242
241
239
237
234
231
227
222
211
192
187
179
185
237
345
482
641
803
943
1048
1102
1107
1075
975
832
660
484
342
226
145
95
65
43
31
18
5
-16
-41
-61
-86
-107
-120
-134
-150
-160
-169
-176
-181
-184
-185
-185
-186
-186
-186
-187
-188
-188
-188
-187
-182
-175
-167
-160
-151
-142
-134
-127
-119
-108
-92
-75
-60
-49
-37
-24
-11
2
13
23
30
35
39
45
51
58
66
73
80
87
94
101
108
114
119
126
131
136
138
138
135
130
122
112
91
57
32
12
-4
-27
-55
-81
-107
-133
-159
-180
-195
-213
-232
-250
-267
-279
-288
-295
-304
-315
-325
-331
-337
-342
-346
-350
-353
-354
-355
-354
-352
-348
-344
-339
-334
-329
-326
-323
-320
-318
-316
-314
-313
-311
-310
-310
-309
-309
-309
-309
-309
-309
-309
-310
-310
-310
-310
-310
-310
-309
-308
-307
-305
-304
-302
-300
-298
-295
-292
-289
-286
-282
-271
-259
-249
-240
-230
-218
-204
-189
-175
-162
-148
-135
-129
-125
-121
-118
-115
-112
-110
-107
-105
-103
-101
-101
-101
-102
-102
-103
-104
-105
-105
-104
-102
-100
-97
-95
-92
-88
-83
-77
-71
-65
-61
-55
-50
-43
-37
-32
-27
-24
-21
-19
-17
-16
-15
-14
-12
-10
-7
-4
-1
2
7
13
21
33
53
69
82
92
104
115
128
144
160
171
179
186
195
204
213
223
233
243
253
262
269
276
281
286
291
293
296
301
320
382
488
648
860
1108
1347
1517
1573
1484
1266
982
711
495
376
354
356
357
358
358
358
357
357
357
357
357
359
362
365
368
370
373
375
377
379
381
384
386
388
390
393
395
399
403
407
411
415
419
423
426
429
432
434
435
437
438
440
441
443
445
447
450
451
452
453
453
454
454
455
457
460
466
473
482
492
506
522
543
559
572
582
591
600
607
614
621
625
625
621
613
604
592
573
555
540
526
513
499
483
464
447
431
414
394
377
363
351
340
335
331
329
326
324
322
319
317
314
312
310
308
307
304
300
293
277
263
244
219
199
184
165
149
135
125
116
107
103
100
97
91
82
70
59
47
37
33
30
30
30
32
35
40
45
45
41
33
24
16
5
-5
-18
-35
-54
-73
-83
-86
-86
-86
-89
-93
-99
-103
-104
-103
-99
-96
-93
-91
-89
-85
-80
-77
-76
-77
-78
-77
-77
-80
-85
-90
-93
-95
-95
-95
-94
-96
-99
-101
-102
-103
-105
-110
-120
-130
-140
-150
-156
-159
-161
-162
-163
-163
-163
-165
-167
-167
-165
-161
-154
-147
-142
-137
-134
-131
-126
-118
-108
-99
-95
-98
-104
-110
-116
-121
-128
-136
-150
-163
-174
-179
-181
-182
-185
-187
-188
-188
-186
-183
-182
-183
-185
-186
-186
-183
-181
-180
-182
-186
-192
-199
-204
-212
-227
-249
-244
-214
-123
11
200
428
667
883
1037
1090
1022
837
583
310
92
-72
-114
-122
-130
-137
-142
-142
-138
-135
-135
-138
-142
-146
-148
-148
-146
-144
-144
-144
-137
-125
-115
-106
-97
-87
-77
-70
-67
-65
-58
-45
-32
-23
-16
-11
-9
-9
-8
-4
0
3
3
2
1
2
4
7
10
12
14
14
15
19
26
35
48
68
87
105
122
140
152
160
165
169
173
178
182
184
186
190
193
196
197
196
189
177
156
128
103
72
45
28
15
-5
-37
-65
-84
-102
-115
-123
-131
-141
-151
-160
-167
-171
-174
-177
-178
-173
-165
-155
-145
-135
-117
-100
-86
-78
-73
-72
-73
-74
-73
-70
-67
-66
-64
-62
-58
-54
-54
-53
-53
-51
-50
-49
-48
-47
-46
-45
-46
-47
-50
-54
-58
-64
-70
-77
-83
-93
-103
-113
-123
-133
-141
-149
-157
-163
-169
-174
-179
-184
-188
-192
-196
-199
-201
-203
-203
-202
-199
-194
-187
-180
-171
-161
-147
-133
-123
-115
-111
-108
-105
-103
-102
-101
-100
-98
-95
-93
-90
-88
-86
-84
-83
-82
-81
-80
-78
-75
-72
-69
-65
-61
-56
-51
-47
-43
-39
-35
-29
-21
-7
20
41
67
100
132
165
194
216
237
245
249
252
255
257
258
260
261
262
262
262
262
261
260
259
258
258
257
258
258
258
257
257
257
257
258
258
257
256
255
254
252
250
248
246
243
240
236
230
213
204
209
222
259
357
512
726
975
1219
1430
1521
1513
1377
1115
826
532
330
241
213
198
188
179
167
152
132
117
106
98
90
84
75
61
41
20
9
2
-3
-8
-11
-13
-11
-5
1
10
20
30
44
59
75
90
97
102
107
110
113
115
116
117
118
120
121
121
121
121
120
121
121
121
122
122
123
125
128
132
136
142
151
161
170
178
185
192
199
205
210
213
213
210
206
199
191
173
144
120
91
63
43
23
8
-3
-14
-25
-36
-46
-55
-65
-77
-92
-107
-120
-135
-147
-152
-152
-151
-150
-149
-149
-148
-148
-147
-145
-142
-137
-132
-127
-123
-118
-114
-110
-108
-107
-108
-112
-118
-125
-133
-140
-146
-151
-156
-161
-166
-171
-176
-181
-185
-188
-191
-194
-197
-202
-207
-214
-224
-235
-247
-261
-273
-280
-285
-290
-294
-299
-302
-305
-307
-309
-311
-312
-312
-311
-309
-306
-302
-299
-296
-292
-287
-282
-278
-273
-267
-260
-252
-245
-238
-231
-225
-220
-217
-214
-211
-208
-205
-202
-199
-196
-193
-191
-189
-187
-184
-181
-178
-175
-170
-162
-152
-141
-131
-120
-110
-100
-91
-83
-76
-69
-65
-62
-61
-60
-59
-59
-59
-58
-58
-58
-59
-60
-60
-60
-60
-60
-59
-59
-59
-59
-58
-56
-54
-52
-50
-48
-46
-43
-39
-36
-34
-30
-25
-21
-18
-17
-18
-22
-26
-32
-40
-52
-69
-58
-23
55
180
357
580
820
1045
1179
1195
1131
933
670
407
213
106
66
61
66
68
68
69
70
70
70
69
67
66
64
61
58
55
51
48
46
47
50
54
58
62
65
69
74
78
81
81
80
78
75
71
68
64
60
56
54
53
57
63
71
81
91
106
120
134
146
156
165
172
178
183
188
191
195
199
203
207
210
214
219
224
231
238
244
249
255
261
266
271
274
275
273
270
266
259
251
239
217
200
177
146
113
79
54
40
30
19
10
7
5
3
2
1
0
0
-1
-1
-1
-2
-3
-4
-5
-5
-5
-5
-4
-4
-4
-3
-2
-2
-3
-4
-5
-7
-8
-9
-11
-12
-12
-12
-13
-13
-14
-15
-17
-18
-19
-20
-21
-21
-21
-20
-19
-18
-16
-15
-13
-11
-9
-8
-6
-5
-4
-3
-2
-1
0
0
2
4
5
7
9
10
12
14
16
18
19
21
23
26
29
32
34
37
39
41
43
44
46
48
50
51
53
55
57
59
61
63
65
67
70
72
76
80
86
93
101
108
113
116
119
122
124
127
129
132
135
138
142
144
146
145
144
140
136
130
124
119
115
113
111
110
109
107
105
103
100
96
92
88
84
82
81
80
81
81
82
83
83
82
80
78
75
73
70
67
64
58
41
25
10
-2
-1
15
61
154
296
488
718
954
1162
1287
1301
1244
1052
794
543
326
179
121
105
94
83
72
64
54
45
36
27
18
11
7
2
-2
-7
-11
-15
-17
-19
-19
-20
-21
-22
-22
-23
-23
-24
-26
-23
-8
2
10
18
26
34
41
45
48
51
54
57
59
63
66
70
74
78
81
85
89
97
111
125
137
147
155
162
169
174
179
183
187
190
193
197
200
203
207
210
214
217
219
218
215
210
203
194
177
150
129
105
78
49
16
-11
-31
-47
-63
-83
-109
-136
-160
-173
-182
-188
-194
-198
-202
-205
-208
-211
-213
-215
-217
-220
-224
-227
-228
-226
-221
-215
-212
-208
-204
-200
-198
-197
-197
-199
-201
-203
-207
-210
-211
-210
-209
-208
-207
-205
-204
-204
-206
-210
-214
-217
-220
-223
-227
-229
-229
-227
-223
-219
-215
-211
-207
-203
-199
-197
-196
-196
-198
-202
-207
-213
-221
-234
-241
-245
-249
-253
-256
-253
-245
-238
-232
-226
-219
-212
-206
-198
-191
-184
-181
-179
-177
-176
-175
-174
-173
-172
-172
-171
-170
-168
-167
-166
-166
-166
-165
-163
-161
-158
-155
-151
-145
-139
-130
-120
-111
-104
-98
-92
-86
-82
-81
-82
-84
-88
-91
-94
-96
-99
-103
-106
-109
-110
-109
-106
-102
-98
-94
-90
-87
-82
-78
-74
-71
-69
-68
-67
-67
-67
-67
-69
-71
-73
-76
-78
-81
-86
-96
-87
-58
19
145
318
532
767
969
1081
1087
1002
790
527
276
112
49
30
19
9
3
-2
-17
-38
-54
-67
-82
-98
-111
-114
-118
-123
-122
-110
-99
-89
-77
-65
-45
-22
-8
0
10
20
28
35
41
41
41
40
40
39
38
38
38
43
50
57
64
70
77
84
90
95
99
104
110
116
124
132
142
155
167
176
184
194
205
219
234
249
264
278
291
302
311
316
317
317
318
318
319
319
318
312
303
290
262
228
195
173
158
142
126
114
104
96
88
82
76
70
60
45
37
33
30
28
27
27
27
28
28
29
30
31
33
35
36
38
39
40
42
43
45
46
47
48
49
49
50
50
49
48
47
46
44
43
41
38
36
34
33
31
30
28
26
24
22
21
19
18
17
15
13
11
10
10
9
8
7
7
7
8
8
7
6
4
3
3
3
2
1
0
0
0
0
0
0
-1
-2
-3
-4
-5
-6
-7
-9
-10
-11
-13
-14
-16
-19
-21
-24
-27
-31
-35
-41
-48
-57
-74
-87
-95
-102
-108
-113
-115
-110
-99
-87
-78
-71
-63
-56
-51
-45
-41
-37
-33
-30
-27
-23
-19
-15
-12
-11
-14
-20
-28
-37
-50
-73
-95
-119
-139
-146
-150
-153
-155
-149
-135
-123
-111
-102
-95
-90
-86
-81
-77
-73
-71
-74
-80
-88
-98
-108
-124
-131
-128
-120
-95
-27
79
226
415
635
866
1044
1088
1069
926
687
418
206
49
10
-3
8
22
33
30
13
-10
-40
-53
-59
-64
-67
-69
-71
-73
-74
-74
-72
-70
-66
-62
-57
-51
-44
-34
-22
-14
-5
5
19
35
45
51
57
63
70
77
85
95
109
122
134
143
152
159
166
172
178
184
189
193
199
206
215
225
235
248
259
269
278
288
299
306
308
309
310
311
311
312
312
312
312
312
311
308
302
295
286
276
260
231
206
185
167
149
131
117
106
96
86
77
69
63
58
54
50
45
41
36
30
24
18
12
6
2
-2
-7
-12
-17
-21
-25
-27
-28
-30
-31
-32
-33
-34
-35
-36
-38
-41
-44
-48
-55
-64
-71
-76
-80
-83
-86
-89
-92
-95
-99
-102
-105
-107
-108
-110
-112
-114
-116
-117
-117
-117
-118
-119
-121
-123
-125
-126
-127
-127
-128
-129
-130
-130
-130
-128
-127
-124
-121
-118
-114
-110
-105
-101
-97
-94
-90
-85
-80
-75
-70
-67
-63
-60
-57
-53
-50
-47
-46
-45
-43
-41
-37
-33
-30
-28
-25
-23
-21
-19
-18
-17
-18
-18
-18
-18
-17
-16
-16
-16
-17
-18
-20
-22
-24
-27
-31
-35
-39
-42
-46
-50
-60
-71
-82
-93
-104
-113
-122
-131
-140
-147
-152
-156
-159
-161
-162
-163
-164
-164
-166
-167
-170
-173
-176
-178
-180
-182
-183
-186
-189
-192
-198
-211
-210
-186
-122
5
181
402
646
857
981
995
940
752
511
270
82
-66
-109
-121
-129
-134
-140
-146
-150
-153
-156
-159
-162
-164
-165
-165
-165
-166
-168
-169
-168
-165
-160
-155
-149
-142
-136
-129
-120
-109
-100
-92
-84
-76
-70
-65
-61
-57
-53
-49
-44
-40
-35
-31
-26
-21
-16
-10
-5
0
5
11
16
20
26
32
40
52
64
75
86
96
104
112
120
128
135
141
147
153
158
163
166
168
166
162
156
148
139
128
109
94
81
60
33
7
-21
-46
-64
-82
-99
-115
-132
-138
-140
-143
-146
-148
-149
-150
-151
-152
-153
-154
-154
-154
-154
-153
-153
-153
-153
-153
-151
-149
-147
-145
-144
-142
-140
-138
-136
-134
-133
-132
-131
-130
-129
-127
-126
-125
-124
-123
-121
-120
-118
-117
-116
-116
-115
-114
-112
-110
-107
-105
-103
-101
-98
-95
-92
-90
-88
-87
-84
-82
-79
-76
-75
-73
-72
-70
-67
-66
-64
-64
-64
-63
-63
-62
-61
-60
-60
-60
-59
-57
-56
-54
-52
-51
-49
-47
-46
-43
-41
-40
-37
-35
-32
-28
-22
-17
-11
-6
-1
3
9
14
19
24
29
34
41
49
56
63
69
75
80
85
88
91
93
94
96
97
98
99
99
100
100
101
101
101
100
99
97
94
92
90
87
85
84
83
83
83
83
84
84
83
82
81
79
77
75
73
70
66
62
57
51
43
28
20
28
52
119
241
410
625
857
1072
1247
1315
1251
1079
845
578
356
200
135
124
115
107
101
96
91
87
84
82
81
80
81
83
86
88
89
92
95
98
101
104
106
108
111
114
117
120
125
131
137
142
148
153
159
164
169
175
180
185
190
196
201
206
210
214
218
221
224
228
232
235
238
242
246
252
257
262
268
275
284
297
321
343
354
361
368
373
378
380
381
380
376
371
365
358
348
332
319
309
292
271
251
229
204
176
143
116
92
66
54
51
49
47
45
43
42
42
41
41
41
40
39
39
40
40
39
40
40
40
39
39
38
37
36
35
33
32
30
27
24
20
10
0
-15
-29
-44
-56
-66
-73
-79
-84
-90
-96
-103
-109
-114
-118
-122
-126
-129
-131
-133
-134
-135
-134
-133
-131
-129
-125
-121
-117
-112
-106
-96
-87
-78
-71
-68
-65
-63
-60
-58
-56
-55
-54
-53
-53
-52
-53
-53
-54
-54
-55
-55
-55
-56
-55
-55
-55
-54
-54
-53
-52
-52
-51
-50
-49
-48
-46
-44
-41
-38
-32
-24
-17
-12
-7
-2
0
4
7
11
13
15
16
17
18
18
17
16
15
13
11
8
6
2
-2
-15
-30
-41
-49
-58
-68
-77
-85
-91
-96
-101
-106
-111
-115
-119
-124
-128
-134
-139
-145
-150
-155
-160
-165
-172
-180
-190
-202
-216
-234
-237
-227
-200
-118
13
207
441
699
932
1070
1079
989
753
452
172
-35
-105
-128
-113
-85
-83
-131
-193
-206
-207
-207
-204
-192
-185
-182
-181
-180
-178
-177
-177
-175
-174
-173
-172
-171
-169
-168
-166
-164
-162
-160
-159
-157
-155
-153
-150
-147
-142
-137
-131
-127
-123
-120
-118
-116
-114
-111
-108
-104
-99
-93
-86
-80
-73
-65
-57
-47
-38
-28
-18
-7
0
7
13
17
21
25
30
34
38
42
46
50
55
61
63
61
54
45
29
6
-14
-37
-63
-86
-105
-125
-146
-167
-190
-213
-222
-225
-227
-229
-231
-232
-233
-235
-236
-237
-239
-241
-242
-243
-243
-243
-243
-243
-244
-244
-246
-249
-257
-261
-257
-248
-244
-241
-239
-236
-234
-232
-229
-226
-223
-221
-219
-216
-214
-212
-209
-203
-193
-183
-174
-165
-158
-151
-144
-136
-127
-114
-102
-91
-79
-68
-54
-36
-17
3
20
33
48
63
77
90
102
114
130
140
147
152
157
163
169
175
182
190
198
205
211
220
231
245
257
268
277
285
292
300
309
320
338
361
376
386
395
404
419
437
445
451
454
455
453
446
436
420
396
363
328
293
256
233
210
189
175
164
153
142
131
117
109
103
98
94
90
86
82
78
73
69
64
58
50
35
14
-1
-12
-18
-24
-29
-12
40
134
277
458
668
888
1065
1146
1105
933
671
389
144
1
-27
-37
-28
-17
-8
-9
-19
-24
-28
-32
-35
-38
-38
-39
-40
-40
-39
-38
-35
-32
-28
-24
-21
-18
-15
-12
-9
-6
-3
0
2
4
7
9
12
13
15
16
17
18
20
21
23
25
27
29
32
34
37
40
43
47
54
62
69
77
90
111
130
144
161
178
195
207
214
218
221
224
226
228
228
228
226
224
220
215
208
194
170
149
126
99
69
35
2
-29
-60
-85
-103
-117
-123
-128
-131
-133
-135
-136
-136
-136
-134
-132
-129
-126
-124
-122
-119
-115
-109
-105
-103
-103
-103
-104
-104
-105
-106
-109
-112
-115
-116
-113
-109
-104
-99
-91
-86
-87
-90
-91
-93
-95
-97
-98
-100
-102
-105
-107
-109
-109
-108
-106
-103
-101
-98
-94
-91
-87
-83
-81
-79
-77
-75
-72
-68
-64
-60
-56
-52
-49
-46
-44
-44
-43
-44
-44
-45
-46
-48
-50
-51
-52
-53
-55
-56
-58
-60
-62
-65
-71
-75
-69
-57
-49
-43
-37
-32
-28
-24
-20
-16
-11
-7
-3
1
6
8
6
0
-9
-21
-38
-51
-57
-59
-61
-63
-65
-66
-68
-69
-69
-68
-68
-67
-67
-67
-67
-67
-68
-70
-72
-74
-76
-78
-80
-83
-86
-90
-96
-111
-119
-112
-90
-30
94
273
492
736
975
1144
1201
1127
934
669
389
175
31
-8
-20
-27
-35
-41
-47
-51
-54
-57
-60
-62
-63
-62
-60
-58
-55
-52
-48
-46
-43
-40
-38
-37
-35
-34
-32
-30
-29
-27
-26
-26
-25
-25
-24
-23
-21
-19
-17
-15
-12
-8
2
11
20
26
30
33
36
39
43
46
49
53
57
63
73
91
113
130
144
155
165
173
178
182
186
188
191
193
194
194
194
192
190
187
183
177
170
154
127
107
83
58
32
4
-22
-43
-60
-78
-88
-94
-100
-104
-108
-111
-113
-115
-117
-118
-120
-122
-123
-123
-121
-118
-115
-113
-111
-109
-107
-105
-103
-102
-101
-101
-100
-100
-101
-102
-103
-104
-106
-106
-107
-107
-107
-107
-107
-107
-108
-109
-110
-110
-108
-104
-99
-94
-92
-90
-89
-87
-86
-85
-84
-84
-83
-82
-81
-79
-77
-76
-75
-74
-72
-71
-70
-69
-67
-66
-65
-64
-62
-60
-57
-55
-53
-50
-48
-45
-43
-42
-41
-40
-40
-38
-36
-32
-27
-19
-2
11
21
28
34
41
48
54
58
61
65
69
72
75
77
78
78
77
75
73
70
66
61
58
54
52
49
46
43
41
39
38
36
34
31
28
24
22
20
19
18
18
16
14
11
7
2
-12
-34
-49
-47
-11
70
206
394
612
845
1060
1210
1254
1174
982
724
458
234
95
40
22
10
1
-2
-6
-10
-13
-15
-16
-16
-16
-15
-13
-10
-7
-4
-1
1
4
6
9
11
14
16
17
20
22
25
27
29
31
33
36
41
49
57
63
68
73
78
83
88
93
98
103
107
112
117
122
127
132
139
146
154
162
169
176
183
192
203
216
229
236
241
246
249
252
254
256
256
256
255
252
249
244
238
231
214
186
149
116
85
53
32
10
-10
-25
-35
-43
-51
-64
-83
-98
-108
-115
-118
-120
-123
-125
-125
-125
-123
-121
-120
-118
-117
-116
-115
-115
-114
-114
-114
-114
-114
-114
-114
-115
-116
-117
-118
-119
-121
-122
-126
-128
-126
-122
-119
-115
-113
-114
-120
-129
-137
-147
-153
-155
-158
-159
-161
-162
-164
-165
-166
-168
-168
-169
-168
-168
-166
-165
-163
-161
-158
-155
-152
-149
-145
-141
-135
-128
-122
-117
-113
-110
-107
-104
-101
-99
-97
-95
-93
-91
-89
-87
-84
-81
-76
-66
-56
-42
-27
-20
-15
-12
-10
-10
-12
-17
-22
-28
-35
-46
-56
-64
-78
-91
-96
-100
-102
-104
-104
-100
-95
-90
-85
-81
-77
-73
-70
-67
-64
-62
-60
-57
-52
-49
-49
-53
-61
-74
-90
-103
-110
-100
-71
1
121
289
502
739
952
1095
1131
1041
837
568
304
104
-32
-80
-82
-61
-44
-34
-26
-27
-35
-40
-43
-46
-48
-50
-51
-52
-52
-52
-52
-52
-50
-47
-44
-41
-38
-35
-32
-28
-25
-22
-19
-15
-12
-8
-3
1
8
15
29
53
65
71
76
79
81
83
85
87
89
90
91
93
95
100
114
127
137
149
165
185
198
207
216
225
236
246
249
251
252
253
254
254
254
252
249
244
239
230
216
206
194
179
154
119
96
71
47
30
17
2
-13
-28
-35
-38
-40
-42
-43
-44
-44
-44
-42
-38
-33
-29
-25
-21
-16
-12
-7
-4
-1
1
5
12
12
6
0
-6
-6
-1
4
9
15
24
34
40
45
51
56
60
61
59
57
54
51
50
48
46
42
38
36
36
38
41
43
44
45
46
47
49
50
50
51
52
54
56
58
59
59
60
60
61
63
64
66
68
72
75
77
75
73
70
68
65
63
60
59
58
60
63
66
70
75
80
87
93
98
104
116
136
151
161
169
176
182
188
191
187
178
165
144
128
117
113
111
111
109
108
107
106
106
106
106
106
107
109
111
115
120
125
135
153
161
166
170
172
171
168
162
154
140
125
117
112
125
166
246
380
572
808
1058
1280
1390
1391
1287
1043
760
508
306
187
153
153
170
178
171
150
111
93
85
81
77
73
68
60
43
20
9
4
0
-1
-3
-7
-10
-14
-18
-23
-36
-52
-57
-61
-63
-64
-63
-58
-52
-42
-28
-21
-18
-16
-12
-8
-3
1
6
12
18
21
19
14
8
3
-2
-5
-4
0
10
24
45
62
81
103
123
133
138
142
145
147
148
148
148
147
146
143
139
135
126
108
91
72
51
28
2
-23
-51
-75
-88
-96
-103
-113
-123
-136
-153
-167
-178
-186
-194
-201
-206
-208
-210
-212
-213
-215
-215
-216
-216
-217
-217
-218
-218
-218
-217
-216
-215
-216
-216
-216
-216
-216
-216
-216
-217
-217
-218
-218
-218
-219
-223
-226
-221
-209
-196
-180
-163
-155
-149
-145
-141
-138
-135
-134
-132
-131
-130
-128
-126
-124
-123
-121
-118
-114
-108
-100
-92
-86
-80
-75
-70
-66
-63
-60
-58
-56
-54
-51
-47
-40
-27
-19
-15
-12
-10
-8
-7
-7
-6
-6
-5
-5
-4
-3
-3
-2
-1
0
2
4
7
9
12
15
19
25
34
49
56
59
62
65
67
69
69
67
62
56
49
40
25
15
7
0
-5
-12
-22
-33
-42
-51
-58
-64
-70
-74
-78
-81
-85
-88
-90
-94
-97
-101
-104
-108
-110
-113
-116
-119
-121
-122
-121
-118
-113
-106
-95
-55
41
195
401
654
895
1089
1167
1157
1020
784
526
272
81
-25
-67
-82
-64
-51
-45
-40
-36
-34
-34
-36
-40
-45
-49
-52
-55
-59
-64
-68
-71
-73
-73
-72
-71
-69
-68
-67
-66
-65
-63
-61
-59
-57
-55
-52
-50
-47
-45
-43
-41
-38
-35
-32
-29
-26
-23
-21
-19
-17
-15
-12
-9
-4
5
16
30
43
55
66
75
82
96
119
133
140
146
150
152
152
149
145
139
133
126
114
103
94
78
52
26
7
-9
-26
-44
-68
-89
-107
-122
-136
-146
-155
-162
-168
-172
-176
-180
-183
-184
-186
-188
-190
-192
-193
-195
-196
-197
-197
-196
-196
-194
-193
-191
-189
-187
-185
-183
-182
-182
-182
-182
-182
-182
-181
-181
-180
-180
-180
-180
-180
-180
-180
-181
-182
-183
-183
-182
-180
-178
-176
-174
-172
-169
-167
-164
-162
-159
-156
-152
-148
-142
-135
-129
-123
-117
-112
-107
-102
-97
-92
-87
-82
-78
-72
-67
-61
-56
-53
-50
-47
-43
-37
-29
-12
4
14
21
27
35
44
54
66
85
111
129
147
167
195
222
244
260
271
285
301
320
329
334
339
342
346
348
349
350
350
350
349
347
343
338
332
326
320
313
301
289
279
270
263
255
249
246
247
253
261
270
275
279
282
286
289
293
297
301
304
307
308
310
312
316
321
347
414
524
686
885
1101
1317
1479
1534
1473
1290
1032
740
501
342
311
303
297
291
284
277
269
259
246
231
215
208
205
203
201
199
197
196
195
195
194
193
192
191
189
188
187
185
184
183
182
181
180
179
178
176
174
171
166
161
157
155
155
159
163
169
173
178
183
190
197
201
201
197
190
184
178
174
169
164
159
154
151
149
149
150
152
154
158
163
168
174
180
191
200
200
192
177
152
118
90
62
35
8
-16
-43
-70
-96
-117
-133
-156
-171
-182
-190
-197
-202
-205
-208
-210
-212
-213
-215
-217
-218
-219
-221
-222
-223
-224
-224
-222
-221
-219
-217
-215
-213
-211
-209
-207
-206
-205
-203
-201
-198
-195
-194
-195
-198
-201
-205
-208
-211
-214
-219
-226
-235
-245
-253
-259
-266
-274
-281
-285
-284
-281
-277
-273
-269
-266
-261
-256
-252
-250
-252
-258
-265
-272
-278
-287
-295
-302
-306
-311
-315
-318
-322
-324
-324
-320
-312
-302
-289
-269
-252
-241
-233
-227
-220
-214
-208
-202
-193
-181
-168
-155
-145
-137
-130
-123
-115
-108
-101
-94
-85
-77
-73
-71
-70
-67
-63
-64
-78
-88
-96
-103
-108
-108
-105
-100
-95
-91
-86
-81
-77
-76
-79
-86
-95
-111
-145
-187
-225
-259
-293
-326
-357
-378
-392
-398
-392
-379
-359
-330
-300
-267
-238
-216
-197
-178
-159
-138
-125
-116
-109
-104
-101
-101
-102
-105
-109
-114
-121
-131
-120
-86
-13
107
273
487
730
965
1153
1218
1207
1078
836
567
327
153
71
41
39
51
59
63
67
72
77
82
88
96
110
131
149
161
168
174
179
186
192
199
209
224
242
260
278
299
325
356
369
375
379
383
385
387
387
387
387
387
387
386
386
385
383
381
378
376
377
380
384
386
389
392
395
397
401
404
409
414
418
422
426
431
438
446
451
456
460
464
469
474
478
480
479
475
467
457
440
404
373
349
326
304
282
251
231
217
205
196
189
182
175
167
157
147
136
124
111
96
81
67
60
56
53
51
49
47
46
45
43
41
39
36
34
32
32
31
30
30
29
29
29
28
27
26
23
21
19
17
15
14
12
10
9
8
7
6
5
3
1
-1
-3
-5
-7
-10
-12
-15
-17
-20
-23
-25
-28
-31
-33
-35
-36
-38
-39
-41
-43
-45
-48
-50
-51
-52
-49
-44
-37
-30
-24
-20
-16
-13
-10
-7
-4
-2
0
0
1
2
3
3
2
2
1
0
0
0
0
0
1
2
3
4
5
5
5
4
3
1
0
-2
-3
-5
-7
-9
-11
-13
-16
-18
-21
-25
-33
-41
-49
-56
-61
-66
-71
-75
-78
-81
-81
-81
-82
-83
-85
-86
-87
-89
-91
-93
-96
-99
-101
-103
-104
-107
-111
-116
-124
-139
-140
-127
-92
-2
130
317
548
808
1038
1168
1175
1077
833
539
254
46
-49
-84
-88
-81
-78
-78
-78
-77
-77
-77
-77
-77
-75
-74
-73
-74
-75
-75
-75
-74
-72
-70
-68
-66
-63
-59
-55
-51
-47
-43
-39
-35
-29
-23
-16
-9
-2
2
7
12
16
21
25
32
41
50
58
66
74
84
96
110
125
136
145
153
163
174
185
195
206
218
230
241
252
261
268
276
283
289
293
295
294
290
284
277
267
254
228
204
179
154
130
99
65
33
3
-15
-25
-34
-48
-62
-73
-83
-92
-101
-109
-116
-122
-129
-135
-141
-148
-154
-161
-166
-170
-173
-176
-180
-184
-187
-190
-193
-197
-200
-204
-207
-209
-212
-215
-220
-226
-230
-233
-232
-228
-221
-212
-202
-189
-169
-154
-144
-138
-132
-128
-124
-122
-122
-123
-127
-131
-136
-140
-144
-148
-153
-157
-160
-163
-165
-166
-166
-163
-158
-153
-147
-141
-136
-133
-129
-125
-122
-120
-119
-118
-116
-114
-112
-110
-109
-108
-107
-105
-103
-102
-100
-100
-99
-98
-97
-94
-91
-87
-83
-75
-53
-34
-13
6
22
32
40
46
48
45
37
27
19
10
2
-3
-8
-11
-15
-17
-19
-20
-20
-20
-20
-20
-21
-22
-22
-23
-24
-25
-26
-28
-30
-31
-32
-34
-37
-41
-45
-53
-68
-76
-73
-63
-35
45
175
351
565
796
1013
1152
1169
1114
931
669
402
192
61
22
12
5
0
-4
-8
-10
-12
-13
-14
-15
-16
-16
-17
-20
-25
-29
-29
-22
-12
-5
0
3
7
11
16
21
27
32
36
40
44
47
51
54
58
62
66
70
74
78
82
86
91
97
106
123
139
153
162
169
175
180
184
189
194
198
202
207
211
216
222
227
232
237
241
244
246
248
251
254
258
262
265
266
263
256
246
231
204
163
131
100
77
59
40
21
3
-12
-25
-35
-47
-62
-76
-91
-101
-108
-111
-114
-117
-119
-121
-123
-124
-124
-124
-124
-123
-122
-120
-118
-116
-115
-115
-114
-114
-114
-114
-114
-114
-113
-112
-110
-109
-107
-106
-106
-106
-106
-108
-110
-113
-117
-120
-124
-127
-129
-131
-132
-133
-134
-135
-135
-135
-136
-136
-137
-138
-139
-140
-142
-144
-147
-149
-152
-155
-158
-161
-164
-167
-169
-170
-172
-175
-178
-181
-185
-188
-192
-196
-200
-204
-207
-210
-212
-213
-213
-213
-213
-212
-211
-209
-208
-206
-205
-203
-201
-199
-195
-192
-188
-182
-170
-157
-146
-136
-126
-116
-108
-103
-101
-99
-98
-97
-97
-97
-97
-98
-102
-108
-113
-118
-122
-124
-126
-128
-129
-130
-131
-131
-131
-131
-131
-132
-133
-134
-135
-136
-136
-136
-137
-138
-139
-141
-144
-148
-155
-172
-174
-158
-112
-11
152
374
634
903
1110
1184
1172
1030
777
518
249
75
17
2
-7
-14
-18
-23
-28
-30
-32
-33
-34
-37
-39
-41
-43
-43
-39
-34
-28
-25
-22
-20
-17
-14
-11
-8
-5
-2
0
2
4
6
8
11
15
26
54
80
98
112
120
125
128
131
134
138
142
147
152
159
168
182
208
226
243
261
277
290
300
310
320
330
337
341
346
349
352
354
355
355
354
352
349
344
338
332
321
301
283
260
236
219
206
191
170
146
122
98
76
53
31
13
5
1
-1
-3
-6
-10
-15
-20
-25
-30
-36
-42
-47
-47
-44
-38
-32
-26
-19
-12
-10
-11
-13
-16
-18
-20
-23
-24
-22
-16
-9
0
11
20
26
30
34
36
34
29
23
21
18
17
15
14
13
10
7
5
2
0
0
-1
-3
-5
-7
-9
-12
-15
-21
-26
-32
-37
-41
-46
-53
-62
-71
-81
-93
-105
-111
-114
-116
-119
-121
-123
-123
-123
-122
-120
-117
-114
-110
-105
-98
-90
-82
-74
-64
-54
-44
-35
-24
-11
5
20
32
42
50
60
71
87
109
136
161
186
210
235
256
272
286
298
308
313
313
313
313
314
315
312
303
292
279
264
255
250
245
240
235
230
225
222
217
212
206
200
194
188
183
177
172
166
162
159
155
148
131
109
95
84
87
120
195
330
519
758
1021
1261
1392
1397
1292
1059
752
477
257
158
143
166
195
205
193
159
120
78
58
47
39
37
42
54
68
83
89
92
93
95
96
97
98
98
97
97
96
96
95
95
94
94
94
95
96
98
99
100
101
101
103
104
106
107
109
112
117
123
128
132
136
140
144
151
160
170
181
190
198
206
213
220
229
240
250
256
260
264
266
268
267
266
262
258
252
245
230
216
201
186
169
151
134
117
95
67
48
36
24
12
-2
-18
-35
-47
-55
-61
-69
-78
-85
-90
-93
-96
-99
-102
-105
-108
-112
-115
-118
-122
-126
-129
-131
-133
-135
-137
-140
-143
-146
-149
-153
-157
-161
-166
-171
-175
-179
-182
-184
-186
-187
-189
-191
-193
-195
-197
-199
-201
-203
-204
-205
-206
-206
-207
-208
-208
-208
-208
-209
-209
-209
-210
-210
-209
-209
-208
-207
-206
-205
-204
-203
-202
-202
-202
-201
-201
-201
-200
-199
-198
-196
-194
-193
-190
-188
-186
-184
-182
-180
-178
-175
-167
-159
-153
-148
-146
-143
-140
-138
-136
-135
-134
-134
-136
-138
-142
-147
-152
-157
-162
-165
-168
-171
-174
-176
-178
-180
-181
-182
-183
-184
-185
-185
-185
-185
-186
-187
-188
-189
-189
-190
-190
-191
-192
-194
-195
-197
-200
-209
-215
-208
-187
-127
-10
152
367
600
820
969
1024
938
750
473
218
11
-109
-163
-181
-191
-195
-194
-191
-188
-186
-184
-183
-181
-179
-175
-171
-167
-163
-157
-151
-140
-129
-118
-111
-106
-101
-96
-90
-85
-80
-75
-68
-57
-39
-23
-7
8
23
45
72
91
103
114
122
132
145
162
174
182
188
195
203
212
224
238
248
257
263
268
272
277
282
288
294
302
312
326
339
351
360
370
377
378
372
363
354
343
331
319
304
287
277
269
261
252
243
229
209
189
171
155
134
113
99
96
95
94
93
92
92
92
92
93
95
98
101
104
109
117
126
135
147
159
167
174
180
179
168
153
132
110
90
72
51
42
39
36
34
33
32
31
31
30
29
27
25
24
24
23
23
21
19
16
13
10
3
-12
-21
-27
-32
-36
-39
-39
-39
-37
-34
-31
-28
-25
-26
-31
-37
-41
-45
-48
-52
-56
-61
-64
-68
-73
-80
-93
-105
-111
-116
-119
-122
-124
-125
-126
-125
-124
-124
-123
-122
-121
-120
-118
-116
-115
-113
-112
-111
-111
-111
-111
-112
-113
-114
-115
-117
-119
-121
-124
-126
-131
-142
-154
-164
-173
-181
-189
-192
-195
-197
-198
-199
-198
-198
-198
-199
-201
-202
-204
-205
-206
-208
-209
-211
-213
-217
-221
-233
-258
-273
-284
-284
-265
-215
-113
37
237
472
726
934
1035
1035
929
681
395
141
-62
-184
-211
-218
-222
-226
-230
-234
-236
-238
-240
-243
-245
-246
-246
-246
-247
-247
-247
-246
-244
-240
-236
-232
-228
-223
-215
-207
-198
-189
-184
-180
-176
-172
-169
-166
-163
-160
-158
-156
-154
-151
-147
-141
-128
-117
-107
-98
-90
-82
-75
-69
-63
-56
-47
-36
-23
-14
-4
4
15
28
46
61
73
85
101
122
134
140
145
148
150
151
150
148
144
139
132
119
93
66
38
8
-23
-57
-89
-121
-151
-170
-181
-190
-198
-204
-210
-214
-218
-222
-226
-232
-238
-243
-246
-249
-251
-254
-256
-258
-260
-261
-264
-266
-268
-270
-272
-274
-275
-277
-280
-283
-286
-291
-299
-307
-314
-322
-328
-332
-335
-338
-341
-343
-346
-349
-352
-355
-357
-360
-362
-364
-367
-369
-372
-374
-376
-379
-382
-384
-387
-390
-392
-395
-397
-400
-403
-406
-409
-413
-417
-421
-425
-430
-435
-440
-446
-455
-470
-481
-489
-495
-499
-502
-505
-509
-513
-517
-522
-526
-531
-535
-539
-543
-547
-551
-554
-557
-558
-559
-558
-557
-554
-551
-546
-541
-532
-516
-500
-485
-470
-456
-443
-430
-413
-401
-392
-385
-378
-372
-364
-352
-336
-321
-307
-292
-279
-266
-252
-236
-224
-216
-210
-204
-198
-192
-187
-183
-179
-175
-172
-168
-164
-160
-157
-154
-148
-141
-131
-88
13
177
390
641
895
1115
1249
1258
1165
932
643
372
175
77
53
45
58
67
70
72
75
77
80
83
86
90
94
98
102
108
117
127
136
145
152
159
166
173
180
188
198
210
220
228
236
242
249
258
267
277
289
299
309
320
333
349
361
370
378
386
393
403
416
433
450
467
487
507
527
545
564
582
598
609
619
626
632
638
641
644
647
649
651
652
652
651
649
645
640
633
625
612
589
571
548
519
491
459
433
417
402
389
377
364
349
331
316
302
292
288
286
285
284
283
281
280
279
279
279
280
280
281
283
285
288
292
294
296
297
298
299
299
300
303
303
304
305
307
309
310
311
311
311
310
308
306
304
302
300
299
297
295
293
290
287
284
281
278
275
273
271
269
267
265
263
260
258
255
253
250
249
247
246
245
244
242
240
236
232
228
224
221
220
223
228
235
244
252
259
265
269
274
278
282
286
290
294
297
299
300
300
298
296
293
289
285
280
274
269
262
252
227
203
184
169
157
147
139
134
130
128
125
123
120
117
114
111
109
106
102
97
92
87
81
71
63
55
54
60
70
86
135
275
486
755
1031
1262
1337
1320
1151
875
593
315
152
89
73
62
52
47
46
46
49
54
59
65
71
75
79
83
88
93
99
105
110
115
121
127
134
142
150
158
166
173
181
192
208
223
236
251
269
290
302
310
316
320
322
322
318
313
308
303
298
293
288
284
283
284
289
294
299
303
307
311
315
319
322
324
325
325
324
321
316
312
306
300
292
282
269
256
242
224
200
179
158
138
121
98
67
39
18
-5
-31
-55
-80
-104
-127
-151
-160
-165
-169
-173
-177
-181
-185
-189
-191
-193
-194
-193
-192
-190
-188
-187
-186
-185
-185
-184
-183
-181
-178
-174
-170
-166
-162
-158
-155
-149
-144
-142
-146
-155
-167
-181
-203
-224
-244
-260
-276
-292
-304
-315
-323
-329
-335
-340
-343
-346
-349
-352
-355
-359
-362
-364
-366
-366
-367
-367
-367
-367
-368
-368
-369
-369
-368
-368
-368
-369
-368
-369
-369
-369
-368
-368
-368
-369
-370
-371
-373
-376
-380
-384
-389
-395
-402
-409
-416
-423
-430
-435
-438
-441
-442
-443
-444
-445
-447
-449
-451
-454
-456
-458
-459
-462
-465
-469
-474
-479
-488
-504
-519
-527
-534
-540
-546
-550
-553
-552
-546
-536
-525
-514
-499
-484
-472
-460
-447
-433
-418
-401
-384
-367
-357
-350
-343
-336
-333
-341
-356
-370
-385
-384
-369
-334
-234
-80
136
388
645
861
975
979
889
667
399
177
21
-74
-111
-124
-132
-139
-142
-144
-145
-145
-145
-142
-137
-130
-124
-118
-111
-104
-94
-83
-72
-63
-55
-48
-41
-34
-25
-17
-9
-1
5
12
17
23
28
34
40
47
54
62
69
76
83
90
97
103
108
114
121
130
143
157
173
186
197
206
216
226
235
245
258
271
283
295
309
324
338
352
361
368
375
380
383
384
381
375
366
357
345
326
308
291
275
258
241
222
201
175
152
132
114
97
78
69
63
58
54
50
46
44
42
41
40
41
42
44
47
50
53
57
60
64
68
72
75
77
79
81
83
85
86
88
89
90
91
92
91
90
88
85
82
78
74
70
66
62
58
56
53
50
47
43
40
35
31
26
23
18
13
8
2
-5
-16
-34
-50
-57
-63
-67
-70
-72
-73
-72
-71
-69
-67
-64
-61
-59
-57
-56
-57
-58
-59
-62
-65
-68
-72
-77
-82
-87
-93
-100
-106
-112
-117
-122
-126
-129
-132
-134
-135
-135
-134
-133
-131
-128
-124
-119
-114
-108
-102
-97
-93
-90
-86
-82
-79
-75
-71
-66
-63
-61
-59
-58
-58
-59
-61
-64
-67
-72
-77
-83
-89
-94
-99
-104
-108
-110
-112
-114
-115
-117
-119
-120
-122
-123
-125
-126
-127
-128
-128
-130
-133
-137
-144
-150
-161
-182
-186
-171
-133
-49
85
271
505
761
1000
1132
1140
1045
815
514
246
40
-23
-47
-53
-49
-43
-36
-48
-53
-57
-59
-61
-65
-68
-71
-71
-70
-68
-65
-60
-55
-49
-42
-34
-25
-13
6
26
43
58
66
72
76
80
82
84
86
88
91
93
94
96
99
101
103
105
108
111
115
120
126
136
147
156
166
174
184
194
202
211
219
227
236
246
260
273
288
302
315
329
339
341
342
343
345
349
350
347
338
327
311
288
271
249
224
203
188
173
156
130
110
99
91
86
82
81
81
81
82
81
81
81
80
79
80
80
79
80
79
78
79
79
78
77
77
76
76
74
74
74
74
75
75
76
76
76
76
75
73
72
71
70
70
69
69
70
70
71
72
71
71
70
68
67
64
63
61
60
58
57
55
54
52
49
47
43
39
35
32
30
29
29
30
32
35
36
38
40
40
40
40
39
39
38
38
37
37
36
22
12
7
2
-1
-4
-5
-3
1
7
12
17
22
26
31
36
42
47
51
56
60
63
66
69
74
79
84
89
93
97
99
99
98
96
94
89
86
82
77
72
65
54
42
32
22
15
10
5
0
-5
-10
-16
-22
-27
-32
-36
-41
-46
-51
-55
-60
-65
-70
-74
-78
-82
-87
-92
-101
-108
-107
-97
-77
-27
59
190
375
610
848
1065
1212
1231
1182
984
726
468
251
113
44
17
6
-2
-8
-14
-22
-30
-36
-41
-46
-49
-51
-52
-48
-42
-35
-30
-25
-22
-18
-15
-12
-9
-6
-4
-2
1
3
4
5
7
9
11
14
19
26
39
53
66
76
84
89
95
99
103
106
109
111
114
117
120
123
127
131
136
140
145
150
157
168
189
208
220
227
233
238
242
244
244
242
240
236
232
226
218
207
195
181
161
130
106
91
79
71
58
32
4
-14
-29
-41
-51
-58
-61
-63
-65
-68
-70
-71
-68
-62
-57
-53
-51
-48
-46
-44
-43
-43
-43
-43
-42
-42
-42
-42
-41
-40
-40
-40
-39
-34
-33
-33
-32
-31
-30
-29
-28
-27
-25
-22
-17
-13
-13
-16
-21
-25
-29
-31
-33
-36
-38
-41
-43
-44
-44
-43
-42
-41
-40
-40
-38
-37
-35
-35
-34
-34
-33
-31
-31
-32
-35
-38
-42
-45
-48
-52
-55
-56
-54
-49
-43
-38
-34
-29
-23
-18
-15
-14
-16
-19
-23
-26
-29
-33
-38
-42
-43
-42
-39
-36
-34
-32
-29
-25
-21
-18
-18
-18
-20
-22
-24
-25
-28
-31
-34
-34
-31
-26
-20
-16
-13
-9
-6
-3
-1
0
0
-2
-6
-11
-17
-25
-33
-41
-53
-64
-70
-70
-70
-69
-69
-69
-68
-67
-67
-66
-66
-65
-64
-62
-60
-57
-54
-51
-46
-42
-40
-42
-49
-59
-76
-102
-121
-134
-125
-96
-13
115
295
512
754
972
1106
1117
1036
816
534
262
48
-81
-113
-108
-82
-67
-68
-84
-92
-97
-102
-106
-109
-111
-111
-110
-109
-106
-103
-99
-95
-90
-85
-80
-74
-69
-64
-59
-55
-51
-46
-42
-39
-35
-31
-27
-23
-20
-16
-11
-4
6
18
33
42
49
54
59
63
67
71
74
77
81
86
92
99
106
115
123
131
140
148
156
164
172
185
201
214
221
228
232
235
234
230
224
215
204
186
169
146
118
95
77
64
47
22
-1
-19
-36
-51
-64
-75
-87
-94
-100
-104
-108
-112
-116
-120
-124
-127
-131
-134
-138
-141
-145
-147
-148
-146
-142
-137
-131
-125
-121
-116
-111
-106
-102
-99
-99
-101
-106
-111
-116
-121
-124
-129
-134
-140
-144
-145
-144
-141
-138
-135
-132
-130
-125
-120
-115
-112
-111
-113
-116
-119
-122
-125
-131
-137
-142
-143
-139
-133
-128
-125
-123
-120
-117
-114
-112
-111
-113
-115
-118
-122
-125
-129
-132
-137
-142
-146
-148
-147
-145
-143
-140
-138
-136
-134
-132
-130
-129
-127
-125
-122
-119
-117
-115
-115
-115
-115
-114
-113
-112
-111
-110
-109
-105
-101
-99
-103
-112
-122
-129
-136
-143
-150
-156
-161
-165
-167
-168
-169
-170
-171
-171
-172
-172
-172
-173
-174
-175
-176
-177
-178
-179
-179
-178
-177
-175
-173
-170
-168
-165
-161
-158
-153
-127
-49
82
269
505
747
993
1119
1128
1047
823
543
296
100
35
16
4
-8
-18
-25
-32
-38
-42
-45
-48
-50
-50
-49
-47
-46
-44
-42
-39
-34
-28
-20
-3
13
21
26
29
33
36
39
43
47
50
53
55
58
61
64
67
70
74
78
82
86
91
95
99
102
106
111
117
124
133
141
148
157
165
172
180
188
196
203
212
222
234
244
250
254
257
261
265
267
268
266
261
254
246
234
213
193
168
137
106
80
57
34
12
-16
-40
-54
-65
-77
-88
-96
-104
-111
-116
-119
-122
-124
-125
-125
-125
-126
-128
-129
-129
-129
-129
-130
-131
-132
-133
-134
-133
-133
-132
-133
-133
-134
-134
-134
-134
-135
-137
-140
-141
-137
-129
-121
-116
-112
-108
-104
-100
-95
-91
-88
-85
-83
-80
-76
-73
-70
-68
-66
-64
-60
-56
-52
-49
-46
-43
-41
-38
-37
-35
-35
-35
-34
-32
-30
-29
-28
-26
-24
-21
-18
-16
-14
-14
-14
-13
-12
-11
-11
-10
-9
-7
-5
-2
-1
-1
-2
-3
-4
-5
-6
-8
-11
-13
-15
-15
-15
-15
-13
-10
-7
-2
3
9
16
24
33
40
48
54
59
63
67
70
72
73
70
64
58
50
44
39
32
25
18
13
10
10
11
12
14
16
18
24
29
29
21
11
5
0
-3
-6
-10
-14
-17
-20
-22
-24
-26
-29
-40
-37
8
108
268
482
732
998
1231
1314
1299
1139
850
551
270
116
74
62
66
74
61
9
-16
-26
-33
-21
-14
-12
-9
-7
-7
-7
-6
-6
-6
-5
-4
-3
-2
-2
-1
-1
-1
-1
0
0
2
3
5
8
10
13
17
21
26
30
35
40
45
51
58
68
85
96
103
108
112
116
120
125
131
138
146
155
166
177
186
196
207
220
230
240
246
250
255
258
259
259
257
253
247
240
230
213
195
176
158
140
118
89
64
45
22
2
-13
-27
-39
-54
-72
-89
-97
-102
-107
-110
-113
-115
-116
-116
-116
-114
-113
-111
-108
-105
-102
-100
-98
-96
-95
-94
-92
-91
-89
-88
-87
-86
-85
-84
-83
-82
-81
-81
-81
-82
-82
-82
-82
-82
-82
-83
-84
-84
-84
-83
-83
-83
-84
-84
-84
-84
-85
-89
-88
-75
-65
-58
-51
-45
-40
-36
-33
-29
-24
-21
-20
-21
-25
-29
-32
-33
-33
-35
-37
-40
-43
-45
-46
-48
-49
-50
-50
-50
-49
-48
-47
-46
-46
-46
-46
-46
-46
-47
-47
-47
-47
-46
-45
-44
-43
-42
-40
-39
-37
-36
-35
-34
-32
-30
-28
-25
-23
-20
-11
-1
9
20
27
33
39
44
47
48
46
42
35
28
20
8
-11
-28
-36
-42
-47
-51
-53
-55
-57
-57
-55
-52
-48
-44
-40
-36
-32
-27
-21
-16
-13
-13
-16
-21
-29
-39
-58
-86
-105
-117
-106
-74
4
130
307
525
759
982
1172
1241
1186
1000
743
432
180
33
0
-10
3
28
29
0
-23
-37
-45
-50
-52
-49
-40
-32
-28
-26
-24
-22
-20
-18
-16
-14
-11
-9
-7
-5
-3
-2
-1
0
3
5
9
12
18
32
44
54
60
64
67
70
72
75
78
81
83
86
89
92
97
102
112
132
150
166
180
194
208
216
222
227
232
236
239
241
242
242
242
241
240
237
233
228
222
215
199
171
150
125
98
67
38
16
0
-13
-22
-31
-41
-52
-68
-88
-104
-114
-122
-127
-128
-125
-116
-104
-85
