-4
-4
-4
-4
-3
0
14
24
31
35
37
33
25
16
5
-5
-15
-22
-28
-32
-37
-41
-45
-49
-53
-57
-61
-65
-69
-73
-78
-85
-102
-124
-138
-146
-133
-99
-22
99
253
416
565
686
771
800
810
785
707
598
468
337
228
145
79
25
-24
-70
-97
-109
-114
-118
-122
-125
-128
-130
-132
-133
-134
-135
-135
-134
-132
-129
-126
-123
-118
-114
-110
-107
-103
-99
-95
-88
-82
-76
-72
-70
-71
-74
-79
-86
-93
-102
-114
-124
-125
-119
-111
-104
-96
-88
-83
-80
-76
-70
-61
-65
-70
-74
-74
-64
-55
-46
-33
-16
-5
5
15
23
28
31
34
39
44
51
62
75
90
109
119
125
130
133
136
137
139
140
139
138
135
131
125
118
105
76
44
9
-22
-43
-52
-55
-58
-61
-64
-66
-68
-68
-68
-68
-67
-66
-64
-61
-59
-56
-53
-51
-49
-49
-47
-44
-42
-42
-50
-61
-70
-77
-83
-90
-97
-103
-108
-113
-117
-118
-118
-117
-115
-111
-106
-101
-95
-90
-84
-78
-68
-58
-49
-42
-37
-32
-27
-23
-18
-14
-10
-7
-4
-1
1
5
16
41
62
75
80
74
63
48
21
-3
-21
-36
-50
-63
-62
-41
-30
-24
-18
-13
-8
-4
0
1
2
2
2
1
0
-1
-2
-2
-2
0
0
0
-1
-3
-1
13
28
44
57
76
91
98
105
104
88
79
72
67
63
59
55
50
46
43
40
37
34
30
25
20
15
10
5
1
-4
-13
-32
-52
-61
-66
-39
39
150
273
395
506
602
676
711
709
660
563
445
326
226
152
98
50
0
-27
-37
-41
-44
-46
-47
-49
-50
-53
-56
-59
-61
-63
-65
-67
-69
-71
-73
-74
-77
-81
-86
-88
-86
-80
-71
-63
-57
-51
-45
-39
-35
-32
-32
-33
-34
-35
-37
-40
-43
-47
-50
-53
-55
-57
-59
-61
-61
-59
-55
-49
-43
-36
-28
-17
-6
3
12
16
20
24
28
32
34
37
41
45
51
56
61
67
75
87
99
108
117
127
140
148
142
128
119
113
107
102
98
93
87
82
76
67
48
17
0
-9
-17
-25
-32
-36
-38
-40
-41
-42
-44
-45
-46
-46
-47
-47
-47
-47
-48
-47
-48
-50
-53
-56
-58
-59
-61
-63
-65
-69
-72
-76
-79
-84
-90
-97
-103
-105
-105
-103
-100
-97
-93
-88
-83
-79
-76
-73
-71
-69
-66
-62
-57
-52
-48
-48
-53
-57
-60
-63
-66
-69
-72
-74
-75
-75
-75
-74
-72
-69
-65
-60
-56
-51
-45
-40
-36
-32
-29
-26
-22
-18
-15
-10
-6
-3
-2
-4
-7
-12
-16
-22
-30
-38
-42
-39
-29
-17
-8
0
8
16
25
34
43
50
56
63
67
70
70
68
63
58
51
36
15
8
4
2
0
0
-1
-3
-7
-10
-13
-16
-18
-22
-27
-37
-55
-71
-84
-96
-96
-79
-31
65
208
387
581
752
860
874
840
725
579
430
302
200
122
66
37
16
0
-14
-27
-38
-48
-57
-61
-63
-66
-67
-69
-71
-72
-73
-74
-75
-75
-75
-75
-76
-76
-76
-75
-73
-70
-68
-66
-64
-61
-59
-56
-53
-51
-49
-47
-45
-43
-41
-39
-37
-34
-32
-29
-27
-25
-23
-21
-20
-18
-18
-17
-18
-18
-17
-15
-12
-10
-7
-4
0
2
7
11
15
21
30
50
66
87
114
131
140
146
150
151
152
153
153
154
154
155
155
154
151
145
138
129
115
96
79
66
52
36
24
11
2
0
2
4
6
9
12
14
14
11
5
1
-2
-8
-14
-20
-23
-24
-24
-24
-26
-27
-26
-25
-23
-21
-21
-22
-23
-24
-24
-25
-27
-31
-35
-39
-43
-49
-56
-47
-38
-29
-30
-42
-48
-53
-58
-62
-64
-63
-57
-49
-41
-35
-31
-29
-26
-23
-21
-19
-18
-16
-15
-13
-11
-10
-10
-10
-11
-11
-11
-11
-11
-12
-14
-15
-16
-15
-15
-14
-14
-13
-12
-11
-9
-8
-7
-7
-7
-7
-7
-6
-6
-6
-5
-4
-2
0
1
3
5
7
9
13
17
21
26
33
48
65
76
85
91
94
94
89
82
73
63
47
35
25
19
15
12
9
4
0
-5
-9
-13
-18
-25
-37
-50
-65
-91
-110
-117
-123
-107
-55
35
175
363
580
790
946
991
981
889
746
592
451
337
237
141
57
-12
-61
-76
-85
-91
-96
-100
-105
-110
-115
-118
-118
-115
-110
-104
-99
-94
-89
-85
-83
-83
-85
-88
-90
-94
-99
-103
-95
-81
-72
-63
-56
-50
-49
-51
-55
-59
-63
-66
-70
-73
-76
-79
-81
-82
-82
-81
-79
-77
-75
-72
-68
-63
-52
-42
-32
-25
-20
-16
-11
-6
-1
4
10
19
35
49
67
94
109
115
120
125
130
134
137
138
139
139
139
140
141
140
140
139
141
143
137
125
114
103
92
81
71
63
56
50
45
40
35
30
25
19
12
6
0
-6
-11
-12
-12
-13
-13
-12
-12
-12
-12
-11
-8
-7
-5
-4
-3
-4
-6
-10
-15
-18
-20
-22
-24
-26
-28
-30
-31
-31
-32
-32
-33
-33
-33
-32
-31
-31
-31
-31
-30
-29
-28
-26
-23
-21
-19
-17
-15
-13
-11
-10
-9
-8
-8
-7
-6
-5
-4
-3
-2
-1
0
0
1
0
0
-1
-2
-2
-3
-3
-4
-4
-5
-5
-5
-4
-4
-4
-3
-3
-2
0
1
4
7
10
13
16
19
25
39
49
55
59
63
66
69
71
70
68
64
59
56
53
50
46
43
39
35
31
27
23
19
15
10
6
0
-4
-9
-14
-18
-24
-33
-50
-78
-98
-111
-101
-68
14
145
324
537
752
931
1033
1042
989
846
663
468
294
153
48
-23
-56
-68
-74
-79
-83
-85
-87
-90
-93
-96
-99
-102
-105
-106
-106
-108
-112
-116
-120
-122
-123
-122
-121
-120
-118
-117
-116
-114
-112
-110
-108
-107
-104
-101
-97
-94
-92
-89
-83
-77
-73
-71
-71
-71
-71
-70
-69
-69
-70
-71
-72
-73
-73
-73
-73
-71
-69
-65
-61
-56
-52
-45
-31
-12
3
17
30
43
55
65
75
85
94
103
112
120
128
135
140
145
149
152
154
155
154
151
147
141
134
124
106
89
72
55
33
19
9
2
-2
-3
-4
-5
-5
-7
-8
-7
-3
-1
0
1
3
4
4
3
1
-1
-3
-4
-6
-8
-9
-10
-11
-11
-12
-13
-16
-18
-20
-21
-22
-23
-25
-27
-30
-32
-34
-37
-41
-46
-50
-52
-51
-49
-47
-45
-44
-41
-38
-34
-30
-28
-26
-25
-23
-20
-17
-17
-22
-29
-34
-40
-44
-45
-41
-34
-28
-26
-24
-21
-18
-16
-15
-14
-13
-12
-10
-9
-9
-9
-9
-8
-7
-6
-6
-7
-7
-7
-6
-5
-4
-4
-4
-4
-2
0
1
3
5
8
12
20
30
39
48
58
71
72
60
43
19
4
-3
-9
-13
-15
-16
-20
-25
-26
-22
-16
-11
-30
-54
-75
-92
-107
-120
-120
-110
-84
-1
122
284
472
667
837
923
926
852
697
534
395
289
200
113
17
-68
-91
-99
-84
-61
-44
-58
-82
-106
-119
-128
-133
-133
-126
-119
-116
-114
-112
-110
-108
-106
-104
-102
-101
-100
-99
-97
-97
-97
-97
-96
-96
-94
-92
-90
-87
-85
-82
-77
-73
-69
-67
-66
-65
-64
-62
-60
-59
-58
-57
-55
-53
-50
-48
-46
-44
-43
-40
-35
-23
-12
-3
2
7
12
18
28
40
52
65
80
95
108
117
125
132
139
144
146
147
147
147
148
150
149
138
132
128
124
121
118
116
113
109
104
99
94
90
85
78
66
53
44
37
29
19
13
15
19
23
30
30
23
18
13
9
7
6
6
5
3
1
0
0
0
0
0
2
4
7
12
19
24
17
3
-9
-24
-31
-28
-21
-16
-13
-9
-6
-4
-4
-4
-6
-9
-12
-18
-26
-10
4
14
21
21
15
8
4
1
-1
-3
-5
-7
-8
-9
-9
-9
-8
-7
-5
-2
1
6
10
14
18
22
27
32
36
38
37
35
34
32
30
28
23
19
15
15
20
28
35
40
46
53
58
60
57
50
42
32
19
11
7
3
0
-3
-4
-3
-1
2
7
14
25
24
6
-21
-57
-95
-114
-121
-125
-95
-9
135
317
508
679
800
828
815
722
568
392
243
154
113
86
59
25
-20
-49
-59
-64
-70
-78
-86
-95
-106
-111
-107
-98
-92
-87
-83
-80
-78
-77
-77
-76
-75
-75
-76
-77
-79
-81
-83
-84
-86
-89
-93
-92
-85
-76
-67
-58
-52
-49
-47
-47
-46
-44
-43
-43
-44
-45
-46
-45
-43
-42
-41
-40
-39
-37
-34
-30
-26
-22
-18
-12
-2
10
21
31
41
50
60
69
78
85
90
95
101
108
116
128
140
148
156
163
169
171
170
167
160
152
138
112
96
87
80
69
58
48
38
27
17
8
0
-5
-7
-8
-10
-12
-14
-16
-17
-17
-18
-19
-19
-20
-20
-20
-20
-20
-22
-23
-24
-24
-24
-24
-23
-23
-23
-23
-23
-23
-22
-23
-24
-25
-26
-26
-26
-25
-24
-23
-22
-22
-22
-21
-22
-22
-22
-22
-22
-22
-22
-21
-21
-20
-19
-18
-18
-17
-16
-16
-16
-17
-18
-18
-17
-16
-15
-15
-15
-15
-15
-14
-13
-11
-10
-9
-8
-5
-2
0
3
9
15
16
17
18
19
21
21
19
15
12
8
3
0
8
22
31
40
47
53
56
56
52
46
39
32
25
15
5
1
-1
-3
-5
-7
-10
-12
-12
-9
-4
1
8
6
-13
-43
-79
-103
-120
-119
-95
-29
94
263
462
659
821
911
920
877
767
634
490
355
237
138
53
-13
-49
-73
-89
-104
-118
-134
-151
-150
-132
-117
-103
-94
-92
-96
-103
-110
-117
-122
-124
-119
-109
-99
-93
-87
-81
-75
-71
-70
-72
-75
-79
-82
-85
-87
-90
-94
-96
-96
-92
-86
-78
-72
-69
-66
-64
-61
-58
-54
-51
-49
-46
-43
-40
-38
-36
-34
-34
-33
-31
-29
-25
-19
-8
3
13
24
35
45
57
68
80
93
108
120
131
138
145
150
154
155
154
150
144
137
130
121
111
102
92
84
76
69
62
55
47
39
29
17
9
7
6
5
5
5
5
6
7
7
7
6
6
4
3
2
1
0
-1
-3
-6
-9
-12
-15
-18
-22
-27
-31
-35
-39
-41
-42
-42
-42
-42
-41
-39
-37
-35
-33
-32
-29
-21
-16
-20
-26
-30
-32
-35
-36
-37
-37
-38
-38
-39
-39
-37
-35
-32
-28
-24
-21
-17
-12
-7
-3
0
2
3
4
4
4
5
6
8
12
15
10
2
-2
-5
-8
-11
-14
-16
-18
-19
-19
-17
-13
-9
-4
0
7
18
30
43
59
75
83
88
91
94
97
98
98
95
91
86
79
72
62
53
44
34
25
15
6
-1
-7
-13
-18
-23
-29
-35
-43
-60
-81
-95
-104
-95
-67
1
119
291
503
719
899
1004
1015
973
839
668
500
360
252
166
88
12
-25
-38
-31
-19
-11
-29
-84
-138
-152
-154
-155
-151
-131
-122
-117
-115
-113
-111
-110
-109
-106
-102
-98
-95
-92
-90
-88
-85
-83
-82
-81
-81
-82
-82
-81
-80
-80
-79
-78
-76
-73
-70
-68
-66
-65
-64
-63
-62
-61
-60
-59
-57
-55
-51
-46
-41
-36
-31
-27
-23
-19
-16
-12
-7
-2
5
14
26
46
73
92
103
116
129
146
163
165
166
167
168
167
166
161
152
141
126
103
85
74
66
61
56
50
44
38
33
27
21
11
-4
-11
-13
-13
-13
-13
-13
-14
-14
-15
-16
-16
-17
-17
-17
-17
-16
-15
-14
-12
-11
-11
-11
-12
-13
-15
-19
-23
-27
-32
-36
-41
-46
-53
-69
-71
-69
-67
-67
-67
-67
-67
-67
-67
-67
-66
-64
-60
-55
-49
-44
-41
-36
-31
-25
-20
-17
-15
-13
-8
0
0
-5
-9
-13
-18
-24
-28
-32
-39
-48
-36
-26
-20
-15
-10
-6
-2
0
1
3
5
6
7
9
10
12
15
18
22
25
28
30
33
36
38
40
42
45
48
50
53
55
57
57
57
55
53
49
45
41
37
29
13
-1
-9
-15
-19
-21
-24
-27
-30
-32
-35
-38
-42
-51
-64
-50
-12
81
226
418
633
837
990
1037
1025
914
726
511
309
153
49
-15
-41
-54
-65
-83
-108
-135
-152
-164
-161
-136
-124
-116
-109
-103
-98
-96
-95
-94
-94
-94
-95
-98
-101
-107
-112
-117
-124
-131
-135
-132
-126
-118
-110
-104
-97
-91
-85
-78
-70
-63
-59
-55
-53
-51
-49
-47
-45
-42
-39
-37
-35
-34
-32
-30
-29
-28
-26
-23
-19
-13
-5
2
12
22
31
40
48
56
62
68
74
80
87
96
108
122
134
145
153
158
160
162
163
166
169
166
144
125
106
93
82
75
70
65
61
57
53
48
43
38
33
27
21
13
6
0
-3
-7
-10
-13
-15
-18
-21
-23
-25
-26
-25
-22
-18
-15
-11
-8
-4
0
4
5
2
-5
-15
-25
-34
-45
-56
-62
-64
-66
-67
-67
-67
-68
-68
-67
-65
-59
-51
-43
-34
-23
-14
-10
-7
-6
-5
-4
-4
-5
-6
-6
-7
-7
-8
-8
-9
-10
-10
-10
-10
-10
-10
-9
-9
-8
-6
-5
-4
-3
-1
0
1
3
5
7
10
12
14
16
18
21
23
27
30
34
38
41
44
46
48
50
52
53
56
59
62
65
67
68
65
60
53
45
33
12
0
-8
-13
-16
-19
-21
-24
-28
-31
-35
-40
-46
-58
-75
-61
-19
67
197
366
558
736
863
899
890
807
669
507
347
212
109
34
-15
-30
-40
-49
-55
-58
-61
-63
-65
-67
-68
-69
-70
-70
-70
-70
-70
-70
-69
-69
-68
-67
-66
-66
-66
-65
-63
-61
-59
-56
-55
-54
-53
-52
-51
-51
-51
-50
-50
-49
-47
-45
-42
-39
-36
-33
-30
-26
-23
-20
-18
-15
-13
-10
-6
-2
2
6
11
15
19
23
27
30
34
38
43
49
61
73
83
92
101
110
118
129
141
151
159
166
173
178
182
183
182
179
174
168
160
146
113
82
60
45
26
7
-3
-10
-14
-10
0
4
9
12
15
18
19
20
21
20
17
14
10
6
3
0
-3
-7
-11
-15
-18
-20
-22
-23
-25
-26
-27
-29
-30
-32
-34
-35
-36
-36
-35
-35
-34
-32
-30
-27
-25
-23
-22
-21
-20
-20
-20
-20
-20
-20
-20
-19
-19
-19
-19
-20
-20
-20
-20
-19
-19
-18
-18
-17
-16
-15
-15
-14
-13
-13
-12
-11
-10
-9
-8
-7
-6
-6
-5
-5
-4
-4
-4
-4
-4
-3
-2
-1
0
0
2
4
7
11
14
18
20
22
24
26
28
30
32
36
43
47
42
31
24
17
11
6
5
5
6
8
11
15
22
21
6
-16
-40
-57
-68
-56
-21
72
215
395
591
771
889
906
875
748
579
411
278
187
123
70
17
-16
-40
-54
-64
-75
-85
-95
-105
-114
-117
-114
-105
-96
-90
-84
-79
-75
-72
-70
-68
-67
-67
-68
-71
-74
-78
-82
-86
-91
-94
-98
-102
-105
-108
-111
-111
-110
-106
-101
-94
-88
-81
-73
-65
-57
-52
-49
-46
-43
-41
-39
-37
-36
-33
-28
-19
-11
-5
0
3
8
11
15
18
21
24
27
30
34
39
50
75
101
126
139
146
151
155
157
157
156
155
152
148
144
139
131
123
115
103
80
56
40
31
26
22
20
18
17
14
11
7
3
1
-1
-4
-7
-11
-13
-16
-17
-19
-20
-23
-25
-26
-27
-29
-35
-34
-28
-23
-20
-17
-14
-13
-12
-9
-4
-5
-18
-29
-39
-46
-49
-52
-53
-55
-57
-59
-61
-61
-61
-61
-60
-58
-57
-55
-52
-48
-42
-26
-7
9
18
24
27
23
14
4
-8
-17
-28
-43
-57
-65
-47
-36
-31
-27
-24
-21
-19
-17
-16
-14
-12
-10
-9
-8
-8
-8
-7
-6
-5
-5
-4
-1
2
5
9
12
15
18
21
25
28
30
31
33
35
39
43
44
41
34
27
22
18
15
11
8
4
0
-3
-6
-10
-14
-20
-30
-39
-47
-58
-71
-81
-90
-99
-98
-79
-27
80
245
461
703
925
1074
1113
1030
847
628
437
295
195
124
69
16
-33
-65
-76
-83
-86
-86
-86
-84
-82
-79
-75
-80
-84
-85
-86
-86
-87
-88
-89
-89
-90
-89
-88
-87
-85
-83
-80
-76
-73
-66
-56
-54
-53
-52
-53
-60
-65
-69
-74
-78
-83
-91
-99
-90
-73
-53
-43
-38
-34
-32
-31
-29
-26
-23
-20
-18
-16
-13
-9
0
7
16
30
45
52
55
58
63
69
77
86
96
107
116
124
131
135
139
143
146
149
150
151
151
150
149
147
144
139
130
109
93
85
79
71
62
52
42
33
23
13
7
4
2
1
0
0
-2
-4
-5
-6
-7
-7
-8
-8
-9
-9
-9
-8
-9
-11
-16
-24
-16
-8
-3
0
0
-10
-20
-24
-27
-29
-32
-35
-38
-41
-44
-46
-48
-50
-51
-50
-49
-48
-46
-45
-43
-41
-38
-35
-33
-32
-31
-30
-25
-19
-13
-7
-2
0
4
9
12
14
12
6
0
-5
-9
-13
-18
-23
-27
-29
-29
-26
-22
-18
-13
-9
-4
1
7
13
18
22
26
30
34
37
41
44
47
50
53
56
58
60
61
61
61
59
58
55
52
48
45
41
37
28
12
7
5
3
1
0
-2
-5
-8
-11
-16
-21
-29
-45
-71
-90
-102
-90
-55
36
182
376
596
801
951
1012
974
854
689
527
396
298
220
150
80
16
-31
-58
-84
-108
-126
-137
-122
-107
-95
-89
-94
-105
-110
-115
-120
-124
-127
-129
-130
-130
-130
-130
-128
-126
-121
-116
-112
-108
-105
-103
-101
-99
-98
-96
-94
-91
-89
-86
-83
-81
-80
-78
-77
-76
-75
-72
-70
-67
-64
-61
-58
-55
-52
-48
-43
-38
-34
-31
-26
-21
-17
-12
-7
-2
3
11
29
58
76
87
99
114
123
130
137
142
146
149
149
147
144
140
135
130
125
118
110
103
97
92
87
74
50
25
8
1
-1
-2
-3
-3
-4
-4
-4
-3
-2
-2
-2
-3
-3
-4
-5
-5
-6
-8
-10
-12
-13
-14
-15
-17
-20
-24
-27
-30
-32
-36
-40
-45
-49
-53
-55
-57
-61
-65
-69
-71
-71
-69
-67
-65
-64
-62
-60
-55
-50
-45
-41
-37
-34
-31
-28
-25
-24
-23
-23
-21
-19
-16
-14
-12
-11
-9
-7
-5
-3
-1
0
-1
-2
-4
-5
-7
-9
-12
-15
-20
-24
-26
-22
-14
-7
-3
0
2
5
8
11
14
17
21
24
28
31
34
37
40
43
48
53
58
61
62
62
60
57
52
47
39
24
12
5
1
-1
-4
-7
-11
-15
-18
-21
-25
-29
-34
-45
-61
-64
-67
-69
-52
0
86
217
391
588
773
907
961
922
793
618
447
316
228
166
104
24
-58
-112
-130
-116
-93
-69
-52
-41
-42
-55
-61
-65
-69
-72
-74
-75
-76
-77
-78
-78
-79
-79
-79
-78
-77
-75
-74
-73
-73
-73
-72
-72
-71
-70
-67
-62
-57
-52
-49
-47
-45
-44
-42
-40
-37
-34
-32
-29
-27
-25
-22
-20
-18
-16
-12
-6
0
5
11
16
22
28
34
41
48
56
72
98
115
124
133
140
146
153
160
167
175
183
190
200
204
198
186
175
164
155
147
140
134
128
122
115
108
99
84
55
32
19
11
8
7
7
7
8
8
9
9
8
7
7
6
5
3
2
2
1
0
0
-1
-3
-5
-7
-9
-11
-14
-17
-20
-23
-25
-28
-30
-33
-40
-53
-58
-63
-68
-51
-20
-1
3
5
8
9
10
8
4
-1
-7
-12
-17
-21
-25
-28
-31
-31
-31
-29
-25
-20
-15
-10
-4
3
11
17
21
24
28
34
38
34
25
17
9
1
-3
-7
-10
-13
-18
-18
-12
-8
-4
0
5
14
24
34
46
55
60
64
68
73
76
71
59
45
31
27
25
24
23
22
19
15
10
7
3
1
0
-3
-5
-8
-12
-18
-25
-41
-60
-71
-69
-38
44
178
351
546
725
853
901
860
743
576
393
239
139
92
68
49
28
6
-14
-36
-54
-62
-66
-69
-72
-74
-75
-77
-78
-80
-81
-82
-83
-83
-83
-85
-87
-90
-92
-92
-89
-85
-82
-79
-77
-74
-71
-67
-64
-60
-58
-55
-52
-49
-46
-44
-42
-41
-39
-37
-35
-34
-34
-35
-36
-37
-38
-39
-41
-46
-46
-35
-24
-14
-2
10
19
25
31
37
44
50
55
61
69
80
91
102
116
130
138
142
146
150
153
155
156
154
150
145
138
132
124
112
98
83
68
55
42
30
21
13
6
2
0
-1
-3
-4
-6
-7
-8
-10
-13
-16
-19
-22
-25
-27
-29
-31
-34
-37
-42
-48
-53
-56
-56
-55
-53
-51
-49
-48
-45
-43
-41
-39
-37
-36
-35
-35
-35
-37
-41
-45
-50
-57
-68
-67
-51
-41
-33
-26
-20
-16
-15
-17
-19
-22
-24
-27
-32
-37
-37
-32
-26
-24
-22
-22
-21
-21
-21
-20
-18
-17
-16
-16
-16
-16
-16
-16
-16
-17
-17
-16
-15
-13
-12
-9
-6
-3
0
3
7
11
16
27
38
44
48
51
55
61
64
54
37
28
22
16
12
8
4
1
-1
-4
-6
-9
-11
-12
-13
-13
-14
-16
-18
-25
-48
-75
-91
-97
-106
-101
-53
44
196
394
608
795
915
933
906
776
595
409
267
183
147
123
97
52
-6
-68
-89
-94
-98
-101
-103
-104
-105
-105
-104
-104
-103
-104
-103
-102
-101
-101
-101
-101
-101
-101
-100
-99
-98
-96
-95
-94
-93
-91
-89
-86
-84
-83
-81
-79
-76
-72
-68
-64
-61
-58
-56
-53
-51
-49
-47
-46
-44
-42
-38
-34
-31
-28
-26
-23
-21
-17
-12
-3
14
27
36
41
47
52
59
66
73
82
93
108
122
135
145
154
162
164
160
152
143
138
133
129
125
121
117
113
109
106
101
95
89
80
63
50
39
30
20
7
3
1
0
-4
-7
-9
-10
-10
-10
-11
-13
-14
-15
-15
-15
-16
-17
-19
-20
-21
-21
-21
-22
-24
-25
-26
-27
-28
-29
-30
-33
-34
-35
-36
-36
-37
-39
-43
-46
-48
-48
-46
-41
-37
-33
-31
-29
-27
-25
-23
-21
-19
-17
-16
-15
-14
-14
-14
-14
-14
-14
-14
-14
-13
-12
-10
-9
-7
-6
-5
-4
-3
-2
-2
-2
-1
-1
0
2
4
6
9
12
16
19
21
23
25
25
25
26
27
28
30
31
33
36
39
41
42
41
38
33
28
23
18
13
7
2
-3
-8
-11
-14
-16
-20
-25
-36
-66
-95
-115
-117
-103
-65
32
180
374
593
798
944
980
966
863
717
559
408
280
171
78
3
-45
-60
-74
-84
-90
-93
-97
-100
-102
-104
-105
-106
-108
-110
-112
-114
-115
-116
-115
-115
-116
-117
-118
-120
-122
-125
-127
-125
-119
-109
-100
-96
-93
-91
-88
-86
-84
-81
-79
-77
-74
-72
-70
-68
-67
-66
-66
-65
-63
-62
-60
-57
-51
-44
-37
-29
-20
-12
-5
1
7
12
17
22
25
28
33
38
47
62
86
106
120
132
141
147
152
156
161
164
166
166
165
162
157
151
140
119
103
90
78
69
62
55
46
37
28
20
13
8
3
0
-3
-5
-7
-9
-12
-13
-14
-14
-13
-13
-13
-12
-11
-10
-8
-7
-6
-6
-4
0
3
0
-9
-17
-26
-36
-47
-54
-60
-67
-72
-73
-71
-67
-61
-56
-50
-44
-38
-32
-28
-24
-20
-15
-12
-17
-25
-30
-35
-39
-43
-45
-45
-44
-41
-39
-36
-32
-26
-18
-8
3
10
16
21
27
30
31
29
24
19
15
12
8
4
0
-2
-3
0
3
8
13
19
29
39
47
56
66
68
69
70
71
72
73
73
73
72
71
69
66
62
56
46
21
5
-1
-6
-11
-14
-17
-19
-22
-25
-33
-51
-77
-90
-95
-98
-76
-11
97
249
434
630
806
930
978
944
842
707
563
430
320
234
150
63
-24
-98
-128
-138
-122
-103
-88
-87
-99
-110
-122
-123
-109
-93
-76
-70
-66
-62
-63
-71
-76
-78
-80
-81
-83
-83
-84
-85
-85
-85
-84
-82
-80
-78
-76
-74
-72
-70
-69
-67
-65
-63
-61
-58
-54
-51
-47
-43
-38
-32
-26
-21
-18
-16
-13
-5
13
29
40
45
48
51
56
56
49
42
34
35
50
73
98
118
136
145
149
152
155
158
161
163
165
167
169
172
177
180
179
170
153
107
58
15
-26
-54
-73
-84
-91
-97
-102
-104
-106
-110
-126
-165
-190
-209
-221
-226
-221
-209
-192
-168
-149
-136
-137
-162
-228
-390
-647
-969
-1280
-1444
-1435
-1225
-795
-325
23
136
143
65
4
-14
7
25
36
42
48
52
56
59
61
64
68
72
76
78
79
80
81
82
83
82
82
82
83
87
84
69
62
59
56
52
49
46
43
38
34
32
29
26
22
16
-14
-62
-116
-170
-198
-209
-208
-192
-167
-138
-93
-34
5
17
24
29
35
39
42
45
49
53
57
59
58
56
54
52
50
49
47
44
42
39
38
36
34
31
29
26
22
7
-29
-70
-114
-162
-194
-189
-135
7
220
470
705
887
959
920
790
583
347
138
0
-46
-49
-21
19
38
45
34
4
-18
-24
-28
-30
-33
-36
-37
-39
-43
-59
-130
-227
-338
-428
-475
-491
-481
-453
-401
-328
-221
-109
-24
43
64
61
41
25
15
10
4
-3
-17
-61
-126
-193
-252
-275
-284
-288
-285
-275
-249
-199
-112
-27
24
42
47
51
55
59
62
68
75
75
64
54
45
38
34
30
25
27
37
64
100
142
184
219
239
257
268
265
253
238
234
232
229
225
222
217
210
200
193
183
170
148
125
111
101
94
94
100
106
111
111
103
98
95
92
89
87
84
82
79
75
69
63
56
50
45
41
37
34
30
16
-10
-36
-53
-67
-77
-80
-78
-70
-48
-24
-1
23
32
32
30
28
25
27
34
39
43
46
49
50
50
49
48
46
44
40
36
42
49
55
46
33
17
8
3
0
-1
-1
-1
1
3
7
10
15
20
26
31
35
40
42
45
48
52
48
44
42
40
39
39
40
42
45
53
73
92
98
102
103
103
101
97
84
64
24
-36
-90
-119
-129
-118
-101
-84
-71
-61
-52
-39
-30
-21
-49
-92
-125
-127
-110
-67
-17
46
135
262
426
609
778
904
947
938
851
693
514
353
231
137
53
-23
-90
-126
-139
-131
-125
-122
-120
-118
-117
-114
-112
-110
-108
-106
-104
-101
-97
-94
-92
-90
-88
-87
-85
-83
-81
-80
-80
-82
-84
-88
-91
-95
-100
-106
-112
-117
-121
-125
-130
-135
-142
-163
-185
-207
-228
-234
-230
-219
-195
-182
-161
-134
-95
-55
-23
-2
2
6
10
14
18
22
27
33
39
43
48
54
61
71
84
103
121
134
145
154
163
167
169
172
175
173
160
147
133
121
106
86
76
71
68
65
62
59
57
55
54
52
49
43
28
14
5
-3
-8
-12
-15
-18
-17
-14
-8
-3
0
5
10
13
16
16
15
14
12
10
7
2
-4
-14
-43
-73
-92
-99
-99
-95
-92
-89
-84
-79
-64
-45
-38
-38
-43
-49
-55
-44
-36
-31
-26
-21
-18
-16
-15
-13
-9
-4
1
7
10
12
14
16
18
18
17
13
9
3
-4
-17
-18
-20
-21
-11
-2
4
9
14
18
22
28
31
27
19
11
3
0
3
12
19
26
33
39
46
55
67
74
79
83
86
87
86
83
77
60
27
-14
-56
-92
-106
-106
-96
-85
-73
-62
-49
-29
-12
-1
-1
-12
-44
-70
-80
-80
-69
-39
24
134
294
496
711
895
1010
1036
976
843
666
483
326
216
151
110
76
37
1
-24
-51
-76
-101
-130
-144
-153
-159
-158
-146
-129
-105
-92
-87
-83
-79
-76
-74
-72
-71
-70
-69
-69
-68
-67
-66
-64
-62
-61
-63
-69
-73
-75
-78
-81
-85
-92
-101
-121
-144
-155
-163
-163
-155
-143
-129
-110
-83
-41
4
26
33
23
14
8
4
1
2
7
12
19
29
42
50
56
62
69
75
81
88
97
105
111
121
141
155
162
168
171
171
169
165
160
150
130
114
105
97
88
80
72
66
59
54
49
45
42
39
37
34
31
26
20
14
8
1
-4
-6
-5
-1
2
5
9
12
13
13
9
3
-4
-13
-25
-36
-45
-60
-84
-104
-118
-124
-122
-115
-110
-105
-100
-99
-102
-111
-121
-133
-150
-151
-138
-121
-97
-79
-64
-50
-31
-16
-10
-4
-4
-8
-15
-21
-10
-2
3
7
10
11
9
4
0
-5
-10
-18
-25
-26
-23
-17
-8
10
21
25
29
31
34
36
38
40
42
44
46
48
50
51
53
56
62
69
78
84
90
95
98
100
100
98
93
87
80
66
40
13
-10
-23
-31
-37
-39
-38
-33
-25
-10
4
10
14
13
-1
-23
-45
-60
-69
-50
5
110
260
446
653
850
1000
1047
1034
924
750
560
396
277
201
149
106
54
-6
-64
-95
-105
-105
-94
-86
-77
-73
-77
-85
-90
-94
-99
-102
-104
-104
-103
-102
-100
-98
-95
-89
-107
-120
-127
-133
-138
-141
-141
-140
-138
-134
-129
-109
-79
-72
-66
-62
-59
-56
-54
-52
-50
-47
-44
-41
-34
-26
-22
-19
-16
-14
-11
-9
-7
-5
-3
-1
0
1
3
6
10
16
30
42
52
61
71
83
102
134
153
163
171
176
179
180
179
175
170
164
157
151
143
135
127
121
116
110
100
85
65
52
43
35
28
21
16
8
-7
-33
-58
-83
-97
-104
-110
-112
-112
-108
-100
-86
-47
-19
-15
-12
-9
-6
-4
-2
0
0
1
1
2
2
1
1
0
0
-1
-3
-6
-8
-11
-14
-16
-18
-20
-22
-24
-26
-28
-31
-34
-36
-37
-36
-35
-31
-27
-23
-20
-18
-15
-12
-9
-6
-4
-2
-2
-2
-2
-2
-3
-5
-7
-10
-12
-14
-16
-18
-21
-24
-27
-25
-18
-10
-2
3
8
12
18
24
29
34
37
39
43
46
51
57
69
75
77
80
84
88
87
79
68
56
42
32
24
17
10
2
-9
-24
-50
-86
-119
-151
-172
-185
-193
-192
-184
-169
-146
-117
-81
-28
56
185
361
563
759
910
968
963
878
727
555
396
265
166
86
20
-27
-44
-47
-43
-38
-33
-35
-49
-61
-73
-84
-96
-104
-110
-115
-118
-120
-118
-114
-107
-99
-87
-68
-51
-42
-36
-31
-27
-24
-22
-23
-27
-33
-40
-47
-55
-69
-77
-73
-66
-60
-54
-49
-42
-35
-28
-21
-14
-7
-2
-1
-5
-12
-22
-39
-69
-104
-123
-130
-135
-122
-99
-71
-40
-10
22
49
71
97
114
122
127
132
139
146
153
159
164
169
174
178
182
183
182
180
175
169
161
147
112
79
59
44
32
26
21
17
13
9
7
5
4
4
5
5
6
7
9
10
12
14
15
17
18
21
25
27
26
21
12
3
-5
-16
-26
-31
-33
-35
-36
-38
-39
-41
-41
-39
-33
-25
-17
-12
-5
1
8
12
13
12
9
7
6
4
2
0
-3
-5
-5
-2
1
5
10
18
23
18
8
2
-1
-5
-8
-10
-11
-11
-10
-8
-5
-2
1
4
7
10
12
14
16
17
19
22
25
27
30
32
33
34
35
35
36
37
37
38
39
41
44
47
49
51
53
53
53
52
49
45
40
35
31
27
23
17
11
5
0
-3
-7
-11
-17
-26
-43
-57
-71
-83
-83
-65
-14
70
193
357
550
739
878
929
879
747
572
401
272
201
174
160
127
61
-24
-101
-121
-126
-130
-112
-100
-93
-88
-85
-82
-81
-81
-82
-83
-84
-86
-89
-92
-95
-98
-102
-106
-108
-109
-108
-106
-102
-98
-94
-91
-88
-85
-83
-81
-79
-77
-75
-74
-72
-71
-71
-70
-68
-68
-67
-66
-65
-64
-62
-59
-57
-54
-52
-49
-44
-36
-29
-22
-15
-8
-1
7
16
26
37
46
55
63
71
80
90
99
107
114
122
130
136
140
140
135
129
121
115
109
101
92
83
74
67
61
56
50
44
36
28
21
14
10
5
0
-4
-8
-11
-13
-15
-17
-19
-21
-23
-24
-27
-34
-39
-35
-27
-22
-19
-16
-14
-12
-12
-13
-15
-18
-22
-27
-31
-34
-37
-40
-43
-47
-50
-53
-55
-56
-56
-56
-55
-54
-53
-51
-48
-45
-41
-38
-35
-31
-28
-24
-22
-20
-18
-16
-14
-12
-11
-10
-9
-9
-8
-8
-8
-8
-8
-8
-8
-8
-8
-8
-8
-7
-7
-6
-5
-4
-4
-2
0
2
3
4
5
6
8
11
13
16
19
23
28
34
39
43
46
48
50
53
55
58
63
70
74
65
48
38
31
25
20
16
11
5
0
-4
-9
-13
-17
-22
-30
-38
-46
-53
-60
-70
-84
-84
-61
1
117
282
487
704
884
980
989
933
782
605
445
320
223
143
68
0
-33
-51
-61
-68
-74
-80
-85
-87
-90
-92
-93
-95
-96
-97
-99
-100
-102
-103
-103
-102
-100
-98
-97
-96
-94
-92
-90
-89
-88
-87
-86
-84
-81
-79
-77
-75
-73
-71
-69
-66
-65
-64
-64
-63
-61
-59
-56
-54
-52
-50
-48
-44
-40
-36
-32
-28
-23
-17
-10
-5
-2
0
2
5
9
14
19
26
38
53
69
90
104
116
123
129
133
136
139
143
146
148
150
152
154
157
163
166
159
145
131
116
104
93
60
21
6
2
0
-2
-3
-5
-5
-5
-4
-1
0
2
4
6
7
9
10
11
10
8
4
0
-4
-8
-13
-19
-24
-30
-33
-33
-31
-28
-25
-22
-15
-5
-4
-14
-21
-26
-31
-35
-35
-32
-28
-24
-21
-14
-11
-17
-30
-38
-46
-54
-57
-53
-45
-36
-27
-15
-6
-3
-1
1
5
8
5
0
-3
-7
-11
-15
-16
-16
-15
-13
-11
-9
-7
-3
0
0
0
0
-1
-2
-3
-5
-2
11
20
26
31
35
39
44
47
50
52
54
56
60
65
69
71
68
60
53
49
46
42
39
36
33
30
27
24
21
18
14
11
8
4
-4
-13
-20
-28
-43
-66
-87
-101
-92
-63
10
134
307
519
738
922
1014
1017
940
776
587
416
288
204
142
89
43
0
-47
-79
-87
-92
-95
-97
-100
-102
-103
-104
-105
-106
-108
-112
-116
-114
-107
-99
-94
-90
-87
-85
-82
-80
-78
-77
-77
-78
-78
-79
-80
-80
-81
-82
-84
-84
-84
-82
-78
-72
-66
-61
-54
-46
-41
-40
-44
-49
-56
-61
-67
-73
-76
-74
-68
-60
-50
-34
-16
-3
7
16
24
32
43
57
76
89
99
107
114
122
128
132
136
139
143
146
147
148
147
145
142
139
135
129
123
111
99
87
77
68
60
52
44
36
28
18
10
4
0
-4
-7
-10
-13
-14
-14
-12
-8
-5
-2
0
3
7
10
12
12
9
4
-1
-8
-17
-33
-41
-45
-49
-53
-55
-51
-44
-41
-39
-37
-35
-34
-33
-33
-32
-31
-31
-30
-29
-28
-28
-27
-27
-26
-26
-25
-25
-25
-25
-23
-21
-14
-10
-14
-20
-23
-26
-27
-29
-31
-33
-34
-34
-34
-34
-33
-32
-31
-29
-28
-34
-38
-41
-44
-47
-48
-46
-42
-37
-32
-28
-24
-19
-14
-9
-5
-2
0
3
7
12
22
36
40
43
45
48
49
46
40
30
12
-10
-20
-26
-31
-33
-32
-29
-26
-22
-18
-15
-19
-28
-41
-62
-87
-109
-128
-140
-126
-86
-1
122
289
488
687
843
890
881
785
643
506
404
320
242
163
77
-7
-73
-100
-110
-115
-118
-116
-112
-107
-101
-94
-90
-93
-98
-101
-102
-103
-104
-106
-106
-107
-108
-108
-106
-104
-102
-99
-95
-91
-86
-80
-69
-61
-60
-63
-66
-68
-69
-71
-74
-75
-76
-77
-78
-78
-78
-77
-74
-70
-66
-61
-57
-50
-36
-19
-8
0
5
9
9
9
8
7
5
1
3
16
30
45
61
82
107
125
137
145
151
155
158
160
160
158
154
151
149
146
140
131
119
108
97
86
78
70
54
36
27
20
17
18
22
25
28
30
29
23
14
6
-1
-9
-17
-25
-34
-45
-51
-47
-39
-31
-24
-17
-10
-2
6
17
17
0
-9
-15
-21
-27
-31
-34
-36
-37
-38
-39
-40
-41
-41
-42
-46
-49
-49
-44
-38
-33
-30
-26
-23
-21
-18
-14
-11
-8
-5
-3
0
0
1
4
7
10
12
13
13
13
11
10
8
6
0
-3
-4
0
7
11
14
18
21
24
27
30
34
36
39
40
41
42
43
44
46
48
49
50
52
54
56
57
58
57
55
52
50
47
44
40
35
31
26
19
11
5
0
-5
-11
-20
-33
-47
-58
-67
-71
-66
-50
-7
80
202
348
506
657
777
834
832
768
639
496
350
218
122
55
4
-14
-21
-24
-28
-32
-40
-47
-52
-55
-57
-58
-59
-59
-60
-61
-63
-65
-67
-69
-70
-71
-71
-71
-71
-71
-73
-75
-77
-80
-85
-89
-89
-87
-83
-79
-73
-72
-77
-80
-84
-87
-88
-83
-73
-59
-34
-12
-7
-3
0
-4
-13
-23
-33
-41
-45
-51
-57
-39
-16
2
14
24
31
39
49
60
70
77
84
91
98
105
113
119
125
130
135
140
143
146
146
145
143
140
137
133
129
124
119
112
104
94
81
64
39
19
11
7
4
1
-1
-3
-5
-7
-9
-9
-11
-12
-14
-16
-17
-17
-17
-17
-17
-18
-19
-21
-22
-24
-25
-27
-29
-31
-33
-35
-37
-39
-40
-42
-44
-46
-48
-54
-58
-57
-49
-40
-35
-32
-29
-27
-25
-24
-22
-20
-18
-15
-13
-11
-11
-11
-11
-10
-10
-10
-10
-10
-9
-7
-5
-2
-1
-3
-8
-14
-21
-27
-36
-44
-45
-38
-29
-22
-16
-11
-7
-3
0
4
7
10
12
14
15
17
19
22
25
27
30
31
33
35
37
39
43
51
56
49
37
28
20
13
8
5
2
-1
-7
-11
-10
-4
0
6
9
2
-16
-44
-82
-117
-138
-151
-147
-99
-5
135
320
529
726
871
932
932
868
746
599
446
297
160
48
-14
-31
-41
-50
-59
-68
-75
-81
-87
-92
-97
-100
-102
-102
-101
-100
-101
-101
-101
-99
-97
-94
-92
-89
-88
-89
-92
-97
-101
-104
-107
-110
-113
-113
-108
-100
-93
-90
-88
-86
-84
-81
-77
-73
-69
-65
-60
-56
-52
-48
-46
-43
-41
-39
-35
-30
-26
-22
-17
-13
-8
-3
0
4
7
10
15
23
33
44
55
67
78
90
103
116
132
151
156
157
158
158
159
159
155
147
138
129
120
111
101
90
79
66
50
35
21
15
11
8
6
5
3
2
1
0
-1
-3
-6
-7
-9
-11
-11
-11
-10
-10
-10
-10
-10
-11
-12
-13
-15
-18
-21
-24
-26
-27
-28
-29
-31
-32
-32
-33
-33
-35
-38
-41
-43
-44
-44
-44
-44
-43
-40
-36
-31
-26
-22
-20
-18
-15
-11
-7
-2
1
4
6
8
10
11
12
11
11
12
15
19
23
24
24
23
23
23
23
22
20
19
18
17
17
18
21
25
31
37
43
48
51
55
59
64
68
71
74
77
79
80
80
80
78
76
73
69
64
60
55
51
46
37
26
18
13
9
5
1
-3
-7
-14
-26
-41
-55
-73
-83
-76
-56
-1
104
265
478
713
926
1069
1091
1060
909
702
489
312
194
131
96
43
-14
-36
-52
-61
-68
-75
-83
-90
-97
-106
-112
-112
-107
-100
-95
-89
-84
-81
-80
-83
-87
-92
-96
-102
-108
-107
-98
-87
-83
-80
-78
-76
-74
-72
-70
-67
-66
-64
-64
-63
-62
-61
-60
-59
-58
-58
-58
-56
-55
-53
-52
-50
-48
-45
-42
-39
-35
-28
-19
-11
-4
2
10
20
34
47
61
71
78
84
89
94
99
104
109
115
125
142
153
161
168
172
172
163
151
139
124
113
105
98
90
82
71
59
44
31
22
15
11
9
10
13
16
19
24
27
21
10
1
-8
-14
-17
-18
-21
-24
-26
-26
-22
-18
-14
-12
-9
-8
-7
-7
-10
-16
-21
-26
-29
-32
-35
-37
-39
-41
-43
-45
-48
-50
-52
-53
-53
-52
-51
-49
-46
-44
-40
-37
-35
-33
-31
-29
-27
-26
-25
-24
-24
-23
-22
-19
-17
-15
-13
-12
-12
-11
-10
-9
-8
-8
-8
-8
-7
-5
-4
-3
-2
-1
0
1
3
5
6
9
12
17
24
30
36
41
46
52
59
68
74
74
68
59
52
42
35
28
16
1
-4
-7
-9
-12
-14
-17
-19
-21
-23
-26
-30
-38
-57
-78
-91
-97
-102
-84
-28
64
199
376
584
790
955
1014
1004
896
712
503
313
179
103
52
9
-17
-34
-44
-51
-58
-65
-73
-92
-114
-122
-125
-128
-130
-132
-133
-134
-135
-136
-137
-137
-137
-136
-134
-132
-130
-128
-126
-123
-120
-117
-115
-112
-106
-99
-93
-89
-86
-84
-82
-80
-78
-76
-75
-74
-75
-75
-75
-75
-74
-74
-75
-74
-73
-72
-70
-66
-60
-52
-44
-33
-22
-12
-3
5
18
34
47
59
70
76
80
85
93
115
131
139
146
151
153
154
152
149
144
138
131
124
115
106
97
90
82
72
59
48
39
33
29
26
23
21
20
19
18
16
14
12
10
7
1
-1
-1
0
0
0
1
2
2
1
0
-2
-4
-9
-12
-10
-6
-1
5
5
-5
-19
-33
-41
-48
-54
-52
-38
-29
-22
-15
-10
-8
-9
-11
-14
-16
-18
-19
-21
-23
-25
-26
-26
-24
-20
-16
-12
-8
-5
-2
1
4
7
8
10
11
14
16
18
20
21
23
24
24
25
25
25
25
25
26
28
30
32
34
37
39
41
44
47
50
55
60
71
89
88
87
88
88
88
84
74
64
56
48
41
34
28
24
21
18
15
12
8
3
-1
-7
-15
-34
-56
-70
-79
-68
-38
40
169
341
536
718
846
874
862
772
643
503
371
247
131
32
-25
-46
-53
-51
-44
-35
-26
-42
-69
-96
-109
-116
-121
-122
-121
-115
-108
-102
-98
-93
-88
-82
-78
-76
-76
-78
-80
-83
-86
-91
-98
-98
-85
-80
-77
-75
-73
-71
-69
-68
-67
-66
-65
-65
-64
-63
-62
-61
-60
-59
-58
-56
-55
-53
-52
-52
-51
-49
-48
-45
-43
-40
-36
-27
-16
-6
4
14
25
36
47
56
63
69
81
105
123
132
139
143
145
145
141
134
125
114
96
69
50
40
33
27
22
17
11
7
3
0
-2
-6
-11
-17
-23
-28
-32
-38
-44
-49
-52
-52
-50
-45
-39
-33
-24
-9
-9
-27
-39
-48
-57
-64
-67
-65
-61
-56
-52
-47
-39
-32
-31
-33
-38
-41
-45
-48
-50
-50
-48
-46
-44
-42
-41
-39
-37
-35
-35
-34
-34
-34
-32
-30
-29
-29
-29
-30
-29
-27
-26
-24
-23
-22
-19
-15
-9
-3
3
8
12
16
20
24
27
28
27
25
23
20
17
14
10
4
0
-3
0
8
18
29
45
54
59
63
67
71
74
77
77
75
70
64
60
55
50
43
35
26
17
7
-1
-10
-20
-27
-32
-36
-40
-44
-50
-56
-58
-55
-44
-24
35
143
294
477
664
817
889
892
833
709
562
408
258
133
42
-4
-21
-22
-17
-12
-7
-30
-70
-96
-103
-107
-110
-110
-106
-99
-93
-89
-85
-81
-78
-74
-71
-67
-63
-57
-50
-67
-80
-88
-94
-98
-98
-95
-89
-81
-73
-60
-54
-51
-48
-45
-43
-44
-48
-50
-52
-54
-55
-55
-56
-57
-58
-58
-56
-52
-46
-40
-34
-28
-22
-15
-7
2
12
23
34
47
59
68
74
80
87
96
107
119
126
132
136
139
141
143
144
144
143
141
138
134
128
121
112
93
78
68
60
53
45
38
32
26
20
15
10
6
2
-3
-9
-14
-14
-14
-13
-13
-12
-12
-13
-12
-13
-16
-21
-25
-30
-37
-44
-47
-45
-40
-35
-31
-27
-24
-21
-19
-17
-16
-16
-16
-16
-17
-19
-21
-24
-25
-26
-28
-31
-33
-35
-36
-35
-33
-30
-28
-26
-25
-24
-24
-23
-22
-21
-20
-19
-17
-15
-13
-12
-10
-10
-10
-9
-8
-7
-5
-4
-2
0
0
2
4
5
6
7
7
9
10
11
13
15
16
18
20
23
26
28
29
30
32
34
37
41
44
46
49
51
53
53
53
51
48
46
43
39
35
31
25
15
5
-2
-10
-19
-30
-42
-53
-72
-91
-103
-111
-97
-53
49
211
417
637
835
961
980
950
828
672
516
381
275
191
112
38
-16
-41
-56
-65
-73
-79
-84
-90
-95
-96
-95
-93
-91
-88
-87
-89
-93
-95
-95
-96
-97
-98
-100
-102
-103
-104
-104
-103
-101
-99
-96
-93
-89
-86
-82
-78
-70
-54
-48
-44
-39
-37
-43
-54
-61
-68
-75
-79
-78
-73
-64
-54
-46
-35
-25
-15
-7
0
9
20
29
33
36
39
40
41
42
43
45
48
52
56
62
69
79
98
114
131
147
166
181
195
201
196
184
167
145
130
121
109
93
81
72
65
58
52
46
41
36
32
28
24
21
19
18
18
17
17
16
15
14
13
13
12
11
9
7
4
1
0
-1
-2
-4
-7
-9
-12
-15
-18
-21
-25
-29
-34
-37
-40
-43
-46
-49
-54
-57
-60
-62
-61
-60
-57
-54
-49
-45
-40
-36
-32
-28
-24
-21
-17
-14
-12
-9
-6
-3
0
3
6
10
14
17
20
22
23
24
24
24
23
23
22
22
21
21
20
20
21
22
24
25
27
29
32
35
38
41
44
47
51
55
60
65
70
74
78
81
82
82
80
78
74
70
66
62
58
53
48
43
37
31
25
21
18
14
8
1
-13
-42
-72
-89
-98
-103
-80
-10
98
246
429
633
828
975
1016
1002
891
728
556
406
292
206
128
53
-6
-49
-66
-70
-72
-74
-76
-77
-78
-80
-82
-84
-86
-88
-90
-91
-93
-95
-97
-99
-101
-102
-104
-105
-106
-107
-106
-104
-101
-97
-92
-88
-84
-80
-76
-73
-71
-69
-68
-67
-66
-64
-63
-61
-60
-59
-58
-56
-54
-52
-51
-50
-48
-45
-42
-39
-36
-32
-27
-15
-1
8
17
25
31
38
46
54
61
68
74
79
85
93
100
108
115
119
123
127
131
134
136
137
137
135
133
131
128
123
118
110
94
76
55
37
33
31
29
28
27
26
25
22
17
12
3
-11
-22
-31
-39
-37
-24
-17
-12
-9
-5
-3
-1
-2
-4
-8
-13
-18
-23
-26
-29
-33
-37
-41
-45
-48
-49
-51
-51
-52
-51
-50
-48
-45
-42
-40
-39
-38
-36
-32
-28
-25
-24
-24
-24
-24
-23
-22
-22
-23
-25
-26
-26
-25
-25
-26
-26
-26
-25
-23
-21
-20
-19
-19
-19
-19
-19
-19
-19
-19
-18
-16
-14
-12
-9
-7
-3
0
4
8
13
19
27
34
38
42
46
49
54
58
62
64
63
60
56
52
48
44
37
30
22
13
5
0
-4
-9
-14
-18
-23
-26
-28
-31
-36
-42
-55
-83
-106
-120
-121
-111
-81
-20
77
218
396
598
788
931
974
959
837
646
439
261
142
86
61
29
-17
-74
-137
-157
-164
-169
-157
-149
-145
-142
-139
-136
-134
-131
-129
-125
-122
-120
-119
-118
-117
-115
-113
-110
-106
-103
-99
-96
-93
-90
-87
-84
-83
-82
-81
-80
-78
-76
-73
-71
-69
-67
-66
-65
-63
-63
-62
-62
-61
-59
-55
-51
-46
-37
-28
-22
-17
-12
-8
-4
-2
0
3
6
9
12
14
16
19
25
35
47
60
70
78
85
92
97
102
112
122
125
127
129
130
129
126
121
113
90
53
37
30
25
20
14
8
4
0
-2
-5
-7
-10
-11
-12
-13
-15
-18
-21
-27
-27
-17
-3
8
13
16
19
21
21
18
14
8
1
-8
-13
-10
-5
-3
-1
0
1
2
3
5
7
9
9
9
8
6
4
2
0
-3
-6
-8
-10
-11
-14
-18
-22
-24
-24
-20
-15
-9
-4
0
6
14
19
21
21
22
23
25
23
12
5
0
-6
-10
-12
-11
-7
-4
0
1
4
8
11
15
18
21
24
29
36
50
75
93
105
105
93
83
75
69
66
63
59
55
53
56
62
68
76
75
64
57
51
47
43
40
37
34
31
28
24
21
15
8
0
-21
-43
-54
-61
-49
-16
64
191
360
552
734
862
908
866
748
587
432
318
243
187
132
72
10
-41
-54
-56
-57
-61
-71
-85
-101
-110
-117
-116
-103
-95
-90
-85
-82
-80
-78
-76
-73
-70
-67
-64
-59
-51
-47
-50
-57
-63
-70
-74
-72
-68
-65
-63
-61
-60
-59
-57
-55
-52
-48
-44
-39
-36
-31
-25
-18
-13
-9
-6
-3
0
1
5
9
14
19
24
28
32
36
41
46
51
56
62
73
89
98
109
126
143
155
159
162
164
166
167
167
166
162
155
148
139
126
116
108
103
98
94
90
86
83
79
74
65
46
30
18
11
8
5
4
2
1
0
-3
-6
-8
-10
-12
-15
-19
-24
-27
-27
-25
-22
-20
-18
-16
-13
-11
-10
-11
-15
-22
-29
-38
-53
-65
-82
-103
-136
-171
-205
-218
-218
-208
-180
-140
-127
-138
-171
-222
-287
-361
-436
-495
-525
-536
-520
-470
-374
-279
-210
-177
-165
-161
-166
-177
-185
-193
-199
-200
-193
-183
-166
-138
-106
-79
-55
-35
-18
2
16
24
30
35
39
42
45
48
52
56
60
65
69
71
73
75
77
79
80
79
76
72
68
63
59
54
50
46
43
40
37
35
34
31
29
26
24
21
19
17
14
10
5
0
-5
-14
-27
-27
-3
59
185
364
582
796
963
1049
987
765
426
62
-219
-329
-328
-212
-62
39
64
56
-11
-60
-91
-101
-93
-68
-27
0
10
9
-6
-29
-56
-82
-100
-108
-114
-112
-96
-73
-44
-31
-27
-24
-21
-18
-16
-14
-12
-9
-7
-5
-3
-1
0
2
4
8
13
19
25
32
38
41
44
47
50
52
55
56
57
59
61
63
65
65
64
63
64
65
67
70
78
92
98
101
105
111
119
129
146
173
187
193
198
202
204
205
207
207
207
207
205
202
198
193
186
173
143
118
99
83
70
60
51
43
38
33
29
26
24
23
23
24
25
27
31
36
36
23
17
13
9
6
4
1
-2
-6
-11
-14
-17
-20
-21
-23
-25
-27
-29
-31
-33
-34
-36
-36
-37
-37
-36
-35
-34
-32
-30
-28
-27
-25
-22
-19
-16
-14
-12
-12
-12
-13
-14
-16
-19
-26
-17
-13
-11
-10
-9
-9
-8
-8
-8
-7
-6
-6
-6
-7
-9
-10
-11
-11
-11
-11
-12
-13
-13
-12
-11
-9
-7
-6
-4
-3
-1
0
2
5
8
13
20
26
32
37
41
46
51
56
63
68
72
71
68
62
56
46
30
13
2
-4
-9
-15
-20
-26
-30
-35
-40
-47
-59
-69
-77
-84
-90
-93
-86
-68
-16
76
208
379
578
772
924
983
977
887
730
556
402
281
185
98
15
-61
-113
-133
-133
-116
-89
-68
-61
-55
-56
-69
-84
-100
-113
-119
-124
-128
-131
-134
-134
-131
-126
-119
-113
-108
-103
-98
-93
-89
-85
-83
-79
-75
-68
-64
-65
-69
-70
-72
-73
-75
-77
-79
-80
-81
-81
-81
-79
-76
-72
-67
-62
-57
-53
-47
-36
-26
-21
-18
-16
-14
-11
-6
0
9
22
45
74
92
105
111
115
117
119
120
123
125
128
131
134
136
140
143
145
145
141
135
128
121
114
105
95
85
75
66
56
47
38
29
20
10
0
-13
-21
-22
-23
-24
-26
-28
-27
-20
-9
0
12
19
14
5
0
-4
-9
-14
-16
-16
-14
-11
-9
-5
0
3
-4
-18
-25
-31
-37
-42
-46
-49
-50
-50
-49
-47
-45
-41
-38
-35
-32
-29
-27
-25
-23
-21
-19
-18
-17
-15
-14
-13
-12
-12
-11
-11
-10
-10
-9
-8
-7
-6
-6
-6
-5
-4
-3
-2
-2
-2
-2
-1
-1
-1
0
0
0
0
2
4
6
8
10
14
19
24
28
32
35
39
44
50
56
60
64
67
69
71
72
72
71
69
67
64
62
59
55
51
43
27
6
-9
-21
-32
-41
-50
-58
-65
-71
-76
-79
-83
-94
-93
-56
21
145
318
530
754
944
1043
1050
989
837
645
449
281
155
69
32
21
13
5
-3
-33
-83
-138
-154
-159
-163
-144
-119
-98
-90
-86
-84
-81
-79
-79
-79
-80
-82
-85
-88
-90
-92
-95
-97
-100
-101
-102
-102
-99
-96
-91
-85
-80
-74
-70
-67
-64
-61
-58
-55
-52
-50
-48
-47
-45
-43
-41
-40
-39
-38
-36
-35
-33
-31
-29
-27
-25
-22
-16
-10
-2
5
14
25
41
64
88
105
119
129
134
137
139
141
143
145
148
150
153
156
162
169
152
129
110
93
76
59
42
33
27
21
17
14
12
10
9
9
8
7
6
5
5
4
4
3
1
0
-1
-2
-3
-3
-4
-5
-7
-10
-13
-17
-21
-25
-29
-36
-44
-48
-50
-51
-51
-52
-53
-54
-54
-54
-54
-54
-54
-55
-54
-53
-50
-47
-44
-43
-41
-41
-40
-39
-38
-38
-37
-37
-36
-35
-34
-32
-31
-29
-28
-26
-24
-23
-21
-19
-17
-13
-6
1
4
3
0
-1
-3
-5
-8
-10
-10
-9
-6
-2
1
3
7
11
15
20
24
27
30
35
40
45
49
53
57
62
69
75
78
76
70
62
50
28
-8
-27
-39
-48
-53
-54
-49
-42
-32
-12
9
18
25
24
4
-24
-57
-84
-101
-111
-116
-95
-30
83
241
436
644
821
916
925
875
747
581
409
276
200
152
107
56
20
-14
-39
-55
-64
-69
-74
-77
-80
-82
-83
-84
-84
-85
-86
-89
-91
-89
-78
-67
-62
-59
-57
-54
-52
-50
-48
-46
-46
-45
-45
-44
-44
-44
-43
-42
-41
-39
-38
-38
-37
-37
-37
-37
-37
-37
-36
-35
-33
-31
-29
-27
-24
-19
-8
3
13
22
30
36
43
50
59
67
72
77
81
85
90
95
99
103
107
112
119
130
150
168
182
193
201
201
191
177
164
150
137
125
115
106
97
88
79
72
66
60
54
47
39
31
22
16
13
11
8
5
3
1
0
0
-1
-3
-5
-6
-7
-7
-7
-8
-10
-11
-12
-13
-14
-14
-15
-16
-16
-16
-16
-16
-16
-17
-19
-22
-24
-26
-27
-28
-30
-33
-35
-37
-38
-39
-41
-44
-48
-51
-52
-49
-45
-40
-37
-35
-32
-29
-26
-22
-18
-15
-13
-10
-7
-5
-3
-2
-2
-3
-2
-1
0
2
3
3
3
4
5
7
8
9
10
11
13
15
17
20
21
23
26
29
32
35
38
41
46
51
56
61
63
62
60
57
54
51
46
41
31
20
7
-5
-15
-25
-33
-41
-48
-54
-60
-65
-72
-81
-89
-92
-88
-77
-59
-2
105
251
427
612
770
847
849
785
664
528
412
325
244
145
22
-96
-162
-184
-164
-101
-46
-26
-26
-49
-85
-116
-130
-140
-137
-116
-97
-79
-71
-69
-68
-65
-63
-63
-71
-81
-87
-93
-98
-102
-106
-107
-107
-104
-101
-96
-93
-91
-89
-87
-85
-83
-80
-76
-73
-70
-67
-64
-61
-58
-55
-52
-50
-49
-48
-46
-43
-39
-34
-29
-24
-19
-14
-8
-2
3
8
14
22
36
50
63
74
82
90
98
105
112
117
121
123
126
130
135
140
143
142
137
129
121
110
93
81
66
44
19
-2
-10
-14
-17
-20
-21
-22
-23
-24
-24
-24
-23
-23
-22
-21
-20
-20
-19
-18
-16
-15
-13
-9
-7
-14
-26
-33
-39
-44
-49
-53
-55
-55
-54
-52
-49
-47
-45
-40
-37
-41
-48
-52
-56
-60
-62
-62
-60
-55
-50
-43
-35
-23
-16
-12
-10
-8
-7
-6
-4
-3
-2
-3
-3
-4
-5
-7
-9
-11
-13
-15
-17
-18
-18
-18
-17
-16
-16
-15
-15
-15
-16
-15
-15
-15
-15
-14
-13
-11
-10
-7
-5
-2
1
4
7
10
13
19
36
48
55
61
65
67
67
62
55
47
41
36
30
25
20
15
10
4
0
-5
-12
-18
-24
-29
-35
-39
-43
-48
-58
-72
-78
-84
-89
-70
-13
88
238
434
651
844
960
974
929
788
610
429
277
168
99
59
35
18
7
-2
-9
-33
-69
-117
-136
-143
-147
-150
-151
-148
-141
-133
-126
-117
-110
-106
-101
-98
-95
-93
-92
-91
-89
-88
-87
-86
-85
-84
-83
-81
-79
-78
-77
-76
-73
-69
-64
-60
-58
-56
-55
-54
-54
-54
-53
-53
-52
-52
-50
-49
-47
-46
-44
-42
-40
-36
-29
-14
1
14
23
32
39
46
53
59
67
76
86
98
112
122
130
135
139
141
143
145
147
147
145
141
136
130
123
115
102
90
82
76
70
65
59
51
41
31
23
15
8
2
0
-1
0
2
6
9
12
19
18
6
-2
-9
-15
-19
-22
-23
-24
-24
-25
-25
-26
-25
-24
-23
-23
-24
-25
-26
-27
-27
-27
-28
-28
-29
-31
-32
-34
-36
-40
-48
-54
-51
-45
-42
-40
-38
-37
-35
-34
-31
-29
-27
-23
-19
-14
-9
0
6
2
-6
-15
-25
-24
-8
0
8
15
19
19
14
6
-2
-12
-25
-32
-24
-11
-1
8
17
22
25
27
27
28
29
31
33
36
37
37
38
38
39
40
40
40
40
40
40
40
40
39
38
36
35
34
32
30
27
24
20
15
3
-6
-17
-34
-58
-76
-89
-96
-103
-109
-93
-44
51
198
394
614
826
994
1054
1044
927
735
523
336
208
129
75
33
-3
-27
-50
-66
-73
-76
-79
-81
-83
-86
-90
-94
-99
-105
-111
-119
-125
-129
-127
-122
-116
-111
-107
-103
-98
-93
-91
-90
-91
-91
-91
-90
-90
-91
-90
-78
-71
-66
-62
-59
-57
-57
-56
-56
-55
-55
-56
-57
-59
-60
-62
-65
-71
-69
-53
-39
-27
-18
-11
-6
-1
3
8
13
18
24
31
42
59
81
96
105
113
119
125
129
133
145
157
160
163
165
166
165
158
148
138
130
120
111
102
96
90
85
77
63
44
33
28
23
20
17
15
13
10
8
6
4
2
1
0
0
0
0
-1
-2
-3
-5
-7
-9
-10
-11
-12
-13
-14
-15
-16
-18
-20
-22
-25
-28
-31
-32
-33
-33
-33
-33
-31
-30
-27
-25
-23
-23
-22
-22
-22
-21
-20
-19
-18
-17
-16
-14
-12
-10
-10
-10
-10
-10
-10
-9
-8
-7
-5
-3
-1
1
4
6
7
8
9
10
10
10
11
11
12
13
15
17
20
23
26
30
33
37
40
43
46
48
52
56
61
66
69
71
71
71
69
67
63
58
50
36
17
6
0
-6
-11
-15
-20
-23
-26
-29
-32
-37
-49
-71
-90
-101
-92
-66
-2
101
250
430
618
783
900
947
945
884
754
582
400
230
94
3
-15
-20
-25
-34
-45
-64
-84
-91
-94
-96
-98
-100
-99
-99
-100
-101
-101
-100
-98
-95
-92
-90
-88
-88
-88
-88
-88
-88
-88
-88
-88
-87
-85
-83
-82
-80
-78
-76
-75
-73
-71
-70
-70
-69
-68
-67
-64
-60
-57
-53
-50
-46
-43
-39
-35
-31
-27
-21
-12
-2
5
12
18
24
29
34
40
49
60
71
80
89
99
107
111
112
113
113
114
116
119
131
141
148
152
151
144
135
125
113
102
91
78
63
49
35
21
3
-3
-6
-9
-11
-13
-14
-15
-15
-15
-16
-16
-17
-17
-18
-18
-19
-20
-21
-22
-23
-25
-26
-28
-30
-32
-34
-35
-38
-41
-45
-48
-52
-54
-54
-54
-53
-51
-49
-45
-41
-36
-27
-13
-7
-2
1
2
-3
-14
-21
-27
-31
-35
-38
-39
-39
-37
-34
-31
-27
-24
-21
-18
-14
-11
-8
-5
-3
0
1
3
4
5
6
7
10
12
14
13
10
5
1
-3
-11
-10
2
14
25
35
42
54
70
80
87
87
73
60
48
36
26
19
14
11
7
3
0
-3
-6
-10
-14
-19
-28
-38
-48
-60
-74
-87
-98
-108
-109
-94
-55
30
159
323
502
664
783
822
814
734
592
422
254
117
20
-43
-59
-61
-63
-64
-65
-66
-68
-73
-79
-87
-100
-118
-123
-127
-131
-119
-99
-82
-73
-67
-64
-71
-84
-92
-100
-107
-112
-112
-107
-101
-95
-90
-85
-80
-77
-73
-71
-69
-68
-66
-64
-62
-60
-58
-57
-56
-55
-53
-51
-48
-46
-43
-39
-33
-28
-28
-31
-35
-39
-45
-47
-43
-30
4
42
61
68
72
74
77
80
85
89
93
100
108
128
152
162
168
171
171
164
154
138
113
101
96
91
87
83
78
75
71
66
60
47
20
4
-4
-10
-15
-17
-16
-12
-8
-3
0
2
5
8
11
12
11
7
1
-3
-8
-12
-17
-22
-28
-32
-34
-33
-30
-26
-23
-19
-16
-11
-5
-1
1
1
0
-3
-7
-11
-18
-22
-16
-7
-4
-2
0
1
3
5
7
9
11
12
13
12
11
10
9
8
7
6
5
5
5
6
7
7
7
7
7
6
6
5
5
5
6
8
11
13
15
17
20
24
28
32
35
38
40
44
49
53
55
53
48
42
36
31
24
17
11
8
6
4
0
-5
-6
0
6
13
17
12
0
-18
-47
-79
-100
-114
-122
-97
-21
107
285
491
696
859
936
939
883
759
610
462
330
220
121
29
-23
-38
-47
-54
-62
-68
-73
-78
-83
-87
-91
-94
-96
-96
-96
-98
-101
-106
-113
-112
-98
-81
-66
-64
-62
-60
-62
-77
-89
-100
-109
-112
-113
-114
-116
-118
-106
-97
-92
-88
-84
-82
-80
-79
-78
-77
-76
-74
-73
-73
-72
-71
-69
-65
-62
-58
-53
-47
-38
-23
-6
2
8
12
17
22
27
31
35
40
48
62
81
92
98
103
107
110
113
116
118
121
123
124
127
130
134
137
136
127
113
91
62
43
28
14
7
4
1
-1
-3
-5
-7
-9
-12
-14
-17
-20
-21
-22
-23
-23
-24
-25
-26
-27
-29
-30
-32
-35
-37
-40
-41
-43
-45
-46
-47
-48
-48
-47
-47
-47
-48
-50
-51
-52
-53
-56
-58
-60
-60
-56
-51
-44
-39
-35
-32
-28
-25
-21
-19
-17
-16
-15
-14
-13
-11
-10
-10
-11
-11
-11
-10
-9
-7
-6
-5
-4
-4
-4
-4
-3
-3
-3
-3
-2
-2
0
2
5
9
12
14
17
20
22
25
27
30
32
35
39
43
46
48
49
48
47
45
43
41
39
37
35
33
32
31
29
26
23
20
17
14
10
5
-4
-23
-29
-37
-43
-30
7
87
215
390
594
790
937
979
967
864
713
554
410
287
187
106
40
-12
-42
-64
-79
-86
-91
-94
-96
-97
-98
-100
-101
-103
-104
-105
-106
-106
-106
-105
-105
-105
-105
-106
-107
-107
-106
-105
-104
-102
-100
-97
-94
-91
-88
-85
-82
-79
-71
-63
-59
-56
-54
-52
-50
-49
-47
-46
-44
-43
-40
-37
-33
-30
-26
-21
-11
0
14
24
31
38
44
49
54
58
63
68
75
86
99
115
130
144
155
164
169
173
178
181
183
183
182
179
176
171
164
155
137
120
102
86
81
77
74
71
67
59
52
47
43
39
36
33
31
28
24
21
18
15
12
9
3
-6
-16
-25
-33
-40
-43
-36
-24
-18
-13
-9
-5
-3
-3
-4
-8
-12
-17
-20
-22
-25
-27
-30
-32
-34
-37
-40
-44
-46
-47
-47
-46
-43
-41
-38
-35
-31
-28
-24
-20
-18
-16
-13
-9
-6
-2
0
1
1
0
0
-1
-3
-5
-9
-12
-15
-16
-14
-11
-7
-2
1
7
14
22
29
35
39
42
45
47
50
52
54
55
56
57
58
58
58
57
57
56
54
53
51
50
48
46
44
40
31
22
15
9
4
0
-4
-8
-15
-26
-47
-69
-89
-105
-115
-101
-63
33
174
349
549
755
931
1029
1037
980
829
638
449
293
171
76
13
-22
-44
-56
-62
-67
-70
-73
-76
-79
-81
-84
-86
-88
-90
-91
-92
-92
-93
-95
-97
-99
-101
-102
-102
-103
-103
-103
-102
-100
-98
-96
-95
-94
-92
-91
-89
-87
-86
-86
-85
-83
-80
-76
-72
-69
-67
-64
-61
-57
-54
-50
-47
-45
-42
-38
-35
-31
-27
-23
-18
-13
-8
-3
1
9
21
35
49
63
79
90
97
104
110
115
120
123
126
129
131
133
135
136
135
134
132
130
126
122
118
109
90
71
48
35
28
23
19
16
13
10
7
4
2
0
-2
-5
-10
-15
-18
-17
-14
-11
-7
-4
0
4
4
0
-7
-20
-39
-47
-50
-54
-57
-60
-61
-62
-62
-62
-61
-59
-58
-55
-52
-48
-45
-41
-34
-28
-28
-31
-35
-38
-41
-43
-45
-45
-46
-46
-46
-46
-46
-45
-43
-41
-38
-36
-34
-30
-25
-19
-16
-16
-18
-22
-26
-30
-35
-37
-33
-24
-18
-14
-9
-4
0
3
7
10
12
15
17
19
22
24
26
28
30
33
36
41
54
66
68
70
69
59
51
45
38
29
20
14
9
4
0
-3
-7
-11
-13
-16
-19
-23
-28
-41
-62
-74
-82
-82
-67
-27
51
170
328
512
699
858
940
942
867
693
487
314
206
154
127
87
36
-17
-63
-87
-99
-105
-109
-112
-113
-112
-107
-101
-94
-86
-75
-67
-66
-69
-75
-79
-83
-86
-87
-84
-80
-75
-72
-70
-68
-66
-64
-62
-59
-58
-56
-55
-53
-51
-48
-43
-33
-34
-46
-54
-59
-63
-66
-67
-65
-62
-58
-53
-42
-15
2
10
17
22
26
29
32
35
38
40
43
46
50
56
64
71
81
98
120
132
139
145
153
159
165
173
178
178
172
165
159
152
145
139
132
120
98
72
47
31
21
12
4
-2
-8
-13
-12
-6
0
5
10
14
18
21
20
17
12
6
1
-2
-7
-12
-17
-21
-25
-28
-30
-32
-33
-34
-35
-36
-38
-41
-45
-47
-46
-43
-38
-34
-31
-27
-25
-24
-26
-29
-32
-34
-38
-42
-44
-44
-39
-33
-28
-25
-23
-21
-20
-18
-17
-16
-15
-14
-13
-12
-12
-11
-10
-9
-8
-7
-6
-6
-5
-5
-3
-2
0
2
6
12
18
21
22
21
18
15
12
7
4
12
26
35
42
49
56
59
60
57
53
47
39
22
3
0
-3
-6
-7
-8
-9
-12
-15
-17
-20
-23
-27
-32
-44
-66
-80
-89
-88
-70
-24
71
207
375
562
732
851
893
853
743
591
426
276
162
90
52
33
7
-30
-76
-113
-127
-126
-111
-99
-88
-80
-79
-82
-87
-91
-95
-99
-100
-98
-94
-91
-88
-86
-83
-81
-79
-79
-79
-80
-81
-82
-84
-88
-90
-84
-71
-61
-53
-45
-42
-41
-40
-39
-38
-37
-37
-42
-49
-53
-57
-60
-63
-66
-66
-64
-59
-51
-42
-23
0
11
16
22
32
42
50
59
67
74
79
86
98
121
133
138
143
147
149
150
150
150
150
148
145
143
140
136
130
123
116
106
89
61
43
33
26
21
18
16
14
12
11
9
7
5
1
-3
-7
-11
-15
-18
-21
-24
-26
-28
-29
-30
-31
-32
-32
-32
-30
-29
-28
-26
-23
-21
-22
-26
-27
-28
-29
-30
-31
-31
-32
-33
-35
-36
-37
-37
-37
-37
-36
-37
-37
-37
-37
-38
-41
-43
-38
-26
-19
-13
-7
-2
0
0
-1
-3
-7
-10
-12
-15
-17
-20
-22
-22
-20
-15
-10
-5
-1
1
5
10
14
18
21
24
27
29
32
34
37
39
41
44
46
48
51
53
54
53
52
49
46
43
39
33
25
10
1
-2
-7
-13
-16
-13
-4
5
16
2
-18
-48
-85
-109
-122
-130
-104
-26
113
301
517
727
893
966
965
888
745
587
443
330
240
147
49
-41
-75
-87
-78
-66
-57
-78
-100
-117
-126
-119
-105
-94
-81
-72
-72
-81
-91
-98
-106
-113
-116
-113
-107
-100
-96
-93
-91
-89
-87
-85
-83
-82
-82
-84
-85
-87
-88
-89
-91
-93
-96
-97
-95
-90
-83
-76
-71
-66
-60
-55
-50
-45
-42
-41
-38
-35
-31
-26
-22
-17
-12
-6
3
18
33
51
78
93
100
105
109
112
116
120
123
126
130
134
139
146
158
165
159
147
134
118
107
100
96
91
85
76
66
57
48
40
33
27
23
18
15
12
10
8
6
4
2
0
-2
-4
-6
-7
-7
-8
-10
-12
-13
-17
-24
-28
-25
-18
-15
-13
-11
-10
-10
-10
-10
-10
-11
-14
-19
-25
-32
-38
-43
-51
-60
-68
-72
-70
-64
-56
-47
-41
-34
-27
-21
-17
-14
-11
-9
-8
-6
-5
-3
-1
0
1
1
1
1
1
0
0
0
-1
-2
-2
-3
-3
-3
-2
-2
-3
-4
-4
-4
1
8
16
23
30
38
45
51
56
59
62
65
68
72
76
77
78
76
72
67
62
57
50
38
26
12
3
-3
-8
-13
-18
-22
-27
-31
-36
-43
-61
-88
-107
-118
-102
-53
56
223
432
656
859
998
1043
991
857
679
501
358
266
210
164
107
35
-36
-81
-97
-103
-98
-88
-81
-74
-68
-66
-68
-74
-83
-98
-122
-136
-144
-150
-151
-146
-136
-119
-96
-83
-75
-71
-71
-75
-80
-82
-84
-86
-87
-88
-87
-84
-79
-73
-68
-65
-62
-58
-55
-51
-48
-45
-42
-40
-38
-36
-34
-33
-32
-31
-30
-29
-27
-23
-18
-13
-8
-2
4
12
25
46
62
71
77
81
85
91
97
103
113
133
157
166
172
176
178
176
171
163
151
128
113
106
102
97
90
85
79
72
56
31
21
18
15
13
12
10
7
4
1
0
-2
-4
-6
-7
-9
-10
-11
-11
-11
-12
-13
-16
-18
-20
-23
-25
-26
-28
-28
-29
-29
-29
-29
-30
-32
-34
-36
-39
-40
-40
-40
-39
-38
-37
-36
-35
-34
-33
-31
-30
-29
-28
-27
-27
-26
-26
-25
-24
-23
-21
-18
-15
-11
-9
-7
-5
-1
1
5
8
9
7
4
0
-3
-7
-15
-19
-13
-1
7
16
25
31
34
36
38
40
43
46
50
52
52
53
54
55
55
55
55
53
49
44
38
33
29
24
19
15
10
6
2
0
-2
-6
-10
-15
-28
-56
-87
-106
-119
-117
-84
-6
119
293
498
707
877
962
968
918
797
649
504
373
247
125
17
-36
-50
-59
-66
-72
-78
-83
-90
-99
-106
-107
-106
-105
-103
-102
-101
-102
-104
-105
-106
-106
-106
-106
-106
-106
-107
-107
-106
-106
-105
-105
-105
-104
-102
-101
-99
-97
-95
-92
-88
-82
-76
-69
-62
-58
-54
-51
-49
-47
-45
-43
-41
-39
-37
-35
-34
-33
-31
-30
-27
-24
-21
-15
-8
-2
5
18
42
66
82
92
98
102
106
111
118
126
134
142
150
156
161
167
175
175
164
147
121
104
96
91
86
82
78
75
71
67
57
33
16
9
4
0
-2
-5
-8
-11
-13
-15
-17
-20
-24
-32
-37
-30
-17
-7
0
8
13
12
6
-1
-8
-13
-17
-21
-25
-29
-33
-37
-40
-42
-44
-45
-46
-48
-50
-54
-57
-57
-53
-45
-36
-30
-24
-18
-13
-10
-9
-10
-12
-16
-20
-26
-38
-38
-21
-14
-11
-8
-5
-3
-2
-1
0
1
3
4
6
8
9
10
11
12
13
13
15
17
19
22
25
31
37
44
49
54
58
62
66
70
74
78
79
78
76
71
64
52
30
20
16
13
10
7
4
0
-2
-6
-9
-14
-21
-36
-62
-83
-95
-81
-40
35
149
305
496
689
841
903
899
816
665
493
334
219
144
93
49
23
-4
-32
-54
-70
-81
-86
-90
-92
-94
-96
-96
-95
-94
-92
-90
-87
-83
-79
-75
-72
-70
-68
-66
-64
-62
-61
-59
-58
-58
-58
-58
-59
-61
-63
-65
-68
-68
-69
-70
-72
-75
-77
-76
-69
-60
-50
-44
-39
-34
-28
-23
-18
-15
-13
-12
-10
-7
-3
3
24
41
49
55
63
72
81
88
95
102
108
112
116
120
130
146
153
158
162
164
162
157
149
139
124
110
102
97
93
88
83
78
73
67
60
51
38
26
17
5
-8
-15
-22
-29
-28
-18
-12
-7
-2
1
2
2
-1
-6
-12
-19
-26
-36
-45
-49
-51
-52
-52
-54
-56
-53
-46
-42
-39
-35
-31
-28
-26
-24
-22
-19
-17
-15
-14
-11
-7
-3
-3
-9
-18
-28
-38
-43
-44
-44
-45
-46
-48
-48
-45
-38
-30
-24
-18
-13
-9
-6
-3
-1
0
0
0
0
0
0
0
0
1
2
3
3
5
6
7
9
12
15
18
21
25
31
38
42
43
44
46
49
52
39
29
24
21
18
16
12
8
4
0
-3
-8
-16
-32
-43
-55
-66
-76
-86
-94
-95
-87
-61
-14
74
211
389
577
739
832
844
808
703
562
416
279
159
59
-16
-52
-63
-53
-42
-31
-32
-47
-70
-92
-103
-110
-114
-109
-98
-89
-81
-74
-75
-82
-90
-96
-100
-104
-107
-109
-110
-110
-109
-107
-103
-99
-95
-92
-90
-87
-84
-81
-78
-75
-72
-70
-68
-66
-65
-63
-62
-60
-57
-54
-50
-46
-42
-38
-33
-28
-23
-17
-12
-7
-2
1
4
7
11
15
21
27
33
39
47
61
90
113
126
135
137
137
137
136
136
136
136
136
136
135
134
130
125
118
106
80
55
37
23
12
2
-4
-9
-12
-13
-13
-13
-12
-12
-12
-12
-12
-13
-13
-14
-15
-16
-17
-18
-20
-21
-21
-22
-24
-26
-30
-38
-46
-47
-45
-41
-40
-38
-35
-33
-31
-32
-34
-37
-40
-42
-44
-46
-48
-50
-51
-50
-47
-41
-34
-27
-22
-19
-15
-12
-9
-6
-3
0
2
4
7
8
9
9
8
6
3
1
-1
-3
-5
-7
-9
-10
-12
-13
-14
-19
-24
-24
-16
-6
1
8
15
21
25
28
31
33
35
37
39
41
42
44
45
46
47
46
44
42
39
36
34
31
26
20
12
1
-10
-19
-26
-33
-39
-46
-52
-58
-66
-77
-83
-79
-63
-20
84
247
452
668
851
949
956
894
749
579
423
302
214
143
80
24
-20
-42
-55
-62
-72
-84
-90
-95
-99
-102
-105
-107
-109
-110
-110
-110
-110
-110
-108
-105
-103
-101
-99
-97
-95
-94
-93
-93
-93
-93
-92
-91
-89
-87
-86
-85
-84
-83
-82
-80
-79
-77
-75
-73
-69
-65
-60
-56
-51
-47
-43
-38
-31
-22
-8
2
7
10
13
15
17
18
20
22
25
27
30
32
36
41
52
64
77
98
122
134
141
148
158
169
179
191
196
191
180
168
152
135
112
79
59
49
41
35
29
25
22
20
18
16
14
10
6
4
2
3
3
3
3
3
3
5
4
-4
-10
-14
-17
-20
-22
-21
-18
-13
-8
0
12
12
0
-14
-27
-31
-31
-32
-32
-32
-32
-33
-33
-33
-33
-33
-32
-31
-31
-30
-29
-28
-27
-25
-24
-22
-21
-21
-19
-17
-14
-11
-8
-5
-3
0
1
4
7
10
11
11
11
11
10
9
7
5
1
-1
-1
5
15
22
27
33
37
42
46
50
54
57
59
62
64
66
68
68
65
60
53
46
40
36
32
28
24
19
15
12
8
5
2
0
0
-1
-3
-5
-9
-20
-30
-39
-47
-46
-28
20
111
246
420
613
799
944
999
991
893
726
537
365
237
155
100
56
20
0
-23
-47
-61
-68
-72
-76
-78
-81
-82
-84
-85
-87
-90
-94
-98
-99
-97
-93
-89
-88
-87
-86
-85
-84
-83
-82
-81
-80
-80
-79
-78
-77
-76
-76
-75
-75
-74
-72
-69
-67
-65
-62
-59
-54
-48
-42
-38
-34
-30
-26
-22
-17
-13
-8
-3
1
6
11
17
21
25
30
35
40
47
56
65
72
80
95
121
141
152
160
165
170
174
179
182
175
163
155
149
143
137
130
125
120
114
109
103
96
90
84
78
70
58
48
40
30
13
6
4
1
0
-2
-3
-3
-3
-4
-6
-8
-11
-12
-13
-14
-16
-18
-19
-20
-21
-23
-25
-29
-33
-36
-38
-40
-41
-42
-43
-45
-45
-45
-45
-46
-50
-49
-42
-39
-38
-37
-36
-35
-34
-33
-32
-30
-29
-28
-27
-26
-25
-24
-23
-23
-22
-21
-19
-17
-10
2
9
13
15
12
6
2
0
-3
-6
-6
-4
0
7
13
18
23
29
35
39
42
44
45
47
49
52
53
55
55
56
56
57
57
56
52
48
42
38
33
28
22
16
10
7
4
2
-1
-10
-25
-49
-85
-125
-149
-156
-134
-67
62
252
487
729
920
1005
1010
948
820
666
505
348
210
105
37
1
-19
-34
-43
-50
-57
-64
-70
-76
-82
-88
-94
-101
-112
-125
-134
-139
-143
-146
-148
-148
-148
-147
-144
-140
-135
-128
-119
-109
-99
-91
-85
-80
-76
-73
-72
-71
-69
-67
-65
-64
-66
-71
-78
-84
-91
-96
-99
-96
-89
-81
-74
-67
-60
-54
-51
-48
-46
-42
-36
-29
-17
-4
9
21
30
38
46
54
60
65
71
77
85
93
103
116
126
135
141
146
151
154
155
154
152
148
143
135
119
104
88
70
52
33
17
11
8
6
5
3
2
0
-1
-3
-5
-7
-9
-12
-15
-21
-26
-26
-23
-20
-18
-17
-16
-14
-14
-14
-16
-19
-23
-26
-28
-30
-33
-36
-39
-42
-44
-46
-48
-50
-53
-54
-56
-56
-57
-60
-63
-66
-68
-66
-63
-58
-54
-51
-47
-43
-38
-33
-27
-22
-17
-12
-6
0
3
5
6
7
8
11
13
8
-1
-9
-16
-21
-25
-27
-29
-30
-33
-37
-36
-25
-13
0
13
30
44
50
54
57
57
53
47
41
34
27
20
17
15
12
10
8
6
5
3
0
0
-3
-5
-9
-18
-41
-68
-96
-125
-139
-146
-139
-92
-1
134
312
512
701
842
896
846
711
541
381
259
182
131
85
37
-10
-45
-58
-68
-81
-96
-102
-105
-108
-109
-110
-111
-112
-112
-113
-114
-116
-121
-118
-98
-79
-69
-64
-60
-58
-57
-58
-61
-65
-69
-73
-77
-80
-85
-89
-92
-93
-93
-91
-88
-85
-80
-74
-62
-50
-44
-40
-37
-34
-32
-29
-26
-23
-20
-17
-14
-11
-7
-4
0
3
8
13
22
36
45
52
61
70
84
102
115
122
129
137
145
156
169
171
173
176
174
160
147
134
123
111
104
98
93
87
80
75
70
64
55
40
26
8
-12
-21
-25
-28
-31
-33
-34
-34
-32
-29
-26
-22
-20
-17
-13
-10
-7
-6
-6
-9
-12
-16
-19
-23
-28
-33
-37
-40
-42
-43
-45
-46
-48
-49
-50
-49
-48
-48
-47
-44
-41
-37
-32
-27
-24
-20
-16
-12
-7
-3
0
1
1
1
0
0
-2
-5
-8
-12
-16
-19
-24
-34
-39
-33
-21
-14
-8
-2
3
6
9
12
16
21
27
33
39
44
49
56
59
57
52
49
46
42
37
31
26
22
18
13
9
6
2
0
-3
-8
-13
-19
-25
-31
-38
-54
-80
-99
-110
-115
-111
-99
-65
23
163
345
548
740
883
933
924
833
666
480
322
204
121
55
-2
-46
-64
-72
-76
-78
-83
-89
-100
-121
-140
-148
-153
-140
-118
-95
-87
-84
-82
-81
-79
-78
-77
-76
-76
-76
-77
-77
-78
-80
-81
-83
-85
-86
-87
-88
-91
-94
-94
-86
-77
-72
-67
-64
-60
-57
-53
-49
-45
-42
-39
-37
-34
-31
-27
-24
-20
-16
-13
-9
-6
-3
0
4
12
24
36
48
60
74
90
105
125
136
143
149
153
157
159
160
159
157
154
150
145
140
133
121
109
95
80
62
46
39
35
32
30
28
26
24
21
18
14
11
7
4
1
-1
-3
-5
-7
-9
-12
-15
-18
-20
-23
-25
-28
-29
-30
-30
-29
-29
-29
-29
-29
-30
-31
-32
-33
-34
-35
-35
-36
-37
-38
-39
-42
-49
-55
-55
-47
-36
-25
-10
0
5
11
19
22
18
11
9
7
4
2
0
-1
-3
-4
-6
-7
-8
-8
-7
-5
-3
-3
-2
-1
-1
0
1
3
5
8
10
13
17
20
30
56
71
79
84
88
89
87
83
77
69
56
27
12
6
2
-1
-4
-7
-10
-13
-17
-19
-21
-23
-26
-29
-33
-47
-71
-88
-98
-85
-44
46
184
364
570
766
915
980
977
902
765
605
446
310
203
114
43
-14
-52
-78
-94
-105
-109
-107
-103
-99
-97
-95
-93
-91
-89
-86
-84
-82
-81
-80
-80
-81
-83
-85
-88
-90
-91
-93
-94
-95
-95
-96
-97
-99
-102
-105
-106
-105
-101
-94
-87
-80
-73
-65
-57
-50
-43
-37
-33
-30
-28
-26
-24
-22
-20
-17
-14
-12
-10
-8
-6
-4
-1
1
7
18
29
40
50
60
70
81
93
106
121
133
143
149
154
158
161
164
165
166
166
164
161
157
151
145
135
116
100
84
68
50
33
16
4
1
0
-1
-1
-2
-3
-3
-4
-4
-4
-5
-5
-6
-5
-5
-4
-4
-5
-6
-6
-7
-8
-9
-10
-12
-13
-14
-15
-16
-17
-19
-21
-23
-25
-27
-30
-34
-37
-39
-42
-44
-46
-49
-54
-59
-57
-48
-38
-33
-29
-26
-23
-20
-18
-16
-13
-11
-9
-8
-7
-7
-8
-8
-8
-8
-8
-8
-8
-9
-8
-6
-3
3
12
17
21
25
29
33
37
39
41
43
47
50
56
65
71
75
79
84
87
81
67
56
46
37
29
21
14
6
-1
-9
-16
-22
-28
-36
-53
-84
-105
-119
-124
-117
-99
-48
56
203
389
596
796
954
1027
1025
946
783
595
420
281
181
104
37
-21
-55
-78
-93
-100
-101
-102
-104
-105
-106
-106
-103
-99
-95
-91
-88
-90
-95
-99
-103
-106
-103
-98
-96
-95
-94
-93
-91
-90
-88
-86
-83
-81
-79
-77
-75
-74
-73
-72
-70
-69
-68
-66
-64
-61
-59
-56
-54
-52
-51
-50
-48
-46
-44
-41
-38
-35
-31
-26
-21
-16
-10
-4
1
10
20
31
41
51
62
75
86
96
108
123
139
162
181
188
192
196
197
197
193
187
178
163
135
112
95
79
63
48
29
21
17
13
10
8
7
5
4
2
0
-3
-5
-7
-8
-9
-10
-12
-14
-16
-17
-18
-19
-21
-24
-26
-29
-30
-31
-32
-33
-34
-35
-36
-37
-38
-42
-50
-45
-40
-36
-33
-33
-37
-41
-44
-46
-48
-48
-49
-50
-51
-49
-47
-43
-39
-37
-35
-33
-32
-30
-28
-26
-24
-23
-22
-21
-19
-16
-14
-12
-10
-8
-5
-2
1
4
7
10
14
18
21
25
29
33
39
50
58
65
70
75
77
75
68
58
48
36
24
14
0
-13
-14
-14
-15
-16
-17
-16
-13
-8
-3
2
1
-13
-55
-91
-104
-104
-88
-46
53
204
402
627
834
975
1019
959
808
609
412
256
153
88
40
10
-21
-44
-51
-56
-58
-61
-64
-67
-71
-75
-78
-80
-83
-86
-88
-90
-92
-94
-95
-97
-98
-100
-100
-98
-96
-93
-90
-88
-86
-84
-82
-80
-78
-77
-75
-72
-68
-64
-61
-60
-61
-62
-64
-65
-67
-69
-73
-77
-78
-74
-66
-57
-43
-29
-21
-17
-13
-9
-3
1
6
12
19
28
43
57
71
80
87
94
100
105
109
114
120
133
158
177
188
193
189
181
173
165
158
150
127
86
73
69
67
65
61
56
50
43
37
31
24
18
11
6
3
0
-2
-5
-7
-9
-10
-11
-11
-13
-15
-16
-17
-17
-17
-17
-18
-19
-21
-22
-22
-22
-23
-24
-25
-27
-29
-30
-32
-33
-35
-35
-35
-35
-33
-32
-30
-27
-25
-21
-18
-14
-10
-3
12
21
27
32
36
38
36
29
19
6
-10
-17
-20
-23
-25
-27
-27
-25
-19
-11
4
27
38
45
49
51
51
49
47
45
42
39
37
36
37
40
43
47
52
59
60
55
51
48
46
43
38
31
22
13
2
-7
-15
-22
-31
-44
-58
-71
-83
-84
-73
-39
35
153
312
498
684
825
861
848
744
588
420
284
194
140
114
92
67
38
12
-28
-73
-89
-95
-99
-101
-98
-95
-93
-93
-93
-93
-93
-93
-93
-92
-91
-90
-91
-91
-92
-93
-94
-95
-96
-97
-97
-97
-97
-95
-94
-93
-92
-90
-88
-86
-83
-81
-79
-77
-73
-67
-61
-56
-50
-45
-40
-34
-28
-21
-15
-7
-1
4
8
12
16
20
25
29
32
36
41
46
53
61
74
87
100
114
126
135
142
146
150
154
158
161
164
165
163
159
154
147
140
125
96
71
53
39
31
26
23
20
16
11
8
5
2
0
-4
-11
-18
-23
-27
-33
-41
-42
-34
-30
-27
-24
-21
-20
-20
-22
-23
-24
-25
-25
-25
-25
-26
-27
-28
-29
-31
-33
-34
-35
-35
-36
-37
-37
-39
-40
-41
-43
-46
-49
-49
-46
-41
-34
-25
-11
-10
-11
-11
-11
-10
-9
-8
-8
-8
-8
-7
-5
-2
0
2
4
6
8
11
13
16
18
20
22
26
29
31
32
33
34
34
36
38
40
42
46
50
53
50
43
32
18
-1
-9
-14
-17
-19
-22
-25
-28
-32
-37
-43
-52
-72
-96
-109
-117
-100
-52
32
156
318
505
691
837
907
912
863
737
566
379
213
96
33
12
0
-7
-20
-51
-76
-90
-100
-106
-107
-106
-105
-103
-102
-101
-100
-99
-97
-96
-96
-96
-96
-98
-101
-103
-98
-87
-80
-73
-67
-63
-62
-66
-72
-80
-93
-112
-119
-125
-131
-129
-110
-97
-89
-82
-75
-70
-65
-62
-60
-57
-53
-46
-39
-36
-34
-33
-32
-31
-28
-23
-15
-7
1
11
21
27
32
41
62
81
91
100
109
118
134
153
161
166
170
171
169
162
154
144
129
114
101
89
77
66
57
49
42
35
28
22
18
15
12
9
6
4
3
1
0
-2
-5
-7
-8
-8
-10
-12
-16
-19
-20
-19
-18
-18
-18
-19
-20
-19
-18
-17
-20
-28
-38
-50
-64
-67
-68
-69
-70
-71
-70
-65
-58
-52
-49
-46
-44
-42
-40
-37
-35
-32
-30
-28
-25
-23
-21
-20
-18
-17
-16
-15
-14
-13
-13
-13
-12
-11
-9
-7
-5
-2
0
0
2
4
7
9
12
16
21
27
44
74
86
93
98
102
104
102
97
89
78
56
27
10
-2
-13
-22
-30
-34
-30
-22
-14
-4
0
-2
-11
-36
-72
-109
-122
-121
-100
-44
73
238
439
655
848
977
1018
969
851
695
532
377
237
128
52
12
-3
-19
-39
-67
-101
-120
-126
-130
-132
-129
-124
-122
-120
-118
-115
-113
-111
-110
-108
-105
-102
-100
-98
-97
-96
-94
-91
-87
-85
-85
-88
-91
-94
-96
-98
-101
-105
-108
-110
-110
-106
-99
-91
-83
-74
-58
-47
-43
-41
-40
-39
-39
-38
-36
-34
-32
-31
-28
-25
-21
-16
-8
6
22
35
45
54
62
69
78
91
104
123
142
151
157
162
165
166
164
159
153
147
141
135
128
121
113
105
95
78
56
46
41
37
35
33
30
27
22
18
14
11
9
7
6
4
2
0
-1
-4
-7
-11
-14
-17
-18
-19
-19
-19
-19
-19
-19
-20
-21
-23
-26
-29
-33
-36
-39
-40
-42
-44
-46
-47
-48
-49
-53
-58
-64
-67
-67
-65
-61
-57
-54
-51
-48
-43
-37
-31
-25
-21
-18
-16
-13
-10
-8
-6
-4
-2
1
6
10
13
16
19
23
30
38
42
44
45
47
49
51
53
55
56
55
53
49
45
40
35
32
28
24
21
18
15
11
7
4
2
0
-3
-8
-19
-46
-73
-90
-95
-100
-104
-83
-19
90
245
437
642
826
955
988
974
869
708
539
381
250
145
59
-7
-49
-61
-69
-76
-83
-88
-93
-96
-99
-101
-102
-104
-104
-103
-102
-101
-99
-97
-94
-92
-91
-91
-91
-91
-91
-91
-91
-92
-92
-91
-91
-91
-91
-90
-88
-86
-83
-81
-79
-77
-75
-73
-71
-68
-66
-64
-61
-58
-54
-49
-44
-39
-35
-32
-28
-25
-22
-19
-15
-10
-2
6
14
19
22
27
34
43
55
68
82
99
115
133
150
166
179
191
196
191
180
167
151
137
122
108
94
79
65
50
43
40
38
36
34
32
31
29
28
26
24
22
20
18
17
15
12
6
0
-9
-20
-28
-37
-45
-51
-51
-46
-38
-30
-22
-13
-5
-1
0
0
1
2
4
2
-9
-22
-36
-50
-59
-64
-69
-72
-75
-75
-73
-70
-64
-58
-49
-35
-24
-14
-5
4
16
26
37
42
35
23
15
9
3
-2
-5
-5
-2
1
7
12
17
23
30
37
43
49
54
59
66
71
76
79
79
76
72
67
62
57
49
41
32
23
16
9
3
-1
-5
-7
-9
-11
-14
-20
-37
-60
-79
-92
-101
-78
-11
118
307
537
761
924
986
935
798
614
441
317
239
186
128
65
10
-28
-39
-45
-50
-55
-60
-65
-68
-71
-73
-74
-77
-79
-80
-80
-81
-81
-82
-83
-84
-84
-84
-84
-83
-82
-80
-79
-78
-76
-75
-73
-71
-70
-69
-68
-68
-66
-64
-61
-60
-60
-60
-60
-61
-61
-62
-63
-64
-65
-66
-63
-58
-50
-43
-32
-21
-10
0
11
20
28
36
44
53
61
68
73
78
86
95
106
116
127
136
140
142
143
144
146
147
149
149
146
141
133
125
113
104
96
90
85
79
72
62
52
42
32
22
15
8
3
0
-2
-5
-8
-10
-12
-11
-10
-7
-4
-1
1
5
13
19
20
14
6
-7
-26
-33
-38
-40
-41
-38
-31
-23
-20
-17
-14
-12
-10
-9
-7
-6
-5
-4
-3
-3
-3
-3
-2
-2
-1
0
0
0
0
1
1
2
4
4
5
7
9
12
15
18
21
24
27
30
33
36
38
41
44
48
54
62
68
72
75
79
84
88
88
82
71
54
26
10
2
-3
-8
-13
-17
-20
-23
-27
-32
-38
-47
-58
-72
-87
-88
-73
-34
56
196
383
601
812
965
1014
946
786
589
402
260
174
124
82
34
-19
-72
-104
-116
-114
-98
-89
-82
-76
-72
-69
-70
-73
-76
-80
-82
-84
-85
-87
-90
-93
-95
-96
-97
-98
-99
-98
-96
-93
-91
-88
-85
-83
-80
-77
-74
-71
-69
-66
-63
-61
-59
-57
-57
-57
-59
-60
-62
-66
-71
-61
-55
-53
-50
-48
-46
-44
-41
-39
-37
-34
-32
-29
-26
-17
1
14
22
31
42
54
68
85
103
120
134
145
153
159
159
155
148
137
115
97
85
77
71
64
54
41
29
20
12
5
-2
-9
-16
-22
-25
-28
-29
-31
-32
-33
-34
-35
-36
-37
-39
-43
-39
-36
-35
-33
-32
-31
-32
-33
-36
-38
-41
-48
-47
-37
-30
-26
-21
-17
-16
-17
-21
-26
-33
-42
-55
-59
-62
-65
-68
-68
-64
-57
-46
-33
-28
-25
-23
-21
-19
-18
-15
-11
-6
-2
2
5
10
16
21
24
24
24
23
22
21
19
16
16
27
38
51
63
70
76
81
83
82
78
72
63
48
22
-8
-19
-22
-24
-26
-27
-28
-30
-31
-33
-36
-39
-44
-51
-61
-55
-40
8
88
211
379
577
779
939
1009
1008
927
768
586
404
235
97
5
-36
-48
-56
-63
-67
-71
-77
-87
-93
-96
-98
-99
-100
-100
-101
-103
-105
-107
-109
-113
-119
-120
-114
-111
-109
-108
-106
-105
-104
-103
-101
-100
-99
-96
-93
-88
-68
-30
-15
-8
-3
-2
-6
-11
-9
2
8
-4
-44
-66
-73
-66
-58
-52
-52
-62
-75
-87
-77
-65
-56
-55
-63
-72
-80
-67
-30
19
64
90
100
110
122
141
168
182
186
187
189
192
196
202
210
218
210
186
155
119
102
88
74
50
18
3
-5
-12
-11
-3
0
4
8
10
10
8
5
0
-6
-22
-33
-40
-43
-40
-34
-25
-9
13
29
38
44
48
47
39
29
23
17
11
6
0
-4
-9
-14
-24
-38
-34
-25
-29
-54
-69
-77
-84
-83
-74
-66
-59
-52
-46
-39
-30
-21
-11
-2
9
22
30
35
40
44
46
45
41
37
31
24
32
58
91
102
108
111
112
113
115
118
107
90
71
58
51
42
32
24
16
11
10
16
23
30
37
43
43
38
30
18
-3
-31
-51
-60
-68
-67
-49
-1
101
265
488
739
961
1104
1136
1049
870
660
467
310
194
107
38
-10
-32
-43
-49
-57
-66
-83
-97
-103
-107
-106
-98
-91
-84
-80
-84
-94
-105
-116
-123
-127
-132
-137
-139
-135
-127
-116
-105
-117
-126
-131
-136
-139
-140
-138
-133
-127
-119
-104
-80
-68
-61
-56
-53
-52
-51
-51
-50
-49
-48
-47
-47
-49
-51
-52
-54
-52
-40
-33
-28
-25
-22
-19
-16
-13
-11
-8
-4
3
18
32
49
67
83
98
113
124
133
132
118
110
105
102
98
95
92
89
86
83
80
77
72
66
54
44
35
29
24
19
13
6
-3
-22
-41
-50
-56
-42
-24
-8
3
13
21
25
21
10
-6
-26
-35
-42
-47
-48
-46
-43
-40
-39
-37
-36
-35
-32
-27
-23
-20
-19
-17
-13
-9
-6
-5
-8
-13
-19
-24
-26
-29
-33
-37
-41
-42
-38
-31
-22
-14
-7
1
11
20
26
31
35
39
42
46
49
52
55
57
59
62
64
66
69
72
74
76
77
76
74
70
64
58
49
35
22
11
-4
-27
-42
-51
-58
-66
-73
-81
-89
-89
-79
-52
10
125
308
545
795
1002
1120
1135
1095
953
759
555
375
240
144
67
2
-34
-46
-55
-63
-70
-74
-79
-83
-86
-87
-87
-85
-81
-77
-73
-66
-53
-37
-26
-17
-12
-13
-21
-31
-40
-49
-57
-62
-65
-68
-70
-73
-77
-79
-79
-75
-69
-62
-57
-51
-44
-40
-40
-44
-51
-59
-67
-77
-85
-85
-81
-75
-67
-56
-39
-15
7
16
21
24
27
31
34
37
40
45
55
78
97
109
118
126
132
137
141
145
148
151
153
156
163
171
154
126
93
66
46
30
19
9
3
2
10
23
36
51
60
64
71
77
57
34
13
-2
-24
-50
-66
-76
-83
-83
-79
-74
-73
-71
-69
-66
-64
-62
-60
-58
-56
-53
-51
-50
-50
-51
-53
-54
-55
-57
-60
-63
-66
-69
-71
-73
-75
-81
-88
-94
-98
-98
-96
-92
-87
-81
-74
-63
-53
-45
-39
-32
-23
-10
10
22
31
39
44
49
52
53
52
50
48
45
41
35
30
22
9
0
-7
-13
-20
-26
-27
-19
-5
8
27
34
37
43
37
7
-9
-18
-24
5
95
253
477
747
1016
1204
1262
1186
1000
760
520
322
202
141
106
50
-10
-72
-96
-103
-107
-109
-110
-111
-112
-113
-111
-108
-103
-98
-93
-87
-82
-77
-72
-66
-61
-56
-50
-45
-39
-31
-19
-10
-6
-3
0
4
7
1
-7
-12
-15
-18
-21
-24
-26
-29
-31
-33
-35
-36
-36
-35
-33
-31
-28
-25
-21
-17
-13
-10
-6
0
15
20
21
23
24
26
27
29
30
33
37
41
46
50
54
59
65
69
72
71
67
60
53
47
42
36
30
23
17
10
5
1
-1
-3
-6
-7
-8
-10
-11
-13
-14
-14
-13
-13
-12
-11
-11
-9
-7
-5
-2
0
3
12
11
-1
-9
-15
-21
-25
-27
-26
