61
71
79
87
93
94
87
76
63
45
29
15
2
-4
-8
-13
-18
-16
0
13
25
32
32
25
13
-20
-65
-134
-231
-335
-422
-476
-496
-497
-481
-439
-378
-304
-218
-129
-52
2
29
41
47
51
54
56
57
57
55
51
46
40
32
21
0
-19
-36
-51
-63
-72
-79
-85
-90
-93
-97
-101
-106
-110
-116
-123
-130
-132
-130
-126
-121
-116
-109
-106
-112
-122
-138
-162
-183
-197
-209
-218
-227
-232
-232
-225
-216
-212
-208
-205
-203
-200
-199
-199
-201
-204
-208
-212
-215
-220
-224
-227
-229
-228
-224
-218
-211
-202
-191
-175
-160
-149
-139
-129
-116
-102
-86
-77
-72
-69
-66
-64
-61
-58
-54
-50
-46
-42
-38
-35
-32
-29
-27
-25
-23
-21
-19
-16
-13
-10
-6
-1
2
6
9
11
13
14
15
17
17
18
19
20
22
26
30
33
36
38
40
42
45
48
51
54
59
69
80
90
99
107
116
123
131
137
143
147
151
155
158
161
164
166
168
169
170
170
170
167
163
156
148
141
132
115
102
90
75
61
58
57
55
53
52
55
61
67
70
72
74
76
80
84
86
87
88
89
90
91
91
91
92
96
103
90
76
66
55
41
25
6
-9
-20
-27
-32
-37
-42
-48
-54
-61
-72
-90
-106
-124
-141
-157
-167
-174
-180
-184
-189
-193
-197
-199
-201
-203
-205
-207
-209
-211
-214
-218
-223
-227
-231
-235
-240
-247
-258
-269
-276
-282
-287
-291
-294
-297
-300
-302
-305
-308
-312
-317
-322
-327
-334
-346
-358
-366
-374
-381
-386
-391
-396
-402
-410
-416
-419
-422
-425
-427
-428
-429
-430
-432
-433
-435
-436
-437
-438
-438
-438
-439
-440
-441
-442
-444
-447
-451
-457
-485
-532
-591
-655
-722
-798
-880
-954
-1004
-1020
-1008
-975
-917
-851
-769
-678
-592
-520
-484
-474
-467
-463
-463
-464
-467
-470
-471
-473
-475
-478
-480
-482
-481
-478
-472
-466
-460
-451
-440
-428
-420
-413
-403
-389
-373
-350
-322
-295
-268
-242
-212
-180
-156
-147
-143
-140
-138
-136
-133
-130
-128
-126
-122
-118
-108
-87
-65
-38
-7
21
44
61
82
108
143
180
217
245
262
275
285
303
330
360
386
409
435
463
490
536
587
618
651
679
697
709
714
717
720
722
721
716
709
706
704
702
700
697
694
691
689
688
688
688
689
691
694
697
701
705
710
716
722
739
775
806
840
879
915
941
961
986
1012
1035
1049
1066
1090
1111
1127
1152
1168
1178
1187
1193
1197
1200
1203
1204
1206
1208
1211
1213
1213
1212
1209
1205
1200
1195
1190
1186
1181
1177
1174
1170
1166
1162
1158
1154
1150
1145
1136
1116
1098
1083
1072
1062
1053
1045
1034
1022
1010
998
978
947
915
885
836
787
757
728
699
676
658
641
619
591
565
534
500
466
431
400
373
348
326
301
275
250
228
203
177
150
122
92
64
44
29
9
-13
-36
-60
-81
-96
-113
-126
-136
-145
-153
-160
-169
-179
-190
-202
-217
-234
-248
-267
-290
-309
-323
-339
-362
-390
-417
-446
-469
-483
-492
-499
-503
-507
-510
-512
-515
-519
-523
-529
-538
-554
-581
-597
-604
-610
-617
-623
-628
-632
-636
-639
-642
-644
-645
-646
-646
-644
-641
-637
-632
-625
-616
-600
-581
-562
-543
-528
-513
-498
-478
-465
-456
-449
-441
-433
-425
-419
-413
-407
-401
-396
-394
-394
-395
-399
-405
-414
-446
-494
-567
-661
-774
-890
-999
-1086
-1122
-1117
-1051
-918
-757
-614
-509
-435
-412
-404
-399
-396
-403
-416
-421
-425
-428
-431
-433
-437
-441
-444
-447
-449
-450
-450
-449
-449
-447
-446
-444
-443
-442
-442
-442
-442
-442
-442
-443
-443
-442
-440
-437
-435
-434
-435
-439
-443
-447
-450
-454
-458
-462
-467
-472
-475
-476
-477
-477
-479
-480
-482
-483
-485
-486
-486
-485
-483
-480
-476
-473
-469
-464
-458
-449
-429
-415
-403
-394
-382
-368
-354
-342
-331
-321
-313
-301
-284
-266
-241
-211
-187
-169
-146
-122
-100
-83
-69
-58
-46
-34
-26
-21
-16
-11
-6
0
6
12
17
21
26
30
33
36
39
42
45
48
51
53
56
58
61
65
68
71
69
74
81
91
99
104
109
116
123
130
135
137
137
135
130
127
124
118
111
104
101
99
100
104
106
106
104
104
106
111
116
118
120
119
114
109
110
111
109
105
98
92
87
84
84
89
92
89
82
77
76
78
79
78
74
69
63
59
58
58
58
57
55
52
50
48
46
43
38
35
34
30
26
22
21
20
19
21
24
24
22
21
23
27
29
30
30
28
26
27
30
35
38
38
37
37
38
38
36
34
33
31
27
21
18
16
14
13
14
16
15
8
1
-6
-11
-15
-20
-27
-34
-40
-48
-53
-55
-59
-67
-80
-93
-102
-107
-114
-122
-125
-125
-126
-127
-120
-110
-100
-94
-90
-82
-72
-66
-62
-53
-45
-42
-43
-44
-41
-36
-35
-33
-27
-21
-19
-19
-16
-9
4
13
13
7
-6
-45
-94
-156
-231
-316
-398
-469
-493
-511
-467
-374
-242
-75
88
217
282
305
289
261
230
203
181
165
162
164
162
156
151
147
145
144
147
148
146
141
138
139
140
141
142
141
137
134
135
136
136
137
140
143
145
146
149
154
157
158
156
150
148
147
145
142
131
99
63
32
11
-2
-20
-34
-45
-51
-50
-51
-55
-60
-65
-71
-79
-88
-94
-96
-97
-96
-90
-75
-57
-35
-19
-7
2
11
21
31
42
53
61
68
78
88
97
103
106
111
116
118
114
115
120
122
119
119
125
127
123
117
115
119
124
127
131
132
126
119
116
118
116
108
98
91
84
75
71
73
71
67
63
59
53
49
45
41
37
32
27
22
17
13
9
6
2
0
-2
-4
-6
-8
-11
-13
-16
-18
-20
-21
-22
-23
-22
-21
-20
-18
-16
-15
-14
-13
-13
-14
-14
-15
-16
-17
-17
-17
-17
-16
-15
-14
-14
-13
-12
-12
-12
-12
-13
-15
-18
-21
-25
-28
-31
-35
-37
-40
-42
-44
-46
-48
-50
-51
-53
-55
-58
-61
-63
-64
-65
-66
-68
-69
-70
-71
-71
-71
-73
-77
-82
-87
-93
-98
-101
-104
-107
-110
-112
-114
-115
-117
-120
-123
-125
-127
-128
-129
-131
-134
-136
-139
-143
-148
-152
-153
-151
-148
-143
-138
-132
-125
-118
-107
-95
-88
-82
-77
-72
-68
-64
-62
-60
-60
-60
-60
-60
-60
-61
-61
-61
-62
-61
-61
-61
-61
-60
-58
-56
-52
-48
-43
-36
-37
-49
-80
-131
-192
-266
-349
-431
-503
-552
-569
-554
-507
-408
-271
-103
55
161
190
182
152
134
120
109
99
92
87
84
82
80
78
77
77
77
77
77
78
80
81
82
84
86
88
90
92
94
95
96
96
97
97
97
97
95
94
92
90
87
85
82
79
72
58
45
34
24
12
0
-11
-19
-26
-31
-36
-40
-44
-49
-54
-60
-66
-71
-75
-79
-83
-86
-87
-84
-77
-69
-60
-49
-38
-28
-15
-1
11
18
22
26
29
32
34
37
41
45
48
52
55
58
61
65
69
73
76
78
77
75
72
69
65
60
55
45
36
30
25
21
16
12
10
10
11
13
16
19
18
7
0
-7
-13
-19
-24
-29
-33
-37
-41
-45
-48
-50
-53
-59
-82
-113
-122
-127
-130
-131
-128
-123
-114
-100
-75
-32
-4
4
9
14
19
22
24
26
29
31
32
33
30
25
18
10
2
-9
-19
-20
-14
-5
7
21
-23
-160
-483
-986
-1555
-2037
-2239
-2053
-1495
-788
-120
197
264
42
-35
-82
-89
-40
-4
-5
-27
-38
-21
-8
-1
7
10
14
15
14
12
9
7
3
0
-9
-18
-27
-33
-36
-40
-43
-46
-49
-51
-53
-54
-56
-57
-59
-60
-63
-69
-72
-67
-56
-47
-36
-26
-14
-4
4
12
20
25
28
30
31
32
33
34
35
37
38
39
41
42
43
44
45
47
49
51
54
62
71
83
92
100
108
112
113
114
114
114
113
112
112
112
112
112
113
115
116
119
124
116
92
65
29
-16
-83
-170
-267
-379
-480
-542
-570
-542
-440
-282
-102
54
166
200
211
218
220
218
213
206
192
178
171
166
174
180
182
185
187
188
189
188
188
187
185
183
180
177
169
149
124
109
104
102
100
99
98
96
94
90
87
84
79
74
67
59
52
46
38
29
20
13
6
-1
-9
-18
-26
-33
-40
-45
-51
-63
-78
-85
-89
-92
-92
-88
-81
-70
-53
-40
-30
-16
-10
-6
-2
0
2
4
5
5
7
8
9
10
10
11
12
14
17
23
31
36
42
47
51
53
54
54
55
56
58
55
51
47
51
54
57
59
59
55
50
44
38
32
27
21
15
8
1
-4
-10
-17
-23
-42
-67
-81
-96
-109
-116
-120
-123
-124
-122
-118
-115
-113
-111
-110
-109
-107
-106
-105
-103
-103
-103
-103
-103
-104
-106
-107
-109
-111
-113
-116
-119
-123
-131
-136
-133
-125
-119
-114
-109
-106
-104
-102
-98
-93
-100
-110
-123
-132
-138
-142
-144
-145
-146
-147
-149
-149
-143
-138
-133
-131
-135
-144
-153
-163
-171
-176
-181
-185
-189
-191
-193
-195
-196
-198
-199
-198
-194
-189
-184
-177
-172
-168
-161
-153
-149
-147
-145
-143
-141
-138
-136
-133
-128
-120
-114
-107
-102
-96
-93
-90
-87
-85
-81
-77
-72
-68
-63
-59
-56
-55
-58
-62
-66
-71
-79
-79
-71
-59
-44
-36
-33
-31
-30
-29
-28
-26
-24
-23
-21
-20
-17
-12
0
12
25
48
69
93
123
158
189
211
235
246
250
253
254
255
256
257
259
261
262
264
267
269
274
281
282
278
266
236
191
126
35
-70
-173
-254
-287
-282
-224
-106
45
213
372
494
564
592
594
575
536
503
479
457
449
449
456
460
463
466
467
468
467
465
462
458
455
449
442
434
427
419
412
406
400
394
387
380
369
355
344
329
310
294
273
250
228
214
197
181
165
151
139
127
118
110
101
88
77
73
70
68
67
66
66
67
68
70
72
74
76
79
82
85
89
95
105
122
139
154
167
180
192
204
210
213
214
216
217
218
219
220
220
220
220
219
218
217
215
213
211
209
207
205
202
198
194
190
185
181
177
173
169
166
163
162
161
160
159
158
156
154
152
150
149
149
150
152
154
157
161
163
161
156
153
150
147
145
143
143
145
147
150
152
154
157
160
162
164
165
166
167
168
168
169
169
170
172
173
173
171
168
164
161
159
157
154
152
150
148
147
147
147
146
145
144
143
142
142
141
140
138
136
133
130
128
126
124
122
120
117
114
111
109
105
102
98
95
91
87
80
66
49
40
33
24
12
-4
-18
-27
-34
-39
-45
-52
-61
-74
-90
-101
-109
-117
-125
-132
-138
-143
-148
-152
-159
-167
-177
-183
-187
-191
-195
-200
-205
-210
-215
-222
-229
-235
-240
-250
-263
-271
-277
-278
-270
-264
-257
-252
-249
-248
-247
-245
-243
-241
-238
-234
-230
-226
-221
-215
-209
-206
-208
-212
-216
-223
-236
-243
-245
-247
-249
-251
-253
-255
-256
-259
-261
-265
-282
-309
-340
-375
-424
-489
-569
-662
-755
-839
-906
-944
-941
-884
-754
-595
-451
-340
-285
-278
-297
-328
-356
-370
-393
-428
-456
-466
-469
-467
-463
-459
-454
-451
-456
-467
-477
-488
-495
-499
-501
-503
-506
-508
-511
-512
-512
-512
-512
-512
-512
-511
-511
-510
-510
-510
-511
-511
-512
-512
-512
-511
-511
-511
-510
-509
-508
-507
-505
-502
-498
-493
-487
-478
-470
-462
-453
-443
-438
-434
-430
-426
-421
-412
-398
-381
-369
-354
-338
-319
-296
-275
-254
-237
-222
-206
-175
-139
-104
-68
-43
-13
14
42
65
86
105
122
143
166
189
206
217
228
238
245
250
254
258
260
263
264
264
265
268
272
259
246
237
229
221
215
212
209
206
203
200
198
196
195
194
194
194
194
194
196
199
202
204
207
210
213
217
224
240
259
271
280
287
291
292
291
287
281
261
213
172
131
118
114
111
110
110
115
123
136
147
150
153
143
128
111
98
90
81
69
53
37
44
48
51
54
57
59
60
61
66
65
54
37
20
10
2
-2
-5
-11
-18
-7
7
19
18
16
16
16
15
15
16
18
22
27
36
53
66
75
82
92
103
112
121
129
135
139
143
145
149
152
155
157
159
162
166
169
172
173
170
163
156
148
141
132
123
115
108
102
95
84
68
55
41
28
11
3
-1
-5
-9
-11
-14
-16
-19
-21
-23
-25
-27
-29
-31
-33
-35
-38
-40
-42
-43
-44
-45
-45
-46
-47
-48
-49
-50
-52
-54
-56
-61
-67
-79
-101
-141
-196
-274
-373
-481
-599
-708
-801
-845
-845
-803
-690
-550
-406
-289
-203
-143
-121
-119
-126
-142
-193
-212
-219
-211
-204
-202
-199
-197
-195
-193
-191
-188
-185
-179
-170
-157
-145
-138
-133
-128
-123
-118
-113
-108
-102
-95
-87
-80
-73
-68
-64
-59
-55
-52
-52
-54
-56
-58
-59
-60
-63
-66
-70
-76
-82
-87
-91
-96
-101
-109
-117
-126
-132
-140
-147
-153
-158
-161
-163
-165
-167
-171
-174
-177
-180
-182
-183
-184
-190
-185
-162
-138
-120
-109
-100
-91
-86
-83
-80
-77
-74
-69
-65
-60
-54
-46
-37
-23
-8
4
15
27
35
39
42
43
44
45
46
46
46
47
48
49
51
52
54
55
57
59
63
66
70
73
78
83
89
95
100
104
108
112
117
122
127
133
140
148
156
164
174
182
187
190
193
195
197
199
201
202
202
200
196
193
189
185
179
174
171
174
183
191
198
204
211
216
220
220
218
213
207
201
197
193
188
184
180
175
171
168
165
162
159
154
147
133
114
99
87
78
71
65
62
59
57
55
52
50
46
43
39
34
29
24
19
15
11
7
3
0
-5
-9
-13
-17
-21
-24
-27
-30
-33
-36
-40
-43
-46
-49
-52
-56
-60
-65
-70
-75
-80
-86
-93
-101
-110
-117
-121
-125
-128
-131
-133
-134
-135
-137
-138
-140
-142
-144
-145
-147
-148
-149
-151
-151
-152
-153
-153
-154
-155
-157
-160
-164
-168
-170
-170
-167
-163
-158
-152
-144
-131
-122
-116
-112
-109
-107
-105
-104
-103
-102
-103
-104
-107
-110
-115
-122
-134
-159
-200
-257
-330
-416
-514
-618
-708
-764
-765
-716
-591
-433
-286
-175
-108
-85
-79
-74
-69
-70
-82
-117
-161
-188
-204
-212
-219
-223
-225
-223
-219
-213
-206
-200
-193
-187
-179
-173
-166
-158
-146
-129
-110
-93
-79
-67
-54
-47
-42
-37
-33
-31
-29
-29
-30
-31
-34
-37
-41
-45
-50
-55
-61
-67
-73
-79
-86
-93
-100
-108
-121
-130
-133
-134
-135
-136
-138
-139
-139
-136
-130
-123
-116
-108
-100
-92
-85
-77
-67
-55
-40
-22
-8
2
12
21
29
36
42
48
52
57
63
69
76
82
89
97
108
118
127
134
140
146
151
156
160
162
159
153
144
133
117
94
84
79
75
71
68
66
64
63
63
63
65
69
74
79
86
92
99
107
121
133
136
138
139
140
142
145
147
148
149
150
150
151
151
150
148
146
144
142
140
138
135
133
130
127
124
121
116
111
105
100
96
92
89
87
85
83
82
81
80
78
76
74
71
69
67
65
64
64
64
65
68
71
74
78
83
89
95
101
109
120
134
146
159
171
183
194
204
213
220
225
229
231
234
236
238
240
242
243
244
244
245
245
244
243
242
239
237
234
230
225
220
215
209
203
190
176
161
147
138
132
126
121
117
112
108
105
102
99
95
90
85
77
59
42
28
18
9
2
-2
-5
-8
-11
-14
-16
-19
-22
-27
-33
-39
-46
-53
-60
-71
-83
-92
-98
-103
-108
-113
-120
-128
-139
-154
-179
-212
-264
-314
-368
-440
-514
-580
-653
-674
-681
-686
-654
-609
-576
-573
-568
-579
-619
-641
-616
-537
-377
-228
-139
-132
-157
-176
-207
-225
-236
-245
-252
-260
-268
-275
-283
-291
-298
-310
-322
-327
-326
-322
-316
-311
-307
-302
-298
-295
-292
-294
-299
-306
-313
-318
-322
-328
-334
-340
-347
-353
-359
-364
-370
-376
-381
-386
-391
-396
-400
-404
-406
-405
-403
-398
-393
-387
-381
-375
-368
-360
-351
-343
-337
-330
-322
-311
-295
-279
-263
-245
-225
-207
-194
-184
-174
-164
-154
-148
-143
-140
-136
-131
-125
-118
-111
-102
-92
-78
-55
-34
-14
0
10
20
29
39
48
57
65
72
77
81
85
89
94
98
101
105
108
112
116
120
124
127
131
137
150
167
191
206
217
227
236
245
253
259
265
269
275
281
287
294
301
310
318
324
330
336
342
346
350
354
359
364
368
373
376
378
379
381
383
384
386
387
388
390
392
394
395
397
397
398
400
402
404
406
407
407
408
409
411
412
413
413
413
414
414
415
416
416
415
415
415
415
416
416
416
418
419
421
424
427
433
448
466
487
505
522
537
554
569
577
582
587
591
594
597
600
603
605
606
608
610
613
616
618
620
622
624
626
628
631
634
636
639
642
645
648
651
652
652
650
646
641
635
626
615
598
565
537
501
455
408
364
295
226
180
129
79
27
-22
-70
-116
-150
-177
-204
-240
-287
-334
-376
-408
-432
-456
-479
-502
-524
-542
-557
-573
-591
-613
-638
-665
-702
-747
-793
-839
-917
-998
-1091
-1184
-1284
-1380
-1411
-1425
-1409
-1296
-1135
-966
-861
-824
-812
-819
-835
-860
-892
-920
-959
-979
-986
-991
-997
-1002
-1006
-1008
-1010
-1012
-1014
-1017
-1020
-1022
-1022
-1022
-1020
-1018
-1017
-1016
-1015
-1012
-1009
-1006
-1002
-999
-995
-991
-984
-968
-955
-946
-940
-935
-930
-925
-922
-921
-922
-927
-934
-942
-950
-958
-967
-976
-984
-988
-991
-990
-987
-982
-976
-970
-963
-948
-934
-922
-900
-913
-1032
-1200
-1433
-1652
-1923
-2092
-2096
-1951
-1662
-1301
-960
-868
-806
-743
-706
-736
-825
-736
-729
-763
-744
-699
-683
-672
-663
-657
-648
-639
-632
-626
-616
-599
-563
-498
-438
-384
-335
-286
-237
-183
-144
-121
-107
-98
-93
-91
-89
-87
-86
-85
-85
-84
-83
-82
-82
-83
-84
-85
-86
-86
-87
-87
-88
-89
-89
-89
-89
-89
-89
-90
-90
-90
-88
-86
-84
-83
-82
-81
-80
-79
-79
-79
-79
-81
-82
-83
-82
-81
-79
-78
-75
-73
-73
-71
-70
-70
-70
-69
-68
-67
-65
-48
-62
-122
-154
-169
-176
-182
-189
-191
-180
-154
-116
-47
2
30
48
61
68
74
77
81
84
88
91
95
96
95
94
89
82
73
65
58
48
38
27
17
7
-2
-11
-19
-26
-34
-43
-53
-62
-70
-77
-84
-92
-98
-104
-109
-113
-117
-122
-127
-132
-137
-141
-146
-151
-156
-161
-166
-171
-175
-179
-184
-191
-198
-211
-234
-253
-260
-264
-267
-269
-272
-274
-276
-278
-280
-283
-287
-290
-294
-297
-299
-302
-304
-306
-310
-314
-318
-324
-331
-337
-344
-350
-355
-359
-364
-371
-380
-421
-483
-567
-662
-757
-840
-896
-917
-916
-881
-783
-641
-493
-354
-246
-221
-217
-214
-216
-227
-231
-233
-234
-236
-237
-237
-237
-237
-239
-240
-241
-243
-243
-244
-243
-243
-243
-243
-243
-243
-243
-243
-243
-244
-245
-247
-249
-252
-255
-259
-263
-268
-273
-277
-283
-289
-296
-305
-319
-334
-346
-356
-365
-375
-386
-397
-409
-421
-431
-436
-440
-445
-450
-454
-458
-461
-464
-467
-468
-469
-469
-467
-465
-461
-457
-452
-447
-441
-434
-428
-419
-400
-388
-388
-387
-385
-384
-382
-381
-380
-379
-376
-371
-363
-355
-345
-336
-324
-310
-300
-294
-286
-269
-240
-215
-196
-179
-138
-83
-22
38
99
159
217
272
320
366
414
463
493
523
551
570
581
593
607
621
634
648
661
683
716
753
788
814
833
849
869
893
917
945
971
989
1004
1022
1049
1071
1088
1103
1114
1123
1131
1143
1154
1164
1172
1180
1188
1195
1202
1211
1225
1246
1265
1282
1296
1310
1322
1338
1357
1374
1386
1393
1399
1405
1411
1417
1423
1430
1438
1447
1456
1465
1482
1509
1533
1552
1571
1590
1609
1626
1639
1651
1656
1652
1638
1599
1542
1474
1392
1305
1226
1156
1092
1027
970
940
897
853
800
771
723
677
633
583
553
531
518
507
497
481
456
429
397
360
324
293
271
252
238
228
218
210
201
190
175
158
140
124
108
92
77
58
41
27
14
1
-13
-31
-49
-66
-83
-96
-113
-138
-168
-198
-227
-254
-278
-306
-331
-349
-365
-386
-411
-453
-500
-558
-633
-716
-806
-901
-993
-1070
-1125
-1145
-1145
-1133
-1099
-1012
-915
-810
-695
-598
-521
-490
-473
-461
-486
-511
-529
-542
-543
-540
-534
-528
-521
-523
-547
-583
-614
-627
-636
-639
-630
-610
-589
-563
-541
-529
-522
-516
-510
-504
-497
-491
-484
-478
-472
-466
-460
-455
-450
-446
-441
-437
-434
-430
-427
-423
-416
-409
-406
-412
-425
-440
-452
-465
-476
-484
-487
-489
-491
-492
-493
-495
-496
-495
-489
-480
-471
-464
-458
-452
-445
-439
-434
-430
-426
-424
-421
-417
-414
-412
-409
-405
-401
-397
-392
-387
-383
-378
-374
-368
-358
-342
-327
-317
-309
-302
-292
-280
-265
-237
-199
-174
-154
-136
-127
-121
-116
-112
-109
-107
-106
-107
-109
-112
-116
-121
-127
-137
-155
-170
-185
-200
-207
-215
-222
-208
-185
-158
-131
-107
-85
-60
-30
1
27
46
62
77
92
114
124
129
132
135
138
140
141
141
142
145
147
147
148
150
152
154
158
163
172
192
208
231
263
285
295
304
310
316
321
324
328
335
347
362
377
392
407
429
454
477
503
527
543
561
589
606
609
610
611
612
610
605
599
595
593
591
588
585
582
579
576
574
572
569
566
561
555
538
503
467
436
410
382
354
326
309
302
296
290
283
276
270
263
255
245
237
232
228
224
222
220
217
214
210
207
202
197
190
176
147
131
123
116
111
108
108
111
115
120
124
130
139
144
140
130
116
91
61
29
-4
-40
-77
-112
-138
-158
-179
-208
-241
-291
-347
-416
-498
-585
-674
-751
-798
-813
-797
-745
-636
-484
-324
-197
-138
-117
-109
-114
-123
-130
-135
-140
-144
-149
-155
-162
-170
-179
-191
-203
-214
-227
-242
-257
-267
-275
-281
-288
-296
-303
-312
-322
-333
-344
-356
-379
-413
-439
-459
-476
-493
-511
-528
-552
-578
-602
-626
-649
-674
-701
-726
-752
-777
-797
-812
-830
-841
-848
-855
-859
-861
-861
-859
-856
-851
-845
-834
-809
-788
-772
-753
-728
-698
-670
-641
-610
-584
-561
-536
-509
-478
-442
-412
-385
-356
-326
-295
-263
-229
-191
-156
-136
-125
-114
-101
-87
-74
-60
-48
-38
-29
-17
-4
1
4
6
9
10
4
-9
-26
-47
-67
-88
-109
-136
-164
-190
-213
-236
-259
-288
-306
-318
-328
-333
-338
-343
-348
-351
-354
-357
-360
-360
-359
-355
-349
-339
-326
-303
-262
-222
-178
-134
-90
-42
-3
29
61
110
166
224
261
301
337
363
382
396
404
409
415
419
423
427
431
438
448
469
502
533
566
600
635
665
686
704
721
739
759
784
819
848
869
892
911
927
940
952
960
966
971
973
976
979
984
989
994
1000
1008
1017
1027
1036
1040
1035
1023
1010
994
970
949
930
915
900
883
873
867
862
859
856
855
854
851
847
843
840
837
833
830
827
823
818
811
805
798
790
782
772
758
736
716
700
686
671
656
638
617
597
581
570
559
548
536
519
495
471
438
403
352
300
241
178
121
70
15
-18
-47
-69
-88
-107
-128
-152
-184
-222
-254
-274
-279
-284
-290
-287
-265
-231
-209
-202
-196
-217
-287
-385
-506
-637
-760
-857
-896
-893
-835
-738
-630
-535
-494
-479
-471
-472
-482
-498
-523
-560
-621
-684
-722
-750
-768
-785
-799
-813
-825
-837
-848
-857
-862
-865
-868
-869
-869
-868
-865
-864
-864
-865
-867
-868
-870
-871
-873
-876
-880
-885
-890
-897
-905
-913
-918
-917
-910
-900
-891
-882
-875
-869
-866
-864
-861
-859
-858
-857
-855
-854
-854
-854
-853
-851
-850
-851
-851
-851
-849
-848
-845
-841
-836
-832
-827
-821
-804
-786
-767
-747
-728
-710
-694
-681
-671
-662
-652
-639
-628
-621
-616
-610
-605
-598
-591
-584
-579
-576
-572
-566
-555
-532
-503
-477
-454
-436
-421
-405
-386
-365
-336
-298
-264
-238
-213
-181
-140
-109
-89
-75
-65
-55
-47
-41
-42
-55
-75
-107
-162
-205
-227
-218
-190
-138
-29
93
