42
50
56
63
71
80
89
97
105
117
163
210
240
261
273
279
278
272
263
248
218
183
152
136
126
119
115
115
119
126
134
141
150
159
167
173
179
185
189
195
204
217
238
267
282
289
295
299
301
301
297
291
282
265
248
242
237
237
240
243
245
247
248
248
247
245
242
238
233
224
224
240
252
260
267
275
282
290
301
322
354
401
463
537
607
658
676
676
661
619
545
455
362
276
206
174
157
145
138
138
146
157
167
178
186
186
182
174
165
151
131
102
69
51
40
32
27
26
28
34
42
51
59
70
81
91
102
112
124
132
133
128
116
80
40
29
21
15
13
12
13
13
13
14
16
19
11
1
-5
-9
-5
5
21
46
69
84
92
102
111
97
78
61
44
33
26
20
12
2
-10
-25
-46
-62
-85
-114
-141
-173
-200
-218
-219
-209
-203
-199
-196
-194
-192
-191
-195
-200
-206
-213
-220
-233
-241
-238
-232
-226
-219
-209
-192
-165
-135
-115
-100
-98
-105
-112
-118
-128
-146
-177
-198
-205
-210
-199
-183
-171
-186
-203
-218
-218
-204
-192
-182
-172
-163
-153
-133
-108
-89
-76
-94
-123
-152
-172
-187
-205
-231
-252
-265
-273
-257
-241
-231
-221
-209
-196
-181
-162
-161
-174
-186
-198
-197
-177
-161
-147
-135
-125
-113
-91
-66
-51
-41
-57
-104
-148
-161
-171
-181
-190
-202
-217
-218
-204
-164
-133
-123
-135
-152
-165
-148
-122
-91
-38
20
99
199
303
388
423
422
386
330
259
166
65
-26
-101
-139
-148
-155
-160
-164
-167
-169
-171
-173
-174
-176
-177
-177
-179
-184
-189
-183
-167
-144
-114
-86
-53
-32
-20
-10
-4
-3
-7
-15
-24
-35
-49
-48
-29
0
30
45
52
60
75
92
107
120
131
141
150
158
164
170
178
185
190
192
189
181
172
165
160
155
149
142
138
137
139
144
149
155
162
174
180
175
164
147
116
79
43
9
-27
-50
-64
-73
-78
-79
-76
-69
-60
-48
-31
-14
7
33
49
59
72
87
107
125
112
74
25
10
0
-9
-23
-53
-85
-106
-106
-83
-48
-16
1
17
36
64
86
96
104
104
94
83
73
61
48
9
-55
-75
-81
-85
-95
-115
-141
-165
-154
-124
-82
-72
-64
-53
-45
-33
9
43
54
48
40
33
32
35
41
46
27
9
-2
-14
-25
-37
-59
-90
-108
-119
-126
-133
-139
-144
-149
-153
-157
-161
-166
-170
-174
-179
-184
-191
-199
-213
-220
-215
-201
-179
-149
-103
-37
61
181
311
438
548
625
632
583
420
204
6
-91
-97
-35
41
66
52
9
-74
-136
-156
-166
-169
-172
-176
-183
-182
-170
-150
-119
-90
-71
-65
-60
-55
-58
-78
-101
-125
-141
-153
-163
-168
-161
-148
-135
-122
-112
-105
-96
-84
-73
-60
-50
-64
-79
-90
-94
-86
-72
-63
-56
-49
-44
-41
-40
-41
-44
-49
-55
-65
-79
-64
-37
-15
-2
5
-10
-28
-41
-55
-70
-81
-90
-98
-106
-113
-117
-123
-146
-196
-224
-247
-264
-274
-280
-285
-290
-292
-288
-280
-269
-255
-235
-218
-193
-169
-155
-145
-145
-158
-173
-189
-201
-210
-217
-222
-224
-221
-216
-209
-203
-198
-193
-188
-183
-177
-172
-165
-158
-150
-143
-142
-146
-153
-160
-166
-173
-181
-188
-194
-201
-210
-223
-224
-212
-203
-196
-188
-180
-173
-167
-165
-162
-158
-155
-153
-151
-150
-150
-149
-147
-145
-145
-147
-149
-151
-152
-153
-154
-155
-157
-161
-164
-167
-171
-181
-188
-185
-178
-173
-167
-162
-161
-165
-177
-194
-224
-251
-264
-260
-213
-135
-35
83
207
312
364
363
306
198
81
-33
-121
-149
-158
-136
-69
2
48
48
8
-64
-147
-178
-189
-170
-116
-67
-48
-35
-21
1
30
62
100
138
160
172
180
184
183
179
174
169
166
163
159
155
153
153
156
161
169
180
202
235
255
272
295
310
321
330
339
344
351
364
376
379
381
383
383
377
368
357
344
336
328
322
340
370
395
406
414
421
429
436
440
444
447
449
451
453
453
452
449
444
438
431
425
421
415
409
402
398
395
395
396
400
404
409
413
418
426
434
442
449
456
460
464
469
475
479
482
483
483
484
485
485
482
478
472
468
464
460
456
450
437
426
421
418
416
412
408
405
405
411
420
431
447
459
466
473
480
486
487
485
480
475
470
467
464
460
455
448
439
430
421
412
402
391
383
380
381
384
388
392
398
408
406
382
347
311
293
281
276
284
305
363
446
550
662
768
852
880
870
839
735
608
477
373
305
269
243
222
197
157
134
130
128
126
126
131
141
151
159
167
174
179
184
189
193
198
204
208
207
198
186
179
174
168
163
159
154
149
144
141
139
138
136
133
127
116
107
106
113
121
125
127
129
131
134
137
140
142
144
144
144
143
142
141
139
137
135
134
134
133
132
132
130
127
121
112
101
87
68
51
36
14
-21
-38
-45
-51
-56
-59
-60
-60
-62
-65
-70
-74
-78
-81
-83
-87
-93
-99
-104
-108
-114
-126
-142
-152
-155
-157
-158
-160
-165
-167
-163
-161
-158
-155
-153
-153
-153
-156
-159
-162
-165
-169
-172
-176
-179
-182
-184
-187
-190
-194
-197
-198
-199
-200
-202
-205
-208
-215
-228
-225
-200
-189
-182
-176
-169
-164
-160
-157
-154
-152
-151
-150
-151
-153
-156
-159
-162
-164
-166
-168
-171
-174
-177
-182
-188
-194
-197
-197
-194
-190
-184
-177
-165
-159
-166
-184
-212
-248
-271
-286
-288
-275
-241
-172
-84
15
115
213
300
355
358
312
193
50
-85
-182
-215
-228
-233
-255
-330
-409
-438
-438
-419
-398
-377
-366
-360
-357
-356
-354
-353
-352
-350
-347
-343
-340
-337
-335
-335
-334
-332
-329
-325
-321
-318
-314
-309
-302
-295
-288
-282
-275
-268
-261
-252
-243
-233
-225
-219
-212
-204
-197
-191
-185
-180
-175
-170
-165
-159
-153
-145
-136
-121
-94
-70
-39
-2
19
32
40
38
28
11
-17
-58
-79
-91
-100
-105
-105
-100
-91
-78
-55
-29
-20
-14
-11
-17
-30
-44
-61
-82
-113
-135
-142
-147
-150
-148
-137
-124
-119
-115
-112
-108
-105
-101
-97
-94
-91
-90
-89
-88
-90
-92
-96
-99
-103
-106
-110
-114
-118
-121
-123
-126
-132
-138
-143
-143
-136
-125
-115
-107
-98
-90
-83
-79
-76
-74
-72
-70
-67
-67
-71
-74
-76
-79
-82
-83
-81
-73
-63
-55
-49
-42
-35
-28
-22
-19
-19
-21
-26
-31
-35
-39
-42
-48
-54
-59
-62
-63
-62
-59
-58
-56
-54
-51
-45
-39
-39
-47
-60
-80
-110
-127
-139
-144
-138
-119
-64
20
128
245
361
444
471
452
394
287
163
43
-42
-85
-96
-105
-110
-114
-117
-121
-124
-127
-128
-129
-130
-131
-133
-135
-137
-138
-140
-141
-143
-144
-147
-149
-150
-150
-149
-149
-150
-151
-152
-150
-146
-141
-133
-118
-85
-66
-57
-52
-48
-44
-40
-35
-31
-27
-24
-19
-13
3
35
50
55
59
63
67
70
72
75
78
81
83
85
87
89
90
92
97
103
107
107
104
98
89
65
18
-17
-27
-36
-41
-43
-41
-37
-31
-25
-16
-3
-2
-8
-10
-12
-15
-16
-17
-18
-16
-14
-11
-8
-5
0
2
-4
-16
-23
-28
-34
-39
-44
-46
-46
-45
-45
-44
-44
-43
-42
-39
-35
-32
-30
-28
-24
-18
-26
-32
-35
-39
-42
-44
-44
-42
-38
-34
-30
-26
-18
-11
-10
-14
-21
-26
-30
-34
-35
-34
-30
-24
-16
-7
6
13
15
17
19
20
22
22
20
15
8
-3
-28
-46
-59
-65
-60
-48
-35
-21
-13
-9
-4
0
-12
-34
-59
-76
-87
-92
-87
-74
-38
18
97
190
290
385
463
498
495
442
328
186
50
-10
-26
-35
-43
-50
-55
-62
-94
-147
-176
-185
-160
-134
-116
-102
-94
-88
-76
-53
-38
-29
-23
-20
-20
-24
-29
-34
-37
-39
-41
-43
-45
-48
-51
-53
-56
-58
-59
-59
-57
-55
-52
-49
-45
-41
-37
-33
-30
-27
-22
-8
0
6
11
13
16
19
23
27
30
33
35
38
43
52
75
92
102
108
109
105
98
74
29
-8
-22
-27
-25
-21
-18
-14
-11
-11
-16
-24
-38
-57
-68
-76
-74
-58
-51
-47
-42
-37
-33
-29
-27
-25
-24
-24
-25
-26
-28
-31
-35
-39
-43
-48
-56
-71
-75
-78
-81
-82
-82
-74
-62
-40
-15
-3
6
4
-8
-26
-52
-68
-77
-84
-88
-90
-89
-85
-79
-73
-67
-58
-54
-54
-56
-59
-63
-52
-44
-39
-35
-32
-32
-35
-40
-48
-56
-65
-79
-87
-83
-73
-57
-34
-18
-10
-1
9
22
31
39
46
53
57
57
53
46
36
24
0
-29
-38
-43
-47
-50
-51
-52
-52
-53
-53
-52
-48
-44
-34
-16
-6
-1
1
6
11
16
23
51
136
252
389
525
627
669
625
494
336
204
103
34
-1
-12
-24
-36
-56
-78
-91
-99
-91
-85
-82
-80
-78
-77
-77
-76
-76
-76
-75
-76
-77
-78
-79
-80
-82
-86
-83
-67
-48
-30
-13
-4
2
7
11
13
14
13
11
8
4
1
-4
-8
-8
-1
7
13
19
24
29
33
36
39
41
45
48
52
59
68
79
88
98
107
114
119
124
134
154
171
183
183
172
155
132
108
82
52
18
-3
-15
-24
-30
-31
-28
-24
-18
-13
-7
0
6
10
11
6
-2
-14
-39
-60
-66
-70
-70
-59
-42
-18
7
33
58
73
57
30
6
-2
-6
-10
-12
-13
-13
-13
-13
-12
-12
-10
-7
-5
-2
0
2
6
10
14
15
15
14
13
11
11
10
9
7
6
5
3
1
0
-1
-5
-8
-7
-4
0
3
7
10
10
7
3
0
-4
-8
-7
0
12
31
54
63
68
72
75
77
77
74
69
62
54
43
25
10
-3
-18
-37
-49
-58
-66
-71
-72
-67
-58
-49
-42
-35
-29
-22
-15
-8
-2
5
21
53
111
201
319
438
534
592
612
599
558
467
341
204
81
17
-1
-11
-21
-26
-35
-69
-130
-166
-179
-165
-123
-63
-20
-4
1
-6
-21
-30
-37
-43
-47
-51
-55
-58
-61
-64
-66
-69
-72
-76
-82
-86
-79
-67
-56
-44
-33
-23
-15
-10
-6
-1
4
11
18
25
31
38
44
50
55
58
61
63
66
70
74
80
89
99
107
116
125
132
137
141
147
154
158
152
139
128
115
101
85
76
70
64
58
52
46
42
38
34
29
21
5
-7
-14
-18
-22
-25
-26
-26
-25
-24
-22
-20
-18
-17
-14
-12
-9
-7
-5
-3
-3
-4
-6
-10
-14
-19
-25
-30
-35
-39
-42
-45
-49
-53
-57
-60
-60
-58
-56
-52
-49
-46
-42
-36
-30
-26
-28
-35
-45
-58
-77
-85
-90
-94
-97
-100
-99
-95
-88
-82
-78
-76
-74
-72
-70
-67
-63
-60
-56
-52
-49
-46
-44
-41
-37
-33
-27
-8
30
51
65
74
78
76
68
57
36
-1
-27
-44
-55
-63
-69
-74
-78
-81
-84
-86
-87
-87
-86
-83
-79
-73
-66
-53
-20
21
56
110
180
285
419
556
659
671
631
502
351
207
104
61
48
37
22
6
-6
-22
-34
-40
-42
-42
-42
-42
-42
-42
-43
-43
-39
-30
-19
-7
5
22
36
39
39
39
39
39
19
-12
-48
-79
-99
-102
-103
-104
-105
-106
-104
-96
-84
-62
-32
-22
-18
-13
-10
-8
-5
-1
2
6
9
13
19
27
45
80
107
126
132
135
139
142
145
145
141
133
124
111
93
79
67
56
41
23
6
-10
-18
-12
0
7
15
23
29
33
34
36
41
48
40
31
23
23
33
41
47
53
62
72
85
103
128
147
159
168
174
178
178
175
171
166
161
153
148
155
169
180
191
199
201
202
203
205
208
210
211
206
198
189
182
176
168
160
150
140
131
122
114
105
99
94
91
89
87
85
82
78
76
75
76
76
76
75
75
76
77
80
81
81
81
81
83
84
78
66
52
34
14
-15
-37
-44
-48
-51
-52
-54
-56
-59
-61
-63
-66
-70
-75
-77
-72
-56
-13
34
95
170
253
336
410
458
458
408
281
119
-31
-106
-130
-122
-111
-102
-126
-167
-198
-213
-224
-203
-168
-127
-98
-80
-72
-81
-100
-123
-146
-149
-152
-154
-156
-152
-144
-139
-135
-132
-130
-127
-124
-121
-117
-114
-110
-107
-103
-97
-91
-87
-87
-88
-90
-91
-92
-93
-94
-94
-86
-73
-50
-21
1
28
45
55
62
66
66
62
55
46
36
25
14
5
-2
-9
-15
-20
-24
-30
-37
-45
-52
-57
-62
-67
-72
-76
-80
-84
-86
-88
-87
-86
-86
-84
-82
-80
-78
-77
-76
-74
-73
-68
-63
-59
-58
-62
-69
-76
-82
-91
-99
-100
-96
-91
-87
-84
-81
-77
-74
-70
-65
-59
-53
-47
-43
-41
-39
-37
-35
-32
-29
-27
-25
-22
-20
-18
-16
-16
-16
-17
-18
-19
-19
-20
-20
-20
-20
-19
-18
-17
-16
-15
-14
-13
-11
-10
-8
-6
-3
0
7
25
34
38
42
46
44
27
14
4
-3
-10
-16
-20
-24
-26
-28
-31
-33
-35
-37
-40
-42
-44
-45
-46
-47
-48
-49
-50
-54
-62
-66
-58
-37
21
117
243
377
475
508
482
404
281
163
76
24
-6
-30
-48
-68
-82
-94
-102
-104
-104
-105
-106
-108
-110
-105
-96
-91
-89
-88
-87
-86
-85
-82
-80
-77
-73
-70
-67
-65
-63
-61
-60
-57
-54
-49
-39
-29
-24
-26
-30
-35
-39
-42
-45
-48
-48
-46
-40
-32
-23
-11
5
16
24
30
36
41
45
47
46
43
39
35
29
19
20
35
44
52
60
65
66
62
55
46
38
30
19
8
-1
-11
-19
-23
-27
-32
-37
-42
-46
-47
-47
-48
-48
-49
-49
-48
-47
-45
-45
-45
-44
-43
-41
-39
-35
-29
-29
-41
-51
-61
-66
-58
-42
-30
-18
-8
-2
-2
-4
-8
-12
-16
-22
-26
-23
-17
-14
-11
-8
-6
-5
-7
-10
-14
-17
-19
-22
-25
-28
-31
-33
-34
-34
-33
-31
-27
-23
-18
-11
-5
-4
-5
-7
-8
-10
-12
-14
-14
-10
-3
3
9
14
19
25
30
35
40
43
47
53
64
64
46
32
19
8
0
-5
-12
-20
-25
-20
-8
0
10
17
18
11
0
-13
-30
-43
-53
-63
-61
-41
-12
23
81
146
218
296
364
427
496
539
537
479
352
191
36
-47
-75
-61
-44
-30
-32
-56
-74
-90
-102
-106
-102
-93
-82
-74
-68
-62
-56
-50
-42
-34
-25
-16
-5
4
9
4
-6
-20
-34
-53
-63
-67
-72
-78
-76
-60
-37
-10
2
9
15
20
22
23
21
19
17
15
13
12
10
8
7
8
9
12
15
20
27
42
70
97
125
150
166
171
177
182
170
133
87
55
34
23
15
12
12
15
20
28
40
58
74
86
96
101
93
79
67
57
47
38
29
22
17
13
8
3
0
-1
0
5
10
15
19
22
26
30
35
37
38
34
27
18
9
2
-3
-9
-16
-24
-30
-36
-41
-44
-46
-48
-49
-49
-48
-48
-48
-49
-50
-51
-53
-54
-57
-60
-64
-69
-76
-85
-101
-113
-124
-135
-132
-113
-92
-70
-56
-37
-12
6
17
22
15
-2
-31
-64
-80
-90
-97
-100
-99
-94
-87
-74
-48
-31
-23
-18
-14
-10
-4
2
8
13
19
27
35
37
34
28
20
6
-23
-41
-50
-58
-65
-69
-71
-71
-70
-69
-67
-65
-63
-59
-54
-47
-36
-3
64
166
293
419
517
559
572
549
480
407
345
277
197
120
38
-38
-74
-86
-93
-96
-96
-92
-86
-77
-65
-46
-29
-18
-11
-7
-3
1
6
13
19
23
25
27
30
33
37
40
43
47
51
54
58
61
63
65
69
76
84
89
89
83
75
68
64
59
54
48
44
40
37
35
35
36
38
41
46
50
56
62
71
86
100
109
116
122
128
134
139
144
147
150
153
159
163
157
145
132
118
104
89
77
65
55
52
53
54
55
55
56
57
58
61
63
66
69
72
74
76
77
79
81
84
90
97
103
107
106
102
95
88
78
63
54
59
69
76
84
91
95
95
88
78
67
57
46
35
28
28
32
39
46
51
55
60
64
69
74
78
82
85
88
90
93
98
108
114
103
82
68
54
41
33
33
38
45
54
67
88
98
106
113
118
117
106
93
87
82
77
72
67
64
64
67
71
76
79
81
84
89
95
99
102
104
104
105
107
109
111
112
112
113
117
120
114
101
89
77
64
48
31
21
12
3
-4
-9
-13
-15
-14
-13
-11
-6
0
6
16
36
79
155
251
362
474
572
615
608
528
392
241
108
37
15
-5
-26
-65
-97
-111
-121
-120
-102
-89
-77
-67
-62
-65
-71
-77
-80
-81
-83
-85
-87
-89
-91
-92
-94
-94
-94
-95
-97
-98
-100
-102
-104
-106
-108
-111
-115
-118
-121
-123
-127
-131
-136
-139
-139
-134
-125
-115
-105
-95
-83
-70
-60
-54
-49
-46
-45
-44
-43
-41
-39
-37
-35
-34
-33
-33
-33
-33
-33
-34
-34
-35
-36
-37
-37
-36
-35
-35
-36
-37
-39
-40
-41
-43
-45
-49
-52
-55
-57
-60
-72
-79
-72
-58
-46
-34
-24
-19
-17
-16
-13
-9
-10
-19
-26
-30
-34
-40
-48
-58
-67
-75
-83
-91
-98
-102
-101
-98
-94
-90
-87
-86
-85
-83
-80
-77
-75
-74
-74
-73
-73
-73
-73
-74
-75
-77
-78
-78
-77
-77
-78
-73
-63
-57
-51
-46
-43
-40
-39
-41
-44
-49
-55
-60
-65
-70
-76
-81
-85
-86
-83
-78
-72
-67
-63
-61
-58
-55
-50
-45
-39
-34
-29
-24
-19
-14
-9
-4
0
4
12
21
29
35
36
33
28
21
11
-8
-43
-64
-80
-88
-83
-70
-57
-43
-34
-27
-19
-10
-11
-27
-37
-45
-53
-58
-60
-58
-53
-46
-36
-19
14
77
172
298
433
545
587
581
504
348
151
-41
-196
-249
-247
-183
-98
-35
-13
-16
-42
-67
-93
-94
-79
-55
-27
-12
-5
0
4
11
19
27
34
41
49
55
59
61
63
65
68
70
71
73
75
78
86
87
78
67
57
77
97
112
124
131
137
142
148
153
154
151
146
141
135
132
138
148
154
158
161
164
166
167
168
168
165
159
151
141
122
86
57
37
22
8
-6
-28
-40
-47
-52
-57
-61
-66
-71
-74
-78
-81
-85
-91
-103
-123
-129
-134
-139
-141
-136
-127
-121
-116
-111
-107
-105
-105
-107
-112
-118
-124
-131
-139
-151
-162
-174
-194
-226
-250
-265
-272
-271
-270
-268
-266
-261
-246
-224
-201
-190
-184
-178
-172
-166
-160
-149
-136
-155
-175
-190
-198
-193
-183
-172
-161
-149
-136
-114
-91
-83
-78
-74
-70
-66
-62
-58
-52
-45
-32
-12
6
15
21
27
32
36
38
38
36
33
31
28
23
15
26
60
107
122
135
147
165
188
202
212
216
209
195
182
170
161
155
150
145
139
133
132
139
154
197
249
268
274
268
255
241
223
206
190
175
175
189
229
286
341
402
482
593
715
820
872
825
655
413
200
88
51
74
141
201
206
175
98
27
4
18
43
64
73
78
81
80
73
65
59
55
50
46
40
32
23
16
10
5
1
-2
-6
-11
-16
-21
-27
-33
-40
-48
-56
-62
-70
-76
-81
-86
-90
-94
-97
-99
-101
-102
-103
-102
-101
-98
-96
-94
-92
-90
-88
-84
-79
-74
-68
-60
-49
-49
-59
-64
-67
-69
-71
-73
-74
-75
-79
-84
-89
-94
-99
-104
-109
-117
-133
-145
-150
-153
-157
-162
-166
-166
-156
-145
-136
-128
-120
-114
-111
-112
-117
-124
-131
-139
-150
-159
-160
-154
-144
-134
-121
-106
-92
-82
-74
-67
-60
-52
-43
-35
-27
-19
-6
11
24
33
37
39
40
41
42
44
46
47
49
52
55
57
58
59
62
66
71
76
87
112
135
151
164
174
177
174
166
154
134
99
69
48
32
20
9
4
12
30
56
103
132
147
158
165
167
166
162
155
145
125
97
83
74
69
70
81
96
107
119
131
139
139
132
121
109
98
86
73
62
54
48
41
31
13
-11
-39
-63
-66
-68
-68
-68
-68
-70
-73
-78
-85
-92
-102
-118
-119
-104
-67
20
129
245
360
458
497
510
478
381
235
89
-20
-82
-118
-153
-185
-235
-299
-324
-336
-345
-344
-327
-319
-315
-312
-311
-309
-306
-303
-298
-294
-291
-290
-288
-287
-285
-284
-283
-283
-283
-280
-277
-272
-267
-262
-258
-253
-248
-241
-235
-228
-217
-195
-182
-171
-160
-155
-162
-181
-209
-244
-260
-270
-277
-280
-278
-269
-255
-232
-194
-157
-123
-101
-87
-73
-60
-38
-12
-3
0
2
3
5
6
8
11
13
17
20
23
27
32
36
40
43
45
48
50
53
55
57
59
60
62
65
67
69
70
70
69
68
67
65
63
60
57
55
54
53
54
56
58
60
61
63
64
64
62
67
91
99
102
105
109
113
117
121
125
129
131
132
132
132
131
130
129
129
128
128
128
128
129
130
130
130
129
129
128
127
126
125
125
125
126
126
126
125
123
121
119
118
116
116
115
115
114
115
118
121
125
130
134
137
140
143
147
152
157
162
175
190
206
218
227
235
240
245
250
256
263
271
280
288
294
301
308
314
317
312
300
285
270
258
245
232
220
212
207
205
203
201
200
198
196
195
195
195
198
202
209
217
228
250
293
366
465
582
697
772
799
778
713
583
436
301
222
202
190
178
165
154
137
98
58
43
32
27
34
47
55
60
62
64
66
68
68
66
62
57
51
47
42
38
33
29
24
20
16
13
11
10
9
10
11
12
13
12
10
9
8
8
8
8
7
6
7
9
14
19
24
29
34
41
49
56
60
57
51
44
39
35
29
22
16
11
10
12
14
15
16
18
22
26
21
8
-4
-20
-35
-50
-63
-75
-85
-86
-82
-76
-72
-69
-65
-63
-62
-61
-61
-60
-60
-60
-62
-65
-69
-73
-76
-81
-87
-93
-97
-97
-91
-81
-67
-41
-13
0
9
10
-1
-12
-21
-30
-41
-51
-64
-81
-82
-66
-55
-46
-38
-30
-27
-28
-32
-37
-41
-46
-56
-56
-40
-30
-23
-15
-8
-6
-7
-11
-16
-20
-24
-31
-35
-31
-21
-15
-9
-3
2
9
16
24
34
50
73
89
97
103
107
109
111
112
109
105
99
92
86
77
69
66
70
81
96
115
142
165
184
202
209
212
214
216
218
218
216
211
205
198
191
182
172
161
150
142
135
128
123
119
119
121
124
127
131
137
147
147
139
132
127
122
121
124
132
147
191
247
319
407
512
623
702
728
697
603
457
297
168
122
106
122
138
150
156
151
141
133
125
112
90
69
45
44
67
100
145
177
197
212
224
231
237
242
247
249
246
237
224
211
199
183
168
161
164
175
191
217
261
308
339
356
367
352
327
302
262
206
138
64
-1
-60
-78
-82
-83
-84
-86
-87
-89
-91
-95
-102
-112
-131
-166
-202
-228
-239
-247
-256
-271
-291
-316
-347
-365
-387
-422
-458
-480
-482
-485
-488
-462
-446
-437
-428
-421
-416
-413
-411
-410
-410
-410
-413
-417
-422
-429
-435
-448
-485
-531
-578
-603
-615
-623
-630
-635
-641
-647
-651
-655
-659
-664
-671
-684
-704
-708
-711
-714
-715
-707
-692
-677
-662
-647
-629
-614
-601
-589
-579
-570
-564
-560
-556
-553
-549
-545
-541
-537
-533
-527
-521
-513
-502
-476
-433
-407
-389
-375
-366
-336
-278
-217
-155
-122
-94
-60
-15
13
29
41
21
2
-13
-19
-10
6
32
67
97
135
152
