-183
-215
-250
-288
-326
-346
-355
-362
-367
-370
-372
-370
-367
-362
-356
-350
-343
-335
-327
-318
-307
-299
-294
-290
-285
-281
-278
-275
-273
-271
-269
-268
-267
-266
-265
-266
-267
-268
-268
-268
-269
-269
-269
-268
-266
-265
-263
-263
-263
-266
-270
-274
-281
-291
-273
-258
-248
-240
-236
-235
-235
-234
-232
-231
-230
-228
-226
-222
-216
-209
-203
-198
-193
-190
-187
-183
-178
-173
-169
-165
-161
-157
-151
-145
-138
-132
-129
-126
-122
-119
-115
-114
-113
-113
-113
-114
-116
-120
-125
-131
-136
-141
-146
-153
-162
-170
-177
-182
-187
-195
-206
-218
-231
-251
-272
-286
-294
-272
-205
-109
12
165
338
495
608
649
646
586
474
339
200
59
-77
-200
-268
-291
-299
-293
-280
-261
-236
-215
-188
-169
-160
-152
-146
-143
-143
-145
-148
-151
-155
-160
-162
-157
-146
-138
-131
-124
-115
-105
-95
-87
-80
-74
-69
-65
-60
-56
-53
-49
-45
-40
-34
-27
-19
-12
-6
0
7
16
26
36
46
59
75
93
113
131
143
149
152
156
159
162
165
167
168
168
167
166
163
159
154
147
140
132
114
77
54
39
26
14
5
-2
-9
-17
-26
-34
-42
-49
-56
-63
-70
-76
-82
-86
-89
-93
-98
-102
-105
-107
-107
-105
-101
-97
-91
-84
-75
-60
-43
-36
-33
-30
-28
-26
-25
-24
-24
-23
-21
-18
-15
-12
-10
-8
-6
-3
0
3
7
11
19
29
36
40
39
35
29
20
2
-26
-42
-51
-59
-62
-59
-51
-39
-20
12
36
49
59
70
79
88
97
107
116
126
140
157
170
175
178
180
181
182
183
185
187
190
192
194
196
197
199
201
203
207
211
216
222
229
235
241
247
251
255
258
261
264
266
268
271
273
276
278
278
278
276
275
275
274
273
272
270
269
267
265
261
254
245
233
197
150
121
97
78
63
48
34
21
9
-3
-18
-39
-62
-82
-94
-79
-33
50
168
309
453
579
649
672
648
576
455
310
153
-8
-161
-284
-368
-403
-414
-421
-424
-426
-426
-424
-419
-413
-405
-394
-375
-354
-341
-333
-326
-320
-313
-308
-303
-298
-291
-283
-274
-264
-251
-237
-221
-206
-191
-177
-162
-149
-137
-129
-123
-119
-116
-112
-108
-104
-100
-96
-91
-84
-75
-60
-49
-41
-27
-4
26
50
58
62
66
70
71
72
72
72
72
72
72
70
68
66
64
62
59
56
52
47
43
35
20
-7
-31
-49
-72
-93
-110
-123
-133
-141
-148
-152
-157
-163
-169
-177
-189
-204
-207
-208
-210
-211
-213
-214
-213
-212
-210
-209
-209
-208
-208
-206
-205
-204
-203
-202
-199
-196
-193
-189
-185
-180
-174
-167
-159
-154
-151
-149
-146
-142
-138
-135
-133
-131
-128
-124
-118
-112
-106
-101
-95
-90
-84
-78
-72
-65
-58
-51
-42
-33
-23
-12
0
14
21
15
2
-12
-29
-36
-40
-43
-46
-48
-46
-39
-29
-14
5
13
18
22
25
27
29
31
32
33
34
36
38
40
43
45
46
46
46
45
43
42
40
38
37
37
37
37
38
40
43
46
49
52
54
56
58
60
61
62
60
57
53
48
43
39
34
29
25
21
18
16
15
14
16
19
24
29
35
41
47
53
59
65
72
78
83
88
89
89
88
87
85
84
82
82
81
81
79
78
76
73
69
65
62
59
55
50
36
6
-15
-29
-33
-25
-4
55
169
328
531
763
1004
1214
1308
1300
1158
892
584
302
98
18
-8
3
12
16
19
21
23
25
28
30
34
37
39
41
42
45
49
53
56
58
61
64
68
72
75
79
83
87
91
95
99
102
104
106
108
109
110
112
114
117
121
124
128
132
136
140
145
151
160
174
188
200
212
224
231
229
220
193
148
100
56
3
-18
-32
-42
-31
0
47
99
128
179
226
240
245
248
246
230
215
202
188
172
148
111
80
60
48
39
31
22
14
7
3
1
0
-2
-3
-5
-8
-12
-16
-19
-22
-27
-32
-41
-57
-63
-64
-66
-68
-70
-66
-55
-42
-24
-8
4
16
21
17
10
7
4
1
-1
-4
-6
-8
-10
-13
-15
-17
-18
-18
-18
-20
-24
-28
-31
-32
-31
-28
-26
-25
-25
-23
-19
-15
-13
-14
-17
-23
-29
-36
-48
-47
-36
-31
-27
-23
-20
-18
-16
-16
-17
-17
-17
-18
-18
-20
-22
-23
-24
-24
-24
-25
-24
-23
-21
-19
-16
-14
-12
-10
-7
-5
-5
-7
-9
-12
-15
-16
-18
-22
-27
-31
-31
-25
-17
-9
-5
-2
1
6
11
15
19
21
21
22
22
23
23
22
22
22
23
24
26
29
31
34
39
43
48
53
57
63
70
74
75
70
63
55
50
45
41
36
30
25
20
16
12
6
-1
-18
-54
-82
-100
-100
-83
-38
58
199
378
587
807
1003
1130
1146
1094
892
606
294
22
-159
-212
-210
-150
-79
-63
-64
-63
-63
-61
-54
-44
-37
-28
-20
-14
-14
-18
-23
-29
-34
-41
-44
-42
-38
-36
-33
-31
-28
-28
-31
-35
-39
-45
-53
-52
-35
-26
-20
-15
-11
-7
-2
1
4
9
14
20
29
46
61
74
85
94
103
106
109
112
115
118
119
121
122
124
125
126
125
124
122
121
120
118
116
111
106
101
90
64
47
38
27
11
-4
-18
-29
-40
-50
-58
-66
-72
-77
-81
-85
-90
-93
-95
-96
-94
-90
-86
-82
-77
-73
-70
-67
-65
-63
-61
-60
-59
-58
-57
-56
-55
-55
-54
-52
-51
-49
-48
-47
-45
-43
-42
-40
-39
-38
-35
-32
-29
-26
-23
-18
-4
3
-3
-17
-25
-33
-40
-46
-50
-53
-54
-55
-56
-57
-57
-57
-57
-57
-57
-58
-59
-59
-59
-59
-59
-58
-58
-57
-57
-57
-57
-57
-58
-60
-62
-64
-65
-65
-65
-63
-61
-59
-56
-53
-50
-46
-42
-39
-36
-33
-30
-25
-18
-12
-6
-2
1
3
4
4
2
0
-4
-9
-14
-19
-24
-32
-40
-48
-52
-50
-41
-30
-18
-7
5
17
30
41
52
62
68
73
78
83
88
92
95
97
98
99
100
101
102
102
101
100
99
99
99
99
99
100
100
99
97
93
88
81
73
65
54
43
32
23
11
-5
-27
-39
-47
-56
-55
-35
19
120
267
456
680
914
1115
1209
1203
1071
804
495
205
-14
-112
-144
-125
-95
-54
-35
-30
-25
-21
-19
-17
-15
-12
-10
-8
-6
-5
-4
-4
-4
-4
-4
-5
-6
-6
-7
-7
-6
-5
-3
-2
0
1
3
5
8
12
16
21
26
30
35
41
47
55
64
75
86
98
110
122
132
140
148
156
163
171
179
186
192
197
202
208
213
217
221
223
223
224
223
222
220
215
209
201
186
152
127
113
101
90
80
60
27
5
-4
-12
-20
-31
-41
-51
-60
-71
-80
-87
-92
-96
-99
-102
-105
-108
-111
-112
-111
-106
-98
-89
-82
-77
-73
-68
-63
-59
-56
-53
-51
-49
-46
-42
-39
-36
-34
-32
-30
-28
-26
-24
-23
-21
-18
-15
-12
-10
-9
-10
-12
-14
-16
-19
-22
-26
-30
-32
-33
-34
-35
-36
-37
-39
-40
-40
-40
-41
-41
-42
-42
-42
-41
-40
-38
-38
-37
-37
-38
-39
-40
-42
-43
-44
-46
-48
-50
-52
-54
-55
-57
-59
-60
-61
-61
-62
-63
-66
-68
-70
-72
-73
-73
-74
-76
-78
-79
-78
-78
-77
-77
-77
-78
-78
-78
-79
-79
-80
-82
-83
-84
-84
-85
-86
-87
-87
-88
-89
-90
-91
-92
-92
-92
-92
-90
-87
-82
-77
-71
-66
-61
-57
-51
-44
-38
-34
-34
-39
-48
-57
-66
-74
-85
-97
-105
-110
-113
-115
-118
-120
-123
-128
-137
-150
-172
-207
-232
-249
-250
-234
-193
-97
50
238
446
641
785
840
772
577
290
-14
-262
-416
-459
-460
-417
-367
-334
-296
-260
-242
-233
-227
-223
-220
-216
-213
-210
-207
-204
-201
-198
-196
-194
-192
-189
-185
-180
-175
-168
-160
-149
-128
-109
-100
-94
-89
-85
-81
-78
-75
-71
-68
-65
-61
-57
-53
-49
-43
-36
-28
-21
-14
-6
2
13
30
45
59
68
75
81
87
90
90
87
83
77
72
68
64
61
57
52
48
43
38
34
29
23
16
3
-18
-30
-39
-47
-59
-73
-83
-91
-99
-105
-110
-114
-118
-122
-127
-131
-134
-133
-129
-122
-116
-110
-105
-99
-94
-90
-85
-81
-78
-77
-76
-75
-74
-72
-71
-69
-67
-66
-65
-63
-62
-60
-59
-58
-57
-55
-51
-44
-36
-28
-20
-12
-7
-11
-18
-23
-26
-30
-33
-36
-38
-40
-42
-43
-43
-42
-40
-39
-37
-36
-34
-32
-29
-22
-7
0
2
5
7
9
9
8
6
3
0
-2
-5
-8
-12
-15
-18
-19
-21
-22
-22
-22
-20
-18
-15
-13
-11
-10
-8
-6
-5
-3
-3
-3
-2
-2
-1
-1
-1
-1
-1
0
1
2
3
4
5
6
8
10
11
13
18
26
35
48
69
91
99
103
107
112
118
125
130
135
139
144
149
151
151
147
142
137
134
131
129
127
123
120
117
114
110
106
102
98
94
91
87
81
70
48
45
52
72
146
265
424
612
812
1001
1142
1202
1153
988
734
438
156
-49
-139
-148
-106
-45
-8
2
12
22
40
59
70
78
77
65
58
53
48
44
41
40
39
38
38
38
39
42
45
49
53
57
61
67
74
80
85
88
90
93
96
101
108
118
127
135
141
148
155
162
167
172
176
180
185
189
193
196
198
199
202
206
210
214
218
223
227
233
240
246
246
240
231
222
212
202
194
181
158
130
103
83
68
52
33
9
-3
-9
-14
-18
-22
-25
-27
-29
-32
-36
-39
-44
-52
-59
-65
-71
-77
-82
-84
-83
-80
-76
-71
-67
-62
-58
-53
-48
-44
-40
-37
-34
-31
-29
-27
-25
-22
-19
-17
-16
-18
-24
-31
-40
-53
-72
-74
-75
-77
-77
-78
-74
-66
-57
-51
-44
-37
-33
-30
-28
-27
-27
-26
-25
-24
-24
-30
-39
-45
-52
-59
-62
-62
-58
-52
-47
-44
-41
-37
-34
-32
-31
-30
-30
-29
-28
-28
-29
-31
-33
-34
-35
-36
-37
-41
-44
-46
-47
-46
-43
-40
-37
-34
-31
-28
-25
-23
-21
-20
-20
-19
-19
-19
-18
-18
-17
-15
-12
-9
-6
-3
-1
2
5
8
11
17
23
29
33
34
33
30
26
21
14
0
-16
-30
-41
-49
-57
-64
-71
-77
-84
-91
-95
-94
-89
-81
-66
-19
70
195
351
528
706
858
919
908
783
551
275
20
-159
-201
-193
-112
-46
-24
-41
-69
-87
-97
-90
-59
-37
-27
-23
-20
-19
-17
-14
-11
-7
-3
-1
0
3
5
7
10
13
15
19
23
27
31
35
38
40
44
49
54
59
64
69
73
77
82
87
92
97
102
108
115
122
129
136
143
151
163
172
175
178
179
180
181
182
183
184
185
185
183
179
176
171
167
161
153
143
131
118
106
94
82
71
61
47
30
9
0
-7
-13
-17
-20
-22
-23
-23
-22
-21
-20
-18
-15
-11
-8
-6
-4
-2
0
0
2
3
3
3
4
6
8
10
12
14
16
19
22
25
28
30
32
37
44
49
53
53
52
50
48
47
46
43
40
37
36
38
43
49
55
59
63
68
72
76
77
76
73
68
62
56
52
49
47
45
43
42
41
40
38
37
35
33
32
32
32
32
32
32
33
34
35
36
36
36
35
34
34
33
31
29
27
25
23
21
17
14
7
-11
-31
-43
-51
-59
-65
-68
-68
-64
-59
-54
-48
-43
-37
-31
-25
-23
-25
-30
-36
-44
-58
-83
-106
-131
-156
-191
-216
-227
-236
-244
-252
-257
-262
-268
-279
-297
-309
-323
-334
-321
-283
-192
-56
119
317
520
699
808
818
763
588
354
114
-90
-237
-307
-331
-313
-284
-252
-238
-231
-227
-223
-220
-217
-212
-208
-203
-198
-193
-189
-184
-176
-168
-162
-156
-151
-147
-143
-139
-135
-130
-125
-120
-114
-108
-99
-84
-69
-52
-42
-35
-29
-23
-17
-11
-6
-2
1
5
11
18
26
34
42
50
57
64
71
78
84
90
96
101
105
110
115
120
122
122
119
113
105
97
88
78
67
58
51
43
29
2
-24
-43
-60
-77
-95
-118
-128
-134
-140
-145
-148
-152
-154
-155
-157
-158
-158
-158
-157
-155
-153
-151
-150
-148
-145
-142
-139
-135
-131
-123
-114
-105
-95
-84
-73
-62
-50
-38
-25
-2
30
81
129
178
226
276
329
360
392
423
452
482
531
583
634
682
733
792
859
924
984
1019
1056
1075
1082
1087
1064
994
914
839
780
741
713
697
685
678
671
659
637
589
522
431
319
203
90
-16
-108
-181
-240
-296
-330
-353
-366
-375
-383
-389
-395
-402
-410
-417
-422
-424
-426
-430
-435
-417
-406
-401
-397
-394
-391
-388
-386
-383
-379
-375
-372
-369
-366
-363
-360
-355
-350
-344
-338
-333
-327
-321
-315
-307
-300
-294
-287
-282
-276
-270
-261
-241
-212
-188
-162
-137
-108
-77
-42
-16
-1
9
17
23
28
35
40
40
33
24
14
2
-6
-12
-16
-20
-24
-28
-30
-31
-31
-29
-27
-26
-26
-26
-24
-22
-20
-18
-17
-17
-17
-17
-16
-16
-16
-16
-15
-14
-13
-10
-8
-5
-3
0
1
5
8
14
29
42
51
58
63
65
62
55
46
39
33
27
23
20
18
17
17
16
16
16
16
15
14
14
15
17
18
19
20
20
21
22
22
21
20
17
15
13
11
9
8
6
5
3
1
-1
-3
-6
-9
-11
-12
-12
-10
-8
-4
0
4
7
10
13
16
18
20
22
23
24
24
24
24
23
22
22
22
22
21
21
20
19
19
19
19
19
18
18
18
18
18
18
18
18
17
17
16
14
11
7
3
-1
-10
-38
-55
-62
-68
-73
-77
-79
-82
-85
-88
-91
-92
-93
-94
-95
-96
-97
-98
-99
-101
-102
-104
-106
-109
-112
-113
-114
-116
-117
-118
-119
-121
-123
-125
-128
-130
-132
-133
-131
-128
-123
-118
-113
-108
-104
-100
-96
-91
-87
-83
-80
-77
-75
-72
-69
-66
-64
-61
-57
-52
-46
-40
-34
-28
-19
-2
27
46
56
64
73
80
87
95
101
103
100
94
87
82
77
70
66
64
65
68
72
75
78
84
87
83
74
67
62
57
53
49
46
42
36
28
16
4
-7
-15
-22
-27
-33
-38
-43
-47
-52
-59
-76
-101
-116
-126
-124
-105
-56
36
173
356
579
821
1040
1168
1176
1086
850
559
289
101
29
2
1
13
25
37
49
67
91
108
118
125
126
121
113
109
106
104
102
100
97
95
92
88
85
82
80
78
75
71
64
48
31
22
16
10
5
2
0
1
5
12
20
28
38
51
63
71
78
91
114
126
131
136
139
141
144
147
150
153
157
162
175
199
226
251
263
269
276
282
285
287
288
288
288
287
285
281
277
271
264
255
242
214
193
165
133
102
69
40
17
-3
-29
-59
-89
-119
-143
-162
-179
-189
-196
-201
-208
-219
-233
-247
-260
-274
-288
-298
-306
-312
-318
-323
-328
-332
-336
-340
-342
-342
-342
-340
-337
-333
-327
-321
-315
-306
-290
-274
-260
-236
-199
-178
-169
-160
-152
-146
-144
-143
-143
-143
-144
-144
-145
-148
-151
-154
-155
-156
-158
-160
-164
-168
-170
-169
-165
-158
-151
-146
-142
-139
-135
-131
-129
-127
-126
-125
-123
-120
-117
-115
-115
-114
-112
-110
-108
-105
-103
-101
-98
-93
-80
-69
-60
-54
-49
-43
-39
-37
-40
-48
-59
-68
-74
-80
-85
-92
-99
-105
-111
-115
-118
-121
-124
-126
-129
-132
-138
-146
-152
-143
-120
-55
60
228
444
687
928
1121
1186
1171
1025
763
450
166
-34
-107
-131
-103
-80
-65
-55
-45
-37
-30
-23
-16
-8
0
7
14
20
26
34
44
56
69
81
88
93
97
101
105
108
111
115
119
123
126
129
133
137
142
147
153
160
167
173
179
185
191
198
205
215
225
235
245
256
264
272
279
285
290
295
298
302
305
309
312
317
322
326
328
326
321
314
304
291
271
252
238
226
214
200
184
168
153
139
123
109
98
88
80
73
68
66
64
62
61
60
58
56
53
52
50
52
57
64
74
84
95
113
129
143
158
173
179
181
182
184
186
188
190
189
186
183
180
178
176
174
171
168
166
164
162
161
161
161
162
163
165
166
167
167
168
169
169
169
169
169
169
169
169
169
169
169
170
171
172
173
172
170
168
166
165
163
159
161
179
189
197
204
211
215
218
221
224
227
229
231
233
235
237
241
245
247
246
241
234
226
219
211
200
188
175
163
155
150
145
140
135
129
123
117
110
102
93
80
60
49
57
77
131
235
374
545
737
926
1073
1105
1081
926
678
396
143
-38
-113
-138
-119
-95
-73
-54
-32
-11
6
14
20
24
27
30
31
31
29
26
21
16
11
6
2
-3
-10
-16
-19
-19
-14
-7
0
5
9
12
16
20
24
27
29
31
32
34
36
38
39
40
42
44
46
47
48
48
49
50
51
52
53
53
54
56
59
63
66
68
68
66
61
55
48
40
30
16
3
-6
-17
-29
-43
-58
-75
-95
-117
-137
-164
-198
-227
-247
-258
-265
-270
-274
-278
-283
-287
-290
-293
-296
-300
-303
-305
-305
-303
-299
-294
-290
-286
-281
-277
-272
-268
-263
-259
-254
-249
-244
-239
-235
-232
-228
-223
-218
-213
-207
-200
-194
-188
-183
-178
-173
-168
-163
-159
-154
-150
-146
-142
-138
-134
-130
-127
-124
-122
-120
-119
-117
-117
-117
-116
-116
-114
-112
-110
-108
-107
-106
-104
-103
-101
-99
-97
-94
-91
-87
-79
-62
-47
-32
-21
-12
-3
2
7
11
13
14
16
18
20
22
22
22
19
13
6
-1
-9
-16
-24
-31
-38
-45
-51
-55
-58
-60
-63
-67
-76
-100
-129
-156
-174
-186
-183
-153
-70
64
243
456
676
863
968
974
897
682
388
78
-175
-341
-395
-413
-391
-367
-349
-341
-337
-334
-331
-328
-327
-329
-334
-339
-341
-344
-347
-351
-354
-356
-358
-360
-360
-360
-358
-355
-351
-346
-340
-334
-327
-319
-301
-285
-272
-250
-218
-200
-190
-183
-177
-170
-165
-161
-156
-149
-139
-125
-108
-88
-66
-53
-44
-38
-33
-28
-20
-10
1
15
34
46
48
50
53
56
54
34
12
-10
-29
-44
-55
-65
-76
-89
-106
-128
-153
-179
-203
-218
-232
-246
-268
-285
-297
-306
-309
-310
-311
-312
-314
-315
-315
-310
-304
-300
-296
-292
-289
-287
-287
-288
-292
-297
-302
-307
-314
-321
-325
-323
-316
-307
-295
-277
-257
-243
-233
-224
-215
-205
-197
-190
-184
-179
-175
-172
-170
-168
-167
-166
-165
-164
-162
-160
-157
-155
-153
-151
-149
-146
-141
-137
-134
-132
-129
-127
-125
-122
-118
-115
-113
-110
-108
-105
-103
-102
-102
-101
-100
-99
-98
-94
-90
-84
-71
-59
-46
-36
-26
-17
-5
6
11
15
18
21
24
27
29
32
34
36
39
41
43
45
47
49
52
57
65
75
86
99
112
125
138
149
160
168
174
180
184
188
191
194
195
197
201
207
210
204
191
177
161
153
148
144
140
138
137
141
147
156
165
148
120
97
84
76
97
161
273
434
639
871
1097
1271
1327
1314
1191
963
682
401
176
56
16
36
68
108
132
144
154
162
168
172
176
183
190
199
212
226
232
236
239
241
244
247
250
252
254
256
259
261
262
263
264
265
266
268
271
275
281
296
312
320
325
329
332
334
336
338
340
343
347
350
354
357
360
364
368
372
377
381
386
389
393
395
396
396
395
392
389
384
377
370
354
320
296
281
266
252
234
215
198
186
176
166
152
135
114
90
78
69
61
53
46
40
39
37
36
34
32
30
29
28
27
25
22
21
22
23
24
24
24
24
23
22
22
20
13
15
35
48
57
66
73
78
79
77
75
73
71
70
70
68
65
63
60
59
58
56
55
54
53
53
54
55
55
54
52
51
50
49
48
47
46
45
45
46
47
47
47
48
48
49
51
56
61
65
67
69
72
74
77
79
81
82
83
84
85
86
86
86
83
80
77
74
71
67
62
57
52
48
44
40
34
26
18
11
6
3
1
0
-3
-5
-7
-7
-8
-9
-10
-12
-13
-12
-8
-2
4
11
16
20
25
30
34
37
39
41
44
48
53
58
62
66
70
74
78
82
85
87
90
93
96
101
106
110
113
116
118
119
120
119
116
112
108
103
97
91
84
69
35
1
-28
-46
-58
-55
-31
34
153
320
524
748
965
1145
1231
1228
1120
888
590
291
67
-5
-30
-3
17
30
39
46
48
46
43
38
34
34
33
31
28
25
22
20
18
16
14
12
10
9
7
5
1
-2
-6
-11
-16
-23
-31
-39
-45
-49
-51
-52
-54
-56
-59
-63
-64
-63
-57
-47
-37
-29
-21
-12
-4
1
7
12
15
18
20
23
26
28
29
30
31
31
30
28
24
19
14
8
3
-3
-12
-22
-31
-39
-47
-55
-63
-74
-88
-105
-121
-137
-152
-162
-172
-190
-216
-226
-231
-236
-240
-243
-246
-247
-247
-246
-245
-244
-241
-238
-233
-228
-223
-220
-217
-213
-208
-203
-199
-194
-191
-188
-186
-183
-180
-178
-175
-173
-171
-168
-163
-157
-148
-137
-121
-102
-95
-90
-85
-81
-78
-75
-73
-70
-68
-66
-65
-64
-63
-62
-61
-60
-60
-60
-60
-60
-59
-58
-57
-56
-55
-53
-51
-48
-44
-41
-35
-28
-22
-18
-15
-13
-12
-11
-11
-10
-9
-9
-8
-7
-6
-5
-5
-4
-4
-4
-4
-4
-5
-5
-6
-7
-7
-8
-9
-10
-10
-11
-10
-10
-9
-9
-9
-10
-10
-10
-10
-11
-12
-14
-14
-14
-14
-12
-10
-8
-7
-6
-4
-2
0
0
0
0
-1
-3
-4
-6
-7
-9
-11
-12
-13
-14
-15
-17
-19
-21
-24
-28
-34
-38
-39
-35
-28
-21
-16
-13
-10
-7
-4
0
4
8
12
14
15
16
17
18
19
19
19
20
21
23
26
29
32
36
40
45
52
58
64
69
76
90
101
103
103
103
102
102
103
104
101
93
83
76
69
63
57
51
45
39
34
29
23
15
1
-22
-31
-40
-48
-29
24
124
271
456
669
881
1055
1138
1136
1039
818
526
225
-17
-134
-173
-150
-82
-31
-13
-7
-10
-16
-23
-31
-28
-5
5
10
15
18
20
22
24
27
30
32
35
37
40
41
42
43
45
48
51
54
58
61
65
71
79
87
94
99
104
109
115
122
130
138
146
154
162
171
184
193
195
195
195
195
196
198
200
200
200
200
199
199
199
199
197
195
194
193
191
187
182
175
160
129
106
92
78
65
49
31
10
-11
-30
-40
-44
-46
-48
-50
-52
-54
-55
-57
-58
-61
-63
-66
-68
-69
-70
-73
-76
-79
-81
-81
-79
-76
-72
-68
-64
-59
-51
-43
-37
-35
-33
-33
-31
-27
-23
-20
-20
-21
-24
-26
-28
-30
-32
-34
-36
-38
-38
-36
-31
-26
-19
-13
-8
-3
2
7
10
11
10
8
4
1
0
-3
-4
-6
-8
-9
-10
-12
-14
-16
-20
-23
-25
-26
-26
-27
-28
-29
-31
-33
-35
-38
-43
-47
-51
-55
-59
-62
-64
-67
-70
-72
-76
-79
-81
-81
-78
-73
-67
-61
-55
-47
-39
-34
-31
-29
-28
-27
-25
-24
-23
-24
-24
-24
-25
-28
-32
-39
-46
-52
-57
-62
-67
-73
-78
-83
-86
-88
-90
-91
-94
-96
-97
-97
-98
-98
-99
-101
-102
-103
-103
-104
-104
-103
-102
-99
-95
-89
-83
-78
-73
-68
-60
-50
-43
-37
-33
-29
-26
-23
-18
-13
-8
-4
0
6
12
20
28
33
36
39
43
51
51
36
26
19
12
5
0
-6
-13
-20
-28
-36
-44
-53
-64
-80
-102
-115
-128
-138
-125
-84
-5
117
287
494
721
932
1084
1132
1050
845
555
242
-15
-169
-206
-200
-157
-130
-116
-106
-106
-114
-122
-129
-132
-125
-110
-96
-81
-66
-51
-37
-25
-13
-3
4
13
23
27
22
12
7
3
0
-3
-6
-8
-7
-6
-3
0
5
11
18
29
40
51
62
77
97
114
124
131
136
139
142
144
148
151
154
156
158
161
164
167
171
174
176
178
178
179
179
178
176
171
166
161
156
151
146
139
130
120
111
102
91
74
49
28
8
-11
-33
-40
-43
-46
-49
-52
-55
-57
-59
-61
-62
-63
-65
-65
-65
-64
-63
-63
-63
-63
-63
-63
-62
-61
-60
-60
-61
-60
-58
-55
-52
-50
-48
-46
-43
-40
-37
-34
-32
-31
-30
-28
-26
-24
-22
-21
-19
-17
-14
-11
-9
-9
-8
-8
-7
-7
-8
-9
-11
-12
-12
-11
-10
-10
-10
-10
-10
-8
-7
-6
-6
-6
-6
-6
-4
-3
-1
0
0
0
2
3
3
3
2
2
2
2
2
2
2
2
3
3
4
4
4
4
3
3
3
3
3
3
3
2
2
2
1
0
0
-2
-4
-7
-9
-11
-13
-13
-13
-13
-14
-16
-18
-19
-21
-23
-25
-27
-29
-30
-29
-27
-25
-23
-21
-18
-15
-11
-8
-6
-5
-4
-3
-1
0
2
1
-1
-5
-11
-16
-22
-28
-36
-43
-49
-52
-49
-44
-37
-28
-14
6
15
18
20
22
25
28
31
34
35
36
36
35
34
31
27
22
17
13
9
5
1
-5
-13
-20
-24
-29
-33
-37
-41
-44
-47
-49
-50
-49
-47
-42
-35
-25
-10
43
157
318
514
727
918
1010
1005
880
624
319
42
-151
-235
-263
-248
-202
-148
-133
-125
-119
-113
-109
-104
-93
-77
-66
-57
-50
-46
-52
-61
-66
-69
-72
-74
-77
-78
-78
-76
-72
-67
-60
-53
-46
-36
-24
-12
-2
6
14
21
28
35
42
49
56
61
66
71
76
80
84
88
92
96
101
108
114
121
130
147
161
173
182
190
196
200
200
196
188
177
163
141
126
116
109
102
94
86
75
59
38
21
0
-31
-61
-82
-98
-107
-113
-117
-121
-125
-131
-138
-145
-152
-156
-161
-166
-172
-176
-178
-176
-173
-169
-166
-164
-164
-163
-161
-158
-156
-155
-154
-153
-151
-149
-148
-147
-147
-148
-148
-147
-146
-145
-144
-144
-143
-141
-138
-136
-134
-134
-133
-133
-131
-129
-127
-126
-125
-123
-120
-116
-112
-109
-107
-105
-104
-103
-102
-101
-100
-100
-100
-97
-92
-92
-99
-103
-107
-111
-114
-115
-115
-113
-110
-106
-101
-97
-92
-86
-80
-77
-75
-74
-72
-70
-68
-65
-63
-63
-64
-67
-69
-71
-75
-78
-71
-59
-56
-54
-51
-47
-43
-40
-38
-35
-33
-31
-30
-29
-30
-31
-32
-33
-33
-33
-32
-32
-31
-30
-29
-28
-28
-28
-28
-29
-29
-29
-29
-29
-29
-28
-28
-27
-25
-24
-23
-21
-19
-18
-16
-13
-9
-4
1
10
22
32
38
43
47
51
55
59
62
66
69
71
72
73
74
75
75
74
73
72
71
70
70
69
68
66
65
64
63
60
57
54
49
43
36
26
8
-7
-20
-32
-32
-14
34
138
288
478
687
889
1050
1126
1123
1034
831
571
303
76
-74
-111
-124
-105
-45
5
21
26
29
31
30
24
17
14
11
8
6
5
3
1
1
1
3
5
7
10
12
15
17
20
23
26
29
31
34
37
41
45
49
53
58
64
71
78
84
89
94
98
102
106
110
114
117
120
124
128
134
140
146
152
157
162
170
180
189
194
194
191
186
181
176
171
165
158
150
139
128
115
101
84
66
54
42
20
-8
-26
-36
-44
-53
-61
-68
-71
-73
-75
-77
-78
-80
-81
-82
-83
-85
-87
-89
-89
-89
-88
-87
-86
-84
-83
-81
-79
-78
-76
-74
-73
-71
-69
-65
-61
-53
-33
-17
-5
3
11
22
32
42
50
58
66
72
75
76
77
79
81
83
86
87
87
85
83
82
81
78
72
74
90
101
109
116
122
125
125
121
115
107
99
88
71
54
