579
698
819
927
1009
1045
1040
1004
973
922
859
809
792
788
785
782
779
779
781
786
793
800
807
815
825
834
844
863
884
893
901
906
906
903
899
894
888
909
944
972
984
992
995
987
974
964
957
950
943
935
927
914
891
854
793
699
574
421
254
97
-14
-52
-54
-21
24
84
167
271
375
457
496
508
518
531
543
552
561
569
574
577
576
572
563
553
533
505
492
485
479
471
460
446
418
385
375
372
369
367
365
364
363
362
361
360
358
356
355
353
351
350
348
346
343
337
320
296
290
287
286
284
281
278
274
271
269
265
259
245
223
213
208
204
200
195
190
185
179
173
165
159
157
162
173
188
212
246
271
288
292
295
298
295
280
271
264
257
251
249
249
251
254
259
266
276
282
279
272
267
263
260
257
254
249
243
237
231
224
215
200
190
183
176
167
162
165
173
183
193
180
144
93
39
-10
-38
-66
-88
-100
-110
-107
-88
-74
-65
-58
-53
-48
-45
-41
-37
-34
-31
-28
-24
-19
-14
-9
-3
6
23
35
64
107
147
161
167
160
146
133
120
110
104
99
95
89
84
81
81
86
94
102
109
117
125
134
141
147
157
169
167
145
111
78
55
30
4
-22
-38
-46
-53
-59
-65
-70
-76
-88
-108
-141
-183
-235
-281
-295
-302
-303
-299
-289
-273
-246
-211
-163
-112
-89
-81
-77
-74
-72
-69
-66
-63
-60
-57
-54
-50
-45
-32
-7
13
27
34
41
48
47
34
-2
-68
-159
-272
-400
-525
-624
-672
-689
-674
-628
-555
-458
-339
-213
-104
-51
-36
-27
-17
-9
-3
4
22
48
69
93
110
121
124
118
103
81
52
30
15
3
-2
-8
-14
-17
-17
-12
-6
0
5
11
13
12
11
9
9
6
7
13
16
19
22
24
25
24
20
14
8
1
-4
-10
-17
-23
-28
-32
-38
-45
-54
-60
-63
-60
-54
-45
-38
-32
-26
-19
-13
-10
-9
-10
-11
-12
-14
-16
-18
-20
-21
-22
-22
-23
-23
-21
-15
-7
3
25
51
59
64
68
70
72
69
64
55
46
36
20
12
16
23
27
31
34
35
35
35
33
29
22
14
-1
-27
-49
-71
-108
-158
-194
-205
-213
-216
-216
-211
-203
-191
-164
-144
-134
-126
-118
-112
-105
-91
-76
-73
-71
-70
-69
-68
-67
-65
-61
-57
-53
-49
-43
-29
-4
8
15
20
22
22
20
16
9
-3
-29
-55
-72
-77
-82
-85
-70
-52
-37
-25
-10
10
35
51
57
61
62
64
63
61
56
50
40
22
13
10
6
3
1
0
-2
-5
-8
-12
-15
-17
-18
-20
-25
-30
-34
-34
-29
-22
-15
-10
-5
0
4
8
10
9
7
4
0
-3
-6
-9
-14
-18
-21
-23
-22
-21
-19
-16
-12
-3
9
-8
-29
-47
-53
-56
-58
-59
-60
-63
-68
-75
-86
-121
-221
-363
-538
-727
-898
-991
-993
-910
-726
-512
-330
-241
-213
-196
-183
-173
-162
-149
-137
-128
-120
-111
-102
-91
-78
-69
-61
-54
-50
-49
-52
-57
-63
-70
-76
-84
-93
-98
-103
-106
-109
-111
-114
-116
-116
-113
-107
-99
-91
-84
-73
-63
-58
-60
-68
-78
-90
-108
-117
-123
-129
-134
-136
-134
-128
-120
-108
-94
-112
-163
-245
-338
-429
-511
-583
-644
-690
-707
-706
-686
-655
-618
-591
-572
-555
-539
-522
-506
-484
-457
-429
-404
-365
-313
-258
-228
-200
-172
-150
-133
-110
-95
-85
-77
-69
-61
-55
-48
-40
-32
-23
-17
-13
-12
-9
-1
18
46
70
81
86
90
93
95
96
96
93
89
85
82
78
74
69
63
58
53
49
44
40
37
36
37
41
46
53
61
71
88
102
112
118
122
125
128
131
133
136
137
138
140
142
146
149
150
146
138
127
115
98
96
106
134
182
213
238
254
258
259
260
262
242
210
176
151
132
117
104
92
92
108
133
159
168
173
177
180
182
184
184
184
184
182
178
173
166
158
143
108
77
57
46
40
37
35
33
32
31
30
29
30
33
38
43
49
54
60
66
72
78
84
89
96
106
129
159
173
184
183
169
153
137
120
102
87
83
80
76
83
92
99
78
61
51
43
35
30
28
24
4
-37
-116
-235
-386
-548
-683
-727
-717
-621
-461
-285
-135
-26
35
58
56
35
24
17
10
5
1
0
-2
-2
-1
0
1
4
8
13
18
25
37
44
38
25
5
-25
-39
-43
-46
-47
-48
-50
-52
-54
-56
-59
-61
-63
-64
-66
-67
-67
-68
-68
-70
-73
-79
-95
-109
-121
-131
-136
-136
-134
-132
-129
-132
-150
-158
-164
-169
-173
-176
-177
-178
-179
-180
-179
-177
-174
-170
-164
-158
-153
-147
-141
-135
-127
-118
-108
-98
-90
-81
-72
-63
-55
-49
-45
-41
-36
-31
-26
-20
-14
-8
-2
6
18
26
23
16
12
7
4
3
4
10
18
26
33
42
51
57
58
50
37
23
10
-7
-22
-26
-27
-29
-32
-37
-12
5
15
25
33
37
38
36
34
33
32
31
30
28
26
24
23
22
22
20
19
18
18
19
20
21
22
23
25
27
30
32
34
36
37
39
41
43
47
51
54
56
56
54
52
49
48
47
46
44
42
41
40
38
36
33
30
27
26
24
23
20
15
11
8
6
4
1
-3
-10
-15
-20
-24
-27
-32
-38
-44
-50
-55
-62
-72
-85
-97
-110
-122
-131
-140
-150
-158
-161
-159
-151
-140
-127
-111
-85
-64
-53
-43
-35
-29
-26
-24
-25
-26
-29
-33
-38
-46
-50
-40
-22
-14
-8
-2
3
9
13
16
18
20
20
19
17
14
8
0
-10
-21
-70
-136
-213
-304
-417
-554
-695
-791
-824
-791
-686
-498
-296
-121
6
72
93
74
56
43
37
41
46
52
59
58
47
37
26
20
29
47
65
85
90
89
90
92
95
98
101
100
96
91
85
80
76
70
64
56
47
36
25
14
1
-11
-19
-18
-12
-3
4
12
23
31
31
22
7
-10
-34
-52
-60
-66
-71
-75
-80
-85
-89
-94
-99
-103
-107
-112
-118
-125
-133
-137
-137
-132
-122
-110
-94
-68
-39
-18
-3
7
13
14
16
17
18
18
18
17
17
17
18
19
20
22
24
26
29
33
37
43
59
90
107
118
125
125
117
104
90
71
46
31
19
10
5
4
10
18
26
31
35
39
42
45
49
53
56
58
59
58
56
53
49
44
39
33
26
20
15
10
3
-5
-13
-20
-22
-20
-17
-15
-12
-10
-8
-6
-4
-3
-2
-2
-1
0
3
6
8
9
10
13
15
18
19
20
20
22
24
26
28
30
31
33
36
39
41
42
41
40
39
37
35
31
26
21
17
15
11
2
-8
-21
-29
-35
-40
-43
-46
-48
-48
-47
-46
-44
-42
-39
-37
-33
-28
-25
-25
-30
-40
-50
-62
-77
-92
-104
-115
-125
-132
-134
-130
-120
-106
-90
-66
-44
-21
0
12
21
29
34
30
24
21
18
16
15
13
12
11
9
9
10
12
15
19
23
28
32
37
42
50
57
60
57
46
27
-29
-132
-282
-469
-667
-842
-942
-951
-895
-742
-542
-344
-193
-106
-67
-43
-26
-10
5
22
37
49
61
67
57
38
19
0
-10
-5
7
25
56
80
96
102
93
76
60
41
33
31
27
22
24
40
51
59
66
70
70
64
55
42
18
-14
-29
-39
-46
-49
-47
-39
-27
-6
27
55
72
52
33
21
10
3
-3
-16
-40
-56
-65
-71
-72
-69
-61
-51
-38
-20
0
11
19
25
31
34
37
38
38
38
37
35
34
32
31
29
27
25
23
22
22
22
23
23
22
21
19
19
18
17
15
13
12
10
8
6
4
1
-2
-6
-12
-27
-36
-31
-18
-2
17
28
36
44
47
37
20
13
9
5
0
-3
-7
-11
-13
-16
-18
-20
-22
-23
-22
-20
-17
-14
-10
-7
-4
-2
0
2
4
6
8
11
15
20
26
31
34
35
34
33
32
32
31
30
28
25
22
17
13
10
9
7
7
7
7
7
9
11
13
16
19
23
27
32
37
42
44
44
41
36
30
24
14
-1
-3
8
19
31
30
14
6
2
0
-1
-1
-1
-2
-5
-9
-12
-15
-18
-21
-25
-29
-34
-39
-44
-52
-70
-86
-99
-109
-117
-124
-128
-131
-131
-129
-124
-117
-107
-83
-51
-20
-2
8
17
22
23
21
17
13
9
6
2
-2
-7
-10
-9
-2
8
19
28
39
50
58
62
60
54
45
36
27
14
2
-4
-12
-39
-105
-219
-382
-575
-766
-905
-925
-894
-736
-529
-329
-181
-97
-65
-46
-35
-27
-22
-15
-8
-2
7
23
44
51
55
60
63
60
55
52
49
48
46
44
43
41
38
36
34
34
35
35
35
34
32
30
29
27
25
20
14
9
4
0
-3
-8
-14
-20
-26
-31
-37
-44
-51
-58
-63
-67
-70
-73
-76
-80
-82
-84
-86
-88
-90
-92
-93
-95
-96
-96
-96
-95
-94
-92
-89
-85
-81
-76
-72
-67
-62
-55
-48
-40
-13
26
35
41
46
50
53
55
57
58
60
61
62
63
64
67
76
76
65
61
59
56
55
55
55
55
53
50
48
47
47
48
49
50
51
52
53
54
53
51
49
48
48
47
46
45
44
44
44
44
43
40
34
28
30
41
54
63
74
84
89
84
72
58
45
30
19
20
32
44
50
54
60
66
72
75
76
76
76
75
75
74
71
66
62
59
58
56
51
45
38
32
31
33
34
34
32
31
30
31
33
34
35
33
31
29
28
29
29
29
28
28
29
31
33
34
34
32
32
32
34
36
37
38
38
41
44
45
35
20
0
-26
-44
-55
-64
-72
-77
-74
-65
-56
-50
-45
-41
-37
-32
-27
-21
-14
-6
0
7
13
19
24
29
36
42
49
55
61
65
68
70
70
69
65
60
54
46
29
28
44
54
62
68
73
75
74
71
67
60
53
44
31
11
-19
-106
-248
-434
-636
-802
-857
-841
-704
-472
-220
-21
56
82
58
43
37
32
29
25
21
18
16
16
15
15
17
20
25
29
32
34
36
39
42
51
59
60
50
37
27
16
7
0
-2
-3
-3
-2
-1
0
2
4
4
-4
-15
-20
-24
-28
-33
-38
-43
-48
-55
-61
-68
-74
-79
-83
-86
-89
-94
-100
-106
-111
-115
-117
-120
-122
-123
-124
-122
-121
-119
-118
-116
-113
-109
-103
-97
-92
-87
-80
-63
-44
-23
-10
-1
5
10
15
21
26
30
33
37
41
49
65
89
109
125
132
122
104
86
66
58
54
50
46
43
42
43
47
52
56
60
64
68
73
76
78
78
75
71
66
60
53
43
30
17
8
0
-3
-8
-13
-17
-20
-21
-21
-21
-21
-20
-19
-16
-13
-8
-4
0
4
16
23
16
2
-6
-13
-21
-26
-29
-28
-27
-25
-23
-20
-18
-15
-12
-10
-9
-8
-8
-8
-8
-11
-15
-20
-25
-28
-29
-30
-31
-33
-35
-37
-39
-42
-46
-50
-55
-58
-61
-62
-65
-68
-74
-83
-93
-100
-101
-101
-100
-99
-98
-95
-91
-89
-93
-104
-116
-124
-130
-137
-144
-150
-157
-163
-170
-176
-181
-186
-190
-193
-196
-200
-204
-208
-212
-216
-218
-220
-220
-218
-215
-209
-203
-196
-188
-179
-168
-149
-130
-116
-103
-89
-76
-63
-50
-38
-29
-20
-12
-6
-2
-3
-8
-14
-21
-27
-36
-44
-48
-47
-41
-33
-26
-17
-10
-10
-18
-34
-84
-166
-280
-416
-565
-707
-787
-787
-705
-538
-341
-161
-57
-19
-18
-36
-59
-78
-53
-14
26
47
57
63
69
76
85
96
107
119
136
150
157
155
146
132
108
75
57
45
40
52
73
83
89
95
101
105
110
113
116
118
118
116
114
109
104
99
92
84
76
67
56
44
34
25
17
10
4
0
-4
-8
-12
-15
-17
-19
-20
-20
-19
-18
-15
-12
-9
-5
0
4
9
14
18
24
30
37
44
50
57
62
69
76
83
91
99
111
123
132
140
147
154
160
166
172
175
175
172
167
162
158
154
151
148
145
143
141
139
138
136
134
133
132
131
130
128
126
125
124
122
119
115
112
109
107
105
101
96
90
85
80
78
76
76
76
77
79
82
85
88
91
94
96
99
105
111
116
119
116
109
100
89
79
67
54
41
32
24
14
-3
-39
-70
-89
-98
-104
-108
-112
-115
-115
-106
-93
-82
-70
-61
-62
-76
-94
-110
-127
-141
-146
-149
-150
-154
-160
-158
-137
-115
-90
-64
-45
-31
-21
-16
-20
-29
-43
-63
-91
-106
-117
-127
-132
-123
-107
-96
-86
-76
-70
-69
-77
-88
-100
-111
-124
-136
-142
-139
-132
-125
-123
-121
-119
-117
-115
-112
-109
-107
-105
-103
-101
-99
-96
-93
-90
-88
-85
-82
-78
-73
-67
-61
-54
-42
-28
-19
-16
-13
-10
-7
-4
-1
1
3
4
3
3
2
1
-2
-7
-14
-22
-55
-122
-223
-365
-539
-715
-850
-885
-870
-751
-566
-367
-204
-126
-104
-91
-79
-67
-57
-46
-32
-16
0
13
26
31
35
40
45
50
54
55
56
57
57
57
56
53
49
45
42
40
38
36
34
31
29
29
29
29
29
27
25
23
22
20
18
15
11
8
4
0
-4
-11
-23
-37
-49
-59
-70
-87
-109
-119
-125
-129
-132
-133
-134
-135
-133
-127
-119
-110
-101
-92
-82
-72
-63
-55
-48
-41
-36
-32
-29
-26
-23
-20
-17
-13
-9
-5
-1
3
9
15
24
35
48
60
72
84
95
108
118
122
117
105
94
86
78
70
62
58
58
64
73
83
91
96
103
112
120
126
126
119
108
96
85
77
67
55
43
36
35
42
52
64
75
84
97
111
122
124
119
109
98
82
60
47
40
32
26
21
20
28
40
53
64
78
91
97
93
84
71
52
27
12
8
5
3
0
-2
-4
-5
-6
-6
-6
-7
-8
-9
-10
-12
-14
-17
-20
-24
-30
-36
-42
-48
-53
-58
-65
-74
-83
-91
-94
-93
-90
-86
-82
-79
-75
-69
-62
-55
-52
-55
-62
-71
-79
-86
-95
-105
-117
-129
-139
-148
-156
-165
-178
-191
-199
-198
-188
-174
-162
-155
-149
-142
-135
-127
-120
-114
-109
-104
-97
-90
-82
-76
-69
-62
-54
-46
-39
-33
-27
-22
-15
-6
2
9
12
10
3
-4
-13
-22
-35
-45
-46
-38
-27
-16
-4
1
-7
-33
-104
-203
-334
-494
-671
-840
-947
-956
-893
-709
-464
-223
-46
-17
-12
-8
-6
-4
-1
1
4
8
12
16
20
23
26
31
36
43
50
57
65
70
71
67
60
51
39
20
-6
-9
-12
-15
-17
-18
-18
-18
-18
-17
-16
-12
-8
-4
-6
-14
-24
-30
-36
-42
-48
-55
-62
-71
-79
-86
-90
-95
-98
-103
-107
-112
-116
-120
-124
-128
-132
-135
-136
-135
-134
-132
-129
-125
-118
-111
-103
-95
-88
-79
-64
-46
-27
-8
1
8
13
18
21
24
26
26
25
26
27
29
31
32
33
33
34
36
38
39
39
40
40
42
44
50
56
62
65
64
62
58
54
50
46
42
38
35
32
32
35
42
51
63
75
88
106
122
130
136
139
141
143
144
144
145
146
146
144
142
140
137
136
134
132
129
127
125
124
125
126
128
130
131
132
134
135
137
138
138
139
139
139
139
139
139
139
139
139
139
139
138
137
136
135
135
134
133
133
131
130
128
125
122
119
116
113
110
108
107
106
105
105
103
101
98
94
90
86
83
79
76
72
69
65
60
54
41
28
15
3
-4
-13
-21
-28
-33
-34
-32
-27
-19
-9
1
16
42
56
62
68
73
76
76
69
61
56
52
48
45
42
41
41
44
50
59
69
81
93
110
125
133
130
121
108
85
45
1
-44
-93
-147
-247
-380
-538
-690
-788
-798
-741
-572
-354
-146
-1
37
51
55
48
35
29
25
22
19
17
15
14
12
11
11
13
16
19
22
25
31
36
36
25
13
6
1
-2
-5
-8
-11
-14
-18
-21
-23
-25
-27
-30
-32
-34
-36
-37
-38
-40
-43
-48
-54
-61
-78
-119
-138
-148
-156
-163
-167
-169
-170
-171
-172
-174
-176
-178
-180
-184
-192
-192
-182
-176
-172
-169
-166
-164
-161
-156
-149
-141
-133
-127
-120
-110
-98
-85
-69
-55
-44
-33
-22
-13
-5
-2
-2
-5
-8
-11
-15
-28
-24
16
32
34
36
36
36
35
33
33
32
31
28
26
24
21
18
16
15
14
13
12
11
10
9
9
8
8
8
9
10
12
14
16
18
19
19
19
18
16
15
14
13
12
13
13
11
3
-7
-17
-28
-36
-35
-22
-6
4
14
25
35
42
43
41
37
32
26
17
2
0
9
14
19
24
27
27
23
18
13
11
7
2
0
-2
-1
2
8
14
18
21
25
29
32
34
32
27
19
10
1
-6
-18
-30
-39
-40
-34
-24
-14
-5
4
14
20
20
13
4
-6
-14
-21
-28
-35
-41
-46
-50
-54
-57
-62
-67
-74
-80
-82
-76
-63
-48
-36
-24
-14
-4
4
12
19
24
29
33
38
42
47
50
54
57
60
61
63
64
65
65
65
65
66
68
70
72
72
69
62
53
39
12
-40
-132
-267
-444
-647
-828
-901
-889
-753
-524
-285
-96
-29
-6
-28
-53
-74
-73
-48
-13
24
36
40
43
45
47
50
53
57
61
64
66
67
66
63
59
54
48
42
35
29
23
18
14
11
10
8
7
4
1
-3
-8
-14
-20
-25
-29
-33
-35
-36
-37
-38
-40
-43
-48
-54
-62
-71
-80
-90
-100
-110
-118
-128
-138
-145
-148
-145
-138
-129
-121
-116
-113
-109
-106
-102
-98
-93
-89
-85
-80
-77
-73
-70
-67
-64
-60
-54
-42
-15
13
44
71
79
85
91
95
94
84
67
36
8
-1
-8
-12
-5
9
28
50
65
74
81
87
91
94
92
84
74
64
56
47
39
31
24
20
17
14
11
5
2
10
25
34
41
47
53
57
60
63
65
66
66
63
58
52
46
40
34
28
21
13
4
-2
-7
-7
-5
-2
2
8
16
27
45
58
67
73
80
85
89
89
81
69
58
52
47
43
39
34
28
23
19
16
16
16
16
18
21
24
27
31
34
35
36
38
40
44
48
51
51
44
35
26
20
15
9
4
-1
-6
-11
-17
-24
-32
-40
-48
-54
-61
-68
-74
-80
-84
-84
-83
-81
-77
-72
-66
-55
-34
-7
16
37
50
59
65
71
76
80
82
82
82
80
75
69
62
52
37
13
7
3
-1
-3
7
27
42
57
69
73
70
58
38
-23
-133
-285
-473
-674
-846
-919
-914
-811
-602
-343
-107
8
48
22
-54
-113
-133
-118
-76
-7
61
85
86
85
84
84
82
70
56
50
45
41
39
36
32
28
25
21
18
15
12
8
5
3
1
0
0
-1
-3
-7
-11
-16
-22
-27
-34
-40
-47
-53
-58
-61
-65
-68
-71
-74
-78
-83
-89
-95
-102
-108
-113
-118
-122
-127
-132
-140
-155
-168
-168
-155
-139
-125
-110
-99
-93
-87
-82
-78
-74
-71
-68
-63
-56
-47
-38
-30
-24
-17
-11
-4
1
6
10
11
13
16
18
20
22
23
24
26
30
33
36
38
37
35
33
32
29
25
20
14
9
5
2
0
-5
-12
-20
-26
-28
-27
-24
-22
-19
-18
-18
-16
-14
-10
-7
-4
-2
0
2
4
6
7
7
5
2
0
-3
-6
-9
-12
-15
-17
-19
-21
-21
-22
-26
-31
-38
-43
-47
-47
-44
-41
-38
-34
-31
-26
-20
-14
-9
-7
-8
-11
-15
-19
-23
-26
-30
-36
-41
-46
-49
-51
-52
-52
-51
-49
-46
-41
-35
-29
-25
-22
-21
-20
-20
-18
-17
-16
-15
-14
-13
-10
-7
-4
-2
-1
-1
0
0
0
0
0
0
2
5
9
15
21
28
44
91
128
149
161
164
165
166
167
169
170
168
159
149
145
141
138
136
134
133
132
132
131
130
128
126
125
125
125
123
121
117
113
108
101
59
-43
-180
-344
-518
-671
-747
-746
-663
-485
-286
-124
-21
26
52
70
86
99
113
129
129
113
97
80
79
89
97
104
109
110
103
91
80
75
72
70
67
63
59
56
53
50
47
43
39
36
33
30
27
24
20
16
13
9
5
0
-4
-9
-14
-19
-24
-30
-37
-45
-52
-60
-68
-77
-84
-90
-96
-102
-106
-110
-113
-116
-119
-122
-124
-126
-126
-126
-124
-120
-116
-111
-105
-99
-93
-85
-71
-44
-38
-34
-30
-28
-29
-28
-27
-26
-25
-23
-17
-8
0
10
19
27
33
38
44
47
48
45
40
37
34
32
29
26
22
21
22
27
33
39
43
46
50
54
58
60
60
57
52
47
42
37
34
29
24
21
19
18
17
18
18
17
17
17
18
19
19
19
19
20
21
23
25
26
26
25
24
24
23
24
25
27
29
34
43
46
42
39
36
34
32
35
41
48
54
62
67
59
43
32
23
14
8
7
14
25
38
50
65
79
85
81
71
59
48
32
24
28
36
40
43
47
50
50
46
38
29
20
12
5
-2
-9
-17
-22
-25
-28
-30
-33
-35
-39
-44
-48
-51
-46
-37
-28
-22
-18
-14
-11
-7
-2
3
9
15
19
22
26
30
34
38
41
43
47
51
55
60
65
68
70
71
72
71
70
67
63
59
54
49
44
32
4
-40
-111
-215
-354
-515
-672
-780
-793
-750
-591
-381
-184
-54
-24
-15
-28
-51
-50
-1
60
82
83
65
50
35
26
33
47
59
71
79
79
68
51
30
5
-4
-11
-18
-22
-20
-11
0
14
31
31
13
-1
-16
-23
-20
-14
-9
-4
-1
0
0
-5
-15
-31
-84
-132
-149
-155
-148
-131
-115
-97
-88
-84
-80
-77
-74
-73
-75
-81
-90
-98
-104
-112
-121
-129
-133
-131
-124
-114
-105
-98
-92
-86
-78
-71
-64
-58
-54
-51
-46
-39
-30
-11
21
37
47
55
61
65
64
62
59
56
53
47
49
69
85
99
109
110
105
95
80
52
21
-5
-26
-39
-20
10
45
63
73
80
85
85
81
74
65
57
51
46
41
36
32
30
28
26
24
22
22
23
25
26
26
27
29
32
35
38
39
38
36
34
31
26
19
17
24
28
32
37
41
43
45
47
48
50
50
48
45
41
37
34
31
27
23
18
14
5
-3
-7
-4
4
14
24
37
47
50
51
54
57
59
57
47
34
21
7
-3
-10
-15
-18
-20
-22
-24
-25
-25
-25
-24
-24
-25
-27
-30
-32
-33
-34
-36
-38
-42
-47
-51
-55
-60
-67
-76
-84
-89
-89
-85
-80
-72
-64
-48
-12
8
20
30
36
38
36
29
19
10
0
-17
-31
-33
-24
-13
-3
6
15
18
14
7
0
-6
-16
-21
-15
-4
8
23
22
-8
-88
-233
-432
-664
-877
-999
-1006
-924
-717
-480
-284
-203
-176
-183
-193
-200
-179
-113
-52
12
74
94
101
104
77
51
33
21
11
5
1
-2
-5
-8
-11
-12
-13
-13
-12
-11
-10
-8
-6
-4
-2
0
1
4
7
9
10
6
0
-10
-21
-34
-53
-65
-72
-76
-77
-78
-79
-80
-81
-83
-86
-88
-90
-92
-93
-95
-97
-100
-105
-118
-141
-153
-162
-161
-146
-132
-118
-108
-101
-93
-83
-83
-98
-109
-120
-126
-126
-116
-101
-76
-33
-12
-6
0
3
7
11
15
19
24
28
31
34
36
36
36
36
36
35
35
38
42
47
52
56
58
58
57
55
53
50
46
42
39
37
36
36
36
36
37
38
39
39
38
36
33
31
28
26
24
20
17
14
12
10
7
3
0
-1
-2
0
3
8
15
21
27
34
41
48
52
55
57
56
54
49
43
36
29
24
19
13
6
0
-3
-5
-2
1
6
10
15
20
26
31
36
39
41
42
43
43
42
40
35
28
20
11
-3
-28
-35
-39
-43
-46
-48
-48
-48
-45
-40
-33
-27
-20
-9
0
4
0
-15
-32
-50
-73
-87
-90
-93
-96
-99
-102
-104
-106
-106
-106
-105
-104
-100
-93
-85
-76
-66
-58
-51
-46
-41
-37
-33
-29
-26
-24
-21
-18
-15
-12
-10
-9
-7
-5
-3
-1
0
0
0
2
4
7
10
17
32
41
33
14
-13
-62
-161
-310
-506
-716
-886
-935
-916
-767
-539
-314
-186
-139
-134
-142
-156
-151
-88
-6
60
82
95
99
97
91
85
80
73
68
71
78
83
87
90
91
86
76
66
59
53
46
38
33
31
31
32
33
34
36
38
44
50
54
48
34
19
10
3
-3
-10
-17
-24
-31
-37
-42
-46
-49
-52
-54
-56
-58
-60
-64
-68
-73
-77
-80
-81
-78
-73
-65
-56
-48
-39
-29
-18
-7
1
7
12
15
18
20
24
27
30
33
37
42
50
59
67
75
81
87
93
100
107
113
119
125
130
136
140
142
142
140
136
133
129
126
122
117
112
107
102
96
89
83
77
73
69
68
70
74
81
89
100
110
120
132
151
166
168
166
164
162
161
161
161
162
163
161
158
155
153
151
150
148
145
142
140
138
138
138
138
138
137
136
136
136
135
133
130
126
121
115
110
104
97
87
77
68
61
55
50
46
43
39
36
34
32
29
25
21
16
12
8
4
1
-2
-6
-10
-15
-20
-25
-32
-38
-44
-50
-56
-62
-68
-73
-79
-84
-89
-95
-104
-120
-134
-142
-148
-152
-154
-156
-159
-161
-163
-164
-163
-162
-160
-157
-152
-146
-140
-134
-129
-126
-124
-123
-121
-120
-118
-116
-114
-112
-110
-108
-108
-109
-112
-115
-120
-124
-128
-133
-137
-143
-149
-155
-162
-178
-191
-191
-181
-164
-143
-121
-140
-193
-336
-546
-793
-1025
-1172
-1184
-1109
-885
-614
-386
-288
-261
-245
-227
-211
-196
-176
-149
-136
-144
-158
-165
-171
-178
-181
-182
-181
-181
-181
-181
-181
-180
-178
-175
-172
-169
-167
-165
-163
-160
-157
-153
-149
-146
-144
-143
-142
-144
-149
-155
-162
-170
-177
-183
-189
-197
-212
-223
-228
-231
-234
-237
-241
-245
-248
-250
-250
-249
-247
-242
-235
-225
-215
-205
-197
-189
-181
-173
-164
-155
-148
-142
-137
-133
-129
-124
-119
-113
-101
-78
-57
-37
-17
1
18
32
49
68
81
90
97
105
112
118
123
127
131
138
149
162
181
192
202
210
218
222
223
221
218
213
207
199
194
199
207
212
215
218
221
223
225
227
228
227
224
219
214
208
202
196
187
178
169
164
161
158
155
151
146
141
138
136
133
126
115
129
141
148
156
161
162
157
147
136
129
126
124
121
118
115
112
110
108
106
104
100
96
94
92
92
90
88
85
82
80
76
72
64
54
44
37
33
29
25
21
15
9
6
6
13
25
38
51
68
81
86
90
95
101
99
76
44
2
-23
-37
-47
-56
-63
-70
-79
-90
-96
-89
-71
-51
-25
5
23
34
43
50
59
67
73
78
84
91
102
113
124
134
141
146
152
158
166
173
180
190
210
245
269
282
293
304
313
321
331
340
344
340
332
317
269
201
101
-32
-191
-360
-514
-613
-622
-567
-414
-231
-66
32
68
85
99
115
139
175
212
231
244
253
253
243
225
194
172
168
166
164
162
161
159
157
155
153
150
147
145
143
141
139
137
133
128
122
115
109
102
95
87
78
69
57
45
33
23
13
3
-4
-11
-14
-14
-13
-13
-13
-13
-11
-7
0
-2
-24
-56
-102
-127
-138
-148
-155
-160
-162
-161
-156
-150
-142
-135
-129
-120
-110
-99
-85
-74
-70
-67
-64
-61
-58
-56
-53
-51
-49
-46
-44
-42
-41
-41
-41
-41
-40
-39
-37
-35
-33
-32
-31
-29
-27
-24
-23
-22
-21
-22
-23
-23
-22
-23
-24
-25
-26
-26
-25
-23
-21
-20
-22
-25
-28
-33
-39
-50
-51
-38
-32
-29
-26
-23
-20
-16
-13
-9
-6
-3
-2
0
0
-1
-2
-4
-5
-5
-5
-4
-4
-4
-4
-3
-2
-1
-1
-2
-3
-5
-7
-10
-12
-15
-19
-22
-25
-27
-29
-29
-29
-29
-28
-27
-26
-25
-25
-24
-25
-26
-28
-32
-35
-38
-40
-42
-44
-46
-47
-47
-47
-46
-45
-45
-45
-46
-47
-49
-52
-54
-56
-58
-62
-66
-72
-78
-83
-88
-94
-102
-111
-117
-119
-121
-122
-124
-128
-132
-134
-131
-121
-107
-89
-65
-46
-36
-27
-20
-14
-10
-9
-10
-11
-11
-12
-14
-18
-23
-29
-33
-38
-43
-56
-67
-67
-55
-36
-12
16
27
34
40
45
46
37
16
-46
-139
-284
-477
-692
-884
-978
-975
-861
-635
-390
-195
-113
-87
-103
-125
-142
-111
-56
-10
10
25
31
24
11
5
1
-1
-4
-7
-10
-13
-16
-17
-17
-16
-15
-12
-8
-3
0
2
4
5
6
9
13
15
14
7
-4
-18
-39
-70
-83
-92
-101
-107
-109
-104
-97
-92
-87
-81
-78
-78
-84
-93
-100
-103
-105
-109
-113
-117
-122
-127
-130
-133
-136
-139
-140
-140
-139
-136
-133
-130
-127
-124
-119
-113
-107
-101
-95
-89
-79
-53
-35
-23
-16
-11
-6
-2
0
3
5
5
4
3
3
2
2
2
1
0
-1
-2
-2
-2
-2
-2
-4
-5
-6
-6
-7
-9
-11
-14
-17
-19
-20
-20
-21
-23
-25
-26
-28
-29
-29
-29
-30
-31
-31
-30
-29
-28
-26
-25
-25
-25
-26
-26
-27
-29
-32
-35
-38
-40
-40
-41
-43
-48
-54
-58
-56
-43
-25
-9
1
13
26
37
44
45
40
31
22
13
6
-2
-12
-21
-28
-29
-26
-21
-15
-10
-5
0
9
16
21
22
21
17
14
12
10
8
4
1
-1
-3
-3
-2
0
0
1
2
3
6
8
9
9
6
0
-5
-11
-17
-28
-37
-38
-23
-3
9
21
32
41
49
57
64
70
75
81
94
114
120
123
126
128
129
130
131
132
133
133
132
132
131
130
128
126
123
120
118
115
111
108
104
91
58
2
-97
-238
-408
-573
-686
-696
-639
-462
-245
-61
15
37
49
56
62
67
72
77
81
85
88
90
91
92
96
101
106
111
113
114
116
119
124
128
129
125
118
111
103
96
86
76
67
62
64
69
76
84
94
108
117
108
92
84
78
72
67
62
56
49
42
34
26
16
7
-4
-22
-39
-52
-63
-72
-79
-86
-92
-99
-104
-107
-107
-104
-100
-95
-89
-82
-75
-64
-42
-19
-8
-4
0
4
8
13
17
21
25
28
32
35
38
41
43
46
49
54
60
66
72
78
84
91
97
102
107
112
120
127
133
134
127
115
103
92
79
68
63
66
75
84
92
100
108
114
115
111
104
96
88
83
76
70
65
61
59
58
57
58
60
63
67
71
75
77
80
83
88
92
96
98
99
101
101
101
99
97
93
89
85
81
77
71
66
62
59
57
56
55
53
52
51
50
49
44
38
35
39
49
60
69
81
90
89
78
63
50
35
21
11
4
0
-4
-8
-12
-16
-20
-23
-26
-29
-33
-38
-43
-48
-52
-56
-60
-65
-70
-75
-79
-82
-85
-92
-103
-102
-79
-61
-45
-30
-16
-3
8
24
32
31
27
24
21
18
15
14
12
11
9
7
4
2
0
0
-2
-5
-8
-13
-18
-22
-25
-31
-41
-80
-164
-281
-429
-591
-743
-841
-850
-794
-627
-406
-194
-44
1
16
-4
-28
-49
-50
-28
-9
9
19
11
-7
-31
-55
-58
-59
-60
-61
-62
-62
-62
-61
-59
-57
-56
-54
-52
-49
-47
-45
-45
-46
-48
-51
-55
-60
-67
-74
-83
-96
-120
-128
-132
-136
-139
-140
-141
-139
-135
-130
-124
-119
-113
-107
-103
-104
-110
-121
-135
-155
-185
-212
-232
-249
-261
-261
-254
-242
-224
-191
-159
-137
-122
-114
-108
-104
-100
-95
-87
-79
-71
-65
-61
-59
-56
-54
-51
-50
-49
-47
-45
-42
-38
-35
-33
-32
-32
-31
-29
-27
-24
-22
-19
-11
8
21
29
35
39
41
41
38
35
31
28
24
20
18
17
19
24
32
40
49
64
77
82
86
92
99
98
88
85
83
80
78
76
74
73
71
69
67
67
68
69
71
72
74
76
79
82
84
86
87
88
91
95
99
100
99
94
88
81
74
63
63
74
85
97
98
89
83
78
74
70
66
62
59
54
45
40
43
49
53
57
60
61
61
58
51
43
34
25
14
3
-5
-11
-15
-21
-33
-59
-79
-90
-97
-97
-88
-74
-60
-42
-24
-7
3
12
19
26
32
36
39
41
43
46
51
56
58
52
39
25
14
0
-12
-12
-5
4
18
36
51
60
66
71
74
76
76
73
67
59
29
-26
-118
-251
-422
-618
-803
-931
-950
-917
-761
-543
-317
-122
13
42
51
34
18
5
-1
-1
7
18
28
40
49
48
41
33
27
21
15
11
11
14
19
23
27
32
37
39
36
29
18
4
-14
-26
-30
-32
-33
-35
-36
-36
-37
-38
-40
-42
-44
-46
-47
-49
-51
-54
-58
-64
-69
-77
-91
-106
-121
-134
-144
-152
-160
-166
-170
-172
-173
-171
-167
-161
-154
-145
-123
-92
-84
-80
-77
-75
-74
-73
-71
-70
-68
-66
-64
-61
-56
-52
-46
-41
-35
-30
-25
-20
-14
-8
-2
3
9
14
19
24
27
30
31
31
29
27
25
22
19
16
13
10
8
6
4
0
-4
-9
-12
-12
-9
-5
-1
2
5
8
11
14
17
18
18
17
16
15
13
10
7
3
0
-4
-11
-17
-20
-17
-10
-2
3
8
13
17
20
22
24
25
25
23
20
17
15
12
10
9
8
6
4
3
1
0
-2
-5
-7
-8
-7
-5
-3
-1
-1
0
1
2
3
2
0
-4
-8
-11
-13
-15
-18
-21
-26
-30
-35
-41
-55
-72
-85
-92
-98
-103
-109
-117
-123
-123
-112
-95
-81
-68
-54
-40
-26
-9
17
48
55
58
61
62
63
62
59
53
46
40
36
31
26
22
18
15
13
12
12
13
15
19
24
28
34
45
45
22
-40
-121
-235
-388
-569
-738
-814
-805
-677
-442
-191
-7
30
20
-73
-133
-152
-130
-60
20
64
87
99
108
114
117
117
112
103
93
84
77
71
63
55
47
41
37
35
34
33
31
29
27
26
25
24
24
24
25
26
27
27
27
26
23
20
17
14
9
3
-3
-11
-20
-28
-37
-50
-65
-78
-84
-85
-86
-86
-86
-85
-85
-84
-84
-82
-75
-64
-52
-39
-23
-10
-8
-12
-17
-21
-26
-30
-33
-33
-26
-17
-8
-1
4
10
16
22
27
32
37
40
44
47
51
58
65
70
70
67
63
60
58
58
58
58
56
53
49
46
45
44
44
43
43
43
44
45
45
44
42
38
34
34
38
46
54
63
75
82
71
50
35
20
6
0
0
0
0
0
0
0
1
7
16
23
31
37
43
47
52
57
63
67
66
58
46
36
27
17
6
-4
-15
-26
-35
-39
-35
-24
-11
-1
10
20
27
32
36
42
48
51
45
35
28
22
16
8
0
-11
-19
-25
-30
-35
-40
-44
-47
-49
-51
-52
-53
-52
-51
-48
-45
-41
-37
-32
-28
-23
-15
-6
1
8
15
21
27
31
36
41
44
47
49
51
51
51
51
51
51
50
50
48
44
38
54
75
93
103
111
118
122
113
88
18
-87
-222
-374
-526
-654
-726
-729
-672
-526
-345
-179
-54
24
49
55
58
61
64
66
66
66
66
65
65
63
61
58
54
52
50
50
49
48
45
42
39
37
35
32
29
26
24
21
19
14
5
4
9
17
23
3
-9
-15
-19
-22
-23
-24
-26
-29
-33
-37
-40
-43
-46
-50
-54
-60
-66
-74
-91
-106
-120
-132
-144
-153
-153
-143
-131
-125
-121
-116
-112
-109
-106
-102
-98
-94
-90
-87
-83
-79
-75
-71
-63
-47
-32
-17
-8
-1
4
9
13
16
19
21
22
22
23
24
26
29
32
31
21
9
1
-4
-11
-17
-21
-22
-19
-13
-5
1
7
13
20
26
32
34
32
27
21
14
6
-1
-12
-25
-36
-46
-55
-67
-84
-84
-63
-30
6
23
34
41
44
43
37
29
22
17
12
8
4
0
-1
-2
-4
-5
-5
-5
-4
-1
1
4
7
12
20
27
28
21
13
5
-1
-6
-5
0
7
11
15
20
24
27
27
24
19
15
11
8
5
2
0
-5
-9
-13
-18
-22
-28
-33
-39
-44
-50
-55
-63
-72
-80
-84
-85
-81
-76
-69
-62
-52
-33
-19
-11
-6
-1
1
3
5
8
12
17
20
24
27
30
34
37
41
44
47
50
53
58
63
66
68
68
67
67
66
64
62
59
55
51
47
41
6
-92
-236
-416
-605
-759
-812
-798
-669
-448
-218
-36
55
89
91
81
70
59
64
97
117
130
142
150
157
160
163
166
169
172
175
178
184
187
176
159
149
143
137
133
131
128
124
120
116
112
108
104
100
95
90
84
77
70
63
57
52
46
41
35
30
24
19
13
7
0
-11
-32
-49
-58
-64
-69
-72
-74
-74
-71
-66
-59
-53
-45
-37
-34
-36
-42
-48
-52
-57
-63
-67
-69
-67
-61
-54
-46
-38
-29
-19
-9
0
12
36
70
91
105
111
106
94
80
63
52
44
37
32
30
33
39
47
50
53
55
57
60
63
66
68
69
69
68
67
66
64
62
61
60
60
60
60
59
57
55
54
53
53
52
50
48
45
43
41
40
40
38
36
32
29
24
13
6
17
37
50
62
73
81
86
85
80
72
61
42
12
-9
-23
-8
3
10
16
21
24
25
25
26
27
30
33
36
38
38
38
42
47
38
30
24
19
12
3
-4
-8
-12
-17
-21
-25
-29
-33
-37
-41
-46
-51
-55
-58
-61
-64
-70
-76
-82
-87
-89
-89
-88
-84
-79
-71
-57
-29
-15
-7
-1
2
4
5
3
0
-5
-10
-15
-20
-26
-34
-39
-41
-37
-28
-19
-10
-5
1
9
16
22
24
24
21
18
14
8
-17
-98
-233
-418
-630
-825
-956
-972
-920
-725
-469
-243
-128
-91
-99
-109
-116
-98
-66
-47
-44
-42
-41
-38
-34
-26
-15
0
21
38
46
50
53
55
58
61
64
66
67
67
67
67
66
65
63
61
58
55
52
50
48
45
41
36
32
28
24
19
15
11
6
2
-1
-5
-10
-17
-23
-28
-36
-66
-97
-106
-114
-118
-119
-114
-107
-99
-93
-84
-77
-76
-82
-91
-99
-109
-118
-117
-103
-86
-75
-66
-58
-51
-44
-39
-33
-29
-26
-24
-21
-18
-15
-12
-10
-8
-7
-8
-10
-12
-15
-18
-21
-24
-27
-31
-35
-39
-43
-46
-49
-50
-50
-49
-49
-49
-49
-49
-50
-50
-51
-52
-53
-54
-54
-55
-55
-56
-57
-57
-58
-58
-58
-59
-60
-61
-62
-63
-67
-71
-74
-70
-61
-52
-48
-45
-42
-40
-38
-36
-35
-33
-31
-30
-29
-29
-29
-29
-29
-30
-31
-30
-29
-28
-25
-23
-20
-18
-17
-15
-13
-11
-7
0
8
16
20
20
17
14
10
6
3
0
-4
-8
-12
-16
-20
-26
-32
-38
-45
-57
-67
-68
-64
-59
-55
-52
-49
-48
-48
-51
-57
-64
-70
-76
-83
-91
-97
-102
-103
-100
-94
-86
-76
-64
-44
-28
-14
-5
2
8
14
21
28
35
41
46
51
57
62
67
71
72
71
67
59
51
42
33
22
11
0
-6
-11
-18
-31
-64
-142
-259
-410
-570
-700
-735
-719
-604
-423
-240
-111
-60
-46
-37
-30
-26
-24
-22
-21
-20
-19
-17
-15
-13
-12
-10
-7
-5
-2
2
7
14
21
30
37
41
38
29
17
4
-6
-19
-32
-44
-57
-67
-72
-77
-81
-86
-89
-92
-93
-93
-94
-96
-99
-101
-103
-103
-102
-102
-103
-104
-106
-108
-110
-113
-117
-124
-130
-136
-141
-146
-151
-157
-164
-169
-170
-167
-161
-152
-142
-131
-114
-98
-82
-63
-42
-17
0
14
26
36
46
59
76
88
96
101
107
115
128
140
146
151
156
162
167
172
176
179
182
184
184
183
180
176
172
168
165
161
158
154
151
147
143
139
135
130
124
119
114
110
106
102
98
94
92
90
87
83
78
74
72
72
75
78
81
83
84
87
90
94
97
98
97
94
90
87
84
81
77
71
66
61
57
53
49
44
38
34
32
33
37
41
44
46
48
51
56
61
63
61
54
45
36
28
17
7
6
10
15
20
27
32
36
38
39
40
42
44
46
47
48
47
44
39
34
27
22
16
10
3
-2
-8
-14
-21
-28
-37
-46
-53
-54
-49
-41
-30
-15
5
15
20
25
30
35
43
51
59
66
74
81
87
89
86
78
67
57
46
28
19
27
40
48
53
59
63
66
68
69
70
71
74
79
85
53
-44
-204
-410
-628
-813
-904
-902
-795
-575
-323
-104
34
63
73
64
56
50
47
46
49
56
65
81
113
134
146
156
162
163
160
153
145
137
125
118
121
128
134
141
139
119
101
83
74
70
65
59
61
80
95
108
117
118
111
99
80
46
11
-10
-14
-17
-20
-21
-16
-6
2
12
18
11
-2
-15
-28
-41
-54
-76
-99
-110
-119
-118
-103
-89
-75
-63
-52
-36
-7
11
20
26
31
36
40
44
49
55
64
71
72
68
62
58
53
48
45
45
50
56
63
67
70
73
76
80
82
84
86
87
88
90
92
94
95
96
97
97
99
101
104
106
108
110
113
123
122
108
97
89
81
74
69
64
61
56
50
46
43
44
49
55
62
69
78
85
86
84
82
80
78
74
72
71
70
70
69
68
68
68
71
75
80
85
90
93
97
104
111
118
122
124
127
130
134
141
147
150
146
139
131
122
109
109
126
136
145
152
157
157
151
144
136
130
120
112
112
119
129
139
150
161
168
175
184
195
194
175
160
147
133
118
105
93
81
71
63
58
55
53
51
47
43
41
45
56
71
85
104
116
124
133
143
157
174
185
193
201
207
211
212
210
206
200
194
188
182
173
161
147
132
122
115
108
102
93
86
81
75
63
16
-90
-239
-416
-589
-721
-751
-730
-600
-405
-214
-99
-61
-70
-81
-88
-57
-21
8
11
-3
-15
-27
-34
-27
-11
6
26
27
9
-15
-53
-95
-132
-167
-201
-227
-248
-269
-295
-331
-371
-408
-436
-458
-476
-486
-492
-496
-501
-505
-509
-513
-517
-522
-530
-547
-580
-609
-628
-643
-653
-661
-671
-682
-696
-710
-726
-739
-750
-767
-797
-818
-830
-839
-846
-851
-854
-855
-857
-859
-863
-865
-866
-862
-851
-839
-829
-825
-821
-818
-814
-811
-808
-806
-803
-801
-798
-794
-792
-791
-791
-790
-789
-786
-784
-782
-780
-778
-776
-772
-768
-764
-760
-758
-756
-754
-752
-751
-749
-746
-744
-741
-738
-735
-733
-732
-732
-734
-735
-737
-738
-741
-744
-746
-748
-748
-748
-748
-749
-751
-753
-755
-755
-749
-741
-732
-721
-706
-697
-707
-725
-734
-740
-745
-750
-755
-760
-765
-772
-779
-786
-791
-795
-798
-801
-805
-810
-815
-821
-826
-832
-838
-845
-851
-857
-862
-866
-871
-876
-885
-901
-917
-935
-965
-994
-1004
-1010
-1016
-1020
-1022
-1019
-1008
-996
-983
-973
-963
-953
-942
-931
-922
-913
-905
-894
-879
-856
-835
-816
-793
-766
-741
-709
-666
-591
-495
-376
-244
-108
35
190
363
569
819
1102
1395
1674
1918
2104
2178
2205
2207
2199
2186
2195
2269
2367
2472
2537
2558
2535
2496
2445
2396
2363
2341
2325
2313
2301
2291
2280
2260
2228
2195
2160
2130
2107
2084
2054
2012
1966
1923
1891
1867
1842
1811
1772
1707
1635
1545
1434
1305
1169
1048
966
937
926
933
952
1006
1087
1179
1265
1292
1299
1303
1307
1309
1308
1300
1287
1266
1227
1197
1179
1161
1144
1118
1078
1048
1029
1012
998
975
937
895
852
824
809
798
787
777
766
750
726
702
670
627
581
535
490
442
412
396
384
371
358
344
328
309
290
271
247
220
194
180
172
167
162
157
151
143
134
126
117
108
97
80
52
36
25
20
16
11
7
3
0
-2
-4
-4
-4
-3
-1
2
7
13
20
27
35
46
72
99
122
142
164
187
224
270
338
405
479
524
563
591
612
622
628
634
637
640
642
643
644
641
637
630
621
609
597
578
543
514
486
457
423
404
393
383
375
369
364
358
353
349
346
342
337
330
319
295
268
249
236
223
209
194
178
159
134
113
95
78
60
41
22
3
-14
-34
-54
-73
-93
-116
-142
-160
-174
-185
-195
-205
-216
-226
-235
-242
-248
-254
-260
-266
-270
-274
-278
-280
-283
-285
-287
-289
-290
-291
-292
-294
-298
-302
-305
-305
-301
-290
-274
-255
-220
-166
-119
-73
-36
-10
3
9
13
17
20
21
21
21
19
14
8
1
-5
-13
-21
-31
-41
-50
-54
-54
-49
-42
-31
-17
7
56
91
114
132
146
156
162
168
173
180
187
193
202
219
280
349
428
514
602
696
793
883
964
1042
1086
1115
1135
1144
1133
1103
1017
897
756
617
526
495
529
633
833
1061
1252
1341
1371
1341
1290
1251
1239
1234
1230
1224
1213
1200
1183
1157
1120
1095
1075
1060
1044
1027
1008
990
971
952
931
907
884
861
837
808
770
722
673
628
586
545
505
466
447
437
429
423
420
420
424
430
437
445
451
460
470
477
478
470
457
443
431
416
401
387
374
361
345
326
309
294
279
265
251
235
218
199
179
159
139
113
90
95
98
100
101
101
101
100
100
98
96
93
91
90
90
89
87
78
67
57
51
47
43
39
35
32
30
27
24
20
16
12
8
5
3
1
0
-2
-4
-9
-17
-26
-36
-48
-60
-71
-82
-94
-105
-113
-119
-122
-124
-127
-131
-135
-138
-142
-146
-150
-155
-159
-161
-161
-161
-160
-159
-158
-158
-158
-158
-161
-166
-172
-180
-189
-197
-208
-222
-238
-252
-264
-271
-276
-280
-284
-287
-291
-295
-300
-304
-309
-314
-318
-321
-323
-324
-325
-326
-326
-326
-326
-327
-328
-330
-333
-335
-339
-342
-347
-353
-359
-367
-376
-385
-393
-402
-410
-418
-425
-432
-437
-442
-447
-452
-456
-461
-465
-470
-476
-482
-488
-494
-499
-505
-512
-521
-535
-563
-588
-608
-624
-640
-652
-659
-654
-640
-621
-595
-557
-521
-503
-493
-484
-476
-468
-460
-450
-440
-430
-420
-412
-403
-395
-389
-383
-377
-369
-360
-351
-342
-335
-332
-330
-330
-331
-332
-337
-343
-350
-358
-368
-379
-426
-527
-659
-821
-983
-1067
-1095
-1044
-892
-674
-463
-313
-215
-171
-149
-135
-125
-122
-128
-138
-147
-157
-166
-170
-164
-151
-140
-132
-125
-117
-109
-103
-101
-106
-116
-129
-143
-154
-166
-179
-192
-205
-217
-227
-236
-243
-248
-253
-257
-260
-263
-266
-270
-275
-280
-285
-290
-295
-300
-306
-312
-319
-328
-338
-356
-377
-394
-410
-425
-441
-458
-475
-491
-508
-521
-529
-536
-543
-549
-555
-560
-564
-567
-568
-568
-567
-563
-556
-547
-536
-525
-514
-504
-495
-487
-477
-467
-456
-446
-436
-427
-418
-411
-406
-401
-397
-395
-394
-393
-392
-392
-391
-391
-390
-390
-389
-387
-385
-383
-381
-380
-380
-381
-384
-388
-394
-400
-405
-411
-417
-422
-427
-431
-435
-438
-442
-448
-454
-459
-463
-464
-462
-457
-452
-444
-434
-423
-411
-394
-376
-365
-362
-363
-366
-371
-383
-397
-363
-258
-105
77
