-311
-377
-442
-504
-546
-561
-568
-570
-566
-559
-551
-543
-535
-526
-513
-501
-494
-490
-488
-485
-483
-481
-481
-480
-479
-477
-474
-472
-471
-470
-470
-469
-467
-466
-463
-460
-454
-440
-426
-412
-398
-385
-372
-360
-350
-342
-336
-330
-325
-320
-314
-305
-291
-273
-261
-252
-245
-237
-230
-223
-214
-203
-190
-176
-164
-153
-144
-140
-138
-136
-135
-134
-133
-132
-132
-131
-131
-131
-132
-134
-138
-143
-149
-155
-160
-164
-168
-173
-177
-181
-184
-187
-190
-192
-194
-196
-197
-197
-195
-193
-191
-188
-185
-181
-178
-175
-172
-169
-166
-164
-162
-159
-157
-155
-152
-149
-147
-145
-144
-144
-143
-142
-142
-141
-141
-141
-141
-141
-142
-143
-143
-144
-145
-147
-148
-150
-151
-152
-153
-153
-152
-152
-151
-151
-149
-148
-147
-145
-143
-142
-140
-139
-137
-135
-132
-129
-125
-120
-115
-111
-106
-100
-95
-89
-82
-74
-62
-52
-47
-43
-39
-36
-33
-31
-30
-29
-31
-36
-43
-52
-62
-74
-92
-104
-112
-117
-120
-123
-125
-127
-129
-130
-131
-131
-129
-126
-122
-119
-115
-111
-108
-102
-96
-94
-98
-106
-114
-122
-133
-140
-140
-129
-107
-44
63
217
433
688
962
1181
1296
1373
1365
1245
1069
832
557
285
52
-128
-253
-322
-345
-330
-305
-276
-264
-260
-258
-256
-255
-253
-251
-249
-248
-247
-248
-247
-247
-246
-244
-242
-242
-242
-241
-240
-238
-235
-223
-207
-199
-193
-195
-197
-199
-187
-172
-158
-157
-166
-179
-173
-152
-143
-137
-132
-124
-116
-108
-99
-87
-70
-56
-47
-39
-31
-23
-15
-8
0
9
17
26
35
46
55
60
63
67
71
74
76
78
78
79
78
77
75
72
69
64
60
55
50
44
37
31
26
21
16
10
5
1
-1
-5
-8
-11
-15
-19
-22
-24
-24
-24
-22
-20
-18
-15
-13
-11
-9
-7
-6
-4
-3
-1
0
3
7
10
13
16
17
17
16
13
11
8
6
3
1
-1
-2
-4
-5
-5
-7
-8
-11
-13
-15
-16
-17
-17
-18
-17
-17
-16
-15
-14
-13
-12
-11
-9
-7
-4
-2
0
2
5
8
11
15
18
23
29
34
38
41
43
44
43
41
37
31
25
18
11
1
-10
-22
-35
-45
-55
-63
-69
-72
-75
-77
-79
-83
-88
-90
-86
-77
-72
-69
-67
-64
-62
-62
-63
-65
-68
-73
-79
-88
-100
-107
-102
-91
-63
4
117
290
521
772
1004
1184
1282
1288
1222
1080
865
607
338
91
-115
-268
-340
-364
-343
-276
-235
-213
-199
-190
-184
-181
-179
-173
-167
-171
-175
-177
-180
-184
-187
-189
-193
-199
-179
-162
-150
-141
-136
-134
-132
-131
-130
-129
-128
-125
-123
-121
-117
-114
-110
-108
-107
-105
-103
-100
-96
-93
-88
-83
-78
-71
-62
-50
-39
-30
-20
-9
2
9
15
19
24
28
31
35
39
43
47
51
55
61
67
73
79
84
89
93
97
100
104
107
109
111
113
114
113
110
105
101
96
91
87
83
79
75
71
68
64
62
59
57
56
56
56
56
57
58
59
61
62
64
65
67
68
70
71
73
74
76
77
79
80
81
81
82
81
79
77
73
69
64
60
55
52
49
47
45
42
39
37
35
34
33
31
29
28
26
26
26
27
29
32
35
39
43
47
50
53
56
59
62
66
70
74
79
83
87
90
92
92
91
89
86
82
78
72
67
58
40
21
9
1
-4
-10
-14
-17
-18
-19
-20
-20
-21
-21
-21
-21
-21
-21
-22
-23
-24
-26
-27
-28
-29
-30
-33
-35
-39
-45
-57
-58
-46
-13
59
175
346
575
849
1132
1388
1573
1656
1538
1243
795
323
-88
-360
-445
-396
-309
-207
-160
-144
-158
-172
-184
-190
-184
-174
-168
-162
-157
-154
-151
-147
-144
-140
-137
-135
-134
-134
-134
-133
-132
-131
-128
-126
-124
-122
-119
-116
-114
-113
-111
-108
-103
-96
-87
-76
-65
-59
-54
-49
-46
-43
-41
-39
-36
-33
-29
-27
-25
-23
-20
-16
-13
-8
-1
13
27
38
45
50
54
58
62
66
71
75
79
83
88
93
98
102
106
108
110
110
111
111
111
111
114
115
106
90
83
78
74
69
66
62
58
55
54
54
54
56
57
59
61
64
66
68
70
71
71
72
73
74
75
77
79
81
82
83
83
83
82
80
78
76
73
71
69
67
65
62
60
58
55
52
47
42
37
33
30
28
27
26
25
24
23
23
22
21
20
18
16
14
14
15
15
17
19
21
25
30
34
38
42
45
49
54
59
63
64
63
59
54
49
43
38
31
22
13
5
-2
-10
-18
-27
-36
-45
-54
-61
-65
-69
-72
-75
-77
-80
-82
-85
-87
-90
-93
-95
-96
-97
-98
-100
-102
-105
-112
-118
-118
-112
-100
-67
-4
99
256
472
748
1056
1369
1622
1716
1694
1487
1081
592
135
-199
-387
-435
-426
-332
-244
-203
-191
-201
-233
-255
-263
-262
-246
-231
-220
-211
-204
-199
-197
-195
-193
-190
-188
-187
-185
-184
-183
-182
-181
-180
-178
-177
-175
-173
-170
-168
-164
-160
-154
-147
-140
-135
-130
-126
-122
-118
-115
-111
-107
-103
-98
-92
-87
-81
-73
-64
-54
-44
-37
-31
-26
-21
-16
-11
-6
-2
1
6
12
20
29
39
48
52
55
57
59
61
62
63
64
65
65
66
67
67
67
67
66
65
64
63
62
61
61
60
60
60
60
60
61
61
62
63
64
64
65
65
65
66
67
68
70
72
75
78
81
84
86
87
88
89
90
92
94
96
97
97
93
87
81
77
72
68
63
59
56
52
49
46
43
40
39
38
37
36
34
31
29
27
25
23
21
19
19
19
20
21
23
24
26
29
32
35
39
42
45
51
66
75
80
84
88
91
92
91
87
80
71
57
46
34
22
6
-5
-14
-21
-29
-36
-41
-45
-47
-49
-51
-52
-53
-54
-55
-56
-58
-60
-62
-64
-66
-67
-68
-69
-71
-73
-76
-82
-88
-87
-80
-68
-34
53
198
407
681
999
1328
1617
1771
1774
1639
1277
835
358
-42
-299
-387
-391
-325
-207
-121
-111
-140
-204
-233
-243
-247
-247
-240
-231
-224
-217
-211
-207
-203
-200
-197
-193
-190
-186
-182
-177
-173
-168
-161
-156
-152
-149
-147
-146
-145
-143
-141
-140
-139
-137
-135
-133
-130
-127
-124
-120
-114
-107
-99
-90
-78
-64
-53
-44
-36
-26
-14
-4
3
10
17
23
29
39
52
63
73
79
86
94
101
105
108
112
114
117
118
120
120
120
120
119
118
116
113
111
108
105
99
94
87
80
75
70
66
62
59
56
54
53
51
50
49
49
49
49
49
49
49
49
49
49
49
48
47
46
45
45
45
45
45
44
44
43
42
39
35
32
31
30
30
30
30
31
32
32
29
26
25
24
22
21
19
18
17
16
15
15
15
16
17
19
22
24
27
29
31
34
38
42
46
49
50
52
53
55
56
57
57
56
55
53
51
47
43
38
29
21
14
4
-10
-25
-40
-54
-63
-65
-67
-68
-69
-70
-70
-69
-68
-67
-66
-66
-65
-64
-63
-62
-62
-62
-64
-67
-70
-74
-81
-82
-72
-43
23
141
322
569
862
1163
1426
1591
1639
1473
1131
680
180
-211
-436
-482
-411
-287
-175
-117
-113
-135
-151
-157
-161
-163
-165
-166
-167
-168
-167
-167
-166
-164
-162
-159
-156
-154
-151
-149
-145
-142
-138
-134
-131
-129
-127
-124
-122
-120
-118
-116
-114
-112
-110
-107
-105
-102
-99
-96
-93
-90
-86
-81
-73
-66
-58
-52
-47
-42
-37
-32
-28
-22
-15
-8
-1
2
5
7
9
11
14
16
18
21
25
31
41
50
60
70
81
92
102
103
104
105
106
105
99
92
86
81
77
73
70
68
66
64
62
61
60
58
57
56
55
56
56
58
59
60
61
62
63
64
66
67
68
68
68
68
68
68
68
67
67
66
66
66
66
65
63
61
58
55
52
47
38
35
33
33
32
32
31
29
28
27
26
26
26
26
26
27
28
29
31
32
34
36
39
41
48
63
72
77
81
83
84
85
87
89
90
87
81
75
69
63
58
49
35
24
16
8
2
-1
-5
-12
-19
-25
-32
-37
-42
-45
-48
-53
-58
-61
-63
-65
-66
-68
-68
-69
-68
-68
-67
-66
-65
-64
-62
-60
-56
-46
6
103
252
460
730
1033
1331
1567
1676
1629
1384
1000
560
146
-160
-324
-366
-337
-270
-221
-195
-186
-183
-181
-179
-178
-179
-180
-181
-182
-182
-183
-181
-177
-173
-170
-167
-164
-161
-156
-151
-146
-142
-138
-135
-133
-130
-128
-126
-124
-123
-121
-119
-118
-116
-114
-112
-110
-108
-106
-104
-101
-97
-93
-88
-82
-74
-63
-56
-49
-43
-34
-23
-9
1
8
13
17
19
20
21
21
22
23
24
25
26
27
28
30
33
37
53
69
77
83
88
91
94
98
100
100
95
89
83
77
70
64
59
56
53
51
49
47
45
44
44
45
45
46
46
46
47
48
50
51
53
55
56
58
61
63
65
67
69
71
74
76
77
78
76
72
67
62
57
50
44
39
34
32
29
27
26
24
23
22
21
21
21
23
24
26
28
30
33
35
38
40
43
46
48
50
52
54
55
56
56
56
56
56
56
56
56
57
57
57
57
57
56
51
44
33
17
4
-10
-25
-40
-50
-56
-63
-69
-72
-74
-76
-78
-79
-79
-80
-81
-81
-81
-81
-80
-79
-77
-76
-74
-71
-70
-74
-80
-84
-69
-27
58
201
412
693
1028
1356
1632
1784
1759
1547
1178
730
293
-41
-238
-298
-304
-272
-214
-190
-184
-181
-178
-176
-175
-173
-171
-169
-167
-165
-164
-163
-162
-161
-159
-157
-155
-153
-150
-148
-145
-142
-138
-135
-133
-131
-129
-127
-125
-123
-121
-119
-117
-115
-113
-111
-109
-106
-100
-89
-78
-69
-61
-53
-46
-39
-32
-27
-23
-21
-19
-17
-14
-11
-7
-2
5
16
26
33
37
41
45
48
52
59
75
84
87
91
93
96
97
98
99
99
98
97
96
94
91
88
85
82
77
68
64
63
62
61
61
61
60
60
60
60
60
61
62
63
64
65
66
66
67
68
69
69
69
70
70
70
71
71
71
70
70
69
68
68
67
65
64
62
60
59
58
56
52
48
45
43
41
39
36
34
33
34
35
35
36
36
37
38
39
40
42
44
46
48
50
53
61
76
84
88
91
93
93
91
87
82
77
69
62
56
48
39
31
20
5
-8
-18
-28
-40
-54
-61
-63
-64
-65
-66
-66
-66
-67
-68
-69
-71
-73
-74
-75
-76
-77
-79
-81
-84
-90
-101
-104
-106
-109
-93
-44
55
215
438
725
1058
1386
1660
1805
1765
1518
1107
636
213
-102
-287
-345
-352
-330
-294
-280
-272
-262
-249
-237
-229
-219
-211
-203
-200
-199
-199
-198
-197
-196
-196
-197
-198
-199
-200
-200
-201
-202
-203
-203
-202
-199
-194
-187
-173
-162
-157
-152
-147
-143
-138
-135
-133
-130
-127
-123
-118
-112
-106
-99
-89
-81
-75
-71
-66
-60
-55
-51
-46
-41
-36
-30
-20
-6
3
9
16
24
32
43
56
63
67
70
73
75
77
79
80
81
82
82
83
84
85
87
89
88
84
77
70
63
58
54
52
50
48
46
44
44
43
43
43
44
46
48
50
53
55
57
59
63
68
72
73
73
73
74
74
74
74
74
73
72
72
72
72
71
72
72
64
59
57
54
52
51
50
49
50
51
53
55
58
62
65
69
73
76
78
79
79
79
79
79
80
81
81
81
80
78
76
74
72
70
68
65
62
60
56
50
36
21
7
-6
-20
-31
-38
-44
-50
-56
-62
-67
-71
-74
-77
-79
-81
-81
-81
-80
-78
-77
-76
-74
-74
-75
-77
-81
-86
-93
-86
-65
-16
67
197
382
628
911
1198
1423
1551
1521
1269
871
421
-54
-378
-493
-497
-406
-259
-149
-102
-130
-167
-187
-208
-211
-203
-199
-196
-194
-192
-190
-188
-186
-180
-172
-167
-162
-159
-157
-158
-160
-162
-163
-165
-166
-164
-159
-155
-152
-150
-147
-145
-142
-140
-137
-135
-133
-130
-128
-125
-121
-116
-113
-109
-106
-101
-94
-86
-76
-61
-53
-49
-46
-45
-43
-41
-40
-39
-38
-37
-35
-30
-18
-3
10
20
26
32
38
46
55
64
69
72
75
77
79
80
79
78
75
72
68
64
60
55
50
47
45
44
43
42
41
40
39
38
38
38
38
38
39
39
40
41
42
44
45
46
47
48
49
50
51
52
52
53
53
52
51
48
46
43
39
37
33
28
23
20
19
22
25
29
31
32
34
36
39
41
43
45
47
49
50
52
53
55
56
58
60
62
64
65
66
67
67
65
63
61
57
53
44
26
11
-6
-16
-21
-25
-28
-30
-33
-35
-37
-38
-40
-41
-42
-44
-45
-47
-49
-51
-52
-54
-56
-58
-61
-64
-68
-76
-88
-90
-92
-93
-77
-28
60
200
398
654
941
1228
1461
1552
1532
1334
925
472
55
-242
-360
-374
-330
-244
-191
-174
-181
-195
-169
-164
-161
-159
-156
-154
-153
-151
-149
-147
-145
-143
-141
-139
-138
-137
-135
-134
-132
-130
-128
-125
-123
-121
-118
-116
-114
-113
-112
-110
-109
-108
-107
-105
-102
-96
-88
-79
-73
-70
-66
-64
-61
-58
-55
-53
-51
-49
-47
-43
-37
-25
-14
-6
-1
3
9
14
18
23
27
31
35
41
47
52
58
66
73
78
83
90
98
101
102
103
104
105
105
101
95
90
85
80
75
71
68
66
65
65
65
65
64
64
64
64
64
65
65
65
66
66
68
69
70
72
73
74
74
75
74
74
72
69
66
63
61
59
58
58
57
56
55
55
54
54
53
52
50
50
49
49
49
49
49
49
50
51
52
53
53
53
54
55
55
56
56
57
58
59
61
64
66
67
65
61
55
45
27
13
2
-8
-18
-28
-40
-48
-54
-58
-62
-66
-69
-70
-72
-73
-74
-76
-77
-79
-81
-82
-84
-86
-87
-89
-91
-93
-97
-105
-108
-102
-88
-47
41
179
372
622
919
1220
1487
1643
1654
1552
1256
846
406
29
-228
-333
-346
-309
-241
-216
-213
-209
-207
-205
-203
-202
-201
-199
-197
-195
-194
-193
-193
-192
-191
-189
-187
-185
-180
-175
-169
-164
-161
-159
-157
-156
-154
-153
-151
-149
-147
-145
-142
-140
-137
-134
-130
-125
-118
-110
-103
-98
-93
-88
-83
-79
-75
-70
-66
-61
-58
-54
-51
-48
-44
-42
-40
-38
-36
-33
-30
-24
-16
-7
0
8
15
22
28
33
38
43
47
50
53
56
59
61
62
62
59
55
50
46
43
39
36
33
30
29
28
29
31
33
35
37
38
40
42
45
47
50
52
54
57
59
62
64
66
67
69
72
75
77
79
81
82
83
83
82
81
80
78
76
74
71
67
58
52
47
43
41
45
53
58
62
66
71
74
77
81
85
90
95
100
105
111
117
120
117
111
103
89
80
75
72
70
67
64
61
56
49
40
28
15
3
-10
-21
-27
-30
-33
-36
-38
-40
-42
-43
-44
-46
-48
-50
-53
-55
-58
-62
-67
-72
-77
-82
-87
-93
-97
-94
-84
-57
3
103
261
483
773
1102
1421
1682
1821
1780
1558
1186
741
316
-6
-205
-274
-282
-250
-202
-183
-177
-188
-199
-208
-212
-209
-202
-194
-185
-181
-179
-177
-177
-176
-175
-174
-171
-167
-163
-159
-157
-155
-154
-152
-150
-148
-146
-144
-142
-140
-138
-137
-135
-132
-128
-118
-109
-102
-96
-90
-84
-79
-75
-71
-67
-63
-59
-53
-44
-35
-29
-24
-20
-16
-13
-9
-4
3
11
19
27
38
45
49
53
57
60
62
65
70
76
84
89
92
95
96
97
97
96
94
92
90
86
83
77
71
64
61
59
56
54
52
51
50
50
50
51
53
55
57
60
63
66
68
71
75
78
80
80
79
77
75
72
71
70
69
68
67
66
65
63
62
60
59
58
57
57
56
56
57
58
60
62
63
64
65
65
66
67
68
69
69
70
72
74
76
77
78
79
80
80
80
79
77
74
72
69
65
58
44
35
29
21
12
0
-11
-20
-29
-36
-41
-46
-51
-56
-62
-68
-73
-77
-80
-83
-85
-87
-88
-87
-86
-85
-83
-81
-77
-78
-84
-92
-99
-93
-73
-18
81
246
479
781
1113
1430
1670
1753
1723
1464
988
495
55
-250
-365
-374
-309
-213
-164
-148
-160
-183
-189
-174
-188
-192
-194
-196
-196
-195
-193
-192
-191
-189
-188
-187
-185
-184
-182
-181
-180
-179
-177
-175
-172
-168
-164
-159
-154
-151
-147
-143
-139
-134
-127
-118
-109
-105
-102
-100
-98
-96
-94
-93
-91
-89
-87
-82
-69
-58
-49
-40
-34
-29
-25
-22
-18
-15
-11
-5
0
6
16
29
39
51
63
71
78
85
91
96
99
102
104
106
106
104
101
98
95
93
91
89
87
84
82
81
80
78
76
74
68
65
62
59
56
53
54
56
58
60
61
62
62
61
60
58
57
54
52
55
61
65
68
71
73
74
73
70
67
64
58
49
41
36
32
28
26
26
26
28
29
31
32
33
34
35
37
39
40
42
44
47
53
65
76
84
86
87
88
90
91
90
87
80
70
55
42
30
19
6
-5
-14
-24
-33
-40
-46
-51
-54
-56
-58
-59
-60
-62
-64
-66
-67
-69
-71
-73
-76
-80
-82
-85
-88
-91
-96
-100
-106
-113
-119
-112
-92
-35
58
200
401
662
951
1237
1463
1510
1408
1192
788
418
131
-47
-113
-136
-142
-156
-208
-242
-255
-254
-241
-227
-212
-203
-197
-192
-189
-187
-186
-187
-190
-192
-195
-201
-201
-193
-186
-178
-171
-168
-166
-164
-162
-161
-160
-158
-156
-155
-154
-152
-150
-148
-144
-135
-129
-125
-122
-119
-115
-111
-107
-103
-99
-95
-90
-84
-79
-73
-68
-63
-59
-55
-53
-50
-46
-41
-35
-30
-22
-10
1
14
24
32
42
52
59
67
74
82
89
95
99
101
102
103
104
105
105
105
103
99
95
90
86
83
80
77
73
70
68
66
65
64
64
64
64
65
66
68
69
70
72
73
75
76
77
77
78
77
77
75
74
71
68
66
63
61
59
58
57
56
55
54
52
50
49
47
46
46
45
45
45
45
45
46
46
46
45
44
42
42
45
50
56
59
62
65
69
71
73
73
72
70
67
64
59
53
43
34
27
17
1
-14
-33
-49
-60
-66
-68
-68
-69
-70
-70
-70
-70
-70
-71
-72
-73
-74
-74
-74
-75
-75
-76
-77
-79
-83
-91
-92
-85
-67
-7
98
260
485
765
1061
1342
1546
1610
1465
1217
840
420
49
-204
-346
-397
-398
-350
-301
-254
-208
-186
-178
-185
-190
-193
-196
-197
-197
-196
-192
-189
-185
-182
-178
-175
-172
-168
-164
-161
-160
-159
-158
-157
-155
-154
-153
-151
-150
-148
-146
-144
-142
-140
-137
-133
-124
-114
-104
-98
-94
-90
-87
-84
-81
-79
-77
-76
-75
-73
-71
-69
-65
-61
-57
-52
-48
-44
-40
-36
-31
-25
-17
-5
3
11
20
30
40
50
59
68
75
79
82
85
88
90
90
88
83
78
74
70
68
65
63
61
60
59
58
57
55
53
50
51
55
60
63
65
66
68
70
71
74
76
78
79
80
81
82
83
84
85
86
88
90
92
93
93
91
87
84
81
79
77
75
73
70
68
66
65
64
62
61
60
61
62
63
65
67
69
71
74
77
80
84
89
103
107
109
110
112
114
113
109
100
87
69
58
49
40
26
12
0
-16
-25
-29
-32
-34
-36
-37
-39
-41
-42
-43
-44
-46
-47
-49
-51
-53
-56
-59
-62
-65
-68
-72
-80
-91
-97
-107
-107
-87
-29
75
243
477
777
1114
1437
1690
1803
1731
1479
1094
659
261
-34
-209
-276
-286
-272
-240
-222
-213
-208
-205
-202
-198
-194
-191
-188
-185
-183
-181
-179
-178
-176
-175
-173
-171
-169
-168
-167
-166
-166
-165
-164
-163
-162
-161
-158
-156
-153
-150
-148
-146
-143
-140
-135
-126
-117
-108
-99
-89
-83
-79
-76
-73
-69
-67
-64
-61
-56
-47
-36
-24
-13
-5
-1
1
3
4
6
9
11
13
16
20
27
38
47
52
55
57
60
62
65
68
70
72
75
77
80
83
85
85
83
80
77
73
66
57
53
50
48
45
43
42
42
42
42
43
45
46
47
49
51
53
55
57
60
63
65
66
68
69
71
73
74
75
76
76
76
75
74
72
69
66
63
60
54
42
38
36
34
32
31
33
36
40
43
45
47
50
52
55
57
59
61
64
68
77
89
93
96
98
98
97
94
89
79
65
51
38
29
24
17
10
0
-12
-23
-31
-38
-45
-52
-58
-61
-62
-64
-65
-66
-67
-68
-69
-70
-71
-73
-74
-75
-76
-77
-80
-84
-89
-95
-102
-110
-110
-94
-50
47
205
429
719
1050
1374
1640
1776
1729
1510
1151
723
313
-5
-209
-292
-306
-296
-267
-250
-223
-210
-206
-204
-208
-216
-224
-231
-235
-232
-226
-216
-202
-188
-175
-168
-163
-161
-164
-169
-172
-174
-177
-179
-180
-180
-178
-175
-171
-166
-161
-154
-147
-142
-137
-132
-127
-122
-117
-112
-108
-104
-101
-97
-94
-91
-87
-81
-72
-65
-59
-54
-47
-39
-34
-29
-25
-21
-18
-15
-11
-5
2
9
18
31
43
51
57
62
66
71
78
87
95
95
95
95
95
92
84
77
69
63
59
57
56
55
54
53
53
53
53
53
52
53
53
54
54
54
54
54
54
54
55
55
54
55
55
56
56
56
56
56
55
55
55
54
54
53
52
52
51
50
49
47
45
44
42
40
37
34
34
36
38
42
44
47
50
52
54
53
52
50
49
47
44
41
42
48
56
63
70
76
78
79
80
81
82
81
73
67
62
56
50
44
31
13
-4
-20
-35
-48
-60
-74
-84
-90
-93
-93
-89
-83
-80
-77
-74
-72
-71
-70
-70
-71
-72
-73
-76
-79
-88
-99
-106
-110
-97
-55
33
180
395
675
995
1309
1564
1694
1654
1426
1073
668
273
-32
-221
-293
-317
-309
-288
-265
-236
-214
-209
-205
-203
-202
-200
-198
-196
-194
-193
-192
-191
-189
-187
-185
-182
-179
-177
-173
-170
-166
-162
-158
-154
-151
-148
-145
-143
-140
-138
-136
-133
-130
-127
-123
-118
-113
-108
-103
-100
-97
-94
-91
-89
-86
-83
-79
-75
-67
-56
-48
-42
-39
-36
-32
-28
-23
-17
-11
-6
0
6
14
26
36
44
51
57
63
72
88
96
100
103
105
107
109
109
110
109
109
107
105
102
99
96
92
89
87
84
82
80
78
76
74
72
70
69
68
67
67
67
68
70
71
73
75
77
79
80
82
84
85
87
91
94
96
94
90
84
75
64
55
50
47
44
41
40
39
40
42
45
48
50
51
53
56
58
61
64
66
68
70
72
75
79
84
94
98
100
102
104
105
105
100
92
82
69
56
44
31
17
4
-9
-20
-29
-37
-44
-49
-52
-53
-55
-56
-56
-57
-58
-58
-60
-61
-63
-64
-65
-66
-67
-68
-70
-72
-75
-80
-92
-93
-89
-74
-19
79
240
466
758
1077
1380
1605
1679
1578
1304
915
497
129
-126
-271
-324
-329
-304
-271
-250
-227
-207
-194
-184
-179
-177
-175
-173
-172
-171
-170
-169
-167
-166
-164
-162
-161
-160
-159
-158
-156
-155
-153
-150
-148
-145
-142
-139
-136
-133
-130
-127
-123
-119
-114
-110
-106
-102
-98
-95
-92
-89
-87
-85
-83
-81
-80
-78
-76
-74
-73
-71
-69
-67
-64
-58
-46
-36
-25
-14
-2
8
20
32
41
48
53
58
63
68
75
85
94
99
103
106
108
107
104
100
95
91
85
79
74
70
66
64
63
61
60
59
59
59
59
58
58
57
57
57
56
55
54
53
53
52
52
52
52
51
51
51
51
50
49
48
47
46
45
45
44
44
44
45
45
46
47
47
48
49
50
52
54
56
61
62
56
52
49
46
45
45
47
51
56
59
63
68
70
71
68
63
57
50
39
32
26
18
10
0
-12
-27
-38
-45
-51
-56
-59
-61
-62
-64
-65
-66
-67
-68
-70
-72
-75
-77
-79
-80
-82
-85
-88
-89
-90
-89
-86
-81
-74
-47
35
172
369
627
918
1204
1433
1493
1425
1218
898
496
117
-179
-384
-492
-518
-464
-382
-286
-202
-172
-162
-163
-166
-170
-174
-176
-174
-168
-159
-145
-139
-137
-135
-133
-131
-129
-127
-125
-124
-123
-123
-122
-122
-122
-123
-123
-123
-122
-121
-120
-120
-118
-117
-115
-113
-112
-111
-109
-107
-103
-93
-82
-74
-70
-66
-61
-56
-50
-45
-41
-37
-34
-30
-27
-24
-21
-19
-15
-8
1
10
20
36
53
65
74
82
87
93
97
102
105
108
111
114
115
113
109
103
97
92
86
80
75
71
68
66
65
63
61
59
57
57
57
57
58
58
59
59
59
61
63
65
63
61
58
56
55
54
53
51
48
46
45
44
44
43
42
42
42
42
41
41
40
39
38
37
36
36
36
35
36
37
39
41
43
46
49
52
56
64
69
72
74
77
79
80
78
74
67
55
39
26
11
-2
-18
-32
-42
-52
-56
-58
-59
-60
-61
-61
-62
-62
-62
-62
-63
-64
-65
-66
-66
-66
-67
-67
-68
-69
-71
-73
-81
-92
-99
-97
-74
-15
86
242
458
726
1012
1282
1449
1462
1366
1156
792
388
25
-243
-403
-450
-446
-384
-322
-253
-189
-167
-162
-160
-158
-157
-157
-155
-153
-151
-148
-145
-143
-141
-138
-136
-134
-131
-129
-128
-126
-125
-123
-122
-120
-119
-118
-117
-115
-112
-110
-108
-105
-102
-97
-92
-86
-80
-75
-71
-68
-65
-63
-61
-59
-57
-55
-53
-50
-47
-41
-33
-27
-23
-20
-18
-14
-10
-5
0
5
11
18
25
31
38
44
49
54
60
68
78
84
87
91
93
95
95
94
92
89
85
81
77
70
64
59
55
53
51
49
47
46
45
44
44
44
45
46
48
49
52
54
56
58
59
60
62
63
65
66
67
68
69
69
70
70
70
70
69
68
67
67
66
65
64
63
61
60
60
59
59
57
56
54
53
54
56
60
65
69
73
79
85
89
89
87
83
78
72
62
54
44
31
19
6
-6
-15
-22
-31
-42
-55
-63
-66
-67
-69
-70
-70
-71
-71
-72
-73
-74
-76
-78
-79
-81
-83
-85
-89
-92
-96
-100
-107
-115
-115
-101
-62
29
177
387
657
969
1276
1526
1649
1604
1400
1049
671
307
4
-204
-322
-374
-381
-365
-321
-252
-201
-181
-181
-201
-222
-229
-231
-228
-222
-219
-216
-213
-210
-208
-206
-203
-200
-196
-189
-183
-178
-175
-173
-172
-170
-168
-167
-165
-164
-162
-159
-153
-140
-133
-130
-128
-126
-124
-123
-121
-119
-118
-116
-114
-112
-109
-104
-93
-86
-79
-72
-63
-57
-52
-47
-42
-37
-33
-27
-22
-17
-11
-4
3
7
10
12
15
18
22
26
31
36
44
50
54
56
58
61
62
58
51
46
41
37
32
27
23
18
13
9
7
9
13
19
25
32
40
48
51
54
56
58
59
60
61
62
62
63
63
64
63
63
63
63
64
64
65
66
66
66
67
67
67
67
67
67
68
69
70
72
73
75
77
79
81
83
86
88
90
92
95
101
106
107
104
99
92
81
71
60
49
37
25
13
5
1
-2
-7
-11
-17
-25
-35
-45
-53
-57
-58
-60
-62
-57
-53
-50
-47
-47
-49
-53
-58
-64
-72
-81
-87
-92
-96
-98
-94
-86
-74
-36
54
202
412
685
1007
1330
1610
1746
1742
1584
1246
832
423
99
-102
-190
-216
-224
-229
-233
-234
-230
-225
-219
-214
-208
-201
-197
-193
-189
-184
-179
-174
-169
-164
-159
-155
-151
-147
-144
-140
-136
-133
-133
-136
-140
-143
-146
-149
-151
-150
-147
-142
-135
-121
-107
-96
-88
-81
-74
-68
-62
-56
-48
-38
-33
-30
-28
-26
-24
-22
-20
-18
-17
-14
-10
-3
4
14
27
38
45
51
54
57
59
62
65
68
71
74
79
83
87
89
92
96
98
95
90
85
81
77
72
68
65
62
60
57
56
54
53
52
52
51
50
50
50
48
45
43
46
50
52
53
54
55
56
56
58
60
61
62
63
63
63
64
64
64
65
65
66
67
69
70
70
68
66
63
60
56
52
52
56
61
64
66
68
70
73
75
77
80
82
84
87
90
93
97
102
104
103
99
94
85
71
59
46
33
18
5
-4
-15
-23
-30
-37
-44
-49
-52
-55
-57
-59
-61
-64
-66
-68
-71
-73
-76
-79
-81
-82
-83
-83
-82
-81
-80
-77
-73
-67
-59
-28
67
219
432
709
1033
1353
1622
1772
1732
1529
1180
754
344
18
-188
-268
-281
-265
-227
-213
-210
-203
-217
-222
-211
-203
-199
-195
-192
-190
-188
-186
-184
-183
-180
-178
-176
-174
-173
-171
-169
-167
-164
-161
-159
-156
-153
-151
-148
-146
-143
-141
-139
-136
-132
-126
-116
-108
-102
-98
-95
-91
-86
-82
-78
-74
-70
-66
-63
-59
-56
-52
-47
-40
-34
-25
-16
-5
1
5
9
13
17
20
23
27
35
51
65
75
83
88
90
93
95
96
97
96
96
94
91
88
85
82
80
78
76
75
74
72
71
69
68
66
64
62
61
61
61
61
62
63
64
65
66
67
68
68
69
69
70
71
72
72
73
74
76
77
78
78
75
71
67
63
60
58
55
53
51
49
47
45
43
42
42
42
42
43
44
45
46
47
49
51
52
54
57
59
65
72
78
83
87
91
93
95
95
93
90
86
80
70
50
34
21
9
0
-8
-16
-24
-31
-37
-43
-50
-56
-59
-61
-63
-64
-65
-66
-68
-69
-71
-73
-74
-76
-77
-78
-80
-82
-84
-90
-100
-103
-106
-99
-54
39
194
419
717
1054
1378
1639
1736
1657
1433
1048
603
223
-51
-233
-324
-351
-352
-331
-296
-233
-210
-194
-178
-168
-168
-178
-184
-189
-193
-196
-197
-196
-193
-188
-184
-181
-178
-174
-170
-166
-161
-158
-155
-153
-151
-149
-147
-145
-144
-142
-140
-137
-135
-132
-130
-128
-124
-116
-107
-99
-94
-90
-87
-85
-82
-79
-76
-74
-73
-71
-67
-62
-55
-46
-37
-26
-19
-13
-10
-6
-1
6
14
24
36
45
50
56
64
78
88
96
102
105
106
107
108
110
109
98
92
88
84
81
78
75
72
69
67
65
64
62
61
60
59
59
58
58
57
57
57
57
57
57
56
55
55
54
53
52
51
50
49
48
48
47
46
43
39
36
34
34
34
34
34
34
35
34
28
24
22
19
18
17
17
18
19
22
25
28
32
37
43
48
53
60
68
71
71
72
72
73
73
73
72
69
66
62
57
50
43
36
29
20
11
2
-5
-14
-22
-31
-40
-47
-54
-61
-70
-74
-78
-81
-83
-85
-86
-87
-87
-87
-86
-85
-83
-81
-78
-76
-73
-69
-65
-61
-56
-47
-15
55
178
363
613
900
1187
1425
1490
1443
1232
940
576
212
-88
-312
-452
-505
-469
-397
-306
-205
-176
-168
-163
-166
-169
-171
-173
-174
-174
-173
-170
-167
-163
-160
-154
-149
-142
-136
-132
-130
-128
-126
-125
-123
-121
-120
-119
-118
-117
-116
-115
-114
-113
-111
-108
-105
-100
-95
-91
-88
-86
-84
-82
-80
-78
-76
-75
-73
-71
-68
-63
-57
-50
-44
-38
-33
-28
-23
-13
1
15
25
33
40
48
59
72
83
90
96
103
110
115
119
122
123
122
118
114
109
104
99
94
90
86
83
81
78
76
74
72
70
68
67
65
64
63
63
62
61
61
60
60
59
59
59
59
58
58
58
57
57
57
56
55
54
52
50
48
46
43
38
32
29
26
23
22
21
20
18
17
15
15
14
13
13
13
13
14
15
17
19
21
24
27
30
33
42
55
60
62
64
65
66
66
65
62
58
54
48
40
32
25
14
0
-12
-21
-29
-39
-52
-64
-72
-79
-83
-86
-89
-90
-91
-89
-86
-83
-79
-77
-73
-70
-67
-65
-66
-68
-72
-77
-84
-94
-90
-75
-21
74
223
430
691
974
1244
1447
1485
1398
1158
852
489
137
-140
-334
-444
-478
-434
-365
-279
-190
-163
-147
-172
-181
-184
-181
-174
-167
-158
-150
-146
-145
-144
-143
-143
-142
-142
-141
-139
-138
-136
-135
-133
-132
-130
-129
-127
-125
-123
-120
-116
-111
-106
-102
-99
-96
-92
-88
-83
-78
-72
-66
-62
-59
-56
-53
-50
-48
-46
-45
-43
-40
-37
-33
-28
-24
-19
-16
-11
-5
0
8
19
27
36
44
54
60
66
70
75
80
87
95
98
100
102
103
103
99
92
86
79
73
69
67
65
63
61
60
59
58
58
57
57
58
59
61
63
65
67
70
72
75
78
81
86
92
97
100
99
97
94
89
81
71
66
64
62
60
58
57
55
53
51
50
48
46
43
41
39
39
41
45
48
50
51
53
55
58
60
61
63
65
66
67
68
68
69
69
71
72
74
74
74
73
70
67
64
60
53
45
39
31
21
13
4
-3
-14
-29
-45
-57
-66
-73
-78
-81
-84
-85
-83
-79
-74
-71
-67
-64
-61
-60
-60
-62
-64
-67
-71
-76
-76
-64
-31
44
170
353
601
905
1219
1502
1692
1717
1560
1249
844
427
75
-165
-268
-293
-301
-294
-283
-265
-248
-237
-232
-230
-226
-222
-230
-245
-253
-255
-256
-257
-258
-259
-259
-259
-259
-259
-258
-257
-255
-252
-248
-243
-234
-228
-223
-221
-219
-217
-214
-211
-207
-203
-199
-194
-190
-188
-187
-186
-184
-184
-183
-182
-180
-178
-174
-169
-160
-144
-132
-124
-117
-110
-100
-90
-85
-81
-78
-76
-72
-67
-61
-57
-54
-50
-46
-43
-41
-40
-38
-36
-33
-30
-26
-23
-21
-20
-18
-15
-14
-13
-14
-16
-19
-23
-27
-31
-38
-44
-48
-50
-54
-58
-58
-49
-42
-36
-31
-29
-27
-27
-26
-25
-24
-24
-23
-23
-22
-21
-20
-19
-18
-16
-14
-10
-3
6
19
36
68
101
134
169
206
225
256
280
253
199
119
10
-121
-269
-421
-560
-667
-732
-756
-712
-682
-617
-569
-548
-539
-530
-509
-457
-377
-284
-191
-118
-81
-65
-45
9
62
111
148
171
177
180
183
186
190
193
195
198
201
203
205
207
209
210
212
213
214
217
222
237
257
277
296
315
334
353
373
389
403
417
432
447
475
502
517
542
565
590
607
625
638
643
647
649
650
648
642
635
621
603
579
550
516
483
451
416
374
333
300
274
245
212
180
150
120
89
60
46
24
0
-28
-43
-56
-70
-84
-98
-109
-117
-125
-130
-134
-138
-143
-149
-155
-163
-168
-171
-174
-177
-179
-179
-178
-178
-177
-176
-175
-175
-175
-174
-174
-174
-175
-176
-177
-179
-181
-183
-184
-186
-187
-188
-190
-191
-192
-192
-192
-192
-192
-191
-189
-187
-185
-182
-178
-175
-170
-165
-160
-157
-153
-150
-147
-145
-143
-143
-145
-149
-153
-157
-163
-167
-168
-168
-169
-170
-171
-171
-167
-161
-156
-153
-150
-147
-144
-140
-137
-134
-132
-130
-129
-129
-128
-127
-126
-126
-126
-126
-126
-125
-124
-124
-124
-124
-123
-123
-123
-122
-122
-121
-121
-120
-119
-118
-116
-113
-105
-97
-92
-90
-87
-85
-84
-82
-80
-78
-76
-74
-72
-69
-67
-64
-60
-55
-51
-48
-45
-42
-37
-28
-20
-10
3
20
33
38
40
43
44
45
46
45
44
42
40
36
29
17
6
-5
-15
-28
-41
-49
-53
-56
-58
-59
-56
-51
-48
-46
-44
-42
-41
-40
-40
-39
-39
-39
-40
-42
-44
-46
-49
-55
-63
-55
-30
40
168
361
622
942
1277
1580
1791
1848
1700
1422
1069
666
303
26
-159
-273
-313
-313
-275
-234
-194
-181
-177
-172
-165
-160
-155
-151
-149
-150
-154
-158
-163
-170
-169
-161
-156
-153
-151
-150
-148
-147
-145
-144
-142
-140
-138
-133
-120
-106
-97
-90
-86
-83
-81
-80
-78
-77
-75
-73
-71
-68
-65
-62
-56
-51
-47
-44
-41
-37
-32
-25
-14
0
8
13
17
22
26
30
34
39
43
48
56
72
88
100
107
115
122
131
139
146
154
162
168
173
177
180
181
181
178
173
168
161
149
139
132
127
123
119
115
111
108
103
96
92
90
89
88
87
87
87
87
86
86
86
85
83
82
81
80
80
79
78
77
76
75
73
71
69
67
64
62
60
59
58
57
56
55
54
52
50
46
42
42
44
47
48
50
51
52
53
54
55
56
56
57
57
58
59
59
60
62
63
64
65
65
66
65
65
63
61
58
54
50
41
23
7
-8
-22
-32
-43
-54
-65
-76
-81
-84
-87
-89
-90
-92
-92
-92
-92
-92
-92
-91
-90
-89
-88
-86
-84
-83
-85
-88
-94
-93
-71
-12
94
264
503
812
1144
1451
1640
1657
1553
1274
903
506
162
-88
-257
-359
-408
-413
-392
-336
-253
-213
-200
-198
-197
-196
-196
-195
-194
-193
-191
-190
-188
-186
-185
-185
-184
-182
-180
-177
-175
-172
-169
-166
-163
-160
-157
-154
-151
-147
-143
-135
-128
-121
-117
-114
-112
-111
-109
-106
-104
-102
-100
-98
-95
-92
-87
-81
-75
-68
-62
-55
-48
-42
-36
-28
-18
-7
0
3
7
10
13
16
19
22
26
33
44
55
65
75
81
84
86
88
89
90
90
90
88
86
82
78
73
69
66
62
59
55
52
49
47
45
44
45
46
47
48
50
52
54
56
57
59
62
65
67
69
68
66
63
61
59
58
57
56
54
53
52
50
49
48
48
47
47
46
46
45
46
46
45
45
44
43
43
42
41
40
38
37
36
38
43
49
55
61
70
78
80
80
81
81
81
81
81
81
81
79
76
71
65
56
41
29
18
7
-5
-18
-31
-42
-47
-50
-52
-53
-54
-55
-56
-57
-58
-58
-59
-60
-61
-62
-62
-62
-61
-61
-62
-62
-63
-64
-67
-72
-56
-8
92
255
485
778
1092
1388
1600
1629
1504
1242
871
472
120
-138
-302
-367
-375
-349
-311
-264
-218
-206
-198
-193
-187
-182
-178
-174
-170
-167
-164
-161
-158
-156
-153
-151
-149
-147
-145
-143
-142
-140
-138
-136
-134
-132
-130
-128
-126
-125
-123
-122
-120
-118
-115
-110
-103
-97
-90
-85
-82
-79
-76
-74
-71
-69
-67
-66
-64
-61
-54
-38
-23
-12
-3
1
3
5
7
8
10
12
15
18
22
27
38
61
76
85
91
93
94
95
96
97
98
98
98
98
98
96
94
90
86
81
75
67
61
59
59
58
57
57
56
56
57
57
57
58
60
63
65
68
71
73
74
76
78
80
81
83
85
86
87
88
89
89
89
88
87
86
84
83
81
79
76
74
72
68
58
52
48
45
43
41
41
42
44
47
49
51
52
54
56
59
62
65
67
71
75
80
88
93
93
93
94
94
93
86
74
60
51
45
39
32
22
9
-3
-16
-28
-43
-52
-56
-59
-61
-63
-65
-66
-67
-68
-70
-71
-72
-74
-75
-77
-78
-81
-83
-86
-90
-95
-103
-103
-89
-49
39
183
392
669
995
1315
1589
1734
1698
1506
1181
814
431
90
-157
-310
-378
-382
-337
-288
-227
-204
-197
-202
-210
-207
-195
-190
-186
-185
-186
-188
-191
-194
-197
-199
-200
-201
-200
-197
-193
-189
-184
-177
-168
-159
-152
-146
-141
-139
-138
-138
-137
-137
-136
-136
-136
-134
-132
-129
-126
-121
-112
-104
-92
-78
-69
-65
-61
-58
-55
-51
-48
-44
-40
-35
-30
-26
-21
-16
-11
-8
-4
-1
2
6
11
17
25
36
45
57
72
81
87
89
86
80
73
64
57
48
35
28
24
21
19
18
18
19
21
23
27
31
39
44
47
51
53
53
49
45
42
39
36
34
34
35
37
39
42
46
51
56
62
66
70
73
75
75
73
70
67
63
60
56
53
49
45
40
34
27
22
21
19
18
16
14
17
25
34
45
50
52
54
55
57
58
59
60
61
61
61
62
62
62
62
63
64
65
61
53
45
38
32
28
25
18
8
-3
-15
-22
-25
-29
-35
-41
-47
-52
-57
-61
-63
-66
-69
-74
-77
-80
-83
-85
-86
-86
-88
-90
-93
-97
-101
-108
-118
-118
-104
-67
29
189
419
710
1043
1368
1640
1785
1741
1546
1231
845
470
168
-63
-217
-292
-307
-312
-304
-281
-251
-240
-236
-237
-240
-244
-241
-227
-214
-204
-197
-193
-193
-192
-192
-191
-191
-191
-191
-190
-189
-188
-187
-186
-185
-184
-182
-179
-177
-174
-168
-161
-157
-153
-146
-132
-113
-105
-103
-102
-100
-100
-98
-96
-93
-89
-85
-80
-74
-57
-32
-19
-9
-1
6
17
32
48
56
58
60
61
61
61
59
57
55
52
51
56
66
71
74
78
81
83
84
85
85
83
80
76
73
68
64
56
50
46
44
42
41
40
38
37
36
36
37
40
44
48
52
55
60
64
68
71
73
73
74
74
74
74
73
73
73
73
74
74
73
72
69
68
66
65
64
62
60
59
58
57
57
57
56
56
56
57
58
58
58
59
59
59
59
60
60
61
62
63
65
66
68
69
71
72
73
74
76
79
81
82
83
82
79
75
70
64
50
27
14
6
0
-7
-13
-20
-28
-35
-40
-47
-54
-60
-62
-64
-65
-66
-67
-68
-69
-70
-71
-72
-73
-73
-74
-74
-75
-77
-82
-81
-73
-51
4
105
261
476
752
1065
1372
1624
1733
1675
1456
1101
705
332
26
-181
-276
-303
-312
-306
-290
-251
-237
-229
-223
-219
-215
-210
-205
-201
-198
-195
-193
-191
-189
-187
-184
-181
-178
-175
-174
-173
-172
-170
-169
-167
-166
-165
-164
-163
-161
-160
-159
-159
-158
-158
-157
-155
-153
-149
-140
-128
-119
-113
-108
-102
-95
-88
-81
-73
-66
-61
-56
-53
-50
-48
-45
-42
-39
-36
-32
-26
-16
-4
4
11
17
25
32
38
44
49
52
54
55
56
57
57
58
58
58
57
55
51
46
40
30
20
13
9
5
2
1
2
5
9
15
23
35
41
44
47
49
50
52
54
57
59
62
65
69
75
85
89
91
91
92
93
94
95
95
95
96
96
97
97
97
97
96
96
97
97
97
97
97
97
97
97
97
97
97
97
97
98
98
99
100
101
102
103
105
107
108
111
118
125
128
130
132
135
137
138
138
136
131
124
112
95
81
66
50
32
17
7
0
-5
-9
-13
-16
-19
-23
-27
-32
-39
-50
-55
-57
-58
-60
-61
-62
-63
-64
-66
-67
-69
-71
-73
-76
-81
-88
-80
-57
7
122
298
538
831
1133
1413
1529
1528
1410
1115
745
356
22
-202
-341
-430
-450
-447
-410
-316
-278
-228
-208
-203
-200
-198
-196
-194
-191
-189
-187
-186
-185
-183
-182
-181
-179
-178
-176
-174
-171
-169
-166
-164
-162
-160
-159
-157
-155
-153
-152
-150
-149
-147
-144
-142
-139
-137
-135
-132
-128
-123
-119
-114
-108
-102
-94
-83
-74
-66
-60
-56
-52
-49
-45
-42
-38
-33
-24
-15
-7
-1
4
11
18
31
49
60
67
75
81
85
89
92
94
96
96
95
93
90
86
82
76
66
56
50
46
42
40
40
44
49
53
55
56
58
60
61
63
65
66
67
69
70
70
70
70
71
71
71
71
71
71
72
72
73
73
72
71
70
69
68
66
64
62
61
59
58
56
53
46
39
36
34
32
29
27
25
24
25
27
30
32
34
36
38
40
42
44
46
49
51
54
56
59
62
66
71
77
81
83
84
86
90
94
84
67
49
33
17
5
-4
-19
-30
-38
-44
-47
-50
-52
-53
-53
-54
-54
-55
-55
-56
-56
-57
-58
-60
-62
-63
-64
-66
-68
-70
-73
-77
-87
-92
-90
-82
-59
9
125
298
529
819
1126
1413
1616
1648
1530
1262
905
515
169
-91
-260
-353
-394
-364
-327
-283
-238
-226
-218
-213
-208
-205
-202
-198
-192
-181
-169
-164
-162
-161
-160
-159
-158
-157
-156
-155
-154
-153
-152
-151
-150
-149
-148
-148
-146
-145
-144
-142
-140
-136
-130
-123
-117
-112
-106
-100
-93
-87
-82
-77
-73
-69
-65
-59
-54
-49
-45
-41
-38
-35
-32
-30
-28
-25
-21
-17
-11
-7
-2
4
13
26
35
41
47
52
57
61
69
78
84
87
89
91
93
93
91
88
84
80
75
70
64
58
53
49
45
42
40
38
39
41
44
47
52
58
65
72
76
79
81
84
86
87
88
89
90
91
92
93
94
94
94
95
96
96
97
97
98
99
100
101
100
97
92
86
74
60
57
55
54
52
51
50
50
49
48
47
46
46
45
46
46
47
48
50
51
53
54
56
57
59
61
66
76
82
86
88
91
93
94
94
93
92
88
83
77
66
54
37
16
-7
-29
-51
-73
-82
-86
-89
-91
-93
-94
-94
-94
-94
-94
-95
-97
-98
-98
-99
-99
-99
-100
-101
-102
-104
-107
-116
-133
-148
-149
-128
-60
63
253
510
823
1153
1454
1667
1719
1611
1357
1010
635
260
-30
-213
-313
-350
-363
-364
-352
-319
-284
-269
-264
-261
-259
-258
-260
-262
-265
-268
-272
-276
-278
-281
-286
-291
-283
-270
-256
-245
-236
-224
-217
-213
-210
-207
-205
-203
-201
-199
-197
-195
-193
-191
-189
-187
-184
-182
-180
-177
-173
-167
-156
-142
-127
-113
-103
-92
-74
-57
-44
-36
-32
-29
-27
-26
-24
-22
-20
-19
-17
-14
-10
-2
6
14
23
35
45
52
58
60
62
63
65
66
62
56
51
46
41
34
28
23
18
14
11
10
10
10
10
10
10
9
9
8
8
10
12
15
17
19
21
24
28
32
37
41
44
46
49
52
55
57
58
58
58
59
59
60
60
60
60
60
60
61
61
59
56
52
47
38
31
25
20
16
16
19
23
26
29
31
32
34
34
35
36
37
38
39
40
41
44
45
45
43
41
38
39
48
61
78
87
93
97
99
99
97
95
92
89
86
84
80
77
73
69
61
51
44
36
24
10
-5
-20
-30
-36
-39
-41
-42
-43
-44
-44
-45
-45
-45
-45
-45
-44
-42
-41
-40
-38
-34
-32
-35
-40
-49
-50
-33
28
141
314
551
851
1183
1491
1723
1809
1705
1443
1079
671
296
4
-177
-263
-281
-277
-241
-202
-150
-139
-147
-161
-166
-171
-174
-176
-177
-178
-179
-178
-177
-176
-174
-171
-168
-164
-160
-151
-145
-139
-135
-132
-129
-127
-124
-121
-118
-117
-115
-113
-110
-106
-100
-94
-89
-85
-80
-76
-72
-69
-66
-62
-57
-52
-47
-42
-36
-26
-19
-13
-8
-5
-1
4
16
27
34
40
47
56
65
76
87
97
103
106
107
109
110
111
112
113
113
113
113
112
110
108
105
102
99
95
91
87
83
79
75
72
69
66
64
61
60
60
62
65
68
70
71
73
74
75
76
78
80
82
83
85
86
86
86
86
86
86
86
86
86
87
89
90
92
91
88
83
78
73
69
64
59
54
49
44
41
39
37
35
32
30
29
28
27
26
25
24
23
23
24
24
25
25
26
26
27
28
29
30
32
34
36
38
41
47
62
73
81
86
90
93
96
98
98
93
85
76
64
55
46
36
25
13
1
-12
-25
-35
-43
-48
-51
-53
-55
-57
-59
-59
-59
-58
-56
-55
-53
-52
-51
-49
-46
-44
-44
-48
-54
-60
-68
-79
-84
-80
-67
-28
60
206
417
691
1000
1299
1539
1634
1568
1358
1033
663
294
-14
-243
-384
-447
-452
-417
-354
-263
-216
-201
-198
-197
-195
-194
-193
-192
-189
-186
-183
-179
-175
-172
-170
-168
-166
-164
-162
-161
-159
-158
-156
-154
-152
-150
-149
-149
-148
-147
-147
-146
-144
-142
-140
-136
-127
-119
-111
-106
-102
-99
-96
-94
-91
-88
-86
-84
-81
-76
-69
-63
-56
-49
-43
-35
-25
-18
-12
-7
-2
1
4
8
14
23
32
43
58
74
87
93
97
100
101
102
100
96
90
85
82
78
74
70
66
63
61
60
58
57
55
54
53
52
50
48
46
45
45
47
50
53
57
61
64
68
71
74
77
79
81
82
83
84
84
83
82
80
78
76
73
70
67
63
56
50
44
40
37
35
33
31
29
28
26
24
22
21
20
19
18
17
17
16
15
14
12
10
8
7
7
10
13
17
21
25
31
37
43
49
54
58
61
65
67
69
69
68
65
62
57
51
41
30
22
17
13
9
5
1
-2
-6
-11
-18
-26
-34
-46
-62
-70
-74
-78
-81
-82
-82
-82
-82
-82
-82
-81
-81
-80
-79
-79
-82
-85
-89
-94
-94
-85
-60
1
102
258
473
749
1048
1331
1537
1568
1448
1185
836
464
126
-129
-304
-405
-431
-428
-385
-316
-221
-195
-186
-181
-179
-178
-179
-180
-181
-182
-183
-184
-185
-183
-180
-175
-171
-168
-164
-161
-158
-155
-151
-147
-143
-141
-139
-137
-136
-134
-132
-131
-129
-128
-126
-125
-123
-121
-120
-118
-117
-115
-111
-104
-95
-85
-76
-66
-57
-48
-42
-38
-34
-31
-28
-25
-22
-18
-15
-12
-8
-4
0
3
7
11
15
22
33
45
56
66
71
75
77
79
81
83
83
83
81
78
73
68
63
56
49
44
40
36
33
30
30
32
36
42
48
57
61
62
63
63
64
65
66
67
68
70
70
71
72
72
73
74
74
75
76
78
79
80
81
80
78
75
72
69
66
63
60
56
52
49
45
42
39
37
35
33
31
29
28
26
25
23
22
22
22
22
22
23
24
24
25
26
28
30
32
34
36
39
46
54
63
75
86
90
92
94
95
96
94
89
83
76
64
53
43
34
27
20
13
3
-9
-18
-25
-30
-36
-40
-44
-47
-48
-50
-50
-51
-52
-53
-55
-57
-58
-59
-60
-60
-61
-62
-63
-63
-66
-71
-69
-50
0
105
264
486
776
1109
1425
1671
1777
1704
1476
1136
732
340
41
-140
-229
-264
-276
-271
-257
-230
-220
-209
-202
-196
-192
-190
-191
-192
-194
-196
-198
-200
-199
-194
-187
-179
-168
-160
-156
-154
-153
-152
-150
-149
-147
-145
-143
-141
-139
-137
-135
-133
-131
-128
-123
-118
-113
-110
-108
-105
-101
-94
-82
-73
-66
-60
-54
-49
-39
-23
-10
-3
1
6
11
14
16
18
20
22
24
27
30
33
37
42
49
56
63
69
76
83
90
94
98
101
104
106
106
101
94
86
78
69
62
50
38
35
33
31
29
28
28
30
33
37
40
43
46
49
52
55
58
60
62
64
67
70
73
74
74
74
74
73
73
72
70
68
68
68
69
70
71
72
71
69
66
63
60
57
53
49
44
39
35
30
25
20
17
15
14
13
12
12
11
10
10
9
9
9
8
8
8
9
10
11
13
14
16
18
20
22
25
28
35
42
49
53
56
59
62
63
64
64
62
60
56
52
42
27
19
13
5
-3
-17
-35
-48
-55
-61
-65
-67
-69
-69
-70
-70
-70
-70
-70
-71
-72
-73
-74
-75
-75
-76
-76
-77
-79
-82
-89
-97
-102
-95
-49
43
195
411
690
1017
1344
1623
1745
1736
1568
1231
837
463
180
-11
-131
-212
-282
-332
-340
-325
-272
-229
-209
-202
-212
-221
-228
-232
-232
-229
-222
-216
-209
-204
-201
-200
-198
-197
-195
-194
-193
-191
-189
-187
-184
-180
-177
-174
-171
-165
-159
-153
-146
-140
-135
-131
-127
-123
-119
-116
-114
-113
-111
-108
-105
-97
-79
-64
-55
-46
-37
-29
-23
-18
-14
-10
-7
0
11
22
35
46
54
62
69
75
78
77
74
73
71
69
68
67
68
70
72
74
76
81
84
80
70
60
50
43
38
36
34
31
29
27
26
25
25
26
26
27
29
31
33
36
38
40
42
43
44
45
47
48
50
52
53
55
56
57
57
57
58
58
58
58
57
57
56
56
55
54
53
52
51
49
48
45
43
40
38
36
33
27
20
16
14
12
10
9
8
7
6
5
5
5
6
9
12
15
18
21
25
29
34
39
45
51
56
60
64
68
71
74
76
78
79
79
79
78
77
75
73
70
67
62
51
40
25
6
-7
-19
-33
-42
-48
-52
-56
-58
-59
-60
-60
-59
-59
-59
-60
-60
-62
-63
-63
-59
-54
-50
-45
-42
-47
-57
-67
-78
-77
-54
6
134
331
597
925
1258
1555
1707
1716
1606
1322
952
547
181
-87
-245
-310
-327
-324
-295
-262
-252
-244
-237
-230
-215
-200
-196
-194
-193
-193
-193
-193
-193
-192
-190
-189
-189
-188
-187
-185
-183
-181
-178
-170
-157
-149
-144
-138
-131
-125
-118
-114
-116
-121
-125
-128
-132
-134
-131
-124
-116
-108
-96
-87
-78
-71
-64
-57
-50
-43
-36
-28
-20
-12
-7
-3
0
3
6
10
14
20
28
41
52
60
67
73
80
87
91
94
96
98
100
102
103
104
104
104
102
100
98
94
90
85
80
75
68
60
56
54
53
52
51
50
49
49
49
51
54
58
62
64
67
69
72
74
76
77
78
78
78
77
75
73
71
68
66
64
63
61
59
57
55
53
51
49
47
45
43
41
38
36
34
31
28
26
23
21
18
16
14
11
10
8
6
5
4
4
4
5
6
7
8
10
13
16
19
22
25
30
41
51
63
70
77
82
86
88
88
85
79
72
59
37
20
10
0
-12
-20
-26
-31
-35
-40
-44
-48
-52
-54
-56
-59
-61
-63
-65
-66
-68
-69
-71
-73
-75
-76
-77
-77
-78
-79
-81
-83
-85
-89
-97
-96
-79
-32
60
208
419
693
994
1290
1499
1569
1500
1272
934
555
191
-105
-303
-397
-422
-423
-399
-343
-282
-240
-206
-197
-192
-188
-185
-182
-178
-176
-174
-173
-171
-168
-163
-160
-158
-156
-155
-153
-151
-149
-148
-146
-144
-141
-138
-134
-130
-126
-123
-120
-117
-113
-110
-107
-103
-100
-97
-94
-91
-87
-85
-81
-77
-71
-66
-61
-57
-51
-43
-33
-25
-19
-15
-12
-10
-8
-4
-1
1
5
9
17
29
45
55
61
66
71
75
80
84
87
91
95
100
104
106
107
108
110
112
114
109
100
89
76
65
58
53
49
46
45
46
49
53
56
58
60
61
63
65
66
68
69
71
72
73
74
74
74
75
75
75
75
75
74
74
73
71
70
68
66
63
61
59
57
55
52
49
44
38
32
29
26
23
21
19
17
16
15
15
14
14
14
15
16
18
21
23
25
27
29
32
35
38
41
43
46
48
51
54
56
58
61
65
68
70
69
66
63
58
54
49
43
37
31
25
19
13
6
-1
-10
-22
-37
-48
-57
-63
-68
-71
-73
-75
-77
-78
-79
-78
-75
-71
-67
-63
-57
-52
-49
-51
-56
-62
-72
-84
-72
-36
48
189
393
660
961
1260
1508
1599
1561
1368
1043
658
282
-19
-233
-364
-418
-418
-367
-295
-225
-204
-197
-192
-198
-204
-209
-211
-205
-193
-183
-172
-164
-159
-157
-156
-155
-153
-152
-150
-149
-148
-146
-144
-142
-140
-139
-138
-136
-134
-131
-125
-119
-117
-115
-114
-113
-112
-111
-109
-109
-108
-106
-104
-100
-95
-89
-81
-66
-58
-51
-45
-37
-28
-22
-18
-13
-8
-3
1
6
10
15
20
25
31
36
40
45
51
57
60
62
64
65
65
66
67
68
69
69
70
70
70
69
69
67
65
63
61
59
57
56
55
54
53
51
50
48
46
45
45
44
45
46
47
50
53
56
60
63
68
76
83
86
89
91
94
96
97
96
91
86
81
77
73
68
63
57
50
44
38
32
28
26
24
23
22
21
20
19
18
17
17
17
18
18
19
19
20
21
23
24
26
27
29
31
33
36
39
42
45
48
52
59
70
80
87
92
96
97
96
90
81
66
43
29
20
13
7
-1
-18
-32
-40
-45
-46
-46
-47
-47
-47
-47
-47
-46
-47
-48
-49
-51
-54
-56
-59
-62
-64
-67
-69
-71
-74
-79
-85
-74
-40
36
163
347
592
899
1230
1535
1760
1827
1698
1417
1042
637
271
10
-153
-247
-300
-319
-319
-306
-270
-243
-233
-220
-206
-193
-187
-183
-180
-178
-176
-175
-174
-174
-173
-173
-172
-170
-169
-174
-182
-187
-193
-198
-200
-197
-192
-185
-177
-164
-150
-138
-128
-121
-115
-110
-105
-100
-95
-91
-88
-85
-83
-80
-77
-74
-70
-66
-62
-57
-51
-43
-34
-21
-8
3
15
24
33
42
52
57
60
62
64
67
68
70
72
73
75
76
78
79
80
82
85
88
90
88
83
77
70
62
56
53
51
48
46
45
43
42
42
41
42
43
44
47
50
54
61
77
95
112
130
149
181
213
247
281
315
348
379
409
437
464
492
530
584
661
764
889
1030
1178
1312
1383
1380
1298
1103
834
531
252
37
-112
-202
-247
-279
-319
-349
-368
-390
-406
-416
-423
-417
-399
-359
-316
-273
-230
-197
-170
-157
-151
-148
-146
-144
-140
-136
-132
-126
-117
-104
-92
-84
-79
-74
-70
-66
-63
-61
-58
-56
-54
-52
-50
-49
-47
-46
-45
-43
-42
-41
-39
-37
-35
-32
-29
-24
-14
-4
10
30
51
71
92
114
133
147
161
168
173
177
180
183
184
184
183
181
177
173
168
156
137
113
92
70
49
27
13
0
-13
-23
-28
-32
-36
-40
-46
-54
-62
-67
-70
-72
-74
-75
-76
-76
-75
-73
-71
-69
-68
-66
-64
-61
-59
-58
-59
-62
-66
-68
-71
-74
-78
-81
-84
-84
-84
-83
-82
-81
-81
-80
-78
-77
-76
-77
-78
-80
-81
-81
-82
-83
-84
-84
-83
-81
-77
-72
-64
-54
-53
-53
-52
-51
-51
-51
-52
-53
-54
-56
-57
-58
-59
-61
-62
-63
-61
-58
-54
-51
-47
-42
-37
-33
-29
-26
-24
-23
-22
-21
-20
-18
-17
-16
-16
-15
-13
-13
-12
-12
-11
-10
-9
-9
-9
-8
-8
-7
-6
-5
-4
-3
-2
-1
0
0
0
1
2
4
6
10
14
16
18
21
25
17
12
9
6
4
2
1
1
1
2
2
3
3
4
5
6
7
8
9
11
12
14
15
17
17
18
17
15
13
11
9
8
5
3
2
1
1
2
3
6
9
14
23
40
50
57
62
66
70
72
74
76
78
81
83
85
87
90
94
97
99
99
96
92
88
85
80
76
71
68
64
57
45
35
27
22
12
-7
-33
-44
-50
-54
-55
-53
-48
-44
-40
-37
-36
-39
-44
-48
-55
-62
-69
-75
-76
-69
-49
1
94
242
455
736
1065
1384
1654
1789
1751
1544
1204
812
437
154
-38
-157
-230
-274
-297
-298
-279
-256
-249
-244
-240
-235
-217
-200
-194
-194
-202
-207
-213
-217
-218
-214
-208
-198
-182
-167
-158
-158
-165
-172
-178
-178
-173
-171
-169
-167
-166
-166
-165
-164
-163
-163
-162
-160
-158
-151
-119
-101
-93
-83
-76
-73
-69
-67
-65
-63
-61
-59
-57
-54
-50
-44
-38
-33
-24
-11
-1
6
16
30
45
59
73
87
101
116
131
142
147
152
154
156
158
159
160
161
162
163
164
164
163
162
160
158
155
151
144
128
115
105
95
90
87
85
83
81
80
78
77
75
74
73
72
70
69
69
68
68
67
66
65
64
63
63
63
62
62
61
61
61
61
60
59
57
55
54
53
52
51
49
48
46
45
43
41
39
37
35
32
31
29
29
29
29
29
30
32
33
35
37
39
41
43
45
49
54
58
62
65
68
72
77
82
87
89
87
84
79
73
63
54
43
26
12
2
-10
-24
-36
-46
-55
-64
-66
-66
-67
-67
-68
-68
-68
-68
-69
-70
-72
-74
-75
-75
-76
-78
-79
-79
-80
-79
-75
-69
-61
-33
38
155
332
576
881
1195
1484
1626
1630
1505
1212
835
454
132
-118
-283
-375
-403
-403
-374
-314
-272
-248
-209
-183
-174
-170
-170
-172
-176
-179
-183
-186
-187
-185
-181
-178
-176
-174
-173
-172
-170
-169
-167
-165
-163
-161
-159
-158
-156
-154
-151
-147
-141
-135
-130
-125
-120
-115
-111
-108
-106
-104
-102
-100
-97
-91
-85
-80
-74
-69
-65
-62
-59
-56
-52
-48
-42
-35
-26
-11
8
19
25
30
34
37
40
43
46
49
52
54
57
58
60
61
62
63
64
64
65
66
68
68
69
68
67
65
63
61
59
56
53
50
48
45
43
40
36
32
29
28
30
33
37
42
46
50
54
58
62
65
67
69
70
69
68
66
63
60
56
53
50
47
43
38
35
31
28
26
24
22
21
20
19
18
17
14
13
12
14
18
23
28
32
35
39
42
46
49
52
54
56
58
59
61
62
64
67
71
74
74
71
65
59
54
48
43
39
34
30
25
17
7
-2
-8
-13
-17
-21
-26
-30
-34
-37
-41
-45
-48
-50
-51
-53
-54
-56
-57
-58
-59
-61
-64
-67
-71
-77
-85
-76
-50
15
125
292
516
795
1091
1366
1573
1621
1548
1327
997
633
277
-21
-244
-375
-414
-412
-363
-286
-198
-170
-164
-161
-159
-157
-154
-151
-146
-142
-138
-134
-131
-126
-120
-116
-115
-115
-116
-118
-119
-120
-121
-123
-124
-124
-121
-117
-112
-109
-106
-103
-100
-97
-93
-90
-87
-85
-82
-79
-75
-71
-67
-63
-59
-55
-50
-44
-37
-31
-24
-19
-16
-13
-11
-8
-4
-2
0
2
6
12
23
34
45
55
65
71
74
78
80
81
83
84
85
86
87
88
88
90
92
94
90
82
76
70
65
60
56
53
51
49
47
46
45
46
46
47
49
51
53
55
57
59
61
63
64
65
65
65
64
64
64
63
62
60
58
57
56
57
59
61
62
64
66
67
67
65
62
57
50
41
32
28
26
24
22
21
20
19
19
19
19
19
19
20
22
24
26
29
31
33
36
39
42
44
46
48
51
53
56
60
64
65
63
58
51
38
19
7
0
-8
-16
-26
-37
-47
-54
-59
-63
-68
-73
-77
-79
-81
-82
-83
-84
-85
-87
-88
-89
-90
-92
-92
-93
-94
-95
-96
-98
-101
-108
-91
-44
52
203
418
700
1029
1350
1617
1750
1705
1516
1202
817
447
137
-100
-251
-334
-378
-380
-341
-262
-232
-225
-220
-218
-214
-210
-207
-204
-202
-199
-196
-193
-191
-190
-190
-190
-190
-191
-191
-190
-191
-192
-193
-192
-187
-182
-175
-165
-154
-148
-144
-140
-138
-135
-134
-132
-130
-129
-127
-125
-122
-115
-105
-94
-84
-72
-64
-57
-51
-45
-39
-35
-31
-27
-21
-15
-7
3
17
27
32
35
38
40
42
44
46
49
51
55
63
75
79
82
84
85
83
80
75
67
55
48
44
41
40
42
44
47
50
53
52
48
41
34
26
22
20
19
17
15
16
21
29
36
43
50
53
56
58
61
64
66
67
66
64
62
61
59
57
55
54
52
52
52
53
53
54
56
58
57
48
43
39
36
33
31
30
30
30
31
32
33
34
35
37
38
39
41
43
44
46
48
51
54
59
71
76
79
81
83
85
85
85
85
84
82
79
75
67
50
35
24
15
4
-9
-23
-38
-44
-46
-48
-49
-50
-51
-52
-52
-53
-53
-53
-54
-55
-55
-55
-54
-54
-54
-53
-53
-53
-53
-52
-54
-50
-14
62
194
394
671
1006
1349
1643
1779
1774
1610
1291
898
501
192
-18
-138
-214
-264
-280
-276
-262
-241
-235
-232
-230
-228
-226
-223
-221
-218
-215
-212
-209
-208
-206
-204
-201
-198
-194
-190
-187
-183
-180
-178
-176
-174
-172
-169
-166
-164
-162
-159
-157
-155
-152
-150
-148
-146
-143
-136
-121
-108
-98
-86
-78
-73
-69
-65
-60
-56
-52
-44
-33
-24
-11
5
15
19
22
25
27
30
32
34
36
39
45
59
69
75
78
80
81
81
82
82
83
83
84
82
79
74
69
64
60
55
50
47
45
43
41
39
36
34
32
33
37
42
51
65
86
115
148
182
214
244
274
291
319
349
382
415
450
492
543
606
678
753
827
892
936
951
934
882
766
613
451
313
216
169
154
141
130
92
1
-92
-177
-236
-270
-281
-286
-289
-287
-279
-267
-250
-223
-190
-156
-126
-110
-99
-92
-87
-81
-74
-68
-62
-56
-47
-38
-30
-22
-15
-12
-11
-10
-9
-9
-8
-7
-6
-6
-7
-9
-12
-14
-16
-19
-22
-24
-24
-22
-18
-13
-5
5
15
23
29
36
43
53
72
96
116
130
141
150
157
163
166
166
162
156
150
142
135
129
120
111
103
93
80
70
64
58
51
44
37
32
26
22
18
15
11
7
4
0
-6
-11
-16
-19
-20
-22
-23
-24
-25
-27
-29
-30
-32
-33
-35
-36
-37
-37
-38
-38
-39
-40
-42
-44
-47
-49
-51
-52
-53
-54
-54
-54
-54
-54
-54
-54
-55
-56
-57
-59
-60
-61
-63
-64
-64
-65
-66
-67
-68
-71
-73
-72
-67
-60
-56
-52
-48
-45
-43
-42
-42
-42
-43
-44
-46
-50
-55
-52
-50
-50
-49
-49
-49
-48
-47
-46
-45
-43
-41
-40
-37
-35
-27
-16
-13
-11
-9
-8
-7
-7
-7
-6
-6
-6
-7
-7
-8
-10
-11
-12
-14
-17
-20
-19
-16
-12
-10
-8
-7
-6
-5
-4
-3
-3
-3
-3
-3
-4
-5
-6
-7
-8
-10
-13
-15
-15
-11
-6
-2
0
3
5
6
5
4
1
0
-3
-7
-11
-15
-18
-21
-25
-28
-25
-20
-16
-12
-8
-3
1
5
10
15
18
21
23
25
27
29
30
32
34
36
38
40
44
51
66
80
90
98
103
107
109
109
106
100
91
75
58
43
28
15
6
1
-4
-12
-16
-19
-22
-24
-26
-28
-28
-28
-28
-27
-27
-27
-27
-26
-24
-30
-36
-41
-47
-53
-59
-66
-66
-56
-28
45
167
345
579
869
1165
1438
1586
1607
1479
1206
855
492
146
-122
-288
-359
-368
-347
-310
-257
-243
-234
-229
-224
-220
-216
-213
-205
-193
-186
-181
-178
-176
-174
-171
-168
-164
-160
-156
-153
-150
-147
-144
-142
-143
-146
-148
-151
-153
-154
-153
-151
-149
-144
-136
-124
-117
-113
-109
-105
-102
-98
-92
-84
-76
-73
-70
-69
-68
-67
-65
-63
-61
-60
-58
-55
-52
-44
-26
-12
-1
7
19
34
50
63
75
88
98
105
116
130
147
158
164
169
174
178
181
184
186
189
191
193
193
193
190
187
182
175
162
141
128
119
110
100
93
87
83
79
76
74
72
70
69
69
68
67
67
66
66
66
66
66
66
65
64
64
63
63
62
62
60
58
57
55
53
51
48
42
36
30
25
22
19
16
14
12
11
12
14
16
19
20
21
23
24
26
27
29
30
32
34
35
37
39
40
41
42
43
45
47
51
53
55
53
50
45
40
34
26
17
11
5
-1
-12
-25
-36
-46
-53
-59
-61
-62
-63
-65
-66
-66
-66
-66
-67
-68
-69
-69
-70
-70
-70
-70
-71
-72
-73
-74
-76
-80
-62
-11
84
229
434
703
1015
1319
1577
1710
1679
1483
1152
769
398
123
-61
-182
-259
-301
-315
-306
-282
-230
-181
-159
-152
-167
-178
-184
-189
-193
-195
-197
-198
-198
-197
-195
-193
-191
-187
-182
-175
-161
-152
-146
-142
-139
-137
-135
-132
-130
-128
-126
-125
-123
-121
-118
-115
-112
-109
-106
-102
-97
-91
-85
-74
-58
-48
-44
-39
-35
-30
-27
-22
-17
-11
-4
0
5
9
11
14
17
21
26
31
36
42
49
56
62
66
68
70
72
73
75
77
77
78
77
77
77
77
77
77
76
75
75
74
74
76
80
85
91
102
116
136
158
192
226
260
278
306
336
374
417
465
519
581
654
736
827
924
1021
1114
1196
1268
1320
1328
1312
1229
1095
922
733
558
407
288
175
75
-10
-94
-174
-241
-267
-277
-276
-264
-247
-226
-215
-209
-204
-201
-200
-201
-201
-201
-202
-203
-204
-205
-201
-194
-187
-181
-173
-165
-156
-145
-130
-118
-110
-104
-100
-97
-97
-97
-97
-97
-97
-96
-96
-101
-109
-115
-119
-124
-127
-129
-130
-129
-127
-123
-119
-110
-90
-69
-48
-32
-19
-8
4
25
41
51
57
59
61
62
63
64
65
66
66
67
67
66
65
63
60
56
51
42
36
28
16
6
-1
-8
-17
-25
-29
-31
-34
-35
-32
-25
-20
-16
-13
-10
-9
-11
-13
-16
-19
-23
-25
-25
-23
-20
-17
-12
-13
-21
-26
-30
-34
-36
-37
-37
-37
-37
-35
-34
-33
-32
-31
-29
-27
-26
-26
-25
-25
-26
-28
-29
-31
-32
-33
-34
-35
-36
-39
-41
-42
-41
-40
-37
-34
-31
-28
-24
-21
-18
-15
-12
-10
-7
-2
1
1
-1
-4
-5
-7
-9
-10
-11
-11
-8
-4
0
2
5
8
11
15
17
18
19
20
20
20
21
21
22
22
22
22
22
22
22
22
21
20
20
19
19
20
20
21
22
22
23
22
23
23
24
24
24
25
26
26
26
26
25
24
23
23
22
22
22
21
20
19
19
18
18
19
19
18
18
17
17
16
15
15
16
19
24
30
35
43
49
52
54
55
56
56
57
58
59
61
63
65
68
71
75
80
84
88
90
93
95
99
102
102
98
93
86
77
68
59
50
42
32
19
9
4
-2
-9
-14
-17
-20
-23
-25
-28
-30
-33
-36
-39
-43
-47
-51
-54
-58
-64
-70
-70
-63
-46
2
97
250
468
753
1088
1413
1690
1826
1804
1615
1283
896
516
191
-48
-188
-253
-268
-266
-246
-208
-230
-243
-249
-242
-218
-195
-187
-192
-196
-199
-201
-201
-199
-194
-187
-180
-171
-170
-178
-187
-195
-187
-180
-174
-173
-177
-183
-182
-157
-144
-140
-146
-153
-158
-149
-134
-123
-118
-116
-113
-106
-96
-88
-82
-77
-72
-67
-64
-60
-57
-52
-47
-44
-41
-39
-33
-19
-6
2
10
17
25
33
44
60
70
76
81
89
97
105
113
120
126
131
138
147
156
161
166
169
171
171
168
164
158
151
139
126
117
111
105
100
96
91
87
83
80
77
74
71
69
67
65
63
61
60
60
59
59
60
61
61
63
63
64
65
67
68
69
68
65
60
55
51
46
42
38
35
34
33
32
32
33
33
33
33
33
33
33
33
33
33
33
34
34
35
36
37
37
38
40
41
42
43
44
46
47
49
51
54
56
60
66
56
44
33
24
17
11
3
-9
-18
-26
-33
-39
-43
-48
-57
-72
-84
-93
-94
-88
-78
-77
-87
-93
-94
-88
-84
-80
-77
-74
-73
-74
-76
-78
-81
-88
-84
-44
51
204
428
724
1049
1374
1600
1670
1603
1370
1021
642
287
0
-195
-299
-337
-341
-320
-271
-242
-224
-215
-212
-210
-208
-206
-204
-202
-199
-197
-195
-193
-190
-187
-184
-180
-175
-169
-164
-161
-158
-154
-145
-134
-125
-130
-160
-161
-150
-146
-143
-140
-136
-131
-125
-119
-114
-109
-103
-98
-94
-92
-89
-86
-83
-78
-70
-63
-57
-52
-47
-40
-31
-23
-14
-5
3
8
11
14
17
21
25
28
32
35
39
44
53
61
70
73
75
77
78
79
80
81
81
81
81
82
83
84
84
83
83
83
84
85
87
89
92
110
143
178
211
245
283
309
340
366
401
443
493
554
628
715
808
900
985
1057
1095
1108
1087
1023
901
739
569
423
284
221
200
186
176
142
67
-29
-127
-201
-239
-253
-254
-243
-234
-226
-217
-206
-188
-171
-165
-162
-160
-157
-155
-153
-151
-149
-145
-140
-133
-120
-106
-96
-89
-83
-76
-67
-59
-52
-42
-34
-34
-42
-54
-62
-71
-79
-83
-83
-81
-77
-72
-65
-54
-41
-30
-20
-9
0
17
39
55
68
87
101
111
119
125
129
133
137
141
144
147
148
148
145
140
133
121
99
76
58
49
43
37
30
22
16
10
4
0
-3
-7
-9
-11
-13
-15
-17
-19
-20
-20
-21
-21
-22
-24
-26
-28
-32
-35
-34
-32
-31
-30
-28
-26
-26
-28
-31
-34
-35
-37
-39
-41
-44
-45
-46
-47
-47
-47
-47
-47
-47
-46
-45
-44
-44
-44
-44
-42
-40
-46
-51
-55
-57
-59
-59
-57
-52
-47
-43
-37
-32
-32
-35
-40
-43
-46
-50
-53
-54
-53
-51
-48
-45
-42
-38
-35
-35
-38
-41
-46
-38
-28
-19
-18
-21
-27
-25
-17
-11
-11
-14
-17
-20
-21
-17
-10
-12
-25
-32
-33
-25
-21
-17
-14
-10
-8
-7
-8
-9
-10
-12
-13
-17
-22
-17
-14
-13
-12
-11
-11
-11
-11
-11
-10
-8
-6
-5
-5
-4
-3
-1
0
2
4
8
17
21
19
13
4
-9
-16
-20
-23
-24
-22
-18
-13
-9
-3
0
1
-1
-4
-9
-14
-2
10
21
27
30
32
33
35
37
39
41
45
49
54
60
68
80
85
87
89
90
91
91
92
92
93
93
92
91
89
86
81
77
66
49
39
34
28
22
16
4
-10
-19
-23
-26
-28
-30
-32
-34
-37
-41
-34
-27
-22
-19
-19
-21
-24
-29
-34
-21
17
103
251
467
748
1077
1396
1667
1806
1764
1579
1262
904
550
228
-41
-200
-268
-276
-249
-220
-163
-144
-144
-166
-185
-192
-195
-196
-195
-191
-187
-184
-179
-176
-175
-176
-179
-183
-190
-198
-185
-162
-143
-136
-132
-129
-127
-127
-130
-135
-139
-145
-155
-155
-143
-125
-115
-113
-112
-109
-99
-92
-86
-80
-74
-70
-65
-59
-49
-37
-29
-23
-19
-16
-12
-9
-6
-2
3
14
21
29
37
46
55
65
75
83
89
96
102
108
114
120
127
134
142
151
162
168
172
175
178
181
182
180
174
166
155
141
128
119
111
104
95
87
84
83
81
80
79
79
78
78
78
77
77
76
76
76
76
77
77
77
77
76
76
76
76
75
74
73
71
70
69
67
65
64
62
60
59
58
57
55
54
52
50
49
47
45
43
41
40
39
38
38
39
40
41
43
46
47
49
50
52
54
56
57
59
61
64
68
71
72
72
69
66
61
56
51
44
34
26
17
2
-21
-36
-44
-50
-56
-60
-63
-66
-69
-73
-76
-79
-81
-82
-83
-85
-90
-89
-78
-69
-60
-54
-53
-59
-67
-81
-93
-100
-91
-30
89
284
555
892
1240
1556
1731
1746
1648
1374
1010
618
273
12
-156
-247
-277
-286
-273
-234
-217
-213
-210
-208
-207
-207
-207
-206
-205
-206
-206
-207
-209
-209
-210
-211
-212
-214
-215
-214
-210
-202
-193
-180
-169
-163
-160
-157
-154
-152
-149
-146
-144
-141
-139
-135
-133
-131
-128
-125
-122
-117
-112
-107
-101
-95
-88
-79
-70
-62
-56
-51
-46
-36
-22
-14
-6
0
14
22
27
31
34
37
40
44
47
51
53
56
58
60
62
65
67
69
70
70
70
70
70
69
67
65
63
60
58
56
54
50
46
43
41
41
43
47
53
60
70
88
105
128
158
190
220
246
272
297
321
358
399
443
491
551
624
703
782
858
927
984
1019
1031
1015
967
860
716
552
387
246
179
156
145
132
107
47
-31
-107
-167
-211
-248
-267
-282
-291
-285
-268
-232
-194
-171
-146
-127
-120
-116
-114
-111
-110
-108
-108
-106
-105
-103
-102
-101
-100
-97
-90
-104
-116
-123
-130
-138
-146
-153
-162
-173
-180
-177
-170
-164
-159
-153
-145
-135
-101
-68
-58
-49
-42
-35
-21
0
16
27
37
44
56
75
93
106
116
122
126
129
132
133
132
129
124
118
110
98
79
64
52
42
36
32
30
28
26
24
20
14
8
2
-2
-7
-12
-15
-19
-22
-26
-29
-33
-36
-39
-41
-43
-46
-52
-51
-39
-29
-19
-14
-14
-14
-15
-15
-16
-25
-36
-47
-56
-61
-65
-69
-71
-71
-68
-64
-59
-54
-49
-44
-41
-39
-38
-37
-36
-35
-34
-33
-36
-42
-48
-53
-58
-63
-66
-66
-65
-62
-58
-53
-44
-36
-32
-29
-27
-26
-24
-23
-21
-21
-21
-22
-23
-24
-26
-28
-31
-36
-31
-25
-20
-22
-25
-28
-21
-14
-9
-5
-1
0
3
17
31
36
27
19
14
9
5
3
2
0
0
-2
-4
-5
-4
-3
0
2
4
6
8
11
14
15
16
15
15
15
16
18
18
19
18
18
18
18
17
16
16
19
21
23
25
27
27
25
21
17
14
10
7
5
5
9
13
17
21
26
30
34
39
45
52
59
67
74
81
86
88
89
91
94
95
91
82
78
74
72
69
67
64
62
59
57
54
52
48
42
35
27
18
7
-1
-8
-12
-16
-19
-24
-28
-32
-35
-38
-41
-44
-45
-46
-46
-46
-44
-42
-38
-33
-13
38
131
279
484
747
1050
1353
1609
1723
1695
1500
1178
796
430
142
-80
-229
-285
-305
-306
-294
-260
-232
-193
-175
-166
-160
-157
-160
-168
-183
-195
-199
-202
-202
-193
-183
-174
-171
-169
-168
-167
-165
-162
-159
-156
-154
-153
-151
-149
-146
-144
-141
-138
-135
-130
-124
-118
-111
-99
-85
-81
-78
-76
-75
-74
-73
-72
-70
-67
-64
-60
-56
-47
-28
-16
-8
0
7
12
15
18
21
26
31
35
40
47
58
66
72
81
98
115
126
136
146
156
167
172
175
177
178
179
180
181
181
180
179
177
174
170
166
161
153
140
134
133
132
131
130
129
129
128
127
127
127
128
128
129
130
131
132
133
133
133
132
130
129
127
125
123
121
119
117
116
115
114
112
110
107
104
101
99
96
93
90
88
87
85
84
83
82
81
80
79
79
78
77
76
76
76
74
72
69
68
68
69
70
72
74
77
81
84
84
79
72
62
49
39
32
26
19
12
5
-5
-24
-39
-48
-56
-63
-68
-73
-77
-79
-80
-80
-80
-80
-81
-81
-81
-81
-82
-83
-86
-90
-93
-99
-103
-103
-98
-88
-58
15
145
347
618
943
1272
1572
1726
1734
1622
1336
956
559
232
-2
-163
-255
-284
-295
-296
-289
-277
-257
-243
-237
-233
-230
-229
-226
-224
-223
-221
-218
-216
-210
-208
-211
-217
-224
-230
-213
-203
-199
-195
-193
-191
-188
-186
-184
-182
-180
-178
-177
-175
-173
-171
-169
-166
-162
-158
-153
-148
-141
-126
-109
-102
-98
-94
-89
-81
-72
-62
-52
-43
-34
-27
-22
-16
-11
-5
0
5
10
14
16
18
20
23
25
27
28
29
30
31
32
32
32
31
31
30
29
29
28
27
26
25
25
23
22
20
18
16
10
7
11
20
35
53
80
115
152
193
232
260
292
319
357
394
439
489
546
613
688
762
830
887
920
920
887
802
676
526
375
236
128
90
78
67
59
31
-8
-64
-128
-182
-230
-247
-256
-261
-248
-226
-202
-184
-170
-156
-146
-139
-133
-126
-120
-113
-100
-75
-61
-55
-50
-46
-43
-41
-40
-39
-38
-38
-39
-39
-38
-38
-37
-36
-35
-36
-42
-48
-54
-60
-65
-65
-59
-49
-38
-23
-10
1
13
29
44
57
68
78
94
119
135
142
148
153
156
156
155
152
149
144
139
135
128
121
114
108
101
87
69
57
48
38
24
13
7
3
6
10
13
12
3
-3
-9
-15
-22
-28
-34
-41
-47
-52
-56
-59
-63
-66
-68
-66
-61
-53
-39
-29
-27
-27
-26
-27
-28
-30
-34
-38
-42
-46
-51
-56
-61
-66
-71
-76
-82
-84
-84
-81
-78
-74
-72
-69
-67
-64
-61
-58
-56
-54
-52
-49
-48
-47
-48
-50
-53
-55
-56
-57
-58
-60
-62
-62
-62
-59
-56
-52
-47
-43
-39
-34
-27
-22
-20
-20
-20
-19
-17
-15
-17
-25
-29
-32
-33
-32
-27
-22
-18
-15
-10
-8
-7
-8
-9
-12
-14
-18
-19
-16
-11
-7
-1
1
0
-6
-12
-17
-19
-15
-8
-5
-3
-2
-1
0
1
2
2
2
3
4
4
5
6
6
7
7
7
7
6
6
6
6
6
7
8
9
10
11
13
15
18
21
24
29
34
43
59
68
76
83
83
77
73
70
68
67
67
69
73
78
86
102
114
121
126
130
132
134
136
139
141
138
130
122
111
100
86
67
53
46
41
34
30
25
22
18
15
13
10
8
6
4
0
-6
4
17
28
29
22
11
-3
-19
-28
-16
20
121
304
568
894
1241
1560
1723
1764
1663
1401
1044
673
332
58
-148
-280
-318
-292
-253
-189
-166
-158
-162
-169
-175
-180
-184
-187
-187
-185
-182
-179
-177
-175
-173
-170
-166
-162
-158
-154
-152
-150
-149
-147
-145
-142
-141
-139
-137
-135
-133
-131
-128
-126
-123
-119
-114
-110
-106
-102
-100
-97
-94
-91
-88
-86
-85
-85
-84
-80
-75
-70
-64
-60
-57
-54
-50
-43
-36
-28
-22
-15
-7
-2
0
1
3
5
8
11
16
24
33
49
73
89
99
107
113
116
120
123
126
127
127
126
123
120
118
115
110
103
95
85
78
73
68
63
59
56
53
50
43
34
41
56
54
40
31
32
45
56
68
74
70
63
58
55
52
50
48
46
46
46
47
48
49
50
53
57
51
46
43
40
38
35
32
29
25
18
17
20
26
26
19
16
15
20
28
33
38
42
46
48
48
49
51
52
54
57
56
48
39
29
15
-3
-26
-41
-51
-60
-68
-78
-89
-101
-107
-109
-112
-114
-115
-115
-115
-115
-115
-114
-116
-118
-119
-120
-121
-123
-124
-125
-127
-129
-131
-134
-142
-157
-144
-104
-5
162
405
712
1062
1337
1567
1645
1520
1283
912
500
127
-159
-351
-422
-426
-382
-291
-257
-239
-234
-231
-229
-227
-225
-224
-222
-221
-220
-221
-219
-219
-219
-218
-218
-217
-216
-216
-215
-214
-213
-212
-211
-209
-208
-206
-204
-202
-200
-197
-191
-184
-177
-172
-167
-162
-157
-150
-143
-135
-127
-121
-117
-112
-108
-103
-99
-95
-91
-86
-80
-74
-66
-57
-51
-47
-43
-40
-37
-33
-30
-27
-24
-21
-18
-13
-8
-3
2
7
11
13
16
19
21
22
22
22
21
20
18
16
14
11
9
8
7
6
4
2
0
-1
-2
-3
-3
-3
-2
0
1
3
7
10
14
19
30
54
80
100
127
164
207
237
271
303
333
361
405
450
503
564
628
698
773
847
912
968
996
1006
982
910
784
626
460
323
240
212
200
181
137
60
-36
-145
-234
-271
-283
-270
-248
-222
-195
-168
-155
-149
-144
-140
-137
-135
-134
-134
-134
-135
-136
-136
-137
-139
-140
-141
-141
-142
-143
-145
-147
-148
-150
-149
-148
-145
-142
-139
-135
-131
-126
-121
-113
-105
-95
-84
-68
-58
-52
-41
-20
0
16
26
39
58
80
101
121
144
161
172
178
182
184
185
187
190
191
192
192
189
184
178
172
166
158
149
141
135
128
117
103
95
86
77
66
51
34
26
22
19
17
16
15
15
15
15
15
15
16
17
18
19
21
23
25
26
25
25
24
23
22
21
19
17
14
10
7
6
4
2
0
0
-1
-3
-4
-5
-7
-8
-9
-10
-12
-16
-19
-14
-4
0
5
10
13
15
14
13
10
7
0
-15
-28
-36
-23
-16
-13
-10
-7
-5
-3
-1
1
2
4
6
7
8
9
10
12
14
16
13
8
3
-1
-6
-11
-12
-8
-1
4
8
12
17
21
24
26
25
24
22
20
17
12
3
10
19
26
26
19
14
10
6
4
4
6
8
10
12
13
16
18
20
21
20
19
18
17
16
15
13
10
8
9
12
18
23
27
31
36
40
45
49
52
55
59
64
69
73
77
80
83
86
89
91
93
94
93
91
88
85
80
74
65
56
47
39
31
24
16
7
-3
-13
-20
-26
-31
-31
-30
-28
-26
-24
-23
-26
-33
-39
-46
-47
-43
-36
-37
-46
-51
-53
-47
-30
18
130
304
551
877
1231
1549
1784
1847
1760
1511
1157
761
401
122
-67
-165
-215
-239
-259
-261
-233
-245
-249
-248
-242
-235
-228
-217
-201
-185
-177
-171
-168
-166
-169
-175
-186
-196
-201
-205
-203
-195
-191
-189
-187
-184
-181
-177
-173
-169
-164
-159
-152
-144
-136
-128
-123
-119
-114
-109
-105
-101
-97
-94
-91
-87
-83
-79
-75
-70
-66
-59
-50
-41
-32
-22
-11
-1
12
29
37
42
45
48
50
54
57
59
62
66
74
91
98
101
104
107
108
110
111
112
113
112
112
110
108
105
102
99
95
91
86
82
77
72
68
64
62
60
59
59
58
58
57
56
55
55
57
58
60
62
63
64
65
67
69
70
71
72
72
72
72
71
70
68
66
65
64
64
64
64
63
63
62
61
60
59
58
56
55
53
52
51
51
51
50
49
47
46
45
47
50
53
56
58
60
64
67
69
70
72
73
72
70
67
63
57
51
44
37
24
11
3
-3
-16
-37
-51
-59
-65
-71
-76
-80
-89
-99
-87
-76
-70
-64
-58
-51
-43
-34
-23
-18
-22
-33
-50
-73
-90
-101
-90
-59
52
233
478
788
1121
1443
1685
1738
1678
1445
1080
685
339
71
-122
-233
-283
-300
-291
-262
-221
-206
-197
-188
-179
-179
-188
-196
-201
-206
-208
-204
-195
-187
-182
-178
-173
-168
-164
-160
-158
-156
-154
-152
-149
-147
-146
-145
-143
-140
-136
-132
-128
-123
-120
-115
-110
-105
-102
-100
-98
-96
-93
-89
-84
-78
-71
-61
-47
-31
-19
-10
-4
1
6
14
25
39
48
53
57
62
66
71
75
78
80
83
86
89
92
94
96
97
98
98
98
96
94
91
89
86
82
78
73
63
45
38
34
31
28
26
26
29
36
46
65
92
113
138
166
192
218
247
279
306
329
351
384
425
474
536
612
698
789
885
979
1062
1103
1117
1096
1034
918
771
618
479
344
290
270
250
201
121
26
-77
-173
-233
-255
-255
-240
-228
-219
-211
-202
-195
-188
-179
-168
-158
-150
-143
-129
-114
-105
-99
-104
-115
-110
-91
-79
-79
-87
-97
-106
-92
-72
-57
-75
-93
-106
-117
-125
-131
-138
-146
-145
-132
-122
-115
-108
-99
-89
-79
-68
-53
-42
-35
-22
2
37
68
81
87
93
98
102
104
106
107
108
108
108
108
107
105
103
101
99
96
92
89
83
72
62
54
45
33
20
9
0
-5
-7
-8
-9
-10
-11
-11
-11
-11
-11
-11
-11
-11
-12
-12
-11
-12
-12
-14
-15
-16
-17
-18
-18
-19
-23
-26
-26
-26
-26
-27
-28
-29
-30
-31
-33
-34
-35
-36
-37
-38
-38
-38
-40
-40
-41
-42
-44
-45
-47
-50
-53
-53
-47
-39
-33
-27
-21
-18
-18
-20
-23
-25
-27
-29
-31
-33
-35
-37
-39
-39
-40
-40
-39
-37
-36
-34
-32
-30
-27
-22
-15
-9
-4
2
8
1
-3
-7
-9
-14
-18
-23
-29
-37
-38
-32
-28
-25
-23
-19
-16
-14
-11
-6
2
11
16
20
23
21
15
8
5
3
0
-2
-5
-7
-10
-12
-13
-15
-16
-19
-22
-28
-36
-26
-9
2
8
12
11
3
-3
-8
-14
-23
-33
-40
-48
-55
-61
-64
-62
-59
-54
-50
-47
-45
-43
-40
-37
-34
-31
-29
-27
-26
-23
-18
-10
10
32
45
36
28
21
19
22
27
32
36
41
48
55
60
64
69
73
75
76
74
70
66
62
58
53
47
40
33
26
19
11
5
3
2
1
0
-1
0
4
10
16
22
27
27
21
11
-5
-23
-36
-34
-1
80
216
417
681
1018
1365
1667
1821
1825
1696
1410
1045
666
342
102
-53
-149
-211
-234
-251
-244
-220
-210
-203
-196
-190
-186
-182
-179
-176
-173
-170
-167
-165
-164
-163
-162
-160
-157
-154
-151
-148
-148
-153
-157
-160
-163
-166
-169
-169
-165
-159
-152
-142
-128
-120
-114
-110
-105
-98
-91
-88
-85
-82
-79
-77
-75
-73
-71
-70
-69
-67
-65
-64
-62
-54
-37
-18
-4
1
3
5
7
8
11
15
18
22
27
33
41
49
56
63
69
75
80
85
90
95
100
103
107
111
113
115
115
114
112
109
105
99
90
76
69
65
63
61
58
56
55
55
56
57
58
59
59
61
63
65
68
70
72
73
74
75
77
78
78
78
79
81
82
83
83
82
81
79
78
76
74
71
67
64
61
58
55
49
40
34
31
29
26
23
18
18
25
29
32
35
37
39
42
44
46
48
50
53
54
55
56
59
62
64
66
67
66
63
58
53
46
35
16
0
-10
-17
-23
-28
-33
-38
-44
-49
-56
-65
-72
-76
-79
-82
-86
-88
-83
-74
-67
-60
-54
-52
-53
-58
-66
-92
-128
-141
-140
-121
-70
53
246
513
855
1224
1576
1798
1829
1763
1498
1123
728
378
96
-112
-235
-276
-290
-283
-259
-226
-218
-213
-210
-207
-203
-200
-197
-193
-191
-189
-188
-188
-187
-186
-184
-182
-180
-177
-175
-174
-173
-171
-169
-167
-166
-164
-161
-158
-153
-143
-134
-130
-128
-120
-121
-134
-141
-130
-116
-103
-92
-84
-75
-65
-53
-44
-38
-32
-26
-21
-16
-12
-6
6
28
44
54
60
66
71
74
77
79
81
82
84
85
86
87
87
88
89
89
89
89
88
87
85
83
83
82
79
77
74
71
68
65
61
51
42
37
33
28
22
19
23
31
45
67
89
116
146
173
217
256
271
285
318
359
383
423
463
513
576
650
729
805
872
927
945
954
944
879
772
635
490
356
220
176
164
153
139
120
57
-49
-164
-259
-302
-316
-300
-277
-258
-245
-234
-224
-216
-208
-195
-175
-155
-133
-113
-99
-87
-79
-74
-69
-65
-62
-55
-56
-66
-69
-73
-77
-82
-88
-94
-100
-106
-113
-118
-122
-125
-128
-132
-136
-138
-139
-136
-130
-123
-114
-100
-86
-67
-45
-29
-17
0
16
33
49
63
74
84
91
95
98
101
103
105
106
106
106
104
101
97
92
86
76
58
44
31
18
11
6
3
0
-2
-5
-9
-14
-20
-27
-33
-38
-43
-48
-48
-45
-44
-42
-40
-39
-39
-40
-40
-42
-44
-47
-48
-49
-52
-54
-55
-56
-56
-57
-57
-57
-56
-56
-56
-55
-54
-54
-54
-54
-54
-54
-55
-55
-55
-55
-57
-58
-58
-59
-60
-61
-61
-61
-63
-64
-65
-65
-66
-68
-70
-72
-77
-69
-60
-52
-41
-33
-26
-22
-22
-26
-34
-42
-51
-52
-48
-45
-41
-38
-36
-34
-32
-30
-30
-31
-33
-35
-41
-39
-29
-26
-23
-22
-21
-19
-17
-15
-13
-10
-7
-3
-1
1
4
8
12
14
15
14
12
9
5
3
1
-1
-5
-8
-9
-9
-10
-10
-9
-8
-7
-1
0
-6
-2
21
22
12
8
6
4
2
0
-1
-2
-3
-10
-9
-2
0
1
2
2
3
4
5
6
8
11
13
14
15
16
18
19
21
23
26
27
30
32
35
38
41
44
48
52
59
73
84
90
94
98
101
103
103
101
98
93
87
81
72
65
61
57
50
36
23
14
8
2
-1
-5
-9
-12
-14
-21
-20
-11
-5
-6
-16
-26
-36
-37
-33
-27
-23
-29
-40
-39
-16
20
87
204
381
627
932
1235
1475
1624
1620
1445
1091
651
201
-162
-373
-430
-426
-346
-252
-222
-199
-183
-176
-171
-167
-164
-160
-157
-154
-153
-151
-149
-147
-146
-146
-145
-143
-142
-141
-140
-139
-138
-137
-136
-136
-136
-136
-135
-133
-129
-135
-143
-142
-133
-130
-126
-120
-114
-102
-86
-69
-57
-50
-45
-50
-54
-57
-59
-60
-62
-64
-66
-69
-75
-82
-69
-56
-46
-37
-28
-14
4
19
34
44
48
51
55
59
62
68
78
96
106
112
117
123
130
137
143
148
152
155
158
161
162
161
158
154
151
146
142
137
131
126
120
115
111
107
103
100
97
96
95
94
94
93
93
92
91
91
91
91
90
90
89
89
89
89
89
89
88
86
85
84
83
81
80
78
76
76
75
73
71
68
65
62
59
56
53
50
48
45
44
43
42
40
38
35
32
32
34
40
46
52
56
60
65
70
74
76
78
77
76
75
72
68
63
57
47
38
30
21
9
-3
-20
-41
-51
-57
-62
-66
-67
-68
-67
-65
-63
-60
-59
-57
-55
-54
-54
-53
-53
-53
-55
-56
-59
-63
-71
-85
-94
-100
-74
2
150
374
670
1015
1350
1647
1712
1689
1511
1183
816
460
152
-82
-232
-281
-297
-289
-268
-230
-222
-216
-212
-209
-206
-204
-203
-199
-197
-196
-194
-194
-193
-191
-189
-186
-182
-178
-174
-170
-165
-161
-156
-153
-151
-148
-146
-145
-143
-141
-138
-136
-134
-131
-129
-127
-124
-121
-117
-114
-110
-104
-95
-87
-81
-75
-69
-62
-56
-49
-40
-32
-23
-9
9
23
29
33
37
40
42
43
45
48
51
52
54
56
57
58
59
59
60
61
61
62
64
65
64
63
62
61
60
58
57
55
53
51
50
47
43
39
37
40
48
60
80
109
152
199
247
274
298
320
349
387
435
492
554
627
717
817
920
1015
1097
1161
1194
1205
1187
1134
1033
896
715
572
463
380
305
215
97
-30
-151
-247
-286
-299
-281
-269
-263
-259
-255
-251
-248
-245
-242
-239
-235
-232
-229
-226
-221
-215
-208
-201
-193
-187
-182
-179
-176
-173
-171
-169
-168
-167
-166
-165
-164
-162
-160
-158
-157
-156
-154
-153
-151
-150
-148
-146
-143
-138
-133
-127
-123
-118
-113
-105
-92
-78
-65
-51
-31
-10
10
27
41
54
66
78
86
92
98
103
105
105
103
100
95
90
83
72
62
56
53
50
48
45
41
37
34
31
27
23
16
11
9
7
7
6
6
5
4
3
4
7
10
13
19
27
15
-4
-14
-16
-18
-20
-25
-32
-41
-50
-40
-31
-26
-21
-16
-11
-8
-4
2
10
3
-7
-14
-7
1
8
7
-4
-24
-36
-38
-39
-47
-55
-62
-62
-55
-46
-36
-25
-18
-14
-11
-9
-6
-4
-3
-1
1
9
6
-13
-23
-16
-6
1
-2
-6
-9
-10
-7
0
8
16
9
1
-5
0
14
-9
-4
11
18
24
26
27
27
29
31
32
29
21
6
6
19
25
29
32
34
34
35
37
40
45
41
37
34
32
31
31
32
34
37
39
41
43
40
36
31
25
26
34
40
46
50
50
47
42
37
31
25
19
12
5
6
19
27
32
37
41
44
46
46
46
46
47
48
48
48
48
48
49
54
61
67
74
81
87
91
95
98
101
102
103
101
100
97
93
89
85
78
70
62
54
49
45
40
35
30
25
17
10
2
-8
-17
-23
-28
-33
-40
-47
-52
-62
-56
-26
-10
-22
-36
-47
-52
-46
-28
19
134
318
594
965
1317
1623
1786
1865
1695
1332
868
387
-30
-323
-443
-457
-406
-293
-243
-238
-259
-232
-223
-217
-216
-217
-219
-222
-224
-226
-229
-231
-231
-229
-226
-221
-216
-210
-205
-202
-199
-195
-191
-187
-182
-176
-173
-170
-167
-165
-163
-162
-161
-160
-159
-158
-158
-157
-155
-151
-151
-155
-162
-157
-141
-135
-129
-121
-112
-97
-77
-63
-55
-63
-73
-81
-68
-52
-41
-44
-48
-51
-50
-42
-30
-18
-12
-9
-4
5
17
26
34
40
46
50
54
58
61
65
72
78
78
72
65
61
58
54
51
48
45
41
38
35
33
31
28
26
24
20
16
13
12
13
15
19
22
23
23
25
26
27
29
30
32
33
34
34
36
36
37
37
36
36
35
35
36
37
37
38
39
40
41
42
42
40
37
