13
15
17
19
21
22
23
25
25
25
24
24
26
38
47
39
24
12
0
-12
-22
-30
-38
-47
-56
-65
-73
-80
-86
-92
-95
-94
-91
-87
-82
-78
-73
-69
-67
-71
-80
-90
-102
-118
-128
-135
-138
-140
-142
-144
-146
-149
-152
-154
-155
-157
-158
-159
-160
-161
-162
-165
-170
-175
-175
-168
-156
-137
-110
-85
-62
-40
-15
0
6
11
16
22
26
31
38
54
81
108
129
140
148
152
147
136
123
108
99
93
88
85
85
94
106
115
122
130
136
142
148
154
161
167
173
178
184
191
199
207
214
219
223
228
232
236
240
243
245
246
247
246
245
244
241
238
233
228
223
214
198
184
167
143
117
97
90
87
84
81
80
78
77
77
76
75
73
73
73
74
73
72
71
70
68
64
56
68
106
166
242
326
407
471
508
519
507
471
395
303
209
121
46
3
-8
-15
-23
-31
-37
-45
-58
-77
-93
-107
-119
-129
-139
-152
-167
-184
-199
-211
-219
-226
-230
-233
-236
-239
-241
-244
-246
-249
-253
-255
-256
-256
-256
-257
-258
-260
-262
-265
-268
-272
-276
-280
-285
-289
-293
-297
-301
-307
-314
-318
-319
-318
-314
-309
-304
-298
-289
-281
-278
-276
-273
-269
-266
-271
-281
-290
-299
-306
-306
-299
-289
-275
-258
-246
-238
-231
-225
-224
-226
-230
-233
-236
-238
-240
-239
-234
-227
-220
-215
-210
-206
-201
-196
-192
-188
-185
-184
-183
-183
-183
-184
-184
-184
-184
-183
-182
-181
-180
-178
-175
-172
-167
-162
-157
-150
-138
-127
-116
-108
-102
-96
-90
-83
-77
-71
-64
-54
-40
-32
-28
-26
-24
-23
-21
-19
-18
-18
-18
-18
-18
-19
-19
-20
-19
-17
-15
-12
-9
-6
-4
-2
0
1
4
6
9
14
19
25
30
34
39
44
51
59
70
81
92
104
120
135
142
145
146
148
150
152
155
159
163
168
173
177
182
187
193
203
214
221
223
225
227
229
232
234
236
236
236
235
232
227
221
215
208
196
184
171
151
122
104
94
86
77
68
58
48
36
26
16
8
2
-3
-8
-12
-17
-21
-24
-28
-32
-39
-50
-51
-39
-6
65
158
259
355
428
459
470
453
401
326
236
143
58
-12
-40
-51
-52
-46
-37
-29
-50
-75
-95
-103
-108
-111
-114
-115
-110
-101
-90
-85
-80
-76
-71
-66
-61
-57
-53
-50
-48
-47
-48
-49
-51
-52
-52
-53
-55
-55
-55
-54
-53
-51
-50
-50
-48
-45
-42
-38
-34
-30
-26
-22
-17
-12
-7
-2
3
8
14
19
26
39
50
58
66
75
79
72
61
55
49
43
39
36
36
37
40
44
50
57
70
70
55
45
38
32
28
27
29
32
37
43
49
59
67
67
60
51
45
40
37
35
34
35
38
44
52
68
92
101
105
106
107
107
109
112
116
120
124
128
132
136
139
143
148
154
159
165
169
172
173
174
175
176
175
173
172
169
166
163
162
163
164
166
167
168
170
172
175
176
177
175
171
166
160
154
149
143
135
128
120
112
104
95
84
72
61
51
44
38
32
27
24
23
25
27
29
30
32
34
38
41
43
43
42
41
40
39
38
37
35
34
33
33
33
35
36
39
42
45
48
50
54
61
65
59
47
33
17
5
-3
-10
-16
-18
-17
-14
-10
-6
0
2
-5
-21
-41
-64
-77
-85
-93
-98
-98
-89
-74
-49
-13
42
120
227
356
479
553
560
518
394
228
64
-56
-98
-113
-97
-77
-62
-62
-78
-95
-114
-125
-129
-131
-132
-133
-135
-136
-138
-139
-139
-140
-141
-141
-141
-141
-140
-139
-138
-135
-133
-130
-127
-123
-120
-116
-104
-85
-78
-74
-71
-69
-71
-77
-86
-99
-117
-122
-127
-132
-133
-132
-131
-129
-128
-127
-127
-129
-131
-133
-136
-142
-140
-123
-107
-91
-81
-73
-67
-61
-57
-56
-59
-67
-75
-82
-90
-96
-101
-104
-105
-107
-110
-115
-117
-109
-96
-90
-87
-84
-82
-78
-74
-70
-67
-66
-65
-64
-65
-65
-66
-67
-68
-69
-70
-70
-70
-69
-70
-73
-76
-80
-84
-89
-93
-94
-94
-92
-90
-88
-87
-86
-83
-81
-78
-75
-71
-67
-63
-60
-57
-54
-51
-47
-43
-38
-32
-27
-22
-18
-14
-10
-5
3
18
26
31
35
39
38
31
23
18
12
7
2
-1
-1
0
1
4
6
9
11
14
18
21
25
30
34
37
41
45
48
48
45
39
33
27
18
11
12
23
36
45
53
62
69
73
75
74
72
69
66
61
51
53
76
90
102
111
117
118
114
108
101
90
74
67
64
62
58
55
52
50
49
48
48
48
48
49
50
53
56
59
61
63
65
67
72
78
85
94
108
156
235
349
490
635
747
791
739
610
435
261
140
113
105
99
89
80
73
67
62
56
51
46
41
36
32
28
25
23
22
21
19
17
13
9
5
2
0
-4
-7
-10
-12
-13
-14
-15
-17
-19
-21
-24
-26
-29
-32
-35
-37
-38
-38
-37
-36
-35
-33
-32
-30
-28
-26
-24
-22
-20
-18
-15
-12
-8
-4
0
4
7
11
15
18
22
25
28
31
34
36
37
38
38
37
34
31
27
23
20
16
10
4
0
-3
0
5
14
22
29
35
42
48
53
56
57
57
58
58
59
62
64
65
63
57
51
45
37
32
40
53
57
60
62
65
67
69
71
73
75
77
78
80
81
82
82
82
81
80
80
80
81
82
82
83
84
85
86
86
87
87
87
87
87
88
88
89
95
101
102
97
91
87
84
81
77
74
70
67
63
61
59
59
59
59
60
60
60
59
59
58
56
54
52
51
50
49
48
48
47
47
47
48
48
48
47
45
43
41
37
34
33
34
37
41
44
50
53
47
34
22
10
-4
-21
-33
-42
-50
-57
-62
-65
-68
-71
-74
-76
-78
-80
-82
-83
-85
-87
-90
-94
-96
-99
-102
-104
-107
-110
-115
-125
-134
-134
-123
-99
-26
121
308
481
549
540
424
244
55
-86
-128
-143
-123
-87
-61
-51
-46
-41
-41
-49
-59
-64
-66
-70
-73
-77
-80
-84
-89
-93
-95
-97
-99
-101
-103
-106
-113
-119
-118
-106
-93
-83
-75
-66
-61
-60
-62
-67
-75
-85
-101
-108
-113
-119
-122
-122
-119
-117
-113
-111
-117
-130
-138
-146
-153
-157
-157
-154
-151
-149
-148
-146
-145
-143
-142
-139
-137
-135
-132
-130
-128
-127
-126
-125
-124
-123
-119
-111
-106
-108
-114
-118
-121
-124
-126
-125
-118
-110
-102
-97
-92
-87
-82
-78
-74
-72
-71
-72
-73
-75
-77
-80
-84
-90
-101
-127
-147
-160
-165
-159
-145
-123
-95
-70
-46
-23
-4
4
12
12
2
-4
-9
-14
-18
-18
-16
-11
-6
-2
2
6
9
10
9
6
4
1
-1
-3
-5
-7
-8
-9
-10
-10
-9
-7
-3
0
2
5
8
10
14
18
21
24
26
29
32
34
36
36
36
36
35
35
34
34
34
34
35
35
34
32
44
54
62
67
71
74
78
83
86
82
73
62
48
32
23
18
13
9
6
5
6
8
11
14
18
22
29
42
54
60
64
67
70
73
76
79
83
85
88
91
94
97
101
108
115
118
115
107
98
88
73
73
84
111
191
309
459
625
777
862
864
789
610
387
173
20
-24
-20
44
107
128
121
101
53
7
-8
-11
-13
-14
-16
-16
-12
-8
-5
-1
1
4
4
0
-4
-10
-14
-19
-23
-27
-30
-32
-32
-30
-26
-21
-15
-10
-4
0
7
14
22
29
33
37
41
44
48
52
56
58
60
62
64
66
69
75
85
92
96
99
102
105
107
107
106
104
102
99
95
92
88
85
82
80
78
75
72
69
66
63
61
58
54
50
46
42
38
33
28
21
15
11
11
14
19
24
30
42
42
29
12
-14
-31
-41
-48
-50
-46
-37
-25
-1
21
29
35
34
20
-1
-25
-44
-60
-67
-73
-76
-68
-52
-42
-31
-21
-15
-14
-17
-22
-29
-35
-43
-50
-52
-51
-49
-47
-45
-44
-42
-41
-41
-42
-43
-45
-47
-52
-52
-42
-27
-9
0
6
10
11
4
-4
-11
-20
-28
-32
-31
-26
-19
-6
5
11
16
16
10
6
3
1
0
0
5
10
14
17
19
22
25
28
31
33
35
35
36
36
34
31
27
23
18
13
9
4
-6
-17
-30
-37
-43
-48
-52
-55
-56
-55
-53
-49
-45
-41
-38
-34
-30
-26
-22
-19
-16
-13
-11
-9
-4
13
60
129
231
366
510
633
679
669
570
404
227
81
11
3
35
74
87
74
61
53
45
37
27
8
-12
-21
-27
-32
-35
-33
-28
-23
-21
-19
-18
-16
-14
-12
-11
-11
-12
-13
-15
-16
-17
-19
-22
-24
-24
-21
-15
-8
-1
3
7
13
18
22
26
29
32
34
37
41
45
49
53
57
62
67
73
78
83
86
89
92
94
96
98
99
100
101
102
103
104
104
104
103
102
101
99
97
94
90
87
83
80
78
75
73
71
69
67
65
62
58
53
48
44
40
36
32
28
25
23
22
21
20
17
15
12
10
8
7
6
5
5
6
7
9
11
12
13
13
14
16
18
19
19
20
20
21
22
23
23
22
21
21
21
22
23
25
26
27
28
29
30
30
30
31
31
31
31
32
33
35
37
39
40
41
41
41
42
44
45
46
48
54
54
42
35
29
24
19
17
19
24
30
34
36
38
42
46
51
55
59
61
63
64
65
65
64
63
61
59
58
58
58
59
59
58
58
57
56
52
48
46
47
50
56
64
45
15
-16
-36
-48
-54
-57
-58
-62
-67
-48
-27
-11
-3
-9
-23
-38
-58
-81
-99
-115
-123
-117
-101
-53
35
164
322
484
596
607
552
381
173
-7
-100
-134
-136
-120
-102
-85
-83
-100
-125
-153
-168
-177
-182
-182
-178
-174
-173
-173
-171
-168
-165
-163
-162
-159
-157
-155
-153
-151
-151
-150
-150
-149
-148
-147
-145
-144
-143
-141
-139
-137
-135
-134
-132
-130
-127
-123
-120
-116
-113
-109
-106
-102
-98
-91
-84
-77
-70
-64
-60
-55
-51
-48
-45
-42
-40
-38
-37
-35
-33
-32
-30
-29
-28
-28
-28
-29
-30
-32
-34
-36
-38
-41
-43
-46
-49
-51
-55
-59
-63
-66
-70
-74
-78
-82
-87
-90
-94
-97
-101
-105
-111
-117
-122
-126
-130
-136
-142
-147
-151
-151
-149
-146
-143
-141
-137
-129
-130
-146
-156
-163
-170
-175
-178
-178
-174
-168
-162
-155
-149
-142
-134
-127
-122
-117
-114
-111
-108
-106
-103
-101
-100
-98
-95
-92
-89
-86
-84
-81
-78
-74
-64
-35
-18
-11
-6
-1
2
7
13
20
26
31
36
40
43
46
50
54
57
61
64
67
70
74
78
81
83
86
89
93
99
105
110
117
125
134
143
152
161
169
177
187
200
209
215
221
228
231
225
212
196
177
159
150
145
140
135
130
126
121
117
113
109
105
102
99
95
92
88
83
78
72
68
64
60
56
51
47
41
27
20
26
40
81
181
324
493
659
778
792
743
561
323
99
-48
-71
-58
-5
24
34
40
43
46
46
43
38
33
29
22
17
17
26
36
44
51
58
63
64
62
58
54
50
49
48
46
44
41
39
38
36
34
32
30
28
27
26
27
27
28
29
30
31
31
32
33
35
37
38
40
43
45
48
54
68
76
80
83
87
90
92
93
94
95
95
95
94
92
88
84
80
77
73
68
61
48
39
35
32
30
28
26
23
21
18
14
8
1
-7
-22
-29
-32
-35
-38
-41
-44
-48
-53
-59
-68
-81
-94
-102
-108
-113
-116
-117
-116
-114
-112
-110
-109
-107
-106
-104
-101
-99
-97
-95
-93
-91
-90
-88
-86
-84
-81
-78
-74
-70
-66
-62
-57
-52
-47
-43
-39
-36
-33
-30
-27
-23
-20
-17
-15
-13
-11
-9
-7
-4
-2
0
2
6
10
13
14
15
15
15
16
17
19
20
17
12
5
0
-5
-11
-14
-12
-7
-2
0
2
4
6
7
9
10
11
13
14
16
17
17
18
18
19
19
19
19
18
17
15
14
13
11
8
5
2
-1
-4
-7
-11
-21
-31
-38
-44
-49
-52
-56
-60
-64
-66
-67
-65
-62
-58
-53
-48
-40
-34
-33
-39
-48
-59
-73
-75
-63
-30
61
204
377
548
674
714
652
499
298
106
-28
-71
-72
-35
-1
9
0
-8
-13
-18
-26
-35
-54
-75
-83
-87
-90
-93
-94
-93
-92
-90
-88
-85
-80
-75
-65
-49
-42
-40
-38
-36
-35
-35
-35
-35
-36
-36
-36
-36
-36
-36
-36
-35
-34
-33
-31
-29
-27
-25
-22
-19
-12
0
6
8
10
12
14
16
18
20
22
23
25
26
27
28
30
32
34
34
32
28
25
23
22
20
18
15
13
11
9
7
6
5
5
5
5
5
5
4
3
1
-3
-6
-4
-1
3
8
-4
-14
-20
-25
-29
-31
-31
-28
-23
-17
-11
-3
9
10
-1
-9
-15
-20
-24
-26
-25
-21
-17
-11
0
15
27
34
22
13
7
2
-1
-2
-1
2
8
15
28
48
60
68
68
60
56
53
50
47
45
44
43
42
42
41
41
41
41
42
41
38
36
38
41
43
45
45
46
47
48
49
49
48
47
45
43
43
42
40
39
38
38
41
45
49
52
54
55
57
60
62
64
65
67
68
70
71
72
73
73
73
73
74
75
79
81
81
76
69
61
49
38
29
21
15
10
6
2
0
-3
-6
-8
-10
-12
-13
-15
-16
-17
-17
-16
-16
-15
-13
-11
-7
5
50
120
209
312
422
517
557
551
481
340
168
16
-72
-94
-89
-43
4
22
22
7
-13
-41
-60
-72
-78
-73
-65
-60
-55
-51
-49
-49
-51
-55
-60
-65
-72
-75
-70
-60
-49
-36
-28
-19
-2
17
42
56
63
69
73
76
78
80
81
83
84
86
87
89
91
93
95
98
100
102
104
108
113
125
147
172
186
191
195
194
184
169
151
134
111
91
77
72
77
87
95
102
108
111
108
102
93
76
54
22
-12
-28
-38
-45
-34
-15
1
10
16
19
14
2
-15
-38
-52
-61
-67
-70
-73
-75
-78
-81
-84
-88
-92
-97
-101
-107
-112
-117
-121
-124
-129
-134
-139
-142
-140
-134
-127
-120
-114
-108
-105
-106
-109
-112
-115
-121
-124
-120
-110
-101
-93
-86
-82
-79
-74
-68
-66
-67
-69
-70
-72
-73
-70
-64
-57
-54
-51
-48
-45
-42
-39
-37
-36
-36
-37
-38
-40
-42
-45
-48
-51
-55
-61
-67
-74
-79
-84
-88
-91
-91
-90
-87
-83
-80
-75
-72
-70
-71
-72
-75
-77
-80
-83
-85
-83
-79
-71
-58
-41
-34
-28
-26
-29
-38
-48
-61
-71
-84
-99
-107
-111
-114
-117
-121
-125
-130
-135
-142
-153
-171
-182
-190
-198
-201
-197
-188
-173
-151
-137
-127
-123
-129
-141
-153
-168
-169
-157
-125
-44
74
225
395
546
621
618
525
338
121
-63
-163
-180
-166
-104
-48
-31
-27
-24
-25
-39
-61
-82
-92
-99
-102
-97
-85
-68
-44
-20
-5
0
3
4
0
-8
-17
-27
-34
-39
-45
-51
-40
-21
-5
1
6
10
11
10
7
4
0
-5
-9
-3
7
15
23
29
32
31
26
20
13
3
2
13
29
52
75
89
91
94
96
96
89
84
79
76
75
78
83
87
88
89
90
90
91
92
93
95
96
97
98
97
96
95
92
90
88
86
84
82
82
81
81
81
82
82
82
81
81
79
77
74
72
71
69
68
67
66
65
64
64
63
63
61
59
57
55
54
53
51
51
50
48
48
47
46
44
43
42
41
39
37
36
34
32
31
30
30
29
29
28
27
26
24
22
20
18
15
13
10
7
6
5
5
5
4
3
1
0
-2
-5
-8
-11
-14
-15
-16
-17
-17
-17
-17
-16
-15
-15
-15
-15
-15
-15
-14
-13
-12
-12
-12
-11
-11
-10
-10
-10
-11
-10
-10
-8
-7
-5
-4
-3
-2
-1
-1
-2
-4
-7
-11
-15
-18
-21
-25
-35
-62
-83
-95
-101
-103
-106
-110
-112
-108
-97
-84
-68
-63
-57
-53
-67
-90
-119
-143
-160
-161
-145
-103
0
154
337
500
599
605
541
391
221
72
-32
-62
-71
-75
-80
-83
-87
-93
-100
-99
-86
-76
-67
-59
-59
-68
-80
-89
-99
-106
-109
-104
-93
-81
-71
-61
-52
-45
-42
-39
-37
-36
-35
-34
-33
-33
-32
-31
-30
-30
-30
-30
-30
-30
-30
-31
-31
-31
-32
-31
-30
-28
-26
-23
-21
-18
-15
-11
-8
-5
-3
-1
2
8
15
23
31
36
39
43
46
49
53
56
61
64
63
54
43
35
27
19
13
10
12
15
20
25
31
41
46
43
36
31
27
23
21
22
25
30
37
43
49
57
64
69
68
62
52
42
33
22
13
8
9
10
12
14
15
15
16
18
21
25
29
30
32
34
36
38
41
41
41
41
40
40
39
38
37
37
36
36
38
39
41
42
44
46
48
50
52
54
56
60
72
80
74
63
52
40
31
22
13
2
-2
4
17
23
26
30
33
36
39
42
45
48
50
52
53
53
53
53
53
53
54
56
58
61
64
67
70
73
74
75
75
74
72
69
67
64
62
59
57
54
50
45
39
33
27
21
15
10
4
0
-4
-9
-14
-19
-22
-22
-20
-16
-9
-3
4
17
24
17
3
-12
-31
-36
-42
-35
11
103
241
402
557
672
696
680
569
405
225
69
-13
-41
-27
16
62
79
78
63
41
7
-26
-49
-60
-65
-69
-73
-75
-77
-80
-84
-87
-91
-95
-99
-103
-106
-110
-114
-120
-126
-131
-134
-137
-139
-143
-148
-152
-153
-149
-142
-133
-127
-123
-119
-114
-109
-103
-98
-94
-89
-84
-79
-73
-68
-64
-60
-54
-46
-39
-32
-28
-25
-23
-20
-15
-7
3
19
29
36
43
49
53
55
54
52
49
44
37
28
45
57
65
72
77
80
79
77
74
70
66
58
54
57
64
68
73
77
80
81
79
75
71
67
60
56
60
68
75
82
88
87
77
65
58
53
48
44
39
34
30
26
23
21
18
15
11
8
4
0
-2
-6
-11
-15
-20
-24
-26
-28
-30
-32
-33
-34
-35
-36
-39
-41
-44
-47
-49
-50
-51
-52
-53
-54
-55
-55
-57
-60
-65
-70
-74
-75
-75
-73
-71
-69
-66
-60
-56
-58
-64
-66
-68
-70
-71
-72
-72
-72
-70
-67
-61
-55
-50
-46
-43
-39
-35
-30
-26
-22
-19
-17
-14
-12
-10
-9
-8
-7
-6
-4
-2
0
1
3
3
3
1
-1
-5
-11
-16
-23
-31
-40
-48
-54
-60
-63
-66
-68
-70
-73
-75
-78
-80
-82
-84
-86
-88
-89
-90
-92
-99
-111
-100
-68
21
170
358
540
657
668
612
436
218
20
-110
-143
-154
-133
-116
-105
-97
-93
-93
-98
-105
-114
-127
-144
-150
-154
-159
-163
-162
-152
-137
-116
-94
-93
-92
-91
-89
-87
-87
-90
-94
-99
-107
-105
-88
-82
-79
-76
-74
-72
-70
-68
-67
-65
-63
-62
-59
-56
-54
-51
-49
-47
-45
-43
-41
-39
-37
-34
-32
-29
-26
-22
-18
-14
-10
-7
-5
-3
-1
0
1
1
3
9
14
13
5
-3
-10
-16
-22
-25
-25
-23
-19
-15
-11
-9
-6
-4
-1
0
2
3
4
5
6
6
5
4
3
1
1
0
0
0
-3
-7
-9
-7
-1
4
8
11
15
19
22
25
26
26
25
22
19
16
9
11
26
34
40
46
51
55
57
58
57
56
54
53
50
45
41
44
51
55
58
62
64
66
66
66
67
66
64
60
55
50
45
41
38
36
33
30
27
25
23
21
18
16
14
12
10
10
9
9
9
9
11
12
14
16
18
20
22
25
27
29
31
33
35
38
42
47
52
57
61
65
68
71
73
76
79
82
88
93
93
87
78
68
58
48
39
35
32
30
28
26
25
23
21
19
17
16
15
14
13
13
12
11
9
6
-2
-2
12
51
122
233
384
556
716
797
791
678
457
219
29
-59
-72
-46
8
45
59
62
56
44
26
-3
-36
-59
-68
-75
-78
-70
-57
-45
-34
-25
-21
-19
-18
-17
-15
-14
-13
-11
-10
-9
-8
-7
-6
-6
-6
-6
-7
-7
-7
-7
-6
-5
-3
0
2
5
8
11
14
17
19
21
23
25
28
32
36
40
43
46
48
51
54
57
59
61
64
67
71
73
72
69
65
61
56
49
45
49
57
63
68
73
77
77
75
71
66
58
43
31
22
15
7
1
7
26
49
58
60
56
48
39
27
16
3
-17
-35
-48
-47
-33
-24
-16
-10
-6
-3
0
3
9
12
8
0
-3
-8
-12
-15
-17
-17
-15
-12
-7
0
9
12
16
19
10
3
0
-5
-7
-8
-5
-1
2
6
12
16
12
5
-2
-13
-20
-25
-30
-32
-33
-33
-30
-28
-24
-19
-20
-30
-39
-46
-53
-59
-64
-69
-75
-78
-77
-73
-68
-62
-61
-65
-68
-72
-73
-69
-60
-46
-26
-16
-13
-10
-7
-4
-1
1
3
5
8
12
21
44
65
79
79
71
60
42
21
0
-21
-41
-54
-63
-66
-62
-53
-43
-31
-31
-42
-59
-80
-100
-116
-126
-133
-133
-125
-104
-72
-55
-40
-24
1
52
137
258
405
550
657
686
623
488
314
143
23
-14
-27
-11
2
12
18
21
22
22
24
26
16
0
-19
-31
-38
-43
-43
-38
-29
-15
3
18
33
43
50
50
41
28
13
5
0
-3
-4
-4
-1
3
20
44
52
52
41
31
22
17
14
12
10
7
10
25
34
41
46
51
55
59
61
64
68
73
81
86
88
91
94
84
76
70
66
64
66
72
80
93
117
136
149
149
138
122
100
82
71
65
61
56
50
51
67
94
110
113
115
117
118
116
113
109
107
105
102
99
96
92
88
84
80
75
68
62
59
61
65
69
74
81
85
80
71
60
48
44
43
43
43
42
41
39
36
33
30
27
22
18
16
16
16
17
18
18
19
20
21
22
20
14
6
0
-7
-15
-24
-33
-39
-45
-49
-52
-56
-59
-62
-66
-69
-72
-75
-78
-81
-85
-88
-91
-94
-95
-97
-98
-98
-99
-99
-100
-100
-101
-102
-104
-105
-106
-104
-101
-97
-93
-89
-86
-82
-79
-75
-72
-68
-64
-60
-56
-52
-49
-46
-43
-41
-38
-36
-34
-32
-30
-27
-23
-19
-19
-26
-36
-47
-63
-73
-81
-88
-92
-88
-80
-74
-70
-65
-62
-61
-62
-67
-73
-80
-87
-97
-105
-106
-103
-96
-73
-20
65
192
350
512
634
670
605
454
260
70
-68
-116
-120
-88
-55
-45
-40
-37
-38
-41
-48
-55
-64
-76
-80
-81
-81
-82
-82
-83
-83
-84
-84
-84
-83
-83
-83
-82
-82
-82
-83
-83
-84
-84
-85
-85
-86
-87
-89
-90
-92
-95
-99
-101
-99
-94
-87
-77
-63
-53
-48
-44
-41
-38
-36
-33
-31
-28
-24
-19
-8
5
10
13
11
0
-5
-10
-13
-16
-17
-15
-12
-7
-1
7
20
25
28
32
33
27
13
0
-11
-19
-22
-25
-29
-35
-20
-8
-1
5
9
12
12
10
7
6
5
5
5
4
2
1
0
0
0
0
-1
-2
-3
-2
-1
-1
-1
-2
-3
-3
-3
-2
-1
-2
-3
-4
-4
-3
-1
0
1
2
3
5
6
8
10
11
13
14
17
22
26
30
31
30
29
26
23
18
12
0
0
15
28
38
47
53
58
62
68
75
79
75
67
60
52
47
50
57
61
66
70
72
69
62
54
48
39
32
28
31
36
41
44
48
53
57
60
62
63
63
61
59
57
54
47
48
61
70
77
84
88
89
87
81
74
64
48
34
26
20
14
9
4
0
-2
-4
-7
-10
-14
-17
-19
-19
-17
-16
-13
-10
-7
-2
2
3
-2
-11
-22
-35
-24
8
91
216
374
536
659
704
650
509
324
148
32
2
-7
0
8
15
18
12
0
-7
-14
-20
-26
-31
-36
-42
-48
-57
-68
-75
-76
-77
-79
-82
-80
-63
-57
-55
-52
-50
-48
-46
-44
-42
-41
-40
-40
-39
-39
-39
-39
-39
-39
-39
-38
-37
-36
-35
-33
-31
-29
-26
-24
-21
-19
-15
-4
6
20
29
36
42
46
48
45
40
33
25
17
5
-3
-4
1
10
22
37
47
53
58
61
62
59
51
39
24
2
-20
-36
-48
-58
-67
-75
-82
-87
-91
-96
-100
-103
-105
-105
-105
-104
-102
-100
-96
-91
-85
-78
-72
-64
-49
-36
-34
-38
-45
-51
-59
-68
-78
-89
-102
-100
-76
-64
-58
-51
-45
-39
-34
-30
-27
-24
-21
-19
-17
-17
-18
-20
-22
-23
-23
-23
-22
-21
-20
-18
-16
-14
-13
-12
-13
-14
-15
-16
-16
-16
-16
-16
-15
-14
-12
-10
-8
-8
-7
-7
-8
-8
-8
-7
-7
-8
-8
-8
-7
-5
-4
-3
-2
-1
-1
0
0
1
1
2
3
4
6
8
10
12
14
17
20
24
27
31
38
46
53
58
62
66
69
72
75
77
78
77
73
66
57
48
38
23
13
11
10
9
8
7
6
4
2
0
-2
-5
-8
-13
-19
-28
-45
-64
-80
-93
-100
-95
-80
-34
36
135
265
426
585
686
693
630
464
255
54
-100
-170
-177
-142
-93
-74
-56
-40
-23
-22
-37
-61
-83
-92
-98
-102
-101
-94
-85
-81
-79
-76
-73
-70
-66
-61
-58
-55
-52
-51
-49
-49
-49
-50
-51
-49
-47
-43
-40
-37
-35
-32
-30
-27
-25
-25
-26
-27
-27
-27
-25
-22
-20
-17
-14
-9
-4
1
6
10
12
14
16
18
21
24
26
28
30
33
35
36
37
36
35
35
35
36
36
36
36
36
37
38
39
40
41
43
49
53
48
38
31
25
20
16
15
17
20
25
30
38
51
49
31
24
22
19
16
14
12
10
8
6
5
3
1
0
0
1
1
2
3
4
5
6
7
7
6
6
5
4
4
4
5
5
5
5
5
5
5
5
4
3
1
0
-2
-3
-3
-3
-2
0
1
4
8
12
17
21
26
38
45
36
20
7
-6
-16
-23
-28
-34
-41
-46
-39
-27
-21
-17
-12
-7
-2
1
4
7
10
12
14
15
16
16
18
21
24
28
30
30
31
30
30
28
24
18
32
47
57
64
68
71
75
80
79
62
49
37
27
17
9
0
-10
-16
-13
-5
-1
1
4
7
8
9
10
10
9
8
5
2
-2
-7
-15
-29
-30
-22
2
67
171
306
453
585
651
647
561
384
197
58
22
10
27
51
68
53
28
-3
-16
-19
-23
-26
-28
-30
-32
-34
-36
-38
-39
-39
-39
-39
-39
-40
-40
-39
-39
-38
-38
-37
-35
-34
-32
-30
-28
-26
-25
-24
-23
-22
-21
-20
-19
-17
-13
-9
-5
0
3
7
11
13
14
15
16
16
17
18
19
20
23
26
29
33
36
38
39
41
43
46
50
61
80
90
98
97
81
63
44
33
25
19
14
13
14
18
23
28
36
40
37
29
26
24
22
20
19
17
14
10
6
1
-2
-6
-9
-14
-18
-22
-27
-32
-36
-41
-46
-50
-53
-55
-57
-59
-61
-66
-77
-83
-86
-92
-97
-81
-68
-59
-53
-49
-48
-52
-57
-63
-68
-76
-83
-83
-78
-70
-56
-39
-33
-29
-26
-24
-22
-21
-20
-21
-21
-22
-24
-27
-33
-23
-15
-10
-5
-1
0
0
-1
-4
-6
-10
-15
-19
-15
-8
-6
-4
-3
-2
-1
0
0
0
1
3
5
7
9
11
12
13
14
16
18
21
23
26
29
33
38
42
46
49
51
52
53
54
55
55
54
54
54
57
59
55
48
42
38
34
31
27
23
18
13
8
5
2
0
-2
-6
-11
-15
-18
-20
-22
-24
-26
-29
-31
-32
-36
-43
-41
-21
31
130
267
429
585
700
722
705
600
434
244
73
-50
-110
-129
-121
-95
-53
-33
-22
-16
-11
-10
-12
-17
-22
-26
-31
-36
-39
-38
-33
-24
-17
-11
-5
0
6
10
10
9
7
4
1
-2
-9
-14
-15
-6
6
16
29
38
38
32
23
13
0
-8
-14
-20
-24
-22
-10
4
10
14
18
22
26
29
33
37
40
42
44
45
45
45
44
42
41
39
38
36
34
32
30
29
27
25
23
21
20
18
16
14
12
9
6
3
2
1
0
0
0
0
0
0
0
0
-1
-3
-5
-6
-7
-9
-11
-13
-14
-15
-16
-17
-20
-24
-27
-28
-25
-20
-15
-11
-4
1
2
-3
-10
-17
-24
-30
-33
-30
-23
-15
-9
-3
4
10
12
12
11
9
6
3
-1
0
11
20
28
33
33
26
16
5
-10
-19
-26
-34
-33
-17
5
30
43
52
57
53
43
32
19
9
0
-7
-6
8
20
33
38
33
23
11
-2
-15
-24
-33
-37
-32
-21
11
39
47
53
56
58
57
55
51
47
43
36
32
37
46
51
56
61
65
67
67
64
60
55
50
43
33
22
11
0
-11
-25
-38
-48
-57
-65
-71
-73
-71
-68
-64
-60
-55
-51
-49
-52
-59
-67
-74
-83
-89
-86
-79
-60
-2
105
266
463
640
709
698
575
370
158
-6
-90
-101
-72
-13
19
30
16
-6
-34
-61
-79
-83
-87
-90
-79
-70
-65
-61
-59
-59
-62
-67
-72
-78
-85
-91
-91
-86
-77
-62
-43
-33
-26
-22
-22
-28
-37
-45
-54
-61
-62
-55
-47
-41
-34
-29
-25
-24
-26
-29
-34
-39
-47
-46
-31
-14
1
5
7
8
9
10
12
15
20
25
31
36
43
50
53
51
46
39
29
16
9
4
-1
-4
-1
3
6
9
11
14
16
18
21
23
24
25
24
22
20
17
15
12
10
7
5
4
3
4
3
3
2
0
0
-2
-3
-6
-8
-9
-10
-11
-11
-11
-11
-10
-8
-7
-4
-3
-2
-1
0
0
0
0
0
0
-1
-1
0
0
2
3
5
7
8
10
11
13
14
15
16
16
16
17
18
19
20
21
23
24
27
31
33
34
32
28
24
19
15
10
4
-1
-4
-3
-1
2
6
10
15
21
25
24
21
16
12
6
2
1
3
9
14
17
20
24
28
31
33
33
32
31
30
28
26
23
19
16
16
19
23
28
33
39
44
45
38
28
15
-2
-15
-21
-25
-27
-30
-33
-36
-38
-40
-41
-42
-42
-42
-41
-39
-38
-36
-33
-29
-24
-18
-11
23
82
165
267
380
484
550
558
527
421
276
136
37
-5
-22
-23
-17
-11
-5
-8
-21
-31
-39
-46
-49
-49
-47
-44
-41
-38
-39
-51
-57
-62
-66
-69
-69
-68
-65
-62
-59
-57
-55
-53
-50
-47
-43
-39
-36
-32
-29
-26
-23
-19
-16
-11
-2
6
11
8
2
-5
-13
-23
-31
-31
-24
-15
-10
-7
-3
0
4
8
12
15
19
22
24
27
30
33
40
46
44
33
19
9
0
-8
-14
-16
-15
-10
-4
1
7
16
24
25
18
9
2
-5
-12
-16
-15
-12
-8
-4
0
4
10
13
10
3
-4
-11
-18
-24
-27
-25
-20
-15
-12
-10
-7
-5
-3
-1
1
3
7
10
13
16
18
19
20
21
22
23
24
25
27
30
33
36
38
40
41
42
43
43
43
43
43
44
45
50
54
49
38
31
23
16
14
17
24
35
54
71
75
78
80
80
75
67
60
53
47
44
46
51
56
60
65
70
71
68
60
52
46
40
34
29
27
30
35
42
47
50
52
54
57
60
63
66
69
72
75
78
80
81
81
81
79
76
73
71
69
67
65
63
60
56
53
49
42
34
25
16
8
2
-3
-8
-12
-17
-21
-24
-26
-28
-30
-33
-35
-37
-39
-40
-41
-42
-46
-54
-54
-39
-2
69
177
317
472
603
645
630
512
332
151
17
-38
-42
-6
30
42
29
6
-22
-38
-45
-51
-55
-58
-60
-61
-62
-63
-64
-64
-65
-66
-67
-70
-72
-69
-63
-62
-61
-60
-59
-57
-55
-54
-52
-50
-49
-48
-48
-50
-53
-56
-59
-62
-65
-69
-74
-77
-80
-82
-83
-85
-87
-89
-91
-92
-93
-94
-95
-97
-98
-99
-100
-101
-101
-101
-101
-100
-99
-98
-97
-97
-97
-97
-97
-98
-98
-98
-99
-99
-100
-101
-101
-102
-102
-103
-103
-103
-104
-105
-105
-106
-106
-105
-104
-102
-100
-97
-95
-92
-89
-86
-82
-80
-78
-77
-77
-76
-76
-75
-75
-75
-75
-74
-73
-75
-79
-82
-85
-88
-89
-89
-84
-77
-71
-68
-64
-60
-56
-52
-49
-47
-46
-44
-43
-41
-40
-39
-39
-38
-36
-33
-29
-25
-21
-17
-13
-9
-3
0
3
3
1
-2
-6
-10
-12
-14
-18
-20
-22
-22
-22
-21
-20
-18
-15
-12
-8
-5
-3
0
1
4
7
10
12
13
13
13
12
11
10
9
8
6
5
4
4
3
2
-2
0
16
36
55
66
70
72
75
78
81
83
85
86
86
86
86
85
83
80
77
75
72
68
64
58
46
32
25
19
13
9
7
8
12
16
21
27
35
40
36
27
21
14
6
0
-4
-13
-22
-9
30
103
202
331
482
631
727
734
673
508
310
142
36
7
10
36
54
62
68
70
71
66
56
38
17
5
-2
-6
-2
4
9
13
16
18
21
23
24
25
27
28
29
31
35
39
38
32
25
21
18
15
13
10
7
5
4
3
2
2
1
0
-1
-6
-3
11
21
28
33
38
41
41
41
40
38
35
31
26
46
63
74
82
86
83
76
68
56
41
32
23
16
17
32
56
74
81
85
72
49
26
14
6
1
1
4
10
27
56
66
69
65
54
36
16
0
-13
-23
-30
-20
-3
13
23
30
30
22
9
-7
-25
-41
-54
-62
-53
-37
-18
-4
4
8
5
-1
-9
-20
-30
-38
-47
-47
-37
-23
-9
-5
-3
-1
0
1
2
3
4
5
6
6
7
7
7
7
7
7
7
7
7
7
7
7
7
6
6
4
3
0
-5
-9
-6
0
1
2
4
5
7
8
9
10
11
11
10
9
8
6
4
2
0
-1
-4
-8
-12
-11
-5
2
8
15
21
23
22
20
17
14
10
7
8
14
24
42
54
56
56
57
58
58
56
53
48
40
20
1
-9
-19
-28
-41
-58
-68
-75
-77
-74
-67
-63
-59
-56
-53
-51
-51
-52
-54
-56
-59
-63
-71
-71
-54
-5
79
203
359
520
627
638
586
428
233
69
-26
-40
-44
-48
-52
-57
-62
-67
-70
-73
-74
-77
-80
-83
-82
-73
-59
-46
-39
-34
-36
-54
-67
-77
-85
-88
-87
-85
-81
-67
-30
-18
-13
-9
-21
-36
-48
-53
-57
-60
-62
-57
-43
-22
1
14
22
26
23
17
11
6
2
2
8
18
35
54
61
66
69
69
63
53
35
19
13
9
11
25
38
49
57
62
68
74
76
69
58
52
49
47
45
44
42
40
37
34
31
28
26
24
22
21
20
19
17
16
14
13
11
8
6
3
0
-2
-4
-5
-7
-8
-9
-10
-10
-11
-11
-11
-12
-13
-16
-18
-19
-21
-21
-22
-22
-22
-20
-18
-16
-13
-10
-7
-4
-2
0
4
9
13
15
14
12
10
9
8
6
4
2
0
0
1
3
6
9
11
13
16
19
21
23
24
24
23
23
22
22
22
20
18
16
14
12
7
5
7
11
14
18
22
24
22
16
9
0
-10
-11
0
15
25
27
29
31
32
32
31
28
24
19
12
14
30
39
45
51
55
59
62
64
66
67
68
69
70
69
70
73
58
34
12
-4
-21
-40
-55
-61
-63
-66
-68
-70
-71
-73
-75
-78
-80
-82
-85
-88
-90
-95
-107
-108
-94
-57
27
151
297
434
538
574
562
465
304
123
-35
-122
-151
-139
-105
-61
-45
-45
-53
-61
-68
-69
-64
-58
-51
-70
-87
-100
-110
-114
-112
-106
-96
-80
-65
-61
-58
-56
-54
-52
-52
-52
-52
-53
-55
-59
-44
-34
-27
-22
-17
-14
-13
-14
-16
-20
-23
-29
-37
-37
-26
-19
-15
-12
-9
-6
-2
1
5
9
13
16
20
26
31
35
36
35
34
32
30
28
26
24
23
22
22
22
22
21
21
22
24
27
29
31
32
36
40
44
46
45
42
38
34
29
20
14
15
19
22
27
31
33
31
25
19
16
15
12
9
5
1
-1
-4
-5
-5
-4
-2
0
1
4
7
9
12
14
16
19
24
30
29
22
12
5
-2
-8
-13
-12
-8
-3
1
4
7
10
14
18
21
22
23
24
24
24
24
22
20
18
16
15
15
14
14
13
12
10
9
8
8
7
6
5
4
3
3
3
2
1
0
-1
-3
-4
-5
-6
-8
-10
-12
-15
-25
-31
-22
-7
-1
2
5
9
13
16
19
23
26
29
33
35
37
38
38
39
41
43
46
48
49
48
43
37
30
19
2
-6
-10
-13
-16
-18
-21
-23
-25
-26
-28
-29
-31
-32
-33
-34
-35
-39
-42
-43
-41
-34
-23
-4
31
102
200
324
460
578
622
612
514
358
196
72
34
24
18
12
4
-2
-9
-13
-16
-19
-22
-25
-27
-28
-30
-33
-35
-38
-40
-41
-41
-40
-39
-39
-38
-38
-38
-37
-37
-37
-36
-36
-34
-33
-30
-28
-26
-25
-23
-22
-21
-20
-19
-19
-18
-15
-12
-9
-7
-6
-5
-5
-4
-4
-3
-3
-3
-3
-1
0
2
3
1
-1
-5
-10
-18
-17
-7
-2
1
4
8
11
13
13
14
14
13
12
10
6
0
0
9
15
20
24
27
29
27
23
17
11
6
0
-7
-13
-15
-14
-10
-5
-1
1
4
8
13
16
17
16
13
9
4
1
-2
-7
-12
-17
-18
-15
-11
-6
-1
0
1
4
6
8
10
10
12
14
16
17
18
18
18
18
19
20
22
23
23
24
25
26
26
26
26
25
24
23
23
24
25
26
28
30
31
32
32
32
31
30
28
27
26
25
26
26
27
26
24
23
21
19
16
12
8
7
8
13
18
22
26
30
34
39
44
48
51
53
56
62
66
63
56
51
46
42
40
39
40
42
43
45
49
55
54
40
31
25
20
15
12
9
6
3
0
-5
-16
-36
-46
-53
-58
-60
-58
-50
-42
-33
-22
-15
-14
-17
-22
-29
-38
-27
5
67
169
309
464
601
669
667
588
425
233
57
-63
-101
-98
-63
-44
-37
-32
-30
-36
-45
-49
-51
-54
-55
-57
-59
-62
-65
-68
-70
-71
-71
-71
-69
-68
-66
-64
-62
-61
-59
-58
-57
-56
-55
-54
-51
-48
-40
-33
-32
-38
-45
-50
-56
-62
-66
-67
-62
-54
-43
-27
-6
-4
-2
0
0
-7
-13
-20
-24
-23
-14
-2
5
13
20
26
30
30
30
28
26
25
23
21
19
17
14
11
7
2
-2
-10
-14
-6
6
15
25
32
35
32
27
20
9
-10
-32
-45
-51
-56
-43
-19
0
6
12
15
12
3
-7
-18
-23
-27
-32
-31
-25
-20
-16
-13
-11
-12
-15
-20
-30
-44
-53
-60
-58
-42
-16
1
7
12
12
4
-3
-10
-19
-31
-48
-63
-52
-34
-15
-2
7
7
-3
-11
-18
-23
-25
-22
-16
-9
0
10
14
16
18
19
17
4
-15
-29
-36
-28
-12
-5
0
2
4
3
0
-4
-11
-18
-26
-39
-47
-43
-35
-27
-20
-11
-3
1
5
8
12
15
18
20
22
24
25
26
27
28
31
33
34
34
32
27
20
15
10
5
0
-4
-7
-9
-9
-9
-9
-9
-10
-11
-11
-11
-11
-12
-13
-15
-16
-19
-22
-26
-31
-44
-63
-72
-79
-82
-79
-68
-38
28
136
277
435
578
648
646
567
404
217
63
4
-14
0
15
28
28
12
-10
-32
-38
-40
-42
-43
-44
-45
-47
-49
-50
-51
-52
-54
-53
-52
-51
-50
-49
-47
-46
-44
-42
-39
-36
-33
-28
-17
-10
-15
-26
-33
-39
-45
-48
-48
-45
-39
-33
-21
-3
1
4
7
9
10
11
13
14
16
18
19
19
19
19
19
20
21
23
26
29
30
28
24
21
17
13
11
11
14
17
22
28
38
38
22
11
1
-6
-10
-12
-14
-18
-23
-18
-14
-12
-10
-9
-8
-7
-7
-7
-7
-6
-8
-10
-13
-17
-21
-27
-31
-27
-18
-13
-7
-2
1
3
1
-3
-9
-15
-21
-31
-39
-39
-33
-23
-12
0
7
11
12
14
16
19
21
23
25
26
27
27
27
27
27
27
27
27
28
31
33
33
30
26
22
18
14
11
10
10
12
14
17
24
25
16
13
11
8
6
5
4
3
2
1
1
2
2
3
5
6
8
9
10
11
12
13
14
14
14
14
15
16
17
19
20
21
21
22
23
24
26
27
27
27
29
32
35
38
40
40
39
38
36
35
33
31
28
24
20
15
10
5
-1
-11
-20
-29
-34
-38
-41
-44
-48
-52
-57
-60
-62
-65
-70
-76
-90
-113
-127
-137
-135
-114
-57
50
201
377
545
645
652
588
420
223
59
-40
-63
-71
-61
-50
-40
-40
-57
-74
-92
-101
-107
-114
-116
-110
-100
-95
-91
-87
-83
-79
-76
-73
-71
-68
-66
-64
-62
-61
-59
-55
-50
-49
-55
-63
-69
-76
-81
-83
-79
-70
-63
-57
-51
-45
-39
-35
-34
-34
-36
-37
-39
-43
-48
-33
-6
10
14
17
19
20
20
18
14
11
9
6
4
1
0
-1
-2
-1
0
3
7
13
20
32
50
53
54
57
55
42
34
26
20
16
14
14
15
16
17
19
22
25
25
23
19
16
13
11
10
9
9
11
13
16
21
29
26
6
-8
-21
-31
-35
-37
-39
-42
-48
-45
-26
-13
-3
4
9
10
10
11
13
15
16
16
17
17
18
20
22
24
26
29
32
33
33
29
23
16
6
-6
-10
-13
-18
-16
0
20
41
49
54
59
63
62
56
46
35
21
14
10
7
2
0
2
9
14
20
24
26
23
17
10
4
-3
-10
-10
-2
8
19
32
40
42
42
44
46
45
34
27
21
16
13
12
14
19
24
29
33
38
44
48
50
50
48
43
37
29
17
-2
-13
-18
-22
-24
-27
-30
-33
-37
-41
-45
-49
-53
-56
-60
-64
-67
-70
-71
-71
-69
-67
-63
-56
-29
26
106
209
331
456
556
584
571
479
334
169
21
-62
-90
-70
-8
45
63
49
5
-54
-76
-86
-94
-92
-76
-68
-64
-60
-57
-54
-51
-49
-46
-45
-44
-44
-44
-44
-44
-44
-43
-40
-37
-36
-37
-39
-41
-43
-45
-45
-41
-35
-33
-32
-30
-29
-27
-25
-22
-19
-16
-14
-11
-8
-5
-2
0
4
10
16
20
22
25
27
30
32
33
34
35
36
37
36
34
31
27
23
21
18
15
11
7
5
5
8
13
17
21
23
27
32
36
38
37
33
27
21
17
14
10
5
1
-3
-7
-10
-12
-13
-14
-16
-17
-20
-24
-28
-30
-27
-20
-14
-9
-3
2
7
9
8
3
-2
-8
-15
-23
-32
-36
-34
-27
-19
-13
-6
0
6
9
8
5
1
-4
-9
-18
-24
-24
-17
-9
-6
-4
-3
-1
0
2
4
5
7
8
10
11
12
12
12
11
10
9
9
8
6
5
3
2
2
3
4
4
4
4
5
6
6
6
6
5
4
5
6
9
12
15
18
22
25
28
31
34
36
38
40
43
45
47
48
48
47
44
41
36
31
26
20
14
9
5
1
-1
-4
-7
-11
-16
-20
-25
-30
-34
-38
-41
-43
-43
-43
-43
-42
-41
-41
-39
-38
-38
-40
-45
-30
15
95
211
353
493
562
586
552
451
303
161
49
-37
-92
-112
-118
-109
-91
-60
-29
-19
-12
-8
-6
-7
-15
-26
-37
-45
-55
-64
-72
-75
-74
-69
-61
-51
-37
-16
-9
-4
0
2
5
7
6
1
-4
-12
-21
-34
-42
-36
-23
-16
-11
-5
-1
2
6
10
15
19
23
26
28
30
32
35
37
39
40
42
43
45
47
48
48
47
46
46
45
45
44
43
42
41
41
40
38
36
34
31
29
28
27
26
25
24
23
22
19
14
11
11
13
16
20
23
27
32
34
31
24
17
14
12
10
8
6
3
1
0
-2
-4
-6
-7
-8
-9
-9
-8
-7
-5
-4
-3
-1
0
3
5
7
9
10
12
14
16
17
19
22
24
26
28
30
31
32
33
34
34
34
34
34
33
33
33
32
31
28
26
24
22
21
19
17
16
15
15
16
15
14
11
8
6
3
1
-1
-4
-7
-9
-9
-10
-11
-14
-17
-21
-22
-20
-16
-12
-8
-7
-5
-3
-1
1
2
3
4
4
3
3
3
2
0
-1
-3
-5
-9
-17
-15
2
13
22
29
35
37
36
32
25
16
2
-19
-28
-35
-42
-46
-44
-39
-34
-29
-25
-25
-31
-41
-52
-66
-75
-80
-84
-88
-91
-92
-90
-84
-75
-46
2
80
185
314
453
573
625
581
448
267
97
16
-9
-3
5
12
-4
-58
-96
-111
-110
-97
-88
-81
-75
-71
-69
-70
-71
-74
-76
-77
-79
-81
-85
-88
-88
-84
-77
-67
-52
-33
-31
-29
-27
-26
-30
-40
-48
-56
-62
-65
-64
-59
-51
-36
-14
0
10
9
-8
-20
-29
-37
-41
-41
-39
-33
-25
-10
10
20
27
31
29
26
24
23
21
19
18
18
17
17
16
17
18
20
23
27
31
36
42
53
54
41
28
15
5
-3
-13
-21
-31
-38
-30
-5
28
40
47
51
39
22
8
-3
-12
-21
-27
-30
-35
-30
-8
7
15
21
20
8
0
-7
-13
-16
-17
-15
-11
-5
5
19
27
32
20
0
-18
-29
-36
-40
-40
-36
-28
-17
1
15
25
29
26
18
12
5
0
0
3
7
10
11
13
15
17
18
20
22
23
24
25
25
26
27
29
32
33
28
19
14
10
7
4
3
3
5
9
13
18
22
28
34
39
39
37
33
28
22
14
11
10
8
5
6
18
24
28
31
34
37
40
42
45
47
48
49
51
54
69
93
101
103
98
88
77
63
48
29
3
-17
-32
-33
-25
-19
-14
-10
-7
-6
-7
-10
-13
-15
-16
-17
-19
-21
-24
-28
-33
-39
-53
-68
-77
-69
-19
78
213
372
535
664
716
669
530
337
145
10
-30
-32
0
26
35
23
4
-17
-40
-59
-66
-70
-72
-74
-76
-77
-77
-75
-74
-72
-70
-68
-67
-65
-64
-62
-61
-61
-61
-61
-60
-59
-58
-57
-56
-55
-54
-53
-52
-51
-51
-50
-49
-47
-45
-42
-40
-36
-33
-29
-23
-17
-12
-9
-6
-3
-1
1
3
4
6
7
9
11
12
14
14
14
15
15
15
15
15
14
14
13
13
13
12
10
9
9
9
10
10
11
11
10
10
10
10
10
9
9
9
9
10
12
11
1
-13
-32
-52
-68
-78
-86
-85
-73
-58
-45
-44
-44
-43
-43
-42
-42
-41
-42
-43
-44
-44
-45
-46
-47
-49
-51
-51
-49
-46
-41
-37
-33
-27
-22
-18
-18
-21
-24
-26
-29
-31
-31
-26
-16
-8
-6
-5
