-1151
-1386
-1607
-1813
-1983
-2060
-2053
-1944
-1860
-1744
-1611
-1478
-1350
-1208
-1034
-833
-618
-397
-166
77
336
593
826
1050
1281
1506
1702
1868
2021
2175
2320
2437
2527
2587
2607
2589
2534
2438
2323
2186
2022
1838
1664
1504
1359
1224
1098
984
884
807
755
737
731
725
720
739
770
793
804
812
796
771
745
709
661
586
483
362
235
123
24
-80
-197
-322
-451
-571
-674
-762
-847
-931
-1014
-1091
-1145
-1170
-1184
-1193
-1199
-1198
-1191
-1182
-1173
-1164
-1157
-1156
-1162
-1174
-1210
-1254
-1315
-1391
-1471
-1552
-1628
-1697
-1755
-1799
-1827
-1854
-1872
-1880
-1884
-1886
-1888
-1889
-1890
-1890
-1890
-1890
-1888
-1885
-1880
-1876
-1873
-1871
-1870
-1869
-1868
-1868
-1867
-1866
-1864
-1862
-1860
-1859
-1858
-1858
-1856
-1854
-1851
-1848
-1844
-1833
-1806
-1777
-1743
-1702
-1666
-1635
-1605
-1578
-1549
-1519
-1487
-1452
-1414
-1373
-1337
-1283
-1228
-1174
-1122
-1086
-1042
-1003
-969
-940
-900
-848
-786
-718
-641
-555
-456
-349
-250
-157
-56
70
253
518
861
1275
1768
2331
2937
3546
4118
4605
4973
5210
5291
5286
5183
4960
4654
4318
3980
3663
3366
3084
2808
2555
2338
2155
2008
1892
1793
1708
1642
1591
1561
1529
1497
1444
1386
1338
1290
1239
1186
1129
1067
1000
917
811
699
607
551
532
549
597
664
724
765
780
777
744
651
487
296
101
-78
-222
-321
-391
-441
-468
-482
-489
-494
-501
-507
-515
-530
-556
-581
-607
-627
-642
-663
-691
-728
-769
-807
-832
-849
-855
-857
-861
-852
-800
-741
-687
-637
-609
-564
-515
-457
-439
-430
-436
-451
-457
-461
-465
-472
-477
-482
-486
-490
-493
-496
-498
-498
-498
-498
-497
-496
-495
-492
-486
-479
-496
-525
-559
-592
-625
-658
-681
-695
-705
-688
-666
-646
-627
-613
-601
-595
-601
-615
-654
-711
-766
-813
-838
-854
-865
-865
-849
-824
-801
-788
-779
-791
-826
-871
-923
-992
-1070
-1140
-1194
-1225
-1255
-1284
-1306
-1323
-1345
-1376
-1410
-1458
-1507
-1561
-1612
-1643
-1676
-1708
-1743
-1768
-1777
-1782
-1786
-1788
-1785
-1778
-1767
-1749
-1718
-1687
-1654
-1618
-1585
-1554
-1523
-1492
-1464
-1439
-1410
-1388
-1375
-1366
-1357
-1349
-1341
-1333
-1325
-1317
-1308
-1292
-1262
-1199
-1117
-1022
-922
-818
-704
-572
-439
-321
-224
-141
-56
25
96
166
240
311
373
426
478
525
540
553
564
576
588
599
610
623
638
654
671
687
702
721
749
780
811
867
920
971
1003
1038
1071
1092
1103
1113
1122
1132
1171
1225
1285
1348
1409
1462
1509
1560
1618
1667
1694
1718
1745
1766
1779
1785
1779
1762
1715
1653
1595
1546
1500
1451
1396
1365
1335
1309
1287
1263
1246
1234
1229
1235
1249
1271
1298
1313
1323
1327
1323
1312
1283
1234
1178
1127
1075
1043
1008
976
952
934
916
903
891
885
891
908
956
1052
1184
1353
1560
1801
2053
2288
2476
2582
2595
2556
2439
2289
2141
2029
1964
1921
1869
1778
1642
1490
1379
1331
1318
1307
1295
1283
1269
1253
1245
1250
1266
1312
1366
1423
1444
1454
1460
1448
1410
1364
1317
1272
1228
1181
1131
1080
1049
997
951
924
897
865
828
793
758
727
699
671
623
563
498
443
401
354
293
227
160
97
44
-2
-31
-64
-90
-101
-107
-112
-119
-130
-144
-172
-210
-244
-276
-306
-336
-368
-399
-421
-435
-447
-458
-475
-504
-538
-572
-606
-638
-660
-677
-700
-724
-746
-762
-775
-787
-797
-808
-827
-855
-873
-882
-889
-897
-904
-913
-926
-944
-963
-978
-991
-1004
-1020
-1027
-1034
-1039
-1044
-1048
-1050
-1052
-1053
-1053
-1053
-1051
-1049
-1046
-1041
-1036
-1030
-1046
-1030
-1002
-970
-935
-901
-880
-869
-863
-862
-863
-866
-871
-878
-885
-890
-893
-896
-904
-911
-916
-925
-925
-916
-902
-877
-844
-809
-770
-746
-737
-730
-722
-718
-712
-695
-676
-658
-650
-647
-640
-634
-632
-633
-637
-637
-632
-623
-613
-605
-599
-596
-593
-585
-566
-540
-526
-512
-496
-458
-404
-336
-264
-190
-116
-44
16
64
88
98
99
100
112
129
148
168
183
187
174
149
110
53
13
-11
-25
-22
-5
21
55
90
139
189
243
272
317
358
411
473
537
568
582
586
587
582
569
552
526
486
459
451
453
449
443
438
438
440
434
422
412
402
389
382
383
386
379
363
329
291
267
250
245
251
260
271
286
300
302
293
274
254
234
205
187
169
147
139
147
205
309
452
617
781
926
1008
1035
997
895
746
571
406
258
139
65
36
39
43
36
34
37
49
69
86
113
137
163
192
215
256
304
360
418
477
532
583
636
695
756
827
907
1018
1173
1370
1600
1865
2134
2431
2755
3097
3445
3784
4104
4454
4805
5116
5348
5489
5576
5603
5616
5632
5618
5597
5564
5462
5305
5120
4948
4762
4620
4490
4370
4246
4116
3982
3854
3742
3639
3537
3420
3296
3178
3065
2964
2868
2763
2667
2569
2485
2402
2321
2229
2128
2022
1932
1848
1768
1684
1592
1497
1406
1322
1235
1143
1036
928
816
705
599
489
378
273
179
104
47
0
-40
-87
-138
-191
-248
-310
-385
-471
-563
-654
-735
-804
-839
-861
-869
-865
-847
-821
-796
-766
-735
-704
-683
-668
-652
-638
-634
-635
-638
-645
-667
-713
-787
-855
-917
-980
-1050
-1119
-1184
-1215
-1226
-1233
-1239
-1244
-1238
-1222
-1200
-1169
-1130
-1091
-1048
-1009
-977
-948
-917
-888
-866
-814
-749
-665
-612
-579
-555
-554
-583
-628
-677
-702
-751
-787
-807
-808
-778
-741
-712
-691
-662
-627
-581
-527
-475
-422
-375
-331
-302
-291
-283
-284
-299
-319
-337
-353
-365
-366
-364
-360
-348
-319
-271
-233
-207
-192
-184
-175
-162
-145
-129
-115
-100
-86
-71
-58
-54
-59
-77
-101
-120
-137
-150
-164
-192
-226
-250
-268
-291
-329
-382
-422
-446
-456
-450
-430
-408
-389
-370
-356
-347
-346
-347
-345
-336
-322
-304
-287
-270
-256
-237
-222
-218
-231
-255
-287
-335
-372
-397
-414
-431
-453
-475
-494
-508
-521
-533
-550
-574
-605
-638
-675
-689
-674
-608
-483
-330
-193
-103
-66
-59
-82
-155
-299
-496
-732
-982
-1216
-1428
-1634
-1846
-2058
-2253
-2407
-2458
-2448
-2328
-2142
-1938
-1739
-1564
-1396
-1216
-995
-747
-473
-204
9
182
301
371
410
445
482
518
562
618
675
712
736
740
722
697
683
681
685
685
686
687
687
686
684
681
672
662
653
641
619
605
598
584
556
522
482
437
395
371
363
358
349
340
325
306
285
253
210
165
116
76
50
36
16
-13
-49
-86
-119
-152
-178
-197
-221
-254
-289
-315
-339
-365
-404
-456
-505
-551
-591
-621
-658
-689
-707
-724
-735
-744
-750
-760
-780
-800
-819
-836
-848
-862
-878
-902
-928
-947
-963
-983
-1014
-1058
-1100
-1135
-1150
-1157
-1164
-1177
-1185
-1181
-1169
-1151
-1133
-1122
-1115
-1109
-1101
-1088
-1073
-1049
-1016
-989
-965
-944
-920
-893
-865
-843
-815
-782
-728
-662
-589
-515
-427
-309
-174
-32
127
295
463
615
770
927
1073
1208
1316
1414
1521
1624
1726
1826
1926
2025
2080
2120
2144
2154
2147
2127
2097
2051
2001
1954
1903
1856
1811
1763
1717
1684
1674
1668
1667
1702
1756
1808
1852
1897
1932
1960
1974
1964
1937
1893
1832
1789
1762
1740
1704
1650
1589
1535
1491
1451
1387
1322
1251
1171
1121
1077
1042
1009
971
939
919
894
867
845
825
808
792
776
765
759
751
733
710
689
658
613
575
552
531
505
476
453
430
407
381
346
306
265
232
218
211
207
201
202
214
232
267
322
367
396
416
431
448
477
519
567
642
731
848
986
1146
1300
1382
1413
1370
1237
1028
802
611
471
393
347
309
268
220
181
159
142
130
124
123
131
148
172
208
263
322
375
398
408
415
421
424
424
420
418
422
428
437
461
508
555
603
653
703
731
748
760
767
769
762
746
721
697
674
656
648
646
651
667
695
745
839
968
1133
1308
1475
1631
1780
1920
2037
2084
2116
2108
2015
1868
1704
1545
1393
1243
1098
973
873
817
776
751
735
715
690
660
633
609
582
555
522
483
459
433
418
452
541
694
924
1223
1565
1922
2265
2541
2693
2740
2687
2554
2306
2012
1705
1390
1083
813
594
409
245
98
-20
-119
-212
-306
-370
-447
-521
-579
-621
-654
-674
-683
-695
-709
-721
-727
-738
-763
-801
-838
-868
-894
-920
-944
-959
-969
-974
-976
-980
-987
-992
-996
-999
-998
-999
-1000
-1008
-1018
-1018
-1012
-1000
-989
-978
-964
-943
-896
-844
-809
-789
-783
-778
-773
-772
-776
-790
-810
-836
-859
-871
-880
-889
-901
-911
-913
-908
-899
-890
-883
-884
-889
-889
-886
-888
-899
-913
-923
-931
-934
-935
-943
-955
-963
-959
-949
-943
-939
-938
-937
-932
-923
-918
-924
-935
-940
-942
-943
-944
-947
-951
-955
-952
-951
-958
-967
-974
-978
-988
-1006
-1024
-1041
-1047
-1047
-1044
-1042
-1046
-1048
-1046
-1041
-1043
-1051
-1052
-1047
-1037
-1026
-1018
-1016
-1022
-1028
-1030
-1035
-1041
-1049
-1053
-1047
-1000
-901
-781
-642
-483
-316
-158
-55
-21
-53
-151
-328
-535
-727
-858
-906
-924
-933
-896
-865
-857
-857
-860
-857
-848
-839
-829
-826
-826
-812
-780
-752
-736
-729
-725
-722
-712
-696
-676
-655
-635
-619
-608
-599
-592
-587
-585
-589
-596
-604
-609
-612
-613
-613
-612
-612
-610
-600
-582
-557
-520
-498
-484
-477
-465
-443
-406
-345
-298
-269
-257
-254
-250
-245
-236
-240
-281
-319
-345
-355
-354
-354
-354
-358
-367
-375
-375
-375
-381
-387
-390
-392
-391
-388
-385
-383
-379
-377
-380
-384
-387
-388
-391
-394
-401
-411
-417
-421
-425
-427
-428
-427
-428
-427
-425
-422
-416
-403
-385
-364
-351
-342
-335
-330
-326
-325
-327
-333
-337
-336
-334
-327
-321
-315
-305
-294
-276
-259
-242
-223
-201
-178
-164
-157
-153
-150
-151
-154
-157
-161
-167
-173
-179
-185
-191
-195
-196
-196
-196
-193
-189
-187
-184
-177
-167
-148
-118
-94
-66
-32
3
63
132
210
286
357
415
462
513
572
630
653
662
665
656
632
610
589
564
552
545
538
529
523
521
525
534
546
556
566
576
587
595
601
607
615
625
636
647
657
666
677
689
699
710
727
754
783
805
816
822
825
824
822
814
803
791
779
765
751
741
737
735
733
725
711
689
671
658
647
635
627
626
627
625
620
618
615
611
605
596
580
556
540
518
489
468
455
449
455
470
497
530
554
574
597
617
632
639
644
648
656
675
729
826
976
1188
1466
1798
2152
2474
2697
2773
2685
2456
2138
1806
1547
1424
1374
1350
1340
1310
1222
1098
965
859
797
770
752
736
719
702
686
670
657
651
649
646
644
643
640
636
636
636
632
624
613
592
556
534
521
509
499
486
470
451
437
431
426
417
401
384
372
365
360
357
355
353
350
348
344
340
341
344
347
348
348
344
338
330
322
313
302
290
280
270
259
249
239
223
203
183
157
128
101
70
37
0
-19
-26
-29
-32
-37
-42
-49
-58
-69
-80
-94
-119
-143
-157
-166
-170
-171
-171
-171
-172
-173
-173
-172
-171
-173
-180
-190
-213
-254
-292
-332
-375
-416
-457
-496
-538
-577
-598
-606
-607
-609
-610
-604
-591
-575
-554
-521
-478
-455
-441
-432
-429
-429
-427
-422
-417
-412
-410
-408
-408
-409
-408
-405
-402
-397
-390
-383
-377
-372
-368
-364
-362
-360
-360
-359
-357
-355
-352
-349
-348
-346
-345
-345
-344
-342
-338
-334
-329
-326
-325
-325
-324
-321
-318
-317
-315
-313
-313
-314
-317
-320
-323
-324
-324
-323
-325
-328
-329
-331
-337
-342
-345
-345
-342
-338
-336
-337
-341
-349
-357
-361
-363
-360
-354
-346
-336
-328
-318
-302
-277
-267
-259
-252
-254
-270
-279
-287
-297
-307
-315
-321
-325
-327
-324
-316
-306
-299
-293
-288
-277
-248
-218
-192
-172
-155
-136
-120
-106
-94
-85
-80
-76
-78
-86
-97
-110
-128
-157
-184
-201
-215
-228
-237
-240
-239
-233
-225
-214
-197
-163
-99
-11
106
254
423
605
787
948
1043
1050
988
820
605
399
234
132
72
23
-25
-76
-130
-173
-200
-214
-223
-229
-233
-236
-238
-239
-238
-234
-227
-219
-211
-204
-195
-178
-162
-148
-133
-119
-108
-99
-91
-84
-80
-75
-69
-62
-55
-49
-42
-35
-29
-24
-21
-18
-17
-16
-15
-17
-22
-28
-34
-39
-46
-54
-62
-70
-76
-80
-85
-100
-126
-149
-163
-172
-182
-191
-199
-207
-212
-216
-221
-226
-233
-240
-249
-258
-267
-277
-290
-315
-365
-408
-438
-468
-494
-518
-548
-582
-611
-631
-645
-656
-669
-688
-719
-749
-768
-778
-783
-788
-795
-807
-824
-844
-867
-886
-901
-917
-940
-972
-1006
-1042
-1077
-1106
-1143
-1189
-1227
-1255
-1288
-1305
-1316
-1326
-1335
-1343
-1350
-1353
-1354
-1354
-1350
-1348
-1346
-1346
-1345
-1342
-1339
-1335
-1332
-1330
-1328
-1323
-1320
-1317
-1315
-1311
-1306
-1295
-1270
-1247
-1225
-1213
-1205
-1200
-1201
-1202
-1203
-1201
-1198
-1195
-1196
-1200
-1207
-1215
-1223
-1227
-1225
-1220
-1213
-1207
-1203
-1199
-1194
-1186
-1168
-1131
-1111
-1098
-1092
-1089
-1086
-1085
-1082
-1078
-1069
-1055
-1030
-986
-944
-898
-855
-821
-785
-750
-716
-685
-655
-626
-596
-555
-507
-469
-439
-406
-379
-358
-339
-321
-303
-288
-272
-254
-230
-200
-171
-130
-74
-14
41
98
158
221
282
340
395
449
497
539
580
618
655
674
681
685
686
687
688
689
690
691
692
695
699
708
719
740
776
801
825
851
885
910
927
941
951
958
965
974
989
1003
1018
1046
1090
1136
1180
1252
1324
1409
1502
1609
1741
1900
2093
2322
2589
2886
3212
3546
3853
4112
4319
4476
4592
4630
4648
4638
4559
4465
4369
4269
4210
4123
4037
3935
3828
3734
3674
3610
3548
3486
3416
3340
3267
3201
3135
3071
3005
2955
2918
2903
2913
2937
2975
3030
3081
3119
3137
3155
3169
3151
3097
3012
2903
2771
2622
2479
2353
2242
2145
2086
2040
2009
1990
1981
1974
1968
1956
1935
1898
1835
1760
1689
1616
1558
1481
1401
1348
1285
1230
1183
1139
1092
1043
957
875
795
715
638
561
514
461
407
362
328
297
279
267
255
240
223
202
177
154
137
111
70
29
-14
-64
-117
-160
-192
-224
-253
-281
-307
-335
-365
-394
-424
-456
-490
-522
-552
-579
-609
-638
-665
-684
-697
-711
-726
-742
-764
-791
-822
-856
-889
-914
-931
-945
-962
-981
-1002
-1020
-1032
-1037
-1037
-1037
-1034
-1031
-1032
-1037
-1042
-1045
-1046
-1043
-1038
-1032
-1031
-1035
-1045
-1058
-1080
-1121
-1159
-1205
-1252
-1323
-1400
-1483
-1578
-1644
-1696
-1729
-1741
-1745
-1746
-1744
-1745
-1749
-1753
-1759
-1766
-1773
-1783
-1793
-1800
-1805
-1808
-1811
-1816
-1819
-1819
-1817
-1814
-1810
-1809
-1809
-1812
-1819
-1840
-1884
-1928
-1972
-2017
-2065
-2087
-2095
-2101
-2105
-2107
-2106
-2104
-2102
-2101
-2102
-2104
-2106
-2109
-2113
-2115
-2115
-2114
-2113
-2113
-2113
-2112
-2107
-2099
-2085
-2062
-2016
-1973
-1942
-1920
-1907
-1899
-1893
-1887
-1880
-1872
-1865
-1859
-1853
-1842
-1825
-1798
-1755
-1720
-1689
-1663
-1643
-1628
-1616
-1609
-1601
-1591
-1579
-1561
-1527
-1474
-1426
-1376
-1325
-1272
-1221
-1173
-1127
-1081
-1033
-980
-884
-762
-609
-429
-234
-43
116
189
214
174
52
-102
-254
-381
-428
-451
-464
-434
-387
-337
-258
-173
-113
-47
22
59
75
88
100
109
115
118
117
114
111
112
125
168
229
281
361
434
517
612
715
824
925
1011
1062
1111
1158
1210
1259
1304
1353
1402
1454
1510
1566
1665
1764
1867
1968
2073
2176
2275
2366
2403
2422
2439
2437
2404
2313
2208
2077
1922
1753
1585
1429
1287
1165
1066
1008
972
952
934
918
904
884
855
821
799
779
760
748
746
750
761
778
823
949
1106
1275
1442
1596
1729
1832
1911
1959
2000
2029
2064
2089
2107
2121
2129
2136
2143
2154
2166
2177
2187
2198
2211
2223
2231
2241
2253
2263
2266
2260
2248
2230
2199
2150
2103
2050
2000
1946
1890
1828
1757
1700
1612
1515
1457
1395
1345
1306
1263
1213
1162
1114
1071
1037
1000
956
901
835
771
710
656
603
547
490
436
382
323
260
205
161
121
89
66
42
20
-2
-17
-25
-41
-69
-100
-127
-156
-188
-224
-258
-289
-325
-356
-377
-400
-435
-482
-519
-542
-560
-586
-621
-655
-691
-719
-733
-747
-764
-783
-803
-818
-830
-839
-851
-866
-878
-885
-892
-897
-899
-901
-904
-907
-906
-903
-899
-899
-907
-916
-922
-927
-934
-942
-956
-974
-996
-1018
-1035
-1046
-1055
-1065
-1077
-1090
-1102
-1117
-1133
-1149
-1162
-1171
-1175
-1172
-1160
-1143
-1128
-1119
-1110
-1101
-1093
-1089
-1087
-1079
-1034
-947
-808
-623
-410
-196
-7
98
109
45
-122
-314
-483
-589
-628
-647
-657
-662
-673
-701
-732
-755
-778
-794
-806
-809
-799
-779
-751
-704
-652
-599
-547
-519
-511
-508
-511
-523
-536
-544
-552
-559
-561
-551
-536
-523
-508
-488
-465
-447
-437
-433
-430
-426
-420
-414
-405
-394
-385
-377
-372
-362
-350
-339
-326
-307
-284
-258
-243
-233
-224
-219
-217
-218
-216
-210
-203
-197
-191
-179
-164
-154
-150
-144
-135
-125
-118
-116
-117
-120
-128
-137
-143
-150
-167
-208
-240
-255
-264
-271
-280
-290
-298
-304
-309
-312
-314
-314
-314
-314
-313
-309
-306
-304
-302
-302
-301
-299
-298
-298
-300
-303
-303
-304
-305
-308
-310
-312
-315
-321
-328
-335
-341
-349
-355
-360
-364
-370
-375
-379
-381
-381
-380
-379
-377
-372
-366
-363
-363
-361
-355
-343
-327
-313
-307
-308
-309
-309
-312
-320
-327
-335
-340
-340
-337
-330
-320
-303
-281
-263
-252
-242
-233
-225
-217
-208
-203
-200
-194
-187
-179
-169
-155
-137
-120
-95
-73
-51
-21
11
34
44
48
50
49
43
32
21
15
14
17
21
23
24
24
27
35
42
44
40
36
38
47
70
115
150
166
176
186
197
203
204
200
191
183
177
169
162
158
155
151
145
140
131
126
131
144
159
177
193
210
222
227
222
205
186
167
147
125
105
90
77
66
55
42
29
22
20
13
0
-15
-18
3
76
178
318
487
676
859
984
1028
997
892
712
528
374
305
289
280
277
278
282
283
278
268
260
255
253
251
245
236
230
237
256
286
331
373
424
489
553
620
686
733
757
771
780
790
802
821
843
866
889
914
937
954
970
982
989
995
1002
1015
1037
1067
1093
1110
1121
1124
1121
1117
1110
1104
1096
1082
1057
1012
974
947
922
893
855
816
773
730
687
651
625
590
557
533
517
510
502
489
473
452
428
412
399
379
349
314
274
244
228
218
199
169
131
92
62
40
19
-5
-30
-44
-50
-51
-55
-68
-88
-105
-124
-153
-184
-214
-233
-244
-246
-246
-249
-249
-249
-249
-249
-248
-253
-260
-268
-274
-283
-289
-293
-297
-297
-292
-280
-262
-245
-232
-223
-217
-217
-225
-237
-254
-268
-281
-291
-304
-320
-333
-343
-353
-362
-369
-373
-380
-388
-394
-402
-412
-418
-420
-423
-426
-425
-422
-421
-419
-416
-417
-426
-441
-458
-474
-485
-486
-481
-479
-484
-493
-503
-511
-512
-509
-506
-509
-515
-512
-507
-505
-501
-504
-515
-537
-570
-594
-617
-632
-641
-646
-652
-660
-670
-681
-693
-704
-711
-714
-718
-725
-732
-734
-730
-725
-722
-720
-722
-727
-730
-728
-724
-721
-718
-712
-706
-702
-698
-689
-680
-674
-673
-674
-673
-669
-662
-655
-656
-667
-679
-683
-682
-685
-694
-703
-705
-698
-682
-663
-648
-636
-617
-594
-578
-573
-565
-546
-515
-486
-455
-417
-374
-320
-254
-203
-176
-165
-149
-111
-53
50
172
315
483
658
818
950
985
983
967
917
865
824
802
779
768
796
881
1004
1074
1100
1090
1067
1055
1049
1046
1048
1061
1137
1292
1513
1781
2054
2312
2525
2668
2762
2790
2804
2784
2691
2530
2327
2104
1902
1736
1632
1595
1577
1553
1525
1481
1438
1404
1389
1385
1380
1368
1347
1313
1259
1187
1119
1047
974
911
867
835
815
797
777
745
709
675
638
608
584
562
544
527
515
502
479
437
379
331
297
272
258
244
234
232
239
251
263
273
281
291
302
312
319
301
263
221
177
151
115
66
24
-10
-41
-50
-52
-57
-66
-76
-83
-87
-89
-91
-90
-88
-86
-83
-80
-76
-71
-65
-58
-49
-36
-10
35
75
117
160
205
248
287
320
345
369
392
418
442
466
496
532
565
592
613
632
648
658
665
666
660
654
656
663
672
682
692
706
725
759
814
842
855
860
861
860
861
861
849
827
801
769
725
689
654
616
569
521
472
425
401
387
384
384
381
377
373
372
370
369
367
358
346
325
290
256
208
150
98
60
26
2
-17
-39
-58
-82
-118
-155
-195
-235
-286
-321
-341
-355
-362
-367
-376
-389
-408
-428
-445
-457
-464
-470
-469
-462
-448
-423
-399
-381
-368
-360
-353
-347
-339
-333
-337
-347
-356
-363
-373
-391
-420
-473
-518
-554
-582
-612
-646
-664
-669
-672
-678
-687
-699
-711
-723
-731
-742
-755
-764
-769
-771
-773
-777
-785
-798
-810
-822
-835
-855
-884
-910
-927
-932
-933
-928
-911
-855
-752
-607
-440
-267
-108
-12
24
-25
-171
-377
-595
-772
-843
-866
-881
-892
-887
-872
-844
-824
-799
-765
-724
-689
-663
-636
-606
-555
-484
-414
-354
-309
-259
-198
-127
-51
25
103
187
276
372
461
540
592
625
641
653
664
680
687
691
688
670
641
611
585
554
528
510
493
478
465
454
439
416
393
377
366
360
359
361
357
346
334
320
305
291
274
252
226
204
190
181
174
165
152
140
126
114
105
100
97
98
103
108
112
113
110
110
111
102
73
18
-41
-89
-119
-136
-152
-170
-187
-195
-198
-201
-208
-224
-248
-275
-296
-308
-318
-331
-347
-363
-377
-387
-389
-387
-390
-397
-402
-402
-402
-406
-417
-432
-447
-457
-463
-468
-476
-482
-482
-476
-469
-465
-461
-456
-449
-442
-437
-435
-436
-436
-433
-429
-424
-420
-417
-411
-403
-392
-374
-357
-343
-329
-312
-294
-278
-262
-249
-238
-220
-194
-158
-115
-84
-59
-41
-22
-4
2
-13
-50
-92
-131
-171
-200
-216
-227
-235
-239
-244
-251
-254
-254
-256
-258
-254
-244
-235
-224
-210
-197
-185
-173
-162
-156
-158
-164
-174
-183
-190
-191
-189
-183
-172
-157
-142
-124
-104
-86
-77
-82
-99
-127
-155
-174
-191
-204
-207
-198
-176
-149
-120
-97
-82
-72
-66
-60
-58
-62
-70
-83
-96
-108
-117
-124
-133
-137
-138
-134
-131
-129
-128
-129
-134
-140
-152
-177
-205
-233
-258
-274
-288
-302
-313
-320
-324
-325
-329
-333
-334
-331
-327
-327
-332
-337
-340
-338
-332
-320
-288
-205
-49
148
371
582
747
804
773
676
445
194
-9
-76
-98
-112
-121
-124
-121
-110
-96
-87
-73
-51
-23
8
36
55
61
65
76
96
131
173
212
247
281
312
330
337
339
339
339
337
337
341
350
361
371
380
388
399
420
462
504
547
586
623
661
699
736
787
855
918
970
1065
1183
1326
1463
1592
1667
1710
1738
1748
1732
1693
1629
1547
1489
1458
1436
1421
1404
1376
1346
1302
1245
1183
1111
1060
1027
1004
995
999
1028
1125
1272
1429
1505
1549
1574
1567
1530
1426
1280
1073
843
653
515
445
396
358
325
293
267
256
262
279
312
399
542
688
742
780
771
640
462
286
139
72
35
3
-38
-90
-155
-238
-318
-392
-441
-479
-503
-520
-529
-538
-550
-565
-579
-591
-602
-618
-635
-649
-660
-668
-675
-677
-675
-670
-663
-654
-640
-624
-611
-597
-566
-528
-485
-450
-422
-400
-383
-370
-359
-348
-338
-334
-337
-344
-348
-350
-352
-352
-352
-351
-347
-340
-330
-317
-301
-286
-274
-259
-243
-227
-212
-200
-189
-180
-173
-170
-167
-164
-160
-154
-138
-109
-89
-75
-68
-65
-63
-63
-64
-67
-73
-82
-89
-93
-93
-92
-89
-84
-76
-64
-50
-34
-14
-6
-21
-47
-73
-106
-142
-193
-253
-311
-366
-407
-434
-459
-487
-516
-546
-573
-598
-623
-651
-667
-676
-681
-685
-691
-699
-707
-712
-715
-716
-713
-701
-677
-649
-612
-555
-511
-474
-439
-392
-333
-267
-153
-46
51
144
238
325
351
368
387
367
282
168
49
-65
-120
-147
-161
-166
-160
-150
-137
-124
-108
-92
-78
-68
-58
-49
-39
-27
-10
15
42
79
129
180
238
303
370
438
504
572
628
712
800
912
1051
1217
1414
1634
1866
2082
2263
2395
2463
2490
2489
2459
2386
2243
2064
1898
1833
1807
1813
1831
1846
1813
1708
1603
1502
1409
1345
1276
1211
1150
1092
1035
978
919
863
812
766
725
681
632
582
530
484
442
393
348
318
292
268
246
226
210
202
197
190
180
167
153
137
115
88
69
55
37
13
-20
-43
-58
-66
-72
-77
-83
-93
-106
-119
-133
-148
-159
-165
-169
-173
-179
-183
-188
-193
-195
-193
-189
-184
-179
-174
-171
-168
-167
-169
-172
-176
-178
-182
-188
-197
-206
-216
-226
-237
-248
-257
-265
-272
-278
-286
-293
-299
-302
-303
-301
-296
-289
-280
-269
-258
-248
-241
-236
-231
-225
-218
-212
-207
-203
-201
-204
-212
-221
-222
-225
-226
-227
-227
-227
-228
-228
-229
-230
-231
-232
-232
-231
-231
-232
-232
-233
-234
-235
-236
-236
-236
-236
-238
-238
-238
-237
-237
-235
-233
-229
-226
-225
-226
-227
-230
-235
-240
-244
-248
-252
-256
-259
-262
-265
-268
-270
-272
-274
-274
-274
-273
-271
-268
-267
-267
-267
-268
-270
-274
-279
-283
-288
-293
-299
-305
-313
-321
-332
-344
-355
-362
-361
-356
-344
-324
-297
-214
-94
57
232
398
505
542
510
410
233
50
-103
-214
-258
-296
-318
-332
-343
-352
-357
-358
-353
-341
-326
-310
-295
-283
-269
-254
-239
-226
-215
-206
-197
-189
-181
-176
-171
-167
-165
-162
-158
-154
-148
-142
-135
-129
-122
-115
-109
-104
-98
-92
-86
-79
-72
-64
-55
-45
-34
-23
-11
0
8
16
24
32
41
49
58
67
75
82
88
92
93
92
89
83
78
72
66
58
50
40
30
14
-18
-52
-87
-116
-143
-165
-177
-184
-189
-194
-199
-202
-204
-205
-203
-196
-184
-169
-155
-142
-126
-108
-92
-80
-70
-59
-48
-38
-29
-23
-16
-8
-1
6
16
26
35
44
51
59
67
78
86
83
70
50
18
-34
-72
-98
-105
-107
-110
-112
-114
-114
-105
-92
-79
-64
-46
-22
1
26
48
69
93
120
145
166
184
204
226
244
260
274
291
304
310
313
317
320
324
327
330
332
334
336
338
341
343
345
346
347
349
350
352
354
356
358
360
363
366
369
372
374
376
378
381
382
384
385
387
388
390
392
394
396
397
398
399
399
400
400
399
398
397
394
392
389
386
383
380
378
375
372
370
368
366
364
361
358
356
353
350
346
341
334
327
318
308
296
279
252
228
206
189
175
161
147
133
119
99
70
42
13
-16
-48
-71
-85
-98
-111
-126
-140
-153
-169
-181
-185
-182
-174
-159
-114
-15
124
294
474
632
710
736
689
548
345
141
-15
-120
-179
-224
-259
-306
-328
-341
-352
-360
-368
-374
-380
-384
-386
-386
-386
-386
-384
-381
-375
-369
-362
-355
-347
-340
-331
-315
-296
-275
-253
-235
-218
-203
-191
-181
-172
-164
-155
-146
-135
-124
-112
-99
-80
-53
-24
1
23
42
58
75
91
110
134
152
167
180
187
190
192
193
194
195
196
197
198
199
199
200
200
199
198
196
193
191
189
187
185
182
179
175
171
168
164
158
151
142
133
121
109
96
86
77
68
60
53
45
37
29
21
13
5
-1
-7
-14
-21
-28
-34
-39
-44
-49
-55
-60
-65
-69
-73
-78
-84
-93
-106
-121
-135
-150
-167
-187
-212
-228
-237
-244
-251
-257
-259
-253
-237
-223
-215
-211
-207
-203
-198
-194
-189
-184
-179
-175
-171
-167
-163
-161
-159
-157
-156
-154
-152
-149
-146
-142
-138
-132
-127
-122
-117
-114
-112
-112
-113
-115
-119
-124
-130
-135
-140
-145
-149
-153
-156
-160
-162
-164
-167
-170
-173
-176
-180
-184
-188
-192
-197
-203
-209
-215
-221
-227
-234
-239
-245
-250
-255
-260
-264
-268
-271
-273
-274
-276
-277
-278
-279
-279
-278
-277
-276
-276
-275
-275
-275
-275
-275
-275
-276
-276
-277
-278
-279
-280
-282
-284
-285
-287
-288
-290
-291
-293
-294
-295
-296
-296
-297
-298
-300
-300
-299
-297
-294
-291
-288
-285
-281
-277
-271
-264
-256
-248
-238
-219
-171
-140
-108
-76
-49
-33
-23
-15
-8
0
9
16
22
32
47
112
226
384
571
756
867
903
855
711
484
257
86
0
-22
-38
-58
-77
-98
-123
-155
-179
-198
-223
-251
-268
-279
-289
-297
-297
-283
-258
-218
-162
-121
-90
-54
-16
20
50
80
109
140
171
202
233
255
270
283
298
314
329
342
355
368
379
391
403
412
419
425
431
438
444
449
453
456
457
458
458
456
453
449
443
438
433
427
422
416
410
401
392
383
374
366
360
355
351
348
345
343
341
338
335
331
328
324
320
315
308
300
290
279
268
257
241
225
212
204
199
195
193
192
191
190
190
189
188
187
185
183
181
178
174
170
165
160
153
140
113
87
64
44
25
7
1
-1
-4
-6
-8
-9
-9
-10
-11
-13
-15
-17
-18
-18
-18
-19
-20
-22
-22
-22
-22
-23
-24
-26
-28
-29
-30
-31
-32
-35
-37
-38
-39
-38
-38
-38
-38
-39
-39
-39
-40
-41
-42
-43
-44
-45
-45
-44
-43
-42
-41
-39
-37
-35
-33
-32
-31
-30
-30
-31
-32
-32
-33
-33
-34
-34
-34
-34
-34
-35
-36
-39
-42
-45
-49
-54
-70
-85
-101
-110
-117
-122
-126
-130
-133
-137
-140
-143
-146
-148
-151
-154
-156
-158
-159
-160
-160
-160
-160
-160
-161
-161
-162
-165
-167
-170
-172
-175
-179
-183
-188
-195
-202
-210
-219
-233
-262
-288
-304
-317
-329
-338
-347
-357
-369
-383
-396
-408
-418
-430
-441
-451
-458
-461
-459
-454
-445
-435
-421
-401
-364
-339
-306
-264
-219
-172
-84
42
222
455
713
935
1055
1062
977
767
523
301
135
46
18
-3
-20
-43
-69
-79
-86
-93
-87
-53
-32
-17
-4
5
14
20
25
30
35
37
38
39
39
40
40
40
41
42
45
48
51
54
57
59
62
66
70
74
79
85
93
104
114
123
129
134
139
143
147
151
155
157
159
159
159
159
158
156
152
149
145
142
139
136
133
131
128
124
119
115
112
110
109
108
107
107
107
108
110
112
112
101
87
78
71
65
59
53
46
40
34
28
23
20
16
12
8
5
2
0
-4
-9
-14
-19
-23
-27
-30
-33
-35
-36
-37
-38
-37
-38
-38
-39
-40
-40
-40
-41
-41
-41
-41
-40
-39
-37
-35
-34
-33
-32
-30
-28
-27
-26
-26
-26
-25
-24
-23
-23
-24
-25
-25
-25
-26
-27
-30
-34
-39
-44
-48
-52
-57
-61
-66
-72
-79
-86
-93
-100
-108
-116
-124
-130
-134
-137
-141
-144
-147
-151
-154
-157
-161
-164
-167
-170
-171
-173
-173
-174
-174
-175
-175
-175
-175
-174
-173
-173
-172
-171
-170
-167
-164
-161
-158
-155
-152
-148
-145
-142
-139
-135
-130
-121
-110
-98
-87
-75
-62
-46
-24
-4
11
20
26
31
35
39
41
42
42
40
38
36
34
31
29
26
21
17
13
11
13
18
24
30
34
38
42
47
50
52
54
54
52
50
46
41
35
29
21
10
1
1
12
31
62
111
198
306
440
595
754
888
942
934
837
661
458
280
165
126
111
103
94
83
83
99
146
222
306
372
397
397
375
343
298
249
206
185
172
163
157
156
157
160
163
165
166
167
169
171
175
179
183
187
190
194
198
202
207
213
220
230
242
255
266
278
291
308
330
350
366
380
390
400
410
419
430
452
486
543
611
686
733
769
792
802
795
777
750
700
637
580
547
530
517
504
492
481
466
447
434
425
412
388
361
331
303
282
262
245
232
219
206
195
183
176
173
172
169
165
187
214
237
253
264
274
281
280
272
258
236
196
158
132
118
106
92
73
47
17
-2
-13
-21
-29
-36
-44
-53
-58
-50
-38
-32
-27
-23
-20
-17
-14
-13
-12
-12
-13
-14
-16
-19
-23
-28
-33
-43
-61
-74
-82
-88
-93
-97
-101
-103
-104
-105
-107
-108
-109
-110
-109
-109
-108
-108
-108
-109
-110
-110
-111
-112
-112
-113
-114
-114
-114
-114
-114
-115
-116
-116
-117
-118
-120
-123
-125
-125
-120
-112
-103
-94
-84
-75
-68
-63
-58
-53
-49
-45
-44
-47
-55
-65
-75
-89
-103
-118
-129
-138
-146
-154
-162
-170
-178
-188
-200
-212
-223
-232
-239
-245
-248
-248
-244
-239
-234
-231
-228
-225
-222
-219
-216
-213
-209
-206
-203
-198
-193
-186
-156
-92
-1
116
268
432
584
700
731
715
602
430
253
106
7
-48
-82
-116
-155
-181
-194
-203
-209
-213
-215
-218
-220
-221
-224
-226
-228
-229
-230
-229
-229
-229
-227
-225
-221
-216
-209
-202
-196
-188
-181
-175
-168
-161
-153
-147
-143
-140
-138
-136
-134
-133
-132
-131
-131
-130
-127
-124
-121
-119
-117
-115
-113
-110
-106
-102
-98
-93
-87
-74
-60
-53
-52
-51
-50
-50
-49
-47
-47
-47
-48
-49
-50
-51
-54
-57
-61
-65
-69
-71
-72
-73
-75
-76
-78
-80
-82
-83
-84
-86
-87
-89
-90
-91
-92
-93
-94
-95
-98
-100
-103
-106
-109
-113
-117
-120
-123
-126
-129
-131
-135
-139
-143
-147
-150
-151
-151
-150
-147
-143
-139
-135
-131
-126
-122
-118
-114
-109
-104
-100
-95
-91
-86
-82
-77
-72
-66
-58
-49
-39
-29
-21
-13
-5
0
5
8
10
12
13
14
15
16
17
17
17
18
19
20
21
21
22
23
25
28
32
35
38
41
44
47
51
54
57
59
61
63
66
68
70
71
72
73
73
74
74
73
73
71
70
69
69
69
69
69
69
69
70
72
75
77
79
81
82
83
85
86
88
89
91
93
96
99
102
103
101
97
89
80
68
54
33
12
-5
-24
-43
-57
-67
-72
-76
-79
-82
-83
-85
-86
-87
-88
-88
-86
-84
-81
-78
-74
-71
-67
-61
-54
-46
-34
-13
55
171
332
522
717
870
906
886
748
543
339
191
119
92
72
48
7
-48
-84
-96
-101
-105
-109
-114
-119
-125
-131
-138
-146
-154
-158
-157
-151
-141
-131
-122
-112
-100
-88
-75
-61
-41
-14
17
31
39
46
51
56
60
64
68
71
74
75
77
77
78
77
77
76
76
76
79
82
85
86
82
73
62
51
42
33
25
16
9
2
-2
-8
-13
-18
-22
-24
-27
-29
-31
-34
-36
-39
-42
-45
-49
-52
-56
-58
-61
-63
-66
-69
-74
-78
-84
-90
-97
-104
-110
-117
-122
-127
-132
-136
-140
-145
-148
-152
-156
-159
-161
-163
-165
-166
-167
-168
-169
-170
-171
-173
-174
-175
-173
-169
-164
-160
-158
-156
-153
-150
-148
-145
-142
-139
-136
-133
-131
-130
-129
-130
-130
-130
-130
-129
-128
-126
-123
-120
-117
-114
-110
-106
-101
-97
-92
-88
-85
-81
-78
-74
-70
-66
-62
-58
-55
-52
-50
-47
-43
-39
-34
-27
-17
-5
10
34
53
70
83
97
111
122
132
140
145
148
150
152
154
156
158
159
159
156
151
144
136
129
121
112
103
94
85
77
70
63
56
50
48
47
47
47
47
48
48
48
48
48
48
48
48
49
51
52
54
57
60
64
66
60
46
23
-8
-39
-70
-101
-132
-157
-177
-199
-220
-240
-257
-279
-305
-329
-355
-379
-396
-406
-411
-414
-417
-419
-421
-424
-427
-430
-432
-439
-448
-446
-420
-350
-229
-66
116
289
400
409
352
184
-14
-198
-326
-372
-386
-395
-399
-399
-395
-388
-377
-357
-318
-285
-266
-252
-242
-233
-225
-217
-207
-197
-191
-187
-184
-181
-179
-176
-173
-169
-166
-162
-158
-153
-147
-138
-122
-109
-99
-87
-73
-53
-31
-11
4
20
36
50
69
92
115
142
166
180
192
203
208
212
216
218
220
221
222
222
222
221
220
219
218
217
216
215
213
212
211
210
209
208
206
204
202
201
200
199
198
197
195
193
190
187
184
180
175
171
166
162
157
152
147
142
137
132
128
123
119
113
107
101
96
93
93
96
100
105
110
115
119
124
129
134
138
141
143
143
142
139
133
127
120
113
106
100
93
87
80
75
71
70
70
71
73
75
77
79
82
87
92
91
81
66
51
30
24
22
22
21
20
19
18
18
17
16
15
13
11
8
6
3
0
-5
-11
-18
-28
-38
-48
-54
-59
-62
-65
-68
-71
-73
-75
-76
-76
-76
-74
-69
-64
-57
-51
-45
-41
-37
-34
-30
-28
-25
-22
-20
-18
-16
-13
-12
-10
-9
-8
-8
-7
-6
-6
-5
-5
-4
-4
-3
-3
-2
-1
-1
-1
-2
-4
-6
-8
-10
-12
-14
-16
-19
-21
-24
-27
-30
-34
-43
-54
-65
-76
-87
-103
-125
-148
-166
-179
-190
-203
-215
-224
-231
-238
-244
-252
-260
-269
-278
-288
-297
-306
-315
-322
-329
-335
-343
-354
-371
-379
-383
-392
-386
-337
-243
-92
104
322
514
607
605
504
300
71
-134
-275
-346
-373
-393
-409
-422
-437
-452
-467
-483
-497
-509
-518
-524
-530
-535
-539
-543
-547
-551
-554
-557
-560
-562
-565
-567
-570
-572
-574
-576
-577
-575
-572
-567
-561
-553
-545
-536
-526
-514
-504
-494
-485
-477
-469
-462
-454
-447
-441
-435
-429
-423
-415
-406
-394
-382
-369
-352
-330
-310
-291
-276
-262
-251
-244
-238
-233
-230
-229
-231
-236
-244
-254
-266
-282
-309
-327
-335
-339
-342
-345
-349
-352
-357
-362
-368
-373
-379
-386
-392
-399
-406
-416
-427
-438
-446
-453
-460
-467
-474
-481
-487
-491
-495
-497
-499
-501
-501
-502
-504
-507
-510
-513
-515
-516
-518
-519
-519
-519
-518
-515
-513
-511
-509
-508
-506
-504
-501
-498
-495
-492
-488
-480
-469
-458
-447
-436
-425
-415
-405
-394
-384
-375
-368
-360
-346
-323
-302
-276
-239
-205
-180
-157
-133
-110
-85
-68
-57
-48
-36
-23
-11
-1
5
12
18
25
32
38
44
51
62
86
127
162
200
242
284
328
371
396
409
419
428
436
444
455
468
482
498
523
559
596
634
665
689
717
738
754
768
781
794
808
824
840
857
874
891
909
931
950
968
983
995
1005
1014
1021
1028
1036
1046
1057
1071
1091
1121
1147
1172
1197
1224
1244
1259
1273
1284
1293
1305
1318
1332
1348
1368
1391
1415
1439
1463
1487
1505
1516
1527
1537
1544
1553
1590
1657
1762
1904
2073
2250
2405
2492
2497
2441
2293
2108
1929
1790
1694
1646
1615
1590
1557
1511
1451
1416
1400
1388
1380
1371
1364
1358
1352
1344
1330
1306
1279
1251
1223
1196
1178
1166
1156
1147
1139
1133
1125
1113
1094
1070
1046
1020
998
967
933
902
868
838
816
792
773
756
740
724
705
682
657
632
608
581
558
539
520
501
478
452
432
407
374
339
301
262
222
179
137
95
55
18
-20
-51
-74
-97
-110
-119
-127
-133
-135
-135
-131
-122
-110
-94
-61
-13
24
65
108
149
215
305
444
653
921
1236
1566
1865
2102
2266
2370
2426
2477
2532
2594
2632
2651
2663
2627
2567
2504
2466
2445
2427
2409
2392
2369
2336
2300
2264
2229
2196
2163
2131
2099
2058
2007
1960
1906
1842
1787
1706
1619
1559
1490
1422
1354
1294
1242
1192
1154
1125
1094
1068
1045
1022
999
971
938
902
867
831
796
768
748
730
715
702
690
679
667
655
641
625
602
570
539
507
475
441
412
388
366
347
332
319
307
294
281
266
249
226
205
185
161
133
103
71
41
15
-9
-34
-58
-83
-109
-133
-157
-181
-208
-234
-261
-288
-323
-368
-401
-421
-441
-460
-484
-511
-544
-562
-574
-584
-591
-597
-599
-597
-591
-584
-575
-566
-555
-539
-522
-505
-488
-471
-453
-436
-421
-406
-386
-361
-337
-305
-263
-221
-177
-96
6
140
303
488
668
789
829
790
673
471
249
63
-79
-170
-218
-259
-308
-368
-430
-484
-521
-543
-557
-567
-575
-587
-601
-616
-632
-648
-663
-677
-690
-702
-708
-713
-717
-720
-723
-724
-726
-728
-730
-733
-737
-741
-745
-748
-752
-755
-759
-762
-766
-771
-776
-785
-795
-806
-816
-825
-834
-842
-850
-856
-863
-869
-874
-880
-886
-891
-898
-905
-913
-922
-933
-944
-956
-966
-977
-988
-997
-1006
-1015
-1025
-1034
-1044
-1052
-1058
-1063
-1067
-1071
-1075
-1079
-1083
-1088
-1093
-1098
-1105
-1112
-1121
-1131
-1146
-1172
-1198
-1224
-1250
-1277
-1298
-1315
-1325
-1333
-1340
-1346
-1350
-1352
-1352
-1349
-1344
-1336
-1324
-1309
-1278
-1223
-1174
-1124
-1073
-1014
-947
-879
-823
-781
-747
-704
-653
-606
-570
-533
-512
-499
-490
-483
-477
-475
-479
-490
-507
-528
-564
-631
-671
-695
-713
-720
-716
-704
-685
-651
-599
-552
-506
-459
-411
-361
-306
-256
-218
-179
-139
-99
-52
-28
-15
-7
-2
3
10
19
26
29
31
32
35
42
54
76
100
128
152
165
177
188
197
205
211
217
219
218
214
208
204
202
199
195
191
188
187
186
183
181
177
173
169
166
162
158
150
141
133
127
126
132
144
161
179
198
223
246
267
285
296
306
316
326
332
335
336
336
333
326
317
308
300
293
284
269
252
238
227
215
202
188
182
194
224
297
419
581
775
975
1142
1225
1232
1165
1015
842
682
560
474
421
378
346
313
279
249
234
226
220
217
219
221
225
229
233
238
244
248
249
247
248
251
254
259
261
263
264
266
267
266
261
255
248
242
235
229
224
220
216
212
208
205
201
198
198
198
196
195
197
202
209
217
221
223
222
221
220
215
206
194
182
172
165
158
151
141
129
122
118
114
109
104
101
102
105
112
119
122
123
124
125
126
121
105
77
38
15
6
5
5
5
4
2
4
8
11
8
-4
-21
-38
-51
-56
-56
-56
-60
-63
-64
-63
-63
-70
-89
-127
-164
-190
-209
-223
-235
-248
-258
-277
-311
-336
-358
-377
-388
-383
-370
-358
-347
-329
-307
-282
-265
-264
-262
-259
-256
-253
-252
-259
-277
-297
-305
-309
-317
-327
-331
-326
-321
-323
-325
-323
-315
-306
-295
-282
-260
-231
-198
-166
-145
-135
-128
-115
-96
-83
-75
-69
-63
-53
-42
-34
-30
-32
-32
-26
-19
-19
-19
-14
-6
0
3
11
22
29
31
33
40
49
56
60
68
75
79
79
81
87
99
109
117
125
132
133
130
124
120
120
126
136
142
147
148
143
131
112
85
45
20
8
4
5
9
13
12
11
8
4
-2
-7
-12
-17
-20
-27
-40
-56
-72
-89
-107
-119
-121
-113
-102
-95
-90
-80
-51
16
124
285
508
755
976
1072
1063
947
731
499
299
178
129
110
84
52
11
-26
-67
-93
-109
-115
-118
-119
-121
-125
-129
-130
-130
-129
-126
-121
-118
-115
-108
-97
-74
-43
-20
3
26
46
60
62
48
21
-10
-44
-67
-75
-79
-79
-78
-76
-75
-76
-76
-74
-72
-68
-49
-12
20
43
73
92
105
113
118
120
119
119
121
126
129
127
124
121
117
110
97
82
70
57
46
38
29
23
19
15
6
-5
-18
-30
-49
-78
-105
-122
-133
-138
-139
-138
-136
-137
-140
-145
-152
-165
-189
-220
-238
-249
-260
-274
-288
-294
-288
-273
-250
-219
-176
-145
-115
-84
-60
-44
-31
-21
-12
-2
-6
-2
1
3
0
-8
-19
-32
-44
-59
-72
-83
-96
-108
-122
-135
-146
-157
-165
-168
-169
-170
-173
-177
-181
-185
-188
-190
-190
-187
-180
-174
-169
-167
-165
-162
-158
-153
-149
-144
-136
-125
-115
-112
-112
-114
-120
-131
-146
-161
-171
-176
-178
-181
-186
-192
-198
-203
-206
-209
-210
-209
-204
-198
-195
-195
-199
-202
-200
-193
-184
-171
-149
-133
-123
-112
-98
-72
-34
5
40
71
113
173
250
336
416
485
546
585
631
678
716
743
764
782
801
823
844
855
861
868
873
875
876
878
877
875
870
867
864
861
859
858
857
855
854
854
854
853
851
848
843
839
831
819
800
780
762
745
731
729
741
768
837
945
1084
1239
1378
1442
1435
1336
1131
880
647
480
411
383
364
351
310
248
181
145
118
99
80
60
38
15
3
0
-4
-8
-13
-16
-18
-17
-16
-14
-10
-7
-5
-2
0
1
5
9
11
12
13
11
9
6
2
-1
-6
-13
-22
-34
-44
-52
-57
-61
-65
-68
-71
-74
-78
-80
-81
-80
-76
-72
-68
-66
-64
-63
-65
-67
-68
-70
-73
-77
-80
-82
-86
-90
-96
-104
-110
-115
-118
-119
-117
-113
-109
-107
-104
-95
-79
-58
-19
32
49
59
65
67
64
55
41
14
-38
-97
-155
-193
-212
-221
-228
-238
-257
-286
-317
-343
-364
-380
-392
-405
-418
-440
-468
-489
-504
-513
-519
-523
-525
-519
-512
-503
-493
-471
-431
-394
-354
-313
-268
-229
-201
-174
-162
-157
-153
-151
-149
-147
-145
-144
-143
-141
-138
-136
-134
-133
-131
-130
-130
-128
-126
-123
-120
-119
-119
-121
-126
-132
-138
-144
-149
-155
-158
-162
-167
-175
-184
-192
-199
-206
-211
-213
-211
-208
-204
-200
-197
-194
-189
-182
-172
-162
-151
-132
-113
-99
-86
-69
-48
-22
-5
5
14
21
27
32
38
45
52
60
66
74
85
100
118
135
151
170
187
198
206
212
218
224
234
245
254
260
264
267
272
278
283
281
271
258
250
241
230
219
211
211
218
230
245
268
307
344
389
442
531
636
756
897
1062
1250
1460
1682
1913
2152
2361
2509
2560
2548
2433
2255
2054
1869
1752
1700
1679
1669
1662
1658
1657
1658
1660
1663
1666
1668
1670
1674
1680
1684
1673
1648
1619
1587
1558
1539
1528
1519
1510
1498
1489
1481
1470
1454
1427
1399
1358
1310
1261
1214
1172
1132
1101
1078
1058
1037
1014
988
962
937
910
887
868
847
823
799
774
755
740
724
709
692
672
648
619
592
566
541
511
480
450
424
402
383
362
342
318
292
265
248
237
229
218
207
196
186
176
165
156
149
142
132
116
93
68
44
16
-13
-38
-60
-79
-101
-127
-149
-168
-185
-199
-212
-220
-223
-228
-234
-242
-248
-254
-259
-262
-265
-267
-268
-270
-271
-270
-269
-267
-265
-261
-256
-252
-249
-246
-244
-242
-241
-241
-241
-241
-241
-244
-250
-256
-264
-270
-273
-275
-275
-273
-272
-270
-267
-264
-261
-261
-260
-260
-261
-265
-269
-273
-278
-284
-292
-299
-305
-310
-314
-318
-322
-324
-324
-324
-323
-322
-321
-322
-321
-319
-317
-316
-315
-316
-316
-318
-320
-325
-328
-331
-334
-337
-340
-343
-346
-349
-352
-355
-357
-358
-358
-356
-353
-351
-350
-349
-347
-344
-341
-339
-338
-337
-335
-334
-334
-335
-336
-337
-338
-339
-340
-340
-342
-344
-345
-343
-340
-336
-332
-327
-322
-320
-319
-319
-319
-318
-317
-315
-312
-310
-311
-312
-315
-319
-322
-323
-321
-317
-312
-309
-307
-306
-305
-304
-302
-299
-295
-288
-282
-276
-273
-273
-273
-273
-270
-263
-254
-244
-236
-220
-171
-83
47
218
410
602
763
843
843
761
582
375
190
62
-26
-62
-87
-117
-158
-200
-245
-283
-312
-339
-351
-357
-362
-367
-373
-376
-378
-378
-377
-374
-371
-368
-364
-360
-355
-351
-348
-345
-344
-344
-347
-350
-354
-357
-359
-361
-362
-365
-369
-375
-378
-375
-361
-343
-325
-305
-286
-267
-247
-230
-220
-212
-206
-201
-197
-192
-187
-181
-176
-171
-165
-159
-152
-145
-136
-126
-117
-113
-110
-106
-103
-101
-99
-98
-98
-98
-98
-98
-98
-99
-98
-97
-95
-93
-90
-88
-87
-84
-81
-78
-77
-76
-75
-74
-73
-74
-76
-77
-79
-82
-84
-86
-87
-89
-92
-96
-100
-107
-112
-116
-121
-127
-134
-141
-157
-203
-243
-275
-301
-322
-337
-340
-348
-356
-362
-366
-369
-368
-361
-348
-333
-318
-304
-288
-271
-256
-245
-236
-228
-222
-218
-215
-212
-208
-206
-203
-201
-198
-195
-190
-185
-178
-171
-164
-158
-151
-144
-138
-132
-127
-122
-118
-113
-109
-106
-104
-103
-102
-102
-103
-104
-104
-105
-105
-105
-105
-104
-102
-101
-100
-99
-98
-96
-94
-91
-88
-85
-80
-74
-67
-58
-50
-41
-33
-25
-18
-13
-9
-6
-4
-3
-2
-2
-1
-1
-1
-1
-1
0
0
1
2
4
5
7
10
13
17
21
27
34
42
53
70
106
137
155
166
176
183
187
187
183
174
163
151
141
134
127
119
111
105
99
95
91
90
91
94
97
101
106
110
114
118
123
129
134
140
146
152
159
166
173
181
193
212
291
406
556
728
901
1038
1084
1064
1004
856
695
558
470
435
409
385
360
320
294
274
259
250
247
250
260
274
291
310
337
366
397
411
420
428
435
441
446
449
451
453
455
458
462
465
468
471
474
477
479
480
482
485
488
492
498
506
517
528
539
551
564
576
588
600
612
622
630
636
641
645
649
653
656
660
663
665
666
665
661
655
647
638
626
613
595
566
543
526
515
506
497
490
486
487
492
502
513
525
535
547
560
573
584
591
598
604
610
618
625
631
632
626
613
594
570
510
422
311
195
88
