-204
-237
-277
-314
-338
-355
-362
-355
-342
-331
-321
-312
-303
-295
-286
-276
-267
-260
-254
-247
-242
-235
-225
-209
-161
-100
-20
87
226
383
537
669
735
757
732
657
535
387
226
68
-65
-160
-203
-218
-205
-181
-151
-136
-131
-127
-125
-122
-121
-118
-115
-112
-110
-109
-108
-108
-107
-106
-105
-103
-99
-94
-87
-78
-67
-56
-45
-35
-26
-20
-17
-14
-12
-9
-6
-4
-2
0
1
5
10
15
21
29
41
54
70
87
105
116
123
128
131
134
136
139
142
147
151
156
162
168
175
185
195
200
197
191
182
174
164
151
135
110
79
58
41
27
10
-15
-45
-79
-108
-129
-146
-169
-199
-225
-242
-253
-259
-263
-266
-269
-271
-273
-274
-275
-276
-277
-277
-278
-279
-280
-282
-284
-286
-288
-291
-294
-296
-299
-301
-302
-304
-305
-307
-310
-313
-315
-317
-317
-317
-316
-314
-312
-310
-308
-307
-306
-304
-303
-302
-302
-301
-301
-302
-302
-302
-302
-302
-302
-301
-300
-299
-296
-294
-291
-288
-284
-280
-276
-271
-265
-257
-248
-241
-240
-240
-240
-241
-242
-243
-243
-243
-243
-243
-243
-243
-242
-240
-238
-236
-234
-232
-230
-228
-225
-221
-218
-215
-211
-207
-202
-198
-194
-190
-185
-178
-164
-152
-140
-134
-128
-124
-119
-116
-115
-116
-119
-123
-128
-134
-142
-151
-166
-175
-182
-185
-188
-192
-195
-197
-198
-197
-197
-196
-195
-192
-189
-185
-182
-178
-175
-171
-167
-164
-161
-157
-154
-151
-147
-140
-132
-97
-20
99
245
404
545
645
689
686
629
513
366
199
26
-131
-256
-326
-352
-353
-331
-298
-264
-252
-247
-243
-240
-238
-234
-229
-225
-220
-215
-210
-205
-196
-181
-165
-150
-139
-130
-123
-116
-111
-106
-103
-99
-94
-87
-80
-71
-62
-50
-34
-19
-6
4
16
29
45
64
78
90
100
113
127
139
149
157
164
171
179
190
207
221
231
239
248
260
273
285
297
307
311
312
314
315
318
319
312
295
278
260
247
237
221
196
172
154
138
123
108
89
75
64
54
44
33
22
9
-2
-14
-20
-24
-29
-32
-36
-39
-42
-44
-45
-46
-46
-45
-44
-42
-40
-38
-37
-36
-36
-36
-36
-35
-33
-32
-30
-28
-26
-24
-22
-21
-20
-18
-17
-15
-14
-12
-10
-8
-6
-3
0
1
2
3
5
7
9
11
13
15
16
19
21
23
25
27
29
31
34
37
40
42
44
47
50
53
54
56
56
58
59
61
64
65
67
68
70
71
73
75
78
82
86
96
118
139
153
163
171
178
186
192
197
201
204
208
211
214
217
219
220
219
217
214
211
207
202
195
180
158
145
138
133
128
124
121
117
114
111
108
105
101
97
91
84
77
70
63
57
51
44
38
31
25
18
9
6
13
31
82
162
277
428
615
806
968
1023
1004
850
570
223
-114
-367
-481
-492
-433
-345
-256
-218
-207
-200
-194
-190
-186
-181
-177
-175
-173
-172
-172
-172
-173
-172
-170
-168
-165
-162
-160
-159
-157
-156
-154
-151
-141
-119
-99
-84
-63
-50
-40
-32
-26
-20
-16
-14
-11
-9
-5
-2
0
3
7
10
14
19
25
32
42
58
71
81
98
126
143
151
158
164
167
168
167
163
158
153
147
142
134
125
117
108
100
90
79
68
58
47
33
15
-5
-28
-49
-68
-84
-97
-110
-123
-129
-133
-136
-139
-141
-142
-144
-145
-146
-146
-146
-146
-145
-144
-143
-142
-141
-142
-142
-143
-142
-142
-142
-143
-144
-145
-146
-146
-146
-147
-149
-151
-152
-153
-154
-156
-159
-161
-162
-163
-163
-163
-163
-164
-166
-166
-167
-167
-168
-169
-170
-171
-172
-173
-174
-175
-176
-177
-178
-179
-180
-182
-184
-186
-189
-191
-192
-193
-194
-194
-194
-194
-193
-191
-190
-188
-187
-186
-184
-183
-182
-180
-178
-175
-171
-167
-162
-157
-150
-139
-119
-106
-99
-94
-91
-88
-85
-84
-83
-84
-88
-94
-100
-107
-113
-120
-127
-132
-137
-139
-141
-142
-142
-142
-144
-146
-148
-150
-150
-147
-144
-140
-136
-132
-128
-127
-130
-134
-136
-138
-141
-143
-145
-146
-146
-145
-142
-137
-128
-98
-31
82
242
444
670
883
1051
1128
1071
864
544
183
-133
-336
-400
-398
-322
-215
-138
-109
-109
-128
-147
-166
-166
-147
-135
-128
-122
-117
-114
-112
-111
-109
-106
-104
-102
-99
-98
-95
-92
-88
-82
-72
-62
-54
-46
-40
-33
-28
-24
-21
-17
-12
-5
4
15
25
34
41
49
57
67
79
95
110
125
139
159
176
190
205
220
230
237
243
248
253
257
261
263
266
268
272
276
281
286
288
285
277
266
252
231
217
198
174
155
141
129
117
106
100
96
92
90
91
99
109
116
122
128
132
135
136
137
139
140
140
140
141
142
142
143
143
141
139
136
133
131
129
127
125
124
124
124
124
124
124
122
121
121
120
119
117
115
113
112
110
108
105
96
90
86
82
78
75
78
83
85
86
88
90
92
94
96
97
98
98
98
98
97
95
94
92
92
92
92
91
90
89
89
89
88
87
85
83
82
83
87
92
97
103
109
117
126
135
143
151
160
170
179
185
191
200
218
230
235
240
244
246
246
243
239
235
230
224
216
208
199
191
183
176
169
163
156
151
148
146
144
143
141
140
138
137
135
134
134
134
134
135
136
137
139
141
145
149
153
169
226
316
444
610
799
1008
1184
1259
1250
1125
871
556
254
18
-99
-118
-99
-52
-32
-20
-13
-19
-24
-26
-28
-30
-30
-31
-31
-31
-29
-27
-24
-21
-16
-10
-3
4
12
21
29
38
46
53
60
64
68
71
73
75
77
80
82
85
87
89
92
95
100
106
115
126
134
140
147
153
159
163
167
172
178
187
197
207
219
230
232
234
236
235
224
217
213
209
206
202
198
196
192
186
175
154
134
112
92
77
62
43
18
-7
-33
-60
-89
-109
-121
-130
-138
-146
-151
-156
-160
-164
-167
-170
-172
-174
-176
-177
-178
-180
-182
-184
-186
-188
-190
-192
-193
-194
-194
-193
-191
-188
-185
-182
-179
-176
-173
-170
-168
-165
-158
-151
-146
-146
-149
-153
-156
-158
-160
-162
-164
-165
-167
-168
-169
-170
-170
-169
-168
-166
-164
-162
-160
-157
-154
-152
-154
-161
-169
-179
-191
-200
-206
-209
-212
-213
-214
-214
-214
-215
-216
-217
-218
-219
-220
-221
-223
-225
-226
-227
-229
-230
-233
-239
-245
-247
-249
-253
-258
-257
-242
-227
-210
-194
-178
-164
-155
-149
-143
-139
-138
-141
-145
-147
-149
-151
-153
-155
-157
-160
-162
-164
-166
-168
-169
-171
-173
-174
-176
-178
-180
-183
-184
-185
-185
-184
-184
-183
-182
-180
-177
-174
-171
-169
-167
-163
-159
-154
-150
-145
-138
-116
-69
3
108
246
417
609
807
978
1058
1053
942
702
393
91
-141
-254
-271
-246
-172
-110
-73
-60
-53
-49
-46
-43
-42
-40
-36
-29
-21
-13
-8
-4
-1
1
4
8
11
15
18
20
23
25
27
29
32
35
41
48
55
62
71
81
95
105
113
119
123
126
130
133
137
142
147
153
163
173
183
199
221
243
267
285
297
306
313
318
321
324
326
328
329
330
329
328
325
320
315
307
291
265
244
221
202
186
167
147
127
106
86
66
44
27
14
3
-5
-13
-19
-24
-28
-33
-38
-43
-48
-53
-58
-64
-70
-76
-81
-87
-91
-93
-95
-97
-98
-98
-98
-98
-98
-99
-100
-101
-102
-103
-104
-105
-106
-107
-107
-108
-110
-112
-116
-120
-124
-131
-147
-162
-176
-186
-193
-199
-204
-209
-214
-219
-222
-225
-228
-233
-239
-246
-252
-257
-261
-265
-270
-273
-274
-271
-266
-261
-256
-248
-243
-242
-244
-248
-250
-252
-255
-258
-260
-261
-259
-256
-253
-249
-246
-242
-238
-233
-227
-221
-213
-206
-198
-188
-177
-168
-160
-151
-139
-121
-104
-88
-71
-48
-39
-35
-32
-29
-27
-25
-24
-23
-22
-21
-20
-18
-17
-16
-16
-16
-16
-16
-15
-13
-12
-11
-9
-6
-3
0
2
8
15
21
28
34
40
45
49
53
57
61
66
70
74
79
86
97
117
136
183
258
371
521
715
930
1131
1251
1255
1154
892
547
209
-48
-180
-201
-174
-91
0
44
56
65
74
85
92
96
100
103
105
107
109
110
110
112
114
117
120
122
124
124
125
126
127
130
132
136
142
150
158
166
174
182
189
196
203
209
214
219
223
227
231
237
243
249
255
260
264
269
281
304
325
337
349
359
370
381
391
402
411
418
425
434
443
452
458
466
472
477
480
480
478
473
466
458
442
409
382
361
339
320
305
289
272
259
248
238
228
219
208
192
171
148
130
114
98
80
63
48
35
25
16
8
1
-5
-15
-26
-38
-50
-63
-76
-89
-100
-110
-117
-123
-128
-135
-143
-152
-161
-168
-173
-177
-182
-186
-191
-194
-196
-197
-199
-201
-203
-205
-206
-207
-207
-208
-209
-210
-211
-210
-209
-207
-206
-205
-203
-202
-200
-199
-198
-198
-198
-198
-196
-193
-190
-187
-186
-185
-184
-182
-181
-180
-178
-177
-175
-172
-168
-164
-160
-156
-152
-146
-140
-134
-125
-114
-103
-93
-86
-79
-72
-66
-58
-48
-39
-34
-30
-29
-29
-28
-28
-27
-25
-24
-22
-22
-21
-20
-19
-20
-21
-23
-25
-28
-31
-33
-34
-36
-37
-39
-40
-41
-42
-44
-46
-49
-52
-55
-57
-59
-59
-59
-59
-56
-50
-44
-36
-6
49
141
275
449
660
868
1041
1093
1067
880
572
226
-68
-263
-310
-302
-213
-128
-70
-52
-43
-43
-46
-51
-57
-63
-66
-57
-41
-30
-23
-18
-13
-8
-2
4
12
19
25
30
35
39
43
47
52
56
60
64
68
72
75
78
82
87
95
104
114
122
132
144
158
173
191
204
213
222
229
237
243
250
256
263
270
277
283
289
295
301
308
315
322
325
321
311
300
292
283
274
265
257
250
241
227
206
186
160
125
95
73
54
43
36
30
26
20
14
7
0
-4
-9
-14
-19
-23
-26
-26
-23
-19
-14
-9
-5
-4
-2
-1
1
3
6
8
10
12
14
15
16
16
16
16
15
15
15
15
15
15
15
16
16
16
16
15
15
14
14
13
12
11
9
7
5
3
2
0
-1
-2
-4
-5
-6
-8
-10
-12
-15
-17
-18
-18
-17
-16
-15
-14
-13
-12
-11
-10
-9
-7
-6
-5
-4
-1
1
5
9
14
19
26
34
47
60
68
74
79
83
87
91
95
99
101
101
100
97
93
88
82
76
68
58
48
38
28
19
8
-2
-12
-21
-30
-37
-41
-46
-50
-54
-57
-59
-62
-64
-66
-67
-68
-67
-66
-65
-63
-61
-59
-55
-49
-42
-35
-18
26
111
238
407
621
846
1050
1158
1154
1018
729
379
47
-186
-269
-297
-277
-218
-157
-137
-127
-126
-132
-140
-146
-154
-158
-160
-159
-154
-149
-146
-145
-143
-141
-139
-135
-131
-127
-122
-117
-113
-109
-105
-100
-95
-90
-84
-78
-72
-67
-63
-59
-55
-50
-45
-36
-26
-15
-4
3
10
17
23
30
37
44
53
63
76
90
103
116
127
138
149
157
164
169
173
178
182
185
187
188
187
182
175
166
155
139
111
90
70
50
31
11
-8
-23
-35
-45
-58
-72
-89
-109
-131
-143
-151
-158
-163
-168
-171
-175
-177
-180
-182
-183
-184
-186
-187
-188
-189
-190
-191
-192
-194
-195
-196
-197
-198
-198
-197
-196
-195
-193
-191
-190
-188
-186
-183
-181
-178
-175
-172
-169
-160
-150
-143
-138
-134
-132
-131
-129
-128
-126
-126
-125
-125
-125
-124
-124
-123
-123
-122
-121
-120
-118
-115
-112
-110
-107
-105
-102
-100
-97
-96
-95
-94
-93
-92
-90
-88
-86
-84
-81
-79
-76
-74
-72
-70
-68
-67
-64
-61
-56
-43
-30
-15
-7
-1
4
9
14
18
20
21
22
21
20
19
17
15
12
9
7
4
2
0
-1
-4
-6
-9
-11
-13
-16
-18
-19
-20
-20
-19
-17
-16
-14
-12
-10
-9
-7
-6
-3
-1
1
4
8
13
20
27
33
39
48
81
162
290
463
680
908
1115
1234
1238
1140
890
569
253
-2
-114
-151
-131
-73
-21
-3
-3
-15
-27
-39
-39
-24
-11
0
8
8
2
-4
-8
-11
-13
-15
-17
-19
-20
-20
-20
-19
-18
-14
-10
-5
0
5
9
14
18
23
28
32
36
38
41
44
48
54
63
80
96
108
117
127
137
149
161
175
187
199
209
218
225
232
238
242
246
251
255
258
261
263
265
267
270
273
272
268
259
247
223
194
164
138
117
103
85
63
42
19
2
-6
-14
-24
-33
-37
-40
-43
-46
-49
-51
-53
-55
-57
-58
-60
-61
-61
-60
-61
-61
-62
-63
-64
-64
-64
-64
-64
-65
-65
-65
-65
-65
-66
-66
-67
-68
-69
-70
-71
-72
-73
-73
-73
-73
-73
-74
-76
-78
-80
-81
-82
-82
-82
-81
-81
-81
-80
-79
-78
-77
-76
-76
-75
-75
-75
-75
-76
-76
-76
-76
-77
-77
-78
-78
-78
-77
-75
-74
-73
-73
-72
-71
-69
-68
-67
-67
-67
-66
-64
-62
-61
-59
-55
-49
-43
-38
-33
-27
-16
3
17
24
30
35
40
44
48
52
55
59
62
64
65
64
62
59
54
50
45
39
32
25
22
19
16
14
12
10
8
7
5
4
4
3
3
4
5
5
5
6
6
7
8
9
9
10
11
13
16
19
24
27
49
96
175
298
465
671
889
1088
1213
1222
1139
892
564
228
-38
-173
-193
-158
-75
0
16
21
5
-11
-26
-26
-12
-3
2
7
11
15
17
20
22
26
30
33
36
38
40
42
45
48
52
55
57
60
62
66
69
76
87
94
97
98
99
100
100
100
101
102
103
104
106
107
109
111
113
116
119
122
129
145
163
173
179
184
188
192
195
197
198
197
195
193
190
186
181
173
159
147
132
111
87
63
41
20
2
-15
-33
-55
-77
-92
-102
-110
-117
-125
-135
-141
-144
-148
-151
-153
-155
-155
-155
-155
-154
-152
-151
-149
-147
-145
-143
-141
-138
-136
-133
-130
-125
-120
-116
-111
-108
-104
-101
-99
-96
-94
-93
-91
-89
-87
-85
-83
-82
-81
-80
-79
-78
-77
-76
-76
-74
-70
-65
-61
-57
-52
-47
-43
-46
-52
-55
-57
-59
-61
-64
-66
-68
-70
-72
-74
-76
-78
-81
-86
-90
-92
-91
-91
-91
-90
-89
-88
-88
-87
-87
-87
-88
-88
-89
-90
-92
-92
-86
-78
-72
-66
-60
-55
-50
-46
-42
-39
-36
-33
-29
-26
-22
-19
-16
-14
-11
-9
-6
-5
-4
-6
-9
-13
-18
-24
-31
-42
-52
-58
-62
-65
-67
-69
-72
-74
-78
-82
-85
-89
-92
-95
-99
-102
-105
-108
-110
-111
-112
-113
-112
-111
-110
-107
-104
-101
-84
-50
6
97
236
421
630
830
983
1044
977
775
469
128
-165
-356
-421
-376
-274
-167
-107
-87
-97
-109
-119
-119
-110
-97
-79
-62
-50
-39
-34
-31
-28
-26
-25
-22
-20
-17
-13
-10
-6
-2
0
5
11
16
21
24
27
31
35
42
49
57
65
74
85
95
104
115
127
138
153
171
182
188
192
197
202
207
213
220
227
234
243
259
281
297
309
321
328
332
336
339
340
339
336
331
324
312
287
260
237
222
209
192
171
144
115
91
76
64
47
24
-3
-15
-19
-23
-25
-28
-30
-32
-33
-34
-35
-36
-36
-36
-35
-34
-32
-31
-31
-30
-29
-27
-26
-26
-25
-25
-24
-23
-22
-21
-21
-21
-21
-21
-20
-20
-20
-19
-19
-19
-20
-20
-21
-22
-24
-26
-28
-30
-32
-34
-36
-38
-40
-43
-46
-50
-52
-52
-51
-50
-50
-49
-49
-49
-49
-48
-47
-46
-46
-46
-46
-45
-46
-47
-48
-50
-52
-53
-54
-56
-60
-61
-55
-45
-40
-36
-33
-31
-28
-26
-23
-21
-19
-18
-16
-15
-14
-14
-14
-14
-14
-14
-13
-12
-12
-12
-12
-11
-10
-11
-16
-22
-30
-41
-56
-65
-70
-74
-78
-80
-81
-79
-75
-70
-65
-61
-58
-56
-53
-50
-47
-44
-41
-39
-35
-32
-30
-28
-27
-26
-24
-21
-16
-4
25
80
169
301
477
681
880
1036
1098
1020
796
471
126
-163
-314
-336
-298
-200
-108
-67
-56
-49
-45
-41
-37
-34
-32
-28
-25
-22
-19
-16
-13
-10
-6
-1
4
14
23
30
35
38
41
43
46
50
53
56
59
62
65
70
76
82
88
93
98
102
107
113
120
128
135
143
152
162
170
177
183
191
199
207
214
221
233
253
264
271
276
279
280
279
276
272
266
255
235
221
212
201
189
169
145
122
97
79
68
57
45
27
4
-11
-24
-39
-54
-69
-85
-93
-97
-101
-104
-107
-109
-110
-110
-109
-106
-103
-100
-97
-92
-87
-79
-64
-46
-38
-34
-30
-26
-23
-21
-19
-18
-18
-18
-19
-20
-21
-23
-25
-29
-32
-35
-38
-41
-44
-47
-49
-50
-51
-52
-52
-53
-55
-57
-58
-57
-53
-47
-41
-38
-36
-33
-30
-28
-26
-25
-25
-25
-26
-26
-26
-26
-27
-27
-28
-29
-29
-30
-31
-31
-32
-32
-32
-32
-32
-30
-29
-27
-23
-19
-15
-10
0
22
36
44
49
53
57
60
63
66
68
71
73
75
76
76
74
71
67
62
57
51
43
35
27
17
0
-23
-34
-41
-46
-50
-50
-47
-42
-37
-32
-24
-19
-25
-36
-44
-51
-57
-61
-61
-57
-51
-44
-34
-18
-6
21
59
125
225
365
544
750
947
1089
1130
1033
795
465
123
-144
-277
-295
-254
-181
-148
-138
-132
-128
-126
-126
-127
-129
-131
-133
-136
-141
-144
-137
-124
-115
-108
-102
-97
-93
-91
-90
-88
-87
-87
-86
-86
-85
-84
-83
-83
-83
-84
-85
-86
-87
-89
-91
-95
-97
-93
-82
-70
-54
-37
-21
-8
2
12
22
31
42
54
66
79
90
101
107
113
117
121
123
124
124
122
119
115
111
107
100
93
86
78
65
44
23
-2
-27
-46
-66
-91
-123
-146
-161
-175
-190
-200
-208
-214
-218
-221
-223
-225
-226
-228
-228
-230
-232
-233
-233
-229
-223
-214
-202
-186
-177
-173
-171
-168
-167
-166
-166
-167
-168
-169
-170
-170
-171
-172
-173
-173
-172
-171
-170
-169
-169
-167
-166
-164
-163
-162
-161
-160
-159
-156
-153
-149
-146
-142
-138
-133
-128
-124
-121
-120
-120
-119
-119
-118
-117
-117
-116
-115
-113
-110
-107
-104
-100
-96
-91
-86
-82
-79
-75
-72
-69
-65
-60
-55
-48
-42
-36
-31
-25
-19
-13
-7
-1
2
6
8
11
16
21
29
42
60
76
90
101
110
117
122
127
130
131
129
125
120
113
105
92
79
65
58
52
46
41
37
34
33
32
32
32
32
32
32
32
31
30
28
27
26
25
24
22
19
15
9
3
-4
-19
-19
-2
45
126
244
402
592
804
1004
1158
1222
1168
990
721
408
126
-77
-171
-182
-143
-80
-51
-39
-32
-28
-25
-22
-20
-17
-14
-12
-10
-8
-7
-6
-4
-1
0
3
6
9
12
14
18
21
25
29
33
39
45
51
56
61
66
70
75
82
91
106
118
129
136
142
147
152
158
163
169
176
186
200
213
227
236
243
248
254
259
265
269
274
278
284
290
298
305
310
310
307
302
296
287
272
256
234
202
170
148
128
109
89
65
42
20
0
-12
-22
-30
-41
-52
-63
-70
-77
-83
-90
-95
-98
-100
-100
-101
-101
-101
-100
-100
-99
-98
-98
-99
-101
-101
-102
-102
-102
-103
-103
-104
-104
-104
-103
-102
-102
-103
-104
-105
-106
-107
-108
-108
-108
-107
-106
-104
-103
-101
-99
-97
-95
-93
-91
-90
-88
-86
-84
-80
-75
-70
-65
-59
-54
-49
-44
-40
-37
-35
-33
-32
-31
-30
-28
-27
-25
-24
-23
-22
-21
-20
-20
-21
-21
-21
-21
-20
-19
-18
-17
-16
-15
-12
-10
-8
-6
-3
0
4
14
25
35
45
56
66
78
88
94
98
101
102
103
105
107
108
108
109
110
111
110
108
105
101
96
92
87
82
78
74
72
70
69
67
66
64
63
62
62
61
61
60
60
60
62
64
66
68
71
74
77
81
86
92
96
109
148
231
356
524
733
951
1144
1245
1242
1127
870
552
251
26
-79
-114
-96
-65
-40
-34
-33
-31
-30
-29
-27
-25
-22
-17
-13
-8
-5
-2
0
3
5
7
10
13
16
21
25
29
33
37
40
43
46
49
52
56
60
70
81
93
105
114
120
126
132
138
144
148
153
157
163
172
185
201
219
232
242
251
259
265
270
275
279
284
290
296
300
299
294
286
276
265
250
235
220
201
181
164
151
139
125
110
86
55
23
-6
-28
-46
-68
-87
-102
-116
-127
-138
-148
-156
-162
-166
-168
-170
-171
-172
-173
-174
-174
-174
-174
-173
-173
-174
-174
-175
-175
-175
-176
-176
-176
-177
-176
-176
-174
-173
-171
-170
-169
-167
-166
-164
-163
-161
-159
-157
-154
-150
-147
-144
-142
-140
-137
-133
-129
-126
-122
-119
-116
-113
-110
-107
-105
-102
-101
-100
-99
-99
-98
-98
-97
-96
-95
-93
-91
-88
-85
-83
-80
-78
-77
-75
-75
-74
-73
-72
-71
-70
-68
-66
-64
-61
-58
-55
-52
-49
-45
-42
-38
-34
-30
-25
-19
-12
-5
1
6
11
15
18
21
24
28
30
32
34
35
36
35
35
33
29
25
21
17
12
7
2
-3
-12
-21
-28
-32
-34
-37
-40
-43
-46
-48
-51
-53
-56
-58
-61
-63
-64
-65
-64
-63
-62
-60
-58
-56
-53
-50
-46
-41
-36
-29
14
120
278
480
715
947
1126
1196
1119
900
581
230
-66
-264
-327
-327
-262
-177
-124
-112
-104
-98
-94
-90
-86
-81
-75
-71
-67
-64
-61
-58
-56
-52
-47
-42
-37
-33
-29
-25
-21
-17
-13
-9
-5
0
3
8
13
18
24
29
35
41
47
52
58
63
67
72
77
85
97
110
125
138
151
162
171
179
186
192
197
202
208
215
222
228
235
242
249
254
257
255
249
241
232
221
205
191
180
162
135
109
83
64
48
32
12
-15
-40
-55
-65
-72
-75
-78
-80
-82
-83
-84
-85
-86
-87
-87
-87
-87
-86
-85
-83
-80
-78
-74
-71
-68
-64
-60
-51
-43
-35
-30
-26
-22
-21
-21
-24
-28
-31
-33
-34
-36
-37
-39
-40
-41
-43
-44
-44
-45
-45
-45
-44
-44
-44
-44
-43
-43
-44
-44
-45
-45
-45
-45
-44
-44
-44
-43
-42
-41
-40
-39
-38
-37
-36
-34
-33
-32
-31
-31
-31
-30
-29
-28
-27
-26
-24
-23
-21
-19
-17
-16
-15
-14
-13
-12
-10
-8
-6
-3
1
8
14
19
24
29
35
43
49
54
57
60
63
65
66
65
63
60
56
51
46
40
33
26
18
10
0
-11
-23
-34
-39
-42
-46
-49
-52
-55
-57
-59
-61
-62
-64
-65
-66
-65
-65
-64
-63
-61
-60
-58
-56
-52
-49
-44
-18
46
149
298
489
699
888
992
992
888
641
321
-4
-260
-414
-452
-411
-340
-281
-261
-252
-242
-231
-218
-210
-205
-201
-196
-189
-181
-174
-169
-164
-160
-155
-151
-147
-144
-142
-140
-138
-135
-132
-129
-125
-122
-119
-115
-112
-107
-102
-94
-80
-68
-56
-47
-36
-24
-14
-7
0
5
10
14
18
29
48
68
87
107
128
141
147
151
156
162
167
173
180
189
196
201
205
210
216
219
215
205
190
165
143
128
117
104
87
70
53
34
13
-7
-22
-35
-50
-77
-103
-119
-129
-135
-139
-141
-144
-146
-148
-151
-153
-155
-156
-157
-159
-161
-163
-163
-160
-154
-149
-146
-144
-142
-140
-138
-134
-131
-129
-126
-124
-122
-119
-118
-117
-117
-116
-115
-112
-108
-104
-101
-100
-100
-100
-100
-101
-103
-106
-109
-110
-106
-100
-96
-93
-91
-89
-87
-84
-81
-78
-75
-73
-71
-69
-66
-62
-51
-31
-25
-22
-20
-17
-16
-15
-14
-14
-14
-13
-13
-12
-11
-10
-9
-8
-7
-6
-5
-3
-2
0
3
7
12
23
32
39
46
52
57
60
62
64
65
66
67
68
69
69
66
63
58
54
50
44
36
29
20
5
-13
-22
-27
-31
-35
-36
-36
-35
-33
-30
-28
-27
-25
-22
-20
-18
-16
-15
-13
-12
-10
-8
-4
0
20
51
106
191
315
478
670
875
1059
1139
1126
980
699
367
73
-130
-208
-216
-179
-124
-97
-91
-86
-80
-75
-70
-65
-60
-58
-58
-60
-61
-64
-67
-68
-64
-55
-47
-38
-34
-31
-28
-27
-25
-24
-22
-20
-18
-16
-13
-10
-6
3
21
37
53
61
65
67
70
73
77
81
85
89
97
110
123
140
161
175
182
189
196
203
211
220
229
238
245
250
256
260
264
267
271
275
279
279
274
267
256
239
223
206
188
168
148
126
108
94
82
66
44
24
9
-5
-18
-27
-35
-41
-46
-48
-49
-50
-51
-53
-54
-55
-55
-56
-56
-57
-57
-58
-57
-57
-56
-55
-54
-53
-53
-52
-51
-49
-48
-47
-47
-46
-44
-43
-41
-40
-39
-39
-38
-37
-35
-32
-30
-29
-29
-31
-34
-36
-39
-43
-48
-53
-56
-54
-48
-42
-38
-32
-26
-22
-21
-23
-26
-29
-32
-36
-40
-43
-45
-45
-44
-42
-39
-37
-32
-29
-32
-37
-41
-46
-49
-44
-35
-28
-22
-16
-10
-4
1
7
14
22
31
42
54
60
65
70
74
78
81
82
84
84
84
83
82
79
75
71
66
62
58
54
49
45
41
39
38
38
38
38
38
37
36
34
33
38
47
53
57
61
64
67
68
68
67
64
60
55
49
43
32
24
24
30
44
84
170
300
471
677
897
1101
1220
1222
1110
838
479
131
-134
-257
-273
-231
-132
-47
-22
-14
-31
-60
-90
-106
-115
-120
-121
-117
-107
-98
-93
-89
-85
-82
-78
-75
-72
-69
-66
-64
-62
-60
-58
-56
-54
-52
-49
-46
-41
-36
-30
-23
-16
-9
-1
5
11
17
21
25
28
32
35
39
44
49
54
61
72
89
106
123
139
154
162
167
171
176
179
182
183
184
184
184
182
180
177
172
166
159
151
132
94
66
43
21
-1
-24
-48
-65
-77
-87
-96
-104
-111
-116
-119
-122
-124
-126
-129
-132
-134
-135
-136
-135
-134
-133
-131
-130
-127
-125
-122
-120
-119
-118
-118
-118
-117
-117
-116
-116
-116
-115
-113
-111
-110
-109
-109
-110
-110
-109
-109
-108
-108
-108
-108
-107
-106
-104
-103
-101
-99
-97
-95
-93
-91
-88
-86
-84
-82
-81
-79
-78
-77
-75
-74
-72
-70
-68
-66
-64
-62
-61
-60
-59
-59
-59
-59
-60
-60
-61
-60
-60
-59
-58
-57
-55
-53
-51
-49
-47
-45
-42
-38
-33
-24
-14
-4
5
15
31
51
64
69
73
76
78
81
82
83
83
83
83
83
82
79
76
72
69
65
61
57
49
40
30
19
9
0
-8
-16
-23
-27
-30
-32
-34
-36
-38
-41
-43
-45
-46
-47
-48
-48
-48
-47
-45
-42
-38
-33
-27
-19
-10
9
49
110
204
342
523
731
943
1123
1186
1165
991
693
363
72
-125
-187
-208
-187
-122
-83
-77
-72
-68
-65
-62
-59
-57
-52
-48
-46
-43
-41
-40
-39
-39
-38
-36
-34
-31
-28
-25
-21
-18
-14
-10
-7
-3
0
4
7
11
14
17
21
25
29
34
38
43
47
50
53
54
56
59
63
68
75
91
114
132
147
160
173
183
192
199
206
213
220
226
232
238
246
252
256
252
244
232
218
197
178
152
121
98
80
64
50
38
25
11
-4
-22
-39
-56
-74
-93
-114
-131
-132
-133
-133
-134
-134
-134
-133
-132
-132
-131
-130
-128
-126
-123
-121
-119
-118
-117
-116
-115
-114
-112
-111
-110
-109
-108
-107
-108
-109
-111
-114
-117
-119
-121
-123
-124
-126
-128
-129
-129
-131
-132
-135
-138
-140
-142
-142
-143
-142
-142
-141
-140
-138
-137
-136
-135
-134
-133
-130
-126
-125
-126
-128
-131
-131
-132
-133
-134
-136
-137
-139
-140
-140
-140
-140
-140
-138
-136
-134
-132
-130
-128
-127
-126
-125
-124
-122
-120
-118
-115
-111
-107
-102
-97
-92
-88
-82
-76
-63
-44
-39
-37
-35
-33
-32
-30
-29
-29
-28
-29
-29
-30
-32
-35
-38
-41
-43
-45
-47
-49
-51
-52
-53
-55
-57
-60
-63
-66
-68
-69
-69
-69
-69
-69
-69
-68
-67
-68
-69
-73
-72
-61
-52
-45
-37
-28
-18
-2
22
63
133
247
411
616
839
1038
1138
1132
998
702
335
-8
-256
-334
-332
-242
-131
-71
-60
-53
-46
-41
-37
-35
-33
-30
-27
-24
-22
-21
-21
-20
-19
-18
-16
-13
-5
2
11
16
20
22
25
27
29
32
35
39
43
47
50
54
58
63
68
75
81
87
92
97
102
108
115
126
137
149
162
174
186
198
211
224
237
248
259
270
282
295
306
317
325
328
330
331
332
335
336
331
320
305
279
252
224
194
163
136
116
102
90
77
63
50
36
23
11
0
-6
-10
-14
-20
-20
-16
-14
-12
-10
-9
-8
-8
-9
-10
-12
-15
-17
-22
-25
-19
-7
3
12
20
24
27
28
29
31
33
34
35
35
35
35
36
36
36
36
35
35
35
36
38
40
42
44
45
47
49
51
52
53
55
59
63
67
70
73
74
75
76
77
77
77
77
77
77
78
79
81
83
85
88
91
94
97
100
101
102
104
106
108
111
114
117
120
123
127
130
133
135
137
140
143
147
151
156
160
165
168
172
175
178
182
186
192
197
196
189
180
170
159
146
134
127
122
118
114
110
107
103
100
98
96
93
92
90
89
88
87
85
82
79
77
76
75
75
75
75
76
78
81
85
90
96
123
185
285
427
608
812
1012
1161
1215
1143
942
650
322
29
-156
-199
-192
-111
-23
21
36
43
42
37
31
28
25
23
21
19
18
18
19
22
26
32
37
43
48
54
59
63
65
67
69
70
73
76
80
82
81
77
74
72
70
68
66
64
62
61
60
60
62
64
68
72
76
80
84
88
93
98
102
107
111
114
118
122
126
131
137
143
147
146
142
135
127
116
99
84
68
52
34
10
-17
-37
-53
-68
-87
-111
-135
-162
-183
-196
-208
-219
-234
-250
-262
-267
-270
-272
-275
-277
-279
-280
-282
-284
-285
-286
-286
-286
-287
-287
-288
-287
-287
-285
-284
-282
-280
-277
-275
-272
-270
-269
-268
-266
-265
-263
-260
-258
-256
-254
-250
-247
-243
-239
-237
-234
-232
-229
-226
-221
-217
-211
-205
-199
-193
-188
-184
-180
-176
-173
-171
-168
-167
-165
-163
-160
-158
-155
-151
-148
-145
-141
-138
-134
-129
-124
-117
-111
-106
-103
-100
-97
-94
-92
-89
-86
-83
-79
-75
-70
-64
-57
-47
-34
-21
-10
-4
0
4
8
12
15
17
18
18
18
17
15
12
8
4
0
-5
-12
-29
-45
-53
-58
-62
-65
-68
-71
-72
-73
-73
-72
-71
-70
-69
-68
-67
-66
-64
-61
-58
-56
-53
-49
-46
-42
-39
-35
-30
-23
3
68
170
313
491
690
893
1066
1136
1122
972
690
365
71
-141
-222
-230
-189
-115
-64
-48
-40
-40
-43
-45
-47
-47
-47
-46
-46
-46
-46
-45
-43
-40
-36
-31
-27
-24
-21
-18
-14
-11
-8
-4
0
3
7
11
15
19
23
30
38
46
54
61
68
75
82
89
96
103
109
115
126
142
159
173
186
201
219
228
234
240
245
250
253
255
257
258
259
259
258
256
254
250
247
244
240
236
229
216
202
188
165
134
111
93
76
55
26
4
-7
-16
-24
-30
-39
-52
-62
-66
-69
-71
-72
-74
-75
-75
-75
-75
-74
-73
-73
-71
-70
-69
-68
-68
-67
-67
-67
-66
-65
-64
-64
-65
-68
-71
-75
-77
-80
-82
-85
-87
-88
-86
-83
-78
-72
-67
-64
-60
-56
-51
-48
-46
-46
-48
-51
-54
-56
-58
-61
-64
-67
-69
-68
-63
-57
-52
-50
-48
-46
-44
-41
-39
-37
-35
-34
-34
-33
-32
-31
-32
-33
-34
-34
-34
-33
-31
-29
-28
-26
-23
-21
-19
-17
-15
-14
-13
-11
-6
0
6
10
12
12
10
8
6
4
2
0
-3
-7
-11
-15
-20
-25
-29
-34
-38
-42
-47
-51
-56
-61
-67
-76
-91
-106
-113
-116
-118
-121
-123
-125
-127
-129
-129
-130
-130
-129
-128
-126
-124
-121
-117
-113
-108
-102
-91
-62
-6
87
223
397
594
804
995
1086
1076
931
636
283
-44
-281
-376
-383
-320
-218
-158
-137
-137
-151
-172
-191
-198
-202
-204
-205
-202
-195
-188
-180
-172
-163
-156
-148
-142
-136
-130
-125
-120
-115
-110
-104
-98
-92
-85
-79
-74
-69
-64
-59
-53
-47
-40
-32
-23
-12
-1
8
17
28
41
52
61
73
87
104
122
139
153
166
180
195
209
220
231
241
247
251
255
258
260
261
262
262
259
256
251
245
238
227
207
192
178
162
144
119
88
66
51
41
32
22
10
-6
-16
-22
-27
-32
-35
-37
-36
-34
-31
-27
-24
-21
-17
-13
-9
-6
-4
-3
-2
-1
0
0
0
0
0
0
0
1
1
2
2
1
1
2
3
3
3
3
3
3
2
2
1
0
0
0
0
0
0
-1
-1
-1
-2
-4
-8
-10
-9
-5
-1
0
1
2
4
5
6
8
9
10
12
13
15
16
17
18
18
19
19
20
21
22
24
26
28
30
32
35
38
41
44
47
50
54
60
71
89
94
97
99
102
104
107
111
115
118
122
127
132
135
134
129
122
114
108
101
93
86
79
73
67
56
38
23
2
-16
-25
-31
-33
-29
-21
-14
-8
-2
0
-2
-9
-19
-32
-48
-49
-50
-51
-52
-52
-48
-38
-11
34
100
199
343
525
735
941
1092
1135
1038
812
505
179
-112
-299
-363
-362
-294
-197
-113
-64
-47
-57
-75
-91
-98
-104
-105
-98
-85
-76
-70
-65
-60
-57
-53
-50
-46
-41
-36
-27
-18
-8
-1
3
7
10
13
16
20
23
27
31
35
39
43
47
51
56
60
64
68
74
83
91
96
102
112
129
148
168
182
189
197
207
218
226
234
241
246
250
253
256
260
266
269
266
257
247
234
219
200
173
142
112
86
67
49
26
-4
-31
-51
-67
-83
-98
-116
-132
-145
-158
-173
-179
-183
-186
-190
-193
-195
-198
-200
-202
-203
-204
-204
-203
-202
-200
-199
-197
-195
-193
-191
-189
-188
-187
-185
-182
-178
-174
-172
-172
-174
-176
-179
-182
-188
-191
-186
-175
-169
-165
-160
-157
-153
-151
-148
-145
-143
-141
-140
-139
-137
-135
-132
-129
-127
-124
-123
-122
-121
-121
-121
-122
-123
-124
-125
-126
-127
-128
-128
-130
-133
-136
-136
-130
-123
-119
-116
-113
-110
-105
-100
-94
-88
-82
-74
-63
-45
-33
-24
-20
-17
-13
-10
-8
-6
-5
-4
-3
-3
-2
-3
-5
-8
-11
-14
-17
-21
-25
-29
-32
-35
-37
-39
-41
-43
-46
-47
-48
-49
-50
-52
-53
-53
-53
-52
-51
-50
-48
-46
-44
-42
-40
-37
-35
-32
-29
-25
-16
4
38
98
202
356
554
781
997
1142
1155
1075
824
477
123
-159
-290
-306
-253
-136
-38
0
14
15
9
5
2
0
0
0
-1
-2
-1
0
1
4
8
14
20
31
43
57
65
70
74
77
80
84
88
91
94
97
101
106
114
127
138
147
153
157
160
163
166
170
174
179
184
191
203
222
240
253
262
271
280
290
298
304
309
313
318
321
323
324
323
321
318
315
310
305
298
287
275
262
249
236
221
206
182
149
122
101
81
64
49
32
13
6
2
-1
-4
-8
-11
-13
-14
-15
-16
-17
-18
-19
-19
-19
-20
-20
-21
-21
-22
-22
-22
-22
-22
-23
-23
-23
-23
-23
-23
-23
-25
-26
-28
-29
-31
-32
-34
-36
-38
-39
-40
-40
-41
-43
-46
-48
-49
-50
-50
-51
-52
-53
-54
-53
-53
-52
-52
-53
-54
-55
-56
-58
-59
-61
-63
-64
-65
-65
-66
-66
-67
-68
-70
-71
-73
-73
-70
-66
-61
-55
-49
-44
-39
-34
-29
-24
-20
-16
-12
-8
-5
-4
-4
-5
-7
-10
-12
-15
-18
-22
-26
-29
-32
-34
-37
-40
-43
-47
-51
-54
-58
-61
-65
-67
-69
-71
-72
-72
-73
-73
-72
-73
-73
-73
-73
-72
-71
-70
-69
-67
-65
-63
-60
-57
-54
-51
-31
20
102
219
373
558
756
928
1017
1015
911
675
363
43
-204
-321
-335
-297
-223
-192
-185
-181
-172
-161
-151
-144
-139
-135
-130
-126
-122
-119
-116
-112
-108
-103
-99
-95
-92
-89
-85
-76
-66
-58
-51
-45
-39
-35
-31
-26
-21
-15
-9
-4
2
9
18
28
37
46
56
64
73
82
91
100
108
116
125
135
145
156
166
176
184
193
201
208
213
217
220
223
226
230
234
237
238
237
232
224
215
197
167
142
115
87
65
48
28
8
-12
-31
-44
-59
-79
-103
-122
-134
-141
-144
-146
-147
-148
-150
-151
-152
-154
-156
-158
-159
-160
-159
-159
-158
-158
-157
-157
-158
-159
-160
-161
-162
-163
-164
-165
-165
-165
-164
-163
-160
-158
-155
-153
-152
-150
-149
-149
-148
-148
-149
-148
-148
-146
-145
-143
-140
-137
-134
-130
-127
-124
-122
-120
-118
-116
-114
-112
-110
-108
-106
-104
-101
-99
-97
-95
-94
-93
-92
-91
-90
-89
-89
-89
-88
-86
-85
-84
-82
-80
-77
-74
-68
-60
-53
-46
-39
-28
-13
1
11
19
25
29
29
27
25
22
20
17
14
12
11
11
13
16
20
24
30
34
29
18
8
0
-9
-17
-24
-29
-36
-42
-45
-43
-38
-32
-29
-26
-24
-22
-20
-18
-15
-12
-10
-8
-7
-6
-4
-1
2
22
60
127
230
374
559
770
973
1128
1195
1138
956
686
380
105
-101
-199
-214
-192
-126
-65
-39
-31
-27
-27
-33
-40
-44
-48
-51
-54
-56
-56
-54
-50
-45
-40
-33
-21
-11
-2
2
6
10
13
17
22
28
34
41
48
58
68
75
81
87
90
94
97
101
105
109
114
118
124
134
143
151
160
171
187
200
210
221
232
243
252
260
267
270
270
269
268
267
267
266
265
265
264
262
258
252
245
230
202
171
142
116
90
66
41
20
4
-8
-18
-27
-37
-48
-58
-69
-76
-78
-80
-81
-82
-82
-83
-83
-82
-82
-81
-80
-78
-75
-73
-71
-68
-66
-64
-61
-60
-59
-58
-59
-60
-61
-63
-66
-69
-67
-64
-64
-63
-62
-61
-60
-59
-58
-57
-55
-54
-54
-55
-56
-57
-58
-59
-60
-61
-63
-65
-66
-66
-65
-65
-66
-66
-67
-68
-68
-70
-72
-74
-76
-77
-78
-78
-78
-78
-77
-76
-75
-73
-72
-72
-72
-72
-73
-73
-73
-73
-72
-71
-70
-68
-66
-64
-62
-60
-58
-55
-52
-49
-43
-33
-22
-11
-3
4
10
14
16
18
19
20
20
21
22
23
23
20
16
11
5
1
-3
-8
-13
-20
-27
-33
-38
-41
-44
-46
-49
-51
-52
-54
-55
-56
-58
-61
-62
-63
-63
-63
-64
-64
-65
-66
-67
-67
-70
-75
-73
-62
-31
25
115
244
411
611
824
1016
1129
1132
1037
789
471
154
-98
-251
-296
-262
-197
-137
-111
-103
-99
-100
-106
-114
-120
-127
-133
-137
-137
-132
-124
-117
-112
-108
-104
-100
-96
-92
-89
-85
-83
-81
-79
-76
-73
-69
-61
-51
-39
-31
-24
-18
-13
-8
-4
0
3
7
11
16
21
26
33
42
57
72
87
103
119
141
163
174
180
184
189
195
201
208
216
226
235
241
247
253
261
265
261
251
242
232
221
209
191
163
133
102
77
58
41
27
15
3
-8
-19
-31
-41
-51
-55
-57
-59
-61
-62
-64
-66
-67
-69
-70
-71
-72
-73
-72
-71
-69
-67
-65
-64
-62
-61
-60
-59
-59
-60
-60
-59
-56
-52
-48
-47
-46
-46
-46
-46
-46
-48
-50
-51
-52
-51
-49
-48
-46
-45
-44
-45
-46
-48
-48
-49
-50
-50
-51
-51
-51
-52
-53
-54
-55
-54
-54
-53
-53
-53
-52
-51
-49
-48
-46
-45
-44
-44
-43
-42
-41
-41
-40
-40
-39
-38
-36
-34
-32
-30
-27
-24
-21
-18
-15
-12
-9
-6
-2
2
7
13
19
24
28
31
34
36
37
38
40
41
43
45
47
48
45
38
30
23
17
13
8
3
-1
-6
-10
-13
-16
-18
-21
-23
-24
-25
-26
-28
-32
-35
-39
-40
-38
-34
-29
-24
-20
-16
-12
-7
-2
2
6
12
21
58
130
241
390
571
774
966
1112
1168
1094
876
547
187
-107
-282
-326
-267
-166
-81
-40
-24
-23
-31
-37
-44
-48
-41
-29
-22
-18
-14
-11
-9
-7
-4
0
3
6
9
12
14
17
21
29
41
59
67
73
78
83
87
90
94
97
99
101
103
105
107
110
118
140
155
162
167
172
177
181
186
192
201
214
228
243
258
275
293
309
312
314
316
317
318
318
317
312
305
296
283
263
250
233
212
193
180
167
150
129
108
85
59
34
8
-18
-33
-40
-45
-48
-51
-53
-55
-57
-59
-61
-63
-64
-66
-67
-68
-68
-69
-69
-69
-69
-70
-70
-71
-70
-70
-70
-71
-73
-74
-75
-75
-75
-75
-74
-74
-74
-74
-75
-77
-79
-81
-83
-85
-87
-89
-91
-94
-96
-99
-102
-107
-111
-111
-104
-95
-87
-79
-73
-70
-73
-79
-85
-88
-91
-94
-97
-99
-100
-101
-101
-101
-100
-100
-99
-97
-95
-93
-92
-91
-90
-89
-88
-87
-85
-84
-82
-81
-79
-78
-77
-76
-76
-75
-73
-70
-64
-52
-35
-24
-15
-8
-3
0
1
2
3
5
6
7
8
7
4
0
-6
-12
-17
-23
-29
-34
-39
-43
-46
-50
-53
-56
-59
-61
-63
-65
-67
-68
-70
-71
-72
-73
-73
-74
-74
-73
-72
-71
-70
-69
-68
-66
-64
-62
-59
-44
-7
56
156
296
473
676
876
1033
1104
1053
869
580
253
-25
-210
-267
-269
-219
-155
-102
-84
-82
-81
-81
-80
-80
-80
-79
-77
-74
-71
-67
-65
-63
-61
-59
-57
-55
-52
-48
-44
-39
-36
-32
-27
-17
-7
4
10
15
19
22
25
29
33
36
38
40
42
46
51
63
91
109
117
122
128
135
140
145
151
159
170
181
191
207
227
235
238
242
245
247
249
249
249
249
247
245
242
238
233
223
199
171
147
129
115
97
73
47
24
2
-13
-25
-36
-49
-68
-79
-83
-87
-90
-93
-95
-97
-99
-101
-103
-104
-106
-107
-109
-112
-116
-118
-118
-113
-106
-98
-93
-89
-85
-81
-78
-75
-73
-72
-72
-73
-75
-77
-78
-81
-85
-89
-90
-88
-85
-84
-82
-81
-80
-79
-78
-77
-76
-75
-76
-77
-78
-79
-81
-83
-85
-87
-89
-91
-92
-93
-95
-97
-98
-99
-99
-99
-99
-98
-96
-94
-91
-88
-85
-84
-83
-82
-81
-79
-77
-75
-73
-71
-68
-65
-62
-59
-57
-55
-52
-49
-44
-36
-27
-21
-16
-11
-7
-3
0
3
6
9
12
14
16
18
20
23
25
27
27
25
22
18
13
8
1
-9
-21
-33
-38
-42
-45
-47
-50
-53
-55
-56
-58
-59
-60
-61
-61
-61
-59
-58
-56
-54
-52
-50
-47
-43
-40
-35
-28
-14
17
68
147
262
415
604
809
1003
1133
1144
1068
828
509
188
-54
-196
-236
-199
-141
-86
-71
-70
-68
-68
-67
-67
-65
-63
-59
-56
-52
-48
-43
-37
-29
-21
-13
-7
-3
0
3
6
8
11
14
17
20
22
26
29
32
38
43
49
54
58
63
71
83
99
112
124
133
139
146
152
160
169
178
185
193
200
207
214
221
230
240
250
256
262
266
270
274
276
277
277
277
276
274
271
267
262
252
230
191
153
130
110
93
73
55
40
29
20
11
0
-16
-40
-63
-73
-78
-82
-86
-88
-89
-88
-86
-84
-80
-76
-70
-66
-67
-69
-70
-71
-72
-74
-76
-77
-79
-81
-83
-84
-85
-84
-83
-82
-82
-82
-83
-84
-87
-89
-90
-91
-91
-92
-92
-91
-90
-89
-87
-86
-86
-86
-88
-89
-90
-91
-92
-94
-96
-97
-98
-98
-98
-97
-97
-96
-94
-92
-89
-87
-85
-84
-83
-82
-80
-79
-79
-79
-78
-78
-76
-75
-74
-74
-74
-73
-72
-71
-70
-69
-68
-68
-67
-65
-62
-60
-59
-56
-52
-47
-41
-35
-27
-21
-16
-11
-6
-2
0
2
4
4
4
4
2
0
-2
-6
-9
-13
-17
-21
-26
-31
-35
-39
-43
-46
-49
-51
-53
-56
-60
-63
-65
-65
-64
-61
-58
-55
-53
-50
-48
-45
-42
-39
-36
-33
-31
-27
-21
-12
10
54
128
242
404
609
841
1065
1205
1212
1103
817
463
123
-123
-239
-254
-217
-141
-89
-65
-55
-47
-42
-42
-48
-57
-71
-89
-101
-109
-107
-90
-74
-59
-47
-37
-29
-24
-20
-16
-12
-8
-4
0
3
6
8
11
13
16
18
20
23
26
28
30
33
36
40
47
63
82
96
105
112
119
125
130
136
143
151
159
167
176
189
204
216
223
227
230
232
234
236
236
235
233
230
225
220
214
206
191
179
169
153
127
97
70
45
19
-7
-37
-57
-67
-74
-81
-88
-94
-98
-100
-102
-103
-105
-106
-108
-109
-110
-110
-111
-112
-113
-114
-114
-113
-113
-113
-112
-111
-111
-110
-109
-108
-107
-106
-105
-104
-102
-101
-99
-98
-98
-98
-98
-98
-97
-95
-93
-90
-88
-88
-88
-88
-89
-89
-90
-92
-94
-96
-98
-99
-99
-99
-99
-96
-92
-88
-84
-80
-78
-76
-75
-74
-73
-72
-71
-70
-68
-66
-64
-61
-59
-57
-55
-55
-54
-53
-52
-51
-49
-46
-44
-41
-38
-34
-30
-26
-22
-18
-14
-11
-8
-4
1
7
22
51
71
84
96
108
114
118
122
126
129
131
132
131
130
128
126
123
118
113
106
95
76
69
64
59
55
60
71
82
95
102
107
113
121
119
101
92
85
79
74
70
67
65
65
65
65
67
70
75
81
106
171
279
448
657
895
1125
1294
1355
1266
1035
681
266
-100
-295
-247
-84
169
398
535
558
534
456
399
380
390
422
464
480
480
467
432
372
304
238
191
142
113
84
58
46
40
34
30
28
28
31
34
37
40
42
43
44
46
48
50
51
53
55
57
60
61
62
62
63
66
70
75
82
98
115
132
150
170
182
190
196
200
205
211
215
221
229
245
281
323
347
355
361
363
359
348
320
267
196
145
125
110
92
62
31
9
-6
-19
-33
-56
-72
-84
-93
-98
-100
-102
-103
-106
-109
-111
-113
-114
-114
-114
-114
-114
-114
-114
-112
-111
-111
-111
-112
-111
-109
-106
-104
-102
-100
-97
-99
-109
-121
-129
-136
-143
-148
-152
-154
-155
-155
-155
-154
-152
-151
-149
-148
-147
-145
-142
-140
-137
-135
-132
-129
-127
-124
-121
-119
-117
-115
-113
-110
-107
-104
-101
-98
-96
-94
-93
-91
-90
-89
-88
-87
-85
-83
-81
-79
-77
-76
-74
-72
-70
-67
-64
-61
-57
-48
-37
-27
-16
-7
0
6
12
18
23
27
29
31
32
34
36
38
41
45
48
46
34
19
7
-5
-17
-26
-33
-38
-42
-45
-48
-50
-53
-55
-56
-58
-59
-59
-60
-60
-59
-59
-58
-57
-56
-55
-53
-51
-48
-45
-41
-37
-33
-21
10
71
166
303
483
693
906
1076
1143
1062
832
507
158
-125
-261
-306
-286
-221
-148
-91
-59
-38
-24
-18
-25
-38
-45
-52
-58
-63
-65
-64
-60
-55
-50
-46
-42
-38
-32
-26
-18
-10
-2
2
6
10
13
17
20
24
27
30
33
36
39
42
45
48
53
58
64
71
77
84
90
98
107
117
126
134
143
153
164
175
187
198
206
211
216
221
225
228
229
228
226
223
218
213
207
196
176
157
137
118
97
76
54
31
7
-15
-35
-56
-75
-92
-106
-118
-129
-139
-145
-150
-155
-159
-162
-164
-166
-167
-168
-168
-168
-168
-168
-168
-169
-170
-171
-172
-171
-168
-164
-160
-158
-157
-155
-154
-153
-151
-150
-149
-149
-150
-151
-152
-153
-154
-155
-156
-156
-156
-155
-154
-153
-152
-151
-148
-144
-139
-134
-128
-121
-104
-66
-33
