-20
-23
-26
-36
-69
-88
-106
-121
-134
-145
-151
-157
-161
-163
-165
-165
-164
-162
-159
-156
-152
-148
-141
-134
-132
-135
-141
-147
-150
-153
-157
-161
-164
-165
-162
-156
-148
-141
-135
-126
-118
-113
-110
-109
-108
-106
-105
-103
-103
-103
-103
-104
-105
-107
-110
-113
-116
-118
-120
-121
-122
-122
-123
-123
-122
-121
-121
-119
-118
-115
-112
-109
-107
-104
-101
-98
-94
-91
-88
-86
-83
-80
-76
-72
-67
-62
-56
-47
-37
-25
-15
-9
-3
1
6
10
14
16
18
19
19
18
17
15
11
7
3
-1
-7
-14
-24
-34
-42
-49
-55
-58
-59
-61
-62
-62
-63
-63
-64
-64
-65
-65
-65
-64
-63
-62
-60
-59
-57
-56
-54
-53
-52
-51
-50
-49
-48
-45
-43
-36
-11
17
48
105
176
246
292
306
295
261
195
116
32
-48
-117
-167
-186
-187
-170
-125
-72
-21
8
28
38
46
55
66
74
79
81
83
86
87
88
89
90
92
95
97
100
103
106
109
113
117
120
122
124
127
132
136
140
145
149
153
157
160
163
166
168
170
172
175
178
183
190
197
205
214
222
229
237
244
252
259
265
271
277
281
283
281
277
271
262
247
221
197
172
147
122
97
73
53
39
25
8
-19
-39
-49
-57
-66
-75
-83
-87
-90
-93
-96
-99
-102
-103
-104
-105
-107
-108
-109
-108
-106
-103
-101
-99
-97
-96
-94
-92
-90
-89
-89
-88
-87
-86
-85
-83
-81
-79
-77
-74
-72
-71
-71
-71
-71
-69
-67
-66
-65
-64
-62
-58
-54
-50
-49
-49
-51
-53
-55
-57
-60
-63
-65
-67
-68
-69
-70
-71
-73
-75
-77
-82
-85
-85
-80
-72
-68
-63
-60
-56
-52
-47
-43
-38
-32
-26
-19
-7
13
23
30
35
39
41
41
39
37
33
27
16
-7
-29
-44
-55
-62
-69
-74
-78
-78
-78
-77
-76
-76
-76
-75
-73
-71
-71
-73
-77
-81
-85
-88
-91
-94
-97
-100
-101
-102
-102
-102
-101
-101
-99
-96
-93
-91
-87
-78
-57
-20
36
91
138
158
173
170
129
66
-7
-85
-165
-242
-275
-285
-273
-234
-182
-125
-74
-35
-7
7
18
29
38
44
48
51
53
55
57
59
61
62
65
68
71
74
76
78
79
81
83
86
88
91
94
98
102
107
111
114
118
122
125
129
134
139
148
158
166
174
181
189
198
207
217
228
238
250
257
260
262
264
266
268
269
265
257
246
234
219
206
194
179
161
143
126
110
93
72
44
17
-17
-47
-65
-80
-94
-103
-111
-117
-122
-126
-129
-131
-133
-134
-136
-137
-138
-138
-138
-139
-139
-140
-140
-140
-140
-137
-135
-132
-130
-128
-126
-123
-121
-119
-117
-114
-112
-111
-110
-110
-110
-111
-113
-116
-119
-122
-126
-132
-135
-129
-117
-108
-101
-93
-87
-82
-77
-72
-69
-66
-64
-63
-62
-63
-67
-71
-77
-83
-90
-96
-105
-113
-119
-119
-115
-108
-99
-82
-54
-38
-29
-22
-15
-8
0
5
10
15
19
23
26
28
29
30
29
26
22
17
12
7
1
-8
-20
-34
-47
-53
-57
-60
-63
-66
-68
-68
-69
-70
-71
-73
-74
-74
-75
-76
-77
-78
-78
-78
-77
-76
-76
-77
-79
-80
-81
-83
-86
-88
-91
-93
-95
-100
-111
-117
-114
-106
-82
-32
41
135
233
304
328
301
219
52
-137
-297
-366
-366
-295
-201
-127
-80
-67
-59
-51
-46
-41
-37
-34
-31
-28
-24
-20
-17
-13
-9
-4
5
20
28
30
31
32
33
35
37
39
41
43
45
48
51
54
58
63
71
81
90
99
108
121
139
158
173
184
188
188
188
189
190
191
192
193
196
200
205
212
221
236
250
259
267
272
275
272
265
256
247
236
225
216
206
188
160
134
101
62
25
-13
-50
-65
-71
-75
-78
-81
-83
-84
-85
-86
-86
-87
-88
-89
-90
-91
-92
-93
-94
-95
-95
-94
-94
-95
-97
-99
-101
-103
-105
-107
-108
-108
-108
-105
-101
-97
-93
-90
-88
-88
-86
-85
-83
-82
-82
-82
-81
-80
-79
-77
-76
-75
-74
-73
-72
-71
-70
-70
-70
-70
-70
-70
-68
-67
-65
-65
-63
-59
-51
-61
-68
-73
-77
-81
-83
-83
-80
-75
-69
-62
-53
-37
-23
-12
0
14
29
37
42
47
51
54
55
56
56
56
55
52
49
44
38
32
25
10
-2
-14
-24
-33
-40
-42
-43
-44
-44
-44
-44
-44
-45
-46
-46
-47
-47
-47
-46
-45
-43
-40
-38
-37
-40
-44
-47
-49
-50
-52
-53
-55
-56
-56
-54
-51
-47
-40
-31
0
69
165
284
406
512
547
532
423
242
34
-146
-246
-258
-218
-134
-58
-7
14
26
33
38
37
30
20
15
10
4
0
-1
-2
-1
1
5
11
17
25
39
51
61
66
70
73
76
79
81
83
86
89
91
94
98
101
105
110
115
121
128
136
145
154
163
173
182
192
201
209
216
221
226
231
236
241
247
252
256
259
260
259
256
253
247
240
226
198
179
166
154
140
119
90
63
36
16
3
-9
-24
-41
-60
-72
-80
-85
-91
-95
-99
-102
-104
-106
-108
-109
-111
-112
-112
-112
-112
-111
-109
-107
-105
-103
-101
-99
-97
-95
-92
-88
-86
-84
-83
-83
-84
-86
-88
-90
-93
-98
-101
-95
-85
-81
-78
-76
-73
-70
-68
-66
-64
-62
-60
-58
-56
-56
-56
-57
-57
-56
-56
-56
-56
-56
-56
-56
-54
-51
-49
-47
-46
-44
-42
-39
-36
-33
-31
-30
-29
-27
-24
-21
-18
-15
-12
-9
-6
-3
0
5
10
24
44
50
54
57
59
59
57
52
46
40
34
25
15
6
-3
-12
-21
-32
-42
-51
-59
-63
-65
-67
-69
-71
-73
-75
-76
-77
-77
-77
-76
-76
-75
-75
-75
-76
-77
-78
-79
-79
-79
-80
-81
-82
-83
-83
-86
-94
-93
-78
-38
26
113
222
338
433
473
466
392
250
73
-90
-196
-216
-208
-143
-97
-80
-67
-51
-31
-17
-8
-4
-6
-12
-18
-24
-28
-22
-11
-4
0
3
6
9
13
17
21
26
30
36
44
58
67
72
75
78
80
82
84
87
90
93
97
101
106
110
116
125
134
144
154
174
201
213
221
227
230
228
223
218
213
206
201
202
211
223
233
243
252
256
253
246
236
217
190
167
141
114
86
59
31
0
-27
-49
-63
-67
-70
-73
-75
-76
-73
-70
-67
-64
-62
-61
-61
-62
-65
-68
-73
-78
-84
-91
-101
-113
-121
-130
-138
-143
-142
-136
-128
-120
-112
-103
-95
-89
-85
-82
-80
-77
-74
-72
-70
-71
-75
-81
-86
-90
-95
-100
-105
-107
-105
-101
-96
-91
-86
-82
-78
-74
-72
-70
-68
-68
-68
-68
-69
-69
-70
-70
-71
-71
-72
-72
-72
-72
-72
-72
-72
-72
-71
-70
-68
-67
-65
-62
-59
-55
-49
-41
-34
-29
-22
-8
16
32
41
47
49
46
41
35
32
28
24
20
16
12
8
4
0
-6
-14
-23
-32
-39
-44
-49
-53
-58
-62
-65
-68
-70
-73
-77
-81
-84
-85
-84
-81
-77
-74
-71
-68
-64
-60
-58
-56
-56
-59
-63
-69
-73
-79
-88
-96
-96
-89
-75
-33
56
182
329
472
578
615
561
418
215
4
-163
-227
-229
-180
-118
-78
-66
-59
-52
-47
-42
-29
-10
-1
3
6
8
9
7
5
4
3
1
-1
-3
1
12
24
38
50
66
83
93
99
103
104
100
95
92
88
84
82
82
86
92
99
107
120
129
135
142
148
157
168
185
216
242
258
266
268
269
270
271
271
267
259
253
248
244
239
235
231
226
218
207
198
186
171
148
112
91
74
60
42
19
-13
-36
-50
-58
-59
-59
-58
-57
-57
-57
-57
-57
-58
-58
-57
-57
-56
-55
-53
-51
-56
-67
-71
-73
-75
-77
-79
-81
-82
-84
-87
-89
-91
-92
-94
-95
-96
-96
-96
-95
-94
-93
-91
-91
-90
-90
-89
-88
-87
-86
-85
-84
-82
-80
-77
-74
-71
-69
-68
-71
-76
-83
-90
-96
-102
-109
-117
-124
-129
-130
-127
-121
-116
-111
-108
-105
-101
-97
-93
-89
-85
-81
-78
-74
-70
-66
-63
-60
-56
-49
-41
-33
-26
-20
-14
-6
2
13
25
38
51
66
73
67
53
36
14
-3
-21
-38
-43
-47
-51
-52
-48
-44
-39
-40
-54
-65
-74
-81
-83
-80
-74
-68
-63
-57
-51
-47
-47
-51
-58
-65
-74
-89
-90
-76
-65
-54
-49
-54
-67
-87
-115
-142
-161
-177
-176
-138
-66
33
156
309
467
593
652
609
450
211
-34
-226
-307
-313
-262
-177
-105
-53
-27
-17
-12
-8
-5
-2
0
0
0
0
0
0
0
0
-1
-3
-4
-5
-5
-7
-5
7
25
48
70
93
104
108
111
114
116
119
121
124
126
129
131
134
138
142
148
160
173
188
197
205
211
216
220
225
230
235
239
243
248
254
262
270
276
276
272
264
255
246
232
219
207
192
174
157
140
122
102
81
61
36
16
1
-12
-26
-39
-49
-59
-67
-73
-78
-82
-85
-87
-88
-89
-89
-90
-90
-90
-90
-91
-92
-93
-94
-95
-95
-95
-95
-96
-97
-98
-99
-99
-100
-100
-100
-101
-102
-103
-104
-105
-106
-106
-107
-106
-106
-106
-105
-105
-105
-104
-103
-102
-101
-100
-99
-98
-97
-95
-93
-91
-89
-88
-87
-86
-85
-84
-84
-84
-84
-84
-83
-82
-82
-82
-82
-82
-81
-81
-81
-82
-81
-80
-77
-74
-70
-67
-64
-61
-57
-53
-48
-44
-39
-32
-22
-11
-2
2
4
4
4
3
3
2
-2
-3
0
0
2
5
7
6
0
-8
-17
-24
-31
-40
-49
-59
-67
-74
-80
-87
-95
-102
-106
-105
-105
-104
-104
-104
-105
-105
-104
-103
-103
-104
-105
-105
-105
-103
-101
-100
-99
-98
-97
-95
-92
-89
-84
-77
-43
26
118
225
333
415
443
428
383
255
87
-79
-197
-236
-249
-226
-158
-95
-54
-32
-23
-16
-11
-7
-3
2
8
13
19
24
29
34
37
41
44
47
51
54
57
60
64
67
70
73
75
77
80
83
87
92
102
114
127
135
141
146
149
153
156
160
166
170
175
180
185
191
200
215
228
237
244
249
253
257
261
264
267
268
267
266
263
259
254
247
240
227
204
183
163
142
121
93
59
33
13
-10
-25
-34
-41
-49
-57
-65
-72
-79
-86
-95
-102
-108
-111
-108
-103
-97
-92
-88
-84
-79
-76
-73
-70
-69
-70
-71
-73
-76
-80
-83
-86
-89
-92
-95
-98
-100
-101
-100
-99
-97
-96
-94
-92
-90
-87
-84
-82
-80
-76
-71
-67
-64
-64
-67
-71
-75
-80
-87
-92
-92
-83
-73
-66
-59
-53
-47
-43
-42
-45
-52
-59
-67
-72
-78
-84
-91
-96
-101
-102
-101
-98
-94
-90
-85
-80
-75
-70
-65
-60
-55
-50
-44
-38
-31
-23
-16
-6
3
10
15
20
23
26
27
29
31
32
33
32
29
25
19
12
5
-2
-13
-25
-35
-46
-54
-60
-66
-70
-74
-77
-78
-77
-77
-75
-73
-71
-69
-66
-64
-62
-59
-56
-54
-52
-51
-50
-51
-53
-57
-62
-68
-75
-83
-97
-106
-103
-94
-69
-3
84
196
322
442
502
502
442
295
96
-96
-232
-274
-269
-206
-120
-51
-28
-24
-22
-21
-21
-21
-21
-20
-20
-19
-18
-17
-16
-14
-12
-9
-6
-2
1
5
10
16
23
30
36
42
46
50
54
60
68
81
91
100
105
109
112
115
117
120
123
128
133
140
147
154
162
173
185
196
205
212
219
227
236
245
252
256
259
263
268
271
265
251
240
230
218
202
184
167
149
132
119
108
86
52
15
-12
-26
-34
-42
-53
-63
-69
-73
-77
-81
-85
-88
-91
-94
-96
-97
-97
-96
-95
-93
-93
-92
-92
-92
-92
-92
-92
-93
-93
-93
-91
-90
-89
-90
-92
-96
-99
-101
-103
-106
-109
-111
-112
-112
-111
-110
-108
-107
-105
-103
-101
-100
-99
-98
-97
-95
-94
-92
-91
-90
-88
-87
-86
-85
-84
-83
-82
-81
-79
-78
-76
-74
-72
-69
-67
-66
-65
-65
-65
-65
-65
-65
-65
-64
-62
-61
-60
-59
-58
-56
-54
-51
-47
-42
-37
-29
-11
4
19
29
36
42
47
51
53
54
53
50
45
40
33
27
20
12
3
-4
-12
-19
-26
-32
-38
-45
-55
-63
-66
-68
-70
-71
-71
-72
-73
-74
-75
-75
-75
-74
-73
-72
-71
-69
-67
-64
-61
-57
-51
-48
-56
-72
-85
-99
-106
-103
-95
-72
-10
76
181
296
406
474
497
463
361
169
-29
-174
-243
-249
-214
-146
-85
-53
-35
-26
-17
-8
-1
3
6
10
12
14
17
19
23
27
31
34
37
40
43
47
50
52
55
58
62
66
71
76
79
83
85
88
92
95
98
102
108
118
130
142
153
163
173
184
194
204
212
218
222
226
229
232
235
237
240
241
243
246
249
252
253
253
250
245
239
232
224
210
197
187
171
146
119
92
62
34
8
-19
-33
-40
-45
-48
-51
-53
-57
-60
-63
-66
-69
-72
-75
-79
-83
-87
-90
-93
-94
-94
-94
-93
-92
-91
-88
-85
-83
-80
-79
-77
-74
-71
-67
-63
-62
-62
-63
-65
-68
-71
-74
-78
-83
-88
-93
-97
-101
-106
-113
-118
-118
-111
-100
-89
-77
-68
-62
-55
-47
-42
-47
-56
-59
-62
-64
-66
-67
-68
-69
-71
-72
-74
-75
-77
-77
-77
-77
-77
-77
-76
-76
-76
-77
-78
-79
-83
-85
-76
-59
-48
-39
-30
-22
-17
-13
-10
-5
0
11
28
46
62
69
74
79
78
62
39
11
-8
-23
-31
-36
-41
-45
-45
-42
-37
-32
-26
-22
-29
-43
-57
-71
-81
-89
-97
-106
-111
-106
-94
-85
-77
-69
-65
-65
-69
-75
-80
-84
-88
-92
-96
-99
-100
-99
-97
-94
-88
-80
-48
8
91
198
319
433
486
484
412
263
84
-78
-190
-221
-219
-178
-127
-78
-60
-49
-42
-39
-36
-33
-28
-20
-12
-3
4
12
20
28
34
40
44
47
51
54
57
60
63
64
66
68
70
73
77
80
83
86
89
93
97
101
105
109
112
116
122
129
138
151
162
173
186
202
220
239
257
264
268
271
273
274
275
276
276
277
277
275
273
269
264
258
251
235
210
191
166
135
103
78
63
47
33
15
-3
-22
-35
-43
-50
-56
-61
-65
-67
-69
-71
-73
-75
-77
-78
-80
-81
-83
-84
-84
-83
-82
-82
-81
-81
-81
-81
-81
-83
-84
-86
-88
-90
-92
-93
-95
-96
-98
-100
-104
-108
-108
-102
-97
-95
-94
-93
-92
-91
-90
-88
-87
-85
-84
-84
-84
-85
-85
-85
-85
-85
-85
-84
-84
-83
-82
-81
-80
-80
-79
-77
-76
-74
-72
-66
-62
-68
-78
-85
-90
-96
-100
-103
-103
-100
-93
-84
-75
-67
-59
-50
-41
-32
-24
-15
-7
0
6
13
20
24
26
25
22
17
10
3
-2
-8
-15
-23
-29
-36
-42
-48
-53
-58
-63
-68
-73
-77
-81
-85
-89
-93
-96
-98
-100
-102
-102
-104
-106
-108
-110
-112
-114
-117
-118
-119
-119
-119
-117
-114
-111
-107
-103
-97
-90
-84
-77
-59
-18
47
134
241
351
428
455
426
337
150
-68
-259
-346
-350
-283
-168
-70
-32
-20
-33
-43
-50
-55
-59
-58
-51
-41
-31
-23
-15
-7
0
8
16
22
27
31
34
36
39
41
44
46
49
53
57
60
63
66
69
72
77
84
96
108
116
123
130
136
141
147
153
161
170
180
191
206
219
229
237
243
248
253
257
260
262
262
260
256
250
243
234
221
197
178
163
153
142
130
118
102
82
68
54
38
20
-4
-32
-47
-55
-61
-65
-70
-74
-78
-80
-82
-84
-87
-90
-92
-93
-94
-95
-96
-96
-94
-92
-89
-86
-84
-82
-80
-77
-74
-72
-70
-66
-62
-57
-54
-53
-54
-57
-60
-64
-66
-69
-72
-76
-79
-81
-83
-83
-82
-81
-78
-75
-71
-66
-60
-54
-46
-29
-18
-12
-7
-4
-1
0
-2
-8
-16
-26
-37
-55
-62
-64
-66
-68
-70
-70
-71
-71
-72
-72
-70
-66
-61
-55
-48
-42
-34
-23
-12
-3
2
7
9
11
13
16
18
20
22
23
23
24
24
23
22
20
17
15
12
7
2
-2
-8
-15
-25
-36
-46
-56
-64
-68
-71
-73
-75
-77
-79
-81
-83
-85
-86
-88
-90
-90
-91
-92
-92
-91
-90
-89
-88
-87
-87
-88
-89
-89
-91
-94
-93
-76
-28
35
126
240
358
448
459
426
304
137
-42
-189
-265
-291
-273
-217
-146
-85
-29
-9
0
6
-8
-23
-35
-40
-32
-18
-11
-7
-3
-1
0
2
5
8
12
14
17
19
22
25
28
30
34
39
47
56
67
77
85
91
96
102
108
113
118
121
124
128
132
140
153
163
170
175
179
183
187
191
196
202
208
216
227
245
252
254
258
262
248
234
224
213
199
186
173
160
148
133
115
92
62
24
-2
-19
-36
-53
-66
-78
-87
-91
-94
-96
-97
-99
-100
-100
-100
-100
-101
-100
-99
-98
-97
-95
-94
-93
-91
-90
-88
-85
-82
-80
-80
-81
-83
-86
-89
-92
-95
-97
-100
-102
-103
-103
-103
-101
-98
-93
-87
-81
-73
-58
-53
-51
-49
-45
-58
-75
-89
-97
-103
-108
-112
-110
-100
-87
-80
-72
-63
-56
-52
-51
-51
-52
-55
-57
-58
-60
-62
-65
-68
-70
-71
-71
-71
-70
-68
-66
-62
-57
-52
-47
-39
-23
-10
1
11
20
30
36
41
46
50
52
51
47
41
34
27
19
7
-4
-15
-24
-30
-34
-38
-42
-46
-50
-53
-55
-57
-60
-63
-65
-65
-66
-66
-67
-68
-69
-70
-70
-71
-73
-75
-77
-78
-78
-78
-78
-77
-77
-77
-77
-77
-77
-80
-79
-65
-24
39
133
250
365
456
476
461
359
187
-7
-172
-268
-283
-260
-181
-96
-48
-32
-31
-37
-42
-48
-50
-42
-26
-14
-5
3
11
17
23
29
35
41
46
51
55
57
59
60
61
62
63
65
67
69
71
73
76
79
82
86
91
97
105
111
115
121
132
155
173
181
188
193
198
203
207
212
217
223
230
235
241
246
252
259
264
264
258
248
236
220
205
191
177
160
143
126
108
92
79
65
51
33
13
-8
-29
-50
-68
-81
-91
-98
-103
-107
-110
-112
-114
-116
-118
-119
-119
-119
-118
-116
-114
-111
-109
-108
-105
-102
-99
-97
-96
-97
-100
-103
-107
-109
-112
-116
-120
-123
-125
-124
-122
-117
-113
-110
-108
-106
-104
-101
-99
-96
-93
-91
-89
-88
-87
-86
-87
-88
-89
-89
-90
-90
-89
-88
-87
-86
-84
-81
-79
-77
-75
-73
-72
-71
-70
-69
-67
-65
-63
-60
-58
-55
-52
-48
-43
-39
-35
-31
-27
-19
-10
0
11
21
28
35
41
47
52
54
54
52
50
47
44
39
33
23
5
-16
-29
-37
-44
-50
-55
-56
-56
-55
-52
-49
-45
-39
-42
-59
-66
-69
-71
-74
-76
-77
-79
-82
-85
-88
-91
-93
-95
-95
-96
-96
-98
-100
-102
-105
-114
-119
-111
-89
-28
63
173
294
403
466
470
424
303
128
-57
-195
-250
-253
-209
-134
-75
-44
-31
-24
-20
-17
-14
-10
-6
-2
1
6
10
15
21
29
38
47
54
59
63
67
70
73
76
79
82
84
86
88
91
94
97
100
103
108
113
119
125
131
137
143
151
159
168
175
184
200
231
247
256
263
267
270
273
275
278
280
282
284
286
290
295
300
299
292
280
261
233
207
176
137
104
85
73
63
52
42
31
18
7
-2
-19
-44
-71
-90
-96
-98
-99
-101
-102
-104
-107
-108
-110
-111
-113
-114
-115
-115
-116
-116
-118
-120
-123
-127
-130
-132
-132
-133
-133
-131
-129
-125
-121
-117
-113
-109
-106
-100
-92
-87
-87
-91
-97
-104
-109
-115
-121
-126
-129
-128
-123
-116
-109
-104
-99
-94
-89
-85
-82
-80
-79
-81
-83
-87
-91
-95
-100
-104
-108
-114
-121
-127
-130
-129
-125
-119
-113
-108
-103
-97
-90
-81
-72
-62
-51
-40
-26
-14
-9
-6
-5
-4
-2
0
0
1
1
-1
-7
-15
-23
-30
-36
-42
-47
-52
-57
-61
-63
-64
-65
-65
-66
-66
-66
-66
-65
-64
-62
-61
-59
-58
-57
-56
-55
-55
-56
-58
-60
-63
-65
-67
-68
-71
-73
-76
-79
-83
-95
-102
-100
-91
-64
2
104
227
339
399
400
350
221
49
-134
-280
-333
-332
-276
-204
-138
-80
-63
-48
-35
-27
-20
-14
-9
-3
3
10
17
23
28
34
39
45
50
54
58
61
65
68
72
77
82
89
97
104
112
120
127
132
136
140
144
148
151
154
158
161
164
167
170
174
179
186
196
208
217
227
244
275
296
309
318
321
321
321
320
320
320
319
313
302
291
279
265
250
224
194
169
144
119
88
65
53
44
34
24
15
4
-6
-17
-28
-38
-50
-63
-72
-77
-80
-83
-85
-87
-88
-89
-89
-88
-88
-87
-87
-86
-85
-83
-81
-80
-80
-79
-79
-77
-75
-73
-72
-72
-73
-74
-75
-76
-77
-78
-79
-80
-80
-80
-78
-74
-70
-65
-60
-57
-54
-50
-47
-45
-44
-44
-44
-44
-45
-46
-47
-49
-52
-54
-56
-57
-59
-60
-63
-65
-67
-68
-69
-68
-66
-62
-58
-52
-46
-39
-32
-20
-8
4
17
27
37
45
50
52
50
44
35
24
11
-9
-30
-39
-44
-49
-53
-57
-60
-64
-67
-71
-74
-77
-80
-81
-83
-84
-85
-86
-88
-89
-90
-91
-92
-94
-95
-96
-96
-97
-96
-95
-93
-91
-89
-87
-83
-81
-80
-83
-88
-96
-104
-93
-58
-1
73
157
236
284
300
269
173
11
-163
-322
-411
-421
-385
-303
-219
-149
-110
-72
-39
-24
-17
-13
-9
-5
0
4
9
14
18
22
26
29
32
35
37
40
44
47
50
51
53
54
55
56
59
61
63
66
69
73
78
83
88
93
100
108
119
135
152
169
183
197
207
208
208
208
208
209
209
209
210
210
210
210
210
210
208
206
202
198
193
187
181
168
135
101
65
33
9
-13
-42
-78
-113
-147
-166
-175
-183
-188
-189
-186
-179
-171
-164
-161
-158
-155
-152
-149
-147
-145
-143
-141
-139
-136
-135
-135
-135
-134
-134
-132
-131
-129
-128
-126
-124
-121
-117
-114
-111
-107
-103
-98
-89
-80
-73
-72
-72
-72
-72
-72
-72
-73
-74
-74
-75
-75
-74
-74
-74
-74
-73
-72
-69
-67
-65
-62
-60
-57
-56
-54
-52
-50
-48
-45
-42
-39
-36
-34
-32
-30
-28
-26
-23
-20
-16
-12
-6
3
27
50
65
76
85
91
93
90
83
73
63
52
38
23
8
-6
-15
-22
-29
-36
-42
-47
-50
-51
-51
-50
-49
-48
-47
-46
-45
-44
-44
-44
-45
-45
-45
-45
-45
-45
-46
-46
-46
-46
-46
-47
-48
-50
-52
-56
-62
-67
-63
-49
-9
49
133
237
346
411
433
402
305
130
-67
-234
-315
-341
-316
-240
-149
-72
-21
-10
-1
4
9
14
21
27
31
35
37
41
44
46
48
51
54
57
61
63
66
69
70
72
74
76
78
79
81
84
87
91
96
101
107
114
120
127
132
137
142
147
153
158
164
170
177
185
198
220
245
259
267
275
282
286
289
288
286
282
276
270
263
253
236
219
201
184
166
148
130
100
63
35
15
0
-14
-26
-40
-55
-66
-76
-84
-93
-103
-111
-117
-121
-126
-129
-133
-136
-139
-141
-142
-143
-144
-144
-144
-144
-144
-143
-144
-147
-149
-144
-133
-125
-118
-112
-108
-108
-112
-116
-120
-123
-125
-127
-130
-132
-135
-137
-139
-140
-140
-140
-138
-136
-132
-129
-124
-119
-114
-110
-107
-103
-98
-92
-88
-85
-85
-86
-87
-89
-91
-92
-93
-96
-99
-101
-102
-101
-98
-92
-85
-77
-68
-52
-37
-26
-12
1
9
13
15
18
21
22
22
22
22
21
20
17
13
7
1
-4
-9
-16
-23
-31
-38
-43
-48
-52
-54
-56
-59
-62
-64
-66
-66
-67
-68
-68
-69
-70
-70
-70
-70
-70
-71
-72
-72
-71
-71
-70
-69
-68
-66
-64
-61
-57
-55
-52
-34
5
58
127
221
334
441
505
507
447
288
103
-52
-138
-167
-152
-109
-46
-20
-11
-11
-16
-19
-23
-25
-26
-21
-13
-4
2
7
11
16
21
27
32
37
43
47
50
53
55
58
61
64
67
70
74
77
80
84
88
91
96
102
112
124
132
139
145
157
178
195
205
216
229
236
241
245
248
252
256
260
262
264
267
270
274
281
294
299
303
308
305
284
253
220
200
183
164
139
106
76
54
40
21
0
-22
-43
-59
-70
-70
-62
-57
-52
-48
-46
-48
-51
-57
-63
-70
-77
-83
-90
-97
-98
-94
-90
-85
-83
-85
-90
-94
-98
-101
-103
-103
-100
-96
-92
-90
-87
-84
-81
-78
-76
-74
-72
-71
-70
-68
-67
-66
-65
-62
-59
-57
-59
-63
-68
-71
-73
-75
-77
-79
-81
-81
-81
-79
-76
-74
-72
-70
-69
-66
-64
-62
-60
-58
-56
-55
-53
-51
-48
-46
-43
-39
-30
-21
-11
-1
8
17
24
29
34
38
41
43
45
47
49
54
60
50
33
14
0
-12
-26
-44
-64
-78
-88
-78
-70
-64
-59
-54
-51
-47
-40
-31
-44
-55
-61
-66
-70
-72
-71
-67
-62
-56
-49
-38
-37
-47
-61
-80
-100
-120
-140
-152
-157
-161
-148
-110
-64
4
103
226
358
473
526
526
470
338
161
-14
-99
-127
-110
-87
-70
-82
-96
-107
-108
-99
-74
-33
-22
-19
-18
-18
-19
-19
-15
-10
-4
0
4
8
11
14
16
19
23
28
33
38
42
46
49
52
55
58
61
64
68
73
77
81
87
95
103
112
123
133
139
144
163
196
217
227
233
237
240
242
243
244
244
244
243
242
241
238
234
231
223
205
187
171
159
149
134
115
91
66
44
25
4
-19
-45
-77
-93
-95
-96
-96
-97
-98
-99
-100
-101
-104
-106
-109
-111
-112
-114
-116
-118
-121
-124
-126
-128
-129
-130
-130
-129
-126
-123
-119
-115
-111
-108
-103
-98
-93
-90
-89
-91
-94
-100
-106
-115
-130
-134
-139
-143
-130
-119
-113
-108
-102
-96
-90
-85
-81
-75
-70
-67
-65
-65
-68
-72
-78
-85
-94
-108
-114
-117
-119
-121
-122
-118
-109
-99
-85
-68
-59
-54
-49
-45
-41
-37
-33
-29
-26
-23
-20
-16
-9
2
7
9
11
13
15
16
15
12
9
6
3
1
-2
-5
-9
-15
-22
-31
-43
-52
-58
-63
-67
-71
-75
-80
-84
-86
-89
-93
-97
-100
-101
-100
-96
-91
-86
-81
-74
-68
-68
-71
-75
-79
-82
-86
-94
-104
-113
-122
-130
-131
-125
-113
-78
-10
84
199
309
376
398
373
296
140
-31
-176
-253
-279
-264
-217
-154
-108
-65
-41
-14
3
10
16
16
11
8
6
4
3
2
1
1
0
1
2
5
9
14
20
32
53
70
82
94
99
101
103
104
105
107
108
110
112
114
116
117
119
122
125
130
141
167
184
195
208
224
249
277
289
295
300
303
306
307
307
307
307
305
303
300
297
289
271
249
227
206
180
150
121
92
64
45
35
25
12
0
-12
-22
-33
-43
-54
-64
-71
-79
-86
-92
-97
-99
-100
-100
-100
-100
-99
-99
-98
-97
-96
-95
-93
-93
-92
-92
-91
-91
-91
-92
-91
-92
-92
-93
-93
-92
-92
-92
-91
-91
-91
-92
-93
-95
-97
-100
-102
-101
-100
-98
-96
-95
-93
-91
-90
-88
-86
-86
-86
-87
-88
-89
-90
-91
-92
-92
-91
-90
-88
-86
-84
-83
-82
-80
-78
-75
-72
-69
-66
-60
-45
-29
-13
2
19
28
34
38
42
46
49
48
41
30
19
9
0
-11
-21
-30
-40
-47
-52
-57
-61
-66
-70
-72
-74
-75
-75
-75
-74
-74
-74
-73
-72
-71
-70
-70
-68
-66
-63
-60
-58
-59
-63
-69
-73
-77
-81
-86
-90
-93
-94
-91
-87
-80
-71
-54
-17
53
144
242
329
378
379
330
195
8
-195
-366
-435
-434
-357
-234
-128
-57
-23
-9
-2
2
6
9
13
18
23
29
34
39
42
45
46
48
50
52
55
58
61
64
67
70
72
74
75
77
80
83
87
92
99
112
124
132
139
147
152
159
167
178
189
199
209
219
228
236
244
251
258
265
272
277
280
282
283
284
285
287
289
291
292
288
278
264
246
220
200
172
143
118
93
68
39
17
4
-11
-29
-41
-49
-57
-64
-71
-78
-83
-87
-93
-98
-106
-113
-116
-117
-117
-117
-118
-119
-119
-119
-119
-117
-116
-114
-114
-113
-111
-109
-107
-105
-105
-105
-105
-107
-108
-109
-111
-113
-115
-116
-115
-109
-102
-94
-89
-84
-78
-73
-68
-66
-67
-70
-73
-75
-78
-82
-86
-90
-94
-96
-96
-94
-90
-87
-84
-82
-81
-79
-78
-76
-75
-74
-72
-71
-69
-67
-66
-64
-62
-59
-56
-52
-48
-43
-38
-32
-21
1
13
19
24
28
32
33
30
22
9
-10
-44
-57
-62
-65
-68
-71
-73
-74
-75
-75
-76
-77
-79
-79
-79
-78
-77
-76
-76
-75
-74
-73
-72
-72
-73
-74
-75
-75
-76
-78
-79
-81
-83
-85
-86
-88
-94
-98
-93
-79
-57
-26
26
93
175
262
320
340
317
248
112
-46
-183
-246
-268
-269
-252
-206
-150
-113
-69
-29
12
31
35
38
40
40
38
37
37
36
35
35
36
37
41
46
52
58
62
66
69
72
75
78
81
84
87
89
92
95
99
103
107
112
118
129
141
154
168
180
191
201
211
219
226
233
242
253
265
278
286
292
297
300
303
304
304
303
300
294
287
279
267
244
224
198
167
138
106
76
54
33
14
0
-12
-20
-27
-33
-38
-43
-49
-54
-59
-64
-72
-84
-94
-101
-105
-108
-111
-114
-116
-118
-118
-118
-117
-116
-114
-111
-108
-104
-101
-97
-94
-88
-82
-79
-82
-89
-97
-103
-109
-115
-120
-122
-120
-116
-111
-107
-105
-103
-101
-99
-98
-96
-95
-94
-93
-93
-93
-93
-92
-92
-92
-91
-90
-89
-88
-87
-86
-86
-86
-86
-86
-85
-84
-83
-82
-80
-79
-77
-75
-73
-71
-68
-66
-62
-58
-51
-34
-19
-6
2
10
17
23
26
25
22
18
12
7
2
-2
-8
-14
-22
-30
-38
-44
-50
-55
-60
-64
-67
-71
-74
-77
-80
-81
-83
-83
-84
-85
-85
-86
-86
-86
-87
-89
-91
-93
-94
-96
-98
-98
-97
-96
-95
-93
-91
-89
-85
-81
-76
-70
-63
-29
21
95
189
303
417
484
486
425
268
73
-116
-210
-240
-215
-141
-63
-30
-21
-18
-16
-14
-12
-11
-8
-6
-5
-4
-3
-1
0
0
2
4
5
6
7
9
12
15
19
28
38
51
65
75
82
88
94
99
104
109
113
117
121
125
129
133
138
142
145
149
152
154
158
162
168
179
205
229
247
267
285
301
307
308
310
311
312
313
310
302
290
271
239
207
178
152
124
94
61
38
26
17
7
0
-8
-18
-30
-40
-48
-54
-60
-64
-67
-67
-65
-63
-61
-56
-50
-69
-82
-89
-95
-100
-103
-105
-104
-103
-101
-100
-99
-99
-98
-97
-95
-93
-92
-92
-92
-92
-91
-91
-92
-94
-95
-97
-97
-97
-97
-97
-98
-100
-101
-102
-100
-96
-91
-87
-85
-82
-79
-75
-73
-71
-70
-72
-74
-77
-80
-84
-87
-91
-95
-99
-101
-103
-101
-97
-91
-84
-77
-70
-61
-52
-44
-38
-32
-28
-25
-21
-18
-14
-11
-7
-3
0
4
9
14
17
22
27
32
35
37
37
34
29
23
16
7
-8
-21
-34
-45
-55
-62
-64
-64
-64
-64
-63
-64
-64
-65
-66
-66
-67
-68
-69
-70
-71
-72
-73
-75
-77
-80
-83
-86
-88
-89
-90
-91
-92
-92
-90
-86
-82
-77
-72
-47
0
72
179
312
438
530
551
532
412
209
-9
-182
-249
-251
-191
-113
-45
-19
-11
-4
0
0
0
0
0
0
0
0
0
0
0
0
1
4
8
13
19
29
45
56
61
64
66
68
70
72
76
81
86
91
96
102
107
113
119
125
130
134
137
141
144
147
153
160
170
182
200
227
242
250
256
260
264
266
268
270
273
277
280
281
278
269
258
243
223
208
189
164
138
112
87
59
35
16
-4
-18
-29
-37
-44
-49
-55
-64
-77
-94
-100
-103
-107
-111
-114
-117
-119
-120
-121
-121
-121
-121
-120
-118
-115
-113
-111
-109
-108
-107
-106
-105
-105
-105
-105
-103
-100
-97
-95
-94
-94
-95
-96
-98
-100
-101
-102
-103
-104
-105
-105
-105
-104
-101
-98
-96
-94
-92
-90
-89
-87
-86
-86
-87
-88
-90
-91
-92
-92
-93
-92
-91
-89
-87
-84
-81
-79
-76
-74
-72
-69
-66
-63
-58
-52
-46
-40
-33
-28
-23
-19
-15
-9
-1
13
30
41
48
55
59
60
56
50
41
30
12
-8
-18
-23
-27
-31
-35
-37
-38
-40
-43
-46
-49
-52
-54
-55
-57
-59
-62
-64
-66
-70
-78
-86
-85
-78
-69
-64
-58
-52
-48
-46
-46
-48
-52
-57
-62
-67
-75
-82
-82
-76
-63
-26
24
92
180
275
342
364
342
271
120
-62
-229
-322
-336
-307
-223
-136
-66
-17
0
8
10
6
1
-3
-8
-14
-14
-2
11
20
27
33
40
46
53
59
65
70
74
77
80
82
84
86
88
90
93
96
99
102
105
106
108
111
114
117
122
133
145
157
172
190
210
225
235
243
250
257
263
269
277
288
296
302
306
310
316
319
311
294
279
262
247
234
213
181
152
130
110
90
70
42
22
8
-2
-13
-22
-31
-42
-55
-69
-82
-88
-91
-94
-97
-99
-102
-104
-106
-108
-109
-111
-111
-111
-110
-110
-110
-110
-110
-112
-113
-113
-114
-114
-114
-115
-115
-114
-113
-112
-112
-112
-113
-114
-111
-103
-94
-87
-77
-70
-70
-79
-89
-96
-101
-107
-112
-116
-116
-113
-109
-104
-98
-93
-90
-86
-82
-78
-75
-73
-71
-69
-68
-68
-68
-69
-70
-71
-73
-75
-77
-79
-82
-85
-88
-89
-84
-73
-58
-39
-13
9
22
31
38
44
47
47
41
30
19
8
0
-6
-14
-22
-30
-38
-44
-49
-53
-56
-59
-61
-62
-62
-62
-62
-61
-61
-62
-63
-64
-65
-66
-66
-67
-67
-67
-67
-67
-66
-66
-66
-67
-68
-69
-70
-71
-73
-75
-76
-78
-83
-93
-74
-43
-5
64
146
238
321
349
335
294
168
2
-171
-307
-345
-339
-271
-176
-88
-39
-26
-18
-10
-3
3
12
25
32
29
21
13
4
0
10
33
48
61
72
80
82
81
79
77
74
71
67
64
62
66
76
87
96
105
115
123
130
136
141
147
151
155
161
167
174
183
192
201
210
219
227
234
238
243
250
262
279
291
298
304
308
310
307
300
289
276
256
235
217
201
187
175
157
126
89
47
4
-24
-42
-52
-58
-62
-66
-69
-73
-77
-82
-87
-91
-96
-101
-106
-109
-111
-112
-112
-112
-112
-113
-113
-113
-114
-115
-115
-116
-117
-118
-118
-119
-119
-120
-120
-121
-122
-126
-129
-128
-126
-125
-124
-123
-122
-121
-119
-117
-113
-109
-105
-102
-100
-98
-95
-92
-87
-84
-83
-85
-88
-91
-94
-95
-98
-102
-107
-110
-112
-109
-105
-99
-94
-91
-88
-84
-79
-75
-71
-68
-67
-65
-63
-61
-57
-55
-52
-48
-42
-35
-27
-19
-9
-1
6
14
22
27
29
27
22
16
8
-8
-38
-52
-58
-63
-67
-71
-75
-80
-84
-88
-92
-95
-98
-101
-108
-114
-118
-116
-110
-102
-94
-89
-85
-80
-75
-70
-68
-67
-69
-72
-77
-82
-88
-94
-104
-113
-117
-115
-108
-95
-55
5
82
176
280
375
424
422
363
213
22
-165
-308
-347
-339
-259
-169
-88
-38
-21
-12
-10
-12
-16
-20
-25
-28
-23
-11
8
28
34
36
38
40
42
44
47
49
51
52
54
57
60
62
64
67
70
75
81
88
95
102
110
118
126
134
141
148
155
161
169
177
185
192
198
204
210
216
223
230
238
246
255
264
276
286
290
293
294
296
300
299
285
270
253
237
216
185
146
112
87
67
47
23
-12
-31
-38
-43
-47
-50
-53
-56
-60
-65
-69
-73
-75
-78
-79
-81
-82
-84
-87
-89
-92
-95
-99
-102
-104
-106
-106
-105
-104
-102
-99
-96
-92
-88
-85
-81
-74
-66
-62
-64
-70
-77
-82
-86
-91
-93
-94
-93
-90
-86
-82
-80
-78
-77
-75
-74
-73
-71
-69
-67
-66
-66
-66
-67
-68
-69
-70
-70
-71
-71
-71
-70
-69
-68
-67
-66
-64
-62
-61
-59
-59
-58
-56
-55
-52
-48
-42
-35
-27
-18
-7
3
13
22
31
41
48
53
54
53
49
43
36
27
13
-11
-36
-47
-52
-57
-61
-65
-67
-69
-70
-71
-71
-72
-72
-73
-73
-74
-75
-76
-76
-77
-76
-76
-76
-77
-78
-79
-80
-81
-83
-85
-88
-92
-96
-100
-107
-121
-133
-135
-130
-120
-88
-34
43
145
263
381
480
521
512
420
244
40
-134
-207
-232
-209
-137
-71
-50
-47
-45
-43
-41
-40
-38
-34
-30
-25
-20
-15
-12
-9
-6
-2
1
6
10
16
21
27
33
39
44
49
54
62
71
80
88
94
100
105
111
116
121
124
127
130
133
136
139
142
145
148
153
159
170
183
199
224
252
261
266
270
273
275
277
277
277
276
273
268
262
254
244
230
202
181
161
140
116
92
68
45
23
0
-18
-32
-42
-51
-59
-67
-75
-83
-90
-94
-98
-103
-109
-113
-108
-96
-87
-77
-70
-70
-81
-95
-105
-116
-126
-131
-129
-122
-113
-106
-97
-89
-86
-88
-93
-99
-104
-112
-119
-119
-114
-109
-105
-103
-100
-97
-95
-93
-90
-87
-85
-84
-83
-82
-82
-82
-80
-77
-75
-74
-74
-75
-76
-78
-81
-83
-85
-88
-91
-94
-95
-96
-97
-96
-95
-92
-88
-84
-79
-74
-68
-61
-50
-38
-28
-18
-12
-6
-1
2
7
11
14
17
20
23
26
30
34
42
47
46
40
30
19
3
-17
-27
-32
-37
-40
-44
-47
-51
-54
-57
-59
-61
-62
-64
-65
-66
-67
-67
-67
-69
-71
-74
-76
-78
-80
-81
-83
-85
-86
-86
-85
-84
-83
-83
-82
-81
-79
-76
-74
-71
-67
-45
4
79
183
307
425
509
522
495
366
189
9
-133
-191
-194
-148
-90
-49
-41
-36
-32
-29
-27
-24
-20
-15
-12
-9
-7
-4
-1
2
8
14
20
27
34
41
47
52
57
61
65
68
72
75
78
81
83
87
91
95
100
106
111
115
121
127
134
144
155
165
173
180
185
190
196
201
206
211
217
223
230
241
251
260
268
277
288
294
288
276
263
250
236
220
194
162
140
122
104
82
50
25
9
-4
-17
-28
-37
-46
-54
-62
-68
-76
-85
-93
-98
-103
-104
-105
-106
-108
-109
-110
-111
-112
-112
-113
-113
-113
-112
-111
-110
-110
-111
-113
-115
-116
-117
-118
-118
-119
-119
-118
-118
-118
-117
-118
-118
-118
-118
-118
-117
-117
-116
-114
-113
-112
-110
-109
-108
-107
-106
-105
-104
-103
-102
-101
-100
-99
-98
-97
-96
-96
-96
-97
-98
-99
-99
-98
-97
-96
-94
-92
-91
-89
-86
-84
-81
-79
-74
-62
-51
-40
-26
-10
0
5
9
13
16
19
20
21
21
20
19
17
15
11
6
1
-2
-6
-10
-16
-23
-30
-38
-44
-50
-55
-60
-64
-68
-72
-77
-81
-84
-85
-85
-84
-81
-77
-74
-71
-68
-65
-62
-60
-58
-56
-55
-57
-60
-65
-71
-78
-86
-100
-108
-103
-89
-48
23
116
220
316
365
381
352
265
116
-44
-177
-237
-256
-234
-166
-97
-40
-3
14
21
26
29
32
35
37
39
42
46
48
51
53
54
56
58
60
63
67
74
81
87
94
99
104
109
113
116
119
123
125
128
131
134
137
140
145
150
158
172
185
196
204
210
215
220
226
231
237
243
250
260
270
281
291
298
304
310
315
318
319
317
314
309
302
294
276
243
213
180
143
108
74
38
14
0
-10
-20
-28
-33
-37
-41
-45
-48
-52
-55
-58
-61
-65
-70
-75
-80
-85
-90
-95
-100
-104
-107
-109
-110
-110
-112
-114
-116
-116
-116
-114
-111
-108
-105
-103
-101
-98
-95
-93
-92
-91
-91
-90
-90
-89
-90
-91
-94
-96
-98
-101
-107
-112
-108
-102
-100
-98
-97
-95
-93
-91
-89
-87
-84
-83
-82
-82
-81
-82
-83
-83
-84
-86
-87
-88
-89
-89
-89
-89
-90
-91
-93
-94
-97
-105
-104
-87
-63
-30
-5
12
31
46
59
65
60
49
31
4
-15
-27
-40
-54
-62
-68
-73
-78
-81
-83
-83
-82
-80
-78
-76
-74
-71
-67
-61
-57
-56
-58
-62
-67
-69
-72
-75
-78
-82
-85
-88
-90
-92
-94
-96
-98
-100
-103
-108
-111
-111
-105
-94
-78
-53
-16
34
105
192
278
319
316
257
135
-14
-172
-311
-366
-365
-304
-223
-143
-71
-32
-18
-12
-11
-14
-18
-23
-29
-9
4
12
18
22
25
29
33
36
40
44
51
63
77
84
86
88
90
90
92
93
95
98
101
103
105
107
110
114
118
124
135
156
166
172
176
181
185
190
196
202
210
220
229
241
251
257
264
270
275
279
280
278
275
270
265
260
253
244
232
221
206
180
142
104
69
44
24
6
-18
-48
-65
-74
-80
-86
-90
-95
-99
-102
-104
-105
-106
-108
-109
-111
-112
-113
-115
-116
-117
-117
-116
-113
-111
-108
-106
-104
-102
-101
-100
-99
-98
-99
-98
-97
-95
-94
-94
-94
-95
-95
-95
-96
-96
-97
-99
-100
-100
-101
-100
-100
-99
-98
-97
-97
-95
-94
-91
-89
-87
-85
-84
-83
-82
-80
-78
-75
-74
-72
-71
-69
-67
-64
-62
-60
-58
-56
-54
-52
-49
-46
-43
-39
-35
-26
-17
-7
3
18
35
39
42
45
47
48
47
42
34
26
20
14
7
0
-10
-21
-30
-36
-41
-46
-50
-55
-58
-61
-64
-66
-68
-71
-72
-72
-71
-71
-71
-71
-71
-72
-74
-75
-76
-77
-77
-76
-75
-73
-71
-68
-62
-63
-75
-87
-100
-101
-90
-60
-5
75
181
295
390
422
412
326
187
32
-103
-198
-244
-260
-246
-203
-132
-68
-8
12
17
19
20
22
24
25
26
27
28
29
31
32
31
31
32
34
36
39
41
44
47
51
58
65
76
86
92
98
102
106
111
115
120
123
126
129
134
140
148
163
174
181
186
192
198
205
214
222
230
238
245
252
257
261
265
271
281
281
268
257
247
238
229
219
202
175
154
142
129
115
94
63
37
17
0
-15
-31
-46
-57
-65
-72
-80
-87
-92
-96
-99
-102
-105
-107
-107
-108
-107
-106
-104
-103
-102
-100
-98
-98
-102
-108
-112
-116
-120
-124
-126
-127
-126
-124
-122
-119
-116
-115
-113
-112
-111
-111
-110
-109
-106
-104
-103
-102
-101
-101
-101
-100
-98
-98
-98
-97
-96
-94
-92
-91
-89
-88
-87
-86
-84
-82
-81
-79
-72
-66
-67
-75
-86
-95
-103
-111
-116
-116
-111
-104
-96
-87
-73
-59
-45
-33
-24
-16
-8
-2
4
14
27
31
33
33
34
35
36
36
36
33
28
22
16
9
-1
-13
-25
-44
-74
-95
-109
-117
-117
-112
-104
-99
-95
-92
-88
-85
-82
-79
-75
-72
-69
-67
-64
-63
-60
-56
-51
-48
-48
-50
-54
-61
-68
-77
-90
-97
-94
-86
-59
-13
52
145
256
370
465
505
501
438
291
105
-68
-194
-233
-231
-179
-112
-61
-27
-9
-3
0
3
5
8
11
13
16
18
21
23
25
25
25
27
30
35
46
56
64
69
74
79
83
84
85
86
86
87
87
87
87
87
87
88
91
94
99
104
116
140
166
193
214
228
239
249
260
272
277
278
280
282
283
276
264
256
250
244
239
234
230
226
219
208
186
167
152
137
117
91
62
39
27
21
16
7
-3
-16
-32
-51
-65
-76
-90
-104
-111
-114
-117
-120
-122
-123
-123
-122
-118
-113
-106
-98
-85
-64
-56
-48
-41
-55
-72
-88
-107
-124
-139
-144
-146
-149
-153
-133
-123
-119
-115
-112
-109
-108
-106
-105
-102
-99
-98
-97
-97
-98
-97
-97
-96
-96
-97
-97
-97
-95
-93
-92
-91
-91
-91
-91
-89
-88
-86
-85
-80
-74
-74
-80
-87
-93
-100
-106
-110
-110
-106
-100
-91
-74
-46
-32
-25
-20
-16
-11
-5
0
6
11
15
21
26
31
34
34
30
22
13
3
-4
-14
-25
-33
-38
-42
-45
-47
-50
-53
-56
-59
-63
-66
-71
-75
-79
-85
-91
-94
-95
-93
-90
-87
-84
-81
-78
-74
-71
-70
-71
-74
-79
-85
-91
-98
-106
-115
-120
-121
-118
-111
-100
-61
8
103
218
326
412
425
398
264
83
-93
-229
-275
-269
-193
-106
-74
-66
-63
-58
-51
-45
-39
-31
-11
17
26
29
30
31
32
34
36
38
40
43
46
49
51
53
55
57
60
64
68
73
80
89
98
105
112
118
124
129
135
141
147
152
157
162
168
176
186
197
207
217
228
241
256
272
282
289
296
301
305
307
307
305
301
296
290
283
274
257
242
229
209
183
159
135
109
74
43
25
12
2
-5
-15
-26
-41
-60
-71
-80
-88
-95
-100
-104
-107
-109
-110
-111
-112
-113
-113
-113
-113
-113
-113
-112
-112
-111
-111
-110
-110
-110
-110
-109
-107
-106
-105
-104
-103
-103
-103
-104
-105
-105
-105
-104
-103
-102
-100
-99
-98
-98
-98
-97
-97
-97
-97
-98
-98
-99
-99
-98
-96
-95
-94
-93
-92
-93
-93
-93
-94
-94
-95
-94
-93
-92
-90
-87
-84
-80
-76
-72
-68
-63
-57
-43
-30
-21
-13
-7
-2
1
5
7
8
8
7
5
1
-2
-7
-13
-18
-22
-25
-28
-30
-33
-36
-39
-43
-47
-50
-53
-56
-58
-60
-61
-62
-62
-62
-61
-61
-62
-63
-63
-64
-66
-69
-74
-78
-79
-76
-71
-65
-59
-53
-47
-43
-45
-49
-54
-63
-74
-75
-62
-24
43
138
247
347
396
391
314
148
-67
-276
-403
-417
-362
-241
-122
-27
5
10
14
17
19
20
22
24
25
28
31
34
36
38
41
44
47
50
54
58
66
82
96
104
109
113
116
119
121
124
126
127
129
132
134
138
141
145
148
153
159
168
178
189
202
215
228
241
253
264
272
278
283
288
293
298
303
307
309
308
306
302
297
290
282
272
256
238
221
201
178
156
135
114
96
71
44
28
17
5
-6
-25
-51
-70
-82
-92
-100
-107
-116
-120
-113
-100
-88
-77
-68
-63
-59
-54
-48
-45
-53
-68
-82
-99
-107
-111
-114
-116
-117
-119
-120
-119
-116
-110
-103
-93
-79
-73
-68
-64
-61
-61
-68
-79
-92
-107
-114
-118
-120
-123
-125
-124
-116
-106
-99
-93
-87
-82
-79
-75
-73
-70
-68
-64
-61
-59
-60
-65
-72
-79
-84
-91
-99
-104
-105
-99
-89
-78
-68
-58
-49
-40
-33
-26
-19
-14
-10
-6
-2
0
1
2
2
0
-2
-5
-10
-14
-17
-21
-26
-31
-36
-41
-46
-50
-54
-59
-66
-80
-105
-118
-125
-130
-134
-134
-131
-125
-118
-111
-98
-91
-94
-100
-105
-110
-115
-117
-113
-103
-94
-88
-82
-76
-70
-65
-61
-58
-56
-51
-31
28
116
219
310
351
346
281
134
-60
-253
-389
-423
-411
-321
-215
-133
-81
-52
-30
-14
3
13
20
27
31
33
34
33
31
29
27
24
18
14
14
22
32
39
46
52
57
60
60
60
59
57
53
47
60
83
108
120
127
132
135
136
137
136
135
132
124
129
162
191
215
233
248
255
260
264
268
271
274
275
275
274
272
270
267
262
256
244
219
194
170
151
137
120
98
67
43
28
15
3
-11
-28
-54
-63
-67
-71
-75
-78
-81
-84
-87
-89
-91
-94
-96
-97
-98
-99
-99
-100
-101
-102
-102
-102
-101
-100
-99
-97
-96
-94
-92
-89
-87
-84
-82
-81
-80
-78
-77
-75
-74
-73
-72
-71
-70
-69
-68
-67
-66
-66
-66
-65
-65
-65
-65
-64
-64
-64
-64
-63
-62
-61
-61
-61
-61
-60
-59
-57
-55
-54
-54
-57
-59
-62
-65
-68
-71
-75
-78
-79
-76
-67
-55
-44
-34
-21
-8
-2
0
2
3
3
3
