547
657
774
889
986
1029
1043
1050
1050
1043
1033
1023
1012
999
984
960
927
902
884
872
858
838
800
745
668
588
539
520
508
498
489
489
507
560
624
690
695
653
528
415
333
313
310
307
307
313
333
391
508
623
648
656
639
621
606
601
606
613
617
621
625
626
626
625
622
616
608
579
500
426
359
327
316
311
312
318
331
374
467
541
567
573
580
585
574
565
562
560
557
553
547
540
532
522
510
496
483
471
460
451
444
437
431
425
422
420
419
417
414
412
409
407
405
402
399
396
392
387
383
378
373
364
355
347
340
332
323
315
312
317
326
344
334
241
83
-56
-170
-234
-257
-265
-261
-251
-220
-143
5
169
219
234
245
251
252
252
251
251
251
252
240
230
225
220
218
216
215
213
210
207
205
203
189
76
-57
-161
-234
-284
-307
-323
-333
-321
-285
-224
-120
-54
-35
-23
-11
-2
6
23
55
74
84
92
95
94
92
89
84
80
74
72
77
89
99
109
118
129
141
150
159
167
173
177
176
173
168
162
157
149
136
122
110
102
96
91
86
83
81
78
76
74
70
67
63
60
57
52
47
40
33
25
13
-3
-3
12
57
153
284
441
618
789
922
993
1000
970
873
731
557
382
228
97
-1
-46
-62
-63
-48
-32
-14
-2
3
7
9
11
13
14
14
13
9
6
2
0
-4
-9
-13
-15
-15
-11
-6
0
4
9
14
20
27
32
35
37
38
38
38
36
34
30
26
21
14
0
0
14
29
42
54
65
78
93
111
127
141
152
162
168
172
175
177
180
184
189
194
199
204
212
224
246
263
274
283
289
288
282
272
243
189
133
97
55
18
0
-13
-21
-21
-13
1
26
46
55
47
13
-14
-62
-110
-138
-159
-175
-185
-195
-204
-185
-161
-140
-128
-123
-118
-115
-113
-110
-109
-108
-108
-112
-117
-123
-130
-137
-143
-149
-155
-161
-165
-166
-164
-160
-156
-152
-148
-145
-141
-137
-134
-132
-130
-130
-131
-134
-137
-141
-146
-151
-157
-161
-165
-169
-172
-173
-172
-168
-163
-156
-149
-142
-136
-130
-124
-118
-114
-113
-114
-117
-121
-125
-129
-131
-134
-136
-139
-142
-145
-147
-150
-152
-154
-156
-156
-155
-155
-153
-152
-150
-148
-146
-142
-139
-136
-134
-131
-129
-126
-121
-116
-111
-108
-108
-109
-113
-117
-120
-123
-125
-127
-129
-131
-133
-135
-137
-138
-139
-140
-141
-142
-143
-143
-143
-142
-142
-141
-140
-138
-136
-134
-132
-130
-129
-126
-124
-121
-119
-115
-110
-103
-97
-93
-90
-86
-76
-80
-99
-109
-113
-109
-102
-96
-92
-87
-82
-76
-69
-64
-59
-54
-50
-47
-44
-41
-37
-32
-27
-24
-22
-19
-16
-11
-5
0
6
12
16
20
24
27
31
35
38
42
45
47
49
50
50
49
48
45
41
37
32
26
21
16
7
-10
-26
-36
-44
-50
-53
-54
-52
-48
-43
-36
-25
-25
-42
-67
-95
-112
-122
-120
-96
-32
83
248
459
697
936
1138
1239
1237
1123
881
584
283
32
-125
-177
-194
-182
-145
-99
-76
-62
-51
-51
-66
-83
-98
-101
-104
-107
-104
-85
-76
-72
-68
-65
-62
-60
-57
-53
-50
-46
-43
-40
-38
-37
-34
-31
-27
-17
2
12
18
23
27
29
29
27
23
19
14
7
1
1
10
26
47
72
85
92
97
101
105
109
114
119
123
128
134
144
159
168
174
177
180
182
184
185
186
186
187
186
184
182
178
174
169
163
155
137
123
111
100
89
79
62
39
17
-9
-34
-50
-59
-64
-68
-72
-76
-81
-88
-101
-141
-237
-325
-396
-415
-420
-423
-408
-384
-351
-276
-160
-71
-42
-55
-62
-65
-68
-71
-74
-76
-78
-80
-82
-83
-85
-87
-89
-90
-93
-99
-102
-93
-77
-68
-61
-54
-50
-46
-43
-40
-39
-39
-41
-44
-47
-52
-56
-61
-64
-69
-75
-84
-90
-93
-91
-87
-83
-79
-76
-72
-68
-65
-62
-64
-69
-78
-91
-116
-153
-170
-180
-188
-193
-194
-192
-186
-176
-144
-97
-78
-64
-57
-52
-47
-44
-42
-41
-41
-41
-42
-44
-48
-53
-59
-64
-68
-72
-78
-85
-92
-95
-95
-93
-90
-84
-76
-64
-45
-35
-30
-26
-23
-21
-22
-26
-33
-43
-55
-75
-88
-95
-101
-106
-109
-109
-103
-94
-81
-56
-25
-14
-7
-2
1
0
-5
-14
-22
-27
-33
-38
-41
-45
-47
-48
-47
-44
-39
-32
-26
-18
-11
-2
7
15
19
17
14
9
5
1
-5
-10
-10
-3
6
16
27
36
43
49
53
58
62
65
67
66
61
54
43
23
-7
-18
-23
-27
-30
-33
-35
-37
-38
-39
-41
-43
-44
-45
-45
-46
-46
-47
-48
-50
-51
-53
-62
-62
-26
58
192
369
577
796
992
1111
1117
1026
788
476
161
-95
-254
-294
-292
-245
-182
-128
-105
-96
-91
-88
-85
-83
-83
-83
-85
-88
-91
-94
-98
-102
-101
-94
-86
-82
-79
-77
-75
-74
-72
-70
-68
-66
-65
-64
-62
-61
-59
-57
-55
-53
-51
-49
-46
-42
-37
-31
-22
0
12
24
37
58
75
88
96
98
97
97
95
94
93
98
109
118
126
135
143
151
162
178
197
223
258
291
314
323
329
334
336
328
310
291
266
243
225
211
200
192
184
179
174
170
165
161
157
153
148
142
133
115
82
66
59
53
48
45
44
44
45
46
47
48
48
49
52
54
55
55
54
53
51
49
47
44
40
38
42
52
62
69
74
78
83
87
91
94
97
98
97
95
92
88
85
81
76
71
66
62
58
54
51
48
45
41
38
35
31
28
24
20
15
8
-1
-19
-34
-46
-52
-56
-59
-61
-63
-65
-67
-70
-74
-78
-82
-85
-89
-92
-96
-100
-105
-111
-116
-122
-129
-136
-141
-146
-150
-153
-155
-157
-158
-159
-160
-161
-163
-165
-168
-170
-173
-175
-177
-177
-178
-178
-179
-179
-179
-179
-178
-178
-179
-180
-182
-183
-184
-185
-186
-187
-186
-181
-171
-159
-147
-131
-115
-99
-85
-71
-58
-45
-34
-27
-21
-15
-9
-6
-3
-3
-5
-7
-10
-15
-22
-34
-64
-97
-130
-187
-240
-295
-355
-417
-485
-559
-630
-695
-759
-817
-845
-886
-940
-1027
-1113
-1190
-1212
-1220
-1226
-1225
-1210
-1190
-1161
-1112
-1061
-1045
-1065
-1099
-1135
-1162
-1180
-1163
-1113
-1050
-978
-889
-781
-669
-565
-461
-353
-243
-133
-23
79
164
237
305
343
365
379
388
391
390
388
385
381
376
396
450
543
684
875
1114
1394
1696
1985
2212
2320
2322
2226
1998
1696
1383
1115
931
859
835
859
929
1002
1068
1110
1154
1194
1232
1259
1273
1284
1283
1262
1231
1191
1128
1066
1024
975
928
882
838
799
755
706
664
604
547
485
429
392
369
355
346
342
346
356
371
396
439
476
502
526
558
595
652
708
769
807
848
884
937
1000
1063
1100
1137
1174
1211
1247
1282
1320
1355
1382
1406
1437
1479
1513
1535
1546
1552
1556
1559
1563
1565
1566
1567
1566
1562
1556
1546
1534
1511
1461
1403
1349
1298
1243
1184
1124
1063
1005
949
900
872
856
843
830
817
802
786
769
751
730
705
675
632
582
541
511
482
453
424
401
372
335
297
254
204
152
94
40
-10
-61
-104
-136
-161
-185
-209
-239
-268
-298
-328
-369
-406
-422
-434
-439
-428
-403
-376
-342
-314
-277
-232
-205
-192
-180
-166
-152
-137
-120
-98
-77
-57
-24
27
87
144
200
250
322
403
497
601
699
782
828
874
909
927
941
938
908
865
810
757
707
669
639
607
564
512
462
413
332
231
102
-60
-261
-500
-757
-1029
-1323
-1633
-1957
-2313
-2702
-3088
-3435
-3729
-3961
-4152
-4318
-4477
-4629
-4754
-4834
-4880
-4924
-4969
-5048
-5130
-5209
-5285
-5316
-5332
-5344
-5342
-5315
-5277
-5223
-5166
-5107
-5045
-4984
-4925
-4873
-4795
-4699
-4580
-4450
-4303
-4122
-3915
-3692
-3455
-3213
-2977
-2757
-2557
-2370
-2190
-2023
-1875
-1736
-1595
-1453
-1314
-1188
-1074
-963
-856
-759
-672
-595
-519
-468
-410
-357
-275
-197
-128
-62
11
91
176
261
345
430
509
578
656
744
832
914
997
1079
1154
1230
1284
1346
1410
1459
1491
1501
1505
1507
1509
1511
1513
1514
1514
1512
1507
1498
1487
1474
1458
1432
1404
1373
1349
1331
1315
1303
1293
1284
1275
1264
1249
1239
1238
1251
1279
1361
1519
1732
1986
2250
2475
2598
2609
2540
2341
2071
1788
1536
1349
1264
1241
1228
1218
1205
1193
1182
1171
1155
1135
1115
1099
1085
1074
1065
1054
1039
1018
1000
989
981
974
968
963
958
952
946
940
935
929
922
915
907
899
888
872
854
839
825
813
807
804
800
798
795
793
791
789
785
781
776
772
769
767
766
764
762
760
758
755
750
743
736
728
719
710
701
692
683
673
663
652
634
602
580
565
555
547
540
534
526
518
511
504
494
478
451
423
395
367
343
319
295
270
245
220
193
167
140
111
82
53
27
1
-24
-50
-71
-90
-106
-122
-147
-185
-227
-267
-307
-342
-374
-412
-448
-474
-499
-516
-527
-538
-551
-566
-581
-598
-618
-633
-641
-647
-654
-663
-668
-658
-638
-618
-595
-584
-578
-575
-574
-572
-570
-569
-569
-569
-569
-570
-570
-571
-571
-570
-569
-568
-566
-563
-559
-555
-551
-547
-543
-540
-536
-530
-523
-514
-505
-495
-486
-477
-468
-460
-453
-447
-443
-439
-435
-431
-427
-423
-419
-414
-410
-405
-401
-397
-393
-390
-386
-382
-379
-376
-373
-371
-369
-367
-365
-363
-360
-357
-355
-352
-350
-348
-346
-343
-341
-338
-336
-333
-330
-324
-306
-294
-285
-281
-277
-273
-270
-266
-264
-262
-261
-261
-260
-259
-257
-256
-253
-251
-247
-243
-239
-235
-232
-230
-227
-225
-223
-222
-220
-217
-215
-211
-207
-203
-199
-195
-191
-186
-182
-176
-170
-160
-141
-123
-106
-96
-90
-85
-80
-76
-71
-67
-64
-60
-57
-53
-49
-45
-40
-36
-31
-22
-13
-5
0
6
12
19
25
29
23
8
-5
-14
-21
-27
-32
-37
-43
-49
-54
-59
-63
-67
-70
-73
-76
-81
-88
-103
-114
-122
-130
-141
-139
-113
-42
77
245
450
662
851
981
1001
970
806
569
308
70
-117
-214
-250
-252
-228
-192
-150
-129
-120
-113
-106
-97
-88
-79
-68
-54
-24
26
67
93
94
95
95
96
97
98
98
97
93
86
79
71
62
54
46
39
32
27
24
23
25
29
34
41
48
56
65
81
97
111
123
135
145
154
164
175
186
197
212
231
247
260
265
270
274
278
282
287
291
294
297
299
301
301
300
298
296
293
289
285
281
276
271
266
260
252
237
218
202
187
172
155
138
119
97
75
58
45
33
21
10
0
-11
-20
-27
-31
-35
-38
-42
-44
-46
-48
-49
-51
-53
-56
-58
-60
-62
-63
-64
-64
-62
-60
-59
-58
-57
-56
-55
-54
-53
-51
-49
-46
-43
-41
-37
-33
-30
-27
-24
-22
-21
-19
-17
-15
-14
-13
-12
-12
-13
-14
-15
-16
-18
-20
-22
-25
-27
-30
-33
-36
-40
-43
-48
-52
-55
-58
-61
-64
-66
-67
-69
-71
-73
-75
-78
-81
-85
-88
-90
-93
-94
-96
-96
-97
-98
-99
-100
-102
-104
-105
-107
-108
-111
-113
-114
-116
-116
-117
-118
-119
-122
-125
-127
-129
-130
-132
-133
-133
-132
-131
-130
-129
-128
-129
-130
-132
-134
-137
-141
-147
-153
-159
-166
-174
-184
-203
-220
-226
-229
-231
-233
-235
-237
-239
-240
-240
-240
-239
-238
-237
-235
-233
-230
-228
-225
-224
-224
-225
-227
-232
-239
-248
-258
-268
-278
-289
-300
-310
-320
-330
-341
-350
-356
-361
-365
-367
-369
-370
-371
-372
-374
-377
-381
-384
-386
-387
-388
-389
-390
-392
-394
-397
-404
-420
-396
-325
-196
-13
212
459
696
885
960
952
832
619
350
67
-160
-293
-343
-346
-314
-262
-230
-226
-224
-222
-221
-220
-217
-213
-208
-204
-199
-194
-187
-178
-161
-128
-100
-77
-58
-32
0
21
37
50
61
70
77
82
87
93
103
118
139
171
220
286
347
414
486
557
627
687
772
857
946
992
1022
1043
1041
1008
959
901
814
724
629
531
469
413
373
351
336
324
316
317
333
356
382
419
451
482
512
543
565
582
596
607
615
622
629
636
643
649
656
662
669
678
684
684
676
666
656
646
639
639
647
661
684
718
740
755
761
754
736
708
670
634
600
580
568
559
559
571
592
628
674
725
809
908
993
1062
1108
1166
1225
1255
1268
1279
1285
1275
1263
1255
1263
1264
1266
1276
1321
1398
1492
1610
1763
1921
2057
2159
2267
2344
2412
2483
2516
2533
2547
2554
2551
2542
2525
2491
2447
2398
2334
2267
2236
2204
2161
2085
1956
1784
1590
1400
1229
1079
947
837
757
701
649
585
506
418
335
261
216
168
122
80
38
-2
-51
-110
-166
-222
-268
-285
-287
-287
-291
-301
-310
-309
-310
-317
-329
-350
-383
-399
-409
-411
-408
-404
-404
-402
-398
-397
-402
-410
-424
-451
-493
-525
-558
-593
-625
-661
-702
-747
-791
-822
-842
-862
-879
-895
-907
-920
-932
-942
-951
-956
-961
-967
-970
-969
-963
-956
-948
-938
-925
-904
-883
-860
-830
-800
-777
-745
-710
-681
-647
-606
-569
-536
-502
-465
-424
-349
-276
-205
-128
-78
-24
14
38
57
58
28
-18
-74
-126
-178
-234
-294
-357
-414
-465
-510
-537
-556
-582
-624
-674
-710
-734
-754
-770
-784
-800
-816
-840
-869
-895
-925
-960
-986
-1006
-1008
-981
-908
-788
-636
-478
-338
-266
-242
-286
-423
-654
-929
-1197
-1421
-1555
-1597
-1570
-1487
-1341
-1194
-1078
-996
-967
-951
-941
-926
-909
-884
-849
-805
-766
-738
-714
-693
-678
-662
-643
-620
-594
-572
-541
-496
-457
-432
-407
-386
-367
-355
-343
-330
-314
-296
-279
-257
-234
-211
-191
-172
-161
-158
-157
-156
-153
-147
-140
-130
-120
-109
-83
-29
0
11
15
21
25
29
31
35
41
45
52
72
103
149
201
250
297
326
341
353
365
377
389
395
381
351
322
294
271
246
214
172
134
113
102
93
83
74
62
46
32
19
8
-3
-16
-28
-35
-39
-44
-48
-49
-47
-47
-48
-46
-40
-37
-37
-37
-36
-36
-36
-37
-39
-39
-35
-31
-27
-22
-18
-14
-9
1
13
21
27
34
40
46
52
58
63
67
72
76
77
76
77
84
96
114
141
163
180
192
202
208
211
213
214
210
198
182
164
147
132
120
112
108
106
107
108
108
108
107
104
101
99
100
101
103
104
106
105
103
100
102
107
113
121
132
143
152
158
162
167
174
183
190
196
199
202
201
197
194
194
197
197
195
189
182
174
167
162
161
164
171
177
178
177
175
174
175
176
177
178
178
176
172
166
158
143
128
114
102
91
81
74
69
66
65
63
60
60
60
58
54
50
47
46
47
49
50
50
51
52
53
55
62
74
87
99
116
145
166
174
178
178
176
176
178
180
181
181
180
173
161
148
134
121
112
107
103
99
96
93
88
83
81
80
79
80
83
85
85
80
72
62
51
39
23
4
-9
-9
3
32
119
266
457
688
942
1181
1353
1380
1340
1122
812
473
175
-43
-128
-157
-119
-52
4
24
38
54
66
73
75
71
64
55
48
43
39
35
30
18
5
-3
-4
-1
8
23
39
51
59
64
66
69
71
70
68
65
63
61
60
59
57
54
51
51
51
53
57
62
64
65
67
70
74
77
83
89
93
98
103
105
107
111
117
124
129
133
137
141
145
149
152
155
160
166
172
175
174
172
169
162
149
131
112
94
80
65
50
33
16
5
-2
-12
-24
-38
-54
-71
-87
-100
-111
-119
-123
-124
-127
-133
-140
-145
-146
-143
-138
-132
-125
-119
-114
-112
-112
-112
-109
-103
-98
-94
-107
-105
-102
-100
-98
-96
-93
-91
-88
-87
-86
-84
-83
-81
-80
-78
-77
-77
-77
-77
-75
-74
-72
-70
-68
-67
-65
-64
-63
-63
-63
-64
-65
-66
-66
-65
-64
-64
-63
-63
-63
-61
-60
-58
-57
-57
-57
-57
-57
-56
-55
-54
-54
-53
-52
-50
-47
-45
-43
-42
-41
-40
-39
-37
-37
-38
-40
-42
-43
-45
-46
-48
-50
-54
-56
-58
-59
-60
-61
-63
-66
-68
-69
-69
-69
-69
-69
-70
-69
-69
-68
-68
-67
-67
-67
-68
-68
-67
-66
-65
-64
-63
-62
-61
-61
-60
-60
-60
-60
-61
-61
-61
-60
-58
-56
-53
-49
-44
-38
-33
-27
-22
-18
-13
-9
-5
0
4
8
13
19
25
32
40
47
54
61
65
68
69
70
69
68
66
62
58
54
51
48
46
42
38
33
28
23
19
13
6
-2
-10
-17
-23
-28
-32
-37
-42
-48
-54
-62
-74
-97
-111
-103
-76
3
136
323
555
804
1032
1180
1198
1133
904
592
274
11
-173
-215
-221
-225
-175
-142
-125
-111
-100
-90
-82
-74
-68
-60
-53
-49
-46
-45
-44
-42
-40
-38
-34
-30
-26
-21
-16
-12
-8
-5
-3
-1
0
3
5
8
11
14
17
22
26
30
34
37
41
44
47
50
54
58
62
67
73
80
87
95
104
113
122
133
146
160
175
188
198
206
212
218
224
230
235
240
246
252
259
263
265
262
255
245
233
219
203
176
151
128
108
89
72
56
41
24
6
-12
-33
-51
-70
-84
-93
-100
-103
-106
-109
-113
-116
-118
-119
-120
-120
-121
-120
-119
-117
-115
-112
-109
-107
-104
-100
-95
-89
-84
-78
-73
-68
-62
-57
-51
-48
-45
-42
-39
-36
-33
-30
-27
-24
-21
-18
-15
-12
-10
-8
-6
-5
-4
-3
-1
1
3
5
8
10
13
16
18
21
23
25
27
30
32
33
33
31
29
25
19
13
7
0
-7
-14
-19
-24
-28
-33
-39
-47
-56
-65
-75
-84
-93
-102
-109
-115
-120
-124
-128
-130
-133
-137
-142
-148
-155
-162
-168
-172
-174
-176
-178
-179
-179
-179
-179
-180
-181
-182
-182
-180
-175
-169
-163
-160
-157
-153
-150
-147
-144
-141
-138
-134
-130
-127
-124
-121
-119
-115
-112
-108
-105
-102
-100
-97
-94
-91
-88
-86
-84
-81
-78
-74
-70
-68
-65
-63
-61
-58
-54
-50
-46
-42
-37
-30
-20
-8
4
16
27
39
52
64
75
84
93
101
109
116
121
125
127
128
130
133
134
134
134
136
137
139
140
134
121
105
91
83
76
69
61
52
44
37
30
25
21
18
14
11
8
5
0
-10
-18
-17
0
32
128
281
482
720
970
1194
1330
1342
1265
1033
728
419
155
-42
-144
-180
-179
-140
-83
-20
5
17
26
32
36
38
40
40
38
34
28
22
14
7
2
-3
-8
-12
-17
-21
-24
-27
-29
-31
-32
-31
-30
-27
-23
-17
-11
-5
1
8
15
21
27
33
39
45
50
57
63
69
75
81
86
90
93
97
102
106
110
114
117
121
125
129
134
139
143
147
151
154
156
157
157
155
152
149
145
141
137
130
123
112
101
90
80
68
51
27
0
-19
-33
-44
-54
-64
-73
-83
-93
-102
-112
-122
-133
-147
-164
-174
-182
-186
-190
-193
-196
-197
-198
-195
-190
-182
-173
-164
-154
-142
-129
-119
-113
-107
-102
-98
-93
-88
-84
-80
-76
-71
-66
-60
-56
-52
-50
-48
-46
-45
-43
-41
-40
-38
-36
-34
-32
-31
-31
-31
-32
-32
-33
-34
-35
-37
-38
-38
-37
-37
-37
-38
-39
-40
-41
-42
-43
-43
-44
-44
-44
-43
-43
-43
-42
-42
-43
-43
-44
-44
-40
-35
-28
-22
-19
-15
-12
-9
-5
-2
0
1
2
3
4
5
4
4
3
1
1
1
1
1
0
1
2
3
4
4
5
6
6
6
7
8
10
12
19
27
30
25
15
5
0
-5
-10
-15
-20
-24
-27
-27
-25
-22
-19
-14
-9
-3
1
7
13
19
24
30
36
42
49
56
64
71
80
89
97
104
110
115
119
123
127
131
135
138
141
142
143
143
142
140
136
131
124
116
108
100
94
87
79
72
64
58
53
49
45
42
39
36
32
26
12
-6
-21
-33
-40
-40
-29
-5
65
200
393
630
886
1123
1288
1311
1266
1064
773
449
161
-44
-160
-198
-186
-152
-75
-50
-38
-31
-41
-51
-59
-62
-56
-46
-40
-38
-36
-35
-36
-36
-35
-35
-33
-31
-29
-27
-25
-24
-22
-20
-17
-13
-10
-7
-5
-4
-2
0
2
5
9
13
18
22
26
30
33
35
37
39
42
46
52
66
79
93
100
107
113
118
123
127
131
135
139
143
147
151
154
157
161
166
170
175
178
181
184
185
184
183
181
177
172
165
159
150
132
94
70
55
38
20
3
-11
-25
-38
-48
-54
-59
-64
-68
-72
-76
-80
-82
-84
-85
-87
-88
-90
-91
-94
-98
-101
-103
-99
-92
-84
-80
-77
-75
-73
-71
-70
-69
-67
-64
-61
-58
-55
-52
-49
-46
-43
-40
-37
-35
-33
-30
-27
-23
-19
-15
-12
-9
-8
-8
-8
-8
-9
-11
-12
-14
-16
-17
-18
-19
-21
-22
-24
-25
-27
-29
-30
-32
-35
-36
-37
-37
-37
-37
-37
-37
-37
-38
-39
-40
-41
-42
-44
-45
-47
-48
-48
-49
-49
-49
-49
-49
-48
-49
-49
-50
-50
-51
-52
-56
-59
-62
-62
-57
-50
-42
-37
-31
-24
-18
-13
-12
-14
-17
-20
-23
-25
-28
-32
-36
-39
-39
-36
-29
-22
-14
-7
1
10
19
26
31
36
39
42
46
50
54
57
59
60
61
62
62
62
61
60
59
58
56
54
51
47
42
34
15
-6
-26
-42
-59
-77
-88
-96
-102
-108
-113
-118
-122
-126
-130
-133
-137
-143
-150
-163
-169
-164
-151
-119
-29
105
280
492
726
956
1139
1224
1172
979
687
364
73
-145
-255
-291
-280
-249
-192
-154
-120
-97
-84
-80
-79
-77
-76
-75
-74
-74
-73
-73
-72
-71
-70
-69
-68
-68
-68
-68
-68
-67
-66
-65
-63
-61
-58
-55
-52
-48
-45
-41
-38
-34
-30
-26
-22
-18
-15
-11
-7
-3
0
6
12
17
23
29
35
40
46
52
59
67
80
93
106
118
133
150
157
160
162
164
165
166
166
167
167
167
168
167
166
162
159
154
150
145
138
130
113
96
79
58
35
18
5
-3
-12
-22
-33
-45
-59
-71
-83
-87
-90
-93
-96
-98
-99
-100
-100
-100
-101
-102
-104
-105
-105
-105
-105
-105
-104
-104
-104
-104
-104
-104
-105
-108
-111
-111
-105
-97
-93
-90
-86
-83
-79
-75
-72
-71
-71
-71
-71
-71
-71
-71
-72
-72
-72
-71
-70
-68
-67
-67
-67
-67
-68
-69
-70
-71
-72
-71
-70
-69
-67
-65
-63
-60
-57
-55
-53
-52
-52
-51
-49
-47
-45
-42
-38
-35
-31
-28
-27
-28
-30
-31
-33
-35
-36
-39
-42
-44
-44
-41
-33
-24
-16
-13
-10
-8
-5
-3
-1
0
1
2
3
5
8
10
12
12
13
13
15
16
18
21
24
29
37
46
55
61
67
72
76
79
82
85
87
88
90
91
93
94
93
93
91
89
86
82
77
72
66
61
54
45
33
22
11
1
-9
-20
-31
-40
-48
-55
-64
-75
-85
-94
-103
-112
-115
-109
-94
-53
32
168
353
571
798
995
1109
1113
1019
784
490
201
-35
-190
-248
-267
-249
-194
-133
-94
-75
-67
-61
-56
-53
-50
-47
-43
-40
-37
-35
-33
-32
-30
-28
-26
-23
-19
-15
-11
-7
-4
0
2
4
6
8
9
11
12
14
16
18
21
24
27
30
33
35
38
40
43
45
48
51
55
60
65
70
77
84
93
106
128
148
161
170
177
183
190
196
202
207
212
217
222
227
230
232
231
228
223
217
211
203
190
178
168
157
146
132
114
96
78
63
50
34
15
-3
-18
-29
-39
-50
-62
-77
-94
-100
-103
-103
-104
-104
-105
-105
-105
-105
-105
-104
-104
-103
-103
-102
-101
-100
-99
-98
-98
-97
-96
-95
-94
-94
-94
-93
-92
-91
-90
-89
-88
-88
-87
-86
-84
-82
-80
-78
-75
-71
-66
-61
-58
-56
-54
-53
-50
-47
-42
-40
-46
-59
-66
-72
-78
-83
-84
-82
-77
-72
-67
-65
-64
-62
-61
-60
-59
-58
-56
-55
-53
-51
-50
-49
-50
-50
-50
-49
-49
-49
-50
-51
-51
-51
-51
-51
-51
-51
-50
-48
-46
-44
-43
-43
-43
-42
-41
-40
-39
-39
-39
-37
-35
-32
-29
-26
-24
-23
-22
-20
-19
-19
-21
-23
-24
-25
-25
-25
-25
-26
-27
-28
-28
-29
-30
-32
-34
-29
-17
-6
3
14
24
33
42
51
59
65
70
73
75
78
82
86
89
90
87
80
73
66
61
55
50
44
38
33
28
23
18
12
6
1
-3
-9
-15
-21
-27
-33
-36
-39
-40
-43
-48
-57
-79
-105
-128
-145
-156
-156
-139
-95
5
156
358
605
883
1145
1327
1371
1242
965
617
280
18
-141
-180
-193
-172
-151
-134
-119
-106
-95
-85
-75
-64
-52
-45
-39
-34
-30
-25
-22
-20
-19
-19
-19
-20
-21
-23
-26
-29
-33
-37
-40
-45
-56
-62
-56
-44
-33
-21
-8
3
9
14
19
24
28
30
31
30
29
28
26
25
22
17
17
31
47
64
80
95
107
119
131
138
143
148
152
155
159
161
162
163
164
165
165
166
166
167
169
172
175
175
168
157
145
129
114
99
83
68
52
36
20
4
-11
-29
-48
-66
-86
-93
-97
-101
-104
-108
-111
-113
-114
-115
-116
-116
-117
-117
-115
-113
-111
-109
-108
-107
-105
-103
-100
-98
-97
-97
-95
-92
-88
-84
-80
-77
-74
-70
-65
-59
-55
-51
-49
-46
-43
-39
-35
-32
-30
-28
-27
-26
-25
-25
-26
-28
-31
-33
-35
-35
-36
-37
-39
-40
-40
-40
-40
-41
-43
-46
-48
-50
-52
-54
-57
-60
-62
-65
-66
-67
-68
-69
-71
-73
-74
-75
-77
-79
-80
-82
-84
-84
-85
-85
-85
-85
-84
-82
-80
-79
-77
-75
-73
-72
-70
-69
-68
-68
-68
-68
-67
-65
-63
-61
-60
-58
-57
-56
-55
-56
-57
-58
-61
-63
-64
-66
-70
-74
-75
-73
-66
-57
-45
-29
-18
-9
-1
3
-2
-14
-22
-28
-33
-36
-39
-41
-42
-43
-42
-38
-33
-26
-20
-13
-6
7
19
27
34
40
44
49
53
58
64
69
73
77
81
87
93
96
97
94
89
82
75
67
55
42
28
18
10
3
-2
-7
-12
-16
-21
-24
-28
-31
-36
-41
-47
-54
-62
-72
-88
-95
-92
-85
-66
8
134
311
534
786
1036
1235
1312
1302
1173
914
589
263
-3
-178
-234
-232
-164
-71
-20
-2
-1
-8
-15
-22
-20
0
26
51
63
69
72
74
76
79
81
83
86
88
90
93
95
97
99
101
104
106
108
110
112
114
115
117
119
121
124
126
127
129
131
132
133
133
134
135
136
138
140
142
145
147
149
151
154
157
160
163
167
173
184
196
207
217
225
232
239
244
247
247
242
235
226
216
205
190
175
165
157
151
145
140
134
126
117
108
98
86
69
54
40
27
14
7
2
0
-3
-6
-8
-10
-12
-15
-20
-26
-32
-37
-42
-47
-55
-63
-70
-73
-71
-68
-66
-65
-64
-64
-63
-62
-61
-59
-57
-56
-54
-53
-53
-53
-55
-58
-60
-64
-67
-70
-73
-75
-77
-78
-79
-80
-81
-82
-84
-86
-88
-91
-94
-97
-100
-102
-104
-106
-107
-109
-111
-113
-114
-116
-119
-124
-128
-131
-132
-129
-124
-118
-112
-108
-105
-102
-99
-97
-95
-93
-91
-89
-87
-85
-83
-82
-82
-82
-82
-83
-84
-85
-86
-86
-86
-86
-86
-85
-83
-82
-79
-78
-77
-77
-78
-78
-80
-81
-82
-84
-86
-87
-87
-86
-84
-82
-81
-79
-76
-74
-72
-69
-66
-63
-59
-54
-46
-35
-24
-14
-5
3
13
25
38
50
54
55
56
58
61
62
49
27
17
10
5
0
-4
-8
-12
-16
-19
-22
-25
-27
-29
-30
-31
-32
-33
-34
-36
-38
-44
-58
-74
-87
-99
-99
-83
-41
64
230
455
718
982
1196
1287
1276
1130
843
503
187
-55
-199
-234
-226
-183
-146
-112
-82
-55
-17
11
27
38
44
45
40
34
28
25
22
19
17
15
13
11
10
10
12
14
16
18
21
23
27
31
35
35
30
23
15
10
5
0
-5
-9
-13
-16
-17
-16
-14
-10
-6
-1
3
9
15
22
28
35
40
45
47
50
54
57
59
61
63
65
67
69
69
67
64
62
59
57
54
50
46
42
38
34
29
22
15
7
0
-8
-17
-30
-47
-64
-78
-95
-115
-135
-150
-161
-169
-179
-187
-196
-210
-228
-235
-239
-241
-244
-246
-248
-249
-249
-249
-249
-249
-247
-243
-239
-235
-231
-228
-226
-224
-220
-216
-212
-210
-207
-205
-203
-202
-201
-202
-205
-209
-214
-219
-225
-231
-241
-259
-271
-279
-282
-286
-289
-293
-296
-299
-301
-301
-301
-300
-298
-295
-291
-286
-281
-275
-269
-263
-256
-248
-238
-229
-222
-216
-211
-206
-201
-196
-190
-183
-175
-165
-154
-145
-137
-129
-124
-120
-116
-114
-111
-109
-107
-104
-102
-101
-101
-103
-108
-115
-121
-127
-132
-139
-147
-153
-157
-157
-155
-151
-145
-137
-107
-56
-2
32
70
104
156
210
265
286
301
318
344
375
404
422
432
442
455
471
488
506
519
528
539
553
572
584
592
599
604
607
607
604
600
596
592
586
581
578
577
578
580
583
586
590
594
595
593
587
578
562
531
496
463
429
403
384
373
391
446
564
743
979
1255
1533
1761
1839
1820
1639
1332
981
657
420
314
278
290
326
380
400
417
412
379
353
338
328
323
324
334
345
352
357
360
364
368
372
376
380
385
389
392
395
397
400
404
412
420
424
420
410
395
374
337
275
215
155
