118
138
150
159
166
172
177
181
184
186
188
191
194
198
202
204
204
203
201
198
195
188
189
203
223
247
256
261
265
269
272
275
276
277
277
276
274
270
266
260
255
250
245
240
234
228
222
217
211
206
201
196
191
186
182
178
177
178
180
184
188
193
197
201
205
208
212
215
217
217
216
213
210
205
198
172
128
75
45
-2
-54
-110
-160
-194
-227
-248
-254
-259
-264
-246
-194
-121
-32
52
128
198
257
290
303
307
301
288
277
268
259
252
245
238
231
223
216
210
203
197
194
191
190
188
187
185
182
179
176
172
169
165
162
157
153
149
145
140
136
132
128
124
119
116
113
111
109
106
100
89
80
74
71
69
67
66
64
63
61
59
57
54
52
50
47
43
37
31
25
18
11
4
-3
-14
-23
-27
-25
-19
-14
-12
-10
-9
-7
-4
-1
1
5
9
14
18
23
28
33
40
51
61
64
65
67
68
70
71
72
74
75
75
73
70
67
64
61
58
55
53
51
48
45
42
39
37
35
33
32
30
28
26
25
23
23
22
21
19
17
14
11
9
6
3
0
-3
-7
-11
-18
-26
-31
-33
-34
-35
-37
-40
-39
-30
-24
-19
-14
-11
-9
-12
-19
-27
-36
-46
-59
-71
-82
-90
-95
-98
-102
-106
-110
-113
-116
-118
-119
-120
-120
-120
-118
-115
-112
-110
-107
-103
-99
-93
-82
-61
-46
-37
-29
-23
-18
-17
-16
-15
-15
-15
-14
-14
-14
-17
-22
-28
-33
-41
-48
-48
-41
-28
-15
-1
12
26
34
40
45
49
52
55
58
60
63
65
68
70
71
72
74
76
79
83
88
91
92
87
79
67
48
15
-18
-46
-67
-93
-124
-158
-198
-231
-280
-333
-355
-366
-372
-356
-309
-234
-138
-36
58
137
201
218
221
224
221
202
175
140
123
115
109
105
101
99
98
99
99
100
101
102
104
106
108
100
85
78
74
70
67
65
63
61
59
58
56
53
51
48
46
44
42
40
38
36
33
29
24
18
12
7
3
0
-3
-7
-10
-14
-17
-21
-26
-33
-41
-49
-52
-55
-57
-59
-60
-62
-66
-69
-72
-75
-77
-79
-80
-81
-80
-78
-76
-72
-68
-64
-60
-57
-53
-50
-46
-40
-26
-11
-3
1
5
8
11
14
17
18
19
20
21
22
22
23
23
22
22
21
21
19
18
18
18
19
19
19
18
18
18
17
16
15
14
13
13
14
13
8
1
0
-1
-2
-4
-6
-8
-9
-9
-10
-10
-10
-9
-8
-7
-7
-7
-8
-8
-8
-8
-8
-10
-11
-13
-14
-15
-16
-19
-23
-27
-30
-35
-45
-56
-63
-68
-72
-77
-84
-87
-83
-76
-72
-69
-66
-64
-62
-59
-56
-53
-50
-47
-43
-40
-37
-33
-27
-20
-14
-7
0
9
17
25
32
38
41
43
46
48
49
50
49
49
48
49
50
50
50
50
51
52
52
53
55
56
56
57
58
60
63
72
77
74
66
61
58
55
53
51
48
44
40
36
31
25
18
1
-30
-61
-88
-110
-136
-162
-189
-238
-293
-362
-441
-518
-564
-579
-554
-477
-344
-194
-61
44
124
163
177
177
165
148
125
103
75
58
51
44
39
34
29
25
21
19
17
15
14
13
13
13
13
12
11
8
5
2
0
-1
-1
-2
-3
-4
-5
-7
-9
-13
-17
-22
-27
-32
-36
-41
-45
-49
-51
-53
-55
-58
-62
-67
-70
-73
-76
-79
-82
-84
-87
-89
-91
-93
-97
-101
-104
-108
-111
-115
-118
-121
-123
-125
-127
-130
-133
-137
-139
-136
-130
-121
-112
-104
-95
-84
-75
-67
-60
-53
-48
-44
-40
-36
-33
-31
-28
-25
-22
-19
-18
-16
-15
-13
-10
-8
-5
-1
1
4
6
7
9
10
11
11
11
11
12
14
16
17
18
16
14
11
9
8
7
6
4
2
0
0
-1
-2
-3
-4
-4
-4
-4
-3
-3
-2
0
0
1
2
3
3
3
4
5
5
6
7
10
13
15
15
12
7
0
-6
-12
-21
-30
-38
-45
-51
-56
-61
-68
-74
-79
-78
-71
-61
-51
-44
-35
-27
-20
-15
-11
-7
-4
-1
0
3
6
9
12
16
20
25
31
39
51
65
79
89
99
107
110
105
95
85
80
76
73
70
67
65
63
60
58
55
53
51
49
48
47
46
46
47
48
49
49
49
48
47
45
43
41
39
36
33
29
24
18
6
-25
-62
-95
-146
-197
-251
-308
-366
-423
-478
-535
-554
-564
-551
-464
-319
-144
21
141
169
179
160
129
100
85
76
68
62
57
52
48
43
39
35
29
23
15
4
-11
-17
-19
-20
-22
-22
-21
-15
-8
-4
0
3
6
8
9
10
9
5
0
-5
-12
-18
-23
-29
-34
-40
-47
-52
-57
-60
-63
-65
-66
-68
-69
-70
-71
-73
-75
-77
-80
-83
-87
-90
-93
-97
-101
-105
-109
-112
-116
-121
-125
-129
-132
-135
-135
-134
-131
-128
-123
-118
-111
-103
-88
-77
-69
-65
-62
-59
-56
-52
-47
-41
-36
-31
-25
-17
-5
7
20
29
37
45
49
50
46
39
32
26
20
14
8
4
2
3
4
7
9
10
11
11
13
14
15
17
18
18
18
19
20
21
22
23
24
26
27
29
30
32
33
37
42
45
43
37
31
27
22
17
14
13
14
16
19
23
27
31
35
37
33
25
15
6
-4
-15
-26
-36
-44
-52
-58
-63
-66
-65
-62
-57
-50
-40
-25
-18
-13
-10
-7
-3
0
4
9
15
23
31
41
51
60
68
76
83
89
92
95
97
98
98
99
100
101
102
102
102
103
103
104
105
104
103
101
98
95
92
89
86
84
81
79
78
77
75
73
70
66
63
60
57
54
52
49
46
43
40
34
20
5
-10
-26
-43
-63
-87
-124
-168
-223
-290
-366
-443
-510
-543
-539
-484
-367
-219
-67
67
162
193
205
205
191
173
142
117
104
94
86
80
74
67
59
52
45
39
32
26
19
13
11
9
8
8
8
8
7
5
4
2
0
-2
-7
-12
-17
-21
-24
-26
-29
-33
-35
-37
-39
-40
-42
-44
-46
-48
-49
-51
-52
-54
-56
-57
-58
-59
-60
-62
-66
-70
-85
-112
-123
-131
-136
-140
-139
-136
-131
-129
-127
-125
-122
-120
-116
-111
-107
-103
-100
-96
-92
-87
-83
-78
-73
-68
-64
-60
-56
-52
-49
-46
-43
-39
-34
-29
-24
-19
-15
-8
3
14
20
25
28
31
34
37
40
40
38
33
29
25
23
21
19
16
14
12
11
10
9
8
7
5
4
3
2
2
2
2
3
3
5
6
7
9
11
13
15
17
18
19
21
26
31
36
39
39
38
34
30
25
19
10
1
-7
-14
-19
-24
-29
-34
-37
-40
-40
-38
-36
-33
-31
-27
-19
-18
-26
-30
-33
-37
-40
-42
-42
-40
-37
-33
-28
-21
-14
-3
9
23
38
50
61
72
80
86
90
93
95
97
100
102
104
103
98
91
84
79
75
72
69
67
65
64
63
61
60
58
56
55
55
55
55
55
55
54
54
54
53
53
53
52
51
49
47
44
38
23
4
-20
-55
-95
-129
-160
-185
-218
-259
-311
-370
-434
-495
-530
-528
-481
-372
-226
-73
47
119
142
133
125
121
117
113
106
95
83
67
44
34
30
28
27
26
25
23
22
21
21
22
22
22
22
20
19
17
15
13
11
8
5
3
2
1
0
-1
-3
-5
-7
-9
-12
-15
-19
-23
-26
-29
-31
-34
-37
-41
-46
-51
-59
-68
-76
-81
-84
-87
-88
-89
-90
-90
-91
-91
-92
-92
-92
-93
-93
-93
-93
-92
-90
-88
-86
-84
-83
-81
-79
-77
-72
-58
-50
-46
-42
-38
-34
-31
-28
-25
-21
-16
-11
0
27
44
53
60
64
66
65
61
57
54
51
49
47
46
44
41
39
37
35
34
33
32
32
32
33
33
33
32
31
30
29
28
28
33
40
48
58
73
73
60
45
30
18
12
7
4
2
1
1
4
9
15
21
27
34
41
46
48
50
52
53
55
57
54
38
27
19
12
5
0
-5
-9
-13
-18
-24
-30
-35
-38
-40
-42
-45
-49
-51
-51
-46
-39
-32
-27
-23
-18
-13
-8
-2
1
4
7
10
13
19
27
36
43
48
53
58
62
65
65
64
61
58
56
53
51
49
45
42
40
38
36
34
32
31
29
28
27
25
23
20
17
14
12
10
8
6
3
1
-1
-4
-8
-13
-19
-25
-31
-37
-44
-59
-87
-116
-148
-181
-214
-246
-274
-298
-324
-369
-433
-510
-583
-618
-613
-549
-420
-258
-94
31
96
118
104
81
60
51
46
40
31
20
7
-7
-20
-30
-35
-39
-41
-43
-44
-46
-47
-48
-49
-51
-53
-56
-58
-60
-61
-63
-65
-66
-68
-69
-70
-69
-69
-70
-70
-71
-72
-73
-73
-74
-75
-76
-77
-77
-77
-77
-77
-78
-79
-80
-81
-83
-86
-89
-93
-100
-108
-117
-126
-132
-138
-143
-147
-149
-151
-152
-151
-148
-144
-138
-132
-126
-121
-116
-111
-105
-100
-95
-90
-86
-82
-77
-73
-69
-65
-62
-57
-50
-43
-36
-31
-28
-24
-18
-9
1
15
24
30
36
40
44
45
44
42
40
37
36
34
32
28
25
22
19
17
15
14
13
14
15
18
20
23
25
26
28
30
31
32
33
34
35
37
39
41
42
42
43
44
45
46
46
46
47
48
49
49
50
51
52
53
54
56
57
58
62
67
71
72
67
59
51
43
35
26
18
11
5
0
-6
-13
-20
-24
-25
-26
-28
-30
-33
-31
-17
-8
-3
0
4
8
12
16
20
25
31
41
57
73
79
83
86
89
91
93
95
96
97
98
100
102
103
103
104
105
106
107
108
108
109
112
119
118
104
92
81
74
72
72
73
73
74
73
74
75
75
75
75
75
74
74
74
73
71
67
62
56
49
32
0
-31
-64
-100
-132
-182
-238
-304
-375
-444
-509
-561
-578
-565
-524
-407
-246
-73
78
190
229
229
187
137
116
108
104
101
98
95
89
83
75
68
61
53
46
39
34
33
33
35
37
41
47
54
35
22
16
11
7
4
1
0
-2
-4
-5
-6
-8
-9
-11
-12
-15
-18
-22
-26
-31
-37
-44
-56
-74
-85
-89
-91
-93
-94
-96
-98
-100
-102
-104
-106
-109
-112
-115
-118
-121
-124
-128
-133
-139
-143
-146
-148
-148
-147
-147
-146
-144
-143
-141
-137
-121
-100
-81
-72
-66
-62
-59
-57
-54
-50
-45
-39
-33
-27
-21
-16
-10
-5
0
3
6
8
10
13
17
20
24
32
36
31
22
17
13
10
8
6
3
1
-1
-4
-7
-10
-14
-21
-33
-32
-19
0
19
26
30
33
35
35
34
32
29
25
20
15
8
0
-5
-11
-18
-27
-26
-7
10
28
37
42
46
50
53
52
44
33
22
11
1
-3
-7
-11
-15
-19
-22
-24
-25
-25
-24
-23
-22
-18
-13
-24
-33
-38
-42
-45
-46
-43
-35
-26
-16
-9
-1
6
14
21
28
32
35
38
43
51
66
82
94
105
110
105
95
92
89
87
85
83
81
79
78
78
78
78
79
81
82
85
88
91
95
99
106
111
111
106
98
94
90
87
85
82
79
75
72
68
63
58
49
33
17
1
-15
-29
-47
-70
-111
-164
-226
-295
-369
-443
-500
-518
-498
-436
-306
-161
-25
90
177
202
210
191
166
146
133
124
118
111
102
91
71
43
29
23
18
15
13
12
10
9
8
8
8
8
7
6
5
3
2
0
-3
-8
-13
-19
-24
-27
-29
-31
-34
-36
-39
-42
-44
-47
-50
-53
-56
-58
-60
-61
-62
-63
-64
-65
-66
-68
-70
-73
-77
-84
-91
-98
-103
-109
-119
-132
-139
-145
-152
-152
-144
-140
-138
-136
-134
-133
-132
-130
-127
-123
-120
-116
-112
-108
-103
-96
-85
-74
-63
-52
-45
-38
-32
-26
-21
-16
-11
-6
-1
3
7
11
15
18
22
25
27
28
29
28
28
27
26
25
24
23
22
22
21
20
19
18
17
16
16
16
16
16
16
16
16
16
16
16
16
16
15
15
16
18
19
20
21
22
24
25
27
28
29
31
36
43
48
49
43
34
26
23
20
18
15
11
8
5
2
0
-1
-3
-4
-6
-8
-9
-9
-11
-11
-12
-12
-12
-12
-11
-9
-7
-5
-3
-1
0
2
4
6
9
12
17
23
31
38
45
52
59
65
71
77
82
85
89
92
96
99
103
105
106
106
105
104
103
101
99
97
95
93
92
91
91
90
89
87
85
82
80
78
77
75
73
71
70
68
66
63
58
53
47
41
33
24
5
-24
-51
-85
-124
-163
-201
-237
-269
-300
-352
-407
-468
-484
-488
-472
-383
-266
-137
-18
78
141
162
173
173
167
157
139
101
76
65
56
50
45
40
35
30
26
22
19
17
16
15
15
15
15
14
13
10
7
3
0
-2
-4
-6
-8
-10
-12
-13
-16
-18
-22
-26
-32
-37
-42
-47
-51
-55
-58
-60
-62
-64
-66
-68
-71
-74
-77
-81
-85
-90
-94
-99
-103
-106
-109
-112
-114
-117
-120
-124
-128
-132
-136
-137
-138
-138
-136
-134
-131
-126
-121
-116
-111
-105
-96
-86
-77
-71
-65
-59
-51
-41
-32
-24
-17
-15
-14
-13
-12
-11
-9
-8
-6
-4
-1
0
3
5
6
7
8
10
12
17
23
27
28
25
19
13
6
-4
-10
-9
-7
-7
-7
-8
-8
-10
-11
-11
-11
-9
-7
-6
-5
-5
-5
-4
-4
-3
-3
-2
0
4
10
14
15
14
13
12
12
12
12
11
9
6
4
0
-2
-6
-10
-14
-17
-21
-25
-30
-34
-38
-41
-45
-48
-50
-52
-55
-57
-59
-61
-60
-58
-53
-48
-43
-39
-34
-29
-24
-19
-14
-10
-4
2
11
24
36
48
55
61
66
70
73
74
75
75
76
77
78
78
80
83
86
84
81
80
80
79
78
77
77
76
74
73
72
71
70
70
70
70
70
70
70
69
68
66
64
62
60
58
56
54
52
48
43
34
2
-44
-93
-142
-175
-216
-250
-299
-349
-402
-457
-513
-550
-550
-511
-409
-274
-135
-12
82
126
140
147
152
155
158
160
168
165
123
78
52
37
29
24
21
18
15
11
9
7
4
0
-3
-6
-8
-7
-5
-1
2
6
14
19
13
2
-2
-6
-9
-11
-14
-16
-19
-23
-27
-31
-35
-40
-43
-47
-50
-53
-55
-56
-58
-60
-62
-65
-68
-71
-74
-76
-79
-81
-83
-85
-87
-88
-89
-89
-90
-92
-93
-94
-97
-100
-103
-106
-108
-108
-107
-103
-98
-93
-87
-80
-72
-62
-53
-46
-41
-37
-31
-25
-19
-12
-5
-1
1
3
6
9
12
15
17
20
22
23
24
25
26
26
26
26
26
28
30
33
37
39
41
42
42
41
40
38
37
35
33
31
30
30
30
30
29
28
28
27
27
26
26
25
24
23
23
24
25
27
28
29
30
32
35
38
40
42
45
47
50
53
55
57
58
57
52
46
38
30
19
2
-11
-22
-31
-39
-47
-51
-53
-51
-48
-45
-42
-40
-38
-36
-34
-32
-29
-26
-22
-17
-12
-4
9
30
43
53
61
67
70
72
73
74
74
74
74
74
74
74
74
75
77
78
79
79
79
80
80
81
82
83
84
86
90
93
96
95
92
88
84
81
78
75
72
69
66
63
61
59
58
55
52
49
45
38
29
17
3
-13
-32
-56
-81
-120
-161
-208
-261
-321
-387
-460
-529
-554
-546
-480
-355
-197
-37
94
184
216
227
207
173
139
119
107
99
92
87
79
68
50
31
15
8
4
1
-1
-3
-3
-3
-3
-3
-2
-1
0
3
7
11
14
18
25
31
30
25
16
2
-20
-39
-53
-61
-63
-65
-66
-67
-68
-69
-70
-71
-71
-72
-74
-75
-76
-77
-77
-78
-80
-82
-86
-89
-92
-94
-99
-105
-111
-113
-114
-115
-116
-117
-119
-120
-121
-121
-121
-121
-121
-121
-120
-118
-115
-111
-106
-98
-77
-62
-54
-48
-41
-34
-27
-20
-11
-4
1
5
7
8
9
9
9
10
10
11
11
12
12
12
11
11
11
11
10
10
10
11
12
14
14
14
15
15
17
18
19
19
20
25
29
30
26
19
16
12
10
8
7
6
5
5
6
8
11
14
16
18
20
22
23
25
26
25
22
18
14
11
8
6
4
3
2
0
0
-1
-4
-6
-9
-12
-13
-15
-16
-18
-20
-22
-24
-26
-27
-31
-35
-40
-43
-44
-42
-37
-31
-25
-19
-11
-2
5
12
19
27
36
45
54
61
69
77
83
86
88
90
91
91
92
93
94
94
94
93
93
93
93
92
90
89
87
87
87
87
85
84
82
81
80
79
77
74
71
68
65
62
58
53
48
40
31
23
17
11
2
-6
-18
-41
-72
-96
-117
-146
-190
-245
-305
-365
-426
-490
-536
-551
-525
-447
-316
-176
-43
66
142
179
192
192
179
161
137
112
88
71
58
42
35
32
29
27
25
23
20
18
16
14
11
9
7
5
3
0
-1
-5
-8
-12
-17
-22
-27
-32
-38
-42
-47
-51
-55
-59
-62
-63
-63
-61
-58
-55
-51
-47
-42
-37
-37
-42
-49
-58
-71
-87
-104
-117
-116
-116
-117
-117
-117
-117
-117
-115
-112
-110
-107
-103
-100
-105
-116
-124
-132
-138
-143
-145
-144
-139
-133
-126
-118
-106
-94
-84
-75
-66
-55
-43
-32
-22
-13
-4
1
5
9
13
17
19
20
20
18
16
14
13
12
9
7
5
4
4
3
3
4
6
9
12
16
19
21
24
27
30
32
32
31
28
25
22
20
19
17
14
11
9
7
7
7
8
11
14
18
21
24
27
31
34
36
37
36
33
30
26
23
21
19
17
15
13
11
8
6
4
1
0
-3
-5
-8
-10
-14
-17
-20
-23
-26
-29
-31
-34
-37
-39
-40
-43
-47
-53
-52
-38
-25
-13
-2
7
13
19
24
29
35
40
46
52
58
66
73
78
83
86
88
90
93
96
98
100
102
103
103
103
102
100
97
93
89
86
82
78
75
71
65
58
52
49
51
55
61
67
72
78
85
90
91
88
83
75
60
37
17
-3
-24
-45
-65
-88
-117
-143
-186
-235
-297
-370
-448
-523
-571
-587
-566
-503
-383
-239
-91
36
128
188
207
216
212
179
138
95
69
55
49
45
41
39
38
37
38
39
39
40
40
41
43
45
46
42
33
24
19
15
12
8
5
0
-3
-7
-10
-12
-14
-16
-17
-19
-21
-23
-27
-31
-35
-40
-44
-49
-52
-56
-59
-61
-62
-64
-65
-67
-69
-71
-75
-79
-83
-85
-88
-92
-96
-101
-112
-130
-132
-133
-134
-135
-135
-137
-138
-139
-140
-138
-135
-131
-126
-121
-114
-107
-93
-80
-67
-60
-56
-52
-49
-45
-41
-37
-32
-27
-20
-14
-9
-5
-3
-1
0
3
6
9
12
14
17
19
22
25
26
27
27
27
27
27
26
25
24
23
22
21
21
21
21
20
20
20
20
20
20
20
19
18
17
16
14
14
13
12
11
10
10
10
10
8
3
13
19
22
25
27
28
29
28
27
25
23
21
18
14
10
7
3
0
-5
-9
-13
-16
-19
-21
-23
-25
-25
-26
-26
-27
-29
-31
-32
-34
-35
-37
-37
-36
-34
-31
-26
-20
-14
-6
1
23
55
63
66
69
71
73
76
79
82
84
86
87
87
87
87
86
86
87
89
91
93
94
93
91
88
85
83
80
77
74
70
67
64
61
59
56
53
50
46
42
38
34
29
22
16
11
6
2
-2
-8
-19
-38
-61
-91
-125
-178
-226
-276
-328
-386
-451
-514
-557
-571
-549
-482
-359
-206
-53
72
148
175
175
157
142
128
114
101
85
66
46
37
32
28
25
23
22
21
21
20
19
17
15
14
13
12
13
13
13
12
11
10
8
7
5
2
-1
-7
-12
-17
-23
-28
-32
-35
-38
-40
-42
-45
-47
-51
-54
-57
-60
-62
-64
-66
-67
-69
-70
-70
-71
-72
-74
-78
-82
-86
-90
-93
-96
-98
-102
-105
-108
-110
-113
-117
-122
-126
-129
-129
-126
-120
-113
-104
-96
-84
-72
-63
-56
-49
-38
-22
-8
0
6
10
13
14
13
11
9
6
3
0
-3
-7
-10
-12
-10
-4
2
8
14
19
25
31
35
37
38
38
36
34
32
29
24
20
17
17
18
20
20
22
24
26
27
25
22
16
10
1
-4
2
12
17
20
23
26
28
30
32
33
33
33
33
32
30
28
25
22
19
16
12
9
5
1
-2
-6
-9
-12
-14
-17
-19
-21
-23
-26
-28
-31
-33
-36
-38
-39
-39
-37
-33
-29
-23
-17
-11
-1
9
22
35
51
68
75
79
81
83
84
86
86
87
87
88
88
89
89
88
87
86
86
85
84
82
80
78
76
75
74
72
69
67
65
64
64
64
64
64
63
63
63
63
61
60
58
57
56
56
55
53
49
44
37
1
-48
-97
-146
-197
-247
-296
-346
-374
-421
-470
-514
-529
-502
-422
-281
-121
27
139
190
207
186
163
145
133
124
114
105
93
78
63
47
35
25
20
17
14
12
10
9
8
8
9
11
13
16
20
23
25
29
33
36
35
32
26
19
5
-20
-33
-37
-41
-44
-45
-46
-47
-47
-48
-49
-50
-51
-53
-55
-58
-60
-61
-62
-62
-63
-65
-68
-71
-75
-80
-86
-93
-100
-105
-109
-112
-115
-117
-119
-123
-126
-128
-128
-127
-124
-120
-115
-110
-104
-96
-86
-78
-70
-63
-57
-51
-44
-38
-32
-27
-21
-14
-7
-1
2
5
7
8
10
12
14
15
17
18
19
20
21
21
22
22
23
25
27
29
30
31
31
31
31
29
26
23
20
16
12
9
6
2
-1
-5
-8
-10
-9
-6
-3
0
4
6
9
11
14
17
19
21
22
22
21
21
20
18
17
15
14
13
12
11
10
8
7
5
3
2
0
-2
-5
-8
-10
-12
-15
-17
-19
-22
-26
-30
-34
-37
-40
-42
-43
-43
-43
-42
-41
-38
-35
-32
-28
-23
-16
0
14
29
44
58
67
75
81
86
91
94
98
103
107
109
105
97
88
83
79
75
71
68
66
65
64
64
64
65
65
66
68
70
72
76
81
85
85
75
63
55
48
42
36
31
27
24
21
17
11
0
-17
-41
-71
-102
-125
-156
-195
-246
-305
-368
-432
-488
-514
-522
-499
-428
-308
-173
-53
45
122
166
183
183
171
153
130
92
68
61
57
53
48
44
39
35
31
27
24
22
21
20
19
18
16
14
13
13
13
12
11
10
9
8
6
4
1
-1
-4
-6
-9
-12
-15
-19
-22
-24
-26
-28
-30
-32
-35
-37
-39
-40
-42
-44
-46
-49
-52
-56
-62
-70
-84
-96
-103
-107
-111
-114
-116
-117
-117
-118
-118
-117
-116
-114
-111
-109
-106
-104
-101
-97
-92
-88
-83
-79
-73
-66
-57
-47
-39
-32
-27
-22
-17
-13
-9
-5
-2
1
5
9
12
15
17
19
21
23
25
27
29
31
34
37
40
40
37
32
26
13
0
-5
-10
0
7
12
16
18
20
20
20
19
19
20
19
18
17
16
16
16
15
15
14
14
15
16
17
19
20
22
26
29
26
19
16
13
11
10
9
8
6
4
1
0
0
-2
-4
-6
-8
-11
-14
-19
-26
-33
-42
-50
-58
-66
-73
-78
-79
-75
-69
-60
-43
-20
-8
-2
3
10
18
26
36
49
60
68
74
81
86
86
82
77
73
68
64
62
64
72
82
101
117
123
126
112
99
90
82
73
65
58
50
45
44
47
52
56
60
65
70
74
77
82
89
92
90
85
80
75
70
63
54
37
13
-7
-27
-56
-89
-125
-160
-192
-225
-268
-324
-390
-462
-531
-587
-593
-570
-461
-299
-117
41
151
198
202
175
130
103
94
91
92
95
99
103
86
60
29
14
7
2
0
-2
-3
-4
-5
-4
-2
0
3
8
13
19
30
36
32
23
13
1
-9
-22
-40
-52
-58
-62
-64
-63
-60
-56
-52
-48
-44
-41
-41
-45
-52
-60
-66
-71
-77
-82
-87
-91
-95
-99
-102
-106
-111
-115
-119
-122
-122
-120
-118
-115
-111
-105
-96
-107
-126
-143
-151
-156
-159
-160
-158
-152
-143
-130
-107
-87
-73
-60
-43
-20
-8
-4
-1
0
1
3
4
5
5
5
6
8
10
12
12
13
12
12
13
13
14
14
15
16
17
19
20
21
22
22
23
23
22
21
20
17
14
12
9
8
7
5
4
2
1
1
2
3
4
6
8
11
14
18
22
25
29
33
36
38
38
34
28
21
15
11
6
2
-1
-6
-10
-14
-17
-19
-22
-24
-26
-27
-29
-30
-32
-34
-36
-38
-40
-41
-42
-42
-42
-40
-38
-35
-31
-26
-21
-16
-8
0
6
12
16
22
34
58
77
89
97
102
107
113
121
120
103
77
53
39
30
49
67
80
90
95
98
102
108
110
104
93
85
77
69
62
56
51
47
42
37
33
31
31
33
37
42
47
52
61
67
68
61
49
29
2
-36
-80
-110
-147
-180
-229
-282
-342
-411
-480
-525
-540
-514
-436
-290
-129
15
124
159
172
177
172
160
143
116
94
78
64
57
53
49
46
44
41
39
36
33
30
27
24
21
17
15
12
10
9
9
8
8
8
8
7
5
4
1
0
-3
-6
-11
-16
-21
-26
-34
-42
-48
-52
-55
-56
-58
-59
-60
-61
-62
-63
-64
-64
-66
-68
-71
-75
-79
-82
-85
-89
-92
-96
-99
-103
-107
-112
-116
-121
-124
-126
-126
-126
-124
-122
-120
-116
-111
-105
-99
-93
-87
-76
-63
-51
-40
-30
-23
-17
-11
-5
0
4
7
9
11
13
15
16
16
15
14
14
15
15
16
16
16
16
16
16
16
15
15
15
15
15
14
13
12
11
10
10
10
10
10
10
12
13
15
16
16
17
18
19
20
20
20
20
22
25
28
30
31
29
26
23
20
18
16
14
12
10
9
8
6
3
1
-1
-4
-7
-11
-14
-17
-21
-24
-28
-31
-36
-41
-47
-52
-56
-59
-60
-60
-57
-53
-48
-41
-34
-26
-14
-1
11
23
32
38
44
49
53
57
61
64
67
70
72
74
76
78
80
82
85
87
90
93
94
95
95
95
94
94
92
90
88
87
85
84
82
80
76
70
55
49
46
41
36
44
50
54
57
59
60
58
53
45
35
16
-18
-47
-70
-96
-129
-173
-221
-260
-314
-366
-426
-491
-532
-545
-518
-436
-293
-128
31
164
241
267
249
220
181
137
94
75
67
61
55
51
46
42
39
37
35
34
32
32
32
32
32
31
29
26
23
20
17
14
11
7
4
1
-1
-4
-7
-10
-13
-18
-22
-27
-31
-36
-41
-45
-47
-49
-50
-50
-50
-50
-51
-53
-55
-58
-62
-66
-70
-75
-79
-84
-89
-93
-97
-100
-103
-107
-111
-116
-121
-126
-130
-132
-132
-133
-132
-131
-130
-127
-123
-117
-109
-100
-89
-80
-74
-68
-63
-57
-50
-43
-36
-26
-14
-4
1
6
11
16
21
24
22
17
12
8
3
0
-4
-6
-4
0
4
9
13
18
23
28
32
32
30
26
21
18
15
10
4
-1
-5
-6
-5
-3
-1
0
0
1
4
6
8
10
11
12
13
14
14
13
11
9
9
9
10
10
11
11
12
13
13
13
12
11
9
8
6
5
3
1
0
-1
-2
-4
-6
-8
-11
-15
-19
-24
-28
-33
-37
-39
-40
-39
-37
-34
-31
-27
-23
-18
-11
-1
11
25
34
43
50
57
62
67
71
73
75
78
80
84
87
90
93
96
98
101
103
105
106
107
108
110
113
120
125
125
115
101
91
79
69
64
65
69
74
77
80
83
86
88
90
91
92
91
90
87
83
78
68
44
17
-11
-42
-72
-100
-126
-147
-163
-182
-228
-290
-368
-460
-546
-583
-576
-506
-362
-173
13
155
220
242
223
193
154
118
94
88
86
84
83
81
79
76
71
66
61
56
53
51
49
47
45
43
40
36
32
28
25
22
19
16
13
10
7
5
2
0
-1
-4
-7
-10
-12
-15
-18
-20
-23
-26
-28
-30
-32
-35
-37
-41
-45
-53
-72
-82
-87
-90
-94
-97
-99
-101
-102
-103
-103
-104
-104
-104
-104
-105
-108
-112
-113
-110
-106
-105
-104
-103
-102
-100
-98
-94
-90
-86
-83
-79
-74
-69
-60
-50
-40
-31
-26
-21
-17
-13
-10
-8
-7
-6
-5
-3
-1
0
2
3
4
6
7
8
10
10
11
11
12
15
19
21
22
22
21
20
18
16
14
12
10
8
6
5
4
3
3
2
2
2
2
2
1
0
0
0
0
0
0
0
0
0
-2
-5
6
16
21
25
28
29
27
24
19
12
0
-21
-27
-30
-33
-36
-38
-41
-42
-43
-44
-44
-45
-45
-44
-43
-42
-41
-39
-38
-36
-33
-28
-23
-18
-9
17
38
52
61
68
71
73
74
75
76
78
78
79
79
80
80
81
82
82
83
83
84
86
88
89
91
94
96
98
101
108
114
116
113
106
97
85
68
57
52
48
46
43
41
39
36
33
30
28
25
22
18
11
-4
-24
-51
-82
-130
-182
-240
-298
-359
-425
-492
-508
-512
-497
-414
-279
-113
39
148
201
219
206
183
157
137
122
108
99
93
89
84
78
71
64
56
43
25
18
16
16
15
15
14
13
11
9
6
2
-2
-7
-12
-15
-19
-23
-28
-32
-36
-39
-41
-42
-44
-45
-46
-47
-48
-48
-49
-50
-52
-52
-54
-55
-57
-60
-63
-67
-70
-74
-80
-88
-105
-115
-120
-123
-125
-127
-129
-131
-133
-135
-136
-136
-136
-135
-134
-133
-130
-127
-125
-122
-119
-116
-112
-108
-101
-93
-85
-79
-74
-68
-61
-51
-40
-28
-19
-11
-5
-2
-4
-10
-16
-22
-31
-36
-32
-23
-8
13
27
35
40
40
33
25
22
19
16
14
11
9
6
4
1
0
-1
-1
-1
0
0
0
0
-1
-4
-7
-8
-6
-4
-2
0
2
4
5
6
6
6
5
4
2
-1
4
8
10
12
14
15
15
16
15
14
12
9
4
0
-7
-15
-32
-38
-40
-42
-45
-46
-42
-32
-24
-14
-10
-14
-21
-26
-31
-35
-36
-34
-27
-19
-8
7
23
35
45
54
64
73
80
86
91
95
97
98
98
97
98
98
99
102
103
99
90
83
77
71
67
65
65
65
67
69
71
75
74
63
53
43
39
45
57
65
72
77
81
82
81
78
74
68
60
46
33
14
-11
-42
-69
-112
-157
-203
-250
-297
-345
-396
-450
-490
-504
-488
-436
-332
-203
-65
46
89
101
109
114
117
118
117
113
108
100
85
58
47
41
36
32
30
28
26
24
23
23
23
24
24
25
25
25
24
24
25
25
26
30
28
12
-6
-25
-33
-36
-38
-39
-40
-41
-41
-41
-41
-40
-40
-41
-42
-44
-47
-49
-51
-53
-55
-57
-60
-63
-65
-68
-70
-73
-77
-82
-86
-90
-93
-96
-98
-101
-103
-105
-106
-107
-109
-110
-112
-114
-116
-116
-116
-115
-112
-108
-103
-95
-86
-73
-49
-27
-17
-12
-8
-4
0
2
4
7
10
12
14
17
18
20
20
21
22
22
23
24
26
28
29
30
31
31
30
29
28
26
24
21
19
16
14
13
12
11
11
11
10
10
9
9
9
9
10
11
11
12
13
13
14
14
14
14
14
14
13
12
11
9
6
4
1
0
-2
-5
-7
-9
-10
-11
-11
-12
-14
-17
-21
-26
-30
-34
-37
-40
-41
-41
-40
-38
-35
-32
-29
-26
-23
-20
-16
-12
-5
11
28
39
47
54
63
72
80
87
93
100
106
110
112
109
103
96
89
83
74
65
61
64
71
80
89
101
110
115
121
129
133
128
119
113
109
105
102
99
96
93
88
84
79
75
70
65
59
51
44
37
30
21
2
-26
-53
-82
-113
-142
-190
-239
-295
-356
-425
-497
-548
-548
-501
-386
-249
-113
3
85
124
137
144
143
131
116
101
85
73
70
71
73
73
74
75
74
68
58
49
45
43
41
37
34
31
29
27
25
23
20
17
15
13
11
9
5
2
0
-3
-6
-13
-22
-28
-31
-32
-33
-34
-35
-36
-38
-40
-41
-42
-45
-48
-52
-56
-59
-61
-63
-66
-69
-73
-78
-82
-86
-90
-95
-99
-104
-108
-114
-120
-126
-129
-130
-131
-131
-131
-130
-128
-127
-113
-99
-89
-79
-71
-60
-48
-38
-32
-28
-25
-22
-17
-12
-6
-2
1
5
10
14
16
16
14
11
8
5
2
-2
-8
-11
-7
0
9
16
26
34
34
26
18
12
5
0
-4
-4
-2
0
3
7
12
15
15
9
0
-11
-26
-32
-38
-44
-26
-3
15
21
25
29
32
33
29
20
12
7
4
1
0
-3
-6
-8
-10
-12
-14
-16
-19
-20
-20
-20
-21
-22
-24
-26
-28
-31
-34
-40
-54
-66
-75
-82
-86
-88
-85
-78
-69
-58
-41
-25
-10
0
10
17
24
30
37
48
58
64
69
73
77
80
82
82
82
81
80
79
78
76
73
69
67
67
69
71
74
77
79
82
85
86
82
76
69
64
59
54
50
47
45
43
42
41
41
39
36
37
41
46
51
50
37
17
-4
-35
-69
-107
-148
-188
-228
-272
-327
-395
-473
-550
-591
-589
-532
-413
-259
-91
56
150
161
164
165
164
161
155
145
128
95
57
46
44
42
42
42
42
42
42
40
39
37
35
34
33
31
29
26
19
6
0
-6
-11
-15
-15
-11
-4
0
6
11
14
10
2
-6
-15
-29
-37
-35
-31
-29
-27
-24
-23
-22
-24
-29
-35
-41
-45
-50
-55
-60
-66
-71
-77
-82
-87
-92
-96
-100
-104
-108
-111
-113
-116
-117
-118
-117
-116
-112
-108
-103
-98
-93
-87
-76
-63
-52
-42
-35
-28
-22
-16
-9
-3
1
4
6
7
9
10
12
13
14
16
18
20
20
21
21
20
20
20
20
19
19
19
19
20
19
18
16
15
13
12
9
7
4
3
2
1
0
-3
-9
-13
-13
-8
-1
4
8
11
15
18
22
24
26
26
22
17
11
4
-1
-5
-9
-13
-17
-21
-24
-27
-30
-32
-34
-36
-38
-40
-41
-41
-41
-40
-40
-40
-40
-41
-41
-40
-39
-39
-38
-38
-38
-37
-37
-36
-35
-35
-35
-29
-16
-1
15
37
52
62
71
76
78
79
79
80
80
81
82
83
81
77
72
67
64
61
57
54
52
51
50
52
55
59
64
70
76
81
89
96
103
105
104
99
92
84
73
57
46
37
30
26
21
17
11
5
-2
-12
-34
-67
-94
-126
-165
-198
-244
-289
-342
-406
-473
-494
-481
-443
-329
-178
-20
106
147
161
169
171
169
163
153
134
103
86
78
73
69
65
63
61
59
57
55
54
53
52
51
50
48
46
43
38
32
27
22
18
15
12
8
5
2
0
-1
-3
-6
-9
-12
-14
-16
-17
-19
-21
-23
-25
-27
-29
-32
-40
-49
-56
-63
-68
-71
-74
-77
-79
-81
-82
-84
-86
-89
-91
-92
-94
-96
-99
-102
-104
-107
-109
-113
-117
-122
-124
-124
-119
-113
-106
-99
-93
-85
-75
-67
-60
-55
-49
-43
-36
-29
-20
-10
-1
5
14
22
28
30
29
27
25
23
22
20
18
16
12
10
7
5
3
1
0
0
0
1
1
2
1
0
0
-1
-2
-3
-4
-5
-4
-3
-1
0
1
2
3
4
5
6
6
5
6
7
8
10
11
11
9
7
4
2
0
0
-1
-3
-3
-4
-5
-6
-7
-8
-9
-10
-11
-13
-15
-18
-22
-25
-30
-39
-45
-49
-53
-57
-61
-62
-58
-50
-41
-33
-25
-17
-8
0
9
17
24
30
36
42
48
54
58
61
65
68
72
75
77
78
79
80
82
84
85
87
87
88
89
91
93
95
95
94
93
91
89
85
82
78
74
71
70
69
68
66
63
59
57
54
50
48
45
43
41
38
34
29
15
-17
-52
-82
-126
-164
-204
-243
-283
-327
-379
-438
-499
-540
-554
-524
-435
-278
-101
64
187
228
242
224
172
119
89
82
78
75
72
69
66
61
57
53
49
44
40
33
26
20
15
10
6
2
-1
-4
-7
-7
-5
0
4
10
16
25
32
33
26
18
10
2
-4
-10
-17
-23
-27
-30
-33
-36
-39
-42
-44
-47
-50
-53
-57
-61
-65
-68
-70
-73
-75
-77
-80
-83
-86
-89
-90
-93
-95
-97
-98
-99
-99
-99
-100
-100
-101
-102
-102
-105
-111
-111
-102
-93
-84
-75
-67
-59
-52
-45
-37
-29
-18
-2
6
11
16
20
23
24
24
23
21
19
17
15
10
7
10
15
17
19
20
22
23
23
24
24
25
25
24
23
21
19
16
14
9
6
9
16
24
33
33
23
15
8
1
-5
-13
-22
-34
-34
-24
-11
6
15
20
24
27
29
29
27
25
23
20
18
16
13
9
4
0
-5
-10
-15
-21
-25
-29
-32
-35
-38
-41
-44
-46
-48
-49
-50
-51
-51
-53
-54
-56
-56
-57
-56
-54
-51
-46
-37
-21
-4
13
28
39
49
62
79
87
91
94
96
96
94
90
85
81
79
76
73
70
67
65
63
61
60
59
59
60
60
61
62
63
65
66
68
69
70
72
78
78
68
54
35
25
21
18
15
12
8
5
1
-3
-14
-32
-60
-89
-125
-165
-209
-257
-309
-364
-425
-488
-532
-546
-526
-467
-356
-215
-74
33
108
164
184
192
192
181
164
142
104
59
26
14
13
21
27
32
36
38
36
31
27
24
21
19
16
14
12
9
7
4
2
1
0
0
0
0
-1
-2
-4
-5
-6
-8
-10
-12
-14
-16
-17
-18
-19
-21
-24
-26
-32
-46
-55
-59
-62
-64
-66
-68
-69
-70
-72
-74
-76
-78
-81
-82
-84
-87
-91
-99
-105
-109
-112
-116
-120
-123
-123
-116
-107
-97
-85
-75
-65
-58
-52
-46
-41
-35
-31
-28
-25
-23
-21
-18
-16
-14
-11
-8
-5
-2
0
4
8
14
25
34
41
46
52
56
57
54
46
37
32
27
22
19
16
13
12
11
11
11
12
14
16
18
19
20
21
22
23
24
26
27
29
31
32
32
31
30
29
28
27
26
25
24
23
23
23
23
22
21
19
17
15
13
10
5
1
-1
-4
-6
-8
-10
-13
-16
-19
-21
-23
-25
-27
-28
-28
-27
-25
-23
-20
-18
-16
-13
-11
-8
-6
0
7
16
25
37
52
69
77
82
87
90
92
92
93
93
92
91
90
88
85
83
81
79
77
76
74
73
73
73
73
73
72
71
70
69
69
69
68
67
65
64
63
62
60
59
56
53
48
43
39
34
29
22
9
-14
-41
-64
-84
-103
-133
-171
-219
-275
-336
-405
-481
-534
-551
-526
-449
-310
-145
7
122
166
182
181
169
160
154
146
136
122
97
65
53
46
41
37
35
32
30
27
25
23
21
19
18
16
14
11
8
4
1
-1
-5
-8
-12
-15
-17
-19
-20
-22
-23
-25
-28
-30
-32
-35
-38
-41
-45
-48
-50
-52
-54
-57
-59
-62
-65
-68
-73
-79
-84
-89
-93
-96
-97
-98
-99
-100
-101
-101
-101
-101
-101
-102
-103
-105
-106
-107
-108
-108
-108
-108
-107
-105
-102
-99
-96
-92
-89
-80
-59
-43
-30
-16
0
13
19
23
28
27
23
18
13
12
13
14
15
16
16
17
17
18
20
22
24
26
28
31
37
41
37
27
14
0
-4
-8
-12
2
18
30
36
39
42
46
45
32
12
-10
-24
-34
-38
-34
-26
-13
8
23
31
38
42
43
42
40
36
32
27
22
17
11
4
-2
-11
-23
-34
-40
-45
-49
-51
-50
-48
-45
-43
-42
-42
-41
-40
-39
-38
-37
-35
-34
-32
-30
-29
-28
-27
-26
-23
-18
-5
5
16
27
40
50
58
66
77
87
94
101
108
114
116
115
112
107
100
87
74
67
63
68
75
81
81
76
73
70
67
66
66
69
73
76
80
85
91
91
85
77
71
66
62
59
55
51
48
46
43
39
30
11
-12
-35
-57
-78
-114
-162
-222
-287
-356
-434
-512
-568
-572
-535
-421
-274
-122
14
119
158
171
155
134
119
130
148
164
176
174
143
98
52
32
25
21
19
18
17
15
14
13
12
11
10
8
7
7
6
5
3
2
0
-2
-3
-5
-7
-9
-11
-13
-15
-18
-21
-24
-28
-33
-38
-45
-56
-62
-60
-54
-50
-46
-42
-42
-48
-56
-66
-79
-83
-86
-89
-92
-93
-92
-89
-85
-81
-75
-77
-89
-99
-107
-113
-114
-114
-114
-114
-114
-115
-115
-115
-114
-112
-107
-101
-93
-85
-66
-36
-18
-7
1
6
12
18
22
21
20
21
21
20
20
19
19
18
18
18
18
18
18
19
19
19
19
18
18
18
17
17
16
16
16
15
15
16
17
18
18
18
17
15
15
14
14
14
13
12
12
12
12
13
12
9
4
0
-1
0
1
4
7
10
14
20
24
26
23
19
14
11
9
7
5
1
-3
-8
-12
-16
-19
-22
-27
-35
-41
-43
-44
-45
-46
-49
-51
-52
-49
-41
-31
-23
-14
-5
3
11
19
28
37
45
54
62
67
70
73
75
77
79
81
83
84
85
84
84
83
82
80
79
78
78
78
78
78
77
76
75
74
71
68
68
71
77
82
89
95
95
87
76
69
64
59
54
49
44
41
38
34
30
19
-4
-33
-65
-99
-134
-171
-203
-249
-297
-354
-413
-471
-509
-522
-506
-459
-358
-223
-81
44
136
172
185
183
168
147
120
102
92
83
76
71
68
64
61
57
54
50
45
40
35
30
27
25
23
22
20
18
15
13
10
6
2
-1
-4
-6
-8
-9
-10
-11
-11
-12
-13
-17
-23
-28
-31
-33
-33
-33
-33
-33
-32
-31
-30
-36
-48
-59
-71
-79
-86
-89
-92
-95
-98
-101
-103
-104
-106
-108
-110
-111
-111
-111
-111
-110
-109
-108
-107
-105
-103
-101
-99
-96
-92
-88
-84
-79
-72
-64
-56
-49
-42
-35
-29
-24
-19
-15
-11
-7
-3
0
3
4
6
7
8
10
11
12
13
16
20
24
28
28
25
20
13
7
3
0
-4
-9
-13
-15
-15
-12
-8
-3
0
3
6
11
16
21
24
24
22
19
15
12
10
6
3
0
-3
-4
-2
0
4
9
13
17
23
29
35
39
40
38
33
27
20
14
7
0
-7
-15
-22
-29
-36
-43
-51
-60
-70
-80
-87
-87
-82
-75
-67
-62
-57
-53
-48
-43
-37
-30
-22
-14
-5
2
10
16
22
28
34
39
44
48
53
58
61
64
66
67
68
68
69
71
72
73
74
76
77
78
78
78
77
76
75
73
71
69
67
64
62
60
58
56
54
51
48
46
43
41
39
37
35
33
30
27
24
16
-1
-18
-40
-70
-102
-135
-194
-260
-333
-412
-493
-567
-592
-580
-548
-436
-294
-154
-40
40
93
125
159
186
206
219
200
144
81
48
36
32
30
28
28
27
27
27
27
26
24
21
18
14
10
6
1
-2
-6
-8
-9
-10
-11
-12
-13
-15
-18
-21
-24
-29
-33
-37
-39
-40
-41
-42
-42
-42
-42
-42
-43
-44
-46
-49
-52
-54
-56
-58
-60
-63
-65
-68
-72
-77
-82
-88
-93
-97
-100
-102
-104
-105
-106
-107
-108
-109
-110
-111
-113
-114
-115
-114
-113
-111
-107
-101
-94
-83
-64
-43
-27
-16
-8
0
7
12
15
16
18
21
23
26
27
29
29
29
29
28
26
24
21
20
19
18
18
18
17
17
18
18
18
18
17
16
15
15
15
16
17
19
20
22
23
23
22
21
21
20
20
21
23
24
24
21
19
18
18
17
16
14
12
10
8
5
3
0
-2
-5
-7
-9
-12
-16
-21
-26
-30
-34
-38
-41
-44
-46
-48
-50
-51
-54
-57
-60
-63
-65
-64
-61
-57
-51
-46
-41
-35
-30
-24
-17
-10
-2
5
15
27
46
58
66
72
79
85
88
87
83
80
78
77
75
74
73
71
69
68
67
66
66
66
67
68
69
70
71
71
70
70
71
72
72
72
71
70
70
69
69
68
66
64
61
58
54
41
11
-15
-47
-83
-118
-145
-166
-187
-215
-251
-314
-381
-449
-494
-509
-489
-426
-312
-179
-52
55
124
149
149
134
112
92
86
84
84
83
83
82
79
76
72
67
63
60
57
54
50
47
44
42
39
36
32
28
23
18
13
7
2
-2
-5
-8
-11
-13
-16
-20
-24
-29
-33
-37
-41
-46
-49
-52
-54
-55
-56
-57
-59
-61
-62
-63
-65
-67
-69
-73
-76
-78
-81
-84
-87
-91
-95
-99
-105
-116
-126
-132
-135
-138
-141
-145
-148
-142
-130
-123
-118
-113
-108
-103
-98
-94
-89
-83
-75
-58
-29
-15
-8
-2
1
2
1
-1
-4
-7
-10
-13
-17
-20
-22
-21
-16
-10
-4
0
5
11
17
22
24
23
21
19
17
16
15
13
10
7
5
3
3
2
2
3
4
5
6
7
6
3
0
0
3
8
11
13
15
17
20
23
25
26
26
25
22
18
13
8
3
-1
-6
-10
-12
-15
-17
-20
-24
-27
-31
-34
-38
-41
-44
-46
-46
-46
-45
-43
-41
-39
-37
-35
-32
-28
-24
-19
-15
-10
-1
21
37
52
65
70
72
75
78
80
80
78
76
73
71
78
90
99
106
112
115
115
111
107
102
99
96
92
89
86
84
82
81
80
80
80
81
83
84
85
87
88
89
91
93
96
97
98
97
92
87
79
68
48
32
10
-19
-52
-86
-123
-153
-195
-239
-288
-339
-395
-452
-486
-498
-474
-399
-272
-121
21
132
187
205
182
161
148
138
130
124
118
104
79
64
55
48
44
44
48
54
59
63
70
76
79
77
70
59
44
25
20
16
11
11
19
26
34
39
30
14
4
-3
-9
-14
-19
-24
-29
-34
-38
-42
-45
-50
-55
-61
-66
-68
-66
-63
-59
-55
-51
-45
-41
-49
-63
-71
-78
-83
-88
-93
-97
-101
-105
-109
-112
-115
-119
-123
-127
-129
-128
-125
-119
-112
-105
-98
-88
-78
-69
-60
-53
-48
-44
-39
-33
-28
-23
-18
-14
-7
2
11
15
19
23
29
32
29
22
17
13
8
4
4
7
12
17
24
34
40
33
22
17
13
9
6
3
1
0
0
-1
0
0
1
3
5
8
11
13
16
21
26
28
24
15
7
1
-2
-6
-10
-13
-16
-17
-18
-16
-14
-11
-7
-4
0
6
13
13
8
0
-10
-24
-39
-48
-54
-60
-64
-67
-67
-63
-58
-51
-45
-39
-30
-22
-17
-15
-13
-12
-10
-6
-12
-20
-27
-14
7
32
50
64
81
92
100
106
111
115
117
119
120
122
125
128
130
127
119
107
86
61
51
44
39
38
44
52
58
64
70
72
70
64
59
55
51
47
43
41
40
41
44
46
49
53
59
63
60
50
22
-17
-62
-103
-141
-179
-220
-251
-317
-384
-434
-451
-432
-375
-250
