171,185,194,198,194,183,172,166,162,157,153,149,145,142,139,136,134,133,135,138,141,144,147,149,150,151,152,153,153,153,153,153,154,155,156,156,156,157,158,158,158,157,155,152,149,145,141,137,131,127,123,120,118,116,113,111,110,109,107,105,103,101,99,97,95,94,94,93,93,93,94,94,93,92,90,89,88,87,87,87,86,86,86,86,87,88,89,89,88,89,89,89,88,88,88,88,87,85,83,81,79,77,75,74,74,72,71,70,69,68,67,66,64,62,60,58,57,56,56,57,57,57,57,56,55,54,53,52,52,51,50,48,48,47,47,46,46,45,46,46,46,48,50,52,55,57,60,62,63,63,64,64,65,66,67,68,68,70,70,71,70,70,69,67,64,62,60,58,56,54,53,52,52,51,51,51,51,50,48,47,46,45,45,47,49,54,59,64,69,74,79,83,86,89,91,94,96,98,101,104,107,110,111,112,114,115,117,119,122,127,138,151,168,220,306,412,528,648,761,850,892,905,882,812,701,571,438,317,218,144,94,80,70,59,50,41,27,8,-3,-9,-15,-20,-22,-20,-15,-8,-3,0,1,2,3,4,5,6,7,8,8,9,9,9,10,12,13,14,15,15,16,17,19,20,21,22,23,24,26,27,28,28,29,29,30,30,30,31,31,33,35,37,39,41,42,45,51,57,63,67,67,66,62,58,52,41,16,-6,-22,-40,-48,-54,-59,-63,-66,-67,-68,-68,-68,-67,-65,-63,-60,-57,-53,-50,-47,-45,-42,-38,-35,-32,-30,-29,-29,-31,-34,-38,-43,-49,-56,-64,-79,-91,-103,-108,-112,-116,-118,-121,-125,-128,-131,-133,-134,-135,-135,-134,-132,-132,-130,-129,-127,-126,-125,-124,-124,-122,-121,-119,-116,-113,-109,-106,-102,-99,-96,-95,-94,-93,-92,-90,-89,-88,-87,-86,-85,-83,-82,-80,-80,-79,-79,-78,-77,-75,-73,-71,-69,-67,-64,-61,-60,-58,-57,-55,-54,-53,-52,-50,-49,-47,-46,-45,-44,-43,-42,-42,-42,-41,-41,-40,-38,-37,-35,-33,-32,-31,-29,-28,-26,-25,-25,-24,-23,-21,-20,-20,-20,-19,-19,-19,-20,-20,-20,-21,-21,-21,-22,-22,-24,-25,-27,-28,-29,-30,-32,-32,-32,-31,-30,-29,-29,-28,-27,-28,-28,-28,-28,-27,-26,-25,-23,-21,-19,-18,-16,-14,-12,-11,-12,-11,-11,-10,-10,-10,-11,-12,-12,-14,-15,-16,-18,-19,-21,-22,-23,-24,-25,-26,-25,-24,-23,-23,-23,-23,-23,-23,-23,-25,-27,-29,-31,-33,-34,-35,-36,-39,-42,-45,-49,-53,-58,-62,-67,-69,-71,-73,-74,-75,-75,-76,-77,-79,-81,-83,-85,-87,-89,-90,-91,-93,-95,-98,-100,-103,-106,-109,-111,-112,-113,-115,-116,-117,-118,-118,-120,-121,-121,-122,-122,-123,-124,-125,-125,-125,-125,-124,-123,-123,-123,-123,-122,-121,-119,-119,-118,-118,-117,-115,-114,-112,-110,-107,-103,-100,-97,-93,-90,-87,-85,-82,-79,-75,-71,-58,-30,16,79,164,273,400,534,669,800,882,910,877,775,585,351,120,-41,-88,-103,-97,-94,-93,-92,-91,-89,-89,-89,-89,-88,-88,-89,-91,-94,-96,-90,-78,-71,-67,-63,-61,-58,-55,-51,-48,-45,-43,-41,-38,-35,-32,-29,-27,-25,-23,-21,-19,-17,-15,-13,-10,-8,-5,-3,-1,1,4,7,11,13,16,18,22,27,33,38,44,48,52,57,62,68,75,83,92,100,107,113,118,123,127,131,136,141,146,151,157,164,171,181,190,194,196,198,200,202,204,205,207,208,208,208,208,208,207,205,203,200,197,193,189,184,177,168,159,149,136,119,102,87,75,64,53,50,48,46,45,43,42,41,40,39,38,38,38,38,39,39,39,39,39,39,39,38,38,38,38,37,37,38,38,38,38,38,38,38,37,37,36,35,34,34,33,33,32,31,31,31,31,32,32,32,32,33,34,35,36,35,35,34,34,34,33,33,33,34,34,35,36,31,25,22,20,18,16,14,11,9,7,5,4,3,1,0,0,0,0,-1,-2,-4,-6,-7,-9,-10,-11,-13,-14,-14,-14,-13,-14,-14,-15,-15,-15,-14,-14,-15,-16,-16,-16,-15,-15,-14,-15,-15,-15,-14,-13,-12,-12,-12,-12,-12,-12,-11,-11,-11,-12,-12,-12,-12,-12,-12,-13,-13,-13,-13,-13,-13,-13,-14,-14,-15,-15,-14,-14,-14,-14,-13,-13,-11,-10,-8,-6,-4,-1,0,3,7,11,15,18,21,23,25,27,29,31,33,36,38,40,43,46,49,52,55,57,59,62,64,67,69,73,77,81,85,88,90,91,90,87,83,78,72,66,60,56,51,47,43,39,35,31,28,25,23,20,18,15,14,12,12,11,10,8,7,5,4,2,0,0,-1,-1,0,1,4,7,10,12,15,18,21,24,25,25,24,24,26,27,28,29,30,30,31,33,36,39,42,58,113,198,313,453,602,747,869,952,961,914,755,533,298,90,-55,-113,-133,-125,-118,-114,-111,-110,-114,-120,-127,-130,-133,-135,-137,-139,-141,-144,-146,-147,-148,-148,-148,-148,-147,-146,-145,-145,-143,-142,-139,-137,-135,-133,-130,-128,-125,-123,-121,-120,-118,-117,-116,-114,-112,-110,-108,-107,-104,-102,-99,-97,-95,-94,-92,-90,-88,-84,-80,-76,-71,-65,-59,-53,-49,-45,-42,-39,-36,-34,-31,-29,-28,-25,-22,-19,-17,-14,-10,-5,0,15,45,63,73,80,86,91,95,97,99,100,102,103,104,106,106,107,106,106,106,106,104,102,99,97,94,92,90,87,82,78,73,69,65,60,55,48,35,20,13,9,6,3,0,0,-2,-4,-5,-5,-4,-3,-2,-1,0,2,4,7,9,10,11,12,14,16,18,19,20,20,20,20,20,21,20,19,19,18,18,17,17,16,15,14,14,15,16,17,20,23,27,30,33,36,39,41,42,43,44,44,44,43,43,42,42,41,41,41,40,39,38,38,38,39,41,44,46,48,49,52,54,55,57,59,60,62,64,64,64,64,62,61,60,59,59,59,58,59,59,60,60,60,59,58,57,56,56,55,55,54,54,54,55,55,51,45,42,40,38,37,36,35,34,33,32,30,28,27,25,23,21,19,17,14,12,9,7,5,2,-1,-4,-7,-10,-13,-15,-18,-20,-22,-24,-27,-30,-36,-42,-50,-58,-62,-64,-66,-67,-69,-71,-72,-73,-74,-76,-77,-79,-80,-81,-81,-82,-82,-82,-82,-81,-81,-81,-82,-84,-86,-88,-88,-86,-82,-80,-78,-77,-76,-74,-73,-71,-70,-69,-69,-70,-70,-71,-73,-74,-76,-77,-79,-81,-83,-84,-85,-86,-87,-88,-88,-88,-88,-88,-88,-88,-88,-88,-87,-87,-86,-86,-86,-87,-86,-86,-85,-84,-84,-84,-84,-83,-83,-82,-81,-81,-80,-80,-79,-78,-77,-76,-75,-73,-71,-67,-56,-46,-24,15,74,154,257,384,525,676,817,906,915,873,740,551,329,119,-28,-75,-91,-71,-48,-29,-29,-44,-69,-85,-88,-90,-91,-91,-92,-92,-92,-93,-93,-93,-91,-89,-86,-83,-81,-79,-78,-77,-76,-75,-74,-74,-73,-71,-70,-69,-67,-66,-66,-65,-65,-65,-65,-65,-64,-64,-63,-62,-61,-59,-58,-56,-54,-53,-51,-49,-45,-39,-35,-32,-29,-26,-23,-21,-18,-16,-15,-13,-11,-9,-6,-3,0,1,5,8,13,18,23,28,34,43,57,69,79,88,93,94,94,95,96,97,99,99,99,98,95,93,90,88,86,83,81,79,77,75,74,71,67,62,53,33,15,3,-9,-20,-29,-36,-42,-46,-49,-52,-54,-55,-56,-56,-57,-57,-58,-58,-57,-57,-58,-59,-59,-59,-59,-57,-55,-53,-53,-53,-52,-51,-50,-50,-50,-51,-51,-51,-51,-51,-51,-51,-51,-51,-51,-51,-51,-51,-50,-50,-49,-48,-47,-46,-45,-43,-41,-40,-38,-36,-34,-32,-30,-28,-26,-25,-25,-26,-27,-29,-31,-33,-34,-36,-38,-40,-42,-44,-43,-42,-39,-37,-34,-31,-27,-24,-21,-19,-17,-17,-16,-16,-16,-16,-16,-15,-14,-13,-13,-15,-15,-16,-17,-17,-17,-17,-18,-19,-20,-19,-18,-17,-16,-14,-13,-12,-10,-8,-7,-6,-6,-5,-3,-1,0,1,2,3,4,4,5,5,5,5,6,8,11,13,14,14,13,12,11,8,4,4,6,7,7,8,9,10,10,10,11,11,12,12,12,11,10,9,9,9,9,9,10,11,11,12,12,13,13,12,12,12,12,12,12,12,13,14,15,15,16,17,17,19,22,24,26,28,30,32,33,32,30,27,23,20,18,16,14,12,11,10,8,7,6,5,4,3,2,2,2,2,2,2,2,2,2,2,2,2,1,1,0,-1,-2,-4,-6,-8,-10,-12,-14,-15,-15,-11,-8,-4,-3,0,1,4,6,8,10,11,12,13,15,17,25,64,123,208,323,467,630,792,920,968,963,884,728,516,289,98,-17,-42,-50,-54,-59,-65,-70,-75,-80,-84,-87,-90,-92,-94,-96,-99,-101,-103,-103,-103,-103,-104,-105,-105,-105,-105,-105,-96,-91,-89,-87,-85,-84,-84,-84,-83,-82,-81,-81,-80,-80,-79,-78,-77,-76,-74,-73,-72,-72,-71,-70,-69,-68,-67,-65,-63,-60,-57,-54,-50,-45,-41,-36,-32,-26,-21,-16,-12,-8,-5,-2,1,5,10,15,21,28,39,53,61,65,67,69,71,73,75,78,80,82,85,88,93,100,105,109,112,114,116,117,117,112,106,100,94,89,84,78,73,69,65,59,51,38,23,13,5,-1,-5,-8,-10,-12,-14,-16,-17,-18,-19,-20,-18,-16,-14,-12,-9,-5,1,13,27,46,70,85,92,98,103,108,112,115,119,123,132,146,155,159,162,164,167,168,170,171,171,171,169,167,165,162,159,155,152,149,146,144,141,138,134,130,127,124,121,119,117,115,112,107,98,93,89,86,84,89,99,104,109,113,117,120,121,120,119,116,113,110,107,103,99,93,88,82,76,69,62,54,48,42,36,32,27,23,20,17,14,11,8,5,1,-2,-6,-10,-14,-19,-24,-30,-34,-37,-39,-41,-43,-44,-45,-46,-46,-47,-48,-50,-52,-53,-54,-55,-57,-59,-61,-63,-65,-66,-70,-77,-83,-85,-87,-88,-89,-90,-92,-94,-95,-94,-93,-91,-90,-89,-87,-85,-84,-83,-82,-82,-82,-84,-86,-89,-91,-94,-96,-98,-99,-101,-102,-103,-104,-105,-106,-106,-106,-105,-104,-102,-99,-96,-94,-90,-86,-80,-75,-69,-64,-60,-54,-49,-46,-49,-54,-60,-63,-66,-68,-71,-74,-77,-79,-81,-83,-84,-84,-84,-83,-82,-81,-78,-76,-74,-72,-71,-69,-67,-65,-63,-60,-56,-52,-49,-45,-41,-36,-32,-28,-23,-18,-14,-10,-7,-2,4,17,32,40,46,50,53,56,59,62,64,67,72,83,105,145,197,263,347,460,600,762,925,1052,1094,1082,980,792,552,313,128,52,24,22,35,56,67,69,70,68,57,50,47,44,43,41,40,39,38,37,36,37,38,39,42,44,48,54,53,41,34,29,24,20,17,16,17,19,21,24,27,33,34,32,30,29,28,27,27,26,27,29,32,36,40,44,49,55,60,66,70,74,77,79,81,84,86,89,91,93,95,97,99,102,105,107,111,117,123,129,136,142,146,149,152,156,159,161,163,165,166,168,169,171,173,175,178,182,185,186,183,177,169,159,143,128,117,108,99,88,77,61,42,28,16,5,-3,-12,-17,-21,-25,-29,-33,-38,-44,-49,-53,-56,-59,-62,-65,-67,-69,-71,-72,-74,-75,-74,-73,-72,-71,-71,-71,-71,-70,-70,-69,-69,-70,-70,-69,-68,-68,-68,-68,-69,-70,-70,-70,-70,-70,-71,-72,-72,-72,-71,-70,-69,-69,-68,-68,-66,-64,-63,-63,-63,-63,-63,-62,-62,-62,-62,-63,-64,-64,-64,-63,-63,-63,-64,-64,-63,-63,-63,-63,-63,-63,-63,-63,-63,-63,-64,-66,-67,-68,-69,-70,-71,-72,-73,-74,-74,-74,-75,-76,-79,-82,-85,-87,-87,-88,-88,-87,-85,-83,-79,-75,-72,-70,-69,-68,-67,-65,-64,-62,-61,-60,-58,-56,-53,-50,-49,-48,-47,-45,-44,-42,-41,-40,-39,-39,-38,-37,-35,-34,-33,-32,-32,-31,-31,-31,-31,-31,-32,-32,-32,-31,-31,-31,-30,-28,-26,-23,-20,-18,-16,-15,-13,-12,-10,-9,-6,-3,0,2,6,10,13,15,17,17,18,18,17,17,16,16,16,16,17,17,18,18,19,19,19,19,19,19,19,18,18,17,16,16,15,15,14,13,13,13,14,14,16,17,18,19,20,20,20,21,21,20,20,20,22,24,27,29,30,30,30,30,30,29,28,27,26,25,25,27,31,36,43,57,79,109,157,228,319,428,557,699,843,966,1016,1006,904,698,445,207,38,-22,-42,-22,1,21,21,9,1,-4,-9,-12,-14,-13,-10,-5,0,7,14,24,34,42,49,52,55,57,60,62,64,66,67,69,71,72,73,75,76,77,78,79,80,81,80,80,79,78,76,74,71,67,63,58,53,39,4,-24,-46,-68,-82,-94,-103,-107,-106,-100,-92,-85,-77,-69,-61,-53,-45,-38,-30,-21,-13,-4,2,7,12,18,24,31,39,46,54,62,73,83,90,95,98,100,102,105,108,110,112,113,113,114,114,114,113,111,108,104,100,96,93,88,81,67,53,38,30,24,18,13,9,5,3,2,1,0,-1,-2,-2,-1,-1,-1,-2,-3,-3,-3,-2,-2,-2,-2,-1,-1,0,0,1,0,0,0,0,0,-1,-1,-2,-3,-4,-4,-4,-4,-5,-6,-7,-8,-8,-8,-9,-9,-9,-9,-9,-8,-7,-6,-5,-5,-5,-5,-5,-4,-4,-3,-3,-3,-3,-3,-3,-3,-3,-4,-5,-6,-8,-9,-9,-10,-11,-13,-15,-17,-18,-20,-22,-23,-23,-24,-24,-24,-23,-24,-24,-25,-24,-23,-22,-21,-21,-22,-22,-22,-22,-22,-22,-22,-23,-23,-23,-22,-21,-21,-20,-20,-19,-18,-17,-17,-18,-18,-18,-18,-18,-18,-17,-17,-17,-16,-15,-14,-14,-14,-14,-14,-15,-16,-17,-17,-18,-18,-18,-18,-18,-18,-17,-17,-17,-16,-16,-16,-16,-17,-17,-17,-17,-17,-17,-17,-17,-17,-17,-17,-17,-17,-17,-17,-17,-17,-17,-17,-16,-16,-15,-15,-14,-13,-12,-10,-7,-5,-2,0,1,3,4,4,5,5,5,5,5,5,4,3,3,3,3,2,1,0,0,-1,-2,-4,-6,-7,-8,-8,-8,-8,-8,-8,-8,-9,-9,-12,-15,-15,-11,-5,-3,-1,0,0,1,2,3,4,4,4,4,4,4,3,4,4,5,5,5,6,8,10,12,16,20,26,32,70,124,193,279,384,506,637,772,899,984,991,938,778,566,340,146,19,-10,-19,-25,-31,-36,-39,-40,-41,-42,-43,-44,-45,-45,-46,-48,-49,-50,-49,-48,-47,-46,-45,-45,-44,-43,-43,-42,-41,-40,-38,-37,-35,-32,-30,-28,-25,-22,-20,-18,-17,-15,-14,-12,-11,-9,-8,-6,-4,-2,0,1,3,4,5,6,7,8,9,10,12,14,17,20,24,27,31,41,51,58,62,66,69,72,75,78,81,83,84,86,88,90,91,93,94,96,98,101,104,106,109,111,112,113,113,113,111,109,106,103,99,95,91,83,75,67,58,49,40,31,23,15,7,-1,-9,-16,-23,-29,-35,-40,-44,-48,-51,-54,-55,-57,-58,-60,-61,-61,-62,-63,-65,-66,-66,-67,-66,-66,-65,-65,-64,-64,-64,-63,-63,-62,-61,-61,-60,-59,-58,-57,-56,-55,-54,-53,-53,-52,-50,-49,-48,-48,-48,-47,-47,-47,-47,-46,-46,-46,-45,-43,-41,-39,-37,-36,-35,-34,-32,-31,-29,-28,-27,-26,-24,-22,-20,-19,-20,-23,-27,-31,-35,-38,-42,-46,-50,-53,-55,-55,-54,-53,-51,-48,-46,-43,-41,-39,-38,-36,-35,-33,-32,-31,-31,-31,-31,-32,-32,-31,-30,-29,-27,-25,-23,-21,-19,-18,-16,-15,-13,-12,-11,-10,-9,-7,-6,-4,-3,-2,0,0,1,2,2,3,3,3,3,3,3,3,3,2,3,3,4,5,7,8,9,11,12,14,16,18,18,18,17,16,16,15,16,15,15,14,14,14,14,13,11,6,12,16,19,21,23,23,22,19,16,13,11,6,1,1,6,14,21,29,35,37,38,39,41,43,43,36,28,19,9,4,5,5,4,3,3,3,3,4,4,4,4,4,5,6,8,9,9,9,10,11,13,14,15,14,13,12,12,11,11,10,9,8,7,7,8,8,7,7,7,8,9,9,10,10,10,10,11,13,16,21,27,51,99,167,256,371,509,664,822,956,1016,1012,928,750,524,291,91,-43,-83,-81,-36,0,10,3,-14,-52,-80,-91,-95,-92,-85,-80,-75,-71,-70,-71,-74,-78,-82,-86,-88,-88,-84,-79,-77,-76,-75,-74,-73,-72,-71,-70,-68,-67,-65,-64,-62,-60,-58,-56,-54,-52,-51,-50,-48,-47,-45,-43,-40,-38,-34,-31,-29,-26,-23,-20,-18,-16,-14,-11,-9,-6,-3,0,4,8,11,15,18,22,27,33,42,52,62,70,77,83,88,93,96,99,102,104,107,109,111,112,113,114,116,117,118,119,120,122,123,125,125,123,119,114,108,101,90,81,75,67,57,44,33,23,14,6,2,-1,-3,-5,-7,-8,-9,-9,-9,-9,-9,-9,-9,-9,-10,-10,-10,-9,-8,-6,-4,-3,-4,-5,-6,-7,-8,-9,-10,-11,-11,-12,-12,-11,-11,-9,-8,-7,-6,-5,-4,-2,0,2,5,6,3,0,-3,-7,-10,-12,-13,-10,-6,-2,0,5,10,13,15,14,11,7,4,0,-3,-5,-4,-3,-2,-1,0,1,2,3,4,5,6,6,6,4,2,1,0,-1,-2,-4,-6,-10,-13,-15,-14,-12,-11,-10,-10,-10,-9,-8,-6,-5,-5,-5,-4,-3,-3,-2,-2,-3,-3,-3,-2,-1,-1,-1,-2,-2,-1,-1,-1,-2,-3,-4,-5,-5,-5,-5,-6,-7,-9,-9,-10,-9,-9,-10,-10,-10,-10,-10,-9,-9,-9,-9,-9,-9,-8,-7,-7,-6,-6,-6,-6,-5,-6,-6,-7,-7,-7,-7,-7,-8,-9,-10,-11,-12,-13,-14,-15,-14,-11,-7,-4,0,3,4,3,0,-3,-8,3,12,17,20,23,25,24,22,17,13,8,3,-2,-9,-13,-14,-14,-12,-10,-8,-6,-4,-2,-2,-4,-7,-10,-14,-20,-25,-26,-23,-19,-16,-13,-10,-9,-10,-11,-14,-16,-18,-21,-23,-25,-26,-27,-28,-28,-29,-29,-28,-27,-26,-25,-24,-23,-22,-20,-18,-17,-15,-13,-9,7,43,98,175,276,404,555,713,855,952,986,934,778,550,303,91,-56,-105,-121,-101,-78,-59,-58,-69,-83,-96,-101,-104,-106,-106,-107,-107,-108,-109,-110,-110,-109,-107,-104,-101,-97,-94,-92,-91,-89,-87,-86,-84,-84,-83,-81,-79,-77,-74,-72,-70,-68,-66,-64,-63,-61,-59,-58,-57,-54,-52,-49,-46,-44,-42,-40,-38,-36,-35,-33,-32,-30,-28,-24,-18,-11,-4,3,11,20,30,37,43,47,51,55,59,63,67,75,86,100,108,114,119,124,129,133,137,141,146,151,158,168,178,184,189,194,198,202,205,206,206,205,204,202,199,195,191,185,171,157,143,130,119,112,107,102,97,91,85,79,72,65,58,50,44,39,36,33,31,28,26,25,24,24,22,20,17,15,13,12,10,7,4,0,-2,-4,-6,-11,-17,-23,-27,-27,-25,-23,-22,-21,-22,-21,-20,-19,-17,-16,-15,-14,-12,-11,-10,-10,-11,-12,-13,-14,-14,-15,-15,-15,-16,-16,-16,-16,-16,-18,-19,-20,-22,-24,-25,-26,-27,-29,-30,-31,-32,-32,-33,-35,-37,-39,-41,-43,-44,-46,-48,-50,-52,-53,-54,-55,-56,-59,-63,-66,-66,-65,-63,-62,-62,-62,-62,-61,-60,-59,-58,-58,-58,-57,-56,-55,-55,-56,-57,-59,-60,-61,-62,-63,-63,-64,-64,-64,-64,-64,-65,-65,-66,-66,-67,-67,-68,-69,-69,-69,-70,-70,-71,-71,-71,-70,-70,-70,-70,-69,-69,-69,-68,-68,-68,-68,-69,-69,-68,-68,-67,-67,-67,-66,-66,-64,-63,-62,-61,-60,-59,-58,-56,-55,-54,-53,-52,-50,-49,-48,-48,-47,-47,-46,-45,-44,-43,-42,-41,-40,-39,-38,-37,-37,-37,-37,-38,-38,-38,-38,-38,-38,-38,-37,-35,-34,-32,-31,-31,-30,-29,-29,-28,-28,-28,-28,-28,-28,-27,-26,-25,-24,-23,-22,-20,-19,-18,-18,-19,-20,-20,-20,-20,-19,-19,-19,-18,-17,-16,-14,-12,-8,-1,9,47,110,194,302,428,567,713,853,948,959,916,765,554,315,102,-31,-55,-46,-17,0,5,0,-9,-16,-21,-27,-31,-35,-37,-40,-45,-49,-52,-52,-47,-40,-34,-30,-27,-24,-21,-17,-14,-11,-9,-7,-6,-5,-4,-2,-1,0,0,2,4,6,9,11,14,18,22,27,33,39,46,54,62,70,77,83,90,95,100,103,106,107,108,109,110,111,112,113,114,114,114,115,117,118,119,120,121,124,127,131,135,139,143,151,160,167,175,180,185,189,193,197,200,202,201,199,196,193,190,187,184,181,178,174,169,165,160,155,149,143,137,131,126,121,116,110,101,92,85,73,53,38,31,26,21,18,15,13,11,10,8,6,4,2,1,1,1,0,0,0,0,0,0,-1,-1,-2,-3,-4,-4,-4,-4,-5,-5,-5,-5,-5,-6,-7,-12,-14,-12,-7,-6,-5,-4,-4,-4,-3,-2,-1,0,1,1,2,1,1,1,1,1,0,0,-2,-3,-3,-3,-4,-5,-6,-7,-9,-10,-11,-12,-13,-15,-17,-18,-19,-20,-21,-21,-22,-22,-23,-23,-23,-23,-24,-24,-25,-25,-26,-26,-26,-26,-26,-27,-27,-28,-29,-30,-31,-32,-34,-37,-38,-38,-38,-37,-36,-35,-35,-33,-32,-31,-31,-30,-30,-30,-29,-28,-26,-26,-26,-27,-27,-27,-28,-28,-29,-30,-31,-31,-31,-31,-31,-31,-31,-31,-31,-31,-31,-32,-32,-32,-32,-32,-33,-33,-34,-34,-34,-33,-33,-32,-32,-32,-32,-32,-32,-33,-35,-36,-37,-38,-39,-39,-40,-39,-38,-36,-33,-31,-29,-26,-24,-22,-20,-18,-16,-13,-11,-8,-5,-3,-1,0,0,-1,-2,-3,-5,-6,-8,-9,-11,-13,-14,-16,-17,-18,-19,-18,-17,-15,-13,-11,-10,-8,-7,-6,-5,-4,-4,-4,-4,-4,-4,-4,-5,-6,-6,-6,-6,-5,-4,-4,-3,-3,-3,-3,-3,-4,-3,-3,-2,-1,0,0,2,3,5,8,12,16,41,91,157,238,339,459,601,760,901,972,973,901,739,528,304,110,-10,-26,-30,-33,-37,-41,-47,-67,-105,-117,-122,-126,-125,-113,-106,-100,-96,-93,-93,-95,-98,-101,-102,-104,-107,-109,-111,-111,-108,-105,-101,-97,-90,-85,-82,-82,-83,-84,-85,-86,-87,-88,-89,-90,-91,-92,-91,-89,-86,-83,-80,-77,-75,-73,-72,-70,-68,-66,-65,-63,-61,-59,-57,-56,-54,-50,-47,-40,-27,-15,-9,-5,-2,0,2,5,8,11,14,17,21,26,33,40,46,52,57,61,65,69,72,75,77,79,80,83,85,86,87,87,85,81,75,69,62,50,39,30,22,15,8,1,-5,-13,-22,-30,-38,-43,-47,-51,-53,-55,-56,-56,-57,-58,-58,-59,-59,-60,-60,-61,-61,-61,-61,-61,-61,-59,-55,-52,-47,-43,-38,-31,-23,-17,-12,-7,-2,1,5,8,10,11,12,12,13,14,15,16,17,17,15,14,12,11,10,8,6,4,3,4,6,8,10,11,13,14,16,18,19,21,21,22,22,23,23,23,23,22,21,21,21,20,20,20,20,19,20,20,20,19,17,16,15,14,13,12,11,10,9,10,11,11,12,12,13,13,13,12,12,10,9,7,6,5,5,4,4,4,5,5,5,5,5,4,3,2,1,0,0,0,0,0,0,0,0,1,1,2,2,2,3,4,5,7,8,9,10,11,13,15,17,18,18,19,20,23,25,27,28,28,29,28,28,28,27,25,24,22,21,21,19,18,16,15,14,15,16,16,17,17,19,22,24,26,26,23,20,18,17,16,15,13,10,8,6,5,4,3,3,4,5,5,5,5,4,3,2,0,-1,-3,-5,-8,-10,-12,-15,-17,-19,-24,-29,-32,-32,-30,-27,-24,-22,-20,-18,-16,-14,-13,-12,-12,-11,-10,-10,-11,-13,-15,-17,-18,-19,-21,-22,-23,-25,-25,-25,-25,-23,-21,-17,-12,-1,23,69,137,224,325,443,578,729,873,977,1008,939,770,531,290,107,-9,-46,-58,-49,-39,-31,-32,-44,-57,-68,-76,-81,-83,-84,-85,-86,-88,-89,-90,-90,-90,-90,-90,-90,-89,-88,-88,-87,-85,-84,-83,-81,-80,-79,-78,-76,-74,-72,-71,-69,-66,-64,-62,-60,-57,-55,-53,-51,-49,-47,-45,-42,-40,-37,-34,-31,-28,-25,-23,-20,-18,-15,-12,-9,-5,-2,0,3,6,9,13,16,20,26,31,37,42,48,54,61,67,73,79,87,94,99,103,106,108,111,115,120,124,127,130,134,136,138,137,135,131,126,121,116,110,103,96,90,84,72,47,31,23,17,11,7,4,0,-2,-5,-8,-10,-13,-14,-15,-15,-16,-16,-16,-16,-15,-14,-12,-11,-9,-6,1,1,-5,-9,-13,-15,-18,-20,-20,-19,-16,-14,-10,-6,1,5,2,-1,-3,-3,-4,-5,-6,-6,-7,-8,-9,-10,-10,-9,-9,-9,-9,-10,-10,-11,-11,-12,-12,-12,-12,-12,-11,-11,-10,-10,-10,-10,-10,-11,-12,-13,-13,-12,-12,-11,-11,-11,-10,-10,-9,-9,-9,-9,-9,-9,-9,-8,-7,-6,-6,-5,-4,-3,-3,-3,-4,-4,-3,-3,-3,-3,-2,-2,-1,0,1,2,2,2,2,1,2,2,2,3,4,5,6,7,8,9,9,9,9,9,7,6,4,1,0,-1,-2,-2,-2,-2,-2,-2,-2,-2,-2,-2,-2,-2,-2,-2,-2,-2,-2,-2,-1,-1,-2,-2,-2,-2,-2,-2,-2,-2,-3,-3,-3,-4,-4,-5,-5,-5,-5,-4,-3,-1,0,1,3,5,6,7,7,8,8,9,10,11,13,16,17,19,19,19,17,14,11,8,5,3,1,0,-1,-2,-4,-5,-6,-7,-8,-8,-8,-8,-7,-7,-6,-6,-6,-6,-7,-7,-7,-7,-7,-8,-8,-8,-7,-6,-5,-5,-5,-5,-5,-6,-6,-7,-8,-9,-9,-8,-7,-6,-5,-4,-3,-2,-1,0,1,12,54,116,198,303,425,556,691,822,926,957,942,834,632,376,130,-40,-104,-110,-77,-50,-39,-42,-57,-64,-69,-73,-76,-79,-81,-83,-84,-85,-86,-85,-84,-82,-80,-78,-76,-73,-71,-69,-67,-66,-64,-61,-58,-55,-52,-52,-52,-52,-52,-53,-54,-55,-57,-60,-60,-56,-51,-46,-42,-38,-35,-35,-35,-35,-36,-37,-41,-40,-28,-18,-10,-4,0,4,6,8,11,14,17,20,24,29,34,40,48,55,61,65,69,73,78,85,93,101,106,109,112,115,118,121,123,126,128,129,132,135,139,147,159,161,164,167,157,149,144,139,133,126,118,111,103,95,87,79,70,60,47,38,32,27,21,15,9,6,4,2,0,-2,-4,-5,-6,-7,-9,-9,-10,-10,-10,-10,-11,-13,-16,-18,-19,-19,-19,-19,-20,-20,-19,-17,-16,-16,-17,-19,-21,-23,-26,-30,-32,-33,-33,-30,-27,-24,-20,-16,-15,-17,-20,-22,-26,-29,-31,-30,-28,-25,-22,-18,-14,-12,-13,-16,-19,-20,-21,-22,-23,-24,-26,-28,-29,-30,-31,-31,-32,-32,-31,-31,-31,-31,-31,-32,-33,-34,-36,-36,-37,-37,-38,-38,-38,-37,-37,-37,-37,-37,-37,-37,-38,-38,-39,-39,-40,-41,-42,-43,-43,-43,-43,-43,-44,-45,-45,-46,-47,-48,-49,-50,-50,-51,-51,-50,-50,-49,-48,-48,-48,-48,-49,-49,-50,-52,-53,-54,-54,-54,-53,-53,-53,-53,-54,-55,-56,-57,-59,-60,-62,-62,-61,-59,-57,-55,-53,-51,-49,-46,-44,-42,-39,-36,-33,-31,-31,-30,-30,-29,-29,-28,-28,-28,-28,-28,-28,-28,-27,-26,-25,-24,-23,-21,-19,-18,-16,-15,-13,-12,-11,-11,-12,-13,-15,-17,-20,-23,-26,-25,-23,-22,-20,-18,-17,-16,-16,-18,-19,-21,-22,-25,-27,-28,-23,-15,-8,0,7,13,15,16,17,18,19,20,19,19,19,19,19,19,20,20,20,20,21,21,21,23,25,27,31,35,46,72,116,176,246,330,431,550,681,809,916,965,959,880,716,498,273,91,-16,-34,-39,-36,-31,-29,-35,-38,-40,-42,-44,-45,-46,-46,-46,-46,-46,-46,-44,-42,-39,-36,-33,-29,-19,0,8,12,15,19,24,29,34,40,47,57,67,78,83,86,89,91,93,95,96,99,101,103,105,107,109,110,110,111,112,113,114,115,117,118,120,121,123,125,127,128,129,130,131,132,133,135,137,139,143,147,152,159,166,171,175,178,182,186,190,193,196,198,200,202,202,202,201,200,198,197,195,193,191,188,184,181,174,166,159,151,141,131,118,105,92,81,71,60,50,45,41,38,36,33,31,28,25,22,19,16,13,11,8,6,4,1,0,-3,-6,-9,-11,-13,-15,-16,-16,-15,-14,-13,-12,-11,-10,-9,-7,-6,-5,-4,-3,-1,0,2,2,0,-4,-9,-12,-15,-17,-19,-21,-24,-26,-27,-28,-28,-29,-30,-31,-31,-31,-31,-32,-33,-34,-36,-37,-39,-41,-42,-44,-46,-47,-49,-50,-50,-50,-51,-52,-53,-55,-56,-58,-60,-61,-62,-64,-65,-66,-66,-66,-67,-66,-66,-67,-68,-69,-70,-71,-71,-72,-73,-74,-75,-75,-75,-75,-76,-76,-77,-77,-76,-76,-75,-75,-75,-75,-74,-73,-73,-73,-74,-74,-75,-74,-74,-73,-73,-73,-73,-73,-73,-73,-74,-74,-75,-75,-76,-76,-76,-76,-76,-76,-75,-75,-75,-75,-75,-76,-76,-77,-77,-77,-77,-77,-77,-76,-75,-74,-72,-71,-70,-70,-71,-71,-71,-72,-72,-73,-73,-73,-73,-73,-74,-75,-75,-75,-76,-77,-79,-80,-77,-69,-61,-55,-49,-43,-38,-35,-33,-32,-31,-31,-31,-32,-33,-33,-33,-33,-34,-36,-40,-44,-47,-49,-51,-53,-55,-57,-58,-58,-58,-58,-59,-59,-59,-58,-58,-57,-57,-58,-58,-59,-59,-59,-59,-59,-59,-59,-58,-57,-57,-57,-57,-58,-60,-62,-66,-66,-56,-50,-46,-43,-40,-37,-34,-31,-28,-24,-17,5,57,131,225,340,470,616,764,894,963,960,871,669,422,181,-3,-75,-98,-78,-55,-36,-38,-59,-72,-82,-90,-96,-100,-100,-101,-101,-102,-103,-104,-105,-106,-106,-105,-105,-104,-104,-105,-104,-103,-100,-96,-93,-90,-88,-86,-84,-82,-80,-79,-78,-77,-75,-73,-71,-69,-67,-66,-66,-65,-64,-62,-61,-59,-58,-56,-53,-50,-46,-42,-37,-32,-28,-22,-16,-9,-3,2,7,11,16,21,27,33,41,49,57,66,76,85,94,102,106,109,112,114,117,119,122,124,126,127,129,131,133,134,136,136,137,140,144,147,149,149,145,140,134,128,123,115,107,100,94,90,87,84,81,77,74,71,70,69,69,68,67,67,66,66,66,66,65,65,64,64,65,65,66,67,68,69,70,71,72,73,75,76,77,77,78,78,78,79,78,77,76,74,72,71,69,67,66,64,63,61,60,58,56,53,50,47,44,41,38,36,34,32,31,30,28,27,26,25,24,23,22,21,20,18,17,15,12,10,7,5,3,1,0,-2,-4,-5,-6,-7,-9,-11,-14,-17,-19,-21,-23,-26,-28,-29,-29,-29,-29,-29,-29,-29,-30,-30,-31,-31,-32,-32,-32,-32,-31,-31,-31,-30,-30,-28,-23,-18,-13,-11,-9,-7,-4,-2,0,1,2,2,3,4,5,6,7,8,9,10,11,12,13,13,14,15,15,16,16,16,17,18,19,19,20,21,21,21,20,19,18,16,14,13,11,9,7,5,4,2,2,1,0,0,0,-1,-1,-2,-2,-2,-1,-1,-1,0,1,2,2,3,3,3,2,1,1,0,-1,-2,-3,-4,-4,-5,-5,-6,-8,-10,-12,-15,-18,-21,-24,-27,-30,-32,-34,-35,-37,-38,-38,-39,-40,-42,-44,-46,-48,-50,-50,-51,-50,-50,-49,-47,-45,-44,-43,-41,-39,-37,-35,-35,-37,-40,-43,-46,-49,-51,-54,-57,-60,-61,-62,-61,-58,-54,-48,-41,-11,29,85,157,249,364,502,657,813,936,989,950,812,596,341,111,-38,-74,-84,-91,-99,-108,-116,-120,-123,-125,-127,-129,-131,-133,-134,-135,-137,-138,-139,-139,-140,-139,-139,-137,-136,-135,-134,-133,-131,-130,-127,-125,-124,-122,-116,-112,-113,-116,-118,-120,-122,-123,-124,-123,-121,-118,-114,-111,-107,-104,-100,-96,-92,-88,-84,-80,-74,-68,-62,-56,-51,-45,-41,-37,-33,-29,-26,-22,-19,-15,-10,-6,-1,3,8,15,22,29,35,42,49,58,66,72,76,82,88,94,100,108,118,132,141,147,151,156,159,162,165,167,169,171,173,176,178,179,180,181,182,184,185,186,186,185,183,180,176,171,164,152,142,134,127,121,116,113,111,108,106,104,102,99,95,92,88,85,82,79,77,74,70,67,63,60,55,50,44,41,39,37,36,35,34,34,33,32,31,31,30,28,26,25,24,24,23,21,17,10,6,4,3,2,0,0,0,1,2,3,4,5,5,5,5,5,5,4,4,3,2,1,0,-2,-4,-7,-9,-12,-14,-16,-18,-21,-24,-27,-30,-31,-32,-33,-33,-33,-34,-35,-36,-37,-37,-38,-38,-39,-39,-39,-39,-39,-38,-38,-38,-38,-38,-38,-38,-39,-40,-41,-41,-41,-42,-43,-43,-44,-44,-44,-45,-45,-45,-46,-47,-48,-50,-52,-53,-54,-53,-51,-48,-45,-40,-35,-25,-17,-10,-1,7,18,27,34,42,49,54,59,63,65,63,58,53,48,43,38,34,29,24,20,16,13,9,5,2,-1,-5,-10,-17,-23,-28,-33,-37,-40,-43,-45,-46,-47,-47,-47,-47,-47,-47,-48,-48,-49,-50,-49,-46,-44,-41,-38,-36,-36,-42,-49,-53,-56,-58,-61,-63,-65,-68,-70,-72,-74,-76,-77,-78,-78,-79,-79,-80,-80,-80,-81,-82,-84,-85,-87,-88,-90,-90,-90,-90,-90,-89,-87,-86,-85,-84,-83,-82,-81,-80,-79,-77,-75,-71,-69,-68,-70,-73,-77,-82,-90,-90,-82,-61,-28,19,88,176,285,410,544,681,806,885,890,834,669,438,199,-7,-152,-200,-200,-158,-124,-112,-113,-122,-127,-129,-132,-134,-136,-137,-138,-139,-140,-142,-143,-143,-143,-141,-140,-138,-136,-135,-133,-131,-130,-128,-127,-126,-125,-123,-121,-119,-117,-116,-114,-112,-110,-109,-108,-107,-106,-105,-105,-104,-103,-101,-100,-96,-89,-82,-75,-69,-64,-59,-53,-47,-41,-37,-33,-29,-25,-21,-17,-11,-3,2,6,12,18,28,42,58,73,87,97,102,110,121,134,149,159,172,189,208,227,246,267,282,291,299,306,314,328,350,367,379,388,394,399,403,402,396,387,371,347,323,302,288,276,261,246,230,214,198,182,169,159,150,143,136,130,124,116,108,100,92,84,75,69,63,59,55,50,46,42,36,28,19,8,1,-4,-8,-13,-19,-24,-29,-32,-34,-36,-38,-39,-41,-42,-43,-43,-45,-46,-47,-48,-50,-51,-53,-55,-57,-59,-61,-63,-65,-67,-68,-69,-70,-71,-72,-73,-75,-77,-79,-80,-82,-84,-86,-87,-87,-88,-88,-88,-89,-89,-89,-90,-90,-90,-90,-90,-90,-90,-90,-89,-89,-89,-89,-90,-90,-90,-89,-88,-88,-87,-86,-86,-84,-83,-82,-81,-81,-81,-81,-81,-81,-82,-83,-83,-83,-83,-83,-82,-82,-82,-82,-83,-84,-85,-86,-88,-89,-90,-91,-92,-92,-92,-92,-93,-93,-94,-95,-96,-97,-98,-99,-99,-98,-97,-94,-92,-88,-85,-81,-78,-76,-75,-73,-72,-72,-71,-70,-70,-69,-68,-66,-64,-62,-61,-60,-59,-58,-57,-56,-55,-55,-55,-55,-54,-52,-51,-49,-47,-45,-42,-40,-37,-35,-34,-33,-33,-34,-35,-36,-37,-38,-40,-42,-44,-45,-46,-49,-53,-56,-56,-54,-50,-46,-44,-43,-41,-40,-39,-38,-37,-36,-35,-35,-35,-34,-34,-34,-34,-34,-33,-32,-32,-31,-30,-29,-28,-27,-27,-26,-26,-24,-22,-20,-18,-16,-16,-16,-17,-18,-20,-22,-26,-32,-31,-17,3,29,71,119,184,273,385,513,648,776,875,917,881,770,600,393,181,15,-86,-107,-102,-54,-15,-5,0,3,6,8,10,12,14,17,19,22,24,25,27,28,31,36,42,52,61,63,64,65,67,68,70,70,70,70,70,70,71,71,70,70,70,71,72,74,75,76,76,78,80,82,84,86,87,88,90,92,95,97,99,101,104,106,109,111,113,113,114,115,117,119,122,127,136,144,152,158,163,166,169,170,172,174,176,179,181,183,185,187,190,192,195,197,200,203,206,210,214,217,220,223,227,230,233,235,237,237,237,237,235,233,230,227,224,220,216,207,196,182,170,160,151,144,138,133,126,115,99,87,79,72,65,59,53,47,43,38,34,29,24,19,15,11,9,6,4,2,0,0,-2,-4,-6,-9,-12,-15,-18,-20,-23,-26,-29,-32,-35,-38,-41,-43,-46,-48,-50,-51,-53,-55,-56,-58,-59,-61,-62,-63,-64,-64,-65,-66,-67,-69,-71,-74,-77,-80,-85,-90,-93,-95,-96,-96,-97,-98,-100,-102,-104,-104,-102,-98,-95,-93,-92,-91,-90,-89,-87,-86,-86,-86,-87,-87,-88,-88,-89,-89,-90,-90,-90,-89,-88,-87,-86,-86,-86,-86,-85,-84,-83,-82,-81,-80,-79,-78,-77,-76,-75,-75,-75,-74,-74,-74,-74,-74,-75,-75,-75,-75,-75,-76,-76,-77,-77,-77,-77,-77,-77,-77,-77,-76,-76,-75,-75,-74,-73,-72,-71,-70,-69,-68,-67,-66,-65,-64,-64,-64,-64,-64,-63,-63,-63,-63,-63,-63,-64,-64,-64,-64,-64,-63,-63,-62,-61,-60,-59,-58,-56,-55,-53,-51,-50,-48,-46,-45,-43,-41,-38,-35,-31,-29,-30,-31,-34,-36,-38,-39,-40,-42,-44,-45,-47,-47,-48,-49,-49,-50,-49,-49,-49,-48,-48,-48,-48,-48,-47,-47,-47,-47,-47,-47,-46,-45,-44,-44,-43,-43,-42,-41,-40,-39,-38,-38,-38,-37,-36,-35,-34,-33,-32,-31,-30,-27,-24,-20,-16,-9,1,38,87,154,243,356,491,640,791,922,983,977,882,690,457,231,49,-63,-93,-103,-88,-72,-60,-54,-61,-73,-78,-82,-85,-89,-92,-95,-98,-101,-103,-106,-107,-108,-107,-105,-102,-98,-95,-93,-91,-89,-87,-86,-85,-84,-82,-79,-76,-73,-69,-66,-63,-60,-57,-54,-51,-49,-48,-48,-46,-44,-42,-40,-37,-33,-30,-26,-22,-18,-13,-8,-3,0,4,8,12,16,20,24,28,32,35,38,42,45,49,53,58,65,72,78,84,89,95,104,112,120,128,132,135,138,141,144,147,149,150,151,152,153,154,155,155,156,158,161,162,161,156,150,142,129,113,105,101,97,93,89,87,84,82,81,80,79,77,75,73,71,69,66,62,58,55,52,50,47,45,43,41,39,37,36,35,33,31,28,26,25,25,24,23,22,21,19,18,16,15,13,12,10,9,9,8,8,8,7,7,6,5,3,1,0,0,-2,-3,-5,-6,-6,-7,-7,-7,-8,-9,-11,-12,-13,-14,-16,-17,-19,-20,-20,-21,-21,-22,-23,-24,-24,-24,-24,-25,-25,-26,-25,-24,-23,-22,-22,-21,-20,-19,-18,-18,-18,-18,-18,-18,-17,-17,-16,-17,-17,-18,-18,-18,-19,-21,-22,-23,-24,-24,-24,-25,-26,-26,-27,-27,-26,-25,-25,-26,-26,-27,-26,-25,-24,-23,-22,-21,-21,-19,-18,-16,-14,-14,-13,-12,-12,-11,-11,-11,-11,-11,-10,-8,-7,-5,-4,-4,-4,-6,-7,-9,-11,-14,-16,-19,-20,-22,-24,-25,-25,-25,-26,-27,-28,-30,-31,-32,-30,-28,-26,-25,-24,-23,-21,-19,-17,-15,-14,-12,-12,-11,-11,-12,-13,-15,-17,-19,-20,-22,-23,-25,-26,-27,-28,-29,-30,-30,-31,-32,-33,-34,-35,-35,-35,-35,-36,-36,-37,-37,-37,-37,-37,-37,-37,-38,-39,-39,-40,-40,-42,-43,-43,-44,-44,-44,-45,-45,-45,-44,-44,-44,-44,-44,-44,-43,-42,-40,-38,-37,-35,-33,-31,-29,-26,-24,-21,-11,13,56,119,206,313,443,591,741,871,951,956,896,712,471,226,38,-57,-89,-75,-60,-46,-47,-64,-89,-113,-120,-123,-125,-127,-129,-130,-132,-134,-136,-137,-138,-137,-136,-135,-132,-130,-127,-125,-123,-121,-120,-118,-116,-115,-113,-112,-110,-109,-108,-106,-105,-104,-103,-101,-100,-98,-97,-95,-93,-91,-90,-88,-86,-85,-83,-81,-78,-75,-71,-66,-61,-56,-52,-49,-45,-43,-40,-36,-32,-28,-22,-16,-10,-5,0,4,9,14,19,23,29,35,42,51,60,68,75,80,85,90,95,101,106,112,119,128,136,142,148,155,165,175,182,188,192,198,203,206,210,213,217,220,222,222,219,215,209,202,195,183,173,165,158,152,147,140,133,129,126,123,121,120,118,117,115,112,110,109,107,106,104,101,98,96,93,88,83,78,72,67,62,58,57,55,53,52,51,50,49,49,48,48,47,46,46,46,45,45,43,42,42,41,41,41,40,40,39,38,38,38,37,36,34,32,30,29,28,28,26,24,23,22,21,20,20,19,19,18,18,19,19,20,21,21,23,24,26,27,29,31,33,34,35,37,39,40,41,42,44,45,46,47,47,45,43,41,38,36,34,31,28,23,13,10,11,11,11,9,8,7,6,5,5,3,1,0,-1,-2,-3,-4,-5,-6,-7,-7,-8,-9,-10,-11,-12,-13,-14,-14,-14,-14,-15,-16,-17,-18,-20,-21,-23,-25,-26,-28,-30,-32,-34,-36,-38,-39,-41,-42,-44,-45,-46,-46,-46,-47,-47,-47,-47,-47,-47,-48,-48,-48,-48,-48,-48,-48,-49,-49,-51,-52,-54,-57,-61,-65,-69,-74,-78,-82,-83,-85,-86,-86,-87,-88,-89,-90,-90,-91,-91,-92,-92,-92,-92,-92,-92,-92,-92,-92,-93,-93,-93,-93,-94,-94,-95,-96,-96,-97,-97,-98,-99,-100,-100,-101,-101,-101,-102,-105,-108,-110,-107,-102,-93,-80,-56,-13,40,110,201,314,447,592,729,831,869,819,680,469,224,-2,-166,-239,-248,-217,-164,-126,-114,-125,-144,-162,-170,-174,-177,-179,-180,-180,-179,-176,-173,-171,-170,-168,-167,-165,-162,-160,-158,-157,-155,-153,-151,-148,-145,-143,-141,-139,-137,-135,-133,-131,-130,-128,-126,-124,-122,-121,-119,-118,-116,-115,-113,-111,-108,-104,-99,-94,-87,-81,-75,-70,-66,-62,-58,-54,-52,-49,-46,-42,-38,-31,-24,-16,-9,-4,0,2,5,8,12,15,18,21,25,32,44,58,69,79,88,97,105,112,119,126,133,139,144,149,153,157,161,166,174,185,197,205,210,214,217,219,220,221,222,223,224,226,227,227,225,220,212,202,191,175,163,155,148,143,137,130,122,113,102,92,80,71,62,54,47,41,36,33,30,27,25,22,20,17,15,12,9,7,5,3,0,-1,-4,-6,-10,-13,-17,-22,-25,-28,-30,-32,-34,-36,-37,-39,-40,-41,-42,-43,-45,-46,-47,-47,-47,-48,-48,-49,-49,-50,-51,-51,-52,-53,-53,-54,-55,-55,-55,-56,-57,-58,-58,-59,-59,-59,-60,-60,-61,-61,-60,-59,-58,-57,-55,-54,-53,-52,-52,-52,-52,-52,-52,-52,-52,-52,-52,-52,-52,-51,-51,-52,-52,-52,-53,-54,-55,-57,-59,-61,-63,-65,-67,-69,-70,-72,-74,-76,-78,-80,-82,-84,-86,-87,-88,-87,-87,-86,-85,-84,-83,-82,-81,-81,-80,-80,-79,-78,-76,-74,-73,-71,-70,-69,-67,-66,-66,-66,-66,-68,-69,-69,-69,-69,-70,-70,-70,-70,-69,-69,-69,-69,-71,-71,-72,-71,-69,-66,-64,-61,-59,-56,-53,-50,-47,-44,-40,-35,-27,-14,-3,11,31,52,72,91,112,131,144,155,166,177,189,202,214,227,242,262,278,289,299,303,305,307,309,311,312,313,314,315,316,317,317,316,315,314,312,310,308,305,303,300,297,294,287,272,264,257,251,252,262,291,338,408,506,626,760,898,1025,1115,1128,1100,965,749,499,276,128,82,69,61,53,46,39,32,25,19,16,16,20,28,37,46,58,69,79,87,96,102,106,107,108,109,109,110,111,110,105,97,88,78,67,54,46,39,32,26,21,17,14,10,5,0,-5,-9,-12,-15,-17,-21,-24,-23,-15,-5,3,14,25,35,54,70,75,76,78,79,80,81,82,83,85,86,87,89,91,94,102,120,140,161,177,187,199,214,221,227,232,236,240,242,244,246,247,247,248,247,246,245,243,240,237,233,227,221,207,178,160,150,141,131,121,114,108,103,98,92,86,80,73,63,48,35,24,11,-3,-18,-33,-48,-63,-82,-103,-111,-113,-115,-117,-118,-119,-120,-121,-123,-126,-128,-130,-132,-134,-136,-139,-142,-147,-152,-161,-172,-181,-191,-200,-205,-210,-214,-218,-221,-225,-228,-231,-235,-239,-243,-246,-249,-250,-252,-253,-255,-256,-258,-259,-260,-261,-262,-264,-265,-265,-265,-266,-266,-267,-267,-267,-267,-267,-267,-268,-268,-268,-268,-267,-266,-265,-265,-264,-263,-262,-261,-260,-258,-257,-256,-255,-253,-252,-250,-247,-245,-243,-241,-238,-235,-232,-230,-227,-225,-222,-220,-217,-215,-213,-211,-210,-208,-206,-204,-203,-202,-201,-199,-198,-196,-194,-192,-189,-187,-183,-180,-176,-172,-168,-165,-162,-159,-155,-151,-147,-143,-138,-132,-127,-121,-115,-109,-102,-93,-84,-75,-67,-59,-50,-43,-37,-30,-22,-13,-3,8,13,16,18,20,23,25,26,26,27,28,29,30,31,32,33,35,36,38,40,41,42,44,45,47,48,50,51,52,55,58,62,66,69,72,75,78,81,84,89,95,106,115,124,139,161,185,209,253,302,355,408,460,511,558,578,589,597,596,581,562,534,503,473,444,419,407,399,393,394,403,420,447,483,515,537,548,555,554,537,514,480,444,407,369,333,299,266,242,226,225,232,251,306,388,494,620,758,896,1016,1054,1040,930,745,527,322,179,137,123,132,145,155,138,112,82,52,24,4,-11,-27,-44,-62,-80,-99,-116,-131,-145,-160,-176,-192,-208,-225,-242,-259,-281,-298,-310,-319,-323,-325,-326,-327,-328,-329,-330,-331,-332,-332,-332,-332,-331,-330,-328,-325,-321,-316,-311,-306,-301,-295,-283,-273,-267,-262,-260,-258,-257,-256,-255,-255,-253,-252,-251,-249,-248,-247,-246,-245,-242,-238,-232,-221,-193,-162,-132,-103
