-63,-74,-87,-102,-120,-137,-153,-168,-186,-209,-232,-252,-264,-271,-275,-275,-267,-255,-234,-201,-175,-156,-138,-125,-114,-105,-98,-93,-89,-87,-85,-83,-82,-80,-78,-77,-76,-76,-76,-76,-78,-80,-83,-86,-90,-96,-102,-115,-142,-166,-190,-216,-244,-276,-304,-328,-352,-375,-399,-423,-447,-470,-493,-514,-537,-550,-558,-564,-566,-563,-554,-541,-518,-487,-445,-403,-355,-322,-282,-243,-205,-168,-131,-94,-60,-23,13,51,87,121,151,180,209,235,273,315,373,453,550,651,742,813,834,844,837,785,703,586,441,287,149,39,-41,-104,-138,-160,-174,-180,-175,-163,-146,-122,-98,-71,-41,-13,6,19,25,21,9,-9,-35,-77,-125,-158,-196,-233,-264,-287,-308,-324,-336,-346,-357,-367,-373,-377,-380,-384,-387,-390,-393,-395,-397,-398,-399,-398,-397,-396,-394,-391,-389,-386,-383,-379,-375,-370,-366,-360,-353,-346,-339,-333,-327,-321,-316,-310,-304,-297,-290,-285,-279,-274,-267,-261,-254,-248,-241,-234,-230,-226,-223,-220,-217,-214,-211,-208,-204,-201,-197,-192,-182,-165,-148,-131,-114,-92,-73,-56,-44,-35,-28,-21,-15,-8,0,7,13,20,27,31,33,31,25,17,6,-15,-46,-70,-94,-116,-140,-159,-170,-182,-195,-208,-220,-232,-244,-258,-275,-295,-316,-334,-343,-348,-353,-356,-358,-357,-352,-344,-334,-322,-306,-292,-281,-270,-259,-246,-232,-223,-216,-211,-207,-202,-197,-192,-187,-180,-169,-151,-134,-111,-84,-57,-26,3,24,38,51,64,79,88,95,100,104,105,104,98,91,81,69,48,31,16,3,-9,-23,-32,-39,-45,-50,-55,-59,-63,-67,-70,-72,-74,-75,-76,-77,-79,-80,-82,-84,-86,-87,-88,-89,-89,-89,-88,-88,-87,-87,-87,-87,-87,-86,-86,-84,-83,-81,-79,-76,-72,-69,-67,-64,-62,-61,-59,-58,-57,-56,-55,-53,-52,-50,-49,-47,-46,-45,-44,-44,-44,-43,-43,-42,-41,-40,-38,-37,-36,-35,-33,-32,-31,-29,-28,-28,-27,-26,-26,-25,-24,-24,-23,-23,-23,-23,-22,-21,-21,-21,-21,-21,-21,-21,-21,-21,-21,-20,-21,-21,-21,-21,-21,-22,-22,-23,-23,-22,-21,-20,-17,-15,-12,-9,-6,-3,0,1,4,7,10,13,16,20,24,28,32,35,38,40,41,42,43,43,44,44,44,44,44,44,44,44,44,45,45,45,45,45,45,45,45,45,45,45,45,45,44,43,42,37,28,19,10,-2,-12,-13,-8,0,28,74,132,200,271,333,384,403,413,420,408,368,312,247,180,122,74,44,14,-18,-46,-67,-83,-93,-100,-106,-111,-117,-123,-127,-129,-130,-131,-132,-134,-135,-137,-139,-140,-141,-142,-143,-143,-144,-145,-146,-147,-149,-150,-151,-152,-153,-153,-153,-152,-151,-150,-149,-148,-148,-147,-147,-147,-147,-147,-146,-145,-144,-143,-143,-143,-143,-143,-144,-144,-145,-145,-145,-144,-143,-142,-140,-138,-137,-134,-131,-129,-126,-119,-97,-80,-66,-54,-40,-25,-1,31,55,70,83,94,108,125,144,161,174,187,200,217,236,249,256,261,264,266,268,271,275,279,282,286,291,296,304,315,327,336,345,358,375,393,408,420,431,441,450,458,467,476,486,495,503,511,517,523,528,533,536,540,543,546,549,554,559,566,573,579,584,590,596,603,609,614,616,616,616,615,615,616,616,618,620,621,621,621,621,620,620,619,617,616,615,614,611,608,605,602,599,596,592,586,581,576,571,566,561,554,543,526,508,492,481,471,463,455,447,438,427,415,394,365,316,264,211,160,107,55,8,-37,-63,-75,-80,-84,-86,-89,-92,-96,-100,-103,-108,-114,-121,-138,-173,-207,-242,-277,-312,-333,-344,-352,-357,-361,-363,-364,-365,-367,-368,-371,-373,-374,-371,-364,-354,-337,-312,-288,-262,-240,-223,-208,-189,-166,-144,-119,-97,-80,-66,-53,-39,-23,-7,9,30,52,73,91,109,126,147,159,168,175,180,182,180,175,168,158,141,108,78,56,39,26,15,7,7,15,27,39,53,66,75,87,102,123,141,157,171,181,192,202,215,231,244,255,265,271,276,280,284,289,292,295,295,292,287,281,276,271,265,259,254,250,249,251,254,259,264,272,283,295,309,325,344,361,379,396,411,420,427,432,435,436,434,430,423,416,407,393,384,379,373,367,367,380,413,468,541,623,696,731,742,722,661,572,480,400,342,311,281,259,246,237,252,279,297,303,308,310,304,291,271,240,208,175,142,108,73,39,3,-25,-41,-51,-57,-56,-48,-37,-27,-16,-8,-7,-13,-26,-65,-108,-158,-188,-221,-251,-278,-305,-327,-343,-358,-371,-382,-394,-407,-417,-425,-433,-440,-449,-456,-460,-464,-467,-470,-473,-476,-478,-481,-482,-483,-483,-482,-479,-475,-470,-466,-461,-456,-451,-447,-443,-440,-436,-431,-427,-422,-418,-415,-412,-410,-410,-411,-412,-415,-418,-422,-426,-431,-436,-442,-450,-468,-478,-483,-488,-494,-499,-499,-493,-481,-462,-435,-412,-388,-362,-337,-312,-285,-261,-245,-232,-226,-222,-219,-216,-214,-210,-209,-206,-204,-200,-195,-185,-166,-147,-121,-93,-77,-65,-59,-60,-70,-86,-104,-126,-144,-161,-177,-188,-195,-198,-202,-205,-207,-205,-204,-201,-195,-187,-180,-174,-168,-162,-157,-153,-148,-142,-138,-135,-133,-132,-131,-127,-121,-114,-105,-96,-89,-85,-79,-63,-31,-10,0,5,9,10,10,10,10,10,9,4,-2,-12,-20,-26,-30,-34,-38,-42,-45,-48,-52,-56,-60,-63,-65,-66,-67,-68,-72,-75,-77,-77,-78,-79,-80,-79,-79,-79,-78,-77,-76,-73,-68,-65,-61,-59,-56,-53,-49,-45,-40,-35,-32,-29,-26,-24,-21,-19,-18,-15,-12,-11,-10,-8,-6,-4,-2,0,4,8,11,14,15,17,19,21,21,22,23,26,28,27,28,29,31,33,36,40,43,43,44,45,45,44,45,46,48,50,50,50,48,46,44,44,44,46,48,50,49,45,42,41,41,41,40,40,40,42,42,43,44,46,48,50,52,52,54,56,58,60,59,56,53,51,49,48,48,47,48,48,50,51,50,50,50,51,52,54,56,57,58,57,57,58,61,64,67,69,71,73,73,73,73,75,76,77,76,74,73,73,73,73,74,74,74,73,72,71,73,79,88,120,175,253,350,459,559,612,632,613,548,460,377,311,254,218,181,150,130,118,105,93,82,70,61,53,45,40,34,28,24,24,25,27,28,29,31,35,41,46,48,49,49,49,47,46,44,43,44,45,45,43,41,39,41,44,49,52,54,55,54,53,53,53,52,53,54,54,54,51,48,46,44,44,45,48,53,59,64,67,67,67,70,74,81,91,100,107,112,116,119,125,137,151,160,167,173,177,179,181,182,180,177,174,170,164,156,146,132,112,95,79,67,57,50,44,33,19,6,-1,-6,-7,-7,-8,-10,-13,-16,-19,-21,-22,-21,-20,-19,-19,-20,-24,-24,-25,-25,-25,-25,-25,-25,-26,-27,-27,-28,-28,-29,-30,-31,-31,-31,-32,-32,-33,-34,-35,-36,-38,-40,-43,-46,-49,-52,-54,-57,-60,-62,-65,-67,-69,-72,-76,-80,-84,-87,-89,-92,-94,-96,-98,-99,-100,-101,-101,-102,-104,-105,-107,-108,-110,-112,-114,-115,-116,-117,-117,-117,-117,-116,-117,-117,-117,-118,-119,-120,-121,-122,-122,-123,-122,-122,-121,-121,-121,-121,-121,-122,-122,-124,-126,-128,-131,-134,-138,-142,-153,-166,-180,-195,-205,-213,-221,-227,-232,-237,-242,-246,-250,-254,-258,-263,-270,-278,-287,-299,-309,-316,-322,-327,-331,-336,-340,-343,-346,-349,-352,-355,-358,-362,-364,-367,-370,-373,-376,-380,-384,-388,-391,-395,-399,-403,-407,-410,-413,-416,-419,-422,-426,-429,-433,-436,-439,-443,-447,-451,-454,-458,-460,-463,-466,-469,-472,-474,-476,-478,-480,-483,-485,-487,-489,-489,-490,-489,-489,-488,-487,-486,-485,-484,-484,-485,-485,-486,-487,-488,-489,-490,-492,-494,-495,-496,-498,-501,-507,-514,-520,-524,-523,-517,-508,-498,-485,-465,-449,-436,-420,-400,-373,-351,-335,-321,-310,-299,-284,-264,-245,-228,-214,-199,-182,-154,-114,-79,-53,-33,-18,-7,3,14,27,50,81,127,192,278,375,475,573,658,728,787,824,849,861,871,882,893,906,931,970,1031,1098,1172,1254,1343,1438,1537,1637,1736,1827,1913,1997,2077,2145,2203,2236,2267,2302,2328,2344,2353,2353,2343,2327,2300,2263,2230,2197,2171,2152,2128,2094,2058,2003,1950,1896,1842,1783,1745,1702,1664,1637,1616,1594,1572,1549,1529,1503,1470,1442,1421,1398,1378,1361,1347,1335,1327,1322,1318,1315,1312,1308,1303,1298,1293,1287,1281,1274,1265,1252,1238,1228,1220,1213,1208,1203,1198,1194,1189,1183,1178,1172,1163,1150,1126,1104,1086,1073,1061,1049,1036,1022,1005,989,975,957,935,909,884,858,830,801,773,747,721,695,665,635,604,574,550,533,518,503,490,482,476,471,467,463,460,456,452,447,442,439,435,431,428,424,421,418,415,411,406,400,396,393,394,396,399,403,407,411,416,423,430,436,438,436,429,417,403,382,349,323,297,271,247,217,181,122,54,-22,-107,-193,-271,-343,-390,-442,-489,-516,-533,-544,-543,-528,-509,-499,-491,-484,-478,-472,-467,-460,-452,-446,-441,-436,-431,-425,-419,-409,-392,-376,-366,-355,-341,-320,-290,-260,-231,-198,-166,-134,-103,-71,-43,-27,-19,-13,-8,-4,-2,-3,-8,-17,-30,-46,-69,-108,-136,-164,-192,-218,-240,-259,-277,-296,-314,-332,-351,-370,-392,-419,-451,-471,-485,-496,-503,-505,-507,-507,-508,-509,-510,-513,-515,-512,-502,-491,-482,-475,-469,-462,-454,-446,-435,-423,-411,-400,-391,-384,-378,-371,-365,-360,-355,-350,-344,-338,-331,-325,-320,-315,-312,-309,-306,-303,-300,-298,-296,-293,-289,-285,-281,-276,-271,-266,-261,-255,-250,-244,-239,-235,-231,-227,-223,-218,-214,-209,-206,-201,-197,-192,-188,-183,-180,-176,-173,-170,-166,-162,-158,-153,-148,-143,-138,-132,-127,-122,-117,-113,-110,-105,-100,-95,-89,-83,-76,-68,-60,-53,-47,-44,-43,-41,-40,-37,-34,-32,-30,-27,-23,-17,-11,-3,5,16,41,89,167,255,352,455,494,513,525,486,425,360,299,245,197,147,95,49,32,25,20,15,12,9,7,4,3,1,0,0,0,2,4,5,5,5,6,7,8,9,11,13,16,19,23,26,30,33,36,39,41,43,44,44,45,46,48,50,53,56,58,59,59,58,56,52,47,41,33,26,19,12,6,0,-7,-14,-19,-21,-19,-14,-5,4,15,26,34,43,51,60,67,75,82,87,91,93,95,96,97,98,99,99,99,99,99,100,99,98,97,95,92,88,83,77,72,67,64,61,59,56,53,50,46,43,41,39,37,35,34,34,35,35,37,38,40,42,44,46,47,50,53,57,62,67,73,80,88,102,119,134,146,157,166,171,176,180,184,187,190,193,195,196,198,200,202,203,204,204,204,203,201,199,196,192,187,182,176,171,166,161,156,152,148,145,140,135,130,124,119,115,110,107,105,104,107,111,116,121,126,131,137,142,147,151,155,158,161,165,168,172,175,178,180,182,184,185,187,189,192,195,198,201,204,207,211,216,221,228,239,252,262,273,282,288,293,297,301,305,308,311,313,314,316,318,319,320,321,322,324,327,328,330,330,330,331,331,332,333,333,333,334,334,335,337,339,342,353,359,349,325,287,238,160,81,-1,-77,-144,-211,-285,-359,-406,-456,-503,-537,-564,-588,-612,-636,-660,-684,-708,-735,-760,-780,-800,-822,-839,-853,-866,-879,-893,-905,-912,-917,-922,-926,-930,-935,-939,-942,-944,-947,-949,-951,-952,-952,-951,-950,-948,-946,-944,-942,-938,-935,-931,-927,-923,-919,-915,-909,-904,-900,-895,-889,-882,-874,-867,-861,-855,-850,-845,-840,-834,-828,-820,-813,-805,-798,-789,-781,-775,-770,-765,-761,-757,-754,-750,-747,-745,-742,-740,-737,-735,-734,-732,-731,-729,-727,-724,-719,-714,-701,-673,-625,-557,-470,-368,-258,-158,-100,-81,-97,-144,-219,-289,-338,-366,-394,-429,-470,-503,-515,-521,-526,-529,-531,-533,-534,-534,-532,-530,-525,-519,-512,-506,-501,-496,-491,-486,-480,-476,-471,-467,-464,-460,-457,-452,-446,-439,-429,-420,-410,-400,-393,-386,-379,-373,-367,-361,-356,-350,-344,-337,-329,-321,-311,-303,-296,-291,-287,-283,-280,-276,-272,-269,-265,-262,-258,-253,-243,-224,-205,-188,-174,-159,-143,-117,-81,-53,-33,-10,5,17,27,36,43,48,52,56,60,63,65,67,67,66,63,60,56,51,46,38,27,12,-5,-24,-36,-45,-51,-58,-67,-76,-82,-86,-90,-94,-96,-97,-98,-97,-97,-95,-94,-92,-90,-87,-85,-83,-81,-67,-65,-65,-68,-72,-78,-84,-90,-95,-99,-103,-104,-106,-109,-113,-118,-123,-126,-126,-123,-122,-117,-109,-102,-96,-90,-81,-73,-67,-58,-48,-38,-30,-19,-7,0,4,11,18,24,32,40,47,55,70,91,114,135,154,161,165,168,171,173,175,176,180,184,187,187,182,177,170,161,152,137,126,117,111,109,129,163,197,216,226,236,249,264,281,292,299,310,324,333,338,340,343,348,355,359,357,355,358,366,383,399,408,412,415,420,424,421,417,415,414,411,404,384,347,321,309,299,277,242,202,175,168,168,170,170,169,167,167,171,177,182,187,190,192,192,193,195,193,188,181,173,166,162,163,166,166,165,165,167,169,169,167,162,158,159,163,169,174,178,183,190,198,204,207,209,211,217,223,226,228,231,239,249,258,263,264,264,268,277,285,286,284,285,291,302,313,320,323,323,324,327,330,333,335,335,333,331,330,330,334,339,344,346,347,347,344,342,342,341,335,321,293,271,257,247,235,215,187,152,112,77,45,16,-7,-33,-67,-104,-142,-175,-196,-208,-213,-226,-229,-196,-132,-41,51,125,171,185,167,117,17,-98,-195,-238,-249,-262,-279,-330,-400,-462,-481,-483,-486,-491,-498,-499,-496,-499,-517,-542,-561,-570,-575,-578,-581,-588,-595,-593,-588,-586,-585,-580,-571,-564,-560,-552,-544,-539,-531,-518,-505,-498,-494,-479,-448,-419,-403,-396,-395,-396,-392,-382,-366,-351,-341,-334,-327,-322,-315,-302,-276,-253,-239,-232,-230,-219,-194,-168,-148,-135,-130,-127,-123,-116,-110,-106,-100,-90,-76,-66,-63,-55,-34,-6,27,52,63,68,74,84,95,101,102,97,92,86,78,67,53,41,29,20,18,18,16,13,9,7,8,12,16,14,7,1,0,4,5,0,-7,-13,-14,-8,-2,-1,-6,-9,-8,-2,3,7,9,10,13,16,22,29,35,37,36,38,43,48,50,49,49,50,49,49,52,58,65,75,92,107,120,124,124,126,131,133,132,131,133,134,135,136,139,143,144,145,149,156,159,158,157,159,161,165,167,170,172,170,165,162,162,163,163,164,166,169,170,171,175,181,184,185,183,184,185,184,184,186,187,186,183,180,178,179,180,179,179,180,178,175,172,171,174,178,180,180,180,180,179,177,176,177,178,175,171,168,166,161,154,149,144,140,135,130,128,126,124,121,120,118,116,114,113,114,114,113,113,112,113,115,117,116,113,109,104,101,99,93,84,75,70,68,68,70,72,72,69,67,67,67,66,65,65,65,65,63,63,62,61,59,58,56,54,51,49,49,48,44,44,42,41,40,38,38,36,33,32,32,30,25,21,20,21,22,21,19,15,9,7,7,10,12,13,12,11,11,12,14,15,15,16,16,12,9,7,6,4,2,1,3,4,1,1,4,7,8,9,13,15,15,14,13,15,15,16,15,14,11,6,2,0,-3,-5,-5,-7,-9,-6,0,32,104,195,302,413,504,548,567,552,494,421,343,267,194,128,72,50,37,25,13,-1,-15,-18,-19,-24,-32,-40,-45,-45,-43,-39,-37,-38,-41,-45,-47,-49,-52,-54,-56,-56,-57,-56,-53,-50,-48,-48,-47,-45,-45,-44,-42,-39,-38,-41,-43,-41,-39,-39,-39,-39,-41,-44,-46,-46,-45,-44,-48,-48,-43,-38,-33,-29,-27,-26,-24,-22,-17,-5,7,15,22,29,35,41,48,55,63,72,80,87,94,104,112,118,124,128,129,129,128,127,127,127,125,124,125,122,117,110,101,87,63,44,28,11,-10,-22,-28,-31,-33,-33,-36,-38,-41,-43,-43,-43,-44,-45,-46,-49,-50,-52,-52,-52,-52,-51,-50,-52,-54,-57,-57,-55,-50,-46,-43,-40,-36,-33,-29,-26,-24,-23,-24,-25,-27,-30,-33,-35,-37,-39,-40,-41,-42,-43,-44,-45,-46,-46,-46,-46,-47,-46,-46,-45,-43,-43,-42,-42,-43,-43,-44,-44,-44,-44,-43,-43,-43,-42,-42,-42,-42,-43,-44,-44,-44,-44,-44,-43,-42,-40,-39,-38,-37,-37,-37,-36,-36,-35,-35,-36,-36,-35,-34,-33,-33,-33,-34,-35,-36,-37,-38,-39,-40,-41,-41,-42,-42,-42,-42,-42,-41,-42,-42,-43,-45,-46,-47,-48,-48,-49,-50,-51,-51,-51,-50,-49,-48,-48,-48,-50,-51,-52,-52,-51,-51,-51,-50,-50,-49,-48,-46,-45,-44,-44,-44,-45,-45,-45,-45,-45,-46,-46,-45,-45,-45,-44,-44,-44,-43,-42,-41,-40,-40,-39,-38,-37,-36,-36,-35,-34,-33,-32,-32,-32,-32,-33,-33,-33,-33,-34,-34,-33,-31,-29,-27,-25,-23,-21,-20,-19,-18,-18,-18,-17,-16,-14,-13,-13,-12,-12,-11,-10,-11,-13,-14,-15,-14,-13,-12,-12,-11,-10,-9,-7,-5,-5,-4,-4,-3,-2,-2,-2,-3,-5,-6,-8,-11,-14,-17,-19,-21,-22,-24,-26,-30,-35,-42,-48,-53,-56,-58,-59,-60,-59,-57,-54,-50,-47,-43,-27,34,121,226,340,444,502,522,501,438,352,267,196,157,121,85,55,34,24,17,13,10,4,-3,-9,-12,-15,-18,-20,-21,-22,-23,-24,-26,-27,-27,-26,-25,-24,-23,-22,-22,-21,-20,-19,-18,-17,-16,-14,-13,-12,-12,-11,-10,-9,-8,-7,-6,-5,-4,-3,-3,-3,-3,-3,-2,0,1,4,6,9,12,14,16,18,21,23,27,31,36,42,50,58,66,75,85,93,100,107,113,120,125,129,132,134,137,139,140,142,143,144,145,146,147,146,144,141,136,129,122,110,88,74,60,46,31,20,13,5,-2,-10,-13,-16,-18,-21,-24,-27,-30,-32,-34,-35,-36,-36,-36,-35,-33,-31,-29,-27,-26,-25,-23,-22,-21,-20,-19,-17,-15,-12,-9,-5,-1,1,4,8,12,17,20,23,26,28,30,33,37,40,43,46,48,51,52,53,53,51,49,46,44,41,39,36,34,31,29,25,21,17,15,15,16,19,21,23,25,27,29,31,31,31,29,26,23,21,18,16,13,11,9,9,12,15,20,24,29,33,36,40,42,45,47,49,52,56,59,62,66,69,72,75,77,79,81,82,85,87,90,92,95,99,103,106,109,112,113,115,116,117,118,119,120,121,123,125,128,131,134,137,139,142,144,146,148,149,151,152,154,157,159,162,166,169,173,177,181,185,189,193,196,200,204,207,211,216,220,223,227,230,233,236,239,241,242,243,244,245,247,248,249,250,252,254,256,258,260,261,263,265,267,269,271,272,275,279,282,286,287,287,285,282,277,271,264,249,222,198,172,159,153,149,145,142,139,137,134,133,131,130,129,127,124,117,98,79,65,52,34,11,-13,-38,-65,-91,-109,-120,-131,-141,-149,-156,-162,-167,-172,-178,-189,-207,-220,-229,-229,-220,-193,-153,-100,-38,25,84,115,126,107,52,-27,-106,-171,-218,-247,-276,-307,-361,-420,-475,-517,-544,-565,-579,-588,-596,-599,-601,-603,-605,-607,-609,-611,-613,-614,-615,-615,-615,-615,-614,-613,-612,-610,-609,-607,-604,-602,-598,-594,-587,-570,-555,-541,-527,-507,-497,-492,-487,-484,-482,-479,-476,-473,-470,-467,-464,-462,-459,-456,-453,-450,-448,-446,-443,-441,-438,-435,-433,-430,-427,-424,-421,-416,-410,-404,-398,-392,-386,-378,-369,-358,-344,-327,-308,-287,-277,-271,-266,-262,-259,-257,-255,-254,-254,-255,-258,-262,-266,-271,-276,-281,-286,-291,-295,-298,-301,-304,-307,-310,-313,-316,-318,-320,-322,-323,-324,-324,-323,-321,-318,-316,-314,-312,-310,-307,-304,-302,-300,-299,-298,-296,-293,-290,-287,-284,-280,-276,-271,-267,-263,-259,-254,-249,-241,-229,-218,-208,-200,-193,-188,-183,-179,-174,-169,-164,-159,-154,-147,-139,-129,-118,-106,-95,-89,-84,-80,-76,-72,-69,-66,-64,-63,-64,-65,-66,-67,-70,-73,-76,-80,-83,-86,-89,-92,-96,-102,-106,-110,-111,-109,-103,-96,-89,-82,-77,-72,-67,-64,-61,-58,-54,-51,-48,-45,-42,-39,-38,-36,-33,-31,-29,-26,-24,-22,-18,-13,-6,0,5,10,15,20,24,28,32,36,39,43,47,52,58,64,73,89,101,111,120,128,137,150,164,173,180,186,191,196,201,206,211,216,221,227,233,241,253,265,275,283,289,292,295,297,299,301,303,304,305,307,309,310,311,312,313,314,314,313,312,311,309,307,305,304,302,300,298,297,297,298,298,297,295,294,293,293,292,290,288,287,288,292,299,307,313,317,322,327,332,337,340,342,343,343,342,340,337,333,328,322,316,308,292,278,264,251,237,223,208,193,178,163,148,136,127,119,111,103,96,90,86,82,79,74,68,63,57,53,49,44,39,33,28,26,27,30,34,41,50,87,139,207,298,401,493,533,546,524,459,383,317,265,213,152,95,37,-26,-44,-47,-48,-49,-49,-50,-51,-51,-51,-51,-50,-50,-47,-44,-41,-37,-34,-32,-29,-27,-25,-23,-21,-20,-19,-18,-18,-18,-18,-19,-21,-23,-26,-30,-33,-37,-41,-44,-47,-51,-54,-57,-60,-61,-60,-56,-51,-44,-37,-29,-21,-10,0,8,13,16,18,19,20,20,21,22,22,23,25,28,30,33,36,38,41,46,51,57,63,71,81,89,92,95,97,98,99,100,101,101,92,80,67,52,34,12,0,-10,-19,-27,-34,-40,-44,-47,-50,-53,-56,-58,-60,-61,-63,-65,-67,-70,-72,-73,-73,-72,-70,-67,-62,-56,-49,-42,-35,-29,-22,-15,-8,-1,6,14,22,30,39,48,58,67,76,83,90,97,103,108,111,114,116,119,121,124,127,129,131,133,136,138,139,140,140,140,139,137,136,134,131,128,125,122,118,115,111,107,103,99,95,90,84,75,66,57,48,40,32,25,18,12,7,2,-2,-6,-9,-13,-17,-21,-24,-28,-31,-34,-36,-38,-40,-42,-45,-47,-49,-52,-55,-58,-61,-63,-66,-69,-72,-75,-77,-78,-79,-80,-82,-83,-84,-85,-86,-87,-88,-89,-91,-91,-91,-92,-92,-93,-93,-92,-92,-92,-93,-95,-98,-100,-101,-103,-105,-107,-109,-111,-111,-111,-111,-111,-112,-112,-112,-112,-111,-111,-111,-112,-112,-111,-110,-110,-109,-109,-109,-109,-109,-109,-109,-110,-111,-112,-112,-114,-115,-116,-118,-119,-120,-121,-122,-122,-122,-122,-122,-121,-121,-121,-121,-120,-120,-121,-121,-121,-122,-122,-122,-122,-122,-122,-123,-125,-126,-127,-128,-129,-129,-130,-131,-131,-129,-126,-123,-118,-113,-106,-99,-90,-75,-60,-45,-32,-24,-19,-15,-12,-10,-9,-8,-7,-6,-3,-1,1,2,3,3,4,6,8,10,13,18,50,114,202,306,412,495,525,526,495,413,315,238,210,197,181,152,112,64,33,17,6,-1,-7,-12,-17,-21,-24,-28,-31,-33,-35,-36,-37,-39,-42,-44,-47,-49,-50,-51,-50,-49,-48,-46,-45,-44,-43,-41,-38,-36,-33,-31,-28,-25,-22,-17,-13,-8,-4,0,8,19,29,39,49,58,66,73,80,86,92,98,103,107,112,118,126,137,150,163,177,187,195,203,211,219,227,234,242,250,260,270,279,286,294,301,310,321,332,339,345,351,358,363,362,353,340,327,311,298,287,274,257,228,204,186,171,160,151,139,123,108,100,94,89,85,82,82,83,85,88,92,95,99,103,107,111,114,119,124,129,134,140,146,150,149,143,135,128,124,120,117,115,112,110,107,106,104,101,98,96,94,93,92,90,88,85,81,76,70,54,41,29,19,10,1,-7,-16,-21,-26,-30,-33,-35,-37,-41,-44,-46,-50,-53,-58,-62,-69,-79,-89,-96,-104,-115,-127,-133,-135,-136,-137,-138,-139,-140,-142,-143,-144,-146,-147,-147,-145,-142,-139,-135,-132,-128,-124,-121,-117,-113,-111,-109,-107,-104,-101,-98,-95,-92,-89,-86,-83,-81,-80,-79,-81,-83,-86,-89,-93,-97,-101,-105,-110,-114,-117,-120,-122,-124,-127,-129,-131,-132,-133,-134,-135,-137,-139,-141,-142,-142,-142,-142,-142,-142,-141,-141,-141,-141,-141,-141,-142,-142,-143,-144,-145,-146,-146,-147,-149,-151,-153,-153,-149,-140,-130,-121,-115,-109,-104,-99,-94,-90,-86,-82,-78,-75,-72,-70,-69,-68,-67,-66,-66,-65,-64,-63,-62,-59,-56,-53,-50,-46,-41,-36,-30,-24,-19,-15,-11,-8,-5,-3,-1,1,3,5,8,11,14,17,19,20,21,21,21,20,20,20,21,22,23,25,28,31,35,39,43,47,52,59,67,103,153,219,301,396,496,584,637,655,637,582,500,423,362,326,290,254,217,186,175,170,167,165,164,163,162,161,160,159,157,155,153,152,150,148,145,143,140,137,134,130,124,115,108,101,95,89,81,73,63,52,41,31,23,15,8,1,-4,-8,-13,-16,-20,-23,-25,-27,-28,-28,-26,-23,-18,-13,-6,1,10,25,39,48,56,65,74,83,92,102,113,126,139,153,168,182,197,210,221,230,239,248,259,270,277,283,289,295,299,302,302,300,295,289,283,275,265,250,234,219,204,191,178,167,159,154,151,150,149,148,146,144,142,142,142,142,143,144,146,149,153,158,162,165,167,170,172,175,178,180,182,183,184,185,187,189,190,191,192,193,195,197,199,201,203,204,206,207,208,209,210,210,211,213,216,220,222,223,221,217,211,203,193,179,154,132,115,102,90,77,64,51,39,25,9,-7,-17,-26,-33,-39,-44,-49,-54,-58,-62,-66,-70,-75,-80,-85,-92,-98,-106,-114,-120,-123,-126,-129,-132,-136,-139,-142,-144,-147,-150,-152,-153,-153,-153,-153,-152,-152,-151,-150,-148,-145,-143,-141,-139,-137,-134,-131,-128,-125,-123,-122,-120,-118,-116,-116,-115,-115,-114,-114,-114,-114,-114,-114,-115,-115,-115,-115,-116,-117,-119,-120,-121,-122,-122,-122,-122,-123,-123,-124,-124,-125,-126,-127,-129,-130,-131,-133,-134,-136,-137,-138,-140,-141,-143,-145,-146,-148,-149,-150,-151,-151,-151,-151,-150,-150,-149,-148,-147,-147,-147,-148,-148,-147,-146,-145,-143,-141,-139,-136,-133,-130,-128,-126,-124,-123,-121,-120,-118,-117,-115,-114,-113,-111,-109,-107,-104,-102,-99,-97,-94,-92,-90,-88,-86,-84,-83,-81,-80,-80,-80,-80,-80,-80,-79,-78,-78,-77,-76,-74,-72,-71,-69,-66,-46,7,85,178,276,365,410,424,400,329,239,157,111,67,26,-11,-49,-62,-67,-70,-73,-74,-76,-77,-79,-80,-81,-83,-84,-86,-86,-87,-87,-87,-87,-87,-88,-89,-90,-90,-89,-88,-88,-88,-88,-89,-89,-88,-88,-88,-88,-89,-88,-88,-87,-87,-87,-87,-87,-86,-84,-83,-81,-80,-79,-77,-76,-75,-74,-73,-73,-72,-72,-71,-69,-68,-67,-65,-62,-59,-55,-52,-48,-44,-40,-34,-28,-21,-13,-6,1,14,27,37,40,42,43,44,45,46,48,49,49,46,39,29,19,7,-7,-23,-37,-51,-64,-77,-90,-107,-123,-133,-140,-147,-154,-160,-165,-169,-171,-172,-172,-173,-173,-173,-172,-172,-171,-169,-168,-167,-166,-166,-165,-164,-163,-162,-160,-158,-156,-154,-151,-149,-148,-146,-145,-144,-144,-143,-143,-143,-143,-144,-144,-144,-144,-144,-145,-145,-146,-147,-149,-150,-151,-152,-152,-152,-152,-152,-152,-151,-149,-148,-146,-145,-144,-144,-143,-143,-143,-143,-142,-142,-142,-142,-140,-138,-136,-134,-132,-130,-129,-127,-124,-122,-121,-119,-118,-114,-104,-91,-80,-70,-61,-53,-45,-35,-25,-15,-5,2,8,14,20,25,30,33,35,38,42,46,50,54,56,59,63,68,73,79,83,87,94,101,108,115,121,126,129,133,138,143,148,151,154,156,158,160,163,165,167,169,171,174,178,183,188,194,201,209,216,224,233,242,249,254,258,261,263,264,266,268,270,272,273,275,276,276,273,269,263,257,250,245,240,235,229,223,217,214,211,210,210,211,214,217,223,229,236,242,247,251,256,262,268,274,280,285,290,294,297,300,302,303,304,306,307,307,307,306,304,303,302,301,300,299,299,299,300,302,303,304,305,306,307,307,308,309,310,311,312,314,315,317,318,321,324,327,331,333,335,336,337,339,342,346,352,385,455,542,640,732,790,809,795,752,687,623,583,541,494,442,390,355,335,320,309,299,284,263,245,237,233,229,226,224,223,222,221,219,217,215,213,212,211,210,208,207,205,204,202,201,201,200,199,197,196,194,192,190,188,186,184,181,179,176,172,167,162,155,148,140,132,125,118,111,105,100,97,94,91,89,87,85,84,83,82,82,82,83,85,86,87,88,89,90,91,92,92,93,93,93,92,91,89,84,75,64,51,37,24,12,0,-16,-34,-53,-71,-89,-107,-125,-147,-166,-182,-196,-208,-213,-215,-218,-220,-221,-222,-222,-223,-224,-225,-225,-226,-226,-226,-226,-226,-226,-225,-224,-223,-222,-221,-221,-220,-219,-219,-220,-221,-223,-225,-227,-227,-228,-228,-229,-230,-231,-231,-231,-232,-236,-241,-247,-250,-250,-250,-249,-248,-248,-247,-245,-244,-243,-243,-245,-250,-255,-260,-266,-273,-280,-285,-289,-291,-292,-293,-294,-295,-296,-296,-295,-293,-290,-286,-283,-280,-275,-270,-265,-263,-264,-267,-272,-277,-281,-288,-295,-298,-296,-291,-286,-284,-283,-282,-281,-280,-279,-278,-277,-276,-276,-276,-276,-275,-275,-276,-277,-278,-278,-278,-278,-277,-277,-276,-275,-274,-272,-271,-270,-270,-269,-267,-265,-263,-262,-260,-258,-254,-249,-243,-238,-234,-229,-224,-214,-198,-179,-168,-163,-159,-155,-151,-145,-139,-136,-133,-128,-121,-88,-38,14
