-24,-31,-41,-51,-61,-67,-71,-74,-77,-80,-82,-85,-87,-89,-91,-91,-91,-87,-82,-77,-71,-66,-61,-55,-50,-44,-40,-36,-32,-28,-24,-20,-16,-11,-6,2,12,24,37,49,61,72,80,86,91,100,113,130,148,166,186,206,225,242,251,258,262,266,269,270,270,268,264,259,251,242,229,204,185,160,132,107,79,55,37,20,4,-11,-32,-42,-46,-50,-53,-55,-58,-60,-62,-65,-68,-71,-74,-76,-79,-81,-83,-85,-87,-88,-89,-91,-94,-97,-99,-102,-104,-106,-107,-108,-109,-111,-111,-111,-111,-110,-110,-109,-108,-107,-106,-105,-103,-101,-99,-98,-97,-96,-95,-93,-91,-89,-88,-87,-86,-85,-85,-84,-83,-83,-83,-84,-84,-83,-83,-82,-82,-81,-80,-80,-80,-80,-80,-81,-81,-81,-81,-81,-81,-81,-81,-80,-79,-79,-79,-79,-79,-79,-79,-79,-80,-81,-82,-82,-82,-81,-81,-82,-82,-83,-82,-81,-81,-81,-81,-81,-81,-81,-80,-79,-78,-77,-77,-76,-75,-74,-74,-74,-74,-73,-73,-73,-73,-74,-74,-74,-73,-72,-72,-73,-73,-73,-73,-72,-71,-70,-70,-70,-71,-70,-70,-70,-70,-71,-71,-72,-71,-71,-71,-70,-69,-67,-66,-65,-64,-63,-62,-61,-59,-56,-54,-52,-48,-44,-38,-33,-29,-25,-21,-18,-14,-10,-6,-2,2,8,14,20,25,29,33,37,41,43,45,46,47,48,49,51,52,53,53,54,54,53,52,50,48,46,43,40,37,34,31,29,26,21,8,0,-8,-15,-13,0,36,96,180,285,400,512,602,648,665,664,643,588,498,390,275,169,89,36,16,10,7,4,1,0,-1,-2,-2,-2,-2,-1,1,4,8,12,16,19,23,31,39,47,54,59,62,65,67,70,72,74,75,76,78,81,83,85,87,90,92,95,98,102,106,112,121,132,141,147,153,163,178,193,206,217,227,238,256,282,306,323,339,347,353,358,361,364,365,366,366,364,361,357,352,346,333,306,279,251,220,186,146,114,91,74,53,32,12,-3,-12,-19,-24,-29,-32,-35,-38,-40,-42,-43,-43,-43,-42,-43,-44,-45,-45,-45,-45,-45,-45,-45,-45,-44,-43,-42,-41,-41,-41,-42,-43,-45,-47,-49,-50,-50,-50,-50,-50,-50,-50,-50,-50,-52,-54,-56,-59,-62,-66,-71,-77,-82,-86,-90,-94,-97,-102,-108,-113,-118,-122,-125,-128,-130,-131,-132,-132,-131,-131,-131,-130,-131,-131,-131,-131,-131,-131,-131,-130,-129,-128,-127,-126,-125,-123,-121,-120,-119,-118,-117,-117,-116,-115,-115,-116,-116,-117,-118,-118,-119,-119,-120,-120,-120,-120,-121,-121,-122,-122,-123,-124,-124,-124,-124,-123,-121,-120,-118,-116,-114,-113,-111,-110,-108,-107,-105,-104,-104,-103,-103,-102,-100,-98,-97,-96,-95,-94,-93,-91,-90,-88,-87,-86,-84,-83,-81,-80,-77,-75,-72,-69,-66,-63,-61,-59,-56,-55,-54,-53,-53,-53,-52,-51,-51,-50,-49,-48,-47,-46,-45,-43,-42,-40,-37,-33,-29,-22,-5,8,19,33,49,62,72,82,86,80,69,60,53,46,40,32,26,21,17,13,10,7,4,0,-3,-7,-11,-15,-20,-25,-33,-49,-57,-53,-44,-17,34,119,235,387,548,690,779,787,738,598,424,275,164,105,79,46,-2,-40,-56,-56,-42,-31,-21,-14,-15,-22,-31,-36,-41,-44,-47,-50,-52,-54,-53,-51,-47,-42,-35,-28,-20,-12,-4,2,8,14,18,22,24,27,30,32,35,37,40,42,45,49,54,58,62,67,75,85,96,108,119,130,141,152,161,168,175,182,190,201,211,219,227,243,267,282,291,297,297,291,282,267,241,213,185,154,122,87,54,28,9,-6,-17,-24,-30,-36,-41,-45,-49,-55,-63,-77,-93,-101,-106,-111,-114,-116,-118,-118,-117,-116,-113,-111,-109,-106,-103,-100,-97,-95,-92,-89,-87,-84,-82,-80,-79,-78,-77,-76,-74,-72,-70,-68,-67,-65,-64,-63,-61,-60,-60,-60,-60,-60,-60,-60,-60,-61,-62,-62,-63,-64,-65,-65,-67,-68,-70,-71,-72,-73,-75,-77,-79,-80,-80,-81,-81,-80,-80,-80,-80,-80,-79,-79,-79,-78,-78,-77,-76,-75,-73,-69,-66,-62,-60,-58,-56,-54,-53,-51,-50,-49,-47,-45,-43,-40,-38,-37,-35,-32,-29,-26,-23,-20,-16,-10,-4,0,3,5,7,10,13,17,19,19,14,8,2,-1,-4,-9,-13,-16,-17,-15,-12,-8,-4,-1,1,5,9,12,15,18,20,21,22,22,21,18,14,10,5,1,-3,-8,-12,-16,-19,-23,-26,-30,-33,-37,-41,-44,-47,-50,-52,-55,-57,-59,-62,-63,-65,-68,-70,-72,-75,-77,-80,-83,-86,-89,-92,-94,-95,-96,-98,-100,-103,-107,-115,-120,-114,-99,-58,24,146,296,452,586,655,655,591,457,299,157,62,-2,-36,-88,-144,-167,-182,-192,-174,-163,-157,-153,-150,-148,-146,-143,-141,-137,-134,-131,-129,-127,-125,-123,-118,-113,-103,-92,-80,-69,-63,-60,-57,-55,-53,-51,-49,-47,-46,-46,-44,-42,-40,-39,-38,-38,-38,-37,-35,-33,-30,-26,-19,-2,16,37,57,76,101,134,162,183,201,224,252,274,291,304,312,318,323,326,326,321,313,302,288,265,244,217,183,149,114,87,69,59,53,49,46,43,41,39,40,44,51,60,68,75,83,92,100,105,109,111,113,113,115,116,118,120,121,123,125,127,130,132,135,137,139,141,143,148,152,156,157,154,149,143,137,134,130,126,122,119,115,113,110,109,108,108,109,111,113,116,119,124,129,134,138,145,159,172,184,204,232,249,261,265,261,248,216,167,110,55,5,-26,-50,-66,-73,-66,-49,-32,-14,-3,3,9,14,18,23,28,33,38,42,46,49,49,43,34,24,14,2,-8,-18,-28,-39,-50,-59,-64,-68,-73,-79,-82,-75,-60,-42,-20,0,29,62,95,127,151,167,174,176,179,181,183,182,175,161,139,108,78,50,22,-4,-31,-60,-87,-105,-115,-121,-125,-128,-130,-132,-134,-138,-142,-146,-151,-156,-161,-168,-176,-181,-181,-177,-169,-161,-155,-149,-142,-135,-128,-123,-117,-112,-107,-101,-95,-91,-92,-98,-107,-118,-132,-154,-167,-184,-207,-234,-257,-267,-272,-276,-280,-283,-287,-290,-293,-297,-303,-317,-345,-367,-380,-386,-383,-373,-344,-296,-220,-107,38,218,413,597,728,775,725,597,419,253,127,27,-55,-102,-118,-124,-129,-110,-94,-81,-73,-74,-81,-93,-104,-118,-127,-134,-138,-142,-146,-149,-151,-151,-148,-144,-137,-130,-122,-113,-98,-88,-86,-85,-84,-83,-82,-81,-80,-80,-82,-83,-85,-86,-88,-90,-92,-94,-96,-96,-93,-88,-79,-69,-48,-14,16,48,81,111,138,168,193,212,229,244,257,266,273,279,286,290,290,284,274,259,234,209,183,153,126,101,72,39,8,-21,-46,-62,-71,-84,-100,-111,-121,-128,-134,-139,-142,-146,-149,-151,-154,-156,-157,-158,-158,-155,-151,-145,-138,-131,-123,-112,-101,-93,-87,-82,-80,-78,-76,-75,-73,-72,-71,-71,-70,-69,-68,-67,-66,-65,-65,-65,-65,-65,-66,-66,-67,-67,-68,-69,-69,-70,-69,-69,-68,-68,-68,-69,-70,-71,-73,-74,-76,-77,-79,-79,-78,-76,-75,-73,-71,-69,-66,-64,-61,-59,-57,-55,-53,-50,-45,-40,-35,-30,-26,-23,-20,-16,-13,-11,-9,-8,-6,-3,0,2,4,5,6,6,5,3,0,-3,-8,-13,-17,-22,-32,-40,-44,-47,-50,-54,-55,-50,-42,-39,-38,-35,-33,-31,-29,-28,-27,-27,-26,-26,-26,-26,-27,-29,-30,-31,-32,-33,-34,-35,-37,-38,-39,-40,-40,-41,-41,-42,-42,-42,-41,-41,-41,-41,-41,-39,-34,-28,-23,-19,-16,-13,-10,-8,-6,-5,-3,-2,0,1,3,5,7,9,10,12,14,16,18,20,24,28,32,34,34,31,27,22,16,11,6,1,-2,-7,-11,-16,-20,-25,-29,-34,-38,-42,-45,-49,-52,-54,-56,-58,-61,-65,-71,-74,-69,-53,-10,61,160,289,439,594,728,794,792,718,567,408,269,149,58,-3,-54,-74,-74,-60,-38,-17,-6,0,0,-9,-15,-20,-24,-26,-26,-24,-19,-14,-8,-2,6,16,25,34,41,47,53,58,63,67,72,75,77,80,82,85,87,90,93,96,99,103,107,111,116,122,130,136,142,147,152,159,169,180,195,212,232,249,266,283,303,317,328,336,340,340,341,341,342,343,341,330,313,291,270,245,216,186,153,122,92,62,40,26,12,-1,-17,-35,-54,-68,-78,-86,-90,-92,-94,-96,-100,-102,-92,-75,-67,-63,-59,-55,-52,-49,-45,-42,-39,-37,-35,-34,-32,-31,-30,-29,-29,-29,-29,-29,-28,-27,-26,-25,-23,-22,-21,-20,-19,-19,-19,-18,-18,-18,-17,-17,-17,-17,-17,-16,-16,-16,-17,-18,-19,-21,-22,-23,-24,-26,-27,-29,-30,-30,-30,-30,-30,-30,-30,-30,-30,-29,-29,-29,-30,-30,-30,-30,-29,-29,-30,-30,-31,-31,-30,-30,-30,-31,-33,-34,-35,-36,-36,-37,-39,-40,-41,-41,-41,-40,-40,-39,-38,-36,-34,-31,-28,-26,-24,-23,-21,-20,-18,-16,-14,-12,-11,-9,-8,-6,-6,-6,-6,-8,-11,-13,-15,-18,-20,-23,-25,-27,-29,-31,-33,-35,-38,-42,-44,-45,-45,-44,-42,-39,-36,-32,-28,-25,-22,-20,-17,-16,-14,-12,-10,-8,-5,-2,0,1,3,5,7,9,10,12,13,16,19,22,25,27,29,29,29,28,25,21,16,10,5,1,-1,-5,-10,-15,-20,-25,-29,-33,-36,-37,-37,-36,-35,-33,-30,-26,-21,-15,-8,0,41,127,248,400,564,700,757,754,682,542,392,267,165,92,21,-43,-86,-102,-102,-79,-41,-14,-4,2,-15,-26,-31,-36,-39,-41,-43,-45,-46,-48,-49,-49,-48,-45,-42,-38,-34,-29,-24,-19,-15,-12,-8,-5,-1,2,6,10,13,15,18,21,24,26,29,33,37,43,50,57,64,72,81,91,103,116,128,140,155,176,197,215,230,240,247,251,256,259,261,261,258,250,240,222,192,164,135,104,74,46,15,-10,-26,-41,-55,-66,-76,-85,-90,-94,-97,-98,-99,-100,-101,-102,-102,-103,-104,-105,-106,-107,-108,-108,-109,-109,-110,-111,-111,-112,-112,-112,-112,-112,-112,-111,-111,-110,-109,-108,-107,-105,-103,-102,-100,-98,-96,-93,-91,-89,-87,-85,-82,-79,-76,-72,-68,-64,-60,-55,-50,-45,-42,-39,-37,-35,-33,-31,-29,-27,-25,-23,-21,-19,-17,-15,-13,-12,-10,-8,-7,-5,-4,-3,-2,-1,0,0,1,2,3,4,5,5,4,4,2,1,0,-2,-3,-5,-6,-6,-7,-7,-7,-7,-7,-7,-8,-8,-9,-9,-10,-10,-9,-7,-5,-2,1,5,8,11,13,14,15,16,17,18,19,20,21,22,23,24,26,27,27,28,29,30,32,33,34,35,36,36,37,37,38,38,39,40,42,44,47,49,50,52,53,55,57,58,60,65,71,78,82,83,79,72,64,58,54,50,45,41,36,33,30,27,24,21,18,16,15,15,16,17,17,18,19,20,22,25,27,30,33,50,123,227,355,494,623,700,725,694,600,447,297,169,90,33,-3,-28,-43,-54,-59,-59,-55,-51,-49,-47,-45,-44,-43,-40,-38,-34,-31,-26,-22,-18,-13,-8,-3,1,6,12,18,24,30,35,39,43,46,50,53,57,60,65,72,81,89,97,105,113,120,127,134,141,148,153,159,166,175,186,198,211,224,236,249,263,279,295,306,315,324,331,336,338,337,334,330,324,316,301,271,241,210,177,146,114,86,62,36,14,-1,-17,-33,-49,-66,-72,-75,-77,-80,-82,-85,-87,-89,-90,-91,-91,-92,-92,-92,-91,-90,-88,-87,-86,-84,-83,-81,-80,-78,-77,-76,-75,-73,-72,-72,-71,-70,-67,-63,-60,-60,-63,-67,-71,-73,-75,-77,-79,-81,-83,-84,-85,-85,-84,-83,-82,-80,-78,-76,-73,-70,-66,-58,-54,-61,-73,-78,-82,-85,-89,-92,-95,-98,-100,-101,-102,-102,-101,-100,-98,-97,-96,-95,-94,-94,-93,-93,-93,-93,-93,-92,-91,-90,-90,-90,-90,-91,-92,-94,-96,-99,-101,-103,-104,-105,-106,-108,-109,-110,-111,-111,-112,-113,-113,-113,-112,-111,-108,-106,-103,-100,-96,-93,-90,-88,-86,-84,-82,-80,-79,-78,-77,-76,-75,-73,-72,-71,-70,-69,-68,-68,-67,-67,-68,-68,-69,-70,-70,-70,-70,-69,-68,-67,-66,-65,-65,-64,-64,-65,-65,-66,-66,-66,-65,-64,-62,-60,-58,-56,-52,-48,-44,-39,-35,-27,-10,4,16,23,28,33,37,40,43,44,44,43,40,37,33,28,22,15,1,-11,-24,-32,-38,-43,-47,-51,-55,-59,-62,-65,-69,-73,-80,-85,-85,-79,-64,-23,51,165,309,472,621,718,732,706,600,461,320,203,97,15,-57,-97,-111,-100,-82,-58,-42,-32,-26,-24,-27,-33,-39,-42,-45,-48,-50,-53,-55,-57,-57,-57,-55,-53,-51,-48,-44,-39,-34,-30,-25,-20,-15,-10,-5,-1,1,4,7,12,17,23,30,37,44,51,58,67,76,86,97,113,135,149,163,177,195,211,224,235,244,256,268,274,277,279,282,283,283,279,273,265,255,239,226,212,197,180,159,132,105,79,58,43,25,15,9,5,1,-3,-8,-13,-18,-23,-27,-31,-36,-40,-43,-46,-49,-52,-54,-56,-58,-60,-63,-69,-73,-72,-63,-53,-48,-46,-43,-42,-41,-40,-38,-37,-37,-36,-35,-34,-34,-34,-34,-35,-35,-36,-36,-36,-35,-35,-33,-32,-30,-29,-27,-25,-24,-22,-21,-19,-16,-14,-12,-11,-10,-10,-11,-12,-15,-18,-22,-26,-29,-32,-34,-36,-38,-39,-40,-40,-40,-40,-39,-39,-39,-38,-38,-37,-37,-36,-36,-36,-35,-34,-33,-32,-32,-31,-31,-31,-32,-32,-33,-34,-36,-37,-38,-39,-39,-39,-38,-37,-36,-35,-35,-34,-34,-34,-35,-36,-37,-37,-37,-36,-35,-34,-34,-33,-33,-33,-34,-35,-37,-38,-39,-40,-41,-41,-41,-40,-40,-40,-41,-41,-38,-31,-24,-21,-19,-17,-16,-14,-13,-12,-11,-10,-9,-9,-8,-8,-7,-7,-6,-6,-5,-3,-1,1,4,8,12,16,21,30,39,46,49,51,52,54,55,55,56,57,58,58,54,47,38,31,25,19,13,7,1,-4,-8,-10,-12,-14,-17,-22,-29,-43,-54,-63,-72,-72,-61,-30,27,120,249,404,564,696,764,765,702,562,389,232,113,33,-25,-77,-98,-110,-118,-104,-88,-75,-75,-89,-98,-105,-112,-116,-117,-114,-109,-102,-95,-89,-84,-78,-72,-67,-63,-60,-57,-56,-55,-55,-55,-56,-56,-57,-57,-57,-57,-56,-55,-54,-54,-53,-52,-51,-49,-47,-44,-41,-34,-17,-1,14,32,49,67,85,111,135,155,170,181,188,192,196,200,202,204,205,204,201,197,191,183,174,160,135,116,92,60,34,14,-10,-30,-45,-59,-74,-87,-100,-112,-122,-127,-130,-133,-134,-135,-136,-137,-139,-140,-141,-141,-141,-141,-140,-138,-136,-132,-127,-123,-119,-115,-112,-110,-107,-105,-103,-101,-99,-97,-94,-92,-90,-89,-88,-87,-87,-86,-85,-84,-84,-83,-82,-81,-79,-78,-76,-75,-74,-73,-71,-69,-67,-65,-62,-58,-52,-45,-39,-34,-29,-24,-20,-17,-14,-12,-9,-7,-6,-5,-4,-4,-5,-6,-7,-10,-12,-15,-17,-20,-21,-23,-25,-28,-30,-33,-35,-37,-38,-38,-37,-35,-30,-25,-19,-13,-7,-3,0,2,5,8,11,13,16,18,21,23,24,26,27,27,28,29,30,30,31,32,34,35,37,38,40,41,42,43,43,43,42,42,42,42,43,43,44,44,44,45,44,44,43,42,41,40,40,40,40,40,41,43,45,47,50,52,55,58,62,65,68,72,79,88,96,101,103,106,108,112,117,120,119,109,94,82,68,56,44,32,24,16,10,5,1,-2,-4,-6,-7,-8,-10,-12,-16,-19,-19,-17,-10,1,38,110,214,341,478,604,694,706,676,555,400,252,140,64,24,-10,-48,-73,-91,-99,-88,-69,-56,-46,-37,-29,-24,-21,-19,-16,-15,-13,-12,-11,-12,-13,-14,-15,-17,-17,-17,-17,-16,-14,-13,-11,-9,-8,-6,-4,0,2,7,12,19,28,37,47,56,66,75,84,94,103,111,116,119,122,125,130,135,141,148,159,171,183,198,210,218,225,230,235,239,243,246,246,244,239,232,222,204,173,148,121,95,65,33,0,-27,-49,-72,-80,-83,-86,-89,-91,-93,-95,-97,-98,-100,-101,-103,-104,-104,-104,-102,-101,-99,-98,-97,-97,-97,-97,-97,-97,-98,-98,-99,-98,-97,-95,-93,-92,-90,-88,-86,-84,-83,-82,-81,-81,-81,-80,-78,-76,-74,-73,-71,-68,-66,-64,-63,-63,-64,-66,-68,-69,-70,-71,-72,-73,-73,-73,-71,-70,-69,-69,-69,-69,-69,-69,-69,-69,-68,-68,-66,-64,-61,-58,-56,-54,-53,-51,-50,-50,-50,-51,-52,-52,-52,-52,-51,-50,-50,-50,-50,-50,-50,-50,-51,-51,-51,-51,-50,-49,-47,-46,-45,-43,-41,-40,-38,-37,-36,-36,-35,-35,-35,-34,-34,-33,-32,-32,-31,-31,-30,-30,-30,-30,-30,-30,-29,-29,-28,-28,-27,-26,-25,-24,-22,-20,-19,-18,-16,-15,-13,-11,-9,-7,-5,-3,0,3,6,12,19,25,29,32,35,37,40,44,47,49,45,36,28,23,19,16,13,9,6,2,0,-3,-5,-6,-7,-8,-9,-10,-12,-13,-14,-20,-29,-14,31,110,220,360,514,654,752,765,736,610,444,296,178,107,69,34,-3,-29,-47,-55,-49,-39,-34,-31,-29,-27,-25,-24,-22,-19,-15,-11,-9,-7,-6,-6,-5,-4,-3,-2,-1,0,2,5,8,10,13,17,21,24,27,29,31,33,36,40,43,47,52,58,64,70,76,81,85,90,95,103,115,130,150,169,189,203,214,226,240,258,268,275,281,286,288,289,288,285,280,274,266,255,234,212,183,151,122,95,70,44,16,-12,-23,-27,-31,-33,-35,-36,-37,-38,-40,-41,-43,-44,-45,-47,-48,-49,-50,-50,-50,-50,-51,-52,-53,-55,-57,-59,-62,-63,-61,-57,-51,-46,-42,-39,-35,-32,-29,-27,-25,-24,-24,-25,-25,-25,-26,-28,-29,-30,-31,-32,-33,-34,-35,-37,-38,-39,-41,-42,-43,-44,-45,-45,-46,-46,-46,-46,-46,-46,-47,-47,-47,-48,-48,-48,-48,-47,-46,-45,-45,-45,-45,-45,-45,-45,-45,-46,-47,-48,-48,-48,-48,-48,-49,-51,-52,-52,-53,-57,-57,-52,-49,-48,-45,-43,-42,-41,-42,-44,-46,-50,-54,-60,-66,-77,-84,-85,-86,-86,-87,-88,-87,-80,-73,-70,-68,-67,-66,-65,-64,-62,-60,-59,-58,-57,-57,-57,-57,-57,-57,-58,-58,-58,-58,-58,-58,-57,-57,-57,-57,-56,-57,-57,-57,-56,-57,-57,-57,-57,-56,-55,-54,-53,-53,-52,-51,-51,-49,-48,-47,-46,-44,-42,-38,-33,-27,-21,-17,-13,-10,-6,-1,6,18,29,35,39,42,45,47,48,47,44,40,36,31,27,22,15,9,3,-2,-9,-15,-22,-29,-34,-39,-43,-48,-54,-58,-58,-53,-41,-7,52,146,271,425,572,691,737,729,644,501,345,213,105,52,9,-11,-17,-19,-22,-24,-26,-28,-30,-32,-33,-35,-36,-37,-37,-37,-35,-34,-32,-31,-29,-28,-26,-24,-22,-20,-18,-16,-14,-12,-9,-5,-2,1,6,9,12,15,18,19,21,23,25,27,31,37,44,51,58,67,81,98,116,134,148,165,186,207,230,247,258,263,263,264,264,264,264,264,264,263,260,255,250,243,234,223,212,196,168,132,102,74,47,26,9,-5,-15,-22,-27,-33,-41,-49,-55,-60,-66,-72,-77,-80,-81,-80,-77,-74,-72,-70,-68,-65,-61,-58,-56,-56,-58,-60,-61,-63,-64,-66,-68,-70,-72,-74,-75,-76,-76,-76,-75,-73,-70,-68,-65,-63,-61,-59,-57,-56,-54,-53,-53,-52,-52,-52,-51,-51,-50,-50,-51,-50,-50,-48,-46,-44,-43,-41,-40,-39,-38,-38,-39,-39,-39,-40,-40,-39,-38,-38,-37,-35,-34,-34,-34,-35,-35,-36,-37,-37,-37,-36,-35,-34,-33,-31,-29,-28,-27,-25,-25,-24,-24,-24,-25,-25,-25,-25,-25,-25,-26,-27,-28,-29,-30,-32,-34,-36,-38,-40,-41,-42,-44,-44,-45,-46,-48,-50,-51,-51,-50,-48,-46,-45,-44,-43,-42,-40,-39,-37,-37,-37,-37,-38,-39,-41,-42,-43,-45,-45,-45,-45,-45,-44,-44,-43,-43,-42,-41,-41,-40,-40,-39,-38,-37,-36,-35,-34,-33,-32,-32,-32,-31,-30,-30,-29,-28,-27,-25,-23,-20,-18,-16,-12,-2,7,19,33,48,56,62,67,71,70,60,46,35,24,14,7,2,-2,-6,-9,-12,-14,-16,-18,-20,-22,-24,-25,-27,-29,-31,-34,-39,-48,-48,-36,-4,50,135,249,394,548,680,747,748,687,550,396,259,138,60,2,-31,-54,-69,-76,-68,-54,-48,-45,-41,-38,-35,-33,-31,-28,-25,-22,-20,-18,-18,-18,-19,-19,-19,-19,-19,-19,-19,-18,-17,-16,-14,-13,-12,-10,-7,-3,0,4,9,15,23,32,40,48,56,64,72,80,88,96,105,119,136,149,165,189,208,219,232,246,256,264,271,276,280,283,285,287,292,298,297,285,272,258,241,221,191,158,124,96,74,56,40,26,13,2,-7,-14,-21,-27,-32,-37,-40,-41,-42,-43,-44,-45,-45,-46,-47,-48,-49,-50,-50,-50,-49,-48,-47,-46,-45,-44,-43,-43,-43,-44,-44,-45,-45,-46,-46,-45,-45,-44,-43,-42,-41,-40,-39,-38,-38,-38,-38,-37,-37,-36,-36,-35,-35,-34,-33,-32,-31,-31,-30,-30,-29,-28,-27,-26,-26,-27,-27,-26,-26,-25,-26,-26,-27,-27,-26,-26,-26,-27,-29,-30,-31,-32,-33,-35,-37,-38,-39,-39,-40,-40,-41,-41,-41,-41,-40,-40,-40,-41,-41,-42,-42,-42,-42,-43,-43,-44,-44,-45,-45,-45,-46,-46,-47,-48,-49,-51,-53,-55,-56,-58,-60,-61,-62,-62,-62,-62,-62,-63,-63,-64,-64,-65,-66,-67,-68,-67,-65,-63,-60,-57,-55,-53,-51,-49,-48,-46,-45,-45,-45,-44,-42,-41,-39,-39,-38,-37,-36,-34,-32,-30,-27,-24,-20,-11,-2,7,17,32,49,54,58,61,63,61,51,38,28,18,10,3,-1,-5,-8,-11,-13,-16,-19,-23,-25,-27,-28,-28,-28,-28,-27,-25,-23,-19,-15,-10,-5,22,83,176,293,431,566,669,695,684,595,464,320,196,90,23,-46,-101,-134,-145,-129,-101,-71,-56,-49,-44,-39,-35,-32,-28,-25,-22,-19,-17,-16,-16,-16,-16,-16,-15,-15,-15,-16,-17,-17,-17,-17,-17,-17,-17,-16,-16,-15,-14,-14,-12,-10,-7,-4,0,6,14,22,30,38,46,57,71,83,95,109,126,144,163,181,199,213,223,232,240,247,253,260,265,268,266,260,250,235,210,184,157,126,96,66,36,12,-6,-26,-43,-57,-71,-85,-91,-95,-99,-102,-105,-107,-109,-110,-111,-111,-111,-111,-110,-107,-104,-99,-95,-92,-88,-85,-81,-74,-67,-62,-61,-60,-59,-57,-54,-52,-55,-59,-61,-63,-64,-66,-67,-68,-70,-71,-71,-71,-71,-71,-70,-68,-67,-64,-62,-59,-57,-55,-53,-51,-49,-47,-46,-45,-43,-42,-40,-39,-38,-37,-37,-37,-36,-35,-34,-34,-34,-34,-34,-33,-32,-31,-30,-28,-26,-24,-21,-19,-17,-16,-15,-14,-11,-9,-6,-5,-3,-3,-2,-2,-2,-2,-3,-4,-5,-5,-6,-7,-7,-7,-7,-5,-1,4,9,14,17,20,24,27,29,31,33,34,34,34,34,33,31,29,26,23,21,18,16,14,11,9,8,9,14,22,32,42,53,68,82,85,85,86,86,86,82,64,52,43,35,28,21,16,11,7,4,1,-1,-4,-7,-9,-12,-13,-14,-15,-15,-15,-13,-11,-8,-3,1,8,16,53,127,227,353,490,613,693,701,665,539,400,256,145,79,25,-22,-77,-96,-108,-102,-68,-37,-24,-20,-16,-13,-11,-9,-9,-7,-6,-5,-4,-4,-4,-4,-4,-3,-1,0,0,1,0,0,0,0,0,0,0,1,2,4,6,8,10,12,16,27,41,57,68,78,85,92,99,104,110,116,123,131,139,148,164,191,213,225,234,243,251,256,261,266,270,272,272,270,266,259,251,234,206,178,151,123,93,64,36,10,-15,-31,-40,-48,-56,-62,-67,-71,-74,-78,-81,-83,-85,-86,-86,-87,-88,-88,-88,-89,-90,-92,-94,-96,-96,-95,-92,-89,-86,-84,-82,-80,-77,-75,-74,-74,-74,-73,-73,-72,-72,-72,-73,-73,-73,-73,-73,-73,-74,-74,-73,-71,-69,-68,-67,-66,-64,-63,-61,-59,-58,-58,-57,-55,-52,-49,-46,-44,-42,-41,-41,-42,-45,-49,-53,-58,-61,-64,-66,-69,-71,-72,-73,-74,-74,-74,-75,-75,-74,-74,-74,-73,-74,-74,-73,-73,-72,-72,-72,-72,-72,-71,-70,-69,-68,-68,-68,-68,-68,-67,-67,-67,-66,-66,-66,-65,-63,-62,-61,-59,-57,-55,-53,-52,-50,-50,-50,-49,-49,-48,-48,-47,-47,-47,-46,-46,-47,-47,-48,-49,-49,-49,-50,-50,-50,-50,-49,-47,-46,-45,-44,-44,-43,-42,-41,-40,-39,-39,-37,-35,-31,-27,-24,-20,-17,-13,-8,-4,0,2,5,8,13,20,27,31,33,33,31,28,25,21,18,14,10,6,2,-1,-5,-9,-14,-19,-23,-27,-31,-35,-39,-43,-45,-46,-45,-44,-41,-38,-33,-14,33,117,229,365,516,650,732,740,700,578,427,285,176,109,50,1,-48,-65,-74,-80,-66,-41,-24,-17,-12,-13,-24,-33,-41,-47,-47,-39,-31,-26,-22,-19,-16,-13,-10,-7,-5,-3,-2,-1,0,0,0,1,2,3,6,8,11,14,18,22,28,33,40,48,61,73,81,88,98,112,128,145,161,176,191,206,225,236,243,249,254,257,259,261,262,263,264,267,270,272,272,266,256,241,217,195,173,151,127,104,79,51,24,7,-2,-11,-21,-30,-34,-37,-40,-42,-44,-45,-46,-47,-48,-48,-48,-49,-51,-52,-54,-55,-57,-58,-60,-61,-62,-63,-63,-63,-64,-65,-66,-67,-68,-69,-70,-71,-72,-74,-75,-76,-77,-77,-77,-77,-76,-75,-74,-72,-69,-67,-65,-63,-61,-59,-56,-55,-54,-53,-53,-52,-51,-49,-48,-46,-45,-43,-42,-40,-39,-38,-37,-37,-37,-37,-37,-37,-37,-37,-36,-36,-36,-35,-34,-34,-33,-33,-32,-31,-31,-31,-31,-31,-31,-30,-29,-28,-27,-25,-24,-22,-20,-18,-17,-16,-15,-14,-13,-12,-11,-11,-10,-10,-8,-7,-5,-3,-3,-3,-4,-4,-6,-7,-9,-11,-13,-15,-16,-17,-18,-19,-21,-22,-23,-24,-26,-28,-31,-33,-35,-35,-36,-35,-34,-33,-32,-31,-29,-27,-25,-24,-24,-24,-23,-23,-22,-21,-21,-21,-20,-20,-21,-21,-22,-22,-23,-23,-23,-22,-22,-22,-21,-20,-18,-16,-13,-11,-8,-6,-1,9,18,26,31,35,38,41,43,44,43,39,34,28,23,18,13,7,2,-2,-5,-8,-11,-14,-16,-19,-21,-23,-26,-28,-29,-31,-32,-32,-34,-40,-39,-10,37,122,240,392,547,675,719,708,608,461,305,178,71,18,-23,-46,-61,-71,-76,-70,-60,-55,-52,-50,-47,-45,-43,-40,-38,-35,-34,-33,-32,-32,-32,-32,-32,-33,-33,-33,-33,-32,-30,-28,-27,-25,-24,-21,-19,-16,-14,-12,-9,-4,1,8,15,23,31,39,47,55,62,67,73,85,105,123,136,151,166,180,192,203,214,227,236,241,246,251,254,257,260,263,269,271,268,259,246,224,201,173,139,108,79,53,28,3,-12,-21,-28,-33,-36,-38,-39,-40,-40,-41,-41,-41,-42,-43,-45,-47,-48,-50,-50,-51,-51,-52,-52,-53,-52,-52,-53,-54,-56,-58,-60,-62,-63,-63,-63,-62,-59,-56,-52,-47,-43,-39,-37,-35,-34,-33,-32,-32,-32,-32,-31,-31,-30,-29,-29,-28,-27,-26,-25,-25,-25,-26,-26,-26,-27,-28,-28,-29,-29,-29,-28,-27,-26,-26,-25,-25,-25,-25,-26,-27,-28,-30,-31,-31,-33,-35,-37,-39,-41,-43,-44,-46,-52,-59,-63,-64,-64,-65,-66,-67,-68,-69,-69,-68,-68,-68,-67,-66,-64,-61,-58,-55,-52,-51,-48,-45,-42,-40,-40,-42,-45,-47,-48,-49,-50,-52,-54,-56,-58,-59,-60,-60,-61,-62,-62,-61,-60,-58,-56,-55,-53,-51,-49,-46,-44,-43,-42,-41,-40,-38,-37,-37,-37,-37,-36,-35,-34,-32,-31,-31,-30,-29,-28,-27,-27,-26,-25,-24,-22,-20,-18,-14,-10,-4,2,9,14,18,21,26,34,45,52,57,61,63,58,47,36,24,12,0,-6,-11,-15,-18,-21,-24,-27,-29,-30,-32,-33,-34,-34,-35,-35,-36,-37,-39,-45,-43,-22,34,131,256,409,568,697,756,754,684,554,402,269,160,82,0,-55,-89,-101,-100,-81,-70,-62,-56,-51,-47,-44,-41,-38,-35,-32,-30,-27,-25,-23,-21,-19,-17,-14,-11,-8,-5,-1,2,6,9,12,16,19,23,27,31,35,39,43,48,52,56,60,65,70,75,79,83,86,89,93,99,109,119,129,145,167,189,211,227,237,248,259,266,272,277,281,283,284,283,281,276,269,261,243,214,189,163,136,108,79,51,24,-5,-21,-28,-33,-38,-42,-47,-51,-55,-59,-64,-72,-85,-91,-94,-95,-97,-99,-101,-102,-103,-104,-104,-104,-104,-101,-97,-92,-86,-81,-77,-73,-69,-66,-63,-61,-59,-58,-56,-53,-50,-48,-46,-44,-43,-43,-43,-43,-43,-44,-46,-47,-48,-48,-48,-49,-49,-49,-49,-50,-50,-52,-54,-56,-58,-59,-60,-61,-61,-62,-63,-63,-63,-63,-64,-64,-65,-66,-68,-69,-70,-71,-71,-71,-72,-71,-71,-69,-69,-68,-68,-67,-66,-65,-63,-62,-61,-61,-60,-60,-60,-59,-59,-60,-61,-61,-60,-59,-57,-57,-57,-58,-59,-60,-60,-61,-62,-63,-64,-65,-65,-65,-64,-63,-62,-61,-60,-59,-58,-57,-57,-56,-55,-54,-53,-52,-51,-50,-49,-49,-50,-50,-50,-51,-51,-51,-51,-52,-52,-52,-52,-53,-54,-55,-56,-57,-57,-56,-55,-54,-52,-50,-47,-43,-39,-35,-29,-16,-4,7,14,19,23,26,29,32,33,33,31,27,23,18,14,9,4,0,-6,-12,-17,-22,-27,-30,-33,-36,-39,-43,-47,-54,-59,-58,-50,-35,7,73,174,297,439,577,684,723,716,639,495,325,176,50,-16,-73,-93,-101,-108,-106,-88,-67,-46,-29,-23,-20,-17,-14,-12,-9,-8,-7,-6,-5,-4,-3,-2,-1,0,1,3,5,7,8,8,8,9,10,12,14,15,17,20,25,29,34,38,42,47,54,63,72,84,96,108,118,129,138,144,152,165,192,215,229,242,253,264,275,282,286,289,293,295,297,297,293,286,276,259,234,213,189,163,139,99,56,32,14,0,-19,-30,-38,-44,-49,-53,-56,-58,-60,-62,-63,-65,-68,-70,-71,-70,-67,-63,-59,-55,-52,-49,-45,-42,-38,-35,-33,-31,-29,-28,-27,-26,-25,-24,-22,-16,-12,-16,-23,-25,-27,-28,-29,-30,-31,-32,-33,-34,-34,-34,-34,-34,-33,-33,-33,-32,-31,-30,-30,-30,-30,-31,-30,-30,-30,-31,-31,-31,-31,-31,-31,-32,-32,-33,-34,-35,-35,-37,-38,-40,-41,-42,-42,-42,-42,-42,-42,-41,-40,-40,-41,-42,-43,-44,-45,-46,-46,-46,-46,-46,-45,-45,-45,-45,-46,-46,-47,-47,-47,-47,-47,-47,-46,-45,-43,-42,-41,-40,-40,-40,-40,-39,-38,-38,-37,-37,-36,-35,-35,-35,-35,-36,-37,-38,-38,-39,-39,-40,-40,-40,-40,-39,-39,-38,-38,-39,-38,-38,-38,-37,-37,-36,-35,-34,-33,-32,-31,-30,-30,-29,-28,-27,-26,-25,-24,-22,-21,-18,-9,4,16,25,33,39,44,48,54,58,58,55,49,44,40,35,29,23,17,10,3,-3,-9,-14,-18,-22,-25,-28,-31,-33,-33,-33,-32,-31,-29,-26,-22,-6,43,129,238,372,516,639,707,714,684,593,457,289,140,28,-67,-108,-123,-121,-104,-84,-64,-49,-44,-41,-39,-37,-36,-34,-32,-31,-30,-30,-29,-28,-26,-25,-23,-22,-22,-21,-19,-18,-16,-14,-12,-10,-7,-3,0,3,6,8,11,15,19,23,27,31,36,42,48,56,64,73,84,96,108,118,127,140,156,172,186,198,210,222,240,265,277,284,289,293,295,296,295,293,289,283,276,263,236,210,182,151,121,93,64,34,3,-19,-34,-44,-52,-55,-57,-58,-59,-59,-59,-59,-59,-59,-59,-59,-60,-61,-62,-63,-64,-65,-66,-68,-69,-70,-71,-72,-74,-76,-79,-82,-87,-91,-95,-97,-98,-97,-94,-89,-83,-78,-74,-68,-62,-56,-51,-47,-43,-41,-39,-37,-36,-34,-33,-33,-33,-33,-33,-32,-32,-32,-32,-33,-33,-32,-32,-31,-31,-31,-30,-30,-30,-29,-29,-29,-29,-28,-28,-27,-26,-25,-25,-24,-23,-22,-22,-21,-21,-21,-22,-22,-22,-22,-23,-23,-24,-25,-25,-26,-27,-27,-28,-28,-29,-29,-29,-29,-29,-29,-28,-27,-26,-24,-23,-22,-21,-20,-19,-17,-16,-14,-11,-7,-4,-3,-2,-2,-2,-4,-5,-8,-16,-20,-23,-26,-29,-32,-32,-31,-30,-30,-30,-30,-30,-29,-28,-28,-28,-29,-31,-31,-32,-33,-35,-37,-40,-43,-44,-45,-46,-47,-49,-51,-52,-54,-54,-54,-54,-53,-51,-49,-46,-42,-39,-35,-32,-29,-27,-25,-23,-22,-20,-18,-16,-14,-12,-10,-8,-5,-3,0,2,5,10,19,27,33,39,44,49,54,55,52,44,36,28,21,14,8,2,-2,-6,-9,-12,-16,-19,-23,-25,-27,-28,-28,-28,-28,-28,-26,-23,-19,-14,-9,-2,28,99,202,332,483,634,748,786,775,682,535,382,237,148,84,34,-17,-56,-71,-71,-55,-41,-26,-20,-18,-16,-15,-14,-13,-13,-12,-11,-10,-10,-9,-8,-8,-8,-7,-6,-5,-3,-1,0,3,7,13,20,27,35,44,50,56,62,67,72,76,80,84,88,92,96,100,104,109,113,118,123,130,140,159,178,193,204,214,222,231,243,257,272,280,286,290,294,296,296,293,288,280,270,250,219,193,167,143,117,94,77,55,37,22,10,1,-9,-22,-41,-49,-53,-57,-61,-64,-66,-68,-70,-72,-74,-75,-76,-77,-77,-76,-75,-76,-77,-78,-79,-81,-82,-83,-85,-86,-86,-86,-84,-83,-82,-79,-77,-74,-72,-69,-67,-66,-64,-59,-54,-50,-51,-55,-61,-65,-67,-68,-70,-73,-76,-79,-82,-84,-86,-87,-88,-88,-88,-86,-84,-81,-78,-75,-72,-70,-68,-66,-65,-64,-63,-63,-63,-63,-63,-62,-61,-60,-59,-59,-58,-57,-56,-56,-57,-58,-59,-59,-59,-60,-60,-59,-59,-58,-57,-56,-55,-54,-54,-53,-53,-52,-52,-52,-52,-51,-51,-51,-54,-60,-69,-77,-82,-88,-95,-101,-106,-108,-109,-106,-102,-97,-92,-87,-82,-77,-71,-66,-62,-58,-54,-49,-45,-41,-38,-36,-33,-29,-26,-24,-24,-25,-28,-33,-38,-44,-49,-53,-58,-62,-66,-70,-73,-76,-78,-79,-79,-78,-76,-73,-70,-67,-62,-57,-50,-37,-25,-11,-5,-1,1,4,7,9,10,12,14,15,17,19,20,21,23,24,25,25,25,24,25,25,26,27,27,28,29,30,31,32,32,30,28,25,21,18,15,11,8,5,2,0,-2,-5,-8,-11,-16,-21,-28,-43,-44,-32,0,61,160,288,443,599,723,759,744,636,473,303,176,99,68,48,19,-18,-42,-54,-61,-64,-60,-53,-49,-47,-45,-44,-43,-43,-42,-40,-38,-37,-36,-35,-34,-33,-32,-30,-27,-25,-21,-17,-13,-8,3,14,25,32,36,40,43,46,49,53,56,59,62,65,69,73,79,85,92,98,103,107,114,124,139,162,183,200,215,228,244,260,271,277,282,285,288,290,289,287,282,276,267,249,218,191,163,135,103,75,54,32,17,6,0,-9,-18,-26,-35,-45,-58,-68,-71,-72,-72,-72,-72,-72,-72,-73,-73,-73,-74,-74,-74,-75,-74,-74,-73,-72,-71,-70,-69,-68,-67,-66,-65,-64,-63,-62,-61,-60,-60,-59,-58,-58,-58,-58,-58,-57,-57,-58,-58,-58,-58,-57,-57,-57,-56,-56,-55,-55,-56,-57,-58,-59,-61,-61,-61,-61,-61,-60,-59,-58,-56,-55,-54,-54,-54,-54,-54,-54,-54,-53,-53,-52,-48,-44,-40,-39,-39,-40,-40,-39,-39,-39,-40,-40,-40,-40,-40,-39,-40,-41,-41,-42,-42,-42,-42,-42,-42,-41,-39,-38,-37,-37,-36,-36,-36,-36,-36,-36,-36,-36,-36,-35,-34,-33,-33,-33,-33,-33,-33,-33,-34,-34,-35,-35,-36,-36,-37,-37,-37,-37,-37,-36,-36,-35,-35,-34,-33,-33,-32,-32,-31,-31,-30,-29,-28,-28,-28,-27,-26,-25,-24,-23,-23,-24,-25,-26,-26,-27,-29,-30,-31,-32,-32,-27,-18,-7,3,16,27,33,38,42,46,49,51,52,52,48,42,34,26,19,10,1,-7,-14,-20,-26,-31,-35,-38,-41,-44,-46,-46,-45,-44,-42,-38,-33,-27,-4,46,122,229,354,484,594,646,664,636,554,432,295,172,79,20,-42,-93,-111,-118,-108,-88,-73,-59,-47,-39,-33,-29,-26,-25,-23,-21,-19,-17,-17,-16,-16,-16,-15,-13,-11,-10,-8,-7,-6,-5,-4,-2,0,1,3,7,11,15,23,33,42,50,59,73,92,110,124,135,149,164,179,195,209,222,234,244,256,270,284,293,300,307,312,316,319,321,322,322,320,318,315,311,305,299,290,270,253,230,197,157,120,91,69,52,35,19,6,0,-6,-10,-14,-18,-22,-26,-29,-31,-33,-34,-36,-37,-38,-40,-43,-45,-47,-49,-50,-51,-51,-52,-52,-52,-52,-52,-53,-54,-56,-57,-59,-61,-62,-62,-63,-63,-62,-60,-58,-56,-53,-51,-49,-47,-45,-43,-41,-40,-39,-37,-36,-35,-35,-34,-34,-33,-33,-33,-33,-33,-34,-35,-36,-37,-38,-39,-39,-40,-41,-42,-43,-44,-44,-45,-46,-46,-46,-47,-47,-48,-49,-51,-52,-52,-53,-54,-54,-55,-55,-55,-54,-54,-54,-54,-54,-54,-53,-53,-53,-54,-54,-55,-55,-55,-56,-56,-56,-55,-55,-54,-53,-52,-52,-53,-54,-56,-58,-60,-62,-64,-64,-64,-63,-62,-60,-59,-57,-56,-56,-56,-57,-57,-58,-59,-60,-63,-65,-67,-68,-70,-71,-74,-78,-82,-83,-81,-75,-69,-63,-61,-58,-55,-52,-49,-47,-45,-43,-42,-41,-40,-39,-38,-38,-37,-36,-36,-35,-35,-35,-35,-35,-35,-35,-35,-34,-34,-33,-32,-31,-29,-27,-24,-18,-4,12,24,33,40,45,49,52,55,58,60,62,62,58,52,44,36,24,12,1,-5,-11,-16,-20,-23,-25,-26,-28,-29,-30,-31,-31,-32,-32,-33,-36,-42,-26,22,99,215,363,532,684,772,779,722,578,397,236,117,49,15,-32,-78,-96,-95,-78,-68,-60,-54,-49,-45,-42,-38,-35,-33,-30,-28,-26,-25,-25,-25,-25,-25,-24,-24,-23,-23,-22,-22,-21,-21,-19,-19,-18,-16,-15,-13,-12,-11,-9,-7,-5,-3,0,3,7,12,24,37,46,55,67,83,101,120,138,153,166,177,190,205,218,230,240,250,259,266,272,278,282,284,283,280,274,267,254,228,200,173,146,120,100,85,65,48,33,21,10,-1,-16,-32,-45,-55,-62,-67,-71,-74,-76,-79,-81,-83,-83,-82,-78,-73,-68,-62,-57,-51,-45,-39,-36,-34,-33,-32,-29,-25,-23,-29,-40,-45,-49,-53,-57,-61,-64,-67,-70,-71,-71,-70,-68,-65,-61,-57,-54,-50,-47,-44,-42,-40,-38,-36,-34,-32,-29,-27,-25,-24,-24,-25,-27,-28,-31,-33,-37,-39,-42,-43,-45,-47,-49,-51,-52,-52,-51,-49,-47,-45,-43,-41,-38,-34,-30,-30,-32,-35,-39,-40,-41,-42,-44,-47,-49,-51,-52,-53,-54,-55,-55,-54,-52,-50,-48,-46,-45,-44,-43,-42,-41,-40,-40,-40,-39,-36,-34,-33,-33,-35,-38,-42,-47,-51,-59,-67,-72,-70,-66,-61,-59,-57,-56,-53,-50,-47,-44,-41,-39,-37,-34,-32,-31,-30,-30,-29,-28,-26,-23,-21,-20,-21,-22,-23,-25,-26,-28,-30,-32,-34,-36,-37,-39,-40,-41,-42,-41,-39,-36,-34,-31,-29,-27,-26,-24,-23,-22,-22,-21,-20,-18,-16,-13,-10,-7,-5,-2,0,1,4,8,16,30,40,46,50,54,58,60,60,57,51,44,35,26,12,0,-8,-16,-22,-26,-30,-33,-35,-38,-40,-41,-42,-42,-43,-45,-46,-51,-50,-34,7,73,164,290,434,573,687,727,719,638,499,342,207,120,51,11,-41,-67,-83,-95,-96,-82,-62,-38,-29,-26,-23,-21,-19,-18,-16,-15,-14,-13,-12,-12,-12,-11,-10,-9,-7,-5,-3,-1,0,3,5,7,9,12,14,18,22,26,30,35,38,41,44,47,51,55,61,71,81,91,101,111,122,135,150,168,188,210,230,242,254,266,282,292,298,304,308,310,310,308,303,296,286,268,238,211,186,161,136,110,80,52,31,13,-1,-13,-28,-47,-56,-63,-69,-74,-79,-83,-87,-89,-90,-90,-90,-90,-90,-89,-88,-88,-87,-85,-84,-83,-83,-83,-84,-84,-84,-83,-83,-83,-83,-82,-82,-81,-82,-82,-83,-84,-84,-83,-82,-81,-80,-78,-76,-74,-71,-68,-66,-65,-64,-63,-62,-61,-59,-58,-57,-55,-53,-52,-51,-50,-50,-51,-52,-54,-55,-57,-58,-60,-60,-61,-60,-59,-58,-57,-56,-56,-55,-55,-55,-56,-56,-57,-59,-60,-61,-62,-62,-63,-64,-65,-67,-68,-70,-71,-72,-73,-75,-76,-77,-78,-79,-79,-79,-79,-78,-77,-76,-74,-73,-72,-71,-70,-70,-69,-68,-67,-66,-66,-65,-65,-64,-63,-62,-61,-60,-60,-60,-60,-60,-59,-58,-57,-54,-52,-49,-46,-42,-38,-36,-33,-32,-31,-32,-32,-32,-31,-31,-28,-24,-19,-16,-17,-21,-25,-29,-33,-38,-41,-42,-37,-28,-18,-11,-3,4,12,18,25,30,35,40,45,50,54,58,61,64,65,66,64,59,53,46,40,34,29,25,20,15,10,5,0,-3,-7,-11,-14,-16,-19,-21,-25,-30,-41,-47,-40,-23,22,104,229,383,553,702,789,795,740,608,444,280,151,70,30,2,-18,-27,-32,-36,-39,-40,-41,-41,-40,-38,-35,-29,-23,-15,-8,-2,1,3,5,7,9,12,14,18,21,25,29,32,34,35,36,36,37,37,37,38,39,41,43,45,48,50,53,58,67,78,89,101,112,123,134,148,163,177,192,206,220,233,248,266,279,289,295,301,305,309,311,312,311,308,302,294,284,263,230,203,173,141,107,78,57,42,29,18,5,-11,-24,-34,-42,-50,-58,-65,-71,-74,-77,-80,-83,-86,-88,-90,-91,-92,-93,-93,-91,-89,-87,-85,-84,-83,-82,-80,-79,-78,-77,-75,-74,-72,-69,-66,-64,-62,-61,-59,-59,-59,-59,-59,-59,-59,-58,-56,-54,-51,-50,-49,-48,-48,-49,-51,-52,-54,-57,-60,-62,-64,-65,-65,-65,-64,-63,-62,-61,-60,-59,-58,-58,-59,-59,-60,-61,-60,-60,-60,-60,-59,-58,-57,-54,-52,-50,-50,-50,-50,-50,-49,-49,-48,-48,-48,-47,-46,-44,-43,-43,-43,-43,-42,-42,-42,-42,-42,-42,-41,-40,-39,-38,-38,-38,-38,-37,-35,-34,-34,-33,-33,-32,-30,-28,-26,-24,-23,-21,-20,-18,-16,-9,-1,1,0,-4,-10,-14,-19,-23,-27,-29,-30,-26,-20,-13,-6,0,8,16,24,29,33,37,39,42,46,50,52,53,49,40,30,20,13,7,2,-2,-7,-12,-15,-19,-22,-24,-26,-27,-27,-27,-26,-26,-27,-27,-28,-29,-30,-31,-24,-2,56,130,236,361,496,617,690,696,655,538,372,226,122,40,0,-33,-61,-78,-91,-89,-65,-53,-45,-38,-31,-26,-21,-18,-16,-14,-13,-11,-11,-11,-12,-13,-14,-13,-12,-10,-8,-6,-3,-1,0,2,4,6,8,10,11,14,17,21,24,28,31,34,37,41,44,47,50,54,58,64,74,86,98,112,128,146,160,172,186,202,224,236,243,250,256,259,261,261,259,256,251,243,234,214,182,155,129,104,81,45,-2,-32,-58,-77,-92,-98,-100,-103,-104,-106,-108,-109,-110,-111,-112,-113,-114,-114,-114,-113,-112,-110,-109,-107,-106,-103,-101,-99,-98,-96,-95,-94,-94,-93,-92,-90,-88,-84,-80,-77,-73,-69,-66,-63,-60,-58,-57,-57,-56,-56,-54,-53,-50,-48,-46,-43,-40,-37,-35,-33,-32,-32,-33,-34,-35,-36,-37,-38,-39,-40,-41,-41,-41,-42,-42,-43,-44,-45,-46,-48,-49,-51,-53,-54,-55,-54,-53,-51,-49,-46,-39,-35,-39,-49,-54,-58,-62,-65,-69,-71,-74,-76,-77,-77,-76,-73,-70,-67,-63,-60,-55,-51,-44,-29,-25,-25,-24,-23,-22,-25,-29,-30,-31,-32,-34,-35,-37,-39,-40,-41,-42,-42,-43,-43,-42,-41,-40,-38,-36,-35,-33,-31,-29,-27,-26,-25,-24,-22,-21,-19,-17,-15,-13,-10,-7,-4,0,1,3,5,7,9,12,15,18,20,22,26,30,34,38,40,42,43,43,42,40,38,35,32,29,27,26,24,22,20,17,14,11,8,5,2,0,-2,-4,-5,-6,-8,-10,-13,-16,-22,-35,-36,-23,12,75,180,312,481,646,774,821,772,638,468,300,196,124,86,52,9,-27,-51,-61,-54,-42,-36,-32,-29,-25,-22,-20,-18,-15,-14,-12,-10,-8,-7,-6,-5,-4,-3,-1,0,2,3,4,6,9,11,14,16,19,21,24,28,33,39,45,52,60,70,80,88,97,109,125,138,148,156,164,173,184,194,205,215,223,231,241,255,272,281,287,293,297,299,301,301,299,297,293,289,282,270,244,215,188,160,133,106,77,45,18,3,-4,-12,-20,-29,-38,-47,-55,-64,-72,-77,-82,-86,-90,-92,-91,-87,-82,-76,-72,-69,-66,-63,-60,-57,-54,-52,-50,-48,-47,-46,-47,-48,-49,-51,-52,-53,-55,-56,-58,-59,-60,-61,-62,-63,-65,-67,-70,-72,-72,-70,-67,-64,-62,-59,-58,-56,-54,-52,-52,-52,-53,-54,-56,-59,-62,-65,-68,-71,-74,-76,-77,-77,-75,-72,-69,-66,-64,-62,-59,-56,-53,-49,-47,-44,-43,-42,-42,-43,-45,-47,-49,-51,-53,-56,-57,-58,-59,-61,-65,-69,-71,-68,-61,-54,-51,-50,-49,-47,-46,-44,-41,-39,-38,-36,-35,-35,-35,-35,-35,-35,-35,-36,-38,-39,-41,-43,-45,-46,-48,-50,-51,-52,-53,-55,-58,-61,-63,-64,-62,-60,-57,-54,-52,-50,-48,-45,-42,-40,-39,-39,-39,-39,-39,-40,-41,-43,-45,-47,-50,-51,-53,-55,-58,-61,-63,-64,-63,-61,-57,-52,-48,-44,-39,-34,-28,-23,-17,-11,-5,0,6,14,21,26,29,32,34,37,40,44,47,46,39,29,20,11,3,-2,-7,-11,-14,-17,-19,-22,-24,-27,-29,-32,-35,-38,-41,-45,-52,-65,-66,-58,-37,22,119,246,402,562,690,748,746,676,547,383,238,112,28,-29,-46,-50,-52,-54,-56,-55,-51,-46,-40,-36,-32,-28,-25,-22,-20,-19,-20,-22,-26,-29,-34,-38,-43,-49,-56,-61,-62,-59,-54,-47,-38,-23,-6,6,15,23,30,37,42,45,47,49,51,54,57,60,62,65,69,74,80,91,109,121,136,158,176,187,197,204,211,219,217,203,182,153,124
