376,458,537,614,684,724,735,741,746,750,753,756,758,761,763,766,767,768,769,769,769,767,765,761,755,749,738,711,680,650,620,589,556,524,494,464,442,424,406,387,368,352,335,320,306,289,262,241,227,221,224,232,254,307,381,471,553,592,589,539,439,315,184,54,-63,-162,-232,-255,-244,-211,-143,-78,-39,-26,-19,-19,-24,-32,-44,-68,-97,-129,-167,-205,-244,-281,-309,-329,-342,-348,-353,-356,-359,-361,-362,-361,-359,-354,-348,-341,-329,-310,-294,-280,-268,-253,-234,-223,-213,-205,-199,-195,-195,-198,-203,-209,-216,-224,-238,-250,-261,-270,-279,-287,-294,-303,-318,-342,-369,-398,-430,-461,-491,-523,-558,-594,-624,-645,-659,-673,-686,-693,-699,-704,-706,-700,-689,-675,-658,-640,-624,-610,-599,-590,-585,-581,-578,-575,-572,-567,-562,-556,-547,-528,-501,-465,-422,-373,-340,-300,-266,-214,-163,-107,-84,-71,-63,-65,-85,-113,-145,-195,-246,-291,-318,-332,-340,-346,-349,-352,-354,-354,-354,-352,-348,-344,-338,-333,-328,-322,-316,-312,-307,-304,-301,-298,-291,-278,-257,-225,-173,-99,-9,94,208,311,359,374,351,283,182,77,-23,-114,-185,-222,-222,-186,-107,-22,51,111,144,167,182,193,203,215,229,249,265,277,287,297,305,316,328,338,348,360,374,393,413,432,452,461,467,471,474,477,479,481,484,486,488,490,492,493,495,496,496,497,499,502,504,506,506,503,497,490,482,472,456,442,429,408,380,357,341,327,309,286,262,236,213,196,180,166,155,143,130,121,114,108,103,99,94,89,84,79,75,71,66,62,60,61,65,72,79,86,90,94,98,102,106,110,113,116,119,122,124,125,126,127,127,126,126,125,123,122,120,117,115,112,109,105,101,94,79,65,50,34,14,-5,-22,-35,-44,-48,-52,-55,-57,-59,-61,-62,-62,-62,-60,-56,-50,-41,-28,17,86,169,258,324,345,329,280,186,75,-42,-159,-265,-350,-391,-405,-387,-331,-263,-212,-185,-171,-165,-159,-154,-145,-136,-128,-121,-116,-110,-106,-102,-98,-94,-91,-89,-86,-83,-80,-75,-71,-66,-61,-54,-47,-39,-30,-20,-11,0,10,24,37,51,62,72,80,88,95,101,105,109,113,117,120,121,120,116,111,105,97,88,74,59,42,22,0,-15,-32,-48,-67,-85,-103,-122,-136,-146,-156,-165,-172,-177,-182,-186,-190,-193,-193,-191,-187,-182,-176,-169,-162,-152,-142,-133,-125,-117,-109,-100,-90,-77,-63,-55,-48,-42,-36,-32,-28,-26,-24,-22,-21,-19,-17,-16,-15,-14,-12,-11,-10,-10,-10,-10,-10,-13,-17,-21,-27,-33,-41,-52,-75,-96,-107,-113,-118,-123,-128,-132,-136,-137,-138,-138,-137,-136,-134,-130,-124,-117,-110,-101,-60,11,115,247,391,507,520,472,274,-6,-296,-519,-600,-596,-494,-340,-205,-122,-85,-69,-61,-54,-46,-38,-30,-23,-17,-10,-4,1,7,14,23,35,47,58,66,71,76,80,84,88,92,96,101,109,124,140,157,173,192,209,224,234,241,244,246,249,251,253,254,254,254,254,253,251,248,244,240,235,231,225,219,212,206,199,190,176,156,142,128,113,92,77,64,55,51,49,47,46,46,45,44,43,42,42,42,43,44,46,50,53,57,62,66,70,75,79,85,90,95,100,106,113,124,138,154,171,182,192,200,206,210,210,210,210,210,211,211,212,213,213,210,203,194,182,164,146,128,110,90,76,65,55,48,40,31,21,10,0,-18,-42,-63,-87,-114,-134,-147,-155,-145,-115,-60,23,137,273,397,448,430,285,31,-274,-552,-730,-774,-696,-558,-416,-308,-237,-203,-191,-184,-178,-175,-173,-173,-173,-177,-182,-188,-194,-199,-202,-206,-211,-215,-220,-224,-228,-232,-235,-237,-239,-239,-238,-235,-233,-230,-228,-224,-221,-216,-212,-208,-202,-191,-178,-166,-152,-139,-126,-111,-99,-92,-87,-84,-82,-79,-75,-72,-71,-71,-73,-77,-83,-90,-100,-117,-135,-154,-172,-191,-210,-229,-249,-269,-289,-307,-316,-322,-327,-331,-334,-334,-334,-332,-329,-325,-321,-317,-313,-311,-308,-306,-304,-301,-298,-295,-292,-289,-287,-285,-284,-282,-281,-279,-275,-269,-254,-239,-223,-208,-192,-183,-177,-172,-169,-166,-164,-163,-164,-165,-165,-168,-172,-177,-184,-193,-208,-222,-229,-234,-238,-240,-241,-241,-241,-240,-239,-238,-236,-234,-232,-229,-226,-223,-220,-216,-208,-186,-129,-44,69,205,342,441,448,383,182,-96,-389,-616,-697,-690,-576,-408,-263,-169,-131,-121,-115,-109,-104,-99,-94,-90,-84,-77,-66,-45,-27,-16,-8,-1,3,8,13,16,21,26,32,40,49,59,70,82,94,105,117,133,147,160,171,183,195,205,214,221,227,232,236,240,242,245,248,250,251,252,251,249,246,242,236,229,220,202,185,162,134,107,79,50,19,-7,-27,-41,-53,-63,-71,-77,-82,-86,-89,-91,-92,-91,-89,-84,-79,-71,-59,-48,-41,-35,-31,-25,-20,-14,-5,7,20,33,46,61,81,103,121,134,147,159,172,183,192,200,209,219,235,253,260,264,267,268,267,263,257,248,232,217,213,210,207,206,206,206,208,210,214,217,220,222,225,228,231,233,238,246,266,311,378,468,575,681,725,712,594,366,87,-174,-344,-390,-324,-198,-68,36,103,150,168,175,180,182,182,179,175,172,170,166,162,157,154,152,150,148,144,141,140,142,146,153,164,185,195,200,204,208,211,213,215,216,218,219,220,220,221,220,219,218,216,215,213,211,209,206,202,191,181,170,158,145,131,117,103,89,69,46,11,-24,-44,-77,-109,-132,-156,-173,-184,-193,-200,-206,-212,-217,-219,-222,-226,-228,-228,-228,-226,-224,-220,-216,-211,-204,-197,-189,-181,-175,-168,-163,-160,-161,-167,-175,-186,-203,-234,-251,-261,-269,-274,-275,-273,-267,-259,-245,-224,-212,-204,-198,-195,-193,-192,-191,-190,-191,-201,-212,-223,-239,-256,-270,-273,-274,-275,-276,-276,-276,-276,-277,-277,-276,-273,-269,-263,-252,-231,-198,-148,-74,27,148,267,316,302,181,-44,-317,-563,-719,-749,-671,-534,-387,-275,-218,-194,-180,-168,-157,-152,-149,-146,-143,-141,-138,-135,-132,-128,-123,-115,-102,-91,-81,-69,-60,-48,-33,-17,-1,11,21,34,46,57,70,81,89,96,103,111,124,144,160,172,183,196,213,223,228,232,235,237,239,239,237,235,232,227,222,215,202,188,174,160,146,129,106,83,62,43,26,10,-6,-26,-45,-57,-65,-70,-73,-74,-75,-76,-77,-77,-78,-78,-76,-73,-68,-63,-58,-52,-46,-42,-40,-37,-33,-29,-22,-14,-2,13,23,29,34,39,43,48,52,55,60,66,73,79,85,93,100,100,96,89,77,59,42,22,2,-20,-39,-51,-61,-68,-78,-87,-93,-97,-101,-104,-107,-106,-103,-96,-84,-64,-31,16,82,166,271,390,498,556,530,394,162,-113,-363,-533,-583,-524,-395,-260,-151,-77,-28,0,15,25,31,35,37,40,44,49,55,60,64,68,71,75,78,82,87,93,101,109,117,127,139,147,152,155,159,164,171,178,185,194,201,206,209,210,211,212,213,214,215,216,217,216,216,215,214,212,211,210,208,206,203,199,192,172,149,128,95,59,19,-24,-66,-103,-131,-147,-156,-161,-164,-165,-162,-157,-151,-146,-141,-136,-131,-125,-119,-113,-108,-102,-95,-89,-83,-77,-69,-58,-49,-41,-31,-19,-6,7,20,33,46,59,71,84,97,108,119,131,143,155,167,175,180,183,186,188,187,184,177,169,161,149,138,128,122,117,112,108,104,100,96,92,87,80,73,67,60,55,57,69,98,153,235,340,455,560,596,580,460,230,-55,-337,-539,-613,-552,-404,-244,-114,-38,-16,-10,-5,-1,4,10,17,28,44,60,71,79,85,90,93,96,98,99,100,101,103,104,105,107,110,112,115,119,123,129,138,148,158,167,177,187,194,198,200,201,203,204,205,206,206,205,203,199,194,189,181,170,158,146,127,101,76,52,30,10,-23,-59,-80,-100,-120,-139,-159,-179,-200,-211,-216,-220,-224,-227,-229,-229,-229,-228,-228,-227,-224,-221,-218,-215,-210,-201,-193,-186,-179,-171,-163,-155,-142,-124,-112,-105,-97,-87,-81,-76,-71,-68,-67,-68,-72,-77,-84,-97,-121,-139,-151,-160,-168,-176,-183,-189,-195,-201,-208,-215,-223,-231,-236,-240,-243,-246,-249,-254,-259,-264,-268,-272,-277,-285,-291,-294,-291,-285,-273,-240,-173,-76,44,175,289,347,310,154,-101,-391,-647,-770,-777,-690,-528,-377,-274,-217,-190,-173,-157,-139,-126,-121,-117,-112,-107,-101,-93,-82,-69,-56,-44,-31,-20,-10,-1,6,14,21,27,33,39,46,54,62,70,84,102,119,139,155,165,175,184,192,198,204,209,214,219,224,230,235,235,231,225,215,197,177,156,117,77,40,17,-4,-26,-61,-99,-131,-151,-169,-183,-196,-214,-236,-248,-255,-260,-264,-266,-266,-267,-267,-267,-268,-269,-269,-269,-269,-266,-262,-256,-251,-245,-239,-233,-227,-223,-220,-216,-209,-199,-189,-176,-159,-145,-135,-122,-111,-101,-93,-87,-82,-76,-72,-68,-65,-61,-56,-57,-67,-81,-100,-122,-142,-162,-181,-192,-197,-201,-203,-204,-204,-203,-202,-200,-197,-194,-191,-188,-185,-181,-177,-175,-171,-166,-148,-96,-17,88,217,347,449,483,419,246,-8,-287,-533,-664,-679,-620,-473,-325,-218,-188,-177,-175,-178,-178,-177,-178,-178,-178,-177,-176,-174,-171,-169,-167,-165,-164,-163,-163,-162,-161,-160,-159,-159,-158,-158,-157,-157,-155,-153,-150,-144,-137,-130,-118,-100,-88,-82,-77,-73,-69,-65,-62,-59,-56,-53,-51,-50,-51,-55,-59,-65,-73,-87,-95,-103,-112,-121,-132,-149,-169,-192,-219,-244,-266,-285,-302,-318,-333,-348,-360,-369,-380,-395,-417,-439,-454,-468,-477,-483,-488,-491,-494,-495,-496,-497,-497,-498,-500,-502,-503,-502,-497,-489,-481,-472,-463,-453,-446,-441,-437,-433,-429,-425,-421,-417,-413,-410,-406,-403,-400,-397,-395,-394,-394,-394,-395,-398,-402,-406,-411,-422,-443,-463,-484,-496,-502,-507,-510,-511,-510,-507,-503,-499,-495,-488,-482,-481,-483,-486,-490,-495,-485,-455,-399,-315,-219,-134,-98,-145,-296,-538,-821,-1077,-1251,-1293,-1213,-1056,-899,-778,-719,-700,-687,-676,-659,-636,-601,-566,-523,-473,-420,-371,-323,-278,-235,-192,-151,-112,-74,-32,13,60,105,145,182,218,253,289,312,336,362,389,417,447,471,507,544,570,601,630,658,683,704,728,749,764,777,788,800,809,815,819,823,824,822,817,808,798,784,767,744,717,692,666,637,613,592,571,553,540,528,522,517,513,511,510,510,512,515,520,526,535,550,562,574,586,597,608,620,630,643,659,676,694,708,719,732,750,770,786,805,822,835,848,856,861,865,868,870,871,871,870,868,865,861,856,849,835,825,810,792,776,759,742,723,705,692,680,667,654,644,637,631,624,617,610,603,596,593,600,616,660,740,851,984,1116,1185,1176,1057,820,530,250,47,-37,-4,105,238,352,436,489,520,532,536,532,522,510,496,485,477,472,465,457,448,434,413,392,368,341,316,295,280,273,270,268,267,265,264,264,264,266,269,273,278,282,287,294,300,304,306,307,308,310,312,314,314,312,308,302,292,275,258,243,228,211,193,172,145,123,90,56,22,-1,-27,-54,-80,-104,-123,-137,-149,-155,-159,-162,-164,-165,-166,-166,-165,-163,-160,-158,-157,-156,-156,-157,-157,-157,-157,-156,-155,-153,-150,-146,-143,-139,-135,-126,-111,-108,-106,-104,-102,-100,-99,-99,-101,-104,-108,-112,-116,-118,-120,-121,-124,-124,-122,-120,-119,-117,-116,-114,-112,-107,-104,-108,-118,-131,-145,-163,-176,-184,-190,-195,-198,-201,-206,-214,-221,-226,-225,-218,-206,-170,-107,-15,101,228,338,390,348,194,-58,-352,-606,-727,-737,-658,-513,-390,-316,-283,-264,-250,-239,-234,-232,-228,-224,-221,-219,-217,-214,-212,-209,-205,-200,-195,-190,-187,-186,-184,-182,-178,-174,-172,-171,-168,-164,-161,-158,-155,-152,-148,-143,-138,-134,-131,-127,-121,-113,-102,-95,-91,-89,-86,-80,-78,-80,-89,-102,-123,-154,-178,-196,-211,-231,-256,-281,-305,-321,-334,-343,-356,-378,-400,-416,-431,-443,-450,-461,-475,-485,-493,-499,-505,-510,-511,-510,-508,-505,-502,-498,-494,-489,-480,-466,-456,-447,-439,-433,-427,-419,-408,-394,-377,-359,-351,-347,-344,-343,-341,-340,-339,-338,-338,-337,-336,-334,-331,-327,-324,-320,-314,-309,-304,-300,-299,-296,-293,-293,-295,-298,-300,-300,-302,-304,-306,-308,-310,-311,-313,-314,-313,-313,-314,-316,-320,-323,-322,-311,-277,-228,-158,-67,47,176,302,377,373,283,51,-260,-577,-818,-897,-890,-764,-605,-479,-398,-358,-339,-321,-316,-313,-311,-307,-303,-301,-299,-296,-293,-291,-289,-282,-268,-250,-233,-217,-206,-198,-190,-184,-179,-170,-156,-140,-125,-112,-102,-92,-79,-65,-56,-51,-44,-35,-27,-18,-8,3,11,18,25,29,32,34,36,37,35,31,25,19,12,4,-11,-23,-40,-60,-78,-97,-116,-131,-144,-155,-164,-175,-188,-202,-216,-224,-229,-230,-232,-233,-235,-238,-242,-244,-244,-242,-240,-238,-237,-236,-234,-233,-232,-230,-227,-222,-216,-210,-207,-203,-198,-193,-190,-188,-186,-183,-178,-171,-165,-163,-163,-161,-159,-156,-154,-152,-149,-147,-145,-145,-148,-152,-154,-155,-156,-160,-166,-178,-190,-202,-214,-226,-232,-236,-238,-239,-240,-241,-242,-243,-245,-248,-252,-258,-262,-270,-268,-252,-213,-145,-46,80,219,343,401,394,292,78,-196,-468,-673,-769,-747,-642,-507,-392,-310,-270,-250,-238,-229,-217,-211,-206,-201,-200,-199,-197,-195,-193,-194,-195,-194,-193,-192,-192,-192,-193,-191,-187,-183,-179,-172,-161,-147,-137,-127,-119,-110,-101,-90,-77,-62,-45,-31,-21,-10,0,8,12,15,17,20,21,23,25,26,26,24,23,22,19,16,13,7,-8,-25,-45,-66,-87,-101,-107,-112,-112,-107,-101,-92,-79,-54,-25,4,33,62,81,99,118,138,158,178,196,213,229,244,258,269,278,288,301,319,335,348,359,371,383,399,418,434,444,450,455,459,465,473,479,483,486,487,488,489,491,492,493,493,492,491,490,488,485,480,470,451,427,399,383,369,359,350,343,339,337,335,333,330,327,323,315,303,295,289,290,304,341,408,502,624,757,882,964,965,903,709,436,144,-94,-198,-204,-118,23,150,236,268,280,286,287,288,292,297,300,300,302,299,277,248,219,192,166,155,150,145,150,167,193,210,228,245,260,274,287,298,305,314,328,343,360,376,393,408,426,445,461,475,492,508,522,533,542,551,557,562,565,566,567,566,562,552,535,518,503,478,454,425,389,350,310,274,243,217,195,171,144,122,107,96,92,87,82,74,63,52,42,32,20,10,0,-6,-13,-24,-35,-46,-53,-57,-60,-66,-74,-81,-88,-94,-98,-100,-98,-92,-86,-80,-78,-77,-75,-69,-63,-57,-53,-52,-53,-54,-56,-58,-61,-64,-67,-71,-85,-110,-134,-155,-168,-177,-189,-198,-207,-217,-224,-232,-238,-247,-256,-263,-267,-271,-275,-279,-285,-294,-310,-333,-350,-360,-357,-339,-303,-237,-152,-61,18,49,37,-46,-214,-435,-667,-854,-926,-926,-834,-701,-577,-489,-449,-428,-417,-397,-371,-338,-306,-270,-230,-192,-161,-143,-129,-120,-112,-105,-102,-100,-98,-97,-96,-95,-95,-95,-96,-96,-96,-96,-94,-92,-89,-87,-84,-78,-65,-52,-42,-32,-23,-15,-6,3,12,19,27,36,45,53,61,66,66,59,49,38,24,10,-7,-29,-54,-81,-109,-137,-166,-189,-210,-232,-255,-272,-282,-289,-290,-279,-262,-239,-214,-194,-169,-137,-115,-109,-108,-116,-130,-145,-161,-171,-178,-184,-189,-190,-185,-177,-171,-166,-162,-159,-157,-156,-155,-153,-150,-148,-147,-145,-139,-129,-110,-93,-78,-65,-53,-42,-30,-18,-10,-6,-2,0,-1,-1,-1,-3,-7,-12,-18,-25,-35,-45,-53,-61,-71,-84,-98,-110,-121,-131,-140,-149,-158,-166,-172,-178,-184,-191,-189,-174,-131,-65,27,149,288,427,525,534,481,295,21,-277,-530,-649,-657,-574,-433,-311,-221,-163,-133,-112,-97,-89,-86,-83,-81,-78,-74,-70,-67,-65,-63,-60,-57,-55,-51,-48,-44,-41,-38,-34,-28,-21,-13,2,14,25,33,39,43,48,52,56,61,69,79,95,109,122,134,147,155,160,165,170,173,174,172,168,164,157,150,140,123,111,96,77,57,34,9,-14,-38,-61,-84,-108,-131,-148,-153,-154,-154,-153,-153,-152,-152,-152,-153,-152,-151,-150,-149,-147,-145,-143,-141,-141,-140,-138,-135,-131,-124,-107,-89,-80,-74,-69,-66,-63,-61,-58,-55,-52,-49,-44,-38,-29,-11,4,20,33,40,44,48,51,54,53,51,46,40,31,21,7,-4,-14,-27,-39,-46,-48,-49,-50,-50,-52,-54,-56,-58,-60,-62,-64,-67,-69,-75,-84,-84,-75,-50,11,103,230,381,525,583,567,425,169,-130,-404,-582,-632,-567,-438,-312,-219,-167,-151,-141,-132,-125,-120,-117,-115,-112,-110,-108,-105,-102,-98,-95,-91,-88,-85,-83,-80,-77,-73,-69,-66,-62,-59,-56,-53,-51,-48,-44,-38,-26,-14,-2,11,28,45,62,79,96,105,111,116,120,123,125,125,124,122,118,113,107,101,90,79,68,51,28,5,-15,-33,-53,-75,-98,-115,-126,-138,-151,-167,-185,-200,-209,-215,-221,-224,-227,-227,-224,-221,-217,-213,-207,-199,-190,-180,-172,-167,-162,-158,-154,-149,-146,-142,-137,-131,-124,-116,-106,-96,-87,-79,-71,-63,-57,-51,-45,-37,-28,-21,-19,-17,-16,-14,-13,-12,-11,-11,-11,-12,-15,-19,-25,-31,-37,-45,-57,-67,-73,-78,-82,-85,-88,-91,-94,-97,-99,-101,-104,-107,-112,-119,-118,-107,-81,-21,70,194,338,471,534,525,416,183,-113,-399,-600,-668,-615,-489,-357,-253,-192,-169,-163,-160,-158,-157,-156,-155,-153,-152,-150,-148,-147,-145,-143,-139,-135,-128,-112,-97,-83,-69,-56,-44,-31,-18,-10,-5,-1,2,7,11,15,21,30,45,61,78,94,107,123,146,162,170,178,186,194,200,204,209,212,214,214,212,208,202,194,180,151,121,95,74,53,35,12,-7,-19,-29,-38,-47,-56,-66,-76,-82,-87,-91,-95,-97,-97,-95,-92,-89,-85,-81,-75,-69,-62,-54,-45,-37,-30,-24,-19,-12,-5,1,10,20,32,42,53,64,77,84,89,93,96,99,102,104,105,106,107,109,110,112,115,116,116,114,110,105,96,79,62,47,32,18,3,-12,-29,-47,-56,-61,-64,-67,-70,-73,-77,-81,-89,-100,-104,-110,-108,-85,-36,42,152,290,440,566,620,566,393,130,-161,-397,-492,-491,-391,-237,-99,-5,45,68,81,92,101,108,115,123,132,147,167,188,207,225,244,257,263,268,273,278,282,289,299,308,317,326,337,350,361,367,370,371,373,374,376,377,378,379,380,381,382,382,383,384,385,387,390,393,393,389,383,375,363,355,344,327,306,287,268,250,232,212,188,165,141,119,99,79,60,40,31,27,24,22,21,19,17,15,12,11,9,8,7,6,4,3,1,-3,-7,-10,-9,-4,1,9,21,35,46,53,59,66,71,76,81,86,91,96,102,108,111,114,117,119,121,123,124,125,126,126,125,124,123,122,120,117,115,111,107,98,89,82,74,63,49,37,28,20,15,10,7,3,0,-2,-1,0,0,1,4,13,74,173,315,486,647,715,699,554,276,-53,-336,-507,-552,-488,-361,-228,-123,-62,-36,-29,-24,-20,-15,-11,-7,-3,1,6,11,17,21,24,28,31,33,35,35,33,30,25,21,17,12,8,4,2,2,5,8,13,19,26,35,44,55,68,79,90,100,108,115,120,123,119,111,105,100,95,90,85,80,74,67,60,53,46,32,12,-6,-25,-44,-65,-82,-95,-108,-117,-123,-128,-133,-138,-142,-147,-153,-161,-168,-175,-179,-182,-184,-185,-187,-188,-191,-194,-196,-198,-200,-203,-207,-216,-236,-252,-262,-265,-267,-269,-270,-267,-261,-259,-257,-256,-254,-252,-251,-250,-248,-247,-247,-247,-247,-248,-250,-252,-254,-256,-259,-262,-265,-269,-275,-289,-303,-317,-331,-342,-349,-355,-359,-362,-362,-360,-355,-351,-347,-344,-341,-338,-334,-331,-327,-321,-313,-281,-226,-148,-43,84,226,350,412,374,217,-36,-331,-592,-753,-786,-704,-559,-415,-303,-239,-216,-205,-199,-194,-190,-184,-179,-173,-168,-164,-160,-155,-150,-145,-140,-136,-132,-128,-124,-121,-118,-115,-113,-110,-105,-98,-89,-78,-66,-55,-47,-41,-31,-13,4,17,28,38,46,55,66,72,76,80,83,85,87,88,88,87,85,83,80,76,71,60,39,20,0,-21,-44,-69,-94,-115,-130,-145,-155,-163,-168,-172,-175,-177,-179,-181,-183,-185,-185,-183,-179,-175,-169,-162,-156,-153,-150,-148,-145,-142,-139,-136,-131,-127,-121,-114,-108,-103,-99,-96,-93,-89,-85,-82,-79,-76,-72,-67,-61,-53,-45,-37,-28,-21,-16,-13,-10,-7,-4,-4,-9,-14,-19,-24,-30,-37,-45,-60,-79,-90,-96,-102,-109,-117,-124,-132,-139,-144,-148,-154,-161,-169,-174,-178,-182,-183,-181,-173,-161,-122,-44,66,215,383,534,605,548,356,56,-274,-541,-667,-678,-608,-479,-365,-286,-252,-241,-234,-228,-221,-212,-202,-196,-192,-189,-186,-182,-178,-174,-166,-156,-147,-135,-120,-105,-91,-84,-80,-78,-75,-72,-70,-67,-63,-57,-47,-39,-28,-13,2,19,45,73,101,127,154,183,202,213,219,224,227,228,227,224,221,217,212,205,197,190,178,163,140,114,87,69,49,30,1,-23,-40,-55,-66,-78,-87,-94,-99,-103,-106,-109,-113,-117,-122,-127,-133,-140,-149,-159,-169,-178,-181,-182,-183,-183,-184,-185,-184,-183,-180,-176,-171,-163,-155,-148,-142,-135,-126,-115,-104,-97,-91,-85,-79,-71,-62,-52,-43,-34,-26,-13,-6,-2,1,4,6,7,7,6,5,3,0,-3,-8,-18,-28,-37,-45,-53,-61,-68,-74,-79,-83,-86,-90,-97,-110,-121,-129,-129,-121,-101,-53,26,140,287,450,590,662,624,464,198,-112,-390,-565,-607,-529,-387,-247,-145,-84,-60,-53,-46,-40,-30,-15,-1,12,26,41,55,70,87,102,117,130,142,154,166,180,190,196,201,206,212,223,240,255,266,276,288,305,323,342,362,378,391,404,417,432,449,467,488,507,525,542,554,562,565,568,571,563,539,513,488,474,453,429,401,370,353,336,320,303,286,270,253,240,229,219,205,188,179,175,172,169,166,163,160,157,153,147,137,130,125,122,119,117,116,117,120,124,129,133,137,142,147,152,157,163,171,181,190,198,212,230,247,267,280,287,292,295,296,295,293,290,285,277,261,244,226,208,188,171,158,146,134,122,111,100,89,78,68,61,52,42,34,27,21,16,12,9,6,1,-5,-4,6,33,79,153,262,400,547,664,698,614,410,121,-186,-431,-526,-525,-424,-289,-190,-160,-153,-148,-145,-143,-142,-142,-144,-146,-148,-152,-155,-155,-149,-141,-131,-117,-104,-96,-91,-86,-82,-78,-75,-72,-69,-64,-57,-49,-41,-26,-8,5,15,26,41,62,84,105,120,129,138,147,154,160,165,170,175,179,183,186,190,194,196,197,196,193,188,181,168,147,131,113,91,68,42,18,-4,-25,-44,-66,-77,-81,-85,-88,-90,-92,-94,-94,-94,-94,-93,-91,-87,-84,-80,-77,-73,-70,-66,-63,-59,-55,-51,-47,-44,-43,-42,-41,-41,-41,-41,-41,-41,-40,-39,-38,-38,-40,-45,-51,-58,-65,-72,-79,-86,-90,-94,-99,-104,-112,-121,-130,-141,-154,-168,-186,-209,-234,-257,-274,-284,-293,-300,-304,-308,-312,-316,-319,-322,-323,-323,-322,-321,-318,-314,-308,-294,-237,-152,-35,101,226,275,258,120,-136,-442,-707,-845,-857,-781,-630,-491,-396,-349,-333,-319,-306,-298,-294,-291,-288,-285,-281,-277,-274,-270,-266,-262,-258,-252,-246,-241,-236,-232,-228,-224,-220,-217,-213,-209,-205,-199,-193,-183,-166,-152,-138,-123,-103,-88,-77,-69,-63,-59,-56,-53,-50,-48,-46,-44,-43,-43,-46,-49,-53,-58,-64,-73,-89,-103,-120,-144,-169,-196,-219,-237,-255,-279,-308,-335,-362,-380,-391,-400,-407,-412,-415,-418,-421,-425,-429,-433,-436,-439,-442,-445,-447,-449,-452,-455,-458,-460,-462,-463,-463,-461,-458,-455,-451,-446,-441,-436,-432,-425,-417,-409,-401,-392,-382,-373,-363,-354,-344,-334,-323,-311,-301,-295,-290,-288,-284,-282,-280,-279,-278,-278,-280,-284,-289,-293,-297,-300,-304,-306,-309,-312,-315,-317,-319,-320,-320,-320,-319,-318,-316,-312,-306,-300,-293,-264,-202,-109,20,175,320,378,364,235,-9,-293,-545,-689,-709,-667,-536,-404,-300,-234,-202,-188,-181,-176,-172,-169,-166,-162,-159,-155,-151,-147,-139,-126,-113,-101,-87,-70,-52,-38,-27,-19,-13,-6,-2,1,5,8,13,19,25,33,45,64,81,103,129,153,175,209,250,294,340,388,438,488,541,594,645,689,707,715,721,720,703,679,650,606,560,510,462,414,382,347,311,275,240,204,174,148,124,103,81,58,36,20,8,3,0,-2,-4,0,11,21,31,37,40,44,49,49,38,29,21,17,21,29,38,49,61,69,75,80,84,85,84,82,77,72,67,61,54,48,42,37,32,28,24,22,22,24,28,34,42,56,70,85,99,113,127,140,153,165,176,186,192,195,197,200,202,205,210,228,264,322,406,521,656,801,947,1083,1173,1181,1127,929,633,299,-3,-215,-282,-276,-176,-60,19,40,48,53,55,55,50,42,34,23,11,0,-10,-17,-24,-29,-34,-38,-44,-50,-55,-60,-63,-67,-70,-74,-76,-78,-79,-78,-76,-73,-69,-65,-60,-55,-50,-45,-40,-33,-22,-5,11,29,46,57,60,62,62,62,64,66,69,72,77,82,90,108,132,153,164,172,179,188,196,202,208,216,221,225,234,246,266,301,350,395,438,500,581,676,774,863,934,976,991,997,992,980,951,920,910,912,933,995,1093,1218,1362,1516,1662,1781,1864,1886,1894,1878,1824,1746,1656,1571,1496,1425,1360,1304,1254,1194,1130,1069,1014,965,918,871,823,773,720,668,619,574,532,488,456,418,383,350,322,300,278,259,242,226,204,176,145,112,88,74,71,82,106,159,235,304,329,317,263,164,40,-92,-224,-353,-469,-562,-606,-611,-567,-492,-415,-353,-322,-312,-311,-313,-314,-313,-313,-314,-317,-318,-318,-317,-316,-315,-313,-310,-308,-306,-304,-303,-301,-299,-296,-292,-286,-281,-277,-274,-270,-259,-238,-216,-196,-176,-153,-130,-105,-76,-56,-49,-46,-44,-44,-45,-44,-41,-41,-43,-46,-50,-54,-57,-60,-68,-86,-103,-124,-149,-175,-202,-227,-252,-274,-295,-317,-335,-349,-363,-370,-373,-376,-380,-383,-386,-387,-388,-389,-388,-385,-382,-380,-377,-372,-367,-362,-357,-350,-341,-333,-327,-321,-311,-292,-277,-268,-258,-249,-237,-219,-207,-200,-194,-189,-185,-182,-176,-166,-154,-142,-131,-119,-107,-95,-87,-84,-81,-79,-78,-77,-77,-80,-86,-93,-99,-103,-108,-113,-118,-120,-120,-118,-115,-112,-108,-105,-103,-101,-98,-95,-92,-88,-82,-71,-37,22,110,226,363,497,588,593,531,328,46,-243,-465,-566,-537,-417,-265,-133,-43,-3,13,31,43,50,56,63,69,74,77,80,85,89,94,99,103,109,117,124,130,135,143,152,161,167,172,175,180,187,194,206,224,238,248,259,271,289,306,319,330,337,342,343,344,345,346,347,344,340,333,323,305,291,280,267,252,235,208,180,147,125,99,77,45,11,-9,-28,-42,-49,-53,-55,-55,-47,-36,-30,-27,-23,-20,-18,-15,-13,-9,-4,0,3,4,5,6,9,13,16,21,26,32,39,46,53,57,59,63,67,71,74,77,81,86,90,92,94,95,95,97,103,109,112,112,110,107,104,98,88,77,65,53,39,21,6,-5,-18,-29,-36,-42,-48,-52,-57,-61,-63,-66,-72,-80,-91,-98,-101,-105,-107,-91,-45,26,128,260,406,530,580,523,345,75,-230,-502,-654,-672,-614,-468,-329,-223,-165,-145,-134,-125,-120,-115,-110,-105,-97,-89,-82,-77,-71,-65,-60,-55,-48,-41,-31,-22,-13,0,12,26,40,55,69,84,99,114,126,137,148,161,167,171,172,174,176,177,176,177,178,178,178,176,174,171,167,164,162,162,159,156,151,139,127,116,106,96,85,71,56,40,19,-2,-21,-44,-64,-76,-80,-83,-84,-85,-86,-87,-89,-89,-85,-79,-72,-63,-53,-36,-23,-10,2,13,17,19,20,22,23,22,21,20,21,22,23,24,26,27,29,32,35,38,40,44,48,53,56,55,52,48,44,39,33,26,17,8,-1,-13,-29,-43,-56,-70,-84,-93,-99,-103,-107,-112,-116,-119,-122,-128,-137,-151,-166,-176,-185,-191,-195,-193,-186,-174,-143,-83,0,113,245,372,438,429,310,63,-237,-523,-723,-793,-731,-601,-473,-377,-318,-290,-267,-244,-232,-227,-224,-221,-216,-211,-205,-199,-194,-187,-176,-166,-158,-151,-143,-133,-123,-113,-102,-92,-80,-67,-47,-22,-6,3,14,23,36,56,76,99,119,133,147,166,188,206,220,234,243,250,255,257,258,257,255,251,246,239,230,212,195,171,143,115,88,62,40,6,-29,-68,-93,-119,-142,-161,-184,-204,-218,-230,-239,-246,-253,-259,-265,-272,-279,-287,-295,-304,-315,-330,-344,-355,-364,-371,-374,-376,-378,-380,-381,-381,-378,-372,-366,-361,-355,-350,-343,-338,-333,-328,-323,-317,-313,-311,-310,-310,-309,-308,-306,-304,-302,-302,-304,-310,-315,-321,-328,-335,-343,-350,-359,-368,-378,-387,-395,-401,-407,-413,-419,-425,-433,-442,-452,-461,-469,-478,-483,-481,-472,-450,-401,-324,-219,-82,75,223,295,286,164,-84,-390,-665,-816,-832,-765,-599,-438,-319,-251,-221,-207,-196,-184,-171,-161,-152,-145,-139,-134,-129,-124,-119,-114,-111,-109,-108,-107,-105,-103,-102,-102,-104,-108,-111,-116,-121,-126,-128,-126,-120,-112,-98,-76,-55,-35,-16,3,22,43,67,89,107,120,132,147,167,187,199,202,204,207,208,207,202,195,183,162,140,118,95,73,52,30,9,-5,-22,-33,-41,-47,-52,-55,-58,-59,-60,-63,-66,-69,-70,-68,-61,-50,-34,-3,28,61,95,127,158,190,218,238,253,262,267,271,274,277,280,284,289,294,300,307,316,325,329,332,334,336,338,340,341,342,342,339,333,326,318,311,302,292,283,274,265,258,251,244,239,234,229,224,219,212,203,193,182,170,158,143,136,141,156,193,266,370,501,645,766,822,777,619,368,74,-185,-331,-348,-289,-152,-33,27,47,58,63,66,68,69,68,67,66,64,64,63,63,63,63,63,63,64,66,70,74,78,82,89,100,112,121,129,141,156,172,188,203,218,232,247,265,281,295,307,318,328,339,351,366,377,388,396,400,402,403,405,407,409,410,407,400,391,380,363,349,330,308,288,266,242,218,199,184,166,149,131,111,94,79,66,53,47,43,39,36,33,30,27,26,25,25,25,26,27,28,29,31,34,37,42,47,52,57,61,65,69,71,74,78,81,86,90,94,97,100,101,100,98,95,91,87,82,77,72,67,61,55,49,41,31,22,15,10,7,4,1,-1,-5,-10,-15,-19,-22,-24,-24,-23,-21,-16,-9,0,32,95,183,297,426,540,582,567,438,201,-82,-337,-481,-496,-438,-299,-169,-80,-47,-41,-35,-30,-25,-23,-22,-22,-20,-19,-18,-17,-17,-17,-16,-16,-16,-15,-15,-16,-17,-18,-19,-20,-20,-21,-22,-23,-23,-23,-22,-20,-17,-13,-9,-4,3,18,32,40,47,52,57,61,64,67,69,69,68,66,63,57,51,43,34,22,0,-23,-46,-69,-92,-115,-139,-162,-184,-206,-229,-239,-245,-251,-256,-261,-265,-268,-270,-271,-271,-270,-266,-262,-257,-252,-247,-242,-238,-234,-229,-223,-216,-210,-205,-201,-198,-195,-193,-191,-188,-184,-178,-171,-163,-153,-142,-130,-118,-106,-93,-81,-69,-58,-48,-39,-31,-22,-15,-10,-5,0,2,3,1,-4,-11,-20,-30,-44,-58,-72,-80,-86,-91,-96,-100,-103,-107,-110,-113,-116,-120,-124,-128,-135,-142,-145,-143,-135,-122,-87,-20,74,197,336,462,523,514,400,162,-128,-402,-593,-655,-586,-442,-290,-175,-132,-119,-111,-103,-96,-90,-86,-83,-80,-78,-75,-70,-64,-58,-53,-48,-44,-40,-36,-30,-24,-18,-13,-9,-5,-1,1,4,8,12,16,21,26,31,37,43,50,57,65,74,82,90,98,107,115,123,129,135,140,145,149,152,156,160,162,165,167,169,172,176,180,181,179,173,163,152,135,118,101,83,66,52,41,33,26,20,12,4,-3,-11,-20,-29,-38,-47,-56,-64,-69,-70,-71,-71,-72,-73,-74,-74,-74,-74,-74,-73,-72,-72,-71,-69,-68,-67,-65,-64,-62,-61,-58,-56,-54,-52,-49,-46,-44,-43,-43,-45,-47,-50,-54,-57,-64,-75,-87,-102,-123,-140,-152,-163,-172,-183,-195,-209,-216,-222,-227,-231,-234,-236,-237,-238,-238,-236,-233,-228,-215,-167,-92,11,140,273,381,425,365,189,-82,-375,-617,-742,-754,-686,-549,-423,-330,-278,-255,-239,-218,-192,-175,-171,-168,-166,-164,-162,-160,-158,-157,-155,-154,-152,-151,-148,-144,-139,-133,-129,-125,-120,-114,-104,-95,-88,-75,-58,-44,-36,-28,-20,-8,9,25,35,45,55,63,70,75,79,82,85,87,89,91,93,94,93,89,82,70,51,32,12,-8,-28,-47,-67,-89,-112,-137,-157,-173,-189,-204,-222,-235,-241,-246,-250,-252,-253,-254,-254,-256,-257,-258,-257,-256,-252,-248,-241,-228,-218,-210,-202,-195,-190,-186,-182,-179,-172,-161,-149,-137,-124,-111,-96,-81,-69,-60,-51,-42,-33,-26,-17,-4,3,7,11,13,15,15,14,11,8,3,-1,-7,-17,-25,-31,-38,-45,-50,-55,-58,-60,-58,-52,-46,-38,-32,-29,-26,-23,-19,-15,-8,13,60,131,228,356,500,628,695,659,502,247,-50,-318,-491,-542,-472,-323,-171,-67,-20,-2,5,13,24,31,36,39,40,39,35,31,26,21,18,17,20,25,31,40,49,61,77,90,97,104,111,121,135,148,161,170,177,185,196,212,226,235,241,245,253,266,275,279,282,284,286,287,288,289,290,293,292,283,269,252,237,221,196,169,144,117,89,66,53,34,8,-23,-53,-73,-79,-83,-90,-95,-98,-101,-102,-104,-105,-107,-108,-109,-109,-109,-110,-109,-108,-107,-105,-103,-101,-98,-95,-92,-86,-81,-76,-70,-64,-61,-58,-55,-52,-49,-47,-45,-44,-43,-43,-43,-44,-45,-47,-49,-51,-53,-56,-60,-65,-78,-89,-100,-112,-123,-134,-145,-157,-171,-191,-203,-211,-216,-220,-222,-224,-226,-228,-230,-233,-238,-243,-249,-255,-259,-253,-239,-199,-128,-27,101,245,368,425,375,208,-55,-357,-615,-768,-800,-728,-598,-470,-373,-315,-288,-281,-277,-273,-268,-264,-260,-256,-249,-239,-231,-224,-219,-216,-213,-209,-204,-200,-194,-183,-165,-146,-131,-120,-106,-91,-76,-61,-46,-34,-25,-15,-1,13,29,45,63,84,103,116,126,135,145,157,164,169,174,177,178,178,176,173,168,161,148,124,101,81,54,27,0,-32,-63,-94,-114,-137,-160,-178,-191,-203,-213,-224,-236,-247,-256,-259,-260,-261,-263,-265,-265,-263,-260,-258,-256,-255,-253,-251,-249,-246,-243,-240,-237,-232,-225,-218,-212,-206,-200,-194,-190,-185,-177,-163,-151,-144,-140,-137,-135,-134,-132,-131,-130,-130,-129,-129,-131,-133,-137,-140,-146,-156,-164,-175,-191,-203,-210,-215,-221,-225,-229,-232,-234,-236,-237,-238,-238,-238,-236,-233,-229,-224,-204,-156,-83,17,148,292,422,492,461,315,73,-212,-468,-627,-663,-580,-429,-280,-169,-111,-85,-75,-67,-55,-42,-29,-15,0,16,29,37,44,50,61,75,90,104,115,124,134,147,162,172,181,189,201,217,232,248,262,277,292,308,321,331,340,352,365,378,392,402,408,415,421,426,430,433,435,436,436,435,433,429,422,400,374,348,322,295,267,239,211,181,164,150,139,130,119,103,90,81,72,65,59,52,45,39,33,30,30,36,44,52,61,70,79,85,90,94,98,101,104,107,110,113,117,121,125,129,134,138,142,146,151,157,164,171,177,182,186,192,196,197,192,185,178,169,160,150,134,113,93,74,60,50,43,38,33,30,29,30,32,34,35,36,38,41,43,47,52,68,113,182,283,410,553,686,751,744,640,417,138,-125,-315,-387,-345,-224,-84,25,88,114,122,132,142,148,152,156,158,161,164,166,167,169,171,174,178,187,198,209,221,231,241,249,257,264,270,276,280,285,289,295,306,325,338,346,355,364,371,378,383,386,387,388,389,390,391,393,393,392,387,381,373,361,350,335,317,299,279,258,237,204,170,138,107,85,58,34,16,2,-8,-19,-31,-42,-50,-55,-60,-64,-69,-73,-76,-78,-79,-81,-83,-84,-85,-86,-87,-87,-87,-86,-85,-83,-81,-78,-74,-70,-67,-63,-59,-56,-53,-50,-46,-43,-40,-36,-34,-32,-31,-31,-32,-33,-35,-38,-42,-46,-51,-58,-72,-88,-104,-119,-133,-146,-159,-174,-187,-196,-204,-212,-220,-227,-235,-242,-247,-251,-255,-260,-262,-256,-240,-200,-131,-37,80,212,328,378,321,149,-119,-417,-658,-761,-763,-673,-527,-406,-339,-318,-305,-297,-291,-285,-280,-276,-273,-270,-266,-263,-257,-250,-242,-234,-230,-227,-225,-223,-220,-216,-213,-208,-203,-197,-189,-177,-167,-159,-151,-142,-134,-126,-119,-112,-102,-88,-74,-61,-49,-39,-33,-28,-24,-20,-16,-14,-13,-13,-14,-15,-19,-23,-28,-33,-41,-56,-68,-81,-94,-110,-118,-123,-128,-132,-135,-138,-140,-140,-140,-140,-139,-137,-135,-133,-130,-127,-123,-116,-103,-91,-80,-69,-53,-46,-42,-40,-38,-37,-36,-35,-33,-31,-29,-27,-25,-25,-25,-24,-24,-23,-22,-20,-18,-16,-14,-13,-13,-15,-18,-21,-25,-30,-36,-42,-48,-52,-58,-67,-78,-88,-100,-114,-129,-146,-160,-167,-173,-178,-182,-185,-188,-192,-195,-200,-205,-211,-220,-233,-240,-247,-253,-244,-220,-173,-98,4,131,273,402,453,440,321,82,-214,-489,-668,-715,-639,-497,-355,-252,-194,-167,-157,-152,-149,-146,-145,-144,-141,-137,-131,-122,-110,-100,-93,-86,-80,-75,-66,-51,-36,-25,-15,-6,3,15,26,37,47,56,64,72,82,96,116,137,158,179,198,215,233,251,266,272,275,278,280,281,281,281,280,277,272,266,256,237,218,198,176,157,140,119,95,72,57,48,39,30,22,6,-14,-28,-37,-45,-55,-70,-87,-93,-97,-100,-103,-105,-105,-106,-108,-110,-111,-114,-116,-119,-122,-124,-126,-126,-126,-124,-122,-119,-116,-113,-107,-96,-88,-81,-75,-67,-60,-56,-52,-49,-47,-46,-47,-49,-54,-59,-78,-103,-119,-135,-151,-166,-183,-200,-211,-218,-221,-223,-224,-224,-225,-227,-229,-232,-234,-237,-241,-247,-256,-262,-267,-271,-258,-224,-161,-73,40,178,319,407,407,319,94,-203,-501,-731,-841,-812,-689,-539,-419,-346,-306,-286,-271,-255,-246,-241,-237,-233,-228,-220,-210,-203,-195,-182,-171,-162,-153,-143,-133,-122,-113,-105,-99,-93,-87,-79,-71,-63,-55,-46,-33,-19,-9,0,10,25,42,58,73,86,100,116,133,149,160,170,176,181,184,186,186,183,179,173,163,147,119,94,69,43,14,-14,-43,-60,-79,-98,-116,-134,-153,-170,-178,-183,-187,-189,-190,-191,-191,-190,-189,-187,-183,-180,-173,-157,-141,-130,-121,-113,-106,-99,-90,-84,-79,-74,-69,-64,-58,-51,-40,-26,-14,-6,0,6,11,19,29,33,36,38,39,42,44,45,46,48,50,51,51,50,48,43,38,27,8,-6,-17,-27,-36,-46,-56,-62,-65,-69,-72,-74,-76,-77,-77,-76,-75,-74,-71,-67,-54,-16,47,141,266,411,545,616,587,442,194,-105,-384,-569,-620,-552,-411,-272,-175,-120,-90,-77,-63,-56,-52,-50,-48,-47,-45,-43,-41,-39,-37,-35,-33,-31,-26,-19,-11,-4,4,14,22,28,32,35,38,42,47,52,60,72,82,96,114,131,150,165,174,184,194,201,206,211,214,216,216,215,212,208,204,194,177,162,147,132,115,100,88,74,55,31,6,-17,-41,-65,-90,-116,-135,-146,-153,-157,-160,-162,-164,-165,-166,-168,-169,-169,-169,-168,-168,-167,-165,-164,-162,-160,-158,-155,-152,-149,-145,-138,-130,-124,-118,-112,-104,-93,-75,-64,-57,-52,-47,-43,-41,-40,-39,-39,-38,-37,-37,-36,-35,-34,-34,-35,-39,-44,-51,-59,-72,-86,-98,-107,-117,-126,-131,-135,-138,-141,-144,-147,-150,-153,-157,-160,-164,-169,-177,-191,-192,-183,-162,-112,-33,77,217,371,510,572,559,435,187,-125,-426,-630,-695,-632,-500,-355,-240,-168,-144,-136,-132,-127,-122,-115,-102,-80,-61,-49,-41,-34,-29,-25,-21,-17,-11,-5,2,14,32,45,54,61,67,73,79,86,91,97,103,110,117,123,130,136,143,151,159,168,180,197,210,220,228,233,235,237,239,241,243,243,239,232,221,203,183,159,131,103,80,64,49,34,18,3,-10,-21,-32,-43,-55,-71,-87,-100,-109,-116,-119,-120,-121,-122,-123,-124,-124,-125,-125,-126,-126,-126,-126,-125,-123,-120,-118,-115,-112,-109,-107,-105,-103,-100,-96,-93,-89,-86,-83,-81,-78,-76,-73,-70,-67,-64,-62,-59,-58,-58,-59,-62,-65,-69,-73,-78,-85,-92,-99,-105,-112,-122,-137,-153,-166,-176,-183,-189,-193,-196,-199,-201,-203,-206,-208,-210,-213,-216,-221,-230,-218,-183,-121,-28,93,239,386,472,474,394,184,-92,-374,-585,-669,-669,-587,-464,-366,-302,-269,-256,-246,-241,-238,-235,-232,-231,-229,-227,-225,-223,-221,-218,-216,-214,-211,-207,-201,-196,-191,-186,-181,-176,-169,-162,-154,-146,-135,-121,-111,-99,-80,-58,-36,-18,-4,5,18,34,52,71,86,94,102,110,115,119,123,125,126,125,122,117,111,102,88,75,59,38,17,-5,-29,-53,-76,-101,-128,-154,-173,-186,-195,-202,-206,-210,-213,-215,-217,-218,-219,-219,-219,-218,-217,-214,-212,-208,-204,-195,-176,-161,-152,-144,-136,-127,-115,-107,-96,-81,-62,-44,-12,17,38,62,85,108,132,156,177,191,201,213,224,234,238,241,242,244,244,245,245,243,239,234,228,220,207,199,195,192,191,189,187,185,183,180,178,176,173,170,164,154,153,161,183,239,328,449,595,747,871,923,867,693,436,147,-104,-258,-295,-234,-115,2,90,143,173,181,186,191,195,199,203,210,220,232,238,241,244,245,247,249,250,252,254,255,257,258,259,260,263,269,285,298,305,313,320,331,350,366,379,389,399,409,419,431,448,459,463,467,470,472,472,471,469,466,461,455,442,421,404,389,365,334,301,269,235,212,187,166,137,105,84,67,56,47,38,26,14,4,-2,-7,-13,-21,-30,-35,-39,-42,-45,-48,-51,-54,-56,-58,-60,-61,-61,-62,-62,-63,-64,-66,-68,-70,-70,-66,-59,-52,-48,-45,-41,-38,-35,-31,-28,-25,-23,-21,-21,-21,-22,-23,-24,-25,-27,-29,-31,-34,-37,-42,-55,-66,-80,-100,-121,-143,-158,-165,-171,-176,-181,-186,-190,-194,-197,-200,-202,-203,-203,-201,-198,-192,-186,-164,-109,-26,88,230,381,484,492,425,218,-66,-362,-588,-659,-650,-534,-385,-274,-229,-212,-210,-214,-217,-219,-221,-214,-201,-193,-188,-183,-179,-175,-170,-166,-163,-160,-157,-153,-149,-145,-141,-136,-131,-125,-117,-108,-100,-94,-88,-80,-69,-55,-44,-35,-27,-19,-11,0,13,23,27,30,32,34,36,36,37,37,37,36,33,29,25,20,9,-11,-32,-57,-86,-112,-136,-158,-180,-203,-214,-218,-223,-226,-228,-230,-231,-232,-232,-231,-229,-226,-223,-219,-215,-211,-205,-194,-185,-176,-162,-142,-126,-117,-109,-102,-97,-93,-90,-87,-84,-80,-75,-71,-66,-61,-55,-49,-43,-37,-29,-19,-10,-2,10,33,52,64,72,79,87,96,108,114,119,123,126,126,124,120,114,108,102,94,87,80,73,67,62,57,52,47,42,36,30,25,19,13,9,8,8,11,16,26,50,113,204,325,472,616,706,710,628,409,111,-178,-392,-462,-457,-363,-236,-133,-68,-37,-27,-22,-17,-16,-16,-16,-15,-14,-14,-14,-13,-13,-13,-13,-13,-12,-11,-8,-5,-2,1,4,8,16,24,32,39,48,58,68,76,85,97,108,120,132,145,163,183,198,209,220,231,241,248,251,254,257,259,259,256,252,245,237,219,194,173,150,124,96,64,38,15,-6,-26,-49,-68,-83,-96,-107,-116,-126,-136,-141,-145,-148,-151,-153,-154,-155,-155,-154,-153,-150,-147,-143,-140,-138,-136,-134,-133,-133,-132,-131,-129,-127,-125,-122,-120,-117,-113,-111,-108,-105,-100,-95,-90,-86,-82,-76,-71,-65,-57,-47,-36,-29,-24,-19,-15,-12,-11,-11,-13,-15,-20,-26,-38,-59,-81,-100,-117,-136,-153,-165,-175,-179,-183,-186,-188,-190,-192,-193,-195,-196,-198,-200,-202,-207,-206,-181,-135,-64,29,149,288,424,518,525,460,259,-19,-307,-534,-632,-633,-543,-404,-290,-226,-204,-195,-187,-177,-163,-151,-143,-134,-123,-116,-111,-106,-102,-98,-94,-90,-87,-83,-79,-74,-68,-64,-59,-53,-45,-37,-27,-18,-6,6,18,34,54,70,82,95,109,122,135,148,161,180,194,205,212,214,215,216,217,218,219,219,215,207,198,185,172,155,133,110,87,63,39,13,-12,-33,-50,-65,-81,-94,-96,-96,-97,-97,-97,-98,-98,-98,-98,-98,-98,-97,-96,-95,-95,-95,-96,-96,-96,-96,-96,-95,-94,-92,-91,-90,-88,-87,-85,-84,-81,-78,-72,-64,-57,-50,-42,-36,-30,-24,-19,-13,-7,-1,4,11,17,21,25,28,31,33,36,39,42,44,44,43,38,32,25,18,10,1,-8,-16,-23,-30,-36,-41,-47,-51,-55,-58,-62,-65,-68,-73,-80,-82,-76,-60,-18,48,144,267,414,561,650,651,564,337,33,-268,-495,-575,-571,-468,-328,-214,-150,-114,-103,-95,-86,-79,-75,-69,-60,-50,-39,-31,-27,-23,-19,-14,-9,-5,-2,1,5,11,17,23,28,35,44,58,70,80,89,99,111,123,135,145,153,162,171,180,191,204,218,228,234,238,241,243,245,246,247,246,244,241,236,230,219,198,178,157,137,115,89,62,34,9,-12,-35,-55,-69,-85,-92,-96,-100,-103,-106,-108,-110,-112,-112,-112,-112,-110,-108,-106,-103,-100,-98,-96,-93,-91,-89,-87,-85,-82,-80,-79,-78,-76,-75,-74,-73,-71,-69,-67,-66,-64,-63,-61,-58,-55,-51,-44,-31,-18,-6,0,5,10,14,16,17,16,14,11,8,4,0,-6,-13,-20,-27,-35,-47,-72,-88,-98,-103,-105,-103,-98,-90,-77
