62,43,27,18,7,-11,-50,-81,-92,-90,-75,-67,-61,-56,-53,-50,-49,-49,-50,-52,-55,-59,-64,-70,-76,-86,-93,-92,-84,-75,-71,-66,-61,-57,-55,-56,-60,-65,-72,-81,-95,-94,-74,-55,-38,-26,-17,-6,7,28,59,85,95,100,104,110,117,124,133,144,144,139,136,134,132,129,125,121,117,113,110,107,105,102,100,97,94,91,86,81,70,52,44,39,35,34,36,42,49,55,61,66,68,64,56,47,41,33,27,21,18,17,19,22,28,36,68,125,197,268,331,387,410,423,432,421,390,340,271,198,139,93,64,47,38,31,26,25,26,31,37,43,49,57,64,64,55,43,30,15,3,-6,-12,-18,-23,-27,-29,-30,-31,-30,-29,-26,-22,-17,-11,-6,-1,4,9,15,22,28,33,39,44,51,58,67,76,83,89,95,99,102,104,103,101,97,92,85,78,70,62,54,48,45,44,41,38,34,31,27,24,18,9,-2,-15,-33,-42,-42,-40,-39,-40,-41,-43,-43,-37,-28,-19,-13,-7,-1,3,7,9,7,0,-6,-15,-22,-30,-40,-49,-57,-59,-57,-53,-48,-41,-27,-3,12,23,28,23,10,-10,-39,-68,-94,-117,-141,-165,-193,-214,-227,-233,-231,-224,-206,-163,-111,-55,1,19,25,30,15,-29,-83,-143,-196,-228,-243,-248,-253,-258,-261,-264,-267,-270,-272,-274,-275,-276,-275,-273,-271,-269,-268,-267,-265,-263,-260,-257,-254,-250,-247,-241,-235,-227,-220,-212,-203,-194,-183,-173,-164,-157,-149,-140,-130,-119,-108,-96,-84,-71,-59,-48,-37,-27,-21,-21,-25,-32,-41,-51,-39,-30,-25,-21,-18,-18,-23,-30,-37,-42,-49,-55,-58,-57,-53,-47,-40,-32,-25,-21,-24,-31,-37,-40,-43,-45,-48,-50,-51,-49,-45,-40,-35,-31,-25,-20,-16,-13,-12,-12,-14,-17,-22,-27,-33,-41,-55,-62,-58,-44,-4,40,96,160,225,268,284,283,261,200,120,36,-40,-104,-161,-180,-187,-193,-190,-169,-152,-137,-127,-124,-122,-120,-116,-113,-119,-133,-143,-154,-162,-166,-164,-156,-145,-132,-112,-94,-86,-81,-76,-73,-69,-66,-62,-59,-55,-51,-46,-41,-36,-29,-19,-9,-5,-3,-2,0,0,3,5,6,5,0,-5,-11,-16,-23,-34,-45,-52,-59,-64,-68,-71,-74,-79,-86,-93,-100,-105,-111,-115,-119,-122,-125,-127,-130,-131,-130,-129,-125,-121,-117,-112,-105,-90,-60,-43,-35,-30,-25,-19,-13,-7,1,13,31,48,70,97,144,216,306,385,396,370,253,107,-15,-70,-85,-94,-107,-120,-132,-142,-150,-158,-164,-169,-171,-171,-171,-170,-167,-162,-155,-147,-139,-132,-122,-112,-102,-96,-92,-88,-84,-79,-72,-64,-54,-39,-13,18,34,43,49,56,61,66,70,74,77,80,84,89,93,97,102,108,117,131,136,138,139,141,141,140,133,122,105,79,54,29,18,13,9,6,3,1,0,-1,-3,-3,-4,-5,-6,-7,-10,-15,4,37,68,89,105,117,146,192,226,238,236,221,211,202,195,190,187,184,183,180,175,183,192,201,201,191,183,176,170,164,158,151,142,130,116,105,96,93,91,88,85,82,79,78,78,78,77,76,75,75,76,76,74,90,103,111,117,122,126,129,132,138,147,149,144,136,129,144,155,162,168,173,175,176,174,173,171,170,167,161,153,164,200,268,367,484,601,694,707,684,555,379,215,137,111,114,120,108,36,-31,-54,-37,-9,17,31,39,46,56,68,82,98,105,108,110,111,113,114,116,118,119,121,125,129,135,139,143,145,147,150,153,156,158,160,163,166,170,173,174,175,175,176,178,179,181,182,183,186,193,200,208,214,222,232,232,221,210,198,196,198,199,201,201,201,201,200,197,193,188,181,172,157,143,132,124,119,115,111,107,103,99,97,95,93,92,90,89,90,93,98,102,107,110,114,118,123,126,128,128,127,126,124,123,121,120,118,116,115,115,114,114,113,112,110,109,109,110,111,112,114,115,117,120,123,126,129,147,197,260,329,403,472,509,521,495,415,301,182,74,0,-28,-31,-19,0,25,42,55,52,27,16,9,4,1,0,-2,-3,-5,-8,-11,-15,-18,-20,-22,-22,-23,-24,-25,-28,-31,-38,-52,-60,-62,-62,-63,-66,-65,-49,-30,-11,0,4,7,10,12,15,16,17,16,14,10,6,3,0,-3,-6,-10,-13,-16,-18,-20,-24,-27,-31,-35,-39,-43,-48,-57,-74,-88,-100,-110,-118,-125,-132,-139,-145,-155,-167,-173,-177,-180,-182,-183,-184,-183,-179,-174,-168,-161,-152,-144,-143,-147,-151,-155,-160,-164,-166,-164,-158,-149,-134,-117,-111,-108,-106,-104,-101,-99,-97,-95,-93,-89,-85,-80,-75,-66,-61,-65,-72,-76,-79,-83,-87,-92,-96,-100,-105,-110,-115,-119,-123,-127,-131,-134,-138,-142,-145,-148,-150,-152,-154,-156,-160,-163,-166,-169,-171,-171,-170,-165,-157,-147,-128,-98,-88,-84,-81,-78,-76,-74,-72,-70,-69,-68,-67,-66,-64,-63,-63,-62,-62,-61,-60,-59,-58,-55,-51,-43,-25,3,44,102,175,254,329,385,392,370,274,131,-29,-157,-201,-201,-152,-114,-100,-100,-108,-114,-119,-123,-127,-131,-134,-137,-140,-141,-139,-132,-123,-108,-81,-62,-50,-37,-23,-10,2,8,1,-11,-22,-32,-40,-40,-36,-29,-22,-15,-5,6,26,45,52,56,59,62,66,71,76,82,88,95,102,107,111,114,119,126,130,124,111,96,77,64,55,49,44,38,32,26,21,14,8,1,-7,-18,-28,-38,-46,-50,-48,-43,-38,-34,-31,-27,-24,-22,-21,-22,-24,-28,-32,-37,-45,-45,-38,-31,-24,-26,-38,-44,-49,-53,-56,-58,-58,-54,-49,-44,-40,-36,-31,-25,-20,-18,-19,-24,-30,-36,-40,-47,-54,-57,-57,-53,-47,-41,-31,-25,-22,-20,-19,-18,-17,-16,-15,-14,-13,-11,-9,-7,-5,-4,-2,0,3,6,11,15,19,22,24,25,27,30,42,88,171,281,399,493,530,485,360,183,-1,-137,-181,-143,-80,-59,-65,-113,-165,-183,-190,-174,-147,-128,-121,-117,-114,-114,-116,-122,-129,-134,-141,-146,-146,-140,-132,-123,-109,-95,-80,-66,-51,-41,-35,-30,-25,-20,-15,-12,-8,-5,-2,3,9,17,26,47,68,74,78,83,87,91,95,98,101,104,105,105,104,102,99,95,80,42,20,8,3,0,-1,-3,-5,-8,-10,-12,-14,-17,-22,-41,-76,-89,-97,-93,-80,-75,-70,-65,-61,-57,-38,-14,-7,-3,0,2,2,1,-1,-4,-7,-12,-19,-10,3,19,27,32,36,39,39,36,32,27,23,20,16,12,8,6,6,7,10,15,21,44,90,147,212,269,283,271,198,83,-38,-131,-156,-151,-96,-47,-43,-68,-133,-181,-187,-168,-117,-64,-33,-23,-23,-33,-49,-61,-67,-72,-64,-54,-47,-55,-63,-68,-73,-80,-86,-96,-105,-99,-82,-52,-32,-26,-22,-19,-18,-18,-18,-19,-20,-21,-23,-25,-15,0,13,19,23,25,28,30,34,40,50,70,84,92,97,98,96,91,85,75,60,50,44,36,25,19,13,9,5,2,1,1,2,3,5,7,13,11,-7,-18,-23,-27,-28,-25,-20,-16,-11,-9,-12,-16,-20,-23,-27,-31,-34,-48,-71,-78,-71,-52,-36,-33,-30,-25,-20,-13,13,25,28,31,34,38,42,51,64,70,73,75,77,78,79,80,81,83,84,91,142,226,331,427,467,461,395,278,149,39,-21,-31,-16,3,8,12,16,20,27,53,66,71,60,41,23,14,8,5,5,9,14,17,20,23,25,27,28,29,32,35,30,24,19,14,9,-2,-28,-35,-37,-33,-8,8,13,17,24,30,38,47,47,37,26,14,14,21,28,34,40,45,49,53,59,61,60,57,53,50,46,41,37,34,32,29,25,21,17,12,2,-5,-7,-9,-5,0,3,-4,-11,-16,-20,-23,-25,-28,-37,-64,-72,-74,-75,-72,-69,-67,-65,-62,-60,-57,-53,-47,-55,-60,-64,-67,-70,-71,-70,-68,-66,-64,-63,-61,-60,-59,-57,-54,-52,-50,-50,-49,-48,-46,-45,-44,-43,-42,-41,-40,-37,-35,-32,-29,-23,-23,-30,-34,-37,-39,-42,-44,-46,-48,-52,-59,-55,-42,-17,21,84,173,279,373,406,397,324,208,91,8,-11,-8,11,22,13,-11,-39,-49,-50,-48,-44,-49,-62,-69,-73,-75,-74,-72,-68,-55,-29,-16,-7,-1,4,9,21,22,2,-36,-61,-69,-63,-58,-54,-50,-47,-43,-29,-7,0,-7,-15,-22,-15,6,29,37,40,39,35,32,30,27,25,26,31,38,59,84,109,131,139,140,137,134,133,131,128,126,121,107,86,74,62,51,33,10,3,9,27,62,79,84,87,89,90,88,84,79,70,55,44,37,37,40,43,44,46,48,49,50,50,51,52,53,54,54,51,46,42,38,35,31,27,22,16,13,15,20,26,33,38,43,49,55,48,34,26,24,21,21,24,27,29,31,30,27,21,13,4,2,0,-2,-1,7,22,36,44,49,37,18,-1,-15,-23,-30,-35,-44,-55,-60,-64,-66,-63,-58,-53,-49,-45,-38,-32,-26,-20,-15,-13,-14,-17,-22,-29,-43,-57,-72,-98,-122,-130,-125,-107,-53,28,141,283,428,519,525,464,312,135,-14,-97,-110,-91,-59,-49,-59,-93,-106,-110,-113,-118,-125,-148,-171,-179,-184,-189,-193,-198,-203,-195,-183,-173,-168,-165,-161,-155,-148,-143,-138,-134,-131,-128,-126,-123,-111,-88,-80,-80,-87,-94,-101,-104,-102,-98,-93,-88,-83,-77,-61,-29,-5,2,10,17,27,45,58,65,70,73,73,71,68,65,63,61,58,55,52,48,45,39,33,43,59,68,70,72,74,78,82,87,92,91,82,76,71,68,65,62,61,60,57,54,49,46,46,52,59,64,67,70,73,75,76,76,76,75,74,73,71,69,66,60,52,41,30,38,62,127,228,358,502,626,682,637,497,305,119,-10,-44,-37,32,105,127,134,121,109,100,95,94,94,95,95,96,96,96,96,95,92,88,85,81,76,71,67,66,68,73,80,90,109,148,169,176,181,184,185,184,180,176,171,165,155,155,167,185,207,226,244,273,306,315,317,319,321,321,317,309,287,255,222,213,208,201,193,187,182,178,175,171,168,166,163,162,160,158,155,147,133,124,118,111,102,95,89,84,81,79,76,70,58,35,18,14,10,8,8,8,8,8,9,9,11,13,17,7,-10,-30,-40,-47,-51,-53,-53,-51,-47,-37,-17,0,7,0,-22,-52,-70,-76,-76,-66,-54,-38,-28,-23,-19,-18,-19,-23,-29,-48,-73,-85,-92,-96,-99,-101,-100,-99,-96,-84,-60,-52,-51,-56,-61,-66,-66,-58,-36,5,78,172,258,302,302,262,177,60,-65,-163,-201,-199,-158,-107,-93,-100,-149,-197,-216,-216,-192,-168,-159,-159,-166,-172,-177,-181,-183,-183,-182,-180,-179,-177,-175,-186,-201,-212,-204,-191,-178,-172,-168,-165,-163,-163,-162,-160,-157,-163,-169,-175,-177,-175,-168,-157,-141,-124,-112,-107,-103,-101,-103,-107,-110,-114,-117,-118,-117,-112,-106,-100,-92,-88,-93,-102,-117,-138,-149,-156,-160,-165,-168,-171,-174,-177,-179,-182,-183,-185,-187,-188,-190,-195,-195,-193,-191,-189,-190,-199,-206,-212,-218,-222,-236,-265,-274,-277,-274,-249,-221,-208,-201,-196,-192,-188,-182,-177,-186,-213,-244,-252,-253,-254,-255,-255,-250,-244,-237,-227,-219,-211,-202,-191,-163,-97,1,117,223,282,257,139,-42,-223,-348,-388,-343,-255,-175,-140,-129,-139,-168,-193,-205,-211,-215,-217,-216,-210,-200,-185,-170,-164,-161,-159,-156,-155,-156,-158,-162,-166,-170,-177,-176,-168,-163,-160,-157,-154,-151,-149,-148,-145,-142,-139,-135,-130,-126,-120,-96,-56,-22,-6,0,3,5,6,7,10,14,16,19,22,25,29,33,36,36,33,29,23,13,-3,-21,-39,-52,-59,-65,-69,-72,-74,-77,-79,-80,-82,-84,-86,-89,-92,-95,-98,-102,-105,-109,-112,-114,-115,-114,-112,-109,-105,-95,-80,-72,-68,-65,-62,-59,-56,-53,-49,-44,-33,-14,0,10,19,27,34,38,41,45,49,35,8,-4,-8,-4,6,11,15,21,28,35,45,57,59,52,46,40,39,44,47,51,54,52,47,41,34,42,69,138,244,369,480,538,540,491,372,224,84,-15,-49,-61,-49,-14,19,42,47,51,53,55,58,60,63,66,68,70,72,75,77,79,82,85,88,90,91,93,95,98,104,118,134,149,158,163,167,170,172,170,166,161,155,151,146,141,136,131,126,122,113,102,111,126,139,146,150,155,161,170,186,200,204,207,210,211,212,212,210,209,208,207,205,204,202,199,196,192,185,158,120,87,75,68,63,58,55,54,57,64,86,113,123,122,111,100,88,82,77,71,61,47,28,15,8,3,0,-2,-6,-19,-50,-61,-68,-64,-53,-49,-45,-41,-37,-34,-32,-28,-24,-19,-13,-7,5,14,18,20,7,-10,-23,-17,0,53,145,270,403,504,539,490,368,220,102,60,48,38,30,21,5,-13,-25,-40,-56,-76,-99,-112,-115,-118,-121,-123,-123,-121,-117,-112,-107,-100,-90,-82,-76,-68,-61,-58,-54,-59,-77,-87,-77,-63,-48,-40,-36,-30,-23,-13,19,50,59,66,73,80,94,109,116,122,122,115,111,108,105,102,101,99,98,96,93,90,87,84,81,75,54,21,3,-2,-5,-6,-6,-7,-9,-10,-12,-13,-14,-15,-17,-18,-19,-20,-21,-22,-24,-26,-29,-30,-30,-29,-26,-23,-16,-3,4,9,12,15,18,20,22,25,28,32,34,34,31,27,23,19,14,10,10,12,17,26,38,45,50,49,39,25,7,-9,-18,-21,-23,-22,-16,-11,-8,-5,-2,1,5,9,16,26,38,51,64,70,74,77,80,80,79,78,76,73,79,85,89,93,97,103,114,127,136,143,149,164,199,258,345,462,596,711,758,706,560,370,206,123,110,127,152,150,114,45,-16,-35,-42,-27,-3,13,20,25,11,0,-9,-16,-20,-23,-30,-39,-44,-48,-34,-22,-14,-8,-3,0,5,14,27,34,37,41,46,52,58,65,74,79,78,76,75,73,71,70,71,74,77,82,89,101,106,110,114,119,124,129,136,136,126,110,97,93,90,89,85,80,72,61,48,46,43,41,44,46,48,49,53,58,65,71,79,84,83,82,79,76,82,89,95,96,94,90,86,86,95,104,113,120,127,139,148,150,153,155,155,151,145,135,118,101,84,75,71,69,66,63,59,54,49,43,37,29,21,15,11,7,-3,-13,-17,-20,-13,-5,-1,4,11,19,37,51,55,58,58,50,43,37,32,30,31,33,36,40,44,29,19,14,11,8,5,2,0,-3,-6,-9,-13,-16,-23,-36,-36,-23,10,85,187,300,405,476,486,463,361,212,56,-60,-104,-105,-83,-65,-56,-49,-46,-46,-49,-55,-72,-99,-108,-98,-81,-66,-58,-52,-49,-52,-61,-75,-93,-101,-104,-106,-107,-110,-113,-116,-119,-120,-122,-124,-127,-131,-134,-137,-139,-142,-146,-149,-153,-155,-157,-158,-160,-162,-164,-165,-165,-163,-159,-153,-145,-131,-105,-78,-53,-29,-15,-7,-9,-35,-69,-103,-124,-137,-145,-151,-153,-152,-148,-143,-136,-127,-127,-142,-165,-182,-186,-189,-192,-191,-186,-179,-174,-166,-162,-168,-178,-185,-190,-194,-198,-201,-200,-195,-189,-181,-169,-152,-148,-144,-140,-139,-142,-145,-148,-141,-136,-134,-132,-129,-125,-121,-117,-113,-108,-105,-102,-101,-100,-99,-98,-97,-96,-95,-94,-93,-92,-93,-95,-99,-103,-108,-112,-118,-125,-130,-135,-138,-141,-144,-148,-153,-158,-160,-157,-148,-132,-85,13,146,294,420,476,428,284,96,-72,-159,-170,-141,-95,-79,-78,-88,-102,-100,-70,-54,-46,-40,-41,-53,-60,-65,-70,-73,-75,-75,-75,-75,-76,-76,-75,-74,-72,-70,-68,-66,-65,-64,-61,-59,-56,-53,-50,-45,-40,-40,-43,-47,-50,-54,-56,-56,-52,-42,-32,-22,-9,1,8,13,18,22,26,30,34,39,44,52,63,63,48,25,7,2,0,-1,-2,-3,-6,-9,-14,-18,-23,-28,-35,-46,-54,-57,-58,-60,-62,-49,-26,-14,-13,-13,-11,-11,-12,-16,-23,-34,-53,-68,-78,-83,-80,-70,-60,-49,-40,-33,-27,-22,-18,-12,-4,8,49,127,227,340,448,524,531,491,364,201,45,-60,-85,-92,-96,-97,-95,-89,-82,-75,-67,-59,-52,-46,-36,-25,-24,-34,-42,-49,-54,-57,-55,-47,-35,-15,8,21,30,16,-6,-26,-34,-39,-43,-43,-40,-32,-21,-1,30,49,60,68,74,79,83,88,94,100,104,106,109,111,113,114,117,120,124,128,132,137,141,142,139,132,122,107,79,63,55,49,44,39,35,32,29,23,12,-2,-17,-31,-32,-22,-11,0,7,12,16,18,18,14,9,6,3,0,-3,-4,-2,0,3,6,8,10,12,16,20,25,32,56,84,95,95,89,85,81,77,75,73,72,69,65,72,78,82,86,88,87,82,75,65,54,53,52,51,51,55,57,60,63,62,56,47,35,20,9,3,0,-4,-7,-9,-11,-11,-12,-13,-14,-16,-20,-11,-1,5,11,14,15,18,20,20,17,14,11,12,26,41,56,65,76,89,106,149,228,339,451,506,499,413,259,105,0,-28,-24,5,18,25,19,-5,-23,-29,-31,-33,-33,-33,-34,-35,-37,-40,-42,-45,-47,-48,-50,-52,-55,-58,-61,-64,-68,-72,-76,-79,-80,-79,-77,-74,-70,-67,-63,-57,-50,-44,-39,-32,-7,29,52,60,67,73,89,122,134,141,145,141,138,135,133,131,128,124,120,116,113,110,110,112,116,120,124,130,129,118,109,101,93,85,73,50,19,0,-8,-13,-19,-30,-43,-50,-57,-63,-67,-71,-73,-73,-70,-66,-61,-56,-51,-45,-38,-30,-23,-18,-14,-10,-8,-5,-3,-1,0,2,4,5,7,9,11,13,15,18,22,27,51,86,128,177,234,303,379,440,461,436,358,226,95,-4,-40,-54,-54,-42,-32,-23,-19,-22,-30,-53,-96,-115,-127,-135,-123,-84,-40,-12,-1,-2,-16,-26,-36,-43,-45,-43,-35,-24,-3,19,31,39,27,18,13,9,7,7,10,16,24,38,65,81,89,95,100,105,109,113,116,121,126,131,130,124,114,106,98,91,83,76,69,64,59,54,50,47,46,47,48,50,53,56,60,65,73,79,80,76,69,60,49,44,41,42,52,58,63,67,70,70,68,64,59,54,47,39,31,24,18,10,0,-11,-22,-31,-37,-41,-44,-46,-49,-50,-48,-43,-36,-30,-21,-17,-17,-18,-18,-19,-19,-20,-20,-20,-20,-18,-17,-15,-14,-12,-10,-9,-8,-7,-7,-6,-6,-6,-8,-10,-12,-15,-17,-19,-22,-26,-31,-36,-40,-43,-47,-50,-52,-52,-49,-45,-39,-32,-18,2,32,76,148,245,343,391,383,297,137,-27,-140,-172,-132,-62,-20,-20,-64,-150,-229,-258,-259,-235,-209,-200,-193,-188,-179,-163,-150,-143,-138,-132,-127,-121,-115,-110,-105,-100,-95,-87,-58,-28,-11,-2,2,5,6,4,1,-3,-12,-27,-38,-45,-48,-46,-39,-28,-15,-9,-5,-2,-1,-2,-4,-6,-8,-10,-11,-8,0,14,31,43,61,78,89,94,91,82,75,69,63,60,61,63,65,67,68,70,71,71,69,67,64,61,55,52,55,63,86,109,118,117,109,95,82,76,72,68,64,60,53,47,53,61,67,66,54,47,42,37,33,31,32,34,36,38,42,48,62,91,162,273,393,460,458,380,230,76,-35,-72,-71,-31,-6,-9,-25,-33,-39,-44,-49,-58,-71,-77,-81,-84,-84,-80,-73,-62,-46,-37,-32,-29,-28,-29,-33,-38,-49,-65,-80,-97,-113,-123,-124,-125,-127,-126,-122,-117,-113,-107,-100,-87,-72,-63,-59,-55,-51,-47,-43,-35,-22,-10,3,18,34,49,60,67,72,76,75,64,47,28,17,9,3,-1,-17,-40,-46,-51,-54,-55,-55,-55,-55,-54,-54,-53,-53,-63,-79,-97,-113,-130,-149,-165,-175,-183,-190,-198,-204,-194,-176,-162,-152,-152,-172,-202,-215,-221,-227,-236,-251,-261,-266,-264,-243,-222,-214,-213,-214,-215,-209,-187,-172,-163,-157,-150,-142,-129,-118,-113,-119,-133,-140,-144,-148,-151,-153,-155,-159,-164,-154,-135,-118,-109,-102,-97,-94,-90,-76,-46,11,106,232,366,453,459,397,230,25,-152,-233,-239,-192,-109,-34,0,12,12,6,-12,-39,-58,-64,-55,-41,-25,-12,-3,3,9,15,15,6,-3,-11,-5,13,42,53,57,60,64,71,78,85,86,78,66,57,53,50,61,72,79,84,87,88,89,91,94,92,80,65,52,55,66,91,115,125,131,135,135,130,117,97,67,39,29,29,37,45,51,56,59,63,74,95,102,102,95,87,79,84,90,95,81,64,51,49,53,57,61,47,30,15,13,17,21,25,25,20,16,13,9,4,-3,-16,-29,-38,-34,-16,2,15,22,27,29,29,26,20,13,-1,-14,-17,-20,-7,4,12,19,23,26,29,31,33,35,37,38,39,40,40,39,39,37,36,33,29,26,21,12,17,26,26,6,-27,-54,-62,-54,-46,-41,-36,-32,-27,-23,-19,-16,-13,-11,-9,-8,-8,-9,-11,-12,-14,-17,-23,-38,-48,-55,-57,-54,-47,-29,-3,38,101,190,295,395,452,451,385,228,36,-131,-220,-229,-186,-97,-24,6,16,11,-3,-32,-63,-86,-94,-92,-81,-73,-67,-61,-58,-58,-60,-64,-69,-73,-78,-82,-82,-76,-69,-62,-53,-45,-38,-27,-10,5,17,25,31,37,42,46,51,56,59,58,54,50,45,52,72,101,120,134,143,146,144,137,128,113,96,81,75,72,70,69,67,65,63,61,60,58,56,52,42,26,11,-6,-28,-49,-60,-66,-70,-73,-75,-76,-76,-77,-78,-79,-82,-86,-84,-68,-44,-19,-8,-2,1,4,4,0,-5,-13,-20,-29,-36,-37,-32,-25,-19,-14,-8,-3,2,7,12,17,21,25,30,34,39,43,49,57,64,64,59,50,33,16,6,0,12,49,122,218,308,339,326,231,76,-80,-170,-181,-145,-71,-23,-6,-5,-16,-33,-54,-68,-77,-81,-75,-63,-51,-37,-37,-48,-60,-74,-86,-95,-101,-105,-103,-97,-90,-83,-77,-69,-61,-49,-28,-8,-3,0,1,2,3,4,6,9,12,16,20,31,49,60,67,78,91,103,114,123,131,137,145,153,156,151,140,124,100,81,66,56,44,22,4,-4,-11,-18,-24,-30,-45,-60,-67,-72,-56,-39,-25,-16,-10,-5,0,3,-1,-11,-19,-27,-35,-38,-34,-25,-15,-8,-3,2,6,10,12,12,10,5,0,-5,-11,-19,-27,-34,-40,-46,-51,-57,-62,-65,-62,-56,-49,-45,-42,-38,-35,-32,-30,-27,-25,-22,-20,-18,-17,-16,-14,-11,-5,-1,-5,-16,-33,-57,-76,-87,-76,-44,27,127,250,374,450,452,387,234,65,-58,-80,-73,-13,23,35,18,-32,-94,-131,-144,-143,-128,-117,-110,-104,-100,-97,-94,-91,-87,-81,-72,-67,-74,-89,-100,-111,-120,-123,-119,-110,-101,-94,-88,-81,-75,-70,-66,-62,-58,-52,-46,-38,-27,-10,5,10,12,13,14,15,17,20,24,27,30,32,35,38,42,47,50,51,49,46,42,37,33,26,17,7,-5,-27,-55,-68,-76,-83,-87,-88,-85,-79,-71,-64,-58,-51,-45,-40,-34,-30,-26,-22,-18,-14,-9,-5,0,8,17,27,39,53,65,72,78,88,109,122,128,134,139,143,144,144,144,144,145,145,145,143,140,138,137,136,135,132,128,126,125,125,125,124,123,121,118,111,103,97,92,86,82,78,76,74,72,70,68,66,66,65,65,66,66,66,67,66,65,64,62,60,59,58,57,55,53,51,50,49,47,41,33,27,25,29,36,42,47,52,57,63,69,74,79,86,114,185,280,393,508,603,644,604,485,322,169,85,56,61,71,65,16,-43,-63,-50,-29,0,24,39,53,65,73,81,89,93,93,89,83,76,70,64,58,53,49,46,43,40,36,31,27,25,26,32,41,51,59,69,78,85,89,93,96,100,104,107,109,108,105,101,96,91,82,83,99,124,154,170,179,186,189,189,186,180,172,160,144,132,124,118,110,99,83,56,24,9,2,-3,-7,-8,-7,-4,0,4,9,17,21,15,3,-5,-13,-20,-25,-29,-32,-34,-36,-39,-42,-44,-46,-48,-48,-48,-47,-45,-43,-40,-36,-28,-28,-38,-42,-45,-47,-49,-51,-53,-55,-58,-60,-62,-63,-63,-62,-62,-60,-59,-57,-55,-53,-50,-48,-45,-28,29,111,214,319,389,393,345,222,75,-48,-88,-82,-16,43,63,54,26,-6,-15,-19,-24,-29,-33,-39,-55,-75,-88,-96,-95,-80,-68,-59,-53,-51,-54,-61,-69,-80,-96,-110,-130,-142,-145,-147,-149,-149,-145,-136,-123,-101,-79,-60,-53,-49,-45,-42,-40,-39,-37,-36,-35,-33,-32,-30,-29,-28,-26,-23,-22,-25,-31,-37,-42,-49,-55,-59,-59,-58,-56,-54,-51,-46,-49,-66,-80,-92,-103,-111,-118,-145,-178,-188,-180,-172,-165,-162,-165,-171,-175,-179,-181,-184,-188,-192,-196,-201,-206,-212,-217,-221,-223,-224,-225,-227,-229,-220,-191,-171,-166,-162,-160,-158,-157,-156,-153,-150,-150,-157,-164,-170,-176,-182,-189,-196,-182,-142,-82,-8,74,153,199,198,151,36,-104,-225,-281,-287,-261,-236,-228,-239,-253,-263,-263,-249,-211,-182,-171,-171,-178,-183,-186,-189,-191,-191,-190,-189,-186,-183,-180,-175,-165,-155,-144,-134,-123,-115,-107,-103,-104,-107,-111,-115,-105,-88,-69,-57,-49,-45,-42,-39,-35,-46,-63,-75,-83,-77,-58,-46,-37,-30,-22,-12,-5,0,3,4,1,-2,-6,-13,-22,-46,-69,-75,-79,-82,-85,-86,-88,-90,-91,-92,-94,-95,-97,-100,-106,-96,-85,-76,-69,-62,-56,-49,-45,-42,-39,-35,-33,-36,-43,-54,-68,-78,-85,-85,-77,-71,-66,-62,-60,-58,-56,-54,-51,-52,-57,-65,-65,-46,-26,-19,-16,-19,-24,-28,-32,-36,-38,-38,-35,-31,-26,-21,-13,-13,-18,-21,-24,-26,-26,-23,-17,-8,5,20,38,61,73,76,79,80,77,70,64,57,51,44,22,1,-5,-9,-10,-7,-2,3,12,23,34,43,44,35,21,11,7,4,5,15,42,86,150,228,304,370,422,439,429,363,240,98,-29,-104,-112,-75,6,75,84,63,1,-44,-59,-53,-36,-10,5,20,36,51,61,70,80,92,104,111,102,88,77,71,66,74,81,86,90,93,96,99,104,111,109,108,106,104,104,107,113,121,137,159,174,184,183,171,164,173,181,185,189,194,199,206,232,266,278,282,268,242,221,211,202,190,172,159,154,152,149,144,139,131,117,98,84,74,64,60,59,57,56,54,53,51,51,51,50,49,48,47,46,46,46,45,44,42,40,38,35,30,21,13,7,0,-7,-6,3,16,35,50,59,66,73,80,90,101,109,114,118,120,120,117,112,105,95,80,69,60,53,49,49,54,59,64,67,70,74,78,82,87,93,101,100,86,77,70,63,58,55,53,52,51,46,47,61,68,57,39,26,22,19,18,21,31,60,103,165,241,324,408,486,540,545,512,415,292,179,102,74,63,54,31,-19,-84,-137,-155,-145,-116,-58,-2,24,32,35,34,28,20,10,-2,-12,-21,-31,-47,-58,-65,-71,-76,-78,-77,-74,-69,-63,-52,-36,-28,-23,-19,-13,-6,0,2,5,8,11,14,16,19,22,25,28,31,33,35,37,40,46,52,55,52,45,38,34,30,27,24,21,17,14,12,10,7,1,-8,-23,-45,-63,-72,-78,-81,-79,-74,-71,-67,-64,-61,-59,-59,-61,-62,-63,-65,-66,-69,-71,-73,-75,-78,-82,-88,-96,-107,-124,-132,-136,-139,-142,-145,-148,-149,-148,-146,-143,-139,-136,-132,-127,-120,-108,-94,-81,-68,-58,-57,-63,-71,-77,-83,-89,-94,-98,-100,-103,-114,-112,-86,-69,-62,-57,-53,-51,-50,-49,-45,-40,-64,-82,-94,-103,-110,-112,-110,-107,-101,-92,-62,-25,24,96,191,294,365,367,309,172,20,-93,-121,-131,-136,-137,-135,-133,-131,-128,-131,-148,-175,-196,-201,-203,-205,-204,-199,-192,-186,-179,-172,-166,-160,-158,-155,-153,-151,-149,-148,-147,-145,-143,-140,-137,-135,-133,-132,-129,-124,-113,-103,-92,-85,-81,-76,-72,-68,-64,-60,-57,-54,-50,-45,-40,-33,-19,-18,-29,-40,-50,-50,-43,-36,-31,-25,-16,-7,1,12,17,11,-1,-12,-23,-33,-39,-46,-58,-76,-88,-97,-100,-92,-78,-70,-63,-58,-53,-49,-47,-46,-47,-48,-50,-53,-56,-60,-65,-72,-80,-88,-96,-106,-119,-119,-106,-91,-76,-64,-56,-51,-47,-43,-38,-31,-22,13,89,193,311,413,439,422,317,165,29,-18,-34,-24,-13,-4,-3,-9,-13,-17,-20,-22,-22,-19,-14,-10,-6,0,0,-12,-20,-24,-28,-32,-36,-42,-46,-51,-56,-61,-68,-75,-79,-81,-81,-82,-85,-87,-67,-50,-39,-30,-23,-18,-13,-2,18,33,41,47,55,62,71,85,103,111,116,119,122,123,124,124,121,117,112,106,100,92,83,76,71,65,59,52,44,36,27,17,6,0,-4,-7,-9,-10,-11,-12,-12,-12,-11,-10,-7,-4,0,10,29,41,49,53,50,46,41,37,34,39,49,57,66,71,73,74,76,77,80,84,89,106,139,177,215,255,301,354,403,409,389,293,155,16,-83,-112,-108,-79,-68,-66,-65,-68,-71,-73,-72,-69,-64,-59,-72,-85,-95,-100,-97,-89,-76,-57,-41,-31,-27,-26,-26,-26,-25,-24,-21,-18,-15,-13,-11,-9,-7,-4,-1,3,14,26,31,34,37,42,50,77,105,115,115,106,97,88,80,73,61,43,24,13,24,35,45,45,36,11,-11,-18,-23,-29,-34,-41,-48,-47,-34,-25,-17,-10,-4,0,4,25,61,82,89,84,78,74,70,66,62,47,26,20,16,12,9,6,0,-5,-1,11,37,56,62,66,67,67,64,59,52,39,19,0,-14,-20,-25,-27,-23,-16,-8,1,8,15,31,46,53,58,62,63,65,67,68,70,74,82,106,167,260,378,499,580,585,525,363,179,41,-5,35,113,154,152,101,32,-5,-8,10,42,56,61,53,31,5,-3,-7,-9,-1,6,12,15,12,6,-3,-15,-22,-26,-28,-24,-15,-9,-3,1,3,1,-2,-7,-12,-20,-19,-11,-4,1,7,14,24,39,66,92,108,113,117,122,126,130,135,138,138,134,128,122,115,108,103,84,62,38,23,13,7,3,0,-4,-9,-14,-20,-26,-36,-48,-54,-57,-60,-62,-62,-60,-55,-48,-28,-6,-1,2,8,14,21,36,45,45,46,47,46,43,36,27,9,-15,-33,-41,-46,-50,-53,-54,-55,-56,-59,-63,-55,-42,-27,-12,2,18,29,36,40,30,1,-31,-45,-50,-52,-49,-42,-32,-17,-6,0,5,10,28,76,162,267,356,397,372,289,180,87,39,22,16,8,-1,-8,-11,-12,-15,-18,-22,-28,-52,-68,-73,-66,-45,-21,-12,-8,-11,-17,-27,-41,-70,-99,-109,-109,-101,-77,-47,-24,-16,-13,-12,-11,-10,-9,-9,-13,-17,-21,-10,20,43,50,57,64,76,92,120,140,147,150,151,148,143,128,100,68,45,38,47,62,73,79,82,74,65,59,52,43,34,26,19,14,6,-6,-16,-23,-35,-45,-54,-59,-55,-49,-42,-35,-31,-34,-43,-55,-77,-95,-105,-109,-105,-99,-94,-89,-84,-79,-73,-51,-23,-14,-9,-5,-3,-1,1,4,4,-6,-20,-32,-24,-1,44,102,161,210,233,241,224,174,95,2,-84,-131,-146,-135,-99,-84,-81,-78,-74,-68,-47,-10,2,-2,-16,-53,-82,-90,-96,-101,-104,-108,-128,-167,-195,-204,-196,-170,-135,-100,-67,-33,0,35,58,64,68,72,77,82,85,88,91,94,98,103,110,117,123,129,135,140,145,148,151,155,167,181,186,188,189,184,177,169,160,149,134,111,80,59,51,46,43,40,37,34,31,27,21,21,29,39,48,40,34,31,28,24,21,19,17,12,6,24,35,41,46,52,56,59,61,62,63,63,62,61,59,56,53,50,48,45,41,33,25,25,28,32,36,41,44,38,28,15,3,10,32,109,215,321,370,362,270,98,-84,-221,-265,-216,-120,-29,3,0,-48,-111,-138,-137,-103,-59,-43,-38,-52,-79,-95,-99,-101,-103,-102,-96,-88,-78,-66,-57,-49,-43,-37,-30,-22,-17,-12,-8,-4,-2,0,1,3,5,8,12,13,9,1,-9,-19,-32,-39,-35,-25,-10,11,34,54,66,73,80,87,97,106,100,82,48,33,25,21,14,5,-23,-65,-81,-86,-89,-90,-92,-95,-98,-103,-110,-118,-122,-124,-126,-128,-129,-129,-127,-123,-118,-112,-104,-103,-107,-112,-117,-105,-84,-71,-67,-65,-65,-65,-64,-63,-61,-59,-57,-54,-52,-50,-48,-44,-40,-35,-28,-17,-10,-3,10,42,88,130,148,154,149,129,102,62,3,-62,-118,-137,-131,-115,-107,-101,-98,-100,-105,-113,-137,-166,-176,-161,-116,-53,-19,-8,0,8,17,28,29,23,7,-14,-35,-56,-77,-83,-75,-49,-14,0,2,6,12,19,33,44,50,51,45,42,53,86,106,112,116,121,125,130,140,153,162,162,144,121,109,99,88,69,48,24,12,6,3,1,0,-1,-2,-4,-7,-17,-39,-60,-67,-66,-57,-49,-42,-34,-28,-18,-4,9,17,6,-26,-36,-40,-35,-27,-31,-47,-57,-50,-32,0,11,15,3,-12,-26,-34,-45,-60,-90,-104,-110,-109,-101,-91,-81,-76,-71,-67,-75,-83,-90,-90,-81,-75,-69,-64,-58,-53,-44,-35,-40,-56,-75,-81,-74,-63,-51,-30,-1,46,112,184,255,320,372,393,363,266,127,-2,-71,-80,-59,-17,-5,-11,-55,-93,-106,-96,-66,-45,-38,-47,-75,-101,-114,-123,-128,-127,-119,-113,-109,-106,-103,-99,-95,-91,-86,-81,-76,-71,-65,-60,-55,-49,-43,-38,-33,-16,6,29,36,41,46,51,60,71,75,78,80,82,83,82,81,80,78,75,72,83,95,105,106,102,91,66,50,30,11,-3,-14,-22,-32,-44,-54,-60,-54,-37,-13,-4,-1,0,1,0,-6,-14,-30,-52,-66,-72,-77,-64,-52,-45,-38,-33,-28,-25,-20,-14,-8,-2,4,13,20,28,34,24,17,14,11,9,7,6,4,2,0,-2,-5,-7,-10,-12,-16,-21,-23,-24,-26,-27,-30,-34,-20,24,99,198,293,335,328,251,118,-15,-98,-109,-82,-16,15,26,15,3,-5,-10,-13,-23,-47,-68,-76,-76,-67,-57,-47,-46,-53,-58,-62,-66,-66,-61,-54,-42,-27,-19,-13,-11,-15,-21,-26,-32,-36,-39,-41,-43,-45,-47,-47,-46,-43,-37,-27,-9,9,29,43,52,56,54,49,45,41,41,47,54,61,61,54,50,47,45,43,42,41,40,37,35,32,30,27,23,18,11,5,0,-4,-7,-11,-15,-20,-27,-38,-58,-70,-75,-80,-84,-86,-86,-85,-83,-81,-79,-76,-71,-72,-83,-101,-116,-122,-125,-127,-128,-127,-124,-120,-115,-110,-103,-97,-92,-87,-68,-25,32,103,192,303,419,512,545,502,392,248,116,26,-2,-1,14,22,15,-6,-30,-39,-37,-24,-11,1,3,-7,-24,-42,-52,-60,-60,-47,-37,-28,-22,-22,-26,-32,-43,-52,-53,-55,-57,-57,-57,-55,-52,-49,-47,-45,-42,-39,-35,-30,-23,1,31,41,47,51,55,69,97,128,144,152,157,160,162,162,160,158,155,152,147,147,152,159,165,153,132,112,94,75,60,49,43,39,36,33,30,27,24,20,13,3,-7,-21,-38,-55,-70,-82,-97,-112,-129,-139,-144,-148,-151,-152,-151,-149,-146,-141,-134,-118,-107,-100,-92,-86,-76,-59,-40,-22,-5,11,39,77,125,178,235,294,342,348,331,259,167,80,19,-9,-23,-42,-83,-140,-190,-208,-208,-187,-160,-151,-148,-147,-157,-169,-179,-179,-173,-162,-152,-148,-146,-145,-143,-141,-138,-134,-126,-115,-97,-73,-46,-32,-22,-14,-7,-2,0,2,6,9,14,25,37,42,44,46,47,48,50,51,53,55,58,60,64,67,66,63,59,55,52,49,45,41,37,27,17,12,8,4,0,-15,-45,-66,-74,-63,-48,-37,-40,-51,-64,-69,-57,-21,0,7,5,3,2,0,-1,-4,-15,-37,-45,-38,-16,10,38,57,72,80,85,88,91,104,148,228,331,442,534,573,540,433,284,137,25,-17,-31,-24,-17,-11,-12,-19,-26,-31,-36,-41,-48,-70,-98,-107,-110,-113,-114,-110,-101,-89,-71,-43,-25,-20,-16,-10,-4,6,18,25,29,20,8,0,14,37,54,63,68,74,81,102,132,154,160,164,168,170,172,177,177,160,132,117,108,103,99,95,92,89,85,81,75,67,53,35,9,-15,-37,-43,-47,-50,-53,-56,-59,-63,-69,-69,-63,-56,-50,-53,-57,-60,-58,-49,-42,-38,-34,-30,-27,-25,-22,-18,-12,-3,1,3,4,5,5,6,7,8,9,9,9,9,10,11,13,9,-20,-59,-94,-105,-108,-110,-110,-107,-104,-101,-100,-102,-106,-113,-108,-63,27,144,259,320,319,257,129,-8,-113,-152,-128,-75,-33,-19,-23,-35,-65,-85,-90,-94,-96,-98,-99,-99,-100,-100,-100,-99,-97,-95,-93,-89,-84,-92,-98,-101,-104,-106,-107,-107,-107,-105,-103,-100,-93,-83,-78,-74,-85,-105,-120,-124,-127,-129,-129,-128,-126,-122,-115,-95,-47,0,21,28,32,34,34,33,30,26,9,-20,-45,-54,-57,-54,-47,-35,-24,-19,-16,-14,-17,-25,-37,-53,-70,-78,-81,-83,-72,-66,-62,-59,-56,-55,-54,-54,-56,-58,-59,-61,-63,-66,-69,-72,-72,-72,-69,-67,-63,-60,-53,-53,-58,-63,-69,-59,-44,-29,-6,23,66,121,185,259,344,430,482,479,412,259,76,-87,-188,-212,-186,-152,-140,-148,-163,-179,-192,-200,-188,-151,-94,-50,-36,-40,-52,-75,-83,-83,-76,-67,-55,-49,-46,-44,-42,-40,-38,-34,-30,-20,-4,24,51,67,77,83,88,93,100,124,150,168,181,190,194,192,188,181,176,184,196,211,223,231,235,237,241,244,233,201,167,139,114,96,76,59,49,44,39,34,30,26,21,17,13,9,5,1,-5,-13,-5,2,8,11,11,5,0,-5,-8,-11,-14,-16,-16,-15,-12,-8,-4,0,5,12,20,25,28,31,35,41,41,35,16,1,-3,-6,-6,-3,3,22,50,91,144,204,266,321,351,327,238,97,-58,-179,-229,-203,-130,-47,6,14,2,-37,-86,-136,-168,-171,-156,-117,-77,-49,-35,-24,-15,-8,-2,1,5,7,9,12,16,7,-4,-13,-15,-17,-18,-11,9,31,55,67,75,80,83,86,89,93,94,94,92,90,87,84,94,111,124,130,133,135,139,143,149,155,148,128,91,76,76,97,116,123,117,107,94,80,69,53,29,0,-18,-24,-27,-27,-26,-25,-24,-23,-23,-24,-27,-30,-32,-34,-36,-38,-40,-43,-47,-59,-75,-79,-83,-84,-82,-79,-74,-66,-54,-44,-38,-38,-46,-54,-62,-54,-42,-28,-18,-12,-6,0,16,42,54,58,49,24,0,-11,-17,-20,-23,-24,-26,-28,-30,-30,-25,-21,-17,-16,-19,-26,-33,-41,-46,-49,-55,-65,-74,-80,-83,-82,-79,-76,-72,-72,-81,-93,-108,-117,-123,-126,-122,-114,-101,-89,-85,-82,-80,-80,-84,-89,-98,-111,-124,-140,-150,-156,-160,-163,-164,-164,-162,-159,-155,-141,-113,-101,-95,-91,-86,-77,-70,-63,-57,-53,-50,-39,-17,10,44,89,153,232,316,387,420,417,363,248,101,-41,-147,-193,-198,-180,-144,-122,-116,-112,-108,-105,-100,-80,-60,-52,-56,-70,-94,-117,-130,-139,-144,-146,-144,-140,-137,-135,-131,-128,-123,-114,-100,-88,-78,-72,-59,-36,-26,-20,-16,-23,-32,-39,-39,-32,-22,-9,3,17,39,62,89,100,106,110,107,101,97,107,117,124,131,136,151,179,186,188,183,155,137,133,129,125,120,103,74,64,61,59,58,57,56,57,57,58,59,61,62,64,68,68,63,59,56,52,45,34,15,0,-4,-8,5,16,23,29,33,34,32,28,22,16,9,0,-6,-3,2,9,16,7,-1,-9,-12,-9,-1,6,14,22,29,39,55,68,76,77,75,74,73,73,76,81,78,57,48,45,44,43,42,44,49,54,59,67,71,68,59,37,4,-9,-16,-22,-15,-10,-7,-4,-3,-1,0,0,0,1,3,0,-10,-7,13,27,33,37,40,44,49,55,60,65,71,76,81,85,90,99,113,118,122,124,126,126,124,120,116,109,100,109,137,186,258,352,458,556,607,604,539,401,247,125,78,75,98,101,81,28,-26,-60,-70,-75,-78,-80,-81,-82,-83,-85,-86,-87,-88,-89,-89,-90,-91,-93,-94,-96,-100,-101,-96,-88,-81,-75,-68,-62,-56,-50,-45,-39,-34,-30,-27,-23,-20,-16,-11,-5,3,20,39,46,49,51,53,54,55,57,59,61,62,64,68,74,63,45,24,8,-3,-13,-26,-42,-51,-55,-58,-61,-66,-70,-75,-78,-81,-84,-87,-89,-89,-86,-81,-76,-71,-67,-62,-57,-51,-46,-41,-38,-35,-32,-29,-26,-21,-17,-14,-13,-16,-20,-27,-34,-43,-55,-65,-74,-80,-86,-92,-94,-95,-94,-91,-86,-69,-21,52,146,247,333,367,358,283,156,28,-62,-95,-108,-117,-138,-173,-185,-187,-181,-174,-167,-167,-173,-179,-185,-184,-172,-154,-130,-115,-107,-102,-99,-100,-105,-112,-119,-126,-135,-143,-146,-148,-150,-151,-153,-155,-156,-156,-153,-148,-142,-133,-120,-102,-89,-79,-71,-65,-61,-58,-55,-52,-48,-42,-34,-22,-1,22,34,41,52,66,79,93,99,92,79,70,62,55,47,41,36,30,20,5,-5,-11,-17,-20,-21,-19,-14,-9,-5,0,5,8,6,1,-5,-14,-25,-27,-28,-29,-29,-31,-32,-33,-35,-37,-39,-40,-42,-42,-40,-37,-34,-32,-30,-28,-25,-22,-20,-19,-19,-20,-21,-22,-23,-27,-26,-3,22,30,35,40,43,47,52,51,43,34,26,26,34,42,51,61,70,79,83,85,87,88,90,91,91,90,88,87,85,84,82,80,78,78,82,87,97,114,126,133,137,137,134,126,117,106,116,146,220,333,468,596,680,690,651,529,374,223,112,75,75,114,148,160,160,149,140,131,124,118,107,99,95,92,92,96,99,102,104,101,94,82,64,45,31,21,14,23,37,52,61,65,69,72,74,75,79,84,77,69,64,61,64,72,79,85,92,97,102,108,116,116,110,103,96,97,111,122,132,139,142,143,144,146,148,137,117,98,85,75,68,54,25,-10,-45,-69,-76,-81,-86,-90,-96,-103,-91,-72,-55,-47,-43,-38,-31,-23,-7,7,13,18,23,30,51,79,105,133,174,242,329,413,458,457,407,299,172,56,-1,-6,8,17,4,-33,-81,-103,-109,-112,-116,-120,-123,-128,-138,-157,-177,-190,-193,-195,-197,-197,-196,-193,-187,-176,-158,-148,-144,-140,-136,-131,-127,-123,-113,-96,-76,-59,-48,-39,-29,-20,-12,-13,-26,-39,-52,-52,-39,-29,-21,-13,-6,-1,9,25,33,38,42,45,46,45,42,37,29,4,-26,-57,-72,-82,-87,-95,-105,-123,-134,-136,-138,-139,-139,-136,-130,-122,-104,-78,-64,-60,-58,-55,-50,-44,-37,-28,-20,-13,-8,-5,-9,-18,-30,-50,-62,-69,-74,-75,-73,-68,-61,-56,-50,-44,-40,-36,-32,-24,-12,6,31,69,124,194,272,338,356,344,262,118,-42,-172,-220,-220,-175,-120,-102,-96,-94,-94,-97,-102,-109,-116,-121,-123,-127,-130,-121,-96,-81,-76,-74,-71,-69,-68,-66,-64,-61,-59,-58,-57,-60,-63,-68,-73,-79,-79,-71,-50,-21,-11,-5,-1,-7,-14,-20,-20,-12,9,36,54,75,88,93,97,96,86,74,63,69,87,115,135,142,146,145,140,132,120,102,73,42,33,29,27,31,35,37,39,43,47,52,60,69,61,49,33,22,15,10,7,6,2,-1,11,20,26,31,35,37,38,37,36,34,34,31,27,34,56,86,130,196,289,398,494,541,538,480,359,211,79,4,-6,14,66,77,69,16,-38,-79,-92,-96,-95,-76,-49,-20,-7,0,4,4,-3,-25,-54,-68,-79,-87,-80,-62,-35,-3,30,57,67,70,66,59,52,43,38,33,29,25,26,40,60,78,83,86,89,93,98,104,115,128,134,137,139,140,140,138,135,130,123,106,93,85,78,73,69,61,46,35,29,25,22,21,21,22,25,28,31,34,39,43,44,43,39,33,23,10,1,-6,-16,-29,-44,-50,-54,-57,-59,-60,-58,-55,-51,-46,-38,-29,-35,-43,-48,-41,-20,7,17,19,16,13,10,7,4,1,-10,-24,-29,-29,-26,-25,-24,-22,-21,-21,-23,-25,-27,-29,-30,-32,-33,-36,-38,-40,-42,-43,-45,-47,-50,-54,-63,-80,-96,-107,-112,-115,-107,-95,-80,-65,-55,-50,-45,-42,-38,-33,-26,-14,0,5,9,12,13,11,6,0,-12,-25,-29,-32,-34,-35,-34,-32,-28,-22,-9,1,8,11,10,5,-2,-14,-28,-43,-68,-90,-97,-98,-91,-73,-51,-28,-12,6,22,34,41,35,16,-13,-34,-42,-42,-34,-23,-10,-4,-1,0,2,5,9,15,38,98,187,287,370,402,370,285,181,97,47,16,1,-9,-23,-37,-46,-36,-18,-6,0,-2,-25,-49,-58,-58,-50,-38,-21,-3,12,28,36,40,42,34,24,14,7,-2,-13,-19,-22,-24,-26,-27,-26,-24,-21,-17,-13,-7,0,6,18,34,44,50,54,57,61,74,91,97,98,93,86,87,113,133,133,116,94,86,85,87,91,94,86,78,73,67,61,54,40,24,17,12,8,6,5,4,3,2,0,-4,-11,-23,-41,-53,-61,-67,-72,-76,-81,-85,-88,-88,-87,-83,-80,-77,-74,-71,-68,-65,-62,-58,-53,-45,-34,-23,-16,-12,-8,-6,-5,-5,-8,-12,-17,-21,-26,-31,-36,-40,-45,-63,-87,-95,-99,-100,-96,-89,-83,-76,-71,-69,-67,-65,-62,-68,-76,-83,-73,-56,-38,-28,-21,-18,-18,-23,-30,-40,-51,-46,-33,34,142,272,402,505,545,537,455,301,133,6,-32,-45,-34,-18,-7,-16,-25,-31,-35,-41,-47,-52,-57,-62,-67,-72,-77,-81,-86,-90,-96,-102,-107,-110,-114,-118,-116,-102,-81,-54,-33,-18
