17,18,32,65,85,101,117,133,149,171,193,214,229,240,248,257,268,278,288,296,304,313,323,334,344,358,368,368,360,345,302,252,201,148,94,42,10,-11,-25,-33,-34,-31,-26,-22,-16,-17,-34,-81,-128,-174,-220,-270,-322,-368,-395,-409,-415,-419,-422,-424,-428,-432,-435,-438,-442,-448,-457,-474,-488,-505,-527,-548,-573,-595,-611,-628,-639,-645,-650,-657,-664,-671,-681,-695,-717,-733,-749,-765,-784,-801,-815,-828,-841,-852,-863,-872,-879,-884,-888,-892,-895,-898,-900,-901,-900,-898,-894,-888,-882,-872,-855,-839,-819,-790,-756,-723,-672,-615,-552,-490,-435,-387,-339,-291,-240,-206,-174,-151,-136,-117,-94,-71,-48,-26,-2,43,115,208,309,399,462,484,486,472,435,371,293,209,135,93,79,90,125,173,224,259,298,336,372,408,433,448,459,467,472,476,479,481,484,488,491,495,499,505,513,530,561,613,669,727,785,813,830,842,847,841,825,801,768,740,723,719,717,715,714,712,711,710,708,705,701,696,689,675,648,624,595,560,526,490,457,426,395,363,333,310,293,276,259,242,226,213,201,187,169,149,126,107,91,76,66,59,54,50,47,44,42,41,41,42,45,49,53,58,64,70,76,82,89,95,103,112,122,132,140,149,157,164,172,179,185,192,200,211,223,236,249,262,275,287,301,318,335,351,365,376,385,392,397,402,409,416,425,441,494,573,673,779,873,937,959,960,947,910,838,750,652,558,482,442,432,424,418,415,414,416,421,428,436,445,455,471,484,491,496,501,506,511,514,516,515,511,505,496,481,457,435,410,389,372,354,342,333,326,319,310,302,294,288,282,277,271,265,260,254,249,243,237,231,224,216,209,203,199,194,190,186,182,179,175,172,168,164,160,152,140,127,115,106,98,92,86,81,75,69,63,57,50,43,34,26,18,10,3,-3,-8,-13,-18,-24,-31,-37,-45,-55,-65,-70,-75,-78,-82,-85,-88,-91,-94,-97,-100,-102,-105,-106,-108,-110,-113,-115,-117,-121,-125,-129,-133,-137,-142,-147,-152,-159,-170,-181,-190,-198,-206,-213,-219,-226,-234,-241,-249,-257,-264,-263,-255,-237,-183,-101,-7,78,127,145,145,126,73,-7,-108,-222,-333,-427,-493,-523,-540,-551,-563,-578,-602,-631,-644,-651,-657,-660,-659,-652,-641,-629,-617,-603,-590,-582,-576,-571,-565,-560,-556,-550,-543,-536,-529,-524,-519,-515,-512,-509,-508,-508,-508,-510,-511,-513,-516,-519,-522,-524,-527,-529,-532,-534,-536,-538,-538,-537,-534,-530,-526,-521,-516,-511,-503,-493,-483,-472,-464,-459,-454,-450,-445,-441,-437,-433,-428,-422,-412,-395,-376,-362,-352,-343,-335,-328,-321,-312,-301,-290,-278,-267,-255,-243,-229,-217,-206,-196,-187,-178,-169,-157,-145,-131,-115,-96,-77,-51,-20,2,19,36,54,70,85,95,103,110,119,128,141,157,172,187,202,221,236,249,257,261,263,264,265,265,265,266,266,267,267,268,268,268,268,267,267,266,266,265,264,264,263,261,260,259,258,257,255,253,252,250,247,245,242,239,235,231,226,221,217,212,208,205,202,199,196,190,182,176,176,180,188,212,269,355,467,593,705,743,729,616,432,231,61,-9,-22,-33,-41,-48,-55,-59,-63,-65,-66,-67,-65,-62,-59,-57,-55,-53,-50,-46,-43,-40,-37,-31,-20,-9,2,13,23,33,44,54,59,64,67,71,75,77,80,82,84,86,88,89,89,90,90,90,90,90,90,90,90,90,90,90,90,90,89,87,84,81,77,72,68,63,57,50,43,34,26,22,19,16,12,9,6,2,0,-4,-7,-10,-12,-14,-16,-18,-19,-20,-22,-24,-26,-28,-29,-30,-30,-29,-27,-25,-22,-19,-16,-13,-11,-9,-8,-8,-8,-7,-7,-7,-7,-7,-7,-7,-8,-8,-9,-10,-11,-12,-12,-12,-11,-10,-8,-7,-7,-7,-5,-2,0,2,7,13,19,24,29,35,42,47,51,54,56,55,55,55,56,58,59,62,66,70,71,70,70,68,61,52,39,22,-2,-16,-22,-24,-27,-30,-31,-30,-29,-26,-22,-18,-14,-11,-7,-3,0,0,-1,-3,-3,-3,-4,-7,-10,-13,-14,-15,-16,-16,-17,-18,-20,-18,-15,-12,-9,-5,0,5,10,14,18,22,25,26,28,28,26,22,15,7,0,-8,-17,-30,-41,-49,-54,-59,-63,-66,-70,-71,-73,-75,-76,-76,-75,-72,-67,-60,-53,-47,-40,-32,-22,-12,-4,0,3,4,6,9,14,19,24,30,37,45,52,57,60,62,64,65,66,67,66,64,60,58,58,58,58,57,54,52,50,50,53,57,60,61,62,63,66,71,75,78,78,75,71,67,66,67,90,142,227,347,491,643,772,824,817,719,544,350,181,87,47,42,55,68,78,90,102,112,125,142,163,174,182,187,193,198,202,204,205,207,208,208,209,210,210,208,206,202,195,186,179,174,171,169,169,170,172,174,175,174,171,168,163,160,155,148,138,123,107,96,87,79,73,68,62,55,49,44,37,28,17,8,1,-5,-13,-21,-29,-40,-53,-65,-75,-83,-90,-95,-101,-108,-115,-121,-125,-128,-131,-132,-135,-138,-141,-142,-144,-146,-149,-152,-156,-162,-171,-185,-191,-195,-197,-197,-195,-194,-192,-190,-188,-184,-181,-178,-176,-174,-173,-171,-169,-171,-174,-177,-180,-181,-181,-179,-178,-178,-180,-175,-175,-175,-173,-171,-170,-168,-167,-166,-165,-164,-164,-163,-163,-163,-163,-164,-165,-166,-167,-166,-165,-163,-162,-161,-158,-156,-153,-148,-136,-132,-129,-127,-125,-124,-124,-125,-126,-127,-128,-130,-132,-133,-134,-135,-137,-139,-140,-141,-142,-142,-141,-140,-138,-137,-136,-136,-137,-138,-139,-140,-140,-140,-140,-140,-141,-142,-143,-143,-143,-142,-142,-141,-141,-140,-140,-138,-136,-133,-128,-117,-91,-37,51,177,331,492,617,666,615,471,276,82,-62,-119,-137,-124,-115,-111,-107,-102,-98,-96,-97,-99,-102,-105,-107,-109,-112,-116,-120,-122,-122,-120,-115,-110,-103,-95,-84,-72,-60,-51,-44,-37,-31,-27,-23,-20,-17,-13,-9,-4,0,5,11,20,28,35,45,56,70,81,89,96,99,101,102,103,104,105,106,107,106,102,95,88,78,63,49,35,22,11,2,-5,-10,-14,-17,-20,-22,-22,-22,-21,-19,-16,-14,-13,-13,-13,-12,-11,-9,-8,-7,-6,-6,-6,-6,-5,-4,-2,0,0,0,-1,-6,-10,-14,-18,-21,-25,-28,-30,-31,-30,-28,-27,-24,-21,-17,-14,-10,-3,4,11,17,23,30,35,36,36,36,36,37,37,38,39,39,39,39,39,39,37,36,34,32,31,29,27,25,23,20,15,10,7,8,12,17,23,32,43,49,52,54,56,57,58,59,61,63,64,65,66,67,67,68,68,70,71,72,73,74,74,73,71,70,68,67,66,65,64,63,63,63,63,64,65,66,66,67,67,66,66,65,65,65,65,66,67,68,69,71,72,74,75,77,78,80,82,84,86,88,90,91,92,92,91,89,87,85,84,82,80,79,78,77,76,75,74,74,74,75,75,75,76,75,74,74,73,72,71,70,69,68,66,62,73,106,167,260,385,533,680,786,816,752,605,411,220,75,7,-1,20,61,74,77,80,82,83,80,75,68,65,62,60,58,55,53,50,48,46,45,44,42,42,41,39,37,35,33,31,29,27,25,24,23,23,22,21,21,21,21,22,23,25,27,29,31,34,36,37,39,41,44,47,50,53,55,56,56,54,52,50,46,42,36,26,17,5,-9,-22,-31,-42,-52,-63,-75,-84,-91,-96,-101,-105,-108,-111,-113,-115,-117,-117,-117,-116,-114,-112,-110,-108,-107,-106,-105,-105,-104,-103,-101,-99,-98,-96,-95,-93,-92,-90,-86,-77,-65,-56,-49,-44,-39,-34,-30,-27,-24,-20,-17,-16,-16,-16,-16,-15,-14,-15,-18,-21,-23,-25,-26,-27,-28,-30,-31,-31,-32,-31,-31,-30,-29,-27,-25,-23,-21,-19,-16,-12,-7,-2,1,7,15,23,29,34,37,38,39,39,39,39,39,39,39,38,36,35,34,33,32,31,30,29,28,27,27,26,26,26,26,26,27,28,29,29,30,31,32,33,35,37,39,42,48,54,61,67,72,76,79,82,85,88,90,92,94,98,104,127,180,263,376,513,654,760,788,720,566,365,172,32,-25,-32,-14,16,29,34,37,39,40,40,40,38,34,30,26,23,18,13,9,8,8,10,13,17,21,26,31,36,40,44,47,51,54,58,61,65,69,73,79,86,94,102,112,118,123,127,132,135,134,130,124,120,116,111,107,104,101,97,92,87,81,74,67,59,47,37,31,28,25,23,20,18,15,13,10,7,4,1,-3,-7,-9,-10,-10,-11,-12,-13,-14,-15,-15,-16,-17,-17,-18,-19,-20,-21,-21,-22,-24,-26,-28,-31,-33,-35,-37,-38,-39,-39,-40,-41,-42,-43,-44,-45,-46,-46,-46,-47,-47,-47,-47,-47,-46,-45,-45,-44,-45,-46,-49,-51,-55,-61,-57,-44,-7,52,139,257,396,527,593,587,491,294,66,-125,-235,-256,-213,-151,-117,-106,-114,-126,-135,-127,-114,-99,-85,-72,-67,-64,-62,-60,-59,-59,-59,-60,-62,-63,-65,-66,-68,-70,-72,-74,-76,-78,-80,-82,-84,-85,-87,-89,-91,-93,-94,-95,-95,-94,-93,-92,-91,-90,-88,-87,-86,-87,-89,-92,-95,-99,-105,-111,-119,-123,-127,-129,-132,-134,-136,-138,-141,-143,-146,-153,-167,-179,-187,-194,-197,-198,-200,-202,-203,-204,-204,-204,-204,-203,-202,-201,-199,-197,-194,-190,-182,-172,-170,-169,-168,-167,-166,-166,-166,-167,-167,-168,-169,-170,-169,-161,-153,-146,-139,-132,-127,-124,-121,-118,-115,-113,-112,-110,-109,-106,-103,-98,-91,-85,-81,-77,-74,-71,-68,-65,-62,-59,-55,-52,-47,-38,-24,-12,-4,2,12,25,35,44,53,59,63,66,69,73,76,78,83,101,145,218,327,469,628,775,847,842,748,561,352,184,89,67,92,120,130,122,113,107,104,107,113,116,119,121,122,124,125,127,129,131,133,135,137,139,141,143,146,149,151,154,158,163,173,182,188,193,196,199,202,204,206,209,212,215,218,222,227,231,236,241,244,246,249,250,252,253,255,255,256,256,256,256,254,253,251,248,245,239,226,214,199,191,187,184,182,180,178,178,177,177,177,178,180,182,184,186,189,192,197,203,207,211,214,216,218,220,221,222,223,223,223,223,222,221,219,217,215,212,208,202,195,189,182,174,165,154,145,138,136,135,134,132,131,131,130,130,130,131,130,130,129,129,129,129,128,128,127,126,125,123,121,116,103,92,86,93,115,172,262,385,528,667,752,757,697,538,338,153,24,-21,-24,5,26,33,24,16,12,8,6,5,5,6,9,11,13,14,17,20,23,27,30,33,36,37,38,36,32,28,23,18,14,10,7,6,4,3,2,1,0,0,0,0,0,0,0,0,1,2,2,3,3,3,4,4,5,5,5,5,6,7,7,5,1,-3,-10,-20,-29,-38,-45,-53,-60,-65,-69,-72,-76,-78,-81,-83,-85,-86,-87,-88,-89,-89,-90,-91,-92,-93,-94,-95,-96,-97,-98,-99,-101,-104,-112,-122,-127,-130,-133,-136,-138,-139,-140,-140,-140,-139,-138,-136,-133,-130,-126,-117,-104,-99,-96,-94,-93,-96,-101,-109,-118,-119,-120,-120,-121,-122,-122,-123,-124,-124,-125,-125,-125,-124,-123,-122,-121,-121,-120,-120,-120,-119,-118,-118,-116,-113,-111,-114,-120,-129,-139,-144,-139,-103,-24,96,253,424,571,631,623,519,333,127,-39,-135,-149,-144,-128,-118,-117,-121,-126,-130,-122,-114,-109,-105,-101,-98,-95,-94,-92,-91,-89,-87,-84,-81,-78,-74,-71,-67,-63,-60,-59,-58,-58,-57,-57,-57,-57,-57,-57,-57,-57,-57,-57,-56,-55,-54,-53,-52,-50,-48,-46,-44,-40,-36,-34,-31,-29,-27,-24,-22,-21,-20,-22,-26,-31,-37,-47,-57,-67,-77,-87,-93,-97,-99,-102,-104,-106,-107,-108,-109,-110,-111,-113,-114,-116,-117,-118,-119,-119,-118,-116,-114,-112,-109,-106,-103,-99,-95,-91,-86,-82,-76,-68,-63,-60,-58,-56,-55,-54,-53,-53,-53,-55,-58,-61,-64,-67,-71,-75,-79,-83,-86,-89,-91,-92,-94,-95,-97,-98,-98,-98,-98,-97,-96,-94,-91,-88,-82,-69,-56,-41,-30,-24,-19,-17,-17,-16,-16,-16,-16,-16,-16,-16,-18,-21,-26,-34,-48,-61,-69,-64,-50,-5,73,190,340,507,652,730,707,584,393,190,30,-59,-74,-74,-64,-59,-68,-75,-79,-83,-85,-86,-85,-83,-79,-76,-73,-71,-68,-64,-62,-59,-57,-54,-47,-32,-20,-15,-11,-8,-5,-3,-1,0,1,3,5,9,13,17,20,22,24,26,28,30,31,32,33,35,36,38,39,39,38,38,37,37,36,35,34,32,31,30,29,27,25,22,17,11,5,2,0,0,-1,-2,-2,-2,-3,-3,-4,-5,-6,-6,-6,-7,-7,-8,-9,-9,-11,-12,-16,-27,-38,-48,-52,-55,-58,-59,-60,-60,-59,-56,-53,-50,-45,-41,-37,-32,-26,-18,-10,0,16,27,34,38,38,38,36,32,29,38,67,130,233,370,522,657,718,710,614,425,205,15,-102,-137,-112,-71,-47,-41,-37,-32,-28,-25,-23,-21,-19,-17,-16,-14,-13,-11,-9,-6,-4,0,3,8,14,20,22,24,26,27,29,30,31,31,32,33,33,35,36,36,36,36,37,37,37,38,38,39,41,43,47,51,55,60,69,83,91,95,99,103,106,109,112,115,115,111,106,102,98,94,90,86,81,74,63,54,48,44,41,39,36,33,31,29,27,25,23,20,18,16,16,18,21,24,27,29,31,34,36,39,41,43,44,45,46,47,48,48,48,48,49,49,49,50,50,51,51,51,52,52,53,53,53,53,53,54,54,55,56,57,58,60,62,64,64,62,58,54,51,47,43,40,37,33,26,16,9,4,5,18,53,119,215,343,485,608,672,650,538,363,171,12,-82,-104,-103,-78,-57,-51,-48,-44,-41,-38,-35,-32,-30,-26,-23,-19,-16,-12,-9,-5,-2,0,3,5,9,14,22,32,38,41,44,46,47,47,45,43,39,36,32,26,22,19,18,16,15,13,12,13,16,21,26,32,38,44,48,51,57,62,65,66,67,69,69,68,65,61,56,48,40,34,30,26,22,17,12,6,-3,-16,-24,-33,-40,-45,-47,-49,-50,-52,-53,-54,-54,-54,-54,-54,-54,-54,-53,-52,-51,-49,-48,-47,-45,-44,-42,-41,-38,-36,-32,-29,-27,-24,-20,-2,34,95,186,305,436,548,601,565,437,243,36,-121,-184,-188,-147,-94,-74,-67,-75,-82,-88,-91,-88,-82,-78,-75,-73,-71,-68,-66,-63,-60,-55,-49,-41,-34,-29,-27,-26,-26,-25,-24,-23,-23,-23,-23,-22,-22,-21,-21,-20,-20,-20,-19,-19,-18,-18,-18,-17,-17,-16,-15,-13,-12,-9,-2,5,10,14,17,18,18,16,12,7,1,-8,-18,-25,-30,-36,-42,-47,-50,-53,-55,-57,-59,-60,-61,-62,-62,-62,-62,-62,-61,-60,-58,-56,-55,-52,-49,-43,-36,-29,-23,-18,-13,-8,-2,0,3,6,8,10,11,10,8,6,2,-1,-5,-12,-19,-25,-28,-30,-31,-33,-34,-35,-35,-36,-37,-37,-38,-39,-39,-39,-38,-38,-37,-37,-36,-35,-34,-32,-31,-24,17,93,212,375,563,728,811,776,632,419,201,37,-35,-46,-29,-3,5,1,-12,-30,-36,-40,-41,-41,-38,-34,-31,-28,-26,-24,-22,-21,-19,-17,-15,-14,-13,-12,-11,-9,-6,-1,8,15,21,25,27,27,27,26,26,26,25,26,26,25,23,21,18,16,13,11,9,9,10,12,16,21,28,34,39,43,45,41,34,29,26,23,20,18,15,13,11,9,7,4,1,-4,-8,-10,-11,-12,-13,-13,-14,-14,-15,-15,-16,-16,-16,-16,-16,-15,-14,-13,-11,-10,-9,-8,-7,-6,-5,-4,-4,-3,-3,-2,-2,-1,0,0,0,1,1,2,3,3,4,4,5,7,8,10,12,14,17,24,30,34,37,38,40,42,44,45,46,46,45,43,42,40,37,34,29,23,15,7,0,0,9,38,103,202,336,493,641,712,706,607,418,208,36,-53,-67,-48,-6,4,8,2,-5,-10,-2,3,5,8,10,11,13,14,16,18,21,23,25,28,30,34,38,41,43,44,45,46,46,47,48,48,49,49,50,50,50,51,51,51,52,52,52,53,53,54,56,57,59,60,61,62,64,66,68,68,67,64,61,57,52,45,39,35,29,23,15,10,7,4,2,0,-2,-5,-8,-12,-15,-18,-21,-24,-26,-29,-31,-31,-31,-30,-28,-26,-24,-23,-21,-18,-16,-13,-11,-10,-9,-8,-7,-6,-5,-5,-5,-4,-3,-1,-1,-3,-7,-12,-19,-28,-33,-36,-38,-40,-41,-42,-40,-37,-32,-26,-17,-4,1,4,7,9,10,11,10,8,5,2,0,-3,-6,-9,-12,-15,-18,-22,-25,-25,-21,-16,-12,-9,-6,-4,-3,-4,-6,-9,-14,-23,-40,-56,-67,-76,-76,-58,-8,78,206,362,523,650,701,652,511,314,116,-29,-87,-92,-62,-39,-32,-28,-26,-24,-22,-21,-19,-18,-17,-15,-13,-11,-11,-10,-12,-14,-17,-20,-24,-28,-33,-37,-41,-47,-55,-62,-66,-69,-72,-73,-71,-68,-63,-55,-41,-31,-25,-21,-19,-17,-16,-15,-14,-13,-11,-8,-4,0,6,16,23,32,43,50,53,56,58,59,59,57,54,50,44,32,20,8,-2,-10,-17,-23,-30,-37,-40,-41,-42,-44,-45,-47,-48,-49,-50,-51,-51,-52,-52,-51,-50,-49,-48,-47,-47,-46,-45,-44,-43,-42,-41,-39,-36,-33,-30,-27,-25,-23,-21,-18,-15,-12,-7,-1,3,10,14,10,4,-1,-9,-9,-4,10,64,159,297,464,626,725,730,657,465,230,20,-111,-152,-131,-91,-67,-60,-55,-54,-54,-56,-59,-62,-66,-71,-74,-70,-64,-59,-55,-52,-49,-46,-44,-40,-34,-26,-15,-9,-5,-2,0,0,2,2,3,3,4,5,5,7,8,8,5,2,1,0,-1,-3,-3,-3,-1,0,3,6,9,11,14,16,18,19,19,18,16,14,12,10,9,7,6,5,4,2,1,0,0,-1,-1,-1,-1,-1,-1,-1,0,0,0,0,1,1,1,1,2,2,3,4,4,5,5,6,6,7,7,7,8,8,9,9,9,8,6,3,0,-6,-20,-29,-35,-38,-36,-27,-4,54,146,276,437,603,729,773,710,549,331,116,-40,-101,-105,-68,-30,-16,-16,-25,-31,-34,-38,-40,-42,-43,-44,-44,-45,-45,-45,-46,-45,-45,-45,-46,-46,-46,-45,-45,-44,-44,-43,-43,-42,-42,-42,-42,-43,-43,-43,-43,-43,-42,-42,-41,-41,-40,-38,-36,-34,-33,-32,-26,-12,0,12,24,32,34,35,36,38,38,35,31,27,24,20,17,15,12,8,5,0,-3,-9,-16,-24,-30,-35,-40,-45,-49,-53,-56,-58,-59,-61,-62,-62,-62,-62,-61,-59,-56,-53,-49,-44,-33,-25,-17,-9,0,6,9,12,15,17,19,21,22,24,25,27,29,32,33,33,32,30,27,23,18,10,2,-2,-4,-7,-9,-11,-12,-14,-14,-15,-16,-16,-17,-17,-17,-18,-18,-20,-21,-21,-18,-13,-9,-4,0,6,12,16,20,23,25,28,29,31,32,33,34,36,37,38,40,41,42,43,43,43,43,42,40,39,37,35,32,28,19,12,5,0,0,6,22,61,123,216,341,487,625,697,695,609,433,230,53,-55,-86,-60,-16,3,8,10,12,13,15,17,19,20,22,24,27,30,35,41,47,55,63,72,76,77,79,79,80,80,81,81,81,82,82,84,85,86,86,87,88,88,89,89,90,91,92,93,95,97,99,100,102,103,103,102,101,98,96,93,90,88,86,84,82,81,79,78,76,75,73,72,70,70,69,68,67,66,65,64,62,58,54,49,45,41,38,36,33,30,27,25,22,19,15,11,8,4,0,0,-2,-4,-5,-7,-8,-9,-10,-11,-11,-11,-10,-10,-9,-7,-6,-3,0,3,21,65,137,241,373,519,644,707,673,537,330,106,-71,-152,-161,-128,-76,-49,-44,-40,-37,-34,-33,-31,-30,-28,-26,-25,-24,-23,-22,-22,-21,-19,-18,-16,-15,-13,-12,-11,-10,-9,-7,-6,-5,-3,-2,0,2,4,7,11,15,18,22,26,30,32,34,36,39,42,46,51,58,62,65,69,70,70,68,64,59,52,42,32,23,16,9,2,-7,-23,-31,-35,-38,-41,-43,-44,-45,-45,-45,-45,-44,-43,-41,-39,-36,-34,-31,-27,-21,-16,-13,-11,-9,-8,-7,-6,-6,-5,-5,-5,-6,-7,-8,-10,-11,-13,-15,-16,-18,-19,-20,-20,-20,-18,-16,-13,-9,-6,-4,-2,0,2,5,7,9,11,13,14,15,16,18,20,22,28,31,32,33,34,35,35,35,34,31,27,23,17,9,2,-3,-7,-11,-14,-16,-16,-14,-10,-7,-4,-2,0,1,2,4,6,8,10,12,14,16,17,19,20,22,23,25,26,27,27,27,26,25,23,20,18,15,12,8,4,0,-4,-8,-11,-13,-16,-18,-20,-22,-23,-25,-26,-28,-30,-31,-34,-41,-40,-28,5,73,172,302,449,586,659,658,574,398,190,7,-109,-148,-125,-74,-37,-24,-23,-29,-32,-34,-36,-37,-39,-41,-43,-46,-50,-53,-57,-60,-64,-68,-72,-73,-72,-70,-67,-63,-58,-51,-46,-40,-36,-32,-29,-27,-24,-22,-20,-17,-11,0,6,9,12,13,15,15,15,15,15,15,14,14,14,14,13,13,12,12,11,11,10,9,8,7,5,3,0,-5,-16,-25,-31,-35,-39,-44,-48,-52,-55,-58,-60,-63,-65,-66,-68,-70,-71,-73,-75,-76,-78,-79,-81,-84,-85,-86,-86,-84,-82,-81,-79,-77,-75,-72,-69,-65,-61,-57,-54,-51,-48,-45,-43,-42,-41,-40,-39,-37,-36,-34,-32,-30,-29,-30,-33,-37,-42,-47,-52,-56,-59,-63,-68,-73,-79,-86,-92,-93,-86,-68,-22,55,169,315,468,582,616,549,392,186,-6,-135,-179,-148,-92,-60,-50,-57,-61,-63,-65,-66,-68,-69,-70,-71,-71,-72,-72,-72,-72,-71,-70,-69,-68,-67,-65,-64,-63,-62,-60,-58,-54,-50,-45,-40,-37,-34,-32,-30,-28,-27,-26,-25,-23,-21,-20,-19,-18,-18,-17,-17,-16,-16,-16,-15,-14,-13,-11,-11,-10,-11,-12,-13,-15,-16,-18,-21,-25,-28,-32,-37,-43,-52,-60,-67,-75,-82,-86,-88,-90,-92,-94,-96,-98,-100,-102,-105,-107,-109,-110,-112,-114,-116,-118,-120,-122,-124,-125,-126,-126,-126,-126,-125,-124,-123,-122,-120,-119,-118,-116,-113,-105,-98,-92,-88,-85,-81,-78,-75,-72,-69,-66,-62,-59,-55,-52,-49,-46,-42,-41,-43,-46,-51,-58,-67,-77,-83,-86,-89,-92,-95,-96,-98,-100,-101,-101,-102,-104,-105,-107,-112,-111,-99,-66,0,106,251,417,565,645,621,494,302,100,-58,-135,-146,-129,-89,-58,-47,-40,-33,-22,-2,18,25,28,25,18,11,3,0,-1,-3,-6,1,14,28,36,42,48,54,65,78,86,92,98,104,114,126,132,135,138,143,149,155,160,166,172,176,178,179,180,182,183,184,186,187,188,189,190,192,195,197,194,187,178,165,151,137,122,109,100,93,87,83,79,77,77,80,83,85,87,88,90,91,91,91,89,87,84,80,77,74,69,65,62,58,54,51,47,45,42,40,38,37,35,34,31,28,22,23,34,64,134,246,392,551,681,736,687,539,333,130,-13,-63,-66,-34,-7,0,-10,-19,-24,-29,-31,-32,-31,-28,-25,-22,-20,-18,-16,-14,-12,-9,-7,-5,-3,-1,0,3,7,15,24,33,42,46,48,50,52,53,53,52,49,45,41,38,34,30,27,25,23,22,20,18,16,15,14,15,16,18,19,20,22,24,24,23,20,15,7,-8,-20,-28,-31,-32,-33,-34,-34,-35,-34,-31,-28,-25,-23,-20,-19,-19,-21,-25,-30,-36,-44,-48,-51,-53,-56,-57,-57,-55,-52,-50,-48,-46,-43,-40,-39,-36,-26,15,89,199,343,504,647,708,698,587,383,150,-47,-166,-199,-163,-101,-49,-24,-17,-12,-7,-4,0,2,4,3,1,-1,-2,-3,-4,-4,-5,-6,-6,-7,-8,-8,-8,-8,-8,-8,-8,-8,-8,-9,-9,-10,-10,-10,-11,-11,-11,-11,-11,-11,-11,-12,-11,-4,5,18,29,41,54,65,72,77,80,80,77,72,68,63,59,55,51,47,45,42,40,38,35,32,29,25,21,15,9,4,0,-2,-5,-7,-9,-10,-12,-14,-15,-16,-17,-19,-22,-26,-30,-35,-38,-40,-42,-44,-45,-46,-45,-43,-40,-36,-33,-30,-26,-22,-18,-16,-15,-15,-14,-14,-14,-13,-13,-13,-13,-13,-13,-13,-13,-13,-13,-13,-14,-15,-16,-17,-19,-20,-22,-24,-25,-27,-31,-39,-45,-51,-57,-51,-35,11,93,215,372,539,671,725,674,529,329,133,-8,-62,-67,-41,-20,-13,-11,-13,-18,-22,-24,-27,-30,-33,-36,-41,-46,-52,-57,-61,-63,-66,-68,-70,-72,-72,-71,-68,-64,-59,-52,-41,-32,-27,-24,-21,-19,-17,-15,-13,-11,-9,-7,-5,-4,-2,0,0,2,4,6,8,11,14,17,20,22,25,30,35,38,39,37,34,31,26,18,10,1,-7,-15,-21,-26,-31,-36,-41,-48,-56,-61,-64,-65,-67,-68,-69,-70,-70,-71,-71,-70,-70,-69,-68,-66,-64,-62,-60,-56,-50,-43,-41,-41,-40,-39,-38,-38,-37,-37,-37,-36,-35,-35,-35,-35,-35,-35,-35,-35,-34,-34,-34,-34,-33,-33,-32,-32,-31,-31,-31,-31,-30,-30,-31,-32,-32,-33,-33,-33,-34,-34,-35,-36,-37,-38,-42,-42,-25,14,82,181,305,439,553,610,584,471,297,108,-48,-140,-163,-135,-91,-61,-46,-36,-30,-26,-22,-19,-16,-14,-12,-8,-5,0,6,17,28,34,38,41,43,45,47,50,52,53,55,56,58,60,61,62,63,64,66,67,69,70,71,73,75,76,79,82,86,90,94,98,103,110,115,119,121,123,125,126,127,127,126,125,122,120,117,113,107,103,101,99,98,97,96,95,94,93,92,91,89,87,86,84,82,80,76,68,64,62,61,59,58,56,55,54,55,55,56,57,58,60,61,58,56,54,52,51,53,56,60,62,63,65,67,68,70,71,71,71,70,69,67,65,63,61,59,58,57,57,56,56,56,55,55,54,54,53,52,52,51,51,51,51,51,51,51,51,51,51,50,49,49,48,47,46,44,42,37,44,64,112,190,304,448,600,718,762,707,556,349,148,6,-49,-56,-33,-14,-8,-5,-3,-3,-4,-7,-10,-14,-17,-22,-26,-28,-30,-31,-32,-33,-34,-35,-34,-32,-29,-25,-23,-21,-19,-16,-14,-12,-10,-9,-7,-6,-5,-5,-4,-3,-1,0,3,4,4,3,1,0,0,-2,-4,-6,-5,-4,-2,0,1,3,4,2,-1,-6,-11,-18,-25,-31,-36,-41,-45,-49,-52,-55,-59,-64,-70,-77,-83,-90,-96,-101,-104,-106,-108,-110,-111,-111,-112,-112,-112,-111,-110,-108,-106,-104,-102,-100,-98,-96,-93,-92,-90,-89,-88,-87,-86,-85,-84,-84,-83,-82,-81,-80,-79,-77,-75,-71,-68,-65,-63,-61,-60,-58,-57,-56,-55,-54,-52,-51,-50,-49,-48,-48,-47,-47,-46,-45,-43,-42,-39,-33,-24,-16,-10,-7,-5,-4,-3,-1,0,-4,-11,-16,-22,-27,-29,-29,-30,-31,-33,-32,-26,-23,-20,-18,-17,-15,-14,-12,-10,-8,-5,-4,-2,0,1,4,6,9,10,12,12,13,13,14,14,14,14,15,17,18,16,11,4,-8,-21,-35,-48,-55,-51,-35,9,83,193,337,495,630,697,666,538,345,143,-15,-95,-107,-86,-43,-23,-18,-13,-8,-3,6,15,17,18,20,20,20,20,19,18,17,14,12,10,8,6,4,2,0,0,-1,-2,-2,-2,-1,0,0,2,5,9,12,18,29,36,44,52,63,69,73,76,79,82,83,84,84,84,84,84,84,84,84,84,83,83,82,74,66,59,53,48,41,33,24,14,5,-2,-11,-24,-35,-42,-47,-50,-52,-53,-54,-54,-53,-50,-47,-43,-39,-33,-27,-23,-22,-21,-20,-19,-18,-18,-17,-17,-17,-16,-16,-15,-14,-14,-14,-13,-13,-13,-12,-12,-13,-13,-14,-14,-15,-15,-16,-16,-17,-18,-19,-20,-24,-27,-24,-14,13,75,175,317,487,658,766,772,691,491,255,51,-69,-99,-67,-23,-12,-9,-8,-7,-5,-4,-2,-1,0,0,1,1,1,0,0,0,0,0,-2,-3,-5,-7,-9,-11,-13,-13,-10,-6,0,7,18,26,34,42,51,60,68,73,75,76,77,78,79,79,80,81,81,81,81,81,80,79,78,76,75,73,71,70,67,62,57,51,43,31,19,5,-5,-14,-23,-29,-33,-36,-37,-37,-34,-29,-24,-18,-10,-7,-6,-6,-5,-4,-4,-3,-3,-3,-3,-3,-3,-4,-5,-6,-8,-8,-9,-10,-11,-11,-12,-12,-13,-14,-15,-16,-17,-18,-20,-22,-25,-32,-46,-59,-70,-80,-86,-79,-58,-13,58,160,293,449,606,726,765,702,543,329,117,-36,-92,-95,-57,-24,-13,-24,-44,-55,-55,-56,-56,-56,-56,-56,-56,-57,-59,-60,-62,-64,-65,-68,-70,-72,-74,-77,-80,-83,-85,-85,-85,-84,-82,-80,-78,-76,-71,-66,-60,-52,-39,-27,-20,-13,-7,0,7,15,21,24,27,29,31,33,34,35,37,39,41,41,36,30,24,18,12,8,4,-3,-16,-26,-33,-38,-43,-49,-57,-67,-72,-75,-78,-80,-82,-83,-84,-84,-84,-82,-81,-79,-77,-74,-71,-67,-62,-56,-49,-43,-38,-33,-29,-26,-24,-22,-21,-19,-18,-18,-17,-16,-16,-17,-19,-21,-23,-25,-27,-29,-30,-32,-34,-36,-38,-39,-40,-40,-41,-41,-40,-38,-36,-34,-32,-30,-28,-24,-20,-16,-11,-6,0,8,8,1,-5,-14,-21,-27,-33,-35,-36,-38,-40,-29,-21,-16,-12,-9,-8,-8,-11,-14,-18,-22,-26,-31,-37,-41,-43,-44,-45,-46,-48,-49,-50,-50,-49,-47,-44,-40,-33,-19,-8,-2,2,6,9,11,14,16,18,21,24,27,32,37,40,37,31,21,12,7,11,40,100,195,328,488,648,766,796,718,545,321,109,-37,-90,-95,-69,-47,-40,-43,-47,-50,-44,-38,-32,-32,-37,-42,-46,-49,-49,-44,-36,-31,-27,-23,-20,-17,-15,-12,-9,-6,-2,1,4,7,8,9,11,12,13,13,12,11,9,7,5,4,2,0,-1,-2,-3,-3,-2,-1,0,2,5,9,17,26,37,47,50,53,55,53,47,42,36,28,21,13,5,0,-4,-10,-17,-28,-34,-37,-39,-42,-44,-47,-49,-51,-52,-54,-56,-59,-66,-75,-75,-75,-75,-76,-76,-77,-77,-77,-77,-77,-78,-78,-78,-78,-77,-76,-74,-73,-71,-69,-68,-66,-64,-62,-60,-59,-58,-56,-54,-53,-51,-50,-49,-48,-47,-46,-45,-44,-44,-45,-46,-47,-48,-49,-51,-52,-54,-55,-56,-57,-59,-60,-63,-68,-71,-67,-53,-17,61,180,330,486,605,641,573,412,206,19,-98,-131,-132,-105,-80,-68,-56,-44,-35,-30,-27,-31,-38,-42,-45,-48,-51,-53,-54,-53,-52,-51,-49,-47,-45,-43,-40,-38,-35,-32,-29,-26,-23,-19,-15,-10,-6,-2,1,6,11,17,23,29,37,47,57,61,64,66,68,70,71,72,72,72,72,71,70,68,66,64,62,59,52,45,37,29,22,15,9,2,-5,-14,-20,-23,-26,-29,-30,-31,-30,-29,-27,-24,-21,-18,-14,-10,-6,-2,1,6,12,16,17,18,19,20,20,17,12,6,-2,-12,-17,-19,-22,-24,-25,-27,-29,-30,-31,-32,-32,-33,-33,-34,-34,-34,-34,-35,-36,-37,-39,-39,-39,-38,-36,-33,-30,-27,-25,-21,-18,-14,-11,-8,-4,0,8,16,24,29,34,38,41,43,45,46,47,47,48,49,50,51,51,51,51,51,51,50,49,47,46,43,41,38,36,32,26,19,15,11,4,-2,-5,-8,-11,-10,-4,0,5,10,15,20,25,29,33,37,42,46,48,49,51,52,54,55,56,57,58,59,60,61,62,62,62,62,62,61,61,61,61,62,63,63,64,65,66,67,68,69,70,72,74,79,86,87,88,88,89,86,81,76,71,68,72,82,110,162,235,333,454,582,687,731,689,562,377,185,35,-43,-56,-42,-5,8,11,14,16,17,19,20,21,23,24,24,25,25,26,27,29,31,32,33,35,37,39,41,45,51,66,76,81,84,87,89,91,93,96,99,103,109,117,124,129,133,135,135,133,130,125,119,110,105,101,99,98,96,95,93,91,90,88,86,84,79,71,63,53,39,23,11,4,0,-6,-14,-19,-24,-27,-30,-32,-35,-36,-38,-39,-40,-41,-41,-42,-43,-44,-45,-46,-48,-49,-50,-50,-51,-51,-52,-54,-55,-56,-58,-60,-62,-64,-66,-68,-68,-68,-68,-68,-68,-68,-68,-68,-69,-71,-70,-66,-64,-62,-61,-60,-58,-57,-55,-52,-49,-46,-43,-39,-36,-31,-26,-21,-18,-14,-11,-9,-7,-5,-3,-2,-1,-2,-4,-8,-12,-16,-18,-20,-22,-24,-25,-27,-29,-30,-32,-33,-34,-36,-36,-37,-37,-37,-36,-36,-35,-35,-34,-34,-34,-34,-34,-34,-35,-35,-34,-31,-26,-22,-18,-13,-7,-1,2,5,8,11,13,14,14,14,13,12,10,7,4,1,-2,-6,-10,-15,-18,-21,-24,-27,-31,-35,-38,-38,-33,-21,11,79,183,322,481,628,701,698,607,422,212,36,-68,-96,-71,-29,-7,0,0,-3,-8,-11,-2,2,5,7,8,9,10,10,12,14,16,17,19,20,21,23,24,26,29,32,36,40,43,45,46,47,48,48,48,49,48,48,49,49,50,51,52,53,54,55,57,58,60,61,63,67,71,74,76,77,79,81,83,86,87,85,80,74,67,57,47,38,28,18,12,8,4,1,-1,-4,-7,-11,-16,-20,-24,-28,-33,-40,-48,-53,-56,-59,-61,-63,-64,-64,-64,-62,-60,-58,-56,-54,-52,-49,-46,-44,-42,-39,-37,-35,-33,-31,-29,-28,-26,-24,-22,-20,-17,-15,-12,-7,1,7,11,14,16,17,17,15,11,6,0,-10,-21,-29,-35,-39,-44,-48,-51,-53,-56,-58,-59,-60,-61,-60,-58,-56,-53,-49,-42,-31,-25,-21,-19,-17,-15,-11,-9,-5,1,24,87,187,328,497,660,761,768,702,530,326,151,46,25,28,50,53,35,-1,-30,-40,-41,-37,-33,-29,-30,-39,-46,-51,-55,-58,-58,-57,-54,-51,-47,-43,-38,-32,-28,-24,-15,-2,7,13,18,23,31,43,54,62,71,77,80,83,85,87,88,88,89,90,91,92,93,94,94,91,87,82,75,65,56,47,39,30,20,7,2,0,-3,-5,-6,-7,-8,-8,-8,-7,-6,-4,-2,0,2,4,7,9,12,16,19,21,21,20,19,19,18,18,18,18,17,16,15,14,13,12,11,9,8,7,6,4,3,1,-1,-3,-6,-9,-11,-14,-16,-18,-19,-21,-22,-22,-22,-19,-15,-10,-7,-4,-2,0,1,3,4,5,5,6,7,8,9,9,10,10,10,11,11,11,12,12,13,14,15,21,29,32,35,37,37,34,29,24,18,13,7,3,0,-3,-6,-7,-8,-9,-12,-8,18,70,155,275,427,593,739,818,798,675,481,271,102,6,-6,-2,14,23,12,-6,-18,-20,-21,-22,-23,-23,-23,-22,-21,-20,-19,-17,-16,-14,-13,-11,-9,-8,-6,-3,1,9,25,36,43,49,55,61,68,76,79,81,82,83,84,86,86,87,88,89,89,90,90,89,89,88,86,85,84,82,80,77,74,71,62,45,33,23,14,5,-2,-9,-12,-14,-16,-17,-18,-19,-19,-19,-18,-18,-18,-17,-16,-15,-14,-13,-13,-13,-12,-11,-9,-9,-9,-9,-10,-11,-11,-13,-14,-18,-22,-14,8,50,119,217,345,487,616,687,666,548,356,140,-36,-126,-140,-121,-79,-65,-60,-65,-71,-76,-75,-69,-67,-65,-64,-63,-62,-62,-61,-60,-60,-59,-59,-59,-59,-59,-59,-59,-58,-58,-58,-58,-59,-59,-60,-61,-61,-61,-61,-61,-61,-61,-61,-60,-59,-58,-56,-55,-53,-50,-41,-32,-25,-19,-14,-9,-6,-4,-2,0,0,1,1,2,1,1,0,-1,-3,-5,-8,-11,-17,-24,-30,-38,-47,-56,-64,-72,-79,-85,-90,-93,-96,-98,-100,-101,-103,-104,-105,-104,-102,-99,-96,-89,-77,-67,-62,-57,-52,-48,-45,-42,-39,-35,-32,-29,-26,-23,-20,-17,-15,-14,-16,-20,-25,-34,-49,-58,-66,-66,-56,-30,27,116,234,371,503,585,588,527,361,147,-57,-196,-236,-235,-188,-149,-136,-129,-125,-116,-100,-80,-63,-48,-33,-25,-22,-19,-17,-16,-14,-12,-10,-7,-5,-3,-1,0,1,2,3,4,2,0,-2,-5,-7,-9,-11,-13,-16,-18,-19,-20,-21,-21,-22,-22,-21,-19,-17,-15,-12,-9,-5,4,15,26,37,44,48,51,54,55,53,49,44,37,27,19,10,2,-3,-6,-8,-10,-11,-13,-15,-16,-18,-20,-23,-26,-33,-45,-56,-67,-72,-74,-77,-78,-80,-80,-81,-81,-80,-80,-79,-77,-75,-72,-70,-67,-64,-61,-57,-54,-50,-47,-43,-39,-33,-28,-24,-21,-16,-10,-5,-3,-1,0,1,1,1,0,-1,-4,-8,-16,-30,-39,-46,-45,-34,-3,66,172,308,450,557,588,521,363,154,-45,-186,-229,-230,-188,-143,-117,-102,-89,-72,-51,-34,-26,-22,-17,-12,-6,0,5,8,9,9,9,10,10,8,3,1,0,0,-1,-2,-3,-5,-7,-8,-9,-9,-9,-9,-9,-8,-7,-6,-5,-4,-3,-2,-1,0,1,4,13,23,33,41,48,54,62,70,75,77,79,81,82,81,79,76,71,62,47,35,26,17,7,-1,-10,-17,-24,-30,-35,-37,-39,-41,-43,-44,-46,-46,-47,-47,-47,-46,-45,-43,-41,-39,-36,-33,-29,-18,-9,-2,4,10,16,20,24,28,31,33,36,38,40,42,44,44,41,37,33,27,20,12,5,-3,-13,-21,-26,-29,-32,-34,-34,-34,-33,-31,-29,-27,-24,-21,-18,-14,-11,-8,-5,-2,0,4,9,14,17,20,22,24,27,29,31,32,34,36,37,39,41,43,46,49,51,51,49,46,41,36,27,17,3,-7,-13,-12,5,46,113,210,331,459,558,592,543,415,236,57,-77,-137,-145,-126,-94,-80,-73,-67,-61,-45,-24,-2,11,21,25,28,32,35,38,43,49,58,62,65,67,68,65,58,50,41,36,33,31,29,28,28,30,34,39,42,46,50,54,58,63,67,71,74,78,81,83,84,86,87,89,91,94,94,93,89,84,79,72,66,59,50,41,33,28,25,20,15,9,2,-4,-10,-15,-19,-22,-24,-26,-29,-32,-35,-37,-39,-41,-43,-44,-45,-46,-47,-47,-47,-47,-47,-46,-45,-45,-44,-43,-42,-40,-37,-35,-39,-45,-49,-52,-55,-57,-58,-60,-60,-61,-60,-57,-55,-51,-46,-27,24,104,215,350,482,565,568,499,321,105,-86,-204,-237,-203,-140,-88,-73,-71,-70,-69,-68,-67,-67,-66,-66,-66,-66,-66,-66,-66,-65,-64,-63,-62,-62,-62,-63,-63,-62,-62,-61,-60,-59,-57,-54,-51,-48,-45,-42,-38,-33,-25,-18,-12,-8,-5,-2,0,1,2,1,-1,-3,-6,-8,-10,-12,-14,-16,-19,-21,-22,-24,-26,-28,-30,-32,-34,-35,-37,-39,-42,-44,-46,-47,-47,-47,-46,-44,-42,-39,-35,-30,-20,-11,-4,2,8,13,17,21,23,25,25,25,23,21,17,11,0,-8,-13,-15,-15,-12,-7,0,13,26,40,47,50,53,55,57,57,58,57,55,52,50,47,44,40,35,30,25,20,14,7,3,5,12,31,83,170,298,453,606,694,696,618,437,223,34,-84,-119,-89,-39,-12,-4,-14,-25,-33,-37,-36,-34,-34,-34,-33,-33,-33,-33,-33,-33,-32,-31,-31,-31,-31,-31,-31,-31,-31,-30,-29,-29,-28,-27,-25,-24,-23,-21,-18,-11,-4,0,4,8,12,16,20,23,27,30,33,36,40,43,48,52,54,55,56,58,61,54,44,33,21,8,-1,-8,-13,-17,-20,-22,-24,-27,-29,-32,-34,-36,-37,-38,-39,-40,-40,-40,-41,-42,-42,-43,-43,-43,-44,-44,-45,-45,-46,-46,-46,-46,-47,-48,-49,-49,-49,-49,-50,-51,-52,-52,-53,-54,-54,-54,-55,-54,-54,-53,-51,-50,-49,-47,-46,-44,-43,-41,-41,-40,-40,-39,-38,-37,-37,-36,-34,-33,-31,-30,-29,-28,-27,-26,-25,-23,-22,-20,-17,-13,-10,-9,-7,-6,-5,-4,-3,-2,-2,-1,-1,0,0,0,0,0,0,1,2,2,3,4,4,4,5,5,5,5,5,5,5,6,7,8,9,10,11,12,14,16,18,19,20,22,25,29,31,32,32,32,32,32,32,32,32,30,29,28,28,27,27,27,26,26,26,27,28,28,29,29,29,30,31,32,33,34,35,37,40,43,45,48,51,54,57,60,62,65,69,71,72,72,69,66,62,56,48,47,52,65,114,195,316,473,637,766,814,756,597,379,164,8,-51,-56,-23,11,24,29,31,33,35,37,39,40,43,45,46,45,43,39,35,32,29,27,24,22,20,18,17,16,15,14,12,10,9,9,10,12,16,20,29,44,56,63,69,74,77,80,83,84,85,84,83,83,82,82,82,82,82,81,81,80,78,77,77,76,74,73,71,69,65,56,47,38,29,21,16,13,11,9,7,5,3,1,0,-3,-5,-7,-9,-10,-11,-12,-12,-13,-14,-15,-16,-17,-18,-19,-19,-20,-20,-21,-21,-21,-22,-22,-22,-22,-23,-23,-24,-24,-25,-26,-26,-27,-28,-28,-29,-29,-30,-31,-32,-33,-34,-35,-36,-36,-37,-38,-38,-39,-39,-39,-39,-40,-41,-41,-42,-42,-42,-43,-43,-43,-43,-43,-43,-44,-45,-47,-46,-42,-36,-32,-29,-25,-22,-22,-24,-28,-33,-43,-60,-73,-81,-75,-56,-3,87,224,394,568,698,739,669,505,293,94,-39,-82,-84,-53,-37,-34,-31,-29,-28,-28,-27,-28,-28,-28,-29,-30,-32,-34,-35,-35,-34,-33,-33,-33,-33,-33,-32,-31,-30,-29,-27,-25,-23,-21,-19,-16,-13,-10,-7,-4,-1,1,5,10,14,17,19,21,22,24,26,27,30,32,35,39,48,62,69,74,77,77,74,69,63,56,48,41,33,26,19,12,4,-3,-10,-17,-25,-38,-48,-53,-57,-59,-62,-64,-66,-70,-72,-69,-63,-57,-52,-48,-44,-40,-35,-28,-20,-12,-4,4,10,14,17,20,22,24,26,27,27,28,28,29,29,29,29,29,29,29,29,29,29,30,30,31,31,31,32,33,34,35,36,38,39,41,42,46,54,58,60,61,64,63,56,49,41,41,48,68,127,220,345,490,628,706,705,622,441,231,54,-51,-80,-58,-20,-4,0,1,4,7,11,14,16,19,21,24,26,27,29,32,37,45,49,51,53,54,54,52,49,47,46,44,42,42,43,45,49,52,57,62,68,73,77,81,83,86,87,89,91,93,95,97,98,100,103,106,109,112,114,115,117,120,122,119,112,104,94,84,71,54,42,34,27,20,16,13,10,8,6,5,5,6,7,8,8,9,11,12,11,7,5,3,0,0,0,0,2,5,8,9,12,14,16,18,19,18,17,15,14,13,12,11,9,8,7,6,6,5,4,4,4,5,6,8,9,10,11,12,13,14,16,17,18,20,22,23,25,25,25,25,23,22,20,18,15,12,5,4,8,20,63,137,244,373,501,578,581,516,355,155,-28,-146,-187,-167,-125,-93,-83,-77,-72,-64,-52,-45,-41,-39,-35,-32,-27,-18,-3,7,13,18,20,22,23,23,24,25,26,26,26,24,21,18,16,14,11,9,7,5,3,1,0,-1,-2,-3,-4,-4,-5,-6,-7,-9,-10,-10,-8,-4,0,4,10,14,16,17,18,20,20,10,0,-9,-18,-29,-44,-60,-74,-82,-87,-93,-99,-109,-123,-132,-136,-140,-144,-148,-152,-155,-159,-162,-165,-167,-168,-170,-171,-174,-176,-177,-177,-175,-172,-169,-167,-165,-162,-159,-155,-150,-145,-139,-131,-123,-116,-111,-106,-103,-100,-97,-95,-93,-92,-91,-90,-88,-87,-86,-85,-84,-83,-81,-79,-78,-76,-75,-73,-72,-70,-68,-66,-65,-63,-62,-61,-60,-59,-58,-57,-55,-53,-51,-49,-45,-41,-37,-34,-30,-26,-24,-23,-25,-28,-31,-35,-38,-41,-45,-48,-48,-49,-49,-48,-49,-49,-49,-49,-48,-48,-49,-49,-49,-50,-50,-50,-50,-51,-51,-52,-53,-55,-59,-58,-48,-18,39,128,250,392,532,630,651,574,414,214,37,-78,-108,-107,-72,-60,-55,-55,-57,-60,-62,-63,-60,-54,-46,-38,-31,-29,-27,-26,-24,-22,-20,-18,-15,-12,-9,-5,0,4,8,11,14,18,23,27,32,36,43,56,65,71,77,84,92,100,103,105,106,107,108,107,104,100,95,91,87,83,78,75,72,69,67,64,61,58,54,49,45,41,38,34,32,30,28,28,29,31,33,36,39,42,46,51,56,61,66,70,75,79,81,83,83,83,84,84,86,86,84,77,65,53,45,39,46,68,125,219,346,486,605,660,624,494,306,117,-19,-63,-61,-7,49,70,78,78,73,68,64,59,51,47,43,40,38,35,32,30,28,27,24,21,14,7,3,1,0,-1,-2,-2,-1,0,1,3,4,5,6,7,9,10,12,14,15,17,18,20,22,25,28,31,36,42,46,49,53,58,65,68,70,72,73,73,72,68,63,58,52,46,40,36,33,31,29,27,27,27,28,29,32,34,36,39,42,46,50,52,52,50,46,42,37,28,19,10,2,-8,-13,-15,-16,-18,-19,-20,-21,-22,-22,-23,-25,-26,-27,-28,-28,-29,-30,-31,-32,-33,-34,-35,-37,-39,-42,-44,-45,-45,-44,-43,-41,-40,-38,-35,-33,-31,-28,-26,-23,-21,-19,-16,-14,-11,-8,-6,-2,0,4,7,11,14,18,23,27,27,25,20,15,8,2,-5,-16,-23,-26,-28,-30,-31,-30,-28,-25
