-90,-101,-108,-113,-118,-122,-126,-130,-134,-138,-142,-147,-154,-166,-172,-166,-152,-131,-101,-83,-71,-65,-66,-74,-88,-104,-126,-150,-166,-178,-188,-197,-204,-211,-219,-229,-239,-249,-259,-267,-275,-282,-288,-293,-299,-304,-308,-309,-305,-299,-293,-290,-286,-282,-278,-276,-276,-278,-281,-283,-285,-287,-288,-291,-294,-295,-296,-296,-296,-297,-298,-298,-298,-295,-292,-288,-285,-281,-278,-275,-271,-268,-265,-262,-259,-256,-253,-249,-245,-241,-237,-233,-228,-223,-220,-218,-215,-212,-209,-206,-203,-201,-200,-199,-197,-195,-193,-192,-191,-189,-187,-184,-181,-179,-176,-174,-171,-169,-166,-163,-159,-153,-145,-137,-129,-125,-121,-118,-115,-110,-103,-95,-85,-73,-54,-26,-2,14,31,40,46,50,53,57,62,67,71,77,87,124,189,267,356,444,508,531,533,522,490,428,353,276,207,146,129,126,124,122,121,118,112,107,103,100,97,94,91,88,85,83,82,83,84,86,89,93,99,104,110,123,145,157,166,165,152,135,108,91,84,79,74,69,64,61,58,55,46,32,26,19,14,35,51,61,69,73,74,70,65,59,53,43,39,44,57,76,101,112,118,123,127,129,130,129,127,123,118,112,102,83,63,36,11,-1,-8,-17,-32,-48,-56,-62,-68,-74,-79,-84,-86,-87,-87,-86,-84,-81,-76,-71,-66,-62,-54,-38,-34,-33,-31,-29,-32,-46,-54,-58,-62,-67,-71,-76,-82,-88,-93,-98,-102,-107,-115,-123,-129,-129,-124,-117,-108,-101,-94,-88,-81,-74,-68,-61,-57,-54,-52,-51,-50,-49,-48,-46,-45,-43,-41,-39,-38,-37,-36,-35,-34,-32,-30,-29,-27,-25,-21,-16,-11,-8,-8,-10,-15,-21,-28,-40,-57,-37,-17,-3,6,13,24,36,45,54,63,64,61,59,56,54,53,55,60,65,69,75,78,71,57,47,38,29,24,20,17,11,4,0,4,10,14,17,19,20,21,23,24,24,23,21,17,13,9,4,-3,-8,-4,8,44,99,182,287,388,445,466,467,451,408,347,272,181,84,0,-45,-60,-46,-24,1,16,26,32,31,24,12,0,-17,-23,-29,-34,-16,38,103,154,172,171,154,129,100,79,63,52,46,42,39,36,32,28,25,21,16,11,3,-2,0,8,18,23,25,26,27,29,30,32,35,37,40,42,43,45,46,48,51,54,59,68,87,99,106,111,115,118,123,128,133,138,144,150,159,166,166,159,147,133,114,97,82,70,57,43,29,15,1,-12,-24,-35,-46,-56,-64,-69,-74,-79,-83,-86,-88,-88,-88,-87,-85,-82,-78,-73,-69,-65,-63,-60,-58,-55,-52,-49,-47,-45,-42,-40,-39,-38,-39,-40,-41,-42,-43,-46,-50,-54,-57,-60,-63,-72,-93,-115,-135,-145,-151,-155,-157,-152,-141,-129,-119,-109,-99,-90,-82,-76,-70,-65,-59,-50,-43,-39,-36,-35,-34,-33,-33,-32,-31,-31,-32,-33,-36,-38,-41,-45,-49,-52,-55,-55,-50,-42,-33,-24,-12,-1,7,15,25,39,58,75,88,103,117,125,130,134,137,138,140,142,145,147,148,149,149,149,149,149,149,149,149,151,153,148,135,121,103,87,75,64,58,59,61,64,67,68,65,56,45,34,44,76,156,270,402,527,612,640,620,557,433,287,162,73,39,30,25,21,16,11,5,0,-6,-13,-20,-27,-38,-48,-51,-54,-56,-59,-63,-65,-66,-67,-67,-67,-66,-64,-64,-67,-72,-78,-84,-95,-101,-99,-93,-85,-76,-77,-94,-119,-142,-151,-157,-161,-160,-153,-141,-121,-88,-64,-49,-42,-43,-49,-54,-62,-60,-45,-28,-10,0,6,10,14,18,20,20,17,13,7,0,-7,-18,-30,-42,-57,-81,-116,-142,-161,-178,-188,-195,-200,-204,-203,-197,-188,-179,-174,-169,-163,-158,-154,-151,-150,-151,-153,-155,-157,-159,-162,-166,-172,-175,-176,-172,-165,-157,-152,-146,-141,-135,-131,-128,-126,-124,-122,-121,-119,-118,-115,-110,-107,-106,-110,-115,-119,-125,-130,-129,-118,-104,-95,-88,-80,-74,-70,-67,-66,-65,-65,-65,-64,-63,-62,-62,-64,-74,-87,-96,-105,-113,-120,-126,-131,-135,-138,-142,-146,-151,-154,-154,-151,-143,-133,-122,-109,-92,-78,-71,-67,-63,-61,-59,-56,-53,-49,-44,-39,-33,-26,-16,0,14,27,40,51,61,70,78,86,94,101,107,112,116,122,126,129,129,125,119,112,106,100,95,90,85,81,76,71,67,63,60,55,52,48,46,44,43,43,42,40,39,38,38,39,39,39,38,37,37,37,39,43,49,71,140,256,418,587,697,710,668,526,349,187,74,27,26,73,140,178,192,196,191,179,165,149,145,143,142,141,141,140,139,139,139,141,144,147,150,153,155,156,157,158,158,159,159,160,160,161,162,163,164,164,165,165,166,167,168,169,170,171,174,176,179,181,185,195,202,207,213,220,218,199,185,174,165,159,158,159,162,165,169,175,173,162,154,148,143,141,142,144,146,149,153,151,133,113,92,76,61,47,47,61,76,92,92,72,53,34,25,22,19,18,16,12,5,-5,-18,-33,-53,-68,-80,-93,-107,-107,-94,-61,-11,5,3,-18,-30,-38,-44,-50,-55,-60,-64,-68,-71,-75,-81,-93,-114,-130,-140,-145,-151,-156,-162,-170,-180,-190,-199,-205,-212,-218,-224,-230,-234,-236,-237,-237,-236,-234,-230,-225,-217,-207,-193,-171,-158,-150,-144,-139,-132,-118,-99,-86,-74,-63,-54,-48,-46,-47,-50,-54,-59,-67,-79,-54,-9,23,32,36,39,42,45,50,58,67,76,85,97,115,129,130,120,104,78,38,10,-7,-14,-7,7,19,34,41,32,15,8,3,0,-2,-4,-7,-10,-14,-19,-22,-25,-26,-26,-25,-23,-21,-17,-12,-7,-2,3,10,20,71,183,318,447,529,556,535,472,346,203,82,22,1,1,9,23,16,-47,-98,-116,-94,-56,-25,-11,-1,2,-4,-18,-29,-42,-48,-40,-20,8,46,68,81,90,96,100,107,113,107,102,99,97,95,93,91,88,85,82,77,72,65,51,27,14,5,7,27,56,93,120,137,152,164,172,178,183,188,192,195,197,198,199,201,206,209,201,186,177,170,166,163,161,158,154,149,145,141,138,134,128,118,105,91,75,54,27,5,-16,-39,-79,-100,-111,-122,-131,-139,-145,-149,-150,-151,-152,-154,-155,-157,-156,-156,-155,-154,-154,-154,-154,-153,-152,-151,-149,-148,-147,-145,-144,-142,-140,-139,-138,-137,-136,-134,-131,-127,-124,-121,-119,-117,-115,-113,-111,-109,-109,-108,-104,-99,-92,-87,-85,-85,-87,-89,-92,-96,-102,-112,-93,-83,-79,-74,-69,-65,-61,-57,-55,-55,-55,-55,-56,-56,-58,-60,-62,-63,-63,-62,-61,-61,-64,-67,-69,-71,-71,-70,-69,-69,-68,-67,-63,-59,-54,-48,-39,-28,-14,4,23,40,69,93,105,115,90,67,52,39,26,16,7,-4,-19,-22,-14,-2,7,-19,-37,-46,-55,-62,-66,-68,-66,-64,-62,-60,-58,-56,-52,-47,-40,-36,-35,-38,-45,-55,-66,-78,-98,-110,-102,-76,-2,96,211,337,467,576,612,597,549,427,281,142,27,-43,-66,-79,-84,-80,-72,-63,-54,-44,-35,-29,-28,-32,-36,-40,-44,-48,-53,-57,-61,-63,-62,-58,-52,-46,-39,-32,-24,-15,-7,0,8,16,24,32,39,43,44,46,49,51,54,56,58,60,63,66,69,72,73,73,73,74,74,74,73,72,70,70,71,72,74,75,75,74,74,73,73,72,71,70,69,68,66,64,60,55,49,44,39,34,29,25,21,17,14,11,7,2,-3,-10,-17,-23,-28,-33,-37,-40,-42,-43,-44,-44,-45,-46,-48,-50,-53,-57,-61,-63,-66,-67,-68,-70,-71,-73,-75,-78,-83,-88,-94,-99,-103,-105,-106,-106,-105,-103,-101,-99,-98,-98,-99,-101,-103,-105,-106,-106,-105,-104,-103,-101,-100,-98,-97,-97,-99,-102,-105,-108,-111,-113,-116,-118,-120,-123,-125,-126,-128,-136,-144,-147,-142,-125,-100,-55,9,104,211,323,418,450,430,370,231,75,-58,-134,-158,-172,-180,-180,-171,-160,-148,-139,-131,-122,-113,-104,-93,-81,-67,-53,-39,-27,-18,-13,-8,-4,0,5,9,14,18,22,27,31,34,35,36,36,36,36,36,36,37,38,40,43,46,48,51,53,55,59,63,68,75,82,90,99,106,112,117,120,122,124,125,125,127,128,131,133,137,139,142,143,142,139,133,126,118,109,99,86,72,58,46,33,15,-9,-38,-69,-98,-125,-138,-148,-155,-161,-166,-171,-175,-179,-181,-182,-183,-185,-188,-191,-195,-198,-198,-195,-190,-184,-179,-176,-172,-168,-164,-160,-155,-151,-146,-141,-138,-136,-135,-135,-134,-133,-130,-127,-124,-120,-115,-110,-103,-97,-90,-84,-77,-68,-53,-27,0,16,27,36,44,50,56,60,63,66,67,67,68,68,67,66,66,66,66,66,66,66,67,68,69,70,71,74,78,83,88,93,97,101,105,109,114,119,123,128,132,136,141,144,147,148,147,146,145,143,140,137,134,131,129,127,127,127,127,128,129,129,130,130,130,131,131,131,131,132,134,137,139,141,142,143,144,146,147,147,146,143,141,139,138,138,137,135,134,133,133,133,132,130,129,128,128,130,133,134,137,141,138,118,101,86,74,66,61,59,58,56,54,52,51,49,48,46,44,41,40,40,42,44,45,47,49,54,60,66,73,81,90,145,224,311,403,495,518,525,505,383,222,66,-37,-76,-77,-47,-2,45,64,74,82,89,94,98,102,105,108,111,112,114,116,118,119,120,121,122,122,121,119,116,112,107,102,98,94,90,86,82,81,82,88,97,109,124,145,177,196,205,212,217,221,224,226,226,226,223,218,211,202,192,178,150,126,105,87,67,44,27,12,0,-12,-22,-31,-38,-45,-51,-58,-66,-75,-85,-94,-101,-109,-117,-125,-131,-135,-138,-141,-143,-146,-148,-149,-150,-150,-151,-152,-154,-155,-157,-159,-162,-165,-168,-171,-173,-175,-178,-183,-192,-210,-219,-224,-228,-232,-235,-237,-236,-232,-226,-220,-213,-205,-196,-185,-171,-157,-140,-131,-125,-122,-120,-119,-118,-117,-115,-112,-110,-107,-103,-100,-98,-95,-92,-90,-86,-82,-77,-72,-67,-63,-59,-55,-52,-50,-49,-47,-46,-47,-49,-54,-60,-67,-73,-80,-86,-95,-110,-124,-126,-125,-125,-124,-124,-125,-125,-126,-125,-124,-124,-123,-123,-122,-121,-119,-117,-115,-114,-112,-109,-106,-109,-118,-130,-141,-129,-94,-22,83,214,340,406,407,344,214,69,-59,-151,-183,-193,-178,-131,-67,-32,-20,-21,-36,-56,-73,-60,-19,39,66,80,88,92,91,89,86,84,81,79,81,85,89,93,74,42,11,-8,-23,-37,-46,-53,-59,-63,-64,-62,-55,-46,-32,-8,31,84,119,160,198,229,250,256,258,261,264,265,262,255,245,234,216,195,178,165,152,140,129,122,118,114,110,106,102,99,96,95,93,91,88,84,77,65,57,53,49,46,41,37,32,27,21,15,9,1,-5,-12,-20,-28,-35,-42,-47,-52,-55,-59,-63,-67,-68,-66,-61,-53,-45,-36,-24,-14,-7,-2,1,4,6,7,8,10,11,11,10,8,7,6,5,5,3,1,0,-1,0,1,4,7,8,10,12,15,19,22,26,28,30,32,34,35,36,36,37,37,39,40,40,40,39,37,34,32,29,27,25,23,19,11,1,-8,-15,-21,-26,-30,-33,-34,-34,-33,-31,-30,-28,-25,-43,-60,-71,-78,-78,-74,-65,-37,9,93,215,356,489,595,630,619,529,394,258,156,113,99,90,82,76,70,64,58,50,40,22,-8,-32,-47,-54,-51,-44,-39,-33,-29,-29,-37,-47,-61,-77,-81,-86,-79,-56,-41,-24,-17,-14,-11,-8,-6,-5,-3,-2,-1,0,0,1,2,3,3,4,4,5,5,5,6,8,9,13,23,35,47,59,75,91,107,120,129,135,143,150,159,176,195,204,211,210,196,175,149,132,118,94,76,62,51,43,38,33,27,15,-2,-19,-32,-38,-33,-22,-8,6,10,12,15,17,17,14,6,-5,-21,-39,-20,10,38,52,60,66,68,67,62,54,31,-6,-19,-4,18,48,75,94,101,108,115,115,104,74,32,4,-5,13,46,69,76,82,85,85,77,65,45,9,-21,-41,-42,-25,19,58,71,78,79,73,65,51,30,7,-11,-20,-25,-29,-32,-34,-35,-36,-36,-35,-32,-28,-22,-16,-10,-3,6,16,24,30,35,42,51,61,71,82,96,118,141,163,175,186,199,215,229,238,248,257,266,281,308,359,417,482,558,638,691,708,684,613,491,379,327,311,302,296,291,283,273,285,324,369,384,368,323,253,194,146,125,114,106,106,120,141,168,190,206,211,216,222,223,221,218,216,213,214,222,233,243,254,259,253,243,237,233,229,224,220,216,213,209,203,193,183,172,140,93,72,62,57,52,46,41,34,26,16,4,-11,-36,-70,-87,-95,-101,-105,-109,-113,-117,-120,-123,-128,-135,-151,-177,-195,-209,-226,-244,-261,-284,-308,-330,-347,-355,-360,-365,-368,-370,-372,-372,-372,-372,-371,-370,-368,-366,-364,-362,-360,-358,-355,-352,-347,-340,-334,-328,-322,-318,-312,-307,-303,-299,-296,-294,-291,-288,-285,-281,-278,-275,-273,-270,-268,-265,-259,-252,-244,-239,-233,-228,-222,-217,-212,-208,-204,-200,-198,-195,-193,-190,-188,-187,-185,-184,-183,-181,-179,-179,-180,-182,-184,-186,-187,-189,-192,-198,-203,-206,-201,-189,-177,-168,-159,-151,-144,-136,-128,-121,-116,-113,-109,-104,-100,-97,-95,-95,-97,-99,-102,-106,-111,-116,-122,-128,-138,-148,-151,-153,-155,-157,-160,-162,-157,-148,-143,-140,-137,-135,-133,-132,-130,-129,-130,-131,-135,-139,-142,-148,-156,-171,-170,-145,-73,56,219,389,526,559,543,427,266,114,39,18,5,-1,-4,-6,-7,-10,-11,-13,-15,-16,-16,-16,-16,-16,-17,-17,-15,-12,-7,-2,2,9,23,41,60,80,105,117,125,133,139,143,146,148,149,149,147,143,139,134,128,123,119,115,109,102,95,91,90,92,94,97,99,101,103,106,110,113,117,120,122,123,124,124,123,121,118,114,110,105,99,87,54,35,27,22,17,11,5,-1,-9,-18,-29,-42,-56,-73,-89,-96,-101,-107,-112,-116,-120,-123,-126,-128,-130,-132,-132,-131,-130,-128,-127,-127,-126,-125,-124,-122,-120,-119,-119,-119,-119,-118,-117,-116,-114,-113,-112,-111,-109,-106,-102,-98,-93,-87,-80,-70,-58,-43,-23,-4,4,12,21,28,35,41,47,51,56,59,62,63,62,60,57,54,51,48,45,42,38,34,31,29,27,26,23,21,18,15,12,9,7,3,0,-1,-1,-1,-1,-2,-3,-4,-6,-7,-7,-11,-23,-23,-6,2,7,13,18,21,24,28,32,37,40,42,42,43,44,47,53,58,60,58,52,45,38,33,25,17,11,11,19,34,49,63,79,96,108,118,128,140,154,168,184,231,303,414,559,719,868,966,977,936,801,637,487,384,343,328,320,314,310,307,301,297,293,290,287,284,282,280,277,275,274,274,275,276,278,280,284,289,294,299,303,306,308,310,313,316,319,321,323,323,323,323,321,318,313,307,302,296,291,287,283,279,275,272,269,267,265,263,261,258,254,251,248,245,243,240,238,236,235,235,235,235,234,232,229,226,222,219,217,214,211,207,203,199,192,175,157,137,117,96,73,53,42,34,28,21,8,-5,-13,-18,-22,-26,-30,-34,-36,-38,-40,-41,-42,-44,-45,-46,-46,-47,-48,-50,-52,-53,-55,-56,-59,-61,-64,-67,-70,-72,-75,-79,-87,-104,-114,-122,-128,-133,-133,-126,-116,-107,-98,-90,-88,-91,-95,-98,-100,-103,-105,-105,-105,-103,-101,-98,-94,-95,-104,-113,-121,-119,-100,-70,-46,-37,-30,-28,-33,-44,-53,-64,-70,-62,-48,-38,-28,-20,-16,-22,-34,-49,-63,-83,-94,-88,-74,-52,-28,-17,-12,-8,-4,0,6,12,19,27,36,44,50,50,44,36,28,20,14,7,1,-4,-9,-14,-19,-23,-26,-29,-33,-36,-39,-42,-45,-47,-50,-53,-56,-58,-59,-60,-62,-64,-67,-70,-73,-76,-77,-77,-76,-73,-70,-65,-57,-28,29,131,274,440,593,681,683,600,403,175,-7,-78,-102,-75,-25,0,5,8,-2,-9,-13,-15,-17,-17,-17,-17,-18,-18,-17,-14,-12,-9,-6,-3,-1,1,4,7,10,12,15,18,22,25,28,30,32,33,34,36,38,39,41,42,43,44,44,45,45,46,46,46,47,49,51,53,55,57,60,63,67,79,107,118,123,127,131,135,139,143,146,148,148,148,148,146,143,140,137,133,127,122,116,107,88,73,58,42,25,3,-17,-25,-29,-32,-35,-37,-38,-38,-37,-35,-34,-32,-30,-26,-22,-18,-16,-17,-19,-22,-26,-31,-36,-36,-28,-19,-15,-11,-8,-4,0,4,7,8,9,9,9,9,8,5,2,-1,-4,-6,-9,-17,-15,0,6,10,14,18,21,23,23,23,23,22,21,21,20,18,15,13,11,10,8,5,1,-2,-5,-6,-5,-2,1,4,8,15,20,15,4,-1,-7,-12,-17,-21,-24,-27,-30,-34,-38,-42,-45,-48,-50,-54,-58,-63,-67,-71,-75,-80,-86,-93,-101,-108,-115,-123,-132,-142,-150,-157,-164,-169,-173,-178,-183,-187,-192,-195,-197,-199,-200,-201,-201,-201,-201,-199,-196,-193,-190,-185,-180,-151,-82,18,144,281,396,434,425,334,189,36,-90,-135,-150,-129,-64,-7,9,13,16,13,-1,-9,-14,-15,-18,-21,-25,-28,-32,-37,-41,-45,-49,-53,-57,-60,-63,-67,-72,-78,-82,-86,-87,-88,-88,-88,-87,-85,-81,-77,-73,-69,-65,-58,-45,-30,-14,-3,6,14,23,32,41,50,61,76,86,93,97,99,102,104,107,109,112,114,116,117,119,120,121,122,123,128,133,132,124,110,88,59,45,37,32,27,24,21,18,6,-39,-92,-136,-152,-158,-162,-160,-144,-121,-96,-77,-64,-72,-96,-131,-143,-146,-143,-135,-110,-69,-33,-16,-4,4,3,-12,-35,-55,-64,-70,-55,-12,19,30,34,31,25,16,2,-22,-67,-84,-95,-91,-67,-41,-21,-9,-1,1,0,-2,-6,-14,-11,25,50,58,63,64,62,57,49,36,11,-13,-28,-14,28,72,88,88,78,63,38,8,-16,-31,-41,-40,-23,26,66,81,81,72,46,7,-38,-77,-91,-99,-104,-86,-32,9,24,23,7,-16,-42,-78,-112,-158,-203,-207,-187,-120,-55,-12,2,7,4,-5,-34,-92,-151,-155,-119,-3,144,297,444,562,616,580,444,244,41,-120,-227,-269,-270,-229,-155,-70,14,67,85,93,93,88,79,54,12,-33,-63,-74,-80,-82,-81,-73,-62,-41,-21,-11,-13,-44,-73,-83,-82,-65,-40,-9,6,15,21,23,22,16,6,-12,-28,-34,-31,0,40,60,69,73,76,78,80,82,85,87,88,89,91,92,93,95,96,97,99,100,102,102,101,100,96,92,87,81,72,55,41,31,24,16,9,1,-7,-18,-29,-41,-60,-87,-98,-102,-106,-109,-112,-115,-116,-117,-119,-120,-121,-122,-122,-120,-117,-114,-111,-108,-105,-102,-98,-95,-92,-90,-88,-82,-74,-68,-65,-68,-75,-84,-94,-108,-130,-133,-121,-104,-76,-49,-31,-25,-20,-16,-13,-18,-28,-37,-46,-54,-54,-44,-31,-20,-8,1,4,2,-1,-5,-7,-9,-11,-14,-15,-16,-13,-7,0,8,17,32,40,34,23,16,10,5,0,-2,-1,2,8,17,28,51,78,86,92,95,95,91,84,74,57,25,6,-5,-14,-18,-15,-5,5,15,28,38,38,29,16,5,-9,-17,-10,7,56,153,271,395,506,564,583,556,475,347,222,134,90,78,69,61,53,41,24,3,-16,-34,-33,-14,0,15,25,26,19,8,-3,-18,-19,-11,10,57,71,74,76,77,78,75,70,63,57,50,44,44,48,54,57,60,62,65,69,74,80,88,94,99,102,106,109,112,115,119,123,128,132,135,139,142,145,150,157,170,179,182,184,186,188,190,192,193,194,194,193,192,189,184,177,168,150,114,76,43,24,14,5,-3,-13,-22,-28,-32,-36,-40,-43,-46,-49,-53,-56,-59,-60,-61,-61,-62,-63,-65,-67,-68,-70,-75,-78,-71,-60,-54,-49,-44,-39,-36,-36,-40,-46,-53,-59,-64,-69,-76,-83,-87,-90,-89,-86,-82,-80,-79,-78,-76,-72,-69,-66,-65,-64,-62,-60,-58,-56,-56,-56,-57,-57,-55,-54,-52,-50,-48,-46,-43,-41,-38,-36,-35,-34,-33,-32,-30,-28,-25,-22,-19,-17,-16,-15,-15,-17,-20,-25,-30,-36,-40,-45,-50,-57,-65,-72,-76,-76,-73,-69,-65,-62,-61,-60,-59,-58,-56,-54,-51,-48,-45,-42,-40,-38,-37,-33,-29,-23,-8,25,84,150,226,305,376,435,456,444,405,274,110,-30,-78,-94,-74,-55,-40,-31,-31,-39,-50,-62,-78,-79,-56,-20,6,14,19,22,14,-2,-15,-27,-37,-41,-36,-27,-16,-10,-5,-1,2,5,8,10,11,12,11,11,10,10,9,9,7,5,4,3,8,15,23,31,43,52,53,45,35,29,24,20,16,13,11,10,10,13,17,22,27,32,36,40,45,49,53,57,59,60,61,62,61,59,56,53,49,45,41,35,23,-1,-25,-48,-57,-61,-64,-68,-72,-74,-75,-76,-76,-75,-74,-71,-66,-60,-55,-49,-42,-25,-9,6,22,32,38,42,46,48,47,42,34,25,15,3,-4,-8,-11,-13,-15,-18,-21,-23,-24,-25,-25,-25,-23,-20,-17,-12,-5,1,8,14,21,34,46,53,53,54,54,53,54,55,57,60,64,67,68,70,71,73,75,75,75,74,72,70,67,63,59,56,52,49,47,44,42,39,37,35,33,31,28,26,23,21,19,18,17,18,22,27,33,39,44,47,49,52,54,57,60,61,63,65,67,69,71,72,72,72,71,72,74,77,84,102,140,186,248,330,429,537,640,702,724,702,632,507,362,222,119,85,75,97,119,137,145,142,137,133,129,125,122,123,124,125,126,125,125,125,127,129,131,131,130,128,126,123,120,114,124,139,150,131,114,104,96,91,88,86,83,78,76,84,100,108,114,120,126,130,134,137,139,140,141,141,140,138,136,134,132,130,128,127,125,122,120,116,113,109,105,102,98,93,86,71,49,41,36,34,31,26,21,15,7,-3,-20,-36,-47,-55,-63,-72,-82,-94,-110,-122,-137,-157,-180,-207,-243,-260,-262,-264,-266,-266,-267,-266,-264,-259,-254,-249,-243,-236,-228,-219,-210,-202,-194,-187,-185,-187,-192,-198,-205,-215,-216,-209,-204,-200,-197,-195,-194,-196,-199,-202,-206,-212,-221,-206,-182,-156,-140,-130,-124,-121,-119,-118,-116,-113,-112,-114,-117,-120,-124,-124,-120,-117,-115,-113,-112,-112,-116,-121,-129,-143,-157,-165,-157,-122,-100,-92,-87,-83,-80,-81,-82,-85,-87,-91,-97,-81,-32,9,30,41,47,52,54,51,43,33,21,4,2,13,41,86,103,110,114,113,100,68,30,-26,-81,-101,-113,-111,-80,-35,4,19,28,36,43,42,26,10,-4,-5,14,43,74,90,101,105,101,90,78,66,76,106,183,287,401,511,594,622,615,558,457,332,209,122,81,68,54,38,26,17,10,4,-1,-6,-12,-18,-24,-30,-35,-41,-46,-51,-57,-62,-68,-73,-80,-86,-91,-94,-94,-92,-86,-80,-71,-55,-22,5,25,38,51,65,80,89,95,100,103,105,107,109,110,110,111,112,114,117,119,113,102,89,74,66,60,54,50,53,63,75,90,97,104,111,110,100,95,91,88,84,81,78,74,71,68,65,62,59,56,52,49,46,43,40,37,33,30,27,25,23,22,21,21,21,22,21,20,18,15,13,11,9,7,4,2,0,0,-1,-3,-6,-10,-15,-19,-24,-29,-36,-42,-47,-52,-56,-59,-61,-65,-69,-72,-73,-72,-66,-59,-51,-43,-35,-23,-9,0,6,12,18,23,29,35,42,50,59,76,112,134,145,154,161,164,165,163,160,156,151,146,140,131,119,105,87,57,21,6,-2,-9,-15,-16,-15,-11,-5,0,6,12,20,29,35,40,42,44,47,50,54,57,58,58,57,56,55,54,51,46,42,45,53,59,65,71,73,68,56,44,33,22,10,0,-6,-13,-19,-26,-33,-41,-48,-54,-57,-60,-63,-66,-68,-70,-70,-69,-66,-64,-61,-59,-55,-52,-48,-43,-38,-32,-22,12,85,190,324,471,589,635,585,450,268,96,1,-32,-34,-19,-10,-5,0,3,6,8,8,7,6,5,3,1,-3,-8,-13,-15,-15,-14,-13,-13,-12,-12,-12,-11,-10,-10,-9,-9,-9,-10,-12,-13,-13,-13,-12,-10,-8,-5,-2,1,6,9,12,18,33,44,52,58,63,67,70,74,79,84,90,95,100,105,109,112,116,120,124,129,132,135,137,138,137,137,135,133,129,124,119,114,105,77,53,40,29,18,9,1,-5,-11,-17,-24,-31,-38,-46,-53,-60,-67,-74,-80,-85,-89,-93,-96,-100,-103,-107,-109,-110,-111,-111,-111,-111,-109,-106,-101,-95,-89,-83,-77,-68,-58,-50,-42,-36,-32,-30,-27,-25,-22,-21,-19,-18,-17,-17,-18,-19,-21,-24,-27,-30,-33,-36,-39,-42,-46,-54,-60,-59,-48,-36,-29,-23,-18,-13,-10,-9,-11,-14,-17,-22,-25,-28,-31,-35,-38,-41,-42,-42,-42,-41,-40,-39,-37,-34,-31,-28,-25,-23,-21,-20,-19,-18,-20,-24,-28,-34,-40,-45,-49,-54,-60,-66,-70,-72,-71,-68,-64,-60,-55,-49,-39,-32,-34,-38,-41,-43,-45,-46,-46,-46,-46,-45,-43,-38,-30,-18,23,103,214,348,480,570,579,532,374,166,-21,-129,-164,-138,-92,-67,-62,-61,-60,-56,-42,-23,-4,19,33,28,15,-1,-20,-25,-29,-32,-14,1,10,18,21,21,15,7,0,-7,-17,-25,-25,-17,-7,1,11,20,29,36,40,44,48,51,53,54,55,56,57,58,60,61,62,63,65,67,70,72,74,77,79,83,86,94,112,126,133,138,142,145,148,149,150,151,150,148,145,140,135,128,115,89,65,39,10,-16,-36,-50,-51,-40,-30,-21,-16,-22,-31,-36,-39,-42,-44,-46,-49,-52,-54,-56,-57,-59,-62,-66,-83,-129,-153,-161,-139,-111,-88,-77,-67,-57,-44,-30,-17,-17,-31,-39,-45,-50,-54,-57,-60,-62,-65,-67,-69,-73,-79,-88,-87,-71,-57,-44,-36,-31,-29,-25,-20,-42,-80,-104,-115,-109,-58,25,139,272,406,519,549,534,427,264,89,-51,-107,-108,-60,12,65,70,37,-18,-65,-81,-88,-93,-75,-44,-23,-15,-9,-9,-17,-23,-28,-32,-34,-34,-31,-26,-21,-16,-11,-5,-1,0,0,-1,-1,-2,-4,-6,-9,-10,-7,-3,0,3,6,9,12,16,19,22,25,27,30,32,34,36,37,39,42,46,50,54,57,60,62,64,65,67,68,68,69,70,73,75,75,68,57,37,11,-9,-33,-52,-68,-84,-99,-114,-127,-133,-137,-140,-142,-144,-145,-144,-143,-140,-138,-136,-134,-130,-127,-124,-124,-127,-133,-142,-157,-177,-186,-192,-195,-190,-180,-171,-161,-151,-142,-136,-131,-126,-122,-119,-119,-120,-122,-124,-126,-128,-130,-132,-135,-137,-137,-134,-130,-124,-114,-99,-92,-88,-83,-77,-72,-67,-63,-59,-55,-51,-50,-50,-52,-57,-62,-68,-81,-103,-121,-140,-161,-187,-221,-242,-249,-254,-260,-267,-275,-285,-297,-297,-284,-266,-244,-225,-202,-174,-147,-121,-91,-71,-61,-54,-47,-42,-37,-33,-27,-21,-14,-8,-2,3,8,13,18,21,22,22,22,22,23,23,24,25,25,23,20,16,11,5,2,6,14,19,25,30,32,31,27,21,16,9,2,-5,-11,-17,-22,-25,-26,-24,-20,-14,-4,12,43,82,124,167,211,259,308,353,380,407,428,439,446,449,444,433,424,416,408,401,393,386,378,368,358,350,340,322,305,300,295,293,297,306,318,330,336,340,344,346,341,331,321,311,300,288,278,268,261,256,253,246,239,249,280,346,446,580,738,896,996,1003,939,778,586,416,302,272,262,272,283,292,290,275,252,227,211,199,185,173,160,146,127,101,87,81,76,72,69,65,62,59,57,55,52,49,45,43,42,45,51,58,65,73,85,95,100,104,107,110,112,115,118,119,120,119,117,115,113,111,108,103,98,90,80,68,53,38,26,17,11,7,5,2,-1,-4,-2,2,7,13,11,-4,-16,-26,-36,-47,-57,-67,-77,-87,-95,-102,-108,-117,-131,-149,-157,-163,-167,-171,-174,-177,-178,-179,-179,-178,-176,-174,-172,-169,-165,-160,-154,-143,-115,-96,-86,-79,-74,-74,-78,-83,-90,-96,-105,-110,-104,-93,-87,-83,-78,-74,-69,-65,-60,-55,-50,-45,-40,-35,-31,-28,-25,-21,-19,-17,-17,-18,-19,-20,-22,-25,-28,-32,-38,-44,-43,-35,-21,1,29,48,73,93,105,115,125,133,139,144,148,151,153,155,157,157,156,154,153,150,147,144,140,132,106,80,63,59,54,50,52,69,81,90,98,101,97,89,79,68,53,40,29,22,16,11,6,0,-7,-15,-23,-32,-44,-55,-62,-68,-78,-100,-116,-125,-132,-137,-139,-137,-132,-125,-116,-100,-70,-13,54,145,261,388,501,547,538,449,289,104,-54,-137,-164,-150,-105,-70,-58,-69,-80,-88,-92,-86,-72,-55,-36,-26,-21,-18,-15,-11,-7,-2,1,4,9,13,16,16,10,1,-8,-19,-34,-41,-34,-22,-14,-8,-2,2,6,10,14,18,21,25,28,31,33,34,34,34,34,32,31,29,27,25,22,19,16,9,3,3,14,28,38,50,60,67,68,65,61,55,47,36,35,42,47,53,55,42,19,3,-9,-19,-28,-35,-41,-46,-51,-55,-61,-67,-72,-75,-74,-68,-59,-48,-33,-11,6,15,21,25,29,32,34,36,36,34,30,25,19,14,8,2,-2,-7,-12,-16,-21,-26,-31,-37,-44,-51,-59,-68,-74,-81,-85,-88,-90,-92,-94,-96,-98,-100,-101,-102,-103,-103,-103,-102,-100,-99,-98,-97,-97,-96,-96,-96,-95,-95,-94,-92,-91,-89,-87,-84,-81,-78,-75,-72,-70,-66,-60,-51,-43,-36,-26,-6,16,25,29,34,37,39,39,37,33,27,20,16,13,9,5,2,0,-2,-4,-6,-9,-12,-14,-16,-17,-18,-20,-22,-23,-23,-22,-19,-17,-15,-12,-9,-5,0,4,10,17,36,82,155,252,368,486,568,580,549,430,268,108,-9,-43,-55,-55,-44,-39,-36,-35,-32,-29,-25,-22,-19,-15,-11,-8,-5,-4,-2,1,7,15,21,24,23,22,20,18,17,15,13,11,8,7,6,6,6,7,9,12,15,18,21,22,24,25,26,27,28,29,31,32,34,37,39,40,41,43,45,47,49,51,54,58,62,68,80,104,115,123,129,134,133,123,111,101,92,84,77,71,66,62,56,47,31,13,5,0,-3,-6,-10,-13,-16,-20,-23,-26,-31,-37,-44,-55,-74,-74,-59,-50,-44,-39,-35,-32,-32,-34,-39,-45,-53,-62,-78,-79,-64,-40,-21,-15,-10,-7,-5,-9,-19,-33,-57,-87,-105,-118,-102,-91,-84,-77,-72,-68,-67,-69,-72,-77,-82,-90,-103,-103,-93,-87,-84,-82,-79,-78,-77,-77,-77,-77,-78,-78,-79,-81,-82,-83,-85,-86,-87,-89,-91,-93,-95,-97,-98,-98,-99,-99,-99,-100,-102,-103,-105,-107,-109,-111,-112,-113,-113,-110,-106,-100,-93,-86,-80,-73,-66,-59,-53,-48,-44,-41,-37,-30,-2,51,122,211,313,412,480,502,484,428,315,184,68,23,7,30,55,76,79,71,67,64,62,61,62,67,76,85,97,115,133,146,155,163,168,168,164,158,151,147,142,138,135,130,125,120,114,108,102,97,92,87,81,75,69,64,62,63,66,70,76,81,86,92,97,102,106,110,113,117,120,123,125,127,129,130,132,134,136,138,140,141,142,141,140,139,138,137,135,132,129,126,123,119,114,101,74,52,24,4,-5,-12,-20,-26,-31,-37,-49,-70,-84,-92,-99,-105,-109,-111,-114,-117,-120,-122,-123,-122,-121,-119,-118,-118,-117,-114,-111,-109,-109,-114,-120,-126,-130,-134,-138,-142,-144,-145,-143,-141,-137,-132,-127,-120,-112,-103,-95,-87,-80,-75,-70,-66,-62,-60,-59,-58,-57,-56,-55,-54,-52,-50,-48,-45,-43,-42,-41,-40,-39,-37,-34,-29,-23,-21,-23,-29,-35,-41,-51,-50,-35,4,79,183,307,437,556,633,659,646,607,536,455,375,298,231,177,134,103,78,60,53,55,61,68,76,64,44,14,-5,-14,-21,-26,-29,-33,-36,-39,-41,-42,-43,-45,-48,-49,-49,-45,-38,-29,-22,-17,-14,-9,-5,0,3,7,11,14,17,20,22,24,26,33,53,64,70,74,77,78,78,76,75,74,74,72,71,70,69,68,67,66,64,63,62,61,60,59,57,54,51,46,40,25,-2,-25,-47,-67,-87,-107,-126,-145,-165,-183,-195,-203,-209,-214,-217,-217,-211,-202,-187,-170,-163,-160,-157,-155,-153,-150,-147,-144,-141,-139,-138,-137,-136,-135,-134,-132,-131,-130,-128,-126,-124,-123,-122,-122,-121,-121,-120,-118,-112,-102,-96,-91,-92,-101,-111,-122,-130,-138,-145,-145,-139,-123,-95,-61,-48,-42,-39,-37,-33,-28,-22,-11,5,24,40,65,92,122,137,145,149,151,153,155,158,161,163,167,171,177,189,199,207,214,219,221,225,229,227,214,194,172,158,150,141,133,127,122,118,114,112,113,116,120,124,126,129,131,134,137,140,143,145,147,149,152,155,159,163,168,175,190,212,229,241,253,269,291,306,315,323,328,332,348,376,420,476,548,629,711,777,789,777,704,589,451,315,208,160,145,158,181,205,219,228,233,233,228,219,205,184,163,150,145,143,141,142,148,156,163,171,177,180,181,183,186,189,192,193,192,188,183,179,176,172,169,165,162,158,154,144,126,108,89,68,52,43,36,47,55,61,66,69,69,64,55,45,29,11,19,41,75,87,92,95,97,98,95,90,81,53,30,34,61,73,78,73,51,30,6,-13,-38,-82,-134,-159,-155,-128,-110,-102,-97,-94,-92,-94,-100,-109,-136,-163,-172,-160,-125,-89,-76,-62,-51,-42,-38,-40,-46,-63,-92,-93,-68,-14,19,31,35,32,23,8,-8,-32,-72,-110,-123,-113,-80,-37,-16,-5,3,7,2,-9,-21,-34,-35,-29,-12,27,73,90,98,103,103,91,58,19,-1,-14,-24,-24,-9,28,74,103,114,113,100,80,58,43,32,21,12,4,1,5,16,30,43,32,-1,-37,-57,-71,-79,-86,-91,-98,-105,-94,-72,-60,-58,-57,-55,-51,-42,-29,-5,16,30,36,41,45,31,6,-8,-14,-4,56,157,285,416,518,549,539,459,335,201,92,58,48,40,32,24,13,0,14,30,43,43,24,-5,-28,-37,-43,-45,-39,-25,-4,15,23,29,32,28,20,12,3,-5,-14,-26,-37,-18,-1,9,18,22,23,24,24,24,25,24,17,5,4,29,63,76,76,67,43,8,-13,-38,-61,-101,-130,-139,-128,-94,-49,-34,-29,-25,-23,-24,-32,-43,-56,-71,-72,-64,-56,-49,-50,-63,-77,-91,-103,-111,-117,-121,-124,-123,-119,-115,-109,-104,-95,-90,-97,-112,-127,-142,-158,-173,-200,-223,-233,-240,-225,-199,-169,-140,-108,-73,-39,-3,14,20,26,9,-6,-16,-24,-33,-42,-51,-59,-66,-74,-83,-90,-101,-142,-187,-203,-209,-205,-197,-190,-184,-178,-175,-175,-179,-187,-196,-205,-218,-228,-229,-223,-216,-211,-207,-204,-202,-200,-197,-194,-190,-188,-185,-182,-179,-177,-174,-170,-166,-162,-158,-153,-146,-134,-109,-91,-79,-70,-63,-55,-47,-47,-55,-62,-70,-68,-50,-30,-10,0,13,37,69,89,96,100,104,106,110,113,116,119,121,124,126,127,128,130,134,138,142,146,150,156,170,200,223,239,244,247,249,251,252,256,264,280,326,413,515,614,677,698,672,597,471,340,239,195,183,175,170,166,163,158,153,150,147,144,141,139,137,133,129,126,124,123,123,123,124,126,129,134,139,145,151,157,168,179,186,190,195,205,222,236,247,247,235,216,190,177,170,166,163,160,155,150,146,142,138,133,128,120,113,110,114,123,133,141,151,160,164,166,167,168,169,171,173,175,177,178,178,177,177,175,173,169,163,157,149,142,130,104,85,67,47,19,0,-14,-24,-32,-37,-41,-43,-44,-44,-45,-46,-48,-50,-52,-54,-56,-59,-63,-68,-74,-80,-88,-105,-119,-130,-144,-160,-186,-198,-205,-213,-218,-223,-226,-229,-231,-233,-234,-234,-233,-231,-230,-229,-228,-226,-225,-224,-224,-224,-224,-224,-222,-220,-218,-216,-215,-213,-210,-204,-198,-191,-185,-178,-166,-154,-148,-150,-154,-159,-164,-171,-175,-167,-150,-131,-109,-100,-90,-81,-100,-131,-153,-162,-170,-150,-124,-102,-88,-80,-76,-72,-70,-68,-65,-61,-57,-52,-47,-43,-39,-35,-31,-27,-25,-24,-23,-23,-23,-24,-25,-28,-33,-38,-42,-46,-50,-56,-62,-69,-73,-74,-73,-72,-71,-69,-67,-65,-62,-59,-53,-48,-43,-38,-30,-17,34,166,334,506,634,652,618,469,279,98,-4,-38,-19,13,50,82,102,88,48,-9,-39,-59,-73,-71,-45,-27,-12,0,4,2,-2,-8,-13,-19,-25,-26,-20,-8,2,9,14,19,25,30,34,36,36,36,35,34,33,31,26,19,38,56,68,80,94,107,117,125,132,140,148,154,159,165,171,182,198,212,223,232,240,249,262,278,290,302,311,319,327,334,340,345,349,354,358,363,367,370,373,376,379,383,386,389,392,395,398,402,406,409,409,407,403,398,393,386,379,369,359,348,338,325,303,267,242,227,214,203,188,172,163,160,158,157,157,156,155,153,151,149,147,144,141,137,132,125,115,96,81,68,57,47,37,23,10,4,0,-2,-4,-5,-7,-8,-8,-9,-10,-12,-13,-14,-16,-17,-18,-19,-20,-21,-22,-23,-24,-27,-30,-34,-40,-48,-57,-65,-73,-80,-88,-96,-104,-112,-117,-119,-120,-121,-124,-130,-129,-117,-111,-107,-104,-101,-99,-97,-94,-92,-92,-93,-95,-98,-101,-105,-109,-114,-119,-128,-145,-153,-156,-159,-161,-163,-165,-166,-166,-167,-167,-166,-163,-159,-154,-148,-142,-136,-130,-123,-114,-105,-97,-91,-87,-82,-75,-63,-46,-18,20,63,130,213,311,414,486,510,483,403,266,134,72,52,40,34,32,32,32,31,30,32,33,27,19,16,13,10,7,4,2,1,0,0,2,6,10,15,22,33,40,35,25,17,9,3,4,12,26,49,78,118,169,226,284,305,314,320,297,227,144,51,-43,-141,-228,-292,-330,-368,-404,-457,-535,-648,-803,-985,-1155,-1288,-1362,-1366,-1312,-1166,-970,-745,-512,-301,-125,15,149,300,471,656,832,985,1122,1274,1449,1608,1682,1684,1620,1511,1403,1305,1208,1103,997,895,802,722,676,641,615,592,561,524,486,445,418,402,392,392,403,418,437,463,485,515,553,592,633,677,717,753,794,838,891,929,950,965,975,982,988,993,998,1002,1006,1012,1018,1024,1031,1040,1053,1060,1051,1033,1016,997,980,965,940,907,875,843,817,797,773,748,725,713,707,702,698,695,695,699,706,713,720,729,736,737,732,721,705,679,635,583,523,451,377,310,252,201,172,127,75,13,-4,-13,-5,27,56,102,148,200,258,317,359,369,377,388,399,412,438,479,519,551,571,585,586,574,545,494,425,340,238,117,-22,-180,-353,-540,-738,-937,-1119,-1279,-1409,-1499,-1528,-1538,-1523,-1478,-1420,-1359,-1302,-1234,-1116,-942,-721,-478,-244,-69,-16,-26,-130,-266,-386,-450,-471,-460,-427,-371,-313,-259,-228,-194,-165,-123,-79,-28,33,96,157,215,270,297,316,328,315,276,205,113,8,-97,-198,-291,-369,-437,-503,-568,-630,-684,-732,-763,-797,-831,-851,-861,-868,-875,-882,-887,-896,-931,-1013,-1107,-1196,-1277,-1352,-1417,-1468,-1514,-1563,-1594,-1627,-1656,-1681,-1701,-1712,-1719,-1722,-1717,-1701,-1656,-1609,-1562,-1512,-1484,-1438,-1389,-1327,-1257,-1187,-1122,-1061,-1029,-1008,-995,-996,-1016,-1069,-1147,-1238,-1331,-1426,-1519,-1603,-1673,-1703,-1722,-1734,-1722,-1686,-1636,-1563,-1471,-1377,-1297,-1230,-1167,-1101,-1030,-958,-893,-844,-817,-794,-768,-720,-658,-590,-521,-445,-361,-272,-172,-60,55,171,287,406,531,660,791,919,1037,1134,1208,1235,1245,1253,1251,1229,1198,1159,1095,981,777,454,3,-560,-1191,-1820,-2370,-2787,-3052,-3196,-3254,-3272,-3283,-3288,-3288,-3284,-3276,-3267,-3250,-3221,-3193,-3163,-3130,-3093,-3060,-3038,-3034,-3030,-3027,-3049,-3084,-3118,-3139,-3154,-3154,-3139,-3096,-3032,-2949,-2848,-2728,-2592,-2450,-2312,-2180,-2054,-1928,-1802,-1685,-1586,-1507,-1451,-1417,-1395,-1384,-1376,-1369,-1362,-1357,-1350,-1336,-1306,-1248,-1196,-1143,-1116,-1099,-1087,-1088,-1103,-1143,-1200,-1268,-1339,-1401,-1456,-1482,-1497,-1508,-1513,-1509,-1497,-1463,-1404,-1305,-1167,-1006,-839,-684,-557,-469,-426,-411,-423,-457,-521,-594,-653,-672,-662,-631,-557,-467,-373,-270,-154,-18,134,298,465,631,791,943,1093,1252,1426,1606,1783,1945,2086,2202,2290,2352,2397,2413,2420,2425,2425,2412,2403,2395,2388,2381,2373,2358,2338,2306,2271,2234,2196,2170,2142,2114,2093,2077,2060,2048,2038,2032,2029,2029,2029,2029,2029,2030,2031,2031,2031,2031,2029,2029,2029,2029,2029,2029,2028,2027,2025,2021,2019,2021,2031,2045,2066,2086,2106,2127,2148,2167,2187,2208,2231,2255,2281,2297,2307,2313,2316,2316,2312,2305,2297,2289,2280,2270,2261,2254,2244,2231,2217,2200,2181,2164,2147,2114,2078,2046,2017,1988,1956,1922,1882,1842,1807,1776,1755,1733,1710,1692,1679,1669,1662,1657,1652,1646,1638,1624,1606,1579,1546,1508,1472,1438,1405,1373,1345,1330,1314,1298,1281,1266,1244,1215,1182,1145,1110,1074,1037,1004,985,968,951,934,915,894,874,860,851,846,840,834,829,823,820,819,817,808,792,768,741,713,683,644,596,537,472,403,334,268,200,130,62,1,-47,-85,-117,-136,-157,-173,-185,-193,-201,-213,-231,-249,-266,-292,-320,-357,-401,-447,-491,-526,-539,-538,-516,-454,-337,-182,-7,146,207,195,70,-157,-421,-656,-810,-854,-854,-806,-761,-741,-737,-744,-756,-774,-789,-802,-817,-828,-835,-840,-843,-846,-847,-850,-853,-854,-851,-842,-830,-813,-789,-761,-731,-699,-666,-633,-603,-583,-565,-554,-546,-539,-530,-521,-508,-491,-474,-454,-441,-436,-432,-428,-423,-418,-408,-394,-386,-382,-381,-391,-415,-446,-487,-534,-585,-645,-713,-766,-780,-782,-781,-769,-751,-735,-722,-707,-687,-662,-642,-628,-613,-599,-588,-581,-580,-582,-588,-613,-652,-697,-748,-804,-861,-911,-952,-990,-1006,-1014,-1018,-1014,-997,-975,-950,-916,-875,-815,-738,-641,-525,-387,-232,-77,57,157,219,250,273,296,339,387,434,452,465,461,436,413,373,330,285,243,202,163,127,94,60,25,-8,-46,-85,-126,-155,-186,-214,-241,-267,-295,-324,-349,-371,-387,-399,-402,-393,-374,-352,-325,-302,-281,-261,-242,-221,-201,-181,-158,-138,-122,-107,-95,-84,-76,-63,-44,-25,-9,10,27,38,43,46,55,69,61,38,5,-23,-50,-67,-70,-57,-26,11,53,102,155,207,259,308,355,407,463,514,551,556,548,544,563,641,786,993,1231,1458,1622,1672,1583,1371,1088,816,624,561,565,627,694,717,720,720,722,722,722,721,720,719,716,713,710,705,699,690,681,673,664,653,647,648,657,671,683,693,702,706,707,704,697,693,691,691,691,690,686,679,665,651,632,608,584,562,541,522,502,481,460,439,415,393,357,324,288,263,234,208,183,161,141,124,94,60,22,-16,-55,-91,-126,-160,-191,-208,-226,-245,-266,-287,-310,-331,-351,-367,-392,-418,-445,-473,-493,-513,-530,-544,-557,-569,-581,-595,-609,-630,-659,-695,-734,-758,-773,-778,-782,-787,-789,-788,-788,-790,-796,-809,-827,-838,-842,-844,-847,-851,-853,-852,-848,-844,-839,-832,-821,-813,-801,-786,-769,-754,-744,-737,-733,-733,-735,-738,-743,-749,-756,-758,-755,-748,-742,-731,-712,-691,-672,-656,-647,-639,-632,-626,-620,-613,-606,-599,-589,-573,-552,-530,-515,-507,-499,-495,-496,-502,-510,-522,-542,-564,-584,-606,-627,-647,-664,-673,-677,-682,-686,-684,-677,-669,-664,-658,-654,-649,-646,-646,-648,-651,-654,-658,-666,-678,-676,-652,-592,-478,-300,-76,152,333,413,358,188,-57,-308,-495,-574,-581,-546,-479,-422,-399,-398,-398,-397,-396,-396,-394,-384,-363,-341,-323,-299,-275,-249,-224,-208,-195,-187,-179,-170,-161,-153,-145,-136,-125,-109,-91,-67,-44,-19,8,41,74,106,134,150,165,178,187,194,200,204,210,215,219,220,218,214,210,205,200,197,196,194,189,183,181,180,180,179,180,185,189,192,194,197,200,204,209,215,221,224,224,221,215,206,198,187,177,162,142,124,112,101,87,69,53,35,24,19,13,7,3,2,3,6,11,18,25,31,35,37,37,42,59,86,107,123,141,163,178,179,176,172,167,160,153,144,138,142,165,196,232,276,329,389,454,515,565,602,632,647,675,704,722,742,761,780,803,830,860,876,885,892,898,902,902,895,886,875,867,862,856,854,854,854,851,840,823,805,785,761,738,716,699,681,660,648,643,639,639,641,642,643,643,640,632,616,594,570,540,516,499,492,504,555,650,797,973,1146,1274,1311,1240,1077,863,656,497,422,401,416,429,434,430,415,396,374,363,358,355,352,349,348,349,346,338,329,322,316,308,301,297,294,289,283,273,264,250,232,215,202,190,181,176,171,166,161,156,151,147,145,143,136,127,117,108,98,81,56,37,24,14,8,3,-3,-9,-11,-10,-6,0,7,19,41,54,62,65,65,61,51,36,20,5,-3,-8,-12,-19,-26,-37,-51,-69,-89,-109,-125,-134,-140,-147,-154,-159,-164,-173,-184,-195,-204,-214,-225,-235,-243,-250,-256,-264,-273,-283,-289,-295,-300,-303,-303,-303,-301,-297,-291,-282,-277,-277,-281,-285,-291,-298,-306,-309,-306,-300,-291,-282,-274,-269,-259,-246,-236,-228,-223,-223,-221,-219,-222,-226,-230,-231,-228,-219,-198,-164,-145,-136,-129,-123,-122,-127,-131,-130,-129,-126,-122,-117,-111,-107,-108,-111,-115,-118,-122,-125,-131,-141,-157,-172,-182,-191,-205,-225,-241,-253,-263,-274,-283,-288,-290,-290,-289,-286,-281,-277,-276,-278,-283,-289,-301,-320,-337,-342,-332,-284,-177,-15,185,387,541,584,563,448,268,86
