268,328,388,445,490,503,511,516,520,523,525,527,529,532,535,538,540,544,549,554,561,567,573,579,586,594,600,602,600,595,588,580,568,547,531,518,507,494,477,452,421,403,391,379,364,339,306,286,277,269,259,247,235,221,205,193,186,180,173,165,157,147,139,132,124,116,104,84,52,35,26,20,15,11,7,2,-1,-4,-8,-11,-13,-16,-19,-22,-25,-28,-30,-32,-35,-38,-41,-44,-47,-55,-58,-52,-39,-20,4,21,34,49,55,60,65,69,73,76,78,79,80,81,81,80,78,76,73,71,69,66,62,58,50,32,16,4,-4,-14,-25,-37,-46,-55,-63,-72,-82,-91,-98,-105,-111,-116,-120,-122,-125,-127,-129,-132,-134,-136,-136,-136,-134,-132,-127,-118,-89,-43,8,74,161,277,413,545,654,710,728,712,664,580,472,341,194,53,-54,-127,-177,-206,-222,-230,-236,-243,-252,-262,-269,-273,-275,-278,-280,-282,-285,-286,-288,-289,-290,-291,-291,-291,-290,-290,-290,-290,-289,-287,-285,-284,-283,-282,-281,-280,-277,-275,-273,-271,-268,-258,-247,-234,-226,-220,-215,-211,-207,-202,-198,-194,-189,-184,-179,-171,-161,-150,-141,-131,-120,-107,-96,-86,-78,-72,-65,-57,-47,-37,-30,-22,-16,-10,-7,-7,-9,-14,-20,-27,-36,-50,-63,-76,-91,-110,-128,-153,-182,-212,-242,-266,-284,-302,-309,-314,-318,-321,-323,-326,-327,-329,-331,-332,-333,-333,-333,-333,-332,-330,-328,-325,-322,-319,-316,-313,-309,-306,-303,-300,-296,-292,-287,-282,-278,-273,-270,-267,-264,-260,-254,-240,-215,-194,-172,-150,-127,-88,-42,11,70,128,182,244,322,409,496,579,653,722,789,852,913,971,1025,1070,1092,1105,1114,1113,1095,1070,1036,974,895,802,706,611,510,403,294,183,80,-7,-75,-127,-174,-228,-255,-267,-273,-278,-281,-282,-281,-276,-269,-262,-256,-252,-247,-242,-237,-232,-228,-224,-219,-214,-210,-207,-205,-202,-196,-187,-180,-178,-176,-174,-173,-171,-169,-167,-167,-167,-167,-167,-166,-165,-164,-163,-161,-158,-155,-151,-146,-141,-134,-120,-108,-97,-85,-71,-54,-36,-19,-3,9,20,32,46,68,96,122,149,169,182,194,205,211,215,219,222,225,227,228,229,228,226,223,220,216,212,208,204,202,198,194,189,184,179,174,170,165,160,155,149,141,132,126,119,114,108,104,100,95,90,85,81,77,71,63,51,40,29,23,19,15,11,7,3,-1,-5,-10,-15,-20,-25,-29,-34,-39,-44,-49,-53,-57,-60,-63,-65,-67,-69,-72,-80,-104,-131,-147,-154,-158,-161,-163,-165,-164,-159,-150,-142,-135,-128,-121,-115,-113,-113,-115,-117,-122,-128,-138,-154,-160,-163,-165,-166,-167,-167,-164,-155,-143,-131,-120,-106,-92,-83,-79,-77,-75,-74,-73,-72,-72,-72,-72,-72,-72,-71,-69,-69,-68,-68,-68,-68,-68,-68,-68,-68,-68,-68,-67,-65,-62,-64,-78,-87,-92,-97,-102,-105,-109,-112,-116,-120,-124,-127,-131,-134,-137,-140,-144,-148,-153,-157,-161,-165,-170,-175,-181,-187,-195,-203,-210,-214,-217,-219,-221,-225,-230,-232,-228,-219,-213,-209,-205,-202,-197,-191,-184,-177,-171,-165,-160,-155,-151,-147,-143,-138,-134,-129,-122,-111,-95,-66,-27,0,15,29,39,56,87,117,134,148,158,165,169,172,176,179,183,187,191,194,199,204,211,221,231,241,250,259,269,279,290,302,313,324,334,343,351,357,361,365,369,374,380,385,391,395,400,405,411,416,419,419,416,411,405,400,393,385,374,362,351,342,334,326,318,310,304,298,292,284,275,266,261,257,253,249,243,239,237,239,246,259,297,352,418,500,601,717,841,962,1071,1139,1162,1131,1038,870,674,493,355,257,194,144,107,58,28,13,2,20,35,46,54,58,54,46,38,33,29,24,20,16,13,11,10,10,11,15,20,26,33,39,43,48,55,63,71,74,73,70,66,62,59,55,51,47,44,43,44,47,50,53,57,60,64,68,71,74,76,80,83,87,90,93,96,102,113,123,131,137,142,147,151,153,155,157,158,159,160,161,163,166,168,162,149,137,123,110,97,81,62,44,22,-4,-29,-56,-86,-121,-145,-156,-164,-170,-176,-181,-185,-188,-193,-198,-203,-209,-216,-221,-224,-226,-228,-230,-231,-232,-233,-234,-235,-236,-236,-236,-236,-236,-235,-234,-233,-232,-230,-228,-226,-223,-220,-217,-214,-210,-199,-174,-151,-124,-94,-64,-16,37,104,178,249,318,385,448,507,565,627,691,750,801,852,910,969,1026,1050,1064,1073,1062,1029,981,913,822,719,606,484,368,249,138,34,-70,-171,-257,-332,-397,-443,-457,-466,-473,-480,-489,-502,-518,-529,-536,-542,-546,-547,-544,-539,-532,-525,-518,-508,-499,-492,-485,-479,-475,-470,-467,-463,-458,-454,-450,-447,-444,-442,-440,-438,-436,-435,-434,-432,-430,-428,-426,-424,-423,-421,-421,-420,-420,-420,-420,-420,-419,-417,-413,-405,-382,-357,-330,-306,-289,-275,-258,-235,-219,-210,-201,-191,-180,-161,-130,-101,-81,-65,-46,-22,2,16,19,22,23,24,24,21,14,6,0,-7,-14,-21,-27,-29,-28,-24,-20,-16,-9,2,9,13,15,17,19,20,22,24,24,24,23,22,21,19,15,15,21,24,26,29,32,34,35,35,34,32,29,25,19,9,7,12,15,17,19,21,22,22,22,22,22,20,18,17,15,14,13,11,11,11,13,17,21,26,30,33,36,40,43,46,48,48,49,49,50,50,51,50,48,47,46,45,42,38,53,69,79,87,92,96,100,103,107,106,101,94,89,86,83,80,79,78,77,77,79,82,86,90,93,97,102,107,112,115,116,114,111,107,103,101,98,96,93,91,89,89,88,88,88,88,88,89,90,90,91,91,92,92,92,93,92,88,84,79,75,68,61,55,49,43,38,33,32,34,38,42,47,54,58,53,44,40,37,35,33,31,29,27,25,23,21,20,18,16,15,14,13,12,10,8,7,5,5,4,3,3,5,8,12,16,18,20,22,24,27,30,33,34,35,36,36,37,38,37,36,35,34,34,32,30,29,31,37,46,57,71,80,85,90,94,96,96,92,86,80,75,69,64,57,51,45,39,33,24,16,10,6,3,1,-1,-3,-6,-9,-12,-15,-19,-23,-27,-33,-38,-41,-41,-38,-34,-29,-24,-17,-9,0,14,37,84,152,251,380,528,675,799,888,919,885,775,609,414,220,70,-26,-73,-88,-96,-98,-95,-90,-81,-52,-17,16,51,68,75,79,82,85,88,90,91,91,90,90,89,89,88,87,85,83,82,81,81,80,79,77,76,75,76,79,82,85,88,91,95,100,105,110,114,117,119,122,126,129,132,135,137,140,144,149,157,167,181,192,201,209,217,223,229,235,241,246,250,254,258,261,264,267,269,270,268,264,259,252,243,231,218,204,190,177,164,153,140,124,105,86,68,53,38,22,4,-8,-18,-26,-32,-38,-43,-47,-51,-55,-58,-61,-65,-68,-72,-76,-80,-85,-90,-93,-93,-88,-82,-75,-70,-65,-60,-56,-53,-51,-50,-49,-49,-49,-50,-52,-53,-55,-56,-58,-61,-64,-68,-70,-70,-67,-63,-58,-54,-47,-42,-40,-42,-45,-48,-50,-53,-55,-56,-55,-54,-53,-53,-53,-53,-53,-52,-52,-51,-52,-52,-52,-51,-51,-51,-51,-51,-51,-51,-52,-52,-53,-55,-56,-57,-57,-56,-54,-52,-50,-47,-45,-42,-40,-38,-36,-35,-33,-31,-26,-21,-15,-10,-6,-4,-1,0,2,4,7,9,12,14,14,8,2,-1,-5,-8,-10,-13,-17,-21,-26,-31,-36,-41,-48,-60,-68,-69,-71,-72,-74,-76,-77,-78,-76,-71,-65,-58,-52,-45,-38,-30,-22,-15,-4,16,51,107,177,270,384,515,650,776,875,918,914,850,717,544,356,197,62,-42,-107,-131,-139,-134,-124,-118,-114,-111,-108,-105,-102,-99,-95,-90,-86,-82,-78,-75,-73,-71,-68,-66,-63,-60,-57,-53,-50,-48,-46,-44,-42,-40,-38,-36,-33,-30,-26,-20,-15,-10,-5,0,5,14,28,38,47,53,58,63,69,76,83,89,96,103,112,121,132,143,153,163,173,181,187,192,202,217,224,228,232,234,235,233,230,225,219,208,183,160,146,134,124,109,81,55,39,23,8,-9,-30,-54,-64,-70,-74,-78,-81,-83,-85,-87,-89,-90,-91,-93,-94,-95,-96,-97,-98,-98,-99,-99,-100,-100,-100,-101,-101,-102,-103,-103,-102,-102,-100,-98,-96,-93,-89,-86,-83,-81,-78,-75,-73,-70,-69,-68,-69,-71,-73,-76,-79,-82,-86,-88,-90,-92,-93,-95,-96,-97,-98,-99,-100,-101,-102,-102,-102,-102,-101,-101,-102,-103,-103,-103,-103,-103,-103,-103,-102,-101,-99,-97,-96,-95,-95,-94,-94,-93,-92,-92,-91,-89,-82,-77,-82,-91,-96,-100,-103,-106,-107,-108,-107,-104,-101,-98,-95,-93,-90,-87,-84,-81,-78,-76,-74,-74,-75,-76,-78,-81,-84,-88,-91,-94,-96,-97,-99,-101,-104,-107,-109,-112,-115,-118,-121,-123,-124,-125,-125,-125,-126,-126,-128,-129,-132,-134,-137,-138,-138,-137,-133,-127,-120,-105,-79,-43,4,74,168,290,429,581,732,864,945,952,908,769,573,372,197,69,-18,-72,-102,-131,-159,-178,-190,-197,-198,-192,-185,-180,-177,-174,-171,-168,-164,-160,-155,-150,-144,-138,-133,-127,-122,-117,-111,-105,-98,-89,-81,-72,-62,-53,-45,-37,-31,-23,-16,-7,0,6,12,17,24,34,42,48,53,58,62,69,80,92,104,115,127,136,144,151,161,174,186,196,206,216,227,238,257,281,294,301,306,309,310,310,307,303,297,290,282,270,256,242,225,205,191,177,161,142,116,86,62,45,32,19,8,2,1,0,0,-2,-3,-4,-6,-8,-11,-15,-20,-24,-28,-31,-36,-43,-52,-58,-61,-58,-54,-50,-46,-43,-40,-36,-32,-29,-30,-33,-37,-43,-48,-54,-64,-73,-77,-79,-81,-85,-89,-81,-75,-70,-67,-68,-77,-89,-96,-101,-106,-110,-114,-116,-116,-113,-109,-104,-98,-93,-89,-84,-78,-72,-67,-65,-65,-65,-66,-67,-68,-69,-73,-75,-68,-55,-50,-48,-46,-44,-42,-40,-38,-36,-35,-34,-33,-32,-31,-30,-29,-28,-28,-27,-26,-24,-22,-20,-18,-16,-13,-10,-6,-2,2,13,25,32,36,40,44,49,53,55,53,48,41,35,29,23,17,11,3,-12,-33,-40,-43,-46,-48,-49,-51,-52,-54,-56,-58,-59,-58,-58,-57,-56,-55,-53,-51,-48,-45,-42,-37,-31,0,53,123,215,324,447,587,742,889,1006,1038,1023,916,739,526,323,146,23,-36,-58,-71,-85,-97,-98,-98,-98,-98,-98,-99,-99,-99,-97,-95,-92,-89,-85,-80,-73,-65,-55,-44,-29,-11,2,20,47,78,109,141,165,175,180,184,187,189,190,191,192,193,194,196,196,197,198,200,203,203,200,196,189,181,168,161,156,151,147,146,151,160,174,195,215,238,254,262,269,278,285,294,306,324,338,348,355,361,363,360,352,342,331,317,303,289,266,231,193,155,116,79,43,9,-23,-57,-84,-100,-114,-127,-137,-146,-153,-160,-166,-171,-175,-179,-182,-185,-187,-189,-190,-189,-187,-184,-179,-172,-165,-154,-133,-112,-94,-78,-62,-46,-35,-26,-19,-13,-9,-7,-6,-4,-1,2,7,9,5,-4,-14,-20,-24,-29,-33,-38,-42,-46,-47,-48,-49,-50,-52,-54,-56,-60,-68,-68,-61,-58,-57,-55,-53,-52,-51,-51,-51,-49,-47,-45,-43,-42,-42,-41,-39,-37,-36,-36,-36,-35,-34,-30,-26,-22,-21,-21,-22,-24,-25,-26,-27,-29,-31,-32,-33,-34,-34,-31,-27,-21,-14,-7,-1,4,10,15,20,23,23,20,15,8,2,-3,-8,-14,-21,-28,-34,-39,-44,-47,-49,-51,-53,-54,-55,-55,-57,-59,-62,-64,-67,-69,-68,-66,-63,-59,-55,-51,-47,-42,-36,-30,-22,-12,2,31,74,138,224,332,460,595,728,848,929,956,932,859,720,560,400,246,110,-16,-113,-153,-169,-169,-150,-119,-85,-73,-68,-65,-62,-60,-58,-56,-55,-53,-52,-49,-46,-43,-41,-39,-37,-34,-31,-27,-23,-18,-15,-11,-8,-5,-2,0,4,7,11,15,18,20,23,26,29,32,37,44,58,73,88,114,146,158,163,168,172,175,177,179,181,183,184,186,188,189,189,189,189,190,191,193,194,196,198,200,205,208,199,181,161,137,114,91,67,47,20,-18,-51,-71,-87,-100,-116,-134,-159,-177,-190,-201,-207,-212,-215,-217,-217,-218,-220,-221,-223,-224,-224,-224,-223,-223,-223,-221,-218,-213,-208,-204,-201,-198,-194,-186,-176,-164,-152,-139,-127,-114,-100,-85,-69,-56,-51,-47,-42,-36,-31,-28,-25,-24,-21,-19,-15,-12,-11,-10,-10,-9,-6,-3,0,0,2,3,6,8,10,11,11,10,10,10,12,13,14,14,15,15,17,18,18,18,17,16,14,13,12,12,11,10,11,12,13,15,17,18,19,19,19,19,20,20,20,21,22,24,27,30,33,36,38,40,42,43,45,46,48,49,52,54,57,60,62,63,62,60,56,50,43,35,28,21,15,11,8,4,0,-3,-7,-12,-17,-21,-25,-28,-30,-31,-31,-31,-31,-31,-31,-32,-34,-38,-48,-48,-28,0,42,86,128,194,273,373,497,639,791,931,1002,1027,985,858,666,463,280,135,41,-28,-51,-68,-82,-94,-103,-110,-118,-124,-130,-135,-141,-147,-151,-153,-152,-150,-146,-143,-142,-140,-139,-136,-132,-128,-123,-119,-115,-111,-108,-105,-103,-102,-101,-100,-98,-96,-94,-91,-87,-83,-78,-73,-69,-65,-62,-59,-56,-52,-48,-43,-33,-9,15,29,38,45,51,56,62,68,74,79,84,90,97,107,122,139,156,167,177,186,192,196,194,189,180,168,152,126,104,76,42,20,5,-8,-21,-34,-47,-59,-71,-82,-90,-98,-106,-114,-122,-133,-147,-153,-155,-156,-156,-156,-157,-158,-158,-159,-159,-159,-159,-159,-158,-156,-154,-151,-149,-147,-145,-143,-140,-138,-136,-133,-131,-127,-124,-119,-114,-109,-104,-100,-96,-92,-89,-85,-81,-78,-75,-71,-67,-64,-61,-60,-59,-58,-57,-56,-55,-53,-52,-50,-46,-40,-32,-23,-15,-6,2,14,26,38,49,55,60,65,70,75,79,79,79,77,76,75,73,71,65,64,73,77,79,82,83,84,84,84,85,86,87,86,86,85,85,86,87,89,91,92,94,97,99,102,105,108,110,112,114,117,120,125,131,137,142,147,151,153,154,154,153,151,148,145,141,137,133,129,123,111,101,93,90,88,85,82,79,75,72,70,68,66,66,67,68,70,72,75,78,81,84,88,93,107,141,206,287,389,508,638,772,903,1016,1082,1087,1042,914,733,536,354,213,114,66,50,37,26,8,-18,-31,-37,-41,-44,-46,-47,-48,-48,-48,-48,-46,-44,-41,-38,-35,-32,-30,-28,-26,-23,-21,-17,-14,-10,-7,-5,-3,-2,0,1,4,6,9,11,13,15,17,20,21,23,24,28,32,38,45,61,90,104,112,118,126,134,141,148,155,162,171,180,190,200,210,224,236,241,244,246,248,251,254,254,249,238,220,192,165,135,107,86,69,51,34,14,-2,-16,-28,-39,-53,-71,-93,-107,-116,-122,-128,-133,-137,-141,-144,-146,-148,-150,-152,-154,-156,-157,-158,-158,-157,-155,-153,-149,-145,-140,-135,-131,-127,-124,-120,-116,-111,-106,-103,-100,-98,-96,-95,-94,-92,-92,-92,-92,-91,-89,-87,-84,-81,-79,-77,-75,-74,-73,-73,-74,-75,-77,-78,-78,-78,-77,-77,-76,-76,-76,-75,-74,-74,-76,-77,-78,-77,-74,-70,-66,-64,-63,-61,-60,-59,-58,-58,-58,-59,-58,-57,-55,-54,-52,-50,-49,-48,-47,-46,-44,-43,-42,-41,-38,-34,-29,-25,-24,-25,-27,-31,-34,-38,-42,-47,-49,-47,-41,-33,-24,-13,-4,3,9,13,18,23,27,29,29,26,21,15,10,5,-1,-8,-16,-23,-30,-35,-38,-41,-44,-47,-50,-52,-54,-56,-58,-60,-62,-63,-64,-64,-64,-64,-64,-64,-64,-63,-62,-61,-59,-57,-54,-38,4,63,145,249,367,494,628,764,896,995,1031,1022,937,754,524,285,82,-52,-103,-120,-109,-102,-100,-98,-96,-95,-94,-94,-94,-94,-93,-92,-93,-94,-95,-95,-94,-93,-91,-89,-88,-85,-83,-80,-77,-75,-72,-70,-64,-48,-36,-27,-22,-19,-15,-12,-9,-5,-2,0,1,4,7,11,15,23,37,51,64,75,90,107,121,132,142,151,159,166,172,178,184,191,199,207,216,231,251,261,267,273,276,277,275,269,261,248,220,192,173,161,151,139,122,99,68,41,21,6,-6,-20,-42,-57,-67,-75,-81,-86,-89,-92,-95,-97,-100,-103,-105,-107,-109,-111,-116,-124,-107,-90,-76,-64,-55,-47,-40,-36,-35,-38,-42,-46,-49,-53,-56,-56,-51,-44,-39,-36,-35,-33,-31,-27,-24,-21,-19,-18,-17,-16,-15,-15,-16,-18,-20,-21,-22,-23,-23,-25,-27,-29,-31,-34,-42,-48,-45,-39,-34,-29,-25,-23,-25,-30,-36,-41,-46,-51,-53,-52,-48,-43,-39,-37,-35,-33,-31,-30,-29,-28,-27,-26,-25,-24,-24,-24,-24,-24,-23,-23,-23,-23,-23,-22,-21,-20,-20,-19,-19,-18,-16,-14,-11,-9,-6,-1,5,12,21,30,38,44,51,58,64,68,69,67,63,58,53,47,41,31,21,9,0,-7,-12,-17,-21,-25,-29,-32,-34,-35,-35,-35,-36,-37,-37,-38,-38,-39,-40,-42,-43,-45,-45,-44,-41,-37,-29,-4,42,97,166,256,368,497,635,771,896,995,1014,996,885,691,472,277,120,18,-36,-78,-124,-143,-156,-163,-144,-110,-92,-88,-84,-83,-84,-85,-85,-85,-84,-84,-84,-85,-86,-87,-88,-88,-87,-85,-83,-81,-79,-76,-74,-73,-72,-70,-66,-59,-49,-38,-31,-24,-19,-14,-9,-6,-4,-3,-1,0,3,8,16,28,37,48,58,66,75,90,121,145,158,168,177,183,189,197,208,214,219,223,226,228,229,229,228,225,220,212,199,173,150,132,118,100,76,50,20,0,-11,-19,-27,-34,-42,-59,-87,-101,-108,-114,-118,-121,-123,-127,-130,-133,-135,-137,-140,-142,-145,-149,-153,-155,-155,-154,-150,-145,-140,-134,-128,-117,-108,-102,-97,-95,-93,-91,-90,-88,-88,-87,-87,-87,-86,-86,-86,-87,-88,-89,-88,-87,-86,-84,-83,-82,-80,-77,-75,-74,-74,-74,-74,-74,-73,-73,-73,-73,-73,-72,-70,-68,-67,-66,-66,-66,-65,-64,-62,-61,-59,-57,-55,-52,-49,-46,-43,-40,-37,-33,-30,-27,-24,-22,-19,-17,-16,-14,-13,-12,-10,-8,-6,-5,-3,-2,0,2,4,7,10,14,24,33,36,38,39,41,44,46,45,40,32,24,43,64,80,88,92,95,98,101,104,104,98,90,81,73,66,59,51,43,35,28,22,18,14,10,7,5,4,2,1,0,-2,-4,-4,-3,-3,-2,-1,0,1,4,7,10,13,17,26,47,78,132,208,299,403,520,650,789,925,1034,1072,1063,977,817,616,397,205,66,10,-4,-14,-19,-24,-28,-30,-31,-33,-35,-38,-44,-48,-47,-40,-32,-26,-21,-17,-13,-11,-11,-11,-13,-14,-16,-20,-22,-13,2,10,15,19,23,26,30,33,37,41,44,46,48,50,52,54,57,61,67,74,81,88,95,104,115,125,135,144,152,161,175,189,200,211,220,227,232,235,238,241,245,248,251,253,255,256,256,255,253,250,246,240,233,219,188,161,140,119,91,54,15,-21,-40,-50,-58,-63,-67,-72,-77,-82,-86,-90,-93,-95,-98,-100,-103,-105,-108,-109,-110,-111,-112,-113,-114,-114,-113,-112,-110,-108,-106,-104,-102,-98,-95,-90,-86,-81,-71,-48,-32,-20,-9,1,14,29,48,71,101,135,186,245,312,380,446,512,575,642,714,790,863,926,980,1037,1072,1113,1134,1141,1145,1143,1122,1092,1055,995,922,840,748,656,573,486,375,251,115,-22,-136,-218,-275,-305,-332,-354,-364,-369,-374,-377,-378,-378,-377,-377,-376,-376,-375,-374,-372,-370,-369,-371,-375,-380,-384,-391,-394,-387,-372,-362,-353,-345,-338,-332,-326,-321,-317,-313,-310,-308,-305,-303,-301,-299,-296,-294,-291,-289,-285,-281,-272,-255,-238,-220,-202,-189,-173,-144,-122,-110,-102,-95,-91,-87,-83,-79,-75,-69,-62,-52,-38,-13,19,39,52,63,75,82,88,94,98,100,98,94,89,81,67,45,34,27,22,20,22,28,36,51,65,68,68,68,69,69,70,71,72,73,75,78,80,82,83,85,87,90,93,97,101,106,109,112,113,115,117,119,119,120,120,120,120,120,119,118,118,118,119,120,120,119,118,116,115,113,111,106,105,109,112,115,117,119,119,116,113,111,109,108,106,103,101,100,100,102,104,107,111,114,119,124,127,124,117,106,92,72,58,48,38,29,18,7,-2,-10,-15,-18,-19,-21,-22,-24,-24,-24,-24,-23,-22,-21,-20,-19,-18,-16,-14,-13,-12,-12,-11,-10,-9,-8,-7,-6,-6,-5,-4,-3,-3,-4,-5,-6,-7,-9,-10,-11,-14,-17,-20,-24,-27,-35,-55,-69,-88,-112,-139,-167,-187,-200,-214,-228,-237,-245,-252,-257,-259,-260,-260,-261,-261,-261,-262,-263,-263,-262,-261,-258,-255,-251,-247,-244,-237,-230,-225,-222,-219,-217,-215,-213,-209,-204,-199,-195,-191,-187,-183,-180,-177,-175,-172,-170,-168,-164,-159,-150,-130,-116,-108,-103,-103,-109,-116,-122,-129,-135,-139,-139,-135,-129,-124,-120,-116,-111,-107,-103,-101,-99,-96,-94,-90,-87,-85,-83,-81,-79,-76,-73,-69,-65,-60,-52,-36,-26,-16,-6,5,14,20,26,33,41,48,54,60,65,70,74,76,78,79,80,81,83,84,84,81,76,70,65,60,55,49,44,39,37,37,38,40,41,43,45,48,51,54,58,63,68,75,88,114,140,167,213,274,358,463,586,723,862,985,1061,1067,1021,885,688,477,294,143,72,47,38,39,42,45,48,36,15,-9,-20,-26,-29,-32,-34,-35,-37,-37,-37,-36,-34,-32,-28,-23,-17,-11,-1,15,19,21,23,25,27,28,26,24,21,18,16,13,10,7,4,4,5,9,13,17,22,28,36,46,57,68,77,84,91,97,102,105,107,109,112,115,119,124,130,137,151,174,188,196,202,205,205,200,192,184,177,169,160,153,147,140,127,101,80,69,58,45,30,11,-10,-21,-30,-38,-48,-65,-93,-120,-128,-133,-136,-140,-142,-145,-146,-148,-148,-148,-149,-149,-149,-150,-150,-151,-152,-153,-155,-157,-158,-157,-156,-153,-150,-147,-143,-139,-132,-125,-117,-109,-101,-93,-86,-84,-84,-84,-85,-86,-87,-87,-84,-78,-73,-70,-68,-65,-62,-58,-56,-56,-58,-61,-64,-67,-69,-74,-78,-82,-83,-80,-75,-71,-68,-66,-64,-62,-60,-58,-56,-54,-51,-49,-47,-45,-44,-42,-41,-38,-35,-30,-21,-3,4,8,12,15,17,19,21,23,27,32,37,43,49,54,62,71,80,88,96,103,110,118,127,135,143,149,155,161,165,169,172,175,178,179,180,181,182,183,184,185,185,184,182,181,180,179,177,176,173,170,168,165,164,162,161,158,156,155,154,153,152,151,150,149,150,151,152,153,153,154,156,158,162,167,186,238,317,420,546,692,840,970,1060,1095,1092,1041,950,814,660,493,334,209,126,78,59,50,42,35,37,48,59,71,70,50,32,13,4,10,24,46,74,87,94,98,101,102,102,101,100,98,96,94,93,91,89,87,85,85,85,88,92,97,102,107,111,114,118,122,125,129,132,135,139,142,145,149,153,158,165,178,191,203,213,221,229,236,243,249,254,259,263,266,269,270,269,267,263,259,253,245,231,215,194,162,131,109,94,79,64,48,27,-1,-24,-38,-51,-64,-78,-96,-121,-142,-157,-168,-175,-180,-185,-191,-196,-198,-194,-186,-179,-175,-173,-171,-168,-165,-163,-160,-158,-156,-154,-152,-150,-149,-149,-150,-151,-152,-152,-151,-149,-148,-147,-145,-143,-139,-135,-132,-130,-129,-128,-127,-125,-122,-117,-113,-109,-105,-101,-97,-92,-87,-83,-80,-77,-75,-72,-69,-66,-65,-62,-59,-55,-51,-46,-43,-41,-40,-39,-37,-35,-32,-29,-27,-25,-22,-18,-15,-13,-11,-9,-7,-5,-2,5,21,32,40,47,50,44,34,29,26,23,20,17,16,15,15,16,18,21,25,29,32,36,38,41,44,48,53,57,61,65,67,69,71,71,70,68,66,64,61,59,56,53,50,47,43,39,30,18,6,-6,-18,-29,-39,-48,-55,-59,-61,-62,-63,-64,-66,-68,-69,-70,-70,-70,-70,-69,-67,-64,-59,-53,-45,-30,0,55,122,201,298,411,538,674,804,919,975,975,919,785,614,427,268,148,67,29,19,12,8,6,7,11,17,23,30,35,41,47,53,60,65,69,73,77,81,85,88,90,93,96,98,101,103,105,107,109,112,114,116,117,118,118,119,120,121,122,122,122,123,123,124,124,123,122,120,119,117,115,112,109,108,111,120,130,138,145,153,161,169,177,185,192,196,200,204,208,212,214,216,217,217,215,213,209,204,198,190,172,137,103,65,32,7,-16,-36,-53,-69,-83,-99,-118,-144,-164,-180,-193,-203,-210,-215,-219,-221,-224,-225,-227,-227,-226,-222,-216,-211,-205,-200,-195,-190,-185,-180,-176,-171,-166,-160,-154,-148,-143,-139,-136,-133,-131,-129,-128,-127,-127,-126,-126,-125,-124,-123,-123,-123,-124,-125,-125,-124,-124,-124,-125,-126,-127,-128,-127,-127,-126,-126,-126,-125,-123,-121,-119,-118,-118,-117,-116,-115,-114,-113,-112,-112,-111,-109,-107,-105,-103,-102,-101,-100,-98,-96,-94,-92,-91,-90,-87,-84,-81,-78,-75,-72,-71,-69,-67,-65,-63,-62,-61,-60,-59,-58,-56,-55,-54,-52,-50,-47,-43,-40,-37,-34,-30,-22,-12,-4,1,6,12,17,24,31,35,35,29,20,11,5,0,-4,-9,-13,-19,-24,-30,-35,-40,-44,-48,-52,-56,-61,-64,-68,-72,-78,-84,-89,-94,-97,-99,-99,-98,-96,-93,-88,-83,-77,-70,-63,-52,-24,5,44,93,175,272,390,523,671,824,945,990,979,876,689,459,249,78,0,-21,-36,-49,-60,-85,-118,-140,-155,-151,-122,-109,-101,-94,-89,-86,-84,-83,-81,-78,-75,-73,-70,-68,-66,-65,-64,-62,-59,-56,-52,-48,-43,-39,-33,-20,-8,0,6,10,13,14,16,19,21,24,27,31,34,38,43,47,52,57,62,70,84,100,113,123,134,149,171,195,215,231,243,250,254,258,261,263,266,268,268,265,259,251,240,220,183,159,146,134,120,108,96,85,74,63,56,48,31,6,-15,-40,-63,-80,-99,-108,-114,-120,-125,-128,-129,-129,-129,-128,-126,-123,-119,-115,-111,-107,-103,-99,-94,-89,-83,-77,-72,-67,-62,-57,-52,-46,-41,-35,-30,-24,-19,-15,-12,-9,-4,6,30,54,72,88,107,133,177,231,301,374,439,498,560,634,711,777,834,883,932,979,1025,1078,1111,1132,1146,1153,1154,1147,1134,1096,1045,971,871,752,629,516,403,299,188,67,-61,-174,-251,-304,-320,-332,-343,-352,-361,-373,-381,-382,-382,-381,-380,-380,-379,-379,-378,-377,-374,-372,-369,-365,-361,-357,-350,-341,-330,-325,-323,-320,-318,-315,-313,-310,-306,-303,-300,-297,-294,-292,-289,-284,-274,-266,-263,-261,-259,-257,-255,-251,-245,-237,-229,-223,-217,-212,-207,-203,-199,-196,-192,-186,-176,-159,-138,-111,-76,-47,-26,-9,3,12,19,22,24,27,29,32,34,29,21,17,14,12,10,8,5,2,0,-2,-5,-8,-11,-13,-17,-21,-25,-29,-32,-34,-36,-38,-40,-42,-45,-47,-48,-48,-46,-43,-40,-38,-36,-34,-32,-29,-27,-26,-27,-31,-36,-41,-45,-48,-50,-53,-55,-57,-59,-61,-63,-65,-68,-69,-70,-70,-70,-70,-70,-71,-72,-72,-72,-72,-72,-73,-74,-74,-74,-74,-73,-72,-72,-72,-72,-71,-71,-70,-70,-71,-72,-73,-72,-68,-63,-58,-54,-51,-46,-41,-36,-33,-31,-32,-33,-34,-35,-35,-37,-41,-43,-39,-28,-18,-6,1,7,9,12,14,16,18,20,21,22,22,23,23,22,22,20,19,19,18,18,17,17,17,16,15,14,13,12,11,7,25,42,54,63,69,73,75,78,81,85,90,94,99,103,106,111,117,121,125,127,128,130,133,136,140,145,150,153,155,158,161,164,165,167,169,170,171,171,169,167,164,161,158,155,152,148,144,141,136,130,124,119,115,112,108,104,100,94,87,80,72,69,66,64,62,61,58,56,54,51,49,46,44,42,40,38,37,36,35,33,30,27,24,21,19,17,15,14,14,14,15,17,19,21,24,26,29,32,36,44,52,61,75,91,98,104,107,103,95,88,81,73,63,53,44,36,28,21,15,9,-1,-14,-15,-16,-17,-18,-19,-19,-19,-19,-20,-21,-22,-22,-23,-23,-25,-28,-30,-25,-13,4,31,73,138,229,342,477,617,750,859,929,937,904,780,587,358,136,-28,-89,-109,-102,-94,-88,-90,-105,-127,-148,-156,-163,-166,-162,-154,-146,-138,-129,-120,-108,-96,-108,-115,-119,-123,-126,-129,-129,-125,-119,-111,-103,-92,-75,-73,-77,-81,-87,-87,-81,-77,-74,-72,-70,-68,-67,-66,-64,-61,-59,-56,-52,-43,-24,-5,18,41,58,68,75,81,87,95,105,114,122,129,136,142,148,158,172,186,197,206,214,220,225,231,237,241,241,235,226,217,206,194,181,162,133,114,103,95,87,81,75,70,64,56,49,42,32,15,-7,-19,-26,-33,-42,-51,-63,-78,-77,-58,-50,-46,-42,-38,-34,-32,-29,-27,-25,-24,-23,-22,-22,-22,-22,-21,-21,-21,-21,-22,-23,-22,-21,-20,-19,-19,-19,-19,-18,-17,-17,-18,-21,-25,-29,-33,-36,-39,-44,-48,-52,-53,-52,-50,-48,-45,-44,-42,-40,-37,-36,-35,-35,-37,-41,-46,-51,-56,-61,-67,-73,-78,-81,-83,-82,-80,-77,-74,-72,-71,-69,-68,-67,-65,-63,-61,-58,-56,-55,-54,-53,-52,-51,-51,-52,-52,-51,-49,-47,-45,-43,-41,-39,-36,-30,-24,-18,-12,-6,-1,2,7,11,14,16,18,20,21,23,25,26,28,30,32,33,34,35,35,32,28,22,15,8,0,-11,-23,-33,-41,-47,-52,-56,-60,-62,-64,-65,-65,-66,-66,-66,-67,-68,-69,-69,-67,-63,-58,-51,-39,-18,13,56,122,218,336,475,622,764,880,945,949,901,782,616,434,268,133,52,11,-5,-20,-41,-58,-61,-62,-62,-63,-65,-66,-68,-70,-71,-72,-73,-73,-71,-69,-66,-64,-61,-58,-56,-54,-51,-49,-46,-44,-40,-36,-30,-25,-19,-14,-9,-4,0,4,8,10,13,14,17,19,23,26,29,32,36,39,42,46,51,57,65,74,82,88,95,109,136,155,164,171,178,187,195,203,208,214,220,225,228,230,229,225,219,212,204,191,169,156,143,128,107,79,37,0,-24,-42,-58,-68,-75,-81,-85,-91,-96,-101,-107,-115,-132,-153,-159,-164,-167,-169,-169,-168,-165,-161,-157,-154,-151,-147,-143,-139,-135,-132,-128,-123,-116,-109,-104,-100,-96,-92,-87,-82,-77,-73,-69,-66,-64,-61,-58,-57,-56,-56,-56,-56,-55,-55,-55,-55,-54,-54,-54,-54,-55,-55,-55,-56,-57,-58,-59,-60,-60,-60,-60,-60,-60,-60,-59,-57,-57,-57,-57,-58,-57,-56,-55,-54,-54,-53,-51,-49,-46,-45,-44,-44,-44,-43,-42,-41,-41,-41,-42,-41,-41,-40,-38,-37,-36,-34,-32,-29,-27,-25,-23,-22,-19,-17,-13,-9,-4,0,6,13,20,26,31,35,38,41,44,46,48,50,52,55,57,60,62,63,62,58,52,44,37,29,24,19,14,11,9,7,5,2,0,-1,-2,-4,-4,-5,-4,-3,-1,0,2,4,6,9,13,16,21,41,102,176,266,367,488,630,784,933,1050,1110,1110,1049,912,706,499,295,143,48,9,-5,-16,-24,-28,-26,-20,-11,-1,13,14,3,-1,-4,-7,-9,-11,-12,-12,-12,-11,-10,-8,-5,0,5,12,25,35,43,47,50,52,53,55,56,58,60,62,64,66,69,72,75,79,84,90,98,107,116,127,136,146,155,165,174,181,187,193,199,205,211,220,231,245,259,272,288,302,312,316,319,322,328,336,336,319,303,287,274,265,250,227,188,142,117,101,91,79,63,37,2,-15,-24,-30,-36,-41,-45,-49,-53,-56,-59,-64,-69,-76,-83,-89,-94,-100,-105,-108,-110,-110,-108,-104,-101,-98,-96,-95,-93,-91,-90,-89,-88,-87,-85,-83,-80,-79,-78,-78,-78,-79,-81,-83,-85,-86,-88,-89,-89,-89,-89,-88,-87,-86,-85,-84,-84,-85,-85,-86,-87,-88,-89,-91,-93,-94,-95,-96,-96,-97,-100,-103,-105,-104,-100,-93,-87,-85,-84,-83,-81,-79,-78,-76,-76,-75,-74,-73,-73,-72,-72,-73,-73,-73,-72,-72,-72,-72,-71,-71,-69,-67,-65,-64,-62,-60,-58,-56,-54,-52,-50,-48,-45,-42,-38,-34,-31,-27,-22,-18,-15,-13,-13,-12,-12,-12,-12,-11,-10,-9,-7,-4,-1,-1,-3,-9,-16,-25,-38,-45,-49,-51,-54,-56,-57,-58,-59,-60,-62,-63,-65,-66,-66,-67,-68,-71,-74,-78,-80,-80,-77,-71,-61,-29,10,61,133,225,344,488,644,798,931,1016,1024,980,840,631,410,199,46,-46,-65,-69,-72,-74,-77,-79,-83,-85,-88,-91,-94,-99,-112,-133,-142,-148,-152,-154,-152,-149,-147,-147,-148,-147,-146,-145,-145,-144,-143,-142,-140,-139,-138,-138,-138,-137,-135,-133,-131,-128,-125,-121,-112,-102,-91,-80,-71,-64,-56,-49,-43,-38,-33,-20,1,18,29,40,53,73,104,130,146,159,168,183,209,242,265,276,282,286,291,295,298,304,312,311,301,289,276,261,241,218,175,135,96,71,45,21,7,1,-4,-10,-19,-28,-38,-49,-64,-76,-82,-86,-89,-90,-92,-94,-96,-97,-99,-99,-98,-96,-95,-92,-88,-85,-81,-77,-73,-69,-65,-59,-53,-46,-40,-33,-26,-22,-22,-28,-36,-42,-45,-46,-48,-50,-52,-54,-55,-56,-58,-60,-62,-64,-65,-65,-64,-63,-62,-62,-62,-62,-62,-62,-63,-65,-66,-66,-66,-66,-66,-66,-67,-67,-67,-67,-67,-68,-69,-68,-64,-58,-55,-51,-47,-43,-41,-40,-41,-42,-44,-45,-47,-49,-53,-58,-61,-63,-64,-67,-71,-72,-70,-68,-67,-65,-63,-63,-63,-63,-62,-61,-60,-58,-58,-57,-56,-54,-51,-48,-43,-36,-29,-22,-14,-6,-1,0,1,3,8,6,-8,-15,-19,-22,-25,-28,-30,-33,-35,-39,-41,-44,-46,-49,-50,-52,-54,-58,-64,-70,-75,-79,-81,-84,-87,-90,-94,-95,-94,-90,-83,-71,-51,-30,-7,19,46,91,149,217,307,419,559,726,889,1011,1068,1032,900,699,482,270,126,35,-3,-18,-32,-41,-47,-53,-60,-67,-75,-82,-90,-97,-100,-97,-91,-83,-76,-66,-58,-50,-47,-44,-41,-38,-36,-35,-33,-31,-28,-27,-25,-23,-20,-17,-13,-6,9,26,49,75,86,92,96,99,102,104,106,108,110,112,114,117,120,126,138,151,165,179,194,213,239,269,292,305,316,329,348,365,371,374,377,379,380,378,373,366,356,336,307,291,280,267,254,240,223,204,188,174,160,145,126,105,90,72,46,16,-14,-37,-50,-59,-66,-71,-77,-83,-85,-79,-68,-61,-56,-52,-48,-44,-41,-39,-37,-33,-27,-27,-35,-41,-46,-50,-53,-53,-49,-43,-37,-32,-28,-22,-14,-8,-5,-5,-9,-14,-19,-23,-26,-32,-39,-45,-48,-49,-50,-52,-57,-58,-51,-47,-43,-40,-37,-36,-37,-39,-40,-41,-42,-43,-45,-47,-49,-50,-50,-49,-49,-50,-51,-51,-50,-49,-47,-46,-46,-46,-46,-45,-44,-43,-43,-43,-43,-42,-41,-40,-38,-38,-38,-38,-39,-38,-38,-38,-39,-39,-39,-38,-36,-35,-33,-32,-32,-30,-28,-26,-23,-21,-18,-14,-9,-5,0,1,2,2,2,3,5,6,7,8,10,11,9,5,2,-2,-5,-3,1,5,8,12,13,11,4,-5,-18,-36,-46,-52,-56,-60,-63,-65,-66,-67,-67,-66,-65,-63,-60,-56,-51,-46,-38,-22,-8,2,10,20,29,41,80,150,250,377,527,688,850,981,1047,1048,982,844,650,441,255,109,9,-36,-50,-59,-69,-79,-91,-105,-109,-110,-111,-111,-111,-111,-110,-110,-109,-106,-103,-98,-92,-81,-64,-50,-41,-34,-30,-30,-34,-39,-43,-47,-51,-53,-52,-46,-38,-29,-21,-12,-1,7,15,23,28,33,38,43,49,54,59,63,69,77,88,99,108,118,132,150,166,185,211,232,248,264,287,307,316,320,324,326,327,324,318,310,301,291,279,266,253,240,223,201,182,163,143,122,95,61,35,19,6,-2,-18,-49,-67,-73,-78,-83,-88,-92,-95,-98,-101,-104,-105,-106,-105,-103,-101,-98,-96,-93,-90,-86,-82,-78,-75,-73,-70,-65,-61,-57,-54,-51,-50,-49,-47,-46,-45,-45,-45,-45,-45,-45,-45,-47,-48,-51,-52,-53,-54,-53,-52,-51,-50,-49,-49,-49,-50,-51,-52,-54,-55,-56,-56,-55,-55,-54,-54,-54,-54,-54,-54,-54,-54,-54,-52,-49,-45,-41,-38,-35,-32,-29,-25,-22,-19,-17,-16,-15,-12,-9,-5,-1,1,4,8,11,14,16,17,17,17,18,18,19,20,19,18,18,17,17,18,18,18,19,20,22,25,27,30,32,33,35,37,39,41,43,44,45,46,47,48,50,51,52,53,55,58,60,59,52,41,31,23,16,9,2,-3,-9,-14,-19,-21,-24,-26,-28,-30,-33,-39,-44,-49,-51,-49,-46,-41,-35,-30,-24,-16,-7,3,19,70,131,212,319,454,605,750,869,945,971,952,893,756,556,357,168,30,-44,-66,-78,-88,-98,-107,-115,-124,-135,-145,-149,-144,-133,-122,-116,-112,-109,-108,-108,-106,-105,-102,-99,-97,-95,-94,-92,-89,-87,-85,-83,-82,-81,-79,-76,-73,-69,-66,-62,-55,-46,-35,-23,-12,-1,6,13,19,25,31,36,40,44,49,54,60,67,77,93,109,126,144,162,177,191,198,203,209,213,217,220,221,222,223,222,221,218,213,207,200,192,182,167,136,115,94,73,45,16,-11,-32,-49,-64,-79,-95,-108,-119,-129,-135,-140,-143,-144,-145,-146,-148,-149,-151,-152,-153,-153,-152,-152,-150,-147,-143,-139,-135,-132,-130,-128,-127,-126,-124,-123,-122,-121,-119,-117,-116,-114,-112,-111,-110,-109,-109,-108,-108,-108,-109,-110,-110,-111,-110,-109,-109,-108,-108,-108,-108,-109,-111,-112,-114,-117,-119,-121,-123,-124,-124,-124,-124,-124,-123,-122,-122,-124,-127,-131,-133,-135,-136,-137,-138,-138,-138,-137,-136,-134,-134,-134,-134,-135,-135,-136,-138,-140,-142,-144,-146,-147,-147,-148,-147,-146,-144,-142,-140,-139,-138,-137,-135,-134,-133,-132,-133,-133,-133,-131,-128,-125,-122,-119,-115,-111,-107,-102,-99,-95,-92,-86,-77,-66,-57,-48,-40,-34,-28,-23,-18,-14,-12,-11,-12,-13,-14,-16,-19,-21,-24,-27,-28,-31,-34,-37,-40,-40,-37,-32,-25,-18,-13,-7,-2,3,9,15,21,25,29,34,41,51,71,111,182,273,390,536,705,879,1036,1119,1148,1111,998,817,616,436,296,204,130,87,52,26,2,-16,-33,-41,-33,-15,4,28,41,47,51,55,59,61,63,62,59,56,53,50,48,44,39,35,34,38,48,59,69,74,77,82,86,91,95,98,100,102,105,109,113,116,118,119,120,122,125,128,132,136,142,153,166,176,184,193,208,235,252,261,270,281,293,303,310,317,324,331,335,338,337,335,332,329,326,321,314,303,290,275,252,222,194,166,139,112,90,73,56,38,22,10,6,4,3,1,0,-2,-4,-5,-6,-6,-6,-7,-7,-6,-5,-3,-1,0,2,4,5,8,10,13,15,18,21,26,32,38,43,46,48,51,55,57,60,63,65,69,72,75,78,79,78,77,76,74,72,69,65,61,58,56,54,52,50,47,45,44,42,40,38,35,32,30,28,26,24,22,21,19,17,15,13,11,8,5,1,-3,-7,-11,-15,-18,-22,-26,-31,-37,-45,-52,-54,-52,-49,-47,-45,-42,-39,-38,-42,-49,-57,-62,-67,-72,-75,-78,-80,-80,-79,-76,-72,-67,-59,-44,-30,-23,-18,-14,-10,-8,-6,-4,-3,-2,-2,-1,0,1,3,6,12,10,-4,-14,-21,-27,-34,-42,-49,-55,-62,-70,-79,-89,-99,-108,-112,-115,-119,-123,-127,-130,-132,-134,-135,-136,-136,-136,-135,-133,-131,-129,-126,-125,-123,-121,-118,-111,-88,-58,-28,25,100,198,322,463,611,747,859,925,931,891,758,584,390,199,42,-78,-134,-153,-134,-112,-95,-97,-121,-137,-150,-160,-166,-168,-167,-166,-164,-165,-166,-166,-166,-159,-146,-126,-101,-93,-90,-88,-87,-85,-83,-81,-79,-76,-74,-72,-69,-67,-64,-61,-57,-51,-39,-28,-20,-12,-2,12,32,44,51,56,60,63,67,71,75,78,82,87,96,113,133,159,194,222,240,251,259,268,280,296,307,315,321,325,325,322,314,304,287,252,225,210,199,191,184,172,146,118,98,81,59,31,3,-25,-42,-50,-57,-63,-70,-75,-79,-84,-89,-94,-99,-103,-103,-101,-97,-93,-88,-83,-73,-73,-83,-89,-94,-98,-102,-104,-103,-100,-94,-87,-80,-72,-62,-50,-42,-36,-30,-18,5,28,45,59,91,136,194,261,334,408,477,544,611,678,742,797,849,902,958,1016,1067,1119,1147,1167,1180,1180,1163,1116,1053,982,912,838,761,665,551,403,232,67,-54,-125,-160,-187,-222,-262,-305,-334,-351,-362,-366,-364,-358,-352,-349,-347,-346,-344,-343,-340,-337,-333,-330,-328,-326,-324,-322,-320,-319,-318,-318,-318,-318,-316,-314,-311,-309,-307,-305,-302,-300,-297,-295,-295,-294,-293,-291,-288,-285,-281,-270,-261,-252,-242,-232,-220,-205,-190,-175,-161,-147,-134,-123,-113,-104,-94,-80,-62,-41,-23,-8,4,16,31,47,62,70,76,81,83,84,83,81,78,74,69,61,48,33,24,19,13,9,6,4,4,5,6,7,7,7,8,9,10,10,10,10,10,11,12,13,14,13,13,14,15,17,19,21,22,24,27,30,32,33,32,30,27,24,20,17,13,8,3,1,0,-2,-5,-8,-11,-11,-6,-1,2,5,8,10,11,10,7,2,-2,-8,-13,-21,-28,-33,-35,-33,-29,-23,-18,-12,-5,2,7,10,13,18,25,15,10,8,6,4,3,1,0,0,-1,-2,-2,-1,0,2,4,6,8,10,13,15,16,17,18,20,23,25,26,25,22,19,16,14,11,7,2,0,-1,0,6,12,17,22,28,35,41,45,47,49,50,53,52,41,32,23,17,21,29,33,37,39,42,44,46,48,51,53,54,55,56,57,58,60,61,62,63,65,66,67,68,68,65,61,55,49,43,38,34,30,26,22,18,14,10,7,5,2,0,-2,-5,-8,-10,-13,-16,-21,-25,-29,-31,-33,-34,-35,-36,-37,-37,-37,-36,-37,-38,-41,-43,-44,-44,-41,-39,-36,-34,-33,-31,-28,-25,-23,-22,-23,-24,-25,-26,-28,-29,-32,-34,-35,-35,-33,-28,-21,-13,-4,8,18,23,26,29,33,32,22,16,12,7,4,2,5,11,19,27,33,40,48,54,60,63,66,67,69,72,78,81,75,64,50,35,21,14,10,7,4,2,0,0,1,3,5,7,8,10,12,14,17,19,21,24,27,29,31,35,40,47,79,124,187,270,383,523,680,839,968,1022,1018,935,767,544,321,129,11,-22,-30,-35,-43,-52,-62,-85,-103,-110,-115,-102,-92,-84,-78,-74,-74,-75,-76,-76,-75,-75,-76,-73,-62,-58,-56,-54,-53,-52,-52,-51,-51,-49,-48,-47,-46,-45,-44,-42,-41,-40,-40,-40,-40,-39,-38,-34,-30,-20,6,25,35,43,53,64,73,83,92,102,110,116,122,134,154,170,178,186,198,208,214,217,221,225,229,232,234,235,235,235,234,233,230,226,220,213,206,190,158,128,99,75,57,33,8,-15,-32,-43,-51,-57,-65,-74,-84,-92,-95,-97,-99,-101,-103,-105,-106,-107,-108,-110,-111,-113,-114,-116,-116,-116,-116,-115,-115,-114,-114,-113,-113,-113,-113,-113,-114,-114,-115,-115,-114,-113,-112,-112,-111,-110,-109,-109,-109,-109,-110,-110,-110,-109,-109,-109,-109,-110,-110,-109,-108,-108,-107,-107,-107,-107,-106,-104,-103,-103,-102,-102,-101,-100,-100,-99,-98,-97,-95,-91,-88,-86,-86,-88,-92,-96,-102,-111,-111,-98,-92,-89,-86,-82,-78,-74,-71,-67,-62,-57,-53,-48,-46,-43,-41,-37,-33,-30,-26,-22,-18,-12,-6,0,5,9,12,14,17,20,24,29,35,41,46,51,54,54,52,48,43,38,32,26,20,14,9,6,3,1,0,-2,-5,-7,-9,-12,-14,-17,-19,-21,-23,-24,-25,-26,-26,-27,-29,-33,-36,-36,-29,-16,6,40,94,172,274,394,524,659,787,900,976,984,952,828,648,409,185,13,-54,-72,-85,-92,-95,-96,-93,-88,-83,-78,-75,-73,-70,-67,-65,-64,-64,-64,-63,-60,-58,-56,-54,-53,-52,-50,-48,-46,-43,-40,-37,-34,-31,-28,-25,-22,-18,-14,-9,-4,0,4,8,12,15,17,18,19,20,23,28,35,52,71,83,91,98,105,111,115,118,121,124,129,136,144,156,168,176,185,193,201,205,206,205,202,198,192,184,168,136,103,75,52,22,-5,-26,-45,-58,-67,-75,-84,-93,-104,-114,-124,-133,-141,-147,-154,-164,-177,-192,-200,-206,-212,-216,-219,-219,-217,-214,-211,-208,-205,-201,-195,-190,-188,-189,-191,-192,-193,-193,-194,-196,-198,-200,-199,-195,-188,-182,-177,-175,-173,-170,-167,-165,-164,-164,-163,-162,-160,-159,-158,-157,-157,-157,-157,-157,-157,-158,-159,-159,-159,-157,-155,-154,-153,-151,-150,-148,-147,-147,-146,-146,-145,-144,-142,-141,-140,-140,-138,-136,-134,-132,-130,-128,-127,-125,-123,-121,-119,-117,-115,-112,-106,-94,-85,-81,-78,-76,-74,-71,-68,-65,-63,-59,-55,-48,-41,-31,-17,-5,5,12,18,23,28,33,38,42,48,54,62,72,88,100,110,116,122,128,131,132,130,126,122,117,114,112,109,106,103,101,99,97,95,94,93,93,94,95,96,97,98,99,101,103,106,109,113,118,130,157,202,252,310,379,461,563,689,831,975,1103,1198,1230,1198,1101,920,712,508,360,282,248,235,227,221,216,214,216,221,228,235,244,258,273,287,297,304,310,316,324,331,338,345,353,363,375,385,396,411,430,442,454,467,487,510,529,541,551,563,582,603,623,637,648,657,673,696,726,751,730,674,592,499,407,318
