109,141,173,197,206,210,214,217,218,220,222,225,227,229,233,237,243,271,324,397,494,610,727,823,859,872,848,774,671,551,423,295,181,99,69,57,58,75,89,100,110,119,127,129,131,134,136,137,138,139,140,140,142,143,144,145,146,147,148,149,150,151,152,153,154,155,156,157,158,160,163,165,167,168,169,169,169,170,170,170,171,173,175,178,182,185,187,188,189,189,189,188,188,188,189,191,195,193,179,172,168,165,162,158,155,150,145,141,138,135,132,128,125,122,118,115,111,108,105,102,100,99,99,100,103,106,110,114,118,122,126,130,133,136,139,142,145,149,153,157,161,163,165,166,167,167,166,166,165,164,164,163,162,161,160,158,156,154,151,148,145,143,140,138,136,133,128,122,116,111,107,103,100,97,94,92,90,87,85,83,80,76,72,68,64,60,56,52,47,42,37,32,27,22,16,10,5,1,-1,-4,-6,-9,-12,-14,-15,-17,-18,-20,-23,-24,-26,-27,-28,-29,-30,-30,-31,-31,-33,-35,-37,-40,-42,-45,-49,-53,-58,-62,-66,-70,-74,-79,-87,-102,-111,-117,-123,-128,-131,-124,-105,-53,20,114,224,334,424,469,484,466,415,323,208,86,-30,-128,-201,-229,-241,-245,-238,-225,-217,-211,-206,-201,-197,-192,-187,-183,-179,-175,-172,-168,-164,-161,-158,-159,-162,-168,-174,-180,-184,-188,-192,-195,-198,-201,-204,-207,-210,-212,-214,-214,-214,-213,-213,-212,-211,-208,-205,-201,-197,-193,-188,-174,-147,-124,-99,-77,-60,-41,-24,-10,1,12,22,32,39,43,45,47,50,52,53,50,42,33,25,16,8,0,-10,-19,-28,-35,-40,-45,-49,-51,-54,-57,-60,-63,-66,-69,-73,-77,-82,-88,-94,-99,-102,-104,-106,-108,-111,-114,-117,-121,-124,-126,-127,-128,-127,-126,-123,-121,-117,-113,-109,-105,-101,-98,-95,-93,-89,-84,-79,-76,-76,-80,-86,-92,-97,-99,-101,-103,-105,-108,-111,-113,-115,-117,-118,-119,-120,-120,-120,-119,-119,-118,-118,-118,-117,-117,-118,-119,-119,-119,-119,-118,-118,-117,-117,-116,-116,-115,-113,-112,-110,-109,-108,-107,-106,-104,-102,-100,-98,-97,-95,-94,-92,-89,-87,-85,-82,-80,-77,-74,-71,-69,-66,-64,-61,-59,-56,-55,-53,-51,-48,-46,-45,-44,-42,-41,-39,-38,-36,-35,-34,-33,-31,-28,-27,-26,-25,-24,-22,-18,-13,-8,20,72,139,227,337,453,549,594,609,590,531,440,336,226,115,8,-75,-107,-119,-123,-119,-110,-104,-100,-96,-93,-89,-85,-80,-76,-72,-69,-67,-66,-65,-63,-62,-60,-59,-58,-57,-56,-55,-54,-54,-53,-52,-52,-51,-50,-49,-47,-45,-42,-41,-39,-36,-34,-30,-25,-19,-14,-9,-4,1,6,11,14,16,17,19,21,24,27,29,32,35,37,40,41,41,40,39,37,36,35,33,31,30,29,29,29,28,27,25,23,22,21,19,17,15,14,13,13,14,15,15,17,18,19,20,20,20,19,18,18,18,17,17,17,17,18,20,21,21,21,21,21,21,21,21,22,24,26,28,30,33,35,37,40,42,43,44,45,47,49,51,53,55,56,57,58,59,59,58,58,57,56,56,56,56,56,57,57,58,59,60,60,60,60,61,61,62,63,63,64,66,67,69,71,71,72,72,72,70,68,66,62,59,57,55,54,53,51,49,46,44,43,42,44,47,52,57,63,68,73,78,83,87,90,91,91,89,86,81,76,70,64,56,43,32,25,19,15,12,10,8,5,3,1,0,-2,-3,-5,-6,-7,-8,-10,-13,-18,-27,-26,-10,34,100,192,312,455,609,745,815,814,733,549,314,77,-110,-196,-224,-209,-187,-161,-142,-131,-119,-107,-101,-97,-94,-90,-88,-86,-84,-83,-81,-78,-75,-71,-69,-66,-64,-61,-57,-54,-50,-47,-44,-41,-38,-35,-32,-30,-28,-27,-25,-23,-21,-20,-19,-19,-19,-19,-18,-17,-16,-14,-12,-9,-5,-1,1,4,7,12,16,20,23,26,29,32,35,36,34,28,21,14,9,5,2,0,-4,-7,-10,-12,-14,-16,-18,-20,-21,-21,-22,-22,-23,-24,-24,-24,-24,-24,-25,-25,-24,-23,-21,-18,-16,-15,-13,-12,-10,-9,-9,-8,-8,-6,-4,-1,1,3,4,5,4,3,1,-1,-4,-7,-9,-10,-9,-10,-11,-11,-11,-11,-11,-11,-11,-11,-12,-12,-12,-12,-11,-10,-10,-9,-9,-9,-9,-9,-8,-7,-6,-4,-3,0,1,4,6,8,10,11,13,14,14,15,16,17,18,20,21,23,24,25,26,28,29,29,30,30,30,30,30,30,29,29,30,30,30,30,30,30,30,31,31,30,29,28,28,27,27,27,26,26,25,25,25,25,25,25,25,24,24,23,22,21,20,19,17,16,14,12,10,7,5,3,1,0,-1,-3,-5,-9,-12,-16,-18,-20,-20,-20,-19,-18,-17,-15,-12,-8,-5,-1,16,85,189,329,494,659,791,836,824,716,518,276,47,-122,-182,-201,-178,-141,-100,-86,-82,-78,-75,-72,-70,-68,-64,-62,-60,-58,-57,-56,-55,-55,-56,-57,-58,-59,-60,-61,-61,-61,-60,-60,-58,-57,-56,-55,-54,-54,-55,-56,-56,-57,-58,-58,-58,-57,-55,-53,-50,-46,-43,-39,-36,-32,-29,-26,-23,-21,-19,-17,-15,-12,-8,-6,-3,-2,-1,-1,-2,-4,-6,-8,-11,-13,-15,-17,-18,-19,-19,-20,-21,-21,-22,-23,-23,-24,-25,-26,-27,-28,-28,-28,-28,-28,-28,-28,-29,-30,-31,-32,-34,-38,-40,-40,-36,-31,-24,-13,-3,2,5,9,12,15,17,19,20,21,23,25,26,27,28,29,31,34,37,40,42,43,45,46,48,50,50,50,50,51,52,54,55,57,59,60,61,62,63,64,65,65,65,65,65,65,65,64,62,61,60,59,58,57,56,54,52,49,47,46,44,41,39,37,35,34,33,32,31,29,28,26,25,23,21,19,17,16,14,14,13,11,8,5,1,-1,-4,-7,-10,-13,-16,-18,-20,-21,-23,-26,-28,-29,-27,-24,-20,-18,-16,-13,-11,-8,-6,-4,-3,-4,-5,-8,-11,-16,-20,-24,-29,-34,-38,-41,-44,-45,-46,-47,-48,-49,-50,-51,-54,-56,-54,-48,-35,2,58,136,238,363,501,627,700,702,638,471,252,35,-137,-224,-253,-239,-215,-191,-175,-162,-143,-129,-118,-110,-105,-100,-97,-95,-94,-93,-92,-91,-90,-89,-90,-90,-90,-90,-90,-90,-90,-90,-90,-89,-89,-88,-88,-87,-86,-86,-85,-84,-83,-82,-80,-78,-76,-74,-71,-68,-57,-49,-43,-38,-34,-30,-28,-28,-29,-31,-33,-35,-38,-40,-42,-43,-41,-36,-31,-26,-22,-18,-14,-10,-7,-4,-3,-3,-3,-4,-5,-7,-9,-12,-17,-26,-30,-34,-38,-39,-37,-36,-34,-33,-32,-34,-38,-44,-53,-63,-62,-63,-63,-64,-65,-66,-66,-66,-66,-66,-66,-66,-66,-66,-66,-67,-67,-68,-69,-69,-70,-70,-71,-71,-71,-70,-70,-69,-69,-69,-68,-67,-67,-65,-64,-63,-61,-60,-58,-56,-55,-54,-53,-53,-52,-51,-50,-49,-48,-47,-46,-44,-43,-43,-42,-42,-43,-43,-43,-43,-43,-44,-44,-44,-44,-43,-42,-41,-41,-41,-40,-40,-41,-42,-43,-45,-46,-47,-49,-50,-51,-52,-53,-55,-57,-59,-59,-56,-51,-44,-36,-23,-15,-9,-3,0,0,-4,-10,-16,-22,-27,-30,-32,-34,-36,-38,-38,-32,-25,-20,-14,-10,-6,-5,-7,-10,-14,-18,-21,-23,-26,-29,-31,-34,-37,-40,-43,-46,-49,-52,-55,-60,-64,-67,-68,-69,-69,-70,-67,-42,-2,56,137,242,368,504,625,687,685,608,439,228,21,-134,-192,-211,-201,-188,-177,-167,-154,-136,-103,-68,-53,-49,-47,-46,-45,-45,-44,-43,-42,-41,-40,-39,-39,-39,-38,-38,-37,-35,-34,-31,-27,-21,-15,-9,-1,9,17,25,33,42,48,51,54,57,61,64,68,77,90,99,103,108,115,122,128,134,140,144,148,152,158,167,174,177,180,182,184,185,185,185,184,182,179,176,172,169,164,159,154,150,145,138,131,126,124,122,121,119,118,118,119,120,121,122,123,126,126,123,120,118,115,110,105,102,101,99,97,95,93,93,92,90,89,87,86,84,83,82,81,78,74,71,68,64,60,56,51,46,42,38,33,28,20,14,9,3,-1,-7,-14,-20,-25,-29,-33,-36,-39,-41,-43,-45,-46,-49,-51,-54,-57,-61,-65,-70,-75,-80,-85,-90,-93,-96,-100,-102,-104,-105,-104,-102,-99,-96,-93,-90,-88,-85,-82,-79,-77,-74,-72,-70,-68,-65,-61,-54,-50,-48,-47,-47,-46,-45,-45,-43,-41,-38,-35,-32,-29,-25,-20,-15,-9,-5,-2,1,5,10,15,17,19,19,20,20,21,22,23,24,25,26,27,28,30,30,31,31,32,34,36,37,37,36,34,32,29,25,18,18,24,42,77,136,221,333,470,618,753,837,842,783,612,382,145,-45,-157,-184,-161,-119,-79,-55,-46,-35,-26,-19,-14,-9,-4,-1,0,2,3,5,6,8,9,11,12,14,16,18,20,22,24,28,31,33,36,38,40,43,45,47,49,50,51,52,53,53,54,54,55,55,56,58,59,61,62,64,67,69,73,81,86,90,93,96,98,100,99,97,94,90,81,68,57,48,35,28,23,20,17,14,11,10,9,7,6,5,3,1,-1,-5,-9,-12,-15,-17,-20,-22,-25,-28,-30,-33,-35,-38,-42,-47,-51,-54,-51,-46,-40,-37,-34,-30,-27,-25,-23,-21,-19,-17,-15,-13,-12,-11,-9,-8,-6,-4,-3,-1,0,2,4,7,9,11,13,15,17,20,22,25,27,28,29,31,32,33,33,33,33,34,36,38,40,41,41,40,39,37,36,35,33,31,30,29,29,29,30,30,31,33,35,37,39,41,42,43,43,44,44,45,45,45,46,46,47,48,49,50,50,51,51,52,52,52,52,52,52,52,53,53,53,54,55,56,58,59,60,61,61,61,61,60,59,58,58,58,58,59,59,60,60,61,62,63,63,63,63,63,64,66,69,68,62,54,45,34,34,41,59,105,175,271,397,547,703,836,893,886,790,605,381,163,-3,-95,-108,-112,-102,-84,-67,-39,-3,9,15,19,15,12,10,10,15,19,23,25,23,19,16,13,10,10,13,18,23,25,27,28,30,31,33,35,36,36,37,37,37,38,37,37,37,37,36,37,37,36,36,36,36,36,36,36,36,36,37,37,38,38,39,40,42,45,46,44,39,32,27,21,14,8,2,-3,-8,-13,-18,-23,-29,-33,-36,-38,-40,-42,-44,-46,-47,-48,-48,-48,-48,-48,-47,-47,-46,-45,-45,-45,-45,-45,-45,-44,-44,-44,-45,-48,-52,-53,-55,-56,-58,-60,-61,-62,-62,-61,-61,-60,-59,-59,-58,-57,-56,-55,-54,-53,-52,-51,-49,-47,-46,-44,-43,-42,-42,-42,-41,-40,-39,-38,-37,-36,-35,-34,-34,-33,-33,-33,-33,-33,-33,-33,-33,-34,-34,-35,-36,-36,-36,-36,-37,-37,-38,-38,-38,-38,-39,-42,-44,-40,-32,-23,-13,-6,-1,2,5,5,0,-5,-9,-13,-16,-19,-22,-23,-24,-25,-26,-27,-27,-28,-28,-29,-29,-29,-29,-29,-29,-27,-24,-21,-18,-13,-5,0,1,4,7,-1,-9,-16,-21,-26,-31,-38,-42,-45,-47,-49,-50,-51,-49,-46,-43,-40,-36,-32,-32,-34,-38,-42,-48,-42,-23,21,94,197,327,470,609,711,741,681,537,347,149,-21,-142,-190,-206,-199,-177,-154,-127,-98,-82,-78,-76,-74,-73,-71,-68,-67,-65,-63,-61,-58,-55,-49,-44,-39,-37,-35,-33,-32,-31,-31,-31,-31,-31,-30,-29,-28,-27,-27,-26,-25,-24,-23,-23,-22,-22,-20,-18,-16,-14,-13,-13,-13,-13,-13,-14,-16,-19,-11,-2,4,11,17,21,23,26,28,30,31,30,28,26,23,19,14,4,-4,-16,-31,-37,-40,-41,-43,-44,-44,-45,-45,-46,-47,-48,-50,-51,-52,-53,-54,-56,-58,-59,-61,-64,-69,-74,-77,-77,-77,-78,-78,-79,-79,-76,-69,-64,-60,-56,-53,-50,-46,-44,-41,-40,-39,-37,-36,-34,-33,-32,-31,-31,-30,-29,-28,-27,-26,-25,-24,-22,-21,-19,-18,-17,-16,-15,-15,-13,-12,-10,-11,-14,-19,-24,-32,-41,-46,-49,-52,-54,-56,-57,-57,-57,-56,-55,-54,-53,-51,-50,-49,-48,-47,-46,-45,-44,-43,-42,-42,-42,-43,-44,-45,-46,-47,-49,-51,-53,-53,-53,-53,-51,-49,-46,-43,-38,-34,-31,-29,-26,-22,-22,-22,-23,-23,-23,-24,-24,-25,-25,-27,-28,-29,-30,-31,-33,-35,-38,-39,-36,-32,-28,-25,-22,-20,-18,-16,-15,-16,-17,-19,-22,-25,-29,-35,-39,-36,-26,1,61,151,268,403,537,641,678,669,584,417,210,12,-137,-207,-217,-193,-150,-112,-86,-74,-68,-64,-62,-62,-65,-69,-72,-75,-78,-78,-74,-69,-65,-62,-59,-56,-54,-51,-47,-44,-41,-39,-37,-35,-33,-31,-30,-28,-26,-24,-23,-21,-19,-17,-16,-14,-13,-12,-10,-7,-2,5,13,19,22,25,29,34,39,43,46,49,52,56,58,59,59,57,56,54,53,52,50,48,45,41,38,35,31,28,24,21,17,14,11,8,5,2,0,0,-1,0,1,4,7,11,14,17,21,24,28,30,32,33,32,31,29,27,26,24,22,19,17,16,16,18,21,25,29,35,43,51,57,65,73,76,78,80,81,82,83,83,82,82,80,78,76,74,71,70,68,67,66,64,63,61,59,57,55,52,50,47,45,42,39,35,32,29,27,26,24,21,19,16,14,13,11,10,9,8,7,6,6,5,4,4,3,2,1,0,-1,-1,-2,-2,-3,-4,-5,-7,-9,-11,-11,-10,-7,-3,-1,1,5,10,15,21,25,30,34,38,42,45,47,49,52,54,56,57,58,57,56,55,54,52,50,48,45,43,41,39,37,35,33,32,30,27,24,15,5,1,-1,8,39,101,194,316,460,614,756,845,851,793,619,390,161,-18,-123,-145,-152,-148,-142,-139,-135,-129,-111,-96,-93,-91,-89,-86,-85,-84,-83,-82,-81,-81,-81,-81,-81,-82,-82,-82,-83,-83,-84,-84,-85,-85,-85,-86,-87,-88,-88,-89,-89,-91,-93,-92,-88,-80,-67,-50,-38,-30,-21,-14,-8,-2,4,7,9,11,12,14,15,16,17,17,17,18,17,17,16,14,13,13,12,12,11,10,9,7,4,3,5,10,13,15,17,19,20,19,18,15,11,3,-9,-12,-14,-16,-18,-19,-20,-21,-22,-23,-24,-24,-24,-25,-24,-24,-24,-24,-24,-24,-24,-24,-23,-22,-22,-21,-20,-19,-17,-16,-14,-13,-10,-6,-3,0,4,7,10,13,16,18,21,22,24,26,28,30,32,33,35,37,41,44,46,47,48,49,50,51,51,50,49,47,45,45,44,43,42,41,41,41,41,43,44,46,47,48,49,51,53,54,56,57,57,58,58,58,59,59,59,59,60,60,62,63,64,65,67,69,72,74,76,78,80,82,84,85,87,88,88,89,90,91,92,93,94,91,86,81,75,69,62,50,41,39,37,37,43,48,52,55,57,60,63,67,66,58,45,29,14,3,-1,-5,2,27,76,153,263,402,556,706,821,871,832,697,490,249,29,-124,-179,-186,-167,-137,-111,-88,-73,-66,-63,-61,-59,-57,-55,-53,-51,-49,-47,-45,-43,-40,-37,-32,-27,-24,-21,-18,-17,-15,-14,-12,-11,-11,-11,-11,-12,-12,-12,-12,-11,-10,-9,-7,-6,-5,-4,-2,-2,-1,0,0,2,4,7,9,12,14,15,16,16,16,15,13,10,7,4,0,-5,-11,-15,-17,-20,-23,-26,-29,-32,-36,-40,-45,-50,-53,-57,-61,-61,-56,-51,-46,-47,-52,-55,-56,-57,-58,-59,-59,-60,-61,-62,-63,-63,-64,-64,-63,-62,-61,-60,-59,-57,-55,-54,-52,-51,-49,-47,-46,-43,-40,-37,-33,-31,-29,-28,-26,-25,-22,-19,-16,-14,-13,-11,-9,-8,-9,-12,-16,-21,-13,-3,4,11,17,22,24,25,26,27,28,27,26,25,24,23,23,22,21,20,20,19,19,19,20,21,22,24,25,26,28,29,31,32,34,36,39,41,43,45,46,47,47,47,47,48,48,49,51,51,47,45,44,44,43,42,41,40,38,38,37,37,37,37,38,40,41,42,43,45,46,47,49,51,56,60,62,65,67,69,68,64,59,52,45,39,34,29,25,20,16,13,11,10,8,7,6,4,2,1,0,-2,-6,-11,-14,-12,-6,7,41,97,173,270,385,516,654,774,836,804,666,452,214,5,-133,-186,-194,-175,-146,-124,-110,-94,-79,-72,-69,-67,-66,-65,-63,-62,-61,-59,-58,-56,-55,-54,-52,-50,-47,-39,-32,-29,-27,-25,-24,-23,-23,-22,-22,-22,-22,-23,-24,-25,-27,-28,-30,-32,-32,-29,-25,-20,-16,-11,-6,-1,2,5,9,12,13,15,15,16,16,16,16,17,17,17,18,18,19,19,19,19,19,18,16,14,11,8,3,-4,-13,-22,-32,-41,-46,-50,-53,-56,-59,-62,-65,-67,-71,-74,-73,-70,-66,-63,-59,-56,-54,-53,-54,-55,-56,-57,-58,-59,-60,-59,-55,-49,-45,-41,-37,-35,-35,-34,-34,-33,-33,-32,-32,-31,-31,-30,-29,-28,-27,-26,-25,-24,-23,-22,-21,-19,-18,-17,-15,-14,-13,-12,-12,-12,-13,-14,-16,-18,-20,-23,-26,-29,-35,-45,-48,-49,-50,-50,-50,-50,-50,-51,-51,-51,-50,-50,-50,-50,-49,-49,-48,-47,-46,-45,-45,-44,-44,-43,-42,-41,-40,-38,-37,-33,-31,-34,-39,-43,-46,-49,-50,-50,-48,-46,-43,-40,-37,-33,-31,-31,-33,-35,-37,-40,-45,-44,-36,-30,-25,-20,-15,-10,-4,1,4,3,0,-4,-7,-10,-14,-19,-24,-27,-30,-32,-34,-37,-39,-41,-43,-44,-46,-48,-50,-51,-54,-59,-63,-63,-59,-50,-26,30,113,225,358,497,619,693,699,650,505,310,109,-58,-167,-198,-208,-197,-179,-162,-140,-116,-93,-78,-70,-66,-63,-61,-58,-56,-54,-52,-51,-50,-48,-46,-44,-42,-40,-39,-38,-38,-37,-36,-35,-33,-31,-28,-25,-18,-6,5,16,26,33,42,46,48,50,51,52,53,54,55,56,57,59,60,62,63,65,66,69,76,82,88,92,96,99,102,102,102,100,96,91,80,66,53,46,42,39,36,34,31,29,27,24,19,11,0,-4,-7,-9,-12,-14,-15,-16,-17,-17,-17,-17,-16,-16,-15,-14,-13,-12,-11,-10,-9,-9,-8,-7,-6,-5,-4,-4,-3,-2,-1,0,0,0,0,0,1,2,4,6,8,11,19,29,35,38,42,44,46,47,47,47,47,47,46,46,45,45,45,44,40,33,29,27,25,24,23,21,19,16,14,12,11,10,8,7,6,4,2,0,-2,-2,0,2,5,7,10,14,16,16,15,14,13,12,11,10,9,8,8,7,6,6,5,5,6,7,9,11,13,15,16,18,20,22,25,27,30,33,36,39,42,45,47,50,53,56,59,60,60,59,57,54,50,42,29,19,11,2,-10,-24,-39,-54,-65,-72,-76,-78,-79,-80,-80,-81,-82,-82,-82,-81,-79,-76,-71,-64,-38,16,98,209,348,506,660,772,811,757,609,393,162,-38,-174,-220,-224,-201,-169,-137,-119,-109,-104,-101,-98,-95,-92,-89,-85,-79,-69,-64,-62,-61,-60,-58,-57,-55,-54,-52,-50,-46,-38,-23,-12,-6,-3,-6,-10,-13,-15,-18,-20,-21,-21,-20,-17,-14,-12,-9,-7,-5,-2,0,3,6,9,12,15,18,21,26,30,33,34,35,36,38,41,32,25,22,20,17,15,14,12,10,8,6,4,1,0,-2,-6,-10,-14,-18,-22,-26,-29,-31,-33,-35,-36,-37,-38,-38,-39,-40,-41,-42,-42,-43,-43,-43,-43,-42,-41,-40,-39,-38,-37,-36,-35,-35,-34,-34,-34,-34,-34,-34,-33,-32,-31,-30,-28,-26,-24,-22,-20,-18,-16,-14,-12,-9,-6,-2,0,0,0,0,0,0,0,-2,-3,-4,-3,0,2,6,9,12,12,8,5,3,2,0,0,-2,-3,-4,-4,-5,-4,-4,-4,-3,-2,-1,0,2,3,5,6,7,9,11,12,13,13,12,10,8,6,4,2,0,-1,-3,-4,-5,-5,-5,-3,-1,1,4,6,8,10,11,13,14,16,18,19,20,20,21,21,22,23,24,24,24,25,26,27,28,26,22,17,11,8,4,1,-2,-5,-8,-11,-12,-14,-15,-17,-20,-26,-39,-48,-54,-57,-53,-42,-9,47,133,250,394,558,718,844,898,857,716,501,260,39,-119,-184,-192,-170,-136,-111,-100,-91,-80,-63,-49,-41,-34,-28,-24,-21,-18,-16,-14,-14,-15,-15,-16,-17,-18,-19,-21,-21,-15,-9,-4,0,4,9,13,17,20,24,28,34,38,40,41,42,42,42,42,43,43,43,44,44,44,45,46,47,47,48,49,50,51,53,55,57,60,64,66,67,65,61,57,51,42,31,23,18,14,9,6,3,1,-1,-6,-13,-19,-21,-22,-23,-23,-24,-25,-26,-26,-26,-26,-27,-27,-27,-27,-27,-27,-27,-27,-28,-28,-28,-27,-26,-26,-25,-24,-23,-22,-21,-20,-19,-20,-20,-19,-18,-16,-14,-12,-10,-8,-6,-3,0,1,3,7,13,18,22,24,26,28,30,31,29,28,26,24,22,20,21,23,25,27,29,31,33,35,37,36,33,30,26,23,19,14,11,11,13,16,19,21,23,25,27,29,30,31,31,31,30,29,26,24,21,19,17,16,13,11,8,5,2,0,-1,-3,-6,-9,-11,-13,-15,-19,-23,-27,-32,-36,-40,-44,-48,-51,-54,-55,-55,-52,-49,-46,-44,-43,-42,-41,-40,-39,-37,-36,-34,-33,-32,-30,-29,-29,-29,-30,-31,-32,-33,-35,-37,-38,-40,-42,-44,-46,-54,-71,-89,-99,-104,-107,-93,-52,19,124,261,422,584,716,782,755,631,430,188,-43,-219,-315,-329,-325,-292,-256,-229,-214,-202,-193,-185,-178,-171,-163,-152,-138,-131,-128,-126,-124,-123,-121,-119,-117,-115,-112,-108,-98,-82,-75,-72,-70,-68,-66,-63,-61,-59,-57,-54,-47,-32,-23,-17,-13,-13,-15,-17,-19,-21,-23,-24,-25,-24,-21,-17,-13,-7,3,14,20,24,27,30,32,33,34,33,32,31,28,25,22,17,8,2,-4,-11,-19,-27,-33,-36,-32,-25,-22,-20,-18,-16,-15,-14,-13,-12,-11,-11,-10,-9,-8,-8,-7,-7,-8,-8,-8,-8,-8,-9,-8,-6,-7,-16,-22,-27,-32,-35,-36,-35,-31,-26,-22,-19,-15,-11,-7,-4,-2,-1,0,1,3,9,18,23,26,26,21,19,16,14,12,12,14,18,24,36,45,46,47,48,49,49,49,47,45,44,43,42,41,39,37,37,36,35,35,34,34,34,34,35,35,35,35,34,34,34,34,33,33,32,32,33,33,34,34,34,34,35,35,36,35,34,34,33,34,34,35,35,35,35,36,38,40,41,41,42,44,47,50,54,57,61,64,67,70,73,75,77,81,83,79,71,67,64,61,58,56,55,55,55,54,54,54,54,54,55,56,57,57,56,54,51,47,42,41,48,67,118,194,299,429,579,727,843,887,831,672,448,209,10,-108,-129,-127,-95,-67,-56,-48,-38,-22,-6,2,8,11,16,22,28,33,36,39,40,39,38,36,34,33,31,30,31,35,39,43,47,51,52,51,49,47,45,44,42,40,39,38,40,43,46,48,51,54,57,61,64,67,70,72,74,77,79,82,83,85,86,88,91,93,95,94,92,87,82,76,66,58,50,42,33,24,16,8,0,-13,-25,-33,-41,-45,-47,-49,-50,-52,-54,-57,-59,-62,-67,-77,-95,-106,-114,-121,-128,-140,-156,-165,-170,-174,-178,-182,-185,-188,-191,-193,-195,-197,-199,-200,-201,-201,-202,-202,-203,-203,-204,-204,-204,-205,-205,-206,-206,-206,-205,-203,-202,-200,-199,-197,-194,-192,-188,-183,-179,-174,-170,-164,-158,-153,-152,-151,-151,-151,-151,-151,-150,-150,-150,-149,-148,-147,-146,-145,-144,-142,-140,-137,-131,-124,-116,-109,-103,-98,-95,-92,-90,-88,-86,-85,-83,-83,-83,-84,-85,-87,-89,-92,-93,-91,-83,-75,-64,-56,-51,-48,-46,-44,-41,-38,-35,-32,-29,-25,-20,-14,-7,0,6,13,19,23,27,32,39,46,50,53,56,58,59,59,57,55,51,48,45,43,39,36,32,29,27,25,22,19,13,2,-5,-12,-18,-21,-17,-6,24,79,159,267,400,552,703,819,871,834,704,504,282,85,-54,-116,-125,-107,-70,-29,3,20,29,33,36,38,41,43,46,48,50,52,54,56,59,61,64,68,72,79,90,98,106,113,118,120,122,123,125,127,128,129,131,133,135,138,141,143,146,150,153,157,160,163,166,168,170,172,175,177,178,178,178,177,175,173,171,169,166,163,159,155,150,145,140,135,130,125,120,114,103,85,74,69,64,60,56,52,48,45,41,37,34,32,31,29,28,27,27,27,27,27,26,25,24,24,23,22,21,20,18,16,14,12,9,7,5,2,0,-1,-3,-4,-6,-8,-10,-11,-12,-13,-14,-14,-14,-14,-14,-14,-14,-15,-15,-14,-14,-14,-15,-15,-15,-13,-10,-6,-3,-1,0,1,3,5,6,6,6,6,7,8,9,10,10,10,10,10,11,11,11,11,12,13,14,15,16,17,18,18,20,21,22,23,24,25,27,29,31,33,35,37,39,40,42,43,43,44,44,45,46,48,50,52,55,59,62,65,68,71,75,79,88,101,102,102,104,102,93,85,76,72,69,67,66,65,63,61,57,52,45,36,22,12,6,2,0,-3,-6,-9,-13,-17,-23,-23,-12,16,74,163,284,430,586,725,807,811,748,574,340,100,-95,-213,-236,-235,-203,-171,-155,-141,-123,-101,-88,-84,-82,-80,-80,-84,-89,-92,-95,-98,-101,-101,-100,-97,-93,-88,-83,-78,-71,-65,-59,-53,-48,-43,-38,-33,-28,-24,-20,-15,-10,-5,0,4,8,11,14,17,20,23,25,27,28,29,30,31,32,32,33,34,35,37,38,40,41,41,41,41,40,38,36,33,31,28,25,23,20,15,9,4,0,-5,-16,-33,-48,-58,-67,-76,-85,-96,-101,-105,-108,-110,-112,-113,-115,-117,-118,-120,-121,-121,-122,-122,-123,-125,-127,-129,-131,-130,-128,-124,-121,-119,-116,-114,-112,-110,-108,-107,-107,-107,-107,-108,-110,-112,-113,-115,-117,-120,-124,-128,-130,-128,-123,-117,-110,-99,-87,-76,-64,-51,-45,-43,-41,-39,-38,-38,-37,-37,-36,-36,-35,-33,-32,-30,-29,-28,-26,-25,-25,-24,-22,-20,-18,-14,-10,-5,-2,0,1,3,5,7,10,9,-1,-13,-26,-37,-44,-49,-53,-54,-53,-49,-44,-34,-17,-8,-4,-2,0,1,4,8,12,16,20,24,29,37,45,50,55,59,63,66,69,70,69,66,61,56,50,38,26,20,16,12,10,8,5,3,1,0,-1,-3,-5,-8,-14,-24,-32,-39,-45,-39,-20,25,101,210,351,517,687,827,882,871,757,543,288,54,-113,-179,-188,-166,-135,-121,-115,-111,-104,-93,-76,-58,-52,-48,-46,-44,-43,-40,-38,-35,-31,-28,-24,-21,-17,-14,-11,-8,-6,-4,-1,1,4,7,10,13,16,19,27,44,54,57,60,62,64,65,67,70,72,74,76,79,81,84,87,91,95,99,101,103,105,107,110,114,118,117,112,104,99,95,92,89,85,82,80,78,75,72,66,55,41,32,26,22,18,15,12,9,7,6,4,2,0,0,-1,-2,-3,-3,-4,-5,-5,-5,-5,-5,-7,-8,-10,-11,-13,-15,-17,-19,-20,-22,-23,-24,-26,-28,-30,-33,-35,-38,-40,-41,-42,-41,-39,-35,-31,-27,-23,-19,-15,-12,-10,-8,-6,-5,-3,-1,0,1,3,5,6,7,7,7,7,6,6,6,6,7,7,8,8,8,8,9,9,9,9,10,10,11,13,15,17,19,20,21,22,24,25,25,25,25,24,24,24,24,23,22,21,20,18,16,13,9,2,-5,-16,-33,-56,-76,-89,-90,-91,-92,-93,-89,-80,-70,-58,-42,-33,-27,-23,-18,-15,-15,-16,-19,-23,-26,-28,-30,-33,-36,-39,-41,-42,-42,-41,-39,-38,-37,-36,-34,-32,-30,-28,-26,-22,-16,5,62,150,271,422,590,750,867,905,835,659,418,172,-28,-147,-171,-169,-149,-131,-112,-92,-72,-50,-39,-34,-30,-28,-25,-23,-20,-17,-14,-11,-8,-6,-4,-2,0,1,4,7,9,12,15,19,23,27,30,33,36,39,41,44,46,48,51,53,56,59,61,63,64,65,67,68,70,71,72,73,75,76,78,80,81,82,83,83,83,82,82,80,78,76,74,71,69,66,60,54,47,40,33,25,15,7,1,-4,-7,-10,-13,-15,-17,-20,-23,-26,-28,-31,-33,-35,-37,-39,-42,-44,-46,-47,-49,-50,-51,-52,-52,-51,-50,-48,-46,-45,-43,-41,-39,-37,-36,-35,-33,-31,-28,-25,-22,-20,-18,-17,-16,-15,-14,-14,-14,-14,-14,-13,-12,-11,-10,-9,-8,-7,-6,-5,-5,-5,-5,-5,-5,-6,-6,-7,-7,-7,-6,-5,-5,-6,-7,-9,-11,-13,-14,-15,-17,-19,-20,-21,-21,-21,-21,-21,-20,-19,-18,-17,-15,-14,-14,-13,-12,-11,-10,-9,-9,-9,-11,-13,-16,-19,-21,-23,-25,-27,-29,-30,-30,-31,-31,-31,-31,-30,-29,-28,-26,-25,-24,-23,-22,-20,-18,-18,-22,-29,-34,-41,-45,-46,-46,-45,-46,-47,-48,-48,-47,-47,-47,-48,-50,-52,-55,-58,-63,-72,-64,-40,7,79,173,290,425,557,660,703,665,543,360,160,-13,-132,-167,-179,-183,-180,-172,-161,-142,-122,-104,-97,-95,-94,-92,-90,-89,-89,-88,-87,-86,-83,-82,-81,-81,-80,-79,-76,-73,-69,-58,-42,-39,-38,-36,-35,-34,-33,-32,-32,-31,-30,-30,-30,-30,-30,-30,-30,-29,-28,-28,-27,-27,-26,-24,-22,-19,-17,-15,-12,-4,4,14,27,39,39,39,40,40,41,39,34,27,22,17,11,7,2,-1,-8,-16,-22,-24,-26,-28,-29,-30,-31,-31,-31,-31,-31,-31,-31,-30,-29,-29,-28,-27,-27,-26,-25,-24,-24,-23,-23,-22,-21,-20,-18,-17,-15,-13,-11,-7,-3,0,4,7,9,11,14,16,19,21,22,23,25,27,29,32,34,36,38,40,43,46,48,49,49,50,52,54,55,54,51,48,46,45,44,43,41,40,39,39,41,42,44,46,49,51,48,44,42,41,40,38,38,37,36,34,33,33,32,32,31,31,30,30,30,30,29,28,27,27,28,31,34,37,39,41,43,46,48,50,52,53,53,54,54,54,54,54,53,53,53,53,53,53,53,51,49,46,45,43,41,39,37,36,35,36,37,38,39,41,44,36,22,9,0,0,22,70,146,253,388,539,684,792,834,794,672,495,296,111,-30,-94,-117,-119,-110,-96,-80,-55,-32,-17,-12,-10,-9,-8,-8,-8,-8,-8,-7,1,6,9,12,14,15,17,18,18,19,20,21,21,21,22,23,24,25,28,31,35,38,42,46,50,52,54,55,57,58,60,61,63,64,64,65,66,67,67,68,69,70,73,75,75,73,68,59,45,31,13,-3,-16,-23,-28,-32,-36,-41,-47,-50,-52,-54,-57,-59,-61,-62,-63,-64,-65,-66,-66,-67,-67,-68,-70,-74,-76,-73,-66,-64,-62,-60,-59,-59,-58,-57,-55,-54,-54,-53,-53,-52,-51,-51,-50,-49,-48,-48,-47,-46,-45,-44,-43,-42,-38,-35,-35,-39,-44,-48,-53,-57,-58,-59,-61,-62,-64,-65,-65,-64,-63,-61,-59,-60,-67,-72,-77,-81,-81,-81,-80,-80,-80,-81,-80,-77,-71,-65,-58,-54,-52,-51,-50,-49,-48,-48,-48,-48,-48,-47,-46,-45,-44,-44,-43,-42,-41,-40,-39,-33,-25,-22,-21,-20,-19,-18,-17,-15,-14,-12,-10,-8,-5,2,16,20,23,25,27,28,30,31,32,32,32,31,30,29,28,27,26,25,25,24,24,23,22,20,18,17,15,12,10,7,4,0,-4,-14,-14,-7,10,55,127,228,356,504,653,773,835,812,698,506,271,47,-119,-195,-206,-191,-162,-146,-132,-120,-109,-98,-90,-83,-76,-65,-52,-45,-43,-41,-40,-39,-38,-37,-36,-35,-34,-33,-32,-31,-30,-29,-28,-26,-24,-19,-12,-3,1,3,6,7,9,11,13,14,16,18,19,21,22,23,24,26,29,32,35,38,41,43,47,52,60,68,74,79,83,85,87,90,93,92,82,71,60,52,43,31,22,14,7,3,1,0,0,0,-1,-2,-4,-5,-7,-9,-11,-12,-14,-15,-16,-16,-17,-18,-19,-20,-21,-21,-22,-23,-25,-27,-28,-29,-29,-30,-31,-32,-33,-34,-36,-37,-40,-44,-48,-52,-55,-57,-59,-61,-63,-65,-66,-67,-68,-67,-65,-63,-59,-55,-49,-39,-28,-21,-15,-11,-7,-5,-2,-1,0,0,0,1,1,2,3,3,4,5,6,6,6,5,5,5,5,6,7,8,8,9,10,12,14,17,18,19,20,20,21,21,22,22,23,24,25,27,28,28,29,30,32,34,36,39,41,43,44,46,48,50,51,52,54,55,56,57,56,53,49,45,43,41,40,38,36,35,34,32,31,29,28,27,26,26,26,26,25,24,22,17,10,18,45,100,184,302,451,619,780,899,938,877,717,492,248,34,-107,-155,-159,-132,-99,-68,-52,-37,-23,-14,-9,-6,-7,-8,-10,-13,-14,-11,-6,0,9,17,23,28,31,28,25,22,19,17,15,15,17,21,26,34,45,50,52,54,55,56,58,59,61,63,65,66,68,70,71,73,74,76,78,79,80,81,81,81,82,82,83,84,86,87,89,89,89,88,86,83,79,67,56,50,45,39,34,30,27,24,20,16,12,8,4,0,-5,-10,-15,-22,-30,-30,-31,-31,-32,-33,-33,-34,-34,-34,-35,-36,-37,-37,-38,-39,-41,-43,-45,-46,-45,-44,-42,-41,-40,-38,-38,-39,-41,-43,-44,-45,-46,-47,-47,-48,-49,-49,-48,-46,-44,-41,-39,-36,-34,-32,-30,-27,-25,-24,-23,-24,-24,-26,-27,-30,-32,-33,-35,-38,-41,-43,-44,-44,-41,-38,-35,-32,-29,-27,-24,-22,-20,-19,-19,-18,-17,-17,-16,-15,-15,-15,-16,-18,-19,-20,-21,-23,-26,-28,-28,-28,-26,-23,-21,-20,-18,-16,-14,-11,-9,-6,-5,-3,-1,1,4,6,7,6,3,0,-3,-5,-8,-10,-13,-15,-16,-17,-18,-19,-20,-21,-22,-22,-23,-24,-25,-25,-25,-24,-22,-17,-11,10,58,133,242,380,533,673,766,788,726,582,383,170,-14,-139,-184,-188,-162,-131,-107,-94,-83,-72,-61,-49,-38,-31,-26,-23,-21,-19,-17,-17,-16,-14,-12,-9,-6,-4,-1,1,3,6,8,10,12,13,14,16,18,20,23,26,28,31,34,37,40,43,47,51,55,59,62,65,67,69,70,72,74,76,77,78,79,80,81,82,83,83,83,83,83,83,82,80,79,77,75,73,69,61,52,43,35,27,16,1,-7,-11,-14,-17,-19,-21,-22,-24,-25,-27,-29,-31,-33,-35,-37,-39,-42,-45,-49,-55,-60,-63,-66,-68,-70,-71,-72,-73,-74,-74,-73,-72,-70,-69,-66,-64,-60,-53,-47,-43,-39,-37,-36,-37,-38,-39,-40,-40,-40,-41,-41,-41,-42,-42,-43,-43,-43,-43,-43,-44,-45,-46,-46,-47,-48,-49,-50,-52,-54,-55,-59,-62,-65,-67,-66,-63,-59,-55,-50,-42,-38,-41,-47,-55,-63,-65,-66,-67,-67,-68,-67,-65,-62,-59,-57,-56,-54,-52,-51,-50,-49,-49,-49,-50,-51,-52,-54,-55,-56,-58,-60,-62,-63,-63,-60,-55,-50,-47,-44,-40,-37,-34,-33,-34,-35,-36,-37,-39,-41,-45,-51,-56,-58,-59,-61,-62,-63,-64,-65,-65,-64,-62,-59,-56,-43,-10,48,135,245,372,504,620,692,695,638,478,269,66,-85,-155,-165,-149,-121,-113,-108,-105,-101,-95,-80,-67,-58,-53,-49,-47,-46,-45,-44,-42,-40,-37,-34,-30,-25,-17,-12,-8,-6,-4,-2,-1,0,1,4,7,10,14,17,20,24,27,31,34,38,40,43,45,47,50,52,54,55,56,58,59,60,62,63,65,68,72,73,72,69,66,64,62,60,58,55,51,47,43,38,30,23,17,9,2,0,0,-1,-1,0,2,4,4,0,-3,-6,-9,-13,-17,-21,-24,-27,-30,-32,-34,-34,-34,-33,-33,-33,-32,-32,-31,-30,-30,-30,-30,-30,-29,-29,-29,-30,-31,-33,-34,-36,-38,-39,-39,-37,-34,-29,-25,-20,-15,-12,-9,-6,-2,0,0,-4,-7,-10,-12,-14,-17,-18,-19,-18,-17,-15,-14,-12,-11,-9,-8,-6,-6,-6,-7,-10,-12,-15,-18,-20,-22,-24,-26,-28,-28,-29,-29,-29,-29,-28,-28,-27,-26,-25,-23,-21,-18,-15,-13,-13,-14,-15,-16,-17,-18,-19,-18,-16,-13,-9,-5,2,10,18,25,30,36,39,43,46,48,47,43,38,32,23,18,14,10,10,13,16,20,17,14,11,10,12,17,21,25,28,29,27,22,17,11,3,3,17,54,122,219,345,495,652,792,870,872,804,628,400,175,4,-90,-112,-111,-94,-78,-61,-45,-27,-13,-7,-4,-2,0,4,8,11,14,18,22,26,30,34,37,41,44,47,50,53,55,57,59,61,64,67,70,74,78,82,86,90,92,94,95,96,98,99,101,102,104,105,106,109,111,113,115,117,121,124,127,129,130,131,133,134,136,138,139,138,136,133,129,125,119,113,107,102,98,95,92,88,84,79,76,72,69,66,63,60,57,54,52,49,47,46,45,44,44,43,42,41,40,40,39,39,39,39,38,38,37,37,36,36,35,35,34,34,34,34,34,33,33,34,34,35,35,35,35,35,36,37,37,38,39,40,40,41,43,44,45,46,47,47,47,47,47,46,45,45,44,44,45,45,45,46,46,46,47,47,46,45,45,44,44,44,44,44,44,44,44,44,44,44,43,42,42,42,42,42,42,42,42,43,43,44,44,44,43,43,44,44,44,44,45,45,46,46,47,47,47,46,45,44,42,41,39,38,36,34,33,31,29,26,19,13,8,5,2,1,0,-2,-3,-5,-7,-9,-10,-12,-14,-16,-19,-23,-34,-53,-66,-75,-68,-46,9,99,225,386,564,730,848,881,812,648,423,182,-29,-175,-224,-240,-230,-200,-168,-138,-119,-108,-104,-100,-98,-96,-92,-89,-86,-83,-80,-78,-76,-74,-73,-72,-70,-69,-68,-67,-66,-66,-66,-66,-66,-65,-65,-64,-64,-63,-62,-61,-60,-60,-59,-58,-56,-55,-53,-51,-48,-42,-35,-30,-25,-21,-18,-15,-12,-10,-8,-7,-6,-7,-9,-11,-15,-19,-23,-26,-31,-36,-41,-45,-49,-52,-56,-60,-64,-68,-70,-71,-72,-74,-75,-77,-78,-80,-81,-82,-84,-88,-91,-94,-97,-100,-103,-107,-111,-113,-113,-113,-111,-110,-109,-108,-107,-106,-105,-104,-103,-102,-101,-100,-99,-98,-97,-96,-94,-93,-91,-90,-89,-88,-86,-84,-83,-81,-79,-78,-77,-75,-73,-72,-70,-69,-67,-66,-65,-63,-62,-60,-58,-55,-53,-50,-47,-44,-41,-38,-36,-35,-34,-33,-33,-32,-31,-31,-31,-30,-29,-28,-27,-26,-26,-26,-25,-25,-24,-24,-24,-23,-23,-22,-20,-19,-17,-14,-10,-5,-2,0,1,2,3,3,4,4,5,5,5,5,5,5,5,6,6,6,6,6,7,8,9,10,11,12,13,15,16,18,21,27,31,34,37,39,41,41,40,36,31,24,14,6,2,0,-1,-3,-5,-7,-9,-11,-12,-14,-16,-18,-20,-23,-29,-33,-33,-30,-24,-8,34,106,210,346,506,670,809,867,858,749,540,293,60,-109,-185,-198,-183,-149,-120,-105,-96,-88,-79,-72,-67,-62,-57,-52,-47,-42,-38,-34,-31,-29,-27,-24,-23,-21,-21,-22,-23,-25,-26,-28,-31,-33,-31,-26,-21,-17,-13,-8,-5,-2,0,0,2,4,5,6,8,10,12,14,16,18,19,21,23,25,28,31,33,35,36,36,36,35,34,33,30,28,25,22,19,12,6,2,0,-3,-5,-7,-10,-13,-17,-21,-24,-27,-30,-33,-36,-39,-41,-44,-46,-48,-50,-52,-54,-55,-57,-58,-60,-62,-63,-65,-65,-66,-66,-66,-65,-64,-62,-60,-58,-57,-55,-54,-53,-51,-49,-47,-45,-43,-41,-39,-37,-35,-33,-30,-29,-27,-26,-24,-22,-20,-18,-16,-15,-13,-12,-10,-9,-7,-4,1,5,8,10,13,15,16,16,15,13,12,10,8,6,4,4,5,8,10,11,12,14,15,17,19,21,22,22,23,22,22,21,20,19,18,18,17,17,16,16,16,16,15,15,14,14,15,16,19,22,25,26,28,29,31,32,33,34,36,37,38,38,39,40,41,41,41,41,41,40,40,39,38,38,37,36,36,36,36,36,35,34,32,31,29,28,27,25,24,24,24,25,26,28,31,35,50,96,169,271,399,539,670,761,785,721,574,381,181,12,-98,-129,-130,-106,-82,-69,-56,-41,-23,-11,-7,-5,-4,-2,-1,0,0,2,4,6,7,8,9,9,10,11,12,13,13,13,13,14,14,14,14,15,15,16,18,19,20,20,21,21,22,22,22,22,23,23,24,26,27,29,30,31,33,34,35,35,35,35,35,36,38,41,43,39,34,30,27,23,20,16,12,1,-6,-8,-10,-11,-14,-18,-22,-26,-30,-35,-41,-47,-54,-70,-85,-89,-92,-94,-96,-96,-96,-96,-96,-96,-96,-94,-92,-89,-87,-86,-85,-84,-82,-80,-78,-76,-75,-73,-71,-70,-68,-67,-66,-65,-63,-61,-59,-54,-50,-46,-42,-39,-36,-34,-32,-30,-28,-26,-23,-20,-18,-16,-15,-13,-12,-10,-9,-8,-6,-5,-5,-4,-4,-4,-4,-5,-6,-6,-6,-7,-6,-6,-5,-4,-3,-2,0,1,3,5,7,8,10,12,14,17,19,22,24,26,28,30,32,34,39,42,44,46,48,49,50,52,54,58,62,66,70,74,78,83,89,94,97,100,104,107,109,111,113,113,113,113,113,112,112,110,109,109,108,108,107,106,104,102,101,100,101,101,101,102,104,105,103,100,97,93,91,94,99,116,150,202,274,370,486,616,738,828,857,806,674,487,282,99,-27,-67,-80,-70,-43,-16,7,21,35,50,57,61,64,66,68,69,69,70,70,69,69,69,69,69,69,69,69,69,70,70,70,71,72,73,74,75,76,78,80,84,88,91,94,96,98,99,101,101,98,94,88,78,60,50,44,40,37,37,39,42,48,56,74,86,91,96,100,102,102,100,97,94,92,89,86,83,80,77,75,74,72,69,64,52,40,32,25,21,19,17,15,14,12,10,8,5,2,-5,-20,-36,-51,-75,-96,-106,-111,-114,-116,-117,-116,-113,-109,-105,-99,-99,-105,-121,-144,-166,-180,-195,-210,-221,-229,-233,-237,-240,-234,-230,-227,-225,-224,-223,-223,-224,-226,-228,-231,-235,-243,-245,-247,-249,-250,-250,-250,-247,-244,-238,-227,-215,-202,-192,-186,-180,-174,-164,-154,-149,-145,-143,-144,-148,-155,-160,-165,-170,-172,-170,-165,-158,-145,-125,-106,-88,-75,-65,-58,-50,-43,-33,-28,-24,-21,-19,-19,-19,-21,-25,-29,-35,-44,-47,-49,-51,-53,-52,-49,-45,-39,-32,-22,-12,-3,3,13,23,29,32,32,26,17,5,-7,-20,-40,-62,-86,-109,-116,-120,-122,-122,-120,-116,-112,-103,-86,-73,-65,-64,-71,-82,-98,-114,-124,-119,-103,-45,50,185,347,517,662,740,743,678,517,303,83,-96,-203,-221,-217,-181,-149,-129,-121,-111,-96,-80,-68,-58,-50,-39,-29,-25,-22,-21,-20,-21,-25,-29,-35,-42,-42,-34,-27,-18,-11,-1,11,24,39,51,58,63,67,71,74,78,82,86,88,89,90,90,91,91,92,93,94,95,97,100,103,106,113,128,137,143,147,150,152,154,155,157,158,159,159,158,156,153,149,145,138,131,124,113,97,90,87,85,83,82,82,82,82,82,81,80,78,77,75,74,72,71,69,69,68,67,65,63,61,60,58,56,53,50,48,47,46,46,46,45,45,45,45,46,46,45,44,43,43,43,43,44,44,44,45,46,48,49,50,50,50,50,50,50,49,48,47,47,46,47,47,47,47,47,46,46,44,43,41,39,37,36,35,34,33,32,32,31,31,30,29,28,27,27,28,29,31,32,33,34,34,35,35,35,35,34,33,33,32,31,30,30,29,30,30,31,31,32,33,35,36,38,41,44,48,58,68,76,84,91,96,96,92,86,78,67,54,48,45,43,41,39,38,36,34,33,31,31,30,30,29,29,29,28,28,27,24,26,38,73,136,228,349,495,649,790,880,886,827,647,411,172,-24,-145,-175,-175,-146,-111,-77,-58,-44,-36,-31,-27,-24,-22,-20,-18,-17,-16,-15,-15,-14,-13,-13,-13,-13,-13,-14,-15,-16,-17,-18,-20,-22,-24,-25,-26,-29,-32,-35,-37,-38,-37,-35,-32,-29,-24,-17,-5,3,10,14,17,22,26,31,35,40,46,51,55,58,61,63,65,66,64,60,54,48,41,35,31,27,25,22,20,18,16,13,9,5,1,-1,-3,-5,-7,-9,-11,-14,-17,-20,-23,-25,-28,-30,-31,-33,-34,-36,-37,-39,-40,-42,-44,-46,-48,-49,-50,-50,-50,-50,-50,-49,-49,-48,-48,-49,-50,-51,-51,-51,-50,-49,-49,-49,-49,-48,-47,-46,-46,-45,-45,-44,-44,-43,-43,-44,-45,-45,-45,-45,-44,-44,-44,-44,-43,-43,-42,-42,-43,-44,-45,-46,-47,-48,-50,-52,-53,-55,-56,-57,-57,-59,-61,-63,-65,-67,-68,-69,-69,-70,-70,-69,-68,-67,-66,-65,-64,-63,-62,-62,-64,-68,-72,-74,-76,-78,-81,-83,-84,-86,-87,-87,-87,-86,-85,-83,-81,-79,-76,-74,-71,-69,-67,-63,-59,-56,-56,-58,-63,-69,-78,-91,-97,-101,-104,-106,-109,-110,-109,-109,-107,-106,-104,-101,-98,-98,-103,-109,-116,-124,-128,-127,-121,-105,-54,21,125,253,401,550,670,728,695,564,358,126,-80,-228,-286,-305,-297,-284,-270,-246,-215,-180,-153,-144,-144,-155,-162,-170,-175,-174,-168,-157,-139,-117,-85,-56,-26
