-205,-235,-267,-297,-311,-319,-324,-328,-330,-332,-333,-333,-332,-332,-331,-329,-327,-325,-324,-323,-322,-322,-321,-319,-317,-315,-313,-312,-311,-312,-312,-313,-314,-315,-316,-315,-314,-313,-312,-311,-310,-309,-307,-305,-302,-294,-273,-252,-227,-204,-186,-166,-149,-135,-122,-112,-99,-84,-67,-45,-18,8,34,55,70,86,94,100,105,108,109,109,104,98,90,84,79,73,67,61,56,53,53,54,56,59,65,72,81,98,138,159,168,175,181,187,192,195,197,198,197,197,194,190,185,180,175,168,162,152,132,119,111,106,103,100,96,93,89,86,83,79,76,73,70,67,64,58,53,49,48,49,54,60,69,82,101,109,114,116,119,120,122,122,123,123,123,124,124,123,122,122,121,121,120,120,120,120,120,121,123,125,128,130,133,134,136,138,140,143,145,148,150,153,156,160,163,166,169,171,173,173,174,175,175,176,178,180,182,183,183,181,175,168,158,142,110,87,73,66,63,61,61,60,59,59,58,57,57,58,59,61,64,67,71,73,70,64,56,48,40,31,17,3,-1,-5,-9,-13,-16,-19,-21,-22,-24,-25,-27,-28,-28,-27,-26,-25,-24,-23,-22,-21,-21,-20,-20,-20,-20,-20,-21,-21,-21,-21,-22,-22,-23,-24,-26,-27,-29,-30,-32,-33,-34,-36,-37,-38,-39,-40,-42,-43,-44,-45,-45,-45,-45,-44,-43,-41,-38,-34,-30,-25,-19,-12,1,14,27,40,52,64,75,80,84,87,90,92,93,95,97,98,98,98,98,97,96,95,93,90,87,84,80,76,72,67,60,52,45,39,33,28,24,21,20,18,17,17,16,16,16,16,15,14,13,11,10,10,9,8,6,4,1,-2,-7,-15,-35,-51,-68,-83,-92,-95,-97,-98,-99,-100,-100,-101,-102,-103,-105,-107,-109,-111,-112,-113,-115,-117,-120,-126,-136,-143,-139,-128,-98,-14,113,289,503,727,913,982,967,824,584,314,61,-130,-248,-280,-290,-295,-297,-295,-286,-276,-270,-264,-259,-255,-251,-246,-241,-237,-234,-231,-228,-225,-222,-218,-215,-211,-208,-204,-199,-195,-190,-185,-180,-173,-165,-155,-148,-141,-136,-131,-126,-120,-114,-107,-99,-90,-82,-72,-62,-53,-44,-36,-29,-23,-18,-12,-7,-2,2,6,11,17,22,28,34,41,48,55,62,69,77,84,91,93,92,87,81,73,63,47,33,24,16,11,7,5,3,2,0,-1,-2,-4,-6,-9,-11,-13,-15,-17,-19,-20,-20,-21,-22,-23,-24,-25,-27,-28,-29,-31,-32,-33,-33,-33,-33,-33,-32,-31,-30,-30,-29,-29,-28,-28,-27,-27,-28,-28,-29,-29,-30,-30,-31,-31,-31,-30,-29,-28,-27,-26,-25,-24,-22,-20,-19,-17,-15,-13,-11,-10,-8,-7,-4,-2,0,2,4,5,6,6,6,5,3,1,-1,-4,-7,-9,-11,-14,-17,-21,-24,-24,-21,-16,-8,0,8,22,35,47,54,59,63,66,69,71,73,73,72,69,66,61,57,53,49,43,36,28,19,11,6,1,-2,-7,-11,-14,-18,-21,-24,-27,-30,-32,-35,-37,-39,-42,-46,-51,-55,-56,-55,-52,-48,-43,-37,-30,-20,-9,1,12,22,30,37,45,52,58,63,67,71,75,79,81,83,83,82,79,75,71,66,60,54,44,36,32,30,28,26,24,23,22,21,21,21,22,23,26,29,33,38,45,60,85,98,106,111,111,107,101,88,89,121,205,342,530,744,944,1085,1124,1041,845,583,314,98,-27,-50,-57,-36,-17,-5,4,11,18,22,26,28,30,34,37,39,40,40,40,39,38,35,31,27,21,15,9,4,-4,-14,-19,-21,-23,-23,-25,-27,-29,-29,-24,-19,-16,-14,-12,-10,-8,-7,-5,-4,-2,-2,-1,-2,-2,-3,-2,-2,-1,0,0,0,2,4,6,8,11,13,16,20,28,38,47,58,72,89,95,98,100,102,103,105,105,106,107,109,110,112,113,114,114,114,115,116,117,118,118,117,114,110,106,103,100,97,93,90,87,85,83,82,80,80,80,82,84,87,91,95,99,104,113,130,143,151,158,163,166,166,163,158,151,139,116,99,89,78,66,56,48,41,34,28,21,16,10,5,1,-4,-9,-15,-19,-23,-26,-30,-32,-35,-36,-37,-36,-35,-34,-33,-32,-31,-31,-31,-30,-29,-28,-27,-26,-24,-23,-21,-19,-17,-16,-14,-13,-10,-7,-1,10,17,20,23,26,29,29,23,15,9,3,-2,-9,-16,-23,-27,-31,-34,-36,-39,-42,-44,-47,-50,-53,-56,-58,-61,-62,-64,-66,-67,-70,-72,-74,-77,-79,-82,-84,-86,-88,-89,-89,-89,-88,-87,-86,-85,-84,-82,-81,-80,-79,-77,-76,-75,-73,-69,-64,-62,-64,-69,-77,-91,-114,-124,-127,-130,-133,-136,-138,-139,-141,-142,-142,-143,-145,-146,-147,-147,-147,-147,-146,-145,-144,-143,-141,-139,-137,-134,-130,-126,-99,-30,81,236,425,623,787,872,839,680,440,185,-43,-208,-299,-317,-323,-306,-277,-249,-226,-203,-192,-187,-184,-181,-179,-175,-171,-168,-165,-161,-157,-152,-144,-135,-127,-119,-112,-105,-99,-93,-85,-78,-72,-69,-66,-63,-61,-59,-57,-55,-54,-52,-50,-49,-47,-46,-45,-43,-43,-42,-40,-38,-34,-28,-22,-15,-10,-5,-2,1,5,8,12,15,19,23,28,33,36,36,31,24,16,7,-5,-14,-18,-21,-25,-27,-30,-33,-35,-37,-39,-40,-42,-44,-45,-44,-43,-41,-40,-39,-38,-37,-36,-35,-34,-34,-34,-36,-37,-39,-40,-41,-42,-44,-46,-47,-47,-47,-47,-47,-47,-45,-43,-40,-36,-33,-29,-26,-22,-18,-14,-11,-8,-6,-4,-2,0,4,9,17,25,35,44,51,58,63,66,69,72,74,76,78,78,76,74,71,67,64,58,53,53,59,66,71,76,81,85,89,93,97,101,104,108,112,117,120,121,120,116,110,103,96,87,78,71,66,62,60,57,55,53,52,51,50,49,47,46,45,44,43,43,42,41,41,40,40,40,39,38,36,36,36,37,38,40,43,45,47,50,54,58,59,59,58,57,55,53,52,51,49,47,46,46,46,46,48,50,53,58,62,68,77,85,92,97,102,106,109,111,109,104,98,90,80,64,52,45,40,36,33,30,27,25,22,20,18,15,13,10,8,4,2,0,-2,-4,-6,-8,-12,-16,-26,-38,-44,-47,-26,37,150,307,504,724,928,1049,1059,986,780,515,250,32,-107,-152,-168,-167,-155,-150,-149,-146,-145,-143,-141,-140,-139,-137,-136,-135,-135,-134,-133,-132,-131,-130,-128,-127,-126,-126,-125,-125,-125,-125,-125,-124,-123,-122,-120,-118,-116,-114,-112,-110,-109,-107,-106,-105,-104,-103,-102,-100,-99,-97,-95,-93,-90,-87,-83,-80,-77,-73,-70,-65,-60,-55,-51,-48,-46,-43,-41,-40,-39,-38,-37,-35,-34,-32,-31,-30,-29,-29,-29,-29,-30,-30,-30,-30,-30,-31,-31,-31,-31,-32,-33,-34,-36,-38,-41,-43,-45,-46,-47,-48,-50,-50,-51,-53,-54,-56,-58,-61,-63,-65,-66,-67,-68,-68,-68,-67,-65,-63,-62,-60,-59,-56,-53,-49,-45,-41,-36,-25,-14,-2,9,15,20,24,28,31,35,37,39,41,43,46,48,50,51,51,51,51,51,51,51,51,51,52,53,54,56,58,60,61,61,61,60,59,57,55,53,51,50,49,48,47,47,47,47,47,46,45,43,40,37,35,32,30,27,26,24,24,23,22,22,21,19,19,17,16,15,13,11,10,9,9,8,7,6,5,4,4,4,5,5,5,5,5,6,6,6,6,7,7,8,10,11,13,15,17,19,22,26,29,32,35,38,46,54,61,65,68,70,73,77,80,83,85,84,80,74,66,58,49,38,27,18,10,4,0,-2,-4,-7,-9,-11,-12,-14,-16,-17,-19,-20,-21,-21,-22,-23,-24,-25,-26,-29,-37,-25,10,81,192,351,559,789,999,1120,1125,1031,801,512,226,7,-119,-152,-163,-161,-146,-136,-129,-123,-117,-110,-104,-99,-97,-94,-92,-91,-90,-89,-88,-88,-88,-87,-86,-85,-85,-86,-86,-86,-86,-86,-87,-87,-87,-87,-86,-85,-84,-83,-82,-81,-80,-79,-78,-77,-77,-77,-76,-75,-74,-73,-72,-71,-70,-68,-65,-63,-60,-57,-56,-53,-47,-38,-31,-27,-23,-20,-19,-17,-15,-13,-11,-10,-10,-9,-8,-7,-6,-5,-5,-4,-4,-3,-2,-1,-1,-1,0,0,0,2,3,4,5,5,4,2,0,-5,-11,-19,-33,-40,-44,-47,-50,-52,-52,-49,-44,-38,-32,-27,-21,-14,-9,-8,-8,-9,-9,-9,-8,-8,-7,-7,-8,-9,-10,-10,-10,-11,-12,-13,-13,-13,-13,-12,-12,-12,-11,-11,-10,-9,-8,-7,-6,-5,-4,-4,-3,-1,0,1,3,6,11,17,26,41,56,65,72,77,81,83,84,85,85,85,85,85,85,86,86,87,87,88,89,88,87,86,84,83,81,79,78,77,76,76,77,77,77,78,77,76,75,74,72,70,68,67,66,67,68,69,71,73,75,77,79,80,80,81,82,83,84,85,87,88,91,93,95,97,99,100,102,103,104,104,105,106,107,109,111,113,116,118,122,131,138,144,147,150,153,155,156,155,152,147,141,133,123,114,106,99,91,83,76,72,69,67,65,63,61,59,56,52,48,45,41,38,34,28,22,18,16,17,20,25,31,55,133,261,450,688,940,1155,1270,1275,1184,977,729,475,256,101,19,2,-4,-2,10,28,54,83,96,100,103,101,92,80,60,42,28,16,5,-2,-11,-19,-25,-30,-35,-41,-48,-55,-59,-62,-66,-69,-72,-75,-77,-78,-79,-80,-81,-82,-83,-84,-85,-87,-90,-92,-92,-91,-88,-83,-79,-77,-75,-72,-70,-67,-64,-61,-60,-58,-57,-57,-56,-56,-56,-56,-57,-57,-58,-59,-59,-59,-60,-60,-61,-62,-64,-67,-68,-69,-67,-65,-64,-63,-62,-61,-60,-59,-58,-57,-57,-56,-56,-56,-58,-60,-62,-64,-67,-69,-71,-73,-75,-77,-78,-80,-82,-83,-85,-87,-88,-89,-89,-89,-89,-88,-87,-85,-83,-81,-78,-76,-73,-65,-55,-49,-46,-43,-41,-40,-39,-37,-35,-33,-31,-30,-30,-29,-28,-27,-26,-25,-24,-23,-22,-20,-19,-16,-14,-12,-10,-7,-4,0,1,3,3,3,4,4,5,6,6,7,7,8,9,10,12,14,17,18,20,21,23,25,26,28,29,30,31,32,33,34,35,38,41,40,35,29,24,19,14,12,13,15,18,19,20,22,23,24,26,27,28,28,28,27,27,26,25,24,23,22,21,21,20,20,19,18,17,16,16,16,17,19,22,26,31,40,49,55,60,63,65,67,68,69,71,73,72,65,57,48,40,29,14,0,-10,-14,-16,-17,-17,-17,-16,-16,-16,-17,-17,-19,-20,-21,-21,-22,-23,-24,-25,-26,-28,-31,-37,-41,-37,-24,10,94,234,421,626,817,948,984,907,720,464,202,-14,-161,-231,-242,-229,-188,-151,-128,-122,-118,-115,-112,-110,-107,-106,-104,-103,-103,-103,-102,-102,-101,-100,-99,-97,-96,-94,-92,-90,-88,-86,-85,-83,-80,-76,-71,-67,-68,-70,-75,-79,-82,-85,-89,-92,-94,-93,-91,-86,-82,-78,-73,-67,-62,-58,-54,-51,-47,-43,-39,-36,-33,-31,-30,-28,-27,-26,-25,-24,-24,-24,-24,-25,-25,-26,-27,-29,-30,-32,-35,-39,-41,-38,-30,-23,-17,-11,-6,-1,5,15,25,34,41,47,52,58,66,77,85,92,98,102,106,108,109,110,111,112,113,114,115,115,116,116,116,116,115,115,114,112,110,108,106,103,101,98,94,85,78,72,68,64,61,59,59,61,63,67,73,82,93,103,112,117,120,122,123,124,125,125,126,127,127,128,129,130,131,131,132,133,134,136,137,139,141,142,145,147,150,150,148,144,140,135,127,118,106,90,74,56,47,44,41,40,38,37,35,33,31,29,27,24,22,19,15,9,4,0,-4,-8,-11,-14,-17,-19,-21,-23,-25,-26,-27,-28,-29,-31,-32,-33,-34,-35,-36,-37,-38,-40,-41,-41,-41,-40,-39,-37,-35,-33,-30,-27,-24,-22,-19,-14,-9,-5,-3,-2,-1,0,2,4,-3,-13,-20,-27,-33,-40,-47,-57,-64,-69,-73,-77,-80,-82,-85,-88,-90,-92,-90,-86,-82,-78,-73,-69,-68,-70,-74,-81,-93,-110,-120,-128,-120,-97,-37,66,225,436,670,880,1002,1012,939,736,468,200,-13,-149,-222,-241,-247,-237,-226,-217,-206,-195,-184,-173,-168,-164,-161,-159,-157,-154,-151,-149,-146,-144,-141,-137,-133,-129,-125,-123,-120,-118,-116,-113,-112,-111,-111,-112,-113,-114,-115,-117,-121,-120,-110,-102,-94,-88,-86,-85,-84,-84,-83,-81,-80,-78,-75,-71,-68,-64,-59,-54,-50,-46,-42,-37,-33,-29,-25,-20,-16,-13,-11,-9,-8,-7,-6,-5,-4,-3,-2,-1,0,0,1,1,2,2,2,2,2,1,0,0,-2,-4,-6,-8,-10,-12,-13,-15,-16,-18,-19,-22,-25,-28,-31,-34,-36,-36,-36,-34,-32,-28,-24,-19,-14,-7,0,7,14,24,36,42,45,47,49,50,51,52,51,51,50,49,48,47,46,43,41,40,41,43,45,48,50,52,55,57,58,57,53,48,42,36,30,24,19,14,9,5,4,3,2,1,0,0,0,-1,-2,-3,-4,-5,-6,-7,-7,-8,-8,-8,-8,-8,-8,-9,-10,-11,-11,-12,-13,-14,-15,-15,-15,-14,-13,-11,-10,-10,-9,-8,-7,-7,-6,-6,-5,-3,0,0,-5,-11,-15,-18,-21,-24,-26,-26,-26,-24,-22,-18,-15,-13,-11,-10,-9,-8,-7,-5,-3,-2,0,0,1,2,3,4,6,7,9,11,14,19,31,41,55,75,93,107,121,136,149,160,164,167,170,172,174,175,175,175,175,175,173,171,167,164,160,156,153,149,144,139,135,132,129,127,125,122,118,112,109,112,118,136,196,291,436,638,880,1114,1287,1350,1281,1093,829,546,299,118,14,-17,-28,-28,-14,2,17,19,20,21,22,22,17,12,7,1,-4,-11,-17,-23,-28,-34,-40,-47,-54,-60,-66,-72,-76,-79,-81,-83,-85,-87,-88,-90,-92,-94,-95,-97,-98,-100,-101,-102,-104,-105,-107,-111,-115,-118,-120,-119,-116,-113,-109,-105,-101,-97,-93,-89,-84,-78,-70,-54,-28,-4,17,30,38,45,54,63,74,90,103,115,128,143,155,166,171,166,156,140,119,103,92,77,67,60,54,48,43,38,34,28,23,17,11,4,-2,-8,-16,-23,-27,-30,-33,-35,-38,-40,-42,-44,-45,-46,-47,-47,-47,-47,-47,-46,-45,-44,-42,-40,-38,-35,-33,-31,-28,-26,-23,-20,-16,-12,-9,-6,-4,-3,-3,-4,-5,-8,-11,-15,-20,-24,-29,-37,-44,-50,-55,-58,-61,-64,-66,-68,-70,-71,-71,-70,-68,-67,-64,-61,-58,-54,-48,-41,-33,-23,-6,17,40,62,78,91,104,118,132,146,157,166,173,179,185,194,205,211,215,218,221,222,222,218,212,204,189,166,146,126,110,98,84,71,57,43,32,23,17,15,14,13,11,10,10,12,15,19,21,22,24,25,26,27,28,29,29,29,28,26,24,23,21,20,19,17,15,13,12,11,9,8,6,5,4,2,1,-1,-4,-12,-19,-28,-41,-59,-71,-78,-84,-93,-102,-106,-109,-112,-114,-116,-118,-120,-122,-123,-125,-127,-128,-129,-129,-130,-130,-131,-133,-135,-141,-140,-129,-98,-21,107,289,514,752,952,1033,1022,887,636,347,83,-113,-226,-253,-262,-265,-260,-250,-237,-222,-214,-209,-206,-205,-203,-199,-195,-192,-189,-187,-185,-184,-183,-181,-179,-177,-175,-172,-170,-168,-165,-163,-161,-160,-160,-159,-158,-156,-154,-152,-150,-148,-146,-144,-141,-139,-137,-136,-135,-134,-133,-132,-130,-129,-126,-124,-120,-116,-111,-106,-101,-97,-93,-90,-88,-86,-84,-82,-81,-80,-79,-78,-77,-76,-75,-74,-73,-73,-72,-71,-69,-68,-68,-67,-66,-65,-64,-63,-63,-63,-64,-64,-64,-63,-63,-63,-62,-61,-60,-59,-59,-62,-67,-74,-79,-83,-87,-92,-96,-99,-102,-102,-101,-99,-95,-91,-86,-81,-77,-73,-69,-65,-61,-58,-54,-50,-47,-45,-43,-42,-40,-39,-38,-37,-37,-37,-37,-36,-35,-34,-33,-31,-28,-24,-20,-16,-12,-9,-6,-3,0,2,4,7,9,11,14,16,19,20,22,23,24,25,26,27,28,30,32,34,36,40,44,48,51,55,58,61,64,65,66,66,67,67,67,67,67,67,67,66,66,65,65,64,64,64,64,64,64,64,63,63,63,63,64,64,65,66,68,70,72,73,75,76,78,79,80,82,83,85,89,93,98,103,109,114,119,126,134,144,159,173,185,197,210,223,236,244,250,256,260,263,264,263,261,256,251,244,234,217,202,187,172,156,141,128,117,108,98,89,78,64,56,50,45,41,37,33,29,27,25,22,19,13,5,-1,-6,-13,-20,-18,3,63,185,371,611,867,1084,1174,1165,1031,793,522,281,115,51,28,28,46,72,104,138,169,185,195,201,205,205,202,195,186,173,154,139,125,110,95,84,77,71,65,59,53,48,42,34,26,18,10,2,-7,-11,-6,4,21,45,87,129,171,211,256,280,297,309,309,297,279,255,231,207,189,174,158,144,132,120,107,98,90,84,78,73,68,63,59,57,56,54,54,53,53,53,53,52,52,52,52,51,50,49,49,49,48,48,48,47,46,44,42,37,27,17,8,-1,-10,-21,-33,-44,-53,-61,-68,-75,-83,-93,-97,-99,-100,-101,-102,-103,-103,-103,-100,-96,-91,-86,-81,-76,-69,-62,-55,-48,-43,-40,-38,-35,-32,-30,-28,-26,-24,-22,-21,-19,-17,-17,-17,-17,-17,-17,-18,-19,-20,-22,-24,-27,-29,-32,-34,-37,-40,-43,-45,-47,-49,-51,-53,-55,-57,-59,-60,-62,-63,-64,-66,-68,-69,-71,-71,-72,-73,-73,-73,-73,-73,-72,-72,-72,-72,-71,-71,-70,-69,-68,-68,-66,-65,-63,-61,-60,-58,-57,-57,-56,-55,-54,-53,-52,-50,-49,-47,-45,-44,-44,-44,-45,-46,-48,-50,-51,-53,-54,-55,-56,-57,-58,-59,-60,-61,-62,-62,-62,-60,-58,-54,-49,-44,-36,-22,-8,3,13,21,27,32,38,40,33,20,10,1,-5,-12,-18,-23,-26,-29,-32,-34,-37,-39,-41,-41,-41,-41,-40,-40,-40,-40,-39,-39,-39,-39,-39,-39,-38,-35,-34,-37,-45,-52,-61,-60,-40,13,130,296,494,695,857,937,898,740,503,239,10,-150,-226,-250,-238,-217,-195,-173,-153,-134,-115,-104,-100,-96,-93,-91,-88,-85,-82,-80,-77,-75,-73,-72,-71,-70,-69,-68,-66,-65,-64,-62,-60,-58,-57,-56,-55,-54,-53,-52,-51,-50,-49,-47,-46,-43,-41,-39,-36,-33,-30,-25,-21,-17,-13,-10,-7,-5,-4,-2,-1,0,0,1,2,3,5,6,7,7,8,8,9,10,11,10,10,10,10,11,12,12,12,12,12,12,11,11,9,8,6,4,2,1,0,-2,-3,-5,-7,-9,-12,-14,-17,-21,-24,-28,-32,-36,-40,-43,-46,-48,-50,-50,-50,-49,-48,-46,-44,-41,-38,-35,-32,-29,-26,-24,-22,-20,-18,-15,-12,-10,-8,-6,-4,-2,-1,0,0,0,0,0,0,1,1,1,1,2,2,1,1,1,0,-1,-3,-4,-5,-6,-7,-8,-8,-9,-9,-8,-8,-8,-9,-10,-11,-12,-12,-13,-13,-14,-14,-14,-13,-12,-11,-10,-9,-8,-8,-8,-8,-8,-9,-10,-11,-11,-12,-12,-12,-12,-11,-10,-9,-7,-6,-5,-4,-3,-3,-3,-2,-1,-1,0,0,0,0,1,2,2,2,2,2,2,2,2,1,1,2,2,2,3,4,5,7,9,11,13,16,19,22,26,31,35,40,49,58,66,70,70,71,71,71,71,71,70,68,59,48,37,24,15,9,4,1,0,-1,-2,-2,-1,-1,0,0,-1,-2,-3,-4,-4,-4,-5,-5,-6,-7,-8,-10,-11,-16,-27,-17,14,98,230,409,621,836,1006,1062,1043,888,645,387,158,-12,-102,-135,-137,-120,-107,-99,-91,-85,-78,-74,-72,-70,-69,-67,-65,-64,-64,-63,-63,-63,-63,-63,-62,-62,-61,-61,-60,-59,-58,-57,-56,-54,-53,-52,-51,-50,-49,-48,-47,-45,-44,-43,-41,-40,-39,-37,-35,-34,-32,-31,-29,-26,-22,-19,-14,-11,-7,-3,0,3,7,11,15,19,23,28,33,37,40,42,42,43,43,43,44,44,44,45,45,45,45,45,45,45,44,43,41,37,34,30,27,23,19,14,10,6,2,0,-3,-6,-8,-10,-12,-14,-16,-17,-19,-21,-23,-25,-26,-27,-27,-28,-28,-28,-28,-27,-25,-24,-22,-21,-20,-17,-15,-12,-9,-6,-3,2,8,14,19,22,25,27,29,31,32,33,34,34,34,34,34,34,34,34,35,35,35,34,34,33,32,32,31,30,28,27,26,25,24,23,22,21,20,19,19,18,18,17,16,16,15,15,15,14,13,12,12,12,11,10,9,8,7,7,7,8,7,7,6,6,6,6,6,5,5,5,5,5,5,5,5,5,6,6,6,6,5,4,3,3,2,1,0,0,-1,-2,-4,-5,-6,-7,-7,-6,-5,-3,-1,2,5,8,11,14,18,21,25,28,32,34,36,37,39,41,43,45,47,48,48,49,48,47,44,40,35,31,27,23,19,15,10,6,3,1,0,0,0,0,0,0,-1,-1,-1,-2,-3,-3,-3,-3,-3,-2,-1,2,6,10,28,87,195,358,565,793,1004,1137,1147,1069,856,589,321,103,-36,-79,-93,-100,-103,-101,-98,-94,-90,-86,-83,-79,-74,-68,-62,-58,-56,-53,-51,-49,-47,-45,-43,-41,-39,-38,-37,-37,-36,-36,-37,-37,-37,-38,-37,-37,-37,-36,-36,-36,-35,-35,-34,-34,-32,-30,-27,-24,-21,-19,-17,-15,-12,-10,-7,-4,-2,0,2,5,8,10,12,13,15,17,20,23,26,30,33,35,38,40,42,44,46,48,51,54,57,61,65,69,72,77,82,85,86,84,81,77,72,66,57,49,41,36,31,27,23,20,16,13,9,3,-2,-7,-10,-13,-14,-16,-18,-20,-22,-23,-25,-26,-28,-31,-34,-36,-37,-37,-36,-35,-34,-33,-31,-29,-27,-26,-25,-25,-25,-25,-26,-26,-27,-28,-29,-30,-30,-31,-31,-32,-33,-34,-34,-35,-36,-38,-39,-40,-42,-43,-45,-47,-48,-51,-52,-54,-56,-60,-64,-69,-74,-78,-82,-84,-87,-89,-91,-92,-92,-91,-90,-89,-88,-86,-86,-85,-84,-83,-82,-82,-82,-82,-82,-83,-83,-83,-82,-81,-81,-80,-79,-77,-76,-74,-73,-72,-71,-69,-67,-65,-63,-61,-59,-57,-54,-51,-49,-47,-45,-44,-43,-41,-39,-37,-34,-31,-28,-26,-23,-21,-19,-17,-15,-12,-9,-7,-3,0,3,8,13,19,25,30,40,56,68,77,88,97,105,109,110,111,113,114,114,114,111,107,102,96,86,77,69,63,57,53,50,48,45,43,41,40,41,42,45,47,50,53,57,61,65,67,70,74,78,68,55,45,55,86,184,350,577,837,1074,1232,1269,1165,946,674,402,173,14,-66,-84,-84,-65,-39,-24,-13,-6,-4,-6,-11,-14,-18,-21,-22,-21,-16,-10,-3,4,11,15,18,21,23,25,27,28,29,30,30,31,32,33,35,38,40,40,38,35,32,29,27,25,25,26,29,34,42,55,69,83,97,110,123,137,145,149,152,155,156,156,155,153,149,146,144,141,138,134,130,124,119,115,112,109,107,105,103,101,100,98,96,95,93,92,91,90,88,86,81,72,64,56,47,36,27,19,12,6,2,-1,-4,-7,-11,-16,-22,-30,-39,-48,-55,-61,-66,-71,-74,-75,-75,-75,-75,-75,-75,-75,-75,-73,-68,-62,-58,-55,-54,-52,-50,-49,-48,-47,-47,-46,-46,-45,-45,-45,-45,-46,-46,-45,-45,-45,-45,-46,-46,-46,-45,-45,-45,-45,-45,-44,-43,-42,-41,-40,-38,-37,-36,-34,-32,-30,-25,-12,-5,-1,1,4,8,13,18,24,30,37,44,52,65,85,103,120,129,133,137,139,140,140,139,135,131,125,117,104,96,90,86,80,74,67,58,47,38,31,25,18,8,2,-1,-5,-8,-11,-14,-17,-20,-23,-25,-28,-30,-33,-34,-36,-37,-38,-38,-38,-37,-35,-33,-30,-27,-22,-10,0,14,33,47,56,65,73,80,86,91,93,91,87,81,74,64,55,44,29,13,-3,-15,-21,-26,-32,-38,-43,-46,-49,-52,-55,-56,-57,-56,-54,-52,-49,-46,-43,-40,-37,-33,-30,-26,-23,-20,-15,-8,21,110,255,454,689,922,1093,1149,1067,864,584,291,42,-125,-190,-212,-198,-179,-163,-152,-145,-141,-139,-136,-134,-131,-128,-125,-122,-120,-118,-116,-114,-112,-110,-108,-107,-106,-104,-103,-103,-103,-102,-102,-101,-100,-100,-99,-99,-98,-98,-97,-97,-96,-96,-96,-96,-96,-95,-94,-93,-92,-91,-90,-88,-87,-86,-85,-83,-81,-78,-74,-70,-66,-63,-59,-56,-53,-51,-50,-49,-48,-47,-47,-46,-45,-44,-43,-41,-40,-40,-39,-39,-38,-38,-37,-37,-36,-35,-35,-34,-33,-32,-31,-31,-30,-30,-30,-31,-31,-32,-33,-34,-36,-37,-38,-40,-41,-41,-42,-41,-41,-41,-40,-39,-38,-37,-35,-34,-32,-30,-28,-26,-23,-19,-15,-12,-8,-4,0,3,7,10,13,15,17,20,23,25,27,28,29,29,29,27,26,23,20,18,16,14,11,9,7,5,4,3,4,4,5,7,8,10,12,13,14,16,18,20,21,21,21,19,18,16,15,14,13,12,10,9,8,7,7,7,7,7,8,8,9,9,10,11,12,13,15,16,17,18,19,20,21,21,22,23,24,24,25,25,26,27,28,28,29,29,29,29,29,29,29,29,29,29,29,30,30,31,33,34,34,35,35,36,36,38,39,41,43,45,48,51,55,58,60,63,64,64,62,60,57,53,49,44,38,27,16,6,1,-1,-4,-7,-9,-10,-12,-13,-13,-14,-16,-18,-19,-20,-20,-21,-22,-23,-24,-26,-28,-30,-35,-47,-39,-17,41,139,284,470,679,871,981,984,892,676,413,161,-36,-160,-195,-206,-192,-173,-158,-145,-137,-131,-127,-123,-120,-116,-113,-112,-111,-110,-109,-108,-106,-105,-105,-104,-104,-104,-104,-104,-104,-105,-105,-105,-105,-104,-103,-102,-101,-100,-99,-99,-99,-99,-99,-99,-99,-99,-98,-97,-97,-96,-95,-93,-92,-89,-87,-85,-80,-74,-69,-62,-57,-55,-53,-51,-49,-48,-46,-45,-44,-43,-42,-41,-40,-39,-38,-38,-37,-37,-37,-36,-36,-36,-36,-36,-36,-36,-36,-37,-37,-38,-39,-40,-41,-42,-44,-45,-47,-49,-50,-52,-53,-55,-58,-61,-64,-66,-66,-65,-63,-61,-59,-57,-56,-54,-53,-52,-50,-49,-48,-46,-44,-43,-42,-41,-40,-39,-38,-37,-35,-33,-28,-17,-5,5,17,27,42,58,73,89,102,111,122,133,143,156,165,171,175,178,180,181,181,182,183,184,185,185,185,182,177,171,164,155,147,140,134,127,120,111,104,97,91,87,83,78,72,61,53,47,42,40,40,40,39,38,38,38,42,48,55,64,69,71,72,74,75,76,77,78,79,80,82,83,85,86,87,88,90,91,94,96,98,101,104,109,116,127,139,147,153,157,160,162,163,164,165,166,167,167,168,166,161,155,148,137,123,107,95,94,93,93,92,92,92,92,93,93,94,95,97,100,92,79,63,49,33,16,0,-15,-36,-50,-57,-62,-65,-68,-70,-71,-72,-73,-74,-75,-77,-78,-79,-81,-82,-83,-85,-89,-93,-103,-114,-119,-122,-109,-67,14,151,341,564,786,955,1019,956,777,520,246,13,-143,-224,-242,-248,-251,-254,-254,-254,-253,-250,-246,-243,-237,-228,-217,-208,-201,-196,-193,-191,-190,-188,-186,-185,-185,-185,-185,-185,-184,-184,-183,-182,-182,-181,-180,-179,-177,-176,-174,-171,-168,-164,-154,-145,-137,-129,-121,-115,-110,-105,-100,-94,-86,-77,-66,-55,-44,-33,-22,-9,8,26,44,60,78,95,113,128,140,151,162,172,181,189,198,210,215,219,222,224,227,229,230,231,231,231,231,230,229,228,226,223,220,216,209,190,171,151,134,121,103,92,85,79,74,70,66,64,62,59,55,50,43,36,28,22,17,12,8,4,2,0,0,-2,-4,-7,-10,-11,-11,-10,-9,-9,-8,-7,-4,-2,0,-2,-6,-11,-15,-18,-21,-25,-29,-35,-40,-45,-50,-52,-54,-55,-57,-59,-60,-61,-63,-64,-66,-67,-68,-69,-70,-72,-73,-74,-76,-78,-79,-81,-83,-84,-86,-87,-88,-90,-91,-93,-94,-95,-96,-97,-99,-100,-101,-101,-101,-101,-102,-102,-102,-103,-103,-103,-103,-103,-104,-104,-103,-103,-102,-102,-102,-102,-102,-102,-103,-103,-103,-103,-103,-102,-101,-100,-99,-98,-98,-97,-97,-97,-97,-98,-98,-98,-98,-98,-98,-97,-96,-95,-94,-93,-92,-91,-90,-89,-87,-84,-81,-77,-73,-67,-60,-54,-49,-45,-39,-31,-20,-18,-16,-15,-15,-19,-28,-38,-50,-62,-76,-88,-93,-95,-97,-98,-98,-97,-97,-97,-96,-96,-97,-98,-98,-99,-99,-99,-100,-101,-102,-103,-105,-108,-113,-124,-117,-95,-32,68,212,396,604,811,982,1065,1029,864,609,332,87,-89,-185,-208,-203,-176,-155,-145,-139,-135,-131,-126,-122,-117,-108,-90,-76,-65,-55,-52,-51,-50,-50,-49,-48,-48,-47,-47,-47,-47,-47,-47,-48,-49,-50,-50,-50,-49,-48,-47,-46,-45,-44,-43,-41,-40,-39,-38,-37,-35,-34,-32,-30,-28,-25,-22,-19,-16,-13,-10,-8,-7,-5,-3,0,2,9,22,33,42,51,61,72,91,115,139,163,185,211,232,246,251,253,256,258,255,239,221,202,188,179,173,167,160,151,142,132,121,112,104,97,86,72,58,49,44,40,37,33,29,24,20,17,15,14,13,11,10,9,8,7,6,6,5,6,6,7,7,7,6,6,6,7,7,6,6,5,4,4,4,4,3,2,1,1,0,0,0,-1,-3,-4,-5,-6,-7,-8,-10,-12,-13,-15,-16,-18,-20,-22,-24,-25,-27,-29,-31,-33,-35,-37,-40,-42,-44,-46,-47,-48,-49,-49,-48,-48,-48,-47,-47,-46,-46,-47,-47,-47,-47,-46,-46,-46,-46,-45,-44,-43,-42,-40,-37,-33,-28,-24,-20,-17,-14,-11,-8,-5,-1,0,2,4,5,6,5,4,3,1,1,0,0,-1,-2,-3,-4,-6,-7,-8,-10,-12,-14,-15,-14,-12,-9,-4,0,6,13,23,31,34,35,36,37,38,38,39,38,36,31,25,18,11,0,-8,-13,-17,-19,-20,-21,-22,-23,-24,-24,-23,-23,-22,-21,-20,-18,-16,-14,-11,-10,-10,-13,-18,-24,-30,-40,-41,-31,-3,53,154,311,520,751,953,1059,1062,966,736,446,160,-58,-183,-223,-225,-195,-145,-117,-87,-63,-44,-23,-1,22,44,59,68,74,78,81,82,78,69,59,52,47,41,36,31,26,22,18,15,13,10,8,6,3,1,-1,-3,-4,-3,0,3,9,14,18,22,26,29,32,35,37,38,40,42,44,47,49,51,52,54,56,58,60,62,63,64,65,67,70,72,74,75,77,78,79,79,78,77,75,73,72,71,70,69,68,68,68,67,66,65,63,60,58,55,52,48,44,40,37,34,31,28,24,19,15,11,9,7,6,6,6,7,9,10,12,13,13,13,13,14,14,15,15,15,16,17,19,20,20,20,19,19,18,18,17,17,17,17,18,18,19,19,19,18,18,17,17,15,14,12,11,9,8,7,6,4,2,1,0,0,-1,-3,-4,-5,-6,-7,-8,-8,-10,-11,-12,-13,-14,-15,-15,-15,-16,-16,-16,-16,-16,-17,-17,-18,-19,-21,-22,-22,-23,-23,-22,-22,-21,-21,-20,-19,-18,-18,-18,-18,-17,-17,-16,-15,-15,-14,-14,-14,-14,-14,-15,-15,-16,-18,-18,-18,-18,-17,-16,-15,-13,-11,-9,-7,-5,-3,-2,0,0,2,4,7,11,16,20,23,26,27,28,28,27,25,21,16,12,7,2,-2,-8,-19,-29,-33,-36,-38,-41,-43,-45,-46,-46,-44,-40,-35,-31,-26,-20,-13,-8,-5,-6,-8,-12,-16,-24,-35,-16,41,154,323,535,759,946,1027,1019,895,653,377,135,-31,-86,-106,-112,-107,-97,-91,-86,-82,-78,-73,-67,-60,-52,-45,-40,-36,-32,-27,-23,-19,-16,-13,-11,-9,-8,-7,-7,-7,-7,-8,-8,-8,-8,-7,-5,-4,-2,0,1,3,6,8,11,13,16,19,22,25,27,30,32,35,37,40,42,45,46,48,50,53,56,58,61,63,64,66,68,69,71,72,73,74,75,76,77,78,79,79,80,80,80,80,79,79,79,78,77,77,75,74,72,71,69,68,66,64,63,62,61,60,58,56,54,52,50,47,45,42,41,41,41,41,42,44,45,47,50,53,57,65,85,119,161,214,278,359,453,556,662,772,882,989,1095,1202,1303,1393,1469,1530,1572,1586,1563,1495,1324,1078,781,472,198,-11,-140,-196,-217,-229,-244,-262,-277,-288,-300,-310,-318,-324,-328,-330,-333,-335,-338,-337,-330,-322,-313,-304,-297,-295,-293,-293,-291,-290,-289,-288,-287,-287,-286,-285,-285,-285,-285,-287,-289,-291,-293,-295,-297,-300,-303,-305,-307,-309,-311,-314,-317,-319,-322,-324,-324,-325,-324,-323,-321,-318,-314,-309,-302,-287,-275,-265,-256,-247,-236,-221,-197,-172,-147,-123,-104,-82,-58,-30,-4,10,23,32,41,52,69,77,80,83,85,88,89,90,91,92,93,93,94,93,92,92,91,91,90,90,89,88,87,87,87,86,85,84,83,82,80,79,77,74,70,67,64,60,54,49,48,48,48,48,48,48,47,47,46,46,46,45,45,44,43,43,42,42,41,40,39,39,38,37,35,34,33,32,31,31,30,30,29,29,28,28,27,26,25,24,23,23,22,21,21,20,20,19,19,19,18,18,17,17,16,16,16,17,18,19,19,20,21,21,21,22,22,22,22,23,26,29,30,28,26,25,24,23,21,20,19,18,17,17,18,18,18,18,19,19,19,19,18,18,17,17,18,18,18,18,18,19,19,20,21,21,21,21,22,24,24,23,21,18,17,15,14,12,10,8,6,5,4,3,3,2,2,3,3,3,3,3,3,4,3,2,1,1,0,0,0,0,0,1,1,1,2,3,4,5,5,5,6,7,7,8,8,9,9,10,11,11,12,13,13,14,15,16,16,16,17,17,18,19,20,21,22,23,24,25,26,27,28,29,30,31,33,35,38,40,42,43,43,43,42,41,39,38,35,31,36,42,46,48,46,43,41,40,38,37,36,35,35,35,35,36,37,38,39,40,41,42,43,45,48,51,55,59,66,77,86,92,98,102,104,106,107,109,110,111,109,105,99,91,80,69,58,47,37,31,28,26,24,23,21,19,17,15,13,11,8,6,1,-2,-6,-10,-14,-18,-24,-24,-13,16,94,223,408,634,871,1072,1160,1152,1022,784,517,272,74,-64,-139,-158,-165,-165,-156,-129,-98,-88,-85,-84,-83,-83,-82,-81,-79,-77,-75,-73,-71,-69,-67,-65,-63,-63,-63,-62,-62,-61,-61,-61,-62,-62,-63,-63,-62,-61,-59,-57,-54,-51,-48,-45,-42,-39,-36,-33,-29,-26,-23,-20,-18,-17,-15,-13,-11,-10,-9,-7,-6,-4,-3,-2,-2,-2,-2,-2,-2,-2,-1,0,0,0,2,4,7,11,15,19,22,25,28,31,34,37,40,43,46,49,51,54,56,58,61,64,66,68,69,67,65,61,58,56,54,52,51,48,46,43,41,39,38,37,36,35,35,35,36,37,37,38,38,38,38,38,38,39,39,40,42,43,45,46,47,48,48,49,49,49,50,50,51,52,53,53,52,50,48,45,42,40,39,37,35,34,34,33,33,32,32,31,30,30,30,29,28,27,27,26,26,27,27,27,27,26,26,25,25,24,24,23,22,22,22,22,23,22,21,20,20,20,22,25,29,32,33,34,36,37,38,40,40,41,41,41,42,43,43,43,44,44,44,45,45,45,45,44,44,43,44,45,45,46,47,48,49,51,53,54,56,57,60,68,78,85,93,101,111,120,127,135,141,146,149,151,154,158,157,146,135,123,113,103,93,87,83,81,78,77,76,75,75,75,75,76,77,78,79,81,83,85,87,90,96,100,94,82,63,42,25,25,52,132,270,475,722,959,1138,1213,1148,960,693,408,166,5,-54,-76,-77,-64,-45,-23,-4,17,30,35,39,42,45,49,52,55,57,59,61,64,67,70,73,75,77,79,80,82,85,86,88,89,90,92,94,96,97,98,98,98,97,96,94,91,88,84,80,74,61,46,37,32,28,25,23,21,18,16,14,12,10,8,5,3,0,-2,-6,-9,-13,-16,-20,-24,-29,-34,-40,-44,-47,-49,-52,-54,-56,-59,-61,-63,-65,-68,-70,-73,-76,-80,-87,-93,-97,-100,-102,-105,-107,-108,-110,-111,-112,-113,-114,-115,-116,-117,-118,-119,-120,-121,-123,-124,-124,-125,-125,-124,-123,-122,-120,-117,-115,-112,-110,-108,-106,-102,-97,-95,-94,-94,-94,-93,-92,-91,-92,-95,-96,-97,-98,-99,-100,-101,-101,-102,-103,-103,-103,-102,-101,-100,-100,-99,-98,-96,-95,-94,-94,-94,-94,-93,-93,-92,-92,-91,-90,-90,-89,-88,-87,-87,-87,-87,-87,-86,-86,-85,-85,-85,-85,-84,-83,-82,-82,-83,-83,-83,-84,-84,-84,-85,-85,-86,-86,-87,-87,-87,-88,-90,-91,-93,-96,-98,-94,-86,-82,-80,-77,-74,-71,-69,-66,-64,-61,-59,-57,-55,-53,-51,-49,-46,-44,-41,-40,-38,-36,-34,-31,-27,-19,-11,0,13,25,32,38,42,46,49,52,53,53,50,47,42,37,30,22,13,7,1,-3,-6,-7,-8,-8,-8,-7,-7,-7,-7,-7,-7,-7,-8,-8,-9,-10,-11,-13,-15,-20,-32,-44,-51,-43,-17,58,189,376,598,820,1008,1084,1073,941,706,435,181,-10,-128,-163,-175,-167,-155,-142,-127,-112,-102,-97,-93,-91,-90,-91,-92,-93,-96,-99,-98,-89,-82,-76,-72,-72,-72,-73,-73,-73,-74,-78,-81,-82,-84,-85,-86,-87,-87,-88,-88,-88,-87,-86,-83,-81,-79,-76,-74,-69,-65,-60,-56,-51,-47,-44,-40,-37,-33,-29,-26,-23,-21,-19,-17,-15,-14,-12,-11,-10,-10,-9,-9,-9,-8,-7,-5,-2,0,-1,-2,-2,-3,-3,-3,-3,-2,0,3,5,8,10,12,14,17,18,19,18,17,14,12,10,8,5,2,0,-1,-3,-4,-4,-5,-4,-3,-1,1,5,10,14,20,28,35,38,40,41,42,43,44,45,46,47,47,47,47,46,46,45,44,43,42,42,41,41,41,41,40,38,36,35,36,37,39,40,41,42,44,45,46,46,47,47,45,43,41,37,34,30,27,22,13,7,6,6,5,4,3,3,4,7,8,9,11,12,13,13,13,12,10,9,7,6,5,3,3,2,1,1,1,1,2,2,2,2,2,2,2,1,1,0,0,0,0,0,0,0,0,0,0,-1,-2,-3,-4,-5,-5,-6,-6,-6,-6,-5,-4,-2,-1,0,3,5,8,12,20,27,33,37,41,45,47,48,48,47,45,42,38,33,25,15,6,-3,-17,-23,-27,-30,-33,-35,-37,-38,-39,-40,-41,-42,-43,-44,-45,-46,-46,-47,-47,-48,-49,-50,-53,-63,-72,-77,-61,-11,95,265,495,751,981,1093,1091,968,720,429,157,-48,-172,-204,-214,-203,-193,-187,-184,-179,-176,-173,-170,-167,-164,-161,-159,-160,-161,-162,-162,-163,-163,-164,-165,-166,-167,-168,-168,-168,-167,-165,-164,-161,-159,-157,-155,-153,-153,-152,-152,-152,-152,-151,-151,-150,-149,-148,-146,-145,-144,-144,-143,-142,-142,-140,-139,-137,-135,-132,-129,-123,-117,-113,-109,-106,-104,-103,-102,-101,-100,-98,-97,-96,-95,-93,-92,-91,-89,-87,-85,-83,-80,-73,-65,-57,-49,-41,-31,-21,-16,-13,-10,-8,-6,-5,-3,-2,-1,0,1,2,3,4,5,7,8,9,11,13,15,17,19,21,22,23,23,24,25,26,27,28,29,30,33,35,37,39,42,45,49,55,66,74,78,79,80,82,83,84,84,85,86,87,88,90,91,92,92,92,93,93,93,93,93,94,95,97,99,101,103,105,106,107,107,107,107,106,105,104,104,104,104,105,106,107,109,110,111,111,112,111,111,111,112,112,112,112,113,114,116,117,118,120,121,122,123,125,127,129,133,144,154,164,172,180,187,195,203,211,219,227,234,243,252,263,275,284,289,292,295,297,298,296,292,287,281,272,256,243,234,228,224,220,217,214,212,209,207,205,202,199,194,188,182,175,166,158,152,147,138,120,98,79,69,62,56,51,47,44,42,40,40,42,44,47,49,51,53,55,56,56,54,50,46,39,30,30,47,94,193,357,579,828,1053,1207,1239,1138,920,631,346,119,-19,-84,-105,-96,-82,-64,-44,-23,-12,-7,-3,0,3,7,11,14,17,18,20,21,22,23,24,25,27,28,30,31,33,35,37,38,40,42,44,47,50,53,55,57,59,62,63,65,66,68,69,70,71,73,74,76,77,80,82,85,88,91,95,101,107,113,118,122,125,129,133,137,141,144,146,149,150,151,152,154,155,156,157,158,160,161,162,163,163,164,164,163,163,162,161,160,159,158,156,154,153,150,148,145,139,133,127,121,116,112,108,104,100,97,95,95,97,101,106,113,127,149,184,226,277,339,414,498,586,675,765,856,944,1022,1090,1148,1203,1253,1296,1334,1367,1378,1364,1322,1217,1053,844,617,405,227,95,0,-81,-151,-207,-251,-277,-292,-300,-306,-310,-311,-312,-312,-312,-312,-313,-313,-314,-314,-313,-311,-309,-307,-306,-305,-303,-301,-300,-299,-298,-298,-298,-298,-299,-301,-304,-308,-312,-315,-319,-324,-330,-336,-342,-349,-355,-359,-362,-366,-370,-373,-375,-376,-376,-376,-375,-373,-370,-366,-361,-351,-332,-315,-295,-273,-249,-223,-196,-167,-141,-116,-93,-75,-62,-51,-40,-29,-21,-11,0,12,26,42,53,57,59,61,62,60,55,50,46,43,40,37,34,31,28,25,22,19,15,10,5,1,-2,-5,-7,-8,-9,-10,-11,-12,-12,-13,-14,-15,-16,-17,-18,-18,-19,-20,-21,-23,-25,-28,-34,-40,-47,-53,-59,-67,-76,-84,-93,-100,-105,-111,-118,-123,-125,-126,-127,-128,-129,-129,-130,-131,-133,-134,-135,-137,-138,-140,-142,-145,-150,-155,-160,-164,-168,-171,-173,-176,-178,-180,-181,-183,-184,-185,-186,-188,-189,-190,-191,-192,-193,-194,-196,-197,-199,-200,-201,-202,-203,-204,-206,-207,-208,-209,-211,-213,-214,-215,-216,-216,-215,-214,-213,-211,-209,-207,-205,-203,-201,-200,-197,-195,-192,-189,-188,-189,-190,-191,-193,-196,-200,-207,-200,-188,-175,-162,-148,-124,-100,-72,-37,1,37,68,95,124,156,186,211,234,258,271,294,321,350,380,412,443,472,501,527,545,565,581,590,596,600,604,607,610,615,617,614,606,595,579,565,551,528,501,473,455,435,417,390,364,338,312,284,260,246,233,218,202,188,175,161,145,129,112,95,78,62,53,48,44,40,37,33,28,20,11,2,-6,-15,-19,-22,-24,-26,-27,-29,-31,-33,-35,-37,-40,-46,-55,-64,-72,-80,-88,-94,-99,-106,-113,-116,-119,-122,-124,-126,-128,-130,-131,-131,-131,-131,-130,-128,-127,-125,-124,-122,-120,-118,-116,-114,-111,-108,-106,-105,-104,-103,-102,-102,-101,-102,-102,-103,-104,-108,-115,-125,-138,-149,-161,-167,-169,-170,-171,-172,-173,-174,-175,-176,-177,-178,-179,-179,-179,-180,-180,-181,-182,-186,-186,-178,-156,-98,13,185,403,638,836,926,917,776,513,223,-26,-198,-281,-297,-302,-302,-295,-290,-286,-280,-272,-264,-254,-246,-242,-239,-237,-235,-234,-233,-231,-229,-227,-225,-223,-220,-216,-209,-202,-196,-193,-190,-188,-186,-184,-182,-179,-178,-176,-174,-172,-169,-166,-163,-159,-156,-152,-147,-142,-134,-127,-121,-117,-115,-113,-111,-109,-108,-106,-105,-104,-103,-101,-100,-98,-97,-95,-93,-92,-90,-88,-86,-84,-83,-80,-77,-71,-61,-50,-34,-16,0,17,32,44,55,70,88,102,113,122,134,151,166,177,189,197,203,207,209,208,203,196,184,166,152,144,136,127,118,109,103,99,97,95,94,92,90,88,85,83,80,78,76,74,73,73,73,73,73,73,73,72,70,69,67,66,64,64,63,63,63,63,63,63,62,61,59,57,54,48,41,34,27,20,13,6,-1,-8,-11,-14,-16,-18,-19,-20,-21,-22,-23,-24,-25,-26,-27,-29,-31,-33,-35,-36,-38,-39,-40,-40,-41,-42,-43,-44,-46,-48,-49,-50,-51,-50,-50,-49,-48,-47,-45,-43,-42,-41,-41,-40,-40,-39,-38,-37,-37,-36,-36,-36,-36,-36,-37,-38,-39,-41,-41,-42,-42,-42,-43,-43,-42,-42,-42,-42,-43,-44,-45,-44,-39,-34,-28,-23,-18,-12,-7,-2,1,4,7,10,12,15,17,19,19,18,15,11,6,2,0,-2,-5,-7,-10,-12,-15,-17,-18,-20,-21,-23,-24,-25,-26,-28,-30,-32,-34,-37,-39,-42,-44,-46,-48,-55,-63,-50,-10,89,252,475,719,942,1073,1085,1010,800,525,252,27,-126,-212,-230,-236,-219,-200,-186,-176,-170,-164,-159,-154,-148,-142,-137,-133,-130,-128,-126,-123,-120,-118,-115,-113,-112,-110,-109,-108,-107,-106,-105,-104,-103,-102,-102,-101,-100,-100,-99,-98,-97,-96,-94,-93,-92,-90,-89,-87,-86,-84,-83,-80,-77,-74,-70,-67,-64,-61,-59,-56,-53,-48,-41,-37,-35,-34,-34,-33,-33,-33,-33,-33,-33,-32,-31,-30,-29,-28,-26,-25,-23,-21,-20,-18,-16,-14,-12,-10,-9,-8,-7,-6,-6,-5,-5,-5,-5,-6,-6,-6,-7,-8,-8,-9,-9,-10,-10,-9,-9,-8,-7,-5,-3,-1,0,2,6,10,18,27,33,38,43,47,49,52,54,56,57,59,61,63,65,67,68,70,71,73,75,77,80,83,87,90,94,97,100,102,104,106,108,109,111,113,115,118,120,122,124,124,124,121,118,115,110,105,100,95,89,82,75,70,65,61,57,55,53,52,51,49,48,47,46,45,44,44,44,45,46,48,50,52,54,56,57,59,60,61,62,64,66,68,70,73,76,78,79,81,82,83,84,85,86,88,89,92,94,98,102,106,109,113,117,120,123,126,129,132,136,140,143,146,148,149,149,148,146,143,138,133,127,121,114,102,91,80,75,72,69,67,65,64,63,63,62,62,62,61,61,60,60,60,60,60,58,56,54,52,47,37,45,68,149,293,499,744,995,1201,1292,1282,1143,881,590,328,122,-14,-53,-68,-67,-52,-35,-19,-14,-12,-11,-10,-10,-8,-8,-8,-8,-10,-11,-13,-15,-17,-19,-21,-22,-24,-24,-25,-24,-23,-22,-20,-19,-18,-16,-15,-13,-12,-12,-11,-10,-8,-6,-5,-4,-4,-4,-4,-4,-5,-6,-7,-7,-8,-9,-9,-8,-6,-3,0,3,7,10,14,20,24,26,28,29,31,33,35,35,36,35,35,35,34,32,30,31,34,35,37,39,40,42,43,44,44,44,43,41,38,35,32,29,26,23,21,18,16,13,11,8,6,4,2,2,2,3,4,5,6,8,9,10,11,12,13,14,15,17,18,20,22,23,25,26,27,28,30,31,32,34,35,37,37,38,39,40,41,41,42,42,43,43,44,44,45,45,45,45,44,44,43,43,43,43,42,43,43,43,43,43,43,43,43,42,41,41,40,40,40,40,41,41,42,42,43,43,44,44,45,46,47,47,48,49,50,51,52,53,53,54,54,55,55,56,57,57,57,57,57,57,57,57,56,56,55,55,55,55,56,56,57,58,59,61,64,70,78,83,88,93,97,99,99,97,95,91,86,78,66,57,48,38,29,16,1,-12,-29,-43,-52,-60,-69,-77,-86,-94,-101,-107,-113,-119,-126,-134,-141,-148,-154,-159,-163,-167,-171,-176,-179,-179,-175,-165,-138,-65,58,231,426,604,695,694,596,389,137,-100,-280,-385,-410,-409,-389,-369,-346,-325,-307,-289,-274,-255,-244,-240,-236,-234,-231,-228,-226,-224,-222,-220,-217,-211,-200,-189,-180,-174,-168,-161,-155,-149,-142,-136,-130,-125,-118,-111,-103,-94,-88,-84,-80,-77,-73,-70,-67,-63,-56,-45,-35,-22,-5,8,19,31,47,66,77,84,88,93,98,101,104,107,109,111,113,114,114,112,109,106,102,97,91,80,71,63,59,56,53,51,49,47,45,44,44,43,42,40,39,37,34,31,27,23,17,11,6,0,-6,-16,-25,-28,-30,-32,-33,-34,-34,-35,-35,-36,-36,-37,-37,-38,-38,-39,-39,-39,-39,-38,-38,-38,-38,-37,-37,-37,-37,-36,-35,-35,-34,-33,-33,-32,-31,-30,-30,-29,-29,-28,-27,-26,-25,-24,-23,-21,-20,-18,-17,-16,-16,-15,-14,-14,-13,-12,-10,-8,-5,0,4,9,15,21,26,33,40,48,52,54,57,59,61,63,64,66,67,68,69,70,71,71,71,72,72,72,72,72,72,73,73,74,75,76,77,77,78,79,79,80,80,80,80,80,80,80,81,81,82,84,85,87,88,89,90,90,90,90,91,93,94,95,98,102,103,103,100,95,88,75,62,49,34,18,0,-16,-32,-50,-70,-88,-102,-113,-121,-131,-144,-156,-170,-182,-191,-202,-209,-214,-217,-221,-224,-226,-228,-232,-239,-253,-267,-279,-290,-297,-289,-267,-198,-74,100,312,533,718,788,777,649,411,139,-98,-279,-387,-412,-420,-424,-423,-420,-416,-411,-406,-402,-401,-400,-399,-397,-395,-395,-395,-395,-397,-398,-398,-399,-400,-401,-402,-403,-405,-406,-408,-409,-411,-412,-415,-417,-421,-429,-435,-439,-441,-443,-445,-447,-448,-450,-451,-453,-453,-454,-455,-455,-455,-456,-455,-455,-455,-454,-454,-453,-453,-451,-450,-448,-446,-443,-441,-435,-429,-424,-418,-413,-409,-405,-403,-402,-405,-410,-414,-418,-422,-427,-430,-432,-431,-428,-423,-419,-415,-412,-408,-405,-401,-399,-397,-396,-394,-393,-393,-393,-393,-393,-392,-392,-391,-390,-389,-388,-386,-386,-385,-384,-383,-381,-379,-376,-370,-357,-345,-333,-321,-309,-299,-290,-282,-275,-268,-261,-253,-244,-229,-209,-189,-170,-157,-149,-140,-131,-115,-94,-76,-63,-51,-35,-12,13,38,55,65,73,79,85,96,114,126,132,136,139,140,139,136,131,125,116,102,93,79,64,49,33,16,-2,-23,-44,-65,-86,-110,-132,-148,-161,-175,-195,-216,-234,-253,-272,-291,-311,-329,-343,-353,-366,-379,-391,-405,-419,-432,-439,-444,-448,-450,-450,-445,-437,-424,-405,-387,-369,-352,-334,-317,-296,-272,-250,-218,-189,-157,-122,-86,-46,-4,39,80,119,156,197,240,282,322,361,397,420,445,470,496,520,539,553,565,577,589,603,617,631,640,649,658,670,686,706,725,745,761,774,787,805,826,843,856,868,877,883,888,890,888,884,878,870,861,861,876,917,1016,1171,1379,1617,1837,1987,2021,1927,1724,1457,1180,943,776,686,673,670,668,667,665,662,660,657,653,646,636,625,615,605,594,584,576,567,559,549,538,526,517,508,500,491,480,467,457,448,438,425,414,405,400,398,396,395,394,393,392,391,393,396,401,406,412,421,429,437,447,458,472,483,490,496,502,509,514,520,525,530,534,537,540,543,547,552,555,550,539,529,518,508,500,490,479,464,451,440,429,419,409,399,390,381,372,363,354,343,331,316,300,283,267,253,239,225,208,194,182,171,161,148,133,115,104,97,91,87,84,84,84,83,83,83,84,84,84,84,84,84,87,91,97,104,119,145,186,228,282,352,434,520,607,697,787,875,959,1043,1125,1204,1275,1342,1404,1455,1492,1504,1491,1451,1339,1178,979,764,559,382,240,131,52,-10,-70,-119,-160,-186,-209,-224,-227,-228,-229,-229,-230,-230,-230,-230,-229,-229,-228,-226,-224,-222,-219,-216,-214,-212,-210,-208,-207,-205,-204,-203,-202,-203,-204,-206,-208,-210,-212,-214,-217,-219,-221,-223,-224,-225,-224,-223,-219,-216,-211,-206,-198,-184,-170,-152,-127,-113,-107,-103,-99,-95,-90,-86,-81,-75,-65,-48,-32,-11,12,34,57,74,88,102,120,143,161,175,192,202,208,214,218,221,222,223,224,225,225,225,226,226,226,226,226,226,226,225,225,225,224,224,223,222,222,222,222,223,223,223,224,224,224,224,223,223,222,222,221,221,221,222,223,224,225,225,225,226,226,225,225,224,223,223,222,223,223,224,225,226,227,228,229,229,229,228,227,226,225,224,224,223,223,222,222,222,222,221,221,219,217,214,212,209,206,203,200,197,195,193,191,189,186,184,181,178,175,171,167,163,159,155,151,146,141,136,130,125,120,115,110,106,102,99,97,94,92,90,88,86,83,81,78,74,69,63,57,53,49,46,42,39,36,33,29,26,23,20,17,14,12,9,6,3,0,-1,-2,-3,-2,0,2,6,10,14,19,23,28,33,39,43,47,49,51,52,53,53,53,53,53,53,54,54,55,55,55,55,55,54,54,53,52,51,51,51,52,52,52,52,52,51,50,49,48,47,46,45,44,43,42,41,41,40,40,39,38,37,36,35,34,33,32,31,31,30,29,28,28,26,26,25,24,23,22,22,21,20,19,18,16,13,11,8,5,1,-6,-14,-18,-21,-24,-26,-27,-29,-30,-31,-30,-27,-22,-16,-11,-6,-1,3,7,11,13,14,12,9,5,0,-4,-11,-21,-32,-41,-50,-61,-76,-91,-104,-115,-122,-125,-127,-128,-130,-131,-132,-134,-136,-137,-139,-141,-143,-145,-148,-152,-159,-163,-159,-146,-112,-29,96,263,464,670,830,894,837,672,443,195,-24,-176,-224,-240,-225,-200,-173,-151,-134,-119,-107,-96,-90,-86,-82,-80,-78,-77,-76,-75,-76,-78,-80,-84,-88,-94,-100,-109,-118,-126,-134,-142,-150,-158,-166,-174,-184,-195,-202,-206,-209,-211,-213,-215,-216,-216,-213,-208,-203,-199,-196,-193,-190,-187,-183,-180,-177,-174,-171,-170,-168,-168,-169,-170,-171,-172,-173,-175,-177,-180,-182,-185,-188,-193,-207,-220,-234,-247,-252,-256,-259,-261,-263,-263,-258,-251,-242,-234,-225,-216,-208,-201,-195,-192,-190,-189,-188,-187,-187,-187,-187,-186,-186,-185,-185,-184,-184,-183,-183,-182,-182,-182,-182,-181,-181,-180,-179,-178,-178,-176,-174,-172,-170,-168,-166,-164,-163,-161,-159,-157,-154,-152,-150,-148,-146,-143,-141,-140,-139,-137,-136,-133,-130,-126,-118,-103,-89,-82,-78,-75,-73,-73,-72,-72,-71,-70,-69,-67,-66,-64,-62,-61,-59,-56,-52,-49,-45,-38,-30,-23,-17,-14,-10,-8,-6,-5,-4,-2,-1,0,1,1,1,0,-1,-5,-10,-15,-20,-26,-33,-41,-48,-55,-62,-67,-71,-76,-80,-85,-90,-96,-102,-107,-112,-116,-119,-121,-123,-125,-127,-130,-133,-136,-138,-140,-142,-144,-146,-149,-154,-165,-175,-185,-190,-194,-196,-198,-199,-200,-202,-204,-207,-208,-209,-210,-212,-215,-219,-225,-238,-265,-281,-291,-298,-303,-307,-310,-312,-315,-317,-319,-321,-321,-318,-312,-305,-297,-287,-268,-252,-237,-226,-214,-202,-194,-189,-186,-182,-178,-175,-174,-171,-165,-142,-85,21,183,392,621,819,936,942,859,647,374,103,-111,-252,-303,-322,-329,-323,-311,-297,-280,-268,-262,-259,-256,-253,-252,-252,-250,-248,-246,-244,-243,-241,-238,-233,-229,-222,-208,-195,-184,-170,-155,-140,-124,-109,-96,-85,-76,-65,-51,-40,-31,-23,-16,-11,-6,0,8,16,25,35,47,61,75,89,107,123,136,149,161,175,190,203,209,211,213,214,214,214,213,213,213,214,215,216,217,220,223,226,230,234,238,242,246,252,258,264,270,276,282,287,291,295,297,300,302,303,304,305,306,308,310,311,312,312,313,313,312,312,311,312,312,313,313,314,315,316,318,317,321,331,359,390,416,455,501,562,639,724,813,907,1005,1100,1190,1278,1358,1425,1482,1534,1581,1609,1635,1650,1634,1589,1474,1312,1119,920,736,578,455,367,294,220,149,82,24,1,-1,-2,-5,-9,-11,-10,-6,-2,2,6,7,6,5,6,9,13,17,20,20,19,20,21,21,19,17,16,13,8,6,6,8,8,7,10,14,17,18,19,17,14,11,8,3,0,-3,-8,-14,-22,-28,-30,-29,-27,-22,-14,-5,5,23,41,59,78,96,111,124,133,141,151,166,182,201,225,240,247,252,254,255,252,245,235,226,220,213,205,202,201,198,191,183,176,168,158,149,139,129,120,112,107,104,101,98,97,95,92,88,84,83,83,83,83,83,80,76,72,67,63,60,57,54,49,45,41,37,33,31,28,26,25,23,22,20,17,14,11,8,6,4,1,-1,-2,-5,-7,-10,-12,-12,-12,-12,-12,-11,-10,-10,-11,-13,-14,-16,-17,-16,-19,-21,-22,-26,-29,-33,-34,-33,-32,-31,-30,-29,-29,-29,-29,-30,-29,-30,-32,-35,-36,-38,-40,-42,-44,-48,-50,-53,-56,-59,-62,-62,-62,-65,-67,-69,-71,-72,-73,-75,-76,-76,-76,-78,-81,-83,-84,-83,-85,-88,-92,-94,-96,-97,-99,-99,-98,-97,-95,-95,-96,-96,-93,-91,-89,-88,-88,-87,-88,-89,-90,-91,-90,-88,-85,-84,-82,-80,-76,-72,-69,-66,-67,-70,-74,-78,-82,-87,-91,-94,-94,-90,-83,-76,-71,-63,-55,-48,-44,-42,-41,-41,-42,-42,-43,-43,-43,-45,-48,-51,-52,-52,-53,-56,-58,-62,-64,-67,-63,-49,-37,-29,-22,-17,-13,-8,-1,7,6,-7,-19,-29,-36,-41,-43,-46,-50,-56,-59,-58,-51,-41,-32,-25,-22,-21,-19,-15,-12,-9,-7,-5,-3,-3,-3,-4,-5,-3,0,1,0,0,1,3,2,1,2,4,6,7,10,14,19,24,34,42,47,52,55,58,62,67,71,73,71,68,67,66,63,59,54,49,36,10,-6,-17,-24,-25,-25,-26,-27,-27,-27,-26,-26,-26,-25,-24,-25,-27,-29,-32,-36,-40,-44,-50,-58,-46,-11,66,194,377,602,833,1022,1106,1066,903,648,361,109,-67,-165,-186,-193,-195,-195,-190,-186,-180,-175,-171,-168,-163,-158,-153,-149,-144,-139,-132,-126,-118,-108,-101,-98,-97,-97,-96,-95,-93,-90,-88,-84,-80,-78,-77,-75,-67
