-21,-23,-25,-26,-28,-29,-31,-33,-35,-37,-39,-40,-42,-43,-43,-43,-43,-43,-44,-44,-44,-44,-44,-43,-42,-42,-43,-43,-44,-44,-45,-46,-47,-46,-46,-45,-44,-43,-42,-42,-41,-41,-41,-41,-40,-40,-38,-32,-31,-36,-40,-43,-46,-47,-44,-37,-29,-21,-12,-4,-4,-13,-25,-33,-42,-50,-55,-55,-51,-43,-32,-13,16,31,39,45,49,51,48,42,34,26,22,19,15,11,7,4,2,0,-3,-6,-8,-9,-9,-9,-8,-9,-9,-9,-9,-8,-7,-7,-7,-9,-11,-12,-12,-8,-2,1,6,10,13,16,17,17,16,15,14,12,10,8,6,6,7,10,13,18,23,28,34,41,47,53,59,63,67,70,73,75,76,76,75,72,67,60,52,38,12,-10,-34,-61,-84,-95,-101,-106,-109,-111,-114,-115,-117,-118,-120,-122,-127,-125,-111,-75,-31,25,89,152,194,210,210,191,139,74,2,-65,-122,-177,-207,-254,-304,-359,-410,-459,-480,-491,-498,-481,-453,-422,-392,-363,-336,-303,-264,-226,-189,-153,-124,-103,-86,-79,-76,-74,-72,-71,-70,-70,-70,-70,-70,-69,-68,-67,-64,-62,-59,-57,-56,-53,-50,-47,-44,-40,-36,-33,-29,-26,-22,-18,-14,-11,-7,-4,-1,0,1,3,4,6,8,10,12,15,19,29,39,48,57,64,71,77,85,93,101,107,112,117,121,126,131,135,139,143,147,151,156,161,165,167,165,159,152,143,134,122,110,101,93,87,82,77,72,67,63,57,51,43,32,15,4,-3,-7,-10,-13,-16,-19,-22,-24,-26,-28,-30,-31,-33,-34,-35,-37,-40,-42,-44,-46,-46,-47,-47,-46,-44,-41,-38,-32,-29,-32,-37,-40,-43,-47,-49,-52,-53,-52,-50,-48,-45,-41,-38,-34,-31,-27,-24,-21,-19,-16,-13,-10,-8,-6,-2,0,1,0,-4,-11,-18,-25,-31,-37,-43,-47,-50,-53,-54,-56,-57,-58,-60,-62,-63,-60,-53,-45,-39,-31,-25,-23,-25,-30,-34,-37,-40,-44,-48,-50,-50,-48,-45,-43,-41,-39,-35,-31,-26,-24,-25,-29,-35,-40,-43,-46,-49,-52,-54,-56,-57,-58,-59,-60,-61,-62,-62,-63,-64,-66,-67,-69,-70,-71,-72,-72,-72,-73,-74,-74,-76,-79,-82,-82,-79,-73,-66,-55,-39,-26,-16,-8,-2,-3,-12,-23,-30,-37,-44,-49,-52,-52,-49,-44,-38,-31,-25,-19,-12,-5,0,6,12,18,24,29,33,37,41,43,44,44,43,40,37,33,29,25,22,20,17,13,10,6,2,-2,-6,-10,-13,-17,-20,-24,-30,-41,-47,-41,-28,-8,22,81,147,223,304,375,408,419,397,333,244,148,55,-22,-85,-140,-193,-252,-314,-350,-363,-368,-362,-348,-326,-296,-274,-258,-243,-226,-197,-160,-125,-89,-52,-32,-23,-16,-11,-7,-3,0,5,9,13,17,22,27,31,35,38,40,42,43,44,45,46,47,48,48,48,48,49,51,53,55,56,58,59,61,63,65,67,68,71,74,78,82,86,90,93,97,101,104,107,110,113,117,122,131,145,158,169,179,188,196,203,209,214,217,220,224,227,229,228,223,216,208,200,192,182,171,162,156,150,145,140,135,130,125,117,107,95,84,75,67,59,53,46,40,33,27,22,17,12,9,7,6,5,3,1,0,-3,-6,-9,-12,-14,-17,-19,-20,-22,-22,-22,-22,-23,-24,-25,-26,-27,-28,-29,-30,-30,-31,-31,-32,-32,-32,-32,-33,-34,-33,-33,-32,-31,-30,-29,-26,-24,-21,-19,-17,-16,-15,-15,-14,-12,-11,-10,-9,-8,-7,-5,-4,-3,-4,-5,-8,-11,-15,-18,-22,-25,-28,-30,-32,-33,-33,-33,-33,-33,-32,-30,-29,-27,-26,-24,-22,-22,-21,-22,-23,-24,-26,-27,-29,-31,-34,-36,-38,-40,-43,-45,-49,-53,-58,-62,-67,-71,-76,-80,-84,-86,-88,-89,-91,-92,-94,-95,-95,-95,-95,-96,-98,-100,-103,-105,-106,-107,-108,-109,-110,-110,-109,-108,-107,-107,-107,-108,-108,-108,-108,-108,-108,-107,-105,-103,-102,-100,-98,-96,-94,-92,-89,-85,-82,-80,-78,-76,-74,-72,-70,-68,-66,-64,-61,-58,-56,-54,-52,-50,-48,-47,-48,-50,-53,-57,-62,-66,-70,-75,-81,-86,-91,-95,-99,-105,-111,-116,-119,-120,-117,-112,-105,-96,-84,-59,-17,40,96,159,194,223,241,229,188,122,49,-22,-91,-132,-176,-218,-258,-307,-366,-400,-411,-419,-423,-422,-413,-398,-375,-334,-289,-242,-190,-138,-104,-84,-72,-63,-56,-51,-47,-43,-39,-36,-32,-29,-25,-23,-21,-20,-19,-18,-18,-18,-18,-19,-19,-18,-18,-16,-14,-11,-9,-8,-7,-7,-6,-6,-5,-5,-4,-2,0,5,10,15,22,31,41,51,57,63,68,72,75,80,84,89,93,97,101,105,110,115,121,129,136,141,145,149,152,154,157,160,163,165,167,168,167,165,163,159,154,149,143,135,124,112,99,87,78,71,64,59,53,46,39,31,24,17,9,2,-2,-7,-10,-12,-14,-15,-16,-16,-17,-18,-19,-21,-22,-22,-23,-23,-24,-25,-26,-26,-26,-26,-27,-28,-30,-31,-32,-33,-33,-34,-35,-35,-34,-32,-30,-28,-27,-26,-26,-25,-23,-21,-19,-17,-14,-12,-8,-5,-2,0,1,1,2,2,2,2,3,3,4,6,7,9,10,11,12,12,12,12,12,11,10,9,8,6,3,1,-1,-3,-6,-9,-13,-17,-21,-24,-28,-32,-39,-46,-54,-61,-66,-68,-69,-69,-68,-68,-66,-63,-61,-58,-57,-56,-55,-55,-54,-54,-55,-55,-56,-56,-56,-55,-55,-55,-55,-56,-57,-58,-60,-60,-59,-57,-56,-54,-52,-51,-50,-48,-47,-45,-44,-43,-42,-41,-40,-40,-40,-40,-39,-38,-37,-36,-35,-33,-30,-27,-24,-20,-16,-12,-7,-1,4,8,12,14,17,20,23,27,30,33,36,39,42,46,49,51,52,52,51,49,46,42,37,31,25,18,12,6,0,-7,-15,-22,-26,-27,-26,-23,-19,-14,-7,8,41,101,164,231,302,330,353,353,313,253,185,114,41,-29,-96,-159,-198,-233,-259,-280,-308,-340,-364,-380,-378,-354,-317,-278,-246,-212,-176,-137,-94,-51,-13,10,13,14,14,13,13,14,15,15,16,16,18,20,23,25,27,29,32,35,37,40,42,44,46,48,49,51,52,53,53,53,54,54,55,55,56,56,57,59,60,62,64,65,66,68,69,70,72,73,75,77,80,83,87,90,94,103,114,124,133,141,148,154,159,164,169,173,175,177,177,176,174,171,167,162,156,143,113,84,64,47,39,34,30,27,24,21,18,15,11,6,1,-4,-10,-16,-22,-30,-38,-46,-51,-53,-54,-55,-57,-60,-65,-64,-53,-45,-37,-32,-31,-34,-42,-49,-53,-56,-60,-63,-66,-67,-66,-63,-60,-55,-52,-49,-48,-46,-45,-43,-41,-40,-39,-38,-37,-36,-36,-36,-36,-37,-37,-38,-38,-38,-38,-39,-41,-42,-42,-42,-42,-42,-43,-44,-45,-45,-44,-44,-43,-43,-43,-43,-43,-43,-43,-43,-44,-45,-45,-44,-43,-43,-42,-41,-39,-38,-37,-35,-35,-35,-35,-36,-37,-38,-39,-39,-40,-40,-40,-40,-40,-40,-39,-39,-39,-40,-42,-44,-45,-45,-46,-46,-46,-46,-46,-44,-42,-41,-39,-39,-39,-40,-40,-40,-41,-43,-45,-46,-47,-47,-47,-46,-46,-46,-46,-45,-45,-45,-45,-45,-45,-44,-42,-40,-38,-36,-34,-32,-30,-28,-27,-25,-24,-22,-18,-15,-11,-7,-3,0,2,5,6,8,8,9,10,12,17,22,21,8,-6,-12,-17,-21,-25,-29,-32,-36,-39,-43,-45,-48,-51,-52,-53,-53,-54,-54,-55,-56,-58,-63,-68,-67,-59,-42,9,75,150,225,285,305,296,267,180,72,-33,-117,-173,-200,-222,-243,-278,-327,-388,-453,-472,-479,-484,-467,-417,-359,-294,-232,-180,-148,-120,-100,-81,-64,-50,-40,-31,-26,-24,-21,-18,-15,-12,-9,-5,-2,1,4,8,11,12,13,14,16,19,22,25,29,33,37,42,46,50,53,55,57,60,64,68,72,76,80,85,90,95,100,104,107,109,112,116,123,134,145,155,159,163,167,171,175,178,180,182,183,184,184,185,186,187,188,189,191,193,195,197,198,199,199,198,195,191,186,180,172,161,148,133,115,95,74,57,42,27,12,-2,-18,-32,-46,-51,-55,-58,-61,-63,-65,-67,-70,-72,-75,-78,-80,-81,-83,-84,-85,-86,-88,-90,-93,-96,-99,-103,-107,-110,-111,-112,-111,-108,-105,-101,-96,-92,-88,-85,-83,-82,-82,-81,-80,-79,-77,-75,-73,-70,-68,-66,-64,-64,-63,-63,-63,-64,-64,-64,-63,-62,-60,-58,-57,-56,-55,-53,-53,-53,-54,-54,-55,-56,-56,-56,-56,-57,-58,-58,-60,-66,-70,-63,-50,-42,-36,-30,-25,-23,-23,-25,-28,-30,-33,-35,-39,-43,-46,-48,-45,-41,-36,-31,-28,-25,-20,-16,-12,-9,-9,-9,-9,-10,-12,-15,-18,-23,-27,-30,-31,-30,-27,-24,-23,-20,-17,-15,-13,-11,-9,-8,-6,-4,-3,-2,-3,-3,-3,-2,0,2,4,6,8,12,16,19,22,24,25,25,26,27,28,29,29,30,31,33,35,37,37,36,33,29,23,18,11,5,0,-7,-12,-16,-18,-20,-22,-24,-26,-28,-31,-34,-37,-39,-41,-41,-42,-41,-40,-38,-34,-28,-22,-16,-9,7,40,91,140,191,249,276,293,307,308,292,245,176,88,-6,-100,-181,-232,-248,-261,-270,-299,-353,-385,-409,-425,-425,-411,-376,-328,-273,-213,-153,-98,-64,-46,-38,-31,-26,-21,-17,-13,-8,-4,0,2,4,6,6,6,6,6,7,8,10,12,14,16,19,21,22,23,23,23,23,24,25,25,26,27,29,30,32,33,35,36,38,40,42,44,45,44,42,37,33,28,22,14,7,7,15,27,47,81,100,110,117,121,121,116,108,99,93,87,81,76,72,69,68,69,70,72,74,77,82,89,94,86,68,47,21,-3,-24,-44,-55,-63,-66,-69,-71,-73,-75,-76,-78,-79,-81,-83,-84,-85,-84,-83,-82,-81,-81,-80,-79,-79,-78,-78,-78,-78,-78,-77,-75,-73,-72,-70,-68,-65,-62,-59,-56,-54,-52,-50,-45,-34,-21,-6,6,11,15,19,22,25,27,29,31,33,35,37,40,42,44,45,47,49,50,50,50,49,49,48,47,47,46,46,45,45,46,46,45,44,43,42,41,40,39,39,38,37,36,36,35,34,33,31,28,25,23,20,17,14,11,8,5,3,0,-6,-12,-18,-25,-31,-37,-41,-44,-46,-48,-49,-50,-51,-52,-53,-54,-55,-57,-60,-63,-66,-68,-70,-70,-71,-71,-71,-71,-70,-68,-67,-66,-65,-64,-63,-62,-60,-58,-56,-54,-52,-48,-45,-42,-39,-36,-34,-31,-28,-25,-21,-17,-14,-11,-8,-4,0,2,5,6,7,8,8,9,11,12,13,15,17,18,19,19,18,12,4,-4,-12,-17,-23,-30,-36,-41,-45,-48,-50,-51,-51,-50,-50,-47,-42,-36,-30,-22,-7,29,70,109,170,228,260,285,301,287,243,169,87,9,-59,-121,-160,-201,-238,-294,-357,-377,-384,-389,-371,-347,-326,-307,-281,-250,-220,-188,-156,-120,-83,-42,-20,-10,-2,3,7,10,13,16,19,22,25,27,29,30,31,32,33,34,35,35,35,35,36,38,38,38,38,39,40,41,43,45,46,48,50,52,55,58,60,63,65,68,72,77,83,88,94,99,105,109,114,118,121,125,130,137,149,164,180,188,194,200,204,208,211,213,213,212,210,207,203,199,193,188,182,176,168,161,155,149,143,135,125,109,89,67,47,23,12,6,1,-1,-5,-8,-12,-16,-20,-24,-28,-31,-33,-35,-37,-38,-39,-41,-43,-46,-48,-51,-53,-55,-57,-59,-60,-60,-60,-59,-59,-59,-59,-59,-60,-61,-62,-62,-62,-62,-61,-61,-60,-59,-59,-58,-58,-57,-58,-58,-57,-57,-56,-54,-53,-52,-51,-50,-49,-47,-46,-45,-43,-41,-40,-38,-36,-34,-33,-30,-28,-25,-22,-19,-16,-14,-11,-8,-5,-2,0,3,5,7,10,12,14,17,19,21,23,26,28,30,31,31,31,31,30,29,28,26,25,23,22,21,20,19,17,15,13,12,10,8,7,5,4,2,1,0,0,0,-1,-4,-6,-8,-8,-7,-6,-3,-1,1,3,6,10,13,16,18,19,20,21,23,23,24,23,23,24,25,26,27,28,28,28,29,30,31,32,33,33,33,34,35,36,37,38,38,38,38,37,36,35,35,34,34,33,32,30,28,26,23,20,17,13,9,5,0,-15,-27,-38,-49,-61,-69,-75,-81,-87,-90,-81,-58,-25,12,58,107,160,210,229,230,219,186,131,99,47,-5,-73,-145,-206,-239,-272,-302,-324,-340,-363,-381,-397,-405,-399,-382,-333,-275,-236,-207,-190,-177,-167,-157,-146,-133,-120,-109,-100,-93,-87,-83,-84,-91,-102,-113,-124,-137,-148,-154,-158,-162,-165,-168,-169,-171,-171,-171,-172,-171,-170,-168,-166,-164,-162,-160,-158,-154,-150,-146,-144,-144,-145,-147,-149,-151,-154,-158,-163,-166,-163,-155,-144,-129,-108,-90,-80,-73,-67,-62,-58,-54,-51,-48,-44,-42,-39,-36,-34,-31,-27,-23,-20,-18,-17,-19,-21,-25,-30,-36,-41,-47,-54,-61,-68,-74,-80,-86,-91,-96,-100,-103,-107,-110,-113,-116,-119,-123,-125,-128,-131,-133,-135,-137,-139,-141,-143,-145,-148,-149,-151,-152,-153,-153,-150,-146,-142,-136,-130,-124,-116,-103,-91,-83,-77,-71,-66,-61,-59,-59,-62,-65,-67,-70,-73,-74,-73,-66,-57,-49,-45,-42,-38,-35,-32,-30,-29,-28,-27,-25,-24,-23,-22,-22,-22,-22,-22,-21,-20,-20,-20,-20,-21,-21,-21,-21,-21,-21,-20,-19,-16,-14,-11,-8,-5,-1,2,6,9,11,13,15,17,18,20,21,22,24,25,28,29,31,31,32,32,32,32,32,33,33,33,34,36,38,40,42,43,45,47,51,56,61,64,65,64,63,61,60,58,56,52,48,46,45,46,48,51,55,58,62,67,73,78,79,78,74,69,64,60,54,47,41,38,39,43,48,53,59,68,76,78,77,74,72,68,65,63,66,71,76,79,82,85,88,91,93,95,95,93,89,86,82,78,73,66,58,50,43,37,33,28,24,19,15,11,8,4,0,-7,-11,-7,5,41,84,145,220,301,373,409,421,406,358,273,162,50,-33,-83,-126,-179,-232,-262,-292,-327,-371,-395,-407,-404,-367,-322,-272,-240,-204,-171,-142,-113,-89,-71,-51,-40,-33,-28,-23,-19,-14,-9,-5,0,3,7,10,13,16,19,22,25,29,33,36,38,40,41,42,43,44,44,44,44,45,47,49,52,56,59,63,67,71,75,79,83,88,93,98,104,110,115,121,125,129,133,137,141,145,152,163,174,182,189,194,199,203,206,209,210,208,204,199,193,186,179,169,160,152,145,139,132,124,117,108,98,88,79,70,60,51,42,35,30,27,23,19,16,14,12,11,9,8,5,3,1,0,-1,-3,-4,-6,-8,-8,-8,-8,-8,-8,-8,-8,-8,-8,-8,-8,-7,-7,-7,-6,-5,-5,-4,-4,-5,-6,-7,-8,-10,-12,-13,-15,-16,-17,-18,-19,-20,-22,-23,-25,-27,-28,-30,-33,-35,-38,-39,-40,-41,-41,-41,-41,-40,-39,-37,-36,-35,-34,-33,-31,-29,-28,-26,-25,-23,-15,-11,-17,-30,-40,-48,-55,-59,-62,-63,-65,-66,-67,-68,-69,-69,-70,-71,-73,-74,-75,-75,-75,-74,-74,-74,-74,-74,-74,-74,-74,-75,-77,-78,-79,-80,-80,-81,-80,-80,-79,-78,-76,-75,-74,-74,-74,-73,-73,-73,-73,-73,-74,-75,-75,-74,-73,-72,-71,-69,-68,-67,-67,-68,-69,-70,-71,-71,-71,-70,-68,-63,-60,-63,-68,-71,-73,-76,-79,-80,-78,-72,-64,-55,-48,-40,-33,-25,-20,-15,-12,-9,-8,-6,-5,-4,-2,-1,-1,0,1,2,2,1,0,-2,-4,-7,-10,-12,-14,-16,-19,-21,-23,-27,-31,-34,-37,-38,-36,-32,-26,-17,-8,6,32,56,87,126,166,202,227,244,244,227,182,120,54,-5,-54,-102,-160,-230,-295,-335,-349,-356,-356,-349,-338,-326,-309,-290,-265,-225,-172,-129,-91,-57,-28,0,21,37,52,58,60,62,65,67,69,71,72,72,73,73,74,73,71,70,68,67,68,68,69,70,71,72,73,75,76,77,77,77,77,78,78,79,79,79,81,83,86,89,91,94,98,101,105,109,113,116,120,125,134,152,159,161,162,164,165,167,169,170,171,172,172,173,173,172,171,169,166,164,162,159,156,152,148,143,139,132,117,102,91,82,73,65,58,47,33,20,11,4,-2,-9,-15,-21,-26,-31,-35,-40,-44,-48,-51,-53,-55,-56,-58,-59,-61,-62,-63,-64,-66,-68,-70,-72,-72,-73,-72,-71,-70,-68,-66,-64,-61,-58,-56,-53,-51,-50,-49,-48,-48,-47,-46,-44,-41,-40,-37,-35,-33,-32,-31,-30,-31,-33,-35,-38,-41,-44,-48,-52,-55,-58,-60,-62,-64,-66,-68,-70,-71,-72,-73,-74,-75,-76,-77,-78,-79,-79,-80,-81,-82,-82,-82,-81,-78,-76,-73,-71,-69,-67,-65,-63,-62,-61,-59,-57,-51,-43,-36,-35,-38,-44,-51,-56,-63,-70,-75,-77,-77,-76,-75,-73,-70,-67,-67,-69,-73,-77,-83,-86,-81,-70,-63,-57,-50,-46,-45,-47,-51,-54,-56,-59,-61,-64,-66,-67,-68,-68,-67,-65,-62,-58,-54,-51,-49,-47,-46,-45,-44,-44,-42,-40,-38,-35,-31,-27,-24,-21,-18,-16,-13,-11,-8,-4,0,4,9,13,17,18,17,14,11,6,0,-4,-9,-15,-22,-28,-33,-38,-42,-46,-49,-51,-54,-56,-59,-63,-70,-75,-75,-65,-47,-19,19,73,124,182,251,277,291,300,275,201,113,24,-50,-108,-143,-172,-194,-218,-249,-290,-337,-365,-377,-386,-385,-371,-331,-274,-237,-205,-181,-162,-144,-125,-103,-81,-60,-30,-19,-15,-11,-9,-6,-4,-2,-1,0,1,1,2,1,0,-1,-3,-4,-5,-5,-6,-5,-5,-4,-4,-4,-3,-3,-2,0,1,3,5,8,10,13,15,18,20,23,27,32,39,45,52,58,63,67,71,75,78,82,85,88,91,94,98,102,107,114,121,128,134,139,143,148,154,160,166,170,174,177,179,180,179,177,173,168,164,159,155,151,146,141,136,131,127,122,116,110,103,96,89,80,67,41,24,9,-3,-11,-17,-20,-22,-25,-28,-30,-30,-29,-27,-25,-23,-20,-17,-12,-8,-5,-2,-1,0,2,5,9,14,17,20,21,21,20,19,16,13,8,4,0,-1,-1,-1,-1,-2,-4,-5,-7,-9,-11,-14,-18,-21,-24,-26,-27,-29,-31,-34,-37,-39,-40,-41,-42,-44,-47,-50,-52,-53,-53,-53,-54,-55,-56,-55,-54,-51,-49,-48,-47,-45,-44,-42,-40,-39,-38,-38,-36,-30,-26,-32,-44,-50,-56,-61,-65,-69,-70,-71,-72,-72,-71,-71,-70,-69,-67,-65,-63,-62,-61,-61,-61,-62,-62,-63,-64,-65,-66,-65,-64,-62,-61,-61,-62,-61,-56,-49,-46,-43,-40,-37,-34,-32,-31,-30,-30,-31,-33,-36,-40,-44,-46,-43,-39,-35,-31,-27,-23,-21,-20,-21,-24,-27,-33,-44,-42,-20,-7,0,8,15,19,21,20,17,12,6,0,-6,-12,-19,-26,-34,-42,-50,-58,-67,-76,-85,-94,-101,-107,-112,-117,-122,-128,-135,-141,-144,-141,-131,-114,-61,-3,59,124,194,222,242,241,198,140,74,28,-25,-70,-131,-198,-241,-274,-296,-311,-323,-343,-370,-387,-400,-398,-374,-307,-238,-195,-151,-109,-81,-63,-45,-25,-17,-14,-11,-9,-7,-5,-3,-1,0,1,2,3,4,4,4,2,1,0,-2,-3,-5,-6,-8,-9,-9,-9,-9,-8,-9,-9,-10,-11,-11,-10,-10,-10,-10,-9,-6,-3,0,4,7,11,15,19,24,28,32,36,41,45,51,56,61,66,70,75,80,84,88,90,92,92,91,90,88,86,84,80,77,73,69,65,61,56,52,47,42,35,22,6,-8,-21,-34,-46,-58,-68,-78,-86,-91,-93,-94,-96,-97,-98,-99,-101,-103,-105,-106,-107,-107,-107,-106,-103,-99,-94,-88,-81,-74,-66,-55,-34,-15,3,18,29,38,49,59,68,78,95,120,149,174,194,215,236,249,259,268,275,281,286,291,295,300,305,310,314,319,324,328,332,335,337,336,332,325,317,308,298,287,270,251,232,214,197,181,166,150,135,123,114,107,101,96,91,87,82,77,73,70,67,64,60,54,46,30,1,-16,-27,-36,-43,-48,-49,-47,-44,-39,-34,-26,-12,-18,-52,-64,-70,-75,-79,-83,-86,-89,-92,-95,-97,-100,-104,-105,-105,-106,-106,-107,-107,-107,-106,-104,-104,-105,-107,-110,-112,-115,-118,-123,-127,-132,-137,-147,-168,-173,-174,-175,-176,-177,-177,-178,-179,-180,-182,-183,-184,-184,-184,-183,-181,-178,-174,-169,-164,-158,-153,-149,-145,-141,-138,-135,-132,-130,-129,-127,-125,-123,-121,-119,-117,-115,-113,-112,-111,-111,-111,-111,-111,-112,-113,-114,-115,-115,-116,-115,-114,-112,-109,-105,-101,-96,-91,-75,-33,10,65,112,143,156,150,131,76,-16,-113,-201,-251,-284,-305,-323,-341,-369,-414,-444,-461,-472,-477,-471,-457,-435,-398,-340,-283,-227,-189,-164,-140,-117,-97,-79,-64,-48,-35,-30,-27,-24,-22,-19,-18,-16,-14,-12,-11,-10,-9,-9,-10,-10,-10,-9,-8,-6,-3,0,4,8,11,14,17,19,22,25,29,33,38,45,53,62,71,78,84,89,94,100,108,122,148,174,192,205,217,232,248,264,277,290,302,313,321,328,334,339,343,346,350,353,356,358,359,360,360,360,359,355,351,345,339,332,324,316,308,297,284,271,259,246,232,218,202,184,167,153,140,130,124,119,115,112,108,105,102,98,94,89,84,79,74,69,65,62,59,56,55,53,52,52,51,50,48,46,44,42,40,38,37,36,36,37,38,39,40,40,40,39,38,36,33,30,26,22,18,15,12,9,7,5,3,1,0,-2,-5,-8,-11,-15,-19,-23,-27,-31,-33,-35,-37,-38,-40,-42,-44,-46,-48,-49,-50,-51,-51,-51,-50,-48,-46,-44,-44,-44,-44,-45,-45,-45,-45,-45,-44,-42,-38,-34,-31,-28,-27,-27,-29,-33,-40,-49,-59,-69,-77,-83,-85,-86,-87,-88,-90,-92,-95,-98,-102,-105,-109,-112,-115,-117,-118,-118,-119,-120,-121,-121,-122,-122,-123,-124,-125,-125,-125,-125,-124,-123,-123,-122,-121,-119,-117,-115,-113,-110,-107,-104,-100,-97,-95,-92,-90,-87,-85,-82,-80,-78,-76,-74,-70,-66,-62,-59,-57,-56,-56,-58,-60,-64,-68,-74,-79,-85,-90,-94,-99,-105,-111,-118,-124,-129,-133,-134,-134,-132,-126,-118,-108,-96,-83,-63,-22,18,71,132,193,233,252,264,236,155,68,-17,-104,-158,-216,-268,-314,-362,-392,-409,-420,-427,-426,-418,-404,-385,-360,-321,-289,-257,-223,-190,-163,-141,-117,-91,-81,-75,-71,-68,-65,-63,-61,-59,-58,-57,-57,-56,-54,-53,-51,-50,-49,-48,-47,-44,-42,-39,-38,-36,-35,-33,-31,-28,-25,-23,-21,-20,-17,-15,-12,-10,-7,-5,-2,0,4,8,12,17,22,27,32,37,41,46,51,56,61,65,69,73,78,84,90,95,99,101,103,106,108,109,110,111,111,113,116,120,123,123,119,109,98,87,78,70,61,51,41,33,25,19,12,6,0,-7,-16,-26,-33,-36,-39,-42,-44,-47,-50,-53,-55,-56,-56,-56,-55,-55,-54,-54,-53,-53,-53,-54,-55,-55,-54,-53,-51,-49,-47,-45,-43,-41,-40,-39,-39,-39,-39,-38,-33,-28,-26,-27,-31,-36,-41,-48,-54,-54,-47,-38,-32,-27,-21,-16,-13,-11,-12,-14,-18,-21,-22,-24,-25,-27,-29,-31,-34,-36,-38,-38,-37,-35,-34,-33,-32,-31,-31,-31,-32,-34,-37,-40,-42,-43,-44,-45,-45,-45,-45,-44,-44,-44,-45,-47,-49,-51,-52,-52,-53,-54,-54,-54,-54,-53,-52,-52,-52,-53,-54,-55,-56,-57,-58,-60,-63,-64,-65,-66,-66,-66,-66,-66,-67,-67,-68,-70,-73,-76,-78,-78,-76,-72,-68,-65,-62,-61,-58,-55,-53,-50,-49,-49,-49,-50,-50,-50,-50,-50,-50,-50,-48,-46,-43,-39,-36,-33,-31,-28,-25,-22,-18,-14,-10,-7,-1,5,13,20,25,25,23,18,11,4,-1,-6,-13,-21,-28,-34,-38,-40,-42,-45,-48,-50,-51,-51,-52,-54,-59,-62,-53,-33,-10,19,55,104,164,228,268,288,301,282,224,146,53,1,-49,-96,-137,-188,-252,-311,-343,-360,-373,-378,-378,-370,-356,-338,-305,-248,-192,-134,-101,-86,-75,-65,-54,-42,-31,-22,-15,-11,-7,-3,0,1,2,3,3,5,8,11,14,17,20,22,25,27,28,29,29,28,28,29,29,30,31,32,34,36,39,43,46,48,50,51,52,54,56,58,59,60,61,63,66,71,76,80,85,89,95,103,111,117,123,126,129,131,135,139,143,147,150,155,159,163,166,165,161,154,146,137,127,116,101,85,73,64,56,50,45,40,35,29,23,17,11,6,2,0,0,-2,-3,-4,-6,-7,-9,-11,-12,-13,-14,-15,-16,-17,-18,-19,-20,-21,-22,-23,-25,-27,-28,-30,-30,-31,-31,-31,-31,-31,-30,-30,-30,-29,-29,-28,-27,-27,-26,-25,-24,-23,-22,-20,-18,-17,-16,-15,-15,-15,-15,-15,-15,-15,-16,-16,-17,-16,-16,-15,-14,-14,-14,-15,-15,-15,-15,-15,-15,-14,-12,-10,-9,-9,-10,-11,-12,-14,-16,-18,-20,-22,-24,-26,-28,-30,-33,-36,-39,-42,-45,-48,-52,-55,-57,-57,-57,-56,-56,-55,-54,-52,-50,-49,-47,-47,-47,-48,-49,-50,-51,-52,-53,-55,-56,-58,-59,-59,-59,-60,-60,-60,-60,-60,-60,-59,-58,-57,-56,-54,-52,-51,-51,-51,-51,-51,-51,-51,-52,-53,-54,-54,-54,-53,-52,-52,-53,-53,-53,-53,-53,-55,-58,-58,-48,-33,-18,1,13,22,27,30,34,38,41,43,44,45,45,46,46,45,44,42,39,37,35,34,32,31,30,28,25,22,19,15,8,0,1,15,38,75,132,186,240,297,331,347,358,333,292,246,169,95,48,-2,-48,-89,-134,-184,-233,-276,-305,-312,-318,-324,-319,-289,-246,-197,-163,-138,-111,-76,-29,13,42,49,54,58,60,60,55,48,45,42,40,38,36,34,32,31,30,31,33,35,37,38,38,39,39,39,40,41,43,45,51,55,53,49,46,43,40,37,35,37,43,50,58,63,69,74,79,85,89,93,97,101,105,109,113,117,122,126,131,136,141,146,152,157,161,164,165,166,165,166,166,166,165,164,163,161,160,158,156,152,147,141,131,119,106,92,75,57,38,22,16,11,6,0,-4,-8,-10,-12,-13,-14,-16,-17,-18,-19,-19,-19,-20,-20,-19,-18,-16,-13,-10,-7,-5,-2,0,2,2,2,2,1,1,1,1,2,4,5,7,9,10,10,10,9,8,7,6,5,3,0,0,-1,-1,0,1,3,5,7,11,15,14,1,-13,-20,-24,-28,-31,-34,-37,-41,-44,-47,-49,-51,-52,-54,-55,-56,-57,-59,-60,-60,-61,-62,-63,-64,-66,-66,-67,-67,-68,-69,-70,-71,-72,-74,-75,-77,-78,-80,-80,-80,-79,-78,-77,-77,-76,-75,-73,-72,-71,-72,-73,-75,-76,-78,-78,-79,-80,-81,-80,-79,-78,-77,-78,-80,-83,-86,-88,-90,-92,-95,-97,-98,-98,-98,-97,-95,-94,-92,-91,-89,-87,-86,-85,-84,-82,-81,-79,-77,-74,-71,-68,-66,-63,-61,-59,-58,-56,-55,-53,-50,-47,-45,-42,-39,-37,-35,-35,-36,-37,-39,-42,-46,-50,-54,-58,-62,-66,-70,-72,-75,-77,-80,-83,-84,-85,-82,-77,-70,-62,-50,-35,-5,54,111,169,229,268,289,302,279,206,121,24,-74,-162,-232,-276,-307,-324,-340,-357,-373,-390,-411,-421,-414,-395,-366,-325,-284,-246,-211,-175,-144,-119,-82,-64,-55,-48,-42,-37,-32,-29,-26,-23,-20,-17,-15,-13,-13,-14,-15,-15,-15,-15,-15,-14,-13,-12,-10,-8,-6,-4,-2,0,2,5,8,12,16,20,24,27,31,34,37,39,42,46,50,55,59,64,67,71,74,78,80,83,85,87,90,93,97,103,109,115,121,126,129,131,132,132,131,129,126,123,119,116,114,111,107,101,94,84,72,60,50,41,32,25,18,11,5,0,-6,-11,-16,-19,-20,-21,-23,-25,-27,-28,-29,-29,-30,-32,-34,-35,-36,-37,-36,-36,-36,-35,-34,-32,-29,-26,-24,-22,-21,-19,-18,-17,-17,-17,-17,-17,-16,-15,-12,-10,-8,-6,-4,-2,-1,0,0,0,0,0,-1,-1,-1,-1,0,1,4,5,6,6,6,7,7,6,6,6,6,7,8,9,8,7,5,3,2,1,0,0,-2,-3,-4,-4,-4,-5,-9,-14,-18,-20,-20,-18,-17,-16,-16,-16,-15,-14,-13,-12,-12,-12,-12,-12,-13,-13,-14,-15,-15,-16,-15,-16,-16,-17,-18,-19,-20,-21,-23,-23,-24,-24,-23,-23,-23,-24,-24,-24,-25,-26,-27,-28,-30,-31,-32,-31,-30,-28,-26,-25,-24,-24,-24,-25,-26,-28,-30,-31,-32,-33,-34,-36,-37,-37,-38,-39,-43,-47,-50,-44,-31,-18,-10,-2,4,10,15,20,22,23,23,21,18,14,9,4,0,-3,-8,-13,-19,-24,-28,-31,-33,-35,-36,-37,-37,-38,-39,-41,-45,-48,-48,-38,-20,6,46,85,128,177,219,243,259,265,255,230,193,145,78,6,-78,-172,-251,-279,-289,-285,-274,-259,-245,-274,-307,-334,-336,-317,-290,-244,-185,-135,-92,-53,-24,-3,23,48,71,80,84,87,91,94,94,87,77,69,59,50,46,47,52,56,58,59,61,62,65,67,70,72,74,75,76,78,79,80,81,82,83,85,88,92,96,99,103,107,111,115,120,125,129,134,140,146,152,158,163,170,177,184,190,194,197,199,200,202,204,206,207,209,211,213,214,215,213,209,202,194,186,179,171,163,153,143,132,121,112,102,92,83,74,65,57,50,44,38,33,29,25,22,18,14,10,7,4,2,1,0,0,-1,-2,-2,-3,-4,-5,-7,-10,-14,-18,-22,-26,-31,-35,-39,-42,-45,-47,-50,-53,-57,-61,-65,-69,-74,-79,-82,-85,-87,-89,-89,-89,-88,-88,-89,-89,-90,-92,-93,-95,-98,-101,-103,-105,-106,-106,-106,-106,-106,-105,-105,-104,-103,-103,-103,-102,-101,-99,-97,-94,-92,-90,-89,-87,-85,-83,-82,-82,-83,-81,-79,-77,-75,-75,-78,-82,-87,-91,-94,-97,-101,-105,-109,-111,-110,-107,-103,-98,-94,-91,-88,-85,-82,-79,-77,-76,-75,-75,-75,-75,-75,-75,-74,-72,-70,-68,-66,-63,-62,-61,-60,-59,-59,-58,-57,-56,-53,-50,-48,-47,-48,-50,-51,-53,-54,-55,-56,-57,-58,-59,-60,-60,-61,-61,-61,-61,-61,-60,-59,-57,-55,-53,-50,-48,-45,-42,-39,-37,-36,-35,-34,-33,-31,-28,-26,-24,-23,-25,-29,-34,-39,-44,-49,-54,-59,-64,-69,-73,-76,-78,-79,-79,-78,-76,-72,-66,-60,-54,-46,-29,7,65,133,204,271,298,313,324,299,224,125,23,-66,-145,-218,-257,-283,-300,-318,-336,-351,-365,-376,-376,-367,-353,-330,-291,-251,-214,-180,-143,-110,-85,-59,-42,-31,-22,-16,-12,-10,-8,-7,-7,-7,-7,-7,-8,-8,-8,-8,-7,-7,-6,-4,-3,-2,-1,0,0,0,0,0,0,1,2,3,4,6,8,9,11,13,15,16,17,19,21,24,27,30,33,37,43,54,66,77,87,97,106,115,123,131,139,147,154,160,166,173,179,182,184,183,179,175,170,164,159,153,148,142,137,131,125,118,110,100,88,70,55,42,29,16,2,-10,-16,-20,-23,-27,-30,-33,-36,-38,-40,-42,-44,-45,-46,-46,-46,-45,-45,-45,-45,-44,-44,-44,-45,-45,-46,-46,-46,-46,-46,-46,-46,-46,-46,-45,-44,-43,-41,-40,-38,-37,-37,-36,-35,-34,-34,-35,-35,-37,-38,-38,-38,-38,-38,-37,-37,-35,-33,-32,-31,-31,-31,-31,-32,-32,-32,-32,-31,-30,-25,-21,-19,-22,-26,-27,-28,-28,-28,-29,-30,-31,-33,-36,-38,-39,-39,-39,-38,-37,-35,-34,-32,-30,-29,-29,-30,-30,-31,-32,-32,-32,-32,-31,-30,-28,-25,-23,-21,-20,-19,-19,-19,-20,-21,-22,-23,-23,-23,-23,-22,-22,-21,-21,-21,-21,-22,-23,-25,-27,-29,-30,-31,-31,-32,-32,-32,-31,-31,-30,-29,-28,-28,-27,-26,-25,-24,-25,-25,-25,-25,-24,-22,-21,-19,-17,-15,-12,-9,-6,-1,4,9,14,18,22,26,30,34,36,38,39,39,38,35,31,27,21,16,11,6,0,-8,-15,-21,-23,-22,-19,-15,-10,-6,0,5,13,22,31,43,58,85,134,185,229,257,276,275,253,195,120,47,10,-21,-52,-99,-174,-263,-315,-331,-341,-346,-348,-345,-339,-330,-319,-300,-264,-201,-143,-87,-49,-30,-24,-18,-13,-9,-4,-1,1,4,6,7,8,8,7,6,5,4,2,2,2,2,2,2,1,0,-1,-3,-5,-9,-14,-15,-8,1,6,9,12,14,17,19,23,26,30,33,34,36,37,38,41,44,46,49,53,60,69,78,88,98,105,110,114,119,124,128,132,135,138,141,143,144,144,143,142,141,139,138,135,132,127,123,118,113,107,96,83,68,53,44,37,31,26,21,15,10,5,0,-5,-10,-14,-17,-19,-20,-20,-20,-20,-20,-21,-23,-26,-28,-31,-34,-36,-38,-39,-39,-39,-38,-36,-35,-35,-35,-35,-35,-36,-36,-37,-37,-38,-38,-38,-37,-35,-34,-33,-31,-28,-26,-24,-22,-20,-19,-19,-18,-18,-17,-16,-15,-15,-15,-15,-15,-15,-15,-15,-14,-13,-12,-12,-11,-11,-11,-11,-11,-11,-11,-12,-12,-12,-12,-10,-9,-8,-7,-7,-6,-6,-6,-7,-7,-8,-8,-8,-8,-10,-12,-13,-14,-14,-14,-13,-13,-13,-14,-14,-14,-14,-14,-14,-14,-14,-15,-16,-18,-19,-20,-20,-20,-21,-22,-23,-24,-23,-23,-25,-28,-31,-32,-29,-23,-16,-11,-7,-3,0,3,6,8,8,6,4,1,-1,-3,-4,-7,-10,-13,-14,-12,-6,0,7,13,16,20,24,28,31,34,35,37,38,40,40,40,38,35,31,28,23,18,13,6,1,-4,-13,-24,-33,-42,-50,-56,-61,-65,-69,-72,-74,-76,-76,-74,-70,-65,-58,-50,-38,-14,28,90,158,226,253,272,270,230,166,86,2,-64,-97,-124,-150,-194,-258,-297,-337,-375,-398,-413,-422,-422,-413,-394,-337,-270,-224,-181,-150,-126,-108,-94,-80,-66,-54,-49,-46,-43,-41,-40,-38,-37,-37,-37,-37,-37,-37,-37,-37,-38,-38,-38,-38,-37,-36,-35,-34,-33,-32,-31,-30,-28,-27,-26,-25,-24,-22,-20,-18,-16,-14,-11,-8,-6,-3,-1,1,5,8,11,15,19,23,27,33,40,49,58,66,72,77,82,87,90,93,95,98,100,103,105,107,108,109,109,108,106,104,100,95,90,84,78,67,56,45,33,22,13,4,-3,-9,-16,-25,-37,-45,-49,-51,-52,-53,-55,-56,-58,-59,-60,-61,-61,-62,-63,-63,-63,-62,-61,-59,-58,-56,-53,-51,-49,-47,-44,-41,-39,-37,-34,-31,-28,-25,-22,-18,-14,-10,-6,-2,2,6,9,12,15,18,20,22,24,26,28,31,34,37,40,42,44,45,46,46,45,44,41,38,35,33,30,28,25,23,21,19,18,14,9,3,0,-1,-1,0,0,1,2,5,11,10,-5,-19,-33,-40,-39,-38,-37,-36,-36,-36,-36,-35,-35,-34,-33,-32,-31,-30,-29,-27,-26,-25,-25,-25,-25,-25,-24,-24,-23,-23,-24,-26,-27,-30,-33,-38,-40,-37,-31,-29,-27,-26,-25,-24,-23,-22,-21,-21,-21,-21,-21,-20,-19,-19,-19,-20,-20,-21,-21,-21,-22,-22,-21,-20,-17,-15,-14,-14,-14,-14,-14,-14,-15,-17,-21,-22,-19,-10,0,6,12,18,24,27,28,25,19,11,2,-3,-10,-18,-25,-31,-37,-40,-42,-43,-45,-47,-50,-53,-55,-56,-53,-45,-33,3,56,114,172,230,254,271,268,223,152,76,12,-35,-61,-106,-154,-204,-253,-300,-350,-382,-417,-440,-454,-451,-408,-344,-279,-226,-195,-169,-149,-130,-105,-72,-45,-26,-8,-3,-1,0,2,3,5,7,9,11,12,13,13,14,14,14,13,12,12,12,12,14,16,17,19,20,20,21,22,22,22,22,22,22,22,24,26,27,29,30,33,35,40,52,65,80,91,100,108,116,124,132,138,143,146,150,155,160,164,167,171,173,176,179,182,184,187,189,194,199,203,205,203,198,191,182,170,150,130,116,108,100,93,86,79,71,64,57,51,44,38,32,28,24,21,19,17,15,14,13,13,12,10,8,6,4,3,1,0,0,0,0,0,0,0,0,0,0,0,0,0,0,0,0,0,0,1,1,2,3,3,4,4,4,5,6,7,7,7,7,7,6,5,4,3,2,1,0,0,-2,-4,-6,-7,-7,-8,-8,-9,-10,-11,-12,-12,-13,-15,-18,-21,-24,-26,-27,-28,-30,-32,-34,-36,-38,-40,-43,-47,-51,-56,-59,-61,-63,-65,-67,-70,-72,-72,-72,-72,-73,-74,-75,-76,-77,-77,-78,-79,-80,-81,-82,-81,-80,-80,-79,-79,-79,-78,-78,-77,-77,-77,-77,-77,-76,-76,-75,-74,-73,-73,-72,-71,-71,-71,-73,-73,-74,-74,-75,-75,-76,-77,-78,-79,-79,-80,-82,-84,-86,-84,-79,-72,-64,-58,-51,-43,-37,-33,-31,-30,-30,-30,-29,-29,-28,-27,-27,-28,-29,-32,-36,-41,-47,-55,-63,-75,-86,-91,-94,-96,-99,-102,-105,-108,-108,-105,-98,-88,-74,-49,-8,50,112,173,226,246,247,231,187,114,29,-53,-122,-157,-180,-198,-214,-237,-265,-313,-373,-433,-455,-456,-442,-421,-388,-349,-311,-273,-234,-194,-157,-123,-87,-70,-63,-58,-54,-50,-47,-44,-42,-39,-37,-35,-33,-31,-30,-29,-29,-29,-29,-28,-27,-26,-26,-26,-25,-23,-21,-20,-19,-18,-16,-15,-12,-10,-8,-7,-6,-5,-4,-1,0,3,6,10,15,19,25,30,35,39,43,47,53,60,71,90,105,117,123,128,133,137,140,142,144,146,148,149,150,150,149,148,146,145,143,140,137,132,128,123,119,113,103,91,81,71,61,52,43,33,22,10,-1,-11,-22,-32,-39,-44,-48,-51,-53,-54,-56,-57,-59,-59,-60,-59,-59,-59,-58,-58,-57,-56,-56,-55,-54,-53,-52,-51,-50,-49,-48,-48,-47,-46,-45,-44,-43,-43,-41,-40,-39,-38,-37,-36,-34,-32,-30,-29,-27,-27,-24,-21,-18,-15,-13,-14,-16,-18,-20,-22,-25,-27,-29,-31,-33,-34,-35,-36,-37,-37,-37,-36,-35,-33,-32,-31,-30,-29,-26,-24,-22,-22,-22,-23,-24,-25,-26,-28,-31,-32,-33,-33,-32,-31,-31,-29,-28,-27,-25,-24,-23,-23,-23,-24,-24,-25,-26,-28,-30,-31,-33,-34,-35,-36,-37,-38,-39,-40,-41,-42,-44,-47,-49,-49,-46,-41,-35,-30,-29,-27,-25,-23,-21,-20,-19,-19,-19,-19,-18,-16,-14,-13,-12,-11,-10,-8,-6,-4,-3,-2,0,2,6,10,15,18,21,24,26,27,27,24,20,14,9,4,0,-4,-9,-15,-21,-27,-32,-36,-39,-41,-44,-47,-49,-51,-54,-57,-64,-71,-71,-63,-49,-5,50,123,204,279,319,333,317,265,198,124,48,-20,-51,-94,-146,-219,-291,-347,-367,-377,-385,-394,-392,-372,-343,-306,-270,-233,-202,-179,-159,-140,-119,-98,-72,-37,-13,1,9,13,15,16,16,16,16,16,16,16,17,17,17,17,16,15,14,14,14,14,15,15,16,17,19,21,24,27,28,30,31,33,34,35,35,36,36,39,42,46,49,53,56,60,65,70,76,81,86,91,97,105,114,121,127,131,135,139,144,148,151,153,155,156,158,160,161,162,162,159,156,152,146,140,132,120,94,72,60,52,46,41,36,32,27,23,18,14,11,8,7,5,4,2,0,-1,-3,-5,-8,-10,-12,-13,-14,-15,-15,-16,-17,-18,-18,-18,-18,-18,-18,-18,-18,-17,-16,-14,-13,-12,-10,-9,-7,-6,-5,-4,-4,-4,-3,-2,0,0,2,3,5,6,8,9,9,10,10,11,12,14,17,20,21,23,24,24,23,20,16,10,3,-3,-8,-12,-15,-17,-19,-20,-21,-23,-24,-25,-27,-29,-30,-31,-32,-31,-31,-31,-31,-31,-31,-31,-31,-32,-33,-34,-35,-35,-35,-35,-35,-36,-36,-37,-37,-37,-36,-36,-35,-35,-35,-34,-33,-32,-31,-31,-31,-30,-30,-30,-29,-29,-30,-31,-31,-32,-32,-32,-32,-32,-33,-34,-35,-36,-37,-38,-40,-42,-44,-45,-47,-48,-48,-48,-47,-45,-43,-41,-39,-37,-36,-35,-34,-34,-34,-33,-32,-32,-31,-31,-31,-31,-31,-31,-32,-33,-34,-37,-40,-42,-44,-46,-49,-52,-54,-56,-58,-58,-58,-58,-57,-56,-54,-52,-48,-45,-42,-38,-34,-23,3,28,54,99,151,173,189,187,147,83,13,-54,-113,-141,-158,-172,-197,-232,-274,-317,-348,-363,-375,-373,-352,-321,-283,-249,-218,-188,-160,-136,-108,-83,-63,-35,-25,-21,-17,-14,-11,-9,-7,-5,-3,-1,0,0,1,1,1,1,0,0,0,-1,-2,-1,0,2,4,7,10,11,13,15,16,17,17,18,19,21,24,28,31,36,40,45,50,55,59,63,66,69,71,75,79,84,88,92,96,100,105,109,113,116,119,122,126,131,135,138,139,140,141,145,149,132,118,110,105,100,95,90,85,81,76,68,59,48,34,25,20,15,11,8,4,0,-5,-9,-14,-20,-25,-31,-40,-48,-53,-55,-55,-56,-56,-57,-58,-59,-59,-60,-60,-61,-61,-61,-61,-62,-62,-61,-60,-59,-58,-56,-54,-52,-51,-49,-46,-44,-43,-41,-40,-39,-38,-36,-34,-33,-32,-31,-30,-29,-28,-27,-25,-24,-24,-23,-23,-23,-23,-23,-23,-24,-24,-24,-24,-24,-24,-22,-21,-20,-20,-19,-19,-19,-19,-19,-19,-19,-20,-20,-20,-20,-19,-19,-19,-19,-20,-20,-20,-21,-23,-25,-27,-29,-31,-34,-37,-40,-43,-45,-48,-50,-52,-54,-59,-63,-64,-61,-54,-46,-42,-39,-36,-34,-32,-30,-28,-28,-28,-28,-29,-29,-29,-29,-30,-30,-31,-32,-34,-35,-36,-38,-40,-41,-42,-43,-42,-42,-40,-38,-36,-33,-31,-29,-27,-25,-24,-23,-21,-20,-18,-16,-13,-11,-8,-6,-4,-4,-4,-6,-9,-12,-16,-20,-25,-30,-37,-49,-57,-62,-65,-67,-69,-71,-72,-72,-72,-72,-70,-67,-63,-57,-49,-39,-19,16,69,121,174,192,201,195,149,89,34,13,-3,-25,-57,-116,-182,-239,-274,-296,-309,-317,-320,-318,-314,-305,-278,-228,-184,-157,-133,-115,-95,-74,-53,-32,-19,-11,-4,0,2,4,4,4,4,4,3,2,1,1,0,0,0,-1,-2,-3,-4,-5,-6,-7,-10,-12,-11,-3,6,16,28,34,36,37,38,40,41,41,42,43,44,46,48,51,54,58,62,66,71,76,82,87,91,94,97,100,102,104,105,106,107,108,109,109,110,110,109,109,108,106,103,100,96,93,89,85,79,73,66,59,52,44,38,32,27,22,17,13,9,5,1,-3,-8,-13,-17,-21,-25,-29,-34,-39,-44,-48,-51,-52,-53,-55,-57,-58,-58,-59,-59,-59,-60,-61,-61,-59,-53,-45,-39,-34,-29,-25,-20,-16,-11,-8,-5,-2,-1,0,1,3,4,5,6,6,7,8,10,12,13,13,11,8,5,3,0,-2,-5,-8,-12,-15,-17,-19,-21,-23,-24,-25,-23,-21,-20,-18,-18,-17,-17,-16,-16,-17,-18,-19,-19,-17,-14,-12,-14,-20,-27,-33,-41,-47,-46,-37,-26,-17,-8,0,6,10,12,14,17,21,24,25,22,14,4,-7,-23,-27,-29,-30,-31,-32,-33,-32,-32,-30,-27,-24,-22,-19,-16,-12,-9,-7,-8,-11,-16,-21,-27,-32,-38,-44,-50,-54,-56,-57,-57,-57,-56,-54,-51,-48,-48,-51,-55,-57,-59,-61,-63,-65,-66,-66,-64,-59,-53,-46,-40,-34,-28,-21,-15,-11,-9,-10,-12,-16,-21,-26,-32,-39,-49,-58,-63,-68,-72,-77,-83,-87,-89,-89,-86,-82,-77,-73,-66,-61,-59,-60,-63,-68,-73,-56,-30,0,53,111,173,197,213,212,174,118,58,4,-43,-73,-102,-134,-169,-205,-227,-238,-247,-256,-264,-273,-285,-301,-301,-281,-253,-220,-173,-126,-78,-28,1,34,70,90,99,106,111,115,118,121,123,126,127,129,130,132,134,135,136,136,135,132,126,119,112,106,102,98,95,91,89,86,83,80,76,73,70,69,68,67,67,67,68,71,74,77,80,82,84,86,89,92,95,97,99,101,104,108,113,117,121,124,126,128,130,131,131,130,128,126,124,122,120,116,111,106,100,94,87,74,58,43,29,18,10,3,-3,-10,-18,-26,-34,-41,-50,-62,-73,-82,-89,-95,-100,-107,-111,-113,-108,-98,-88,-81,-75,-68,-62,-58,-56,-56,-57,-59,-61,-63,-66,-71,-76,-79,-79,-74,-67,-59,-53,-45,-37,-31,-30,-31,-34,-37,-38,-39,-40,-41,-42,-43,-44,-44,-45,-44,-42,-40,-38,-36,-33,-31,-29,-26,-24,-22,-21,-20,-21,-23,-25,-28,-31,-34,-37,-40,-44,-46,-49,-51,-54,-57,-61,-65,-69,-72,-75,-77,-79,-80,-82,-83,-84,-88,-98,-97,-73,-39,2,65,127,191,217,231,241,222,161,99,35,-30,-73,-121,-162,-223,-295,-372,-448,-478,-492,-501,-505,-495,-470,-432,-385,-317,-253,-192,-151,-123,-107,-95,-84,-75,-67,-58,-50,-41,-30,-18,-6,0,7,13,19,23,25,25,24,23,22,20,19,17,15,13,10,8,8,11,16,23,30,35,40,45,51,56,61,65,69,71,73,74,75,76,77,79,81,84,88,92,97,101,105,111,117,123,130,136,141,146,151,157,163,168,171,174,176,176,175,173,170,165,160,154,149,141,127,114,100,90,83,76,69,63,57,52,46,38,28,16,2,-8,-20,-27,-30,-33,-34,-36,-37,-38,-39,-40,-41,-41,-41,-41,-40,-38,-35,-31,-27,-23,-19,-15,-12,-8,-5,-1,1,4,7,8,8,8,7,6,5,5,4,3,3,2,1,0,0,0,-1,-1,-1,-1,-1,-1,0,0,0,0,0,0,0,0,0,0,0,0,0,0,0,0,0,-1,-3,-5,-7,-9,-10,-11,-12,-13,-13,-13,-13,-13,-13,-13,-14,-15,-16,-17,-18,-19,-19,-19,-19,-19,-19,-18,-18,-18,-18,-19,-20,-22,-23,-24,-26,-27,-29,-30,-31,-31,-32,-36,-40,-43,-43,-40,-36,-31,-28,-25,-21,-17,-13,-10,-9,-9,-9,-10,-11,-13,-18,-25,-16,-9,-5,-2,0,2,2,0,-4,-8,-11,-13,-17,-20,-24,-26,-27,-25,-20,-15,-10,-6,-3,-1,1,3,5,6,7,8,10,12,14,15,16,17,17,17,16,16,15,14,13,12,11,11,10,9,8,7,6,5,4,4,3,3,2,1,0,0,-1,-3,-5,-7,-8,-10,-11,-13,-15,-17,-19,-21,-23,-25,-28,-31,-34,-37,-40,-43,-45,-46,-47,-48,-49,-52,-58,-62,-54,-41,-34,-29,-24,-19,-15,-12,-10,-8,-7,-8,-10,-13,-17,-22,-27,-32,-37,-44,-52,-58,-63,-66,-68,-71,-73,-75,-78,-80,-81,-83,-83,-82,-78,-74,-68,-60,-46,-20,18,65,113,159,209,227,238,234,194,139,70,0,-63,-125,-188,-249,-278,-303,-325,-358,-408,-430,-448,-447,-411,-357,-302,-253,-222,-190,-159,-126,-97,-76,-64,-52,-40,-36,-33,-31,-29,-26,-25,-23,-21,-20,-19,-18,-17,-16,-16,-16,-15,-14,-13,-12,-12,-11,-9,-7,-5,-4,-3,-2,-1,-1,-1,0,1,3,6,10,14,19,24,28,34,39,45,51,57,63,69,74,78,83,87,92,96,101,105,109,112,116,121,125,129,132,135,139,142,146,150,154,158,163,167,171,175,177,177,174,170,164,157,149,141,130,113,97,84,74,71,70,68,65,62,60,58,57,56,55,54,52,51,50,50,49,49,48,47,46,44,43,42,42,42,42,43,43,44,44,43,42,41,40,39,39,39,39,39,38,38,38,39,39,40,40,39,38,38,39,39,38,38,38,38,38,38,38,38,37,36,35,34,32,30,27,25,24,23,21,17,11,4,-1,-7,-11,-16,-20,-24,-27,-30,-32,-33,-33,-33,-34,-34,-35,-36,-37,-39,-41,-45,-49,-53,-57,-61,-64,-67,-69,-71,-74,-76,-78,-81,-84,-87,-91,-94,-98,-102,-105,-108,-112,-116,-120,-123,-125,-127,-129,-130,-131,-132,-133,-134,-135,-137,-139,-141,-143,-145,-147,-149,-151,-152,-153,-152,-151,-150,-149,-148,-147,-146,-145,-145,-144,-144,-143,-143,-142,-140,-138,-137,-135,-134,-132,-131,-130,-128,-128,-127,-127,-125,-123,-122,-121,-119,-118,-117,-116,-114,-112,-110,-109,-108,-107,-105,-104,-102,-101,-100,-99,-98,-96,-93,-92,-91,-91,-91,-91,-92,-92,-94,-96,-100,-103,-105,-107,-110,-112,-115,-117,-117,-117,-114,-110,-105,-99,-91,-75,-40,0,39,106,171,197,212,222,205,152,78,-3,-80,-135,-165,-192,-216,-253,-308,-374,-427,-446,-452,-443,-422,-399,-370,-344,-311,-272,-211,-152,-117,-97,-86,-79,-74,-69,-64,-58,-54,-50,-47,-44,-42,-41,-41,-40,-40,-39,-37,-34,-31,-27,-25,-23,-22,-21,-20,-19,-18,-18,-16,-12,-6,-1,1,0,-2,-6,-10,-13,-16,-21,-25,-28,-29,-25,-18,-10,-1,7,19,31,41,49,56,60,63,65,67,70,72,74,75,78,80,82,84,86,88,90,93,97,104,117,127,136,143,151,155,150,137,117,88,64,46,25,16,10,6,3,0,-2,-5,-8,-12,-15,-19,-23,-27,-30,-33,-35,-38,-41,-45,-49,-53,-56,-58,-59,-59,-59,-58,-57,-55,-53,-52,-51,-51,-50,-48,-46,-43,-40,-38,-35,-32,-28,-24,-19,-16,-14,-13,-12,-10,-8,-6,-4,-1,2,5,9,11,13,13,12,12,11,12,13,14,15,17,20,23,26,28,29,30,30,30,31,32,33,35,40,43,40,36,33,31,28,25,24,24,27,30,34,38,41,44,49,53,55,55,51,45,39,35,34,33,31,30,29,28,28,28,27,26,25,25,25,26,26,27,28,28,28,28,27,27,26,25,24,22,21,19,17,16,15,14,13,11,10,9,8,7,7,7,6,6,5,6,6,6,5,5,4,3,3,3,2,1,1,2,4,6,9,13,16,19,23,27,30,33,36,40,44,49,54,57,58,58,57,56,53,51,49,46,43,40,37,34,31,26,21,16,11,6,3,-1,-6,-11,-15,-18,-19,-18,-14,-8,-1,8,28,66,128,201,283,365,434,456,445,410,311,189,81,10,-26,-58,-91,-150,-222,-292,-334,-349,-353,-347,-332,-316,-295,-273,-244,-203,-157,-112,-76,-50,-32,-22,-17,-13,-9,-5,-1,3,7,12,17,22,25,29,32,36,41,45,50,53,56,59,62,64,67,69,71,73,75,78,80,82,84,85,86,87,88,89,90,92,94,97,100,104,108,111,115,118,121,124,128,132,138,144,150,156,161,166,171,176,181,184,186,188,190,192,194,197,199,200,200,200,200,198,196,192,187,181,175,169,159,149,138,130,120,102,65,42,33,25,18,13,9,4,1,0,-3,-7,-13,-27,-43,-47,-48,-50,-52,-54,-54,-54,-54,-55,-55,-55,-55,-55,-54,-53,-53,-53,-51,-50,-48,-47,-47,-47,-47,-46,-45,-44,-43,-42,-42,-41,-39,-37,-36,-36,-38,-42,-46,-50,-53,-57,-61,-64,-67,-70,-72,-73,-74,-75,-76,-77,-78,-78,-77,-76,-76,-75,-75,-74,-73,-71,-69,-68,-67,-66,-65,-62,-60,-58,-57,-56,-55,-53,-51,-48,-45,-42,-37,-33,-29,-26,-25,-26,-28,-31,-34,-36,-39,-42,-44,-47,-49,-51,-53,-55,-57,-59,-61,-62,-63,-62,-62,-62,-62,-61,-61,-61,-62,-63,-65,-66,-68,-69,-71,-72,-73,-73,-72,-72,-73,-74,-76,-81,-85,-85,-78,-68,-61,-54,-47,-44,-49,-58,-69,-76,-84,-91,-97,-99,-97,-91,-83,-74,-65,-53,-42,-35,-30,-24,-17,-11,-8,-10,-14,-19,-21,-22,-23,-24,-25,-26,-28,-30,-33,-36,-40,-42,-45,-47,-50,-52,-54,-57,-61,-65,-71,-76,-81,-85,-88,-90,-90,-87,-82,-77,-69,-59,-38,3,74,149,220,282,302,292,261,170,62,-34,-107,-168,-204,-240,-272,-302,-339,-366,-380,-390,-395,-395,-391,-385,-374,-357,-323,-286,-251,-215,-181,-147,-112,-92,-82,-74,-68,-64,-60,-56,-53,-50,-48,-45,-41,-36,-33,-31,-34,-39,-45,-51,-57,-64,-70,-73,-70,-62,-53,-44,-33,-25,-21,-19,-16,-14,-11,-10,-9,-8,-6,-3,0,5,11,17,23,30,37,45,52,59,64,68,73,77,80,84,87,91,95,100,106,111,116,121,126,132,138,144,149,154,158,161,163,164,163,158,152,144,135,126,116,100,83,65,47,36,29,22,17,11,6,2,-1,-6,-10,-14,-19,-24,-28,-32,-37,-45,-54,-60,-61,-61,-61,-61,-61,-61,-62,-62,-63,-63,-60,-56,-51,-47,-45,-42,-39,-36,-33,-31,-29,-29,-29,-29,-29,-28,-28,-28,-26,-25,-23,-21,-19,-17,-15,-15,-14,-13,-11,-9,-7,-4,0,5,10,16,23,31,37,42,44,46,48,50,52,54,56,59,62,65,68,70,71,70,69,67,65,64,62,59,56,52,49,46,43,39,35,27,8,-2,-7,-9,-11,-12,-13,-15,-17,-18,-19,-20,-21,-22,-22,-21,-20,-19,-18,-17,-17,-17,-18,-20,-22,-25,-28,-31,-33,-34,-34,-33,-33,-32,-33,-34,-36,-38,-39,-41,-43,-44,-44,-43,-41,-38,-35,-32,-29,-27,-23,-20,-17,-16,-16,-17,-20,-23,-26,-29,-33,-40,-46,-46,-35,-21,-6,10,21,27,32,38,42,45,44,35,22,10,4,-1,-7,-13,-20,-26,-31,-36,-39,-42,-43,-43,-42,-40,-38,-36,-34,-30,-26,-21,-16,-4,27,61,101,147,193,232,259,264,271,263,210,135,55,-10,-63,-116,-173,-236,-275,-320,-352,-364,-371,-376,-379,-379,-375,-366,-352,-306,-253,-192,-151,-103,-64,-44,-32,-23,-14,-4,3,10,18,25,31,32,31,28,24,22,21,21,20,18,17,16,16,15,14,13,11,11,12,12,13,13,14,15,17,19,22,24,26,27,29,31,33,36,38,39,41,43,46,51,56,61,66,72,79,86,93,101,109,118,131,144,154,159,163,166,168,171,174,176,178,180,180,178,172,164,154,145,136,127,116,105,95,85,77,69,63,57,51,45,39,33,28,22,15,8,0,-5,-10,-14,-16,-18,-20,-22,-24,-25,-26,-27,-28,-30,-32,-34,-35,-36,-36,-35,-34,-33,-31,-30,-29,-28,-27,-28,-29,-31,-33,-34,-35,-35,-36,-35,-34,-32,-30,-27,-25,-24,-24,-25,-26,-27,-28,-28,-28,-28,-27,-26,-25,-23,-21,-20,-20,-20,-22,-23,-25,-26,-27,-28,-28,-28,-27,-26,-26,-25,-25,-24,-23,-22,-22,-23,-24,-26,-28,-29,-29,-30,-30,-31,-31,-32,-32,-31,-31,-31,-32,-33,-35,-37,-39,-41,-43,-45,-46,-47,-49,-50,-51,-52,-52,-52,-53,-54,-56,-57,-58,-58,-58,-58,-57,-57,-56,-55,-53,-52,-52,-52,-52,-52,-51,-51,-50,-50,-49,-48,-46,-45,-44,-44,-45,-47,-49,-50,-51,-51,-51,-49,-47,-44,-40,-36,-33,-30,-28,-27,-26,-25,-23,-21,-16,-9,-3,0,1,-2,-8,-16,-23,-28,-33,-39,-44,-50,-55,-60,-64,-69,-72,-74,-75,-76,-77,-78,-79,-81,-83,-86,-94,-100,-90,-65,-26,28,84,139,197,233,251,263,245,189,123,50,2,-49,-102,-158,-211,-265,-316,-365,-405,-425,-437,-445,-444,-430,-405,-365,-308,-257,-208,-170,-141,-114,-90,-69,-51,-34,-28,-25,-22,-20,-18,-16,-15,-14,-13,-12,-11,-11,-11,-11,-12,-11,-10,-9,-7,-6,-4,-2,0,1,2,3,4,5,7,9,12,17,29,39,41,37,33,30,26,22,19,19,26,37,47,52,56,59,63,68,74,80,86,92,98,104,110,115,120,125,130,135,142,150,159,167,173,174,172,167,160,151,142,131,115,98,83,68,56,48,42,37,32,28,25,21,18,13,9,4,0,-4,-8,-10,-12,-14,-17,-21,-26,-31,-35,-38,-39,-39,-39,-39,-39,-39,-38,-37,-36,-34,-32,-31,-29,-28,-28,-28,-29,-30,-32,-33,-35,-35,-35,-34,-32,-31,-29,-28,-28,-27,-27,-28,-29,-30,-32,-33,-34,-35,-35,-35,-35,-34,-33,-32,-31,-31,-32,-35,-37,-38,-37,-36,-35,-34,-34,-33,-32,-30,-28,-27,-27,-28,-29,-30,-31,-32,-33,-35,-36,-37,-37,-37,-37,-38,-40,-41,-41,-41,-40,-38,-35,-33,-30,-25,-20,-20,-28,-38,-46,-54,-61,-67,-69,-67,-62,-56,-50,-45,-40,-35,-30,-25,-24,-24,-26,-29,-31,-33,-34,-36,-38,-40,-42,-44,-46,-48,-49,-49,-49,-47,-45,-41,-38,-34,-31,-27,-24,-21,-19,-17,-16,-14,-13,-13,-12,-10,-8,-7,-5,-3,-1,0,2,5,7,8,8,8,9,10,12,13,15,18,25,31,31,22,7,-11,-36,-52,-63,-72,-80,-84,-81,-72,-61,-53,-46,-40,-33,-24,-16,-7,2,17,47,93,155,220,256,282,300,299,271,195,99,12,-57,-100,-136,-163,-191,-228,-272,-342,-397,-416,-422,-412,-388,-351,-301,-254,-208,-164,-116,-82,-63,-46,-30,-17,-10,-6,-3,-1,0,2,3,5,6,7,8,10,13,16,19,21,23,24,25,26,27,28,28,28,29,30,33,35,37,39,41,43,45,48,49,51,52,53,54,56,58,60,62,63,64,65,67,69,72,76,80,85,91,98,105,114,124,135,145,153,162,170,178,184,188,189,187,184,180,175,171,166,160,153,146,139,131,123,114,104,94,84,73,63,53,41,31,24,19,15,11,8,5,2,0,-1,-3,-6,-8,-11,-14,-17,-19,-21,-22,-23,-24,-24,-24,-23,-23,-25,-27,-31,-34,-37,-40,-43,-45,-47,-47,-45,-43,-41,-39,-37,-36,-36,-36,-37,-39,-42,-45,-47,-48,-48,-47,-46,-46,-45,-44,-44,-44,-47,-50,-53,-51,-45,-39,-36,-33,-29,-26,-23,-20,-20,-22,-25,-30,-34,-37,-39,-42,-45,-47,-49,-50,-51,-51,-51,-51,-51,-51,-50,-50,-49,-50,-50,-50,-50,-49,-48,-48,-48,-47,-46,-44,-41,-39,-38,-37,-35,-33,-31,-29,-28,-27,-25,-23,-19,-15,-12,-11,-12,-15,-18,-21,-24,-27,-29,-32,-35,-36,-38,-39,-40,-41,-42,-42,-41,-40,-38,-36,-34,-32,-29,-27,-25,-23,-21,-18,-15,-11,-8,-5,-3,0,1,3,4,5,6,7,9,12,16,19,22,24,25,26,25,23,19,14,8,2,-2,-6,-11,-17,-22,-27,-33,-40,-46,-52,-57,-62,-65,-64,-61,-56,-50,-42,-31,-18,10,60,129,208,248,275,294,291,259,211,149,86,34,-38,-121,-203,-275,-323,-351,-366,-377,-384,-387,-384,-377,-367,-352,-326,-277,-226,-174,-131,-98,-68,-50,-39,-30,-23,-17,-13,-8,-4,-1,0,0,0,0,0,0,0,0,0,0,0,0,0,1,2,3,5,6,8,11,12,13,14,15,16,17,18,20,20,21,23,26,29,33,37,40,43,46,50,53,57,60,64,69,75,84,94,103,111,118,124,129,133,136,140,143,146,149,151,153,154,155,155,154,153,149,145,138,131,124,116,108,96,81,68,57,46,37,29,21,13,3,-6,-15,-23,-26,-30,-33,-37,-39,-42,-44,-47,-49,-52,-55,-57,-58,-58,-57,-57,-56,-54,-52,-49,-45,-42,-40,-37,-36,-34,-33,-31,-29,-28,-26,-24,-21,-18,-16,-13,-12,-10,-9,-9,-8,-9,-9,-10,-10,-10,-9,-9,-9,-10,-10,-11,-11,-12,-14,-15,-17,-18,-18,-19,-20,-20,-20,-21,-21,-21,-22,-23,-24,-24,-24,-24,-24,-23,-23,-22,-21,-21,-20,-21,-22,-23,-23,-24,-24,-25,-26,-26,-27,-27,-28,-28,-29,-31,-33,-35,-36,-38,-39,-40,-41,-42,-41,-41,-40,-40,-40,-40,-42,-43,-44,-46,-48,-50,-52,-53,-54,-54,-53,-53,-53,-53,-52,-52,-51,-49,-48,-46,-44,-42,-41,-39,-36,-34,-31,-27,-23,-20,-17,-16,-16,-17,-19,-20,-22,-25,-28,-31,-33,-34,-31,-24,-14,-5,0,6,12,19,25,29,32,31,29,25,20,14,8,1,-5,-14,-23,-30,-36,-41,-46,-51,-55,-58,-61,-63,-65,-66,-65,-62,-58,-52,-45,-37,-20,17,60,109,165,215,248,270,271,255,213,145,66,-9,-80,-147,-212,-283,-321,-339,-349,-356,-361,-364,-364,-361,-355,-346,-333,-317,-283,-220,-161,-101,-68,-50,-38,-28,-19,-12,-6,-3,-1,0,1,2,3,4,4,4,5,7,9,12,15,17,18,19,20,21,22,23,23,23,24,25,26,26,26,26,26,26,27,28,30,32,34,37,40,43,47,50,53,55,58,61,65,71,77,84,92,99,106,113,120,125,129,132,135,137,140,144,149,154,159,161,162,161,160,156,152,147,141,132,123,113,104,93,81,66,52,39,30,23,18,12,6,0,-6,-11,-16,-21,-25,-30,-35,-39,-43,-46,-49,-51,-53,-55,-56,-56,-56,-56,-56,-57,-58,-59,-59,-60,-61,-62,-62,-62,-61,-61,-60,-60,-60,-60,-60,-59,-59,-59,-58,-57,-56,-55,-53,-52,-51,-50,-49,-47,-41,-34,-30,-29,-30,-31,-31,-31,-31,-33,-35,-36,-37,-36,-35,-33,-33,-33,-33,-32,-31,-29,-29,-28,-28,-28,-28,-28,-28,-27,-27,-27,-27,-27,-26,-25,-25,-26,-27,-28,-30,-30,-31,-31,-31,-32,-32,-33,-33,-33,-33,-34,-35,-36,-37,-37,-37,-37,-38,-39,-40,-41,-41,-41,-41,-41,-41,-42,-42,-43,-43,-46,-53,-58,-54,-44,-39,-34,-29,-26,-24,-24,-24,-24,-24,-25,-26,-28,-30,-32,-34,-34,-31,-27,-21,-17,-13,-9,-5,-1,0,2,4,5,7,8,9,10,12,13,14,15,16,17,17,16,16,16,16,16,17,19,17,8,-2,-9,-15,-20,-25,-29,-33,-36,-39,-41,-43,-45,-46,-48,-54,-63,-51,-16,32,93,163,235,294,313,302,269,189,100,19,-44,-79,-109,-136,-175,-228,-290,-326,-355,-375,-382,-389,-395,-392,-369,-336,-298,-245,-193,-158,-119,-83,-49,-15,-2,0,2,5,7,9,11,13,14,16,17,18,19,19,19,18,18,17,17,18,19,20,21,22,22,22,22,23,23,23,23,23,23,24,25,26,27,28,29,30,33,35,38,40,45,52,59,66,71,75,79,82,86,90,94,98,103,106,111,116,124,136,148,161,172,184,190,185,176,167,159,150,140,130,122,116,110,104,97,91,85,78,67,50,34,20,8,-1,-9,-15,-20,-24,-28,-32,-38,-44,-50,-56,-60,-65,-70,-74,-77,-79,-79,-78,-77,-76,-74,-73,-70,-67,-63,-58,-54,-52,-53,-56,-61,-66,-72,-80,-87,-88,-82,-74,-59,-38,-28,-22,-18,-15,-15,-21,-30,-38,-44,-50,-55,-59,-63,-67,-69,-70,-68,-65,-61,-58,-54,-50,-46,-41,-35,-30,-28,-28,-31,-35,-38,-41,-43,-45,-47,-50,-52,-53,-54,-55,-57,-59,-60,-60,-60,-60,-60,-61,-62,-62,-63,-62,-61,-60,-59,-58,-58,-56,-55,-53,-51,-50,-49,-48,-47,-46,-45,-45,-44,-44,-42,-40,-38,-35,-32,-30,-28,-27,-26,-26,-26,-27,-28,-29,-30,-30,-30,-29,-29,-28,-28,-28,-29,-30,-31,-32,-33,-34,-36,-37,-38,-38,-37,-36,-33,-31,-28,-25,-22,-19,-16,-14,-9,0,8,10,12,15,17,20,22,22,21,20,19,18,17,15,14,12,9,7,3,0,-5,-9,-13,-18,-25,-33,-39,-43,-46,-50,-55,-61,-66,-66,-59,-48,-30,-4,34,82,140,201,256,285,306,319,308,272,203,119,33,-49,-122,-176,-208,-240,-274,-310,-344,-365,-380,-385,-379,-363,-319,-271,-227,-181,-133,-84,-46,-24,-14,-7,-1,2,5,9,12,15,17,19,21,23,25,31,41,49,52,54,56,58,60,61,62,62,62,62,61,61,60,59,57,56,54,52,48,40,42,60,69,74,77,80,82,85,87,90,94,97,99,102,104,106,108,111,114,119,126,134,140,146,152,156,159,163,166,168,170,171,172,173,173,172,171,169,166,162,158,154,149,143,137,125,113,100,87,72,55,39,25,17,12,7,3,0,-2,-6,-11,-15,-21,-26,-30,-34,-36,-38,-39,-40,-41,-41,-42,-43,-45,-46,-48,-49,-51,-52,-53,-54,-55,-55,-55,-54,-53,-52,-51,-51,-51,-52,-52,-52,-51,-51,-50,-50,-49,-47,-46,-44,-42,-41,-39,-38,-37,-35,-34,-32,-31,-30,-30,-29,-29,-29,-29,-29,-29,-29,-29,-30,-30,-30,-30,-30,-30,-30,-31,-32,-33,-34,-35,-36,-36,-36,-35,-35,-34,-33,-32,-32,-31,-31,-31,-32,-32,-33,-34,-35,-37,-38,-40,-41,-43,-44,-46,-47,-49,-51,-52,-53,-54,-55,-56,-57,-59,-60,-61,-62,-63,-63,-64,-64,-63,-63,-61,-60,-58,-56,-54,-52,-50,-49,-47,-46,-45,-44,-42,-41,-40,-37,-32,-28,-26,-25,-27,-32,-37,-43,-48,-55,-62,-66,-66,-59,-50,-39,-29,-18,-7,1,9,16,22,27,32,36,39,41,40,36,31,25,20,16,13,10,7,5,2,0,-1,-4,-6,-9,-11,-13,-14,-16,-18,-21,-25,-29,-36,-42,-44,-41,-33,-20,20,73,133,193,248,271,284,292,275,223,155,84,21,-36,-93,-152,-212,-275,-312,-344,-367,-380,-389,-397,-402,-402,-393,-373,-318,-252,-186,-129,-94,-68,-52,-36,-21,-14,-9,-6,-3,0,1,2,3,5,6,9,11,13,13,14,14,14,14,13,12,12,12,13,14,16,18,20,21,22,23,25,26,27,27,27,28,30,31,32,34,36,38,39,41,44,46,49,50,53,56,61,67,74,81,89,98,107,114,123,131,137,141,142,142,142,143,144,144,145,145,145,144,140,132,123,115,104,93,82,70,60,50,41,32,23,15,7,0,-7,-14,-19,-24,-28,-31,-34,-37,-40,-42,-45,-46,-48,-50,-52,-53,-54,-54,-53,-52,-51,-51,-50,-49,-48,-48,-48,-47,-45,-43,-37,-32,-29,-31,-36,-41,-43,-44,-46,-48,-50,-51,-51,-50,-49,-47,-46,-45,-45,-44,-42,-41,-40,-40,-39,-39,-39,-39,-39,-40,-41,-42,-43,-43,-44,-45,-46,-46,-47,-47,-46,-46,-46,-46,-47,-46,-45,-45,-45,-45,-44,-44,-44,-44,-45,-45,-46,-47,-47,-47,-46,-45,-45,-44,-44,-43,-42,-42,-42,-43,-44,-44,-43,-41,-38,-34,-30,-27,-23,-19,-15,-13,-11,-11,-11,-11,-12,-13,-14,-15,-16,-16,-17,-17,-18,-19,-20,-23,-25,-27,-28,-29,-30,-31,-30,-28,-26,-23,-20,-17,-15,-13,-10,-7,-3,0,2,3,1,0,-2,-5,-11,-20,-3,15,29,42,55,72,89,91,93,96,93,71,50,30,17,9,3,-2,-6,-9,-9,-7,-5,-2,0,3,4,1,-7,-18,-26,-37,-45,-49,-48,-43,-34,-4,47,118,200,283,359,377,382,367,286,188,93,20,-30,-77,-135,-199,-261,-308,-322,-329,-338,-344,-351,-364,-378,-367,-334,-285,-233,-200,-164,-130,-107,-93,-78,-63,-49,-35,-23,-12,-8,-6,-4,-2,-1,0,0,1,3,4,5,5,6,7,8,8,9,9,10,11,13,15,17,19,21,23,25,27,29,31,31,31,31,32,33,35,38,41,44,46,49,51,53,55,58,60,63,69,82,96,111,125,140,148,143,133,126,120,113,109,109,113,120,126,133,142,148,148,140,128,114,95,75,59,48,39,31,25,20,16,13,10,6,2,-3,-11,-18,-26,-34,-44,-53,-59,-63,-65,-67,-69,-72,-75,-78,-81,-81,-81,-80,-78,-75,-72,-67,-63,-61,-61,-62,-65,-69,-75,-74,-66,-63,-62,-62,-61,-60,-59,-57,-55,-53,-52,-50,-49,-48,-47,-46,-46,-46,-45,-44,-43,-42,-40,-38,-36,-34,-32,-29,-27,-26,-25,-24,-24,-24,-24,-25,-27,-29,-31,-32,-34,-34,-36,-37,-39,-41,-43,-44,-45,-47,-49,-50,-52,-53,-54,-54,-55,-56,-57,-58,-58,-57,-55,-54,-53,-52,-51,-50,-50,-50,-50,-51,-51,-51,-51,-49,-48,-46,-45,-43,-41,-38,-35,-33,-32,-31,-31,-30,-28,-25,-22,-19,-17,-15,-14,-13,-12,-12,-13,-14,-15,-16,-16,-16,-16,-15,-14,-13,-12,-11,-11,-11,-10,-9,-7,-5,-3,-1,0,3,6,10,13,16,20,25,29,33,36,37,35,32,28,24,20,16,10,3,-3,-10,-18,-26,-31,-37,-42,-47,-50,-52,-54,-55,-55,-55,-53,-50,-46,-41,-34,-8,35,88,145,200,250,269,278,284,268,219,157,87,14,-59,-130,-199,-258,-303,-332,-362,-398,-429,-450,-451,-440,-410,-357,-299,-243,-195,-149,-97,-61,-30,-8,-2,0,0,0,0,0,0,0,1,1,0,0,-1,-2,-3,-3,-5,-6,-7,-7,-7,-5,-2,0,2,4,5,7,8,9,10,11,11,11,12,13,14,15,16,17,19,21,24,28,32,36,40,47,63,77,90,97,103,108,112,116,119,123,127,130,133,136,138,140,143,145,147,149,151,152,152,151,149,145,140,134,126,116,95,69,55,46,39,33,27,22,16,11,7,2,-1,-6,-10,-15,-19,-24,-27,-29,-29,-29,-28,-26,-25,-23,-22,-21,-19,-18,-16,-14,-14,-14,-15,-16,-17,-20,-22,-26,-31,-36,-40,-41,-38,-34,-30,-27,-24,-20,-17,-13,-10,-7,-4,-2,0,1,3,5,10,14,16,13,6,0,-2,-4,-7,-9,-11,-13,-14,-15,-15,-14,-12,-10,-7,-4,-2,0,1,2,3,3,3,3,2,1,1,0,0,0,-1,-1,-1,-1,-2,-2,-2,-2,-3,-3,-3,-3,-3,-4,-4,-3,-3,-2,-2,-1,0,0,0,0,0,0,-2,-4,-6,-9,-11,-12,-14,-15,-15,-15,-14,-14,-15,-17,-21,-24,-27,-29,-28,-26,-24,-20,-17,-13,-9,-6,-3,-1,0,0,0,0,0,0,0,0,1,3,5,7,8,9,9,9,10,10,11,13,15,22,28,30,25,19,16,13,10,8,4,1,-3,-9,-17,-25,-33,-40,-46,-53,-61,-68,-74,-80,-84,-85,-86,-84,-82,-77,-72,-65,-56,-38,-4,46,100,161,190,209,223,223,201,139,59,-33,-116,-172,-200,-224,-251,-298,-350,-404,-431,-452,-465,-447,-419,-387,-331,-271,-206,-144,-104,-80,-68,-59,-52,-46,-40,-36,-32,-27,-21,-13,-5,2,8,11,13,16,18,20,21,22,22,22,22,22,22,22,22,22,23,24,26,28,30,32,34,36,38,39,41,43,46,51,57,64,71,77,82,86,90,94,98,100,102,104,106,108,112,115,118,121,125,129,134,138,142,146,151,158,164,169,172,172,170,165,160,153,145,136,118,102,88,79,73,68,63,57,52,47,42,39,34,28,21,13,5,0,-7,-15,-26,-39,-54,-69,-82,-96,-109,-122,-136,-147,-156,-162,-168,-172,-174,-173,-168,-160,-151,-138,-119,-106,-101,-97,-94,-91,-88,-86,-84,-81,-79,-77,-76,-75,-75,-75,-74,-73,-70,-65,-59,-55,-55,-57,-60,-64,-71,-74,-68,-56,-51,-47,-44,-40,-36,-32,-29,-26,-25,-25,-26,-28,-31,-34,-37,-40,-43,-46,-48,-49,-50,-50,-50,-51,-52,-54,-55,-57,-59,-60,-60,-60,-59,-58,-56,-55,-54,-54,-54,-54,-54,-53,-53,-52,-52,-52,-51,-51,-50,-50,-50,-50,-50,-50,-49,-49,-49,-50,-49,-49,-48,-47,-46,-46,-45,-45,-44,-43,-42,-41,-39,-38,-35,-33,-30,-28,-26,-22,-16,-11,-8,-6,-4,-2,0,3,7,9,9,8,6,4,2,0,-2,3,12,17,21,25,29,32,34,36,38,37,35,32,29,23,17,11,5,-5,-26,-30,-31,-31,-32,-32,-33,-33,-33,-33,-32,-29,-26,-20,-14,0,23,63,110,163,218,272,293,308,306,270,204,124,39,-41,-112,-167,-218,-248,-279,-310,-339,-373,-401,-418,-426,-420,-404,-361,-316,-271,-220,-191,-142,-92,-53,-28,-17,-8,-1,3,7,9,12,13,14,16,17,17,16,15,13,12,11,11,12,13,13,14,15,15,16,16,15,15,14,14,14,14,15,15,16,17,18,20,21,22,23,23,24,25,26,28,29,31,33,36,39,44,50,56,61,66,72,78,84,91,97,101,105,107,108,110,111,112,113,115,117,118,119,118,113,106,96,85,74,58,43,27,14,10,8,6,4,2,0,-1,-2,-3,-4,-6
