-697,-825,-960,-1096,-1211,-1263,-1256,-1226,-1214,-1205,-1197,-1191,-1185,-1180,-1174,-1168,-1160,-1151,-1141,-1130,-1119,-1106,-1096,-1089,-1083,-1079,-1076,-1074,-1071,-1066,-1061,-1055,-1049,-1042,-1033,-1020,-1010,-1002,-996,-991,-987,-983,-978,-972,-965,-957,-949,-943,-936,-929,-923,-917,-912,-908,-904,-899,-894,-888,-881,-874,-867,-860,-852,-844,-835,-824,-812,-802,-794,-786,-779,-773,-767,-762,-756,-749,-742,-734,-727,-719,-709,-697,-684,-669,-654,-639,-627,-617,-613,-610,-608,-606,-605,-604,-602,-601,-598,-596,-593,-591,-589,-587,-585,-582,-579,-575,-569,-559,-548,-539,-531,-523,-516,-509,-502,-496,-490,-485,-478,-469,-457,-444,-429,-405,-376,-334,-291,-240,-208,-187,-175,-166,-163,-166,-174,-185,-200,-220,-235,-246,-254,-263,-273,-282,-287,-292,-297,-301,-304,-305,-306,-305,-303,-300,-296,-292,-288,-284,-280,-277,-273,-269,-265,-260,-254,-249,-242,-233,-224,-215,-207,-198,-191,-185,-178,-173,-167,-162,-158,-154,-150,-147,-143,-139,-134,-129,-122,-114,-102,-81,-64,-48,-31,-16,-4,4,12,22,32,41,49,57,65,71,79,87,95,105,115,126,135,145,152,155,157,159,160,162,164,165,162,153,142,127,106,88,70,51,30,14,3,-4,-12,-20,-27,-34,-41,-47,-52,-55,-56,-57,-58,-59,-59,-59,-58,-57,-57,-56,-56,-55,-55,-54,-53,-52,-51,-50,-49,-48,-47,-46,-45,-44,-44,-45,-46,-47,-47,-48,-48,-48,-48,-48,-48,-48,-47,-45,-44,-42,-39,-37,-36,-34,-32,-30,-28,-26,-24,-23,-21,-19,-17,-15,-13,-11,-9,-8,-7,-7,-7,-7,-6,-5,-4,-3,-2,-2,-1,-1,0,0,0,0,0,0,0,0,1,1,1,1,0,0,-1,-3,-3,-4,-3,-3,-1,0,2,4,7,9,11,12,14,15,16,19,22,25,27,27,26,23,20,17,16,13,11,8,5,2,0,-2,-4,-5,-5,-5,-4,-2,-2,-1,-3,-7,-11,-6,4,11,18,24,28,28,24,19,14,9,4,-1,-5,-8,-6,-1,4,12,18,25,32,39,45,49,52,55,58,60,63,65,67,68,68,66,61,54,47,41,36,31,27,23,19,15,12,9,6,3,1,0,-1,-2,-2,-3,-5,-7,-10,-12,-14,-16,-17,-18,-17,-13,-9,-2,5,16,36,76,115,146,162,171,177,177,168,153,128,92,59,28,16,13,10,7,4,1,0,-2,-4,-6,-7,-9,-9,-10,-11,-12,-13,-14,-15,-16,-16,-17,-18,-18,-18,-18,-17,-17,-16,-15,-14,-13,-11,-10,-9,-8,-8,-7,-5,-4,-2,0,1,3,4,6,8,10,11,13,15,20,27,33,38,44,50,57,64,71,79,87,96,105,114,122,130,137,144,152,159,167,175,183,190,196,202,207,212,214,214,212,207,201,193,183,164,143,123,102,82,65,50,35,19,10,3,-3,-8,-13,-16,-18,-18,-19,-19,-20,-21,-22,-22,-22,-23,-23,-24,-24,-23,-23,-23,-23,-22,-22,-22,-21,-21,-20,-20,-19,-19,-18,-17,-16,-15,-14,-13,-12,-11,-10,-9,-7,-6,-5,-3,-1,0,3,5,7,9,11,11,11,11,11,10,10,10,11,12,13,14,16,17,18,18,18,18,17,16,16,17,17,18,19,20,22,23,24,24,25,25,26,27,27,28,30,31,33,34,36,37,37,37,38,38,39,40,41,43,44,44,45,46,46,47,46,46,45,45,45,45,46,46,47,48,49,50,50,50,49,48,47,47,46,45,44,43,43,43,43,44,44,44,44,43,43,43,44,44,45,47,48,51,53,56,59,62,65,69,72,75,78,82,86,90,94,96,95,91,85,77,70,64,59,54,50,45,42,39,36,32,29,26,24,22,20,19,18,17,16,15,14,13,11,9,6,4,3,5,9,16,25,36,60,97,151,218,289,329,342,319,247,155,75,44,34,47,66,79,65,42,15,3,0,-3,-5,-7,-9,-12,-14,-16,-17,-19,-20,-21,-22,-23,-24,-25,-26,-25,-24,-23,-21,-19,-18,-16,-15,-15,-14,-14,-13,-13,-12,-10,-8,-5,-3,-1,0,2,3,4,4,4,5,6,7,8,10,13,16,19,23,27,32,43,55,69,77,84,89,94,100,106,112,119,125,134,146,155,161,165,170,174,178,180,176,168,158,149,138,127,115,103,89,73,60,49,35,20,1,-11,-22,-31,-38,-46,-51,-53,-55,-57,-59,-61,-62,-63,-63,-64,-64,-64,-64,-64,-63,-63,-62,-62,-61,-59,-58,-57,-56,-55,-54,-53,-51,-50,-50,-50,-50,-51,-51,-51,-51,-52,-52,-53,-53,-53,-52,-52,-53,-52,-52,-51,-50,-50,-49,-49,-48,-46,-45,-43,-42,-40,-39,-37,-35,-32,-29,-27,-25,-24,-23,-22,-23,-23,-25,-26,-28,-30,-32,-34,-35,-37,-38,-40,-42,-45,-47,-48,-49,-50,-50,-49,-48,-47,-45,-41,-38,-37,-40,-44,-46,-47,-49,-52,-54,-57,-59,-60,-59,-58,-57,-55,-53,-50,-48,-46,-44,-43,-43,-43,-43,-43,-42,-42,-41,-40,-39,-38,-37,-36,-36,-36,-36,-36,-35,-35,-35,-34,-33,-32,-31,-30,-29,-29,-28,-27,-26,-25,-25,-24,-23,-22,-21,-20,-20,-19,-17,-16,-13,-11,-6,-1,3,8,12,16,19,21,23,25,27,29,31,31,29,26,22,18,15,13,11,9,6,4,2,0,-1,-2,-4,-4,-5,-5,-6,-6,-6,-6,-6,-5,-5,-4,-3,-2,-1,0,3,5,9,12,34,81,146,220,292,347,366,358,334,279,247,238,233,229,222,215,208,199,184,161,151,147,145,143,141,140,138,136,134,133,132,133,134,135,137,139,142,146,150,154,158,163,168,178,189,196,200,203,206,208,209,211,212,212,212,212,211,210,209,207,204,201,199,196,194,191,188,186,186,188,193,200,207,214,219,224,230,235,240,243,246,246,247,247,247,247,247,246,246,245,244,244,242,241,239,235,230,223,210,187,170,157,143,129,116,101,87,72,60,48,37,24,11,-1,-11,-16,-19,-21,-22,-24,-27,-30,-33,-36,-39,-41,-45,-51,-62,-66,-66,-66,-67,-68,-69,-70,-72,-73,-74,-75,-77,-79,-80,-81,-82,-82,-83,-83,-84,-85,-86,-87,-88,-89,-89,-89,-89,-88,-88,-87,-86,-85,-85,-85,-86,-86,-87,-87,-88,-89,-90,-92,-93,-93,-94,-94,-95,-96,-96,-97,-98,-98,-99,-100,-100,-101,-101,-102,-102,-102,-102,-102,-102,-103,-103,-103,-103,-102,-102,-102,-102,-102,-102,-102,-102,-103,-103,-104,-104,-104,-103,-102,-101,-100,-98,-96,-94,-92,-90,-89,-88,-87,-87,-86,-83,-80,-76,-73,-70,-69,-69,-69,-70,-71,-72,-73,-75,-77,-78,-78,-74,-68,-62,-58,-55,-53,-50,-48,-46,-43,-41,-39,-37,-35,-34,-33,-31,-30,-29,-28,-28,-28,-27,-27,-26,-25,-24,-22,-21,-19,-17,-15,-14,-12,-10,-8,-6,-3,-1,2,9,16,21,25,28,30,33,36,38,40,39,36,32,27,21,14,3,-6,-15,-26,-37,-42,-44,-45,-46,-47,-48,-48,-48,-49,-50,-51,-51,-52,-51,-50,-49,-48,-46,-44,-41,-38,-34,-30,-26,-15,9,52,103,160,215,250,262,251,217,159,105,91,87,84,81,77,63,26,-16,-33,-41,-48,-48,-45,-41,-38,-39,-46,-49,-51,-53,-54,-54,-54,-54,-54,-53,-51,-49,-47,-46,-45,-44,-43,-42,-41,-42,-42,-42,-42,-42,-41,-41,-40,-40,-39,-38,-37,-36,-35,-34,-32,-30,-28,-24,-18,-12,-5,0,8,17,27,36,43,51,58,65,74,81,86,90,95,100,105,111,117,124,131,138,143,148,153,157,159,160,156,150,143,136,125,115,106,92,73,56,38,23,15,6,-2,-7,-10,-13,-16,-18,-21,-23,-25,-27,-28,-29,-29,-30,-31,-32,-35,-38,-40,-41,-41,-40,-40,-40,-40,-40,-40,-39,-38,-38,-37,-37,-37,-38,-38,-39,-39,-40,-41,-41,-42,-42,-42,-42,-42,-42,-43,-43,-42,-42,-42,-42,-41,-41,-41,-41,-40,-40,-40,-40,-40,-40,-40,-40,-40,-41,-41,-41,-42,-42,-42,-42,-42,-42,-41,-40,-38,-36,-35,-33,-32,-32,-31,-31,-31,-31,-30,-29,-28,-26,-25,-23,-21,-20,-20,-20,-20,-21,-22,-22,-22,-22,-21,-20,-18,-16,-14,-12,-9,-8,-6,-5,-4,-1,0,3,6,8,8,7,7,6,5,5,4,3,2,0,-1,-2,-3,-3,-4,-4,-3,-2,-1,0,2,3,4,5,7,8,9,10,10,11,12,13,14,15,16,16,16,16,16,16,16,16,17,17,18,20,21,22,23,24,25,27,28,30,32,34,37,44,51,56,60,63,66,69,71,73,74,73,70,65,58,50,36,24,15,7,0,-7,-15,-20,-23,-26,-29,-31,-32,-32,-32,-31,-30,-28,-27,-25,-23,-21,-19,-17,-15,-13,-10,-7,-5,-1,4,25,65,112,162,209,255,268,275,268,221,164,125,114,108,102,97,93,88,76,51,28,11,0,-8,-12,-16,-21,-27,-32,-34,-35,-37,-39,-40,-42,-44,-45,-47,-48,-50,-51,-51,-51,-51,-50,-49,-48,-46,-45,-43,-41,-40,-38,-37,-36,-35,-33,-31,-29,-27,-24,-21,-18,-14,-11,-9,-7,-5,-3,0,2,7,17,25,33,39,44,48,53,59,65,72,79,88,98,106,114,119,124,128,131,134,136,136,136,135,133,131,128,124,115,98,79,59,42,28,12,0,-10,-18,-27,-34,-40,-45,-50,-54,-58,-61,-64,-66,-68,-69,-69,-70,-70,-71,-71,-72,-72,-72,-73,-73,-73,-73,-73,-73,-72,-72,-72,-71,-71,-70,-69,-69,-69,-69,-69,-69,-68,-68,-67,-66,-65,-64,-62,-60,-57,-55,-53,-51,-49,-48,-46,-46,-45,-45,-44,-43,-42,-40,-39,-37,-36,-35,-33,-32,-30,-30,-29,-28,-28,-26,-24,-22,-19,-17,-15,-13,-10,-7,-4,-2,0,1,3,4,6,9,11,12,14,15,17,18,19,20,20,21,22,24,26,29,31,32,31,30,28,25,24,22,21,20,19,17,16,14,13,12,12,11,11,12,12,13,13,13,13,12,12,11,10,10,9,9,9,9,9,9,9,9,8,8,6,5,5,5,5,5,6,6,7,8,8,9,9,9,9,8,8,8,9,10,12,13,15,18,21,25,29,34,38,43,51,59,67,75,83,88,93,98,102,106,108,109,108,106,103,99,94,89,81,68,56,45,35,27,18,9,0,-6,-12,-16,-20,-23,-26,-28,-31,-33,-35,-37,-39,-41,-43,-44,-45,-44,-42,-39,-35,-30,-23,-11,13,53,101,154,207,222,226,218,172,124,92,84,79,74,68,62,54,37,7,-11,-22,-29,-36,-42,-46,-49,-51,-54,-56,-58,-60,-61,-62,-64,-65,-66,-67,-67,-67,-67,-66,-65,-63,-62,-60,-59,-58,-57,-56,-55,-54,-52,-50,-48,-46,-44,-40,-35,-30,-25,-19,-13,-7,-2,2,6,10,14,17,19,21,22,25,28,32,42,55,67,77,87,96,104,111,118,126,135,143,153,160,164,167,171,174,177,177,171,162,152,137,126,111,90,73,62,51,40,31,24,17,11,3,-3,-9,-14,-19,-23,-27,-30,-33,-36,-39,-41,-43,-45,-46,-48,-50,-52,-54,-56,-57,-59,-60,-61,-63,-64,-64,-65,-66,-69,-72,-75,-77,-77,-74,-70,-66,-61,-57,-52,-47,-42,-38,-36,-35,-35,-35,-35,-35,-35,-35,-35,-35,-34,-34,-34,-34,-34,-35,-35,-36,-37,-38,-39,-39,-39,-39,-39,-39,-39,-39,-40,-40,-41,-42,-43,-44,-45,-45,-46,-47,-47,-48,-48,-48,-48,-49,-49,-50,-50,-50,-49,-49,-49,-49,-48,-48,-47,-46,-46,-45,-45,-44,-43,-42,-42,-41,-41,-40,-39,-37,-37,-36,-36,-36,-36,-36,-36,-37,-37,-37,-37,-36,-35,-35,-35,-35,-34,-34,-34,-35,-35,-36,-36,-36,-36,-36,-36,-36,-35,-35,-35,-34,-34,-34,-33,-33,-33,-32,-31,-30,-29,-29,-28,-27,-27,-27,-27,-27,-27,-26,-26,-25,-24,-24,-22,-21,-19,-17,-16,-14,-13,-12,-11,-10,-10,-10,-11,-12,-13,-15,-17,-19,-21,-23,-25,-28,-30,-33,-36,-39,-43,-46,-50,-53,-56,-58,-60,-62,-63,-64,-65,-65,-66,-66,-65,-66,-66,-66,-66,-66,-66,-67,-68,-67,-62,-53,-26,8,56,114,171,202,212,194,137,55,-20,-60,-73,-59,-44,-33,-28,-35,-46,-51,-54,-57,-59,-61,-63,-64,-65,-67,-68,-68,-68,-67,-64,-62,-59,-57,-54,-51,-48,-45,-41,-35,-28,-22,-17,-13,-9,-4,0,5,11,18,26,33,42,50,57,65,73,82,91,101,107,111,115,118,121,124,127,131,135,140,146,157,166,175,184,193,203,213,229,251,268,282,296,305,311,316,321,324,327,330,332,336,338,341,342,340,337,332,325,316,301,288,278,269,259,248,241,237,233,230,227,225,224,222,220,218,216,215,214,214,213,213,212,212,212,212,212,211,210,209,208,208,207,206,205,204,203,202,201,200,198,196,194,191,186,176,167,159,153,147,142,137,130,124,119,114,109,105,100,95,90,85,80,76,71,66,62,59,55,51,48,46,45,43,42,40,39,37,36,34,32,30,28,26,24,22,20,18,15,12,8,4,0,-4,-8,-13,-18,-24,-32,-40,-48,-54,-58,-61,-64,-66,-68,-70,-73,-76,-79,-82,-85,-88,-90,-92,-94,-96,-97,-98,-99,-100,-102,-104,-106,-108,-111,-113,-115,-117,-118,-120,-121,-123,-124,-125,-127,-130,-133,-135,-137,-140,-141,-142,-143,-143,-143,-142,-141,-139,-137,-135,-132,-129,-126,-123,-119,-115,-111,-108,-105,-103,-102,-100,-99,-97,-94,-93,-92,-94,-98,-103,-108,-111,-115,-119,-123,-127,-131,-134,-136,-138,-139,-141,-143,-145,-148,-151,-153,-154,-154,-153,-151,-148,-146,-145,-143,-140,-137,-134,-130,-123,-114,-82,-37,11,60,100,113,103,71,5,-63,-107,-123,-123,-112,-101,-90,-90,-98,-102,-104,-106,-108,-108,-108,-108,-109,-109,-110,-110,-110,-109,-108,-106,-104,-103,-102,-100,-99,-97,-95,-93,-91,-90,-89,-88,-87,-86,-85,-85,-85,-84,-84,-83,-82,-81,-80,-79,-78,-77,-75,-73,-71,-69,-66,-63,-59,-53,-47,-43,-39,-35,-31,-27,-23,-19,-15,-12,-8,-3,2,10,23,34,42,53,64,77,86,94,100,102,103,104,105,106,107,107,102,93,80,58,36,16,3,-5,-15,-27,-39,-54,-67,-75,-80,-85,-88,-91,-92,-92,-92,-93,-93,-93,-93,-94,-94,-95,-95,-96,-96,-95,-95,-94,-93,-92,-91,-90,-89,-88,-87,-87,-86,-86,-86,-86,-87,-87,-86,-86,-86,-85,-84,-83,-81,-80,-78,-77,-76,-75,-75,-74,-73,-73,-73,-73,-72,-72,-71,-69,-68,-67,-65,-64,-63,-62,-61,-61,-61,-61,-62,-62,-63,-63,-64,-64,-64,-63,-63,-63,-63,-62,-61,-60,-59,-59,-58,-58,-57,-56,-55,-54,-54,-53,-51,-49,-46,-44,-42,-42,-42,-43,-44,-45,-47,-49,-51,-53,-56,-58,-58,-57,-56,-54,-52,-50,-48,-47,-45,-43,-40,-39,-37,-36,-35,-34,-34,-34,-35,-35,-36,-35,-35,-34,-33,-32,-30,-29,-27,-26,-24,-22,-20,-18,-16,-14,-11,-8,-4,0,6,11,16,20,25,30,36,42,48,57,64,69,73,77,81,84,87,90,92,94,96,97,99,99,100,100,102,104,106,106,104,99,94,90,87,84,80,77,74,71,69,68,67,67,68,69,72,76,81,86,93,122,157,201,251,302,337,349,336,296,230,181,167,159,151,144,139,133,118,95,80,71,60,46,40,36,31,27,23,20,18,16,14,13,11,10,10,9,9,9,8,7,5,4,2,0,0,-1,-2,-2,-2,-2,-1,0,1,3,5,7,9,12,14,16,19,22,25,29,33,38,43,47,52,56,61,66,71,78,85,91,95,99,103,108,113,118,125,132,140,149,158,166,170,172,175,178,180,182,182,179,172,164,149,128,113,96,79,60,41,20,3,-5,-13,-21,-30,-37,-43,-49,-53,-56,-59,-61,-63,-63,-64,-65,-66,-67,-68,-69,-70,-71,-71,-71,-71,-71,-71,-70,-68,-67,-66,-65,-65,-65,-65,-65,-64,-64,-64,-65,-64,-64,-63,-62,-61,-60,-60,-58,-57,-56,-54,-53,-52,-50,-48,-46,-43,-41,-39,-37,-35,-32,-29,-26,-24,-21,-19,-17,-15,-13,-11,-9,-6,-3,2,7,14,21,25,29,32,35,37,40,42,43,45,46,47,47,47,47,47,48,48,49,50,51,52,53,54,54,53,52,50,47,45,42,39,36,34,32,31,30,28,25,22,19,16,13,11,9,8,7,7,7,7,6,5,3,1,0,-2,-2,-2,-1,0,1,2,3,5,6,7,8,8,8,8,8,8,8,8,8,8,9,10,11,12,14,16,18,20,23,25,28,33,44,51,55,58,61,63,66,67,67,66,63,59,55,51,46,41,36,31,25,19,12,2,-4,-7,-9,-11,-12,-14,-16,-18,-19,-20,-20,-20,-20,-20,-19,-18,-16,-14,-13,-11,-9,1,31,74,123,174,220,247,256,244,206,152,102,83,76,75,79,83,87,71,44,18,-4,-23,-31,-33,-35,-37,-39,-41,-42,-42,-41,-41,-40,-39,-38,-37,-36,-35,-34,-34,-33,-31,-30,-29,-28,-27,-28,-28,-29,-29,-31,-32,-34,-36,-37,-38,-39,-41,-42,-44,-45,-46,-45,-43,-41,-38,-35,-30,-25,-16,-9,-4,0,3,6,9,12,15,19,23,29,39,53,66,82,102,117,126,133,137,141,144,146,148,147,144,138,131,122,107,92,78,64,46,32,22,13,5,-1,-6,-11,-16,-22,-29,-37,-45,-53,-62,-70,-74,-74,-73,-73,-73,-73,-74,-74,-74,-74,-74,-74,-74,-73,-73,-72,-71,-70,-69,-69,-69,-68,-67,-66,-65,-65,-65,-64,-64,-64,-64,-64,-65,-65,-64,-64,-63,-62,-61,-60,-59,-57,-56,-56,-55,-55,-55,-54,-54,-53,-52,-51,-49,-48,-47,-45,-45,-44,-43,-43,-43,-43,-42,-42,-41,-41,-41,-40,-40,-39,-39,-38,-38,-38,-37,-36,-35,-34,-34,-33,-33,-32,-31,-30,-28,-27,-27,-26,-24,-23,-21,-21,-22,-23,-24,-24,-25,-25,-26,-27,-28,-28,-28,-27,-27,-27,-28,-29,-29,-30,-30,-30,-30,-30,-30,-29,-28,-27,-27,-27,-27,-27,-26,-26,-26,-26,-26,-26,-25,-24,-22,-21,-20,-20,-20,-20,-20,-21,-21,-22,-22,-21,-20,-19,-17,-14,-12,-9,-6,-3,0,2,5,7,8,10,12,13,15,17,18,20,22,23,24,25,25,24,23,22,21,19,17,15,14,12,10,9,8,7,6,5,3,2,0,-1,-3,-5,-7,-8,-8,-8,-8,-7,-6,-4,-1,2,6,10,16,30,57,96,141,194,247,284,297,287,255,201,147,128,122,118,113,104,90,68,34,12,-2,-8,-7,-5,-4,-4,-5,-5,-6,-5,-5,-5,-5,-4,-4,-3,-2,-1,-1,0,0,0,1,2,2,4,5,6,8,10,11,12,13,15,17,19,22,25,28,31,34,38,42,45,48,52,55,59,62,66,69,72,74,77,80,84,90,102,114,126,135,144,154,160,165,169,174,178,182,186,191,195,200,205,209,209,206,201,193,181,158,139,125,111,94,72,54,40,27,19,13,9,5,2,0,-3,-5,-6,-7,-8,-9,-10,-10,-11,-11,-12,-11,-11,-11,-10,-9,-9,-8,-7,-7,-7,-6,-6,-6,-6,-6,-6,-6,-7,-7,-8,-9,-10,-12,-14,-16,-18,-20,-21,-22,-24,-25,-26,-27,-28,-29,-31,-32,-33,-34,-35,-36,-36,-36,-35,-34,-32,-31,-31,-30,-30,-30,-31,-31,-32,-33,-34,-35,-35,-36,-37,-38,-38,-39,-41,-44,-46,-48,-50,-50,-48,-44,-40,-35,-31,-28,-25,-22,-20,-18,-16,-14,-13,-12,-12,-11,-11,-11,-10,-10,-10,-10,-10,-10,-11,-11,-11,-11,-11,-12,-12,-12,-12,-11,-10,-9,-8,-7,-6,-6,-5,-5,-5,-6,-7,-7,-8,-9,-9,-10,-10,-11,-11,-11,-11,-12,-12,-13,-13,-14,-15,-15,-16,-16,-16,-16,-16,-16,-15,-14,-13,-12,-11,-10,-9,-7,-5,-3,-1,0,1,4,10,17,22,24,26,27,28,29,31,32,33,33,33,32,30,27,24,20,15,9,0,-8,-16,-21,-25,-28,-30,-32,-33,-32,-31,-30,-29,-28,-27,-26,-25,-23,-22,-20,-18,-16,-13,-10,-6,-1,8,30,65,108,162,219,262,277,266,232,174,124,106,102,99,95,89,80,46,-2,-35,-46,-51,-50,-48,-46,-44,-44,-45,-49,-53,-55,-56,-57,-58,-60,-61,-63,-64,-65,-66,-66,-66,-65,-64,-62,-61,-59,-58,-55,-53,-51,-49,-47,-44,-38,-31,-25,-20,-15,-11,-7,-3,0,3,7,11,15,19,22,25,28,31,34,37,40,43,47,52,58,69,79,88,98,107,116,124,131,138,144,148,151,154,158,160,161,159,154,147,138,126,116,105,94,82,69,56,44,29,13,-1,-19,-35,-46,-49,-51,-52,-52,-52,-53,-53,-53,-53,-52,-52,-51,-48,-46,-43,-40,-37,-35,-34,-33,-32,-30,-29,-28,-27,-26,-25,-24,-24,-23,-23,-23,-24,-23,-23,-23,-23,-23,-22,-22,-21,-21,-20,-20,-20,-20,-19,-19,-19,-19,-19,-18,-18,-17,-17,-17,-17,-16,-15,-14,-13,-12,-11,-10,-8,-7,-6,-4,-3,-2,-1,0,3,5,7,8,9,9,8,6,3,0,-2,-5,-8,-9,-11,-12,-14,-15,-16,-16,-17,-17,-18,-18,-19,-19,-19,-19,-20,-20,-20,-20,-20,-20,-20,-20,-20,-21,-21,-21,-22,-23,-24,-25,-26,-27,-28,-29,-29,-30,-31,-31,-32,-32,-33,-34,-35,-36,-37,-37,-37,-37,-38,-38,-38,-39,-39,-39,-40,-40,-40,-40,-39,-38,-37,-36,-35,-34,-33,-31,-30,-29,-28,-27,-26,-25,-23,-20,-16,-12,-8,-4,-1,2,6,11,20,26,30,32,35,37,39,39,39,36,32,26,20,15,8,1,-3,-8,-11,-14,-15,-17,-18,-19,-20,-21,-22,-24,-25,-27,-28,-29,-30,-31,-31,-32,-33,-35,-40,-43,-43,-38,-29,-15,5,38,81,135,194,250,281,292,276,229,163,120,104,103,109,120,120,96,56,17,-8,-14,-19,-22,-24,-25,-27,-28,-30,-31,-32,-33,-34,-34,-34,-34,-34,-35,-36,-37,-37,-37,-37,-37,-36,-35,-33,-32,-29,-27,-25,-23,-20,-18,-16,-13,-11,-8,-7,-5,-4,-1,1,7,18,28,34,38,42,46,50,55,60,66,75,83,91,101,112,121,128,132,137,142,147,153,159,166,173,179,184,189,193,197,200,201,200,197,193,188,178,161,145,129,113,95,77,59,41,22,4,-9,-23,-33,-42,-48,-51,-52,-53,-53,-54,-54,-54,-55,-56,-57,-58,-59,-60,-60,-60,-60,-60,-60,-60,-59,-59,-58,-58,-57,-57,-56,-55,-54,-53,-52,-51,-49,-47,-46,-44,-43,-42,-41,-39,-38,-37,-36,-35,-33,-32,-31,-30,-30,-29,-28,-28,-27,-27,-28,-28,-28,-29,-29,-30,-31,-32,-33,-34,-35,-35,-36,-38,-39,-41,-42,-44,-45,-46,-48,-49,-50,-51,-51,-51,-52,-52,-52,-52,-52,-52,-52,-52,-53,-53,-53,-53,-54,-54,-55,-55,-55,-56,-56,-57,-57,-58,-58,-58,-58,-58,-58,-59,-59,-60,-61,-63,-64,-65,-67,-68,-69,-70,-70,-71,-72,-72,-73,-74,-75,-77,-79,-81,-82,-83,-84,-84,-84,-83,-82,-80,-78,-75,-72,-69,-65,-55,-44,-33,-23,-10,-2,3,7,12,15,18,22,28,36,48,58,66,70,71,71,71,70,70,70,69,68,67,65,63,62,61,60,59,58,56,55,55,54,54,54,54,54,54,55,55,56,57,58,58,59,60,60,62,63,65,67,69,75,93,127,172,226,278,305,303,266,188,101,33,12,15,37,47,49,51,43,38,36,34,32,31,30,29,28,27,26,25,25,26,28,30,31,33,34,35,37,38,38,39,40,41,41,42,42,43,44,45,46,47,48,49,50,51,52,54,54,54,55,55,56,57,58,59,60,61,63,64,66,68,72,81,89,96,107,123,138,155,171,183,193,202,211,222,233,243,253,259,264,267,270,271,271,269,267,263,258,251,239,226,213,200,188,171,151,131,112,98,88,77,67,57,45,39,35,32,30,27,24,21,17,13,10,7,4,1,0,-3,-5,-8,-11,-13,-15,-16,-17,-18,-19,-20,-21,-21,-21,-21,-21,-21,-21,-22,-22,-22,-22,-22,-22,-23,-24,-24,-25,-26,-27,-28,-30,-32,-34,-35,-37,-38,-40,-41,-43,-45,-47,-49,-52,-55,-58,-61,-63,-65,-67,-68,-70,-72,-74,-81,-95,-99,-100,-100,-101,-102,-102,-103,-103,-104,-104,-105,-105,-106,-106,-106,-106,-106,-106,-106,-106,-106,-107,-108,-109,-110,-111,-112,-113,-114,-115,-116,-116,-116,-116,-116,-115,-115,-115,-114,-114,-114,-114,-113,-113,-112,-111,-110,-110,-109,-109,-107,-106,-105,-104,-103,-102,-101,-100,-99,-98,-96,-95,-93,-90,-86,-82,-77,-74,-71,-68,-65,-62,-57,-50,-31,-22,-18,-15,-12,-11,-10,-9,-9,-9,-9,-10,-11,-12,-14,-16,-18,-20,-22,-24,-25,-26,-27,-27,-28,-28,-29,-30,-30,-30,-30,-29,-29,-28,-26,-24,-22,-19,-16,-12,-9,0,19,52,93,141,190,236,251,245,226,162,82,11,-12,-20,-8,1,8,13,16,15,12,6,1,-2,-6,-10,-14,-18,-19,-18,-17,-15,-13,-13,-11,-9,-6,-4,-4,-5,-8,-12,-15,-16,-18,-21,-24,-26,-28,-30,-30,-30,-30,-30,-30,-28,-26,-23,-21,-19,-17,-15,-12,-8,-3,1,7,15,24,37,48,56,63,68,72,77,80,84,88,93,102,115,129,142,154,162,167,171,173,176,178,180,182,184,187,190,191,189,184,175,162,141,122,102,87,77,67,56,48,41,35,29,24,19,14,10,6,2,-3,-9,-14,-16,-17,-18,-20,-21,-22,-23,-24,-25,-26,-27,-28,-29,-29,-29,-29,-29,-29,-29,-29,-28,-29,-29,-30,-32,-33,-34,-34,-35,-35,-35,-35,-35,-35,-35,-36,-36,-38,-39,-41,-42,-44,-46,-47,-49,-50,-51,-53,-55,-57,-60,-63,-67,-70,-73,-77,-81,-84,-88,-91,-94,-97,-99,-102,-105,-108,-111,-113,-114,-116,-118,-119,-121,-123,-125,-127,-129,-131,-132,-133,-133,-134,-134,-134,-134,-134,-134,-134,-135,-135,-137,-138,-139,-139,-139,-139,-138,-136,-134,-132,-129,-126,-123,-119,-115,-110,-105,-101,-97,-92,-85,-75,-68,-66,-64,-63,-62,-62,-62,-62,-61,-61,-61,-61,-61,-61,-60,-60,-59,-58,-57,-56,-55,-53,-51,-49,-46,-44,-41,-36,-30,-25,-22,-21,-19,-17,-15,-13,-11,-10,-9,-11,-13,-17,-21,-26,-31,-37,-43,-48,-54,-59,-65,-71,-74,-77,-79,-80,-82,-85,-86,-87,-87,-85,-82,-78,-73,-66,-53,-43,-33,-23,-9,10,31,65,100,138,176,205,215,206,179,128,79,60,55,51,47,43,36,11,-24,-54,-70,-78,-82,-85,-86,-88,-90,-92,-94,-96,-99,-101,-100,-95,-87,-79,-69,-60,-50,-43,-38,-33,-29,-26,-24,-23,-22,-21,-19,-16,-11,-1,13,37,64,87,117,145,174,207,228,248,263,274,283,290,298,306,314,322,328,333,335,337,338,340,341,343,344,346,347,347,348,348,348,348,347,346,345,344,343,341,340,339,337,335,332,323,302,283,264,244,223,201,178,158,144,131,121,112,103,92,85,80,76,72,68,65,62,58,54,51,48,45,44,42,41,39,38,36,34,33,31,29,27,24,22,20,19,17,15,14,12,10,9,8,6,4,3,1,0,-1,-2,-3,-3,-3,-3,-3,-2,-2,-2,-3,-4,-5,-6,-7,-8,-9,-10,-11,-11,-12,-12,-14,-15,-17,-18,-20,-22,-24,-27,-29,-32,-33,-34,-36,-37,-38,-40,-41,-41,-42,-43,-44,-45,-46,-46,-46,-46,-47,-47,-48,-48,-48,-49,-49,-49,-49,-49,-49,-48,-48,-48,-48,-48,-49,-50,-50,-51,-52,-52,-53,-55,-56,-57,-58,-59,-60,-61,-63,-65,-66,-68,-71,-73,-76,-78,-80,-82,-83,-85,-87,-88,-90,-92,-94,-96,-98,-100,-102,-104,-105,-105,-105,-105,-104,-103,-102,-100,-98,-96,-95,-93,-92,-91,-89,-87,-85,-83,-80,-75,-70,-64,-60,-56,-54,-52,-50,-48,-46,-44,-43,-45,-49,-56,-62,-67,-70,-73,-76,-79,-81,-83,-85,-87,-88,-91,-93,-95,-96,-97,-97,-97,-96,-95,-94,-92,-90,-88,-87,-85,-82,-79,-75,-72,-61,-37,-3,31,70,112,153,169,171,161,133,87,53,44,38,32,26,20,10,-25,-65,-86,-93,-95,-97,-98,-99,-101,-102,-104,-106,-107,-107,-108,-109,-109,-109,-109,-109,-109,-109,-108,-107,-106,-105,-103,-102,-101,-100,-99,-98,-97,-95,-94,-92,-90,-87,-83,-80,-76,-72,-69,-65,-61,-58,-54,-50,-45,-39,-31,-24,-18,-13,-7,0,10,21,33,47,63,78,88,95,101,107,113,118,123,129,136,143,148,152,156,160,163,165,165,161,154,145,132,114,99,86,76,64,50,41,35,30,26,22,18,13,8,4,0,-1,-4,-6,-8,-10,-11,-12,-13,-15,-16,-17,-19,-20,-22,-22,-22,-23,-23,-23,-23,-22,-20,-19,-18,-17,-16,-15,-13,-11,-9,-7,-6,-5,-3,-1,0,2,3,4,5,6,8,9,10,10,11,11,12,13,14,14,14,13,13,13,12,11,10,8,6,5,5,3,2,0,0,-2,-3,-4,-5,-6,-7,-8,-8,-8,-8,-9,-10,-11,-12,-13,-15,-17,-19,-20,-22,-23,-24,-26,-27,-29,-30,-31,-32,-33,-34,-35,-37,-38,-39,-41,-42,-43,-44,-45,-46,-47,-48,-48,-48,-49,-49,-49,-49,-48,-47,-47,-47,-46,-46,-46,-45,-44,-43,-42,-41,-40,-38,-36,-34,-32,-31,-30,-29,-28,-27,-26,-26,-25,-24,-23,-22,-21,-20,-18,-17,-15,-14,-12,-11,-10,-8,-6,-4,-1,1,4,9,15,23,30,35,39,42,45,48,51,54,56,58,59,59,57,53,48,43,38,34,31,28,24,20,17,14,11,9,7,6,5,4,3,3,2,2,2,2,3,3,5,6,8,11,15,18,22,26,37,61,99,145,194,241,257,265,261,225,178,130,108,96,90,85,79,72,62,49,31,13,-5,-21,-23,-25,-27,-26,-19,-16,-15,-14,-13,-12,-12,-11,-10,-9,-9,-8,-8,-7,-7,-6,-5,-4,-2,-1,0,0,1,2,3,3,5,6,8,11,14,17,20,24,28,34,40,47,53,62,70,78,84,89,95,101,107,114,121,129,138,146,154,162,169,176,182,189,196,204,214,223,230,237,243,247,249,248,246,242,237,227,208,186,167,149,132,115,98,79,62,50,43,34,24,14,4,-3,-9,-13,-15,-17,-19,-21,-22,-24,-25,-26,-27,-28,-28,-29,-29,-30,-30,-30,-30,-30,-30,-30,-31,-31,-31,-30,-30,-29,-29,-29,-28,-28,-27,-26,-26,-25,-25,-25,-25,-25,-24,-24,-23,-22,-22,-22,-21,-22,-22,-23,-23,-23,-23,-24,-24,-24,-25,-25,-26,-26,-27,-28,-29,-30,-31,-32,-33,-34,-35,-36,-37,-39,-42,-45,-48,-50,-52,-54,-56,-58,-61,-63,-65,-68,-70,-73,-76,-79,-82,-83,-85,-86,-87,-87,-88,-89,-90,-91,-93,-95,-96,-97,-97,-97,-95,-93,-90,-88,-85,-83,-82,-80,-78,-77,-76,-75,-74,-73,-71,-70,-69,-68,-67,-66,-65,-65,-65,-64,-64,-64,-63,-63,-62,-62,-61,-61,-60,-59,-59,-58,-57,-55,-53,-50,-47,-42,-36,-24,-15,-8,-2,3,9,17,25,29,32,35,38,40,41,43,43,43,43,42,40,37,35,32,29,27,25,23,21,19,17,16,15,15,15,15,16,16,17,18,19,20,22,24,25,27,30,33,37,43,50,64,87,122,164,212,256,284,293,281,245,181,113,56,31,23,29,36,41,31,21,13,10,16,27,32,35,37,39,40,40,41,43,44,46,47,49,50,50,51,52,52,53,53,53,53,53,53,54,55,56,58,60,62,64,65,67,69,71,72,74,76,79,83,90,97,104,110,114,118,120,123,125,128,130,132,134,137,139,143,150,162,173,182,190,198,206,212,217,221,224,228,231,235,238,243,247,248,246,241,232,218,198,181,164,135,100,64,29,-5,-40,-66,-96,-126,-146,-159,-167,-172,-176,-178,-179,-181,-182,-183,-184,-185,-185,-186,-186,-187,-187,-186,-185,-184,-183,-181,-179,-177,-175,-172,-170,-167,-165,-161,-157,-152,-149,-145,-142,-139,-137,-135,-134,-132,-131,-129,-127,-124,-122,-119,-117,-115,-113,-111,-110,-109,-107,-106,-104,-102,-101,-99,-98,-96,-94,-93,-92,-91,-90,-90,-88,-87,-86,-85,-84,-84,-83,-82,-81,-81,-80,-80,-79,-78,-77,-76,-76,-76,-76,-76,-76,-76,-76,-76,-77,-77,-77,-77,-76,-76,-75,-75,-74,-74,-73,-72,-72,-71,-70,-70,-69,-68,-67,-67,-66,-65,-65,-64,-64,-64,-63,-63,-62,-62,-61,-61,-60,-59,-58,-56,-55,-54,-53,-53,-52,-50,-49,-48,-47,-45,-43,-40,-37,-33,-30,-28,-26,-23,-21,-18,-13,-6,6,11,14,17,20,19,13,5,-2,-10,-18,-26,-32,-35,-38,-40,-42,-45,-46,-48,-50,-51,-53,-54,-55,-56,-56,-56,-55,-55,-55,-54,-53,-52,-50,-49,-47,-45,-43,-39,-27,-17,6,42,93,156,219,261,265,242,167,73,-9,-50,-65,-66,-62,-61,-60,-60,-60,-59,-59,-58,-58,-58,-58,-58,-58,-59,-60,-61,-61,-61,-60,-59,-58,-57,-56,-55,-55,-54,-54,-53,-53,-52,-51,-50,-48,-46,-43,-41,-38,-36,-35,-33,-32,-31,-29,-28,-26,-24,-21,-18,-15,-11,-7,-4,0,4,8,11,15,18,22,25,28,32,35,39,44,51,58,65,72,81,93,104,114,122,129,134,138,140,143,145,146,146,146,144,141,137,132,125,112,99,81,60,43,31,18,6,-4,-18,-25,-30,-33,-36,-39,-41,-44,-47,-50,-53,-55,-57,-58,-60,-62,-64,-66,-67,-67,-68,-70,-72,-72,-72,-72,-71,-69,-68,-66,-63,-60,-55,-50,-45,-32,-4,24,50,74,97,131,154,160,165,168,171,172,173,174,173,172,171,169,166,162,158,154,147,138,127,121,118,115,113,111,110,108,106,105,103,101,100,99,97,96,93,90,86,81,76,71,67,63,59,57,56,56,57,57,58,59,60,61,62,63,61,57,52,48,45,43,40,37,34,31,29,27,26,24,22,21,20,20,20,19,19,18,18,17,15,13,11,10,8,7,6,5,5,5,6,6,7,7,7,7,6,6,5,5,4,3,3,3,5,7,9,12,15,19,23,32,45,54,60,64,67,69,68,65,60,55,48,36,23,14,7,1,-2,-5,-7,-8,-8,-9,-9,-10,-10,-11,-11,-11,-11,-11,-11,-10,-9,-8,-6,-3,0,3,7,15,33,61,97,142,193,242,278,290,280,248,189,128,89,74,73,77,81,85,74,43,9,-12,-31,-43,-49,-51,-51,-53,-54,-56,-56,-57,-57,-57,-57,-56,-56,-55,-54,-52,-51,-49,-48,-46,-45,-44,-43,-41,-40,-38,-36,-34,-31,-28,-25,-21,-18,-14,-9,-4,1,5,9,12,16,21,26,32,39,46,53,62,69,74,78,80,82,83,85,88,91,95,99,104,113,127,139,151,162,168,171,174,176,178,179,179,177,174,170,164,156,141,127,107,84,63,41,23,10,-8,-19,-25,-31,-35,-39,-42,-44,-46,-49,-51,-53,-54,-55,-56,-56,-57,-58,-58,-59,-59,-59,-59,-60,-60,-60,-60,-59,-59,-60,-60,-60,-60,-59,-59,-59,-59,-59,-58,-58,-57,-57,-57,-57,-58,-58,-57,-57,-56,-55,-53,-52,-51,-50,-49,-48,-48,-47,-46,-44,-41,-38,-35,-34,-33,-33,-34,-35,-37,-39,-43,-47,-48,-47,-45,-45,-44,-44,-44,-43,-43,-43,-42,-42,-42,-42,-42,-42,-43,-43,-42,-42,-41,-41,-40,-40,-39,-39,-38,-39,-39,-40,-40,-40,-40,-40,-40,-40,-40,-40,-40,-40,-40,-41,-41,-42,-42,-42,-42,-42,-42,-41,-40,-39,-38,-37,-37,-36,-35,-34,-34,-34,-34,-35,-35,-36,-36,-36,-37,-36,-36,-35,-34,-34,-34,-34,-34,-34,-34,-35,-35,-35,-35,-34,-32,-31,-29,-26,-23,-19,-15,-11,-7,0,14,24,29,32,34,36,38,40,41,42,43,43,42,41,39,37,34,30,25,21,14,0,-11,-18,-23,-28,-31,-32,-31,-27,-22,-17,-14,-10,-7,-4,-1,1,4,6,9,11,15,18,27,42,65,97,144,204,263,300,313,301,267,211,160,129,120,113,106,99,86,67,49,27,12,4,0,-5,-10,-14,-18,-21,-24,-28,-31,-35,-37,-37,-34,-31,-27,-25,-22,-20,-17,-15,-12,-10,-7,-5,-2,0,2,4,6,8,10,12,15,18,20,22,24,27,30,34,37,40,44,49,54,59,63,67,71,76,81,87,93,100,106,114,122,130,137,144,151,159,165,172,177,182,187,191,194,196,198,200,202,206,207,204,195,183,164,146,126,108,95,82,66,45,26,12,-2,-11,-17,-22,-26,-29,-31,-33,-35,-36,-37,-38,-38,-39,-40,-40,-40,-40,-40,-40,-41,-41,-42,-42,-42,-42,-42,-43,-43,-43,-43,-43,-44,-44,-45,-45,-45,-45,-45,-45,-44,-43,-42,-41,-39,-38,-37,-36,-36,-35,-34,-33,-33,-33,-32,-31,-30,-29,-28,-28,-28,-29,-29,-30,-31,-33,-34,-36,-37,-37,-38,-39,-40,-40,-40,-40,-39,-38,-37,-36,-35,-33,-32,-31,-30,-30,-31,-32,-32,-33,-33,-34,-35,-35,-35,-35,-34,-34,-34,-34,-34,-35,-35,-36,-37,-38,-39,-39,-39,-39,-39,-39,-39,-39,-39,-40,-41,-41,-42,-43,-44,-45,-45,-46,-46,-47,-47,-47,-47,-48,-48,-48,-48,-48,-47,-45,-44,-43,-41,-40,-38,-36,-35,-33,-32,-31,-29,-28,-26,-24,-22,-20,-18,-16,-14,-13,-12,-12,-11,-11,-10,-9,-8,-7,-6,-5,-4,-2,-1,0,1,3,6,14,20,24,27,29,32,34,36,38,38,38,36,34,31,27,21,14,2,-11,-19,-24,-28,-32,-34,-34,-34,-33,-33,-33,-33,-32,-32,-31,-31,-30,-29,-28,-26,-23,-20,-16,-12,-6,6,31,70,116,167,218,254,268,268,253,211,168,131,116,106,95,85,72,59,45,32,16,-11,-26,-31,-34,-38,-40,-43,-45,-47,-49,-50,-50,-51,-52,-52,-51,-50,-49,-47,-46,-44,-44,-43,-41,-40,-39,-38,-37,-38,-38,-38,-37,-37,-36,-35,-34,-32,-29,-27,-25,-23,-21,-19,-16,-13,-7,3,15,26,33,39,44,49,54,59,63,67,72,80,91,101,109,117,126,135,146,154,162,169,171,172,172,172,172,172,172,166,153,140,127,115,103,89,72,54,39,26,12,0,-12,-24,-32,-39,-43,-45,-47,-48,-49,-51,-52,-53,-54,-55,-55,-55,-56,-56,-55,-55,-54,-54,-54,-54,-55,-55,-55,-55,-55,-54,-54,-53,-52,-50,-49,-48,-46,-44,-43,-41,-40,-38,-37,-36,-34,-33,-32,-31,-30,-29,-28,-27,-27,-26,-25,-24,-22,-21,-21,-20,-20,-19,-19,-19,-19,-19,-20,-20,-20,-20,-20,-21,-21,-21,-21,-21,-21,-21,-20,-20,-20,-20,-20,-20,-21,-22,-23,-24,-24,-25,-25,-25,-25,-24,-23,-22,-21,-21,-21,-21,-23,-24,-26,-28,-29,-29,-29,-29,-30,-30,-30,-30,-30,-30,-32,-33,-34,-35,-35,-35,-35,-34,-33,-33,-32,-31,-30,-30,-31,-32,-32,-33,-33,-33,-33,-33,-33,-32,-31,-31,-31,-31,-32,-32,-33,-33,-34,-35,-36,-37,-37,-37,-37,-36,-36,-35,-35,-35,-34,-34,-34,-34,-34,-34,-33,-32,-31,-29,-26,-23,-19,-13,-7,-1,6,17,25,29,31,33,34,36,37,38,38,35,30,24,18,13,9,4,-1,-6,-12,-16,-20,-23,-25,-27,-30,-32,-34,-36,-39,-41,-43,-44,-45,-45,-45,-44,-41,-38,-34,-29,-20,1,42,96,158,219,268,284,276,250,196,157,147,141,134,126,118,107,84,47,19,0,-11,-14,-16,-17,-19,-22,-24,-26,-27,-28,-29,-29,-29,-29,-29,-29,-29,-29,-29,-29,-28,-28,-28,-28,-27,-26,-25,-23,-22,-21,-20,-18,-16,-15,-14,-12,-11,-9,-5,4,14,25,35,43,51,61,70,77,83,88,93,98,102,106,110,115,120,127,133,140,147,156,166,177,188,195,200,204,208,210,212,212,210,207,203,198,192,186,176,166,158,150,136,114,91,68,51,41,28,14,2,-6,-15,-22,-30,-35,-38,-40,-42,-43,-44,-46,-47,-48,-49,-50,-52,-53,-55,-56,-56,-55,-55,-55,-54,-53,-52,-50,-49,-47,-46,-45,-44,-43,-42,-41,-40,-40,-39,-38,-36,-34,-33,-31,-30,-28,-27,-25,-24,-23,-22,-21,-21,-20,-20,-19,-19,-19,-18,-18,-17,-16,-16,-16,-16,-17,-19,-20,-21,-22,-22,-23,-23,-24,-23,-24,-24,-25,-26,-27,-27,-28,-29,-29,-30,-30,-30,-30,-29,-29,-29,-29,-29,-29,-29,-30,-31,-32,-32,-33,-34,-35,-36,-37,-38,-40,-40,-41,-42,-44,-45,-45,-45,-45,-46,-46,-48,-49,-49,-49,-49,-48,-48,-47,-47,-46,-45,-44,-43,-43,-43,-42,-41,-40,-39,-40,-41,-43,-45,-47,-51,-54,-55,-52,-49,-48,-47,-46,-45,-45,-44,-43,-43,-42,-42,-43,-44,-44,-44,-44,-44,-44,-44,-44,-43,-42,-40,-38,-37,-35,-32,-29,-25,-17,-8,0,9,19,29,37,42,45,48,50,52,53,52,47,40,32,24,13,4,0,-5,-7,-10,-12,-13,-14,-14,-15,-15,-15,-15,-15,-15,-14,-14,-13,-11,-10,-8,-6,-3,0,3,7,11,22,46,84,132,188,244,283,295,282,243,176,118,103,98,95,89,82,72,53,22,10,6,3,0,-2,-3,-6,-9,-11,-13,-14,-15,-16,-16,-16,-16,-15,-15,-15,-14,-14,-13,-13,-12,-11,-10,-9,-7,-6,-5,-4,-3,-2,-1,0,1,3,4,6,11,17,23,30,39,49,62,72,81,89,95,100,106,110,115,119,122,126,130,136,142,149,158,169,179,189,199,210,217,222,225,228,230,232,233,234,233,231,227,223,217,208,193,182,167,150,133,116,100,80,64,54,45,36,30,26,23,20,17,13,10,7,4,1,0,-3,-6,-8,-10,-12,-14,-16,-18,-20,-23,-26,-31,-37,-39,-39,-36,-32,-30,-28,-25,-23,-21,-19,-17,-15,-15,-14,-14,-14,-14,-14,-14,-14,-13,-13,-12,-11,-10,-10,-10,-10,-10,-11,-11,-12,-12,-12,-12,-11,-11,-10,-10,-9,-9,-8,-8,-8,-8,-8,-8,-7,-7,-7,-6,-7,-7,-7,-6,-7,-7,-8,-10,-10,-11,-12,-14,-15,-17,-18,-19,-20,-21,-21,-24,-27,-30,-32,-32,-31,-30,-29,-28,-27,-26,-24,-23,-22,-20,-19,-18,-18,-18,-19,-20,-22,-24,-26,-29,-31,-34,-36,-38,-41,-43,-46,-49,-51,-51,-51,-52,-52,-52,-51,-51,-50,-50,-50,-50,-51,-51,-51,-51,-50,-50,-50,-50,-50,-49,-48,-48,-49,-49,-50,-50,-50,-50,-50,-50,-50,-49,-48,-47,-46,-45,-44,-42,-40,-37,-34,-31,-24,-17,-10,-1,8,20,22,22,23,23,23,23,22,17,12,6,0,-7,-13,-17,-20,-22,-25,-27,-28,-30,-31,-33,-34,-36,-37,-39,-40,-41,-44,-46,-48,-50,-51,-51,-50,-48,-45,-41,-35,-24,-3,30,76,131,189,239,262,270,254,206,149,113,102,94,86,79,70,54,28,8,-5,-22,-28,-31,-34,-36,-38,-40,-41,-43,-44,-45,-45,-46,-47,-47,-47,-46,-45,-44,-43,-41,-40,-38,-36,-33,-31,-29,-27,-26,-25,-23,-22,-20,-18,-16,-13,-10,-6,-3,0,1,3,4,6,9,12,17,28,36,41,46,49,52,56,60,65,71,81,94,107,120,133,145,153,159,164,169,173,176,179,183,186,188,189,188,183,177,168,157,138,122,106,90,73,55,38,23,8,-6,-21,-33,-43,-51,-57,-60,-61,-62,-63,-64,-65,-66,-68,-69,-70,-71,-72,-72,-72,-71,-71,-70,-70,-70,-70,-71,-71,-71,-71,-71,-71,-71,-71,-70,-69,-68,-66,-65,-64,-62,-60,-58,-56,-54,-52,-50,-49,-47,-46,-45,-44,-44,-42,-41,-39,-37,-36,-34,-32,-30,-27,-25,-23,-22,-22,-22,-22,-22,-22,-22,-23,-23,-24,-25,-25,-26,-26,-27,-27,-28,-29,-29,-30,-31,-32,-33,-35,-37,-39,-41,-43,-45,-46,-47,-47,-47,-47,-47,-47,-47,-47,-47,-47,-47,-48,-49,-50,-51,-51,-49,-45,-42,-39,-37,-35,-34,-32,-31,-30,-29,-27,-26,-25,-25,-24,-24,-23,-22,-22,-22,-22,-22,-22,-22,-21,-21,-21,-21,-22,-22,-23,-23,-24,-26,-27,-27,-27,-27,-27,-26,-26,-25,-24,-22,-21,-20,-19,-18,-16,-14,-11,-8,-4,-1,2,5,8,10,11,11,11,9,8,6,3,0,-2,-6,-10,-14,-20,-27,-31,-33,-34,-36,-37,-38,-40,-42,-43,-44,-44,-45,-45,-45,-44,-44,-43,-42,-41,-40,-38,-34,-30,-25,-14,5,39,81,131,183,214,225,206,148,70,1,-32,-44,-29,-13,-1,4,-3,-16,-22,-27,-31,-34,-37,-38,-39,-40,-41,-41,-40,-39,-38,-36,-34,-32,-30,-29,-27,-26,-24,-23,-21,-19,-17,-15,-13,-12,-11,-10,-9,-7,-5,-3,0,2,5,9,13,17,21,24,28,31,36,44,56,64,69,73,76,79,83,88,94,100,106,113,120,127,134,141,149,158,167,174,180,188,199,207,212,217,220,221,219,214,207,199,186,175,160,140,123,110,97,80,60,44,33,19,8,-1,-10,-21,-26,-30,-33,-36,-39,-41,-44,-45,-47,-48,-49,-50,-51,-52,-53,-54,-56,-58,-59,-58,-55,-52,-49,-48,-47,-46,-45,-43,-41,-40,-39,-39,-38,-38,-38,-38,-38,-39,-40,-40,-39,-39,-39,-39,-38,-38,-37,-37,-37,-36,-36,-35,-34,-33,-32,-30,-29,-28,-26,-25,-24,-22,-21,-19,-16,-14,-12,-11,-11,-11,-11,-11,-12,-12,-13,-14,-14,-15,-17,-18,-19,-19,-20,-20,-20,-20,-20,-19,-18,-17,-15,-14,-14,-13,-12,-12,-11,-11,-11,-11,-11,-10,-9,-8,-7,-6,-6,-5,-4,-4,-4,-5,-5,-5,-5,-5,-5,-5,-5,-4,-4,-3,-2,-2,-2,-1,-1,0,0,0,1,2,4,4,5,6,7,8,9,9,10,12,13,15,17,20,22,24,26,28,31,34,38,45,58,70,76,81,85,88,90,90,88,85,80,74,69,64,58,53,49,45,41,39,37,35,33,31,30,27,25,22,19,16,12,9,7
