748,884,1025,1168,1287,1335,1326,1273,1235,1204,1175,1162,1156,1152,1148,1144,1138,1134,1133,1129,1123,1108,1081,1063,1051,1047,1053,1063,1071,1079,1084,1084,1076,1065,1051,1034,1029,1025,1020,1018,1025,1037,1045,1050,1055,1060,1063,1064,1064,1061,1056,1049,1040,1020,987,957,931,910,886,859,834,811,788,749,699,665,635,613,599,590,585,580,575,568,561,551,536,515,502,494,488,483,476,470,463,453,432,400,375,358,352,349,347,345,343,341,339,338,337,336,334,332,330,328,325,321,317,313,308,303,297,291,286,281,276,271,267,261,256,250,244,237,230,223,214,202,191,184,177,170,164,160,158,159,161,163,167,170,173,180,184,177,164,143,119,100,80,70,64,60,57,55,55,57,62,70,78,86,93,102,111,118,123,123,122,118,113,105,77,30,17,10,5,1,0,-3,-5,-8,-11,-14,-21,-33,-55,-80,-87,-91,-94,-96,-97,-99,-104,-110,-116,-123,-130,-139,-163,-203,-223,-237,-245,-245,-240,-230,-201,-158,-109,-84,-69,-59,-55,-58,-66,-89,-136,-184,-233,-259,-283,-307,-323,-336,-336,-322,-299,-267,-248,-239,-233,-228,-223,-217,-212,-208,-203,-196,-185,-174,-164,-155,-145,-139,-141,-145,-151,-157,-138,-120,-110,-101,-94,-87,-83,-78,-73,-68,-63,-56,-48,-40,-32,-25,-18,-10,-2,4,15,37,75,108,132,152,164,173,180,185,191,194,198,203,213,238,259,270,277,281,285,288,293,299,302,295,280,269,259,249,239,228,217,204,188,174,161,145,128,119,114,111,107,104,101,96,90,84,76,66,50,26,21,21,20,19,19,18,18,17,16,16,16,16,15,14,14,13,12,11,10,9,8,5,2,-1,-12,-18,-15,-8,-4,-2,0,2,3,5,7,8,8,6,2,-1,-5,-10,-15,-19,-24,-29,-34,-40,-46,-51,-56,-59,-62,-66,-73,-83,-93,-102,-105,-106,-107,-109,-111,-113,-114,-115,-117,-120,-123,-126,-127,-128,-130,-132,-136,-140,-145,-156,-165,-167,-165,-162,-159,-156,-153,-151,-152,-155,-160,-165,-171,-179,-186,-186,-178,-168,-161,-154,-147,-142,-140,-142,-148,-155,-160,-162,-164,-167,-170,-174,-177,-179,-182,-184,-186,-187,-188,-188,-189,-189,-190,-191,-191,-190,-189,-189,-189,-188,-187,-184,-181,-178,-174,-171,-160,-134,-109,-82,-53,-23,-2,11,17,11,-2,-24,-59,-98,-133,-168,-191,-200,-207,-206,-188,-162,-129,-100,-69,-49,-39,-32,-25,-18,-13,-7,-2,1,6,11,16,22,27,33,40,49,59,69,79,82,84,86,88,90,91,92,93,95,96,98,98,99,99,99,99,100,100,100,101,103,107,110,114,118,123,135,147,159,176,193,202,207,211,214,218,222,228,235,243,252,264,274,279,282,290,298,282,257,225,190,157,133,113,91,74,60,49,39,30,13,-9,-18,-21,-24,-26,-29,-32,-35,-39,-43,-47,-51,-54,-57,-60,-65,-71,-76,-78,-77,-74,-70,-66,-63,-57,-51,-47,-46,-50,-55,-61,-67,-74,-81,-92,-104,-112,-117,-121,-124,-128,-131,-134,-137,-141,-145,-148,-151,-154,-159,-164,-171,-179,-186,-193,-199,-205,-214,-223,-231,-238,-243,-248,-252,-257,-263,-270,-276,-279,-281,-283,-284,-286,-287,-287,-288,-290,-292,-294,-295,-296,-296,-297,-299,-301,-303,-305,-307,-308,-310,-313,-315,-317,-319,-323,-328,-332,-334,-334,-332,-328,-322,-314,-302,-284,-277,-272,-267,-264,-269,-282,-296,-314,-336,-351,-362,-372,-379,-385,-389,-392,-394,-396,-398,-400,-402,-402,-402,-402,-401,-400,-399,-396,-393,-390,-387,-384,-382,-378,-375,-370,-365,-361,-358,-354,-346,-314,-264,-206,-156,-138,-137,-150,-186,-248,-310,-366,-384,-391,-395,-382,-345,-302,-257,-228,-194,-164,-151,-144,-139,-136,-133,-129,-124,-120,-117,-112,-106,-98,-87,-77,-68,-59,-52,-47,-42,-37,-33,-29,-25,-21,-16,-12,-7,0,9,20,31,37,42,45,49,52,56,60,63,65,68,72,76,81,89,106,124,142,160,188,203,213,221,228,233,237,239,238,238,238,239,239,238,236,235,234,230,219,208,199,185,168,153,140,128,120,112,100,76,44,17,2,-6,-13,-18,-23,-28,-33,-36,-29,-16,-8,-2,1,4,7,9,10,9,7,5,3,1,0,-1,0,-1,-2,-3,-5,-6,-7,-7,-8,-8,-8,-8,-7,-6,-6,-5,-5,-5,-5,-5,-6,-6,-6,-6,-6,-6,-5,-5,-4,-4,-3,-3,-2,-1,-1,-1,-1,-2,-2,-3,-3,-3,-3,-3,-3,-3,-4,-5,-7,-9,-10,-12,-14,-16,-18,-21,-24,-27,-30,-34,-39,-44,-43,-38,-31,-25,-19,-14,-12,-13,-15,-18,-21,-25,-28,-23,-13,-4,5,10,3,-8,-15,-20,-25,-29,-31,-30,-26,-20,-13,-6,0,11,22,31,39,43,47,50,53,57,60,62,62,63,63,62,61,58,56,52,48,44,39,30,5,-12,-23,-29,-28,-21,-10,0,12,21,28,38,46,27,12,2,-5,-9,-9,-5,0,7,20,44,69,93,115,140,160,175,176,165,134,85,38,13,-10,-32,-47,-57,-55,-31,5,37,51,62,63,55,48,42,40,49,61,66,68,70,72,74,75,77,80,82,83,83,83,83,83,82,82,82,82,82,82,82,82,82,81,80,79,78,78,77,77,77,77,76,77,77,77,76,75,76,83,94,106,122,140,155,170,179,186,190,192,195,196,198,199,199,199,198,196,193,188,182,175,160,125,93,70,49,32,20,8,-5,-19,-30,-41,-50,-57,-63,-68,-72,-74,-77,-79,-81,-83,-84,-86,-87,-88,-89,-90,-90,-89,-88,-87,-86,-86,-86,-85,-85,-85,-85,-84,-83,-82,-80,-77,-75,-72,-70,-68,-67,-66,-65,-65,-64,-63,-63,-61,-59,-56,-54,-51,-48,-46,-44,-42,-40,-38,-37,-37,-37,-36,-36,-35,-35,-35,-35,-35,-35,-35,-36,-36,-37,-38,-37,-37,-37,-37,-38,-38,-37,-34,-30,-26,-23,-19,-15,-9,-3,1,5,9,13,16,20,24,27,29,30,32,35,36,38,38,38,39,39,40,41,41,41,41,42,43,44,44,44,45,46,47,50,52,55,57,58,61,63,64,66,68,69,72,74,78,82,87,91,94,97,98,99,98,98,97,97,98,100,103,109,107,88,77,71,64,58,54,50,46,42,38,35,32,29,26,25,22,18,15,13,11,10,10,9,10,12,15,21,26,33,39,46,56,66,78,89,103,129,170,209,238,253,263,246,193,120,35,-46,-89,-106,-106,-85,-27,31,66,93,113,114,96,66,37,22,11,13,31,40,45,49,52,55,58,60,61,62,63,63,63,61,57,53,48,44,40,37,33,28,23,19,15,10,3,-3,-12,-24,-33,-32,-19,-3,8,19,30,40,48,54,60,66,71,75,80,85,88,92,95,99,102,106,111,115,121,128,134,137,135,130,121,110,95,71,47,21,-2,-20,-38,-56,-79,-102,-124,-143,-152,-158,-164,-168,-172,-173,-174,-174,-174,-173,-172,-170,-168,-165,-163,-161,-160,-159,-157,-155,-153,-152,-151,-150,-148,-147,-145,-144,-143,-143,-143,-141,-139,-137,-135,-132,-130,-128,-125,-122,-119,-117,-115,-113,-111,-108,-105,-102,-100,-97,-95,-93,-90,-88,-86,-84,-82,-80,-78,-76,-73,-71,-70,-69,-68,-67,-66,-64,-63,-62,-60,-59,-59,-58,-57,-56,-55,-53,-52,-50,-48,-47,-46,-45,-44,-44,-43,-42,-40,-39,-37,-35,-31,-27,-23,-19,-15,-12,-8,-4,0,2,5,8,11,14,17,21,24,28,32,36,39,42,45,47,49,51,54,58,62,66,70,75,79,84,89,95,101,109,126,139,151,158,164,168,172,174,175,176,176,174,171,169,167,165,162,159,155,152,150,150,152,155,157,159,161,164,166,168,171,172,173,175,176,177,179,181,184,187,193,207,226,252,285,342,402,426,444,442,399,338,273,234,195,155,110,88,80,88,142,199,252,271,285,290,293,295,297,300,302,303,305,307,308,309,310,312,313,315,317,317,318,318,319,321,323,325,327,329,334,338,336,326,312,293,269,249,228,210,201,197,194,191,190,189,188,187,187,186,186,187,188,191,195,199,204,210,216,223,233,250,262,270,276,281,286,289,290,287,281,273,264,254,237,221,205,180,142,114,99,85,69,55,48,44,40,37,35,33,31,29,27,26,24,21,19,18,17,17,17,16,15,14,12,9,3,-4,-12,-23,-34,-41,-47,-51,-55,-57,-59,-60,-63,-66,-69,-72,-74,-77,-80,-83,-86,-89,-92,-94,-97,-101,-106,-111,-116,-119,-121,-123,-125,-127,-128,-129,-130,-132,-137,-142,-141,-134,-125,-118,-111,-105,-102,-106,-114,-124,-139,-160,-182,-192,-197,-201,-205,-208,-210,-213,-214,-216,-217,-219,-222,-224,-225,-227,-228,-230,-233,-236,-240,-243,-247,-252,-260,-268,-275,-279,-282,-284,-286,-288,-290,-292,-294,-296,-297,-298,-299,-299,-298,-295,-291,-285,-279,-273,-267,-262,-258,-253,-248,-243,-239,-236,-235,-236,-237,-240,-244,-249,-256,-271,-304,-338,-372,-408,-442,-465,-478,-490,-505,-519,-528,-536,-544,-551,-556,-558,-557,-554,-549,-543,-537,-530,-523,-514,-506,-498,-489,-477,-453,-409,-363,-324,-298,-281,-283,-310,-349,-394,-423,-442,-450,-453,-458,-463,-445,-415,-376,-355,-345,-339,-334,-330,-324,-318,-312,-308,-304,-299,-290,-275,-259,-244,-232,-224,-216,-208,-199,-188,-178,-169,-159,-149,-140,-133,-126,-121,-116,-111,-106,-99,-90,-81,-73,-66,-59,-52,-45,-38,-31,-26,-19,-11,0,11,23,35,48,63,77,91,107,126,150,166,177,186,192,194,195,195,195,195,196,197,198,198,196,190,182,172,157,135,116,100,86,68,45,28,14,1,-6,-11,-14,-15,-16,-16,-17,-19,-20,-20,-21,-22,-23,-24,-25,-26,-26,-26,-26,-26,-26,-25,-23,-20,-19,-18,-16,-14,-12,-9,-5,-1,1,5,9,16,24,32,39,45,50,53,56,59,62,64,65,67,68,69,70,70,70,70,69,69,68,68,67,67,67,67,67,67,66,66,65,64,63,62,60,59,58,56,55,52,50,47,45,42,38,35,31,27,24,21,19,16,13,10,8,5,3,1,0,-2,-4,-6,-6,-6,-7,-7,-7,-5,-4,-2,0,2,4,6,9,12,15,17,19,20,22,24,27,30,35,40,47,54,62,70,78,87,96,104,111,119,127,135,141,144,144,140,133,124,114,104,94,81,67,56,52,49,46,45,44,42,41,40,40,40,40,40,40,40,39,39,39,40,41,41,42,43,46,50,54,58,62,67,72,87,128,174,212,237,256,257,242,198,139,69,-3,-73,-99,-99,-77,-44,-6,18,36,37,28,21,14,10,11,17,23,25,25,24,23,23,23,24,25,25,25,25,24,23,22,21,20,19,19,19,20,21,22,24,27,29,32,35,38,42,45,49,53,57,63,70,78,86,93,100,107,114,120,128,135,143,152,160,168,175,182,188,193,197,202,207,211,215,216,216,213,209,205,199,192,183,166,152,139,119,90,69,55,41,27,5,-29,-43,-46,-49,-52,-54,-56,-58,-60,-61,-63,-64,-66,-67,-67,-67,-66,-66,-67,-68,-68,-69,-70,-71,-73,-75,-77,-79,-80,-81,-82,-83,-85,-87,-89,-91,-98,-104,-102,-92,-79,-71,-64,-57,-51,-46,-42,-41,-40,-40,-40,-40,-40,-41,-42,-42,-41,-40,-39,-40,-41,-41,-42,-42,-41,-42,-43,-44,-45,-45,-44,-42,-41,-39,-37,-33,-29,-25,-21,-18,-17,-15,-13,-9,-5,-1,2,5,8,13,18,22,26,29,31,35,38,42,45,48,50,51,52,52,52,51,49,46,43,39,35,30,22,15,15,25,37,46,53,59,64,70,75,79,83,87,90,94,99,105,110,108,95,78,61,40,21,3,-2,-6,-9,-12,-16,-19,-22,-25,-27,-28,-29,-31,-33,-34,-34,-34,-35,-36,-37,-37,-36,-35,-32,-28,-25,-21,-17,-12,-6,0,7,29,83,119,143,154,148,131,81,3,-75,-130,-149,-149,-130,-116,-106,-95,-84,-71,-43,-15,0,9,-13,-40,-62,-64,-45,-16,9,19,26,28,17,0,-12,-21,-28,-34,-37,-36,-32,-26,-18,-10,-4,2,8,15,22,27,31,35,39,43,49,57,72,95,111,122,131,139,146,153,159,167,175,183,193,204,214,223,230,236,242,247,252,256,259,263,267,271,276,283,290,293,290,281,267,245,213,184,153,126,104,76,57,44,33,24,14,4,-2,-7,-12,-15,-18,-21,-23,-25,-26,-28,-30,-33,-36,-37,-38,-39,-39,-40,-40,-41,-41,-42,-43,-48,-53,-52,-47,-40,-35,-32,-28,-25,-24,-23,-25,-29,-34,-41,-46,-51,-57,-63,-69,-72,-73,-71,-67,-64,-61,-60,-58,-57,-55,-54,-53,-52,-50,-48,-47,-46,-47,-49,-51,-52,-54,-56,-58,-60,-61,-62,-62,-61,-60,-60,-60,-60,-59,-59,-58,-58,-58,-58,-59,-59,-59,-59,-59,-58,-57,-56,-55,-55,-55,-56,-57,-58,-59,-60,-59,-59,-57,-55,-52,-49,-46,-44,-41,-38,-34,-32,-29,-26,-15,-3,3,1,-3,-10,-17,-25,-33,-42,-51,-60,-69,-78,-87,-96,-103,-108,-113,-117,-120,-123,-123,-123,-121,-118,-115,-111,-107,-102,-97,-92,-87,-84,-79,-74,-69,-66,-63,-59,-53,-46,-11,41,95,115,129,123,71,-9,-103,-189,-220,-229,-201,-166,-136,-123,-113,-105,-92,-73,-39,-15,-8,-4,-2,0,2,6,11,16,21,24,27,30,31,32,34,36,39,42,45,48,49,50,50,51,51,51,52,54,56,58,59,61,63,64,66,68,70,72,74,76,79,82,85,88,92,96,105,122,138,160,182,190,195,200,204,206,207,207,207,207,206,204,200,195,189,183,176,169,156,143,135,128,114,90,69,52,35,12,-19,-37,-46,-53,-59,-63,-66,-69,-72,-74,-76,-78,-82,-85,-86,-86,-83,-77,-70,-64,-59,-53,-46,-40,-38,-38,-42,-46,-52,-58,-67,-74,-75,-71,-66,-61,-56,-53,-52,-55,-61,-68,-75,-83,-90,-90,-83,-71,-49,-25,-15,-7,-3,-3,-9,-17,-22,-26,-30,-34,-37,-40,-43,-46,-49,-51,-53,-56,-59,-65,-71,-70,-64,-53,-35,-15,-8,-3,0,2,0,-8,-16,-22,-28,-34,-40,-43,-44,-42,-36,-29,-21,-13,-3,6,14,21,27,38,50,56,64,59,32,5,-10,-17,-22,-26,-29,-32,-37,-40,-43,-46,-50,-56,-72,-94,-105,-113,-112,-99,-90,-83,-77,-73,-72,-73,-76,-80,-83,-89,-98,-97,-82,-61,-33,-6,18,34,45,50,45,32,12,-16,-65,-116,-170,-203,-213,-192,-154,-134,-131,-130,-129,-125,-116,-102,-75,-44,-28,-17,-15,-25,-32,-38,-42,-43,-38,-28,-18,-14,-11,-7,-4,0,3,6,8,9,8,7,5,3,0,-4,-8,-13,-16,-19,-23,-27,-31,-34,-35,-33,-29,-23,-16,-9,-1,9,21,30,38,45,52,60,67,74,80,85,91,96,104,111,115,116,118,120,123,124,119,109,100,92,82,70,53,25,-13,-44,-67,-90,-120,-151,-161,-165,-168,-171,-173,-175,-176,-177,-178,-179,-180,-180,-179,-177,-174,-170,-166,-163,-159,-155,-151,-147,-143,-141,-140,-139,-137,-135,-133,-130,-127,-124,-121,-117,-114,-111,-109,-108,-107,-107,-107,-106,-105,-104,-102,-99,-95,-90,-86,-82,-79,-76,-74,-73,-73,-72,-72,-72,-72,-71,-69,-67,-65,-62,-61,-60,-59,-58,-58,-58,-58,-57,-57,-56,-54,-52,-50,-47,-44,-40,-37,-33,-23,-13,-3,7,15,22,29,36,44,54,64,73,83,92,101,109,117,125,136,152,162,170,175,178,182,184,186,185,183,178,172,164,156,147,133,120,109,100,94,90,87,84,82,81,79,78,78,77,76,76,76,77,78,80,81,82,84,87,90,94,98,103,108,120,151,184,214,232,245,244,224,173,99,25,-8,-25,-37,-44,-45,-35,-18,10,45,63,77,77,59,45,32,23,23,33,44,48,51,53,54,57,59,62,64,66,67,67,66,66,65,64,63,63,63,63,64,66,68,70,72,74,76,77,79,81,83,87,95,105,115,124,134,143,150,157,164,169,173,176,179,182,185,188,190,193,195,197,200,203,205,205,204,202,197,191,182,170,147,107,79,58,37,18,3,-14,-34,-45,-53,-59,-65,-71,-76,-81,-84,-86,-88,-90,-91,-93,-93,-94,-94,-95,-96,-98,-99,-100,-101,-101,-101,-102,-102,-101,-100,-99,-98,-98,-98,-97,-97,-97,-97,-97,-98,-98,-98,-98,-98,-97,-97,-96,-95,-93,-91,-90,-88,-87,-85,-83,-82,-81,-81,-80,-79,-77,-75,-73,-70,-68,-65,-62,-60,-57,-55,-55,-54,-54,-54,-53,-52,-52,-51,-50,-49,-46,-44,-42,-41,-40,-39,-39,-38,-37,-36,-35,-33,-30,-26,-21,-17,-13,-10,-8,-8,-8,-8,-8,-8,-8,-8,-6,-4,-2,1,6,12,18,25,37,54,64,71,77,80,78,64,48,37,28,20,12,6,3,0,-1,-2,-5,-8,-11,-14,-17,-19,-21,-22,-22,-22,-22,-21,-21,-22,-22,-22,-22,-23,-24,-24,-25,-24,-22,-18,-11,-2,13,46,104,171,201,221,233,209,140,48,-40,-116,-153,-181,-199,-187,-153,-97,-62,-37,-24,-14,-3,8,18,24,29,34,36,39,40,41,42,43,44,45,46,47,49,51,53,54,55,55,55,55,55,54,54,54,56,58,61,64,68,71,75,79,83,87,91,96,100,105,110,117,124,132,139,147,156,164,171,177,182,188,193,197,201,204,206,207,208,207,206,203,199,195,189,182,174,155,117,81,48,16,-13,-41,-66,-79,-88,-93,-96,-95,-94,-92,-90,-88,-84,-82,-89,-99,-103,-107,-110,-113,-116,-119,-121,-123,-124,-124,-124,-123,-122,-120,-119,-117,-115,-113,-111,-109,-105,-102,-100,-101,-106,-112,-118,-122,-127,-133,-138,-140,-140,-135,-128,-120,-112,-103,-90,-79,-74,-71,-70,-69,-67,-65,-65,-69,-75,-78,-80,-82,-84,-85,-87,-88,-89,-90,-89,-88,-88,-88,-86,-85,-83,-81,-79,-78,-78,-77,-75,-73,-71,-70,-70,-70,-70,-70,-70,-71,-71,-73,-73,-74,-74,-74,-75,-79,-65,-53,-44,-37,-29,-22,-16,-11,-5,0,6,8,6,3,-2,-7,-13,-19,-29,-40,-51,-60,-65,-69,-73,-76,-79,-81,-83,-83,-82,-82,-81,-81,-80,-79,-78,-78,-78,-78,-78,-76,-75,-73,-71,-69,-68,-66,-64,-60,-47,-4,55,126,182,201,185,138,51,-36,-108,-142,-153,-136,-121,-113,-107,-100,-93,-85,-74,-50,-16,-2,3,8,11,13,15,17,21,25,29,32,34,35,36,37,39,43,47,50,50,50,50,49,49,49,49,48,46,46,46,46,47,49,51,55,60,65,73,89,104,125,143,148,151,153,155,156,157,159,162,166,170,176,182,188,201,213,225,236,247,255,257,260,263,267,257,242,219,191,162,131,103,77,52,32,17,0,-8,-13,-17,-22,-26,-29,-33,-37,-40,-43,-45,-48,-49,-50,-52,-54,-56,-58,-60,-61,-62,-63,-63,-63,-62,-60,-57,-54,-52,-51,-50,-49,-48,-47,-47,-47,-47,-47,-47,-47,-48,-48,-49,-50,-50,-49,-49,-48,-48,-47,-47,-46,-44,-43,-42,-42,-41,-40,-38,-34,-24,-23,-36,-57,-75,-83,-89,-88,-73,-59,-46,-40,-36,-31,-26,-41,-56,-67,-75,-78,-80,-82,-85,-84,-78,-75,-72,-70,-66,-61,-54,-42,-26,-20,-16,-13,-12,-13,-19,-26,-35,-46,-53,-58,-62,-65,-68,-70,-71,-72,-74,-77,-60,-31,-2,12,22,28,31,31,26,19,12,1,-13,-14,-5,0,3,6,8,9,10,9,9,7,5,1,-3,-12,-31,-44,-52,-62,-73,-90,-108,-118,-125,-107,-91,-80,-72,-66,-62,-59,-55,-49,-50,-62,-72,-82,-87,-83,-72,-54,-31,3,38,78,122,137,143,148,130,77,13,-49,-100,-140,-153,-159,-158,-151,-138,-116,-82,-47,-23,-13,-6,-2,-1,-5,-11,-15,-20,-26,-29,-30,-28,-26,-24,-23,-22,-21,-19,-17,-15,-13,-10,-7,-5,-2,1,4,8,14,22,29,35,40,43,46,48,51,53,57,60,62,65,69,74,80,91,110,123,136,150,165,177,186,194,200,207,218,236,248,255,259,261,259,252,244,234,218,201,188,178,168,159,150,134,110,84,58,32,1,-16,-25,-32,-37,-41,-44,-46,-47,-47,-47,-48,-49,-50,-50,-51,-52,-53,-55,-56,-57,-57,-55,-54,-52,-50,-47,-44,-41,-40,-39,-39,-39,-40,-39,-38,-37,-36,-35,-33,-32,-32,-31,-31,-31,-32,-33,-33,-34,-34,-33,-33,-32,-31,-30,-30,-28,-27,-26,-26,-26,-27,-27,-28,-28,-29,-31,-33,-34,-35,-35,-36,-36,-37,-39,-40,-42,-44,-47,-51,-57,-62,-66,-70,-73,-76,-79,-82,-84,-85,-87,-90,-94,-98,-100,-100,-99,-96,-93,-90,-86,-80,-74,-70,-71,-76,-82,-87,-93,-99,-101,-96,-86,-75,-70,-66,-61,-57,-54,-51,-48,-45,-41,-38,-35,-32,-31,-31,-30,-28,-27,-26,-24,-21,-15,-7,0,5,10,13,16,20,24,27,28,29,28,27,25,21,17,11,4,-2,-8,-16,-24,-31,-35,-38,-39,-40,-40,-40,-41,-42,-43,-43,-43,-38,-31,-24,-18,-11,-4,-1,-2,-6,-12,-18,-27,-32,-25,-10,11,46,86,124,152,173,175,158,112,29,-67,-133,-158,-157,-131,-92,-56,-45,-39,-34,-31,-27,-23,-19,-14,-9,-4,5,19,22,24,25,27,29,29,26,21,16,12,9,5,2,0,0,0,5,11,17,22,25,28,31,34,36,39,42,45,48,52,55,58,61,64,67,71,75,81,90,100,110,119,127,135,144,155,166,174,181,186,190,193,197,201,203,205,205,203,199,193,185,176,161,135,117,94,63,37,21,3,-16,-26,-33,-39,-45,-50,-55,-59,-62,-64,-66,-68,-70,-72,-72,-72,-71,-71,-71,-71,-70,-70,-69,-69,-70,-71,-72,-72,-71,-69,-67,-65,-62,-59,-55,-50,-46,-43,-40,-38,-37,-37,-36,-35,-34,-34,-33,-31,-30,-29,-27,-26,-24,-23,-23,-22,-22,-23,-24,-25,-26,-27,-28,-29,-30,-31,-32,-32,-31,-31,-32,-32,-32,-32,-32,-33,-34,-36,-37,-37,-37,-37,-37,-39,-39,-38,-37,-36,-35,-35,-36,-38,-38,-39,-39,-41,-42,-43,-44,-44,-44,-43,-42,-42,-42,-42,-42,-42,-43,-43,-43,-43,-42,-41,-39,-37,-34,-31,-28,-25,-22,-18,-14,-10,-7,-4,-2,0,0,0,0,-2,-6,-11,-15,-18,-21,-24,-27,-31,-36,-41,-46,-51,-57,-62,-67,-70,-72,-74,-75,-76,-77,-79,-83,-87,-91,-91,-87,-81,-74,-70,-66,-62,-57,-51,-44,-38,-32,-24,-14,7,49,75,91,100,100,90,74,48,11,-43,-102,-130,-146,-160,-161,-145,-119,-82,-44,-16,-4,0,3,7,15,24,35,46,62,74,74,67,56,50,46,42,40,38,37,36,35,34,34,36,40,44,50,56,62,67,71,74,78,82,86,89,93,96,99,103,107,110,114,120,132,143,153,160,166,170,175,179,186,194,201,209,216,223,233,242,248,251,248,240,230,220,210,198,185,172,160,147,132,112,97,86,72,56,30,15,7,0,-7,-13,-18,-21,-23,-26,-28,-30,-32,-33,-33,-33,-34,-34,-35,-36,-37,-37,-37,-37,-37,-37,-36,-35,-34,-33,-32,-32,-31,-30,-31,-31,-31,-31,-31,-30,-30,-30,-29,-29,-29,-29,-30,-30,-30,-30,-29,-28,-29,-29,-30,-30,-30,-31,-32,-33,-33,-34,-33,-32,-31,-31,-31,-32,-33,-34,-38,-40,-38,-34,-31,-30,-28,-26,-25,-24,-24,-27,-32,-38,-44,-49,-54,-60,-66,-71,-73,-73,-71,-68,-64,-61,-57,-51,-46,-46,-53,-62,-67,-72,-77,-81,-83,-83,-82,-79,-77,-74,-72,-71,-69,-68,-68,-67,-66,-64,-64,-64,-63,-62,-61,-60,-59,-57,-55,-53,-50,-46,-43,-40,-37,-34,-30,-25,-21,-17,-13,-10,-8,-6,-6,-7,-10,-14,-19,-25,-31,-37,-42,-47,-54,-61,-68,-73,-76,-77,-76,-74,-72,-70,-69,-67,-66,-64,-63,-61,-59,-58,-56,-54,-52,-50,-48,-46,-43,-39,-33,-20,13,50,88,131,165,189,204,195,164,98,6,-91,-153,-176,-177,-162,-140,-109,-75,-36,13,37,45,50,33,19,10,3,0,6,18,30,35,38,40,42,44,46,48,50,51,53,55,56,57,57,58,59,61,62,63,63,64,65,67,68,70,71,73,76,79,83,87,92,99,120,136,147,155,160,165,169,175,181,188,196,204,216,234,250,263,275,288,295,289,277,268,262,255,248,239,229,217,199,172,148,124,100,77,63,53,45,38,32,27,22,16,6,-8,-13,-16,-17,-18,-19,-19,-19,-17,-14,-11,-6,-1,5,12,22,32,36,33,26,18,13,7,2,-2,-4,-1,4,11,17,19,21,23,25,28,30,32,33,34,36,38,40,42,43,43,44,45,47,50,52,54,56,58,61,67,74,79,82,81,77,72,68,66,64,62,59,57,54,51,47,44,42,40,38,38,39,39,40,40,40,40,40,39,38,36,34,32,30,28,27,26,25,24,23,23,22,22,21,19,17,13,9,5,1,-3,-8,-13,-18,-23,-28,-32,-35,-38,-41,-43,-46,-49,-52,-55,-56,-57,-58,-58,-57,-56,-54,-53,-52,-52,-54,-52,-38,-25,-13,-5,1,7,14,17,10,-4,-19,-37,-54,-72,-85,-95,-104,-111,-117,-121,-125,-128,-131,-133,-137,-140,-143,-145,-148,-150,-152,-154,-156,-157,-159,-161,-165,-169,-172,-174,-173,-168,-162,-155,-146,-133,-121,-109,-73,-26,24,44,45,32,-4,-86,-172,-247,-281,-293,-269,-247,-229,-218,-218,-222,-226,-230,-232,-234,-236,-237,-239,-242,-246,-250,-255,-260,-268,-274,-277,-275,-270,-265,-261,-257,-253,-252,-254,-258,-262,-264,-265,-267,-268,-269,-271,-272,-274,-275,-275,-274,-274,-273,-273,-273,-272,-271,-270,-269,-268,-267,-265,-263,-260,-257,-255,-252,-250,-247,-243,-234,-223,-215,-205,-192,-175,-156,-146,-139,-133,-129,-126,-125,-126,-129,-134,-142,-150,-160,-176,-192,-207,-217,-225,-233,-239,-246,-252,-257,-263,-267,-272,-279,-285,-289,-291,-289,-283,-277,-270,-265,-260,-256,-251,-247,-243,-238,-234,-229,-224,-219,-213,-207,-197,-185,-172,-159,-149,-140,-133,-125,-118,-112,-107,-102,-96,-91,-85,-78,-70,-63,-55,-44,-30,-20,-13,-9,-6,-4,-2,-1,1,5,9,14,18,23,28,33,42,59,71,80,84,87,92,96,100,104,107,110,112,115,117,119,121,121,122,123,126,129,134,139,143,147,151,154,158,160,163,164,166,169,173,178,182,185,186,186,185,184,183,181,178,176,174,172,171,170,169,168,167,167,167,168,168,168,168,168,169,170,172,174,176,179,182,187,191,194,196,198,203,209,216,219,218,212,203,192,181,171,157,142,130,121,114,108,102,95,88,79,70,63,59,56,52,48,45,42,39,38,37,37,37,38,40,43,48,52,57,62,73,99,126,156,192,221,241,253,243,211,162,105,46,-15,-41,-53,-62,-67,-60,-42,-11,20,31,37,41,44,47,51,55,59,62,64,65,67,69,72,76,79,80,79,77,74,72,70,66,62,58,57,59,62,64,65,66,67,69,72,75,77,79,81,83,85,87,89,91,94,97,101,106,113,120,130,141,152,162,170,178,186,194,202,210,217,224,231,241,250,256,259,257,251,242,231,209,177,152,122,98,83,65,42,29,19,11,4,0,-5,-10,-14,-18,-21,-24,-27,-29,-31,-31,-32,-32,-33,-33,-34,-35,-36,-36,-36,-36,-36,-36,-36,-36,-36,-36,-37,-37,-38,-40,-41,-42,-44,-45,-46,-48,-49,-50,-51,-52,-54,-58,-62,-64,-66,-65,-64,-62,-61,-61,-61,-60,-59,-59,-58,-56,-55,-53,-51,-47,-43,-39,-35,-32,-29,-26,-24,-22,-20,-19,-17,-16,-14,-11,-10,-8,-6,-3,-1,0,3,5,6,8,10,11,13,14,16,18,25,33,40,44,44,43,42,42,42,42,41,41,39,37,35,34,33,32,33,34,36,37,38,40,42,43,45,45,45,44,44,45,45,46,47,47,48,49,51,52,53,54,55,57,59,62,64,66,67,68,71,74,76,77,77,75,71,66,60,54,45,34,16,6,0,-3,-7,-10,-13,-15,-15,-13,-8,-4,0,3,8,12,16,20,24,29,33,37,41,46,54,71,108,147,187,234,259,269,276,254,189,107,22,-36,-54,-32,3,34,47,52,59,70,84,111,144,157,163,169,172,174,175,177,180,182,185,188,192,194,198,202,208,216,227,241,253,259,264,268,271,274,277,280,284,288,292,296,299,301,303,305,307,309,311,313,317,322,328,335,342,348,355,361,367,373,379,385,391,397,401,405,408,411,415,419,424,426,421,409,394,376,352,335,312,283,233,164,87,41,27,20,14,12,7,-11,-79,-161,-224,-248,-249,-234,-221,-209,-202,-203,-213,-227,-244,-265,-271,-274,-275,-277,-278,-279,-280,-281,-281,-281,-281,-280,-279,-277,-275,-273,-271,-269,-267,-265,-264,-263,-263,-263,-262,-261,-260,-258,-257,-256,-254,-253,-252,-251,-250,-249,-248,-247,-245,-243,-240,-237,-233,-228,-224,-220,-217,-214,-212,-210,-208,-205,-202,-196,-191,-188,-190,-195,-200,-204,-209,-214,-217,-218,-214,-207,-201,-197,-193,-188,-184,-180,-177,-174,-171,-168,-165,-162,-159,-158,-156,-155,-153,-151,-150,-149,-148,-148,-147,-147,-146,-145,-144,-143,-142,-141,-139,-139,-138,-137,-136,-135,-134,-131,-127,-122,-117,-111,-104,-97,-89,-81,-74,-68,-65,-62,-60,-54,-47,-48,-64,-81,-98,-102,-102,-103,-104,-102,-89,-79,-69,-63,-63,-69,-80,-98,-119,-130,-138,-137,-124,-109,-93,-81,-75,-71,-68,-64,-59,-54,-49,-41,-26,0,46,99,151,179,189,188,172,130,70,1,-68,-114,-129,-137,-140,-139,-137,-132,-116,-62,9,82,110,120,121,108,71,23,-18,-33,-37,-32,-19,0,22,43,64,74,79,84,86,88,87,83,77,71,66,61,55,49,46,46,47,51,55,59,64,69,75,83,92,104,117,134,144,148,152,155,157,160,165,171,179,190,203,212,219,224,227,231,236,245,256,278,305,323,333,317,292,261,228,198,170,145,122,101,88,81,74,67,59,45,21,6,-1,-7,-12,-16,-21,-29,-39,-45,-48,-51,-52,-53,-54,-56,-58,-61,-64,-66,-69,-71,-73,-74,-74,-72,-68,-64,-60,-57,-54,-51,-48,-45,-43,-42,-42,-43,-45,-46,-48,-49,-51,-53,-54,-55,-56,-56,-56,-54,-51,-47,-42,-36,-26,-20,-15,-12,-8,-5,-3,-4,-9,-15,-22,-27,-32,-37,-41,-44,-45,-45,-44,-44,-43,-43,-43,-42,-41,-39,-37,-35,-32,-28,-25,-24,-27,-30,-35,-41,-40,-32,-26,-21,-17,-14,-11,-8,-2,9,17,21,25,29,33,38,45,53,54,48,39,25,9,-3,-13,-21,-25,-30,-35,-30,-24,-18,-19,-25,-29,-32,-35,-37,-38,-37,-35,-30,-25,-13,-2,1,4,5,3,0,-5,-10,-9,-2,16,49,89,125,154,164,158,141,88,17,-56,-118,-156,-169,-177,-174,-146,-95,-26,19,35,41,36,27,14,2,11,38,66,76,77,72,59,36,10,2,6,18,50,84,101,107,109,107,100,90,79,75,71,72,80,92,105,117,117,96,69,60,59,66,76,91,105,115,121,133,159,171,177,181,187,195,208,218,220,221,221,222,223,225,227,231,237,251,270,282,289,288,273,250,220,186,153,141,137,134,130,126,113,79,34,-23,-84,-121,-133,-126,-105,-77,-43,-8,10,17,5,-30,-62,-72,-75,-78,-79,-77,-73,-70,-66,-64,-68,-75,-79,-82,-85,-86,-88,-89,-91,-93,-94,-95,-97,-101,-90,-81,-76,-71,-66,-61,-55,-48,-38,-37,-45,-58,-74,-83,-87,-91,-93,-94,-94,-93,-91,-87,-83,-74,-57,-45,-39,-35,-31,-28,-26,-21,-17,-24,-44,-81,-98,-104,-104,-97,-89,-80,-71,-60,-45,-29,-17,-12,-10,-7,-6,-5,-5,-5,-5,-5,-5,-6,-7,-9,-10,-9,-6,-3,-1,1,3,5,5,3,0,-6,-17,-33,-40,-43,-46,-48,-50,-52,-54,-56,-58,-60,-63,-67,-75,-75,-67,-56,-43,-34,-26,-17,-6,6,16,24,34,62,99,137,160,167,158,133,91,35,-40,-125,-196,-232,-233,-202,-129,-55,-18,-7,-1,1,2,4,12,34,54,61,54,41,28,19,14,12,16,25,39,56,65,71,75,74,71,66,60,52,51,50,48,55,62,66,71,77,83,88,92,96,100,105,109,113,118,125,131,136,141,148,160,168,173,178,182,186,187,190,195,208,220,229,238,249,261,269,275,275,269,260,245,228,212,198,183,157,126,103,89,74,59,36,14,2,-6,-12,-18,-24,-35,-44,-47,-50,-51,-53,-54,-55,-55,-56,-57,-59,-62,-66,-69,-74,-77,-75,-70,-66,-62,-58,-56,-57,-59,-64,-70,-79,-94,-102,-108,-108,-103,-99,-94,-88,-80,-74,-70,-66,-63,-61,-60,-59,-58,-56,-54,-53,-56,-62,-72,-85,-91,-95,-97,-100,-102,-103,-105,-108,-112,-99,-87,-79,-72,-68,-64,-57,-48,-42,-37,-47,-77,-104,-112,-117,-119,-120,-121,-124,-122,-104,-67,-31,-9,-3,0,2,1,0,-4,-17,-39,-68,-98,-111,-119,-125,-125,-117,-110,-102,-93,-83,-75,-72,-69,-72,-95,-121,-141,-148,-152,-153,-153,-152,-149,-145,-139,-124,-106,-93,-83,-73,-55,-32,-7,17,44,71,82,90,94,86,62,13,-52,-118,-175,-217,-231,-226,-212,-175,-126,-76,-50,-40,-40,-51,-62,-72,-72,-63,-36,-5,22,40,45,39,28,15,5,-1,-5,-7,-9,-11,-10,-7,-3,2,10,19,31,46,54,59,63,66,69,72,75,79,85,92,102,108,114,118,122,125,127,130,134,140,149,158,168,178,192,205,214,221,228,236,247,259,270,276,280,283,283,280,274,257,235,214,200,184,168,143,115,86,56,39,23,7,-8,-24,-33,-38,-42,-47,-54,-59,-63,-65,-67,-69,-71,-73,-74,-75,-77,-80,-82,-83,-84,-85,-86,-86,-88,-91,-95,-99,-99,-96,-89,-78,-63,-54,-48,-46,-50,-58,-72,-83,-86,-87,-89,-90,-88,-83,-78,-74,-71,-68,-65,-62,-60,-57,-56,-54,-51,-44,-49,-65,-72,-77,-82,-85,-88,-89,-92,-97,-104,-92,-79,-69,-59,-50,-43,-36,-31,-29,-32,-39,-49,-62,-79,-81,-83,-84,-76,-62,-48,-37,-28,-16,-9,-3,0,3,6,7,9,10,12,15,16,12,4,-1,-6,-10,-15,-20,-25,-31,-37,-44,-52,-59,-64,-69,-72,-76,-80,-83,-85,-85,-84,-81,-77,-73,-66,-55,-49,-45,-43,-41,-39,-36,-33,-28,-21,4,41,80,116,148,158,164,160,128,68,-13,-94,-160,-210,-229,-228,-202,-149,-83,-26,-3,4,3,-6,-15,-22,-27,-27,-23,-18,-14,-11,-9,-6,-3,0,4,9,14,20,26,27,25,20,15,10,5,0,-2,-2,1,7,14,19,23,28,33,37,40,42,46,54,68,78,83,87,93,99,105,111,116,121,126,131,140,159,176,187,195,202,207,212,216,217,215,211,205,200,194,187,179,169,152,126,100,73,46,20,-3,-21,-31,-39,-40,-37,-35,-32,-30,-30,-33,-39,-47,-57,-70,-76,-79,-82,-85,-87,-88,-86,-83,-78,-74,-70,-64,-59,-55,-55,-60,-67,-73,-78,-84,-89,-94,-96,-95,-93,-88,-83,-76,-65,-56,-50,-45,-40,-37,-37,-40,-45,-48,-51,-55,-59,-62,-65,-66,-65,-64,-62,-61,-60,-58,-56,-53,-51,-49,-47,-45,-43,-40,-37,-35,-32,-25,-21,-24,-32,-38,-45,-50,-54,-56,-59,-61,-64,-66,-67,-65,-62,-57,-51,-40,-19,-5,3,9,14,17,19,22,24,26,26,25,21,15,9,-3,-23,-35,-43,-51,-61,-73,-84,-74,-56,-46,-44,-42,-40,-39,-39,-38,-38,-38,-38,-39,-40,-41,-44,-47,-50,-53,-57,-67,-67,-56,-40,-18,21,65,112,127,136,134,108,64,9,-50,-115,-175,-208,-219,-208,-175,-120,-71,-48,-42,-38,-35,-34,-33,-32,-32,-33,-35,-37,-40,-43,-50,-54,-49,-41,-37,-35,-33,-32,-31,-31,-31,-31,-30,-29,-27,-26,-25,-24,-24,-23,-23,-22,-21,-20,-18,-16,-13,-9,-5,-1,2,6,9,14,19,26,35,46,58,71,84,96,107,115,121,126,130,132,134,135,137,139,141,143,139,129,113,92,73,52,28,3,-17,-34,-49,-65,-81,-104,-130,-152,-165,-173,-178,-182,-186,-190,-194,-198,-201,-205,-210,-214,-217,-218,-216,-215,-213,-212,-212,-212,-212,-212,-212,-212,-211,-210,-208,-206,-204,-203,-201,-199,-197,-194,-190,-185,-179,-168,-157,-148,-141,-136,-133,-130,-127,-124,-122,-119,-116,-114,-112,-109,-106,-101,-97,-92,-86,-76,-66,-57,-50,-45,-41,-37,-33,-30,-30,-31,-31,-32,-34,-35,-36,-38,-41,-43,-39,-27,-13,-1,10,22,30,36,42,45,49,51,54,57,59,61,63,64,65,67,69,71,74,78,88,112,135,152,170,188,205,218,226,232,236,239,239,236,231,223,209,193,187,182,180,184,197,216,243,263,278,289,296,300,303,306,309,312,314,317,320,323,325,328,331,334,337,341,347,358,393,441,491,544,563,576,572,531,467,389,308,253,233,232,248,291,342,391,415,424,429,433,436,438,438,435,430,424,418,415,411,406,401,397,394,391,388,385,382,378,375,372,369,367,365,361,358,355,353,353,354,355,356,357,359,361,364,368,369,366,358,349,342,334,328,325,326,330,336,342,350,362,379,389,398,405,411,415,417,417,414,409,405,399,392,380,368,357,343,326,309,285,255,224,191,165,145,123,104,89,74,60,46,32,24,19,16,14,13,11,10,8,5,2,-1,-5,-11,-16,-22,-27,-33,-41,-49,-55,-62,-68,-74,-78,-82,-86,-89,-92,-93,-93,-93,-92,-91,-91,-91,-90,-89,-88,-88,-89,-90,-91,-91,-90,-89,-89,-89,-89,-89,-89,-88,-87,-87,-87,-86,-86,-86,-85,-84,-84,-83,-82,-79,-74,-69,-66,-69,-75,-82,-87,-94,-100,-105,-108,-108,-107,-104,-100,-96,-90,-86,-89,-97,-106,-116,-116,-102,-93,-86,-80,-76,-75,-78,-83,-91,-98,-105,-115,-124,-131,-132,-129,-124,-120,-117,-114,-110,-106,-104,-104,-106,-109,-114,-119,-124,-130,-137,-145,-154,-163,-174,-190,-190,-169,-151,-135,-121,-113,-108,-102,-93,-96,-117,-132,-143,-154,-163,-171,-177,-182,-186,-191,-196,-201,-205,-208,-210,-211,-212,-213,-213,-212,-211,-210,-211,-212,-212,-213,-213,-214,-216,-219,-226,-233,-239,-245,-253,-261,-263,-259,-249,-236,-220,-198,-180,-157,-130,-84,-26,44,111,158,160,121,15,-116,-235,-299,-321,-320,-298,-267,-227,-201,-185,-168,-149,-140,-133,-127,-121,-116,-112,-108,-104,-100,-97,-94,-92,-90,-89,-87,-82,-77,-74,-74,-78,-83,-88,-91,-95,-99,-102,-103,-100,-94,-85,-77,-68,-58,-46,-35,-25,-18,-11,-5,0,3,4,4,3,1,0,-2,-5,-9,-12,-6,5,19,36,54,78,109,140,165,179,188,191,183,169,160,154,148,139,126,108,73,20,-8,-22,-31,-38,-45,-53,-61,-70,-80,-89,-97,-104,-110,-115,-119,-124,-128,-132,-136,-139,-143,-147,-150,-150,-147,-139,-132,-126,-123,-120,-116,-112,-107,-103,-101,-99,-98,-98,-98,-99,-102,-104,-108,-110,-113,-115,-120,-123,-114,-97,-86,-76,-67,-60,-55,-54,-56,-60,-65,-69,-73,-77,-80,-83,-86,-88,-89,-88,-84,-79,-72,-65,-57,-51,-44,-35,-28,-22,-21,-22,-26,-31,-36,-42,-48,-56,-66,-73,-78,-83,-90,-101,-99,-79,-66,-56,-47,-40,-36,-36,-39,-43,-48,-52,-56,-59,-63,-67,-70,-72,-73,-73,-71,-69,-66,-63,-58,-53,-48,-39,-31,-27,-30,-38,-46,-53,-61,-69,-72,-70,-64,-59,-57,-56,-54,-52,-50,-48,-46,-44,-42,-41,-41,-42,-43,-44,-44,-45,-44,-44,-43,-42,-41,-39,-37,-35,-32,-30,-29,-27,-24,-16,-6,2,12,19,25,30,34,37,39,39,37,34,30,26,22,19,17,13,9,4,0,-2,-5,-8,-11,-14,-16,-19,-19,-20,-23,-28,-32,-35,-36,-33,-29,-24,-20,-16,-12,-8,-2,3,8,11,14,18,24,32,68,128,191,213,224,232,212,148,59,-39,-100,-123,-124,-107,-59,-19,-5,-1,-5,-14,-20,-25,-28,-30,-30,-28,-23,-17,-12,-5,5,17,31,44,59,66,57,40,32,27,22,17,13,9,5,2,0,0,0,0,1,3,7,11,15,21,26,31,35,40,48,56,64,70,77,83,91,100,110,120,131,142,151,160,170,179,186,190,193,196,200,205,210,214,215,213,208,201,192,180,160,150,141,134,125,113,93,70,52,31,8,-16,-34,-45,-53,-56,-54,-51,-46,-41,-34,-31,-35,-43,-50,-58,-62,-57,-49,-44,-40,-36,-32,-31,-31,-33,-36,-39,-44,-51,-55,-51,-44,-38,-33,-28,-26,-26,-27,-28,-29,-31,-33,-34,-32,-28,-22,-16,-8,-3,-11,-25,-37,-49,-58,-58,-52,-44,-38,-30,-25,-21,-18,-15,-10,-7,-7,-13,-20,-24,-26,-28,-30,-32,-34,-36,-38,-39,-39,-38,-37,-35,-34,-32,-31,-29,-27,-25,-24,-23,-22,-20,-18,-17,-17,-17,-18,-18,-19,-19,-19,-20,-21,-22,-22,-22,-22,-21,-21,-20,-19,-17,-16,-14,-12,-11,-9,-7,-6,-5,-4,-5,-6,-7,-9,-11,-14,-17,-11,1,16,34,50,59,65,71,75,78,78,75,71,65,59,50,34,19,6,-5,-13,-19,-23,-27,-31,-33,-34,-33,-30,-26,-23,-19,-16,-12,-6,-2,0,0,-2,-5,-9,-12,-16,-20,-20,-15,-4,11,36,78,126,166,182,191,198,187,152,91,15,-59,-121,-147,-155,-143,-109,-64,-25,-12,-2,5,17,43,64,75,84,88,88,85,79,74,69,64,59,55,55,59,65,70,73,75,76,78,80,82,84,86,88,91,93,94,96,97,97,98,100,102,105,108,111,114,118,123,128,132,137,143,154,171,185,198,209,217,222,225,228,231,234,237,241,245,249,254,258,260,258,253,245,232,211,191,170,152,137,120,98,68,40,20,3,-9,-19,-27,-32,-37,-41,-45,-49,-52,-54,-56,-59,-63,-66,-66,-65,-64,-64,-64,-64,-64,-63,-62,-61,-61,-62,-63,-64,-65,-66,-67,-68,-68,-67,-64,-60,-56,-52,-50,-47,-45,-43,-41,-39,-38,-37,-36,-35,-35,-35,-35,-37,-39,-41,-43,-44,-45,-47,-50,-53,-57,-60,-63,-71,-79,-79,-72,-61,-51,-40,-30,-25,-22,-18,-12,-10,-18,-34,-42,-48,-53,-58,-62,-66,-69,-71,-72,-71,-69,-67,-64,-62,-59,-56,-53,-49,-46,-41,-36,-31,-27,-23,-22,-23,-25,-28,-30,-32,-34,-37,-40,-44,-47,-49,-50,-51,-51,-52,-51,-49,-46,-42,-38,-35,-31,-27,-21,-11,0,8,17,23,29,35,40,42,39,33,24,17,13,8,2,-4,-9,-14,-17,-19,-21,-23,-26,-28,-29,-29,-30,-32,-34,-36,-37,-38,-39,-41,-42,-43,-43,-42,-40,-37,-35,-31,-28,-24,-19,-13,-7,9,49,89,128,156,176,178,161,116,44,-41,-120,-164,-180,-180,-163,-113,-53,5,25,34,41,31,24,19,16,14,12,12,13,15,16,17,18,20,22,23,25,26,27,27,26,25,23,22,20,19,18,17,17,16,16,16,15,13,11,10,10,12,16,22,28,37,50,64,77,93,111,129,139,144,149,153,157,162,168,173,178,183,188,194,201,208,214,217,217,215,210,204,197,187,168,147,127,110,96,84,72,60,45,26,4,-19,-42,-55,-64,-70,-74,-77,-79,-80,-81,-81,-81,-82,-83,-85,-85,-80,-73,-65,-58,-50,-42,-39,-42,-47,-53,-58,-63,-68,-71,-72,-69,-65,-59,-53,-50,-46,-41,-37,-34,-32,-31,-30,-30,-31,-33,-34,-35,-36,-37,-38,-40,-43,-45,-45,-45,-45,-46,-47,-47,-46,-44,-42,-40,-39,-38,-37,-35,-32,-31,-29,-28,-21,-16,-21,-30,-35,-38,-40,-41,-41,-41,-41,-42,-44,-45,-45,-44,-45,-46,-47,-48,-48,-49,-49,-49,-50,-52,-53,-54,-55,-59,-69,-68,-50,-41,-34,-27,-22,-20,-22,-26,-33,-40,-47,-55,-67,-79,-85,-83,-77,-70,-67,-65,-63,-61,-58,-55,-50,-46,-42,-39,-36,-33,-30,-28,-26,-24,-23,-21,-19,-16,-13,-9,-6,-4,-2,-2,-2,-2,-3,-4,-6,-7,-8,-10,-13,-15,-19,-23,-27,-32,-36,-40,-47,-55,-61,-62,-63,-63,-64,-65,-67,-68,-68,-65,-61,-57,-52,-49,-49,-52,-56,-62,-69,-67,-47,-18,16,71,130,161,187,204,183,120,33,-53,-115,-136,-143,-136,-122,-112,-105,-97,-88,-78,-67,-60,-52,-45,-38,-33,-29,-25,-22,-20,-19,-17,-15,-13,-9,-5,-2,-1,-3,-6,-9,-12,-16,-23,-29,-30,-24,-14,-3,10,15,17,19,22,25,27,25,23,20,17,15,26,44,55,62,69,75,82,89,94,100,106,112,121,134,146,157,167,174,182,188,194,197,199,200,202,204,207,209,202,186,168,146,124,102,80,59,41,27,12,-3,-29,-74,-116,-145,-147,-123,-57,-2,18,18,0,-30,-60,-69,-72,-75,-78,-82,-85,-87,-90,-92,-93,-93,-92,-90,-87,-85,-82,-80,-78,-76,-74,-73,-72,-71,-71,-70,-69,-68,-66,-64,-62,-59,-57,-55,-53,-52,-51,-50,-50,-49,-49,-50,-50,-50,-49,-46,-42,-36,-33,-31,-30,-30,-30,-31,-34,-37,-39,-38,-32,-24,-20,-16,-12,-8,-4,-2,-1,-3,-7,-12,-16,-20,-23,-27,-31,-35,-38,-38,-36,-32,-26,-20,-6,5,6,6,7,8,8,7,5,2,0,-3,-6,-10,-14,-18,-20,-19,-15,-10,-6,-2,0,3,6,9,11,14,15,16,16,16,16,16,15,14,12,11,10,10,10,9,9,10,14,21,30,42,61,70,77,82,86,88,88,86,83,81,79,77,80,88,96,105,105,90,74,57,41,35,31,27,24,21,18,15,14,14,14,15,15,15,16,18,20,23,25,26,30,39,39,29,19,9,10,27,53,84,110,136,179,217,232,231,212,158,94,34,-16,-48,-59,-62,-59,-53,-48,-42,-34,-21,17,72,94,106,115,113,95,75,53,27
