-718,-879,-1049,-1215,-1354,-1441,-1475,-1502,-1539,-1569,-1599,-1642,-1698,-1754,-1816,-1895,-1974,-2025,-2044,-2052,-2056,-2063,-2070,-2053,-2001,-1930,-1842,-1741,-1642,-1545,-1445,-1333,-1200,-1066,-954,-866,-795,-741,-713,-670,-575,-414,-220,-16,187,390,593,794,990,1176,1339,1453,1517,1575,1661,1773,1910,2062,2222,2388,2550,2702,2846,2989,3129,3260,3377,3478,3559,3626,3691,3749,3804,3832,3851,3864,3863,3846,3822,3791,3742,3694,3647,3623,3587,3534,3460,3369,3266,3160,3047,2922,2800,2683,2561,2428,2294,2162,2029,1894,1748,1592,1422,1239,1050,869,702,535,351,153,-46,-243,-437,-627,-816,-1004,-1189,-1374,-1557,-1729,-1892,-2037,-2161,-2269,-2371,-2466,-2547,-2608,-2654,-2679,-2704,-2732,-2767,-2790,-2806,-2803,-2761,-2702,-2645,-2592,-2533,-2473,-2421,-2386,-2345,-2310,-2287,-2269,-2256,-2222,-2167,-2104,-2043,-1975,-1904,-1836,-1772,-1707,-1641,-1589,-1569,-1555,-1539,-1514,-1466,-1421,-1373,-1340,-1300,-1267,-1216,-1159,-1089,-1019,-965,-938,-915,-891,-868,-841,-815,-797,-784,-772,-759,-744,-724,-693,-654,-615,-582,-559,-544,-531,-516,-500,-482,-464,-438,-395,-401,-520,-646,-699,-746,-746,-696,-597,-513,-440,-357,-244,-35,159,207,224,249,257,265,273,299,350,379,424,473,518,541,559,578,610,667,705,716,737,761,836,952,1070,1139,1163,1145,1124,1102,1012,760,228,-294,-835,-1218,-1452,-1563,-1635,-1699,-1693,-1603,-1301,-788,-495,-429,-368,-336,-289,-188,-44,100,202,264,323,395,440,454,430,356,251,114,-75,-308,-547,-749,-916,-1071,-1219,-1343,-1388,-1382,-1308,-1199,-1082,-968,-858,-744,-621,-499,-394,-315,-267,-248,-233,-221,-212,-204,-195,-186,-168,-139,-86,-15,77,190,306,407,506,611,725,851,978,1086,1168,1235,1303,1381,1461,1530,1580,1605,1623,1636,1647,1675,1718,1771,1829,1888,1941,1989,2022,2063,2095,2115,2129,2128,2108,2089,2072,2058,2048,2031,1999,1957,1917,1878,1847,1822,1800,1768,1724,1652,1549,1418,1259,1074,874,666,440,195,-51,-278,-469,-629,-779,-923,-1064,-1200,-1323,-1430,-1516,-1587,-1660,-1735,-1802,-1827,-1839,-1848,-1835,-1814,-1790,-1765,-1741,-1702,-1660,-1610,-1581,-1529,-1474,-1422,-1370,-1315,-1282,-1248,-1214,-1181,-1145,-1108,-1076,-1028,-982,-925,-871,-834,-804,-784,-773,-766,-743,-681,-572,-420,-241,-57,119,283,431,566,683,738,750,757,763,766,769,771,775,779,782,784,784,783,784,787,791,804,827,838,843,849,856,866,878,900,934,969,1002,1025,1038,1046,1046,1037,1023,999,965,934,904,876,848,822,798,763,718,663,609,562,518,476,434,391,339,282,227,176,128,79,26,-25,-73,-103,-136,-164,-188,-210,-245,-291,-349,-417,-485,-553,-626,-707,-789,-861,-878,-882,-871,-806,-747,-698,-653,-603,-543,-478,-460,-455,-452,-451,-449,-448,-448,-449,-451,-453,-455,-462,-456,-425,-394,-337,-267,-182,-91,0,89,163,195,206,185,160,140,139,158,209,298,405,522,649,779,896,986,1035,1050,1058,1064,1070,1075,1080,1085,1092,1098,1100,1098,1090,1078,1041,986,926,865,790,699,603,512,424,343,277,223,193,142,90,41,11,-19,-53,-88,-122,-155,-189,-225,-253,-273,-298,-328,-359,-391,-423,-443,-455,-464,-470,-474,-478,-483,-488,-493,-498,-504,-509,-514,-518,-517,-510,-499,-488,-474,-464,-457,-448,-438,-453,-479,-499,-510,-517,-515,-500,-491,-485,-481,-477,-474,-470,-467,-463,-460,-457,-453,-443,-419,-390,-361,-338,-322,-309,-298,-285,-271,-254,-230,-205,-175,-137,-104,-53,-7,22,54,83,111,136,173,215,272,346,430,519,612,702,785,860,934,1014,1092,1158,1219,1283,1348,1408,1466,1523,1572,1602,1618,1625,1630,1634,1639,1645,1650,1654,1659,1665,1676,1694,1708,1716,1722,1728,1731,1732,1728,1721,1712,1695,1665,1634,1600,1559,1521,1492,1471,1450,1432,1417,1406,1398,1391,1384,1378,1369,1359,1346,1328,1311,1289,1261,1235,1208,1180,1150,1116,1082,1048,1010,971,938,893,838,779,728,683,640,592,559,520,486,455,430,411,388,362,334,302,272,250,233,213,185,150,111,77,46,19,-3,-29,-55,-86,-108,-118,-127,-134,-141,-147,-157,-172,-187,-200,-210,-220,-229,-258,-314,-383,-449,-511,-571,-635,-703,-769,-825,-874,-892,-904,-918,-939,-964,-989,-1014,-1043,-1076,-1109,-1143,-1178,-1212,-1248,-1284,-1318,-1351,-1379,-1392,-1398,-1403,-1406,-1408,-1408,-1406,-1402,-1395,-1388,-1377,-1358,-1344,-1332,-1322,-1310,-1295,-1278,-1258,-1244,-1234,-1228,-1221,-1211,-1201,-1192,-1181,-1174,-1173,-1179,-1191,-1226,-1292,-1370,-1445,-1505,-1524,-1533,-1528,-1486,-1416,-1324,-1223,-1131,-1057,-1012,-996,-995,-1005,-1014,-1022,-1026,-1020,-1006,-994,-980,-966,-953,-944,-937,-931,-924,-918,-912,-906,-900,-891,-878,-864,-852,-839,-827,-816,-806,-794,-780,-761,-745,-732,-720,-710,-700,-689,-678,-666,-657,-650,-644,-638,-633,-629,-624,-620,-617,-614,-610,-607,-602,-597,-592,-586,-579,-573,-566,-558,-551,-544,-538,-532,-526,-520,-513,-506,-499,-492,-485,-479,-471,-462,-453,-445,-438,-432,-427,-421,-414,-407,-400,-393,-386,-379,-373,-366,-360,-352,-324,-272,-240,-207,-180,-141,-94,-65,-48,-40,-34,-30,-24,-19,-14,-9,-3,6,20,31,40,47,53,60,68,76,85,97,114,132,149,167,187,215,247,272,291,309,323,336,347,357,388,439,503,575,652,734,817,891,953,996,1012,1011,995,977,958,941,933,928,925,922,918,915,912,910,908,907,907,906,905,903,894,901,943,973,1014,1056,1070,1077,1078,1071,1058,1018,950,867,790,702,658,810,1130,1475,1776,2007,2180,2278,2287,2235,2047,1714,1264,840,596,516,489,500,531,607,707,751,680,555,613,1028,1754,2600,3252,3450,3229,2700,1990,1288,997,958,1055,1284,1527,1696,1736,1725,1626,1449,1243,1046,910,794,724,706,695,686,679,674,670,666,662,657,649,642,638,631,617,624,670,708,771,997,1381,1816,2183,2421,2490,2481,2357,2162,1950,1676,1256,779,425,305,264,280,334,363,373,364,354,347,341,335,331,326,321,314,302,289,281,276,270,264,259,255,253,250,245,239,228,203,151,63,-42,-133,-199,-220,-230,-226,-183,-113,-19,84,181,256,284,294,281,242,196,149,101,68,38,16,-1,-11,-18,-22,-26,-29,-32,-36,-39,-42,-46,-51,-56,-63,-70,-77,-87,-97,-103,-109,-114,-118,-123,-128,-131,-134,-136,-139,-143,-147,-150,-154,-156,-158,-160,-163,-167,-170,-172,-174,-176,-177,-179,-181,-182,-184,-185,-187,-189,-191,-193,-195,-197,-198,-200,-202,-205,-208,-211,-215,-219,-223,-228,-233,-238,-242,-246,-250,-254,-259,-268,-278,-287,-295,-301,-306,-311,-315,-318,-319,-317,-312,-307,-302,-297,-293,-288,-283,-279,-276,-273,-269,-265,-261,-257,-254,-253,-251,-249,-247,-244,-242,-239,-236,-233,-230,-228,-229,-231,-234,-237,-239,-240,-242,-244,-247,-250,-252,-253,-254,-254,-255,-256,-256,-254,-252,-249,-246,-244,-241,-238,-235,-231,-227,-223,-217,-211,-205,-199,-193,-187,-182,-178,-174,-170,-166,-160,-154,-148,-143,-138,-133,-129,-124,-119,-115,-112,-109,-108,-106,-105,-103,-102,-101,-101,-98,-93,-92,-96,-98,-101,-103,-105,-104,-101,-96,-91,-88,-87,-85,-83,-80,-77,-75,-75,-75,-75,-73,-72,-71,-71,-72,-72,-71,-69,-67,-65,-64,-62,-59,-56,-53,-50,-47,-41,-25,-21,-21,-21,-21,-20,-19,-18,-16,-15,-15,-15,-14,-12,-11,-11,-10,-10,-8,-5,-2,0,-2,-7,-13,-19,-23,-26,-31,-36,-41,-45,-47,-49,-49,-50,-50,-52,-54,-55,-56,-57,-61,-64,-64,-60,-54,-49,-39,-7,82,264,433,568,668,707,720,703,650,541,384,185,75,38,55,78,95,72,3,-94,-200,-331,-480,-558,-545,-406,-179,46,233,361,405,361,265,171,131,122,113,100,85,64,39,33,29,26,24,26,34,44,48,52,56,61,65,66,65,60,53,45,39,33,26,18,11,6,3,3,3,3,2,0,0,0,1,0,0,-3,-5,-8,-12,-16,-21,-27,-36,-47,-58,-65,-72,-80,-86,-91,-93,-92,-90,-88,-85,-82,-78,-70,-70,-88,-104,-120,-135,-148,-168,-204,-236,-256,-272,-285,-292,-297,-302,-307,-311,-315,-318,-320,-321,-320,-319,-317,-314,-311,-307,-303,-299,-295,-291,-287,-283,-277,-270,-263,-256,-248,-240,-232,-224,-217,-211,-206,-201,-197,-192,-187,-183,-179,-176,-174,-172,-171,-169,-168,-166,-166,-165,-163,-160,-156,-151,-143,-131,-117,-100,-78,-61,-48,-38,-29,-20,-15,-15,-20,-29,-38,-46,-53,-61,-70,-79,-88,-97,-105,-113,-121,-130,-136,-140,-139,-135,-129,-123,-116,-106,-91,-75,-57,-37,-15,-2,4,9,15,19,23,26,30,36,42,48,54,58,60,63,66,69,72,75,78,80,83,87,90,93,94,94,94,94,94,95,96,96,97,99,106,112,112,104,92,83,74,66,61,61,65,72,79,85,90,95,100,105,109,114,118,124,130,139,155,191,221,240,259,278,292,303,313,320,324,326,328,329,330,332,333,327,313,302,292,281,269,255,241,232,222,214,206,201,198,197,199,201,205,210,216,223,229,238,246,251,256,260,265,270,274,277,279,280,281,282,281,279,276,271,265,256,245,201,107,-19,-160,-278,-314,-299,-187,-10,178,327,381,399,375,335,291,247,205,182,171,163,155,147,137,128,121,116,111,107,103,99,96,93,91,89,86,83,80,78,76,75,74,72,70,68,65,61,58,55,52,49,46,43,40,37,35,33,31,29,26,23,19,14,9,3,-2,-9,-14,-19,-23,-26,-29,-33,-36,-40,-43,-47,-52,-58,-64,-70,-76,-80,-83,-86,-88,-91,-93,-96,-100,-104,-109,-114,-120,-127,-134,-141,-147,-153,-158,-164,-173,-191,-199,-204,-206,-207,-209,-211,-213,-215,-216,-215,-214,-213,-212,-210,-209,-207,-205,-203,-202,-202,-203,-203,-203,-202,-201,-200,-199,-199,-200,-200,-200,-200,-201,-202,-204,-206,-207,-206,-204,-202,-200,-197,-195,-193,-189,-187,-185,-184,-183,-181,-180,-178,-175,-174,-173,-172,-170,-167,-164,-162,-160,-159,-158,-156,-154,-152,-150,-149,-148,-147,-146,-144,-142,-140,-138,-137,-136,-134,-132,-130,-128,-126,-125,-123,-121,-119,-116,-113,-111,-109,-104,-97,-89,-82,-75,-68,-61,-51,-37,-12,19,32,39,46,52,57,62,65,68,70,72,74,76,77,78,78,78,77,76,76,75,74,73,72,72,71,71,71,70,68,67,66,65,64,63,62,61,60,60,61,62,63,64,65,67,77,90,97,103,108,112,115,118,121,122,121,118,114,110,106,101,96,91,85,76,68,62,60,63,68,73,78,80,83,85,87,90,93,97,101,105,108,110,109,108,107,105,103,100,96,93,90,86,82,57,-21,-122,-232,-336,-396,-395,-329,-161,62,282,443,494,489,421,330,255,216,187,164,131,115,106,99,92,87,83,79,76,73,70,69,66,65,64,63,63,63,64,64,63,61,59,57,55,54,52,51,50,49,49,49,49,48,47,46,44,42,40,36,32,28,23,19,16,13,10,8,7,6,4,2,-1,-6,-11,-16,-21,-26,-31,-36,-39,-41,-41,-41,-40,-40,-40,-40,-41,-42,-44,-47,-51,-56,-60,-63,-65,-67,-68,-70,-71,-71,-72,-73,-80,-84,-77,-62,-48,-32,-16,0,6,10,15,19,23,27,31,35,37,39,41,43,44,44,44,44,44,46,48,50,51,51,48,45,40,35,30,27,24,22,19,18,17,16,15,13,12,11,11,10,10,10,10,9,10,10,11,11,12,13,14,15,16,16,16,15,16,18,20,22,24,25,26,28,31,34,36,37,39,41,44,49,54,58,60,62,64,66,68,69,70,71,71,73,74,76,78,78,78,78,79,80,82,82,82,81,81,81,83,83,84,83,82,82,82,82,83,82,82,81,81,81,81,81,80,79,78,77,75,74,73,73,72,71,70,69,69,69,69,67,64,61,58,58,61,65,70,75,80,86,93,98,99,94,84,72,56,35,24,19,15,10,7,5,4,4,4,3,3,5,8,12,17,21,24,27,33,40,47,55,63,68,73,79,83,87,89,90,89,88,87,86,84,79,73,52,-18,-121,-241,-351,-410,-407,-335,-168,45,246,359,397,377,318,235,160,122,103,92,84,75,65,56,50,45,41,39,37,35,34,32,29,27,25,23,21,20,18,17,16,15,14,13,11,9,8,7,5,3,0,-4,-8,-11,-14,-17,-20,-25,-30,-35,-41,-47,-53,-59,-64,-69,-72,-75,-78,-82,-85,-90,-95,-101,-107,-113,-119,-124,-130,-134,-138,-141,-144,-148,-152,-157,-161,-165,-169,-173,-179,-185,-192,-197,-202,-205,-209,-214,-220,-227,-230,-230,-230,-230,-230,-231,-230,-219,-213,-209,-204,-201,-198,-197,-195,-193,-191,-190,-189,-188,-188,-187,-185,-183,-184,-189,-198,-209,-223,-238,-260,-280,-288,-292,-296,-299,-300,-301,-299,-296,-292,-287,-281,-273,-267,-270,-276,-279,-283,-287,-289,-291,-289,-286,-281,-278,-276,-273,-271,-269,-268,-267,-266,-265,-264,-262,-260,-259,-258,-257,-255,-253,-250,-248,-246,-243,-237,-230,-225,-220,-215,-213,-210,-207,-204,-202,-199,-197,-195,-193,-191,-189,-186,-182,-178,-168,-144,-124,-110,-94,-88,-85,-82,-80,-78,-77,-76,-75,-75,-74,-73,-71,-69,-68,-67,-66,-65,-64,-62,-60,-58,-56,-53,-48,-38,-29,-24,-20,-16,-12,-8,-4,1,7,16,31,59,82,99,110,125,143,151,155,158,161,163,166,169,173,177,182,188,198,216,233,242,248,253,257,260,262,263,263,262,258,253,248,242,235,226,208,196,189,182,176,173,179,192,213,239,254,265,272,276,279,281,283,285,288,289,290,290,290,290,290,289,287,284,280,275,269,243,198,122,12,-122,-241,-301,-259,-104,126,365,542,596,592,525,453,402,372,349,331,312,283,267,265,263,261,261,261,261,261,261,261,261,261,263,266,270,272,275,279,281,276,268,264,261,258,256,254,252,249,246,244,241,238,234,227,213,200,193,189,186,184,183,181,178,175,173,170,166,162,154,140,122,104,86,72,61,51,41,32,24,18,13,4,-7,-19,-27,-33,-40,-46,-51,-54,-57,-58,-59,-60,-61,-61,-61,-60,-59,-60,-56,-37,-19,-3,10,24,29,33,36,38,40,41,42,43,46,49,52,54,55,56,57,58,61,63,66,69,76,84,92,99,106,111,116,120,125,129,131,131,129,124,119,115,112,110,107,105,103,101,101,100,98,96,93,91,90,88,88,87,87,87,86,84,81,78,73,67,58,38,19,1,-13,-21,-25,-28,-29,-31,-32,-32,-32,-32,-32,-32,-33,-33,-32,-32,-31,-31,-31,-31,-31,-31,-31,-32,-33,-34,-35,-35,-36,-37,-38,-39,-39,-39,-38,-38,-37,-37,-35,-33,-30,-28,-26,-24,-22,-19,-16,-14,-13,-12,-11,-10,-8,-6,-4,-3,-2,-2,-3,-4,-5,-7,-9,-12,-15,-17,-20,-22,-24,-27,-29,-31,-32,-33,-34,-35,-36,-37,-38,-40,-40,-41,-42,-43,-45,-46,-47,-48,-48,-47,-47,-47,-48,-49,-50,-51,-52,-49,-43,-35,-26,-18,-8,1,9,16,22,28,35,45,56,69,83,95,107,118,126,134,140,143,143,140,134,125,93,36,-39,-123,-201,-246,-244,-189,-56,110,269,382,415,426,407,350,291,229,167,108,90,85,80,83,100,113,125,134,135,125,112,99,83,75,76,75,75,74,74,72,71,64,55,45,36,24,13,7,2,0,-3,-6,-10,-13,-17,-19,-21,-22,-25,-31,-34,-31,-23,-17,-12,-9,-8,-14,-24,-35,-44,-53,-63,-73,-81,-88,-94,-100,-105,-110,-115,-119,-123,-125,-128,-133,-139,-148,-162,-180,-191,-198,-205,-210,-213,-214,-212,-209,-204,-197,-188,-178,-160,-144,-129,-120,-113,-107,-102,-97,-92,-87,-82,-78,-73,-69,-64,-60,-55,-51,-48,-45,-44,-44,-46,-50,-54,-60,-66,-72,-78,-85,-93,-101,-109,-118,-126,-134,-144,-156,-168,-177,-184,-189,-192,-194,-196,-198,-199,-200,-201,-201,-201,-201,-202,-204,-205,-207,-209,-212,-215,-218,-221,-224,-227,-230,-238,-257,-265,-270,-273,-277,-280,-279,-273,-264,-254,-245,-232,-222,-221,-226,-235,-244,-254,-264,-275,-284,-291,-297,-303,-308,-312,-312,-309,-303,-295,-285,-263,-238,-233,-231,-229,-227,-227,-227,-227,-225,-224,-222,-220,-218,-217,-216,-213,-208,-204,-199,-195,-185,-173,-162,-150,-133,-113,-99,-87,-75,-73,-77,-82,-87,-69,-53,-42,-31,-16,1,34,77,116,152,185,222,265,304,334,358,381,411,439,451,458,463,464,462,454,443,423,389,356,322,302,293,286,281,275,268,262,256,249,240,225,217,224,240,264,307,359,403,442,476,492,501,507,514,524,536,548,561,578,590,590,578,558,527,480,432,392,368,353,340,329,313,299,317,376,466,585,704,770,792,778,735,675,603,557,545,539,531,523,515,504,478,445,429,419,411,409,413,418,423,428,435,433,417,408,401,396,391,388,387,387,388,389,391,393,396,395,380,355,331,317,308,320,333,342,346,338,322,309,296,284,272,263,255,249,243,235,227,219,212,204,195,184,172,161,152,143,133,122,109,95,81,65,48,30,10,0,-8,-16,-22,-26,-29,-30,-31,-32,-32,-31,-29,-26,-23,-21,-20,-19,-17,-13,-9,-4,0,3,8,15,23,32,39,46,51,58,66,75,83,90,95,99,102,106,109,111,112,112,112,114,118,122,124,124,123,119,115,111,108,105,102,99,95,91,87,83,79,74,68,60,42,1,-37,-65,-87,-108,-131,-162,-173,-178,-182,-185,-188,-192,-195,-197,-198,-199,-199,-200,-200,-200,-200,-200,-200,-199,-199,-199,-199,-198,-197,-195,-194,-193,-193,-194,-194,-195,-196,-197,-198,-198,-198,-198,-198,-197,-196,-196,-196,-198,-199,-201,-204,-206,-208,-211,-215,-219,-222,-224,-226,-229,-235,-244,-255,-265,-273,-280,-286,-292,-299,-305,-309,-312,-315,-318,-322,-326,-330,-332,-332,-331,-330,-329,-327,-326,-324,-321,-319,-317,-315,-314,-312,-307,-301,-296,-292,-292,-295,-298,-302,-305,-308,-312,-318,-325,-331,-336,-340,-344,-348,-353,-358,-362,-362,-357,-349,-337,-325,-309,-286,-267,-253,-231,-196,-178,-171,-163,-156,-150,-147,-145,-144,-144,-144,-144,-146,-149,-154,-161,-169,-179,-192,-247,-318,-405,-498,-529,-557,-491,-354,-178,3,159,247,275,256,226,187,145,102,56,22,10,4,0,-2,-4,-4,-3,2,12,22,32,40,45,50,55,60,64,67,70,73,76,80,83,85,86,86,86,87,88,89,89,89,89,88,87,87,85,84,82,81,81,82,83,83,83,82,82,82,83,82,81,80,79,79,79,80,81,82,82,81,80,79,77,75,71,67,63,58,54,51,48,43,30,16,10,7,5,2,-1,-4,-6,-6,0,9,18,24,28,33,38,44,50,56,62,67,72,76,80,84,88,90,93,95,97,100,103,107,111,115,118,121,123,124,123,121,119,115,110,105,101,97,92,88,84,80,77,74,72,69,67,65,63,63,62,62,61,61,62,62,62,61,60,59,58,59,59,60,61,61,62,62,63,63,62,60,57,53,50,47,45,44,43,43,43,43,43,42,39,37,35,33,32,31,32,33,36,39,43,46,49,52,57,61,65,66,63,56,47,39,32,22,11,3,2,8,16,25,30,36,43,48,53,55,52,48,42,37,36,34,33,31,29,27,26,26,27,27,27,27,27,27,27,26,25,23,22,20,20,20,19,18,18,17,15,12,10,7,3,-1,-6,-11,-16,-20,-23,-26,-33,-56,-69,-67,-65,-65,-65,-66,-68,-69,-70,-69,-66,-62,-58,-53,-48,-42,-36,-28,-17,-4,8,18,27,36,43,48,52,54,56,56,55,51,47,40,32,20,-26,-108,-205,-305,-382,-408,-386,-317,-164,26,212,339,380,367,329,248,199,157,127,94,83,78,75,71,68,64,62,59,57,56,56,55,55,56,57,59,60,61,60,59,58,56,54,53,51,50,48,47,47,47,48,47,46,44,41,39,37,34,31,28,26,24,24,24,25,25,25,24,23,22,20,18,16,14,11,8,6,3,1,-1,-3,-6,-10,-13,-17,-22,-27,-33,-41,-51,-60,-69,-75,-80,-84,-88,-90,-92,-94,-96,-98,-101,-105,-107,-108,-109,-108,-108,-105,-102,-97,-90,-83,-75,-66,-53,-40,-28,-17,-10,-4,0,4,7,9,10,10,8,6,3,0,-1,-3,-5,-7,-9,-11,-12,-13,-15,-18,-20,-22,-24,-24,-24,-23,-22,-20,-17,-13,-9,-6,-3,-1,1,5,8,10,12,13,16,19,22,25,26,26,27,28,30,32,34,35,36,39,41,44,46,48,48,49,51,53,55,56,57,58,59,61,64,66,67,67,66,66,65,64,63,62,61,61,60,60,60,60,60,61,61,60,59,58,57,57,58,58,58,59,59,60,61,62,61,60,59,59,58,58,57,55,54,52,52,53,54,55,55,54,54,55,55,57,58,59,59,59,60,62,65,68,71,73,76,79,81,84,86,87,87,86,83,79,74,68,61,55,49,43,38,34,30,27,27,29,34,42,50,58,65,75,85,92,98,103,107,110,114,119,123,126,128,129,129,129,128,126,123,119,113,106,99,67,-4,-96,-195,-276,-302,-277,-205,-44,136,283,352,375,350,311,268,229,183,154,140,129,122,116,111,107,104,102,100,99,97,96,94,93,92,91,89,86,83,80,77,76,75,74,73,72,71,70,68,66,62,58,55,54,54,55,59,62,66,70,77,81,73,57,47,39,31,24,19,15,11,8,4,1,-2,-5,-9,-12,-17,-22,-28,-33,-38,-43,-48,-57,-71,-88,-108,-121,-132,-142,-150,-156,-160,-163,-166,-170,-176,-179,-173,-160,-150,-139,-130,-125,-122,-120,-116,-111,-111,-119,-123,-125,-127,-129,-130,-132,-133,-134,-136,-138,-139,-141,-141,-143,-144,-147,-149,-152,-154,-156,-158,-162,-165,-169,-171,-173,-175,-177,-179,-181,-183,-185,-186,-188,-191,-194,-196,-197,-196,-192,-185,-177,-159,-138,-133,-130,-128,-127,-126,-126,-126,-125,-123,-122,-120,-119,-118,-118,-116,-113,-109,-105,-98,-65,-12,62,182,338,510,663,739,731,613,392,124,-106,-211,-215,-162,-120,-92,-72,-71,-84,-98,-112,-117,-122,-125,-102,-87,-79,-72,-66,-62,-59,-57,-55,-53,-51,-50,-49,-49,-50,-50,-50,-50,-49,-47,-46,-44,-41,-39,-36,-34,-31,-27,-23,-18,-13,-7,-2,2,6,10,13,16,18,21,23,25,27,28,29,29,30,32,31,30,27,24,21,19,18,15,11,5,0,-5,-11,-16,-22,-28,-33,-37,-39,-41,-44,-48,-52,-54,-55,-56,-60,-54,-30,-9,5,15,26,38,56,75,87,95,97,94,91,89,87,87,91,96,105,123,144,156,148,126,64,-22,-127,-239,-335,-384,-354,-234,-43,169,342,428,438,402,334,280,258,233,198,139,87,64,56,52,52,56,60,63,66,69,71,71,69,65,60,54,49,41,34,29,27,25,24,24,23,22,22,22,22,21,21,20,19,19,19,19,18,17,15,14,12,11,9,5,0,-4,-10,-15,-18,-20,-23,-26,-28,-29,-31,-33,-35,-38,-40,-42,-45,-47,-49,-51,-54,-58,-64,-68,-71,-74,-76,-79,-82,-87,-91,-96,-100,-103,-106,-110,-113,-114,-114,-112,-108,-103,-98,-76,-50,-41,-35,-31,-25,-14,-7,-3,0,2,6,11,15,20,27,31,29,26,25,23,22,21,20,20,22,24,27,30,34,38,42,43,41,38,36,33,30,26,19,11,2,1,9,17,25,26,23,20,17,28,41,51,52,45,40,37,35,31,27,22,17,9,0,0,6,18,29,34,38,33,27,22,21,24,31,27,14,9,5,2,1,0,0,0,0,-2,9,21,32,37,35,30,24,16,6,-7,-18,-24,-28,-16,3,18,22,26,28,29,28,25,20,6,-8,-12,-15,-17,-18,-18,-16,-14,-11,-7,1,6,9,12,14,16,17,18,20,23,27,32,38,50,60,63,67,62,59,56,53,52,52,53,55,58,60,64,69,61,54,50,47,43,39,35,31,27,23,18,13,9,7,9,11,14,17,22,30,41,50,57,63,68,73,79,86,93,98,104,112,120,129,143,158,167,169,171,173,172,164,143,119,85,38,-22,-96,-175,-245,-279,-255,-153,12,198,343,397,398,351,289,249,232,210,182,151,122,107,101,97,95,93,90,88,86,85,84,81,78,75,72,70,69,65,61,60,62,65,69,67,63,67,80,87,91,90,89,84,88,101,109,111,110,109,108,107,103,98,89,82,78,75,76,79,83,75,69,65,61,54,45,36,29,21,14,7,2,-2,-6,-11,-18,-24,-29,-31,-33,-43,-67,-82,-91,-96,-99,-102,-103,-104,-104,-105,-105,-104,-104,-102,-100,-98,-95,-92,-87,-74,-62,-52,-43,-35,-27,-20,-14,-7,2,12,17,21,25,28,31,34,35,36,35,35,35,35,33,31,28,23,16,3,-4,-9,-10,-4,0,2,6,9,10,9,7,5,3,3,2,1,0,-1,-2,-2,-2,-1,-2,-3,-4,-4,-4,-4,-4,-4,-6,-7,-8,-8,-8,-9,-10,-11,-12,-12,-9,-6,-2,0,3,9,15,16,12,7,5,3,2,2,2,2,0,-1,-3,-4,-5,-7,-8,-10,-12,-13,-14,-15,-16,-19,-22,-24,-25,-24,-21,-18,-16,-13,-9,-5,-2,-1,-2,-3,-4,-5,-6,-7,-8,-9,-9,-10,-10,-10,-11,-12,-11,-11,-10,-9,-8,-7,-6,-4,-2,-1,-6,-12,-16,-20,-24,-27,-28,-28,-27,-26,-25,-23,-21,-19,-18,-18,-19,-23,-27,-35,-51,-62,-68,-72,-76,-79,-82,-84,-89,-94,-83,-64,-47,-38,-32,-25,-16,-4,6,11,14,16,18,20,22,24,27,29,33,35,36,34,31,24,6,-33,-93,-166,-252,-336,-386,-385,-330,-189,0,191,321,352,310,238,173,138,127,118,109,93,79,75,73,71,70,72,76,81,86,91,95,97,96,92,89,86,84,82,80,77,75,73,72,71,71,70,68,67,66,65,64,63,61,59,56,54,53,51,49,47,46,45,45,45,44,43,41,44,49,53,52,42,34,28,22,15,9,3,0,-2,-4,-7,-8,-10,-12,-13,-15,-18,-21,-23,-25,-26,-28,-30,-32,-35,-40,-45,-48,-45,-39,-32,-28,-24,-20,-17,-14,-11,-8,-4,0,2,6,10,15,19,24,30,35,40,44,47,51,56,59,62,64,65,66,66,65,64,61,58,54,50,46,43,38,30,21,16,14,12,9,5,6,16,24,33,37,34,27,22,18,15,13,10,6,3,-1,-4,-7,-11,-14,-16,-19,-20,-20,-20,-19,-17,-16,-14,-12,-10,-9,-11,-16,-22,-27,-33,-40,-47,-54,-60,-65,-69,-73,-76,-78,-81,-84,-87,-92,-96,-102,-115,-139,-151,-158,-164,-168,-169,-168,-167,-165,-163,-162,-160,-158,-156,-155,-158,-164,-171,-180,-192,-194,-196,-199,-199,-189,-181,-174,-167,-161,-155,-150,-146,-141,-136,-131,-128,-125,-123,-120,-114,-111,-115,-124,-134,-146,-160,-178,-204,-222,-231,-239,-245,-250,-254,-257,-260,-263,-267,-271,-276,-280,-285,-289,-293,-298,-304,-310,-316,-323,-333,-346,-357,-365,-376,-387,-391,-395,-399,-399,-389,-380,-372,-364,-355,-346,-331,-307,-288,-273,-256,-238,-223,-222,-221,-220,-219,-218,-220,-223,-227,-231,-234,-238,-246,-259,-302,-378,-482,-604,-720,-793,-795,-736,-576,-369,-166,-18,40,43,7,-59,-131,-197,-254,-300,-315,-320,-324,-321,-307,-296,-288,-282,-275,-269,-265,-261,-255,-247,-239,-229,-217,-204,-195,-190,-188,-185,-183,-180,-178,-176,-174,-173,-171,-168,-166,-163,-161,-159,-156,-152,-147,-143,-139,-136,-134,-130,-125,-118,-114,-111,-109,-103,-96,-113,-125,-130,-136,-140,-144,-145,-143,-139,-134,-129,-124,-121,-119,-116,-113,-112,-110,-108,-106,-102,-99,-95,-91,-89,-86,-83,-80,-76,-73,-69,-65,-61,-56,-51,-47,-42,-38,-35,-32,-29,-25,-20,-8,15,38,63,83,95,108,122,131,139,144,149,154,158,162,165,168,171,175,178,181,182,181,181,180,179,178,174,168,169,189,199,205,211,216,221,225,230,235,240,243,245,247,248,249,249,250,251,253,255,258,261,265,269,273,277,281,285,289,294,304,314,323,331,336,341,345,349,353,355,356,356,356,356,355,355,354,353,351,350,349,349,348,347,345,345,344,347,353,360,367,372,378,383,387,391,393,394,393,391,388,385,382,379,377,376,373,370,367,364,361,358,355,352,349,346,342,339,337,333,329,324,319,314,309,305,301,297,293,289,285,282,279,276,272,268,264,259,253,246,238,227,208,194,183,173,162,150,137,129,123,118,115,112,111,111,112,115,120,125,130,135,140,145,151,157,161,162,161,157,151,145,137,128,114,100,90,82,70,55,37,-9,-69,-153,-258,-361,-419,-415,-334,-158,57,256,384,414,405,333,246,181,147,117,86,61,43,33,28,25,23,21,20,18,16,14,11,8,4,0,-2,-6,-11,-16,-22,-28,-35,-41,-47,-50,-53,-56,-58,-61,-64,-67,-71,-75,-80,-84,-88,-91,-94,-97,-99,-101,-104,-106,-108,-111,-114,-118,-121,-124,-128,-130,-133,-135,-136,-137,-138,-139,-141,-143,-145,-148,-150,-153,-155,-157,-158,-159,-159,-159,-157,-156,-156,-154,-150,-147,-153,-165,-173,-181,-188,-193,-192,-185,-175,-165,-157,-148,-139,-130,-122,-116,-111,-104,-95,-81,-67,-51,-46,-43,-41,-39,-37,-36,-34,-33,-32,-32,-31,-30,-30,-30,-30,-31,-31,-30,-29,-28,-26,-25,-24,-23,-22,-21,-21,-20,-19,-18,-17,-15,-14,-12,-10,-7,-3,0,7,27,46,64,81,102,110,114,118,121,124,126,128,129,131,133,134,136,137,138,139,140,141,141,141,141,142,142,143,142,142,142,142,142,142,142,141,141,140,139,138,137,136,135,134,134,134,133,134,134,135,136,137,138,138,138,138,140,142,143,143,143,144,146,147,149,151,151,152,153,154,156,156,156,156,156,157,158,159,160,161,162,163,165,166,166,166,164,161,158,156,153,151,148,145,142,139,137,135,133,130,127,124,121,120,119,120,121,124,128,133,140,146,153,159,167,175,183,190,196,201,204,207,210,214,219,223,226,226,223,218,209,196,150,94,25,-58,-152,-213,-233,-199,-93,75,245,363,395,406,383,346,308,283,264,241,226,215,207,200,194,189,185,183,181,180,179,179,178,178,178,178,176,174,171,168,166,163,160,158,156,154,151,146,138,129,122,121,123,126,128,130,134,137,139,135,126,117,109,102,96,89,82,75,69,64,59,55,51,47,44,40,37,33,29,26,21,18,14,10,5,0,-4,-9,-13,-15,-17,-18,-20,-20,-20,-20,-19,-19,-20,-21,-21,-22,-23,-23,-24,-24,-23,-22,-19,-16,-13,-10,-8,-5,-3,1,5,9,13,17,22,26,31,35,38,42,45,48,51,55,58,62,67,73,78,79,77,74,71,68,67,65,62,60,57,55,52,51,49,48,48,48,48,48,48,47,46,45,43,42,40,38,36,34,33,32,31,30,29,28,28,27,25,23,20,17,14,11,9,6,3,0,-2,-6,-12,-25,-39,-49,-56,-61,-65,-66,-65,-62,-60,-56,-49,-51,-65,-75,-83,-89,-96,-102,-107,-112,-117,-121,-125,-128,-131,-134,-138,-141,-144,-147,-151,-154,-157,-160,-165,-169,-173,-176,-177,-178,-179,-180,-181,-183,-185,-187,-189,-192,-194,-195,-197,-198,-200,-201,-203,-204,-206,-209,-212,-216,-221,-225,-230,-235,-240,-245,-251,-256,-262,-269,-276,-283,-286,-288,-288,-289,-290,-292,-295,-297,-298,-296,-289,-279,-268,-257,-244,-231,-223,-215,-200,-176,-163,-157,-152,-148,-145,-145,-145,-147,-150,-153,-159,-165,-178,-208,-261,-349,-459,-568,-640,-644,-590,-446,-257,-72,63,98,89,11,-79,-139,-159,-147,-135,-126,-127,-141,-150,-158,-164,-169,-173,-175,-176,-178,-180,-182,-185,-188,-188,-188,-188,-189,-189,-190,-189,-188,-187,-185,-184,-182,-181,-179,-178,-177,-177,-177,-176,-176,-174,-173,-173,-173,-174,-175,-175,-174,-173,-173,-172,-171,-170,-169,-167,-166,-165,-165,-164,-164,-164,-164,-164,-163,-163,-161,-159,-157,-156,-155,-155,-156,-157,-158,-160,-163,-166,-170,-173,-177,-180,-182,-183,-182,-180,-176,-170,-162,-149,-138,-131,-126,-121,-116,-109,-103,-97,-90,-80,-71,-62,-50,-37,-25,-16,-6,-1,-1,-3,-4,-5,-7,-8,-8,-7,-5,-3,-1,0,2,4,7,9,11,13,13,13,11,10,7,4,1,-5,-5,0,2,6,9,11,13,12,10,7,4,1,0,-1,-4,-7,-8,-9,-9,-9,-10,-12,-13,-14,-14,-14,-15,-17,-18,-20,-21,-21,-22,-23,-24,-25,-26,-26,-27,-28,-30,-32,-34,-36,-38,-40,-42,-43,-45,-46,-48,-49,-51,-52,-53,-54,-57,-60,-62,-63,-63,-59,-55,-50,-47,-45,-42,-38,-34,-31,-30,-28,-26,-24,-22,-21,-21,-23,-25,-26,-27,-27,-28,-30,-32,-35,-37,-39,-45,-51,-53,-54,-54,-54,-54,-53,-53,-53,-52,-51,-50,-49,-48,-47,-47,-47,-46,-43,-41,-48,-61,-72,-81,-90,-98,-106,-115,-125,-133,-135,-136,-137,-139,-136,-123,-108,-92,-77,-63,-52,-44,-37,-33,-29,-25,-22,-19,-17,-16,-15,-15,-15,-16,-19,-22,-26,-31,-37,-45,-82,-162,-267,-384,-478,-494,-478,-361,-188,9,178,264,273,230,147,74,38,29,23,19,16,14,12,11,9,8,7,6,5,4,3,1,0,-2,-3,-4,-5,-5,-5,-5,-5,-5,-8,-10,-4,7,14,21,27,32,33,31,27,22,18,16,13,11,7,4,1,-1,-4,-8,-11,-14,-16,-17,-18,-18,-19,-21,-23,-25,-26,-29,-32,-36,-39,-42,-45,-47,-50,-54,-63,-79,-83,-87,-92,-92,-85,-81,-80,-78,-77,-76,-74,-71,-68,-63,-59,-56,-52,-48,-45,-41,-37,-32,-27,-23,-20,-15,-10,-3,7,33,54,65,72,75,75,75,75,75,75,76,76,76,76,75,74,72,70,67,63,60,56,53,51,49,48,46,45,45,44,45,46,48,49,49,50,51,52,54,55,56,57,57,58,59,59,59,59,59,60,60,62,64,65,66,67,68,70,72,74,75,75,75,76,77,79,81,82,83,84,85,87,88,87,86,85,83,83,83,83,83,83,83,83,84,85,86,86,86,85,85,85,86,87,88,88,88,88,89,90,91,92,93,93,94,94,95,96,96,97,98,98,99,99,99,100,101,102,103,104,105,105,104,102,100,98,95,93,91,88,85,82,79,75,67,57,50,43,37,32,27,22,18,15,12,10,8,7,6,4,2,1,-1,-5,-10,-13,-11,-4,4,15,29,42,55,64,70,76,80,84,87,89,91,93,95,98,102,110,109,93,69,35,-25,-105,-202,-301,-366,-367,-307,-152,43,225,323,355,333,268,200,169,154,145,131,109,73,37,18,3,5,28,45,61,73,78,75,68,59,53,49,45,42,40,38,35,33,31,28,25,20,17,21,28,33,38,42,44,44,37,28,19,14,10,6,1,-3,-7,-11,-15,-17,-20,-22,-24,-26,-28,-30,-32,-35,-41,-48,-56,-66,-74,-79,-84,-88,-92,-96,-100,-103,-106,-110,-113,-116,-119,-121,-124,-126,-130,-135,-140,-143,-143,-141,-137,-132,-127,-123,-119,-114,-109,-103,-98,-93,-90,-86,-82,-76,-68,-59,-51,-43,-37,-30,-23,-17,-10,-5,-1,1,6,12,16,19,18,17,14,13,11,8,3,0,2,8,10,11,12,12,13,13,14,15,16,16,17,17,17,17,18,19,19,19,19,18,19,20,22,23,23,23,23,23,23,24,24,24,24,25,26,26,27,26,24,22,20,17,12,12,22,30,36,41,44,40,30,19,10,1,-8,-14,-15,-11,-5,0,4,10,16,21,23,21,19,16,14,13,12,11,8,6,5,4,4,3,3,2,2,2,3,3,3,3,3,4,5,7,8,9,10,11,13,15,17,17,18,18,19,21,22,23,24,25,28,31,34,34,32,29,25,22,19,17,13,10,6,4,2,0,-1,-3,-5,-5,-5,-6,-7,-11,-14,-15,-11,-1,9,16,24,31,39,46,53,60,65,71,77,83,88,92,96,99,104,111,121,127,130,131,134,138,120,65,-12,-115,-234,-346,-392,-381,-275,-92,114,289,369,377,334,258,192,156,147,142,137,132,125,118,112,106,103,99,96,93,91,88,85,82,79,77,77,77,78,79,79,80,81,83,85,86,86,86,87,90,90,84,78,74,69,64,58,52,43,42,48,51,53,56,58,59,60,59,57,55,51,45,39,32,22,13,5,-1,-8,-17,-29,-37,-40,-42,-44,-46,-47,-49,-49,-49,-47,-45,-43,-40,-35,-33,-43,-59,-69,-77,-84,-90,-95,-97,-95,-91,-84,-77,-71,-67,-62,-57,-51,-45,-40,-37,-34,-31,-27,-24,-21,-19,-18,-17,-16,-15,-13,-11,-9,-7,-5,-3,-1,1,3,5,7,9,11,14,16,19,22,25,27,30,31,33,34,34,34,34,33,32,32,32,33,33,32,30,29,28,27,25,23,26,32,35,38,42,46,49,49,48,46,44,42,41,40,38,36,34,33,33,32,30,30,29,29,29,30,30,30,30,30,31,32,34,36,38,40,42,45,47,49,50,51,53,54,55,56,57,59,61,63,64,64,63,61,60,60,59,58,56,54,53,52,53,54,55,55,55,54,55,55,55,55,54,53,53,54,56,57,58,59,60,61,63,65,66,66,66,68,73,78,78,69,56,48,41,36,31,26,21,16,10,5,1,-2,-5,-10,-14,-17,-19,-18,-15,-11,-6,-1,4,10,19,29,39,51,61,68,74,81,88,92,95,96,97,97,96,94,90,85,79,72,58,24,-38,-126,-234,-342,-405,-404,-331,-164,39,229,362,397,389,316,222,142,108,93,85,80,74,68,63,59,56,54,51,48,47,45,43,41,39,37,34,32,29,27,25,22,18,15,11,9,7,5,4,2,2,1,0,0,-1,-3,-5,-6,-7,-8,-9,-10,-12,-14,-15,-16,-18,-21,-25,-29,-33,-37,-41,-45,-51,-56,-60,-64,-67,-69,-72,-75,-77,-80,-82,-85,-88,-92,-96,-101,-104,-106,-109,-111,-115,-120,-131,-153,-166,-172,-177,-181,-182,-179,-174,-167,-160,-153,-144,-135,-128,-123,-120,-116,-112,-108,-103,-96,-85,-75,-65,-56,-48,-42,-38,-35,-34,-32,-31,-29,-27,-26,-25,-25,-24,-23,-22,-21,-22,-23,-24,-24,-23,-22,-21,-21,-20,-20,-19,-17,-15,-14,-13,-13,-13,-13,-13,-12,-12,-12,-12,-11,-10,-8,-7,-5,-4,-3,-2,0,1,2,3,3,2,1,1,1,1,2,2,4,5,7,9,10,12,14,16,18,20,22,23,26,29,31,31,29,27,24,22,16,9,23,30,32,34,37,39,41,42,44,45,47,49,51,52,53,54,54,55,56,58,60,62,65,72,78,79,74,67,62,56,51,46,45,46,48,51,54,59,66,66,57,52,48,44,41,39,38,37,35,33,30,28,26,24,20,13,8,9,12,14,16,18,16,11,3,-7,-28,-49,-64,-74,-80,-85,-89,-91,-91,-88,-83,-75,-65,-53,-33,-18,-5,6,10,12,14,15,17,18,19,20,22,24,27,32,37,48,69,85,94,81,43,-35,-150,-289,-420,-483,-477,-381,-189,31,224,327,340,305,239,186,158,133,106,74,54,45,39,38,41,43,45,46,47,47,46,45,42,40,38,35,31,25,20,15,14,16,19,22,25,27,28,31,33,35,35,35,35,35,34,32,28,22,15,4,-10,-13,-14,-15,-17,-18,-18,-16,-13,-9,-6,0,7,6,-7,-18,-27,-35,-43,-49,-55,-63,-76,-76,-64,-51,-39,-39,-53,-64,-75,-84,-92,-97,-100,-102,-104,-107,-110,-113,-115,-116,-115,-115,-113,-111,-108,-103,-98,-92,-86,-81,-76,-68,-59,-51,-45,-41,-37,-33,-29,-25,-19,-11,-2,7,18,30,47,62,73,81,84,87,90,93,98,101,104,106,106,106,106,105,103,101,98,95,93,92,91,91,90,90,89,89,88,88,87,86,84,81,79,77,76,75,74,74,73,73,74,75,76,75,73,71,70,69,68,66,65,63,63,63,65,66,67,67,67,68,69,70,70,69,69,68,67,67,66,65,65,65,65,66,66,67,67,66,66,66,66,65,63,61,59,57,55,54,54,54,53,52,52,51,50,49,46,44,41,38,35,33,31,29,27,26,26,27,28,28,27,26,26,26,27,26,25,24,22,21,20,20,20,20,19,19,18,18,17,16,14,11,8,4,1,-3,-8,-12,-19,-31,-44,-60,-69,-76,-82,-87,-91,-94,-96,-96,-94,-90,-85,-78,-71,-63,-54,-40,-27,-19,-13,-8,-5,-1,1,4,7,9,9,8,6,3,0,-5,-11,-25,-49,-83,-147,-241,-358,-466,-499,-480,-352,-150,70,250,323,347,327,264,186,112,52,24,15,11,8,5,2,0,-2,-4,-6,-8,-9,-10,-12,-14,-16,-19,-21,-22,-23,-24,-26,-28,-30,-32,-34,-36,-38,-39,-41,-43,-44,-45,-45,-46,-47,-47,-47,-47,-48,-49,-51,-54,-55,-57,-58,-59,-60,-62,-63,-63,-63,-63,-64,-65,-67,-69,-71,-73,-76,-79,-81,-84,-85,-87,-90,-93,-97,-100,-103,-106,-109,-113,-118,-123,-127,-130,-132,-134,-135,-135,-134,-132,-128,-125,-121,-117,-113,-109,-105,-99,-93,-86,-79,-73,-68,-63,-59,-54,-50,-46,-43,-39,-36,-32,-28,-25,-24,-25,-28,-31,-33,-35,-36,-39,-43,-47,-49,-49,-45,-39,-34,-30,-27,-21,-15,-8,-5,-6,-8,-10,-12,-12,-13,-16,-19,-22,-23,-20,-15,-9,-4,-1,2,7,11,15,17,17,17,17,18,18,18,17,17,16,17,18,18,17,16,15,18,25,32,36,41,46,50,54,55,54,52,49,47,46,45,42,39,36,34,34,35,37,39,41,44,47,50,52,53,53,52,51,50,47,44,41,42,46,50,53,56,58,61,65,67,68,68,67,65,63,61,60,59,56,54,52,51,53,55,59,62,64,67,70,75,79,81,80,78,75,74,72,71,70,67,63,57,49,42,36,30,24,19,15,11,7,3,-3,-9,-15,-20,-24,-28,-34,-41,-46,-48,-46,-43,-38,-33,-29,-25,-19,-11,-4,0,6,17,29,12,0,-4,-9,-13,-17,-20,-24,-28,-31,-35,-39,-44,-51,-84,-146,-220,-304,-390,-446,-465,-432,-329,-150,52,230,321,329,277,170,61,4,-15,-14,2,17,32,39,31,18,12,7,3,0,-2,-3,-4,-5,-6,-5,-5,-3,0,1,4,5,5,5,5,5,6,7,8,9,10,11,12,12,11,10,7,5,3,0,-2,-5,-7,-9,-11,-13,-15,-17,-19,-21,-22,-23,-25,-26,-28,-30,-32,-35,-38,-41,-44,-48,-51,-54,-57,-59,-62,-65,-67,-70,-74,-77,-81,-86,-90,-93,-95,-95,-94,-93,-92,-91,-90,-89,-87,-86,-85,-84,-83,-80,-76,-71,-66,-61,-54,-43,-18,3,16,22,22,22,23,24,25,26,27,30,35,40,44,47,49,51,53,55,56,57,57,57,56,54,52,48,44,41,38,36,33,29,26,23,22,22,22,23,23,23,23,24,26,27,29,30,30,30,30,30,30,30,29,28,27,26,25,25,24,24,23,22,20,19,17,13,14,26,36,46,52,49,43,40,37,35,33,31,29,26,23,20,18,17,16,15,15,14,13,11,9,8,6,5,3,2,0,0,-1,-1,0,0,0,0,-1,-3,-4,-6,-9,-13,-14,-9,-2,3,8,13,16,19,22,26,30,35,38,40,41,43,45,49,52,54,55,55,54,54,55,55,53,51,49,47,45,44,43,41,39,37,35,34,32,30,26,23,19,15,11,7,1,-7,-17,-26,-35,-42,-50,-56,-58,-54,-45,-34,-25,-15,-6,3,13,22,31,39,48,55,58,58,56,52,48,44,38,35,41,52,63,77,78,65,30,-40,-136,-246,-351,-429,-437,-401,-255,-50,158,317,379,383,339,272,207,153,124,96,65,43,27,20,22,28,32,36,40,41,41,38,35,33,33,32,31,28,25,22,20,18,16,15,13,12,11,10,9,6,3,0,0,0,3,6,10,13,20,25,25,19,13,10,9,7,6,3,1,0,-3,-5,-8,-11,-14,-16,-18,-20,-21,-23,-26,-29,-32,-35,-38,-41,-44,-47,-51,-55,-57,-59,-62,-65,-71,-78,-83,-86,-89,-92,-98,-101,-98,-91,-85,-79,-74,-69,-64,-61,-56,-51,-45,-38,-26,-14,-5,1,8,15,21,26,30,33,37,41,45,48,52,55,57,58,58,56,53,48,42,36,28,15,3,-5,-11,-15,-19,-22,-24,-25,-26,-27,-26,-25,-23,-21,-19,-17,-15,-13,-11,-9,-8,-8,-8,-8,-7,-6,-5,-5,-3,-2,0,2,4,5,7,9,11,13,16,18,21,27,33,39,43,42,39,35,29,23,13,7,11,18,22,25,28,32,34,35,34,33,30,27,25,24,21,18,14,11,10,12,14,17,20,22,25,29,32,33,31,26,20,10,-8,-23,-32,-36,-31,-23,-16,-11,-5,-1,1,4,5,6,7,9,9,10,10,10,10,11,12,12,12,12,12,12,13,13,13,13,12,12,11,11,10,9,8,6,6,5,4,2,0,-2,-4,-7,-12,-19,-27,-35,-43,-50,-56,-62,-68,-74,-77,-76,-74,-70,-65,-58,-44,-23,-14,-10,-7,-5,-3,0,2,6,10,14,18,24,31,45,67,70,73,75,56,0,-88,-209,-343,-452,-498,-451,-315,-121,83,247,324,333,299,222,139,69,26,11,9,13,16,18,19,19,20,20,20,19,18,17,15,12,8,4,1,0,-2,-3,-5,-6,-6,-6,-6,-5,-5,-4,-2,0,1,3,6,8,8,4,-1,-7,-14,-23,-32,-42,-50,-57,-64,-69,-72,-73,-71,-66,-60,-52,-43,-30
