-363,-444,-526,-611,-690,-729,-743,-749,-749,-744,-733,-701,-647,-574,-486,-389,-292,-200,-108,-19,59,125,176,222,248,263,274,280,279,270,254,229,192,157,127,102,73,41,13,-29,-73,-121,-152,-207,-272,-348,-430,-518,-610,-709,-818,-929,-1035,-1132,-1211,-1271,-1293,-1303,-1310,-1309,-1293,-1249,-1206,-1159,-1103,-1032,-945,-844,-735,-626,-522,-428,-344,-273,-215,-188,-176,-170,-166,-163,-159,-155,-150,-144,-138,-133,-128,-123,-118,-113,-108,-102,-97,-91,-83,-70,-48,-34,-15,9,36,63,81,91,100,111,124,139,155,167,175,182,190,202,218,230,241,249,254,255,255,255,256,257,259,260,261,262,265,270,275,282,288,295,304,313,320,326,331,335,339,342,345,348,350,353,356,359,363,366,368,371,374,378,385,391,396,398,396,392,386,379,367,341,327,322,316,312,308,306,305,305,305,306,306,307,309,311,313,314,315,316,317,319,322,323,319,311,303,299,296,292,289,284,280,275,271,266,262,258,254,251,249,247,244,240,235,230,225,220,215,211,208,204,201,197,192,183,174,167,158,146,130,104,85,72,61,51,42,33,24,14,5,-2,-9,-15,-26,-42,-51,-60,-68,-65,-47,-33,-23,-14,-7,0,6,11,16,20,23,27,30,34,39,43,46,51,55,60,68,75,78,76,72,66,44,-9,-73,-136,-159,-170,-177,-177,-165,-134,-85,-21,46,107,130,137,143,147,149,148,141,130,119,111,105,99,92,86,81,77,73,70,67,65,62,60,58,56,53,50,46,43,41,40,38,37,35,33,31,29,26,22,18,14,10,5,0,-7,-13,-19,-24,-28,-32,-36,-40,-43,-45,-46,-47,-48,-50,-52,-54,-57,-59,-62,-65,-68,-71,-74,-77,-80,-84,-87,-91,-94,-97,-100,-101,-102,-102,-100,-97,-92,-86,-80,-71,-52,-34,-23,-16,-9,-4,2,7,12,18,25,35,49,67,77,84,90,95,97,99,99,98,96,93,91,89,87,84,82,79,76,72,70,68,66,65,65,66,67,68,67,65,59,62,78,88,94,99,102,105,107,106,104,100,96,93,91,88,86,84,81,78,74,71,68,65,63,60,56,49,33,0,-54,-112,-177,-246,-313,-371,-426,-451,-465,-474,-478,-471,-456,-443,-428,-414,-400,-376,-348,-308,-265,-215,-160,-101,-43,12,64,97,124,140,154,166,173,178,182,185,187,189,189,188,185,182,179,176,174,170,166,162,160,162,166,171,175,177,180,182,185,187,188,190,192,195,199,201,204,207,210,213,217,220,224,228,233,239,245,250,253,254,253,250,247,242,236,229,217,205,193,180,167,154,142,128,111,91,74,60,47,36,24,8,-9,-17,-23,-28,-32,-35,-38,-40,-42,-43,-44,-44,-43,-41,-38,-36,-33,-30,-26,-22,-18,-15,-11,-6,-2,2,5,7,8,7,5,3,0,-4,-8,-11,-14,-17,-21,-25,-28,-30,-30,-28,-25,-22,-19,-16,-13,-10,-6,-3,-1,0,0,-3,-7,-12,-19,-24,-30,-36,-42,-47,-50,-50,-45,-37,-29,-20,-12,-2,7,13,14,8,1,-5,-10,-14,-19,-24,-29,-33,-35,-36,-35,-33,-29,-24,-18,-12,-6,0,5,11,17,20,21,19,15,10,5,1,-1,-3,-6,-8,-10,-12,-14,-17,-19,-22,-24,-26,-27,-29,-30,-32,-34,-35,-37,-38,-39,-40,-41,-42,-44,-45,-46,-48,-49,-50,-50,-50,-50,-51,-51,-51,-50,-49,-49,-49,-48,-49,-49,-50,-50,-51,-51,-52,-52,-50,-47,-44,-41,-40,-39,-37,-36,-34,-33,-31,-29,-28,-27,-26,-26,-27,-28,-29,-30,-31,-32,-33,-33,-33,-32,-31,-30,-29,-28,-28,-28,-27,-27,-27,-28,-28,-28,-28,-27,-27,-26,-25,-24,-23,-23,-23,-23,-24,-27,-31,-35,-39,-42,-44,-46,-47,-48,-48,-49,-49,-49,-50,-51,-51,-52,-53,-55,-56,-57,-58,-59,-58,-58,-59,-59,-60,-61,-62,-63,-65,-67,-68,-69,-69,-68,-66,-63,-59,-54,-49,-44,-41,-39,-37,-34,-31,-28,-24,-22,-19,-16,-13,-11,-11,-12,-13,-14,-16,-19,-23,-28,-33,-39,-45,-83,-139,-205,-278,-348,-387,-401,-377,-304,-200,-101,-37,-17,-7,-2,0,0,2,6,11,9,-10,-27,-42,-53,-53,-47,-40,-36,-32,-28,-24,-23,-25,-31,-38,-44,-49,-53,-59,-65,-70,-73,-75,-76,-77,-77,-76,-75,-74,-73,-72,-72,-72,-71,-69,-67,-66,-67,-72,-81,-91,-100,-110,-120,-128,-132,-134,-135,-137,-138,-139,-140,-141,-142,-143,-144,-146,-148,-149,-151,-153,-155,-157,-159,-162,-166,-171,-175,-178,-177,-172,-164,-154,-140,-118,-101,-85,-69,-48,-35,-26,-19,-14,-11,-9,-7,-5,-3,-1,0,2,4,6,9,11,14,17,19,21,22,24,25,28,31,33,35,35,34,31,27,24,21,19,18,14,10,7,6,7,9,12,14,17,19,23,27,31,32,30,25,18,9,2,-6,-15,-24,-30,-36,-42,-56,-85,-118,-147,-189,-232,-284,-343,-400,-451,-473,-481,-486,-489,-491,-492,-492,-490,-486,-481,-474,-460,-430,-371,-307,-241,-181,-122,-55,23,106,180,208,218,197,171,149,140,136,133,131,128,126,126,125,127,131,136,140,145,151,158,165,171,174,176,177,179,182,184,187,188,186,184,181,178,175,172,170,167,165,165,166,170,175,181,193,208,209,210,211,213,214,212,207,201,190,167,150,142,135,127,119,111,104,91,72,59,42,20,9,5,2,0,-3,-6,-9,-11,-12,-13,-16,-21,-32,-45,-51,-55,-53,-44,-40,-36,-33,-30,-27,-26,-26,-26,-25,-25,-25,-25,-26,-26,-25,-24,-27,-32,-34,-35,-37,-38,-39,-40,-42,-43,-44,-45,-46,-46,-46,-46,-47,-48,-48,-49,-49,-49,-50,-50,-51,-52,-52,-53,-54,-57,-59,-59,-58,-56,-53,-51,-50,-49,-47,-44,-42,-41,-42,-43,-45,-47,-49,-51,-53,-56,-58,-60,-60,-58,-54,-51,-48,-46,-43,-39,-36,-33,-32,-33,-35,-36,-37,-38,-40,-43,-47,-50,-51,-51,-51,-50,-49,-48,-47,-43,-41,-41,-42,-43,-44,-45,-45,-44,-42,-40,-39,-39,-38,-37,-36,-35,-35,-35,-34,-34,-33,-33,-33,-34,-34,-34,-33,-32,-32,-31,-31,-31,-30,-29,-28,-27,-27,-26,-26,-25,-24,-23,-23,-22,-22,-23,-23,-23,-23,-23,-22,-21,-20,-19,-18,-17,-16,-16,-16,-16,-16,-16,-16,-15,-14,-10,-8,-9,-14,-16,-17,-18,-19,-20,-22,-23,-26,-28,-30,-32,-33,-33,-34,-35,-37,-41,-44,-46,-43,-38,-33,-30,-27,-23,-19,-16,-15,-14,-14,-14,-13,-12,-12,-11,-11,-11,-10,-6,-2,2,7,15,22,27,32,36,41,43,38,25,-12,-60,-115,-172,-223,-258,-270,-259,-228,-170,-109,-59,-24,-3,34,76,111,125,125,116,89,55,18,1,-5,-8,-10,-12,-13,-13,-13,-11,-9,-6,-3,0,5,9,12,8,0,-9,-15,-22,-29,-35,-39,-40,-39,-38,-36,-36,-35,-34,-32,-30,-28,-27,-27,-27,-27,-27,-29,-32,-36,-41,-45,-48,-51,-53,-56,-60,-63,-67,-69,-71,-72,-74,-75,-77,-77,-77,-77,-78,-79,-80,-82,-83,-84,-82,-76,-70,-62,-55,-47,-38,-29,-21,-13,-6,0,6,11,16,21,25,30,34,39,44,49,55,62,68,73,77,80,84,87,89,89,88,85,82,78,75,72,68,63,58,53,51,53,58,63,69,73,79,86,91,91,87,81,75,71,68,64,61,58,56,54,54,54,55,57,58,60,61,63,66,69,72,74,75,73,70,67,64,61,57,51,48,46,47,48,49,49,50,50,51,53,54,55,55,55,54,51,49,45,42,38,36,33,32,31,29,27,25,22,20,18,16,15,14,13,12,13,15,17,20,22,24,26,28,31,33,35,37,39,41,44,47,50,52,55,57,60,61,62,61,60,59,57,55,51,47,43,39,34,28,12,-15,-51,-94,-137,-153,-152,-133,-84,-19,36,65,81,92,98,101,95,85,75,69,63,59,54,51,48,45,42,39,36,33,32,31,31,30,29,28,26,25,24,23,21,19,18,16,14,13,11,9,7,5,4,1,0,-3,-6,-9,-12,-15,-18,-21,-24,-27,-30,-34,-38,-45,-58,-69,-78,-86,-92,-98,-104,-111,-119,-126,-132,-139,-146,-151,-153,-153,-151,-147,-143,-139,-133,-126,-117,-107,-96,-86,-76,-66,-59,-53,-48,-43,-39,-34,-30,-25,-21,-17,-12,-5,5,10,12,13,14,15,15,15,14,11,8,5,2,0,-3,-3,0,5,11,15,19,23,27,30,31,31,31,30,28,26,24,21,18,16,15,16,17,18,18,19,20,21,21,22,22,22,22,22,21,20,18,17,15,14,12,10,7,5,5,7,9,11,12,12,13,14,15,16,16,17,17,17,17,17,16,16,16,16,17,17,18,18,17,17,17,16,15,14,12,11,10,8,7,6,4,2,0,-4,-8,-12,-15,-16,-17,-18,-19,-20,-20,-20,-19,-19,-20,-20,-20,-18,-13,-7,-1,3,8,14,19,22,23,24,24,24,24,24,25,25,25,25,25,25,26,25,25,24,22,20,19,17,14,11,-5,-42,-98,-167,-235,-276,-278,-248,-171,-82,-3,52,64,66,66,66,60,51,47,45,43,42,41,40,39,37,35,34,33,31,30,28,27,26,25,24,22,20,14,9,6,4,3,1,0,0,-2,-3,-4,-4,-5,-6,-8,-9,-10,-12,-13,-15,-18,-21,-23,-26,-28,-30,-33,-37,-42,-49,-60,-70,-77,-84,-90,-96,-101,-104,-107,-109,-111,-113,-114,-113,-112,-109,-105,-100,-95,-90,-82,-74,-68,-63,-57,-45,-29,-18,-9,0,8,17,28,34,39,42,45,48,51,54,57,59,61,63,65,67,69,68,66,62,57,53,50,46,42,38,36,35,37,40,45,49,53,60,65,66,64,61,59,57,55,51,43,35,29,23,18,13,11,10,11,13,16,20,28,35,35,36,37,38,39,37,34,30,25,18,15,13,12,10,8,8,10,14,18,22,25,28,32,36,38,38,36,32,26,21,13,1,0,3,5,6,7,9,10,10,11,13,14,16,18,20,21,23,25,29,33,35,34,30,25,21,16,12,9,7,4,0,0,2,7,11,15,18,21,21,20,17,14,8,1,0,-3,-6,-6,-2,0,2,4,6,7,7,5,3,0,-1,-3,-7,-10,-13,-16,-19,-21,-24,-27,-30,-32,-31,-29,-25,-20,-12,0,9,14,17,20,21,22,23,25,27,28,27,24,21,19,16,13,13,15,17,19,20,22,24,23,22,20,17,6,-20,-64,-128,-208,-286,-329,-330,-293,-213,-126,-53,-2,29,44,51,54,56,58,59,59,58,56,53,48,37,24,21,18,16,16,17,18,19,19,19,20,20,21,21,22,22,21,19,17,14,12,9,6,2,-1,-4,-7,-10,-13,-16,-18,-20,-22,-23,-24,-26,-27,-29,-30,-31,-32,-33,-36,-40,-48,-57,-69,-84,-94,-99,-103,-106,-108,-110,-111,-112,-114,-115,-116,-116,-116,-114,-112,-109,-105,-100,-90,-78,-67,-56,-42,-29,-15,-3,8,20,29,31,32,34,35,37,38,39,40,41,42,43,44,45,45,46,46,46,46,46,47,47,48,49,49,49,49,48,48,47,46,45,44,42,41,40,39,39,38,37,36,35,34,33,32,30,29,28,26,25,24,22,21,19,18,17,15,14,13,12,11,11,10,10,10,9,8,6,5,4,3,3,3,3,4,5,6,8,10,12,14,15,16,16,18,20,22,23,21,19,16,14,13,11,10,8,6,4,3,2,2,2,3,3,4,5,7,9,9,7,5,4,3,2,1,1,0,0,-2,-3,-4,-4,-4,-4,-3,-3,-2,-1,-1,-1,-2,-3,-6,-6,0,3,6,8,10,11,10,7,2,-1,-3,-6,-10,-13,-15,-18,-20,-22,-24,-25,-27,-29,-30,-32,-34,-36,-38,-40,-41,-42,-43,-43,-43,-41,-38,-35,-32,-30,-27,-23,-17,-11,-8,-7,-6,-5,-5,-4,-3,-2,-1,-1,0,0,0,0,-1,-2,-3,-4,-6,-7,-9,-11,-23,-54,-108,-181,-264,-340,-382,-383,-351,-273,-181,-97,-35,-1,9,12,13,14,15,16,17,15,9,4,1,0,-2,-4,-7,-10,-12,-15,-17,-18,-20,-21,-22,-23,-24,-24,-25,-25,-27,-28,-30,-32,-34,-35,-37,-38,-40,-41,-43,-44,-46,-47,-50,-53,-58,-63,-66,-70,-73,-76,-80,-83,-87,-91,-95,-99,-104,-109,-114,-120,-127,-134,-138,-142,-146,-149,-152,-154,-156,-156,-156,-155,-154,-152,-149,-145,-140,-133,-120,-108,-95,-82,-72,-62,-52,-41,-33,-28,-23,-18,-13,-8,0,11,21,28,32,36,39,42,43,45,46,49,51,51,47,42,37,31,27,26,24,23,21,19,18,19,22,24,27,31,33,29,22,18,15,13,10,8,6,3,1,0,-2,-4,-5,-6,-7,-8,-9,-10,-10,-9,-9,-10,-11,-12,-13,-14,-15,-16,-17,-19,-20,-21,-21,-22,-23,-25,-26,-28,-30,-31,-31,-31,-31,-29,-27,-24,-21,-19,-17,-15,-13,-11,-8,-6,-5,-3,-2,-1,0,0,0,0,0,0,0,0,0,0,0,0,0,0,1,1,0,0,-2,-3,-4,-5,-6,-8,-9,-10,-10,-10,-10,-9,-7,-6,-5,-3,-2,-1,0,1,2,3,5,6,6,6,5,4,2,1,0,0,-1,-2,-3,-3,-3,-4,-4,-6,-7,-9,-10,-12,-13,-13,-13,-12,-10,-8,-5,-2,0,5,12,22,32,39,44,49,52,53,53,54,53,53,53,54,55,55,55,55,54,54,54,53,51,49,46,42,38,18,-32,-110,-206,-298,-345,-344,-290,-189,-86,-6,44,69,80,91,106,121,129,133,135,137,139,140,142,143,145,147,148,149,151,151,152,154,156,158,160,163,165,168,172,181,199,209,216,220,223,225,227,229,230,231,231,229,224,219,212,200,187,176,166,158,152,146,140,135,129,124,118,112,105,93,77,66,59,51,43,34,23,13,7,2,-3,-9,-16,-22,-27,-31,-34,-36,-35,-32,-28,-23,-17,-6,5,18,31,44,55,65,72,77,81,84,86,89,91,94,97,102,111,131,152,166,173,178,182,185,188,192,196,202,208,216,224,229,233,237,241,243,243,241,239,236,233,230,225,220,213,206,200,194,190,185,181,177,172,167,162,155,148,139,128,117,110,105,101,96,90,86,82,78,75,72,69,66,63,60,56,53,49,45,42,38,35,31,28,26,24,21,17,11,4,-4,-8,-10,-12,-14,-16,-18,-21,-23,-25,-27,-29,-32,-35,-38,-44,-55,-60,-63,-65,-67,-68,-69,-70,-72,-75,-77,-80,-82,-84,-85,-86,-87,-88,-88,-88,-88,-89,-90,-92,-95,-97,-98,-100,-101,-102,-104,-106,-107,-109,-110,-113,-117,-121,-125,-129,-132,-134,-138,-142,-147,-155,-161,-166,-169,-171,-173,-175,-176,-177,-176,-175,-172,-169,-165,-160,-154,-144,-137,-134,-132,-131,-130,-129,-128,-127,-126,-125,-125,-124,-124,-124,-125,-125,-126,-127,-128,-129,-130,-132,-133,-136,-148,-178,-222,-277,-340,-407,-466,-487,-481,-431,-345,-252,-179,-141,-123,-110,-90,-69,-56,-55,-63,-74,-88,-95,-98,-101,-104,-109,-114,-119,-125,-130,-131,-127,-121,-116,-111,-106,-103,-103,-103,-104,-105,-106,-109,-113,-107,-104,-102,-100,-98,-97,-97,-98,-100,-102,-104,-106,-108,-111,-113,-115,-117,-118,-121,-123,-125,-127,-130,-133,-138,-149,-163,-170,-174,-178,-181,-183,-185,-187,-188,-188,-189,-188,-188,-188,-187,-185,-183,-181,-178,-175,-167,-151,-135,-117,-103,-91,-78,-59,-37,-20,-7,5,13,19,24,30,36,42,46,50,53,57,60,63,65,68,69,71,72,72,72,73,73,74,75,75,75,75,75,76,76,76,75,75,74,73,73,72,72,72,71,71,71,71,70,70,69,68,67,67,66,66,65,64,63,62,62,61,61,60,60,59,59,58,58,57,57,56,55,54,53,52,52,51,51,50,50,49,48,48,47,46,45,44,43,42,42,42,42,42,41,42,42,42,41,40,38,37,36,35,34,33,32,31,30,30,29,28,27,25,23,22,21,20,19,18,17,17,17,16,15,14,12,10,8,7,5,4,2,0,-1,-3,-6,-9,-13,-18,-22,-26,-29,-32,-35,-37,-39,-42,-45,-48,-51,-53,-53,-51,-47,-43,-39,-34,-27,-20,-13,-6,-2,1,4,6,8,10,12,13,15,16,17,18,17,17,16,14,12,10,7,3,0,-3,-7,-19,-48,-95,-160,-237,-310,-358,-362,-336,-261,-169,-82,-17,22,47,64,76,81,76,66,49,33,28,25,23,19,13,4,-3,-13,-21,-22,-17,-10,0,12,16,18,21,22,16,6,1,-2,-5,-8,-11,-15,-18,-21,-23,-24,-27,-31,-37,-43,-46,-48,-50,-53,-56,-57,-58,-57,-54,-52,-50,-47,-42,-43,-55,-69,-84,-96,-111,-132,-143,-148,-152,-156,-159,-161,-162,-162,-162,-161,-160,-158,-154,-150,-145,-140,-131,-113,-101,-86,-68,-50,-34,-23,-16,-8,0,11,27,39,45,50,57,63,65,67,68,70,72,73,74,74,74,75,75,76,76,75,74,73,74,75,76,76,76,76,76,76,77,78,77,76,76,78,80,82,84,83,81,78,75,74,73,71,68,66,65,65,65,65,65,65,65,65,66,66,66,66,65,65,65,65,65,64,64,64,65,65,66,66,66,66,66,68,69,71,72,75,80,84,80,73,66,60,54,48,43,38,31,27,32,40,47,53,58,63,66,69,74,81,81,70,59,47,40,35,32,29,28,30,35,41,45,48,51,54,57,59,60,60,58,56,53,49,45,42,36,30,24,17,8,-10,-22,-23,-24,-25,-25,-25,-25,-24,-22,-20,-17,-13,-8,1,12,26,43,53,59,63,65,62,54,46,40,34,29,25,23,22,21,20,19,18,17,16,15,13,12,8,2,-18,-58,-116,-188,-267,-334,-362,-359,-318,-239,-147,-63,-4,19,26,31,37,44,51,59,63,58,48,34,12,-7,-19,-23,-23,-23,-23,-23,-24,-23,-23,-23,-23,-22,-22,-22,-22,-22,-22,-23,-23,-24,-25,-27,-28,-29,-30,-32,-35,-37,-40,-44,-47,-51,-54,-57,-60,-62,-63,-66,-69,-74,-79,-85,-91,-96,-100,-105,-109,-114,-119,-124,-129,-136,-142,-148,-153,-158,-161,-165,-169,-172,-174,-174,-173,-170,-166,-161,-152,-134,-116,-96,-81,-68,-49,-35,-26,-18,-11,-6,-3,-1,1,7,17,27,32,36,39,41,42,43,42,39,36,33,31,27,23,23,26,30,33,37,41,45,48,52,56,63,66,60,47,40,35,29,25,23,21,20,20,20,21,22,24,26,29,32,34,36,39,43,46,47,46,42,37,33,30,29,28,27,26,25,24,24,24,24,24,23,22,22,22,22,22,20,19,18,18,18,18,17,16,15,14,13,13,12,11,10,10,9,9,9,9,9,10,10,10,10,10,10,10,10,10,9,8,7,6,5,3,2,0,-1,-3,-5,-6,-9,-13,-18,-23,-27,-30,-32,-33,-34,-34,-35,-35,-35,-34,-33,-33,-33,-32,-26,-17,-6,6,12,14,15,16,18,19,20,20,20,20,21,21,21,20,19,17,16,14,12,10,8,6,4,-9,-44,-99,-172,-255,-330,-366,-361,-304,-196,-80,10,34,40,45,48,49,50,50,50,49,47,44,40,35,28,12,-6,-12,-15,-18,-19,-17,-12,-8,-6,-3,0,2,3,0,-4,-11,-17,-20,-23,-26,-29,-31,-33,-34,-36,-37,-38,-40,-42,-43,-45,-46,-46,-47,-47,-49,-51,-53,-56,-59,-65,-73,-80,-88,-95,-101,-105,-109,-113,-117,-120,-122,-124,-125,-126,-127,-128,-129,-130,-131,-134,-137,-137,-131,-122,-111,-96,-83,-71,-59,-48,-33,-13,8,33,50,61,67,69,69,70,69,69,69,68,69,70,71,71,72,73,73,74,75,76,76,77,78,81,84,86,86,82,76,72,71,70,69,67,65,63,61,60,59,58,56,55,55,55,56,56,56,55,55,54,52,50,47,43,40,39,38,38,38,39,41,44,48,52,56,59,63,68,72,75,76,75,72,68,63,51,39,35,33,31,29,29,29,29,29,30,33,36,40,44,47,50,54,58,62,65,65,61,55,49,43,39,36,33,31,28,26,24,22,20,18,17,15,14,11,9,7,6,4,3,1,-1,-3,-5,-7,-11,-16,-21,-24,-26,-24,-22,-17,-12,-5,9,31,41,47,51,53,54,51,47,43,41,39,37,35,33,31,28,25,23,21,19,16,14,11,8,-2,-27,-70,-127,-196,-262,-307,-313,-292,-226,-145,-70,-14,20,34,44,53,61,61,50,35,23,40,70,90,101,100,73,37,12,0,-4,-6,-9,-10,-11,-11,-12,-12,-12,-13,-14,-15,-16,-17,-18,-20,-21,-23,-25,-27,-29,-31,-33,-35,-39,-43,-47,-52,-56,-59,-61,-63,-65,-67,-68,-69,-71,-72,-74,-77,-80,-86,-94,-108,-132,-143,-149,-153,-156,-159,-160,-162,-162,-162,-161,-159,-157,-153,-148,-143,-131,-109,-93,-81,-67,-52,-39,-29,-22,-17,-13,-7,0,6,11,16,21,26,30,35,39,43,46,49,53,56,58,58,57,55,53,51,49,47,45,42,40,38,37,36,36,36,35,35,36,37,39,41,41,42,43,45,46,47,47,46,44,42,39,36,31,30,34,38,42,45,46,43,40,39,39,38,38,37,36,35,33,32,32,32,32,32,32,33,33,34,34,34,33,32,32,31,31,31,30,30,31,32,33,34,35,35,35,35,35,34,34,34,35,36,41,40,30,25,22,19,17,15,12,10,7,3,1,-1,-3,-5,-7,-9,-12,-15,-17,-19,-21,-22,-23,-23,-21,-17,-13,-8,-3,1,11,19,23,24,24,24,24,24,24,25,25,26,26,27,28,30,31,33,34,36,38,41,46,50,52,49,44,35,8,-33,-89,-156,-230,-302,-346,-361,-341,-279,-180,-79,0,36,47,58,68,85,101,109,114,100,77,51,30,15,6,4,2,1,0,0,0,-1,-2,-2,-2,-2,-2,-3,-4,-5,-6,-7,-8,-9,-10,-11,-13,-15,-17,-18,-21,-23,-26,-30,-33,-37,-39,-41,-43,-45,-48,-52,-61,-78,-85,-89,-92,-94,-96,-98,-101,-102,-104,-107,-111,-117,-126,-137,-143,-148,-152,-155,-157,-158,-157,-154,-151,-146,-141,-132,-118,-108,-96,-78,-64,-56,-48,-42,-32,-17,0,17,31,39,45,49,53,55,56,58,60,61,61,61,59,58,56,56,55,55,54,53,52,52,52,53,53,52,52,53,53,54,54,55,54,54,54,54,54,53,53,52,52,51,50,50,49,48,47,47,46,45,45,44,44,44,44,43,43,42,42,41,41,40,40,41,41,42,42,43,43,43,44,44,43,42,41,40,40,39,39,39,39,39,39,40,40,40,39,39,38,37,37,37,37,37,37,37,37,37,37,36,36,34,32,30,27,24,20,15,9,4,0,-4,-7,-10,-13,-16,-18,-19,-20,-20,-20,-19,-18,-15,-13,-9,-6,-2,1,9,16,20,23,25,27,28,30,31,32,32,33,33,34,34,34,34,33,33,32,31,30,28,26,24,22,18,1,-37,-97,-174,-255,-324,-350,-345,-296,-209,-118,-45,0,27,57,90,114,122,113,86,46,22,13,10,10,10,10,10,10,10,10,10,10,10,11,11,9,7,5,2,0,-2,-5,-10,-15,-20,-25,-28,-30,-33,-35,-36,-38,-40,-41,-43,-45,-47,-49,-51,-53,-55,-58,-61,-65,-68,-71,-75,-80,-88,-97,-108,-115,-122,-128,-133,-137,-140,-143,-146,-150,-154,-156,-157,-157,-158,-159,-160,-156,-149,-142,-132,-122,-109,-92,-80,-73,-66,-60,-53,-32,-6,7,18,24,32,40,43,45,46,48,49,50,52,52,53,53,54,55,55,55,54,54,54,55,55,55,55,54,54,53,53,52,52,51,50,50,50,50,50,51,51,50,50,49,49,49,49,48,48,47,47,47,47,48,48,47,47,46,46,46,45,45,44,43,43,43,42,42,40,39,38,38,38,40,41,43,44,45,47,50,52,53,52,49,45,41,38,32,27,25,25,26,27,29,31,33,35,36,35,33,30,28,27,25,22,19,16,13,9,6,2,-2,-7,-11,-14,-16,-18,-20,-22,-24,-25,-25,-24,-22,-18,-14,-9,-2,10,18,24,30,34,38,42,47,47,42,39,37,35,34,33,32,31,31,31,31,31,32,33,35,36,38,42,34,10,-29,-86,-159,-239,-313,-351,-349,-304,-210,-109,-32,3,15,25,32,46,64,77,86,86,79,68,52,36,26,20,17,16,14,12,11,9,8,8,7,5,3,0,-5,-12,-13,-14,-16,-18,-20,-22,-23,-25,-27,-29,-31,-33,-34,-36,-39,-43,-46,-50,-54,-58,-63,-67,-71,-74,-76,-79,-81,-85,-89,-94,-100,-106,-112,-119,-126,-132,-136,-139,-141,-144,-147,-149,-150,-150,-150,-150,-149,-148,-146,-143,-139,-134,-124,-104,-85,-68,-53,-36,-19,-2,10,18,26,34,39,43,46,49,51,53,55,57,58,59,59,60,61,62,63,63,63,63,63,64,64,64,64,63,62,61,61,60,60,59,58,56,55,54,52,48,45,45,45,46,46,47,47,46,43,40,37,36,35,34,32,31,30,29,30,30,30,30,29,29,29,30,31,31,30,30,29,30,30,30,30,30,30,30,29,29,28,26,24,24,25,28,32,35,39,42,44,42,38,33,31,29,26,24,22,20,18,15,13,11,9,7,5,2,-2,-12,-18,-22,-27,-29,-25,-18,-14,-12,-9,-7,-4,-2,0,2,4,6,9,12,21,30,31,32,33,33,33,33,33,33,34,34,34,33,32,30,28,27,26,24,22,19,17,14,9,-9,-48,-108,-182,-259,-320,-343,-316,-242,-144,-52,11,34,42,51,62,83,96,101,96,74,58,50,46,43,38,35,29,18,1,-12,-21,-24,-26,-28,-26,-16,-11,-6,-2,0,2,1,-1,-5,-11,-24,-38,-43,-47,-47,-41,-37,-35,-32,-31,-30,-31,-34,-38,-43,-48,-54,-60,-64,-69,-78,-93,-107,-117,-119,-121,-123,-122,-116,-111,-105,-102,-106,-114,-122,-133,-143,-151,-157,-161,-161,-158,-153,-148,-142,-134,-127,-115,-98,-81,-62,-42,-19,5,27,34,37,39,40,42,43,44,45,45,46,47,49,50,50,51,51,51,52,53,55,58,63,73,75,76,76,77,78,78,77,73,68,63,59,55,50,46,42,41,39,39,38,37,35,31,30,35,43,50,56,61,63,64,65,67,70,61,44,35,34,34,33,33,33,33,32,32,33,34,35,37,39,42,44,46,48,51,52,52,50,46,41,34,23,17,13,10,8,6,6,7,10,14,19,24,30,35,38,37,33,28,22,13,4,-5,-14,-22,-27,-31,-34,-36,-36,-34,-29,-23,-16,-5,3,13,23,34,45,54,59,61,63,65,66,64,59,53,49,44,39,36,35,36,37,39,41,45,44,38,19,-11,-57,-116,-180,-238,-273,-276,-255,-193,-114,-42,7,31,40,48,60,74,83,90,92,88,79,63,49,43,38,38,43,48,52,42,28,16,3,-1,-4,-5,-6,-7,-8,-10,-11,-11,-12,-13,-14,-16,-17,-18,-19,-20,-21,-23,-25,-27,-29,-31,-35,-40,-46,-51,-55,-60,-64,-68,-71,-75,-79,-82,-85,-88,-92,-96,-101,-106,-112,-118,-123,-129,-134,-136,-137,-138,-138,-139,-139,-140,-140,-139,-137,-134,-129,-119,-102,-84,-63,-43,-28,-15,-2,9,20,27,32,35,39,42,45,48,49,50,52,54,55,56,57,58,59,60,60,60,59,57,55,54,53,52,50,49,48,47,47,47,47,46,45,44,43,42,40,39,38,36,36,36,36,36,36,35,35,35,35,34,33,32,31,30,30,30,30,30,30,31,31,32,32,32,32,33,33,32,32,32,32,32,32,33,33,33,33,33,33,32,32,31,30,30,29,28,27,26,25,23,22,20,18,15,13,9,2,-5,-10,-15,-19,-21,-24,-26,-27,-29,-30,-31,-31,-31,-31,-29,-27,-24,-20,-16,-11,-6,-2,4,11,17,20,22,24,25,26,27,28,29,30,31,31,31,30,28,25,22,18,13,6,-4,-14,-23,-39,-60,-93,-140,-200,-265,-309,-324,-302,-237,-134,-34,24,42,52,58,62,65,73,81,68,44,25,20,17,15,14,14,15,15,14,13,12,10,8,6,4,2,0,-3,-6,-9,-11,-13,-15,-16,-17,-18,-20,-22,-25,-27,-30,-31,-33,-34,-34,-35,-36,-36,-37,-38,-41,-46,-54,-63,-73,-81,-89,-97,-104,-111,-117,-120,-122,-124,-127,-130,-133,-135,-137,-138,-139,-139,-139,-139,-137,-135,-133,-131,-129,-126,-124,-120,-111,-92,-74,-55,-37,-17,-2,7,16,24,33,43,48,51,53,56,57,58,57,55,52,49,47,43,40,43,49,53,57,61,63,65,66,67,69,74,73,65,61,59,57,56,55,55,54,52,50,49,47,47,46,46,46,46,46,46,46,46,45,41,39,42,48,51,53,55,57,58,58,56,52,48,45,42,40,38,36,34,32,31,30,30,30,30,30,31,33,34,35,36,37,37,39,40,42,43,43,40,36,31,26,21,17,12,8,4,1,-1,-3,-5,-7,-9,-11,-13,-15,-16,-16,-14,-12,-9,-6,-3,0,5,10,15,19,24,27,31,34,37,39,40,41,42,43,43,43,42,41,40,39,37,36,35,33,31,29,26,23,19,14,6,-24,-71,-133,-206,-281,-338,-346,-330,-253,-155,-65,0,36,59,79,92,92,82,68,48,36,29,25,21,18,15,13,12,10,9,8,7,6,4,3,1,0,-2,-4,-6,-8,-10,-13,-15,-18,-21,-24,-26,-29,-31,-34,-36,-39,-41,-44,-47,-51,-54,-58,-61,-63,-66,-68,-71,-74,-77,-80,-84,-88,-92,-97,-102,-107,-113,-119,-125,-132,-137,-141,-144,-148,-151,-153,-154,-155,-154,-153,-151,-148,-144,-139,-128,-110,-95,-79,-64,-48,-31,-13,0,6,11,16,21,26,32,38,44,50,56,62,64,65,64,65,65,65,66,66,66,66,66,66,66,66,65,64,64,63,63,62,62,61,60,60,59,59,59,58,57,56,55,55,54,53,52,50,48,47,45,44,43,42,41,41,41,41,41,40,39,38,36,35,33,32,31,30,30,30,30,30,31,31,32,32,31,31,31,30,29,28,27,27,26,26,25,25,24,23,22,20,19,17,14,11,8,2,-3,-7,-10,-14,-17,-21,-25,-26,-25,-22,-19,-17,-16,-14,-12,-10,-9,-7,-5,-2,0,3,6,8,11,15,20,24,26,27,28,29,31,34,36,38,39,37,34,30,26,23,19,14,9,6,3,0,-18,-62,-129,-214,-300,-363,-371,-348,-260,-142,-24,57,76,72,57,48,47,53,60,66,64,49,38,31,24,20,18,17,16,15,14,12,11,10,10,9,8,7,4,1,-1,-4,-7,-10,-13,-15,-18,-21,-24,-27,-29,-32,-34,-36,-38,-41,-44,-47,-50,-54,-57,-62,-67,-71,-75,-79,-84,-88,-93,-97,-101,-105,-109,-113,-118,-123,-127,-130,-133,-135,-138,-140,-143,-145,-145,-145,-145,-144,-144,-142,-140,-136,-130,-115,-96,-77,-55,-36,-23,-12,0,12,24,34,41,45,48,51,53,55,57,58,58,58,59,60,61,61,61,62,62,62,63,63,63,62,61,61,60,60,60,58,57,56,56,56,56,55,54,53,52,51,50,50,49,47,46,45,44,43,43,42,42,41,41,40,40,40,39,38,38,38,38,38,38,37,37,37,37,37,38,39,40,40,40,41,41,41,41,41,40,40,40,39,39,39,38,37,36,35,34,33,30,26,22,18,14,8,0,-11,-13,-14,-15,-15,-15,-15,-15,-15,-16,-15,-14,-13,-10,-8,-5,-2,2,10,17,22,25,26,28,30,33,36,40,43,46,50,54,57,57,54,49,44,41,37,34,30,25,22,19,13,-6,-44,-94,-156,-227,-292,-320,-314,-258,-163,-66,0,16,19,23,29,38,68,94,102,94,68,32,20,15,11,12,17,20,23,25,25,23,19,14,11,8,4,1,-1,-4,-6,-8,-10,-11,-13,-14,-15,-17,-19,-22,-24,-27,-30,-32,-35,-38,-42,-46,-49,-52,-54,-57,-60,-64,-68,-73,-77,-81,-87,-94,-104,-109,-112,-114,-117,-119,-120,-122,-123,-124,-124,-125,-126,-127,-128,-130,-133,-135,-132,-125,-118,-111,-103,-96,-84,-67,-48,-31,-18,-8,-1,7,18,30,45,54,58,62,64,66,68,69,71,72,73,73,74,74,75,75,75,76,76,76,75,75,75,75,76,76,75,75,74,73,72,72,71,71,70,70,69,69,68,65,65,71,74,76,78,79,80,80,79,77,75,73,71,69,68,66,64,63,62,61,60,60,60,60,61,61,62,63,64,66,65,58,54,51,47,45,43,43,45,47,50,53,58,65,69,66,60,55,49,42,33,24,14,6,2,-1,-4,-6,-6,-6,-5,-3,0,3,8,16,22,29,36,43,46,48,50,51,53,55,56,57,58,58,58,58,58,58,57,56,55,55,54,53,53,51,50,47,42,33,4,-38,-93,-157,-222,-276,-289,-280,-223,-140,-60,-3,24,37,54,76,101,110,116,113,97,80,59,39,22,10,6,4,2,0,-3,-8,-15,-28,-47,-59,-66,-74,-80,-85,-88,-91,-94,-96,-98,-100,-101,-104,-107,-109,-108,-108,-107,-107,-106,-106,-107,-109,-112,-116,-122,-135,-147,-154,-159,-164,-167,-168,-170,-171,-172,-174,-175,-177,-178,-179,-180,-181,-182,-183,-183,-185,-186,-188,-190,-190,-190,-188,-186,-182,-175,-161,-148,-135,-123,-114,-103,-89,-71,-51,-34,-22,-12,0,7,11,14,17,19,21,23,24,25,26,28,29,30,31,32,32,33,35,36,38,38,39,39,40,40,40,40,40,40,40,41,41,42,43,43,44,44,45,45,45,45,44,44,43,43,44,44,45,45,45,45,45,45,45,44,44,43,43,43,43,43,42,42,42,42,43,43,43,43,44,44,44,44,45,45,44,44,44,43,43,42,41,40,39,38,37,35,34,32,31,29,28,25,22,18,14,10,8,6,4,3,1,0,-1,-4,-7,-10,-12,-12,-10,-7,-3,1,9,22,29,34,39,43,46,48,50,51,51,52,53,55,56,58,60,61,60,58,54,51,48,45,41,38,34,32,29,24,6,-34,-92,-164,-239,-301,-319,-310,-251,-159,-66,2,33,43,54,65,86,100,104,107,91,76,66,59,52,48,44,39,33,27,22,18,15,14,14,13,13,12,11,11,10,9,7,6,5,4,3,1,0,-2,-4,-6,-10,-15,-22,-28,-33,-38,-43,-48,-53,-58,-62,-66,-69,-74,-80,-85,-89,-92,-95,-97,-98,-100,-102,-103,-106,-108,-110,-112,-114,-116,-119,-122,-126,-129,-130,-129,-126,-122,-117,-109,-97,-89,-79,-63,-45,-25,-7,5,17,27,35,41,48,51,54,56,58,60,62,63,65,67,68,69,70,70,71,73,75,78,82,83,80,74,68,65,62,59,55,53,51,50,49,48,48,48,49,49,50,51,52,53,56,58,54,47,43,40,38,36,34,33,32,32,31,31,32,33,35,36,38,39,40,42,44,47,49,49,48,45,42,39,37,34,31,28,26,25,25,26,27,27,28,28,30,31,32,33,33,33,34,34,34,34,34,33,32,31,30,29,28,25,23,21,18,16,13,7,0,-6,-12,-16,-19,-22,-25,-27,-29,-30,-29,-28,-26,-24,-21,-17,-13,-8,1,10,20,24,26,29,31,33,35,36,37,38,39,40,41,41,41,40,39,38,37,36,34,32,29,26,22,18,-5,-43,-97,-162,-234,-298,-334,-335,-301,-223,-132,-55,-10,6,16,38,70,96,105,96,82,62,48,39,33,28,23,19,16,13,11,9,6,3,0,-2,-5,-7,-9,-10,-12,-14,-17,-19,-21,-22,-24,-26,-28,-29,-31,-33,-34,-37,-40,-43,-46,-49,-52,-55,-59,-62,-66,-70,-73,-76,-80,-84,-87,-89,-91,-93,-96,-99,-104,-110,-117,-123,-128,-131,-135,-138,-140,-142,-143,-143,-142,-141,-139,-137,-134,-130,-123,-105,-89,-77,-63,-48,-34,-22,-11,0,11,21,32,43,48,50,52,54,55,57,58,59,61,62,62,63,63,63,63,63,63,63,62,62,62,62,62,62,61,60,60,60,60,59,58,57,56,56,56,55,55,54,53,53,53,54,55,55,55,55,55,55,55,54,54,54,53,53,53,53,53,53,54,54,54,54,54,54,53,53,53,52,52,51,51,51,50,50,49,49,50,50,51,51,51,49,49,48,49,51,54,57,58,61,64,66,66,64,59,53,42,23,15,12,9,8,6,5,4,3,2,0,0,-1,-3,-4,-5,-6,-7,-9,-10,-13,-16,-18,-19,-18,-14,-10,-6,-1,5,12,17,22,31,44,51,55,58,60,59,55,49,41,30,23,19,17,14,12,9,6,3,0,-6,-32,-87,-160,-238,-306,-336,-333,-287,-203,-110,-34,8,25,38,48,58,62,58,49,41,31,26,29,35,41,49,49,40,27,7,-11,-23,-25,-27,-29,-28,-22,-19,-16,-13,-11,-10,-10,-12,-15,-19,-24,-27,-32,-36,-41,-45,-50,-54,-58,-61,-63,-66,-69,-71,-74,-76,-78,-81,-84,-87,-91,-94,-98,-102,-108,-113,-118,-123,-128,-133,-139,-145,-149,-151,-152,-153,-154,-156,-158,-160,-160,-158,-154,-149,-143,-133,-122,-108,-90,-73,-58,-44,-30,-15,0,11,16,20,23,27,30,32,33,35,36,37,39,40,41,43,44,45,46,46,47,46,46,46,46,45,45,45,46,47,49,50,50,50,49,48,47,45,44,43,41,39,38,37,37,37,36,36,37,37,37,38,38,37,37,36,35,35,35,34,34,34,34,34,35,35,35,35,35,35,35,35,34,34,34,33,33,33,32,32,32,32,32,31,31,30,30,30,29,29,28,27,26,25,24,23,21,18,13,8,3,-2,-6,-10,-13,-16,-19,-21,-23,-24,-26,-28,-30,-33,-34,-33,-30,-25,-20,-14,-6,1,8,17,27,31,33,35,37,39,40,40,39,38,38,37,36,35,34,33,32,30,29,28,26,24,20,15,-4,-42,-93,-157,-228,-292,-321,-318,-269,-178,-83,-5,34,47,56,63,70,77,80,75,64,55,46,38,31,25,19,10,6,3,1,0,0,0,0,0,-1,-1,-2,-3,-3,-4,-4,-5,-6,-8,-10,-13,-15,-19,-23,-27,-33,-38,-41,-43,-45,-47,-49,-51,-53,-54,-56,-58,-60,-62,-63,-65,-68,-73,-85,-97,-103,-106,-109,-112,-115,-117,-119,-120,-120,-120,-120,-119,-118,-116,-114,-111,-109,-104,-94,-85,-76,-67,-57,-46,-35,-25,-15,-6,7,19,29,38,47,53,58,62,65,67,68,68,68,68,68,67,67,68,69,69,70,70,70,70,70,71,72,71,71,70,71,72,73,73,71,67,62,59,57,55,52,50,47,45,44,43,43,43,43,43,45,47,49,50,52,56,49,42,39,36,32,29,27,25,23,19,15,15,20,26,34,42,45,46,47,49,51,47,39,36,33,32,31,30,28,26,24,22,21,19,17,16,15,14,13,11,9,6,2,-2,-6,-10,-13,-16,-21,-27,-36,-40,-42,-45,-47,-47,-42,-34,-24,-12,1,8,12,16,20,23,24,24,24,24,25,25,25,25,24,24,24,26,29,32,34,38,40,39,33,25,14,0,-8,-30,-65,-119,-189,-264,-319,-337,-319,-268,-178,-84,-8,34,50,59,66,73,76,72,61,44,22,14,12,10,8,7,6,5,4,3,2,2,1,1,0,0,0,0,0,-1,-3,-5,-7,-9,-11,-13,-16,-22,-28,-33,-37,-40,-43,-45,-47,-49,-51,-54,-56,-58,-60,-63,-66,-72,-84,-95,-101,-105,-108,-111,-115,-118,-122,-126,-129,-131,-134,-137,-139,-142,-144,-145,-147,-148,-148,-148,-147,-145,-143,-140,-136,-131,-121,-100,-81,-61,-42,-28,-14,0,13,26,32,36,39,42,44,47,48,50,51,51,52,52,52,52,52,53,53,54,55,56,56,56,57,57,57,57,56,55,54,53,53,53,53,53,53,53,53,52,52,51,51,49,48,47,46,45,44,43,43,42,42,42,43,43,43,43,42,42,42,42,42,41,40,40,39,39,38,38,37,37,36,36,36,35,35,34,34,34,34,33,32,32,31,30,30,29,29,28,26,25,24,22,20,18,13,7,2,-2,-6,-9,-13,-16,-19,-21,-22,-23,-24,-24,-24,-24,-22,-20,-17,-15,-14,-12,-9,-5,2,10,16,19,21,24,27,29,31,32,33,33,33,34,34,34,33,33,33,34,35,36,37,36,35,32,27,9,-24,-77,-148,-230,-311,-365,-370,-342,-253,-142,-41,25,52,61,66,69,70,70,69,67,63,58,52,40,26,19,16,13,10,8,7,6,5,4,3,1,0,0,-1,-1,-1,-2,-3,-5,-7,-15,-30,-38,-42,-45,-47,-47,-46,-43,-39,-36,-30,-27,-34,-46,-53,-58,-63,-68,-72,-76,-79,-82,-85,-89,-94,-105,-121,-129,-133,-137,-141,-144,-146,-148,-148,-149,-148,-148,-147,-146,-143,-140,-137,-133,-123,-105,-88,-73,-60,-48,-36,-22,-9,0,8,14,19,25,33,42,52,57,59,60,61,61,62,63,63,64,64,64,64,64,65,65,65,66,65,65,65,66,66,67,67,68,68,68,69,70,71,71,69,66,64,63,62,61,60,58,57,56,56,56,55,55,54,54,55,55,55,55,55,54,54,54,54,53,53,52,51,51,51,52,52,52,52,52,51,50,49,49,48,48,47,47,46,45,45,44,42,41,39,37,35,34,32,31,29,26,23,16,5,2,1,0,-2,-4,-5,-5,-5,-5,-5,-5,-5,-5,-3,-2,-1,0,0,2,4,7,11,20,29,33,35,38,40,41,42,43,44,45,46,46,46,46,45,45,45,44,43,42,40,38,36,25,-6,-54,-120,-199,-278,-340,-364,-337,-263,-162,-68,1,32,42,50,58,72,84,89,93,82,64,46,35,27,24,25,29,33,38,37,28,19,9,1,-2,-6,-8,-9,-6,-3,-2,0,2,3,3,1,-1,-7,-18,-34,-42,-48,-51,-52,-48,-44,-41,-37,-34,-33,-34,-38,-44,-55,-74,-88,-95,-101,-106,-110,-115,-122,-127,-132,-135,-137,-138,-139,-140,-141,-142,-143,-144,-145,-146,-147,-149,-152,-152,-143,-131,-114,-95,-80,-68,-56,-43,-28,-10,6,16,23,30,37,39,40,41,43,44,46,47,48,48,49,49,50,51,51,51,51,51,51,51,52,52,53,53,53,53,53,53,53,52,52,51,51,50,50,49,48,47,46,45,45,44,44,43,42,41,41,41,40,39,39,38,38,38,38,38,38,38,39,41,40,36,34,32,31,30,29,29,28,28,27,27,28,28,29,29,30,30,30,31,32,32,33,34,36,35,26,20,15,11,7,4,1,0,-3,-6,-12,-16,-19,-21,-23,-24,-25,-25,-26,-25,-23,-20,-16,-12,-8,-3,1,6,10,15,21,29,30,30,31,32,32,33,32,31,31,30,30,29,28,27,26,26,26,27,28,29,31,29,9,-21,-65,-124,-195,-265,-314,-319,-301,-233,-150,-74,-18,16,40,63,85,93,92,84,72,54,42,37,33,29,26,23,21,18,15,13,10,7,5,2,0,-1,-3,-6,-7,-9,-11,-12,-14,-16,-18,-20,-22,-25,-27,-30,-33,-36,-39,-41,-44,-47,-50,-53,-56,-60,-63,-67,-71,-75,-79,-83,-87,-92,-101,-111,-118,-124,-129,-132,-136,-139,-141,-143,-145,-146,-148,-148,-148,-147,-146,-144,-141,-138,-133,-123,-112,-98,-80,-64,-53,-43,-32,-15,-4,1,6,12,18,25,35,48,53,55,56,57,59,59,60,60,60,60,61,62,62,62,61,60,60,59,58,57,56,55,55,55,55,54,54,53,53,53,53,52,52,52,51,50,50,49,49,49,48,47,46,45,44,43,43,42,42,41,39,38,36,32,28,28,29,31,32,33,35,36,37,37,37,37,36,35,34,33,32,31,30,29,28,27,25,24,24,23,22,20,18,15,13,9,5,0,-3,-8,-12,-16,-19,-22,-26,-29,-31,-31,-30,-28,-25,-21,-16,-9,2,11,15,18,21,24,26,28,29,29,29,29,29,28,28,27,28,29,30,30,29,28,27,26,25,25,23,21,18,14,7,-16,-66,-134,-212,-287,-330,-329,-287,-192,-84,5,42,53,59,63,65,68,73,79,70,54,34,25,21,17,15,14,13,11,9,8,6,4,3,2,2,1,0,0,0,-2,-3,-5,-6,-8,-10,-11,-13,-14,-16,-18,-20,-22,-24,-27,-30,-34,-38,-42,-45,-48,-52,-56,-61,-65,-70,-75,-79,-84,-88,-93,-97,-101,-106,-110,-113,-117,-121,-124,-126,-128,-129,-130,-132,-135,-137,-136,-132,-126,-121,-116,-110,-103,-96,-81,-62,-43,-27,-12,2,17,35,46,51,56,59,61,63,63,62,62,62,61,61,60,59,58,58,57,57,56,55,54,53,53,52,51,50,49,48,47,46,46,45,45,45,45,45,46,45,45,44,42,41,40,39,38,37,36,36,37,38,39,39,39,39,39,39,39,38,37,37,37,37,37,38,39,39,39,39,39,40,40,39,39,38,38,38,39,39,39,39,38,38,37,37,36,34,33,32,31,29,28,26,24,21,18,15,13,12,10,8,6,5,3,2,0,-1,-1,-1,-1,0,0,1,2
