-557,-664,-775,-888,-984,-1013,-1022,-1022,-1010,-1002,-998,-994,-991,-988,-985,-981,-975,-970,-967,-964,-960,-956,-953,-948,-943,-937,-933,-929,-923,-916,-907,-893,-880,-866,-860,-856,-854,-853,-852,-852,-850,-848,-845,-843,-840,-839,-837,-835,-830,-825,-819,-784,-709,-602,-471,-327,-186,-69,-13,4,-17,-84,-190,-313,-442,-565,-667,-741,-762,-769,-773,-776,-778,-778,-779,-777,-775,-771,-768,-763,-757,-752,-746,-740,-734,-727,-718,-704,-683,-669,-655,-641,-632,-628,-625,-623,-621,-619,-617,-614,-610,-606,-602,-597,-592,-585,-576,-567,-559,-552,-545,-538,-532,-527,-521,-515,-510,-504,-497,-490,-481,-473,-465,-458,-450,-439,-423,-404,-389,-379,-369,-360,-351,-344,-338,-332,-327,-321,-314,-306,-300,-296,-293,-290,-288,-287,-285,-284,-283,-282,-281,-280,-278,-276,-274,-273,-272,-270,-269,-268,-266,-264,-261,-256,-247,-237,-228,-218,-210,-202,-195,-188,-182,-177,-174,-171,-168,-164,-157,-145,-127,-104,-73,-15,72,194,333,462,563,610,625,604,544,445,321,184,47,-76,-168,-217,-232,-241,-246,-249,-251,-253,-255,-257,-259,-261,-262,-262,-259,-253,-246,-239,-235,-230,-225,-220,-216,-212,-210,-207,-205,-203,-201,-199,-197,-195,-192,-188,-182,-174,-165,-156,-149,-143,-137,-130,-123,-116,-108,-101,-93,-86,-81,-76,-73,-71,-69,-68,-67,-66,-64,-63,-62,-61,-61,-62,-62,-62,-61,-60,-59,-58,-56,-54,-51,-49,-46,-43,-40,-36,-31,-25,-19,-14,-8,-3,1,4,6,7,8,10,11,12,12,12,12,12,12,12,13,14,15,16,17,18,20,23,27,32,39,56,91,144,216,313,427,541,638,695,713,696,645,545,420,281,139,7,-96,-169,-197,-208,-207,-194,-188,-186,-184,-182,-181,-180,-179,-177,-175,-172,-170,-168,-168,-167,-165,-163,-161,-158,-155,-151,-144,-135,-126,-119,-112,-104,-94,-84,-72,-59,-47,-39,-33,-27,-22,-18,-14,-10,-8,-5,-3,0,4,11,26,40,51,59,66,77,87,96,103,109,114,118,121,124,127,129,130,131,132,134,135,137,139,142,145,149,152,155,158,162,165,168,170,172,174,176,179,181,184,186,188,191,193,196,198,200,202,204,206,208,211,214,218,224,229,233,233,230,224,218,213,209,206,202,198,194,190,187,183,180,177,175,173,171,171,170,169,169,168,167,165,163,161,159,158,158,158,160,163,167,172,176,180,183,185,186,186,187,187,188,188,189,190,191,193,194,195,197,198,199,199,200,200,200,200,201,202,203,203,204,205,207,208,209,210,210,209,209,208,208,208,207,206,205,204,204,205,205,205,206,206,206,206,205,203,201,199,196,193,191,188,184,181,179,174,162,154,158,171,205,274,375,509,671,848,1020,1153,1214,1168,1010,767,491,235,48,-14,-35,-12,18,41,25,-1,-32,-47,-54,-60,-64,-67,-70,-73,-76,-78,-80,-81,-81,-80,-80,-81,-82,-84,-86,-87,-87,-87,-85,-82,-78,-73,-67,-62,-57,-51,-45,-39,-33,-28,-23,-19,-16,-14,-11,-9,-8,-6,-4,0,4,10,15,19,24,28,32,36,39,43,46,49,53,56,59,62,65,67,68,69,68,67,67,68,69,69,70,70,70,71,71,71,71,70,69,69,69,68,68,68,69,70,71,72,72,72,72,73,73,74,74,74,74,75,76,78,79,81,82,83,85,86,86,85,84,83,82,81,80,77,75,73,71,69,67,64,59,45,32,20,14,10,6,1,-1,-4,-6,-8,-9,-10,-11,-12,-12,-13,-14,-15,-15,-15,-14,-13,-11,-10,-8,-5,-1,3,9,14,46,111,205,335,499,689,885,1049,1128,1122,1009,774,495,231,41,-16,-28,-36,-43,-47,-52,-56,-59,-62,-65,-69,-71,-72,-71,-72,-73,-75,-77,-78,-80,-81,-83,-85,-87,-89,-91,-92,-93,-93,-92,-90,-88,-85,-81,-77,-74,-70,-66,-62,-58,-52,-44,-38,-33,-30,-28,-26,-25,-24,-24,-23,-23,-23,-23,-23,-22,-21,-20,-19,-17,-16,-14,-11,-8,-4,0,6,17,40,63,76,86,93,99,102,103,101,98,93,88,83,76,70,65,61,57,53,49,47,48,49,51,52,54,55,55,55,56,56,57,58,58,58,57,57,58,58,59,59,58,58,58,59,61,62,63,64,66,68,73,80,86,94,122,167,237,341,476,631,785,909,964,958,870,679,431,181,-16,-119,-136,-117,-64,-37,-27,-28,-34,-38,-40,-42,-43,-44,-43,-43,-44,-44,-44,-44,-43,-41,-39,-37,-36,-35,-35,-34,-33,-31,-29,-27,-24,-22,-19,-16,-13,-10,-7,-4,0,3,7,11,15,18,21,24,27,30,34,38,43,48,55,60,62,64,66,68,71,72,74,76,77,79,80,81,81,80,79,78,77,76,75,74,73,73,73,73,73,73,73,73,72,71,70,69,67,65,63,61,59,56,54,52,50,48,43,39,35,33,34,35,38,39,40,41,43,45,46,48,49,51,54,56,58,60,62,64,67,73,80,86,93,100,103,101,94,83,68,56,48,49,66,114,207,338,500,675,840,962,1010,959,800,562,301,69,-80,-142,-151,-131,-106,-98,-109,-127,-146,-154,-158,-161,-164,-165,-166,-166,-166,-165,-163,-161,-159,-157,-155,-153,-151,-149,-147,-146,-144,-142,-141,-140,-139,-138,-137,-135,-132,-127,-112,-98,-89,-83,-78,-71,-64,-59,-56,-53,-54,-66,-79,-92,-98,-106,-119,-129,-136,-139,-135,-126,-115,-102,-93,-84,-77,-74,-73,-73,-72,-71,-70,-69,-69,-70,-70,-70,-70,-70,-71,-73,-74,-76,-79,-80,-80,-79,-77,-76,-75,-73,-72,-70,-67,-64,-61,-57,-52,-46,-40,-33,-25,-21,-18,-16,-14,-13,-12,-14,-17,-21,-25,-31,-39,-45,-50,-56,-63,-67,-70,-74,-73,-67,-51,-29,9,72,160,274,413,567,732,886,1000,1036,964,786,539,273,45,-100,-143,-158,-146,-136,-129,-124,-121,-118,-116,-114,-112,-111,-109,-107,-105,-104,-103,-101,-97,-85,-64,-41,-28,-15,-3,4,9,11,8,0,-12,-28,-34,-38,-40,-42,-44,-45,-45,-46,-46,-45,-43,-41,-39,-37,-34,-28,-22,-17,-11,-5,0,7,19,33,43,51,61,71,80,86,91,95,98,100,101,103,106,105,97,92,87,83,81,80,81,83,86,88,89,91,93,94,96,96,95,93,92,90,89,87,82,77,70,65,61,58,55,55,55,58,62,69,80,97,122,157,207,279,375,496,636,783,920,1017,1044,981,820,587,328,101,-56,-121,-143,-134,-123,-114,-113,-119,-127,-141,-149,-153,-156,-157,-159,-161,-163,-164,-165,-165,-166,-167,-168,-169,-170,-168,-163,-158,-156,-154,-153,-151,-150,-148,-146,-144,-142,-140,-138,-136,-135,-133,-131,-129,-127,-121,-116,-114,-113,-113,-112,-112,-112,-112,-111,-111,-111,-110,-108,-105,-102,-98,-90,-83,-79,-76,-74,-72,-70,-70,-69,-69,-70,-71,-73,-75,-78,-80,-82,-84,-86,-88,-89,-89,-87,-84,-80,-76,-73,-68,-64,-60,-59,-59,-62,-65,-70,-79,-90,-93,-96,-98,-98,-96,-91,-84,-71,-57,-43,-19,9,51,113,197,304,431,573,710,812,837,757,568,305,38,-173,-294,-327,-304,-256,-232,-225,-238,-247,-252,-257,-260,-262,-262,-262,-260,-257,-251,-242,-228,-216,-202,-192,-187,-183,-180,-178,-176,-174,-173,-171,-169,-166,-163,-158,-152,-143,-135,-124,-110,-98,-90,-81,-76,-74,-72,-70,-68,-67,-65,-64,-63,-62,-61,-59,-57,-50,-36,-28,-23,-20,-17,-13,-10,-7,-3,0,4,7,11,14,18,23,27,30,32,34,37,41,47,53,58,65,70,71,72,72,73,75,66,59,55,51,48,47,47,49,52,56,61,70,75,78,81,82,84,85,85,83,81,77,72,65,52,44,40,36,33,30,27,24,22,19,14,10,7,6,4,2,0,0,0,2,6,12,18,30,46,51,53,55,56,58,60,63,65,67,68,69,70,71,73,76,81,86,89,90,91,91,91,90,89,90,91,92,93,93,93,92,91,90,90,89,89,89,89,89,88,87,87,87,87,87,88,90,92,94,96,101,116,126,132,135,135,133,129,125,119,119,127,151,205,289,406,556,728,903,1052,1132,1133,1046,836,567,300,97,3,-11,3,43,66,64,46,32,24,20,17,12,9,7,5,3,2,2,1,0,-1,-1,0,0,3,5,9,12,15,21,32,36,39,41,42,43,42,39,35,28,18,11,6,3,3,6,10,15,20,25,31,36,44,52,58,63,66,69,74,80,90,103,109,113,116,120,126,132,135,139,142,145,148,150,151,151,152,151,150,149,146,144,142,139,136,130,125,121,117,115,113,112,111,109,108,106,105,104,104,104,104,104,103,103,103,104,109,144,200,282,398,546,721,896,1032,1089,1043,888,649,382,151,-5,-55,-73,-71,-65,-67,-89,-114,-129,-133,-134,-137,-141,-145,-149,-154,-161,-165,-166,-168,-172,-174,-170,-163,-159,-157,-154,-152,-149,-147,-145,-143,-141,-139,-138,-137,-136,-135,-132,-130,-127,-124,-121,-118,-115,-113,-111,-108,-106,-103,-100,-97,-94,-91,-86,-80,-73,-67,-57,-43,-31,-22,-14,-6,1,10,20,29,38,46,54,64,78,92,97,100,102,104,105,106,106,106,105,104,103,102,101,100,99,99,98,97,96,95,98,105,110,117,123,128,134,142,148,167,192,229,281,351,447,574,722,877,1016,1091,1090,1006,800,532,277,94,0,-16,-16,7,26,34,41,52,63,68,70,72,72,70,68,65,62,59,56,55,56,61,68,80,91,104,115,124,133,142,151,159,169,181,187,188,189,190,191,193,195,197,199,201,203,205,206,212,226,232,235,238,241,244,247,250,252,255,257,259,261,267,272,275,279,282,286,288,285,277,265,252,247,244,242,241,241,240,238,236,234,232,230,228,223,215,207,198,190,180,169,159,150,144,139,135,132,130,129,128,127,126,125,123,121,119,117,115,112,107,101,92,85,80,75,70,66,63,59,55,47,39,31,23,13,3,-6,-15,-22,-29,-30,-22,0,41,107,204,331,476,630,776,886,925,868,713,476,221,15,-112,-160,-164,-149,-142,-149,-160,-172,-187,-204,-213,-217,-221,-224,-226,-228,-229,-231,-232,-233,-234,-235,-235,-236,-238,-240,-241,-242,-243,-244,-244,-244,-243,-242,-241,-240,-238,-235,-232,-227,-218,-210,-205,-201,-198,-196,-196,-199,-203,-207,-210,-215,-220,-223,-224,-225,-226,-228,-227,-220,-214,-208,-205,-203,-201,-200,-199,-198,-197,-196,-196,-197,-198,-200,-202,-204,-207,-210,-215,-222,-230,-237,-243,-248,-253,-255,-258,-260,-262,-264,-265,-264,-260,-256,-252,-248,-243,-240,-236,-233,-231,-229,-227,-225,-224,-222,-220,-218,-216,-215,-213,-210,-204,-198,-191,-169,-137,-88,-17,81,215,378,550,698,774,749,612,388,122,-122,-300,-392,-406,-408,-404,-401,-400,-400,-403,-407,-413,-420,-428,-438,-446,-449,-450,-450,-451,-452,-453,-451,-448,-445,-442,-439,-435,-430,-425,-421,-415,-406,-398,-392,-387,-382,-376,-371,-367,-363,-359,-355,-352,-349,-345,-339,-333,-328,-323,-317,-310,-302,-294,-285,-279,-274,-268,-262,-254,-248,-244,-239,-234,-229,-222,-215,-205,-198,-192,-186,-179,-168,-162,-157,-153,-149,-144,-141,-137,-134,-130,-127,-124,-122,-119,-116,-111,-105,-98,-93,-89,-85,-82,-81,-80,-79,-77,-73,-79,-86,-91,-94,-93,-92,-91,-89,-87,-86,-85,-85,-86,-88,-91,-94,-96,-99,-103,-107,-109,-112,-114,-116,-120,-122,-119,-113,-108,-103,-98,-92,-86,-80,-75,-71,-71,-74,-76,-78,-80,-83,-84,-85,-84,-81,-77,-72,-62,-51,-47,-43,-42,-47,-51,-54,-56,-57,-58,-57,-54,-50,-45,-40,-31,-23,-16,-10,-5,-1,2,5,7,9,11,12,14,16,18,21,24,27,32,42,50,57,65,74,82,89,95,100,105,109,114,118,122,126,131,136,142,148,152,155,157,160,162,164,166,169,171,173,174,176,178,179,182,184,188,192,196,202,207,212,215,218,220,222,223,223,222,221,220,219,219,218,217,216,215,214,214,214,214,215,215,215,215,217,221,231,257,307,383,485,614,758,901,1015,1067,1033,907,711,483,270,118,35,22,23,50,64,67,69,71,73,76,80,82,85,87,88,90,93,96,98,99,100,103,105,106,107,109,111,114,118,122,125,127,129,130,132,134,135,136,137,138,139,139,140,141,142,144,147,151,156,161,166,173,182,192,199,204,208,212,216,220,223,225,228,230,233,236,239,243,246,249,253,256,258,258,257,254,250,246,241,238,232,226,221,216,212,206,197,186,179,176,174,171,169,167,164,161,158,155,153,150,145,141,140,145,154,182,228,293,380,489,617,756,881,948,943,855,661,428,219,69,19,3,-6,-13,-17,-21,-25,-28,-30,-32,-35,-38,-42,-46,-51,-56,-59,-60,-61,-61,-61,-61,-61,-60,-60,-59,-56,-51,-46,-41,-35,-31,-28,-27,-25,-23,-23,-23,-24,-25,-26,-26,-25,-23,-22,-22,-21,-20,-18,-16,-13,-5,10,20,26,32,37,40,43,46,51,56,62,68,74,78,82,86,90,93,94,95,95,95,94,92,89,88,87,86,84,83,81,80,79,78,79,82,85,90,95,99,102,105,108,111,113,113,112,110,107,103,96,86,83,80,79,78,78,78,79,80,82,83,84,85,89,82,79,77,75,74,72,71,69,69,68,68,67,67,68,68,67,65,63,61,60,59,58,58,57,57,57,57,58,60,62,64,65,67,69,70,71,72,73,73,74,74,74,73,72,71,69,67,65,64,63,63,63,62,61,59,57,55,53,53,52,53,54,55,56,57,58,58,59,60,61,62,64,65,67,68,69,70,70,69,67,65,63,61,59,58,56,54,52,49,46,43,39,35,24,9,0,-7,-17,-31,-41,-44,-47,-40,-35,-31,-28,-24,-20,-17,-15,-14,-13,-12,-12,-12,-12,-12,-11,-10,-8,-7,-6,-5,-4,-4,-3,-2,0,0,2,4,6,8,10,12,14,15,16,17,17,18,17,17,17,18,19,20,20,20,21,22,25,39,74,127,202,303,432,585,745,886,961,961,879,685,428,168,-32,-155,-190,-193,-164,-150,-149,-148,-146,-143,-141,-140,-140,-140,-140,-140,-141,-141,-141,-142,-142,-142,-141,-141,-141,-142,-142,-143,-143,-143,-145,-145,-139,-133,-126,-119,-111,-98,-90,-84,-80,-74,-68,-64,-61,-58,-55,-52,-50,-48,-46,-44,-41,-38,-34,-31,-27,-19,-5,6,16,25,36,52,71,87,93,96,100,102,104,106,108,110,112,113,114,115,116,118,119,121,122,124,124,123,122,120,119,116,113,109,104,95,87,78,71,67,65,63,62,61,59,58,56,54,52,50,48,46,44,42,40,38,36,34,32,31,30,29,28,27,28,27,27,27,26,25,25,24,24,23,22,21,19,17,15,12,9,6,2,0,-4,-8,-12,-15,-17,-19,-22,-25,-31,-34,-36,-37,-38,-39,-40,-40,-38,-34,-31,-30,-28,-27,-26,-24,-23,-22,-20,-19,-17,-15,-14,-13,-12,-11,-10,-9,-7,-4,-1,1,2,2,2,1,0,-1,-4,2,25,69,141,247,387,558,743,917,1041,1074,990,790,513,222,-15,-156,-200,-180,-140,-123,-126,-156,-188,-196,-198,-199,-191,-180,-172,-167,-165,-164,-163,-162,-161,-161,-161,-161,-162,-163,-164,-166,-168,-169,-170,-169,-168,-165,-163,-162,-161,-159,-158,-157,-156,-156,-155,-154,-153,-153,-152,-151,-150,-149,-148,-146,-145,-144,-143,-142,-140,-138,-136,-134,-133,-131,-128,-126,-123,-120,-117,-112,-103,-97,-94,-88,-78,-66,-52,-41,-34,-29,-26,-23,-22,-21,-21,-20,-19,-19,-19,-18,-17,-16,-15,-14,-13,-13,-12,-10,-9,-8,-7,-5,-3,-1,0,3,5,7,9,11,13,16,19,27,44,74,124,200,306,443,603,775,932,1043,1065,974,774,508,246,43,-76,-103,-111,-117,-126,-135,-152,-169,-173,-175,-176,-177,-178,-178,-178,-179,-180,-181,-180,-180,-179,-178,-176,-175,-173,-171,-168,-165,-160,-154,-149,-144,-140,-136,-131,-126,-123,-120,-118,-116,-114,-113,-112,-110,-109,-107,-105,-103,-101,-100,-97,-95,-92,-90,-88,-86,-84,-81,-76,-69,-60,-54,-49,-44,-39,-34,-30,-28,-26,-24,-22,-20,-18,-16,-15,-13,-11,-9,-7,-4,-2,1,4,9,12,15,19,24,33,40,45,47,49,51,52,54,55,58,62,76,100,138,194,269,370,498,647,807,948,1016,1009,901,677,408,158,-26,-123,-136,-133,-117,-108,-121,-131,-137,-142,-146,-149,-153,-156,-158,-162,-165,-168,-169,-168,-167,-164,-160,-155,-143,-130,-121,-114,-108,-103,-99,-95,-91,-87,-84,-81,-77,-72,-66,-61,-55,-50,-49,-48,-48,-48,-47,-47,-46,-45,-45,-44,-43,-42,-41,-40,-37,-32,-19,-8,0,7,17,30,42,58,68,73,77,79,80,79,77,73,70,67,64,62,60,58,57,57,58,59,62,65,69,76,82,86,89,92,94,95,95,94,93,92,90,89,87,85,82,77,73,69,66,62,59,58,58,58,58,57,57,55,54,53,52,51,49,46,44,39,37,36,36,35,34,33,34,38,43,46,49,51,54,56,58,60,61,62,63,64,67,69,66,59,53,47,43,39,37,35,31,29,33,40,46,52,57,59,60,62,65,64,57,49,42,41,49,72,117,187,290,428,594,772,942,1070,1111,1042,858,597,317,81,-77,-141,-151,-137,-120,-116,-113,-112,-112,-115,-118,-121,-123,-125,-127,-129,-131,-133,-133,-134,-134,-133,-132,-130,-128,-126,-124,-121,-119,-115,-112,-108,-103,-98,-94,-90,-88,-82,-72,-65,-62,-58,-54,-50,-44,-38,-31,-25,-20,-15,-10,-6,-3,-1,0,1,3,6,9,12,16,21,27,34,41,45,47,48,50,51,52,53,54,54,54,55,54,54,53,53,52,52,53,53,54,55,56,56,57,58,58,58,59,59,60,60,62,64,66,67,69,70,72,73,74,74,75,75,76,77,79,80,82,84,86,88,89,90,92,95,105,131,177,247,349,482,644,817,967,1037,1030,923,704,436,177,-26,-145,-174,-184,-176,-170,-167,-162,-156,-149,-142,-134,-129,-127,-128,-130,-132,-134,-135,-132,-126,-119,-111,-104,-100,-97,-95,-93,-91,-89,-87,-84,-82,-79,-77,-75,-74,-72,-71,-71,-70,-69,-68,-67,-65,-64,-63,-62,-61,-60,-59,-58,-56,-52,-43,-36,-32,-29,-26,-23,-20,-17,-14,-11,-8,-4,0,8,21,37,43,46,49,51,52,54,56,57,59,60,62,65,69,72,73,70,68,66,64,63,62,60,59,58,58,57,58,59,60,62,64,67,70,78,95,121,165,231,325,445,588,740,879,962,961,877,674,417,170,-13,-114,-136,-131,-110,-99,-93,-91,-89,-88,-85,-85,-89,-95,-97,-99,-101,-103,-106,-109,-111,-111,-109,-106,-102,-99,-96,-94,-93,-90,-87,-83,-79,-75,-70,-64,-59,-55,-50,-47,-44,-42,-39,-36,-33,-30,-28,-26,-24,-22,-19,-15,-11,-7,-1,6,15,23,30,37,44,52,61,69,73,76,79,82,82,82,82,82,81,78,75,73,69,66,64,63,61,60,58,57,57,56,55,54,54,53,54,56,58,60,62,63,65,67,69,71,72,74,76,78,80,82,83,84,85,86,86,85,83,81,80,78,76,74,73,71,68,60,53,47,40,34,29,26,25,25,24,24,23,23,22,22,21,21,21,20,19,18,17,16,15,13,11,10,9,10,12,15,18,20,22,24,25,27,28,30,31,33,34,34,34,32,30,28,26,24,22,21,19,16,8,5,2,0,0,1,2,4,6,8,9,9,10,9,9,8,7,5,3,2,0,0,-1,-3,-6,-8,-10,-11,-10,-8,-5,-2,0,3,7,11,14,16,18,21,23,26,28,31,35,54,79,119,178,258,357,474,601,725,829,881,853,727,518,273,49,-114,-193,-207,-190,-154,-144,-142,-141,-139,-137,-134,-131,-128,-128,-133,-136,-137,-138,-139,-140,-141,-142,-142,-142,-140,-138,-135,-132,-129,-125,-118,-113,-109,-106,-102,-96,-89,-83,-78,-74,-72,-71,-71,-71,-71,-70,-70,-69,-69,-69,-69,-69,-69,-68,-66,-63,-59,-54,-45,-33,-23,-14,-7,-2,6,20,31,37,41,45,48,51,56,63,66,69,65,60,56,55,58,59,61,63,65,64,62,57,52,46,34,21,17,14,12,10,9,10,12,14,17,20,25,28,29,25,20,13,4,-5,-15,-25,-30,-37,-42,-39,-27,-7,22,63,121,200,306,442,599,762,909,995,997,924,729,468,204,0,-121,-157,-172,-166,-156,-148,-155,-165,-175,-180,-183,-186,-186,-182,-177,-174,-171,-168,-165,-163,-160,-157,-155,-152,-149,-147,-143,-134,-130,-127,-126,-125,-123,-122,-121,-119,-117,-115,-113,-111,-110,-109,-108,-107,-106,-104,-102,-99,-97,-96,-94,-92,-90,-88,-84,-79,-73,-68,-62,-58,-52,-47,-43,-39,-36,-32,-25,-17,-10,-4,1,11,15,18,19,20,22,23,25,27,28,30,31,32,33,35,37,42,46,46,42,37,33,30,27,25,23,23,25,27,30,33,36,40,44,47,50,51,53,54,55,56,57,57,57,56,53,50,46,43,41,40,38,36,35,33,32,30,29,29,29,30,31,32,34,36,38,39,41,42,43,44,44,45,46,46,47,48,48,48,48,48,48,48,47,47,47,47,46,46,46,46,46,46,46,47,48,50,59,83,127,200,306,444,609,783,945,1059,1090,1011,826,567,297,75,-66,-124,-132,-111,-87,-78,-79,-89,-95,-101,-105,-107,-106,-103,-101,-100,-99,-97,-96,-93,-92,-90,-89,-89,-89,-90,-92,-94,-96,-98,-100,-102,-104,-107,-111,-113,-115,-116,-117,-118,-120,-121,-118,-111,-106,-102,-98,-94,-90,-87,-83,-79,-75,-71,-68,-66,-63,-59,-53,-45,-37,-31,-25,-19,-11,3,18,28,35,40,44,48,52,57,61,65,69,73,75,75,72,69,64,56,43,29,15,8,5,2,0,-2,-4,-4,-5,-5,-5,-5,-4,-3,-1,0,4,16,42,86,157,261,403,577,767,943,1062,1084,986,779,516,261,69,-38,-64,-71,-79,-86,-94,-109,-125,-132,-137,-141,-145,-146,-148,-151,-152,-153,-154,-155,-156,-157,-157,-157,-156,-155,-153,-152,-150,-149,-148,-146,-145,-143,-139,-134,-129,-124,-118,-114,-111,-108,-106,-104,-102,-101,-100,-98,-97,-95,-90,-80,-69,-58,-49,-42,-35,-25,-13,-4,1,7,15,26,41,56,70,80,87,89,90,91,91,92,92,92,90,87,84,81,78,74,71,68,66,65,63,61,59,58,58,59,60,62,63,65,67,70,72,74,76,77,79,81,84,86,87,88,89,90,91,92,92,92,91,91,90,90,89,88,88,88,88,88,89,89,89,89,89,89,88,88,87,85,84,82,79,76,72,68,64,60,57,54,52,51,49,48,48,49,50,52,54,57,59,62,65,68,71,74,77,79,82,85,88,92,97,101,106,109,111,114,116,117,118,117,116,114,111,107,104,101,97,94,92,91,90,91,91,93,97,108,138,191,273,386,525,679,828,948,1006,972,831,597,316,63,-104,-163,-167,-131,-91,-78,-87,-102,-111,-112,-113,-112,-112,-112,-113,-113,-113,-112,-112,-111,-111,-111,-111,-110,-110,-110,-110,-109,-109,-110,-111,-112,-113,-114,-114,-115,-116,-117,-118,-118,-119,-120,-121,-123,-124,-125,-126,-126,-126,-125,-123,-121,-119,-116,-113,-110,-105,-96,-89,-84,-76,-63,-48,-34,-25,-21,-14,-6,1,7,12,16,20,25,29,33,36,38,40,42,43,41,38,33,28,22,14,6,1,-1,-4,-7,-9,-11,-12,-13,-13,-13,-12,-11,-10,-9,-7,-4,2,19,48,96,169,273,410,577,763,935,1038,1040,947,715,438,181,-3,-104,-141,-155,-168,-198,-231,-242,-245,-247,-248,-249,-252,-254,-256,-258,-259,-261,-263,-266,-268,-269,-269,-267,-264,-261,-259,-256,-252,-249,-245,-241,-237,-234,-231,-228,-224,-220,-218,-215,-213,-210,-206,-201,-196,-191,-183,-171,-161,-156,-150,-143,-138,-134,-131,-128,-125,-122,-119,-116,-112,-107,-102,-97,-92,-82,-66,-49,-33,-22,-15,-11,-8,-6,-4,-3,-2,-2,-3,-4,-6,-7,-9,-10,-12,-13,-13,-11,-8,-4,0,4,9,14,18,22,24,27,31,37,38,38,38,38,38,38,39,40,42,46,59,92,143,215,310,430,573,729,875,980,1004,923,739,494,237,28,-96,-132,-135,-108,-94,-90,-97,-108,-123,-132,-136,-140,-142,-144,-145,-145,-144,-143,-142,-141,-140,-138,-137,-137,-136,-136,-134,-132,-131,-130,-130,-129,-128,-127,-123,-116,-106,-96,-87,-77,-70,-65,-62,-59,-57,-55,-53,-52,-50,-47,-45,-41,-36,-26,-12,0,14,29,44,58,70,81,91,96,98,100,100,101,101,101,100,99,99,98,96,94,94,95,97,99,101,103,103,102,99,95,90,82,82,89,95,100,105,112,118,122,124,126,128,129,130,130,131,132,133,133,133,133,134,134,135,139,149,165,186,211,243,291,364,466,596,746,893,1016,1074,1036,886,647,368,122,-34,-78,-81,-42,-12,-9,-29,-58,-70,-73,-75,-76,-76,-76,-76,-74,-71,-68,-66,-64,-61,-58,-55,-53,-51,-48,-45,-42,-39,-35,-32,-31,-28,-24,-19,-15,-12,-10,-7,-4,-2,0,3,6,8,9,9,10,10,11,12,14,16,18,20,22,25,30,43,52,58,65,73,81,89,96,102,108,114,120,123,124,126,128,129,131,132,133,132,132,132,132,134,137,140,143,146,150,153,156,159,163,166,170,172,174,177,180,181,183,187,195,205,230,275,346,443,567,710,863,1003,1080,1077,985,778,520,279,101,3,-30,-42,-50,-59,-64,-67,-69,-72,-76,-80,-85,-89,-95,-103,-105,-107,-109,-110,-107,-100,-94,-88,-83,-78,-75,-73,-70,-68,-66,-63,-60,-57,-53,-48,-42,-38,-33,-24,-10,-2,0,2,4,6,8,9,11,13,14,16,19,25,33,37,40,42,44,46,48,51,54,57,59,61,63,64,65,66,68,71,73,74,75,75,75,75,75,75,74,75,76,78,80,81,82,84,86,88,92,94,97,99,102,105,106,107,107,106,106,107,106,104,102,99,97,96,95,92,91,90,92,97,110,143,197,271,366,485,620,756,872,936,915,800,613,393,184,21,-71,-92,-92,-81,-74,-75,-83,-91,-99,-106,-112,-116,-119,-122,-124,-124,-122,-118,-113,-104,-90,-77,-69,-64,-62,-61,-61,-61,-60,-59,-59,-60,-61,-63,-65,-66,-66,-66,-65,-63,-61,-60,-58,-56,-55,-53,-48,-42,-35,-30,-25,-19,-13,-8,-5,-1,2,7,14,22,32,41,51,63,75,84,88,91,93,93,91,88,86,83,80,80,82,85,88,90,93,96,99,99,97,94,90,86,83,79,76,73,72,72,71,70,67,62,59,61,67,84,110,146,193,261,348,459,590,737,883,1004,1051,1036,921,692,418,167,-13,-85,-113,-112,-106,-107,-125,-151,-160,-158,-150,-141,-131,-128,-126,-123,-121,-119,-117,-116,-116,-118,-120,-122,-125,-127,-130,-133,-135,-139,-143,-145,-146,-145,-144,-142,-137,-131,-123,-117,-112,-108,-104,-100,-98,-94,-86,-72,-63,-56,-49,-41,-30,-17,-9,-4,0,4,8,12,15,17,21,26,30,34,38,43,48,51,53,54,56,58,60,62,63,62,59,54,48,41,31,23,16,10,4,0,-2,-6,-7,-4,0,5,9,12,15,16,17,18,19,20,20,20,21,21,22,23,23,22,20,17,15,12,10,9,8,7,6,3,1,-1,-2,-3,-4,-5,-6,-6,-7,-7,-8,-9,-10,-10,-11,-12,-13,-14,-16,-18,-22,-26,-29,-33,-38,-44,-53,-60,-66,-70,-72,-74,-74,-74,-75,-76,-77,-77,-78,-77,-75,-72,-69,-68,-66,-63,-61,-60,-59,-58,-56,-54,-53,-51,-50,-49,-48,-46,-45,-44,-44,-45,-46,-47,-48,-49,-52,-55,-47,-40,-36,-32,-27,-23,-19,-17,-16,-14,-12,-10,-9,-9,-9,-9,-9,-7,0,38,105,206,343,511,690,857,971,996,905,709,448,179,-39,-172,-208,-209,-169,-139,-129,-138,-153,-169,-175,-177,-180,-182,-184,-187,-189,-190,-191,-191,-191,-191,-190,-188,-187,-184,-182,-181,-179,-177,-175,-172,-167,-162,-158,-154,-150,-144,-136,-127,-121,-117,-113,-111,-109,-108,-107,-106,-104,-101,-98,-93,-77,-54,-29,-14,0,15,31,48,64,78,86,92,96,101,106,112,119,123,126,128,130,131,131,130,126,121,116,110,102,95,92,90,89,88,89,90,90,90,90,90,90,89,88,87,85,83,81,79,77,75,72,69,66,65,64,63,63,64,66,68,69,72,74,77,80,83,85,88,90,93,94,96,98,100,102,104,105,107,108,109,110,111,112,113,114,115,116,117,118,119,120,120,121,121,122,124,126,128,130,133,136,140,144,150,157,160,161,162,163,164,165,165,165,164,162,160,158,155,153,156,166,193,238,309,410,545,711,898,1088,1247,1330,1299,1146,893,594,324,135,56,45,65,92,101,101,97,91,80,74,71,70,68,65,62,59,57,54,50,46,41,36,33,31,29,27,25,23,22,20,20,19,19,20,21,23,25,27,29,30,32,33,34,36,37,38,39,39,40,41,42,43,44,44,45,45,46,47,48,50,54,63,70,81,94,107,121,131,138,144,149,154,159,162,162,158,152,147,141,135,128,119,110,107,106,105,104,104,103,102,101,100,98,96,94,91,89,87,84,81,79,77,75,73,71,69,67,65,62,59,57,55,54,53,51,50,49,47,46,43,40,37,33,28,20,13,6,2,0,-3,-6,-9,-11,-13,-15,-18,-22,-30,-35,-38,-39,-40,-41,-42,-43,-44,-45,-47,-49,-50,-52,-54,-57,-60,-64,-67,-71,-74,-78,-81,-83,-85,-87,-88,-88,-89,-90,-91,-92,-94,-95,-96,-96,-97,-98,-98,-98,-99,-100,-101,-104,-107,-111,-115,-119,-126,-135,-142,-149,-154,-158,-161,-163,-165,-167,-168,-166,-163,-157,-148,-132,-102,-52,24,131,268,427,597,747,826,824,731,519,253,-7,-209,-333,-377,-378,-362,-352,-353,-363,-378,-389,-392,-395,-389,-386,-384,-382,-381,-380,-380,-380,-380,-380,-380,-380,-380,-381,-382,-384,-385,-386,-387,-388,-389,-386,-379,-373,-367,-361,-356,-350,-346,-341,-336,-332,-327,-323,-319,-315,-311,-307,-303,-299,-296,-291,-287,-284,-280,-276,-272,-267,-261,-250,-238,-227,-214,-201,-189,-176,-164,-155,-148,-139,-132,-127,-122,-117,-112,-109,-106,-103,-101,-100,-100,-99,-99,-98,-97,-96,-97,-99,-101,-103,-104,-104,-101,-96,-88,-75,-69,-67,-65,-64,-63,-61,-60,-58,-56,-54,-52,-50,-48,-46,-43,-37,-26,-22,-20,-19,-18,-17,-16,-15,-13,-11,-10,-8,-5,-1,16,49,102,183,293,430,586,740,856,900,847,698,480,244,34,-116,-204,-233,-235,-217,-195,-182,-176,-173,-172,-170,-168,-165,-162,-158,-154,-149,-143,-137,-132,-128,-124,-119,-114,-109,-106,-104,-103,-103,-102,-102,-101,-101,-101,-101,-101,-101,-101,-101,-101,-101,-101,-101,-100,-99,-99,-98,-97,-95,-94,-92,-90,-88,-86,-80,-73,-68,-63,-58,-54,-50,-47,-44,-40,-34,-23,-11,-3,3,12,25,37,45,52,54,56,58,60,62,63,64,64,65,64,64,63,62,61,59,58,57,56,55,55,53,51,50,48,48,49,51,53,56,61,70,78,88,104,135,181,244,333,453,602,768,933,1064,1118,1071,913,668,385,137,-26,-95,-104,-87,-68,-68,-85,-106,-113,-106,-98,-92,-89,-91,-97,-104,-112,-116,-119,-122,-120,-112,-105,-100,-95,-90,-85,-81,-78,-75,-72,-70,-67,-66,-64,-63,-61,-60,-58,-57,-56,-54,-53,-50,-48,-45,-41,-36,-27,-21,-16,-8,3,12,17,21,25,28,31,33,36,39,43,48,54,59,64,69,75,79,84,90,97,102,105,107,108,109,110,111,112,114,115,117,119,121,123,124,126,128,132,134,135,134,131,127,123,120,117,113,110,107,104,102,101,100,100,99,97,96,95,94,94,93,92,91,91,91,91,91,91,91,91,91,90,90,89,89,88,88,89,89,90,92,93,95,96,97,97,99,101,103,104,104,103,101,100,98,97,94,92,94,99,103,107,110,112,113,114,115,118,117,112,106,100,95,89,83,75,66,60,56,52,49,47,45,43,40,38,36,34,34,35,37,41,54,80,119,175,254,365,510,681,859,1014,1100,1100,1010,785,489,196,-24,-126,-141,-121,-84,-71,-79,-89,-96,-89,-77,-65,-60,-57,-55,-54,-54,-54,-54,-54,-54,-54,-54,-55,-56,-56,-57,-58,-59,-60,-61,-61,-62,-64,-65,-66,-67,-68,-69,-71,-74,-79,-79,-71,-64,-59,-53,-48,-42,-37,-33,-29,-25,-22,-19,-16,-13,-10,-6,-2,2,10,24,35,44,50,58,70,85,99,114,129,141,150,155,159,164,163,154,144,134,127,118,109,105,103,101,99,98,98,99,101,103,105,108,113,114,109,106,103,101,100,100,102,107,115,137,171,217,285,385,524,698,889,1061,1146,1142,1038,819,557,320,155,60,22,4,-10,-26,-36,-40,-43,-47,-50,-55,-65,-78,-84,-87,-90,-91,-90,-88,-87,-87,-86,-85,-84,-83,-81,-78,-74,-70,-64,-55,-50,-48,-47,-46,-45,-43,-42,-40,-39,-37,-34,-32,-29,-25,-20,-14,-10,-5,3,17,25,29,32,34,38,40,43,47,51,58,65,74,78,81,84,87,89,91,92,93,93,94,94,95,95,95,95,97,96,88,82,78,74,71,70,69,64,67,84,96,102,105,108,110,110,110,109,107,105,103,101,98,96,93,90,88,86,84,83,82,81,80,78,76,74,71,67,59,44,29,17,10,4,4,11,20,33,43,48,53,55,57,59,62,61,52,47,43,40,37,35,34,33,34,34,34,34,35,36,37,38,39,41,42,41,37,32,27,22,16,11,7,8,10,16,33,81,159,266,400,558,724,877,969,973,902,710,462,211,13,-107,-140,-143,-117,-96,-88,-94,-101,-106,-109,-107,-103,-99,-95,-93,-96,-101,-104,-105,-107,-109,-111,-114,-117,-120,-122,-124,-125,-126,-128,-130,-132,-134,-135,-135,-135,-133,-130,-128,-124,-120,-115,-110,-105,-98,-90,-79,-72,-69,-66,-64,-63,-61,-59,-58,-57,-56,-54,-52,-46,-34,-21,-6,8,19,24,27,28,29,30,32,33,33,33,33,32,31,29,28,27,27,27,26,26,26,26,25,24,23,22,23,25,29,37,47,68,109,173,261,369,491,607,685,691,642,501,322,147,6,-95,-176,-253,-330,-402,-454,-467,-462,-422,-372,-327,-288,-259,-244,-222,-196,-167,-138,-113,-88,-71,-59,-53,-49,-46,-42,-40,-37,-35,-32,-28,-24,-21,-18,-15,-12,-8,-3,2,9,16,22,27,33,40,50,64,79,89,97,105,115,131,142,147,151,154,157,159,161,163,165,167,169,171,170,168,165,162,157,149,143,135,124,113,105,98,92,87,80,70,59,47,40,34,30,27,25,23,22,21,21,20,20,20,21,22,23,24,26,28,29,30,32,33,35,37,38,39,40,43,47,64,105,173,274,403,552,704,829,888,851,713,499,258,51,-85,-133,-149,-142,-136,-132,-129,-127,-127,-129,-132,-135,-141,-153,-159,-161,-163,-165,-166,-167,-169,-170,-172,-172,-173,-172,-172,-172,-171,-170,-169,-169,-168,-168,-167,-166,-166,-165,-164,-161,-159,-163,-169,-173,-177,-180,-183,-183,-181,-177,-172,-166,-155,-147,-137,-123,-106,-90,-75,-64,-53,-39,-22,-7,3,9,15,21,29,32,34,37,39,40,41,41,41,41,40,39,38,36,34,33,32,30,27,24,21,21,21,22,23,24,25,26,24,18,11,3,-4,-11,-17,-18,-12,-3,7,25,52,95,158,242,353,494,660,834,986,1060,1054,950,735,470,210,7,-113,-153,-166,-157,-148,-142,-137,-135,-133,-130,-129,-129,-129,-130,-131,-133,-132,-124,-119,-114,-110,-105,-100,-96,-92,-89,-86,-85,-85,-85,-87,-89,-91,-93,-96,-99,-97,-93,-89,-85,-81,-75,-67,-57,-45,-38,-35,-33,-32,-30,-29,-27,-26,-24,-23,-22,-19,-17,-12,-4,2,12,23,34,48,56,60,63,65,67,68,70,70,71,71,71,72,72,72,72,73,75,75,71,67,64,60,56,52,48,45,42,39,36,33,29,23,15,14,18,21,23,25,26,26,25,24,21,18,14,9,1,-3,-1,4,19,52,106,188,305,456,627,795,931,984,972,858,640,377,136,-33,-99,-107,-82,-55,-47,-59,-91,-124,-134,-137,-139,-139,-135,-133,-131,-130,-129,-129,-131,-132,-134,-136,-139,-142,-142,-139,-134,-130,-124,-119,-114,-111,-109,-107,-106,-104,-103,-101,-99,-97,-95,-93,-88,-79,-71,-62,-54,-45,-38,-33,-28,-22,-16,-9,-1,4,9,18,32,47,59,65,67,69,71,72,74,75,76,79,74,70,67,65,63,61,59,57,53,50,50,53,57,60,53,47,43,41,39,40,41,44,47,53,67,77,82,85,88,90,92,93,94,95,96,97,100,111,134,167,210,266,339,432,550,686,829,959,1032,1030,948,748,489,227,17,-104,-127,-124,-89,-75,-78,-93,-105,-109,-111,-112,-113,-114,-115,-115,-115,-115,-113,-111,-108,-105,-102,-99,-95,-89,-84,-80,-75,-69,-61,-51,-46,-43,-39,-37,-36,-37,-38,-39,-40,-42,-45,-45,-40,-32,-18,-9,-4,0,2,6,9,12,15,18,24,30,36,43,51,57,61,63,66,68,71,74,76,78,81,83,84,82,78,74,71,69,66,64,63,62,63,65,66,68,70,71,73,75,77,78,80,81,81,82,82,81,81,81,81,82,84,87,79,72,68,64,60,56,52,47,42,37,32,26,23,20,18,16,15,13,11,10,8,6,4,2,-1,-11,-19,-25,-25,-16,7,56,131,238,377,538,702,844,920,920,841,655,414,179,1,-94,-115,-115,-103,-96,-97,-107,-115,-121,-127,-132,-135,-139,-145,-152,-154,-155,-155,-155,-155,-156,-156,-157,-156,-154,-152,-149,-145,-142,-140,-138,-136,-135,-135,-136,-139,-141,-143,-144,-148,-150,-150,-146,-140,-137,-133,-129,-125,-122,-119,-117,-114,-110,-103,-98,-91,-81,-69,-55,-44,-36,-30,-26,-20,-15,-7,-2,0,3,5,6,6,4,2,0,-3,-6,-11,-19,-23,-24,-25,-26,-28,-29,-30,-30,-31,-32,-32,-32,-33,-34,-35,-36,-39,-40,-42,-42,-42,-41,-39,-36,-33,-30,-27,-23,-20,-18,-16,-15,-14,-12,-11,-10,-11,-15,-20,-26,-34,-37,-39,-41,-43,-44,-45,-46,-46,-46,-46,-46,-45,-43,-41,-39,-37,-35,-31,-23,-17,-14,-13,-13,-12,-12,-11,-10,-8,-7,-6,-5,-3,-1,2,7,27,70,146,263,421,608,801,966,1051,1049,950,733,463,209,19,-86,-103,-107,-109,-112,-114,-116,-118,-120,-121,-123,-125,-126,-130,-139,-144,-146,-147,-149,-150,-151,-152,-153,-153,-153,-152,-151,-149,-147,-144,-141,-137,-127,-116,-107,-101,-96,-91,-87,-85,-83,-82,-81,-80,-79,-78,-77,-75,-74,-73,-72,-70,-68,-66,-62,-52,-45,-39,-34,-28,-21,-11,1,11,18,26,36,48,54,57,60,61,61,59,56,51,42,31,28,26,24,22,22,24,27,31,35,37,40,43,47,50,53,56,60,63,66,68,70,72,75,77,80,83,86,88,90,91,93,96,99,101,102,100,97,93,92,91,90,88,85,83,81,78,76,73,72,70,68,66,64,61,59,57,55,54,52,51,49,48,47,45,43,39,46,67,118,203,328,484,661,837,980,1038,1028,918,707,452,214,38,-58,-77,-73,-55,-44,-45,-57,-76,-90,-94,-96,-98,-99,-98,-98,-97,-97,-96,-96,-95,-94,-92,-91,-91,-91,-93,-94,-96,-96,-98,-99,-100,-101,-101,-101,-99,-96,-92,-89,-85,-81,-77,-73,-70,-68,-66,-65,-63,-61,-58,-55,-53,-50,-46,-38,-25,-17,-12,-5,3,15,33,45,52,57,62,67,76,86,89,92,94,95,93,90,84,77,69,67,65,64,63,62,63,64,65,66,66,67,67,68,68,67,66,64,63,61,59,57,58,62,67,77,92,106,121,148,187,245,332,454,608,785,966,1115,1190,1158,1009,768,491,237,50,-57,-90,-92,-80,-74,-82,-93,-101,-104,-105,-106,-106,-107,-107,-107,-108,-108,-108,-108,-108,-107,-106,-104,-103,-101,-100,-98,-96,-92,-88,-83,-75,-62,-53,-49,-44,-39,-34,-31,-30,-28,-27,-26,-26,-25,-24,-23,-22,-20,-19,-19,-18,-17,-16,-14,-12,-10,-4,10,25,39,44,46,48,50,52,53,53,54,54,54,54,55,55,55,55,55,56,57,58,58,58,59,59,60,60,60,60,60,61,62,63,64,65,66,66,66,66,66,65,64,62,60,58,56,51,48,49,52,54,55,57,59,59,59,58,56,53,50,48,45,42,39,37,36,34,33,31,30,29,28,26,25,24,23,22,22,21,21,22,23,26,29,33,37,57,103,170,265,394,554,732,902,1028,1073,1012,847,607,338,100,-66,-136,-147,-133,-112,-105,-112,-121,-129,-136,-140,-144,-146,-146,-142,-136,-130,-120,-112,-101,-92,-90,-89,-87,-86,-85,-85,-87,-89,-91,-94,-98,-97,-87,-81,-77,-73,-68,-63,-58,-54,-50,-47,-44,-41,-39,-37,-36,-35,-35,-34,-32,-31,-29,-26,-22,-15,-5,9,20,27,34,40,52,66,75,81,87,93,97,101,104,106,107,106,104,101,98,96,92,88,86,85,86,88,90,91,93,94,96,97,97,97,94,92,89,87,86,84,81,79,77,76,75,73,72,70,69,67,66,64,62,59,57,55,54,53,51,49,48,46,44,43,42,40,38,36,34,33,32,30,29,27,25,21,18,17,18,21,24,26,28,31,32,34,34,33,31,28,25,23,21,18,16,13,11,8,6,3,1,-1,-4,-7,-11,-13,-14,-15,-15,-16,-17,-17,-18,-19,-20,-20,-21,-22,-22,-22,-22,-22,-22,-21,-21,-21,-22,-23,-24,-23,-20,-15,-9,-1,-1,-1,-1,0,0,0,0,0,0,0,0,0,-1,-2,-3,-4,-5,-6,-7,-8,-8,-9,-10,-10,-10,-10,-10,-9,-7,-5,-1,11,46,104,193,312,462,627,787,916,979,947,809,585,321,69,-121,-229,-253,-226,-181,-155,-153,-172,-199,-209,-209,-201,-188,-174,-167,-162,-160,-161,-165,-167,-171,-173,-171,-168,-167,-166,-165,-165,-164,-163,-162,-160,-158,-156,-154,-152,-149,-146,-142,-138,-135,-132,-129,-125,-120,-114,-107,-102,-97,-92,-88,-85,-81,-77,-72,-66,-61,-55,-48,-37,-29,-23,-17,-12,-8,-3,2,8,15,19,21,23,24,25,26,28,29,31,32,33,34,35,36,38,38,39,40,40,42,43,45,45,44,43,40,38,36,34,31,28,25,23,22,21,22,22,24,26,28,30,32,34,35,37,39,41,43,45,47,49,51,53,56,58,62,68,88,121,173,251,356,482,621,761,884,938,928,823,618,369,131,-40,-132,-146,-151,-148,-145,-145,-144,-142,-139,-136,-133,-128,-127,-131,-134,-138,-141,-142,-140,-135,-131,-128,-126,-125,-123,-121,-119,-117,-115,-114,-112,-111,-109,-107,-106,-103,-100,-96,-93,-89,-86,-83,-77,-69,-60,-53,-48,-44,-40,-37,-35,-33,-31,-30,-28,-28,-28,-28,-29,-29,-30,-31,-32,-35,-34,-27,-16,-2,7,14,21,25,28,30,32,30,26,21,18,15,12,9,8,8,9,11,14,17,20,23,26,29,32,34,36,38,41,48,60,74,89,119,165,234,330,451,591,735,859,926,900,769,557,318,110,-24,-77,-95,-103,-106,-108,-110,-112,-114,-116,-118,-121,-123,-126,-128,-129,-128,-125,-121,-116,-109,-102,-95,-89,-82,-73,-67,-63,-59,-56,-53,-51,-49,-46,-43,-40,-36,-32,-26,-20,-15,-8,-3,0,2,4,5,6,7,8,10,11,13,15,17,20,24,29,35,40,49,64,71,75,79,81,83,84,84,85,85,84,82,81,79,77,74,72,68,64,60,58,55,53,51,48,45,44,43,45,48,51,54,56,58,61,63,65,65,64,62,59,56,52,47,37,32,28,26,23,21,19,19,20,21,23,27,26,18,13,11,9,8,6,5,5,4,4,4,4,4,4,4,5,5,6,6,7,7,8,9,9,9,8,7,5,3,0,-3,-3,0,2,4,6,7,8,8,8,6,5,3,0,-5,2,22,54,105,183,289,423,577,736,879,965,968,896,699,436,167,-34,-144,-160,-154,-136,-129,-124,-121,-117,-113,-110,-107,-105,-102,-99,-97,-96,-96,-95,-94,-93,-92,-91,-91,-91,-90,-89,-88,-87,-86,-85,-85,-84,-83,-81,-80,-78,-77,-73,-70,-69,-71,-74,-76,-78,-80,-81,-81,-81,-79,-76,-73,-70,-65,-60,-56,-52,-45,-33,-21,-6,10,28,46,61,71,77,83,87,89,92,94,96,97,97,96,95,92,89,86,82,76,70,63,57,51,46,41,39,39,39,39,39,39,39,38,38,38,39,39,39,38,38,37,35,34,32,29,27,24,19,14,12,11,10,10,9,8,8,7,8,10,12,14,16,19,22,24,24,22,19,14,8,0,-7,-13,-19,-22,-20,-15,0,23,66,134,236,369,525,688,829,907,883,751,533,283,68,-71,-112,-114,-84,-66,-60,-69,-84,-98,-107,-112,-116,-121,-125,-128,-130,-133,-135,-136,-137,-138,-138,-137,-136,-134,-132,-129,-125,-122,-117,-107,-103,-100,-99,-97,-97,-96,-95,-95,-95,-95,-96,-96,-97,-97,-98,-99,-100,-101,-103,-103,-103,-103,-103,-101,-99,-97,-95,-91,-83,-76,-67,-56,-44,-31,-14,1,14,24,34,38,40,42,43,45,46,47,48,48,48,48,48,48,48,49,49,49,49,49,50,50,51,51,52,52,53,59,95,128,143,154,160,153,142,130
