455,543,632,721,795,811,816,814,797,781,766,753,744,738,732,728,723,721,723,726,732,740,755,779,818,865,938,1040,1171,1325,1483,1601,1626,1616,1540,1426,1294,1144,971,789,622,504,467,468,498,524,544,559,575,596,631,676,714,749,779,806,836,856,868,876,879,876,871,864,858,852,845,838,830,820,810,798,787,777,767,757,746,737,729,722,714,705,694,680,669,659,651,642,634,626,618,609,601,592,584,579,574,571,568,564,560,557,553,549,544,536,519,489,462,435,410,385,361,336,308,279,254,237,227,223,221,218,216,215,213,212,211,210,209,208,208,209,210,211,212,213,214,213,213,212,211,211,212,215,221,230,245,275,334,419,536,678,829,960,1034,1058,1041,991,892,768,624,469,318,189,105,71,56,46,33,17,1,-14,-28,-40,-50,-58,-67,-78,-90,-96,-101,-104,-107,-110,-113,-115,-117,-119,-121,-122,-122,-122,-122,-121,-120,-120,-120,-120,-120,-120,-120,-118,-112,-104,-94,-79,-64,-57,-54,-50,-47,-45,-44,-42,-41,-39,-37,-35,-33,-33,-33,-32,-31,-30,-29,-28,-27,-26,-22,-19,-17,-17,-22,-31,-40,-50,-62,-74,-86,-97,-105,-112,-118,-123,-127,-129,-131,-132,-134,-135,-136,-137,-138,-139,-139,-139,-137,-133,-128,-121,-114,-108,-100,-92,-85,-78,-70,-63,-57,-54,-52,-51,-51,-49,-48,-47,-46,-45,-44,-44,-43,-42,-41,-41,-41,-42,-42,-42,-42,-42,-41,-40,-38,-36,-34,-32,-31,-29,-26,-24,-21,-18,-14,-5,5,14,21,30,61,127,231,372,533,687,808,862,863,821,722,590,433,264,92,-64,-177,-207,-217,-193,-181,-177,-174,-171,-169,-167,-165,-164,-162,-160,-159,-158,-158,-158,-158,-158,-157,-156,-155,-154,-153,-151,-148,-144,-141,-137,-133,-126,-117,-109,-103,-98,-93,-88,-83,-78,-71,-64,-55,-45,-29,-5,14,29,42,52,61,68,74,78,82,85,87,89,89,87,84,79,73,66,56,37,16,-11,-44,-68,-83,-96,-107,-120,-135,-151,-167,-184,-203,-220,-233,-245,-255,-261,-266,-270,-273,-276,-277,-278,-279,-278,-275,-272,-268,-263,-259,-254,-248,-241,-234,-228,-222,-216,-210,-204,-198,-192,-186,-179,-171,-162,-151,-141,-134,-126,-112,-89,-44,34,145,290,464,634,764,812,808,744,622,461,272,71,-128,-310,-440,-463,-470,-475,-477,-478,-476,-472,-465,-455,-437,-409,-369,-324,-270,-211,-157,-109,-77,-50,-30,-14,-7,-4,-1,0,3,5,7,11,13,16,19,23,28,33,42,56,69,80,95,113,130,141,149,155,161,168,176,185,194,206,218,229,241,255,274,296,311,322,330,334,334,331,327,320,307,284,259,234,209,185,161,136,116,101,85,71,55,38,22,9,-4,-19,-28,-36,-42,-48,-52,-54,-55,-56,-58,-59,-60,-61,-62,-62,-62,-63,-63,-64,-64,-63,-61,-59,-56,-53,-50,-46,-42,-39,-37,-35,-33,-32,-30,-29,-27,-25,-23,-20,-18,-17,-17,-16,-16,-15,-14,-13,-12,-12,-11,-10,-8,-7,-6,-6,-7,-7,-8,-9,-9,-10,-10,-11,-12,-13,-14,-15,-17,-18,-20,-22,-25,-27,-29,-30,-31,-32,-34,-36,-38,-40,-42,-43,-44,-44,-44,-43,-41,-38,-35,-31,-28,-24,-20,-16,-12,-6,0,6,13,19,25,31,37,40,44,47,50,53,56,59,62,64,66,67,68,68,68,67,67,66,66,65,65,64,64,64,64,66,67,67,69,71,74,79,84,91,98,108,126,139,149,154,158,162,165,168,170,172,173,174,174,174,172,170,167,163,160,156,152,147,141,128,116,104,93,84,74,64,54,47,41,36,32,29,28,29,31,36,44,54,89,156,263,418,620,850,1071,1214,1227,1141,882,538,195,-68,-185,-224,-201,-180,-165,-156,-155,-161,-167,-173,-179,-182,-183,-178,-169,-160,-154,-148,-141,-135,-130,-124,-120,-115,-111,-107,-101,-94,-87,-80,-74,-67,-59,-48,-38,-26,-20,-16,-13,-11,-9,-7,-5,-2,0,3,6,8,11,15,19,24,30,37,45,53,58,62,66,69,74,78,81,82,80,76,70,62,48,20,-8,-35,-56,-72,-93,-116,-137,-153,-162,-170,-176,-181,-186,-190,-193,-194,-196,-197,-199,-200,-200,-201,-201,-202,-202,-201,-201,-200,-200,-199,-198,-196,-194,-192,-190,-188,-186,-184,-182,-180,-178,-176,-173,-170,-165,-159,-154,-147,-141,-136,-130,-125,-120,-116,-111,-107,-103,-99,-95,-90,-82,-70,-59,-48,-39,-31,-25,-18,-12,-7,-3,0,3,6,8,11,14,17,21,25,29,33,38,45,53,60,68,74,79,82,84,87,89,91,92,92,92,92,93,95,96,97,98,99,100,102,105,106,108,110,111,114,118,126,144,156,163,168,174,178,180,179,174,168,161,156,151,146,140,134,128,123,118,112,104,93,82,74,67,58,48,36,19,10,2,-3,-8,-11,-14,-16,-16,-16,-15,-12,-7,-1,5,16,58,146,282,470,705,958,1186,1273,1252,1054,704,308,-27,-233,-289,-241,-153,-97,-77,-78,-93,-100,-105,-109,-113,-115,-117,-118,-118,-118,-116,-113,-110,-105,-101,-98,-96,-93,-90,-88,-87,-86,-86,-86,-85,-84,-83,-82,-81,-80,-79,-78,-77,-77,-76,-76,-74,-72,-69,-65,-58,-40,-25,-13,-4,4,16,27,38,49,58,62,65,67,69,73,76,69,56,43,29,16,3,-17,-45,-71,-98,-120,-136,-152,-174,-203,-226,-240,-252,-263,-268,-272,-275,-278,-280,-282,-283,-285,-286,-287,-288,-288,-286,-284,-282,-278,-275,-271,-267,-264,-260,-257,-254,-251,-248,-244,-240,-236,-232,-228,-225,-221,-218,-214,-210,-206,-203,-198,-191,-182,-174,-169,-164,-160,-155,-150,-145,-140,-134,-128,-123,-121,-120,-119,-118,-117,-117,-117,-117,-116,-116,-115,-114,-114,-115,-116,-116,-116,-116,-116,-116,-116,-115,-114,-113,-112,-110,-108,-105,-102,-99,-93,-80,-68,-56,-38,-10,42,127,254,422,629,849,1038,1135,1097,906,599,251,-43,-224,-260,-253,-183,-124,-102,-101,-115,-122,-127,-132,-136,-138,-139,-140,-139,-137,-134,-131,-127,-122,-116,-107,-98,-92,-87,-84,-82,-80,-79,-78,-77,-74,-72,-69,-66,-63,-59,-53,-44,-25,-7,10,28,46,61,74,86,97,111,126,143,158,170,179,185,189,192,194,197,198,199,199,198,195,191,185,177,162,134,109,82,54,29,5,-16,-37,-61,-81,-96,-109,-119,-126,-133,-140,-147,-157,-168,-175,-177,-178,-179,-181,-181,-182,-183,-183,-183,-183,-182,-182,-180,-178,-176,-174,-173,-171,-169,-167,-165,-161,-157,-156,-158,-162,-167,-172,-178,-183,-183,-178,-168,-136,-75,14,137,301,508,743,961,1078,1028,790,406,-30,-399,-616,-656,-562,-411,-282,-198,-170,-164,-159,-155,-153,-152,-152,-152,-152,-152,-153,-154,-155,-157,-158,-160,-161,-163,-164,-164,-162,-157,-152,-146,-140,-134,-128,-122,-118,-114,-111,-107,-103,-98,-91,-83,-73,-60,-50,-35,-19,-4,14,29,38,47,54,63,74,85,99,117,131,141,151,158,164,168,167,162,154,144,130,117,99,78,60,47,34,25,16,12,10,10,10,9,9,8,7,7,6,6,5,5,5,5,6,7,8,9,10,11,12,14,16,19,26,44,56,62,67,73,78,83,88,94,100,104,109,116,126,132,136,135,127,118,108,99,87,73,65,60,57,54,54,55,58,62,69,80,87,91,94,96,95,92,88,82,74,70,68,66,64,64,67,71,76,80,83,87,91,94,97,100,105,123,157,213,304,439,621,844,1083,1285,1395,1370,1196,906,562,252,35,-44,-53,-18,14,26,26,18,14,11,9,7,6,5,5,6,7,8,10,13,17,26,42,54,61,66,70,74,76,79,82,86,89,94,100,110,118,126,134,141,148,155,163,170,176,182,188,197,211,227,243,258,271,282,297,307,312,316,318,319,318,315,310,304,292,275,261,245,228,208,186,167,152,141,127,105,79,53,40,27,15,4,-8,-15,-18,-20,-23,-25,-28,-31,-34,-37,-39,-41,-43,-44,-45,-45,-45,-44,-42,-40,-38,-37,-35,-33,-30,-28,-28,-29,-31,-34,-37,-41,-47,-50,-48,-41,-21,13,72,162,291,458,651,847,1010,1081,1010,787,435,45,-288,-487,-544,-504,-447,-431,-426,-419,-409,-378,-298,-210,-141,-92,-59,-38,-33,-30,-28,-26,-24,-22,-19,-17,-14,-12,-10,-8,-5,0,4,7,8,9,11,14,16,16,13,11,7,8,16,26,36,45,57,71,84,97,110,124,136,145,152,162,174,186,200,210,215,219,221,222,221,217,212,206,193,172,154,136,118,101,77,52,25,-1,-19,-39,-59,-78,-96,-111,-121,-128,-130,-132,-133,-134,-135,-136,-137,-138,-139,-139,-140,-140,-140,-140,-140,-139,-139,-137,-136,-135,-133,-131,-129,-127,-122,-108,-101,-98,-96,-94,-92,-90,-88,-86,-84,-82,-80,-79,-79,-78,-79,-79,-78,-78,-77,-77,-76,-75,-75,-74,-74,-74,-74,-74,-74,-74,-74,-74,-74,-74,-74,-73,-72,-72,-73,-73,-73,-74,-74,-74,-75,-76,-76,-77,-78,-78,-81,-84,-85,-80,-74,-70,-66,-63,-60,-60,-61,-62,-64,-66,-69,-71,-68,-61,-54,-45,-40,-38,-36,-35,-33,-32,-31,-30,-30,-30,-31,-32,-34,-35,-37,-38,-40,-40,-41,-42,-43,-45,-46,-47,-47,-47,-46,-45,-44,-43,-42,-41,-40,-39,-40,-44,-49,-53,-57,-61,-65,-68,-70,-71,-69,-66,-62,-56,-46,-26,-11,-2,6,13,20,27,31,27,19,14,8,4,1,-1,-3,-5,-7,-9,-12,-15,-17,-21,-27,-38,-48,-59,-69,-78,-83,-87,-89,-87,-81,-77,-74,-70,-67,-64,-58,-40,-10,43,128,253,419,625,853,1062,1182,1182,1064,780,431,117,-105,-189,-197,-155,-118,-106,-117,-128,-138,-138,-130,-125,-122,-119,-117,-115,-113,-112,-110,-108,-105,-102,-98,-92,-88,-85,-82,-80,-77,-74,-70,-65,-56,-43,-31,-17,-3,12,21,26,30,33,35,37,40,44,50,59,72,86,93,98,104,112,124,139,148,154,161,168,181,195,202,205,208,209,209,207,204,200,192,176,159,144,122,100,75,49,23,8,-6,-21,-37,-55,-68,-76,-81,-86,-93,-104,-112,-117,-119,-117,-112,-109,-105,-101,-94,-87,-81,-76,-71,-66,-62,-58,-55,-49,-40,-41,-52,-59,-65,-69,-73,-74,-73,-71,-68,-64,-60,-55,-50,-45,-41,-38,-36,-34,-29,-22,-18,-15,-12,-11,-13,-18,-20,-23,-25,-26,-27,-25,-20,-16,-12,-10,-9,-7,-6,-5,-4,-3,-2,-1,0,1,2,3,3,2,2,2,2,3,3,3,3,3,3,4,4,3,3,2,1,1,2,2,2,3,3,4,6,8,9,11,13,20,27,32,41,56,64,68,72,75,78,79,80,80,80,79,77,75,72,69,66,62,56,50,42,34,28,22,17,12,9,6,3,-1,-8,-17,-24,-30,-36,-40,-45,-49,-52,-49,-41,-18,19,81,177,317,503,732,975,1184,1291,1245,1038,705,334,9,-195,-246,-243,-177,-120,-91,-80,-79,-84,-88,-92,-94,-93,-87,-79,-69,-56,-47,-40,-35,-31,-25,-20,-17,-14,-12,-10,-8,-6,-3,-1,1,5,9,14,19,23,27,32,38,44,53,63,72,80,87,92,97,103,110,117,124,133,143,154,170,188,201,210,215,219,223,226,228,229,228,224,219,209,193,175,156,136,115,94,72,48,28,9,-8,-22,-33,-48,-55,-60,-64,-68,-70,-72,-72,-72,-72,-70,-68,-65,-61,-56,-52,-47,-41,-35,-29,-25,-22,-21,-19,-18,-16,-15,-13,-12,-12,-13,-14,-16,-19,-22,-25,-29,-34,-39,-39,-33,-25,-18,-11,-5,0,6,10,14,16,19,21,22,24,25,25,25,24,23,22,20,19,17,15,14,12,11,10,8,6,4,2,0,-2,-3,-5,-6,-6,-6,-5,-4,-2,-1,0,1,3,7,12,17,43,98,185,305,460,650,862,1059,1172,1171,1054,778,442,125,-91,-164,-168,-119,-78,-64,-75,-86,-94,-98,-91,-78,-70,-64,-58,-54,-50,-47,-45,-42,-39,-36,-33,-30,-27,-23,-20,-18,-16,-13,-10,-7,-2,3,9,16,28,48,64,72,79,86,93,103,115,129,140,150,160,169,184,206,218,224,228,231,234,236,238,240,242,243,245,248,254,256,252,242,227,201,171,143,114,90,56,18,-5,-30,-53,-74,-94,-113,-133,-145,-151,-156,-159,-161,-160,-157,-152,-147,-141,-136,-128,-119,-110,-101,-97,-94,-92,-89,-87,-85,-83,-82,-82,-80,-79,-78,-77,-77,-77,-78,-78,-77,-76,-76,-75,-73,-68,-61,-54,-35,2,63,157,296,488,721,948,1088,1093,978,659,233,-178,-483,-606,-558,-416,-273,-174,-131,-116,-104,-95,-87,-83,-87,-96,-104,-113,-120,-125,-128,-130,-132,-133,-134,-135,-136,-135,-133,-131,-127,-124,-120,-117,-114,-111,-108,-106,-103,-101,-99,-98,-97,-95,-93,-91,-84,-69,-56,-46,-38,-27,-11,5,17,26,33,38,41,46,50,56,63,74,84,93,100,103,99,91,79,60,40,21,3,-17,-36,-50,-61,-76,-93,-109,-124,-138,-152,-164,-171,-174,-175,-177,-177,-174,-172,-170,-168,-162,-156,-151,-147,-143,-139,-134,-129,-125,-120,-115,-110,-106,-103,-101,-100,-99,-98,-96,-95,-95,-94,-95,-95,-96,-97,-97,-98,-100,-101,-102,-104,-105,-106,-107,-107,-107,-107,-105,-104,-102,-100,-98,-96,-94,-93,-91,-89,-87,-86,-84,-82,-79,-77,-74,-71,-67,-59,-53,-53,-57,-64,-70,-77,-80,-78,-73,-62,-18,54,160,301,480,694,926,1134,1233,1227,1091,804,459,141,-68,-141,-151,-126,-111,-106,-118,-132,-144,-150,-155,-159,-161,-157,-150,-142,-133,-126,-122,-121,-119,-118,-117,-116,-114,-112,-111,-109,-108,-106,-103,-100,-91,-75,-65,-57,-47,-34,-19,-8,0,6,14,21,33,49,67,81,91,99,109,123,136,145,151,155,157,160,161,161,161,159,155,151,146,137,130,120,109,91,69,45,28,8,-7,-30,-54,-71,-92,-109,-123,-132,-136,-138,-138,-139,-139,-140,-140,-140,-141,-141,-141,-142,-142,-142,-140,-138,-136,-134,-132,-131,-128,-126,-124,-123,-122,-121,-120,-118,-116,-114,-113,-111,-110,-109,-108,-107,-106,-106,-105,-104,-96,-74,-26,56,181,347,547,759,945,1053,1025,833,500,113,-236,-474,-557,-570,-562,-557,-563,-581,-559,-494,-396,-294,-221,-172,-138,-120,-110,-105,-100,-97,-93,-90,-87,-83,-79,-76,-74,-71,-69,-67,-65,-61,-56,-50,-43,-37,-30,-26,-21,-14,-1,7,11,15,19,24,28,35,44,51,59,71,85,99,114,129,142,156,171,185,199,213,220,225,228,228,223,216,203,187,174,160,145,130,105,81,65,47,31,7,-16,-43,-71,-83,-88,-92,-96,-102,-104,-106,-107,-109,-110,-111,-112,-111,-111,-111,-112,-111,-110,-109,-107,-105,-103,-102,-100,-97,-94,-90,-86,-82,-77,-69,-63,-58,-49,-38,-30,-24,-29,-34,-38,-41,-38,-32,-29,-27,-25,-23,-22,-21,-19,-16,-14,-13,-11,-9,-7,-4,-2,0,2,4,5,6,8,10,13,15,14,10,8,5,3,1,0,1,3,7,10,16,24,26,24,22,22,21,21,20,19,18,16,14,11,8,5,0,-8,-12,-13,-15,-16,-17,-16,-14,-11,-7,-5,-3,-1,1,2,4,5,5,6,6,5,5,4,3,3,2,1,0,-3,-2,3,10,18,26,34,42,50,56,60,63,66,70,72,74,78,85,99,111,119,123,126,128,130,128,122,113,102,97,93,91,91,93,95,98,102,94,81,66,51,37,22,11,5,2,0,0,1,3,5,7,9,11,14,19,37,78,147,254,402,596,826,1063,1253,1342,1281,1065,734,378,98,-64,-109,-74,-24,-6,-6,-28,-46,-53,-42,-34,-30,-26,-24,-21,-19,-18,-17,-16,-14,-12,-7,3,8,10,12,12,13,15,18,21,24,27,30,34,37,41,45,48,50,51,53,57,63,71,81,94,107,121,135,147,158,170,183,196,208,221,229,234,238,241,244,247,250,252,249,242,232,217,203,190,171,151,128,111,91,73,57,43,31,18,2,-16,-27,-32,-36,-38,-41,-43,-46,-49,-53,-56,-59,-63,-67,-70,-73,-75,-77,-79,-80,-82,-83,-85,-86,-87,-86,-83,-80,-76,-71,-67,-62,-56,-51,-46,-41,-37,-34,-31,-29,-26,-24,-22,-21,-19,-17,-16,-15,-14,-14,-13,-13,-13,-13,-11,-10,-9,-12,-17,-22,-24,-26,-28,-30,-32,-34,-36,-37,-39,-40,-40,-40,-40,-39,-38,-37,-35,-33,-32,-30,-28,-26,-24,-19,-13,-8,9,48,111,206,340,518,734,966,1165,1267,1229,1037,721,359,38,-168,-241,-210,-138,-68,-39,-29,-29,-39,-56,-66,-68,-69,-69,-70,-69,-69,-68,-66,-64,-60,-55,-45,-31,-23,-19,-15,-12,-10,-8,-6,-4,-3,-1,0,3,7,13,18,23,31,44,61,78,93,103,112,122,137,152,162,172,182,193,206,224,247,265,277,281,282,283,284,285,281,273,261,243,226,207,185,163,139,120,95,69,41,12,-3,-16,-26,-36,-46,-55,-61,-64,-66,-68,-69,-69,-66,-62,-58,-56,-53,-50,-48,-46,-46,-48,-50,-53,-55,-57,-59,-61,-63,-66,-67,-69,-69,-69,-69,-67,-66,-63,-59,-55,-47,-27,12,80,180,317,490,696,909,1075,1138,1053,805,435,19,-332,-555,-627,-583,-479,-368,-274,-192,-128,-71,-22,-2,4,7,8,5,0,-7,-12,-15,-19,-21,-24,-26,-28,-28,-28,-27,-25,-24,-22,-20,-18,-16,-14,-11,-9,-7,-5,-3,0,2,6,15,32,43,49,53,59,64,70,82,100,113,121,129,136,145,154,162,166,170,172,174,175,174,171,166,160,148,127,108,88,67,45,22,0,-21,-43,-65,-89,-101,-106,-110,-113,-116,-117,-119,-121,-122,-123,-125,-126,-127,-128,-129,-130,-131,-132,-132,-133,-133,-133,-131,-129,-126,-124,-121,-118,-115,-111,-107,-104,-103,-103,-103,-104,-104,-104,-106,-107,-107,-106,-104,-102,-100,-99,-101,-105,-109,-112,-115,-119,-122,-125,-126,-126,-126,-124,-123,-121,-118,-118,-124,-127,-130,-132,-134,-135,-135,-134,-132,-130,-129,-127,-125,-124,-122,-119,-117,-115,-114,-112,-110,-107,-100,-81,-40,25,123,263,452,679,905,1081,1139,1044,809,479,144,-115,-236,-253,-222,-181,-167,-181,-197,-211,-211,-199,-192,-188,-184,-180,-177,-175,-173,-171,-168,-164,-160,-153,-147,-142,-137,-132,-126,-117,-110,-105,-99,-94,-90,-84,-73,-58,-48,-42,-36,-30,-21,-8,0,5,10,15,20,30,47,68,84,94,102,112,123,140,161,176,182,185,188,189,189,187,183,177,158,129,101,84,66,48,20,-7,-33,-48,-61,-70,-79,-91,-108,-116,-120,-123,-125,-128,-129,-131,-132,-132,-133,-133,-133,-132,-131,-130,-128,-127,-125,-123,-121,-118,-115,-107,-101,-96,-94,-93,-91,-90,-89,-88,-86,-85,-84,-83,-81,-78,-75,-71,-53,-6,71,186,345,545,766,965,1059,1050,906,607,229,-139,-422,-578,-616,-589,-542,-482,-404,-319,-231,-150,-95,-66,-57,-49,-41,-36,-33,-30,-28,-25,-24,-22,-20,-19,-18,-17,-15,-14,-13,-12,-10,-8,-6,-3,0,2,6,13,23,29,35,41,49,57,65,72,78,84,92,101,113,125,137,148,160,171,184,193,198,203,208,214,222,232,233,234,236,235,229,211,190,163,131,96,65,43,28,11,-6,-24,-41,-54,-63,-72,-77,-80,-83,-85,-86,-86,-85,-84,-82,-80,-78,-76,-74,-72,-70,-68,-68,-68,-69,-71,-73,-74,-75,-77,-78,-79,-80,-80,-79,-77,-75,-72,-69,-65,-61,-56,-54,-52,-50,-48,-46,-45,-44,-45,-46,-47,-48,-49,-49,-49,-49,-48,-46,-44,-42,-40,-38,-36,-34,-33,-33,-32,-33,-34,-36,-38,-40,-42,-42,-43,-44,-45,-46,-47,-48,-49,-50,-52,-54,-55,-57,-58,-58,-59,-60,-62,-63,-64,-64,-65,-66,-68,-69,-70,-71,-71,-72,-72,-72,-72,-71,-71,-70,-69,-68,-67,-65,-61,-58,-60,-63,-65,-66,-67,-68,-70,-71,-72,-73,-74,-74,-75,-74,-74,-73,-72,-70,-69,-67,-66,-65,-64,-63,-61,-55,-46,-40,-37,-34,-32,-29,-27,-25,-23,-20,-14,-2,9,20,30,41,52,60,65,69,69,64,62,61,60,59,58,56,55,53,52,50,47,44,41,34,16,0,-11,-20,-27,-33,-35,-32,-27,-23,-20,-16,-13,-10,-6,7,49,121,233,393,603,852,1101,1276,1326,1215,948,588,229,-34,-148,-162,-119,-54,-32,-25,-33,-43,-53,-61,-74,-81,-81,-81,-82,-83,-83,-82,-80,-78,-76,-75,-73,-71,-68,-65,-60,-56,-52,-46,-40,-36,-32,-26,-19,-10,-4,0,5,11,17,26,36,44,51,59,68,82,97,109,118,126,136,148,161,175,184,190,195,200,207,214,220,224,228,230,230,226,219,207,192,173,150,125,98,72,50,38,28,20,10,-2,-17,-24,-27,-30,-32,-33,-32,-30,-27,-22,-14,-2,2,5,7,8,8,5,1,-2,-9,-20,-25,-29,-33,-36,-36,-30,-24,-21,-19,-16,-14,-11,-9,-7,-5,-3,-2,0,0,1,3,5,9,13,17,20,24,40,84,152,251,390,566,769,969,1121,1172,1088,861,533,181,-117,-303,-345,-343,-292,-274,-268,-278,-288,-296,-299,-297,-291,-274,-240,-186,-122,-54,13,71,118,153,176,191,198,203,208,213,218,222,225,229,232,235,238,239,240,241,242,244,246,249,252,256,261,269,280,289,300,318,333,342,350,356,364,374,387,400,410,419,427,434,440,445,445,439,429,414,392,371,353,338,321,303,285,257,228,207,184,162,140,121,92,63,45,26,10,-2,-15,-28,-43,-54,-60,-64,-63,-59,-51,-28,10,74,169,300,464,645,812,904,902,797,528,170,-190,-466,-600,-620,-587,-548,-534,-533,-536,-539,-541,-532,-508,-482,-438,-373,-304,-243,-196,-161,-149,-145,-142,-141,-146,-154,-161,-169,-174,-176,-177,-178,-180,-182,-183,-184,-184,-184,-184,-183,-182,-180,-176,-172,-167,-163,-158,-151,-143,-136,-130,-125,-120,-114,-109,-104,-100,-97,-89,-77,-70,-66,-63,-62,-62,-64,-69,-76,-87,-106,-126,-145,-176,-210,-245,-274,-300,-326,-354,-383,-413,-430,-444,-454,-463,-475,-493,-509,-519,-526,-530,-536,-543,-549,-554,-559,-559,-552,-534,-489,-413,-295,-130,69,272,434,491,402,163,-175,-534,-825,-999,-1036,-1034,-1016,-1006,-998,-991,-970,-935,-903,-888,-875,-858,-819,-766,-714,-664,-617,-575,-537,-505,-477,-459,-440,-421,-408,-397,-389,-379,-364,-351,-343,-336,-331,-321,-306,-289,-271,-257,-247,-239,-228,-214,-204,-198,-193,-189,-185,-176,-161,-144,-128,-100,-74,-57,-38,-19,-4,6,12,16,19,21,23,23,22,20,16,12,6,-3,-11,-23,-37,-46,-51,-55,-57,-57,-55,-51,-44,-23,19,81,167,288,445,628,816,963,1025,959,743,402,7,-356,-600,-677,-680,-616,-560,-525,-509,-497,-484,-462,-438,-415,-399,-370,-327,-277,-225,-178,-135,-97,-67,-44,-29,-12,2,27,51,73,85,94,101,110,121,135,146,152,158,163,181,204,233,260,274,284,292,301,323,349,363,375,383,391,401,415,429,438,442,445,448,449,447,441,433,418,401,386,364,339,323,306,293,273,252,227,214,205,199,208,235,296,396,539,721,898,997,990,856,550,165,-201,-473,-581,-590,-528,-453,-415,-400,-394,-390,-386,-383,-379,-371,-358,-332,-290,-235,-179,-128,-86,-52,-24,-9,-1,2,5,8,11,14,18,24,33,41,49,57,67,77,87,93,99,103,108,115,126,141,153,161,169,178,191,213,228,233,237,238,239,239,237,235,232,223,199,184,172,163,157,140,117,95,83,73,65,57,47,32,16,2,-7,-15,-24,-30,-34,-37,-40,-43,-45,-48,-51,-55,-58,-58,-54,-44,-17,28,91,176,288,429,596,763,898,949,888,707,434,133,-106,-215,-227,-184,-122,-93,-92,-110,-122,-124,-126,-127,-127,-129,-131,-132,-131,-131,-130,-129,-128,-128,-127,-127,-127,-126,-126,-126,-126,-125,-123,-122,-120,-118,-116,-113,-110,-107,-102,-96,-85,-74,-71,-70,-70,-70,-69,-69,-68,-67,-64,-62,-59,-57,-54,-52,-48,-44,-41,-41,-42,-45,-50,-68,-92,-105,-125,-146,-170,-186,-199,-206,-211,-216,-219,-226,-238,-246,-250,-255,-262,-268,-271,-274,-276,-279,-281,-283,-284,-285,-285,-284,-284,-283,-282,-280,-277,-265,-243,-200,-135,-44,73,222,407,631,864,1054,1143,1086,873,544,174,-139,-330,-386,-345,-278,-247,-237,-240,-244,-247,-237,-232,-230,-229,-229,-228,-226,-225,-223,-221,-220,-218,-217,-216,-215,-213,-210,-204,-198,-193,-189,-185,-182,-179,-176,-173,-169,-163,-152,-138,-126,-117,-112,-106,-100,-95,-91,-87,-82,-78,-74,-68,-60,-52,-43,-34,-23,-8,9,19,26,30,33,33,31,27,22,7,-17,-32,-47,-62,-73,-81,-84,-86,-87,-89,-90,-91,-91,-91,-90,-89,-88,-86,-83,-80,-78,-75,-72,-70,-68,-67,-65,-63,-61,-59,-58,-56,-55,-53,-52,-50,-48,-44,-35,-27,-18,-9,-5,-1,2,2,-3,-7,-9,-12,-14,-15,-15,-12,-8,-3,6,19,24,28,30,30,26,23,20,18,16,14,12,10,9,9,10,12,13,15,17,19,21,23,26,29,31,31,31,30,30,29,27,26,26,28,30,32,34,36,38,38,38,37,35,33,32,31,29,28,28,28,30,32,34,37,40,46,49,48,45,44,43,42,41,41,44,48,51,54,57,60,63,64,64,63,62,60,59,58,57,56,55,55,54,55,55,55,56,57,57,57,58,58,59,59,60,62,63,64,64,65,65,65,67,69,69,65,61,58,55,51,49,49,51,54,60,69,85,95,102,110,119,127,134,138,139,139,138,138,137,137,135,131,129,126,124,122,122,122,124,126,129,134,134,127,117,103,89,76,62,49,37,25,19,15,12,9,8,8,11,15,21,45,87,150,243,375,550,764,1000,1204,1315,1288,1111,805,444,119,-77,-136,-99,-47,-40,-46,-75,-90,-94,-81,-69,-62,-57,-54,-50,-47,-45,-43,-41,-40,-38,-36,-34,-32,-30,-28,-27,-25,-23,-20,-17,-15,-13,-11,-9,-6,-2,5,15,25,34,41,46,51,56,62,71,82,91,96,103,110,121,136,152,170,179,184,187,190,193,194,195,195,196,195,194,192,190,187,183,170,148,127,106,85,60,43,28,17,8,-3,-20,-40,-60,-81,-99,-112,-121,-128,-130,-133,-135,-138,-139,-140,-139,-139,-137,-134,-132,-130,-128,-127,-125,-120,-117,-119,-122,-123,-124,-125,-126,-127,-129,-130,-131,-132,-132,-131,-130,-128,-127,-126,-125,-123,-121,-118,-115,-106,-102,-100,-98,-96,-95,-94,-93,-93,-92,-91,-90,-89,-88,-87,-86,-84,-82,-80,-78,-77,-75,-73,-71,-69,-67,-65,-64,-63,-61,-60,-58,-57,-56,-56,-55,-55,-54,-54,-53,-53,-52,-50,-49,-48,-47,-46,-45,-43,-42,-39,-36,-32,-25,-10,1,15,33,45,53,55,56,56,56,57,57,58,59,59,59,59,59,59,58,58,57,57,56,57,56,53,47,37,20,11,6,2,0,-3,-4,-5,-5,-4,-3,-2,0,2,6,22,68,146,264,428,637,876,1115,1288,1349,1255,1004,653,292,15,-132,-157,-114,-66,-49,-55,-59,-61,-63,-65,-66,-67,-67,-67,-67,-66,-65,-63,-60,-56,-52,-44,-33,-26,-20,-15,-10,-6,-2,0,3,7,11,15,20,25,32,38,42,47,53,61,72,81,89,96,103,112,123,133,146,161,174,188,204,222,237,247,255,263,269,275,280,280,276,271,262,245,225,208,181,152,133,110,88,69,49,29,11,-5,-23,-39,-50,-54,-55,-56,-57,-58,-59,-59,-60,-60,-61,-61,-61,-60,-59,-57,-55,-53,-52,-50,-49,-48,-48,-47,-47,-46,-45,-43,-41,-39,-36,-34,-31,-29,-28,-26,-25,-24,-22,-18,-16,-12,-9,-6,-4,-2,0,1,2,3,3,4,4,5,6,7,8,9,9,9,9,9,8,8,7,7,7,7,8,9,10,11,12,12,11,12,12,12,13,13,15,17,21,24,28,32,40,66,128,229,375,565,792,1027,1207,1278,1197,965,630,280,-3,-166,-202,-162,-101,-61,-46,-42,-40,-39,-37,-36,-37,-39,-41,-43,-44,-45,-45,-43,-40,-36,-34,-32,-29,-26,-23,-20,-17,-14,-11,-6,5,26,36,40,44,46,49,52,55,58,61,64,70,82,95,112,133,154,175,192,205,216,226,234,240,246,250,254,257,259,260,259,256,251,244,233,210,187,168,142,113,82,49,26,1,-22,-44,-64,-83,-103,-113,-118,-122,-124,-125,-123,-119,-114,-110,-108,-106,-104,-103,-102,-100,-99,-98,-98,-97,-96,-95,-94,-93,-93,-93,-93,-92,-92,-91,-89,-88,-86,-84,-80,-74,-70,-66,-62,-53,-37,-4,52,141,267,438,653,881,1058,1116,1008,727,326,-91,-431,-589,-603,-521,-379,-259,-168,-110,-82,-72,-60,-54,-49,-44,-41,-39,-39,-40,-41,-42,-44,-46,-49,-52,-54,-54,-54,-53,-52,-51,-51,-50,-49,-48,-47,-45,-44,-42,-39,-37,-33,-29,-18,0,10,19,30,39,47,55,62,72,82,91,101,110,118,128,144,155,162,166,168,166,164,159,152,139,117,88,71,55,39,23,8,-18,-46,-63,-76,-84,-92,-100,-113,-129,-136,-139,-142,-143,-145,-146,-147,-148,-149,-150,-151,-151,-152,-151,-150,-148,-145,-139,-126,-118,-114,-111,-109,-106,-104,-101,-98,-95,-91,-86,-80,-75,-70,-65,-61,-58,-55,-52,-50,-47,-45,-43,-40,-38,-37,-37,-39,-41,-43,-45,-46,-48,-50,-51,-53,-55,-58,-60,-64,-69,-77,-83,-86,-88,-90,-91,-93,-94,-94,-93,-93,-92,-91,-90,-88,-86,-86,-86,-87,-89,-91,-88,-73,-36,23,113,241,412,629,873,1091,1193,1183,1032,732,375,51,-157,-234,-211,-146,-109,-97,-108,-137,-166,-176,-169,-159,-145,-137,-131,-128,-128,-131,-134,-136,-139,-140,-141,-140,-137,-133,-126,-112,-99,-90,-83,-78,-73,-67,-60,-54,-49,-45,-41,-38,-31,-19,-6,3,9,14,19,25,32,44,61,79,94,108,122,144,169,177,180,182,183,181,175,168,156,138,114,100,85,72,54,32,8,-14,-28,-40,-49,-60,-74,-91,-103,-113,-122,-130,-139,-144,-148,-150,-152,-153,-153,-152,-149,-146,-142,-138,-133,-128,-124,-121,-120,-118,-117,-116,-115,-114,-114,-114,-113,-112,-112,-111,-111,-111,-111,-111,-110,-107,-105,-96,-67,-18,59,172,325,517,732,919,1002,988,833,524,151,-193,-436,-526,-532,-507,-494,-485,-479,-459,-387,-290,-194,-124,-91,-75,-68,-65,-62,-58,-52,-47,-43,-38,-34,-29,-25,-22,-18,-15,-12,-8,-5,-1,1,4,6,9,12,15,18,21,24,27,32,39,45,52,62,78,107,134,149,164,179,192,201,209,216,221,226,230,235,239,244,248,248,243,236,225,205,182,161,141,122,104,85,66,48,31,16,3,-11,-28,-43,-54,-61,-66,-70,-73,-75,-77,-79,-80,-80,-79,-76,-73,-68,-63,-56,-51,-47,-44,-42,-40,-38,-38,-38,-38,-39,-40,-40,-41,-42,-43,-44,-45,-45,-45,-45,-46,-45,-44,-42,-39,-36,-34,-32,-31,-29,-27,-26,-25,-24,-23,-21,-20,-18,-17,-17,-17,-18,-19,-21,-22,-24,-26,-28,-30,-32,-33,-34,-36,-37,-39,-40,-40,-40,-38,-36,-34,-32,-30,-29,-28,-27,-27,-26,-25,-25,-24,-24,-23,-22,-21,-21,-20,-19,-19,-18,-17,-16,-15,-14,-14,-12,-11,-9,-7,-5,-3,-1,0,2,4,5,4,4,3,2,1,0,-1,-3,-5,-7,-12,-16,-17,-13,-8,0,15,26,34,42,49,57,68,79,89,95,99,104,113,120,127,127,120,109,96,91,88,87,86,85,83,81,79,76,74,71,67,61,49,39,34,30,28,26,23,20,18,15,13,10,4,1,4,13,40,87,160,269,420,611,838,1071,1247,1305,1206,956,613,271,9,-96,-109,-73,-37,-25,-31,-50,-66,-70,-73,-75,-77,-78,-78,-78,-79,-79,-78,-77,-74,-72,-69,-66,-63,-57,-46,-40,-37,-35,-33,-32,-31,-30,-28,-26,-25,-23,-22,-19,-13,0,11,18,23,26,31,37,45,56,70,85,100,114,128,140,149,156,160,163,165,166,167,168,167,165,162,158,153,142,123,106,92,74,48,18,-9,-33,-47,-59,-68,-80,-96,-115,-127,-135,-140,-144,-147,-150,-153,-154,-153,-151,-148,-146,-144,-142,-141,-140,-141,-144,-148,-152,-156,-160,-165,-169,-172,-174,-177,-178,-180,-182,-183,-185,-186,-188,-189,-189,-188,-186,-183,-180,-176,-173,-167,-162,-157,-154,-150,-138,-106,-53,24,134,282,467,671,856,950,943,814,524,155,-207,-478,-594,-609,-569,-536,-526,-538,-559,-571,-575,-578,-577,-569,-546,-495,-423,-345,-272,-209,-158,-117,-88,-70,-58,-51,-43,-34,-24,-14,-7,0,3,5,8,10,13,16,19,22,27,35,47,59,71,83,94,104,116,126,136,146,157,171,187,201,216,230,246,261,277,286,293,296,296,292,285,274,256,239,221,201,183,165,146,128,110,93,76,59,41,23,4,-14,-32,-45,-56,-67,-79,-90,-95,-98,-101,-103,-104,-103,-100,-95,-80,-44,10,90,203,351,532,720,863,916,834,608,277,-81,-385,-575,-633,-606,-556,-533,-526,-521,-516,-512,-504,-492,-474,-432,-365,-286,-214,-161,-126,-107,-98,-94,-91,-88,-84,-81,-78,-75,-71,-67,-63,-58,-53,-48,-41,-30,-23,-17,-14,-9,-3,3,12,22,29,33,41,54,71,87,98,105,111,117,126,140,153,162,170,178,186,196,207,216,218,220,222,221,212,200,185,171,156,139,122,97,71,53,33,15,0,-16,-32,-47,-59,-66,-72,-76,-78,-80,-82,-83,-84,-84,-84,-84,-83,-81,-77,-72,-65,-37,20,102,215,363,543,743,910,981,927,745,470,170,-69,-206,-232,-177,-103,-71,-60,-66,-82,-102,-107,-111,-113,-115,-115,-115,-114,-113,-111,-109,-106,-102,-95,-88,-81,-77,-73,-70,-67,-64,-61,-58,-55,-51,-46,-42,-39,-35,-29,-18,3,26,35,39,41,44,49,55,61,67,72,76,80,88,99,104,106,108,110,111,111,111,111,110,108,105,102,98,91,79,73,68,65,61,55,49,42,34,27,21,12,0,-6,-12,-11,-3,21,62,125,212,325,460,614,777,933,1044,1065,982,799,544,275,50,-92,-127,-124,-99,-84,-82,-90,-101,-112,-118,-121,-123,-123,-121,-116,-109,-101,-90,-85,-81,-78,-76,-76,-80,-86,-91,-98,-103,-107,-110,-113,-115,-117,-117,-118,-116,-114,-111,-107,-102,-94,-88,-83,-79,-76,-73,-71,-69,-67,-65,-63,-62,-60,-58,-57,-55,-54,-53,-53,-53,-53,-54,-56,-59,-62,-66,-74,-82,-90,-98,-109,-116,-122,-126,-127,-128,-128,-129,-129,-128,-120,-100,-70,-18,60,169,308,480,674,853,945,941,831,585,285,9,-185,-249,-252,-202,-170,-159,-159,-166,-173,-179,-170,-162,-157,-152,-152,-155,-159,-163,-168,-171,-169,-162,-152,-140,-130,-118,-111,-108,-105,-103,-100,-97,-95,-92,-86,-73,-61,-54,-50,-48,-46,-43,-41,-41,-42,-45,-47,-51,-49,-37,-28,-19,-13,-10,-7,-2,5,10,13,15,13,9,5,2,-1,-6,-12,-21,-32,-42,-46,-49,-52,-53,-54,-55,-56,-56,-56,-55,-54,-53,-51,-48,-35,-11,22,68,126,202,301,429,587,760,913,985,977,865,636,364,120,-32,-86,-59,-6,13,19,9,-19,-36,-42,-42,-35,-31,-28,-26,-24,-23,-22,-21,-20,-18,-16,-14,-13,-11,-9,-7,-4,0,4,8,12,18,22,24,23,19,15,11,6,4,6,12,19,32,43,49,55,62,70,79,83,86,89,91,92,91,89,84,78,66,52,46,43,39,35,30,20,7,-1,-7,-15,-26,-42,-61,-78,-88,-95,-100,-104,-106,-109,-111,-113,-113,-112,-110,-107,-102,-94,-78,-51,-5,61,153,272,422,603,806,1004,1151,1200,1116,897,595,281,29,-117,-158,-136,-108,-98,-105,-117,-124,-125,-126,-127,-127,-127,-126,-124,-120,-116,-112,-106,-101,-96,-92,-89,-86,-83,-80,-78,-76,-75,-74,-73,-72,-71,-70,-69,-67,-66,-63,-60,-54,-48,-41,-32,-26,-21,-16,-9,-3,0,3,5,7,10,13,16,21,27,37,46,53,59,62,59,52,43,26,7,-10,-27,-45,-64,-81,-89,-92,-95,-98,-100,-102,-103,-104,-105,-104,-104,-103,-101,-100,-98,-97,-95,-94,-91,-87,-82,-78,-74,-70,-64,-59,-54,-41,-16,24,86,171,282,419,581,766,940,1048,1054,978,759,472,187,-29,-134,-150,-126,-106,-100,-113,-129,-139,-131,-118,-107,-103,-101,-101,-100,-99,-98,-97,-94,-93,-91,-89,-87,-82,-73,-64,-58,-55,-52,-49,-46,-43,-41,-38,-33,-25,-19,-11,0,10,18,26,30,34,36,39,41,45,48,51,54,57,60,62,64,66,67,69,70,73,75,74,71,66,60,53,44,32,18,10,6,4,0,-3,-8,-13,-19,-25,-31,-37,-42,-45,-48,-51,-53,-55,-56,-57,-57,-56,-55,-54,-52,-50,-48,-45,-40,-30,-26,-25,-24,-23,-23,-22,-21,-20,-18,-17,-15,-14,-12,-11,-9,-6,-3,-1,0,0,-1,-3,-7,-12,-21,-28,-33,-37,-40,-42,-42,-41,-38,-34,-31,-28,-25,-22,-20,-19,-18,-16,-14,-11,-13,-22,-27,-30,-32,-34,-36,-38,-40,-42,-42,-42,-42,-41,-41,-40,-39,-37,-35,-33,-31,-29,-28,-26,-24,-22,-21,-19,-19,-19,-19,-20,-20,-21,-22,-23,-24,-26,-28,-31,-31,-27,-22,-18,-14,-11,-8,-6,-4,-2,0,2,4,2,-1,-5,-10,-10,-2,2,6,9,13,17,21,23,26,28,29,31,32,33,33,34,35,35,35,36,37,38,39,40,40,40,39,39,38,38,38,38,39,40,41,43,44,46,49,54,65,74,85,98,109,114,117,119,121,122,121,120,118,117,116,115,114,114,113,112,111,110,108,107,106,104,101,93,80,74,70,66,59,51,41,30,23,19,12,4,-1,-5,2,27,71,133,221,346,512,721,955,1172,1290,1287,1148,843,479,155,-59,-126,-130,-86,-70,-67,-65,-64,-63,-64,-65,-67,-69,-71,-74,-75,-75,-74,-73,-71,-69,-66,-62,-58,-53,-49,-45,-42,-40,-37,-35,-32,-30,-27,-25,-22,-19,-14,-8,-2,1,7,14,21,31,43,54,68,77,82,87,93,100,109,120,128,135,142,150,161,173,181,187,187,180,173,167,160,152,140,124,100,77,61,43,27,5,-17,-43,-60,-72,-79,-85,-92,-99,-103,-106,-108,-109,-111,-113,-115,-117,-119,-121,-123,-125,-127,-130,-133,-138,-143,-146,-147,-148,-149,-152,-156,-155,-147,-142,-139,-137,-135,-134,-134,-133,-133,-134,-135,-136,-138,-139,-141,-142,-143,-144,-144,-143,-142,-140,-137,-126,-96,-41,47,177,350,557,772,953,1045,1006,817,503,128,-208,-432,-514,-487,-425,-409,-415,-461,-503,-524,-523,-498,-468,-438,-403,-357,-301,-241,-180,-126,-83,-51,-24,-8,0,4,7,10,13,18,22,27,32,38,43,47,50,52,55,62,74,88,102,117,131,144,158,174,189,198,203,206,211,217,224,238,258,273,283,291,296,300,303,303,299,291,279,261,245,228,211,195,168,142,112,92,71,52,34,17,3,-12,-25,-35,-46,-62,-79,-89,-95,-101,-108,-113,-118,-122,-124,-123,-120,-114,-97,-64,-6,80,196,343,514,699,870,956,948,821,533,160,-193,-452,-554,-564,-513,-472,-461,-455,-450,-447,-444,-429,-399,-370,-331,-281,-226,-175,-130,-94,-64,-47,-40,-36,-34,-32,-30,-28,-26,-23,-21,-17,-11,-1,4,9,13,18,25,34,44,50,58,70,84,98,110,120,128,137,145,155,169,185,201,216,228,241,254,268,280,289,297,302,307,310,310,308,305,294,273,249,225,212,190,167,153,138,124,112,100,87,73,56,40,28,19,13,10,8,6,5,3,1,0,-2,-5,-9,-11,-7,-1,4,9,14,18,23,28,34,39,43,46,52,66,84,103,122,140,169,213,279,374,500,658,846,1039,1180,1222,1127,901,592,281,35,-74,-89,-55,-22,-20,-43,-72,-89,-95,-87,-79,-71,-68,-70,-76,-80,-83,-86,-88,-88,-85,-82,-77,-70,-60,-53,-47,-43,-39,-33,-26,-22,-18,-15,-12,-10,-8,-7,-6,-4,-3,-1,1,7,15,23,32,41,51,60,65,69,72,74,76,77,78,80,82,83,81,75,67,55,41,25,7,-9,-24,-39,-52,-67,-83,-99,-109,-114,-119,-125,-130,-133,-135,-136,-138,-139,-140,-140,-141,-142,-143,-143,-143,-142,-141,-139,-138,-136,-134,-132,-129,-126,-119,-107,-103,-100,-99,-98,-98,-100,-104,-109,-118,-135,-147,-154,-159,-161,-163,-163,-164,-166,-167,-168,-168,-168,-167,-167,-166,-164,-162,-159,-156,-153,-150,-146,-142,-140,-139,-138,-135,-125,-103,-68,-9,81,212,383,585,799,985,1077,1034,833,513,154,-151,-335,-379,-327,-240,-174,-148,-138,-135,-137,-142,-151,-163,-172,-178,-170,-163,-160,-158,-156,-154,-152,-151,-149,-148,-145,-142,-136,-125,-119,-116,-113,-110,-107,-103,-98,-93,-87,-83,-78,-68,-54,-39,-25,-11,0,9,20,34,49,64,75,84,91,97,104,111,121,131,137,144,154,163,170,170,164,149,125,97,66,35,7,-18,-41,-55,-69,-82,-96,-109,-122,-134,-145,-155,-161,-165,-167,-165,-162,-161,-160,-159,-158,-157,-156,-155,-153,-152,-151,-150,-149,-147,-144,-140,-134,-129,-111,-77,-27,41,137,267,434,626,804,933,967,868,628,289,-75,-390,-589,-639,-640,-594,-565,-519,-457,-371,-264,-162,-106,-87,-95,-104,-112,-113,-106,-97,-84,-76,-72,-70,-67,-64,-62,-58,-53,-44,-35,-29,-24,-20,-17,-13,-10,-5,0,7,13,24,37,42,45,47,50,54,59,64,73,86,92,100,112,128,144,153,159,163,165,166,166,164,160,154,135,112,100,82,61,33,2,-24,-49,-64,-79,-93,-108,-121,-129,-134,-137,-140,-143,-145,-146,-147,-148,-149,-150,-151,-151,-152,-153,-153,-152,-151,-150,-148,-147,-145,-144,-142,-140,-138,-136,-132,-128,-123,-120,-116,-112,-106,-102,-100,-99,-98,-98,-98,-98,-97,-96,-95,-93,-92,-92,-91,-90,-88,-86,-84,-81,-78,-74,-69,-65,-61,-58,-55,-51,-46,-41,-40,-40,-39,-38,-35,-39,-42,-44,-46,-47,-47,-44,-39,-34,-29,-23,-17,-14,-12,-7,2,10,13,15,17,19,19,19,18,16,15,14,13,11,9,7,6,6,8,11,14,18,21,25,30,34,38,47,61,68,71,73,74,75,76,77,78,80,81,81,82,83,84,85,85,86,88,91,96,101,105,107,108,109,110,110,111,111,112,114,115,115,115,116,117,119,121,123,125,128,131,134,137,139,142,144,146,148,151,153,156,160,168,181,193,205,218,229,234,237,240,242,243,243,241,239,237,234,232,229,225,222,219,215,210,203,192,183,170,156,143,130,123,120,118,116,114,112,111,110,108,102,102,118,155,219,317,456,634,847,1075,1268,1375,1345,1162,857,504,202,13,-33,-29,3,20,13,9,7,5,3,1,0,0,-1,-2,-3,-3,-2,0,1,3,4,5,5,6,7,7,8,10,12,14,16,19,21,23,24,26,28,30,37,49,59,66,74,79,82,84,87,91,94,97,101,106,114,120,124,132,143,150,153,156,157,157,155,152,147,138,121,102,85,67,53,33,10,-14,-40,-64,-86,-101,-114,-121,-130,-141,-146,-149,-152,-154,-155,-157,-158,-158,-160,-162,-164,-165,-167,-168,-169,-171,-173,-175,-178,-180,-186,-192,-197,-201,-203,-205,-207,-210,-212,-213,-213,-211,-209,-206,-203,-201,-199,-197,-195,-193,-192,-192,-192,-193,-194,-194,-195,-196,-198,-189,-158,-110,-32,79,230,414,610,776,850,839,704,432,93,-233,-469,-563,-573,-527,-504,-504,-526,-561,-574,-574,-565,-551,-532,-495,-439,-374,-309,-252,-205,-165,-130,-110,-96,-87,-80,-74,-69,-66,-63,-60,-55,-49,-44,-38,-32,-26,-21,-17,-13,-5,8,17,21,26,31,38,45,53,65,73,79,87,102,120,138,152,164,174,189,202,211,216,207,192,175,156,138,121,105,78,51,23,4,-15,-33,-57,-82,-110,-141,-160,-179,-196,-207,-215,-222,-231,-243,-257,-271,-284,-296,-308,-318,-322,-326,-325,-314,-286,-239,-171,-76,49,209,407,618,793,887,854,690,423,125,-137,-308,-366,-367,-351,-345,-340,-336,-333,-331,-328,-327,-325,-324,-321,-316,-309,-307,-306,-305,-304,-303,-305,-310,-315,-319,-323,-326,-329,-330,-331,-332,-332,-333,-333,-334,-333,-331,-326,-321,-315,-307,-296,-281,-271,-264,-257,-250,-246,-242,-239,-235,-232,-229,-225,-220,-211,-203,-193,-180,-165,-157,-154,-152,-159,-166,-171,-176,-181,-187,-194,-204,-209,-213,-217,-222,-229,-233,-238,-242,-244,-242,-238,-233,-228,-222,-217,-213,-209,-203,-196,-187,-176,-163,-149,-136,-116,-94,-71,-49,-24,9,59,127,219,346,516,726,957,1151,1240,1197,1019,747,454,213,76,39,65,107,138,156,170,181,185,187,189,190,191,193,195,198,202,208,217,226,237,250,263,275,287,299,311,324,336,350,365,382,397,407,416,424,432,442,452,462,469,479,491,503,519,528,532,535,538,539,540,541,540,540,539,537,534,531,525,512,498,486,474,462,449,434,408,383,368,352,338,326,312,295,278,266,259,252,246,240,232,223,216,211,207,206,207,213,221,245,305,394,514,666,848,1054,1258,1381,1385,1281,1011,657,308,47,-56,-65,-7,60,84,91,82,53,27,14,9,8,6,5,3,1,0,-2,-5,-11,-22,-34,-46,-54,-58,-63,-68,-72,-75,-78,-80,-82,-83,-83,-83,-82,-80,-78,-75,-72,-69,-66,-63,-61,-59,-56,-52,-48,-45,-41,-37,-33,-28,-22,-17,-12,-7,-1,1,3,2,0,-2,-6,-14,-31,-45,-56,-62,-70,-81,-95,-107,-115,-120,-122,-120,-113,-95,-56,4,84,186,312,462,627,779,864,864,776,568,299,31,-179,-282,-297,-271,-226,-208,-201,-201,-203,-206,-208,-209,-205,-199,-194,-191,-188,-185,-182,-178,-175,-172,-168,-165,-162,-160,-158,-156,-153,-151,-147,-144,-140,-136,-134,-131,-127,-123,-119,-114,-110,-106,-102,-98,-95,-92,-89,-86,-81,-72,-66,-61,-57,-54,-49,-45,-39,-33,-30,-32,-36,-39,-41,-43,-46,-49,-52,-55,-59,-62,-67,-71,-73,-75,-78,-81,-81,-71,-63,-56,-50,-45,-41,-35,-28,-23,-18,-13,-8
