426,519,614,710,791,821,828,834,838,840,842,842,842,841,838,834,829,822,817,809,797,785,774,762,745,723,704,680,648,614,581,553,533,514,503,496,491,487,483,478,474,469,464,459,452,444,436,430,424,419,416,414,413,411,411,411,411,411,411,409,408,405,403,401,398,396,394,391,388,384,378,365,354,354,361,376,423,500,603,722,846,961,1026,1047,1022,949,835,695,541,391,256,147,79,56,70,92,123,139,144,148,152,154,156,158,160,163,165,168,169,170,170,170,170,171,172,174,177,181,186,191,198,206,214,222,229,235,241,246,251,256,261,266,270,275,281,291,309,331,345,355,363,368,370,368,363,357,349,339,326,312,299,284,265,249,228,204,181,158,136,108,81,62,47,28,2,-20,-35,-43,-46,-50,-53,-54,-54,-51,-45,-37,-29,-21,-10,-1,4,8,11,13,15,17,19,20,20,17,12,6,0,-4,-9,-14,-18,-23,-27,-32,-36,-40,-44,-48,-52,-57,-63,-70,-76,-81,-85,-89,-92,-95,-97,-99,-101,-102,-104,-105,-106,-106,-105,-105,-103,-100,-97,-93,-90,-88,-85,-81,-75,-70,-70,-75,-84,-95,-106,-122,-130,-123,-104,-49,37,149,278,416,550,662,723,727,690,599,481,345,202,65,-50,-141,-184,-197,-206,-210,-210,-205,-198,-192,-189,-187,-185,-182,-179,-177,-174,-173,-170,-168,-166,-165,-163,-161,-159,-156,-153,-149,-142,-124,-110,-97,-86,-75,-63,-49,-33,-16,2,20,37,54,71,90,106,117,127,137,145,149,152,155,157,159,161,162,163,163,164,163,162,160,157,154,149,145,140,132,116,98,81,68,56,44,32,19,13,9,8,7,6,5,5,5,5,6,8,11,14,19,23,27,30,33,35,38,40,41,43,44,45,45,45,44,42,38,34,30,25,21,16,13,10,7,5,2,0,-3,-6,-9,-12,-15,-17,-20,-22,-24,-26,-28,-30,-33,-35,-38,-41,-44,-47,-50,-54,-57,-60,-63,-66,-70,-77,-90,-100,-107,-111,-116,-120,-123,-119,-111,-102,-97,-94,-90,-86,-82,-77,-74,-71,-71,-72,-73,-75,-78,-81,-84,-87,-89,-91,-93,-96,-100,-103,-103,-102,-99,-97,-96,-94,-92,-89,-87,-88,-93,-99,-107,-114,-121,-130,-139,-150,-161,-173,-189,-196,-190,-175,-133,-61,34,153,286,418,529,590,610,589,524,411,274,125,-17,-137,-223,-263,-278,-278,-262,-237,-203,-184,-175,-168,-164,-159,-154,-149,-145,-143,-140,-138,-136,-134,-132,-131,-128,-126,-122,-119,-117,-115,-113,-110,-107,-103,-98,-92,-86,-79,-73,-67,-60,-53,-45,-35,-26,-18,-11,0,14,32,44,52,60,69,80,90,97,103,109,113,117,120,121,121,120,118,115,111,105,99,91,78,64,51,36,22,7,-6,-23,-41,-61,-74,-85,-94,-101,-108,-113,-119,-125,-131,-136,-141,-145,-148,-151,-153,-155,-156,-156,-157,-157,-156,-155,-153,-150,-146,-143,-139,-135,-130,-128,-130,-137,-147,-164,-190,-208,-220,-219,-203,-155,-70,48,198,367,532,668,734,730,643,457,215,-31,-234,-341,-376,-363,-324,-270,-240,-223,-214,-209,-205,-201,-197,-194,-192,-189,-187,-185,-183,-181,-179,-176,-172,-167,-162,-157,-153,-149,-145,-141,-137,-132,-128,-123,-119,-116,-113,-111,-109,-106,-102,-96,-85,-74,-63,-50,-34,-17,6,36,54,64,73,84,95,109,126,132,134,136,138,139,138,131,119,100,69,45,26,2,-10,-18,-24,-29,-33,-36,-39,-42,-45,-48,-53,-57,-63,-70,-78,-92,-106,-112,-116,-119,-121,-123,-125,-127,-129,-131,-133,-134,-134,-134,-134,-134,-134,-134,-133,-132,-132,-132,-132,-132,-133,-135,-138,-140,-141,-142,-144,-146,-149,-157,-164,-168,-165,-158,-147,-113,-40,64,201,362,533,683,776,786,738,587,371,135,-66,-199,-236,-235,-192,-163,-152,-149,-151,-154,-158,-163,-160,-140,-130,-125,-120,-117,-115,-113,-111,-108,-106,-103,-101,-99,-98,-97,-96,-95,-93,-92,-90,-86,-81,-74,-67,-61,-54,-48,-41,-34,-27,-19,-9,3,23,44,73,107,125,136,144,152,159,166,172,180,187,192,196,200,204,211,214,208,195,183,170,157,145,130,113,91,74,60,52,47,45,43,42,41,40,39,38,36,34,31,29,26,23,20,19,17,16,14,13,10,8,5,2,0,-3,-6,-8,-9,-11,-12,-13,-14,-15,-18,-25,-28,-23,-9,27,95,194,324,479,649,818,957,1022,1017,920,705,435,168,-44,-171,-191,-186,-138,-97,-77,-63,-52,-45,-41,-39,-37,-35,-34,-34,-35,-36,-39,-41,-44,-47,-51,-55,-58,-58,-53,-46,-39,-32,-25,-17,-10,-3,3,11,19,28,35,43,51,60,69,78,90,103,118,133,148,160,177,199,215,224,230,234,236,240,245,244,234,220,203,187,169,150,127,100,74,48,24,2,-21,-40,-51,-61,-68,-77,-85,-89,-91,-94,-97,-89,-81,-77,-73,-68,-64,-60,-57,-53,-49,-45,-40,-36,-32,-28,-24,-20,-17,-16,-16,-18,-21,-25,-29,-34,-40,-47,-53,-58,-61,-64,-66,-69,-71,-73,-75,-76,-77,-78,-79,-79,-78,-77,-75,-74,-73,-72,-70,-68,-66,-64,-62,-59,-55,-50,-46,-42,-39,-35,-31,-27,-21,-16,-14,-16,-20,-27,-38,-54,-79,-104,-113,-107,-91,-33,57,183,343,523,707,874,989,1018,945,779,546,284,37,-147,-250,-270,-267,-232,-201,-186,-177,-169,-160,-153,-147,-144,-143,-146,-150,-154,-158,-162,-162,-158,-153,-143,-130,-124,-121,-117,-113,-107,-100,-88,-69,-54,-42,-32,-19,-4,3,7,11,14,18,21,26,32,42,48,57,70,86,104,127,145,152,157,160,162,163,162,159,156,152,148,144,139,134,127,119,103,79,61,47,37,28,21,14,8,2,-1,-5,-10,-17,-22,-25,-28,-30,-33,-35,-36,-38,-39,-39,-39,-39,-38,-37,-35,-33,-30,-28,-25,-22,-19,-17,-14,-12,-9,-7,-5,-3,-2,0,1,3,5,6,7,7,7,7,7,7,5,4,2,0,0,-6,-5,19,83,192,349,543,743,913,1003,1002,907,701,444,181,-40,-195,-262,-270,-239,-179,-123,-81,-71,-69,-69,-81,-91,-96,-100,-103,-106,-106,-106,-104,-102,-99,-95,-89,-77,-66,-50,-30,-8,14,29,37,43,47,51,54,58,62,66,71,78,90,107,122,138,150,158,166,175,181,185,189,192,194,195,196,197,199,201,202,197,185,172,156,145,129,108,84,60,40,25,14,1,-17,-38,-54,-59,-60,-61,-62,-63,-64,-65,-65,-65,-65,-65,-65,-65,-65,-65,-65,-64,-64,-63,-63,-63,-64,-64,-64,-64,-65,-65,-66,-67,-67,-67,-68,-69,-70,-71,-72,-73,-75,-79,-81,-80,-79,-77,-77,-76,-75,-74,-74,-73,-72,-70,-69,-68,-67,-66,-65,-63,-61,-56,-43,-30,-21,-17,-14,-12,-10,-14,-21,-25,-27,-28,-29,-29,-29,-30,-30,-31,-31,-32,-34,-35,-36,-36,-36,-37,-38,-39,-40,-41,-42,-44,-47,-50,-53,-56,-58,-60,-63,-66,-72,-80,-82,-83,-85,-84,-76,-70,-64,-61,-59,-57,-56,-54,-52,-50,-50,-50,-51,-53,-55,-57,-58,-60,-61,-63,-65,-67,-70,-73,-77,-84,-92,-85,-65,-9,79,201,356,531,706,856,937,940,873,694,458,213,-4,-169,-259,-274,-272,-245,-212,-181,-160,-137,-122,-118,-116,-115,-114,-113,-112,-110,-108,-106,-104,-102,-100,-98,-96,-94,-92,-89,-86,-83,-79,-74,-65,-55,-45,-35,-27,-15,0,14,28,38,43,47,52,57,63,71,82,96,112,127,143,159,174,181,185,188,191,192,193,192,191,190,188,186,184,182,179,175,170,162,149,127,110,97,86,73,56,38,20,8,1,-2,-6,-10,-14,-19,-22,-23,-21,-18,-14,-12,-11,-9,-7,-6,-5,-5,-5,-6,-6,-7,-8,-10,-12,-13,-15,-16,-17,-19,-20,-22,-24,-25,-25,-25,-26,-26,-25,-25,-25,-24,-24,-24,-24,-24,-25,-25,-25,-25,-24,-23,-23,-23,-24,-24,-25,-26,-28,-30,-33,-36,-40,-45,-58,-79,-90,-98,-86,-50,21,130,273,437,604,745,825,830,782,636,426,189,-20,-172,-237,-244,-212,-160,-115,-96,-87,-83,-80,-78,-74,-70,-65,-58,-45,-23,-8,0,3,-1,-12,-28,-51,-71,-83,-87,-90,-94,-83,-70,-57,-42,-33,-28,-24,-21,-18,-13,-10,-7,-3,2,14,37,60,84,107,130,154,177,190,197,202,206,207,207,205,202,198,193,185,172,163,150,133,115,95,74,53,37,25,10,-5,-20,-32,-44,-56,-66,-76,-86,-98,-109,-119,-123,-124,-126,-127,-129,-129,-129,-127,-124,-120,-117,-114,-110,-106,-101,-97,-91,-86,-79,-72,-65,-58,-55,-52,-49,-46,-43,-40,-38,-37,-36,-36,-36,-36,-37,-38,-40,-42,-44,-46,-49,-52,-57,-70,-82,-92,-100,-107,-112,-116,-120,-123,-126,-128,-129,-128,-124,-119,-114,-108,-101,-94,-89,-84,-81,-78,-76,-75,-73,-71,-69,-68,-67,-65,-64,-62,-61,-61,-60,-59,-58,-57,-55,-53,-52,-51,-51,-51,-51,-52,-54,-57,-61,-65,-70,-79,-93,-96,-97,-98,-98,-99,-99,-99,-99,-98,-96,-94,-93,-91,-89,-88,-86,-85,-84,-82,-80,-69,-28,45,158,308,484,663,816,920,950,886,732,517,280,63,-111,-223,-256,-254,-211,-151,-101,-81,-73,-74,-85,-100,-118,-126,-131,-134,-136,-136,-133,-129,-124,-120,-115,-110,-106,-102,-98,-93,-86,-75,-65,-54,-43,-28,-12,1,13,22,29,35,42,49,62,81,94,102,110,117,126,137,149,161,170,178,184,193,209,222,230,236,241,246,250,253,254,252,248,241,233,221,209,193,170,143,122,94,68,39,21,1,-16,-23,-26,-29,-31,-33,-35,-36,-37,-38,-39,-39,-39,-39,-38,-38,-38,-37,-36,-36,-35,-33,-32,-29,-26,-23,-20,-16,-11,-3,4,12,18,21,23,25,27,28,30,31,32,33,33,33,33,32,31,28,26,23,20,17,14,11,6,1,-3,-8,-12,-17,-19,-22,-24,-27,-29,-31,-33,-35,-36,-37,-37,-37,-35,-33,-31,-28,-26,-23,-20,-17,-15,-12,-10,-7,-3,0,4,7,8,10,10,9,7,4,1,-2,-5,-7,-9,-11,-15,-18,-21,-24,-27,-29,-31,-34,-36,-38,-39,-40,-41,-43,-45,-47,-48,-49,-50,-51,-52,-52,-51,-48,-45,-41,-38,-35,-31,-28,-22,-15,-10,-10,-14,-21,-31,-49,-72,-84,-93,-82,-48,21,134,288,473,663,831,951,996,952,816,605,355,111,-81,-197,-222,-217,-170,-132,-122,-116,-108,-100,-91,-69,-51,-45,-40,-37,-40,-46,-50,-53,-55,-56,-57,-59,-62,-65,-68,-70,-72,-75,-78,-80,-79,-75,-67,-59,-53,-46,-39,-33,-29,-25,-22,-17,-8,1,15,34,55,76,94,108,123,144,167,177,182,185,188,190,191,192,192,191,190,187,184,180,174,163,142,126,105,82,56,28,0,-21,-38,-52,-61,-68,-74,-77,-79,-81,-81,-82,-84,-85,-86,-87,-88,-88,-88,-88,-86,-84,-80,-76,-71,-67,-64,-59,-49,-40,-31,-27,-25,-24,-22,-19,-17,-14,-10,-7,-4,-1,1,3,6,9,13,21,29,33,31,26,18,9,-4,-17,-23,-27,-31,-35,-38,-40,-41,-42,-42,-41,-41,-39,-38,-35,-33,-29,-26,-22,-19,-16,-12,-8,-5,-4,-4,-5,-7,-10,-15,-21,-34,-60,-81,-95,-95,-87,-64,9,121,270,447,636,816,964,1038,1037,956,766,516,259,43,-97,-152,-169,-179,-183,-181,-174,-162,-140,-107,-87,-73,-67,-70,-77,-83,-89,-94,-97,-94,-89,-82,-78,-76,-73,-70,-67,-63,-60,-56,-53,-50,-46,-39,-25,-12,-2,4,11,19,27,36,47,57,68,85,111,131,143,152,159,168,178,187,192,197,200,202,203,201,197,191,183,167,142,119,96,77,63,50,36,23,7,-7,-22,-34,-45,-55,-62,-68,-71,-74,-76,-78,-80,-82,-84,-86,-88,-89,-91,-93,-95,-95,-95,-92,-88,-84,-79,-75,-72,-68,-65,-61,-59,-57,-57,-57,-57,-58,-58,-59,-60,-61,-62,-62,-63,-64,-65,-66,-66,-63,-57,-51,-47,-44,-40,-37,-35,-33,-33,-34,-35,-38,-40,-42,-43,-44,-45,-46,-47,-48,-48,-48,-48,-48,-48,-48,-48,-47,-47,-47,-47,-47,-47,-47,-47,-48,-49,-50,-51,-52,-54,-55,-58,-62,-64,-66,-64,-59,-52,-44,-36,-25,-16,-12,-9,-7,-6,-4,-3,-2,-1,0,0,0,0,-1,-1,-2,-4,-7,-10,-12,-15,-17,-20,-23,-27,-33,-39,-47,-58,-73,-74,-65,-37,36,153,310,499,696,875,1004,1053,1006,867,654,404,162,-35,-160,-204,-204,-174,-151,-139,-134,-130,-127,-123,-118,-113,-107,-100,-94,-86,-79,-73,-68,-63,-59,-56,-53,-50,-48,-45,-43,-40,-38,-36,-34,-30,-25,-14,9,28,42,53,61,68,74,84,96,112,132,146,159,173,187,193,197,201,205,208,209,210,211,211,210,209,207,203,199,195,190,182,166,155,144,133,120,105,83,59,38,23,11,-1,-15,-28,-39,-44,-47,-49,-52,-54,-55,-56,-56,-56,-55,-55,-54,-53,-51,-50,-49,-48,-47,-45,-43,-41,-40,-42,-45,-49,-53,-56,-61,-66,-70,-70,-69,-66,-63,-62,-61,-60,-59,-57,-56,-54,-53,-52,-52,-52,-53,-55,-58,-60,-63,-65,-69,-75,-94,-109,-119,-123,-121,-115,-99,-34,71,214,380,554,713,835,890,854,720,503,246,-2,-203,-312,-329,-310,-258,-213,-192,-181,-174,-169,-165,-162,-157,-150,-160,-170,-177,-182,-183,-181,-175,-168,-162,-157,-152,-147,-144,-141,-137,-131,-122,-112,-97,-80,-65,-54,-44,-36,-29,-21,-9,3,18,28,40,58,77,96,116,134,144,151,158,165,170,175,179,181,181,179,175,169,159,140,118,97,74,51,28,6,-16,-38,-56,-70,-81,-92,-103,-112,-117,-121,-125,-127,-128,-128,-126,-123,-120,-118,-116,-114,-111,-108,-107,-107,-108,-109,-110,-111,-111,-112,-114,-115,-115,-111,-107,-103,-100,-98,-95,-92,-89,-86,-83,-81,-79,-77,-75,-74,-73,-71,-70,-69,-68,-67,-66,-66,-66,-67,-67,-69,-71,-74,-78,-83,-92,-93,-86,-68,-13,74,198,351,518,673,780,811,755,612,402,164,-63,-237,-328,-341,-317,-243,-168,-116,-105,-102,-100,-98,-95,-92,-87,-76,-60,-52,-49,-46,-45,-44,-42,-40,-38,-36,-34,-32,-29,-26,-21,-16,-10,-4,0,6,10,14,19,27,43,62,81,96,107,117,131,151,165,172,178,183,186,190,195,202,210,216,221,225,227,228,231,234,224,208,190,175,158,141,123,104,85,66,47,30,14,0,-16,-30,-40,-45,-50,-54,-47,-36,-27,-24,-22,-21,-20,-19,-20,-22,-24,-26,-29,-35,-35,-27,-22,-17,-13,-12,-12,-12,-12,-12,-12,-11,-11,-13,-16,-18,-21,-22,-20,-14,-6,4,9,12,14,15,14,12,9,5,0,-7,-10,-11,-12,-13,-15,-16,-17,-19,-21,-22,-24,-26,-29,-31,-33,-36,-40,-43,-46,-49,-51,-53,-55,-57,-61,-65,-65,-60,-54,-49,-44,-39,-38,-40,-44,-50,-57,-66,-66,-52,-13,61,171,310,472,641,797,913,964,929,805,605,367,139,-49,-175,-213,-212,-170,-121,-81,-64,-59,-56,-54,-53,-52,-52,-52,-52,-53,-55,-57,-59,-63,-69,-63,-52,-42,-36,-32,-27,-19,-12,-7,-3,1,4,8,17,32,43,50,57,64,74,87,98,110,125,143,159,172,181,191,199,204,207,209,211,212,212,212,209,205,200,191,175,164,155,145,138,132,126,121,116,98,75,61,46,30,15,2,-5,-10,-13,-9,-3,0,2,3,5,7,9,11,12,14,16,16,18,19,20,21,22,23,25,26,28,30,31,31,31,30,29,28,26,23,17,3,-9,-18,-27,-34,-39,-44,-49,-55,-60,-64,-68,-71,-74,-76,-78,-78,-78,-78,-77,-75,-73,-70,-67,-63,-57,-45,-39,-37,-36,-34,-33,-31,-29,-28,-27,-26,-26,-26,-26,-27,-27,-27,-28,-28,-28,-27,-27,-27,-28,-28,-29,-30,-31,-33,-35,-38,-40,-42,-47,-61,-68,-71,-73,-75,-77,-78,-79,-80,-81,-82,-82,-81,-81,-80,-79,-77,-76,-74,-72,-69,-67,-64,-61,-58,-54,-50,-45,-41,-37,-33,-30,-30,-32,-37,-43,-52,-64,-66,-67,-68,-69,-70,-70,-70,-69,-67,-62,-48,-15,43,135,262,422,600,776,926,1012,1017,951,757,493,211,-31,-192,-238,-239,-198,-146,-121,-113,-123,-141,-155,-164,-169,-161,-147,-131,-118,-109,-104,-102,-100,-99,-97,-95,-92,-89,-85,-80,-70,-59,-50,-43,-37,-32,-27,-19,-9,0,9,16,23,30,42,59,74,85,95,108,124,138,156,168,173,178,181,183,184,184,182,179,177,174,172,169,167,164,161,157,154,151,147,141,128,106,86,67,50,38,27,13,-5,-14,-17,-19,-21,-22,-23,-24,-24,-25,-26,-27,-28,-29,-29,-29,-29,-29,-29,-30,-30,-31,-32,-34,-36,-39,-41,-44,-47,-51,-54,-57,-61,-65,-70,-76,-83,-85,-82,-76,-68,-60,-49,-39,-30,-25,-20,-16,-13,-11,-10,-10,-12,-16,-22,-30,-44,-71,-97,-114,-127,-126,-96,-30,70,205,368,542,710,843,889,875,760,552,301,58,-131,-244,-259,-250,-189,-151,-141,-136,-131,-127,-124,-121,-120,-118,-116,-116,-116,-115,-115,-115,-114,-112,-111,-110,-109,-109,-109,-108,-107,-105,-103,-101,-98,-94,-85,-75,-62,-48,-31,-16,-1,13,26,44,65,83,96,107,116,126,143,153,161,167,171,173,171,168,163,158,152,145,138,131,122,107,81,52,26,2,-20,-42,-63,-81,-93,-96,-96,-97,-98,-98,-99,-100,-101,-102,-103,-105,-107,-109,-111,-113,-119,-122,-118,-107,-96,-83,-70,-60,-52,-47,-45,-44,-42,-41,-40,-38,-37,-35,-31,-26,-21,-16,-11,-7,-4,-5,-10,-16,-25,-35,-50,-56,-58,-60,-61,-61,-61,-62,-62,-62,-62,-61,-61,-61,-61,-61,-61,-62,-63,-64,-65,-67,-69,-71,-75,-78,-90,-110,-121,-129,-121,-95,-34,66,207,382,572,750,886,936,928,831,636,386,131,-74,-180,-198,-177,-116,-59,-41,-37,-33,-30,-30,-36,-43,-47,-49,-52,-54,-56,-58,-60,-63,-65,-66,-66,-66,-66,-66,-66,-67,-67,-68,-70,-74,-73,-63,-55,-48,-41,-33,-23,-6,19,39,54,66,82,103,127,150,168,179,188,195,208,226,236,242,247,249,249,246,240,232,217,195,179,167,151,131,105,80,54,34,18,2,-12,-25,-34,-39,-43,-46,-49,-52,-56,-61,-65,-68,-71,-74,-77,-78,-78,-76,-72,-67,-61,-51,-37,-34,-32,-30,-29,-28,-28,-27,-27,-27,-27,-27,-27,-29,-31,-32,-34,-37,-39,-41,-43,-46,-48,-51,-53,-55,-56,-58,-59,-61,-62,-63,-64,-67,-69,-66,-59,-54,-51,-47,-45,-45,-47,-51,-56,-66,-87,-107,-120,-121,-115,-99,-37,64,206,379,561,731,857,903,850,703,490,248,20,-158,-251,-266,-247,-190,-139,-122,-116,-113,-110,-109,-111,-115,-120,-123,-129,-133,-135,-134,-129,-122,-108,-87,-79,-76,-73,-71,-69,-67,-65,-62,-60,-57,-55,-52,-48,-42,-32,-23,-15,-5,7,17,31,50,66,78,88,96,103,111,121,133,147,158,168,179,186,190,194,197,197,193,187,177,161,145,128,114,103,92,78,60,44,33,23,13,3,-7,-14,-19,-22,-26,-30,-33,-37,-42,-48,-58,-65,-70,-75,-81,-80,-72,-68,-66,-64,-62,-60,-59,-57,-54,-52,-51,-49,-48,-45,-42,-33,-15,-6,-2,1,4,6,8,9,10,10,9,8,7,5,4,2,1,0,-1,-3,-5,-7,-10,-13,-16,-19,-22,-25,-30,-41,-60,-90,-117,-145,-155,-148,-130,-64,38,180,350,530,699,831,898,871,747,543,296,60,-119,-198,-225,-212,-172,-130,-99,-84,-76,-71,-68,-68,-73,-78,-80,-83,-85,-87,-89,-90,-91,-92,-93,-92,-91,-89,-86,-83,-79,-75,-67,-53,-38,-28,-20,-14,-9,-6,-2,4,17,32,47,61,76,93,111,133,151,166,182,196,206,217,224,230,234,236,234,230,223,215,204,192,176,159,145,131,111,83,55,26,9,-8,-25,-40,-59,-71,-77,-82,-85,-87,-88,-88,-86,-83,-81,-78,-76,-73,-69,-66,-62,-59,-56,-53,-49,-45,-40,-35,-30,-25,-19,-10,-6,-7,-11,-13,-14,-14,-15,-15,-16,-17,-18,-19,-20,-21,-23,-24,-25,-26,-27,-28,-29,-30,-32,-35,-38,-40,-40,-40,-39,-38,-36,-34,-32,-30,-29,-29,-31,-35,-39,-45,-54,-64,-76,-92,-107,-117,-127,-124,-97,-28,84,239,423,616,789,894,902,838,659,421,164,-61,-227,-308,-319,-295,-245,-198,-174,-167,-163,-161,-160,-159,-159,-158,-157,-157,-156,-155,-155,-155,-154,-152,-150,-147,-145,-142,-140,-136,-131,-127,-123,-118,-109,-93,-80,-73,-65,-58,-46,-30,-16,-6,4,18,36,55,74,87,96,104,109,118,131,140,146,153,160,167,173,178,178,174,168,159,142,123,103,82,60,42,29,20,9,-5,-19,-34,-51,-66,-80,-96,-108,-115,-119,-119,-115,-109,-103,-96,-92,-89,-88,-86,-85,-82,-80,-80,-80,-83,-87,-90,-94,-101,-101,-92,-88,-85,-82,-79,-76,-74,-74,-74,-73,-73,-73,-73,-74,-74,-75,-74,-74,-74,-74,-75,-75,-75,-75,-75,-76,-77,-78,-80,-81,-82,-84,-85,-87,-89,-91,-97,-100,-98,-91,-73,-34,28,122,244,389,543,690,799,842,790,640,419,167,-67,-243,-324,-335,-308,-253,-201,-167,-155,-150,-153,-156,-159,-161,-163,-164,-165,-164,-161,-157,-153,-149,-144,-138,-132,-127,-122,-115,-108,-100,-93,-85,-75,-62,-44,-26,-14,-5,4,16,33,50,67,79,89,100,113,132,152,170,182,191,200,204,208,210,212,214,214,214,212,210,207,202,193,177,153,127,98,79,58,38,19,-2,-19,-29,-35,-40,-44,-49,-54,-56,-53,-49,-46,-44,-42,-40,-39,-38,-37,-36,-35,-34,-33,-32,-31,-31,-32,-33,-34,-35,-37,-40,-45,-36,-23,-14,-12,-10,-8,-17,-23,-26,-28,-30,-32,-33,-36,-38,-41,-43,-45,-48,-50,-54,-61,-67,-66,-62,-55,-34,16,96,206,339,485,628,745,797,788,689,495,260,27,-159,-272,-305,-279,-230,-176,-130,-92,-63,-49,-40,-34,-36,-48,-58,-67,-73,-74,-70,-65,-60,-54,-49,-44,-40,-37,-33,-29,-25,-20,-10,5,14,18,21,23,25,28,31,34,37,42,49,57,66,75,84,93,101,111,122,130,140,154,165,174,184,191,197,201,201,198,192,183,170,158,145,123,95,66,42,26,16,11,7,4,4,4,4,5,6,9,5,-13,-31,-47,-58,-64,-71,-80,-86,-90,-90,-84,-80,-77,-73,-69,-63,-57,-54,-50,-47,-44,-41,-39,-37,-36,-35,-33,-31,-28,-21,-8,0,5,9,13,16,19,21,23,25,27,28,29,31,32,33,34,36,38,38,34,28,22,12,3,-10,-23,-30,-36,-36,-28,-21,-15,-10,-7,-4,0,5,-3,-18,-28,-34,-38,-25,12,76,172,301,457,625,788,921,989,967,848,651,416,192,13,-100,-133,-145,-137,-113,-90,-64,-52,-47,-45,-43,-42,-42,-40,-40,-41,-42,-44,-46,-48,-50,-53,-57,-58,-57,-55,-51,-45,-34,-22,-11,-5,-2,1,7,13,25,40,54,66,78,92,108,125,143,161,174,184,194,205,215,222,225,227,229,231,232,232,232,231,230,228,225,214,190,175,156,141,118,94,71,48,39,34,31,26,18,7,-9,-23,-34,-47,-57,-66,-70,-65,-58,-54,-51,-47,-44,-42,-42,-44,-46,-49,-52,-56,-63,-63,-58,-55,-52,-49,-46,-42,-39,-36,-32,-28,-25,-24,-26,-28,-31,-32,-33,-34,-36,-38,-39,-41,-42,-43,-44,-46,-47,-49,-50,-52,-54,-56,-59,-62,-65,-68,-70,-74,-79,-86,-100,-112,-118,-122,-126,-129,-132,-135,-136,-138,-139,-139,-140,-141,-141,-142,-143,-146,-148,-149,-148,-145,-142,-139,-137,-135,-132,-129,-125,-123,-121,-121,-121,-121,-122,-123,-124,-126,-129,-132,-134,-137,-143,-150,-157,-164,-171,-177,-182,-186,-190,-193,-196,-197,-196,-195,-192,-189,-186,-180,-180,-189,-203,-219,-229,-236,-227,-200,-138,-42,89,249,424,593,731,796,792,706,524,288,34,-190,-352,-414,-420,-383,-321,-268,-252,-248,-246,-244,-242,-240,-237,-232,-228,-224,-219,-214,-209,-203,-198,-195,-194,-192,-190,-187,-185,-182,-178,-173,-167,-155,-137,-124,-114,-103,-95,-89,-83,-78,-73,-65,-56,-46,-35,-25,-16,-6,9,23,32,38,44,50,58,71,88,107,121,130,137,142,146,150,153,154,151,145,138,126,105,83,62,40,18,-2,-15,-20,-22,-23,-25,-28,-32,-38,-45,-56,-72,-86,-105,-121,-130,-136,-135,-119,-110,-104,-99,-95,-92,-89,-88,-86,-85,-83,-81,-79,-77,-76,-74,-71,-68,-64,-59,-53,-45,-34,-25,-21,-18,-13,-8,-8,-13,-19,-24,-27,-25,-19,-15,-11,-7,-5,-6,-9,-14,-18,-21,-25,-28,-32,-35,-38,-39,-40,-40,-40,-38,-36,-33,-30,-27,-24,-19,-10,-1,6,10,13,16,19,22,24,26,29,32,34,36,38,41,43,47,53,58,62,65,67,71,76,67,51,34,20,12,20,43,109,218,369,547,734,908,1047,1092,1077,951,733,474,224,29,-89,-110,-103,-48,-8,4,11,13,12,11,10,8,6,7,11,17,19,20,21,22,23,25,28,30,32,34,36,38,39,41,44,47,52,64,73,80,89,99,114,128,142,154,162,168,174,182,191,203,218,231,242,252,262,274,281,287,291,295,298,300,300,299,296,292,288,283,275,260,246,232,218,199,175,149,125,103,86,74,68,65,64,64,64,64,64,64,64,63,63,63,62,62,61,60,59,59,59,59,59,59,58,57,57,56,55,53,51,49,48,48,49,50,51,53,54,55,57,59,60,61,61,59,53,46,39,33,27,21,15,10,6,4,5,7,10,14,18,21,25,28,31,34,36,37,38,37,37,36,35,34,33,32,32,31,30,29,28,27,27,27,27,27,27,28,29,30,31,32,32,32,32,32,31,30,30,29,29,29,29,28,28,27,26,24,23,22,20,19,19,19,19,19,20,20,20,20,19,19,18,18,16,15,13,11,10,9,8,7,5,3,0,-3,-9,-20,-26,-23,-11,22,103,228,390,573,756,915,1010,1018,961,789,549,278,32,-145,-229,-240,-212,-150,-90,-76,-75,-74,-74,-75,-75,-75,-75,-75,-75,-75,-75,-76,-76,-76,-75,-73,-71,-70,-68,-67,-65,-63,-61,-58,-55,-50,-43,-36,-29,-22,-14,-6,2,10,19,27,36,47,62,73,81,89,97,107,120,136,153,167,175,180,184,187,189,190,190,189,187,183,178,172,159,132,104,77,56,39,26,9,-14,-34,-46,-55,-63,-73,-84,-93,-98,-101,-103,-105,-107,-110,-112,-114,-117,-120,-124,-128,-132,-134,-131,-125,-118,-111,-102,-92,-81,-73,-67,-62,-58,-54,-50,-47,-44,-41,-38,-35,-33,-31,-31,-34,-38,-43,-48,-52,-59,-65,-71,-76,-81,-84,-86,-89,-91,-93,-96,-99,-102,-105,-109,-112,-115,-118,-120,-123,-126,-129,-132,-133,-134,-135,-135,-135,-133,-131,-128,-124,-121,-117,-113,-106,-98,-90,-83,-76,-71,-66,-60,-56,-53,-53,-56,-59,-64,-70,-83,-103,-117,-126,-118,-95,-38,54,184,342,518,691,832,890,881,776,568,312,54,-152,-287,-319,-315,-262,-211,-179,-170,-160,-150,-144,-139,-135,-132,-128,-125,-122,-118,-114,-111,-107,-104,-100,-97,-94,-91,-88,-85,-81,-77,-71,-62,-47,-38,-32,-28,-24,-18,-11,-3,5,17,25,30,39,56,76,96,111,121,131,140,155,177,189,195,199,203,205,205,204,202,198,192,185,171,146,126,112,101,77,46,15,5,-1,-8,-13,-20,-29,-38,-45,-50,-58,-68,-78,-87,-91,-88,-82,-78,-74,-70,-67,-67,-69,-74,-80,-91,-104,-110,-114,-116,-114,-110,-106,-103,-100,-97,-92,-88,-84,-80,-75,-72,-71,-72,-74,-77,-79,-80,-81,-83,-85,-87,-88,-88,-88,-87,-86,-85,-82,-78,-75,-71,-68,-65,-62,-59,-56,-54,-53,-53,-53,-55,-57,-60,-63,-66,-70,-74,-79,-83,-86,-89,-92,-94,-97,-101,-104,-106,-107,-106,-104,-102,-100,-98,-97,-95,-93,-92,-90,-88,-85,-82,-79,-76,-73,-70,-65,-57,-48,-38,-32,-28,-24,-20,-16,-13,-10,-7,-5,-3,-1,0,3,6,10,12,13,12,9,5,0,-6,-17,-26,-36,-46,-58,-73,-91,-104,-112,-112,-95,-50,40,174,347,542,738,896,962,955,852,652,408,169,-25,-164,-222,-242,-229,-193,-147,-108,-86,-75,-70,-66,-64,-63,-62,-61,-60,-60,-59,-59,-59,-59,-58,-57,-56,-55,-53,-51,-48,-45,-41,-37,-33,-30,-25,-21,-16,-10,-3,9,26,42,59,76,93,109,126,142,159,175,193,206,214,221,226,235,248,257,261,265,266,266,264,259,253,242,222,201,181,165,153,141,127,109,92,74,54,33,14,0,-13,-25,-34,-42,-49,-53,-55,-58,-60,-62,-63,-63,-63,-62,-60,-57,-53,-48,-42,-35,-22,-12,-4,1,5,8,10,12,14,16,19,21,24,26,30,37,41,36,27,20,12,6,0,-4,-8,-11,-15,-18,-21,-25,-28,-31,-34,-37,-43,-52,-59,-63,-67,-71,-74,-76,-75,-73,-69,-66,-63,-60,-57,-51,-43,-36,-31,-27,-24,-20,-18,-15,-13,-10,-7,-5,-4,-3,-1,0,3,9,12,7,-3,-19,-44,-63,-77,-76,-61,-18,71,201,367,554,739,887,943,934,829,631,382,138,-57,-179,-212,-208,-178,-155,-147,-143,-140,-137,-134,-131,-128,-124,-117,-104,-80,-63,-52,-45,-38,-34,-31,-28,-25,-20,-15,-9,-4,1,6,12,17,21,25,28,32,38,47,56,67,77,88,98,108,117,125,133,140,147,158,171,186,206,225,233,238,241,242,240,233,222,204,175,153,140,129,119,108,95,79,66,57,48,40,31,21,11,0,-9,-20,-30,-41,-53,-60,-66,-71,-76,-79,-81,-81,-80,-78,-76,-75,-73,-72,-70,-68,-66,-65,-63,-62,-60,-59,-56,-54,-52,-50,-47,-43,-38,-32,-20,-11,-8,-6,-4,-1,0,0,-9,-22,-35,-51,-58,-54,-45,-18,46,142,267,419,579,728,840,868,850,728,527,294,60,-144,-290,-335,-350,-331,-275,-218,-165,-118,-101,-94,-89,-84,-81,-85,-93,-100,-105,-111,-113,-113,-107,-99,-91,-84,-75,-65,-57,-49,-41,-35,-29,-24,-19,-13,-8,-2,4,16,34,45,59,84,108,122,134,145,152,158,162,166,171,175,179,186,202,218,224,229,228,214,199,183,166,144,113,77,47,27,14,1,-10,-30,-57,-85,-112,-125,-131,-136,-139,-141,-145,-149,-152,-154,-157,-160,-164,-170,-180,-188,-193,-198,-203,-206,-201,-192,-182,-172,-164,-157,-148,-137,-123,-112,-103,-96,-88,-81,-77,-73,-70,-67,-64,-61,-60,-59,-59,-58,-58,-57,-57,-57,-58,-58,-59,-59,-58,-58,-58,-59,-60,-61,-63,-65,-68,-72,-76,-79,-82,-84,-87,-90,-93,-95,-96,-97,-96,-95,-94,-92,-89,-85,-81,-76,-71,-66,-59,-53,-48,-44,-39,-33,-23,-14,-9,-7,-6,-5,-4,-3,-1,0,2,3,5,6,7,8,9,10,11,12,16,20,22,20,14,6,-3,-16,-19,-20,-20,-21,-23,-23,-23,-21,-17,-11,0,18,55,120,215,341,500,682,864,1015,1090,1086,990,783,532,276,54,-91,-120,-115,-56,-8,8,13,15,16,18,19,19,19,16,9,0,-15,-39,-50,-57,-62,-65,-65,-62,-58,-54,-51,-48,-45,-42,-39,-36,-34,-31,-28,-23,-14,6,33,59,80,95,109,123,136,151,164,174,183,191,200,211,226,240,254,270,284,297,304,308,313,318,320,316,305,288,266,244,223,204,185,166,145,123,103,87,74,55,39,27,18,13,10,8,6,4,2,1,1,0,1,1,2,4,6,9,12,15,18,23,31,39,39,31,21,12,1,-5,1,19,70,175,315,474,639,786,874,879,813,633,392,132,-93,-254,-324,-330,-292,-227,-163,-139,-130,-126,-123,-121,-118,-113,-107,-101,-95,-91,-88,-85,-83,-80,-77,-74,-71,-69,-66,-64,-63,-61,-60,-59,-58,-55,-52,-47,-37,-25,-11,5,23,36,47,59,72,84,93,104,114,127,141,158,167,173,178,182,184,185,184,182,179,174,168,156,132,105,79,55,28,4,-13,-30,-48,-64,-78,-90,-101,-112,-123,-130,-136,-140,-144,-148,-151,-154,-156,-159,-162,-166,-170,-172,-172,-168,-163,-157,-153,-147,-142,-137,-136,-136,-137,-138,-140,-141,-143,-145,-146,-147,-147,-144,-139,-134,-129,-126,-123,-120,-118,-116,-114,-113,-110,-108,-105,-103,-100,-98,-97,-95,-93,-92,-91,-90,-89,-88,-86,-84,-83,-81,-79,-77,-77,-76,-77,-77,-77,-78,-79,-80,-81,-81,-82,-82,-83,-83,-84,-84,-84,-84,-83,-81,-78,-75,-71,-66,-60,-51,-43,-38,-36,-34,-33,-31,-30,-29,-28,-28,-28,-28,-28,-28,-28,-28,-28,-28,-27,-26,-24,-24,-23,-23,-24,-24,-26,-27,-28,-30,-31,-33,-35,-36,-37,-39,-41,-45,-51,-56,-59,-62,-64,-69,-74,-59,-16,47,141,264,410,563,707,820,876,876,819,674,461,222,3,-158,-216,-235,-219,-166,-117,-90,-68,-53,-50,-47,-44,-44,-47,-49,-52,-54,-50,-41,-37,-35,-34,-34,-33,-32,-31,-29,-26,-24,-22,-20,-19,-18,-16,-13,-10,-5,9,35,50,63,79,95,111,128,140,150,159,169,179,193,210,225,237,246,254,262,269,275,280,285,288,290,290,289,286,281,275,264,240,219,203,191,175,153,135,121,107,94,80,66,51,37,24,11,-1,-12,-18,-21,-24,-27,-29,-32,-35,-38,-41,-44,-48,-51,-54,-58,-63,-67,-70,-71,-70,-67,-63,-59,-54,-48,-41,-33,-27,-21,-16,-14,-12,-11,-9,-7,-6,-4,-3,-1,0,0,1,2,2,1,0,0,-2,-4,-7,-9,-12,-15,-18,-21,-28,-47,-61,-81,-102,-117,-128,-117,-83,0,127,286,462,636,772,823,814,719,538,312,82,-104,-224,-257,-268,-253,-209,-169,-133,-121,-113,-108,-104,-100,-96,-92,-87,-81,-74,-69,-65,-61,-58,-56,-53,-51,-49,-47,-45,-43,-40,-39,-37,-35,-33,-30,-27,-23,-20,-15,-9,3,28,50,72,87,97,107,116,127,140,156,170,182,187,190,192,194,195,196,196,192,187,181,175,167,159,151,143,129,105,81,58,40,25,7,-11,-28,-42,-53,-63,-71,-78,-82,-84,-87,-89,-91,-92,-93,-93,-93,-92,-91,-89,-86,-83,-80,-77,-75,-72,-69,-66,-63,-59,-56,-52,-49,-46,-42,-38,-33,-26,-20,-18,-17,-16,-15,-13,-15,-27,-36,-45,-53,-59,-64,-66,-69,-71,-72,-74,-75,-76,-76,-76,-76,-76,-76,-75,-74,-72,-70,-68,-67,-66,-64,-62,-60,-58,-56,-55,-54,-53,-53,-52,-51,-51,-51,-50,-49,-48,-46,-45,-44,-44,-45,-45,-45,-46,-47,-47,-48,-49,-49,-49,-50,-51,-51,-52,-53,-52,-52,-51,-51,-50,-49,-46,-43,-39,-36,-33,-29,-24,-19,-14,-12,-12,-14,-17,-19,-21,-25,-27,-26,-23,-21,-18,-17,-21,-27,-30,-33,-35,-37,-38,-39,-41,-42,-43,-43,-42,-41,-39,-38,-37,-35,-33,-30,-28,-24,-20,-15,-13,-14,-18,-24,-31,-40,-32,-5,58,162,303,471,651,821,950,989,976,871,675,425,173,-34,-171,-210,-212,-177,-133,-90,-61,-52,-46,-44,-44,-45,-47,-48,-49,-50,-50,-51,-52,-52,-52,-51,-49,-45,-41,-36,-29,-15,-4,9,26,38,45,48,44,38,33,27,23,23,28,36,51,72,91,111,127,137,147,157,172,195,214,226,235,241,246,250,254,255,254,249,244,238,231,223,216,205,187,171,159,146,135,126,119,112,103,93,80,64,41,20,5,-8,-13,-16,-18,-20,-21,-22,-23,-24,-24,-24,-24,-24,-25,-25,-25,-24,-23,-22,-21,-20,-19,-18,-17,-16,-14,-13,-13,-13,-13,-13,-12,-12,-11,-12,-12,-11,-9,-8,-8,-8,-13,-19,-26,-31,-34,-37,-41,-44,-47,-49,-51,-53,-54,-56,-58,-59,-60,-60,-60,-60,-60,-60,-60,-59,-59,-59,-59,-58,-58,-58,-59,-59,-53,-40,-33,-28,-23,-19,-16,-13,-12,-11,-11,-12,-15,-18,-22,-26,-30,-34,-40,-47,-51,-52,-52,-52,-52,-52,-53,-54,-55,-56,-56,-57,-57,-58,-59,-58,-57,-56,-55,-54,-53,-52,-52,-51,-50,-49,-48,-47,-45,-43,-40,-37,-34,-31,-28,-25,-23,-21,-18,-16,-13,-7,-1,-1,-7,-15,-30,-49,-62,-70,-69,-54,-15,56,158,289,443,607,764,889,942,935,841,645,400,157,-34,-149,-166,-160,-104,-87,-84,-82,-80,-78,-75,-72,-70,-67,-64,-60,-50,-31,-21,-15,-10,-9,-11,-17,-22,-27,-34,-39,-39,-34,-27,-19,-10,-2,5,11,15,18,22,27,32,37,44,54,70,81,95,114,135,161,181,193,202,210,216,220,223,227,229,232,232,231,228,224,218,211,200,182,168,150,126,104,88,74,57,38,21,0,-22,-47,-70,-85,-94,-98,-101,-103,-105,-106,-107,-107,-106,-104,-101,-98,-94,-89,-83,-74,-65,-57,-51,-46,-43,-39,-37,-35,-33,-32,-31,-30,-29,-28,-26,-25,-24,-22,-20,-18,-17,-16,-16,-16,-17,-18,-19,-21,-24,-27,-30,-32,-34,-37,-40,-44,-48,-53,-57,-63,-71,-88,-118,-146,-168,-182,-192,-180,-145,-69,47,204,389,576,730,801,797,705,512,273,30,-166,-292,-329,-327,-280,-216,-163,-143,-136,-131,-128,-125,-120,-114,-107,-98,-85,-81,-79,-78,-77,-75,-73,-72,-72,-74,-77,-80,-85,-83,-68,-59,-54,-49,-45,-41,-37,-33,-30,-26,-23,-19,-9,14,44,73,101,132,147,154,160,166,171,174,175,177,177,177,176,175,173,170,167,164,160,151,128,109,95,84,69,50,31,8,-13,-29,-41,-50,-58,-68,-81,-87,-92,-95,-99,-101,-104,-106,-108,-110,-111,-112,-113,-114,-114,-116,-117,-119,-123,-125,-119,-107,-97,-89,-82,-76,-72,-68,-63,-56,-56,-64,-68,-72,-76,-79,-80,-79,-76,-70,-64,-53,-31,-20,-14,-9,-4,-1,0,1,1,1,0,0,-2,-5,-9,-13,-17,-20,-26,-33,-39,-44,-48,-52,-54,-57,-60,-63,-66,-68,-69,-69,-70,-71,-74,-76,-77,-77,-75,-71,-67,-63,-60,-56,-51,-47,-45,-45,-47,-50,-54,-59,-67,-81,-94,-107,-118,-118,-111,-92,-33,62,195,361,553,752,926,1032,1043,994,827,596,342,106,-85,-206,-230,-224,-173,-115,-84,-75,-70,-66,-63,-59,-56,-53,-49,-47,-45,-42,-40,-39,-37,-35,-33,-30,-27,-25,-23,-21,-19,-17,-13,-9,-4,0,5,11,19,31,41,53,72,95,120,133,139,143,147,150,153,156,159,162,166,171,180,193,199,202,205,207,209,210,208,205,200,195,188,179,169,160,146,123,95,70,51,37,22,7,-7,-15,-19,-22,-23,-25,-28,-31,-36,-41,-47,-53,-60,-70,-79,-82,-83,-84,-85,-86,-86,-87,-88,-89,-89,-89,-89,-89,-87,-85,-83,-80,-78,-75,-73,-71,-68,-65,-61,-58,-53,-47,-38,-23,-4,7,15,22,26,28,29,30,30,30,32,33,33,27,20,16,14,12,10,7,5,3,0,-2,-5,-8,-10,-13,-16,-19,-24,-32,-39,-43,-46,-48,-50,-52,-53,-55,-56,-57,-57,-57,-56,-56,-55,-55,-54,-53,-52,-51,-50,-49,-49,-48,-47,-46,-44,-43,-42,-42,-41,-40,-40,-39,-38,-37,-33,-29,-29,-34,-41,-49,-58,-58,-45,-10,57,166,312,485,667,837,965,1006,992,874,656,386,118,-100,-229,-253,-248,-197,-158,-151,-146,-143,-141,-140,-138,-136,-133,-129,-128,-126,-125,-125,-123,-120,-116,-105,-83,-70,-61,-52,-43,-36,-30,-25,-19,-12,-5,1,9,19,28,36,44,58,77,96,117,136,151,167,190,205,208,210,212,214,215,215,215,216,215,215,213,210,206,200,194,186,169,139,123,111,100,89,73,49,27,11,-1,-18,-35,-42,-45,-48,-50,-52,-53,-53,-53,-53,-52,-50,-49,-46,-43,-40,-37,-33,-28,-23,-23,-30,-38,-44,-50,-55,-58,-58,-54,-49,-43,-39,-33,-28,-24,-23,-26,-29,-32,-34,-35,-36,-37,-39,-42,-44,-46,-48,-50,-51,-52,-53,-53,-54,-55,-59,-63,-62,-54,-45,-40,-36,-33,-29,-27,-25,-23,-23,-23,-25,-26,-28,-30,-32,-34,-36,-37,-39,-42,-44,-47,-50,-52,-54,-56,-57,-59,-59,-59,-58,-57,-56,-56,-56,-56,-56,-56,-56,-57,-58,-58,-57,-54,-50,-47,-44,-41,-37,-34,-31,-30,-31,-32,-34,-35,-36,-37,-38,-40,-41,-42,-43,-44,-45,-46,-46,-47,-47,-47,-48,-47,-46,-45,-43,-42,-40,-39,-36,-34,-32,-30,-28,-26,-22,-17,-12,-9,-7,-7,-7,-8,-8,-9,-9,-11,-14,-16,-16,-14,-8,-1,7,21,27,32,37,40,36,27,12,-7,-24,-37,-43,-48,-50,-44,-32,-16,1,11,17,21,24,26,26,23,17,9,0,-15,-27,-36,-44,-49,-50,-44,-33,1,63,154,272,411,564,717,857,955,995,959,842,647,396,140,-76,-218,-254,-251,-195,-139,-95,-61,-44,-33,-25,-25,-37,-45,-50,-55,-59,-61,-60,-59,-57,-56,-54,-53,-51,-49,-44,-38,-31,-26,-20,-14,-9,-4,1,8,17,27,38,50,65,76,87,99,112,125,138,155,172,187,201,214,225,229,231,232,234,235,235,235,234,232,227,222,215,203,190,178,165,154,141,123,102,80,57,33,20,14,10,6,2,-1,-4,-8,-11,-16,-24,-38,-52,-62,-69,-74,-73,-65,-53,-42,-30,-23,-20,-18,-16,-14,-13,-12,-10,-9,-9,-9,-10,-13,-17,-22,-26,-30,-34,-39,-43,-47,-50,-52,-53,-54,-56,-57,-58,-59,-60,-62,-64,-65,-65,-62,-57,-50,-45,-43,-40,-37,-34,-31,-29,-27,-26,-25,-24,-23,-22,-21,-20,-20,-20,-21,-21,-22,-24,-25,-27,-28,-29,-30,-31,-31,-32,-33,-34,-35,-36,-38,-39,-41,-43,-45,-47,-49,-50,-50,-51,-52,-54,-55,-57,-58,-60,-61,-61,-60,-58,-54,-49,-44,-39,-34,-28,-18,-8,-3,-1,0,2,5,8,5,-1,-6,-11,-16,-19,-21,-21,-19,-18,-17,-16,-16,-14,-13,-11,-9,-8,-7,-6,-5,-5,-5,-6,-7,-9,-9,-10,-10,-11,-11,-11,-12,-13,-14,-16,-18,-21,-25,-29,-34,-40,-48,-57,-66,-77,-86,-87,-80,-65,-21,66,190,347,522,700,861,977,1024,982,843,625,369,120,-73,-159,-189,-172,-122,-64,-21,-8,0,4,5,4,3,2,1,0,0,-1,-2,-4,-5,-7,-9,-11,-11,-12,-13,-15,-17,-17,-14,-8,-2,2,6,10,14,18,23,28,32,35,40,46,56,75,91,108,125,141,158,174,190,204,219,237,248,256,263,267,267,264,258,249,234,207,188,177,169,161,153,144,133,120,107,92,76,61,41,14,-9,-27,-40,-44,-46,-49,-51,-52,-53,-54,-54,-55,-56,-57,-58,-59,-59,-60,-61,-61,-61,-60,-58,-58,-57,-57,-57,-56,-55,-54,-53,-52,-52,-50,-48,-45,-42,-39,-37,-34,-31,-25,-10,-6,-5,-4,-3,-1,0,0,1,1,0,0,0,-1,-3,-7,-11,-14,-17,-19,-21,-24,-28,-31,-35,-39,-42,-47,-52,-59,-70,-88,-97,-102,-106,-109,-112,-112,-108,-102,-96,-90,-85,-80,-75,-69,-62,-54,-46,-39,-35,-31,-28,-25,-21,-18,-15,-12,-10,-7,-5,-3,-2,-1,-2,-2,-3,-3,-2,-2,-1,0,2,5,6,6,0,-7,-17,-27,-39,-51,-61,-70,-76,-82,-86,-89,-92,-93,-93,-92,-89,-86,-82,-77,-72,-68,-66,-63,-61,-58,-54,-50,-46,-42,-39,-36,-32,-29,-25,-21,-16,-7,11,25,33,39,44,48,51,52,51,47,42,37,33,27,22,16,9,3,-3,-11,-21,-35,-48,-62,-75,-89,-95,-90,-77,-39,35,141,281,448,625,787,911,952,942,846,665,434,200,3,-128,-171,-186,-165,-138,-115,-98,-83,-71,-60,-50,-38,-25,-8,3,13,20,20,13,2,-11,-28,-35,-39,-42,-45,-46,-42,-34,-25,-19,-14,-10,-6,-2,2,6,10,13,15,18,22,28,38,49,61,75,92,108,127,153,174,190,206,221,234,238,239,240,241,242,242,241,237,230,221,212,199,186,173,157,138,116,88,56,32,14,-7,-21,-30,-37,-44,-52,-60,-66,-70,-74,-78,-82,-86,-89,-92,-94,-96,-97,-98,-97,-96,-94,-91,-88,-84,-81,-76,-72,-69,-66,-64,-62,-60,-58,-56,-54,-52,-51,-50,-49,-49,-48,-48,-47,-46,-46,-45,-45,-45,-45,-45,-45,-44,-45,-45,-45,-45,-44,-43,-41,-38,-36,-34,-32,-29,-27,-26,-24,-23,-20,-18,-11,-4,0,0,-5,-13,-24,-38,-62,-87,-106,-122,-133,-133,-126,-112,-70,6,118,267,444,632,809,947,990,974,846,627,366,116,-82,-182,-219,-221,-205,-187,-168,-155,-148,-143,-140,-137,-134,-129,-124,-118,-113,-108,-104,-100,-96,-92,-88,-84,-79,-74,-68,-62,-57,-52,-47,-41,-36,-30,-24,-19,-13,-7,-2,1,5,10,18,35,69,91,103,114,126,137,147,157,165,171,175,178,180,183,186,190,192,191,186,177,166,150,127,105,83,61,36,15,-3,-16,-26,-36,-45,-52,-60,-67,-70,-73,-76,-79,-81,-82,-82,-82,-82,-83,-83,-82,-81,-80,-78,-78,-78,-77,-77,-75,-74,-73,-73,-73,-73,-72,-72,-72,-72,-72,-72,-72,-71,-69,-68,-67,-67,-70,-75,-81,-90,-103,-108,-113,-117,-116,-102,-90,-79,-71,-64,-60,-57,-54,-51,-48,-46,-44,-42,-40,-37,-33,-27,-28,-40,-60,-76,-83,-88,-71,-20,67,192,343,508,669,808,884,889,838,699,491,248,26,-130,-190,-210,-196,-172,-146,-136,-132,-129,-126,-124,-122,-121,-119,-117,-115,-114,-112,-111,-111,-110,-110,-109,-108,-106,-103,-98,-88,-78,-66,-57,-48,-41,-34,-28,-19,-7,7,19,29,38,47,55,64,74,84,95,105,114,122,135,155,175,188,200,206,212,216,219,220,218,213,206,198,186,167,154,136,115,94,69,40,13,-10,-34,-48,-56,-61,-65,-67,-70,-71,-73,-75,-77,-78,-80,-80,-79,-77,-73,-70,-65,-58,-57,-66,-79,-88,-90,-92,-91,-81,-72,-64,-56,-48,-41,-33,-29,-33,-42,-48,-54,-60,-62,-59,-55,-49,-42,-31,-23,-17,-12,-8,-6,-7,-11,-15,-21,-29,-29,-23,-18,-14,-11,-11,-17,-27,-42,-64,-97,-121,-128,-119,-91,-23,78,211,371,539,697,819,863,852,755,572,344,121,-68,-199,-248,-251,-218,-168,-129,-110,-101,-97,-94,-92,-91,-88,-85,-82,-79,-77,-73,-68,-60,-51,-42,-37,-34,-30,-27,-24,-21,-19,-18,-16,-15,-14,-12,-10,-8,-6,-3,0,3,7,14,26,49,76,99,121,141,171,203,234,243,249,252,254,256,258,261,263,258,249,238,225,215,201,185,169,152,131,110,89,68,50,30,15,4,-8,-18,-24,-31,-37,-44,-50,-57,-66,-73,-79,-83,-86,-90,-92,-95,-96,-95,-94,-90,-85,-77,-67,-58,-53,-49,-45,-42,-37,-31,-26,-24,-22,-20,-18,-17,-15,-13,-11,-10,-8,-7,-7,-7,-9,-11,-13,-15,-18,-21,-23,-25,-27,-28,-29,-30,-32,-33,-35,-37,-39,-41,-42,-43,-44,-45,-47,-48,-49,-50,-50,-50,-51,-51,-52,-53,-54,-55,-56,-59,-62,-64,-63,-58,-50,-44,-40,-37,-34,-31,-27,-24,-21,-20,-18,-17,-16,-16,-17,-18,-19,-20,-21,-22,-24,-26,-28,-29,-30,-31,-32,-34,-36,-37,-38,-39,-40,-40,-39,-39,-38,-37,-36,-34,-32,-29,-30,-40,-46,-49,-53,-56,-59,-62,-65,-68,-70,-73,-77,-84,-89,-85,-76,-67,-58,-50,-44,-38,-31,-27,-27,-29,-30,-32,-34,-35,-36,-35,-34,-34,-34,-34,-33,-32,-31,-30,-29,-29,-29,-28,-28,-27,-27,-26,-26,-24,-23,-20,-17,-12,-2,1,5,8,7,-4,-15,-25,-34,-44,-51,-57,-63,-68,-72,-76,-81,-88,-88,-71,-26,62,196,371,571,765,913,984,955,825,617,370,126,-67,-188,-225,-223,-175,-114,-66,-51,-44,-40,-50,-57,-61,-65,-67,-69,-70,-68,-65,-61,-58,-56,-53,-49,-45,-40,-36,-32,-29,-27,-24,-20,-16,-12,-8,-5,-2,1,5,9,13,17,22,29,36,45,55,62,70,84,106,124,139,152,166,179,197,209,217,224,228,230,231,232,232,233,234,235,236,234,228,220,211,196,180,158,131,105,78,56,40,20,12,8,5,2,0,-1,-3,-5,-7,-9,-10,-11,-11,-11,-10,-9,-7,-6,-4,-2,-1,0,1,3,4,5,5,5,5,5,5,5,6,6,7,7,7,8,8,9,10,11,12,12,11,11,9,8,6,5,3,1,0,-1,-4,-7,-10,-22,-48,-67,-81,-81,-68,-31,38,143,291,473,662,815,883,837,678,436,155,-100,-273,-337,-342,-304,-241,-179,-158,-153,-150,-149,-147,-144,-141,-137,-133,-129,-124,-117,-108,-101,-96,-93,-91,-89,-87,-84,-83,-81,-80,-78,-76,-74,-72,-70,-68,-65,-59,-45,-29,-12,3,19,34,50,71,92,111,124,133,141,148,152,156,159,162,164,166,167,167,165,161,155,148,138,121,107,94,80,62,38,10,-12,-29,-45,-66,-90,-113,-136,-153,-163,-171,-176,-181,-185,-188,-189,-186,-180,-173,-168,-164,-160,-156,-154,-152,-152,-154,-156,-160,-164,-175,-193,-206,-214,-221,-227,-238,-256,-278,-300,-319,-332,-337,-341,-346,-345,-336,-322,-303,-294,-289,-285,-282,-280,-280,-280,-281,-282,-283,-285,-288,-288,-278,-263,-246,-233,-215,-194,-173,-152,-130,-116,-109,-105,-101,-97,-94,-90,-85,-78,-74,-73,-71,-70,-69,-72,-80,-89,-100,-113,-120,-126,-130,-134,-135,-135,-132,-128,-124,-119,-115,-110,-105,-101,-96,-86,-66,-39,-16,4,24,53,94,142,185,223,245,268,288,318,352,369,379,385,393,403,416,430,440,446,451,455,456,454,447,438,422,399,384,373,373,379,395,449,532,641,770,907,1045,1183,1309,1393,1401,1357,1199,961,692,446,269,171,152,160,194,210,215,211,190,170,158,150,145,139,134,130,126,123,119,116,114,113,112,112,112,112,113,115,117,121,125,143,176,197,215,229,242,258,280,301,315,327,335,342,348,354,361,370,380,383,384,386,387,377,364,353,343,331,313,297,286,278,271,265,258,248,233,212,197,187,180,174,166,152,129,102,71,42,14,-16,-40,-69,-96,-114,-125,-136,-148,-156,-163,-169,-175,-179,-183,-187,-194,-205,-216,-228,-240,-254,-272,-296,-314,-323,-331,-340,-348,-355,-362,-368,-371,-370,-367,-365,-364,-363,-362,-361,-360,-358,-357,-356,-356,-356,-357,-359,-360,-361,-363,-364,-366,-368,-369,-370,-372,-375,-377,-379,-380,-379,-378,-376,-374,-371,-367,-364,-363,-365,-370,-373,-378,-380,-375,-364,-357,-351,-346,-342,-340,-338,-337,-335,-332,-328,-335,-344,-350,-337,-323,-312,-302,-293,-278,-255,-228,-200,-176,-158,-144,-131,-117,-101,-85,-68,-50,-32,-16,-5,3,10,19,28,42,59,69,76,75,67,61,57,53,50,48,50,55,61,67,73,81,89,93,93,90,86,81,75,77,92,132,211,329,489,686,909,1136,1338,1482,1539,1492,1336,1103,841,605,435,374,371,418,476,504,514,519,520,520,519,519,519,520,519,519,519,518,518,518,519,520,522,523,525,526,527,528,528,527,527,528,529,530,531,532,534,536,539,543,547,553,566,594,619,636,648,660,672,690,701,709,715,720,723,725,727,729,731,734,736,738,737,734,729,721,708,682,652,620,596,581,568,557,547,538,530,521,513,503,488,467,446,429,421,417,416,416,416,416,415,414,413,411,410,408,405,401,398,395,391,387,377,367,359,351,346,341,337,333,328,324,319,314,308,303,296,290,283,276,269,264,259,254,249,244,236,226,213,199,176,141,116,102,92,86,82,79,75,72,67,59,47,26,0,-19,-31,-21,9,97,229,401,595,783,938,1030,1036,972,809,604,395,211,72,13,-6,6,27,51,94,149,189,203,202,185,159,124,95,74,59,50,45,41,37,31,24,18,11,3,-4,-13,-22,-31,-41,-49,-57,-64,-70,-73,-75,-76,-78,-81,-85,-83,-66,-52,-42,-31,-19,-6,8,24,34,41,47,52,56,58,58,54,48,39,23,-8,-47,-85,-123,-164,-207,-247,-285,-316,-336,-351,-372,-401,-435,-461,-482,-506,-522,-532,-541,-548,-555,-560,-566,-571,-579,-591,-598,-599,-600,-600,-601,-601,-601,-601,-598,-593,-587,-578,-565,-550,-536,-525,-515,-506,-500,-496,-493,-491,-488,-485,-481,-477,-472,-466,-459,-451,-441,-431,-423,-417,-410,-399,-384,-371,-365,-362,-359,-357,-356,-354,-351,-349,-346,-343,-341,-339,-338,-336,-333,-328,-318,-312,-317,-329,-346,-375,-399,-415,-415,-393,-335,-216,-41,173,401,607,758,795,777,647,431,171,-75,-265,-357,-388,-376,-340,-288,-239,-189,-146,-128,-120,-114,-111,-113,-117,-120,-123,-125,-127,-129,-129,-127,-122,-117,-110,-103,-94,-85,-75,-66,-57,-47,-38,-29,-21,-15,-9,-2,3,10,17,24,31,42,57,71,85,100,115,130,144,159,174,189,204,218,230,236,239,242,245,247,241,228,213,196,181,162,136,106,75,44,13,-15,-40,-61,-84,-103,-117,-129,-132,-133,-133,-134,-134,-134,-134,-134,-134,-134,-133,-133,-131,-130,-129,-128,-128,-128,-127,-127,-126,-127,-127,-128,-129,-129,-130,-131,-132,-133,-134,-135,-136,-138,-139,-140,-142,-143,-145,-146,-147,-149,-151,-153,-154,-155,-155,-156,-157,-157,-158,-159,-160,-161,-161,-161,-161,-161,-162,-163,-165,-167,-170,-172,-174,-176,-178,-180,-182,-185,-187,-187,-186,-184,-181,-179,-178,-177,-176,-176,-176,-176,-175,-173,-172,-170,-168,-165,-161,-158,-155,-152,-147,-143,-140,-136,-133,-130,-127,-125,-123,-121,-119,-117,-115,-114,-113,-113,-112,-111,-110,-107,-103,-99,-95,-91,-89,-88,-90,-93,-97,-102,-107,-113,-117,-123,-136,-136,-125,-93,-18,99,260,451,649,826,947,966,940,789,566,305,52,-154,-279,-314,-316,-277,-221,-163,-114,-82,-61,-50,-41,-34,-26,-19,-13,-9,-6,-4,-2,0,3,6,10,13,17,20,23,26,29,34,41,47,54,61,68,75,84,93,102,112,126,144,162,180,198,214,229,245,263,279,292,305,318,327,335,341,347,350,352,354,357,362,364,356,342,327,312,297,283,265,246,232,220,209,197,185,166,138,113,96,83,71,58,42,31,24,17,13,9,6,3,1,0,-2,-4,-6,-8,-9,-9,-9,-9,-8,-6,-5,-3,-2,0,1,2,3,4,6,7,9,12,16,20,27,34,42,49,57,64,69,73,75,77,78,79,80,81,80,77,70,64,61,58,54,50,46,42,37,32,27,21,14,-1,-24,-38,-47,-32,12,88,195,330,486,646,785,874,882,837,691,485,239,-3,-195,-291,-323,-311,-270,-211,-161,-131,-108,-94,-84,-77,-73,-71,-69,-67,-64,-61,-58,-55,-52,-50,-47,-43,-39,-35,-30,-25,-20,-14,-9,-4,1,11,26,40,52,64,77,88,96,103,109,116,127,138,152,168,182,196,205,213,219,224,226,226,224,221,216,209,200,185,172,158,143,129,115,101,85,70,55,38,22,6,-12,-25,-35,-44,-52,-60,-66,-71,-75,-79,-82,-84,-87,-88,-89,-88,-87,-84,-80,-75,-70,-65,-60,-55,-51,-47,-44,-43,-43,-44,-45,-46,-46,-47,-47,-48,-49,-50,-50,-51,-51,-50,-49,-47,-46,-44,-42,-41,-42,-46,-53,-60,-68,-79,-90,-102,-112,-122,-126,-118,-101,-57,20,135,284,454,624,767,822,811,696,484,228,-15,-197,-270,-294,-281,-244,-200,-160,-136,-124,-117,-112,-107,-104,-103,-103,-104,-105,-106,-107,-109,-110,-112,-113,-116,-118,-119,-118,-114,-109,-104,-97,-92,-95,-101,-106,-112,-115,-111,-101,-87,-64,-38,-13,6,21,38,55,71,83,93,102,112,122,138,163,185,198,207,214,219,225,228,228,222,211,198,182,170,159,146,130,113,98,87,74,54,30,6,-18,-40,-60,-78,-93,-103,-105,-106,-107,-107,-108,-108,-106,-104,-102,-99,-95,-90,-87,-87,-92,-97,-101,-105,-110,-113,-114,-114,-112,-109,-105,-101,-95,-87,-76,-67,-58,-50,-44,-38,-34,-30,-27,-25,-24,-24,-24,-24,-24,-23,-21,-22,-28,-32,-36,-40,-42,-42,-41,-38,-36,-34,-32,-31,-30,-29,-28,-29,-32,-35,-40,-44,-47,-51,-54,-57,-60,-63,-66,-69,-71,-72,-71,-70,-68,-66,-63,-61,-58,-55,-52,-48,-40,-33,-28,-25,-23,-21,-20,-18,-16,-14,-12,-11,-10,-9,-8,-6,-5,-5,-4,-4,-4,-4,-3,-2,-1,0,1,3,4,5,6,6,7,8,8,9,10,12,13,14,14,14,13,12,11,10,8,6,6,9,15,24,39,54,63,67,70,69,59,50,42,35,28,22,16,12,11,12,14,17,20,19,10,1,-8,-19,-31,-40,-33,-17,37,131,269,443,637,826,988,1078,1084,1023,854,615,341,92,-75,-132,-137,-104,-80,-72,-70,-71,-75,-80,-75,-61,-55,-50,-47,-44,-42,-41,-39,-36,-32,-25,-17,-13,-11,-10,-8,-7,-5,-2,-1,0,3,5,8,14,25,33,39,45,52,60,74,92,109,130,155,177,197,217,236,252,260,264,266,269,272,276,279,283,287,293,297,299,297,291,283,268,246,226,207,195,188,181,175,165,148,134,124,110,91,66,39,10,-10,-22,-30,-38,-44,-47,-50,-52,-54,-56,-57,-58,-58,-59,-59,-60,-60,-60,-60,-59,-57,-56,-54,-53,-52,-51,-49,-48,-46,-46,-45,-44,-43,-41,-41,-42,-44,-46,-48,-50,-52,-54,-56,-58,-57,-54,-49,-45,-40,-34,-29,-28,-32,-41,-55,-77,-116,-162,-177,-184,-174,-108,9,177,377,587,787,939,998,936,758,500,222,-16,-177,-234,-254,-240,-197,-164,-143,-119,-100,-89,-81,-78,-81,-85,-89,-93,-96,-98,-98,-94,-90,-86,-85,-83,-82,-81,-78,-76,-73,-71,-69,-67,-66,-64,-61,-59,-55,-51,-42,-24,-10,3,16,29,42,54,67,81,94,109,121,132,140,147,152,157,161,163,163,161,157,151,141,119,98,83,71,56,36,19,6,-5,-18,-31,-42,-58,-83,-105,-116,-125,-132,-139,-145,-151,-155,-157,-156,-154,-152,-152,-151,-150,-149,-148,-147,-147,-145,-143,-141,-139,-138,-136,-134,-131,-127,-122,-115,-108,-98,-84,-65,-53,-43,-36,-30,-23,-15,-9,-2,3,6,4,0,-4,-7,-10,-13,-15,-18,-21,-25,-28,-31,-35,-40,-46,-63,-85,-96,-103,-89,-48,41,178,349,537,718,854,914,872,728,503,245,-3,-194,-291,-305,-279,-219,-177,-166,-159,-154,-151,-149,-147,-145,-144,-141,-138,-133,-127,-120,-108,-89,-73,-60,-47,-35,-22,-7,0,3,6,8,11,13,16,19,21,23,27,31,36,50,73,92,113,130,144,159,172,181,190,195,200,208,227,242,250,256,259,260,259,256,250,243,229,204,182,166,150,128,103,81,61,43,24,7,-4,-16,-28,-39,-53,-60,-63,-67,-71,-74,-76,-77,-78,-77,-77,-76,-74,-71,-68,-65,-63,-61,-59,-56,-52,-49,-46,-44,-41,-39,-35,-32,-28,-26,-24,-21,-18,-15,-13,-13,-15,-19,-23,-26,-28,-30,-32,-35,-37,-39,-41,-42,-45,-47,-49,-50,-52,-53,-55,-57,-60,-65,-71,-77,-84,-88,-93,-98,-101,-102,-99,-93,-86,-75,-61,-60,-59,-57,-56,-55,-56,-59,-61,-65,-63,-50,-35,-21,-14,-9,-4,0,0,-5,-12,-20,-29,-34,-30,-23,-18,-14,-10,-7,-7,-10,-14,-19,-23,-29,-34,-34,-31,-26,-21,-15,-12,-16,-24,-37,-56,-71,-82,-94,-110,-130,-143,-152,-156,-151,-140,-110,-44,60,207,392,596,792,957,1039,1040,957,765,508,230,-12,-181,-237,-237,-180,-118,-99,-96,-93,-92,-90,-88,-85,-82,-78,-75,-72,-68,-63,-53,-46,-41,-37,-32,-29,-29,-33,-37,-40,-43,-46,-48,-49,-51,-52,-52,-52,-51,-49,-46,-42,-38,-29,-9,11,32,54,76,99,120,139,157,174,195,218,240,253,261,267,269,267,263,256,246,226,210,200,192,185,178,172,166,160,154,142,123,102,80,61,47,33,21,10,0,-8,-16,-23,-30,-39,-49,-60,-72,-78,-81,-83,-84,-86,-88,-88,-89,-89,-89,-88,-86,-83,-79,-74,-69,-65,-62,-58,-53,-49,-45,-42,-40,-39,-39,-39,-39,-39,-40,-43,-45,-48,-51,-56,-65,-56,-27,37,137,272,438,623,800,933,984,924,755,505,222,-38,-240,-346,-363,-342,-283,-228,-186,-175,-168,-163,-157,-152,-147,-143,-138,-133,-129,-125,-121,-118,-115,-112,-107,-102,-96,-90,-84,-77,-70,-62,-51,-40,-29,-15,0,13,23,31,39,48,58,68,81,92,103,120,146,171,189,206,220,231,241,249,254,259,264,266,266,262,254,244,224,196,172,148,108,64,37,7,-19,-37,-51,-65,-76,-86,-95,-103,-110,-116,-121,-124,-127,-129,-132,-135,-135,-128,-124,-122,-120,-118,-116,-112,-109,-104,-100,-95,-91,-83,-78,-76,-76,-76,-76,-75,-74,-73,-73,-72,-73,-74,-75,-75,-76,-78,-80,-82,-83,-82,-80,-77,-75,-73,-72,-70,-67,-66,-66,-68,-71,-75,-78,-81,-84,-88,-91,-93,-93,-90,-87,-83,-80,-78,-76,-74,-71,-68,-65,-63,-60,-58,-55,-53,-52,-50,-49,-48,-47,-44,-40,-37,-36,-37,-40,-43,-45,-47,-50,-54,-57,-58,-57,-54,-50,-46,-43,-41,-38,-35,-32,-30,-27,-25,-23,-20,-17,-15,-12,-9,-3,2,7,13,21,30,33,35,38,39,39,34,25,11,-11,-35,-49,-56,-54,-27,23,100,209,353,519,688,841,955,997,953,820,612,354,86,-135,-264,-300,-272,-212,-152,-111,-91,-77,-67,-55,-50,-47,-45,-42,-41,-39,-38,-37,-35,-33,-32,-31,-30,-29,-27,-24,-17,-9,0,7,12,17,22,27,31,35,41,48,56,63,75,93,106,114,120,127,135,150,171,183,190,197,205,213,220,228,234,237,238,238,239,240,241,242,240,234,225,210,186,161,140,124,112,102,88,71,55,38,24,16,6,-4,-12,-17,-21,-25,-29,-34,-38,-42,-45,-48,-52,-56,-60,-62,-59,-54,-48,-43,-40,-38,-35,-32,-29,-25,-22,-20,-19,-19,-18,-19,-20,-21,-24,-27,-30,-32,-34,-35,-36,-37,-38,-39,-39,-40,-40,-41,-43,-46,-48,-51,-53,-55,-57,-60,-63,-66,-68,-71,-73,-75,-78,-81,-83,-85,-87,-90,-92,-94,-96,-97,-97,-98,-98,-98,-99,-100,-100,-101,-102,-105,-111,-94,-44,36,148,290,459,637,799,909,946,890,741,517,252,-4,-202,-299,-312,-281,-209,-151,-127,-121,-116,-113,-111,-108,-105,-101,-97,-94,-91,-89,-87,-86,-84,-81,-79,-75,-71,-68,-65,-63,-60,-56,-52,-43,-20,-4,3,9,15,20,25,30,34,39,44,50,56,65,80,106,126,140,153,170,193,206,214,220,222,220,215,207,194,174,157,137,120,109,100,92,82,71,58,48,41,33,25,15,4,-11,-24,-38,-51,-62,-69,-76,-79,-79,-74,-67,-60,-53,-46,-41,-36,-32,-28,-24,-21,-20,-22,-25,-31,-38,-47,-61,-70,-82,-93,-98,-101,-103,-102,-96,-87,-76,-60,-47,-40,-36,-32,-29,-26,-24,-22,-22,-21,-20,-19,-17,-14,-12,-11,-12,-14,-16,-17,-20,-21,-19,-13,-10,-7,-4,-3,-3,-6,-10,-14,-16,-18,-20,-23,-25,-27,-30,-33,-35,-37,-40,-43,-47,-56,-76,-99,-115,-125,-132,-117,-72,12,134,286,457,631,795,914,955,899,753,538,297,74,-95,-204,-235,-235,-199,-169,-140,-125,-118,-115,-113,-112,-110,-107,-103,-99,-96,-90,-77,-58,-50,-45,-42,-40,-41,-42,-44,-46,-50,-55,-45,-35,-28,-22,-17,-12,-5,3,13,21,26,31,36,42,48,56,65,74,82,91,102,112,119,124,128,131,134,136,139,142,146,149,148,143,134,121,101,85,68,50,30,18,11,6,1,-3,-7,-12,-19,-30,-39,-49,-57,-57,-57,-57,-57,-57,-58,-58,-57,-57,-57,-57,-57,-56,-56,-55,-55,-55,-56,-56,-57,-59,-60,-62,-64,-67,-69,-71,-73,-74,-76,-79,-81,-82,-83,-84,-84,-82,-81,-78,-75,-71,-68,-63,-57,-50,-44,-38,-33,-29,-26,-23,-22,-22,-23,-27,-33,-39,-50,-65,-69,-72,-75,-75,-71,-67,-64,-62,-61,-64,-70,-78,-85,-94,-101,-101,-95,-89,-86,-83,-80,-77,-74,-71,-69,-68,-67,-67,-67,-68,-69,-71,-74,-77,-80,-84,-90,-100,-101,-94,-77,-13,100,259,453,662,856,1008,1078,1073,976,764,493,220,-7,-171,-241,-248,-211,-158,-130,-122,-116,-113,-113,-114,-116,-117,-120,-123,-110,-100,-96,-93,-90,-87,-85,-82,-80,-77,-74,-69,-57,-38,-30,-27,-24,-22,-19,-16,-13,-9,-5,0,7,17,30,43,57,67,74,85,100,126,162,199,217,227,233,236,236,232,224,213,193,179,171,165,161,156,147,132,116,98,79,61,47,37,23,10,0,-8,-16,-24,-31,-38,-45,-48,-50,-52,-53,-55,-56,-57,-58,-59,-60,-60,-59,-58,-56,-55,-52,-50,-47,-44,-41,-38,-35,-32,-28,-24,-20,-16,-13,-11,-8,-6,-3,0,4,6,6,2,-2,-7,-10,-15,-19,-23,-27,-28,-29,-29,-28,-28,-27,-25,-24,-22,-21,-19,-18,-17,-16,-15,-14,-13,-13,-12,-12,-12,-11,-10,-9,-8,-6,-5,-5,-5,-6,-7,-9,-11,-12,-14,-16,-19,-22,-26,-30,-44,-65,-76,-84,-69,-24,67,204,384,589,796,976,1078,1083,1008,803,532,254,26,-118,-163,-179,-164,-119,-82,-67,-60,-55,-52,-52,-56,-61,-65,-70,-73,-69,-59,-51,-43,-36,-30,-25,-21,-17,-14,-11,-8,-3,0,4,7,10,14,17,20,23,26,29,33,38,46,56,68,86,110,133,153,165,175,187,203,215,220,224,224,217,212,210,207,205,203,201,198,195,191,182,166,150,132,113,100,87,77,68,60,53,44,33,20,11,5,0,-6,-12,-17,-20,-22,-24,-25,-28,-30,-32,-34,-37,-39,-42,-45,-48,-50,-52,-53,-55,-58,-61,-63,-66,-68,-70,-71,-73,-73,-73,-72,-70,-68,-66,-64,-61,-58,-55,-52,-48,-43,-38,-34,-29,-25,-22,-20,-19,-17,-15,-13,-11,-10,-8,-7,-6,-5,-5,-6,-7,-8,-9,-10,-11,-13,-15,-16,-18,-19,-20,-23,-27,-32,-37,-42,-50,-64,-86,-101,-113,-122,-129,-135,-138,-132,-120,-112,-104,-97,-91,-86,-82,-78,-74,-70,-66,-62,-60,-59,-58,-57,-56,-55,-53,-50,-48,-45,-42,-38,-33,-28,-23,-19,-15,-10,-7,-10,-17,-21,-25,-29,-33,-36,-39,-42,-45,-47,-49,-52,-55,-58,-62,-66,-71,-76,-81,-85,-88,-90,-93,-97,-103,-114,-122,-131,-139,-122,-71,38,203,407,632,850,1024,1096,1088,974,746,468,189,-53,-218,-269,-270,-224,-170,-137,-128,-122,-117,-113,-109,-104,-95,-79,-69,-62,-57,-53,-52,-55,-59,-63,-68,-72,-77,-81,-85,-87,-86,-82,-78,-72,-65,-55,-45,-36,-24,-10,0,11,28,45,64,84,102,120,138,154,171,186,197,204,214,228,245,259,266,270,272,274,275,273,269,264,257,250,239,230,222,200,170,136,117,98,82,62,34,0,-17,-32,-43,-54,-69,-89,-99,-103,-107,-110,-112,-112,-112,-110,-107,-102,-96,-90,-82,-68,-59,-52,-49,-47,-46,-44,-42,-40,-38,-36,-34,-32,-30,-27,-25,-22,-20,-17,-11,-5,-3,-5,-11,-19,-29,-43,-54,-58,-61,-65,-68,-70,-72,-73,-74,-74,-74,-72,-70,-67,-63,-58,-54,-51,-48,-46,-43,-40,-38,-36,-34,-32,-30,-28,-26,-24,-22,-20,-18,-16,-14,-13,-12,-11,-9,-8,-6,-5,-4,-3,-3,-3,-5,-7,-10,-14,-17,-20,-24,-29,-35,-40,-43,-46,-49,-51,-52,-54,-56,-59,-62,-66,-72,-85,-107,-126,-137,-124,-87,0,131,300,496,701,887,1014,1049,977,798,534,242,-17,-206,-296,-308,-282,-220,-162,-113,-101,-100,-98,-97,-97,-97,-97,-96,-96,-96,-96,-97,-97,-99,-97,-91,-82,-72,-56,-42,-34,-29,-25,-21,-18,-15,-12,-10,-6,-1,9,30,46,56,66,78,92,108,121,138,159,177,190,207,223,237,243,245,247,250,248,235,225,218,212,205,199,193,185,177,169,163,157,146,125,98,71,47,30,19,6,-14,-34,-45,-56,-66,-76,-86,-94,-102,-107,-111,-114,-116,-117,-113,-107,-99,-93,-89,-86,-84,-82,-80,-78,-76,-75,-73,-71,-69,-68,-66,-64,-62,-61,-60,-58,-57,-55,-53,-49,-46,-42,-37,-26,-15,-10,-7,-5,-3,-1,0,0,-2,-8,-16,-24,-33,-41,-47,-52,-55,-59,-63,-67,-69,-69,-66,-62,-57,-53,-49,-45,-40,-36,-32,-30,-28,-28,-29,-31,-34,-37,-41,-45,-50,-54,-60,-71,-80,-80,-73,-60,-20,65,188,342,512,686,842,942,952,902,735,496,229,-12,-189,-263,-287,-270,-220,-175,-162,-155,-151,-148,-145,-143,-141,-138,-135,-132,-128,-124,-119,-112,-101,-82,-72,-65,-60,-56,-54,-56,-59,-63,-66,-72,-75,-69,-57,-43,-25,-5,20,53,87,118,137,149,158,167,174,180,185,189,194,200,205,209,213,217,222,225,227,227,225,221,216,209,196,172,150,127,104,80,54,31,9,-13,-33,-48,-62,-70,-75,-80,-84,-86,-87,-84,-79,-73,-68,-65,-62,-58,-54,-50,-45,-41,-38,-34,-30,-25,-22,-18,-15,-12,-7,-2,1,5,8,9,9,7,5,2,-2,-7,-12,-16,-20,-22,-25,-27,-30,-33,-36,-39,-43,-46,-49,-52,-55,-55,-56,-57,-59,-61,-68,-90,-111,-125,-125,-112,-75,23,166,347,547,735,873,927,881,735,515,263,28,-152,-243,-273,-255,-199,-132,-84,-67,-61,-65,-73,-78,-81,-82,-83,-85,-86,-87,-87,-88,-88,-87,-86,-84,-81,-79,-76,-75,-73,-71,-69,-67,-64,-61,-56,-51,-42,-27,-12,-1,6,14,22,31,43,59,76,98,125,143,152,161,172,182,189,196,202,207,210,210,207,202,195,185,167,135,110,91,74,57,40,21,4,-9,-23,-34,-47,-63,-79,-90,-97,-103,-107,-109,-108,-105,-100,-96,-91,-84,-80,-84,-92,-99,-106,-114,-120,-126,-133,-140,-144,-139,-129,-121,-112,-104,-96,-88,-73,-52,-43,-39,-36,-34,-32,-30,-28,-27,-24,-22,-21,-20,-19,-18,-18,-17,-16,-15,-14,-13,-11,-10,-9,-8,-8,-9,-10,-13,-16,-19,-23,-27,-31,-35,-40,-46,-52,-56,-60,-62,-65,-68,-74,-84,-99,-121,-140,-152,-160,-142,-87,15,161,344,548,752,923,1006,1006,921,721,456,179,-49,-192,-229,-226,-178,-139,-129,-123,-116,-112,-107,-98,-79,-69,-64,-61,-59,-58,-58,-57,-56,-54,-52,-50,-48,-47,-47,-45,-44,-42,-40,-38,-35,-30,-25,-20,-15,-9,-1,11,20,30,46,63,81,95,104,113,123,137,155,166,173,181,189,205,217,220,222,224,224,223,219,212,202,182,164,151,141,129,111,91,71,50,29,12,0,-10,-19,-27,-35,-44,-50,-55,-60,-63,-65,-65,-64,-61,-58,-55,-51,-48,-48,-49,-50,-52,-54,-57,-57,-53,-49,-48,-47,-46,-46,-46,-45,-44,-42,-41,-40,-39,-37,-36,-35,-33,-32,-30,-28,-26,-22,-14,-7,-4,-1,0,2,4,5,6,7,8,8,7,5,3,0,-2,-5,-8,-13,-20,-26,-28,-29,-31,-32,-34,-35,-34,-32,-29,-27,-23,-20,-23,-30,-34,-38,-42,-44,-43,-41,-36,-32,-29,-26,-22,-19,-17,-18,-21,-26,-31,-41,-63,-89,-108,-125,-127,-106,-40,73,231,427,643,848,1008,1070,1061,947,724,446,170,-54,-191,-233,-207,-160,-136,-131,-128,-126,-124,-120,-117,-115,-113,-110,-105,-99,-93,-88,-83,-80,-77,-74,-70,-66,-62,-59,-56,-52,-47,-41,-34,-26,-18,-9,-2,2,7,11,15,19,23,29,38,54,72,90,104,115,124,132,137,142,147,152,160,169,176,181,185,188,189,187,182,175,162,141,120,102,90,79,71,53,27,-1,-16,-28,-36,-45,-56,-67,-71,-73,-74,-75,-77,-79,-81,-83,-86,-90,-95,-102,-114,-121,-125,-128,-132,-133,-133,-128,-121,-114,-107,-97,-89,-86,-84,-83,-81,-79,-78,-80,-86,-90,-96,-99,-95,-81,-43,43,188,385,609,832,1014,1102,1053,872,593,277,-6,-207,-297,-310,-285,-228,-177,-137,-124,-120,-117,-115,-120,-131,-148,-169,-177,-181,-185,-187,-189,-190,-190,-189,-187,-183,-178,-173,-162,-136,-103,-74,-50,-34,-25,-18,-12,-9,-12,-19,-28,-37,-23,-3,23,53,82,112,139,165,189,200,206,211,214,216,217,217,217,215,212,208,204,194,173,151,128,105,83,65,45,25,5,-7,-14,-21,-27,-33,-43,-58,-72,-87,-101,-110,-116,-120,-122,-124,-126,-126,-125,-122,-118,-114,-110,-106,-103,-99,-96,-92,-90,-88,-87,-86,-85,-84,-83,-81,-80,-80,-80,-80,-80,-81,-81,-81,-80,-80,-78,-77,-75,-73,-69,-66,-61,-56,-48,-42,-38,-34,-29,-35,-50,-75,-103,-125,-132,-117,-74,19,158,339,545,753,932,1030,1033,948,743,478,204,-22,-168,-224,-231,-208,-174,-147,-124,-115,-111,-112,-116,-122,-126,-129,-131,-134,-136,-136,-134,-131,-128,-125,-122,-118,-114,-109,-105,-100,-96,-92,-88,-83,-78,-72,-66,-57,-45,-34,-23,-12,-3,8,23,40,57,84,112,140,156,172,189,202,212,222,228,233,238,245,251,258,265,270,270,264,253,236,215,187,162,137,112,85,56,27,8,-6,-15,-25,-36,-42,-46,-50,-53,-56,-58,-60,-62,-63,-64,-65,-66,-66,-66,-66,-67,-69,-71,-71,-71,-69,-66,-63,-61,-58,-55,-52,-51,-51,-53,-55,-57,-58,-59,-61,-62,-63,-63,-62,-59,-56,-53,-52,-51,-50,-48,-46,-45,-44,-43,-43,-43,-42,-42,-41,-40,-39,-39,-38,-37,-36,-34,-32,-30,-28,-26,-22,-18,-15,-13,-13,-17,-22,-28,-34,-40,-49,-57,-61,-64,-66,-67,-69,-71,-73,-75,-76,-77,-77,-77,-77,-77,-77,-77,-76,-74,-72,-70,-69,-67,-66,-64,-62,-59,-56,-53,-50,-47,-44,-41,-37,-32,-27,-25,-25,-27,-30,-33,-36,-39,-40,-37,-33,-31,-29,-27,-25,-24,-24,-25,-27,-30,-32,-35,-38,-43,-48,-54,-62,-78,-92,-101,-97,-66,-2,95,228,397,585,766,907,974,947,821,611,359,119,-71,-190,-222,-233,-219,-197,-175,-145,-110,-72,-50,-44,-40,-36,-32,-25,-18,-28,-44,-60,-70,-76,-80,-80,-75,-64,-48,-25,-15,-10,-7,-5,-2,1,5,10,16,22,31,46,53,56,62,76,91,102,112,122,132,146,166,190,207,217,226,233,240,247,255,263,277,293,301,305,308,309,308,302,295,283,260,233,212,199,188,174,155,130,104,80,61,48,33,22,14,7,1,-2,-5,-8,-12,-14,-16,-16,-15,-13,-10,-7,-3,2,6,3,-3,-6,-9,-11,-13,-15,-16,-16,-17,-16,-15,-13,-10,-6,-3,0,3,7,11,15,19,21,20,18,14,10,6,2,-1,-6,-11,-15,-20,-24,-27,-30,-32,-35,-37,-39,-41,-43,-45,-48,-50,-53,-55,-58,-62,-71,-89,-99,-105,-110,-112,-111,-107,-102,-93,-76,-67,-63,-59,-56,-53,-51,-50,-49,-48,-47,-47,-47,-47,-48,-49,-49,-50,-51,-52,-55,-58,-47,-35,-27,-23,-26,-31,-35,-38,-40,-42,-42,-41,-36,-30,-25,-18,-9,-2,-2,-6,-13,-20,-29,-37,-44,-54,-65,-72,-77,-82,-85,-84,-78,-70,-63,-55,-48,-43,-40,-37,-34,-31,-30,-29,-30,-34,-40,-45,-49,-55,-61,-65,-65,-63,-58,-51,-41,-27,-23,-20,-17,-17,-26,-35,-44,-44,-33,-4,62,166,306,477,663,842,976,1027,977,836,622,370,130,-52,-164,-197,-208,-196,-159,-128,-108,-95,-88,-82,-79,-78,-78,-78,-78,-79,-81,-82,-82,-80,-77,-75,-74,-73,-71,-69,-67,-64,-62,-60,-58,-55,-52,-44,-24,-5,8,22,40,61,78,90,101,111,122,130,151,182,214,234,252,266,277,283,287,291,293,295,295,293,290,286,281,274,262,249,232,212,192,175,160,144,127,106,79,53,27,-1,-28,-47,-62,-70,-76,-80,-83,-85,-86,-86,-86,-83,-80,-76,-70,-65,-61,-58,-56,-53,-51,-48,-45,-43,-40,-38,-36,-33,-30,-28,-26,-25,-23,-22,-21,-18,-16,-13,-11,-6,5,11,6,-4,-16,-31,-44,-57,-68,-77,-80,-82,-84,-86,-87,-89,-91,-94,-96,-98,-100,-103,-105,-108,-112,-119,-134,-136,-126,-99,-1,145,331,538,736,881,926,912,796,587,334,84,-121,-252,-289,-288,-244,-182,-121,-91,-73,-61,-53,-48,-43,-39,-36,-35,-36,-40,-45,-51,-55,-60,-65,-69,-71,-69,-62,-54,-47,-40,-33,-25,-18,-13,-9,-6,-3,0,3,8,13,18,24,32,48,75,96,112,132,159,192,208,215,222,228,232,234,235,236,236,235,234,231,226,220,212,203,183,147,115,85,57,31,11,-4,-22,-40,-57,-71,-79,-84,-88,-92,-94,-96,-97,-97,-98,-98,-99,-99,-99,-100,-101,-102,-101,-95,-87,-77,-64,-51,-42,-35,-29,-24,-19,-16,-13,-12,-9,-7,-6,-5,-3,-2,0,1,3,4,5,6,8,11,15,18,19,17,14,9,4,0,-7,-16,-26,-36,-44,-51,-58,-62,-63,-63,-63,-63,-63,-63,-64,-65,-66,-66,-66,-66,-66,-65,-64,-63,-62,-60,-58,-56,-54,-51,-45,-34,-25,-20,-17,-14,-12,-11,-9,-6,-5,-4,-2,-1,0,2,6,9,3,-9,-24,-41,-52,-57,-62,-66,-69,-71,-72,-71,-70,-67,-64,-60,-55,-51,-51,-55,-61,-65,-71,-76,-76,-72,-65,-60,-53,-48,-48,-54,-63,-78,-100,-116,-126,-111,-65,13,129,287,476,676,868,1031,1120,1124,1051,861,594,306,61,-91,-139,-141,-105,-81,-73,-74,-81,-85,-88,-90,-92,-94,-95,-96,-96,-96,-97,-97,-98,-98,-98,-98,-99,-100,-101,-102,-101,-99,-96,-92,-87,-82,-73,-64,-54,-39,-16,6,29,45,54,66,77,88,100,109,117,129,150,175,204,226,238,248,257,264,270,276,282,285,285,283,279,273,262,241,219,193,165,134,102,72,45,20,-3,-28,-41,-47,-53,-56,-59,-61,-63,-65,-67,-69,-71,-72,-73,-75,-76,-77,-78,-78,-78,-76,-74,-71,-67,-63,-59,-55,-51,-48,-45,-41,-38,-36,-36,-36,-38,-40,-42,-44,-47,-50,-53,-57,-61,-64,-67,-70,-72,-73,-74,-76,-77,-79,-81,-84,-86,-87,-87,-87,-86,-84,-82,-79,-75,-72,-68,-65,-62,-59,-55,-51,-46,-43,-39,-36,-33,-31,-29,-27,-24,-19,-14,-12,-15,-22,-28,-31,-33,-35,-37,-38,-40,-42,-44,-46,-47,-49,-50,-51,-53,-53,-54,-54,-55,-55,-57,-58,-60,-62,-63,-66,-70,-73,-76,-77,-76,-74,-71,-68,-65,-62,-59,-56,-52,-48,-44,-39,-31,-19,26,116,241,403,589,786,974,1115,1170,1112,946,693,399,114,-115,-231,-270,-250,-189,-123,-86,-76,-69,-65,-63,-63,-64,-65,-66,-67,-69,-72,-75,-78,-80,-81,-79,-74,-68,-61,-53,-44,-33,-23,-13,-1,10,25,41,56,69,80,88,96,102,108,114,121,127,134,142,159,186,206,221,239,250,257,263,267,270,270,267,262,255,247,235,215,195,175,155,135,116,97,78,62,48,35,21,6,-11,-28,-42,-54,-62,-68,-72,-76,-79,-81,-79,-75,-72,-71,-70,-69,-68,-66,-64,-61,-59,-57,-55,-54,-52,-52,-51,-52,-52,-50,-48,-47,-46,-49,-54,-60,-64,-67,-69,-71,-75,-78,-81,-83,-86,-88,-90,-92,-93,-93,-93,-92,-92,-91,-91,-90,-90,-89,-88,-86,-84,-81,-78,-76,-73,-70,-68,-65,-63,-61,-57,-53,-48,-44,-42,-44,-47,-51,-56,-60,-62,-64,-66,-69,-72,-75,-77,-79,-80,-82,-83,-84,-85,-84,-84,-84,-85,-86,-87,-88,-89,-89,-89,-89,-90,-91,-90,-90,-90,-91,-93,-94,-88,-77,-69,-63,-58,-53,-48,-44,-40,-36,-31,-25,-15,-11,-9,-7,-4,-2,-1,-2,-5,-7,-9,-10,-11,-12,-14,-17,-21,-26,-31,-38,-48,-47,-28,19,105,227,379,548,706,826,872,866,790,635,423,193,-13,-174,-257,-285,-270,-225,-159,-102,-74,-69,-66,-63,-62,-61,-59,-57,-55,-52,-50,-47,-45,-43,-41,-39,-36,-32,-29,-26,-23,-20,-17,-14,-11,-9,-6,-4,-2,0,1,4,7,12,19,25,32,42,55,69,87,110,129,144,161,179,196,212,225,236,246,255,260,264,268,271,273,274,273,270,266,260,253,237,211,187,164,144,121,103,92,80,70,59,49,39,28,10,-13,-29,-39,-48,-55,-62,-68,-74,-80,-86,-91,-97,-101,-103,-100,-93,-85,-75,-63,-52,-43,-36,-31,-27,-23,-18,-13,-7,-3,0,2,5,9,12,15,17,18,19,20,21,20,19,17,14,12,10,8,5,2,0,-6,-13,-18,-22,-27,-33,-39,-48,-62,-82,-107,-132,-148,-159,-157,-126,-48,77,246,444,650,829,927,929,842,626,351,79,-143,-278,-304,-299,-247,-196,-158,-144,-125,-115,-109,-104,-100,-96,-92,-89,-86,-83,-80,-76,-70,-58,-43,-40,-40,-40,-39,-40,-40,-40,-40,-38,-37,-36,-35,-34,-33,-31,-28,-25,-21,-16,-3,26,51,70,84,96,108,125,139,152,164,175,194,213,223,231,230,216,202,189,177,167,159,154,149,142,134,126,117,98,70,47,24,6,-6,-12,-15,-18,-22,-26,-30,-34,-43,-59,-74,-86,-97,-102,-104,-106,-108,-110,-112,-113,-113,-113,-113,-112,-112,-112,-110,-108,-106,-104,-101,-97,-93,-92,-92,-93,-94,-95,-96,-97,-97,-94,-89,-82,-73,-58,-49,-41,-35,-27,-18,-8,2,14,23,32,36,33,25,3,-28,-67,-80,-87,-79,-25,77,225,405,592,764,893,934,922,826,643,403,148,-77,-239,-308,-315,-285,-226,-165,-134,-126,-121,-117,-113,-110,-107,-103,-98,-93,-88,-83,-80,-75,-64,-45,-25,-9,-1,3,6,7,6,3,0,-4,-9,-12,-8,0,13,33,49,58,65,71,80,95,113,131,146,158,172,186,199,211,216,220,222,225,227,228,228,228,227,225,223,220,215,207,188,167,149,132,113,94,71,46,24,4,-18,-39,-54,-67,-86,-96,-97,-98,-98,-99,-99,-100,-98,-96,-94,-91,-88,-82,-82,-91,-96,-100,-103,-106,-108,-108,-107,-105,-102,-98,-93,-82,-60,-36,-20,-15,-11,-8,-6,-6,-7,-11,-16,-22,-31,-32,-24,-20,-16,-12,-10,-9,-11,-15,-21,-27,-34,-42,-51,-58,-66,-79,-98,-114,-124,-130,-136,-141,-130,-97,-24,86,228,392,563,722,839,880,822,661,431,175,-54,-220,-290,-300,-276,-222,-170,-144,-136,-130,-125,-121,-116,-111,-105,-98,-91,-81,-68,-57,-53,-51,-49,-47,-46,-45,-45,-44,-43,-42,-42,-41,-41,-40,-39,-38,-37,-36,-35,-34,-32,-31,-28,-26,-23,-18,-3,10,25,39,51,68,85,96,103,110,119,128,139,150,165,179,185,189,192,187,177,162,139,115,94,63,31,21,11,2,-4,-10,-15,-20,-25,-32,-41,-52,-58,-62,-64,-67,-70,-73,-76,-79,-82,-87,-94,-107,-119,-136,-151,-157,-161,-164,-166,-165,-161,-155,-149,-143,-137,-130,-122,-114,-106,-98,-89,-82,-75,-68,-62,-57,-52,-47,-43,-40,-37,-34,-30,-23,-6,5,11,16,19,21,21,19,16,13,10,6,-1,-2,1,6,10,9,0,-12,-25,-39,-56,-78,-115,-153,-168,-177,-183,-172,-137,-64,52,212,403,607,800,944,1008,976,834,598,320,67,-119,-218,-233,-215,-159,-129,-121,-115,-108,-100,-84,-65,-55,-49,-45,-50,-61,-69,-76,-82,-85,-86,-83,-79,-75,-73,-71,-69,-67,-65,-62,-59,-56,-54,-52,-49,-46,-42,-38,-30,-22,-15,-7,6,30,58,82,101,115,130,144,159,169,177,183,188,193,198,203,210,209,200,191,183,176,168,157,139,120,101,88,79,69,57,39,15,-8,-29,-45,-64,-73,-76,-79,-82,-85,-87,-87,-86,-85,-85,-84,-83,-82,-79,-76,-72,-69,-67,-65,-61,-58,-55,-54,-55,-57,-59,-61,-62,-62,-64,-65,-67,-68,-67,-67,-66,-66,-66,-66,-65,-64,-63,-63,-63,-62,-62,-61,-60,-58,-57,-56,-55,-53,-49,-45,-39,-10,55,156,297,471,660,833,937,945,878,670,384,90,-150,-303,-352,-309,-229,-158,-124,-117,-111,-106,-104,-103,-102,-103,-104,-106,-108,-110,-113,-118,-127,-128,-118,-104,-85,-69,-57,-45,-39,-35,-32,-29,-26,-23,-19,-16,-12,-8,-2,4,12,19,26,35,49,63,78,93,109,129,155,184,202,209,213,216,219,224,228,233,237,241,243,241,234,224,208,179,148,118,88,60,40,24,10,-2,-13,-18,-22,-25,-29,-35,-44,-49,-53,-57,-60,-62,-63,-62,-61,-59,-57,-55,-51,-49,-53,-60,-67,-74,-79,-78,-72,-63,-52,-40,-33,-28,-23,-17,-10,-6,-3,-1,1,3,5,6,6,6,6,6,5,4,2,0,-2,-3,-5,-8,-12,-17,-21,-25,-30,-37,-47,-60,-71,-81,-80,-65,-25,59,180,333,505,682,840,925,924,833,618,341,69,-145,-270,-290,-284,-231,-178,-139,-113,-99,-77,-49,-38,-35,-32,-30,-30,-30,-31,-31,-32,-34,-36,-36,-35,-34,-32,-39,-44,-47,-50,-52,-52,-52,-49,-46,-42,-36,-30,-19,-10,-3,7,24,42,62,83,108,126,136,142,146,148,149,150,151,152,153,156,161,167,173,181,185,183,176,158,131,114,97,79,60,41,20,0,-13,-21,-27,-31,-35,-40,-47,-58,-65,-71,-76,-77,-78,-78,-79,-81,-79,-71,-64,-58,-54,-51,-48,-47,-44,-41,-41,-50,-59,-67,-74,-81,-89,-99,-104,-107,-109,-111,-112,-112,-112,-112,-111,-109,-107,-103,-98,-89,-84,-82,-80,-78,-77,-75,-74,-72,-70,-67,-64,-61,-58,-53,-48,-45,-46,-49,-53,-56,-60,-64,-66,-64,-61,-55,-45,-33,-29,-26,-24,-23,-24,-25,-28,-31,-35,-34,-25,-18,-11,-7,-7,-9,-11,-13,-14,-14,-15,-17,-19,-20,-22,-25,-29,-46,-71,-101,-123,-131,-130,-119,-102,-87,-81,-77,-75,-79,-89,-106,-118,-124,-116,-66,30,166,327,504,685,844,951,978,901,726,483,231,16,-136,-212,-223,-205,-174,-163,-158,-155,-143,-117,-82,-63,-56,-55,-57,-60,-64,-64,-56,-45,-29,-16,-6,-6,-15,-26,-41,-49,-54,-58,-60,-59,-55,-50,-41,-24,-11,-6,-1,2,6,9,13,22,38,66,95,110,125,141,152,159,164,170,175,181,190,200,215,234,248,259,259,251,241,227,218,210,199,186,168,148,132,117,104,84,61,35,23,18,15,13,11,8,4,0,-6,-15,-29,-46,-59,-71,-77,-80,-82,-83,-85,-85,-84,-79,-71,-65,-59,-53,-47,-41,-36,-29,-24,-24,-29,-35,-38,-41,-44,-46,-48,-49,-50,-50,-50,-49,-48,-46,-44,-42,-39,-34,-30,-29,-32,-38,-43,-50,-55,-56,-53,-46,-36,-17,-8,-3,0,3,5,7,8,9,9,8,7,6,4,1,-1,-5,-12,-29,-40,-46,-50,-52,-51,-50,-49,-48,-47,-45,-44,-47,-52,-58,-67,-78,-80,-84,-78,-42,23,121,252,409,578,743,874,925,918,828,653,430,202,2,-144,-205,-228,-229,-217,-208,-199,-188,-177,-169,-163,-158,-153,-148,-145,-142,-138,-131,-114,-95,-75,-54,-31,-17,-9,-4,0,0,-2,-6,-10,-15,-22,-25,-20,-8,1,13,22,29,40,58,71,78,85,92,98,110,130,144,152,159,163,166,168,171,173,175,176,176,174,171,166,159,147,127,111,93,75,53,27,4,-14,-28,-37,-48,-65,-77,-83,-86,-89,-91,-92,-91,-88,-83,-77,-71,-67,-64,-61,-57,-54,-52,-49,-47,-44,-40,-37,-35,-34,-34,-34,-34,-33,-32,-32,-32,-31,-29,-27,-25,-23,-21,-20,-19,-18,-16,-15,-14,-12,-8,-11,-30,-42,-51,-59,-64,-65,-65,-65,-65,-66,-67,-66,-66,-67,-67,-68,-69,-71,-72,-73,-74,-76,-78,-79,-79,-78,-75,-72,-69,-67,-64,-60,-57,-54,-53,-51,-48,-45,-41,-38,-36,-34,-32,-29,-24,-18,-13,-9,-5,-1,2,7,10,11,10,7,3,-1,-9,-26,-48,-59,-66,-64,-47,0,85,206,360,530,697,849,966,1006,992,877,658,378,96,-128,-229,-263,-247,-200,-161,-150,-138,-128,-120,-113,-107,-103,-99,-97,-95,-92,-89,-86,-84,-86,-90,-97,-104,-113,-118,-110,-94,-68,-34,-19,-13,-8,-4,-1,2,5,8,11,14,17,21,31,54,80,105,122,133,144,156,165,173,180,186,190,194,198,202,207,212,214,212,206,198,183,160,140,120,102,83,63,39,17,0,-17,-26,-30,-35,-38,-42,-44,-47,-48,-49,-50,-51,-52,-53,-53,-52,-51,-52,-53,-54,-55,-53,-47,-40,-33,-28,-20,-12,-5,-2,-2,-3,-5,-6,-7,-7,-8,-9,-10,-11,-12,-12,-12,-12,-11,-9,-8,-6,-4,-3,0,4,7,0,-16,-43,-75,-96,-111,-109,-80,-2,143,329,527,695,804,820,791,654,466,255,46,-118,-195,-222,-222,-203,-174,-142,-118,-101,-83,-75,-71,-68,-65,-62,-59,-57,-56,-53,-51,-49,-47,-45,-43,-40,-38,-35,-25,-2,11,18,24,27,30,31,31,30,28,25,22,17,10,22,41,64,84,99,118,142,179,202,214,223,230,233,234,234,231,228,223,218,211,201,190,179,162,138,115,90,63,37,20,10,3,-3,-10,-20,-32,-42,-50,-56,-63,-71,-81,-91,-95,-99,-102,-100,-88,-76,-64,-60,-60,-60,-60,-60,-59,-59,-59,-60,-61,-63,-65,-67,-70,-73,-75,-76,-73,-69,-65,-60,-54,-49,-47,-50,-57,-63,-68,-72,-76,-79,-82,-84,-84,-83,-81,-78,-74,-69,-58,-37,-22,-12,-7,-4,-1,0,1,0,-5,-10,-14,-18,-22,-25,-27,-28,-27,-24,-21,-17,-12,-4,0,-2,-11,-17,-23,-28,-31,-31,-29,-28,-26,-24,-20,-18,-21,-27,-34,-44,-56,-64,-71,-75,-76,-75,-73,-71,-68,-66,-65,-65,-69,-76,-82,-87,-92,-98,-103,-108,-112,-117,-123,-136,-153,-164,-170,-156,-113,-24,108,283,487,700,891,1030,1094,1059,918,696,425,151,-78,-223,-269,-235,-166,-98,-58,-43,-42,-50,-64,-75,-80,-84,-74,-66,-60,-55,-52,-52,-54,-57,-61,-66,-72,-72,-63,-50,-41,-39,-39,-37,-37,-36,-37,-38,-39,-41,-43,-47,-46,-34,-17,4,23,44,67,93,118,135,143,148,151,153,157,160,166,173,187,210,245,280,292,298,302,288,264,242,228,216,200,178,154,137,123,112,97,83,64,34,5,-1,-5,-8,-11,-13,-16,-19,-22,-24,-26,-29,-32,-35,-43,-49,-53,-56,-58,-59,-62,-64,-67,-69,-71,-74,-76,-80,-83,-86,-89,-92,-96,-100,-104,-107,-109,-109,-107,-102,-97,-91,-86,-82,-79,-75,-72,-69,-66,-63,-61,-59,-57,-56,-55,-54,-54,-53,-53,-53,-53,-54,-55,-56,-58,-60,-62,-64,-66,-68,-71,-74,-82,-105,-125,-139,-139,-126,-91,-9,119,290,482,661,794,850,805,664,445,179,-86,-295,-405,-422,-399,-326,-246,-206,-191,-191,-205,-219,-234,-235,-224,-208,-180,-161,-153,-147,-143,-140,-136,-133,-130,-128,-126,-123,-119,-115,-110,-104,-98,-92,-86,-80,-71,-62,-51,-36,-15,-1,9,19,29,39,54,75,90,99,108,115,119,123,127,129,131,131,128,123,117,110,102,92,81,73,64,52,37,20,0,-24,-45,-66,-88,-111,-131,-144,-149,-152,-153,-155,-156,-157,-158,-156,-151,-145,-139,-133,-128,-122,-116,-111,-106,-103,-100,-96,-91,-84,-75,-65,-51,-39,-36,-36,-35,-35,-34,-34,-33,-34,-34,-35,-35,-34,-34,-34,-34,-34,-33,-32,-31,-27,-24,-20,0,49,123,223,343,474,603,710,745,733,634,462,237,-3,-214,-350,-372,-363,-297,-237,-200,-180,-161,-143,-123,-103,-94,-90,-86,-84,-83,-81,-79,-77,-75,-73,-72,-70,-67,-63,-53,-32,-10,9,19,24,28,33,38,43,48,54,63,72,84,103,131,150,162,171,178,184,195,213,231,249,267,287,301,310,314,311,302,290,268,244,219,193,169,153,144,136,128,120,93,55,35,16,-2,-22,-39,-50,-58,-57,-45,-37,-30,-24,-20,-20,-21,-24,-26,-28,-30,-32,-32,-27,-20,-13,-4,4,13,18,23,28,32,34,34,34,33,32,30,27,23,23,29,33,37,41,40,35,29,23,14,15,26,57,125,228,368,533,700,838,908,882,753,542,288,43,-146,-256,-297,-299,-269,-219,-187,-165,-140,-121,-111,-103,-96,-92,-90,-87,-85,-84,-82,-80,-77,-73,-68,-57,-36,-23,-16,-12,-6,-1,3,8,13,19,24,29,37,54,75,89,94,98,101,108,117,125,133,140,144,148,155,169,185,194,196,197,198,198,198,193,185,176,164,153,139,124,101,77,50,22,-6,-34,-63,-79,-87,-91,-93,-95,-97,-99,-101,-104,-106,-109,-112,-116,-120,-126,-131,-135,-138,-139,-141,-144,-146,-148,-148,-148,-146,-144,-141,-138,-135,-129,-122,-112,-97,-83,-77,-72,-73,-81,-91,-101,-112,-123,-133,-139,-144,-149,-152,-152,-150,-146,-134,-110,-65,5,108,237,383,530,655,723,693,559,353,120,-88,-224,-265,-264,-239,-226,-235,-244,-251,-254,-250,-239,-228,-215,-207,-200,-192,-181,-167,-147,-124,-110,-104,-99,-111,-121,-127,-132,-135,-135,-133,-129,-124,-116,-99,-85,-77,-70,-65,-55,-39,-18,1,19,31,34,36,37,39,39,39,39,38,38,36,33,30,26,22
