166,199,234,266,283,293,300,304,305,303,296,288,281,276,271,265,259,254,251,247,245,242,240,239,238,238,237,236,235,234,232,231,229,227,225,223,221,219,215,211,205,192,165,144,133,126,123,121,118,116,114,113,111,109,106,103,99,94,89,80,76,81,91,118,167,230,298,358,379,389,397,380,330,267,189,107,34,-23,-54,-84,-116,-135,-143,-149,-154,-159,-164,-168,-172,-176,-181,-186,-191,-196,-201,-208,-218,-230,-243,-255,-270,-287,-312,-328,-339,-347,-351,-354,-357,-359,-361,-363,-364,-367,-370,-374,-380,-388,-397,-406,-417,-428,-438,-447,-455,-462,-469,-474,-474,-470,-465,-458,-446,-416,-397,-390,-384,-378,-374,-371,-368,-366,-364,-362,-359,-356,-353,-350,-347,-343,-338,-333,-328,-323,-319,-316,-312,-309,-306,-303,-300,-297,-294,-290,-287,-284,-282,-279,-276,-272,-268,-263,-258,-253,-248,-242,-236,-230,-222,-211,-193,-180,-170,-162,-154,-145,-134,-120,-106,-92,-78,-66,-58,-52,-46,-42,-37,-33,-30,-26,-20,-6,17,30,37,42,47,52,58,64,71,78,85,94,107,119,128,137,146,153,157,158,160,162,164,166,167,168,169,171,175,185,196,204,212,219,227,233,238,242,248,254,259,266,273,281,293,315,346,366,381,398,412,425,431,421,406,399,395,391,388,386,384,383,381,379,377,376,374,374,373,373,373,373,373,372,371,370,368,364,357,341,325,311,299,286,272,249,217,191,174,165,157,151,151,161,188,242,320,411,499,568,623,642,654,650,610,540,452,359,275,210,157,120,96,85,76,70,66,62,60,57,54,49,42,32,15,-11,-42,-69,-99,-122,-135,-144,-149,-154,-158,-162,-165,-171,-178,-188,-199,-212,-225,-237,-247,-256,-264,-271,-277,-281,-283,-285,-287,-290,-292,-293,-294,-295,-295,-294,-292,-289,-286,-281,-277,-271,-264,-251,-240,-230,-221,-214,-206,-196,-185,-179,-175,-171,-168,-165,-161,-158,-153,-149,-144,-140,-136,-132,-128,-125,-122,-120,-118,-117,-115,-114,-112,-110,-109,-108,-108,-108,-108,-109,-110,-111,-113,-115,-117,-120,-122,-122,-123,-123,-122,-122,-122,-121,-121,-121,-120,-120,-120,-120,-121,-122,-123,-124,-125,-125,-126,-127,-128,-129,-130,-130,-130,-131,-132,-134,-136,-138,-141,-144,-147,-150,-154,-159,-164,-169,-171,-172,-173,-175,-177,-180,-184,-188,-192,-197,-201,-205,-208,-211,-215,-219,-224,-229,-234,-238,-240,-240,-239,-237,-232,-225,-214,-197,-181,-169,-161,-154,-145,-135,-126,-119,-114,-109,-105,-102,-101,-100,-101,-102,-104,-107,-111,-115,-117,-119,-121,-124,-127,-130,-134,-137,-139,-140,-140,-140,-139,-137,-134,-130,-126,-122,-118,-114,-108,-101,-95,-91,-84,-59,-13,66,183,327,470,583,620,611,527,396,253,126,35,-10,-28,-34,-30,-24,-17,-10,-6,-11,-21,-30,-39,-43,-35,-20,-3,15,23,27,29,31,33,34,36,37,40,42,43,45,47,49,52,56,64,81,95,107,115,125,138,151,160,169,176,182,187,193,198,204,209,215,221,227,232,236,241,244,247,250,252,255,257,260,263,266,271,275,280,285,291,298,311,321,325,327,330,333,335,327,310,294,276,262,250,240,231,223,214,205,196,191,187,184,181,178,176,174,172,170,168,165,162,159,155,152,149,146,144,142,141,140,140,140,140,140,139,138,138,138,138,137,134,133,133,133,132,131,130,129,127,125,122,117,111,106,100,95,91,85,79,73,67,61,55,50,46,43,40,37,35,35,34,34,33,31,30,29,28,27,27,26,26,26,26,26,26,26,26,25,24,23,21,20,18,15,13,12,10,8,4,-3,-13,-24,-36,-49,-64,-78,-91,-97,-101,-104,-107,-110,-113,-116,-118,-119,-120,-120,-120,-119,-118,-115,-113,-109,-105,-99,-94,-88,-73,-36,29,119,235,362,476,535,555,525,435,298,161,57,-1,-32,-56,-74,-89,-96,-102,-106,-109,-111,-112,-113,-112,-111,-108,-105,-102,-98,-95,-91,-89,-88,-87,-86,-85,-83,-81,-78,-76,-74,-73,-72,-72,-71,-70,-70,-70,-70,-70,-69,-68,-66,-66,-66,-67,-68,-68,-69,-70,-71,-73,-75,-77,-79,-80,-82,-87,-93,-99,-105,-111,-116,-122,-128,-137,-146,-156,-166,-176,-185,-194,-203,-212,-220,-228,-241,-260,-273,-289,-314,-330,-339,-345,-349,-351,-352,-352,-353,-354,-355,-356,-357,-355,-349,-342,-333,-319,-305,-290,-275,-261,-246,-232,-218,-204,-190,-178,-166,-154,-143,-136,-132,-128,-124,-119,-113,-106,-98,-86,-77,-71,-59,-40,-24,-14,-5,3,13,22,32,41,49,56,63,73,81,84,86,88,89,91,92,93,94,94,95,96,97,98,99,99,100,101,101,101,101,102,102,103,105,107,110,113,116,123,131,137,143,152,163,171,178,183,187,187,182,173,164,153,143,135,130,125,121,117,111,105,98,92,85,79,75,75,78,83,90,98,111,123,140,159,188,234,298,379,470,559,628,664,665,636,557,452,347,252,169,107,56,46,46,45,45,41,34,27,19,15,18,22,25,28,30,32,34,36,40,45,49,53,56,58,60,61,63,65,67,70,73,77,80,83,84,86,87,88,90,93,95,99,104,109,114,119,122,126,130,134,140,150,159,167,176,187,198,206,211,216,221,227,232,239,252,275,290,299,305,309,311,313,314,316,318,320,320,319,316,311,305,299,291,281,270,261,253,246,241,236,231,226,221,216,212,206,198,193,193,193,193,193,193,194,194,193,193,192,192,191,190,188,187,185,182,179,175,167,158,151,144,136,129,121,112,101,88,71,57,39,15,-11,-39,-60,-73,-85,-96,-104,-111,-118,-125,-131,-137,-141,-145,-148,-151,-153,-154,-155,-153,-149,-145,-140,-135,-128,-112,-95,-80,-67,-61,-60,-60,-59,-58,-58,-59,-65,-73,-80,-87,-93,-100,-106,-109,-112,-114,-115,-116,-118,-119,-121,-123,-125,-127,-127,-128,-128,-129,-130,-131,-133,-138,-142,-142,-137,-128,-102,-65,-16,44,114,187,254,290,302,280,213,103,-20,-137,-238,-324,-387,-407,-416,-410,-388,-375,-376,-391,-409,-427,-431,-433,-435,-436,-430,-421,-413,-407,-402,-396,-389,-383,-380,-376,-373,-370,-368,-367,-365,-363,-361,-359,-357,-356,-354,-353,-352,-349,-347,-344,-339,-328,-318,-309,-294,-274,-256,-236,-215,-193,-177,-164,-146,-120,-92,-74,-60,-43,-21,2,25,47,68,89,109,133,161,188,215,240,250,254,258,261,264,266,267,268,268,267,266,264,263,261,258,256,254,251,249,247,245,243,241,238,236,235,235,238,242,247,252,257,262,267,272,276,280,282,284,283,282,280,277,273,269,263,250,233,210,183,161,144,132,116,94,72,56,41,26,12,0,-8,-12,-17,-23,-31,-40,-50,-60,-73,-84,-90,-96,-102,-110,-113,-108,-98,-93,-88,-84,-81,-79,-76,-75,-74,-75,-76,-80,-85,-91,-99,-115,-143,-169,-193,-211,-225,-243,-267,-294,-318,-343,-356,-363,-368,-372,-372,-368,-362,-355,-350,-346,-342,-338,-335,-331,-328,-324,-321,-317,-313,-310,-305,-296,-285,-272,-262,-252,-244,-236,-228,-221,-214,-205,-197,-191,-185,-173,-155,-123,-74,-7,73,164,259,339,372,366,309,206,84,-31,-126,-203,-264,-310,-324,-333,-337,-339,-341,-342,-343,-343,-344,-344,-344,-344,-343,-342,-342,-342,-342,-343,-344,-345,-346,-347,-350,-352,-356,-359,-363,-371,-390,-404,-423,-446,-469,-491,-512,-534,-558,-582,-598,-607,-613,-615,-613,-609,-602,-590,-566,-548,-539,-532,-526,-520,-513,-500,-473,-442,-409,-374,-346,-310,-270,-229,-206,-190,-180,-168,-155,-134,-103,-68,-40,-17,5,27,47,55,59,62,64,65,66,67,69,72,75,77,80,82,85,90,97,107,125,139,149,160,170,183,198,210,219,226,234,243,251,260,268,276,283,290,295,298,301,304,306,308,310,312,314,315,315,314,311,309,306,303,300,296,293,290,288,289,294,302,311,318,324,329,334,338,341,345,348,351,353,355,356,358,360,361,362,363,363,363,362,361,359,355,351,346,342,339,334,330,325,322,318,314,308,301,293,284,276,270,266,261,257,254,252,251,250,249,249,248,247,246,244,243,240,237,234,233,232,230,228,225,221,216,211,202,183,167,152,139,126,115,106,98,88,77,63,43,31,23,15,8,3,0,-1,-2,-2,-1,1,5,12,21,32,80,156,253,363,474,566,612,613,568,464,340,221,128,63,10,-21,-55,-93,-117,-130,-139,-146,-150,-152,-154,-156,-157,-157,-158,-158,-159,-159,-158,-159,-159,-160,-160,-160,-159,-159,-158,-158,-157,-157,-157,-156,-156,-155,-155,-154,-153,-151,-150,-148,-147,-144,-141,-138,-134,-131,-125,-113,-99,-87,-76,-69,-63,-59,-54,-50,-45,-41,-37,-33,-27,-19,-7,13,36,57,75,87,96,100,103,106,109,111,113,114,115,115,115,114,112,108,103,98,93,88,83,76,64,52,41,32,27,23,18,14,10,8,6,3,1,0,0,0,0,3,7,11,16,21,26,31,35,39,43,48,54,59,65,70,75,80,85,89,93,96,98,100,102,105,107,109,111,114,116,118,120,122,124,125,126,127,127,128,128,129,130,130,129,128,126,124,122,119,117,114,111,108,105,103,101,99,98,96,94,91,89,86,84,82,80,78,75,74,72,72,71,71,71,71,71,70,69,68,67,66,66,64,64,64,64,65,66,67,68,69,70,70,69,68,66,65,64,62,61,60,58,56,55,52,41,29,17,5,-10,-32,-55,-85,-120,-151,-182,-213,-246,-275,-297,-321,-334,-343,-350,-356,-359,-361,-362,-362,-360,-356,-350,-342,-333,-315,-277,-208,-133,-40,63,166,251,279,269,237,145,30,-86,-177,-247,-277,-290,-298,-305,-308,-304,-295,-286,-280,-275,-271,-266,-261,-256,-252,-248,-244,-240,-235,-230,-226,-220,-214,-208,-201,-194,-188,-183,-178,-174,-171,-168,-165,-162,-158,-154,-150,-146,-142,-139,-135,-132,-128,-123,-119,-115,-111,-105,-100,-94,-89,-85,-82,-78,-74,-69,-61,-47,-32,-16,-6,0,6,11,16,23,30,37,43,50,57,66,75,82,86,86,85,84,83,83,83,83,83,83,81,79,76,74,73,72,70,69,67,66,64,63,62,63,64,65,65,66,67,67,67,67,67,67,67,67,68,69,71,73,74,75,77,78,79,77,77,77,76,76,77,77,77,77,77,78,79,78,77,76,75,73,71,69,67,64,60,58,55,48,32,17,2,-12,-29,-43,-55,-67,-79,-85,-88,-91,-94,-97,-100,-103,-105,-107,-108,-109,-110,-111,-111,-111,-111,-111,-112,-114,-117,-119,-121,-123,-124,-126,-127,-128,-127,-126,-125,-124,-124,-124,-124,-124,-125,-125,-126,-127,-128,-128,-126,-124,-122,-119,-116,-113,-109,-105,-102,-99,-95,-89,-85,-81,-76,-72,-70,-67,-65,-61,-58,-56,-54,-53,-52,-52,-53,-54,-55,-57,-59,-61,-62,-64,-65,-65,-66,-67,-68,-70,-72,-74,-77,-78,-80,-81,-80,-80,-78,-76,-73,-70,-67,-63,-56,-42,-26,14,75,156,249,350,446,522,554,552,507,414,300,182,73,-18,-67,-80,-87,-95,-103,-111,-122,-144,-181,-200,-210,-218,-223,-225,-224,-222,-219,-216,-212,-207,-201,-192,-181,-169,-158,-147,-138,-131,-125,-122,-119,-118,-116,-115,-112,-110,-108,-107,-105,-103,-101,-99,-96,-94,-92,-89,-83,-77,-70,-63,-56,-49,-39,-26,-13,0,6,10,13,16,19,22,26,29,32,34,36,39,42,46,53,66,74,80,84,87,90,93,95,96,98,99,100,101,102,103,104,105,106,105,103,99,94,88,81,69,62,59,57,56,54,53,52,51,50,49,48,47,45,42,39,36,34,30,26,21,16,9,2,-2,-6,-9,-11,-14,-16,-17,-19,-20,-22,-25,-27,-29,-30,-31,-32,-34,-36,-38,-40,-43,-46,-54,-62,-65,-67,-69,-70,-71,-71,-72,-70,-66,-61,-57,-55,-53,-52,-51,-49,-46,-45,-43,-42,-41,-40,-39,-38,-37,-37,-36,-36,-36,-36,-36,-36,-37,-37,-37,-36,-35,-34,-33,-32,-31,-30,-29,-28,-26,-24,-23,-22,-21,-20,-18,-15,-12,-9,-5,-2,0,4,8,12,14,16,17,19,21,22,24,26,28,30,33,36,38,40,42,45,48,53,62,70,76,80,84,89,94,97,97,94,88,82,76,69,62,55,49,43,37,30,24,20,17,14,12,10,8,7,6,5,4,5,5,7,10,14,20,27,57,113,191,289,401,511,598,633,631,582,480,355,238,149,87,49,31,22,15,8,0,-6,-13,-17,-14,-8,-5,-2,0,1,3,4,5,6,7,7,6,5,2,0,-3,-5,-7,-8,-9,-10,-11,-13,-14,-15,-16,-17,-18,-19,-18,-17,-15,-13,-11,-8,-5,-2,1,5,10,17,25,32,37,41,45,47,49,50,52,53,55,56,58,60,62,64,66,68,71,75,82,95,106,112,116,119,122,123,123,122,118,113,108,102,93,86,80,71,57,41,31,29,28,27,27,26,25,24,24,23,22,20,19,18,17,16,15,14,12,10,8,6,4,2,0,0,-1,-1,-2,-3,-4,-7,-13,-16,-14,-10,-8,-7,-5,-3,-2,-1,0,0,1,1,1,1,0,-1,-2,-2,-3,-3,-4,-5,-5,-6,-8,-11,-11,-9,-8,-7,-7,-6,-4,-3,-2,-2,-1,0,0,0,0,-1,-3,-4,-5,-7,-8,-10,-11,-13,-15,-17,-19,-22,-25,-28,-31,-34,-37,-40,-44,-48,-54,-60,-60,-55,-50,-46,-43,-39,-37,-38,-40,-43,-48,-57,-72,-80,-85,-88,-85,-78,-69,-59,-47,-36,-27,-19,-12,-6,-2,2,6,11,17,26,38,47,53,58,61,61,56,48,35,17,5,-2,-5,-7,-8,-10,-11,-12,-12,-13,-13,-13,-12,-12,-10,-8,-5,-2,0,5,16,26,53,91,144,217,306,402,485,535,538,509,419,308,208,129,67,20,-2,-5,-8,-11,-14,-16,-17,-18,-19,-20,-20,-21,-20,-19,-18,-18,-17,-17,-17,-17,-17,-16,-15,-15,-14,-14,-13,-12,-11,-10,-10,-11,-12,-12,-12,-13,-13,-13,-13,-13,-11,-11,-14,-15,-17,-18,-19,-20,-20,-20,-21,-21,-21,-20,-19,-17,-15,-13,-11,-8,-6,-3,0,3,7,10,14,18,22,27,35,41,45,48,50,53,56,57,55,51,46,40,34,27,20,13,3,-9,-21,-28,-33,-37,-40,-43,-46,-49,-52,-54,-57,-59,-61,-63,-64,-64,-63,-61,-57,-52,-47,-40,-27,-15,-4,4,11,16,18,19,20,21,22,22,22,22,23,24,24,25,25,26,26,27,27,27,27,26,25,24,22,21,20,19,18,17,16,15,15,14,12,10,8,6,4,2,2,2,2,3,4,5,7,9,14,13,3,-2,-6,-9,-12,-14,-16,-18,-20,-21,-22,-23,-25,-26,-27,-29,-29,-30,-31,-32,-33,-33,-34,-35,-35,-36,-37,-38,-40,-41,-42,-44,-46,-50,-54,-59,-63,-66,-68,-71,-73,-74,-75,-74,-71,-68,-64,-61,-58,-55,-52,-49,-47,-44,-41,-38,-36,-33,-30,-26,-21,-12,1,9,13,17,20,22,21,16,9,1,-5,-11,-18,-24,-28,-32,-35,-37,-40,-42,-45,-47,-48,-49,-48,-46,-43,-38,-32,-20,0,29,71,132,212,306,407,503,576,597,590,539,452,349,245,148,62,1,-34,-50,-57,-62,-65,-67,-66,-63,-58,-42,-8,2,6,10,-2,-15,-25,-32,-35,-37,-39,-42,-42,-37,-33,-29,-28,-33,-38,-42,-42,-35,-29,-25,-20,-12,-2,2,5,9,12,15,17,20,22,25,27,30,32,33,35,37,39,43,49,56,63,68,74,81,90,98,106,115,127,145,154,160,165,169,172,175,177,178,179,180,181,182,183,184,187,188,184,175,166,154,142,130,119,103,92,84,77,71,67,64,61,55,47,37,28,21,15,11,8,5,3,1,2,4,6,8,9,10,11,12,13,14,16,17,18,19,19,19,19,19,18,17,17,16,14,13,12,11,10,9,7,6,4,3,3,2,0,0,-2,-4,-5,-7,-9,-10,-11,-12,-13,-13,-14,-16,-17,-19,-22,-29,-29,-21,-16,-12,-7,-5,-4,-5,-7,-10,-12,-16,-22,-14,-8,-4,0,2,3,1,-1,-5,-9,-13,-18,-21,-20,-17,-13,-7,-13,-17,-20,-23,-26,-27,-27,-26,-23,-21,-18,-14,-6,-6,-13,-17,-20,-22,-25,-27,-27,-26,-25,-23,-20,-17,-13,-8,0,6,10,13,15,18,21,22,23,23,20,16,10,4,-3,-15,-26,-36,-49,-62,-69,-74,-78,-81,-83,-83,-80,-74,-69,-65,-60,-56,-52,-49,-45,-42,-40,-35,-18,27,98,192,304,420,513,554,552,502,397,267,144,53,-8,-57,-91,-103,-107,-105,-102,-100,-98,-96,-95,-94,-94,-95,-96,-97,-98,-100,-103,-106,-107,-103,-95,-85,-72,-66,-62,-59,-57,-60,-65,-68,-71,-73,-75,-76,-74,-71,-65,-60,-55,-49,-43,-39,-36,-33,-31,-29,-28,-27,-25,-24,-23,-22,-20,-19,-18,-16,-13,-9,-1,14,26,36,45,52,57,62,67,72,78,83,89,94,97,99,100,102,103,105,106,107,105,102,96,90,81,66,49,40,33,28,24,21,18,15,12,9,5,0,-6,-14,-23,-31,-38,-44,-46,-48,-52,-56,-56,-49,-45,-43,-40,-37,-35,-33,-32,-30,-29,-28,-28,-30,-32,-35,-38,-40,-43,-45,-47,-49,-51,-52,-53,-54,-57,-60,-62,-65,-67,-69,-70,-72,-73,-73,-73,-73,-73,-73,-74,-75,-75,-75,-75,-75,-75,-76,-76,-76,-76,-77,-78,-79,-80,-81,-82,-82,-82,-82,-83,-83,-83,-84,-86,-91,-90,-82,-78,-75,-73,-71,-69,-68,-67,-67,-67,-68,-70,-73,-74,-76,-78,-80,-82,-83,-83,-81,-77,-72,-67,-62,-58,-51,-44,-38,-33,-28,-22,-15,-9,-8,-8,-9,-10,-11,-12,-13,-13,-12,-10,-7,-4,-1,3,8,10,8,3,-3,-10,-17,-25,-34,-43,-50,-57,-63,-68,-69,-70,-70,-71,-72,-73,-74,-73,-69,-63,-57,-51,-44,-37,-26,-8,19,69,138,222,307,378,407,418,399,340,253,151,49,-30,-85,-111,-118,-121,-126,-130,-134,-138,-143,-150,-153,-147,-133,-119,-103,-92,-84,-77,-71,-63,-56,-48,-38,-24,-12,2,26,45,54,61,67,73,77,79,80,81,82,83,84,84,85,85,85,86,87,88,89,91,92,93,95,97,99,100,102,104,107,110,115,121,127,132,135,138,140,144,148,154,162,170,176,182,186,189,189,185,179,172,167,161,156,150,145,141,136,128,116,100,86,74,62,49,40,33,27,21,15,10,5,-1,-11,-20,-31,-36,-40,-43,-45,-48,-51,-54,-58,-62,-66,-70,-74,-77,-80,-84,-87,-91,-95,-98,-101,-104,-106,-108,-111,-113,-116,-119,-122,-125,-128,-132,-137,-142,-148,-154,-160,-163,-162,-161,-160,-158,-156,-153,-151,-152,-159,-169,-178,-183,-188,-194,-200,-206,-210,-214,-215,-216,-216,-216,-215,-213,-209,-205,-200,-195,-185,-162,-143,-129,-111,-97,-87,-78,-70,-62,-54,-46,-39,-31,-23,-14,-4,7,19,27,32,37,42,46,50,54,58,61,64,66,68,70,71,72,73,74,75,76,77,77,77,77,76,76,75,74,73,72,71,71,72,72,72,73,75,76,78,79,79,80,82,83,85,87,88,90,92,94,97,99,101,103,104,106,108,110,110,110,111,111,112,113,116,118,122,141,180,241,327,429,535,628,681,699,678,614,517,411,311,228,162,121,108,100,92,86,77,65,51,40,32,27,25,29,37,46,50,53,55,57,59,61,63,64,66,68,69,70,71,72,73,75,76,77,78,78,79,81,83,85,87,89,92,97,103,108,111,114,116,117,120,122,125,127,127,126,124,122,121,119,116,114,111,112,115,121,126,131,136,140,145,149,153,156,159,162,165,168,168,166,162,156,150,145,139,133,126,119,113,106,98,86,74,61,52,43,36,31,27,22,19,17,16,14,13,13,12,11,10,9,8,7,7,7,6,6,6,7,8,9,9,10,10,11,12,14,15,16,17,18,20,21,23,24,26,27,28,30,30,31,32,32,33,34,36,36,37,37,36,35,34,32,29,27,25,23,22,21,20,20,19,19,19,19,19,19,19,20,20,21,21,22,22,21,21,20,18,17,15,13,11,9,7,5,3,1,0,-2,-5,-7,-9,-11,-13,-14,-15,-16,-16,-15,-15,-14,-13,-13,-12,-12,-11,-10,-8,-7,-5,-4,-2,0,0,1,2,3,4,5,7,7,8,10,14,18,17,11,1,-13,-37,-59,-75,-89,-96,-101,-105,-109,-111,-113,-114,-115,-115,-114,-113,-110,-107,-103,-98,-92,-83,-66,-49,-26,0,45,124,242,390,537,632,642,598,471,317,184,98,54,31,9,-18,-47,-66,-70,-74,-77,-70,-65,-63,-62,-60,-59,-58,-56,-54,-51,-48,-46,-44,-41,-39,-35,-29,-22,-15,-9,-2,5,14,23,32,39,45,49,53,56,59,60,58,55,50,45,40,36,32,28,24,20,16,14,12,11,11,12,13,15,18,21,25,29,34,43,63,76,89,102,120,134,145,153,158,162,165,168,170,172,173,173,171,168,164,159,151,138,123,110,99,90,82,74,64,52,44,38,33,28,22,17,13,8,4,0,0,1,6,12,19,29,45,56,66,76,82,86,90,94,96,91,82,77,73,70,67,63,60,57,55,52,50,46,38,19,0,-13,-20,-23,-26,-27,-28,-29,-31,-34,-37,-42,-47,-52,-58,-68,-78,-85,-92,-98,-103,-109,-116,-124,-131,-137,-142,-147,-151,-154,-155,-156,-156,-157,-157,-157,-157,-157,-158,-158,-158,-158,-157,-156,-155,-155,-154,-154,-154,-153,-153,-153,-154,-154,-154,-154,-154,-153,-151,-150,-148,-145,-142,-139,-136,-134,-131,-129,-125,-121,-116,-112,-107,-104,-101,-99,-98,-96,-95,-94,-94,-93,-90,-88,-90,-96,-106,-121,-145,-167,-191,-204,-211,-216,-220,-223,-224,-224,-223,-220,-216,-212,-208,-204,-198,-192,-186,-182,-179,-175,-166,-153,-130,-90,-34,42,140,251,345,386,384,336,237,112,-18,-127,-194,-212,-218,-215,-190,-158,-148,-141,-135,-130,-127,-125,-123,-120,-118,-117,-114,-112,-110,-108,-105,-102,-99,-95,-88,-81,-75,-69,-63,-56,-52,-56,-65,-72,-79,-86,-95,-102,-108,-114,-119,-122,-125,-126,-127,-128,-128,-129,-131,-130,-119,-108,-96,-85,-76,-68,-57,-43,-20,3,13,18,22,28,35,42,50,58,67,72,78,96,128,142,147,150,153,154,155,155,156,156,156,154,152,149,144,139,134,128,120,111,101,91,83,79,76,74,72,70,69,67,66,66,65,64,63,62,62,62,62,62,62,62,63,64,64,64,64,64,64,63,62,61,59,57,54,52,44,23,6,-4,-14,-23,-28,-32,-36,-39,-42,-44,-46,-47,-47,-48,-47,-46,-44,-41,-39,-37,-35,-32,-30,-28,-25,-23,-21,-18,-13,-8,-4,0,4,8,13,17,22,25,28,30,33,36,40,45,49,52,55,58,61,64,66,67,68,68,68,69,69,70,72,73,74,75,78,81,83,85,86,86,86,86,87,87,87,87,87,89,92,95,98,99,99,97,95,93,92,90,88,85,82,79,76,72,69,64,56,41,17,1,-9,-19,-26,-32,-36,-40,-44,-48,-51,-55,-60,-65,-71,-75,-81,-86,-90,-90,-87,-82,-73,-44,-6,43,112,202,307,413,498,527,521,460,350,225,113,32,-8,-25,-42,-66,-89,-98,-101,-104,-106,-108,-110,-111,-111,-112,-112,-112,-111,-110,-107,-104,-101,-97,-93,-88,-83,-78,-68,-58,-51,-45,-41,-39,-37,-35,-32,-30,-27,-24,-20,-17,-14,-11,-7,-4,0,3,8,13,17,23,27,32,37,42,47,54,61,67,73,79,83,86,90,94,98,103,108,113,118,123,130,137,143,148,153,157,161,166,170,171,169,164,156,147,135,114,97,83,70,57,44,29,13,1,-1,-3,-5,-6,-8,-9,-10,-12,-13,-15,-16,-17,-17,-17,-17,-17,-16,-16,-15,-15,-16,-17,-17,-18,-18,-17,-17,-16,-15,-13,-12,-11,-11,-11,-12,-13,-14,-15,-17,-19,-20,-21,-22,-22,-23,-25,-29,-33,-37,-41,-44,-48,-51,-53,-54,-55,-54,-54,-53,-53,-54,-55,-56,-57,-58,-58,-57,-56,-54,-53,-51,-50,-48,-47,-46,-46,-47,-51,-55,-59,-63,-65,-68,-70,-71,-73,-75,-77,-78,-80,-81,-83,-85,-86,-88,-89,-90,-90,-91,-91,-92,-93,-93,-94,-95,-97,-99,-101,-103,-104,-105,-105,-105,-105,-103,-101,-98,-94,-90,-86,-82,-79,-76,-73,-69,-65,-62,-60,-59,-59,-59,-61,-63,-66,-70,-75,-83,-99,-109,-114,-118,-121,-125,-129,-133,-136,-138,-139,-139,-139,-139,-138,-137,-135,-133,-130,-127,-123,-119,-94,-45,22,105,203,305,391,440,457,438,380,277,171,65,-30,-100,-135,-144,-150,-153,-157,-160,-162,-164,-167,-172,-181,-185,-177,-163,-156,-153,-150,-148,-148,-147,-146,-144,-143,-142,-140,-139,-138,-137,-136,-135,-134,-133,-132,-131,-130,-128,-127,-126,-124,-122,-119,-115,-111,-108,-104,-100,-96,-93,-89,-85,-81,-76,-70,-62,-53,-45,-36,-28,-19,-9,-1,5,13,21,30,39,51,62,69,75,80,84,88,90,91,89,87,84,80,78,75,73,70,67,64,61,58,55,52,49,46,40,29,13,5,0,-4,-8,-11,-14,-15,-16,-17,-18,-18,-19,-19,-18,-17,-17,-17,-18,-18,-19,-20,-21,-22,-23,-24,-24,-23,-21,-19,-17,-15,-12,-10,-8,-6,-5,-4,-4,-2,-1,0,2,4,6,8,9,11,12,13,13,12,11,9,7,6,5,4,3,2,1,0,0,-1,-3,-6,-7,-5,-1,4,14,32,53,71,79,85,89,91,91,87,81,76,73,70,67,64,62,61,59,59,60,61,64,66,69,72,75,77,80,83,85,87,89,89,89,89,88,86,84,81,79,76,73,69,66,64,63,63,65,68,71,75,81,91,103,112,120,126,130,134,139,145,144,136,132,130,129,127,126,125,123,122,120,118,117,116,116,117,117,116,115,114,112,109,103,110,130,172,234,314,407,503,587,630,645,623,557,438,299,175,80,45,40,35,31,27,23,21,20,19,18,17,17,17,17,16,15,14,14,15,16,17,17,16,15,13,12,9,6,6,7,8,8,8,8,9,9,9,10,10,10,11,11,11,10,9,8,8,7,7,7,6,6,5,5,4,4,3,2,0,-1,2,11,20,29,38,47,58,71,83,93,102,107,109,111,113,115,116,111,103,97,93,90,86,81,76,71,66,58,48,40,32,28,25,22,19,16,13,10,7,4,1,0,-3,-6,-9,-12,-14,-14,-13,-12,-10,-9,-8,-8,-7,-6,-5,-4,-3,-3,-3,-3,-3,-4,-4,-4,-5,-5,-4,-3,-2,0,0,1,2,3,4,5,5,6,8,11,13,13,8,1,-3,-6,-7,-9,-11,-14,-16,-17,-19,-20,-21,-23,-24,-24,-24,-24,-23,-22,-22,-21,-21,-20,-19,-19,-19,-18,-18,-17,-16,-14,-13,-12,-12,-11,-10,-9,-8,-7,-5,-2,0,1,0,-4,-9,-14,-17,-22,-26,-30,-33,-35,-35,-34,-33,-31,-29,-27,-24,-22,-20,-18,-16,-14,-12,-11,-9,-7,-5,-2,0,0,0,-1,-3,-5,-8,-10,-4,5,12,18,24,28,30,28,24,19,13,6,-3,-12,-19,-26,-32,-38,-43,-47,-49,-50,-51,-52,-53,-54,-55,-55,-55,-52,-48,-43,-34,-18,5,44,103,189,296,407,503,557,559,516,410,289,179,88,23,-14,-42,-72,-93,-104,-110,-113,-116,-117,-119,-119,-119,-119,-119,-118,-117,-115,-113,-112,-112,-110,-108,-106,-105,-103,-102,-100,-99,-98,-97,-96,-95,-94,-92,-91,-89,-86,-84,-82,-80,-79,-76,-74,-73,-71,-68,-66,-63,-60,-56,-52,-48,-45,-42,-38,-34,-30,-27,-23,-18,-12,-3,4,13,21,29,36,43,50,60,72,84,95,101,105,108,111,112,112,109,104,98,92,85,79,74,69,62,46,25,8,0,-6,-11,-18,-24,-29,-34,-38,-41,-43,-44,-45,-46,-47,-48,-49,-49,-49,-49,-50,-50,-51,-50,-48,-46,-44,-42,-41,-39,-36,-34,-32,-30,-29,-28,-27,-26,-24,-24,-24,-26,-28,-30,-33,-36,-38,-40,-42,-44,-46,-46,-47,-47,-47,-47,-47,-47,-47,-46,-45,-44,-43,-41,-39,-39,-40,-42,-43,-44,-46,-48,-50,-51,-53,-55,-57,-59,-61,-62,-64,-66,-68,-71,-74,-76,-76,-76,-76,-76,-76,-75,-73,-73,-75,-77,-79,-81,-83,-84,-83,-82,-80,-79,-77,-75,-72,-69,-65,-62,-59,-56,-51,-45,-41,-37,-36,-36,-35,-34,-33,-33,-33,-33,-32,-31,-30,-30,-29,-29,-28,-27,-26,-24,-23,-21,-19,-16,-12,-9,-9,-12,-16,-22,-28,-37,-40,-41,-42,-44,-45,-41,-31,-15,0,12,28,44,56,65,71,75,78,81,85,88,94,105,123,152,191,240,304,385,486,593,691,765,783,772,701,593,471,361,276,210,159,132,123,118,118,124,131,134,137,139,140,141,143,144,146,148,150,152,154,156,157,158,160,162,165,166,168,170,172,174,176,177,179,181,182,183,184,185,185,185,185,184,183,183,182,181,180,179,178,177,176,176,176,176,174,173,173,174,178,183,187,190,193,196,199,202,205,207,209,211,213,214,216,217,217,218,221,223,225,225,222,215,206,189,164,143,123,107,86,62,39,27,20,15,10,5,0,-2,-5,-8,-11,-12,-14,-14,-13,-12,-10,-7,-5,-2,0,3,6,9,12,14,16,18,20,25,28,23,12,2,-7,-14,-17,-20,-23,-26,-30,-31,-30,-28,-26,-23,-24,-35,-40,-42,-44,-45,-47,-49,-51,-53,-55,-57,-58,-59,-60,-60,-60,-60,-59,-59,-60,-61,-62,-64,-66,-67,-69,-71,-74,-76,-78,-79,-81,-83,-84,-85,-86,-85,-85,-85,-84,-85,-85,-84,-83,-82,-81,-81,-81,-83,-84,-86,-87,-89,-90,-92,-94,-95,-96,-97,-97,-98,-98,-98,-98,-97,-96,-95,-93,-91,-90,-88,-87,-86,-84,-82,-80,-78,-76,-73,-69,-65,-62,-59,-56,-55,-53,-51,-49,-47,-44,-42,-37,-32,-29,-29,-31,-35,-40,-47,-58,-72,-80,-85,-90,-94,-96,-98,-98,-97,-95,-92,-89,-84,-79,-72,-60,-50,-42,-33,-23,-10,19,63,131,225,335,438,504,512,487,399,282,165,73,4,-44,-80,-108,-117,-121,-120,-116,-112,-108,-110,-112,-114,-116,-117,-116,-113,-110,-108,-107,-106,-105,-103,-100,-98,-96,-95,-93,-90,-87,-80,-68,-65,-62,-58,-59,-68,-75,-81,-86,-88,-87,-84,-78,-68,-54,-48,-46,-44,-42,-41,-39,-37,-34,-32,-30,-28,-24,-20,-14,0,12,21,28,34,40,46,52,59,67,75,82,89,96,102,108,112,116,119,123,128,130,126,118,110,102,93,84,70,49,39,35,32,29,26,24,22,21,19,18,18,17,18,19,20,20,20,20,20,19,18,16,18,22,23,24,25,27,28,28,29,29,30,31,31,32,31,31,31,32,32,32,31,31,31,31,30,30,30,29,29,29,28,27,27,26,25,24,23,22,21,19,18,18,17,16,14,14,13,12,11,10,8,7,6,6,6,5,4,4,3,4,4,5,5,5,5,6,7,7,7,6,6,5,6,6,7,7,6,6,7,7,8,8,7,6,6,7,11,15,22,31,33,35,38,29,21,16,12,9,8,9,12,17,21,24,28,31,35,38,41,44,47,50,52,56,61,66,67,65,60,54,43,24,11,2,-6,-15,-19,-22,-25,-28,-30,-31,-33,-34,-34,-34,-34,-34,-33,-32,-30,-28,-24,-21,-17,-9,11,51,117,210,319,428,517,548,542,479,374,254,148,69,8,-43,-85,-99,-102,-104,-106,-107,-108,-108,-108,-105,-103,-100,-98,-96,-94,-92,-90,-88,-87,-86,-84,-83,-82,-81,-81,-82,-82,-83,-83,-83,-82,-82,-80,-79,-77,-76,-75,-73,-71,-68,-65,-62,-59,-57,-55,-52,-48,-45,-42,-39,-36,-33,-30,-27,-24,-20,-17,-11,-5,0,4,9,16,27,39,49,56,63,71,80,88,97,105,109,112,115,118,121,122,120,115,108,99,86,71,58,47,36,25,19,15,12,10,8,6,4,1,0,-1,-2,-4,-6,-8,-10,-11,-13,-15,-18,-21,-23,-24,-22,-19,-14,-9,-4,-1,1,4,8,11,14,17,19,21,23,25,27,28,29,30,32,33,35,37,39,41,43,44,45,45,45,44,42,39,37,35,33,30,28,26,24,22,20,17,15,12,10,7,6,4,3,3,4,5,6,6,7,7,8,9,10,10,11,11,11,12,13,13,14,13,13,12,11,10,8,6,4,3,3,3,2,1,0,0,0,0,0,-1,-2,-2,-2,-2,-1,-1,-1,-2,-3,-3,-3,-3,-4,-4,-4,-3,-1,0,2,3,5,8,10,13,15,18,21,27,36,41,42,38,32,25,18,9,0,-6,-12,-17,-21,-25,-28,-32,-35,-37,-40,-42,-44,-47,-49,-51,-52,-53,-53,-53,-51,-48,-44,-39,-18,18,69,138,228,333,440,527,560,556,505,418,311,197,97,24,-29,-75,-105,-112,-118,-122,-124,-125,-124,-121,-118,-114,-111,-109,-108,-105,-102,-100,-98,-96,-96,-94,-93,-92,-90,-90,-89,-89,-89,-88,-87,-87,-87,-86,-85,-84,-81,-79,-77,-75,-73,-69,-64,-59,-55,-52,-50,-48,-46,-43,-40,-37,-33,-31,-28,-26,-23,-21,-18,-14,-8,3,12,19,27,34,45,58,68,76,83,89,93,97,100,105,110,115,115,112,106,99,90,81,70,52,40,33,28,24,20,16,12,7,1,-4,-10,-15,-21,-27,-32,-35,-37,-39,-40,-41,-42,-42,-42,-41,-40,-39,-38,-37,-36,-34,-33,-31,-30,-30,-31,-32,-34,-36,-37,-38,-40,-42,-44,-45,-44,-43,-41,-39,-37,-35,-30,-27,-30,-36,-40,-45,-48,-51,-51,-50,-49,-49,-48,-47,-46,-45,-44,-43,-43,-43,-43,-43,-44,-46,-50,-54,-64,-76,-82,-86,-77,-72,-69,-67,-65,-63,-62,-61,-61,-61,-60,-61,-62,-63,-64,-65,-67,-68,-70,-73,-79,-84,-79,-70,-64,-59,-53,-50,-50,-52,-55,-58,-61,-64,-68,-71,-71,-69,-65,-62,-59,-56,-52,-50,-49,-51,-55,-59,-64,-70,-73,-69,-62,-53,-36,-20,-9,-2,6,16,21,24,27,28,29,26,23,19,13,4,-7,-13,-18,-23,-26,-28,-30,-30,-31,-31,-31,-30,-29,-28,-26,-24,-22,-20,-17,-12,-8,-4,1,24,63,123,208,315,430,525,568,568,527,440,335,236,155,91,38,-5,-37,-47,-52,-57,-60,-63,-66,-71,-74,-71,-64,-59,-55,-52,-49,-47,-45,-42,-39,-37,-34,-32,-30,-29,-28,-27,-25,-24,-22,-21,-19,-17,-16,-15,-14,-13,-13,-12,-11,-9,-7,-5,-2,1,5,8,11,13,16,21,28,34,38,41,43,47,52,58,63,68,74,78,82,87,96,111,122,127,133,139,146,156,167,172,174,176,178,179,180,180,177,172,166,159,151,138,128,120,110,99,89,85,82,80,77,75,73,72,70,69,68,67,66,65,65,64,63,62,60,58,56,54,51,48,45,42,39,35,28,16,11,8,5,2,3,7,11,14,16,19,21,23,24,22,19,15,11,9,8,7,5,3,1,0,-1,-2,-3,-4,-6,-7,-7,-8,-8,-9,-10,-12,-14,-15,-16,-18,-20,-22,-24,-25,-26,-27,-27,-27,-27,-27,-26,-25,-24,-23,-22,-18,-19,-26,-29,-32,-34,-36,-37,-36,-34,-30,-25,-21,-17,-12,-7,-2,0,1,0,-1,-4,-7,-10,-16,-21,-22,-18,-14,-11,-9,-7,-4,-3,-1,0,2,5,8,9,11,13,16,21,28,34,40,45,52,56,52,45,39,33,27,20,13,7,1,-3,-9,-13,-16,-18,-19,-20,-22,-24,-26,-27,-28,-27,-26,-24,-22,-18,-11,5,25,48,94,162,252,352,446,517,542,536,480,380,262,155,77,25,2,-9,-17,-26,-37,-56,-77,-89,-98,-97,-83,-77,-74,-71,-69,-67,-66,-64,-62,-61,-59,-58,-57,-57,-56,-56,-55,-55,-54,-54,-53,-52,-51,-50,-50,-50,-49,-48,-47,-46,-43,-37,-32,-29,-27,-25,-23,-22,-21,-19,-17,-14,-10,-6,-2,2,7,13,19,22,25,28,32,37,42,50,58,67,76,85,93,107,124,131,135,139,140,140,136,130,123,117,110,102,96,91,86,80,73,65,53,40,25,17,14,11,9,7,6,4,1,0,-2,-4,-6,-8,-10,-12,-16,-18,-20,-19,-19,-18,-17,-16,-15,-14,-12,-10,-8,-6,-4,-2,0,0,0,1,1,2,4,7,9,9,9,9,8,7,7,6,6,5,5,5,4,4,3,3,2,1,0,0,-2,-3,-4,-5,-7,-8,-9,-10,-12,-13,-15,-17,-18,-20,-22,-24,-26,-28,-29,-30,-31,-31,-31,-31,-30,-29,-27,-26,-25,-24,-23,-22,-21,-19,-18,-17,-16,-14,-13,-12,-11,-10,-10,-9,-8,-8,-8,-8,-8,-9,-9,-9,-10,-10,-9,-9,-9,-9,-8,-8,-7,-7,-5,-4,-1,0,2,4,7,9,12,15,19,24,28,33,36,37,37,35,31,27,22,16,9,-2,-12,-17,-21,-24,-26,-29,-31,-33,-35,-36,-36,-36,-35,-34,-33,-30,-27,-23,-17,-10,3,28,64,115,186,278,382,484,566,601,612,588,517,407,295,193,107,44,-2,-23,-29,-31,-34,-36,-37,-38,-39,-40,-41,-42,-42,-42,-41,-41,-40,-39,-39,-39,-39,-39,-39,-39,-40,-40,-39,-39,-38,-37,-36,-35,-35,-34,-32,-31,-31,-30,-29,-29,-29,-28,-26,-24,-22,-19,-14,-9,-5,0,5,10,14,17,21,24,27,30,33,36,39,41,44,48,54,62,78,90,97,102,106,108,111,113,115,117,119,121,124,127,132,136,136,132,124,112,94,82,72,58,45,34,24,16,11,7,3,0,-5,-10,-16,-20,-25,-29,-32,-35,-36,-36,-36,-36,-37,-37,-37,-38,-38,-37,-35,-34,-33,-31,-29,-27,-25,-23,-21,-20,-19,-18,-17,-16,-16,-18,-20,-22,-24,-26,-27,-29,-32,-35,-37,-38,-39,-40,-40,-41,-42,-41,-41,-40,-40,-41,-43,-44,-45,-45,-45,-46,-47,-48,-48,-48,-48,-48,-49,-52,-55,-56,-54,-48,-43,-38,-32,-27,-25,-26,-29,-33,-35,-37,-38,-39,-40,-41,-41,-41,-40,-38,-36,-33,-32,-31,-30,-28,-27,-26,-26,-25,-25,-25,-26,-26,-26,-26,-26,-26,-26,-25,-25,-24,-24,-23,-23,-22,-21,-20,-19,-18,-17,-15,-12,-8,-4,0,1,2,3,4,4,3,1,0,-3,-6,-8,-11,-14,-22,-32,-44,-50,-54,-58,-61,-65,-69,-71,-72,-73,-73,-73,-72,-71,-68,-65,-61,-56,-51,-41,-19,14,68,148,252,364,467,538,547,529,453,343,220,111,25,-37,-82,-100,-105,-108,-110,-112,-113,-115,-116,-116,-117,-117,-118,-118,-117,-116,-114,-113,-111,-109,-108,-106,-104,-102,-99,-93,-82,-80,-80,-79,-79,-78,-78,-77,-76,-75,-74,-72,-69,-66,-64,-61,-57,-54,-48,-43,-38,-33,-30,-27,-24,-21,-17,-14,-10,-5,0,8,19,34,44,50,55,60,65,71,79,90,105,118,131,143,151,157,163,166,163,155,146,135,131,128,127,125,123,119,115,110,101,87,76,63,51,43,41,39,38,38,36,35,32,28,25,22,19,16,13,12,12,11,10,8,5,10,12,13,14,15,16,16,16,17,18,19,19,19,19,19,18,18,18,18,19,19,19,19,20,20,21,22,22,21,20,20,20,20,20,20,19,19,19,20,19,17,17,21,23,24,25,26,26,26,26,26,27,26,25,24,22,20,19,17,14,10,6,3,1,0,-2,-4,-4,-2,2,9,16,25,29,29,29,28,29,29,29,29,28,26,24,22,21,19,17,15,13,12,13,15,17,20,22,25,27,31,34,37,39,41,43,46,50,59,69,75,79,83,86,87,86,83,78,70,58,52,49,46,42,37,32,26,17,4,-3,-8,-12,-14,-16,-18,-20,-21,-23,-25,-29,-31,-28,-21,-1,34,84,147,223,306,387,452,494,499,482,413,312,202,98,15,-45,-79,-90,-80,-64,-52,-45,-46,-66,-96,-108,-112,-102,-86,-69,-63,-60,-58,-56,-55,-55,-55,-55,-56,-57,-59,-60,-61,-63,-65,-66,-67,-66,-64,-59,-55,-49,-41,-37,-35,-33,-32,-30,-29,-30,-30,-31,-32,-34,-37,-36,-29,-22,-17,-12,-5,1,7,12,17,22,26,30,33,37,41,46,51,57,64,73,86,93,98,102,105,106,103,98,92,87,82,77,73,70,67,63,59,53,44,36,27,19,11,1,-8,-16,-22,-26,-30,-34,-37,-38,-39,-41,-42,-44,-45,-46,-46,-46,-45,-44,-43,-41,-39,-37,-34,-32,-31,-30,-27,-24,-21,-19,-19,-20,-22,-24,-26,-28,-32,-35,-37,-37,-35,-33,-31,-29,-27,-25,-24,-25,-27,-29,-31,-31,-32,-34,-35,-37,-38,-38,-38,-39,-39,-40,-41,-41,-41,-41,-41,-41,-41,-41,-40,-39,-39,-40,-40,-40,-39,-39,-38,-37,-37,-36,-36,-36,-35,-35,-34,-34,-34,-35,-35,-34,-34,-33,-32,-31,-31,-30,-29,-28,-28,-27,-28,-28,-28,-28,-28,-28,-26,-25,-23,-22,-21,-20,-19,-19,-19,-18,-17,-15,-13,-10,-6,-2,2,8,15,24,33,39,40,41,41,42,43,38,25,7,-14,-22,-25,-27,-30,-32,-34,-36,-38,-39,-39,-40,-41,-41,-41,-40,-40,-39,-38,-37,-36,-34,-32,-29,-27,-12,22,76,152,250,363,478,568,604,599,537,420,289,166,64,-4,-40,-52,-62,-69,-83,-104,-117,-126,-131,-131,-126,-117,-104,-87,-82,-80,-78,-77,-75,-74,-74,-73,-71,-69,-68,-67,-66,-66,-66,-66,-65,-64,-64,-63,-63,-63,-62,-61,-61,-60,-60,-59,-57,-56,-55,-54,-53,-52,-50,-47,-44,-37,-24,-12,-5,-1,3,6,9,12,13,15,18,23,37,54,65,76,85,91,95,99,102,104,106,107,109,110,111,111,111,111,110,107,104,100,96,91,85,75,65,56,42,22,13,8,4,2,0,0,0,3,6,9,12,14,17,19,22,24,25,26,26,26,26,25,23,22,20,18,17,17,16,15,14,13,12,12,11,11,11,11,10,10,11,11,12,12,12,12,12,12,13,13,13,13,13,13,14,14,14,14,14,14,13,11,10,8,7,5,4,3,3,2,1,0,-2,-4,-7,-10,-13,-17,-20,-22,-23,-23,-23,-22,-22,-21,-21,-20,-19,-19,-18,-16,-12,-10,-10,-11,-12,-12,-12,-12,-12,-13,-15,-17,-19,-21,-23,-25,-28,-33,-43,-50,-55,-59,-62,-65,-65,-63,-59,-53,-46,-33,-22,-13,-6,0,6,13,19,24,30,36,40,41,40,36,31,25,19,9,1,-6,-15,-26,-36,-41,-45,-49,-52,-53,-54,-53,-51,-48,-45,-41,-37,-31,-24,-17,-8,6,30,73,138,230,342,458,557,608,610,567,463,333,209,113,51,10,-31,-64,-76,-80,-78,-73,-70,-67,-65,-63,-61,-58,-55,-53,-50,-45,-38,-28,-27,-27,-27,-27,-26,-26,-26,-26,-26,-26,-26,-26,-26,-26,-26,-25,-24,-23,-22,-21,-20,-18,-17,-14,-11,-7,0,5,6,6,5,3,2,0,0,1,6,12,20,30,37,42,48,56,67,76,84,91,98,105,115,127,128,129,129,130,131,131,132,132,132,132,131,130,128,125,121,117,109,90,72,58,43,34,28,23,19,17,15,13,11,11,11,11,10,10,9,9,9,10,11,11,11,11,12,13,14,14,14,13,12,12,12,11,10,8,7,6,6,6,5,3,2,0,0,-1,-2,-2,-3,-3,-2,0,1,4,6,8,11,13,15,18,20,21,22,22,23,23,22,21,20,19,17,16,14,12,8,2,-2,-2,1,6,7,7,8,9,10,11,12,13,14,15,16,16,16,15,14,14,14,15,15,15,15,16,17,18,20,20,21,21,21,22,23,23,24,25,26,27,29,32,35,38,41,43,46,50,54,58,61,64,67,71,75,78,81,83,82,81,80,78,76,73,69,63,52,43,33,23,12,9,9,10,10,11,12,10,4,-2,-8,-15,-20,-20,-15,-6,7,28,62,106,166,241,322,405,478,533,551,538,501,417,319,220,135,68,17,-20,-34,-39,-44,-49,-45,-42,-41,-40,-39,-38,-37,-36,-35,-34,-32,-30,-29,-28,-27,-25,-22,-19,-16,-12,-10,-8,-6,-5,-4,-3,-2,-1,0,2,4,6,6,6,5,5,4,3,2,1,0,-1,0,2,6,10,13,16,19,22,25,28,31,34,37,40,44,49,56,64,74,85,92,97,103,108,111,113,113,113,113,112,112,111,111,110,108,106,101,93,81,60,43,31,18,12,8,6,3,1,0,-3,-5,-8,-10,-13,-16,-18,-20,-21,-22,-24,-25,-26,-28,-29,-30,-32,-34,-35,-37,-37,-38,-38,-39,-41,-42,-44,-45,-47,-49,-52,-55,-58,-60,-62,-64,-66,-68,-69,-70,-70,-71,-72,-75,-76,-78,-80,-81,-84,-86,-89,-91,-93,-94,-96,-98,-100,-102,-103,-104,-105,-105,-105,-106,-106,-105,-104,-103,-102,-100,-99,-97,-95,-93,-91,-90,-89,-89,-91,-93,-95,-97,-100,-103,-106,-111,-117,-120,-122,-123,-126,-131,-119,-112,-108,-105,-101,-99,-98,-97,-97,-96,-95,-95,-96,-98,-100,-102,-103,-105,-109,-108,-99,-93,-90,-87,-84,-81,-79,-76,-73,-70,-68,-65,-62,-55,-42,-32,-24,-18,-14,-15,-21,-29,-36,-46,-56,-65,-81,-92,-94,-95,-96,-97,-98,-98,-98,-98,-99,-99,-98,-98,-96,-94,-92,-90,-87,-83,-76,-56,-19,39,114,204,306,408,490,535,540,518,437,325,208,101,13,-42,-67,-79,-86,-91,-98,-104,-108,-112,-115,-117,-119,-120,-120,-120,-118,-117,-114,-112,-110,-108,-107,-105,-103,-101,-99,-97,-95,-93,-89,-86,-82,-78,-74,-69,-64,-56,-48,-43,-42,-41,-40,-38,-35,-32,-28,-22,-14,0,19,33
