-92,-122,-141,-152,-160,-164,-163,-157,-146,-126,-95,-63,-30,-5,10,23,34,43,51,57,60,57,51,45,42,39,36,33,31,27,23,18,13,8,3,-2,-10,-23,-48,-61,-67,-70,-74,-76,-79,-83,-88,-91,-95,-99,-103,-108,-118,-136,-148,-157,-166,-169,-161,-146,-135,-125,-117,-112,-110,-107,-105,-102,-100,-97,-93,-88,-83,-78,-72,-68,-62,-57,-54,-53,-55,-59,-63,-66,-70,-76,-83,-85,-83,-75,-63,-42,-17,-5,2,6,1,-10,-24,-40,-54,-65,-74,-80,-80,-73,-62,-46,-28,-22,-19,-15,-12,-12,-17,-23,-26,-28,-31,-32,-35,-38,-41,-44,-46,-47,-48,-47,-46,-45,-43,-42,-41,-40,-40,-40,-39,-38,-37,-36,-34,-32,-28,-23,-18,-12,-8,-4,0,2,6,8,11,14,16,18,20,22,24,25,25,22,19,15,10,6,2,0,-3,-6,-11,-17,-23,-25,-24,-21,-18,-15,-13,-10,-6,-3,-3,-6,-13,-20,-29,-42,-49,-44,-28,15,89,189,290,372,422,439,427,393,328,254,172,82,-7,-53,-70,-67,-42,-32,-26,-20,-16,-11,-7,-3,1,5,7,9,10,9,7,6,4,3,1,1,0,0,0,0,-1,-2,-3,-6,-9,-11,-9,-1,7,16,28,37,43,47,51,53,55,57,58,60,62,65,68,72,76,80,85,90,96,102,108,112,115,118,119,121,122,123,123,125,128,130,125,114,104,93,81,68,58,50,42,34,25,15,-6,-36,-52,-61,-70,-81,-92,-105,-121,-133,-144,-153,-162,-170,-180,-188,-193,-197,-201,-204,-206,-209,-211,-213,-214,-213,-212,-209,-207,-203,-200,-196,-192,-189,-186,-184,-181,-177,-173,-169,-164,-160,-156,-154,-152,-151,-151,-151,-152,-151,-151,-151,-150,-147,-144,-140,-137,-133,-130,-126,-123,-121,-117,-113,-104,-95,-91,-93,-101,-110,-118,-129,-137,-137,-130,-118,-97,-67,-52,-43,-37,-34,-38,-47,-59,-75,-96,-103,-110,-117,-105,-85,-61,-36,-12,1,10,16,16,8,-4,-17,-33,-41,-45,-50,-56,-55,-41,-24,-8,0,5,8,11,13,15,16,14,11,8,4,0,-8,-13,-6,7,23,41,52,58,63,68,71,72,65,55,45,38,32,25,18,12,7,3,1,0,0,0,1,3,4,4,3,2,1,0,0,-2,-4,-6,-9,-13,-17,-26,-26,-10,32,107,207,310,395,449,466,458,431,372,297,211,120,37,-6,-21,-28,-28,-21,-9,2,19,37,49,58,66,71,72,67,60,52,46,37,30,27,31,38,46,52,60,68,73,75,75,75,75,74,73,73,72,71,70,69,70,71,74,78,82,87,90,93,96,100,104,109,115,121,126,131,135,139,143,147,151,154,157,160,161,161,161,159,158,155,151,147,141,136,130,121,104,89,76,63,51,36,20,10,2,-3,-8,-13,-17,-22,-26,-29,-34,-39,-45,-51,-57,-62,-66,-69,-73,-77,-80,-83,-85,-86,-86,-85,-83,-81,-78,-76,-74,-72,-72,-71,-71,-70,-69,-67,-64,-61,-58,-56,-55,-55,-56,-58,-61,-63,-65,-67,-68,-69,-70,-71,-73,-80,-84,-77,-64,-55,-46,-39,-36,-39,-46,-55,-63,-73,-82,-82,-75,-65,-57,-48,-40,-37,-40,-47,-55,-61,-67,-73,-76,-76,-73,-67,-62,-60,-58,-56,-54,-51,-48,-45,-42,-39,-37,-36,-35,-35,-35,-35,-36,-36,-35,-32,-28,-25,-24,-25,-28,-32,-36,-42,-47,-48,-42,-34,-29,-26,-24,-20,-16,-11,-6,0,4,9,14,19,24,29,36,44,50,52,49,41,32,24,21,18,14,11,8,6,4,2,0,-1,-3,-4,-6,-7,-8,-9,-9,-8,-8,-8,-9,-10,-12,-15,-17,-19,-21,-24,-28,-32,-42,-49,-50,-42,-25,21,124,274,454,626,723,725,638,440,202,-15,-156,-179,-170,-96,-26,17,33,38,33,20,4,-12,-17,-20,-23,-24,-24,-21,-14,-5,3,13,21,27,33,38,45,49,49,46,42,41,39,38,35,32,29,28,27,27,29,31,35,40,46,51,57,64,73,83,91,98,104,109,113,117,122,125,128,130,133,135,137,139,140,142,143,145,148,153,157,160,157,150,140,123,93,76,68,62,58,53,48,44,39,34,26,10,-8,-35,-67,-83,-90,-95,-100,-103,-106,-109,-110,-111,-111,-111,-112,-112,-112,-113,-113,-113,-114,-114,-114,-114,-114,-113,-112,-111,-108,-106,-103,-100,-97,-95,-93,-92,-90,-90,-89,-88,-88,-87,-86,-85,-85,-84,-83,-83,-82,-81,-81,-81,-81,-81,-80,-79,-79,-78,-78,-77,-75,-73,-72,-70,-69,-68,-66,-65,-63,-62,-61,-60,-60,-58,-57,-55,-54,-52,-51,-49,-48,-47,-47,-46,-45,-45,-44,-43,-42,-41,-41,-40,-40,-39,-38,-37,-37,-37,-36,-35,-34,-33,-32,-32,-31,-30,-28,-27,-27,-26,-25,-23,-21,-18,-16,-15,-13,-11,-8,-5,-2,0,2,6,12,19,25,28,26,19,10,1,-4,-10,-16,-23,-28,-33,-36,-39,-41,-43,-45,-46,-48,-49,-51,-54,-57,-59,-62,-63,-64,-64,-64,-64,-62,-59,-56,-53,-49,-43,-18,49,150,285,435,567,609,593,468,255,8,-202,-302,-310,-250,-151,-62,-5,14,14,0,-10,-17,-23,-27,-29,-29,-27,-24,-20,-17,-15,-11,-7,-3,0,2,4,7,9,11,12,13,14,15,19,22,25,26,23,19,14,8,-1,0,13,35,59,68,72,75,78,81,84,88,91,95,99,103,110,124,146,155,160,164,167,168,167,164,160,156,150,143,136,135,140,147,154,164,163,146,121,94,56,21,-15,-54,-71,-80,-88,-87,-77,-70,-65,-61,-57,-55,-56,-58,-61,-64,-66,-68,-71,-74,-78,-81,-82,-83,-82,-81,-80,-79,-77,-75,-72,-70,-68,-67,-65,-62,-59,-55,-52,-51,-51,-52,-52,-53,-54,-57,-58,-57,-56,-54,-53,-52,-53,-55,-57,-59,-60,-63,-64,-65,-63,-60,-58,-55,-53,-51,-49,-48,-47,-46,-45,-45,-45,-46,-47,-48,-49,-51,-53,-56,-58,-63,-72,-73,-64,-59,-55,-51,-48,-46,-46,-48,-50,-54,-58,-65,-69,-68,-64,-62,-60,-59,-57,-55,-53,-51,-48,-44,-40,-35,-24,-2,19,33,42,49,56,59,55,43,24,7,2,0,-2,-4,-7,-11,-14,-18,-21,-25,-28,-32,-33,-33,-32,-31,-30,-30,-29,-28,-26,-25,-24,-24,-24,-25,-27,-29,-33,-38,-46,-47,-39,-15,49,153,292,443,566,621,579,433,212,-23,-206,-281,-285,-227,-140,-65,-20,-5,0,2,6,8,8,7,3,0,-3,-5,0,12,18,22,26,29,32,35,38,42,45,47,50,52,54,56,58,60,63,65,67,69,72,75,79,83,86,90,94,99,105,111,118,125,130,136,141,147,152,157,162,167,173,179,186,193,199,205,212,220,227,227,222,214,206,197,188,180,167,149,133,121,110,96,75,57,46,35,23,12,3,-5,-13,-20,-23,-26,-28,-31,-32,-34,-36,-38,-39,-40,-42,-42,-43,-43,-44,-44,-44,-45,-46,-47,-49,-51,-52,-53,-53,-53,-53,-51,-49,-45,-41,-37,-34,-30,-25,-19,-14,-12,-13,-16,-21,-27,-34,-46,-46,-34,-26,-18,-13,-13,-18,-25,-34,-46,-55,-63,-71,-70,-58,-43,-29,-25,-22,-19,-16,-15,-18,-24,-31,-38,-47,-54,-54,-50,-45,-41,-38,-35,-33,-32,-30,-29,-28,-27,-26,-26,-25,-24,-22,-21,-20,-22,-24,-28,-31,-36,-34,-19,-5,7,13,8,1,-3,-8,-12,-15,-15,-12,-6,1,11,25,29,32,36,35,20,12,6,0,-3,-6,-9,-11,-14,-16,-17,-19,-20,-22,-24,-28,-30,-30,-28,-25,-22,-20,-17,-14,-12,-11,-14,-19,-26,-34,-44,-50,-47,-36,-7,69,190,347,512,642,700,652,493,260,28,-144,-209,-211,-159,-92,-38,-16,-7,-3,0,2,3,3,1,-1,-4,-8,-13,-18,-21,-19,-14,-7,-3,0,4,8,11,14,17,20,23,25,27,30,34,39,41,41,39,35,32,30,26,23,21,24,31,39,49,62,73,84,93,100,106,112,118,123,128,134,141,147,150,153,156,159,162,163,163,159,152,146,140,134,126,116,106,94,77,54,39,26,14,0,-19,-28,-34,-40,-44,-48,-50,-52,-53,-55,-57,-60,-63,-65,-67,-69,-71,-74,-76,-78,-79,-81,-84,-89,-93,-95,-95,-91,-86,-82,-78,-77,-75,-73,-71,-70,-68,-67,-66,-65,-64,-64,-64,-64,-64,-65,-65,-65,-65,-64,-64,-64,-63,-63,-63,-64,-64,-64,-64,-64,-63,-62,-61,-61,-60,-59,-59,-59,-59,-59,-59,-59,-59,-59,-60,-60,-61,-61,-61,-62,-62,-62,-62,-62,-62,-62,-62,-62,-62,-61,-59,-58,-56,-55,-54,-53,-52,-50,-49,-48,-47,-44,-39,-34,-30,-28,-28,-27,-27,-27,-26,-25,-25,-25,-26,-27,-28,-28,-28,-28,-27,-25,-23,-19,-15,-11,-7,-4,0,3,12,21,27,31,33,36,40,43,42,32,19,9,1,-5,-12,-18,-22,-26,-30,-32,-35,-37,-39,-41,-44,-46,-48,-49,-49,-47,-46,-43,-41,-37,-31,-32,-46,-60,-73,-73,-58,-17,69,196,352,513,643,693,641,486,257,17,-168,-228,-224,-141,-39,29,54,55,39,15,-9,-20,-27,-30,-31,-26,-15,-5,-1,0,2,5,7,10,12,15,16,17,18,19,20,21,22,23,23,23,24,25,27,27,28,30,32,35,38,41,45,53,63,73,82,91,96,100,104,107,111,115,119,122,126,130,135,140,145,149,153,159,165,172,177,178,177,174,169,163,155,144,123,104,84,66,54,41,22,1,-20,-30,-33,-35,-38,-39,-41,-42,-42,-43,-43,-44,-44,-45,-45,-46,-46,-47,-47,-48,-48,-49,-50,-51,-52,-52,-53,-54,-55,-56,-58,-59,-59,-60,-60,-59,-57,-54,-51,-48,-45,-43,-41,-40,-39,-38,-37,-37,-37,-36,-34,-33,-31,-31,-31,-31,-32,-32,-33,-34,-35,-36,-37,-38,-38,-38,-39,-40,-41,-41,-42,-42,-42,-42,-43,-43,-44,-44,-44,-44,-45,-45,-46,-46,-44,-41,-38,-35,-32,-29,-26,-22,-19,-16,-14,-12,-10,-6,0,-15,-24,-30,-34,-37,-40,-41,-40,-37,-33,-27,-22,-18,-15,-11,-8,-5,-2,-1,0,2,5,7,10,11,12,13,14,16,18,20,22,27,38,53,63,70,75,78,79,77,74,69,62,51,27,17,14,11,9,8,7,6,5,4,3,2,1,0,0,-1,-2,-3,-3,-4,-5,-6,-8,-12,-19,-34,-41,-46,-52,-52,-37,3,69,178,324,488,630,697,656,508,283,50,-124,-188,-191,-142,-76,-14,8,14,18,21,23,23,23,21,18,14,10,6,1,-3,-7,-11,-14,-17,-18,-18,-16,-14,-10,-5,0,3,9,17,25,29,32,33,34,35,36,38,39,41,41,42,43,45,47,50,53,56,60,67,80,91,101,109,117,125,132,139,144,149,153,156,158,158,156,151,146,140,135,128,120,113,107,100,91,77,63,52,43,32,19,8,-1,-11,-18,-25,-33,-45,-58,-63,-65,-67,-69,-71,-72,-74,-75,-75,-76,-76,-76,-76,-75,-74,-72,-71,-69,-68,-68,-67,-66,-65,-63,-62,-60,-55,-52,-54,-60,-63,-67,-70,-72,-73,-71,-68,-65,-63,-61,-60,-59,-57,-55,-54,-52,-50,-49,-48,-47,-46,-45,-46,-47,-48,-49,-49,-49,-49,-48,-48,-49,-49,-49,-48,-49,-50,-52,-50,-46,-43,-39,-36,-35,-35,-37,-40,-42,-43,-45,-48,-50,-51,-51,-49,-46,-41,-35,-24,-20,-17,-15,-13,-11,-9,-6,-1,3,9,17,23,28,31,37,43,43,31,14,-4,-12,-17,-20,-23,-23,-23,-21,-18,-15,-11,-5,-2,-5,-13,-18,-22,-25,-28,-30,-32,-34,-36,-38,-40,-41,-43,-46,-53,-53,-44,-20,34,123,241,364,448,457,413,274,96,-65,-164,-179,-164,-106,-56,-40,-36,-34,-28,-15,6,22,27,32,16,1,-8,-16,-20,-19,-14,-9,-5,-3,0,1,3,6,8,11,14,17,20,23,26,28,31,34,37,40,42,45,48,53,65,81,88,93,95,94,91,89,86,84,85,91,100,113,128,134,137,140,142,145,148,151,155,160,164,169,176,182,184,181,176,168,158,137,114,90,65,42,19,4,0,-3,-6,-8,-10,-13,-15,-18,-21,-29,-48,-63,-71,-76,-76,-72,-66,-57,-42,-33,-27,-23,-22,-26,-33,-41,-52,-60,-68,-75,-74,-63,-54,-47,-41,-39,-40,-44,-49,-56,-67,-71,-77,-81,-72,-46,-11,3,9,14,17,18,14,7,-4,-21,-33,-41,-39,-27,-19,-13,-8,-5,-5,-7,-10,-14,-18,-22,-26,-29,-29,-27,-24,-20,-16,-10,-5,-4,-6,-10,-13,-17,-19,-14,-5,0,5,9,11,12,10,6,1,-8,-24,-37,-44,-37,-13,17,31,38,42,45,47,44,37,26,6,-10,-17,-21,-16,-11,-8,-6,-9,-18,-27,-39,-52,-63,-72,-77,-70,-59,-50,-41,-33,-30,-32,-38,-46,-61,-83,-100,-110,-99,-65,10,127,272,414,499,502,431,257,53,-119,-207,-220,-195,-132,-71,-42,-32,-32,-37,-42,-47,-47,-37,-28,-21,-17,-16,-21,-28,-34,-41,-45,-40,-30,-15,4,13,19,23,25,22,16,8,1,-8,-14,-10,0,10,23,31,35,37,39,40,41,43,46,48,51,54,57,62,73,94,112,124,135,145,154,158,161,163,165,167,167,167,166,163,159,156,152,147,142,135,123,104,89,78,63,47,32,20,12,5,-1,-11,-22,-33,-44,-54,-61,-66,-72,-80,-84,-78,-69,-65,-61,-57,-53,-51,-50,-49,-48,-48,-48,-50,-52,-55,-57,-59,-60,-62,-65,-69,-71,-70,-64,-56,-49,-46,-45,-44,-42,-40,-39,-37,-36,-35,-34,-32,-31,-31,-31,-32,-33,-34,-34,-35,-35,-36,-36,-35,-35,-34,-34,-34,-34,-34,-34,-34,-33,-33,-34,-34,-34,-34,-35,-35,-35,-34,-33,-32,-31,-30,-29,-29,-27,-26,-24,-23,-22,-21,-21,-19,-15,-10,-6,-4,-4,-5,-6,-7,-8,-9,-12,-14,-16,-17,-16,-14,-11,-7,-4,0,3,6,10,13,17,20,24,27,32,37,38,33,25,13,-1,-21,-25,-27,-29,-30,-31,-32,-33,-33,-34,-34,-34,-35,-35,-35,-35,-34,-33,-33,-32,-33,-33,-32,-31,-27,-21,-13,17,79,167,276,394,489,503,476,339,154,-31,-167,-209,-206,-146,-73,-8,21,31,30,19,13,9,5,3,1,0,0,-1,-1,-1,0,1,4,8,11,14,17,21,24,27,30,33,35,37,40,42,44,44,45,45,47,49,51,53,55,57,60,64,68,73,77,81,87,96,106,113,119,123,127,130,133,137,139,141,142,142,143,143,142,141,139,136,133,130,126,122,115,106,98,88,75,59,42,26,10,-9,-23,-34,-42,-46,-49,-50,-50,-50,-51,-51,-51,-51,-52,-52,-53,-54,-54,-55,-56,-56,-56,-56,-56,-56,-56,-55,-55,-55,-54,-54,-54,-53,-52,-52,-50,-49,-47,-44,-41,-38,-34,-29,-23,-18,-15,-13,-12,-11,-10,-9,-5,-8,-23,-31,-37,-41,-45,-48,-49,-49,-48,-45,-43,-39,-37,-35,-34,-32,-30,-28,-25,-23,-22,-20,-20,-20,-21,-22,-24,-26,-27,-29,-30,-31,-32,-33,-34,-35,-35,-36,-37,-38,-39,-40,-39,-37,-33,-30,-27,-24,-21,-18,-16,-14,-12,-12,-12,-13,-16,-18,-21,-24,-27,-30,-34,-39,-44,-47,-46,-39,-29,-19,-12,-4,3,11,16,16,13,7,0,-6,-13,-22,-32,-41,-49,-56,-61,-66,-71,-76,-80,-82,-83,-82,-80,-78,-75,-72,-69,-66,-60,-54,-52,-55,-63,-73,-86,-104,-109,-116,-121,-104,-53,39,168,319,457,527,525,442,271,70,-95,-161,-183,-162,-126,-89,-76,-72,-69,-66,-64,-62,-61,-59,-57,-57,-57,-57,-58,-58,-58,-57,-56,-55,-54,-53,-51,-50,-49,-47,-46,-45,-44,-42,-40,-37,-32,-28,-23,-18,-14,-9,-5,0,3,7,10,14,18,21,25,28,32,35,38,42,47,52,60,68,80,91,99,105,111,115,119,121,123,123,122,121,119,116,113,108,102,89,72,58,46,34,23,14,6,0,-6,-11,-17,-23,-30,-37,-41,-44,-47,-49,-51,-53,-54,-55,-55,-55,-54,-54,-54,-52,-51,-48,-46,-44,-42,-41,-37,-32,-29,-27,-29,-33,-37,-40,-46,-50,-50,-44,-38,-36,-35,-33,-31,-29,-27,-26,-24,-23,-22,-22,-22,-22,-22,-22,-22,-22,-23,-23,-23,-24,-25,-26,-28,-29,-30,-31,-33,-34,-35,-37,-37,-37,-38,-41,-45,-48,-50,-49,-46,-42,-39,-36,-34,-31,-28,-25,-24,-24,-27,-30,-34,-38,-42,-46,-51,-56,-60,-63,-64,-64,-63,-60,-56,-52,-47,-40,-28,-20,-14,-10,-4,-1,-1,-9,-20,-31,-46,-56,-62,-69,-78,-78,-63,-36,-17,-13,-11,-9,-8,-6,-4,-1,1,5,10,21,37,44,50,52,47,34,19,2,-10,-22,-33,-34,-29,-26,-23,-20,-19,-21,-26,-32,-39,-48,-53,-48,-38,-23,-5,1,6,10,11,9,1,-10,-31,-56,-72,-82,-75,-52,-4,81,208,362,517,629,643,599,432,216,8,-137,-170,-165,-103,-38,9,25,32,32,24,15,8,3,0,-4,-7,-11,-14,-17,-20,-23,-27,-31,-34,-33,-29,-22,-14,-9,-3,1,5,9,13,17,20,22,24,25,25,26,27,27,28,29,31,33,35,38,41,44,48,52,57,66,82,97,110,121,132,140,146,150,154,157,160,161,162,163,163,161,158,153,146,135,109,91,82,74,66,57,50,44,38,33,28,23,16,9,2,-4,-10,-17,-23,-29,-32,-35,-36,-38,-39,-40,-41,-42,-43,-44,-45,-46,-47,-48,-48,-47,-45,-42,-39,-35,-30,-26,-23,-20,-17,-14,-10,-7,-5,-7,-9,-13,-16,-18,-19,-21,-22,-24,-25,-27,-28,-29,-30,-31,-31,-30,-28,-25,-23,-21,-19,-18,-16,-14,-12,-11,-10,-8,-7,-6,-5,-4,-5,-8,-12,-18,-23,-28,-32,-36,-41,-45,-47,-48,-47,-45,-41,-37,-33,-29,-25,-22,-18,-15,-13,-11,-9,-8,-7,-8,-9,-12,-15,-19,-22,-26,-29,-33,-38,-43,-47,-49,-47,-40,-32,-22,-10,8,15,18,20,24,26,28,26,22,17,14,11,7,4,2,3,6,10,15,18,22,26,31,35,37,39,37,34,28,22,16,9,2,-7,-16,-22,-25,-28,-30,-32,-36,-39,-41,-39,-34,-28,-21,-12,-7,-14,-28,-39,-52,-59,-56,-47,-25,41,147,290,451,603,681,677,578,373,141,-50,-134,-140,-92,-21,-1,1,3,4,6,7,6,5,5,4,4,3,2,0,0,0,0,2,4,6,9,12,16,20,23,25,26,27,28,29,30,32,34,35,38,40,42,43,44,45,46,46,48,51,55,61,70,86,99,112,117,121,125,128,130,132,133,135,136,138,140,140,140,139,138,136,134,131,128,123,119,115,110,103,88,75,65,56,48,39,30,19,4,-13,-29,-50,-76,-88,-93,-98,-101,-102,-103,-103,-103,-102,-101,-99,-98,-96,-94,-92,-91,-90,-89,-88,-87,-87,-87,-87,-87,-87,-88,-89,-90,-91,-92,-92,-91,-91,-90,-88,-86,-84,-81,-80,-78,-77,-75,-74,-72,-71,-70,-68,-67,-65,-64,-62,-61,-60,-58,-57,-56,-54,-53,-53,-53,-54,-54,-54,-53,-53,-52,-52,-51,-48,-45,-42,-41,-45,-50,-54,-56,-57,-58,-60,-62,-65,-67,-69,-70,-72,-75,-77,-78,-79,-79,-79,-79,-80,-81,-83,-84,-87,-91,-94,-95,-95,-92,-87,-80,-71,-56,-48,-44,-40,-37,-35,-35,-39,-46,-55,-68,-84,-88,-90,-93,-95,-96,-93,-86,-78,-71,-64,-57,-53,-53,-58,-65,-74,-81,-88,-95,-101,-106,-109,-113,-115,-120,-129,-129,-119,-91,-29,65,196,341,471,522,511,402,204,-25,-233,-369,-393,-384,-311,-232,-161,-127,-115,-109,-109,-113,-119,-124,-128,-132,-132,-127,-122,-118,-116,-113,-110,-105,-99,-92,-85,-80,-75,-71,-67,-64,-60,-56,-51,-46,-41,-36,-31,-25,-18,-11,-4,0,3,6,9,11,14,16,18,20,22,24,26,29,33,37,42,47,53,62,79,92,101,108,114,120,122,119,112,104,97,90,82,74,66,58,48,35,25,17,4,-14,-47,-85,-103,-113,-118,-122,-126,-131,-136,-141,-145,-150,-154,-158,-159,-158,-155,-150,-144,-133,-109,-78,-52,-30,-12,13,49,87,124,162,203,238,269,302,338,376,411,432,455,474,481,484,487,489,491,492,492,492,492,491,489,486,482,477,471,462,445,434,423,411,400,392,385,379,373,367,355,338,322,302,290,285,281,278,276,273,270,268,265,262,258,251,239,230,224,220,217,213,207,202,195,188,182,178,174,169,162,164,176,184,191,197,201,201,196,188,177,157,128,108,93,82,70,58,48,42,39,36,34,33,31,28,26,23,21,18,14,5,-15,-30,-39,-44,-45,-42,-37,-21,20,84,170,277,384,454,456,392,227,16,-185,-309,-327,-292,-203,-125,-88,-86,-111,-146,-179,-190,-183,-161,-125,-89,-70,-59,-51,-51,-63,-80,-104,-116,-122,-126,-129,-131,-134,-137,-139,-141,-143,-146,-152,-160,-149,-131,-111,-99,-91,-86,-81,-79,-77,-76,-75,-74,-73,-72,-70,-69,-68,-67,-65,-63,-62,-59,-53,-36,-18,-5,7,23,39,47,53,56,51,40,29,18,6,-6,-17,-28,-37,-43,-50,-60,-77,-109,-143,-161,-168,-171,-173,-173,-174,-174,-174,-175,-175,-177,-179,-181,-183,-184,-186,-188,-189,-190,-192,-194,-198,-205,-213,-217,-215,-208,-201,-196,-192,-189,-185,-181,-177,-172,-168,-163,-158,-151,-140,-132,-126,-121,-118,-115,-113,-111,-109,-105,-102,-99,-97,-95,-94,-93,-92,-91,-90,-89,-88,-87,-84,-80,-77,-74,-71,-70,-69,-67,-66,-64,-62,-59,-54,-48,-43,-40,-40,-44,-48,-53,-59,-68,-73,-69,-59,-49,-38,-29,-21,-16,-14,-11,-8,-5,-3,-2,-1,0,-1,-2,-4,-7,-10,-13,-16,-19,-21,-23,-25,-27,-30,-32,-35,-37,-40,-42,-45,-47,-48,-50,-51,-50,-49,-48,-46,-45,-42,-40,-37,-33,-28,-23,-16,21,102,220,360,477,522,472,329,117,-85,-217,-255,-217,-138,-63,-25,-11,-6,-11,-20,-28,-36,-41,-40,-32,-22,-17,-15,-13,-11,-8,-6,-4,-1,1,5,8,10,11,12,14,16,19,24,37,49,59,69,75,71,62,51,37,27,18,11,7,13,28,52,82,107,133,149,159,166,170,169,166,162,159,154,150,148,148,150,152,155,159,165,168,163,151,133,105,84,72,61,51,40,31,22,14,5,-5,-21,-40,-56,-59,-60,-61,-62,-62,-63,-64,-67,-72,-76,-79,-82,-84,-86,-87,-89,-90,-91,-90,-89,-87,-86,-84,-82,-80,-79,-77,-76,-74,-72,-69,-66,-63,-59,-56,-53,-48,-43,-36,-19,-1,3,6,5,-7,-19,-30,-39,-46,-55,-64,-64,-51,-30,-17,-15,-13,-12,-11,-10,-12,-14,-16,-19,-19,-20,-21,-23,-25,-26,-26,-26,-25,-25,-25,-25,-25,-24,-24,-25,-26,-27,-28,-28,-28,-29,-29,-30,-31,-32,-33,-35,-42,-41,-29,-15,-1,13,24,32,38,37,31,22,13,1,-10,-22,-31,-38,-44,-48,-51,-54,-56,-58,-61,-63,-64,-65,-62,-58,-53,-47,-40,-35,-35,-42,-51,-60,-71,-77,-72,-58,-20,53,156,280,399,481,489,448,311,122,-68,-212,-255,-251,-187,-109,-59,-43,-55,-66,-75,-79,-77,-73,-70,-68,-66,-64,-63,-61,-57,-51,-44,-33,-17,-15,-13,-12,-11,-15,-22,-29,-35,-40,-40,-32,-23,-15,-7,0,2,1,-1,-4,-7,-10,-13,-13,-10,-4,3,18,42,57,66,73,77,79,81,82,84,86,86,86,86,85,83,81,79,77,75,73,71,69,67,64,61,56,51,45,37,21,-10,-31,-46,-54,-58,-62,-65,-68,-71,-76,-82,-89,-96,-103,-113,-122,-127,-129,-132,-136,-142,-142,-135,-130,-125,-121,-119,-120,-122,-125,-127,-130,-133,-134,-131,-125,-117,-110,-101,-93,-90,-93,-100,-108,-112,-117,-122,-126,-130,-132,-133,-133,-131,-130,-128,-125,-120,-117,-121,-130,-136,-142,-147,-150,-150,-145,-137,-128,-119,-104,-96,-105,-122,-137,-153,-164,-169,-172,-176,-181,-179,-162,-134,-112,-104,-98,-98,-110,-120,-130,-142,-155,-167,-180,-186,-177,-161,-151,-142,-133,-126,-122,-122,-126,-131,-136,-141,-147,-157,-166,-167,-163,-154,-140,-111,-91,-81,-73,-67,-63,-62,-64,-68,-74,-80,-85,-89,-94,-100,-105,-111,-116,-122,-129,-136,-148,-158,-158,-148,-136,-127,-119,-111,-106,-103,-104,-106,-108,-111,-113,-115,-118,-120,-121,-120,-117,-111,-101,-66,-2,96,224,347,408,404,315,145,-44,-199,-263,-268,-228,-169,-109,-94,-93,-93,-93,-93,-93,-93,-93,-92,-92,-92,-92,-92,-94,-94,-94,-94,-94,-93,-91,-85,-79,-74,-70,-68,-66,-63,-61,-59,-57,-54,-52,-50,-49,-47,-45,-43,-41,-39,-37,-34,-30,-24,-17,-10,-4,2,10,20,32,46,61,76,92,101,108,112,115,118,120,122,123,124,125,125,124,122,120,116,112,106,100,91,73,54,44,38,32,27,23,19,15,11,8,4,1,0,-1,-2,-2,-3,-3,-3,-4,-5,-6,-7,-8,-10,-10,-10,-9,-9,-8,-7,-6,-6,-5,-4,-4,-4,-5,-5,-6,-6,-4,0,4,9,13,16,18,20,21,21,21,21,22,22,23,24,25,24,24,24,23,23,22,22,23,24,26,28,30,31,33,35,38,40,42,44,46,50,54,60,65,69,72,73,74,75,75,75,74,73,72,73,74,77,79,81,83,84,85,86,87,87,87,87,88,92,97,101,102,102,102,101,100,97,95,95,101,108,112,114,116,117,119,120,121,124,126,129,131,134,135,137,138,139,140,141,142,144,147,151,156,161,166,170,171,169,165,160,156,152,149,146,143,140,137,135,133,132,130,128,126,125,123,122,120,117,114,111,108,105,101,92,85,84,89,99,129,184,264,378,510,637,710,710,634,457,248,62,-41,-54,-11,62,117,135,142,144,145,148,152,152,145,143,141,140,140,138,137,137,136,135,134,134,134,135,136,137,137,138,138,139,140,141,141,143,144,147,149,152,154,157,159,162,165,168,170,173,176,179,184,188,193,198,202,206,209,212,214,216,218,219,220,221,222,224,226,229,231,233,234,233,229,223,215,205,192,172,158,149,140,131,120,108,96,85,74,62,56,51,48,45,42,40,37,35,32,30,28,25,22,19,17,15,13,12,10,8,7,7,9,11,14,17,20,23,28,34,38,39,35,29,22,15,8,0,-3,-1,3,8,11,14,16,19,21,23,25,27,28,29,28,26,24,22,21,19,18,16,14,13,12,12,12,12,10,9,7,6,6,6,7,7,6,7,8,10,12,13,13,13,13,13,14,15,14,14,13,14,18,19,15,13,11,10,8,8,7,6,5,4,4,4,6,8,11,13,15,18,20,23,26,28,33,38,40,36,28,19,11,1,-7,-10,-9,-6,-3,-1,0,1,3,6,8,11,14,18,23,29,37,55,74,79,82,84,83,76,66,53,37,23,19,17,14,12,9,8,6,5,3,1,0,-1,-2,-2,-3,-4,-5,-6,-5,-5,-4,-4,-3,-2,0,1,3,5,8,30,87,173,286,408,509,532,514,395,212,19,-122,-158,-148,-66,15,51,64,42,21,6,-3,-3,3,13,17,19,22,23,23,23,24,26,27,28,29,29,29,29,30,30,31,32,33,34,35,36,37,39,40,41,43,46,50,54,58,61,63,65,67,68,69,70,71,73,74,77,79,82,85,87,89,91,93,95,97,99,101,103,108,113,117,117,114,109,102,92,76,62,47,31,13,0,-9,-16,-24,-29,-35,-48,-73,-91,-102,-110,-115,-119,-123,-129,-129,-123,-116,-110,-120,-138,-147,-148,-149,-150,-150,-148,-143,-135,-121,-110,-108,-107,-106,-105,-104,-104,-105,-106,-109,-111,-113,-115,-120,-124,-126,-125,-119,-112,-104,-95,-89,-85,-78,-72,-84,-96,-103,-109,-112,-114,-116,-118,-120,-121,-116,-107,-103,-100,-98,-96,-94,-92,-90,-88,-86,-84,-83,-82,-81,-81,-80,-80,-79,-79,-80,-80,-81,-82,-83,-84,-84,-85,-85,-86,-87,-87,-88,-92,-95,-92,-87,-85,-84,-82,-81,-80,-79,-78,-77,-75,-75,-75,-76,-77,-77,-78,-79,-80,-81,-82,-83,-83,-82,-83,-83,-84,-85,-85,-86,-87,-88,-89,-91,-92,-93,-95,-101,-99,-86,-71,-56,-44,-35,-29,-24,-25,-30,-38,-53,-74,-82,-86,-89,-91,-92,-94,-97,-100,-103,-106,-109,-112,-116,-121,-131,-139,-145,-150,-154,-158,-160,-160,-157,-151,-144,-136,-126,-118,-112,-106,-95,-74,-28,58,181,320,422,432,384,224,25,-155,-270,-297,-294,-249,-205,-171,-153,-136,-117,-107,-103,-100,-98,-96,-94,-91,-90,-88,-87,-85,-81,-74,-56,-38,-28,-19,-12,-3,6,21,41,63,83,103,124,137,145,150,138,123,110,106,102,99,97,103,118,141,163,176,184,174,158,140,128,121,117,122,131,145,168,194,212,221,228,227,217,202,182,170,164,160,156,152,147,143,138,128,108,85,60,33,6,-6,-12,-16,-21,-25,-29,-33,-37,-41,-45,-49,-52,-55,-58,-60,-64,-68,-72,-75,-78,-80,-81,-80,-79,-77,-74,-70,-65,-61,-58,-54,-47,-40,-37,-39,-45,-53,-63,-76,-81,-82,-84,-86,-86,-84,-82,-79,-77,-76,-77,-81,-85,-90,-96,-94,-76,-64,-56,-48,-44,-43,-46,-52,-58,-68,-82,-91,-95,-98,-101,-104,-106,-107,-108,-107,-107,-106,-104,-102,-99,-96,-93,-91,-89,-87,-83,-79,-77,-76,-78,-82,-86,-90,-94,-99,-104,-108,-109,-105,-101,-97,-94,-93,-92,-90,-89,-88,-87,-86,-85,-85,-84,-83,-82,-81,-80,-79,-78,-77,-75,-72,-69,-65,-61,-57,-51,-38,-26,-20,-16,-12,-8,-5,-2,-1,-3,-8,-15,-22,-29,-39,-48,-54,-58,-61,-64,-67,-69,-70,-70,-69,-68,-66,-64,-61,-59,-55,-51,-48,-48,-52,-59,-67,-76,-88,-95,-93,-86,-65,-19,53,156,283,412,503,511,457,288,67,-150,-299,-343,-290,-193,-97,-54,-39,-35,-36,-38,-39,-40,-40,-40,-40,-36,-29,-22,-12,4,17,25,33,39,42,40,37,33,31,29,27,25,22,20,18,17,16,16,17,19,21,24,28,32,37,40,44,49,56,62,68,74,80,86,94,102,110,117,124,128,132,136,140,143,145,146,147,147,146,145,143,139,135,130,126,118,101,85,68,52,35,25,20,15,11,6,1,-3,-9,-16,-23,-33,-47,-59,-67,-73,-77,-81,-84,-87,-89,-90,-91,-91,-90,-89,-86,-82,-78,-74,-70,-66,-63,-60,-59,-57,-56,-54,-53,-51,-49,-48,-47,-47,-47,-47,-47,-47,-47,-48,-48,-48,-48,-48,-47,-47,-46,-45,-44,-43,-42,-42,-41,-40,-40,-39,-39,-39,-39,-40,-41,-42,-44,-45,-46,-46,-47,-47,-47,-48,-49,-51,-52,-53,-53,-54,-54,-54,-53,-52,-50,-49,-48,-47,-46,-46,-45,-44,-43,-42,-39,-37,-37,-41,-46,-49,-51,-54,-57,-59,-60,-61,-62,-61,-59,-55,-50,-45,-40,-35,-32,-30,-28,-26,-24,-21,-19,-16,-13,-10,-6,-2,0,3,6,8,10,12,15,18,24,30,36,40,40,37,31,23,15,6,-6,-17,-19,-18,-18,-18,-18,-18,-19,-18,-17,-16,-15,-15,-13,-12,-10,-8,-7,-9,-14,-20,-27,-34,-47,-55,-50,-35,6,79,183,314,448,543,553,506,346,137,-59,-165,-201,-181,-118,-49,-22,-15,-14,-12,-10,-9,-8,-6,-4,-3,-3,-1,0,1,2,4,6,8,11,13,16,18,21,22,24,25,27,29,31,33,36,37,39,41,42,44,45,47,48,49,50,52,54,56,59,61,64,67,73,88,100,109,114,118,121,125,128,132,136,139,142,146,151,157,163,165,160,151,141,132,121,109,100,90,77,60,42,29,19,9,0,-7,-11,-15,-17,-20,-22,-24,-27,-30,-33,-36,-39,-42,-44,-46,-48,-49,-51,-53,-55,-57,-60,-62,-64,-66,-66,-66,-65,-63,-60,-56,-52,-47,-44,-41,-38,-36,-33,-30,-26,-23,-21,-20,-19,-19,-20,-22,-26,-30,-34,-39,-42,-46,-51,-55,-58,-59,-57,-55,-51,-48,-45,-43,-40,-37,-35,-33,-34,-36,-39,-42,-43,-44,-45,-47,-49,-51,-54,-56,-57,-59,-59,-60,-60,-59,-58,-56,-55,-53,-52,-51,-50,-48,-47,-46,-45,-44,-43,-42,-40,-37,-35,-33,-32,-32,-33,-33,-35,-37,-40,-43,-46,-51,-54,-48,-38,-35,-33,-31,-30,-29,-28,-27,-27,-26,-24,-24,-23,-22,-21,-20,-19,-18,-17,-17,-17,-16,-15,-14,-13,-11,-10,-7,-4,3,11,17,23,30,39,38,25,15,7,0,-7,-14,-20,-26,-32,-37,-41,-44,-45,-46,-46,-48,-52,-57,-60,-55,-43,-36,-32,-28,-24,-20,-15,-11,-7,-2,4,35,122,247,390,519,587,587,518,358,156,-31,-161,-190,-185,-128,-68,-26,-11,0,5,9,13,16,18,21,23,24,25,26,26,26,26,27,28,30,32,34,34,32,29,25,23,20,17,14,11,10,11,14,18,24,30,39,54,68,82,95,100,103,105,106,107,109,110,112,114,116,118,119,121,123,125,127,129,132,134,136,138,140,142,143,145,146,149,153,156,151,141,130,117,106,92,71,55,44,34,25,15,4,-10,-23,-33,-39,-40,-41,-41,-42,-42,-42,-42,-43,-43,-43,-44,-43,-43,-42,-41,-40,-38,-37,-36,-35,-34,-33,-33,-33,-33,-34,-34,-35,-35,-34,-34,-34,-33,-33,-33,-33,-32,-33,-33,-34,-36,-37,-38,-38,-39,-40,-40,-40,-40,-39,-39,-39,-41,-42,-44,-44,-44,-44,-44,-44,-44,-43,-42,-41,-40,-40,-42,-45,-48,-50,-52,-54,-56,-59,-60,-61,-62,-60,-56,-52,-47,-42,-37,-33,-27,-20,-15,-13,-15,-19,-23,-26,-28,-30,-33,-36,-39,-41,-42,-43,-43,-42,-41,-39,-35,-31,-26,-21,-17,-13,-7,0,6,10,10,8,5,1,-1,-7,-16,-16,-7,5,23,38,49,61,70,77,82,82,76,67,57,42,27,18,12,8,4,1,-2,-5,-8,-10,-12,-15,-18,-22,-27,-30,-31,-29,-25,-21,-16,-9,-11,-24,-45,-67,-83,-93,-77,-29,67,208,380,548,646,649,564,356,103,-128,-277,-316,-262,-165,-73,-34,-23,-18,-12,-6,-2,1,4,7,10,12,15,16,16,18,20,23,26,30,35,44,45,40,38,37,36,35,35,37,41,45,49,51,52,53,55,57,60,62,64,66,68,70,72,73,75,76,79,83,89,103,115,125,132,139,145,149,151,152,153,154,155,155,156,156,155,152,147,141,133,119,107,94,82,69,59,51,44,36,28,20,13,6,-1,-10,-19,-27,-35,-42,-48,-51,-54,-56,-58,-59,-61,-63,-64,-65,-66,-66,-66,-65,-65,-65,-64,-62,-60,-57,-56,-54,-53,-51,-49,-48,-46,-45,-45,-44,-43,-41,-39,-38,-37,-37,-37,-36,-35,-35,-35,-35,-35,-36,-36,-36,-36,-37,-37,-37,-36,-34,-33,-31,-31,-31,-31,-31,-31,-31,-32,-31,-31,-30,-29,-27,-26,-25,-24,-23,-22,-21,-21,-20,-18,-15,-12,-11,-11,-12,-13,-14,-14,-14,-15,-16,-17,-18,-17,-15,-11,-6,0,5,12,24,33,36,38,39,42,44,37,23,16,11,6,1,-2,-6,-10,-15,-19,-23,-26,-28,-31,-33,-36,-41,-45,-49,-50,-51,-51,-51,-51,-51,-51,-50,-49,-48,-47,-43,-36,-25,9,81,182,306,434,537,579,530,381,164,-65,-246,-319,-321,-254,-153,-67,-48,-41,-54,-68,-80,-81,-68,-49,-27,-15,-6,-3,-6,-10,-12,-14,-16,-17,-17,-13,-7,-2,0,3,5,8,11,14,17,21,24,27,30,33,36,39,42,46,50,54,58,62,65,67,70,72,75,79,84,95,110,127,141,147,150,152,154,155,156,157,158,158,158,156,154,152,148,145,141,135,127,118,106,85,57,32,8,-9,-22,-27,-30,-34,-35,-31,-26,-22,-34,-48,-61,-72,-87,-101,-107,-112,-115,-117,-115,-110,-105,-100,-97,-94,-91,-87,-83,-79,-75,-72,-68,-64,-59,-55,-53,-51,-50,-46,-41,-46,-50,-51,-53,-55,-56,-56,-56,-56,-56,-56,-55,-54,-52,-51,-49,-48,-45,-42,-41,-43,-46,-49,-51,-52,-53,-53,-55,-56,-57,-59,-60,-61,-62,-63,-63,-62,-61,-60,-59,-58,-58,-57,-56,-56,-56,-55,-55,-55,-54,-54,-52,-51,-49,-47,-46,-44,-42,-40,-37,-35,-32,-29,-25,-20,-14,-8,-1,4,10,16,22,24,22,17,10,2,-9,-22,-32,-39,-45,-48,-47,-44,-40,-36,-32,-27,-24,-24,-25,-27,-30,-32,-34,-35,-37,-39,-42,-44,-47,-50,-55,-63,-63,-52,-22,47,155,291,437,562,618,581,444,235,7,-180,-265,-271,-218,-137,-61,-11,6,13,18,20,16,10,6,3,0,-2,-3,-3,-1,1,6,11,17,27,35,42,46,48,50,51,52,53,53,53,53,55,56,58,59,60,61,63,64,66,68,70,73,78,84,90,94,97,101,109,124,135,141,145,149,153,157,160,162,165,167,169,170,170,170,169,167,165,162,159,151,135,121,111,97,84,73,65,58,49,34,18,1,-13,-23,-32,-36,-39,-41,-44,-45,-46,-46,-45,-45,-45,-45,-44,-43,-42,-41,-40,-41,-43,-45,-47,-49,-51,-53,-55,-56,-57,-57,-57,-57,-56,-55,-53,-50,-47,-44,-42,-41,-40,-39,-37,-36,-36,-36,-36,-35,-34,-33,-33,-33,-32,-32,-31,-30,-29,-29,-29,-29,-29,-29,-28,-29,-29,-29,-30,-30,-31,-31,-31,-32,-32,-32,-33,-34,-34,-35,-37,-40,-44,-45,-45,-43,-40,-38,-36,-35,-33,-30,-28,-26,-24,-22,-20,-18,-15,-12,-9,-7,-4,-1,2,6,9,12,14,16,18,20,22,25,29,30,28,22,15,5,-6,-11,-13,-14,-16,-17,-18,-20,-21,-21,-21,-21,-21,-21,-21,-21,-21,-23,-24,-25,-27,-30,-34,-38,-43,-50,-59,-63,-59,-47,-17,68,196,353,514,633,664,593,424,194,-32,-191,-231,-228,-169,-104,-60,-39,-32,-28,-25,-23,-21,-19,-14,-11,-7,-4,-2,0,2,5,8,12,15,17,19,21,24,26,28,29,30,31,32,33,35,36,37,38,40,42,45,47,49,51,54,57,61,66,72,79,87,95,104,113,119,125,132,139,145,151,154,157,160,162,163,163,163,162,159,156,151,146,140,129,119,110,94,74,58,46,34,22,10,1,-6,-13,-20,-28,-35,-43,-51,-59,-65,-70,-75,-78,-81,-82,-83,-84,-85,-87,-88,-89,-88,-85,-81,-77,-74,-71,-69,-67,-65,-64,-63,-63,-62,-61,-60,-58,-57,-55,-54,-53,-51,-50,-48,-46,-44,-42,-40,-37,-35,-32,-30,-28,-28,-29,-31,-34,-38,-42,-46,-53,-60,-63,-63,-60,-56,-51,-43,-36,-29,-23,-23,-32,-37,-40,-44,-47,-49,-50,-51,-51,-50,-49,-48,-47,-45,-43,-42,-42,-42,-42,-43,-44,-45,-44,-42,-39,-36,-32,-28,-28,-30,-34,-36,-39,-42,-45,-45,-42,-38,-34,-30,-25,-21,-18,-17,-17,-17,-17,-19,-21,-20,-10,2,21,32,40,44,43,39,32,23,11,0,-11,-20,-27,-33,-37,-41,-44,-46,-47,-47,-48,-49,-50,-50,-51,-52,-52,-54,-56,-59,-62,-66,-71,-80,-79,-66,-32,35,140,278,434,571,639,601,458,247,24,-145,-213,-218,-173,-125,-99,-89,-79,-66,-46,-31,-23,-18,-12,-8,-5,-1,0,3,5,7,9,11,13,16,19,22,24,27,30,33,37,40,42,45,47,50,52,54,56,58,60,63,65,67,70,72,75,78,81,87,100,111,124,135,145,149,152,155,158,160,161,163,163,163,163,163,162,161,159,157,154,151,148,145,140,128,119,110,100,88,73,57,42,29,17,8,-1,-12,-21,-30,-38,-46,-53,-56,-59,-61,-63,-65,-67,-69,-71,-72,-73,-73,-73,-73,-72,-71,-69,-67,-65,-63,-61,-60,-59,-58,-56,-51,-45,-43,-44,-49,-53,-55,-57,-59,-61,-63,-65,-66,-67,-68,-67,-67,-66,-65,-64,-63,-61,-60,-59,-58,-57,-56,-55,-53,-52,-52,-51,-50,-49,-48,-47,-46,-45,-42,-38,-35,-34,-35,-38,-42,-44,-46,-48,-50,-53,-55,-56,-56,-56,-56,-56,-56,-56,-55,-50,-41,-32,-24,-15,-7,-3,0,1,3,4,5,6,8,10,11,11,11,10,9,7,5,3,0,-3,-6,-9,-11,-14,-17,-21,-25,-29,-32,-35,-38,-39,-41,-42,-44,-45,-47,-51,-55,-57,-56,-53,-49,-45,-39,-37,-42,-54,-68,-83,-86,-91,-84,-41,35,146,276,409,516,563,521,384,178,-43,-226,-300,-303,-241,-155,-76,-37,-26,-18,-15,-15,-17,-20,-22,-26,-32,-36,-31,-21,-11,0,5,9,11,12,14,15,17,20,23,28,32,35,38,40,43,46,48,51,53,55,56,58,60,61,62,64,66,69,73,79,87,96,105,115,125,132,138,147,158,172,179,184,189,192,194,195,194,191,187,182,177,171,164,156,149,144,138,130,118,107,94,77,59,39,15,-5,-18,-26,-35,-45,-55,-66,-69,-71,-71,-72,-73,-74,-75,-75,-74,-72,-70,-67,-65,-63,-62,-60,-58,-56,-55,-54,-54,-53,-52,-50,-51,-55,-62,-71,-81,-85,-88,-91,-93,-89,-79,-72,-67,-62,-58,-53,-50,-47,-43,-39,-31,-20,-12,-6,-1,1,0,-5,-14,-24,-38,-50,-56,-61,-64,-67,-68,-69,-69,-68,-66,-63,-61,-60,-58,-56,-54,-52,-50,-47,-45,-44,-43,-42,-41,-40,-38,-36,-35,-33,-32,-30,-29,-28,-27,-26,-25,-24,-22,-21,-24,-29,-33,-37,-39,-40,-37,-31,-22,-7,17,34,46,50,47,39,29,18,6,-1,-6,-12,-17,-23,-29,-35,-44,-51,-59,-64,-69,-73,-74,-71,-64,-57,-51,-46,-40,-36,-34,-35,-38,-42,-47,-54,-64,-65,-56,-31,34,138,277,434,573,642,604,459,238,1,-184,-266,-274,-229,-150,-74,-24,-5,2,7,9,5,-2,-6,-9,-12,-15,-16,-17,-18,-18,-17,-16,-13,-9,-5,0,3,8,13,18,22,26,29,33,35,38,40,42,45,47,49,51,53,55,57,59,63,66,71,81,100,111,117,124,132,141,146,150,155,159,162,164,165,166,166,165,165,163,161,158,156,153,150,146,140,135,129,123,112,95,78,58,38,23,5,-5,-13,-19,-24,-29,-33,-38,-43,-47,-51,-54,-57,-60,-63,-65,-67,-68,-68,-67,-65,-63,-62,-60,-57,-55,-52,-50,-48,-47,-46,-44,-43,-41,-40,-39,-38,-37,-36,-35,-35,-35,-35,-35,-35,-35,-34,-34,-32,-32,-31,-31,-32,-32,-33,-33,-33,-33,-34,-34,-34,-33,-32,-31,-31,-31,-31,-31,-30,-30,-29,-29,-27,-22,-17,-16,-21,-27,-31,-36,-40,-43,-43,-40,-36,-32,-28,-22,-16,-13,-15,-19,-23,-27,-31,-35,-37,-36,-32,-25,-18,-12,-5,1,5,6,1,-4,-11,-15,-21,-27,-32,-34,-33,-29,-25,-21,-19,-17,-15,-13,-10,-6,-2,1,5,9,12,16,19,22,25,31,37,42,43,42,38,34,28,22,13,2,-11,-18,-23,-27,-32,-36,-39,-41,-42,-42,-41,-41,-40,-39,-37,-35,-32,-29,-26,-22,-14,-9,-13,-23,-38,-55,-65,-71,-55,-7,83,212,360,503,604,618,582,443,256,62,-88,-147,-150,-105,-54,-27,-22,-19,-17,-15,-13,-11,-8,-4,0,3,6,9,11,13,15,17,19,21,23,25,27,28,29,30,32,33,34,35,35,36,36,37,38,39,39,40,41,42,42,43,44,46,47,50,53,56,63,78,92,106,119,127,131,133,135,137,139,140,141,141,141,142,141,140,139,136,133,130,126,122,117,109,91,74,61,51,41,33,25,15,1,-17,-29,-38,-45,-51,-55,-59,-61,-63,-64,-66,-68,-70,-71,-71,-70,-69,-67,-65,-64,-62,-58,-54,-52,-52,-53,-56,-60,-65,-72,-72,-61,-58,-56,-54,-51,-49,-48,-46,-45,-43,-42,-41,-40,-41,-41,-41,-40,-39,-39,-39,-38,-38,-37,-36,-35,-35,-35,-35,-35,-35,-35,-34,-34,-34,-35,-35,-35,-35,-36,-36,-37,-38,-39,-40,-42,-43,-44,-44,-44,-44,-45,-46,-47,-47,-47,-48,-50,-51,-52,-50,-44,-37,-30,-22,-10,-2,-7,-17,-25,-32,-40,-47,-52,-57,-63,-73,-71,-57,-50,-45,-41,-36,-33,-30,-28,-26,-24,-23,-22,-22,-22,-22,-22,-22,-21,-20,-20,-19,-19,-19,-20,-21,-22,-25,-28,-31,-37,-41,-37,-29,-25,-22,-19,-17,-14,-11,-8,-4,-1,1,3,5,7,9,11,13,17,22,26,28,28,25,19,13,7,2,-3,-9,-15,-20,-24,-28,-30,-32,-33,-34,-35,-38,-43,-48,-52,-50,-44,-38,-32,-28,-24,-20,-15,-11,-7,-3,4,32,125,264,431,589,677,677,591,396,164,-40,-155,-172,-145,-80,-34,-20,-13,-10,-8,-6,-5,-4,-3,-1,-1,-1,-1,-2,-2,-1,0,1,2,4,5,8,11,14,17,20,23,26,29,32,34,36,38,41,43,46,48,50,51,52,54,56,58,61,63,66,70,75,80,84,88,92,96,101,108,115,122,129,136,143,150,157,162,165,168,171,174,177,179,176,168,156,135,104,81,63,47,33,21,10,0,-8,-16,-22,-28,-34,-36,-37,-39,-40,-42,-43,-45,-46,-47,-49,-50,-51,-51,-51,-51,-50,-50,-49,-48,-47,-47,-46,-45,-44,-43,-42,-41,-40,-40,-39,-38,-36,-35,-33,-31,-30,-29,-29,-30,-31,-32,-33,-35,-36,-38,-40,-42,-42,-40,-37,-32,-29,-27,-25,-24,-21,-19,-18,-17,-16,-16,-16,-16,-16,-17,-18,-20,-21,-23,-24,-25,-26,-26,-27,-27,-27,-26,-26,-26,-27,-27,-27,-27,-26,-26,-25,-25,-25,-24,-23,-22,-22,-22,-22,-22,-22,-22,-22,-22,-22,-21,-21,-20,-20,-20,-20,-20,-21,-22,-22,-23,-23,-23,-22,-21,-20,-20,-19,-19,-18,-18,-17,-16,-16,-15,-12,-9,-5,0,4,10,16,22,30,41,50,55,59,63,68,71,65,53,42,30,20,11,-1,-25,-46,-59,-64,-60,-51,-44,-38,-31,-24,-18,-12,-8,-4,0,3,5,5,3,-1,-5,-10,-15,-26,-32,-29,-18,13,92,216,371,525,616,619,543,359,132,-73,-194,-214,-193,-124,-53,-14,-6,0,4,7,9,9,10,11,10,10,10,8,6,3,0,-5,-8,-3,3,4,5,5,6,6,7
