-250,-288,-324,-379,-429,-446,-455,-462,-470,-482,-506,-534,-559,-573,-581,-587,-589,-590,-593,-596,-600,-600,-595,-588,-582,-601,-632,-665,-695,-722,-765,-821,-887,-947,-980,-1011,-1038,-1077,-1126,-1182,-1235,-1284,-1313,-1343,-1371,-1390,-1403,-1408,-1402,-1387,-1344,-1293,-1237,-1179,-1126,-1080,-1036,-989,-938,-884,-832,-782,-748,-709,-676,-630,-582,-548,-527,-517,-510,-503,-497,-491,-486,-481,-477,-472,-467,-462,-458,-456,-458,-463,-470,-479,-490,-506,-508,-500,-479,-406,-294,-140,49,267,502,721,894,1004,1033,1022,946,825,683,535,401,291,220,194,192,207,248,298,331,370,402,444,493,554,615,667,711,753,800,830,854,868,884,901,915,927,938,948,958,972,990,1008,1019,1027,1034,1043,1052,1062,1071,1079,1087,1095,1101,1108,1115,1125,1139,1151,1162,1174,1189,1206,1230,1260,1291,1319,1343,1368,1394,1423,1440,1447,1453,1458,1462,1466,1469,1471,1473,1475,1478,1481,1487,1492,1491,1482,1467,1443,1409,1360,1305,1240,1170,1100,1034,975,938,907,884,867,859,854,850,847,845,843,840,838,835,833,832,830,827,824,821,814,798,780,755,727,681,634,581,519,450,383,327,280,248,212,175,137,102,86,79,73,69,64,60,55,50,44,38,32,25,16,6,-2,-9,-15,-22,-35,-53,-68,-87,-112,-139,-170,-200,-221,-232,-239,-245,-251,-260,-272,-288,-307,-326,-340,-352,-359,-362,-365,-370,-375,-361,-337,-312,-298,-291,-286,-282,-280,-281,-286,-294,-305,-325,-360,-382,-395,-407,-419,-431,-443,-455,-464,-468,-469,-470,-472,-474,-475,-470,-462,-454,-447,-441,-441,-448,-462,-503,-554,-587,-607,-617,-625,-631,-636,-641,-644,-647,-652,-664,-689,-707,-717,-726,-733,-742,-770,-816,-865,-892,-919,-949,-973,-988,-993,-988,-976,-943,-892,-849,-832,-816,-799,-784,-781,-777,-773,-792,-815,-834,-834,-817,-770,-685,-557,-375,-145,103,339,545,711,832,897,903,871,773,642,518,449,424,423,435,468,513,569,632,692,722,733,732,713,684,653,630,603,574,541,504,466,428,396,351,305,251,193,131,62,-9,-70,-101,-118,-127,-137,-148,-161,-186,-219,-246,-272,-292,-306,-306,-294,-260,-210,-160,-113,-93,-81,-74,-89,-132,-184,-247,-312,-367,-399,-416,-424,-431,-436,-441,-446,-449,-452,-456,-465,-489,-521,-546,-555,-558,-561,-563,-566,-568,-571,-574,-577,-581,-585,-589,-596,-607,-629,-646,-670,-698,-726,-758,-797,-829,-846,-858,-863,-856,-841,-818,-785,-752,-720,-693,-673,-654,-642,-635,-630,-624,-618,-610,-602,-594,-583,-569,-556,-548,-540,-508,-455,-397,-344,-297,-265,-228,-192,-154,-123,-109,-102,-96,-89,-81,-71,-58,-39,-28,-19,-12,-2,14,41,75,126,174,226,275,324,360,389,409,417,413,404,397,392,387,380,373,360,319,268,212,153,90,27,-29,-67,-82,-87,-81,-67,-45,-15,7,24,36,51,74,99,127,159,190,217,236,257,268,276,281,286,292,296,300,305,312,328,360,389,407,421,430,438,445,450,450,447,442,437,433,429,424,418,412,404,396,386,378,377,384,396,409,426,445,472,505,530,546,557,565,571,576,580,585,590,595,604,637,693,778,900,1062,1265,1503,1758,2001,2194,2279,2275,2171,1948,1667,1383,1153,1002,934,911,896,885,849,794,727,663,610,576,552,537,525,513,501,488,477,468,462,458,454,450,446,442,439,437,433,427,416,399,391,386,383,379,373,361,348,336,323,311,304,297,283,259,243,234,227,221,216,211,206,200,191,179,166,151,106,57,32,21,15,11,9,7,4,0,-4,-8,-14,-19,-25,-33,-45,-57,-67,-74,-82,-100,-135,-174,-209,-226,-232,-237,-240,-244,-248,-252,-256,-259,-262,-267,-274,-290,-321,-342,-354,-364,-371,-377,-381,-386,-391,-394,-394,-390,-383,-373,-356,-334,-326,-321,-316,-313,-311,-311,-314,-317,-321,-327,-336,-334,-317,-308,-302,-297,-292,-289,-285,-281,-277,-275,-272,-269,-264,-254,-231,-207,-183,-159,-131,-116,-109,-104,-99,-95,-92,-88,-84,-82,-79,-76,-73,-70,-67,-63,-60,-59,-59,-61,-65,-71,-80,-98,-123,-135,-145,-143,-129,-112,-95,-83,-67,-43,-26,-16,-10,-10,-16,-24,-30,-35,-39,-43,-46,-47,-46,-44,-41,-35,-29,-18,1,20,46,77,108,140,172,207,247,275,288,298,301,295,282,262,235,208,182,160,143,121,108,100,94,87,80,72,65,56,46,32,19,9,3,-1,-5,-10,-14,-17,-17,-14,-8,3,17,67,185,363,602,883,1174,1430,1582,1595,1501,1235,897,561,294,125,63,44,34,28,21,-3,-55,-77,-90,-99,-90,-83,-79,-77,-76,-75,-74,-74,-74,-73,-73,-74,-76,-78,-81,-85,-88,-92,-97,-100,-94,-83,-74,-66,-57,-48,-37,-26,-12,4,18,31,38,43,47,51,55,59,64,67,69,71,73,74,76,77,79,80,82,85,88,92,96,99,102,106,110,115,125,136,148,159,170,178,179,173,165,161,159,157,155,152,148,144,139,135,130,125,118,110,98,78,62,50,36,19,3,-3,-7,-10,-12,-15,-18,-22,-27,-33,-39,-44,-49,-53,-56,-59,-63,-68,-74,-80,-87,-94,-101,-107,-112,-117,-121,-125,-129,-135,-140,-144,-144,-137,-125,-109,-81,-37,5,31,40,46,52,54,48,33,16,2,-11,-23,-34,-43,-52,-60,-66,-70,-74,-77,-80,-81,-81,-81,-80,-80,-81,-83,-86,-88,-90,-92,-93,-95,-97,-99,-100,-100,-101,-102,-103,-104,-106,-107,-109,-112,-114,-117,-120,-123,-126,-128,-130,-131,-131,-131,-132,-132,-134,-136,-138,-141,-145,-155,-160,-152,-136,-122,-109,-97,-83,-70,-58,-45,-34,-25,-20,-15,-10,-3,1,1,-9,-26,-47,-74,-89,-99,-107,-113,-113,-105,-92,-77,-55,-29,-1,22,25,27,30,27,6,-17,-40,-47,-55,-62,-36,39,156,315,512,732,954,1142,1230,1223,1099,830,485,139,-135,-303,-334,-343,-333,-313,-318,-376,-451,-515,-533,-544,-551,-558,-562,-566,-570,-573,-576,-579,-581,-584,-585,-586,-585,-585,-585,-586,-586,-587,-586,-585,-583,-581,-579,-581,-585,-588,-590,-593,-597,-602,-607,-610,-612,-612,-612,-612,-611,-610,-608,-606,-601,-596,-590,-571,-502,-411,-304,-177,-24,144,309,419,456,430,349,207,66,-49,-134,-178,-204,-221,-236,-251,-276,-314,-336,-346,-354,-360,-368,-376,-383,-391,-401,-415,-436,-452,-464,-471,-477,-483,-487,-491,-492,-490,-485,-476,-464,-449,-427,-388,-361,-326,-282,-240,-195,-163,-144,-122,-100,-77,-52,-35,-23,-16,-10,-6,0,6,16,28,40,52,62,74,86,96,102,102,100,96,93,90,86,80,73,68,66,67,70,75,79,85,97,96,82,75,71,66,62,59,56,53,49,45,41,37,32,28,21,7,0,6,20,38,59,78,101,134,166,189,210,223,233,240,246,251,256,262,275,299,325,356,385,407,430,446,457,467,477,486,497,513,537,560,592,629,665,702,731,752,770,784,795,808,822,838,858,879,908,940,970,999,1030,1056,1079,1104,1131,1162,1196,1232,1264,1287,1298,1305,1310,1314,1322,1330,1343,1386,1473,1603,1773,1974,2192,2398,2561,2619,2604,2470,2222,1926,1643,1411,1242,1133,1074,1044,1026,1014,998,974,945,914,899,888,880,872,862,850,828,790,747,703,666,640,622,600,571,542,512,480,448,416,382,352,330,317,309,304,299,295,287,278,269,262,255,249,244,240,238,237,238,240,244,249,256,264,274,293,310,324,346,381,420,460,487,503,517,529,540,562,596,618,630,639,645,649,652,655,658,662,664,665,663,656,643,626,595,548,482,411,341,273,201,129,55,5,-53,-107,-157,-207,-257,-307,-358,-403,-437,-463,-484,-501,-516,-533,-550,-568,-585,-601,-617,-636,-659,-694,-715,-728,-739,-748,-753,-755,-754,-749,-741,-731,-721,-711,-694,-677,-664,-651,-628,-586,-536,-490,-416,-343,-263,-186,-115,-70,-19,30,79,130,164,185,197,197,186,166,135,83,30,-19,-60,-89,-106,-123,-142,-166,-181,-191,-199,-205,-208,-208,-204,-197,-188,-177,-165,-146,-128,-109,-91,-74,-61,-51,-44,-41,-38,-36,-33,-31,-30,-29,-31,-35,-39,-44,-49,-55,-62,-71,-78,-82,-81,-77,-72,-66,-61,-54,-47,-45,-49,-58,-66,-75,-86,-101,-117,-130,-143,-155,-167,-178,-187,-195,-201,-208,-215,-222,-227,-229,-227,-222,-215,-207,-200,-192,-184,-176,-167,-156,-146,-134,-112,-36,81,248,467,730,1005,1252,1409,1426,1358,1132,842,558,329,172,79,25,-30,-81,-106,-119,-127,-133,-139,-147,-154,-162,-170,-177,-185,-192,-197,-201,-205,-209,-211,-213,-208,-200,-189,-175,-161,-145,-118,-94,-76,-61,-53,-46,-40,-35,-31,-29,-27,-26,-24,-21,-17,-12,-8,-4,0,3,7,11,14,16,18,20,22,25,29,32,36,40,45,49,53,56,58,61,64,68,72,76,80,84,87,90,92,95,97,100,103,106,109,112,115,118,120,120,118,114,109,103,97,90,84,77,71,63,49,34,23,15,8,-3,-21,-43,-55,-61,-65,-68,-71,-74,-79,-85,-91,-96,-100,-105,-109,-113,-117,-123,-129,-136,-141,-144,-145,-145,-143,-142,-140,-135,-128,-129,-148,-165,-180,-192,-203,-212,-222,-229,-231,-227,-221,-217,-213,-209,-210,-221,-240,-262,-292,-314,-326,-335,-343,-349,-353,-355,-353,-348,-340,-330,-319,-305,-284,-261,-233,-217,-204,-194,-186,-180,-178,-178,-180,-184,-188,-193,-198,-205,-216,-221,-212,-193,-164,-125,-96,-74,-45,-29,-21,-14,-8,-3,1,7,13,19,24,28,32,37,42,48,55,62,68,73,75,74,72,68,64,59,54,50,46,42,38,33,28,23,18,13,7,2,-2,-8,-15,-23,-34,-56,-64,-67,-69,-71,-74,-78,-82,-85,-88,-92,-97,-104,-118,-135,-143,-146,-113,-20,124,323,570,847,1125,1359,1481,1483,1372,1113,783,455,183,-11,-123,-173,-201,-219,-235,-251,-277,-314,-344,-367,-388,-408,-429,-455,-473,-486,-496,-504,-513,-519,-523,-527,-530,-534,-538,-542,-545,-548,-551,-552,-552,-553,-552,-551,-548,-545,-542,-537,-531,-516,-479,-438,-394,-348,-300,-249,-199,-174,-163,-155,-149,-142,-135,-128,-123,-117,-110,-103,-92,-74,-62,-54,-46,-39,-33,-35,-51,-72,-90,-109,-125,-134,-136,-137,-138,-138,-138,-138,-138,-137,-137,-135,-131,-126,-121,-116,-111,-108,-104,-101,-98,-95,-91,-87,-84,-80,-75,-69,-61,-49,-29,-6,17,42,67,85,98,105,110,114,118,122,125,129,133,135,136,137,138,139,140,141,143,146,149,152,155,159,164,169,175,183,194,213,247,267,287,308,340,384,433,471,498,527,543,551,558,563,568,574,580,586,592,597,602,606,611,617,627,638,643,639,630,619,608,593,575,554,539,528,518,509,499,490,481,471,457,438,417,395,369,339,309,283,259,239,221,201,176,151,126,103,83,73,65,58,54,52,55,60,67,75,84,98,106,98,78,55,26,1,-16,-30,-42,-53,-62,-71,-79,-86,-93,-100,-107,-114,-120,-126,-132,-140,-148,-153,-155,-149,-138,-121,-91,-41,46,167,336,554,798,1022,1170,1190,1151,983,753,501,264,62,-92,-189,-222,-238,-242,-243,-243,-244,-246,-248,-251,-253,-255,-258,-261,-265,-270,-273,-275,-279,-285,-289,-291,-288,-280,-266,-249,-223,-183,-159,-139,-120,-105,-92,-83,-75,-68,-66,-67,-75,-86,-98,-107,-116,-125,-132,-138,-141,-141,-138,-133,-127,-120,-113,-107,-101,-93,-85,-79,-75,-74,-77,-82,-88,-93,-96,-100,-103,-106,-110,-112,-114,-114,-114,-113,-111,-110,-109,-110,-111,-113,-115,-118,-121,-123,-126,-129,-133,-138,-145,-153,-162,-175,-205,-230,-251,-264,-275,-284,-290,-292,-288,-280,-270,-261,-255,-249,-242,-234,-225,-217,-207,-199,-191,-185,-178,-169,-149,-115,-81,-66,-58,-52,-47,-42,-38,-35,-31,-27,-23,-19,-17,-15,-12,-9,-4,2,10,31,83,122,146,160,169,174,180,187,191,189,175,154,134,109,84,58,32,5,-16,-33,-40,-45,-49,-51,-53,-55,-56,-58,-60,-61,-62,-63,-65,-66,-66,-65,-62,-58,-53,-49,-44,-37,-30,-22,-15,-9,-3,5,27,50,61,67,72,77,82,88,92,94,89,78,63,48,34,18,3,-10,-21,-30,-39,-49,-60,-71,-84,-98,-113,-129,-145,-166,-184,-192,-196,-199,-203,-209,-214,-214,-200,-175,-134,-79,3,126,296,510,756,1008,1222,1333,1336,1235,1003,727,485,322,269,254,245,238,229,221,215,210,205,201,199,200,205,215,228,241,253,261,268,276,283,291,298,303,307,310,311,313,314,315,313,310,305,300,295,290,285,279,273,267,261,256,250,246,242,238,235,232,228,223,219,215,212,210,207,204,200,194,189,185,181,177,173,169,165,161,156,150,142,135,129,125,123,124,126,129,134,139,145,150,156,161,166,170,173,174,173,171,167,162,156,150,145,140,135,131,127,121,115,108,101,95,89,85,81,80,81,82,85,89,93,98,103,109,115,123,137,171,199,235,279,324,373,430,481,527,575,608,625,642,661,679,697,716,732,744,754,762,769,775,780,783,785,784,779,772,763,752,736,706,678,641,594,557,528,493,457,423,393,369,348,327,305,271,218,159,105,55,4,-44,-97,-134,-152,-166,-180,-194,-205,-210,-215,-219,-224,-227,-231,-233,-234,-235,-237,-238,-240,-241,-242,-243,-245,-248,-250,-253,-255,-258,-260,-263,-266,-268,-271,-273,-276,-281,-289,-299,-310,-322,-333,-346,-359,-372,-386,-400,-415,-431,-445,-455,-465,-474,-482,-489,-494,-496,-496,-495,-493,-489,-484,-475,-465,-446,-402,-314,-181,0,218,446,655,795,841,808,706,495,244,-2,-209,-353,-401,-420,-416,-383,-358,-335,-318,-317,-327,-337,-344,-349,-353,-356,-360,-362,-364,-364,-361,-355,-347,-337,-324,-310,-290,-269,-252,-236,-219,-201,-188,-182,-178,-173,-167,-163,-171,-186,-194,-201,-207,-212,-215,-214,-209,-201,-191,-182,-174,-167,-159,-152,-146,-142,-142,-146,-153,-161,-171,-180,-189,-201,-213,-224,-232,-236,-233,-226,-216,-205,-194,-183,-170,-157,-145,-138,-135,-134,-134,-134,-134,-134,-135,-134,-134,-132,-130,-128,-126,-124,-123,-122,-122,-122,-123,-124,-124,-124,-122,-119,-116,-110,-104,-99,-98,-102,-110,-120,-128,-135,-142,-148,-153,-158,-161,-162,-160,-155,-148,-139,-129,-119,-98,-51,-1,58,129,187,211,225,237,247,253,255,254,251,248,246,245,244,241,237,234,232,231,231,230,228,227,227,227,227,225,223,219,216,214,212,211,210,209,208,208,208,207,205,202,200,197,194,190,185,179,170,160,148,128,88,58,29,0,-34,-67,-101,-132,-151,-163,-172,-179,-184,-189,-194,-200,-205,-209,-213,-216,-219,-223,-227,-232,-236,-241,-246,-253,-260,-269,-279,-289,-301,-318,-347,-373,-390,-405,-423,-443,-465,-490,-512,-531,-548,-562,-574,-585,-597,-607,-611,-607,-599,-583,-536,-457,-324,-132,110,374,607,735,741,647,414,130,-134,-335,-471,-564,-599,-621,-631,-639,-645,-648,-650,-651,-651,-650,-648,-644,-638,-631,-623,-616,-611,-607,-601,-595,-589,-583,-578,-573,-571,-570,-571,-573,-577,-582,-587,-592,-597,-601,-606,-612,-623,-634,-639,-631,-614,-595,-579,-562,-545,-533,-523,-516,-512,-510,-508,-506,-503,-499,-497,-494,-491,-486,-482,-476,-471,-466,-460,-451,-430,-407,-383,-368,-356,-346,-336,-325,-314,-303,-294,-286,-277,-268,-259,-252,-248,-247,-247,-246,-246,-245,-245,-245,-245,-245,-243,-242,-241,-240,-240,-240,-239,-237,-235,-233,-230,-226,-221,-213,-203,-192,-177,-159,-133,-98,-73,-42,0,46,97,155,209,260,310,357,405,455,503,550,594,618,629,637,648,662,675,691,710,736,760,782,816,869,892,899,907,914,920,925,928,932,934,936,938,940,940,940,938,936,934,932,929,927,924,922,919,917,914,910,905,901,896,886,860,833,797,751,711,681,654,620,570,537,523,512,503,493,484,475,466,455,444,431,418,404,389,376,363,350,338,328,320,311,299,284,273,264,258,252,247,244,246,257,273,288,298,308,318,329,338,343,344,341,335,326,318,308,296,277,255,229,202,179,159,142,129,119,111,106,103,100,96,90,84,79,75,75,75,75,75,75,76,79,84,91,99,106,134,237,377,552,752,959,1147,1264,1303,1263,1139,910,647,401,209,87,30,-5,-34,-79,-108,-127,-141,-153,-164,-173,-180,-187,-196,-216,-245,-251,-252,-251,-251,-251,-253,-256,-257,-255,-250,-246,-241,-237,-233,-227,-221,-214,-207,-199,-192,-186,-179,-171,-164,-156,-148,-139,-129,-119,-110,-102,-96,-90,-84,-77,-70,-63,-58,-53,-46,-37,-24,-3,18,41,68,99,126,155,183,202,215,225,233,236,232,220,200,166,118,74,26,-9,-30,-51,-80,-106,-116,-121,-126,-129,-133,-135,-137,-139,-142,-145,-148,-152,-156,-158,-159,-160,-160,-158,-157,-155,-153,-151,-150,-150,-151,-152,-153,-154,-154,-155,-155,-156,-155,-154,-151,-147,-144,-139,-136,-133,-131,-128,-126,-123,-121,-118,-115,-111,-107,-104,-100,-97,-91,-85,-77,-70,-62,-54,-48,-43,-39,-39,-41,-44,-49,-55,-60,-65,-71,-76,-81,-85,-88,-92,-97,-104,-112,-122,-132,-141,-151,-161,-171,-180,-189,-197,-202,-208,-213,-219,-225,-233,-240,-247,-253,-258,-263,-266,-269,-271,-272,-270,-267,-262,-257,-250,-244,-238,-233,-227,-221,-215,-210,-204,-198,-190,-181,-171,-161,-151,-143,-136,-130,-125,-120,-113,-106,-97,-86,-74,-62,-51,-40,-30,-21,-12,-4,2,6,5,-1,-13,-29,-46,-64,-86,-107,-123,-136,-146,-152,-156,-159,-161,-163,-166,-171,-175,-180,-185,-189,-192,-193,-195,-197,-201,-209,-228,-239,-227,-198,-156,-89,34,194,389,608,838,1057,1235,1312,1303,1173,911,586,272,31,-97,-136,-155,-167,-177,-190,-206,-215,-202,-177,-162,-150,-138,-130,-124,-122,-120,-121,-123,-127,-133,-141,-149,-157,-165,-173,-179,-182,-180,-169,-152,-134,-118,-107,-98,-89,-80,-72,-65,-59,-53,-46,-38,-30,-23,-17,-11,-6,0,4,9,13,16,20,23,28,33,37,42,48,54,60,67,73,78,82,86,91,96,102,109,118,126,135,142,149,153,155,154,150,144,135,126,115,106,97,86,74,63,52,44,39,36,33,32,31,29,28,27,26,24,23,23,24,25,27,29,32,35,40,49,47,20,1,-13,-24,-30,-28,-18,-4,10,25,46,63,66,65,64,62,61,61,61,61,57,48,37,27,20,12,5,-1,-6,-10,-10,-7,-3,1,7,13,19,24,31,38,43,47,49,47,40,32,22,13,5,-3,-12,-21,-28,-33,-35,-34,-32,-29,-26,-23,-20,-17,-12,-7,-4,-8,-20,-34,-48,-58,-70,-82,-93,-103,-107,-105,-98,-88,-77,-68,-60,-53,-45,-38,-31,-25,-20,-15,-10,-4,0,3,8,12,17,22,28,34,42,55,69,78,82,84,84,86,89,92,90,76,55,30,-2,-33,-50,-61,-72,-81,-89,-92,-92,-88,-82,-74,-64,-55,-45,-33,-19,-4,12,29,52,95,167,287,461,684,939,1185,1348,1404,1352,1195,914,610,344,153,90,77,67,61,55,47,38,28,18,9,0,-7,-15,-23,-37,-52,-66,-72,-69,-61,-49,-33,-11,25,60,107,163,219,277,308,322,333,341,348,356,365,373,382,391,403,421,449,474,497,508,515,522,527,532,537,541,544,546,548,549,549,548,546,543,538,533,526,519,509,500,490,476,446,422,401,379,356,342,333,326,321,316,311,304,295,283,264,228,169,115,59,20,-4,-27,-50,-62,-70,-75,-79,-83,-87,-91,-97,-104,-111,-118,-124,-130,-136,-141,-145,-150,-155,-160,-164,-168,-172,-175,-177,-179,-181,-183,-184,-184,-185,-185,-185,-185,-186,-187,-187,-188,-188,-188,-188,-190,-191,-193,-194,-195,-197,-199,-202,-206,-209,-213,-220,-229,-236,-240,-239,-233,-224,-216,-210,-207,-204,-200,-196,-192,-189,-186,-183,-179,-176,-172,-171,-171,-174,-176,-179,-182,-186,-189,-192,-195,-197,-197,-196,-197,-200,-205,-209,-211,-210,-206,-202,-200,-199,-199,-198,-195,-191,-188,-185,-181,-178,-174,-171,-166,-163,-159,-154,-149,-140,-124,-107,-90,-74,-60,-45,-33,-27,-30,-39,-48,-52,-55,-57,-57,-58,-60,-62,-65,-69,-72,-75,-78,-80,-82,-84,-86,-88,-90,-93,-96,-101,-109,-117,-124,-128,-127,-122,-114,-100,-75,-31,39,153,318,530,774,1022,1249,1425,1503,1498,1386,1146,834,502,208,8,-27,-35,-40,-51,-66,-81,-92,-102,-110,-117,-123,-128,-131,-134,-138,-143,-150,-156,-160,-163,-166,-169,-173,-176,-179,-180,-179,-175,-169,-162,-155,-148,-141,-135,-129,-125,-120,-115,-109,-101,-94,-86,-80,-74,-70,-65,-61,-56,-52,-47,-41,-29,-14,6,30,52,73,93,109,123,134,142,149,155,160,164,167,169,169,169,169,168,166,163,159,155,152,148,143,137,128,119,109,97,86,74,58,45,40,38,37,35,30,32,46,52,54,56,56,56,57,60,63,66,70,73,75,78,81,85,89,93,98,107,124,139,153,163,173,181,188,192,190,183,172,160,145,123,99,72,48,26,7,-5,-15,-29,-44,-61,-79,-95,-108,-122,-136,-150,-169,-192,-208,-215,-219,-223,-227,-230,-232,-234,-236,-237,-237,-237,-235,-232,-228,-223,-218,-212,-205,-197,-179,-137,-112,-100,-92,-83,-72,-60,-49,-38,-26,-15,-5,3,12,21,34,52,71,92,110,126,141,155,170,190,216,241,262,281,296,309,321,333,339,326,303,286,272,259,246,235,225,216,206,196,185,174,166,159,154,149,142,135,126,114,101,88,74,58,40,21,1,-17,-38,-53,-53,-44,-28,21,120,275,480,710,936,1134,1262,1307,1267,1141,886,589,308,76,-86,-154,-176,-160,-150,-148,-147,-146,-145,-143,-141,-139,-136,-132,-129,-125,-122,-120,-119,-117,-114,-111,-108,-105,-102,-98,-95,-92,-88,-84,-79,-75,-70,-66,-62,-59,-57,-56,-56,-55,-55,-53,-49,-45,-39,-34,-29,-23,-18,-14,-10,-7,-4,-2,0,3,8,15,20,22,20,15,9,1,-4,-10,-16,-21,-27,-32,-37,-42,-47,-52,-56,-60,-63,-67,-71,-76,-81,-86,-92,-97,-101,-104,-108,-114,-120,-127,-131,-133,-130,-123,-114,-103,-90,-77,-57
