-103,-131,-157,-181,-193,-200,-205,-208,-209,-209,-208,-207,-205,-204,-202,-200,-198,-195,-192,-189,-186,-184,-181,-179,-177,-174,-173,-172,-170,-167,-163,-159,-157,-156,-158,-160,-163,-165,-169,-172,-175,-175,-171,-165,-157,-148,-135,-126,-120,-115,-111,-108,-106,-107,-114,-123,-132,-138,-144,-150,-156,-162,-167,-170,-173,-175,-176,-177,-177,-178,-178,-179,-180,-181,-182,-183,-183,-182,-181,-178,-175,-171,-165,-158,-150,-144,-135,-107,-47,28,103,166,182,186,188,175,133,76,-4,-101,-193,-260,-280,-286,-291,-274,-254,-235,-215,-188,-157,-137,-125,-117,-109,-105,-103,-101,-100,-99,-98,-98,-97,-96,-95,-94,-94,-93,-93,-93,-92,-92,-91,-90,-88,-85,-83,-81,-79,-78,-77,-75,-73,-71,-69,-66,-64,-61,-58,-55,-52,-49,-46,-43,-38,-31,-15,0,8,13,18,23,27,30,33,35,35,35,35,34,33,30,27,23,20,15,10,1,-20,-42,-60,-74,-87,-101,-114,-120,-124,-128,-130,-133,-136,-138,-140,-142,-144,-146,-147,-147,-146,-145,-144,-143,-141,-140,-138,-137,-135,-133,-131,-128,-126,-123,-120,-117,-114,-113,-112,-112,-112,-112,-112,-113,-112,-112,-111,-109,-107,-106,-104,-103,-103,-103,-104,-105,-106,-106,-106,-106,-105,-105,-104,-102,-101,-99,-97,-96,-96,-97,-98,-99,-98,-98,-97,-96,-94,-91,-87,-84,-80,-76,-73,-70,-67,-64,-62,-59,-57,-53,-50,-46,-44,-43,-42,-42,-43,-44,-46,-47,-48,-49,-50,-50,-50,-49,-49,-50,-50,-51,-52,-52,-52,-52,-51,-51,-50,-49,-48,-47,-47,-47,-49,-51,-54,-56,-59,-61,-64,-67,-70,-72,-77,-87,-94,-88,-73,-31,39,119,194,258,297,311,311,291,238,151,49,-53,-143,-209,-232,-242,-249,-235,-213,-184,-158,-139,-123,-103,-76,-64,-59,-56,-54,-52,-51,-50,-48,-46,-44,-41,-40,-39,-37,-35,-33,-29,-26,-21,-11,-2,6,14,20,25,29,33,37,40,44,49,55,61,66,70,73,77,81,85,89,93,97,101,105,109,114,119,126,140,152,162,173,185,188,189,190,192,193,187,173,158,138,118,97,77,61,47,36,24,11,0,-7,-15,-22,-31,-39,-44,-48,-52,-56,-60,-63,-66,-69,-71,-73,-74,-73,-72,-70,-68,-66,-64,-63,-63,-62,-61,-60,-58,-57,-54,-52,-49,-46,-43,-40,-38,-37,-36,-37,-38,-40,-42,-44,-47,-49,-51,-54,-56,-59,-61,-63,-65,-68,-71,-74,-76,-78,-79,-78,-78,-77,-76,-75,-73,-72,-70,-70,-69,-69,-67,-66,-66,-66,-66,-66,-65,-65,-64,-63,-62,-60,-58,-55,-51,-47,-43,-37,-30,-22,-16,-11,-6,0,6,14,21,23,18,7,-2,-9,-16,-24,-31,-34,-33,-27,-19,-11,-3,5,16,26,36,43,48,51,54,57,60,62,64,67,70,72,75,77,80,84,88,116,173,246,331,419,499,544,560,535,455,327,184,64,-14,-39,-46,-52,-51,-35,-12,19,41,55,66,76,94,119,133,140,145,148,150,150,149,149,148,148,148,148,147,145,144,144,144,144,145,146,148,150,152,154,155,158,160,162,165,167,170,174,177,182,186,192,199,208,222,235,249,258,266,273,277,279,280,280,281,281,282,283,283,284,283,278,270,261,246,225,214,206,200,194,185,173,157,138,124,112,101,90,77,68,61,54,48,44,40,37,35,33,31,29,28,27,26,24,22,21,20,21,22,24,27,29,32,35,37,39,41,41,42,43,45,45,46,46,46,47,48,48,48,47,47,48,49,50,51,52,52,53,55,56,57,57,57,56,57,58,60,61,63,68,80,81,71,68,66,64,62,60,58,57,55,53,52,51,50,49,50,51,52,54,57,59,62,65,68,70,73,75,77,79,85,92,98,100,97,89,80,72,67,63,58,52,47,42,39,37,36,36,37,39,42,45,50,54,59,64,70,80,90,95,92,85,76,67,55,49,53,66,101,170,259,358,456,535,566,560,498,379,237,105,12,-19,-29,-35,-35,-31,-22,-7,20,54,85,101,108,115,121,129,136,143,149,156,163,171,177,179,178,174,169,164,160,157,153,149,146,143,141,141,141,142,144,147,150,153,156,158,161,163,167,171,176,180,183,186,190,195,204,220,232,237,241,245,248,251,253,254,255,255,254,253,250,246,241,236,230,223,210,198,185,165,136,113,99,87,76,58,34,14,-4,-12,-15,-18,-20,-23,-25,-27,-30,-32,-34,-36,-38,-41,-43,-45,-48,-50,-53,-55,-58,-60,-62,-63,-64,-64,-64,-65,-66,-67,-69,-71,-73,-75,-77,-79,-81,-83,-85,-88,-92,-95,-95,-92,-88,-85,-83,-80,-78,-79,-83,-88,-92,-94,-96,-97,-99,-101,-103,-104,-106,-108,-110,-113,-114,-115,-115,-115,-115,-116,-117,-118,-120,-122,-126,-130,-133,-134,-133,-130,-126,-123,-120,-117,-113,-110,-107,-105,-104,-104,-105,-107,-109,-112,-115,-119,-125,-136,-147,-154,-161,-165,-168,-167,-165,-162,-159,-154,-151,-156,-167,-174,-181,-186,-189,-188,-184,-179,-175,-172,-168,-164,-160,-158,-158,-159,-162,-168,-175,-189,-208,-217,-224,-212,-176,-102,4,134,264,356,368,335,204,32,-139,-273,-326,-343,-325,-304,-289,-280,-276,-268,-252,-219,-185,-148,-132,-126,-122,-120,-120,-123,-126,-128,-130,-132,-134,-134,-133,-129,-125,-119,-115,-109,-103,-97,-91,-84,-80,-76,-73,-70,-68,-65,-61,-58,-55,-52,-49,-46,-41,-35,-29,-23,-18,-13,-8,-3,3,10,17,26,38,54,66,76,87,102,110,116,121,125,128,129,128,125,121,115,108,99,81,67,54,39,23,7,-8,-24,-35,-44,-50,-53,-54,-55,-55,-55,-56,-56,-56,-57,-57,-57,-57,-58,-58,-58,-57,-56,-55,-54,-53,-52,-51,-49,-47,-46,-44,-43,-42,-41,-39,-37,-34,-33,-31,-30,-30,-31,-33,-35,-38,-40,-43,-47,-50,-55,-62,-67,-70,-70,-70,-68,-66,-63,-58,-60,-72,-78,-81,-83,-85,-87,-88,-90,-92,-95,-96,-98,-99,-101,-102,-103,-104,-104,-105,-105,-107,-108,-109,-111,-113,-114,-115,-116,-117,-118,-118,-119,-119,-120,-122,-122,-123,-123,-124,-125,-126,-128,-130,-132,-135,-138,-145,-153,-162,-171,-177,-182,-187,-191,-195,-197,-197,-195,-193,-190,-186,-183,-179,-173,-166,-158,-149,-140,-129,-124,-127,-135,-141,-149,-153,-148,-135,-96,-26,68,173,267,323,328,299,210,95,-20,-116,-181,-218,-236,-246,-254,-253,-242,-211,-159,-107,-82,-78,-75,-73,-71,-70,-69,-67,-65,-63,-61,-59,-57,-56,-55,-53,-52,-50,-48,-46,-45,-43,-41,-39,-37,-34,-32,-30,-28,-26,-25,-24,-23,-23,-22,-20,-19,-17,-14,-11,-2,21,41,53,61,68,79,96,126,160,180,195,208,225,251,276,287,292,296,299,301,302,302,301,299,296,292,288,282,274,258,239,230,224,220,216,212,209,207,205,203,201,200,197,195,193,191,188,186,184,182,179,178,177,176,175,173,172,171,170,170,170,169,169,169,170,171,172,172,172,172,171,171,170,170,169,168,166,165,163,162,161,159,157,154,149,144,139,133,128,123,119,115,112,107,103,100,96,92,86,77,67,56,50,46,43,39,35,30,26,21,17,12,5,-5,-15,-24,-28,-31,-34,-36,-39,-41,-43,-44,-45,-47,-48,-49,-50,-51,-52,-52,-53,-55,-57,-60,-66,-72,-79,-87,-103,-122,-129,-132,-135,-136,-137,-139,-141,-144,-146,-148,-150,-152,-154,-156,-159,-162,-165,-167,-169,-171,-172,-172,-172,-171,-168,-164,-160,-154,-130,-86,-23,56,149,238,296,300,267,172,50,-78,-194,-274,-305,-315,-308,-283,-248,-205,-162,-137,-124,-116,-112,-109,-106,-104,-102,-100,-96,-92,-92,-94,-96,-97,-98,-98,-99,-99,-100,-101,-102,-102,-102,-101,-99,-97,-94,-92,-89,-87,-85,-83,-80,-77,-73,-68,-63,-57,-49,-40,-31,-22,-12,-1,8,16,27,39,48,52,54,57,59,61,62,63,63,63,62,60,59,56,52,48,42,30,15,2,-7,-16,-25,-35,-47,-58,-65,-70,-74,-80,-86,-93,-100,-109,-115,-116,-117,-117,-119,-119,-116,-111,-107,-104,-100,-98,-98,-100,-103,-105,-108,-109,-111,-113,-114,-115,-116,-115,-114,-112,-108,-104,-98,-87,-70,-64,-61,-58,-57,-56,-57,-60,-63,-65,-67,-69,-71,-74,-75,-76,-75,-72,-68,-64,-60,-57,-53,-49,-45,-43,-42,-43,-45,-48,-51,-54,-57,-61,-66,-69,-69,-66,-62,-57,-51,-43,-36,-29,-23,-15,-12,-14,-18,-23,-28,-28,-23,-20,-18,-16,-14,-13,-11,-10,-9,-8,-7,-8,-9,-11,-13,-16,-18,-19,-21,-23,-24,-26,-26,-27,-29,-31,-33,-35,-38,-40,-41,-42,-43,-44,-45,-45,-46,-46,-48,-50,-55,-61,-70,-79,-90,-92,-88,-77,-44,5,76,167,269,362,428,440,431,372,281,171,60,-39,-112,-159,-173,-178,-167,-135,-102,-62,-24,-1,4,8,12,15,18,22,30,44,57,67,78,82,85,87,88,90,92,94,95,97,98,99,100,101,102,103,106,112,112,105,94,81,68,55,40,31,27,25,23,28,37,48,61,70,76,81,85,90,95,104,117,129,144,158,166,168,169,170,171,171,168,163,158,150,140,126,108,88,68,50,37,28,19,9,-2,-12,-20,-27,-33,-40,-53,-71,-81,-86,-90,-92,-94,-94,-92,-90,-88,-86,-84,-81,-77,-74,-74,-76,-79,-84,-87,-92,-96,-95,-88,-80,-76,-72,-68,-64,-62,-60,-61,-62,-64,-67,-69,-71,-74,-78,-81,-82,-81,-79,-75,-71,-66,-57,-55,-53,-52,-51,-50,-50,-49,-49,-49,-49,-49,-50,-51,-53,-55,-58,-61,-64,-67,-70,-72,-76,-80,-83,-85,-85,-82,-78,-74,-70,-67,-62,-57,-53,-52,-53,-56,-61,-66,-73,-85,-95,-103,-109,-113,-112,-106,-98,-92,-86,-80,-76,-73,-71,-70,-67,-62,-71,-78,-81,-85,-88,-93,-97,-101,-105,-108,-112,-115,-118,-119,-119,-119,-118,-116,-114,-110,-102,-89,-82,-77,-75,-76,-79,-85,-93,-102,-93,-70,-12,74,180,292,387,433,433,388,286,153,15,-109,-204,-260,-279,-275,-236,-176,-110,-55,-21,-12,-6,-1,3,12,27,38,44,48,49,47,44,40,36,37,48,61,73,75,76,77,77,76,73,70,66,68,80,94,108,117,122,125,128,131,135,139,143,148,154,163,172,182,189,194,199,203,207,212,222,239,249,254,258,261,262,261,259,256,252,247,238,232,228,225,220,215,207,193,175,160,149,139,126,108,90,78,67,58,50,42,31,18,6,2,0,0,0,0,0,0,0,0,-1,-3,-4,-6,-8,-10,-12,-14,-16,-19,-22,-27,-34,-39,-40,-38,-32,-26,-21,-13,-7,-5,-6,-8,-10,-13,-17,-16,-8,-4,0,2,5,7,6,4,3,1,1,1,0,0,-1,-2,-2,0,2,4,7,9,11,13,15,16,17,17,17,17,18,19,20,22,22,23,23,24,24,25,27,29,32,35,39,43,51,59,66,73,79,84,89,93,97,99,100,98,93,88,82,77,74,72,69,67,66,64,63,62,61,59,57,56,55,54,53,52,51,51,50,49,48,46,43,36,30,25,22,16,9,18,46,87,145,223,314,410,494,543,544,502,395,249,84,-66,-167,-200,-198,-158,-103,-55,-14,13,35,49,56,59,60,62,62,63,64,66,67,69,70,73,75,76,77,78,80,81,83,85,87,89,91,92,93,93,93,90,88,85,83,80,77,74,72,70,71,75,80,87,94,105,122,133,138,140,142,143,145,147,149,151,152,152,152,152,151,149,147,145,143,140,137,133,129,122,107,95,87,82,76,69,62,54,45,33,22,11,-5,-32,-48,-55,-61,-66,-69,-70,-70,-69,-69,-68,-68,-68,-67,-66,-65,-68,-76,-84,-89,-94,-98,-102,-105,-108,-109,-109,-108,-106,-104,-102,-100,-98,-97,-95,-93,-90,-86,-83,-80,-77,-73,-68,-64,-61,-59,-58,-57,-55,-53,-50,-48,-46,-44,-42,-40,-38,-36,-34,-34,-33,-32,-30,-29,-28,-27,-27,-25,-23,-21,-19,-18,-18,-15,-11,-7,-3,-2,-2,-5,-7,-10,-13,-18,-23,-26,-26,-23,-20,-17,-14,-12,-9,-8,-7,-10,-16,-22,-29,-34,-39,-44,-48,-53,-57,-61,-64,-66,-67,-67,-67,-68,-69,-71,-74,-77,-82,-86,-84,-80,-76,-73,-70,-66,-63,-58,-50,-24,27,107,206,306,368,388,363,287,166,39,-68,-140,-186,-208,-223,-233,-225,-200,-152,-101,-55,-28,-11,0,5,-1,-15,-27,-39,-48,-49,-42,-31,-14,11,24,30,35,39,42,44,47,50,53,55,57,59,62,65,68,71,75,78,82,86,91,96,102,107,114,121,127,133,139,145,150,156,161,167,174,181,187,191,195,199,202,205,207,209,209,209,209,208,206,203,200,196,191,184,168,152,135,118,105,92,79,64,49,35,21,14,9,5,2,0,0,1,3,6,8,10,12,15,19,22,25,25,25,24,23,21,20,17,15,13,11,11,11,12,12,12,13,15,16,16,17,16,14,12,9,7,3,0,-2,-1,2,6,11,17,20,17,8,-4,-25,-43,-56,-68,-78,-86,-93,-98,-103,-106,-109,-112,-114,-117,-119,-121,-124,-127,-132,-142,-158,-165,-169,-172,-175,-177,-175,-170,-164,-159,-156,-152,-148,-144,-141,-139,-140,-143,-146,-149,-151,-153,-156,-159,-162,-165,-167,-168,-169,-171,-174,-176,-177,-177,-176,-177,-177,-178,-180,-181,-183,-185,-187,-189,-191,-190,-187,-183,-177,-171,-158,-135,-100,-53,8,76,141,185,200,179,117,7,-115,-226,-287,-310,-311,-300,-283,-262,-245,-225,-211,-204,-199,-194,-188,-181,-165,-144,-135,-131,-128,-125,-123,-121,-119,-116,-113,-111,-108,-105,-102,-99,-96,-93,-90,-86,-82,-78,-74,-69,-62,-51,-43,-38,-34,-32,-29,-26,-21,-17,-11,-2,9,21,52,87,111,129,141,152,161,169,177,183,183,178,172,168,164,159,156,156,160,165,172,182,196,201,206,211,211,200,185,163,144,129,114,101,90,81,73,67,62,58,56,55,55,55,54,53,52,51,51,53,55,57,58,60,61,63,64,65,63,60,54,47,36,19,15,12,8,6,8,10,12,14,16,18,19,18,16,13,10,7,4,1,-1,-5,-9,-14,-18,-21,-26,-32,-41,-49,-52,-54,-57,-61,-63,-61,-56,-54,-51,-49,-47,-46,-45,-45,-44,-44,-45,-46,-49,-53,-56,-60,-65,-73,-78,-74,-67,-63,-60,-56,-53,-51,-52,-53,-56,-60,-65,-70,-76,-84,-93,-101,-108,-115,-123,-128,-128,-121,-113,-108,-103,-99,-96,-94,-92,-91,-91,-92,-93,-95,-99,-103,-108,-115,-128,-129,-120,-93,-32,53,155,259,347,386,382,320,202,64,-65,-168,-225,-244,-237,-215,-171,-131,-120,-113,-106,-101,-95,-86,-73,-56,-48,-44,-41,-38,-37,-37,-36,-36,-35,-34,-33,-32,-31,-30,-29,-28,-26,-24,-23,-21,-20,-19,-18,-18,-17,-16,-15,-12,-9,-5,-2,0,4,7,11,14,17,21,25,32,48,69,78,83,87,91,95,98,101,103,104,105,105,105,104,102,100,98,95,93,90,86,83,78,68,58,48,39,29,18,7,0,-5,-10,-13,-17,-21,-25,-29,-33,-36,-40,-44,-48,-51,-54,-57,-59,-60,-62,-63,-64,-65,-67,-70,-73,-76,-76,-75,-74,-72,-71,-71,-70,-70,-70,-69,-68,-67,-65,-65,-65,-65,-65,-64,-63,-62,-62,-62,-61,-60,-58,-56,-54,-53,-51,-49,-45,-41,-38,-35,-32,-30,-27,-21,-12,-2,10,19,27,34,39,40,38,35,30,26,20,16,18,30,43,49,53,58,62,67,72,76,79,81,83,84,84,82,79,77,74,71,69,66,64,61,59,57,54,52,49,46,43,39,36,34,33,33,33,34,35,37,41,44,48,52,57,63,92,137,206,297,393,448,467,439,355,234,116,21,-40,-91,-117,-136,-148,-148,-130,-77,-21,5,13,18,20,20,18,14,10,5,1,-4,-10,-14,-15,-11,-4,5,19,37,40,42,45,47,48,48,46,44,42,39,37,35,31,28,26,26,28,31,36,42,49,57,68,78,86,93,97,100,103,106,109,112,115,117,120,122,124,126,128,129,131,133,136,141,147,152,153,149,143,134,123,104,85,69,55,43,33,21,8,-4,-21,-39,-45,-48,-50,-52,-53,-54,-56,-59,-61,-64,-68,-73,-78,-88,-106,-120,-128,-133,-138,-141,-144,-145,-147,-149,-150,-151,-152,-154,-155,-157,-159,-161,-163,-166,-168,-172,-179,-183,-177,-166,-156,-145,-139,-138,-138,-138,-138,-137,-137,-137,-137,-140,-145,-149,-154,-158,-163,-168,-173,-175,-175,-172,-167,-160,-152,-144,-130,-119,-109,-105,-102,-100,-97,-95,-93,-92,-92,-92,-92,-92,-92,-91,-91,-91,-90,-89,-88,-86,-84,-82,-81,-81,-80,-79,-77,-76,-74,-69,-63,-57,-54,-53,-56,-59,-63,-67,-73,-77,-75,-71,-68,-66,-62,-58,-55,-50,-32,17,91,188,304,419,500,510,480,367,212,42,-107,-213,-249,-262,-247,-199,-139,-81,-27,6,19,19,4,-19,-36,-44,-40,-17,0,10,16,21,22,20,16,12,10,8,6,5,4,4,5,7,10,14,20,30,37,41,44,47,49,49,48,46,44,41,38,34,32,36,46,60,80,91,98,103,107,110,113,116,118,121,123,123,120,116,111,107,104,101,98,94,90,87,85,82,78,72,60,46,32,19,9,-3,-21,-37,-49,-56,-58,-60,-61,-62,-63,-65,-66,-66,-67,-67,-68,-69,-70,-70,-70,-70,-70,-71,-72,-73,-74,-75,-76,-76,-77,-76,-75,-73,-70,-67,-65,-62,-56,-53,-57,-67,-74,-81,-86,-90,-93,-95,-97,-100,-102,-103,-103,-100,-96,-90,-86,-84,-81,-79,-77,-76,-74,-72,-70,-67,-64,-62,-60,-58,-56,-54,-53,-51,-50,-49,-45,-40,-35,-31,-30,-32,-34,-38,-41,-44,-47,-51,-55,-58,-62,-64,-67,-70,-75,-82,-86,-81,-72,-62,-50,-38,-30,-23,-18,-18,-23,-32,-46,-64,-73,-79,-81,-77,-67,-37,10,75,159,255,349,422,442,431,352,226,85,-40,-133,-191,-209,-215,-207,-180,-144,-95,-45,-1,19,32,41,41,33,27,23,19,16,16,17,21,26,30,34,39,44,50,56,61,63,65,66,67,68,69,70,71,72,73,75,76,77,77,77,78,79,82,85,93,113,125,130,134,137,140,143,146,148,150,152,155,159,165,174,180,183,185,187,189,190,190,188,185,179,173,163,148,139,130,120,107,95,86,78,71,63,56,48,40,34,30,26,22,19,16,13,10,8,4,0,-2,-4,-4,-3,-2,0,2,5,11,14,12,8,4,0,-3,0,4,7,10,13,15,15,11,5,0,-5,-10,-16,-21,-24,-26,-25,-23,-21,-19,-17,-16,-15,-13,-11,-8,-7,-6,-5,-4,-3,-1,0,0,2,4,8,13,19,27,40,47,53,59,59,48,38,25,6,-8,-18,-27,-31,-35,-37,-39,-41,-42,-43,-44,-44,-44,-44,-44,-43,-43,-43,-43,-43,-42,-41,-40,-37,-39,-53,-65,-76,-82,-78,-68,-38,34,136,250,357,428,432,386,266,119,-18,-118,-160,-175,-182,-182,-177,-170,-159,-141,-121,-102,-88,-80,-70,-61,-56,-53,-51,-49,-48,-47,-46,-45,-43,-40,-38,-37,-35,-34,-33,-31,-30,-28,-25,-22,-17,-14,-12,-13,-16,-19,-24,-29,-37,-36,-23,-10,1,10,17,23,29,34,36,36,35,33,31,27,29,43,51,55,59,63,66,68,70,71,72,72,71,69,67,65,62,58,55,49,39,28,19,11,4,-3,-11,-19,-34,-55,-66,-72,-77,-80,-83,-85,-87,-92,-92,-84,-80,-77,-74,-71,-69,-69,-71,-73,-76,-80,-82,-86,-89,-93,-95,-96,-95,-91,-88,-83,-79,-75,-69,-62,-58,-56,-54,-54,-53,-53,-52,-51,-50,-51,-51,-52,-53,-52,-52,-52,-51,-51,-51,-49,-47,-44,-41,-39,-36,-32,-24,-16,-8,-3,1,5,9,12,13,13,11,9,7,5,3,1,0,-3,-5,-8,-10,-13,-15,-18,-21,-24,-29,-34,-38,-39,-36,-32,-27,-24,-20,-16,-13,-11,-12,-15,-20,-26,-33,-43,-48,-45,-36,-9,44,121,216,324,427,496,503,466,351,202,54,-58,-111,-130,-136,-132,-125,-118,-109,-97,-79,-59,-28,7,29,40,46,49,52,54,55,55,55,54,53,52,50,49,47,43,41,41,46,53,62,74,89,96,99,101,104,106,107,109,110,111,112,114,115,116,117,118,119,121,123,125,128,135,154,172,184,194,201,206,210,210,206,200,194,187,181,176,172,169,166,163,161,159,156,154,152,149,145,139,128,115,107,102,98,93,88,83,79,75,73,70,67,64,60,58,55,52,48,45,42,39,36,35,34,32,31,29,28,27,26,24,21,18,16,14,13,12,11,10,8,6,3,-3,-16,-17,-18,-19,-20,-21,-21,-21,-20,-18,-16,-13,-11,-10,-12,-13,-14,-16,-17,-19,-20,-20,-19,-18,-15,-13,-11,-8,-5,-2,0,1,1,0,-3,-6,-10,-13,-18,-23,-29,-33,-37,-41,-45,-49,-53,-56,-59,-61,-63,-64,-65,-66,-67,-69,-71,-73,-75,-76,-78,-80,-82,-85,-91,-102,-107,-114,-113,-90,-43,30,126,234,334,392,393,339,219,76,-59,-165,-207,-219,-227,-230,-231,-231,-230,-228,-223,-206,-166,-121,-87,-73,-73,-85,-95,-104,-110,-110,-105,-97,-84,-65,-48,-37,-30,-25,-38,-58,-79,-90,-96,-101,-103,-101,-95,-86,-72,-48,-20,-3,1,5,8,10,10,9,9,9,8,7,4,13,21,26,31,36,41,46,50,54,57,61,63,64,65,66,67,68,69,70,71,72,73,70,63,54,43,27,14,4,-3,-7,-11,-18,-33,-50,-61,-63,-64,-65,-65,-66,-65,-64,-62,-61,-58,-57,-57,-62,-68,-74,-83,-82,-73,-60,-48,-43,-40,-38,-36,-35,-33,-31,-27,-39,-48,-52,-56,-60,-61,-62,-61,-60,-58,-55,-52,-47,-41,-30,-24,-22,-21,-20,-19,-19,-19,-18,-17,-15,-14,-13,-12,-11,-9,-8,-6,-4,-1,1,6,12,18,23,27,30,32,36,39,41,43,44,43,41,39,37,33,26,9,-4,-11,-16,-21,-26,-30,-33,-35,-37,-39,-41,-43,-44,-45,-46,-47,-48,-49,-49,-50,-51,-52,-56,-55,-44,-13,39,122,232,355,468,529,528,458,304,119,-61,-205,-273,-282,-261,-216,-164,-115,-75,-47,-37,-34,-35,-38,-41,-44,-46,-43,-34,-19,-3,1,5,6,7,6,4,1,0,-2,-4,-6,-7,-6,-3,0,2,3,5,6,7,10,12,14,16,17,19,21,23,26,28,30,33,39,45,52,59,66,77,92,100,106,110,114,115,114,112,110,107,104,101,99,95,91,87,81,71,58,48,41,37,34,30,26,21,15,3,-16,-32,-42,-49,-53,-57,-59,-61,-63,-65,-67,-69,-71,-74,-77,-81,-84,-85,-85,-84,-82,-80,-78,-74,-74,-79,-81,-81,-82,-83,-85,-86,-87,-88,-89,-90,-90,-90,-89,-88,-86,-84,-83,-81,-80,-79,-77,-76,-76,-75,-74,-73,-72,-70,-68,-67,-68,-69,-72,-74,-76,-79,-81,-85,-89,-91,-92,-90,-85,-78,-70,-58,-39,-29,-22,-17,-14,-11,-11,-15,-21,-27,-32,-37,-41,-46,-50,-55,-59,-64,-68,-71,-75,-79,-84,-88,-90,-90,-88,-86,-83,-80,-76,-70,-65,-65,-71,-78,-85,-95,-99,-94,-79,-37,43,151,273,386,445,445,388,261,107,-37,-144,-197,-216,-218,-209,-184,-150,-111,-72,-55,-49,-48,-46,-45,-44,-42,-40,-39,-38,-36,-34,-31,-29,-26,-22,-18,-12,-1,8,17,20,22,24,26,28,29,30,31,32,33,34,36,37,37,37,38,38,38,39,41,42,44,48,56,66,77,89,100,109,115,120,125,129,133,137,141,144,148,152,155,155,152,147,140,128,108,96,90,85,80,73,67,61,54,44,35,28,23,20,17,14,11,8,6,4,4,3,2,1,0,0,-1,-3,-5,-7,-9,-12,-14,-16,-19,-24,-33,-38,-39,-41,-44,-46,-44,-40,-37,-33,-30,-28,-30,-37,-44,-49,-54,-58,-62,-66,-70,-72,-75,-77,-79,-81,-84,-87,-90,-91,-91,-88,-84,-79,-72,-62,-58,-56,-55,-52,-50,-51,-52,-53,-54,-55,-55,-49,-43,-38,-33,-28,-25,-25,-28,-34,-40,-45,-51,-57,-62,-68,-74,-79,-83,-86,-88,-91,-92,-94,-96,-98,-101,-103,-105,-107,-108,-110,-111,-113,-116,-122,-127,-126,-120,-107,-70,0,96,210,314,382,389,358,253,115,-24,-137,-213,-236,-243,-227,-200,-175,-156,-133,-107,-85,-74,-67,-62,-53,-43,-37,-32,-28,-24,-21,-19,-18,-18,-17,-16,-15,-14,-13,-12,-11,-10,-9,-7,-4,0,3,8,17,32,42,49,55,59,59,56,53,50,48,45,43,43,45,48,53,59,70,90,103,111,116,118,120,122,124,126,125,123,121,118,116,116,117,122,127,133,141,141,130,118,107,99,89,74,59,45,38,34,31,29,27,26,26,27,28,29,30,31,32,32,27,22,17,17,21,25,27,29,31,32,33,35,36,38,39,40,40,40,40,40,39,37,35,33,31,29,26,24,22,21,21,22,23,26,29,33,40,43,39,30,19,6,3,0,-2,-2,4,8,12,15,17,18,18,16,13,10,5,-2,8,16,21,25,28,30,29,26,21,15,9,2,-7,-16,-22,-28,-31,-33,-35,-38,-40,-43,-45,-46,-47,-48,-49,-49,-50,-51,-52,-53,-54,-55,-56,-58,-59,-61,-62,-65,-68,-76,-76,-55,-2,77,178,286,372,396,384,303,168,11,-130,-225,-259,-260,-235,-186,-137,-100,-86,-78,-71,-65,-58,-50,-43,-35,-31,-34,-42,-47,-52,-57,-59,-56,-51,-45,-41,-36,-31,-27,-24,-20,-16,-8,6,24,42,49,52,54,56,57,59,60,62,64,66,68,69,71,72,74,77,82,94,103,108,111,115,118,120,120,120,118,116,113,111,108,106,103,99,95,91,86,83,79,75,71,67,63,57,48,34,22,11,0,-14,-28,-42,-52,-58,-63,-67,-69,-70,-69,-66,-62,-59,-55,-50,-45,-42,-46,-54,-62,-66,-69,-72,-76,-80,-84,-87,-89,-90,-90,-90,-89,-88,-86,-83,-80,-77,-75,-74,-73,-70,-65,-62,-60,-61,-63,-66,-68,-69,-70,-71,-74,-76,-77,-78,-78,-79,-81,-82,-83,-83,-83,-82,-82,-82,-82,-82,-81,-81,-81,-82,-83,-83,-82,-80,-78,-76,-75,-73,-71,-70,-71,-73,-76,-78,-80,-83,-85,-88,-91,-93,-95,-97,-99,-100,-101,-101,-101,-100,-101,-102,-104,-105,-107,-109,-111,-113,-116,-118,-120,-123,-127,-136,-152,-162,-169,-161,-136,-85,-10,83,182,266,304,301,245,137,14,-98,-183,-234,-251,-258,-263,-251,-233,-211,-170,-131,-111,-102,-97,-94,-91,-87,-84,-81,-77,-73,-65,-51,-44,-41,-39,-37,-36,-35,-32,-29,-26,-21,-14,1,17,23,27,27,21,17,14,11,10,11,17,26,36,44,51,59,66,73,79,85,91,99,110,120,126,131,135,137,140,143,145,147,149,151,154,158,160,155,144,138,133,130,126,123,119,116,113,110,106,100,89,76,65,58,51,46,42,37,32,26,22,17,13,7,4,9,17,21,25,28,30,33,35,36,37,37,37,37,37,36,35,34,32,31,30,28,25,23,28,38,44,48,52,55,57,59,61,62,63,65,66,69,73,75,69,56,48,40,33,28,25,26,29,33,37,40,44,47,50,53,54,55,55,55,54,51,48,44,40,37,34,30,26,21,18,18,20,24,29,33,36,41,46,52,55,58,59,60,62,64,66,68,67,65,60,55,50,46,40,33,27,24,21,18,16,13,10,7,5,2,-1,-6,-5,2,8,14,18,18,13,4,-12,-29,-40,-38,-6,63,157,267,373,449,459,437,336,198,57,-54,-122,-154,-165,-169,-164,-152,-135,-111,-77,-42,-19,-7,-1,2,6,9,11,11,11,11,9,8,6,4,1,0,-2,-5,-9,-11,-11,-6,0,6,13,23,29,30,31,32,34,35,35,36,37,37,38,40,41,41,42,43,44,46,49,55,59,63,65,67,70,72,73,73,74,74,75,75,76,76,76,77,78,80,79,76,70,62,52,42,36,32,28,24,18,12,6,-1,-11,-26,-36,-44,-49,-53,-58,-62,-64,-65,-64,-61,-59,-56,-54,-51,-49,-46,-44,-43,-42,-41,-40,-38,-36,-35,-32,-25,-26,-33,-36,-38,-40,-43,-45,-46,-46,-47,-47,-47,-47,-47,-47,-47,-47,-49,-50,-50,-48,-48,-48,-49,-50,-51,-52,-52,-51,-50,-50,-49,-49,-49,-48,-48,-47,-47,-46,-46,-45,-43,-41,-35,-30,-29,-31,-34,-35,-36,-37,-38,-39,-40,-41,-41,-41,-41,-40,-40,-39,-37,-36,-34,-32,-31,-29,-28,-27,-27,-25,-24,-23,-22,-21,-19,-17,-15,-12,-7,-3,-1,-3,-8,-15,-22,-31,-42,-53,-61,-68,-74,-79,-81,-81,-79,-77,-74,-73,-70,-68,-66,-66,-70,-76,-83,-93,-107,-112,-114,-117,-120,-110,-81,-32,40,134,237,329,384,387,345,238,101,-36,-151,-221,-246,-257,-265,-265,-251,-213,-161,-116,-100,-92,-87,-83,-79,-74,-69,-63,-57,-54,-53,-51,-49,-48,-47,-47,-46,-44,-42,-40,-38,-37,-36,-36,-35,-33,-31,-27,-20,-5,5,12,18,22,25,27,29,31,33,36,38,41,44,47,50,54,58,63,68,73,77,80,84,89,93,96,97,96,95,94,93,92,90,85,81,81,83,87,91,77,60,44,26,4,-21,-33,-39,-45,-50,-54,-54,-52,-51,-48,-47,-44,-40,-40,-46,-48,-50,-53,-55,-56,-56,-56,-56,-55,-54,-50,-46,-41,-36,-31,-27,-18,-10,-6,-7,-13,-20,-31,-46,-57,-64,-70,-74,-74,-67,-58,-49,-38,-31,-29,-27,-26,-25,-24,-22,-22,-22,-22,-23,-24,-26,-28,-31,-35,-38,-41,-43,-45,-48,-51,-53,-54,-53,-51,-49,-47,-45,-43,-39,-35,-32,-30,-31,-33,-36,-39,-40,-42,-44,-47,-50,-51,-52,-52,-53,-52,-52,-51,-49,-47,-45,-43,-41,-40,-38,-36,-34,-32,-30,-29,-28,-26,-24,-23,-21,-20,-18,-13,-9,-10,-18,-29,-36,-42,-47,-52,-56,-60,-63,-65,-67,-68,-70,-73,-76,-78,-78,-74,-67,-60,-52,-43,-36,-35,-42,-54,-75,-94,-103,-109,-91,-39,47,160,279,377,417,412,349,242,116,-7,-112,-197,-253,-273,-274,-259,-221,-172,-122,-80,-65,-59,-56,-55,-54,-52,-51,-49,-48,-45,-42,-39,-35,-31,-26,-20,-13,0,8,8,8,8,9,9,9,10,10,11,11,13,14,15,15,16,18,20,23,31,50,58,62,66,68,71,73,76,79,82,86,89,91,94,97,100,104,107,111,114,116,118,120,121,123,124,128,133,120,101,78,58,44,27,17,11,6,2,-1,-4,-6,-8,-10,-13,-16,-19,-22,-25,-27,-30,-32,-34,-37,-39,-42,-45,-48,-53,-57,-59,-55,-47,-38,-31,-24,-17,-12,-12,-17,-25,-32,-37,-42,-46,-51,-54,-56,-56,-53,-50,-45,-41,-37,-30,-24,-20,-22,-28,-35,-42,-52,-58,-62,-64,-67,-70,-73,-75,-75,-72,-67,-61,-56,-52,-47,-41,-36,-34,-36,-43,-52,-60,-66,-72,-79,-85,-90,-90,-88,-83,-77,-69,-59,-43,-37,-34,-31,-28,-27,-27,-29,-33,-39,-44,-48,-53,-58,-63,-66,-67,-65,-62,-58,-53,-48,-42,-34,-26,-19,-14,-9,-4,0,4,8,9,7,2,-3,-9,-13,-18,-22,-27,-32,-35,-38,-40,-42,-44,-45,-45,-45,-46,-47,-50,-53,-56,-56,-54,-51,-47,-42,-35,-34,-42,-49,-56,-59,-54,-36,12,86,183,286,375,417,415,364,261,135,8,-103,-185,-225,-238,-231,-208,-168,-117,-60,-28,-20,-15,-11,-8,-6,-3,-1,0,1,3,5,6,7,9,11,13,17,21,27,33,39,44,48,52,55,57,60,62,63,65,67,69,72,74,76,77,79,81,82,84,86,89,91,96,105,115,126,137,146,155,163,168,172,174,177,179,182,185,185,177,168,163,158,154,151,147,144,140,135,131,128,124,120,115,108,96,84,75,67,61,55,50,45,41,38,36,34,32,31,29,28,25,23,20,19,20,24,31,37,41,45,49,52,56,58,58,56,52,48,44,42,40,38,36,34,32,30,29,27,25,23,21,20,19,19,20,20,21,22,22,22,20,19,16,14,11,8,5,3,2,2,1,1,1,0,0,0,0,0,0,-1,-1,-2,-2,-1,0,1,3,4,5,6,7,10,12,11,1,-9,-18,-26,-34,-38,-37,-31,-23,-15,-10,-5,0,4,8,11,13,14,12,9,4,0,-5,-10,-14,-18,-23,-28,-32,-35,-38,-39,-39,-39,-39,-38,-37,-36,-35,-34,-32,-27,-24,-31,-45,-56,-67,-75,-79,-77,-72,-63,-37,17,87,170,257,334,372,369,319,202,60,-67,-152,-178,-184,-189,-192,-192,-185,-169,-120,-60,-20,-5,-6,-22,-35,-47,-55,-55,-49,-40,-26,-1,15,24,29,31,27,18,7,-2,-13,-24,-29,-25,-16,-7,-1,3,9,14,19,25,29,33,37,40,43,47,50,52,55,58,61,65,68,72,75,79,82,84,87,89,91,93,95,98,101,103,105,105,104,101,98,94,88,82,76,65,54,45,37,26,11,-2,-11,-16,-20,-24,-27,-31,-34,-37,-40,-44,-52,-64,-70,-73,-76,-77,-78,-78,-78,-76,-72,-68,-63,-57,-47,-42,-40,-39,-37,-35,-34,-34,-37,-42,-47,-50,-53,-57,-60,-62,-63,-61,-59,-56,-54,-53,-52,-51,-50,-48,-48,-48,-48,-48,-47,-46,-45,-45,-44,-44,-43,-42,-42,-42,-42,-42,-43,-42,-41,-39,-36,-32,-30,-30,-32,-35,-36,-39,-43,-45,-47,-47,-46,-44,-42,-41,-40,-38,-36,-34,-31,-29,-26,-23,-20,-16,-12,-7,0,7,11,14,17,21,24,23,16,5,-14,-38,-47,-51,-56,-59,-61,-61,-60,-59,-58,-56,-55,-54,-52,-51,-50,-49,-49,-48,-48,-48,-49,-51,-53,-55,-58,-62,-68,-56,-20,39,119,210,306,389,417,407,331,207,82,-18,-80,-121,-143,-160,-171,-161,-136,-93,-51,-20,-11,-7,-1,3,7,14,21,27,27,20,12,7,2,-1,-4,-6,-8,-8,-6,-3,0,4,8,13,19,25,31,35,37,39,41,43,46,48,51,55,59,63,66,68,71,73,75,77,79,81,82,83,85,86,87,89,91,93,96,98,99,100,101,102,102,101,100,98,95,91,87,82,71,48,33,26,20,15,11,7,3,-4,-22,-42,-62,-72,-79,-84,-87,-89,-88,-86,-83,-80,-76,-69,-69,-75,-80,-83,-86,-88,-89,-88,-86,-84,-81,-76,-68,-68,-81,-92,-102,-108,-109,-109,-110,-112,-110,-96,-87,-79,-72,-68,-68,-72,-77,-83,-86,-89,-93,-96,-99,-102,-104,-105,-104,-103,-101,-98,-94,-89,-84,-79,-76,-72,-67,-63,-59,-58,-59,-62,-66,-71,-75,-80,-86,-93,-99,-102,-101,-99,-94,-89,-78,-55,-43,-36,-31,-27,-24,-21,-18,-16,-13,-11,-8,-6,-3,0,2,5,7,9,11,12,13,14,15,16,19,24,26,21,12,3,-6,-12,-15,-17,-20,-22,-24,-26,-25,-24,-22,-19,-17,-15,-13,-11,-8,-5,-2,0,3,6,12,37,98,176,271,375,472,519,514,443,307,151,17,-73,-97,-105,-105,-95,-85,-74,-61,-26,15,48,58,63,67,70,73,75,76,78,80,82,85,89,93,98,103,109,118,126,131,135,138,141,146,148,147,144,140,135,145,151,153,155,157,159,160,163,165,168,172,177,182,187,191,196,205,214,222,227,231,234,237,240,244,248,250,251,248,244,240,236,233,230,226,221,216,211,206,200,192,183,173,166,158,145,124,108,96,85,76,69,62,54,51,49,47,46,45,43,42,41,40,39,38,37,36,35,34,33,32,32,31,30,29,27,26,24,22,20,17,14,11,8,5,2,-1,-5,-9,-12,-16,-19,-22,-26,-29,-32,-34,-35,-34,-34,-33,-32,-31,-30,-28,-24,-21,-20,-23,-26,-28,-29,-31,-33,-35,-37,-39,-41,-43,-44,-46,-47,-47,-47,-48,-49,-51,-53,-54,-54,-54,-52,-50,-48,-45,-39,-35,-34,-39,-44,-47,-50,-52,-54,-55,-55,-55,-53,-51,-48,-45,-42,-39,-36,-33,-31,-29,-28,-29,-30,-33,-38,-43,-49,-55,-62,-69,-75,-80,-84,-87,-89,-91,-91,-92,-93,-94,-94,-95,-96,-98,-100,-103,-105,-106,-107,-109,-112,-115,-118,-124,-137,-144,-140,-129,-97,-21,83,205,321,392,397,355,246,106,-37,-162,-259,-310,-315,-285,-219,-157,-128,-120,-115,-112,-108,-103,-100,-97,-93,-88,-82,-75,-69,-63,-59,-55,-51,-48,-44,-42,-40,-38,-36,-34,-31,-29,-27,-26,-24,-22,-20,-17,-14,-12,-10,-8,-6,-4,-1,0,3,5,9,12,16,19,23,27,32,38,44,49,54,60,73,94,109,120,119,104,93,84,76,71,67,63,60,57,54,50,45,39,33,26,18,10,4,-1,-6,-11,-17,-24,-34,-53,-69,-73,-75,-77,-77,-78,-77,-77,-77,-77,-75,-73,-70,-67,-64,-61,-56,-51,-49,-52,-59,-65,-69,-72,-75,-78,-80,-83,-85,-86,-87,-86,-85,-84,-81,-78,-74,-71,-68,-65,-62,-58,-54,-52,-52,-55,-60,-65,-69,-73,-78,-84,-89,-92,-93,-92,-90,-88,-87,-86,-85,-84,-83,-82,-80,-79,-78,-76,-74,-72,-71,-69,-68,-67,-65,-62,-60,-57,-53,-48,-44,-43,-44,-48,-53,-61,-76,-91,-95,-99,-98,-88,-76,-64,-53,-41,-32,-29,-28,-27,-26,-24,-24,-23,-23,-23,-23,-24,-24,-25,-26,-27,-28,-29,-29,-30,-31,-32,-33,-35,-38,-40,-43,-47,-51,-55,-59,-64,-70,-76,-79,-77,-72,-65,-51,-35,-27,-21,-22,-36,-50,-64,-64,-53,-23,50,152,268,377,439,442,393,271,115,-35,-153,-214,-235,-229,-211,-175,-133,-89,-69,-60,-56,-52,-47,-41,-34,-29,-25,-21,-19,-16,-15,-13,-11,-8,-7,-5,-4,-1,1,5,11,17,21,26,30,33,34,31,27,22,16,8,4,6,10,25,57,73,79,82,84,85,87,89,92,94,96,98,101,105,115,130,136,140,142,143,142,139,136,133,129,125,120,113,105,97,90,82,76,69,63,56,50,43,37,32,26,18,6,-6,-12,-15,-19,-21,-24,-26,-27,-28,-28,-28,-27,-26,-25,-24,-23,-22,-20,-19,-18,-17,-15,-14,-12,-12,-11,-12,-16,-20,-25,-30,-34,-37,-41,-44,-47,-50,-52,-53,-54,-54,-54,-53,-52,-51,-49,-48,-46,-45,-43,-41,-36,-32,-32,-37,-43,-48,-52,-56,-59,-61,-59,-56,-53,-50,-47,-45,-43,-41,-39,-37,-36,-35,-35,-36,-36,-38,-39,-41,-44,-47,-52,-56,-57,-53,-47,-42,-36,-32,-31,-33,-36,-37,-38,-40,-41,-41,-42,-42,-42,-41,-37,-32,-27,-21,-16,-10,-3,4,10,13,11,7,1,-4,-8,-12,-17,-21,-26,-29,-30,-31,-32,-33,-34,-34,-34,-34,-33,-33,-34,-35,-36,-38,-40,-42,-44,-46,-49,-51,-55,-61,-66,-67,-63,-54,-28,25,103,201,305,394,434,430,371,246,91,-47,-138,-164,-172,-175,-177,-179,-181,-187,-181,-138,-86,-35,-14,-10,-7,-6,-6,-7,-6,-5,-5,-4,-2,0,2,3,5,6,9,11,13,15,17,19,20,21,22,24,26,29,32,35,37,39,41,43,45,46,46,47,48,52,62,81,90,96,101,105,109,113,117,120,123,126,129,132,135,138,140,143,146,149,151,152,153,152,151,148,145,141,131,111,91,71,51,31,17,8,2,-3,-7,-10,-13,-16,-18,-19,-19,-18,-15,-10,-6,0,9,9,-2,-8,-11,-15,-18,-20,-23,-24,-26,-27,-28,-29,-31,-33,-35,-40,-43,-39,-30,-25,-19,-14,-11,-11,-13,-17,-21,-30,-45,-55,-62,-65,-61,-52,-46,-42,-37,-34,-33,-33,-34,-37,-40,-44,-48,-54,-60,-59,-52,-41,-32,-21,-14,-12,-11,-8,-5,-6,-16,-30,-49,-59,-66,-71,-71,-66,-60,-52,-40,-32,-26,-21,-17,-16,-17,-20,-23,-27,-32,-30,-20,-13,-8,-4,-1,3,7,12,17,23,29,31,28,22,13,-2,-24,-44,-58,-64,-69,-71,-65,-51,-40,-30,-22,-18,-16,-14,-12,-9,-7,-5,-7,-11,-17,-28,-44,-55,-64,-63,-48,-8,57,140,232,317,374,394,372,307,191,63,-51,-134,-171,-183,-170,-155,-144,-137,-132,-126,-118,-110,-88,-52,-10,32,59,69,69,60,48,31,15,5,1,-1,-3,-5,-4,0,7,11,14,17,20,22,26,29,31,33,36,40,49,67,84,103,119,130,141,151,162,177,187,196,201,200,194,187,181,175,169,165,164,164,163,162,159,159,161,163,165,167,168,168,167,165,162,159,156,150,143,136,126,97,62,41,24,10,-6,-13,-17,-19,-21,-23,-24,-24,-25,-26,-27,-28,-29,-30,-31,-31,-32,-32,-33,-34,-35,-36,-36,-37,-38,-40,-42,-47,-53,-56,-54,-46,-39,-33,-28,-23,-18,-16,-15,-17,-19,-22,-24,-25,-25,-25,-26,-27,-29,-30,-32,-34,-36,-38,-40,-41,-42,-42,-43,-44,-45,-46,-48,-50,-53,-55,-57,-59,-62,-63,-64,-64,-63,-61,-59,-56,-53,-50,-46,-42,-39,-36,-33,-30,-28,-25,-23,-20,-18,-15,-10,-6,-3,-7,-14,-22,-28,-33,-38,-43,-47,-51,-55,-58,-61,-63,-65,-67,-68,-69,-71,-73,-75,-77,-79,-81,-83,-84,-85,-86,-87,-89,-90,-93,-99,-103,-98,-84,-42,15,93,188,285,356,380,362,306,190,57,-69,-166,-208,-221,-227,-227,-221,-209,-172,-129,-83,-52,-36,-30,-25,-20,-16,-14,-11,-9,-7,-5,-3,-2,-2,-2,-3,-2,-1,0,0,2,4,7,11,15,20,24,29,33,37,41,45,49,52,56,60,64,68,72,74,77,80,83,87,91,94,98,101,105,109,114,119,123,127,131,137,141,145,146,145,142,138,133,128,121,109,97,87,76,65,55,47,42,37,34,30,26,21,15,8,-1,-13,-25,-35,-41,-45,-49,-52,-54,-56,-57,-56,-55,-53,-50,-47,-43,-39,-36,-32,-29,-25,-21,-17,-15,-15,-16,-18,-22,-26,-31,-34,-38,-42,-46,-49,-51,-52,-52,-52,-51,-50,-48,-46,-44,-42,-39,-36,-35,-36,-39,-43,-47,-51,-56,-60,-64,-64,-63,-61,-58,-56,-53,-51,-49,-46,-42,-39,-37,-35,-34,-34,-35,-35,-34,-33,-31,-29,-27,-26,-25,-25,-25,-24,-24,-23,-23,-22,-20,-17,-15,-13,-14,-18,-23,-27,-29,-32,-34,-36,-38,-40,-41,-42,-43,-44,-45,-46,-47,-48,-48,-49,-49,-50,-52,-54,-56,-58,-60,-64,-74,-79,-82,-89,-87,-61,-16,47,133,237,343,426,444,430,344,215,66,-69,-177,-251,-276,-273,-233,-178,-130,-93,-73,-56,-44,-33,-27,-23,-20,-17,-15,-13,-11,-9,-7,-5,-3,-2,0,0,1,2,3,6,8,10,13,15,17,18,19,20,22,24,26,28,31,35,40,44,49,53,58,63,70,81,92,104,110,115,120,124,127,130,132,133,134,134,135,136,136,136,136,137,138,139,137,131,123,113,99,92,87,84,81,78,74,70,65,58,48,37,23,6,-6,-16,-24,-30,-35,-39,-40,-39,-35,-30,-26,-21,-17,-15,-16,-20,-24,-28,-32,-37,-40,-41,-39,-36,-33,-29,-23,-24,-31,-35,-37,-39,-42,-44,-47,-49,-51,-54,-56,-59,-63,-65,-64,-61,-57,-52,-42,-31,-27,-23,-24,-31,-37,-42,-46,-48,-50,-51,-54,-58,-57,-49,-42,-38,-34,-31,-28,-26,-24,-20,-15,-12,-13,-17,-23,-26,-28,-31,-33,-35,-37,-38,-38,-38,-38,-36,-34,-31,-28,-25,-20,-12,-5,2,11,20,24,28,32,21,6,-6,-15,-20,-23,-25,-27,-30,-33,-37,-41,-44,-48,-51,-57,-62,-66,-66,-63,-57,-49,-35,-17,-8,-2,-2,-11,-20,-29,-28,-11,32,115,227,351,451,494,457,340,176,0,-150,-250,-288,-291,-264,-205,-134,-65,-11,7,6,-19,-50,-62,-62,-54,-42,-24,-14,-9,-5,-2,0,3,5,7,9,11,12,13,14,15,15,16,17,19,20,21,22,23,24,25,27,29,34,48,61,71,81,87,91,94,96,99,102,104,106,108,112,117,125,132,137,140,144,146,146,145,142,139,136,133,130,127,122,118,114,110,106,100,93,86,76,61,38,22,14,5,-5,-15,-21,-26,-30,-34,-37,-40,-41,-41,-40,-39,-39,-38,-38,-37,-35,-33,-31,-29,-28,-28,-29,-31,-33,-35,-37,-40,-43,-45,-47,-49,-51,-52,-52,-52,-51,-50,-48,-47,-47,-46,-44,-43,-41,-37,-28,-29,-42,-50,-56,-61,-65,-67,-66,-62,-57,-52,-47,-38,-34,-38,-46,-52,-59,-64,-65,-60,-53,-48,-42,-38,-36,-40,-46,-53,-59,-67,-73,-73,-68,-61,-54,-47,-41,-37,-34,-32,-29,-27,-25,-23,-21,-20,-19,-18,-18,-18,-18,-18,-19,-18,-17,-16,-15,-15,-14,-14,-16,-20,-25,-35,-53,-74,-86,-89,-92,-93,-91,-85,-77,-62,-44,-28,-18,-10,-10,-21,-33,-46,-60,-77,-93,-104,-111,-103,-78,-24,53,156,272,381,452,458,419,298,138,-15,-124,-167,-181,-190,-194,-198,-206,-202,-160,-101,-59,-43,-42,-50,-57,-65,-69,-64,-53,-36,-13,0,5,9,11,12,13,14,15,15,14,14,14,14,14,14,14,15,15,16,18,19,21,23,26,29,32,37,43,49,54,59,63,68,73,78,84,89,94,100,105,112,118,125,131,137,143,149,156,160,161,158,152,145,133,111,98,91,85,77,70,62,51,36,18,8,1,-3,-8,-12,-16,-21,-25,-29,-33,-37,-41,-45,-48,-50,-52,-53,-53,-52,-50,-48,-47,-45,-43,-41,-39,-37,-35,-33,-32,-31,-29,-27,-25,-24,-23,-22,-22,-22,-23,-24,-25,-27,-29,-31,-32,-33,-34,-35,-36,-37,-38,-40,-43,-48,-52,-54,-54,-52,-50,-48,-46,-44,-42,-39,-37,-35,-35,-36,-37,-39,-41,-44,-50,-50,-35,-24,-13,-6,-3,-1,0,4,3,-9,-17,-22,-27,-31,-33,-32,-29,-24,-18,-13,-8,-4,0,2,6,9,10,10,9,6,3,0,-3,-5,-7,-9,-12,-14,-17,-20,-23,-26,-29,-32,-34,-35,-36,-36,-36,-35,-35,-35,-34,-33,-32,-32,-32,-31,-29,-26,-24,-22,-20,-18,-16,-13,-11
