-913,-1097,-1286,-1469,-1630,-1720,-1754,-1773,-1797,-1828,-1859,-1882,-1897,-1906,-1888,-1835,-1786,-1755,-1698,-1623,-1552,-1517,-1509,-1504,-1496,-1488,-1478,-1465,-1438,-1416,-1409,-1411,-1425,-1433,-1409,-1381,-1357,-1353,-1360,-1373,-1372,-1336,-1284,-1257,-1236,-1212,-1166,-1097,-1024,-964,-933,-924,-918,-919,-924,-933,-945,-957,-945,-910,-862,-813,-784,-729,-674,-627,-594,-562,-539,-523,-508,-493,-475,-463,-455,-448,-440,-430,-417,-392,-358,-339,-329,-322,-315,-308,-301,-291,-278,-272,-269,-266,-261,-259,-259,-264,-272,-286,-305,-315,-321,-324,-325,-324,-321,-316,-310,-311,-323,-336,-348,-365,-381,-395,-402,-397,-384,-363,-336,-320,-310,-305,-305,-311,-320,-335,-363,-417,-471,-523,-572,-621,-647,-663,-671,-680,-692,-704,-717,-734,-734,-718,-703,-688,-687,-693,-700,-707,-688,-628,-586,-573,-564,-558,-554,-532,-479,-425,-399,-385,-376,-366,-352,-307,-250,-223,-205,-194,-204,-219,-229,-204,-179,-162,-152,-147,-143,-136,-118,-95,-81,-107,-126,-139,-149,-156,-159,-157,-152,-144,-135,-126,-113,-101,-91,-80,-67,-45,-29,-19,-10,0,5,16,54,108,167,226,285,353,432,521,617,713,809,898,976,1051,1120,1178,1211,1244,1272,1288,1296,1305,1314,1328,1374,1432,1502,1589,1682,1765,1845,1928,2003,2068,2099,2109,2113,2105,2085,2054,2017,2003,1997,1993,1989,1984,1980,1975,1972,1970,1966,1960,1952,1932,1915,1911,1908,1914,1918,1920,1922,1923,1922,1919,1915,1908,1884,1847,1836,1829,1821,1816,1811,1789,1738,1709,1694,1688,1685,1682,1679,1674,1670,1665,1659,1652,1642,1623,1605,1582,1550,1519,1499,1492,1488,1484,1478,1465,1445,1417,1391,1362,1308,1242,1178,1120,1054,977,903,831,752,680,622,566,489,383,272,181,112,61,33,-12,-64,-109,-126,-127,-118,-111,-105,-99,-94,-86,-61,-18,27,57,88,122,185,261,336,395,424,465,511,571,632,687,734,759,799,851,932,1020,1095,1158,1218,1270,1322,1379,1426,1454,1475,1491,1503,1533,1592,1688,1783,1869,1946,2029,2140,2279,2423,2538,2604,2626,2614,2599,2585,2571,2537,2419,2239,2012,1752,1459,1122,739,323,-119,-585,-1046,-1488,-1922,-2366,-2851,-3373,-3914,-4469,-5024,-5546,-5999,-6361,-6641,-6863,-6999,-7012,-6939,-6768,-6557,-6324,-6096,-5889,-5686,-5468,-5240,-5014,-4802,-4623,-4473,-4307,-4104,-3887,-3673,-3475,-3310,-3181,-3080,-3014,-2990,-2978,-2952,-2874,-2694,-2364,-1908,-1365,-763,-133,498,1097,1623,2025,2244,2281,2270,2182,2068,1954,1850,1763,1695,1642,1617,1583,1539,1456,1347,1252,1179,1108,1025,934,845,765,693,633,584,530,458,366,264,157,37,-97,-240,-386,-534,-674,-796,-894,-975,-1041,-1074,-1091,-1100,-1108,-1112,-1111,-1106,-1098,-1091,-1085,-1078,-1070,-1062,-1055,-1046,-1035,-1020,-1020,-1031,-1042,-1053,-1051,-1031,-1014,-1002,-991,-981,-972,-963,-953,-942,-931,-920,-910,-899,-878,-842,-811,-788,-771,-750,-732,-725,-719,-715,-713,-713,-716,-721,-725,-731,-738,-720,-705,-698,-691,-683,-673,-663,-653,-642,-630,-619,-609,-601,-594,-586,-573,-556,-541,-531,-514,-489,-469,-456,-444,-434,-426,-419,-411,-401,-388,-365,-334,-287,-238,-186,-134,-103,-72,-40,-9,22,49,69,85,96,104,111,115,118,120,121,122,123,123,124,123,120,114,106,98,90,82,75,69,62,57,53,49,45,40,33,24,13,-2,-16,-30,-39,-40,-34,-23,-7,21,74,133,189,226,239,239,224,201,172,121,57,-10,-72,-104,-123,-135,-144,-152,-160,-169,-180,-179,-162,-144,-124,-108,-88,-58,-36,-25,-17,-12,-8,-6,-3,-1,0,2,6,11,19,29,49,84,122,161,203,240,268,287,293,297,301,299,290,285,281,278,275,273,272,270,268,264,259,277,298,316,330,336,340,343,347,350,354,356,357,359,360,361,363,366,373,370,347,315,280,252,226,203,177,153,134,121,112,107,101,92,81,61,39,32,28,25,22,21,23,27,34,42,51,63,71,70,67,63,58,76,89,97,104,108,109,108,103,96,87,77,64,41,31,26,23,20,18,16,16,17,23,31,46,75,96,106,113,118,123,126,129,132,134,136,139,142,145,149,152,156,160,163,166,170,173,177,181,187,192,198,203,209,216,227,247,268,290,309,315,318,321,325,328,328,327,324,321,316,311,331,346,354,361,366,369,369,368,366,363,359,354,344,344,358,380,411,443,475,530,592,661,727,786,831,846,836,806,734,648,563,499,466,438,413,376,327,309,301,294,287,289,306,333,355,365,372,356,337,320,307,297,288,285,294,312,326,341,351,353,354,354,354,355,355,355,355,355,355,356,357,359,362,365,369,373,377,382,387,393,400,408,415,420,425,429,433,438,444,452,459,464,470,474,478,482,486,487,486,482,476,468,458,440,424,404,379,353,325,296,265,234,202,183,173,165,158,152,146,140,132,128,133,143,150,156,163,168,173,179,187,198,197,180,170,164,158,153,147,141,136,130,124,115,103,92,82,74,66,60,59,65,74,80,86,91,96,100,104,108,112,116,119,122,126,130,136,140,142,141,136,128,120,112,99,91,94,98,101,104,107,110,111,111,109,107,104,101,96,93,98,109,118,127,134,134,128,119,111,100,88,73,63,56,50,44,40,37,34,33,31,29,26,22,19,20,31,47,73,109,139,172,208,242,267,285,294,301,307,305,290,268,236,198,164,132,98,62,38,31,28,26,25,24,23,21,20,18,17,16,15,15,15,14,14,15,15,15,12,9,10,19,31,47,66,70,71,71,72,73,73,73,73,74,75,76,77,78,79,80,81,84,86,89,93,100,109,118,128,139,151,166,178,188,196,203,209,211,207,197,186,176,165,154,146,140,133,124,113,101,87,71,53,42,27,3,-13,-23,-30,-33,-31,-26,-21,-18,-13,-9,-6,-7,-12,-19,-26,-30,-35,-40,-44,-48,-51,-53,-54,-55,-54,-52,-49,-46,-42,-39,-35,-31,-27,-22,-18,-14,-11,-8,-3,2,9,15,17,12,4,-3,-8,-12,-17,-22,-27,-30,-33,-36,-38,-40,-43,-45,-47,-48,-49,-52,-55,-57,-57,-52,-46,-38,-32,-27,-23,-17,-11,-6,-3,-3,-5,-10,-16,-23,-31,-45,-70,-85,-103,-130,-143,-148,-153,-158,-162,-164,-166,-167,-168,-168,-168,-168,-167,-165,-163,-160,-156,-152,-146,-140,-127,-95,-59,-28,20,68,112,127,126,112,92,63,10,-50,-112,-172,-197,-204,-207,-210,-212,-214,-214,-214,-214,-215,-216,-218,-220,-220,-221,-221,-223,-225,-226,-228,-229,-230,-233,-237,-242,-245,-239,-228,-216,-209,-203,-197,-191,-186,-181,-176,-173,-170,-167,-164,-160,-156,-152,-147,-142,-137,-129,-118,-101,-83,-59,-30,-9,4,14,22,27,30,33,36,38,39,40,39,36,33,28,22,15,7,-2,-13,-22,-30,-38,-47,-59,-71,-84,-92,-100,-106,-111,-113,-111,-107,-100,-92,-81,-63,-47,-29,-12,5,22,40,60,85,113,134,150,168,183,195,207,218,227,235,242,249,256,264,275,293,316,338,356,366,372,376,379,383,388,393,401,412,431,463,516,568,605,629,643,653,658,659,654,647,637,624,604,587,570,553,534,514,495,477,453,424,393,368,359,356,355,353,352,350,348,345,342,339,336,332,328,322,314,294,259,214,171,116,55,-1,-54,-111,-143,-173,-201,-228,-255,-304,-351,-398,-446,-475,-500,-518,-523,-527,-531,-529,-509,-481,-448,-400,-343,-270,-189,-118,-95,-87,-111,-185,-271,-354,-423,-478,-524,-553,-585,-607,-616,-621,-624,-626,-628,-629,-629,-630,-630,-630,-631,-631,-632,-632,-632,-631,-627,-621,-616,-611,-607,-603,-598,-592,-586,-581,-575,-569,-563,-556,-548,-540,-531,-521,-508,-491,-478,-469,-463,-458,-455,-451,-446,-442,-438,-433,-426,-409,-381,-354,-324,-285,-258,-246,-239,-233,-230,-229,-231,-235,-240,-246,-251,-257,-264,-270,-276,-283,-291,-302,-317,-328,-336,-342,-346,-350,-353,-353,-348,-340,-332,-328,-325,-322,-319,-316,-313,-310,-307,-305,-302,-299,-297,-296,-295,-293,-291,-289,-286,-283,-278,-273,-267,-262,-256,-250,-243,-234,-222,-210,-199,-181,-157,-147,-144,-141,-138,-136,-134,-132,-130,-127,-124,-122,-119,-117,-115,-112,-110,-107,-104,-102,-101,-98,-94,-89,-84,-79,-74,-71,-66,-62,-57,-53,-49,-46,-41,-34,-27,-21,-17,-17,-18,-18,-17,-17,-17,-18,-19,-21,-22,-21,-17,-10,-3,2,11,20,26,32,37,42,45,44,36,26,22,18,14,10,6,3,0,-4,-7,-8,-8,-7,-6,-5,-3,0,2,7,13,20,33,62,109,153,209,273,338,392,413,414,399,377,348,300,247,183,123,77,59,45,39,35,31,28,26,24,22,20,18,15,11,7,3,0,-2,-7,-12,-17,-20,-20,-15,-8,0,9,18,32,44,50,56,61,67,70,70,62,51,45,37,29,23,21,23,29,37,44,51,59,68,77,84,91,98,107,118,130,143,154,162,169,174,178,181,185,189,193,194,191,182,170,154,130,108,84,61,44,27,11,-11,-22,-28,-33,-37,-40,-44,-47,-50,-52,-55,-56,-58,-58,-59,-59,-58,-57,-57,-57,-58,-59,-61,-64,-65,-67,-68,-69,-69,-67,-65,-61,-58,-54,-51,-47,-44,-41,-38,-37,-37,-36,-34,-33,-31,-29,-27,-25,-22,-20,-18,-16,-15,-15,-16,-16,-18,-19,-21,-22,-23,-24,-25,-25,-25,-25,-25,-25,-27,-29,-31,-28,-21,-14,-9,-5,-1,2,6,11,16,20,23,25,27,30,34,39,43,44,41,36,30,26,23,20,16,13,9,5,3,1,0,-1,-2,-2,-1,0,1,3,4,6,8,11,16,22,37,52,72,96,135,181,229,278,327,346,356,363,347,322,293,241,183,129,74,50,38,28,23,28,37,44,52,58,61,58,50,42,36,29,21,15,14,16,20,25,30,35,40,42,42,42,41,40,37,35,35,42,52,60,69,76,76,70,63,56,47,42,47,57,69,85,98,117,141,154,160,166,170,174,179,183,188,194,199,205,213,221,225,225,222,216,207,191,161,132,112,96,82,70,57,42,28,16,5,-3,-11,-21,-34,-44,-48,-51,-54,-56,-57,-57,-57,-57,-57,-57,-55,-53,-51,-49,-48,-46,-43,-38,-32,-28,-31,-39,-47,-52,-55,-59,-62,-67,-71,-76,-80,-83,-87,-90,-94,-97,-101,-107,-120,-127,-118,-101,-87,-74,-65,-62,-61,-60,-59,-56,-53,-53,-60,-68,-72,-76,-80,-84,-88,-91,-94,-98,-101,-103,-105,-108,-111,-115,-124,-129,-122,-106,-87,-64,-46,-33,-22,-15,-16,-25,-39,-56,-79,-95,-105,-112,-118,-123,-130,-137,-143,-148,-153,-156,-160,-163,-164,-165,-163,-161,-156,-149,-141,-125,-96,-52,-2,58,122,182,230,252,264,274,275,259,215,128,24,-70,-131,-154,-155,-145,-139,-136,-134,-133,-131,-128,-126,-123,-120,-116,-112,-107,-104,-100,-95,-89,-82,-75,-68,-61,-56,-52,-48,-45,-42,-38,-35,-32,-29,-25,-21,-17,-12,-6,1,8,17,25,33,41,49,56,62,68,74,81,90,99,111,124,141,162,184,195,203,209,214,218,220,220,219,216,212,207,200,185,158,134,108,78,49,33,25,19,14,12,11,12,12,11,11,10,9,8,7,5,3,1,-3,-8,-13,-16,-20,-23,-27,-29,-31,-32,-33,-34,-35,-34,-31,-28,-24,-20,-16,-11,-4,5,13,21,28,32,36,40,44,47,47,45,41,36,32,28,25,19,12,7,4,6,11,17,23,29,39,47,49,45,41,38,36,33,31,31,32,34,35,37,38,39,41,43,46,48,49,51,52,52,52,50,47,44,41,37,34,31,28,24,20,16,11,7,2,0,-4,-9,-13,-17,-20,-23,-27,-30,-32,-33,-33,-31,-27,-22,-16,-8,8,38,80,140,204,265,285,294,300,283,232,179,121,61,2,-49,-79,-104,-123,-135,-139,-141,-142,-144,-146,-148,-149,-151,-152,-153,-153,-153,-153,-152,-149,-146,-143,-139,-136,-132,-129,-127,-125,-123,-122,-121,-120,-118,-115,-112,-109,-105,-102,-99,-96,-93,-91,-89,-86,-83,-79,-74,-65,-54,-46,-39,-31,-21,-9,2,15,26,36,43,49,54,58,61,64,67,69,69,68,64,58,51,43,32,15,0,-15,-30,-45,-58,-70,-84,-100,-115,-126,-135,-143,-151,-158,-163,-167,-171,-174,-175,-173,-169,-163,-156,-150,-146,-143,-139,-135,-131,-128,-124,-119,-114,-109,-105,-103,-100,-98,-96,-93,-91,-87,-83,-78,-74,-71,-70,-71,-73,-76,-79,-82,-89,-93,-87,-75,-64,-53,-45,-40,-36,-32,-27,-22,-22,-26,-31,-33,-36,-38,-40,-42,-44,-46,-47,-46,-44,-40,-37,-33,-30,-27,-22,-15,-8,-1,6,13,21,28,35,39,42,44,50,58,57,41,28,17,5,-6,-18,-24,-29,-34,-39,-43,-46,-47,-48,-49,-49,-48,-48,-46,-42,-38,-33,-28,-20,-4,13,37,70,130,194,255,310,334,350,360,348,316,261,196,127,66,20,-6,-18,-23,-27,-30,-33,-36,-38,-40,-42,-42,-42,-41,-40,-38,-35,-32,-29,-27,-26,-25,-25,-24,-23,-21,-19,-16,-13,-10,-7,-2,1,4,6,7,9,10,12,15,17,20,23,27,31,36,41,45,50,60,83,106,128,151,168,174,177,180,184,186,187,188,188,188,187,186,184,181,176,171,163,139,113,94,76,61,49,36,25,6,-19,-38,-48,-55,-58,-61,-64,-69,-71,-68,-63,-60,-59,-58,-57,-57,-56,-56,-55,-54,-55,-55,-56,-56,-56,-56,-55,-55,-54,-54,-52,-50,-49,-47,-46,-44,-42,-39,-36,-33,-30,-28,-25,-23,-22,-21,-21,-21,-22,-22,-22,-22,-23,-24,-26,-29,-35,-32,-15,-6,-2,1,5,9,12,15,16,17,17,16,15,12,9,5,0,-4,-8,-14,-27,-35,-30,-19,-7,7,22,32,40,45,47,43,34,26,20,16,11,7,4,0,-3,-8,-12,-17,-21,-24,-27,-31,-35,-40,-44,-47,-48,-46,-43,-39,-34,-29,-23,-16,-7,0,5,14,46,99,176,270,366,450,499,502,468,372,246,122,27,-13,-20,-26,-31,-35,-39,-43,-46,-48,-50,-51,-51,-51,-49,-46,-44,-41,-39,-36,-34,-31,-26,-21,-12,6,15,19,22,24,28,31,35,41,47,52,57,63,69,73,74,72,70,67,64,60,55,50,51,58,70,84,103,119,135,152,171,189,205,212,215,217,219,220,222,222,221,216,209,201,191,177,164,153,139,123,106,88,71,54,43,35,28,18,8,-1,-10,-19,-27,-33,-36,-38,-40,-41,-42,-44,-45,-46,-46,-46,-46,-46,-45,-44,-43,-41,-40,-38,-37,-37,-36,-36,-37,-37,-39,-39,-40,-41,-42,-43,-45,-47,-49,-57,-72,-51,13,146,326,547,732,869,926,924,862,761,660,605,544,379,134,-91,-210,-223,-172,-111,-91,-110,-136,-154,-135,-123,-118,-113,-108,-105,-102,-100,-100,-100,-99,-98,-97,-96,-96,-96,-95,-94,-93,-91,-89,-87,-85,-84,-82,-78,-65,-50,-39,-30,-24,-25,-33,-42,-49,-55,-61,-68,-74,-79,-83,-87,-91,-96,-102,-107,-109,-106,-99,-91,-82,-75,-68,-60,-51,-43,-38,-32,-23,14,71,138,208,271,328,347,359,356,316,258,188,116,52,1,-24,-31,-34,-38,-43,-47,-52,-57,-65,-78,-83,-87,-92,-82,-66,-47,-31,-20,-13,-8,-3,-1,-1,-1,-1,-1,-2,-3,-3,-3,-4,-4,-5,-5,-3,-1,1,4,9,13,22,43,67,86,98,106,114,125,133,139,145,151,156,161,166,172,182,187,190,192,194,196,196,193,186,178,172,164,157,150,145,139,128,109,90,69,46,20,-8,-35,-47,-53,-58,-62,-64,-64,-65,-65,-65,-66,-67,-68,-68,-69,-70,-72,-75,-81,-87,-97,-110,-116,-120,-123,-125,-125,-119,-110,-94,-73,-61,-53,-49,-53,-62,-68,-74,-79,-83,-84,-82,-78,-76,-74,-72,-69,-67,-65,-62,-59,-56,-54,-52,-51,-49,-48,-48,-47,-47,-46,-45,-43,-41,-40,-39,-39,-39,-40,-40,-41,-42,-43,-43,-44,-43,-43,-42,-42,-41,-41,-41,-40,-40,-40,-40,-40,-39,-38,-35,-32,-32,-37,-44,-51,-57,-63,-69,-76,-81,-85,-88,-92,-95,-97,-99,-100,-100,-100,-100,-99,-98,-95,-93,-89,-85,-77,-58,-37,-15,24,73,138,214,290,342,359,337,272,161,49,-31,-70,-82,-88,-92,-94,-96,-100,-103,-105,-106,-105,-103,-100,-98,-97,-96,-95,-93,-90,-85,-81,-77,-73,-69,-64,-60,-56,-53,-50,-45,-38,-26,-11,-2,4,9,12,12,12,11,10,8,6,5,10,21,39,61,78,90,100,110,119,127,135,144,155,166,181,200,221,236,242,247,249,249,243,233,216,194,180,168,157,142,123,104,84,64,41,24,15,7,-2,-10,-14,-16,-19,-21,-24,-27,-30,-34,-36,-39,-41,-44,-47,-50,-52,-54,-57,-61,-65,-68,-69,-68,-65,-62,-59,-55,-51,-48,-43,-39,-35,-31,-27,-23,-21,-19,-19,-19,-20,-21,-21,-21,-21,-21,-21,-21,-20,-19,-18,-18,-18,-18,-18,-17,-16,-15,-12,-11,-18,-31,-39,-47,-54,-58,-58,-53,-45,-38,-33,-29,-24,-19,-13,-9,-6,-4,-4,-5,-6,-8,-11,-15,-20,-25,-29,-35,-42,-51,-59,-64,-70,-75,-79,-83,-88,-92,-96,-98,-100,-101,-102,-102,-101,-100,-99,-95,-92,-87,-83,-77,-65,-34,20,79,135,180,196,202,199,189,160,115,63,9,-42,-64,-70,-73,-76,-78,-80,-82,-84,-85,-87,-88,-89,-90,-89,-88,-87,-86,-84,-83,-82,-81,-81,-80,-79,-77,-74,-72,-69,-65,-61,-55,-49,-43,-36,-29,-24,-20,-16,-12,-9,-6,-3,0,2,6,9,11,13,15,19,23,31,48,65,87,113,131,146,164,178,188,195,195,188,178,165,149,134,122,112,101,89,76,63,51,40,27,12,-8,-26,-42,-50,-54,-55,-56,-56,-56,-56,-56,-57,-58,-59,-60,-61,-61,-61,-61,-60,-59,-56,-53,-51,-50,-49,-49,-48,-47,-46,-45,-44,-42,-38,-34,-30,-26,-22,-19,-16,-13,-11,-9,-7,-6,-5,-5,-4,-2,-2,-1,-1,-2,-4,-6,-8,-11,-14,-19,-23,-26,-26,-19,-10,-2,2,7,11,16,20,23,26,28,29,29,29,29,27,25,23,21,20,18,15,11,6,0,-6,-13,-20,-26,-31,-36,-40,-43,-45,-47,-50,-53,-55,-57,-58,-59,-60,-63,-66,-68,-68,-66,-60,-52,-42,-23,5,45,94,156,226,293,348,382,394,377,323,222,102,0,-69,-84,-85,-85,-85,-85,-85,-85,-85,-83,-80,-76,-73,-69,-65,-62,-60,-58,-57,-55,-54,-53,-50,-47,-44,-40,-38,-36,-34,-31,-29,-26,-23,-20,-14,-8,-1,4,10,14,19,23,29,35,40,46,53,60,67,76,86,97,106,115,133,157,168,173,177,180,182,183,184,185,184,183,181,179,175,170,163,150,123,100,83,65,46,29,14,2,-6,-17,-29,-35,-39,-43,-47,-50,-53,-55,-57,-59,-61,-63,-64,-64,-64,-64,-64,-64,-65,-65,-66,-67,-68,-70,-71,-71,-71,-70,-69,-67,-65,-62,-59,-56,-54,-51,-49,-48,-46,-45,-44,-42,-41,-39,-39,-39,-40,-41,-41,-41,-42,-42,-43,-43,-42,-41,-39,-37,-35,-34,-33,-31,-30,-29,-29,-29,-28,-26,-23,-19,-15,-11,-7,-3,0,4,8,12,15,18,22,32,42,47,43,35,24,9,-10,-17,-19,-21,-23,-25,-28,-31,-34,-36,-38,-39,-39,-38,-36,-34,-32,-29,-25,-21,-17,-12,-6,29,79,139,205,275,346,377,402,404,359,272,157,45,-18,-41,-49,-45,-38,-33,-29,-25,-23,-28,-37,-46,-53,-59,-65,-70,-73,-76,-78,-79,-80,-81,-82,-82,-77,-66,-55,-49,-45,-41,-38,-34,-31,-28,-26,-23,-20,-17,-15,-12,-11,-9,-8,-6,-4,-1,2,9,17,26,35,43,51,62,77,92,108,127,147,155,159,162,164,166,167,168,169,168,167,165,161,155,147,137,119,81,49,27,9,-5,-18,-27,-34,-39,-44,-48,-52,-56,-60,-63,-65,-68,-71,-74,-74,-73,-69,-63,-56,-51,-48,-44,-41,-38,-36,-34,-32,-31,-29,-28,-28,-27,-27,-26,-25,-25,-24,-24,-23,-22,-20,-19,-18,-17,-15,-9,-2,4,11,15,18,22,25,28,30,31,31,30,29,28,26,23,21,18,16,14,11,7,4,4,11,21,30,35,39,43,48,54,59,63,66,67,68,68,67,66,65,63,60,58,57,56,55,53,51,48,45,43,41,38,35,30,26,22,17,12,3,-4,-4,0,8,16,23,32,40,51,70,102,161,247,355,461,535,561,546,499,401,283,169,86,67,63,60,56,51,44,35,18,-9,-28,-40,-45,-38,-26,-15,-4,3,10,15,22,27,29,27,23,18,13,8,3,0,1,7,14,22,34,38,40,41,44,43,37,29,22,38,52,60,67,74,80,85,90,100,115,129,143,157,171,178,183,187,190,192,194,193,192,189,185,181,175,166,148,129,113,99,88,81,74,69,64,57,51,41,7,-29,-67,-92,-99,-104,-106,-104,-100,-93,-84,-71,-66,-60,-55,-67,-76,-82,-87,-90,-90,-88,-84,-78,-69,-57,-55,-54,-53,-52,-50,-49,-49,-48,-46,-44,-43,-41,-39,-36,-34,-34,-34,-35,-35,-37,-39,-44,-33,-26,-23,-21,-18,-16,-14,-13,-12,-10,-9,-8,-7,-6,-6,-5,-4,-2,0,1,2,5,9,13,17,21,25,29,32,35,38,41,43,46,50,57,66,68,68,69,69,64,56,50,45,39,32,25,20,15,11,7,3,0,-4,-6,-9,-13,-17,-21,-24,-25,-24,-21,-17,-12,5,50,105,162,222,284,339,374,386,373,335,265,189,123,73,32,2,-16,-34,-51,-59,-62,-65,-67,-69,-71,-73,-74,-75,-75,-75,-75,-74,-72,-70,-69,-67,-65,-62,-59,-54,-43,-39,-37,-36,-36,-35,-34,-32,-31,-30,-29,-27,-26,-24,-23,-21,-20,-17,-14,-9,-2,4,14,27,45,56,68,79,88,101,116,131,147,158,164,168,170,170,168,164,159,150,131,110,88,68,53,41,28,16,1,-17,-39,-51,-57,-62,-69,-77,-84,-92,-100,-106,-111,-114,-117,-120,-124,-128,-131,-131,-130,-129,-127,-127,-126,-125,-124,-123,-122,-122,-121,-120,-120,-119,-118,-117,-116,-115,-114,-112,-111,-109,-108,-107,-106,-106,-105,-104,-104,-104,-103,-103,-103,-102,-101,-101,-101,-101,-101,-101,-100,-99,-98,-97,-96,-94,-92,-90,-88,-86,-85,-83,-82,-80,-79,-77,-75,-73,-70,-68,-65,-63,-62,-61,-61,-60,-58,-57,-55,-53,-51,-44,-40,-43,-51,-57,-64,-71,-79,-87,-91,-94,-98,-102,-106,-108,-110,-110,-110,-110,-110,-109,-107,-104,-100,-96,-92,-82,-61,-23,28,95,172,250,318,361,364,339,254,134,14,-70,-90,-94,-98,-101,-103,-105,-106,-106,-106,-106,-105,-104,-101,-98,-95,-93,-91,-90,-89,-88,-87,-85,-83,-81,-78,-76,-74,-72,-69,-67,-65,-63,-61,-58,-55,-51,-43,-36,-31,-28,-25,-22,-18,-15,-11,-5,1,15,36,52,65,76,89,107,120,128,136,144,155,165,168,170,172,173,174,173,171,166,159,151,138,125,111,96,84,68,48,25,6,-3,-9,-13,-18,-22,-27,-31,-35,-40,-43,-44,-43,-40,-36,-31,-26,-16,-16,-22,-25,-28,-31,-33,-34,-31,-27,-21,-15,-9,-2,4,10,14,17,19,20,22,24,25,27,29,30,31,32,32,32,32,32,31,31,31,32,35,38,35,29,26,23,21,19,18,18,20,23,27,30,33,35,38,41,43,45,45,45,44,43,41,39,36,34,29,25,23,24,25,28,30,33,35,33,26,17,12,8,4,1,-2,-5,-7,-7,-8,-9,-9,-10,-10,-10,-10,-11,-11,-8,0,22,54,98,151,206,256,303,348,381,392,377,330,236,124,25,-44,-60,-66,-48,-34,-26,-20,-16,-14,-16,-20,-25,-31,-39,-52,-57,-60,-63,-65,-66,-63,-55,-46,-36,-24,-15,-9,-4,0,3,6,10,14,18,23,29,38,42,44,45,45,46,46,47,48,50,53,57,62,73,91,107,125,145,165,183,196,207,221,240,253,259,264,267,267,264,259,252,240,221,203,186,169,153,137,120,104,93,84,76,67,55,37,17,9,4,1,-1,-4,-5,-5,-5,-5,-4,-3,-2,-1,0,1,3,4,6,9,11,12,11,8,4,1,-1,-4,-3,2,10,17,26,32,35,37,38,39,41,42,44,45,47,49,50,51,52,53,53,54,54,55,56,57,59,60,60,59,58,57,55,53,51,49,47,45,43,41,38,34,31,30,31,35,40,46,52,60,68,75,82,85,89,92,95,97,99,99,99,98,96,94,91,87,84,80,75,69,64,60,56,48,38,34,32,29,27,25,24,22,20,18,16,14,11,8,3,-1,8,24,42,70,111,166,228,289,336,370,382,378,364,311,235,146,60,-8,-44,-56,-62,-67,-71,-88,-113,-142,-169,-180,-187,-195,-210,-230,-250,-266,-275,-282,-286,-290,-294,-295,-291,-283,-274,-263,-254,-244,-229,-211,-198,-194,-192,-190,-189,-189,-188,-187,-186,-185,-183,-182,-181,-179,-178,-175,-172,-167,-161,-155,-149,-143,-136,-129,-121,-109,-93,-77,-60,-39,-20,-8,-1,3,3,0,-4,-12,-26,-44,-63,-84,-103,-120,-139,-161,-175,-177,-179,-180,-182,-183,-184,-184,-184,-184,-185,-186,-187,-187,-187,-186,-186,-186,-187,-188,-189,-189,-190,-190,-191,-192,-194,-195,-196,-198,-202,-201,-195,-191,-187,-183,-179,-175,-171,-167,-163,-158,-152,-147,-141,-137,-131,-123,-119,-119,-120,-121,-122,-124,-125,-125,-124,-121,-119,-118,-116,-115,-112,-109,-106,-103,-101,-99,-96,-93,-90,-84,-72,-68,-65,-64,-62,-59,-57,-54,-51,-49,-47,-45,-42,-37,-27,-23,-22,-21,-21,-20,-18,-16,-14,-12,-10,-8,-7,-5,-4,-3,0,3,9,12,11,7,3,1,-1,-4,-6,-9,-10,-11,-11,-11,-10,-9,-7,-4,-5,-14,-23,-32,-32,-21,-6,12,46,90,144,205,267,328,387,440,474,476,449,371,262,141,34,-39,-66,-66,-40,3,16,21,25,17,10,5,2,0,3,8,14,19,25,29,32,33,30,25,21,16,11,6,2,2,5,10,18,31,56,75,87,97,104,113,124,136,147,156,163,170,174,176,178,180,182,184,186,189,191,193,196,200,205,217,239,249,254,258,261,263,264,264,262,260,255,250,241,227,213,196,172,145,119,93,67,49,38,25,10,6,3,1,-1,-3,-5,-7,-9,-10,-11,-13,-14,-14,-14,-13,-12,-12,-11,-10,-10,-9,-8,-7,-6,-6,-5,-4,-3,-2,0,0,0,1,1,2,1,1,0,0,0,0,0,0,0,0,0,0,0,0,-1,-2,-3,-3,-3,-2,-2,-1,-1,-1,0,0,2,2,3,4,6,8,11,13,14,15,15,16,16,14,12,9,5,3,2,0,-3,-6,-7,-7,-3,2,9,15,21,28,36,42,44,43,40,34,27,17,1,-16,-27,-34,-40,-45,-50,-55,-58,-61,-64,-67,-72,-76,-79,-79,-73,-64,-53,-33,-2,45,99,164,240,317,382,405,413,389,313,206,98,9,-54,-86,-96,-102,-106,-109,-110,-109,-108,-107,-106,-105,-104,-102,-99,-96,-93,-89,-86,-81,-71,-45,-30,-24,-20,-17,-13,-10,-6,-3,0,1,3,6,9,12,17,23,30,37,42,45,49,52,57,61,66,70,76,83,95,116,131,144,154,165,175,185,196,208,222,232,241,247,252,252,249,242,233,217,188,157,127,107,97,89,80,73,65,54,40,27,14,1,-14,-30,-44,-45,-45,-46,-46,-46,-46,-46,-46,-46,-46,-46,-46,-45,-43,-40,-39,-37,-36,-35,-34,-33,-32,-31,-31,-30,-30,-29,-28,-28,-27,-27,-27,-26,-25,-24,-23,-22,-21,-20,-18,-17,-15,-13,-12,-10,-8,-6,-3,0,2,3,3,3,2,2,1,0,0,-1,-2,-4,-5,-6,-7,-7,-8,-8,-7,-6,-3,-1,1,3,5,8,10,14,17,21,27,33,36,34,29,23,16,7,-3,-16,-25,-32,-38,-43,-48,-52,-55,-58,-61,-65,-70,-75,-77,-74,-66,-55,-36,-10,28,72,118,166,217,277,342,384,398,376,310,201,89,-2,-35,-42,-48,-52,-56,-59,-61,-62,-63,-62,-61,-59,-56,-51,-47,-44,-41,-39,-38,-36,-35,-33,-32,-30,-28,-26,-24,-22,-20,-18,-17,-15,-14,-13,-12,-11,-9,-7,-5,-2,1,5,9,13,16,19,23,27,34,46,60,72,82,93,105,115,122,129,136,143,151,163,178,185,189,193,195,194,188,177,159,132,105,80,63,50,37,21,0,-17,-31,-43,-55,-66,-78,-89,-98,-104,-107,-109,-110,-112,-114,-116,-116,-115,-112,-109,-106,-104,-102,-99,-96,-94,-91,-89,-88,-87,-85,-84,-82,-80,-76,-69,-65,-67,-72,-75,-78,-80,-82,-83,-83,-82,-78,-75,-71,-68,-65,-62,-60,-57,-55,-52,-50,-48,-45,-44,-43,-42,-41,-40,-38,-37,-35,-33,-31,-28,-25,-21,-18,-15,-11,-6,0,11,16,17,18,19,21,22,22,21,19,15,12,8,2,-4,-14,-26,-35,-44,-51,-55,-56,-57,-58,-59,-62,-63,-59,-50,-43,-37,-32,-26,-22,-17,-7,7,30,68,121,186,258,334,407,449,451,412,314,183,54,-43,-80,-92,-76,-53,-36,-33,-31,-29,-28,-32,-39,-44,-47,-50,-53,-53,-51,-47,-42,-38,-34,-29,-25,-20,-17,-14,-13,-12,-11,-9,-8,-7,-5,-4,-3,-1,0,1,3,4,7,10,15,21,33,48,58,65,71,77,83,88,93,102,115,127,136,144,152,160,165,170,175,178,178,175,171,165,158,146,136,124,106,88,75,65,53,36,18,0,-22,-46,-68,-82,-83,-85,-86,-86,-86,-83,-79,-76,-72,-70,-72,-76,-80,-86,-85,-75,-71,-68,-66,-64,-62,-61,-60,-60,-59,-59,-59,-59,-60,-62,-63,-64,-66,-67,-68,-71,-73,-74,-73,-69,-62,-56,-47,-34,-25,-20,-16,-12,-10,-9,-12,-16,-21,-26,-30,-33,-37,-41,-45,-46,-46,-44,-42,-39,-36,-33,-29,-25,-19,-15,-13,-11,-9,-7,-5,-3,-2,0,1,3,6,9,13,17,21,22,19,11,2,-5,-15,-24,-29,-32,-36,-39,-43,-47,-53,-60,-66,-73,-78,-78,-74,-66,-54,-35,-15,5,27,46,72,110,170,248,326,380,398,387,356,283,195,120,76,54,36,16,-20,-42,-48,-52,-55,-57,-60,-63,-66,-69,-72,-77,-85,-89,-85,-76,-63,-43,-25,-12,-1,2,6,9,12,14,15,15,14,13,12,9,6,2,-3,-14,-20,-26,-31,-19,1,24,44,59,69,79,89,96,101,104,107,112,119,127,137,149,158,164,175,189,198,204,204,195,187,180,172,165,153,134,112,91,69,47,24,-2,-27,-43,-47,-49,-50,-52,-53,-54,-54,-54,-53,-52,-52,-51,-50,-48,-47,-46,-49,-54,-60,-65,-72,-78,-80,-78,-72,-66,-64,-61,-59,-57,-56,-55,-54,-53,-52,-51,-49,-47,-46,-45,-44,-42,-41,-40,-39,-39,-39,-39,-38,-38,-38,-37,-37,-36,-35,-33,-31,-29,-28,-27,-25,-24,-23,-22,-21,-20,-19,-16,-9,-3,2,6,9,12,15,17,20,22,24,26,27,28,28,28,26,25,23,21,19,17,15,12,11,9,6,2,-1,-6,-10,-14,-18,-21,-23,-26,-28,-30,-32,-34,-38,-40,-40,-37,-31,-22,4,42,87,136,193,260,330,392,419,428,407,344,256,162,78,15,-12,-29,-42,-57,-70,-83,-82,-65,-54,-46,-39,-34,-32,-33,-35,-38,-40,-41,-43,-46,-49,-49,-45,-38,-30,-25,-21,-16,-12,-7,-3,0,4,6,8,10,13,17,23,37,46,53,57,62,68,76,84,94,106,118,127,142,167,187,198,207,216,223,228,232,235,237,239,241,241,241,239,235,231,225,219,208,187,174,158,137,117,93,73,62,52,43,36,34,32,30,29,27,26,26,25,25,24,23,22,21,21,21,22,22,22,22,22,23,23,24,24,24,24,24,24,23,23,22,22,21,20,20,20,20,21,21,20,20,20,21,21,21,21,20,20,20,19,19,19,17,16,15,14,13,12,11,9,6,3,0,-3,-11,-18,-18,-11,-1,4,11,18,24,27,28,27,26,24,22,21,19,18,16,14,11,9,5,1,-3,-10,-23,-48,-67,-79,-90,-101,-108,-113,-118,-121,-125,-129,-133,-138,-142,-147,-153,-163,-170,-170,-166,-159,-137,-98,-44,18,83,145,205,219,222,209,131,25,-83,-178,-242,-265,-266,-254,-235,-218,-213,-212,-212,-211,-211,-210,-210,-209,-207,-207,-206,-205,-205,-205,-205,-205,-204,-203,-202,-200,-199,-198,-197,-195,-193,-191,-188,-185,-183,-180,-178,-175,-171,-168,-165,-161,-158,-155,-152,-149,-146,-143,-139,-132,-121,-110,-101,-90,-78,-64,-49,-35,-28,-25,-23,-22,-21,-20,-19,-19,-18,-19,-21,-23,-27,-32,-38,-45,-58,-81,-102,-121,-129,-133,-137,-139,-141,-142,-142,-141,-140,-139,-137,-134,-131,-127,-124,-121,-118,-115,-112,-109,-107,-106,-105,-104,-102,-100,-98,-96,-94,-91,-87,-81,-73,-63,-55,-49,-43,-35,-29,-25,-25,-28,-32,-36,-39,-42,-47,-52,-55,-54,-50,-46,-42,-37,-32,-31,-34,-40,-46,-50,-53,-57,-62,-65,-69,-71,-73,-74,-76,-77,-77,-77,-76,-75,-75,-75,-76,-77,-78,-80,-83,-87,-94,-100,-107,-114,-124,-134,-141,-148,-153,-158,-162,-166,-170,-174,-178,-180,-181,-183,-186,-189,-191,-193,-192,-190,-185,-178,-168,-135,-96,-52,0,60,122,170,188,182,164,106,27,-54,-122,-147,-155,-132,-112,-100,-91,-84,-79,-75,-71,-65,-58,-51,-43,-35,-27,-19,-10,2,9,15,20,23,27,30,33,36,39,43,46,50,54,60,67,72,77,82,86,89,93,96,100,104,107,110,114,119,127,138,148,158,170,185,199,215,229,241,248,253,257,260,261,260,257,252,245,233,209,190,179,168,158,146,132,118,108,100,92,85,77,62,42,32,26,22,20,17,15,13,12,11,10,10,9,9,9,9,9,9,9,9,8,7,7,7,8,8,8,8,7,7,6,5,2,-2,-2,6,12,15,18,20,22,23,25,26,28,29,31,33,36,42,42,32,21,9,5,1,-1,-2,2,11,17,21,24,28,31,34,36,39,41,43,46,52,62,66,70,73,72,63,51,37,24,11,-2,-13,-17,-20,-22,-24,-26,-26,-27,-27,-27,-26,-25,-24,-21,-18,-13,-9,0,20,52,90,137,191,252,311,360,384,382,348,268,167,67,-11,-40,-50,-44,-39,-35,-33,-32,-32,-32,-32,-31,-31,-29,-28,-27,-27,-26,-24,-21,-17,-14,-11,-9,-7,-5,-2,0,3,5,7,8,9,9,9,10,10,10,10,10,11,12,13,15,18,21,26,35,51,66,81,96,114,132,144,153,161,170,178,184,188,192,193,191,186,180,172,160,147,135,125,117,111,101,86,73,63,52,38,19,0,-23,-41,-52,-59,-63,-66,-69,-71,-72,-72,-70,-67,-64,-63,-62,-61,-61,-60,-59,-59,-58,-58,-57,-57,-57,-57,-57,-57,-57,-56,-56,-55,-55,-55,-55,-53,-52,-50,-49,-48,-47,-45,-43,-41,-38,-36,-35,-33,-32,-30,-28,-26,-25,-23,-21,-18,-15,-11,-8,-5,-2,1,4,6,9,12,14,15,17,18,20,21,22,23,24,25,27,30,32,27,18,10,3,-2,-6,-11,-14,-17,-19,-22,-24,-26,-27,-28,-29,-29,-28,-28,-26,-24,-20,-16,-10,10,41,81,131,190,253,317,369,392,390,359,298,229,168,122,84,51,17,-1,-10,-16,-20,-23,-25,-25,-25,-24,-22,-21,-19,-18,-16,-15,-14,-13,-12,-11,-10,-9,-8,-8,-8,-8,-7,-6,-5,-3,-1,1,3,5,8,10,14,19,23,28,34,40,48,59,67,72,76,78,80,82,85,89,92,97,103,115,135,150,162,174,183,190,195,198,195,189,179,161,141,126,109,89,68,45,22,1,-18,-32,-43,-55,-62,-66,-69,-72,-74,-75,-76,-78,-79,-81,-82,-84,-85,-86,-86,-87,-88,-89,-90,-90,-91,-91,-91,-91,-91,-91,-91,-91,-90,-90,-88,-87,-85,-84,-82,-80,-76,-69,-62,-58,-55,-52,-49,-47,-45,-43,-41,-39,-39,-38,-38,-39,-40,-41,-41,-42,-42,-42,-42,-42,-41,-40,-39,-38,-37,-34,-31,-26,-18,-5,0,2,5,7,8,7,4,0,-4,-8,-12,-17,-22,-26,-31,-35,-38,-41,-44,-47,-49,-52,-53,-55,-58,-61,-66,-69,-69,-64,-55,-41,-22,5,37,78,129,188,254,323,385,420,420,386,294,182,83,18,-16,-35,-54,-68,-75,-81,-81,-76,-73,-71,-70,-69,-68,-66,-64,-62,-60,-58,-57,-56,-54,-53,-52,-50,-50,-51,-52,-54,-56,-57,-60,-62,-58,-51,-44,-38,-32,-26,-21,-17,-13,-10,-6,-3,0,2,5,10,17,29,39,52,70,91,112,128,138,148,156,163,168,173,176,176,174,170,165,155,137,117,95,70,46,24,6,-3,-10,-18,-26,-34,-40,-46,-51,-56,-62,-71,-77,-80,-82,-83,-84,-85,-85,-85,-84,-83,-82,-81,-79,-77,-75,-73,-72,-72,-71,-71,-70,-68,-67,-67,-66,-66,-66,-66,-66,-66,-66,-66,-67,-66,-65,-63,-59,-54,-49,-44,-40,-39,-39,-39,-39,-40,-41,-40,-38,-35,-32,-30,-28,-26,-23,-21,-20,-20,-20,-20,-21,-21,-21,-21,-21,-21,-17,-12,-7,-1,5,12,17,22,26,28,28,25,21,16,9,-1,-13,-19,-23,-26,-29,-32,-35,-37,-39,-41,-43,-45,-47,-50,-52,-52,-50,-47,-41,-24,1,35,76,124,179,243,311,376,427,451,447,403,312,196,83,5,-12,-6,17,30,21,-7,-50,-81,-91,-91,-80,-65,-47,-37,-30,-25,-20,-11,-1,1,2,4,5,6,6,6,6,6,6,7,8,8,8,8,9,10,11,13,16,19,26,42,54,63,75,91,106,112,114,116,118,120,122,125,127,130,135,155,181,207,221,229,234,237,237,234,228,219,203,183,162,141,121,101,81,60,40,27,18,11,4,-3,-12,-28,-35,-39,-41,-43,-45,-47,-48,-50,-51,-51,-52,-52,-53,-53,-52,-51,-50,-48,-47,-46,-46,-45,-44,-43,-42,-41,-39,-34,-34,-41,-46,-49,-52,-54,-54,-51,-46,-41,-39,-38,-36,-34,-33,-32,-30,-29,-29,-28,-28,-27,-26,-26,-26,-26,-26,-26,-25,-24,-23,-22,-20,-18,-16,-12,-1,9,16,21,25,28,30,32,34,35,36,37,39,40,41,42,43,43,44,46,47,48,47,43,38,33,29,26,22,18,15,13,12,10,10,9,8,7,7,6,5,4,5,8,14,22,36,57,89,135,199,280,368,449,511,525,515,451,344,224,118,42,2,-12,-19,-22,-24,-27,-28,-29,-29,-29,-29,-29,-29,-28,-26,-24,-21,-18,-16,-14,-12,-9,-6,-4,-2,-2,-3,-3,-4,-4,-5,-6,-8,-9,-7,-3,1,7,16,29,36,41,45,49,52,55,57,59,62,66,72,83,95,106,118,130,147,167,179,186,191,194,195,195,194,192,188,182,172,154,134,117,102,88,65,37,7,-8,-18,-23,-28,-36,-45,-53,-59,-65,-70,-76,-81,-86,-90,-94,-97,-100,-102,-103,-103,-102,-100,-97,-94,-92,-89,-88,-85,-83,-80,-78,-77,-76,-75,-74,-74,-74,-75,-76,-78,-80,-82,-85,-91,-90,-79,-73,-69,-65,-62,-60,-59,-58,-57,-58,-59,-60,-62,-64,-65,-66,-68,-71,-73,-75,-73,-69,-64,-59,-55,-51,-46,-42,-39,-39,-42,-46,-50,-54,-57,-61,-65,-69,-71,-72,-71,-68,-63,-58,-48,-28,-18,-12,-8,-4,-2,0,0,0,0,0,-2,-4,-9,-13,-18,-28,-51,-65,-74,-80,-84,-84,-80,-75,-70,-66,-59,-54,-55,-57,-59,-61,-62,-58,-49,-36,-17,1,20,54,95,151,224,307,382,421,418,368,261,135,25,-46,-78,-89,-95,-97,-95,-91,-86,-80,-73,-69,-71,-75,-80,-86,-85,-76,-71,-68,-67,-66,-65,-65,-63,-62,-60,-58,-57,-56,-55,-54,-53,-52,-51,-49,-42,-34,-25,-11,8,21,27,32,37,41,44,47,51,55,59,65,72,81,97,120,132,139,146,154,161,167,173,179,183,186,188,189,192,197,195,181,164,147,137,125,105,82,57,37,25,14,4,-10,-33,-42,-45,-47,-50,-52,-54,-56,-58,-59,-60,-61,-61,-62,-61,-61,-59,-57,-55,-52,-50,-49,-47,-45,-43,-41,-40,-40,-39,-37,-35,-33,-32,-30,-29,-27,-24,-22,-19,-18,-17,-16,-15,-12,-10,-8,-6,-1,4,9,12,15,16,17,18,19,20,21,21,21,20,21,21,22,23,22,22,21,21,22,24,25,26,27,28,30,31,33,35,37,39,41,45,50,53,55,53,49,44,38,25,0,-10,-15,-19,-23,-25,-27,-29,-31,-33,-34,-35,-35,-36,-36,-36,-37,-37,-39,-41,-43,-40,-30,-3,32,83,148,220,289,344,368,376,363,324,256,170,79,2,-23,-32,-33,-29,-24,-21,-32,-52,-69,-80,-87,-85,-71,-60,-52,-45,-40,-34,-30,-28,-26,-23,-21,-20,-19,-19,-18,-16,-14,-13,-11,-10,-9,-7,-5,-4,-2,0,2,6,12,18,24,29,34,39,46,52,59,65,71,78,86,94,102,111,123,137,148,157,165,171,177,182,189,189,179,164,145,128,110,93,73,50,28,9,-5,-18,-30,-42,-54,-64,-73,-77,-78,-79,-79,-79,-79,-80,-81,-81,-82,-83,-83,-84,-83,-83,-82,-82,-82,-83,-85,-88,-91,-89,-85,-83,-82,-81,-80,-79,-77,-75,-72,-69,-67,-65,-62,-59,-53,-42,-32,-27,-24,-22,-19,-18,-17,-19,-22,-26,-30,-34,-38,-43,-47,-50,-50,-49,-46,-43,-38,-33,-22,-7,2,9,14,17,19,21,22,24,26,28,30,29,25,20,16,13,10,7,5,3,1,0,0,-2,-4,-5,-6,-6,-7,-8,-8,-8,-7,-5,-3,0,5,11,33,70,113,161,214,268,316,349,360,352,326,267,192,117,50,12,4,-2,-7,-10,-13,-15,-17,-19,-20,-21,-22,-22,-22,-24,-26,-28,-28,-26,-22,-16,-5,5,7,8,10,11,12,12,9,6,2,-2,-8,-12,-9,-2,2,5,9,14,19,25,31,39,50,59,66,76,94,104,110,114,118,122,126,130,135,146,166,176,182,187,189,190,188,185,179,172,157,133,113,96,83,67,50,31,8,-15,-27,-31,-35,-37,-38,-40,-41,-43,-46,-48,-50,-51,-53,-55,-58,-60,-63,-67,-73,-80,-85,-90,-94,-98,-102,-106,-106,-101,-94,-88,-82,-75,-66,-56,-50,-43,-37,-32,-29,-28,-27,-27,-26,-26,-26,-26,-25,-25,-24,-24,-25,-26,-27,-29,-30,-32,-35,-37,-33,-22,-15,-8,-3,0,3,6,9,13,18,22,22,19,14,9,3,0,4,12,16,20,23,26,26,25,21,15,8,-4,-20,-21,-21,-22,-22,-22,-23,-23,-24,-24,-24,-23,-22,-21,-18,-15,-11,-5,10,31,53,93,140,199,269,338,386,402,387,343,255,151,57,-1,-25,-33,-38,-41,-44,-47,-49,-51,-53,-54,-56,-58,-60,-63,-66,-68,-69,-67,-62,-57,-52,-48,-44,-39,-36,-34,-32,-30,-28,-27,-26,-25,-24,-23,-22,-21,-19,-18,-18,-17,-16,-14,-12,-8,0,11,20,27,34,41,48,60,81,96,104,109,115,120,124,128,131,135,138,140,140,138,135,130,125,117,104,89,67,43,24,10,-1,-15,-34,-50,-63,-78,-85,-88,-91,-93,-95,-96,-98,-99,-99,-100,-101,-102,-103,-104,-105,-105,-106,-106,-106,-106,-107,-107,-108,-108,-109,-109,-110,-111,-112,-113,-111,-108,-103,-98,-94,-91,-89,-86,-82,-79,-76,-74,-72,-71,-69,-68,-67,-66,-65,-65,-65,-64,-64,-63,-62,-61,-59,-58,-56,-53,-51,-49,-46,-43,-40,-37,-33,-28,-23,-18,-14,-11,-8,-4,0,4,9,11,10,6,0,-7,-12,-17,-22,-27,-32,-36,-40,-43,-46,-50,-55,-63,-68,-68,-61,-53,-47,-41,-36,-31,-27,-24,-19,-1,38,102,187,284,378,451,474,469,416,319,195,71,-19,-41,-48,-35,-21,-9,-10,-22,-32,-40,-48,-53,-59,-64,-72,-76,-71,-59,-45,-28,-18,-11,-5,-2,-4,-10,-16,-23,-22,-8,0,8,14,18,18,15,10,4,-5,-17,-6,11,34,47,53,56,59,62,66,71,75,80,85,93,110,143,159,167,173,176,179,181,182,184,185,186,186,187,187,188,190,176,153,128,110,96,82,64,42,23,9,1,-7,-22,-33,-38,-42,-44,-46,-47,-48,-49,-50,-50,-51,-52,-53,-54,-55,-56,-56,-55,-54,-53,-52,-51,-51,-50,-49,-47,-46,-45,-44,-44,-43,-43,-41,-41,-40,-39,-38,-36,-34,-32,-31,-33,-36,-41,-47,-58,-71,-80,-78,-60,-47,-42,-40,-38,-37,-36,-35,-34,-32,-30,-29,-27,-25,-23,-20,-17,-14,-12,-9,-6,-2,1,5,10,14,19,23,28,31,31,29,25,20,15,9,0,-8,-13,-19,-25,-29,-32,-36,-40,-40,-32,-27,-24,-21,-19,-17,-15,-13,-11,-8,-4,0,19,59,112,175,246,324,401,463,488,485,444,366,264,152,47,-29,-48,-54,-51,-48,-47,-46,-45,-43,-41,-38,-37,-35,-33,-31,-30,-30,-31,-31,-33,-34,-36,-37,-41,-43,-40,-34,-29,-24,-19,-10,0,5,9,12,15,18,21,23,25,27,28,30,32,34,37,44,62,80,92,100,108,116,128,141,153,162,169,177,186,191,194,196,198,200,201,200,199,197,194,189,183,171,148,124,101,79,61,38,13,-16,-33,-42,-48,-52,-54,-54,-52,-49,-47,-46,-46,-45,-45,-44,-44,-44,-44,-44,-43,-43,-43,-44,-45,-46,-47,-47,-47,-47,-46,-46,-45,-45,-44,-43,-43,-42,-42,-42,-41,-40,-39,-38,-37,-36,-35,-35,-34,-33,-33,-32,-32,-31,-31,-30,-30,-29,-28,-27,-26,-25,-25,-23,-21,-19,-16,-14,-12,-10,-9,-8,-7,-6,-5,-3,0,4,8,9,6,3,0,-3,-5,-6,-5,-3,0,2,7,10,7,0,-11,-22,-25,-26,-27,-28,-29,-30,-31,-32,-32,-32,-32,-32,-31,-30,-28,-26,-22,-19,-16,0,28,67,122,192,271,349,415,449,461,443,387,290,182,87,21,-1,-7,-10,-14,-19,-24,-28,-31,-33,-36,-38,-41,-42,-43,-44,-45,-45,-45,-43,-40,-36,-32,-28,-25,-22,-20,-19,-18
