-620,-745,-867,-978,-1068,-1110,-1105,-1065,-1032,-1002,-973,-950,-933,-909,-890,-876,-863,-854,-847,-837,-826,-816,-806,-789,-765,-740,-716,-691,-662,-626,-594,-564,-533,-503,-471,-445,-426,-411,-404,-400,-397,-394,-392,-390,-387,-384,-381,-379,-377,-374,-370,-358,-331,-301,-269,-234,-202,-178,-160,-140,-124,-112,-102,-94,-86,-77,-68,-56,-41,-27,-13,-1,8,25,50,75,102,130,158,179,195,212,225,235,243,251,259,270,286,305,332,363,391,420,441,454,463,468,471,473,475,476,477,478,479,479,479,479,478,478,477,476,475,475,475,476,477,477,478,480,481,483,486,489,493,506,538,570,604,640,676,710,743,775,804,825,840,851,858,864,868,869,866,857,844,821,791,768,743,722,706,688,671,653,636,619,602,585,571,560,548,537,525,513,502,490,477,461,443,425,408,389,373,360,347,336,322,306,287,267,248,232,217,201,180,161,145,133,123,113,103,92,80,68,53,35,12,-20,-45,-59,-67,-68,-60,-43,4,73,156,244,322,363,376,359,309,225,123,15,-85,-171,-241,-301,-329,-341,-347,-353,-362,-374,-390,-420,-459,-484,-503,-521,-533,-543,-551,-554,-552,-545,-535,-517,-488,-460,-430,-397,-363,-336,-315,-296,-277,-258,-244,-230,-215,-201,-186,-171,-157,-139,-113,-86,-56,-30,-10,8,28,46,51,54,56,58,59,59,55,48,40,28,10,-5,-22,-38,-54,-73,-97,-122,-148,-177,-204,-229,-257,-285,-316,-350,-381,-413,-441,-462,-476,-486,-492,-497,-501,-500,-492,-478,-455,-425,-405,-389,-368,-351,-337,-328,-323,-320,-317,-316,-314,-313,-311,-308,-305,-300,-294,-286,-269,-240,-213,-182,-155,-134,-114,-102,-93,-86,-82,-81,-83,-88,-96,-105,-115,-130,-145,-159,-166,-170,-174,-177,-180,-181,-181,-181,-181,-181,-180,-180,-180,-180,-180,-181,-181,-182,-183,-183,-184,-185,-187,-189,-191,-193,-197,-201,-206,-213,-219,-225,-229,-232,-232,-231,-229,-225,-220,-215,-208,-195,-182,-169,-153,-133,-112,-92,-71,-49,-30,-13,-7,-5,-5,-4,-4,-4,-4,-4,-4,-3,-3,-2,-2,-3,-3,-4,-5,-7,-8,-10,-13,-15,-18,-21,-23,-26,-28,-32,-39,-47,-51,-49,-42,-30,8,64,134,220,324,440,561,676,766,799,809,785,718,626,518,403,292,195,115,69,59,50,44,39,34,31,30,29,29,29,30,33,36,39,42,45,48,53,64,93,124,155,187,215,241,266,288,314,337,353,368,383,398,413,433,459,480,495,509,524,538,548,553,558,561,563,563,559,551,543,533,520,507,494,481,469,456,444,424,396,368,340,312,282,250,216,179,141,103,68,38,5,-28,-66,-107,-144,-176,-208,-232,-250,-267,-276,-281,-286,-290,-295,-299,-303,-307,-312,-318,-328,-344,-354,-358,-361,-365,-368,-371,-373,-374,-374,-374,-374,-373,-370,-366,-362,-358,-355,-351,-347,-343,-337,-331,-325,-320,-316,-312,-309,-307,-305,-304,-301,-297,-292,-290,-292,-298,-303,-308,-313,-318,-321,-318,-311,-299,-277,-246,-220,-192,-164,-135,-105,-74,-49,-34,-20,-7,1,8,14,19,23,27,32,36,40,43,46,50,54,58,62,66,70,76,83,96,115,121,125,128,130,123,109,92,73,61,53,47,42,39,44,56,71,86,104,118,125,130,135,139,144,149,154,160,167,182,209,237,267,293,312,330,347,366,386,414,449,505,579,677,801,948,1106,1261,1393,1481,1490,1448,1294,1082,855,658,524,487,475,488,507,519,502,474,447,433,424,419,420,424,429,433,437,439,432,417,402,383,366,351,337,331,329,328,327,327,327,327,326,326,325,325,323,322,321,321,320,318,316,314,313,311,309,307,305,303,301,299,297,295,293,290,287,285,282,279,275,270,265,253,231,224,219,215,212,219,234,248,263,276,289,298,307,314,319,319,316,310,302,288,261,232,199,160,126,96,69,46,19,2,-6,-13,-17,-18,-17,-13,-6,2,18,48,70,84,95,105,114,121,130,140,152,162,172,181,188,195,201,206,209,214,219,223,227,229,231,233,236,239,244,249,253,253,247,237,223,206,180,160,141,122,111,106,101,99,99,108,120,130,138,146,151,153,150,143,134,126,119,113,108,103,99,96,94,94,95,97,99,103,108,113,119,124,127,131,135,139,140,138,132,122,110,86,53,9,-38,-72,-112,-146,-195,-243,-274,-308,-338,-364,-387,-406,-432,-456,-474,-491,-508,-524,-542,-558,-574,-583,-588,-592,-598,-598,-581,-555,-518,-451,-365,-253,-123,15,146,252,290,274,166,-35,-279,-519,-712,-809,-846,-851,-842,-838,-835,-832,-829,-824,-818,-814,-810,-807,-802,-793,-777,-764,-754,-745,-735,-725,-715,-704,-691,-673,-657,-641,-623,-604,-587,-572,-557,-542,-530,-518,-504,-481,-451,-424,-398,-373,-344,-314,-282,-248,-216,-185,-157,-129,-101,-77,-60,-48,-40,-34,-30,-29,-30,-34,-41,-51,-64,-84,-105,-132,-163,-194,-222,-247,-274,-302,-332,-354,-370,-380,-387,-391,-393,-394,-396,-396,-395,-393,-391,-389,-388,-386,-386,-384,-381,-378,-375,-370,-365,-360,-357,-354,-351,-349,-346,-343,-341,-339,-336,-333,-331,-330,-329,-326,-324,-323,-323,-322,-320,-318,-316,-313,-309,-305,-301,-294,-291,-289,-287,-285,-281,-278,-276,-275,-274,-272,-270,-268,-266,-263,-257,-251,-244,-232,-220,-213,-208,-205,-202,-200,-198,-196,-200,-210,-223,-240,-265,-291,-305,-314,-321,-326,-328,-328,-327,-325,-322,-317,-311,-303,-298,-294,-292,-291,-290,-289,-287,-287,-288,-288,-286,-279,-268,-216,-145,-57,48,164,287,415,545,670,785,879,954,1018,1078,1133,1185,1244,1280,1320,1359,1395,1432,1470,1511,1541,1557,1571,1584,1593,1600,1609,1617,1623,1625,1625,1628,1640,1668,1700,1733,1792,1868,1966,2087,2225,2369,2500,2600,2633,2614,2556,2383,2146,1879,1618,1404,1260,1184,1143,1108,1072,1014,954,894,859,821,789,761,729,696,659,619,580,542,507,474,441,413,392,373,355,336,313,292,276,261,245,229,214,200,185,170,156,141,125,108,88,67,53,44,39,34,27,20,13,6,-3,-17,-33,-52,-70,-87,-99,-104,-108,-109,-109,-107,-106,-105,-105,-105,-106,-106,-108,-112,-117,-126,-138,-162,-184,-204,-220,-240,-264,-273,-279,-283,-286,-287,-287,-289,-290,-290,-290,-288,-285,-284,-286,-288,-291,-295,-300,-305,-309,-313,-316,-318,-321,-326,-331,-333,-334,-334,-333,-331,-329,-328,-326,-324,-323,-322,-320,-318,-316,-316,-314,-316,-318,-319,-319,-320,-322,-322,-320,-315,-309,-300,-290,-278,-256,-231,-200,-180,-164,-153,-147,-142,-138,-135,-132,-130,-127,-125,-124,-120,-115,-108,-99,-91,-83,-75,-67,-59,-50,-42,-35,-26,-16,-6,5,21,38,52,64,72,78,84,92,103,118,131,142,149,156,163,169,173,172,165,154,140,125,111,100,88,77,68,58,47,38,29,19,11,3,0,-2,-2,0,3,9,15,21,31,45,60,80,96,109,134,178,228,277,358,447,562,707,872,1038,1180,1254,1251,1167,967,720,483,305,234,213,246,265,276,287,296,299,301,302,303,303,304,310,319,327,332,336,340,343,346,350,355,362,366,368,369,371,375,382,391,399,406,413,421,428,437,445,451,457,467,484,512,542,569,596,629,665,702,736,758,773,784,789,789,788,786,782,773,760,735,690,645,595,543,489,431,371,308,249,192,142,98,56,23,0,-31,-60,-86,-112,-137,-155,-172,-187,-202,-218,-234,-243,-248,-252,-258,-265,-272,-276,-280,-284,-291,-297,-303,-306,-306,-305,-304,-302,-302,-304,-308,-311,-312,-313,-315,-321,-326,-332,-340,-348,-355,-360,-364,-370,-376,-383,-388,-394,-401,-406,-412,-417,-423,-431,-441,-453,-466,-478,-485,-492,-497,-502,-508,-514,-519,-522,-524,-523,-522,-523,-524,-527,-529,-529,-528,-528,-528,-528,-528,-527,-524,-520,-511,-503,-494,-486,-477,-468,-460,-450,-437,-425,-416,-410,-404,-398,-392,-389,-387,-383,-378,-375,-371,-368,-366,-366,-368,-371,-371,-370,-367,-365,-360,-354,-346,-339,-332,-325,-318,-311,-305,-298,-292,-290,-287,-282,-276,-267,-255,-240,-219,-181,-148,-99,-42,44,131,237,365,521,690,857,1012,1147,1189,1206,1186,1059,863,627,388,186,41,-32,-69,-93,-107,-114,-118,-117,-110,-97,-78,-47,17,91,156,215,273,321,358,391,419,445,470,508,557,606,663,703,725,738,742,736,724,705,673,611,541,471,402,335,302,287,277,270,263,258,254,250,248,247,246,243,241,240,239,237,236,237,242,250,261,272,285,297,305,309,312,317,322,325,328,331,332,329,326,325,331,339,344,348,356,364,370,379,392,409,427,441,452,463,475,487,499,514,531,553,580,612,640,664,682,698,713,722,724,720,712,699,683,664,630,590,554,525,504,489,471,448,424,401,385,374,365,357,347,336,321,303,282,261,237,211,186,165,143,127,114,105,98,92,86,80,77,74,67,61,55,52,53,62,80,101,118,136,152,167,180,189,192,193,193,193,193,193,194,194,192,190,190,196,205,215,225,237,249,263,279,294,307,321,334,346,358,367,372,372,369,362,348,327,288,225,176,137,99,79,70,62,55,46,39,31,18,1,-21,-47,-77,-103,-127,-145,-153,-152,-142,-123,-93,-38,61,182,323,471,614,732,788,807,761,625,411,170,-46,-202,-255,-272,-245,-219,-198,-187,-199,-223,-236,-246,-254,-261,-266,-268,-271,-273,-273,-270,-267,-266,-267,-268,-269,-271,-273,-273,-269,-263,-258,-251,-241,-231,-212,-171,-126,-100,-84,-73,-68,-69,-71,-75,-79,-79,-80,-82,-82,-79,-74,-64,-50,-32,-10,11,28,36,38,34,25,12,-2,-23,-61,-96,-140,-185,-223,-262,-303,-348,-389,-419,-451,-476,-496,-519,-542,-558,-571,-584,-597,-611,-625,-637,-645,-651,-656,-663,-671,-676,-680,-683,-684,-685,-686,-687,-688,-686,-682,-673,-661,-648,-634,-623,-612,-599,-588,-577,-568,-561,-557,-555,-556,-557,-555,-552,-548,-545,-540,-535,-525,-517,-511,-507,-506,-507,-509,-512,-517,-519,-519,-516,-512,-507,-498,-487,-470,-451,-434,-417,-401,-388,-380,-373,-366,-359,-352,-347,-343,-339,-334,-330,-329,-331,-335,-338,-340,-339,-335,-328,-324,-319,-311,-296,-266,-236,-205,-171,-133,-93,-57,-26,0,23,45,67,94,126,165,207,242,276,312,356,390,411,427,446,469,498,532,562,586,597,603,607,611,615,619,624,629,640,657,685,732,775,818,861,910,951,984,1012,1035,1059,1082,1101,1123,1159,1214,1274,1336,1444,1564,1706,1864,2020,2154,2215,2237,2178,1997,1725,1430,1179,1042,1004,984,964,950,942,923,871,803,738,693,666,644,622,597,568,540,507,476,446,424,408,395,388,385,381,378,375,372,370,369,368,368,372,377,384,393,403,415,432,458,504,539,565,591,619,647,673,690,705,717,732,753,773,787,800,812,825,832,834,831,822,808,792,775,756,730,691,658,629,604,584,568,552,539,526,516,508,501,495,487,476,463,447,429,405,370,342,319,292,256,215,181,154,129,102,62,12,-37,-64,-80,-90,-101,-113,-125,-131,-136,-145,-158,-169,-180,-190,-206,-226,-250,-271,-288,-302,-315,-328,-342,-354,-363,-366,-371,-378,-385,-393,-404,-414,-422,-430,-440,-448,-453,-456,-458,-459,-464,-472,-483,-496,-510,-522,-538,-556,-570,-576,-579,-582,-583,-581,-580,-576,-568,-565,-567,-573,-578,-582,-589,-596,-603,-608,-609,-608,-606,-607,-610,-611,-610,-610,-610,-611,-613,-615,-614,-613,-616,-621,-629,-637,-644,-647,-649,-653,-656,-656,-655,-656,-661,-675,-692,-709,-724,-741,-759,-775,-789,-797,-803,-810,-819,-829,-836,-846,-856,-864,-874,-888,-904,-918,-932,-950,-963,-979,-1002,-1025,-1040,-1039,-1027,-1004,-930,-824,-690,-526,-347,-180,-54,-9,-9,-60,-198,-430,-679,-891,-992,-1025,-1020,-972,-941,-915,-892,-877,-868,-865,-862,-858,-854,-852,-850,-846,-836,-820,-801,-780,-758,-735,-715,-697,-682,-674,-667,-662,-657,-649,-639,-627,-616,-603,-586,-566,-543,-521,-502,-486,-470,-454,-439,-424,-410,-399,-388,-376,-363,-353,-341,-326,-309,-295,-282,-271,-261,-254,-246,-237,-229,-226,-224,-217,-208,-198,-181,-162,-144,-124,-93,-50,-8,44,113,186,262,338,406,469,525,578,639,686,708,726,744,771,805,844,881,908,930,952,976,1001,1026,1052,1072,1084,1096,1112,1131,1151,1168,1181,1190,1197,1207,1221,1237,1252,1266,1284,1304,1320,1333,1347,1369,1406,1448,1490,1524,1548,1572,1591,1608,1620,1624,1621,1612,1601,1591,1578,1559,1529,1480,1442,1410,1381,1346,1293,1226,1162,1101,1046,992,935,871,815,776,740,712,686,662,642,623,602,578,553,529,507,483,457,426,393,365,345,327,304,276,250,226,206,187,162,130,91,52,23,-3,-32,-65,-94,-116,-136,-152,-166,-181,-194,-211,-233,-261,-288,-313,-336,-353,-368,-378,-385,-391,-398,-404,-408,-411,-416,-423,-433,-440,-445,-446,-449,-458,-474,-490,-486,-444,-386,-318,-207,-81,67,224,360,465,496,469,404,213,-31,-275,-473,-551,-569,-519,-487,-470,-455,-448,-446,-446,-451,-457,-463,-468,-473,-475,-475,-473,-473,-473,-473,-471,-468,-470,-473,-474,-474,-474,-476,-483,-490,-494,-495,-495,-494,-493,-492,-491,-489,-487,-485,-479,-468,-455,-444,-435,-424,-409,-388,-366,-348,-339,-334,-328,-322,-316,-314,-315,-316,-318,-322,-326,-333,-342,-353,-365,-379,-398,-429,-460,-492,-527,-560,-587,-611,-629,-641,-652,-665,-680,-696,-713,-732,-747,-758,-768,-780,-789,-794,-794,-788,-777,-764,-753,-742,-729,-714,-696,-673,-650,-630,-612,-594,-575,-553,-533,-519,-505,-492,-479,-465,-452,-441,-433,-428,-417,-401,-382,-369,-360,-353,-343,-331,-321,-319,-325,-328,-328,-324,-318,-311,-300,-286,-279,-278,-280,-283,-286,-289,-284,-272,-258,-246,-239,-238,-242,-252,-267,-281,-294,-302,-304,-306,-310,-311,-310,-310,-312,-318,-321,-320,-324,-328,-331,-333,-331,-323,-315,-308,-302,-296,-289,-282,-275,-265,-250,-230,-210,-192,-180,-181,-187,-192,-195,-197,-197,-193,-187,-184,-185,-190,-199,-206,-209,-204,-190,-175,-163,-150,-138,-131,-126,-114,-98,-85,-76,-66,-50,-29,-9,14,36,57,103,176,251,325,468,640,832,1012,1168,1281,1323,1303,1227,1034,803,584,428,371,365,367,367,369,373,375,369,356,347,342,338,331,319,306,299,295,293,295,302,310,321,328,331,334,336,340,345,349,355,363,373,384,403,427,456,485,507,526,546,565,574,577,583,591,599,603,606,616,630,641,649,652,645,631,617,605,590,572,556,547,539,526,507,488,474,459,440,418,395,372,353,333,311,284,265,255,246,237,227,223,222,231,247,264,275,279,275,269,261,254,248,250,259,274,284,287,284,279,271,263,259,262,268,277,290,303,312,311,306,302,296,290,287,286,286,287,289,292,292,289,283,276,267,257,246,238,227,215,205,199,196,192,182,175,174,173,165,156,149,143,136,128,121,111,101,93,90,90,90,94,105,117,123,122,115,106,96,85,78,72,66,67,77,85,87,85,85,89,93,91,94,106,120,135,150,165,179,187,184,170,149,122,92,48,11,-20,-44,-64,-82,-92,-100,-101,-98,-97,-100,-106,-115,-122,-130,-142,-154,-166,-187,-208,-220,-228,-237,-251,-267,-275,-259,-231,-194,-147,-71,24,143,279,435,590,728,810,813,735,538,278,11,-201,-301,-326,-341,-347,-342,-332,-324,-320,-320,-323,-326,-336,-350,-369,-390,-408,-421,-431,-436,-438,-435,-431,-427,-422,-418,-411,-407,-406,-408,-412,-415,-419,-423,-424,-422,-414,-402,-390,-376,-359,-339,-318,-302,-294,-288,-280,-265,-246,-227,-206,-176,-137,-102,-81,-64,-45,-30,-17,-8,-5,0,6,9,8,2,-8,-16,-25,-36,-49,-65,-82,-95,-103,-100,-85,-66,-44,-16,20,42,50,49,52,57,55,50,40,31,23,14,4,0,-3,-8,-10,-11,-15,-24,-35,-44,-52,-62,-81,-97,-104,-112,-120,-127,-131,-130,-125,-119,-111,-104,-102,-102,-102,-103,-107,-104,-103,-98,-88,-75,-60,-47,-37,-30,-24,-18,-11,-7,-6,-3,6,23,41,56,66,74,84,92,98,100,99,96,97,102,108,111,115,121,128,138,149,162,176,187,198,221,259,296,323,350,369,382,394,406,417,427,438,447,456,468,480,488,492,494,496,495,494,493,491,487,484,483,482,480,478,474,471,465,459,455,454,453,452,454,456,458,462,467,471,472,471,469,464,458,451,442,438,445,465,529,608,714,846,991,1131,1244,1306,1330,1290,1166,954,696,441,248,157,134,119,105,95,90,87,78,60,38,20,9,1,-6,-14,-24,-36,-45,-52,-59,-65,-72,-78,-84,-91,-96,-102,-108,-112,-117,-120,-118,-116,-111,-107,-102,-99,-96,-92,-89,-87,-87,-87,-85,-80,-74,-67,-55,-42,-28,-14,-2,8,13,14,11,5,-4,-23,-53,-97,-136,-173,-204,-233,-263,-297,-334,-372,-410,-447,-475,-498,-533,-559,-580,-595,-599,-598,-598,-598,-599,-595,-590,-586,-581,-572,-561,-552,-543,-533,-528,-527,-528,-530,-538,-552,-565,-576,-586,-591,-594,-595,-595,-595,-593,-593,-594,-593,-594,-596,-600,-607,-614,-623,-632,-637,-642,-650,-658,-662,-664,-663,-660,-658,-659,-661,-659,-658,-659,-661,-663,-667,-671,-675,-680,-686,-690,-693,-698,-706,-713,-715,-708,-697,-685,-671,-652,-634,-608,-579,-553,-528,-508,-492,-472,-452,-430,-410,-396,-388,-382,-373,-361,-347,-332,-323,-320,-317,-299,-264,-234,-214,-200,-186,-170,-147,-132,-125,-123,-122,-118,-115,-112,-108,-103,-97,-89,-80,-73,-66,-61,-57,-53,-52,-53,-59,-64,-65,-64,-63,-61,-59,-57,-51,-30,6,39,62,100,154,230,330,456,603,778,987,1229,1482,1711,1904,2050,2094,2079,1960,1778,1592,1449,1390,1384,1415,1482,1554,1616,1664,1692,1718,1742,1769,1800,1825,1851,1871,1883,1893,1898,1899,1893,1884,1875,1860,1832,1806,1779,1753,1726,1695,1665,1635,1607,1581,1551,1531,1521,1516,1515,1513,1511,1509,1505,1498,1490,1485,1478,1468,1446,1418,1390,1365,1343,1320,1291,1258,1219,1187,1162,1141,1122,1097,1069,1041,1012,985,956,930,907,879,847,816,789,761,735,711,690,671,650,630,611,589,566,545,524,503,481,458,427,388,350,314,279,246,213,179,146,109,80,64,48,33,20,11,4,0,-5,-9,-13,-17,-23,-33,-47,-61,-73,-82,-94,-108,-124,-139,-155,-176,-199,-220,-241,-259,-269,-273,-276,-279,-280,-283,-287,-292,-299,-309,-326,-348,-368,-383,-391,-398,-402,-403,-405,-406,-404,-403,-407,-414,-419,-425,-431,-436,-440,-443,-446,-446,-441,-436,-433,-429,-423,-417,-416,-416,-415,-414,-414,-415,-417,-417,-416,-410,-399,-383,-370,-364,-357,-349,-343,-339,-336,-336,-340,-343,-344,-348,-354,-362,-370,-377,-383,-386,-389,-389,-390,-392,-395,-399,-402,-406,-411,-417,-426,-437,-452,-467,-476,-476,-467,-452,-429,-393,-330,-258,-172,-74,30,133,221,273,269,197,16,-224,-477,-681,-769,-799,-780,-759,-741,-729,-734,-747,-764,-784,-796,-796,-785,-768,-752,-743,-736,-729,-720,-713,-709,-707,-703,-692,-672,-649,-629,-614,-599,-581,-564,-550,-540,-529,-518,-501,-478,-455,-439,-432,-422,-403,-380,-353,-328,-305,-285,-266,-243,-219,-199,-186,-179,-174,-165,-155,-145,-136,-131,-127,-126,-128,-135,-146,-161,-178,-199,-215,-231,-246,-266,-285,-305,-323,-341,-362,-385,-410,-424,-432,-439,-444,-448,-452,-453,-452,-449,-443,-437,-432,-429,-425,-422,-418,-412,-406,-401,-396,-392,-388,-385,-381,-380,-382,-385,-387,-385,-383,-382,-382,-384,-388,-391,-397,-405,-415,-425,-433,-437,-436,-428,-424,-421,-418,-414,-411,-408,-406,-406,-407,-408,-408,-410,-412,-416,-417,-418,-420,-420,-422,-426,-434,-443,-451,-457,-460,-462,-465,-466,-467,-465,-460,-452,-442,-432,-423,-414,-399,-373,-354,-341,-328,-313,-297,-277,-252,-225,-202,-182,-162,-127,-93,-64,-49,-46,-44,-43,-41,-40,-41,-43,-53,-69,-87,-100,-108,-115,-124,-133,-140,-145,-147,-148,-146,-143,-141,-139,-136,-130,-125,-124,-129,-135,-140,-143,-145,-144,-141,-138,-115,-48,49,177,318,452,574,677,708,691,649,494,280,55,-139,-248,-286,-267,-231,-188,-159,-141,-125,-109,-95,-76,-47,-11,27,61,87,103,114,123,136,153,171,186,200,213,224,233,239,243,247,248,246,243,244,246,250,256,264,275,286,306,343,373,410,456,504,555,613,671,733,786,833,881,931,980,1026,1072,1108,1135,1160,1177,1191,1199,1197,1183,1163,1141,1111,1080,1047,1014,987,971,962,954,939,920,897,873,855,841,822,799,774,755,740,729,721,711,694,671,651,634,617,591,564,538,510,467,424,388,356,325,291,262,241,217,193,172,156,143,131,119,109,105,108,116,128,144,163,195,226,260,293,318,327,332,338,344,350,354,353,344,329,312,296,286,279,273,269,264,257,249,245,245,247,250,253,253,252,251,248,246,246,244,242,241,241,241,243,245,250,255,259,262,263,263,263,263,262,261,259,254,251,250,251,252,252,250,247,243,239,235,228,213,197,182,170,163,157,151,143,134,125,116,107,93,77,58,35,11,-5,-28,-61,-99,-146,-185,-208,-223,-225,-216,-194,-124,-11,129,293,468,632,769,851,876,834,715,518,310,123,7,-37,-42,-25,-16,-6,5,15,18,16,12,8,4,1,0,-1,-2,-4,-4,-1,1,4,9,13,17,19,20,22,24,26,27,27,29,30,31,31,32,34,35,38,42,48,55,64,77,96,126,149,167,179,189,198,206,213,216,213,206,200,196,191,182,169,144,117,94,76,61,47,19,-17,-52,-93,-130,-156,-180,-201,-218,-240,-266,-281,-292,-299,-304,-309,-315,-323,-331,-338,-341,-342,-344,-346,-348,-348,-348,-351,-353,-358,-363,-370,-375,-379,-383,-389,-394,-397,-399,-398,-396,-395,-395,-397,-401,-404,-404,-403,-402,-401,-399,-397,-396,-390,-383,-374,-367,-364,-362,-359,-359,-359,-359,-360,-361,-360,-359,-360,-364,-368,-365,-361,-359,-357,-357,-355,-352,-348,-344,-346,-350,-354,-356,-355,-355,-360,-365,-372,-378,-381,-381,-383,-389,-396,-401,-404,-403,-400,-396,-393,-392,-391,-387,-380,-370,-361,-352,-344,-335,-326,-319,-313,-307,-305,-308,-313,-323,-339,-357,-372,-380,-387,-392,-395,-398,-401,-406,-408,-406,-406,-410,-414,-414,-412,-413,-415,-417,-422,-429,-434,-436,-436,-433,-424,-413,-404,-349,-259,-138,4,161,322,463,571,610,585,502,304,67,-157,-327,-368,-376,-389,-400,-404,-402,-398,-395,-392,-391,-389,-379,-367,-357,-348,-336,-320,-308,-296,-281,-264,-249,-237,-225,-210,-196,-184,-175,-167,-158,-147,-131,-112,-95,-82,-70,-57,-43,-30,-18,-4,9,20,34,57,85,113,147,185,218,232,238,240,241,244,250,254,252,249,252,259,262,258,250,236,221,202,165,129,100,82,71,61,48,29,6,-12,-29,-45,-66,-86,-103,-109,-111,-110,-112,-116,-121,-122,-120,-116,-113,-112,-111,-108,-103,-99,-101,-103,-106,-109,-110,-109,-108,-106,-103,-95,-87,-78,-69,-58,-45,-35,-26,-18,-9,2,16,34,53,62,67,68,68,70,73,75,79,83,86,88,88,91,94,98,100,101,100,97,94,91,87,83,80,79,80,81,81,82,84,86,89,93,97,100,101,101,102,103,103,102,101,101,101,102,103,103,102,101,101,104,108,112,118,127,136,146,156,166,172,174,176,181,185,188,191,191,187,182,177,174,174,174,171,168,165,164,164,168,171,174,175,175,176,178,180,182,182,179,176,175,177,183,188,191,223,282,372,497,652,817,979,1122,1208,1214,1157,979,733,473,253,111,72,60,86,104,115,124,132,138,141,142,143,145,150,158,170,185,201,221,240,259,276,292,306,319,332,352,373,387,398,406,412,416,416,414,413,411,407,402,397,395,396,399,403,410,419,430,449,467,482,491,495,496,498,500,497,487,475,461,447,432,420,414,409,399,383,363,347,325,293,260,225,193,167,146,131,119,108,99,87,75,64,46,21,-3,-32,-60,-80,-94,-99,-99,-99,-101,-103,-107,-111,-113,-116,-120,-124,-130,-138,-146,-149,-150,-152,-155,-159,-162,-164,-167,-166,-162,-158,-156,-154,-148,-141,-132,-110,-90,-73,-60,-47,-36,-28,-20,-11,-2,6,18,32,43,53,61,69,76,84,95,104,110,115,120,125,129,132,134,134,132,129,123,116,110,103,92,78,61,52,46,41,39,35,32,30,29,28,26,24,22,20,19,20,21,21,22,24,23,19,15,9,0,-8,-17,-34,-62,-93,-123,-149,-168,-182,-200,-225,-252,-280,-299,-310,-318,-326,-333,-339,-345,-349,-353,-355,-357,-361,-364,-366,-367,-369,-373,-379,-386,-396,-395,-382,-347,-300,-236,-149,-40,84,216,344,453,522,528,487,349,144,-89,-301,-453,-509,-515,-476,-423,-392,-374,-366,-360,-354,-348,-343,-339,-333,-325,-312,-299,-287,-272,-255,-234,-216,-202,-189,-176,-167,-161,-156,-151,-146,-141,-134,-128,-123,-118,-114,-111,-107,-103,-98,-92,-86,-80,-74,-70,-68,-66,-63,-59,-54,-49,-44,-41,-39,-37,-38,-41,-42,-44,-46,-48,-52,-57,-62,-74,-95,-110,-129,-153,-177,-204,-228,-247,-268,-287,-307,-322,-328,-330,-331,-330,-328,-327,-326,-326,-327,-328,-331,-333,-333,-335,-340,-349,-365,-392,-417,-435,-447,-457,-469,-483,-496,-509,-522,-534,-542,-549,-556,-563,-570,-576,-583,-590,-596,-604,-616,-631,-647,-662,-673,-681,-687,-693,-699,-704,-709,-713,-717,-726,-743,-764,-785,-805,-827,-846,-860,-872,-880,-886,-889,-893,-895,-898,-901,-903,-905,-909,-915,-924,-935,-952,-981,-1002,-1018,-1030,-1044,-1059,-1077,-1096,-1113,-1127,-1144,-1166,-1189,-1213,-1236,-1252,-1260,-1263,-1264,-1265,-1264,-1262,-1260,-1260,-1260,-1259,-1261,-1265,-1270,-1274,-1280,-1292,-1317,-1340,-1372,-1410,-1439,-1461,-1481,-1500,-1519,-1541,-1564,-1585,-1598,-1604,-1606,-1608,-1610,-1611,-1613,-1614,-1613,-1611,-1610,-1609,-1607,-1605,-1605,-1606,-1604,-1600,-1595,-1588,-1558,-1507,-1431,-1330,-1210,-1079,-949,-837,-762,-756,-799,-958,-1200,-1483,-1741,-1920,-1980,-1981,-1949,-1929,-1927,-1947,-1970,-1995,-2016,-2030,-2043,-2051,-2056,-2059,-2061,-2065,-2072,-2079,-2085,-2090,-2095,-2100,-2104,-2107,-2109,-2110,-2107,-2105,-2104,-2101,-2096,-2089,-2073,-2036,-2008,-1996,-1989,-1980,-1970,-1960,-1944,-1922,-1905,-1889,-1873,-1857,-1810,-1751,-1673,-1584,-1487,-1378,-1254,-1118,-967,-806,-640,-472,-303,-139,16,173,335,506,684,864,1039,1209,1381,1554,1730,1904,2067,2218,2356,2478,2584,2678,2759,2832,2880,2936,2991,3045,3099,3152,3199,3243,3285,3310,3325,3336,3342,3341,3333,3319,3303,3287,3268,3252,3238,3224,3210,3197,3184,3170,3155,3142,3130,3119,3107,3095,3083,3071,3059,3047,3035,3023,3011,3001,2991,2981,2971,2961,2951,2941,2931,2921,2912,2902,2892,2882,2872,2863,2854,2845,2837,2828,2819,2810,2801,2793,2785,2778,2770,2763,2755,2747,2740,2732,2725,2719,2712,2705,2699,2692,2685,2678,2671,2664,2658,2651,2644,2638,2632,2625,2618,2611,2604,2597,2590,2585,2580,2575,2570,2565,2561,2558,2555,2553,2552,2551,2551,2551,2552,2553,2554,2556,2557,2560,2562,2564,2567,2570,2570,2570,2571,2572,2568,2558,2535,2487,2414,2338,2255,2168,2077,1981,1890,1813,1772,1748,1732,1724,1730,1748,1801,1879,1972,2062,2130,2154,2129,2056,1875,1619,1327,1041,807,657,589,566,545,526,494,443,386,337,291,251,218,183,144,100,50,1,-50,-102,-153,-205,-260,-317,-375,-432,-489,-545,-603,-650,-690,-734,-771,-798,-825,-851,-878,-905,-930,-954,-980,-1006,-1029,-1046,-1059,-1067,-1074,-1078,-1081,-1082,-1082,-1080,-1072,-1060,-1046,-1031,-1012,-987,-966,-953,-944,-936,-930,-924,-920,-919,-921,-929,-939,-951,-965,-980,-1004,-1027,-1049,-1070,-1090,-1108,-1127,-1139,-1146,-1152,-1160,-1167,-1177,-1189,-1200,-1211,-1220,-1228,-1237,-1245,-1249,-1252,-1256,-1259,-1259,-1258,-1259,-1260,-1263,-1268,-1279,-1295,-1316,-1332,-1341,-1348,-1354,-1359,-1363,-1364,-1360,-1342,-1322,-1309,-1301,-1294,-1286,-1277,-1267,-1260,-1258,-1251,-1242,-1230,-1216,-1201,-1189,-1176,-1163,-1152,-1141,-1132,-1121,-1112,-1105,-1097,-1090,-1086,-1083,-1078,-1071,-1066,-1061,-1055,-1049,-1042,-1035,-1024,-1010,-998,-982,-963,-946,-932,-923,-919,-917,-914,-906,-897,-890,-882,-868,-848,-821,-799,-783,-772,-765,-759,-750,-739,-724,-711,-699,-686,-676,-665,-658,-654,-652,-655,-663,-674,-689,-708,-727,-751,-773,-797,-816,-832,-845,-855,-862,-869,-876,-881,-882,-883,-885,-885,-879,-870,-861,-854,-847,-842,-830,-806,-780,-746,-708,-633,-528,-392,-234,-67,90,224,310,322,274,108,-116,-344,-528,-635,-676,-679,-653,-634,-617,-604,-597,-595,-594,-588,-581,-576,-569,-561,-554,-545,-534,-524,-517,-510,-499,-489,-481,-474,-466,-458,-451,-444,-438,-434,-426,-412,-397,-381,-363,-342,-319,-299,-284,-271,-257,-239,-217,-192,-163,-131,-99,-69,-48,-37,-29,-25,-22,-22,-28,-34,-36,-39,-48,-57,-67,-78,-91,-103,-117,-139,-165,-189,-209,-226,-251,-283,-322,-343,-355,-363,-371,-379,-386,-387,-384,-380,-373,-367,-361,-357,-354,-347,-338,-328,-318,-308,-301,-296,-293,-293,-296,-301,-306,-312,-321,-327,-327,-324,-318,-312,-308,-305,-304,-302,-299,-298,-296,-296,-293,-290,-288,-286,-285,-285,-287,-288,-288,-287,-282,-276,-268,-258,-245,-234,-225,-219,-214,-211,-208,-206,-208,-211,-216,-218,-216,-213,-213,-214,-216,-215,-212,-208,-206,-207,-210,-212,-211,-208,-207,-209,-209,-208,-206,-205,-203,-199,-193,-185,-173,-157,-124,-94,-73,-59,-56,-54,-54,-54,-54,-56,-57,-58,-57,-55,-52,-46,-39,-36,-35,-38,-43,-46,-47,-48,-51,-55,-58,-60,-60,-57,-52,-50,-49,-51,-57,-63,-64,-62,-60,-59,-60,-65,-67,-60,-49,-40,-31,-23,5,78,192,325,476,637,799,947,1036,1042,978,784,522,261,55,-28,-41,-55,-69,-83,-87,-81,-83,-92,-103,-111,-115,-112,-106,-99,-94,-88,-81,-73,-67,-61,-59,-59,-64,-72,-75,-73,-69,-64,-57,-48,-35,-8,18,43,61,73,82,92,105,122,141,163,184,202,220,242,268,288,300,308,313,318,327,334,335,332,330,328,325,321,313,301,288,277,264,244,224,206,187,166,143,121,99,74,47,16,-2,-16,-29,-39,-42,-43,-43,-41,-34,-26,-15,-1,8,14,22,30,37,43,50,57,63,67,69,70,70,70,72,74,75,73,69,65,64,68,73,80,88,97,103,110,120,129,134,139,143,145,146,150,158,165,170,175,180,180,176,177,178,174,168,161,153,144,138,136,136,137,139,138,138,139,141,144,146,145,141,135,132,131,127,122,120,120,117,117,121,128,133,137,140,141,143,147,152,153,152,151,155,165,178,186,190,192,197,204,209,209,205,199,194,189,185,175,163,155,149,143,133,120,109,102,98,96,93,89,87,86,86,84,81,84,89,91,90,88,86,88,97,110,118,135,185,280,411,578,756,914,1019,1059,1024,896,650,388,169,44,6,6,16,23,34,42,38,25,10,-1,-6,-4,0,4,9,12,13,17,23,29,36,45,52,58,63,68,75,80,80,78,77,82,90,100,114,130,145,157,166,174,182,191,203,221,243,260,276,291,302,308,310,311,312,311,306,300,293,287,280,273,265,254,232,214,199,180,154,127,102,77,47,15,-18,-50,-75,-93,-106,-115,-121,-123,-126,-131,-138,-148,-164,-184,-201,-216,-223,-228,-233,-237,-240,-240,-239,-237,-236,-236,-237,-237,-234,-228,-224,-222,-222,-224,-225,-222,-218,-217,-216,-212,-208,-207,-207,-210,-216,-220,-221,-224,-230,-237,-243,-246,-248,-248,-247,-246,-245,-246,-248,-248,-248,-246,-239,-231,-222,-215,-208,-200,-190,-173,-154,-142,-134,-131,-130,-129,-128,-128,-128,-128,-132,-138,-143,-144,-143,-141,-138,-131,-123,-115,-107,-96,-83,-70,-60,-50,-39,-28,-16,-5,0,5,8,11,15,18,20,23,24,24,21,20,19,20,22,20,19,16,12,11,11,12,13,14,15,15,15,16,19,21,23,25,28,28,27,26,25,26,35,59,94,140,203,294,415,558,707,850,968,1024,1015,927,734,482,229,34,-35,-60,-34,12,42,51,57,59,60,60,59,60,64,69,75,81,89,99,110,120,130,142,154,168,184,201,217,232,246,257,268,275,281,286,290,295,304,317,328,340,351,363,376,394,411,426,439,446,449,452,457,461,464,468,470,469,467,464,464,466,465,458,449,433,404,380,353,322,287,244,197,158,133,119,109,100,91,80,59,32,6,-14,-31,-52,-79,-112,-129,-135,-138,-138,-138,-140,-142,-146,-149,-150,-150,-149,-151,-152,-153,-153,-152,-151,-146,-141,-137,-135,-134,-132,-128,-124,-121,-119,-118,-120,-123,-123,-122,-122,-127,-131,-135,-140,-143,-147,-152,-156,-161,-170,-178,-184,-187,-188,-189,-191,-192,-193,-194,-195,-196,-197,-197,-198,-199,-200,-203,-207,-212,-218,-230,-241,-251,-258,-265,-270,-272,-272,-272,-269,-265,-261,-256,-251,-247,-244,-239,-233,-226,-219,-211,-203,-198,-193,-187,-183,-180,-181,-184,-187,-192,-197,-203,-211,-219,-225,-231,-235,-238,-241,-242,-244,-247,-251,-255,-260,-263,-264,-265,-266,-267,-270,-274,-280,-286,-294,-303,-301,-287,-254,-201,-120,-9,124,268,412,543,643,687,678,600,428,205,-19,-202,-290,-324,-311,-263,-214,-193,-184,-176,-170,-165,-157,-148,-140,-130,-119,-111,-105,-99,-94,-88,-81,-72,-63,-53,-41,-29,-18,-8,0,7,14,20,26,31,36,42,53,68,79,97,123,152,177,199,221,236,246,257,268,279,288,297,303,307,310,314,317,321,324,321,312,298,277,247,224,201,179,155,129,101,77,62,51,43,28,2,-21,-38,-51,-59,-64,-70,-78,-88,-94,-98,-102,-105,-108,-112,-116,-118,-119,-119,-118,-115,-110,-104,-99,-92,-75,-58,-43,-31,-19,-9,-2,1,4,8,11,17,25,34,43,55,63,66,69,71,74,77,81,86,90,95,101,106,110,111,112,115,118,120,122,125,128,130,131,131,131,132,132,133,133,135,137,139,141,143,145,148,149,151,154,158,166,175,183,191,197,203,207,211,215,219,223,228,233,238,242,248,254,258,259,258,255,250,245,239,234,227,220,215,210,206,203,200,197,195,194,193,191,189,188,185,182,179,176,172,167,159,152,149,150,155,164,193,236,298,379,478,598,733,869,991,1085,1118,1105,1004,815,589,371,200,138,119,108,102,99,97,96,96,97,99,100,99,96,93,91,90,91,91,90,89,89,88,88,87,86,85,84,85,86,87,90,93,97,100,102,105,109,119,128,139,150,161,173,184,196,207,219,232,244,256,266,273,278,283,289,293,294,293,288,280,270,251,218,186,154,121,87,52,21,-2,-20,-36,-51,-66,-79,-91,-104,-123,-140,-154,-167,-182,-191,-199,-205,-212,-217,-223,-228,-231,-234,-235,-237,-239,-240,-241,-242,-243,-243,-243,-241,-239,-235,-229,-223,-218,-212,-206,-199,-191,-183,-176,-168,-160,-150,-138,-126,-113,-102,-95,-92,-89,-87,-85,-83,-81,-77,-73,-68,-63,-59,-54,-50,-46,-41,-36,-29,-23,-16,-10,-5,0,3,5,7,8,9,8,8,8,9,10,12,15,17,20,22,24,26,28,31,35,39,44,50,57,64,70,76,81,85,88,92,96,99,103,108,113,117,120,122,122,119,114,108,101,94,87,78,68,58,49,40,31,22,12,2,-3,-9,-15,-21,-25,-30,-33,-36,-36,-35,-34,-30,-24,-15,13,68,145,243,359,489,625,757,871,943,945,881,707,480,259,90,2,-30,-34,-26,-21,-15,-11,-11,-17,-24,-27,-30,-33,-36,-39,-41,-40,-38,-33,-25,-18,-10,-4,2,8,14,20,25,30,33,36,40,44,50,57,66,76,87,99,113,127,141,156,171,185,199,211,223,232,240,246,251,256,261,263,263,258,250,240,227,206,187,171,157,143,129,105,73,49,31,10,-17,-49,-79,-112,-137,-153,-168,-182,-197,-212,-216,-217,-217,-218,-220,-221,-222,-223,-223,-223,-223,-221,-219,-217,-215,-214,-213,-212,-211,-210,-210,-209,-207,-206,-204,-202,-200,-199,-198,-197,-197,-196,-195,-194,-192,-190,-185,-178,-170,-160,-150,-143,-138,-133,-128,-124,-120,-116,-112,-108,-104,-101,-96,-91,-84,-77,-70,-63,-57,-50,-44,-38,-32,-27,-23,-20,-17,-15,-12,-10,-7,-4,-1,1,4,8,11,13,15,16,17,18,18,20,22,24,27,31,36,41,46,50,54,58,62,67,72,79,85,90,95,98,99,98,95,92,87,82,76,70,64,52,41,30,20,13,7,2,-1,-4,-7,-11,-14,-18,-22,-25,-29,-33,-39,-46,-54,-59,-60,-59,-54,-47,-24,25,100,202,330,476,629,775,895,966,970,915,752,529,288,70,-83,-140,-159,-151,-143,-136,-133,-135,-140,-143,-146,-148,-146,-138,-128,-121,-114,-107,-100,-93,-86,-80,-75,-69,-63,-57,-50,-43,-37,-30,-24,-17,-11,-4,2,8,15,24,34,45,56,68,85,106,122,138,153,166,173,177,181,184,186,187,186,182,177,171,164,156,145,133,122,110,95,75,57,33,7,-15,-41,-63,-79,-96,-113,-130,-144,-164,-188,-211,-235,-254,-270,-289,-304,-314,-322,-330,-336,-343,-350,-357,-365,-375,-385,-389,-393,-396,-399,-402,-404,-407,-409,-411,-413,-414,-415,-416,-418,-418,-419,-420,-421,-421,-421,-420,-420,-420,-419,-420,-420,-419,-420,-421,-422,-422,-422,-422,-421,-420,-420,-421,-422,-424,-427,-430,-433,-435,-437,-440,-441,-441,-442,-444,-446,-449,-451,-455,-459,-463,-466,-467,-467,-466,-464,-461,-458,-455,-452,-450,-447,-445,-442,-434,-425,-415,-405,-395,-383,-371,-360,-347,-332,-316,-295,-266,-250,-242,-236,-231,-229,-228,-228,-230,-233,-236,-241,-247,-253,-261,-270,-278,-286,-294,-306,-322,-339,-353,-365,-377,-389,-396,-402,-406,-410,-415,-421,-426,-431,-437,-444,-454,-464,-471,-478,-487,-497,-497,-486,-455,-395,-311,-200,-60,97,250,381,475,489,463,326,131,-87,-293,-447,-516,-539,-525,-501,-477,-464,-456,-448,-440,-434,-430,-426,-424,-420,-416,-410,-403,-395,-382,-361,-345,-332,-323,-316,-309,-303,-298,-294,-290,-285,-278,-271,-263,-251,-235,-219,-198,-168,-134,-104,-55,-8,36,79,126,182,242,300,352,408,467,529,595,668,739,800,853,904,951,997,1025,1051,1070,1087,1103,1119,1137,1154,1172,1187,1208,1233,1253,1269,1287,1310,1340,1365,1380,1391,1399,1404,1409,1413,1416,1417,1415,1409,1399,1387,1371,1345,1322,1303,1287,1271,1257,1243,1228,1216,1206,1195,1185,1172,1154,1138,1122,1108,1097,1083,1067,1049,1030,1010,990,970,949,929,903,870,845,825,805,785,766,747,734,725,717,708,699,690,675,654,636,620,603,582,564,550,536,524,510,494,479,459,432,406,377,352,332,311,294,280,266,254,243,232,219,203,188,173,156,137,127,119,114,108,103,99,97,94,91,89,88,86,84,82,81,79,77,75,73,71,68,64,59,53,45,33,11,-8,-26,-42,-56,-71,-85,-100,-115,-127,-138,-148,-157,-166,-174,-180,-187,-193,-199,-205,-211,-215,-221,-228,-239,-246,-243,-230,-194,-134,-49,59,186,327,471,601,685,712,671,551,332,84,-144,-310,-366,-387,-365,-342,-325,-319,-327,-341,-344,-347,-349,-352,-355,-358,-361,-363,-364,-365,-363,-360,-358,-358,-358,-358,-359,-360,-362,-364,-365,-366,-366,-365,-364,-363,-363,-360,-357,-353,-350,-347,-342,-330,-315,-301,-285,-264,-238,-215,-197,-182,-173,-170,-169,-167,-164,-161,-160,-167,-177,-184,-189,-195,-201,-208,-214,-219,-226,-243,-271,-299,-331,-368,-407,-437,-457,-470,-479,-484,-488,-490,-492,-494,-494,-493,-492,-491,-490,-489,-487,-483,-478,-473,-467,-461,-454,-448,-444,-441,-438,-435,-433,-432,-430,-428,-425,-422,-419,-417,-415,-413,-411,-409,-406,-403,-400,-396,-392,-388,-384,-381,-376,-372,-368,-363,-358,-353,-347,-342,-338,-335,-330,-322,-313,-300,-284,-272,-263,-255,-247,-240,-233,-225,-219,-214,-210,-205,-200,-194,-188,-179,-170,-161,-151,-139,-125,-108,-92,-75,-62,-56,-52,-49,-47,-44,-41,-37,-32,-26,-21,-16,-12,-8,-4,1,6,12,17,22,26,31,34,37,39,40,40,37,32,27,24,20,14,6,-4,-27,-48,-69,-79,-86,-90,-94,-98,-102,-106,-109,-110,-111,-112,-113,-115,-117,-118,-119,-119,-118,-116,-114,-109,-104,-100,-94,-73,-21,66,180,317,473,627,759,832,830,758,575,337,97,-100,-210,-253,-256,-238,-228,-222,-218,-213,-210,-209,-209,-211,-213,-213,-212,-211,-212,-212,-211,-209,-206,-202,-196,-191,-185,-179,-174,-168,-157,-144,-131,-121,-112,-104,-97,-89,-80,-70,-61,-51,-40,-27,-14,0,15,31,47,62,79,95,105,113,120,128,133,135,137,137,137,136,133,128,122,115,109,102,94,84,65,45,23,2,-18,-37,-57,-75,-92,-107,-115,-120,-123,-125,-127,-128,-130,-132,-134,-137,-141,-145,-149,-154,-160,-167,-172,-177,-182,-185,-187,-189,-188,-184,-180,-175,-169,-164,-160,-156,-152,-148,-146,-145,-142,-140,-138,-137,-133,-128,-123,-117,-111,-107,-105,-101,-97,-95,-93,-92,-90,-87,-85,-83,-81,-80,-79,-77,-76,-76,-76,-74,-71,-69,-67,-65,-64,-64,-63,-62,-62,-61,-62,-63,-63,-65,-68,-71,-72,-73,-76,-79,-81,-82,-84,-84,-82,-78,-74,-70,-68,-68,-69,-67,-64,-59,-55,-52,-48,-41,-33,-22,-8,4,18,31,40,46,50,52,55,58,61,61,61,62,64,64,63,61,58,52,46,41,38,34,32,31,28,24,20,16,12,9,7,6,5,3,0,-7,3,44,116,222,355,508,662,793,876,885,847,698,473,218,-2,-151,-201,-203,-154,-103,-86,-79,-78,-79,-82,-85,-89,-94,-99,-102,-100,-96,-91,-86,-78,-69,-58,-42,-27,-12,3,20,34,45,52,58,64,67,71,76,80,85,91,101,118,136,152,166,180,191,197,201,202,203,205,206,207,209,213,215,215,213,212,209,206,204,202,199,195,189,181,165,150,141,130,114,95,76,57,37,20,2,-15,-32,-51,-68,-79,-89,-100,-116,-129,-141,-151,-159,-165,-171,-175,-176,-170,-159,-142,-119,-97,-75,-51,-29,-8,15,31,40,46,51,54,59,69,85,101,115,125,136,146,153,160,167,173,176,179,179,176,174,175,177,179,180,180,177,176,176,173,166,158,151,138,119,99,82,71,63,61,59,55,52,50,49,49,49,50,52,53,54,55,56,56,58,60,64,68,71,76,84,103,120,128,132,137,141,145,147,150,151,152,152,150,148,147,146,144,137,129,121,113,96,84,76,67,54,42,35,33,32,32,31,29,24,18,9,-1,-10,-20,-31,-45,-57,-68,-76,-75,-63,-33,6,60,133,226,337,458,582,695,780,806,789,689,490,238,-7,-197,-295,-311,-283,-219,-166,-142,-131,-125,-119,-115,-108,-103,-98,-95,-91,-87,-83,-79,-75,-72,-70,-69,-68,-63,-49,-23,-1,17,34,53,70,93,115,132,145,155,162,170,181,190,198,205,211,216,220,224,227,230,235,241,248,254,262,272,280,286,291,296,301,304,304,298,289,279,265,250,230,207,170,127,102,76,52,27,0,-32,-67,-91,-105,-117,-128,-141,-158,-181,-194,-202,-207,-210,-212,-215,-218,-221,-225,-229,-232,-236,-239,-242,-246,-250,-253,-255,-257,-258,-259,-259,-259,-259,-257,-255,-253,-251,-247,-244,-240,-236,-232,-229,-227,-224,-220,-218,-217,-215,-212,-210,-210,-210,-211,-212,-213,-212,-211,-209,-207,-204,-201,-198,-195,-191,-188,-185,-180,-175,-171,-170,-170,-169,-169,-171,-173,-174,-177,-179,-181,-183,-185,-185,-185,-184,-183,-182,-181,-181,-182,-182,-183,-183,-184,-186,-188,-189,-189,-189,-188,-185,-183,-179,-174,-169,-163,-155,-146,-138,-131,-125,-119,-115,-112,-108,-104,-100,-94,-87,-81,-75,-68,-61,-51,-40,-28,-19,-11,-6,-1,1,3,4,8,13,19,46,98,179,288,417,558,702,832,932,962,944,831,637,414,206,54,1,-17,3,42,65,71,75,80,80,72,60,49,38,31,27,26,27,32,40,49,59,76,100,114,123,130,132,133,134,137,139,139,140,143,144,146,149,152,156,166,178,188,198,208,217,227,237,247,257,264,271,278,283,285,284,282,278,271,262,248,225,205,180,153,133,118,101,77,47,17,-15,-43,-63,-78,-92,-110,-137,-158,-173,-182,-186,-187,-186,-186,-187,-189,-185,-165,-151,-140,-129,-120,-112,-104,-98,-93,-88,-84,-80,-77,-71,-64,-58,-51,-41,-30,-19,-8,0,6,9,11,11,11,11,13,18,23,29,35,40,45,50,54,58,61,64,67,69,71,72,73,74,74,75,75,76,77,77,78,79,79,79,79,80,80,81,82,83,85,86,87,88,88,88,88,88,88,88,89,91,93,95,99,103,107,110,113,116,119,123,125,127,130,132,135,138,140,142,143,144,144,143,142,141,140,139,138,137,136,135,132,129,127,126,124,123,122,121,119,117,114,105,100,104,116,135,162,202,258,336,434,554,690,833,972,1091,1159,1159,1093,922,697,458,256,144,105,118,144,158,161,163,142,129,122,117,112,108,104,101,101,104,109,115,121,127,133,138,142,146,151,156,161,166,171,175,178,180,182,185,189,196,210,224,239,254,268,279,290,299,305,309,313,316,319,321,323,323,322,319,315,310,302,294,283,263,246,224,197,170,139,105,70,35,3,-22,-50,-80,-111,-144,-175,-197,-215,-239,-257,-271,-280,-283,-285,-287,-288,-289,-289,-290,-291,-291,-289,-284,-278,-271,-265,-258,-250,-242,-235,-228,-220,-212,-204,-194,-184,-176,-170,-165,-162,-160,-158,-156,-153,-149,-147,-145,-143,-142,-143,-146,-149,-153,-158,-163,-167,-171,-174,-177,-179,-181,-185,-189,-193,-196,-199,-201,-201,-200,-198,-197,-195,-193,-190,-189,-188,-189,-189,-190,-191,-192,-193,-193,-192,-192,-190,-189,-188,-187,-187,-185,-183,-181,-179,-175,-170,-165,-160,-154,-148,-143,-137,-130,-118,-108,-100,-94,-89,-84,-82,-82,-83,-89,-96,-104,-111,-116,-120,-124,-127,-129,-130,-132,-133,-135,-137,-140,-142,-143,-144,-145,-146,-147,-149,-151,-155,-163,-171,-172,-165,-150,-102,-33,59,176,313,462,611,741,837,851,831,700,504,278,67,-84,-129,-145,-122,-108,-101,-95,-91,-86,-82,-77,-72,-68,-65,-63,-61,-57,-50,-35,-20,-6,7,22,37,52,62,69,75,80,85,89,93,97,102,110,125,143,161,178,198,219,240,262,280,296,310,323,334,347,354,355,356,358,360,356,333,302,262,225,187
