-104,-97,-87,-104,-114,-120,-125,-130,-134,-136,-137,-137,-138,-137,-136,-133,-129,-125,-120,-116,-113,-110,-105,-99,-93,-90,-90,-92,-97,-101,-105,-108,-111,-115,-119,-123,-126,-127,-126,-123,-120,-115,-111,-105,-99,-89,-78,-69,-60,-51,-39,-32,-33,-36,-38,-40,-43,-45,-45,-45,-45,-45,-44,-42,-38,-34,-29,-25,-22,-19,-16,-13,-11,-9,-7,-4,-2,0,4,8,12,15,18,21,22,24,25,26,28,30,33,36,39,42,44,46,47,48,48,49,50,51,51,52,53,53,54,53,53,52,52,52,52,54,55,56,56,56,56,56,56,55,55,54,53,51,49,48,47,46,46,44,43,44,52,65,85,114,128,134,140,144,148,150,151,149,145,140,134,129,124,118,113,107,101,96,90,84,77,66,44,2,-68,-156,-254,-350,-429,-467,-465,-412,-298,-159,-29,66,109,120,127,133,142,151,160,169,177,186,195,202,204,202,197,191,183,166,142,132,126,121,119,119,124,132,139,144,148,153,157,160,163,165,163,160,156,151,148,145,143,140,137,135,132,130,128,125,122,118,115,113,112,112,111,109,106,103,99,95,91,85,79,73,68,64,61,57,52,42,24,7,-12,-43,-70,-87,-101,-113,-128,-144,-155,-160,-163,-166,-168,-170,-171,-173,-174,-175,-176,-176,-175,-174,-171,-169,-165,-161,-156,-151,-147,-144,-141,-136,-127,-116,-108,-108,-112,-118,-123,-127,-131,-136,-141,-144,-144,-142,-138,-133,-128,-122,-112,-106,-112,-126,-135,-144,-152,-161,-170,-177,-188,-204,-228,-249,-271,-291,-300,-306,-312,-316,-309,-288,-226,-157,-130,-115,-105,-129,-162,-187,-189,-190,-192,-193,-185,-169,-157,-147,-137,-127,-119,-111,-98,-80,-62,-54,-50,-46,-42,-39,-35,-33,-30,-29,-27,-26,-26,-26,-27,-28,-30,-32,-33,-32,-31,-30,-28,-27,-25,-24,-23,-22,-21,-21,-22,-22,-22,-22,-22,-22,-22,-23,-24,-25,-26,-27,-28,-30,-32,-34,-36,-39,-42,-46,-51,-57,-62,-66,-71,-76,-81,-86,-91,-94,-98,-102,-108,-113,-117,-119,-119,-118,-116,-114,-112,-109,-105,-99,-92,-81,-65,-38,-23,-16,-11,-6,-3,0,4,7,9,12,16,26,52,66,70,73,76,78,80,81,83,84,86,87,88,89,89,89,89,89,89,89,90,91,92,93,94,95,95,95,95,96,97,97,100,107,105,90,80,73,67,62,61,62,65,69,72,76,81,85,86,82,74,66,61,56,52,48,45,43,44,47,52,56,61,65,69,75,80,83,83,80,75,70,65,62,58,53,48,44,43,42,44,47,50,55,61,70,86,92,93,95,98,86,78,74,70,67,66,66,68,72,75,79,82,87,91,95,97,95,90,84,78,75,72,70,67,65,63,62,61,59,57,55,53,51,49,47,45,43,42,39,36,31,21,2,1,0,-1,-2,4,15,23,30,37,41,43,41,36,31,26,22,17,13,8,5,3,1,0,-1,-1,0,4,8,13,16,19,22,27,34,39,42,41,38,34,32,31,29,27,24,22,20,18,17,15,14,13,14,15,16,18,19,20,22,24,26,28,31,39,44,41,35,32,29,26,24,24,24,26,29,33,37,42,50,58,59,53,43,30,14,6,2,0,-4,-7,-10,-10,-8,-5,-1,2,6,10,15,22,33,43,48,53,57,61,65,69,71,74,76,78,80,82,84,85,87,91,94,96,93,86,74,37,-6,-60,-125,-197,-279,-363,-425,-432,-405,-306,-174,-33,84,148,169,153,128,109,103,101,99,97,96,96,98,101,105,110,116,126,134,134,126,116,110,105,102,99,97,96,95,96,97,100,103,107,111,114,118,123,127,130,132,132,130,125,120,115,111,108,104,100,96,93,89,87,84,81,79,77,75,73,70,67,62,56,49,42,33,20,1,-12,-23,-31,-39,-48,-59,-80,-107,-126,-141,-156,-165,-170,-175,-179,-184,-189,-192,-195,-200,-206,-219,-238,-242,-244,-245,-246,-246,-247,-247,-246,-242,-238,-235,-231,-228,-225,-222,-220,-218,-217,-215,-212,-208,-205,-201,-198,-194,-190,-185,-180,-176,-169,-162,-156,-151,-146,-143,-140,-138,-136,-133,-131,-130,-130,-130,-130,-129,-128,-126,-125,-124,-122,-120,-117,-113,-109,-106,-104,-101,-97,-93,-88,-83,-78,-73,-68,-64,-60,-56,-53,-49,-46,-43,-40,-37,-34,-30,-27,-23,-20,-17,-14,-11,-8,-2,10,16,19,21,22,23,24,25,26,25,21,15,8,1,-4,-11,-18,-25,-30,-31,-27,-22,-15,-9,-3,4,13,18,18,13,8,3,-2,-6,-9,-9,-7,-2,4,12,21,34,46,57,67,74,80,86,92,96,98,97,93,87,80,74,67,60,50,40,31,22,9,-15,-56,-126,-211,-306,-396,-441,-456,-428,-346,-228,-110,-12,52,84,103,115,123,130,135,139,143,146,147,147,144,141,138,137,135,133,130,128,126,127,129,134,140,145,149,153,158,162,165,167,166,163,158,152,146,140,135,131,128,126,123,122,120,118,116,114,112,110,109,107,106,105,104,103,103,103,102,100,98,94,91,85,75,62,47,31,17,6,-4,-14,-23,-31,-39,-46,-53,-61,-69,-78,-87,-96,-104,-112,-120,-127,-133,-138,-141,-143,-146,-150,-155,-160,-163,-162,-156,-147,-135,-119,-94,-83,-75,-69,-65,-63,-65,-71,-77,-80,-83,-86,-88,-90,-91,-94,-96,-98,-100,-101,-101,-100,-101,-101,-102,-103,-103,-103,-103,-103,-103,-103,-102,-99,-96,-93,-91,-88,-86,-83,-81,-78,-76,-74,-72,-70,-68,-65,-61,-59,-56,-54,-52,-50,-48,-47,-46,-44,-43,-41,-39,-37,-34,-31,-27,-24,-21,-18,-16,-15,-13,-12,-11,-9,-7,-5,-1,2,6,9,12,13,14,15,16,16,15,14,12,11,10,9,8,7,7,6,7,7,6,5,4,3,2,2,1,0,-2,-3,-2,6,18,28,34,38,42,47,51,55,59,62,65,69,73,76,78,80,82,85,88,93,99,113,124,132,140,148,154,154,145,127,74,0,-93,-205,-325,-443,-544,-589,-584,-513,-368,-195,-44,66,140,171,186,197,201,197,190,187,185,184,182,180,178,176,174,172,171,170,170,171,172,175,176,177,177,175,174,173,173,172,171,169,167,166,165,164,163,162,160,158,157,155,154,152,150,148,146,145,144,143,141,139,137,136,135,135,134,133,132,131,130,128,124,120,106,75,55,43,33,20,8,0,-8,-15,-22,-28,-33,-39,-47,-59,-77,-88,-97,-103,-109,-118,-126,-135,-145,-150,-148,-145,-143,-140,-137,-134,-128,-121,-114,-108,-102,-96,-91,-89,-90,-92,-95,-97,-98,-100,-102,-105,-109,-111,-114,-116,-119,-122,-125,-127,-128,-129,-130,-131,-133,-134,-136,-138,-142,-145,-149,-152,-156,-160,-168,-190,-217,-241,-250,-255,-259,-262,-264,-267,-268,-268,-266,-264,-259,-254,-246,-215,-172,-122,-74,-39,-27,-27,-40,-74,-120,-146,-154,-139,-95,-52,-37,-28,-22,-14,-4,11,18,22,26,28,31,33,34,35,36,37,38,39,40,40,39,37,35,33,31,29,27,25,22,19,17,14,12,8,4,0,-4,-8,-10,-13,-15,-17,-19,-21,-23,-25,-27,-30,-32,-35,-38,-40,-42,-45,-49,-56,-68,-85,-96,-103,-109,-115,-122,-128,-134,-138,-142,-146,-150,-153,-154,-155,-154,-152,-150,-147,-143,-135,-119,-104,-87,-69,-50,-34,-22,-7,0,3,5,8,10,12,14,17,19,21,23,26,29,33,40,53,65,72,78,82,85,85,81,75,69,63,57,51,46,42,38,33,26,22,25,32,41,51,52,54,55,56,56,56,54,51,49,46,42,40,40,42,45,48,42,37,33,31,29,29,30,32,35,38,42,47,50,46,38,34,30,27,24,22,21,22,22,23,25,26,29,33,37,38,34,28,23,18,14,15,20,25,29,33,37,40,41,39,35,29,20,8,5,2,0,4,7,8,9,10,11,13,15,18,22,27,33,43,43,33,26,19,14,8,4,-3,-11,-5,11,45,56,61,65,56,43,32,20,5,-5,-12,-7,16,33,40,45,49,51,51,48,43,38,32,23,23,31,37,44,47,44,37,30,21,21,31,42,54,59,62,64,66,66,65,62,59,57,54,52,51,50,48,47,47,46,46,47,48,50,51,53,56,59,60,59,57,56,56,55,54,54,53,52,50,48,47,45,43,41,38,33,22,16,11,8,5,3,4,6,8,11,14,20,20,13,6,0,10,22,33,34,29,21,27,44,51,57,63,68,72,76,87,102,111,116,119,120,118,113,105,80,35,-32,-122,-230,-350,-473,-575,-624,-593,-475,-289,-85,74,140,162,155,146,139,147,158,166,157,141,128,123,118,116,122,134,144,153,159,159,154,148,144,141,139,136,134,131,129,126,124,121,118,114,108,97,97,107,115,123,128,128,125,119,112,103,91,78,66,61,57,54,55,64,70,74,78,81,82,83,82,80,77,72,66,54,31,7,-17,-43,-66,-78,-86,-91,-94,-93,-91,-89,-86,-83,-82,-88,-99,-109,-120,-130,-140,-158,-189,-212,-225,-234,-238,-236,-230,-223,-217,-210,-204,-198,-194,-190,-185,-181,-176,-173,-170,-168,-167,-163,-157,-172,-189,-204,-205,-193,-176,-152,-127,-104,-84,-72,-70,-67,-64,-77,-95,-110,-120,-126,-131,-135,-134,-128,-120,-112,-103,-94,-85,-77,-71,-66,-60,-55,-48,-43,-38,-34,-30,-26,-22,-19,-19,-21,-25,-30,-34,-38,-45,-49,-45,-37,-30,-25,-19,-11,-2,6,13,21,28,34,37,36,34,30,25,16,3,-2,-8,-11,-13,-12,-10,-9,-8,-7,-7,-6,-5,-4,-2,0,1,4,6,10,13,19,30,40,50,58,65,71,77,82,87,90,93,95,97,99,100,102,103,103,104,105,105,107,112,99,62,5,-80,-196,-332,-472,-585,-627,-617,-529,-372,-193,-29,88,132,145,154,162,168,175,184,188,183,171,161,149,142,146,156,166,176,185,194,201,208,213,214,210,203,196,187,178,170,167,165,164,162,161,160,159,159,158,157,156,155,154,154,153,153,153,152,152,150,149,148,146,144,142,138,135,131,128,125,121,117,112,104,90,75,62,51,40,30,23,19,15,11,6,0,-7,-14,-23,-34,-45,-54,-63,-78,-104,-119,-128,-134,-139,-140,-139,-134,-127,-117,-107,-95,-78,-65,-60,-57,-54,-51,-49,-47,-50,-57,-66,-79,-97,-108,-115,-122,-127,-130,-128,-120,-113,-110,-108,-107,-106,-104,-102,-100,-98,-96,-96,-96,-96,-96,-96,-96,-96,-96,-96,-95,-93,-92,-92,-92,-91,-90,-89,-87,-87,-87,-87,-87,-85,-84,-83,-83,-83,-83,-83,-82,-80,-78,-77,-73,-69,-63,-58,-50,-43,-37,-34,-30,-27,-24,-21,-19,-17,-15,-13,-11,-9,-9,-9,-10,-11,-13,-15,-17,-20,-23,-26,-28,-31,-33,-35,-37,-41,-44,-47,-49,-50,-49,-44,-37,-30,-23,-16,-8,0,6,11,16,19,22,25,28,32,35,38,41,44,47,51,55,60,67,78,97,105,114,121,106,61,-26,-142,-273,-410,-541,-650,-694,-687,-606,-461,-298,-156,-51,19,68,99,131,153,162,167,170,168,160,151,145,140,136,133,130,128,128,129,133,138,143,148,152,156,161,165,169,171,171,170,167,163,159,156,153,149,144,140,137,135,135,136,138,140,142,144,146,148,150,151,153,153,152,148,142,136,129,122,114,105,96,87,79,71,63,55,47,39,32,27,21,15,9,2,-4,-12,-19,-29,-50,-81,-104,-119,-129,-135,-140,-144,-147,-144,-138,-130,-124,-119,-115,-111,-107,-102,-97,-94,-91,-88,-85,-81,-78,-76,-76,-79,-83,-87,-91,-93,-96,-101,-105,-109,-111,-111,-110,-109,-107,-105,-102,-96,-91,-95,-106,-114,-123,-130,-133,-129,-120,-112,-108,-105,-101,-98,-96,-93,-91,-89,-87,-84,-81,-79,-77,-76,-75,-73,-72,-69,-67,-64,-60,-53,-46,-39,-34,-31,-28,-27,-25,-23,-22,-21,-21,-21,-20,-19,-17,-15,-14,-12,-11,-8,-6,-3,0,1,4,9,16,21,25,28,31,35,42,42,29,13,-2,-10,-15,-19,-23,-24,-22,-14,-5,4,17,24,21,15,11,7,4,3,6,13,22,27,32,36,39,43,47,51,55,59,63,66,70,75,79,83,88,92,97,104,113,126,135,140,147,154,143,110,52,-32,-141,-269,-403,-522,-585,-585,-523,-395,-252,-125,-28,39,88,129,173,206,218,218,206,197,190,184,180,180,181,185,188,192,196,200,202,200,195,190,187,183,179,175,172,170,170,171,171,172,172,173,174,177,178,179,177,173,170,167,165,164,162,161,159,158,157,156,154,152,149,146,144,143,141,139,136,129,113,93,83,76,71,66,62,57,53,49,47,43,39,33,19,-8,-39,-68,-87,-99,-110,-120,-128,-135,-140,-139,-131,-121,-117,-115,-112,-109,-107,-105,-102,-100,-96,-92,-88,-85,-84,-83,-81,-79,-76,-74,-72,-70,-69,-66,-63,-59,-57,-56,-56,-57,-57,-58,-59,-61,-63,-66,-70,-75,-79,-79,-73,-67,-63,-60,-56,-53,-50,-48,-47,-47,-48,-50,-54,-58,-64,-70,-80,-99,-110,-118,-124,-129,-130,-129,-124,-119,-114,-107,-102,-103,-114,-129,-150,-174,-178,-180,-182,-184,-184,-181,-172,-162,-151,-137,-124,-112,-99,-85,-73,-64,-54,-45,-40,-42,-48,-54,-61,-64,-61,-53,-47,-42,-39,-36,-35,-36,-37,-39,-41,-44,-48,-50,-43,-30,-22,-16,-11,-6,-2,0,3,5,7,8,9,10,12,13,15,16,17,15,9,1,-7,-18,-34,-44,-49,-53,-57,-60,-61,-60,-53,-43,-34,-26,-19,-10,-4,0,0,-3,-8,-15,-24,-37,-59,-73,-87,-100,-109,-114,-119,-123,-125,-121,-111,-100,-91,-82,-73,-67,-62,-57,-53,-49,-46,-42,-37,-30,-21,-12,-1,12,24,33,40,47,52,57,63,69,76,82,89,97,105,108,106,102,98,95,92,88,86,84,83,83,83,84,85,85,85,86,88,89,91,92,93,93,93,91,90,88,86,84,82,80,79,79,79,79,79,80,80,81,82,83,83,83,83,82,82,82,82,82,82,82,81,80,79,79,78,78,77,77,76,76,75,74,73,72,71,70,68,67,65,63,62,60,59,58,56,55,53,51,49,46,43,40,36,33,29,26,24,22,20,19,18,18,18,17,16,15,14,13,12,11,11,10,8,6,2,-9,-17,-21,-26,-30,-30,-25,-19,-15,-13,-10,-8,-5,-3,0,4,8,13,17,21,25,29,33,37,42,46,49,52,54,57,58,60,60,61,62,63,64,65,66,65,65,64,64,64,64,64,65,66,66,67,68,69,70,72,74,75,77,78,79,81,83,84,85,86,86,85,85,85,84,82,80,78,76,75,73,71,69,66,63,59,56,53,48,44,39,34,28,17,8,8,14,23,28,32,36,40,43,46,50,54,57,60,64,66,69,73,76,79,80,80,78,75,71,68,65,61,56,52,50,53,59,66,75,88,89,76,38,-32,-128,-238,-345,-432,-467,-463,-407,-306,-188,-79,4,57,86,109,124,132,136,139,141,141,141,141,139,135,130,124,116,104,97,94,90,87,85,86,94,104,112,121,128,127,119,110,102,94,87,82,80,78,77,74,72,69,68,68,70,72,75,78,81,85,89,92,92,90,84,75,64,47,30,19,12,6,1,-3,-8,-13,-19,-26,-35,-45,-54,-64,-81,-111,-134,-147,-156,-163,-169,-173,-176,-178,-180,-183,-186,-189,-193,-196,-200,-204,-210,-220,-238,-252,-261,-269,-275,-275,-269,-258,-248,-234,-222,-210,-202,-196,-191,-187,-182,-178,-173,-170,-168,-167,-165,-163,-161,-160,-158,-157,-155,-153,-150,-148,-147,-146,-146,-147,-147,-147,-146,-146,-145,-143,-140,-136,-132,-128,-125,-122,-119,-115,-112,-109,-107,-106,-105,-103,-101,-97,-93,-90,-86,-82,-78,-74,-70,-66,-63,-60,-58,-56,-53,-50,-48,-45,-42,-39,-35,-31,-27,-24,-20,-18,-16,-14,-13,-12,-11,-10,-9,-8,-6,-4,-1,0,3,5,7,8,9,8,6,4,2,0,0,-1,-2,-2,-3,-3,-4,-5,-7,-9,-9,-8,-5,0,5,14,38,56,66,73,77,80,81,81,83,85,87,85,80,74,69,65,72,85,97,110,115,111,101,72,10,-76,-189,-320,-456,-572,-615,-604,-502,-331,-151,-11,39,54,64,70,76,100,143,191,208,216,221,205,175,153,144,139,137,145,158,164,167,169,170,171,172,172,173,174,175,176,178,180,181,182,183,183,184,185,186,188,189,193,202,208,201,189,180,170,164,162,161,160,159,157,155,154,151,149,147,144,141,137,133,126,112,98,85,71,53,44,38,33,29,26,23,19,16,13,9,5,1,-4,-17,-45,-66,-79,-88,-93,-97,-99,-101,-103,-104,-103,-100,-96,-91,-86,-82,-78,-73,-69,-65,-64,-66,-72,-79,-88,-97,-107,-119,-130,-136,-140,-143,-146,-148,-151,-154,-156,-158,-158,-158,-157,-155,-153,-150,-148,-143,-144,-155,-163,-169,-174,-180,-187,-194,-202,-214,-239,-280,-318,-347,-362,-372,-370,-354,-342,-333,-324,-319,-312,-289,-237,-188,-174,-166,-161,-156,-151,-147,-144,-140,-135,-130,-125,-119,-114,-109,-103,-94,-76,-42,-28,-22,-17,-13,-11,-9,-7,-6,-4,-1,1,4,6,7,9,10,11,12,14,16,18,22,26,31,33,33,29,22,15,8,3,0,-5,-10,-14,-18,-19,-19,-18,-17,-15,-12,-9,-5,0,4,6,4,-1,-10,-20,-36,-56,-74,-90,-102,-113,-120,-126,-131,-134,-134,-133,-130,-126,-122,-117,-113,-109,-105,-102,-99,-94,-88,-78,-64,-58,-54,-52,-49,-46,-41,-35,-26,-10,13,36,61,79,90,96,97,92,86,81,74,69,67,70,75,78,81,85,86,86,85,84,83,82,81,80,79,77,76,76,76,76,77,79,82,85,90,94,102,114,119,122,125,123,112,103,95,85,75,66,57,51,50,56,63,71,81,89,95,101,106,109,108,101,94,88,83,77,72,68,64,62,59,56,52,47,44,43,44,46,48,50,52,57,55,41,34,30,27,24,23,23,22,21,19,18,17,15,14,13,13,12,12,12,12,13,13,12,12,11,7,5,9,15,19,21,24,26,27,28,29,31,32,33,33,32,31,29,26,24,20,15,13,14,14,15,16,16,17,18,19,19,19,19,19,17,15,13,11,9,7,6,5,4,2,0,-2,-3,-4,-5,-6,-6,-5,-3,0,6,11,15,19,23,29,35,42,46,46,44,41,36,29,18,0,-6,-12,-17,-16,-6,0,5,10,13,13,12,10,7,4,0,-3,1,10,19,28,33,28,17,3,-10,-12,-14,-16,-6,2,7,11,13,11,5,-2,-10,-15,-20,-27,-32,-36,-38,-37,-35,-32,-28,-24,-20,-13,-6,0,7,12,18,23,28,34,40,46,52,57,63,68,73,76,78,80,81,86,92,82,48,-12,-104,-224,-361,-495,-598,-627,-617,-538,-408,-257,-112,9,99,132,141,147,150,152,151,149,146,142,136,127,113,96,84,74,67,68,73,81,90,102,117,138,151,155,158,146,134,126,119,112,106,92,82,80,79,77,76,76,76,77,77,77,77,78,79,80,82,83,84,85,87,90,95,98,93,81,63,42,33,29,24,18,10,1,-11,-28,-37,-46,-56,-70,-79,-85,-90,-96,-102,-107,-112,-123,-142,-156,-165,-172,-179,-184,-188,-192,-197,-205,-214,-222,-230,-240,-247,-248,-245,-241,-237,-232,-227,-219,-211,-206,-201,-196,-192,-187,-184,-180,-178,-175,-172,-170,-167,-165,-163,-161,-158,-154,-150,-146,-143,-140,-139,-136,-134,-131,-128,-126,-124,-121,-119,-116,-113,-110,-108,-106,-104,-101,-98,-93,-88,-81,-72,-66,-63,-60,-57,-55,-53,-52,-50,-48,-47,-46,-45,-43,-41,-39,-36,-33,-30,-28,-25,-20,-13,-5,0,4,6,8,10,13,16,20,21,20,18,15,13,11,8,5,2,-1,-2,-2,-1,0,2,5,10,13,8,-2,-9,-16,-22,-27,-30,-29,-25,-19,-10,8,38,53,61,68,74,78,83,87,91,95,99,103,108,112,116,120,122,122,122,121,118,113,109,100,79,40,-28,-129,-257,-394,-517,-588,-592,-540,-408,-242,-78,54,119,137,148,155,160,164,168,171,174,176,178,180,181,181,182,183,184,186,188,190,191,191,191,192,192,191,190,188,184,181,177,175,174,174,174,174,172,170,168,166,163,160,155,150,146,143,141,139,134,128,122,119,119,121,122,124,124,126,129,132,133,130,123,113,97,69,46,28,13,3,-1,-5,-8,-11,-17,-23,-30,-37,-44,-53,-65,-78,-89,-98,-105,-110,-114,-120,-125,-128,-129,-126,-121,-115,-110,-106,-103,-100,-97,-94,-91,-89,-87,-85,-84,-84,-84,-85,-87,-89,-91,-93,-94,-96,-97,-98,-99,-99,-99,-99,-99,-99,-98,-97,-96,-95,-93,-91,-88,-86,-84,-84,-85,-87,-88,-90,-91,-93,-95,-98,-99,-95,-89,-81,-74,-71,-68,-66,-63,-61,-59,-57,-55,-53,-51,-49,-47,-46,-44,-43,-41,-40,-38,-36,-34,-31,-27,-22,-17,-13,-8,-3,1,6,9,12,13,13,12,11,11,11,11,10,10,10,9,9,7,5,1,-1,-4,-4,-3,-1,0,3,8,12,9,4,2,0,-2,-6,-8,-10,-12,-13,-14,-13,-11,-7,-1,5,12,19,28,44,61,78,86,93,98,103,107,111,114,116,116,116,115,113,110,104,98,90,80,36,-38,-142,-271,-411,-542,-627,-655,-621,-520,-345,-155,8,114,159,170,174,177,181,184,187,189,190,191,193,194,194,195,195,195,195,194,193,192,192,192,192,192,193,193,192,192,192,192,192,191,189,187,185,184,183,182,181,180,179,178,177,174,169,163,157,155,155,156,158,161,163,167,174,179,174,163,153,145,137,126,114,100,83,62,40,18,4,-5,-14,-21,-29,-35,-40,-44,-48,-55,-64,-75,-85,-93,-100,-104,-109,-114,-120,-124,-127,-130,-132,-136,-141,-145,-147,-146,-140,-132,-125,-121,-117,-113,-109,-105,-102,-100,-98,-98,-97,-98,-98,-99,-100,-100,-101,-101,-102,-103,-104,-105,-107,-109,-110,-111,-111,-110,-109,-108,-106,-103,-101,-101,-103,-104,-106,-108,-110,-111,-112,-112,-113,-114,-113,-110,-106,-101,-96,-92,-88,-83,-76,-69,-62,-55,-49,-45,-42,-39,-37,-35,-35,-34,-34,-33,-32,-31,-30,-29,-28,-27,-26,-24,-23,-22,-20,-19,-16,-14,-10,0,20,28,32,36,39,41,41,39,36,32,29,25,21,16,12,9,9,11,13,15,16,19,23,29,32,32,28,22,17,14,10,5,0,-4,-5,-2,2,7,11,15,19,25,33,42,52,60,64,68,71,75,79,82,85,87,90,93,96,98,99,99,100,102,106,113,118,111,94,46,-30,-138,-268,-402,-516,-575,-576,-523,-407,-275,-152,-52,21,77,127,176,216,231,231,217,200,184,172,166,161,156,153,152,152,154,156,159,161,163,165,167,170,173,174,175,175,174,173,171,168,165,162,158,154,151,150,149,147,145,142,139,135,132,128,124,119,114,111,108,107,105,104,102,99,97,94,91,88,83,79,75,72,68,65,60,55,45,26,13,0,-12,-28,-51,-75,-91,-100,-109,-119,-128,-137,-147,-152,-149,-145,-143,-141,-139,-136,-134,-133,-131,-129,-128,-125,-122,-119,-114,-109,-105,-100,-95,-92,-89,-87,-85,-80,-73,-74,-90,-98,-104,-109,-113,-116,-118,-119,-120,-119,-118,-116,-115,-112,-109,-106,-103,-97,-92,-89,-92,-98,-105,-110,-117,-122,-125,-122,-115,-106,-93,-77,-73,-71,-69,-68,-67,-67,-70,-75,-79,-84,-90,-95,-97,-96,-93,-87,-78,-59,-42,-30,-27,-27,-26,-25,-24,-24,-26,-30,-32,-35,-37,-39,-39,-37,-31,-23,-7,6,9,11,12,13,14,14,15,14,13,12,10,8,5,1,-2,-8,-14,-14,-8,0,6,12,18,22,23,22,21,20,19,16,14,15,22,31,38,46,52,51,45,37,31,26,20,14,7,1,-6,-17,-22,-18,-9,1,14,24,35,46,58,76,90,96,100,91,86,82,79,78,77,76,77,79,83,87,94,107,130,145,156,156,140,99,22,-85,-216,-353,-473,-550,-557,-521,-404,-246,-79,55,114,117,94,82,92,123,185,233,251,252,241,226,204,184,171,168,167,165,164,167,173,175,177,179,181,182,182,182,181,178,174,169,165,161,156,150,145,143,144,148,153,159,166,176,182,178,169,154,135,127,124,122,121,119,117,114,111,107,104,100,96,89,77,67,59,51,43,34,26,18,11,4,-1,-7,-16,-28,-44,-61,-77,-89,-100,-108,-118,-128,-134,-139,-144,-147,-150,-151,-150,-148,-143,-139,-134,-130,-126,-122,-118,-114,-110,-107,-104,-102,-100,-98,-97,-96,-95,-94,-91,-88,-85,-83,-85,-90,-95,-100,-104,-107,-111,-114,-118,-120,-121,-121,-120,-119,-118,-116,-112,-108,-104,-100,-96,-92,-86,-81,-79,-79,-81,-85,-90,-97,-108,-114,-120,-126,-110,-100,-95,-91,-87,-84,-80,-77,-73,-69,-65,-61,-58,-55,-53,-52,-50,-49,-48,-46,-45,-43,-41,-38,-35,-30,-26,-22,-20,-18,-16,-14,-11,-10,-8,-8,-6,-5,-2,0,0,1,2,3,5,6,7,7,6,6,7,9,11,12,13,13,14,16,18,20,21,22,23,25,28,30,32,34,35,36,38,40,41,42,43,43,44,45,47,48,48,49,50,50,52,54,55,57,62,66,66,58,48,39,29,18,9,0,-9,-20,-26,-20,-9,3,19,35,51,66,72,74,76,78,80,81,83,85,87,91,95,100,105,109,113,119,124,129,133,136,140,145,152,156,151,138,101,43,-44,-165,-313,-468,-599,-658,-654,-571,-411,-229,-69,45,113,139,147,151,155,158,162,166,171,176,181,186,193,198,202,202,198,193,186,179,168,157,146,138,130,123,120,122,129,139,152,169,178,185,192,195,190,178,161,132,114,105,98,92,89,90,94,101,108,115,121,128,136,143,147,146,142,136,130,119,94,75,64,53,40,28,18,10,2,-5,-13,-19,-26,-32,-41,-53,-65,-76,-87,-98,-111,-125,-140,-149,-156,-162,-167,-170,-173,-174,-175,-174,-172,-168,-163,-158,-153,-149,-144,-139,-130,-120,-112,-108,-109,-113,-118,-123,-127,-133,-139,-144,-145,-141,-136,-130,-126,-124,-121,-118,-115,-111,-109,-109,-110,-112,-114,-116,-117,-119,-121,-124,-127,-128,-128,-124,-118,-113,-108,-104,-100,-94,-89,-85,-83,-84,-87,-91,-94,-98,-103,-109,-116,-118,-114,-105,-96,-91,-88,-86,-83,-81,-78,-76,-73,-70,-66,-63,-62,-61,-60,-59,-59,-58,-57,-56,-52,-45,-37,-36,-38,-43,-47,-51,-55,-57,-53,-44,-35,-26,-14,-5,-3,-8,-15,-21,-28,-34,-37,-32,-22,-11,-4,3,11,17,20,20,19,16,14,12,9,6,5,6,11,18,25,28,31,33,36,38,40,44,48,51,54,56,57,57,58,59,59,61,62,67,80,79,64,53,45,39,35,35,40,47,54,62,73,79,70,49,15,-8,-13,-17,-19,-15,-2,15,43,71,91,100,107,110,109,106,104,102,100,98,97,98,102,107,114,121,130,143,155,166,175,186,197,202,196,176,122,36,-74,-204,-353,-511,-649,-707,-699,-595,-407,-191,8,157,203,218,190,166,151,141,135,136,143,152,161,167,171,175,179,182,185,187,187,186,184,182,180,179,179,178,178,177,175,172,169,165,162,158,155,152,149,148,147,147,146,144,142,139,136,132,129,126,123,121,120,119,119,118,117,115,114,112,110,107,103,97,91,84,76,65,48,33,21,13,8,2,-3,-13,-24,-36,-48,-62,-81,-99,-113,-124,-128,-132,-135,-138,-141,-144,-146,-147,-148,-148,-149,-150,-150,-150,-149,-148,-146,-145,-142,-139,-136,-132,-129,-127,-124,-122,-119,-117,-116,-115,-113,-110,-106,-102,-100,-99,-99,-99,-99,-100,-101,-103,-106,-109,-110,-112,-113,-116,-120,-125,-129,-130,-127,-121,-115,-110,-107,-104,-101,-99,-97,-95,-95,-94,-92,-91,-89,-88,-87,-86,-85,-83,-81,-79,-77,-77,-76,-75,-74,-72,-70,-69,-67,-63,-57,-52,-47,-45,-45,-48,-51,-54,-58,-63,-73,-70,-43,-28,-17,-7,0,5,7,6,5,3,0,-2,-4,-8,-11,-14,-15,-15,-11,-6,-1,3,6,10,13,16,19,21,24,26,29,32,35,37,39,40,40,40,40,40,41,42,44,49,54,60,63,62,60,55,50,45,37,30,30,38,48,54,59,64,68,72,74,74,71,66,59,51,41,30,13,-1,-9,-15,-21,-28,-34,-32,-19,0,16,34,52,68,82,91,98,105,110,114,116,118,119,118,118,117,116,115,113,110,106,99,95,103,118,131,145,152,146,130,88,0,-113,-243,-385,-526,-620,-652,-616,-507,-314,-112,47,102,119,103,82,67,99,155,193,210,221,200,185,176,169,165,163,161,159,157,154,151,148,145,144,142,140,138,136,134,133,133,133,134,135,136,137,138,138,138,138,138,140,147,145,125,114,107,100,95,90,88,88,88,88,89,91,93,96,100,102,102,98,91,84,76,67,56,42,27,10,-7,-22,-35,-42,-47,-52,-57,-62,-68,-74,-81,-88,-96,-107,-123,-134,-138,-141,-142,-144,-146,-148,-150,-151,-151,-151,-150,-148,-145,-140,-134,-127,-121,-114,-109,-103,-95,-85,-76,-70,-70,-74,-78,-83,-86,-88,-90,-93,-96,-99,-101,-101,-101,-101,-101,-100,-99,-97,-95,-93,-92,-91,-91,-90,-90,-89,-89,-88,-87,-85,-83,-82,-81,-81,-82,-81,-81,-80,-79,-79,-77,-76,-73,-70,-68,-66,-64,-62,-61,-60,-59,-58,-57,-56,-55,-53,-50,-48,-45,-43,-40,-37,-34,-32,-30,-29,-27,-26,-25,-24,-23,-22,-21,-20,-19,-19,-18,-17,-16,-14,-12,-9,-8,-6,-5,-4,-3,-3,-2,-2,0,1,7,14,20,24,25,23,18,13,7,-1,-7,-2,7,10,12,15,19,23,26,30,33,35,37,38,39,39,38,37,37,36,34,33,30,28,25,23,20,16,12,8,4,0,-5,-10,-14,-15,-12,-6,0,8,14,17,21,25,29,33,38,42,46,51,56,59,62,63,64,67,70,76,91,120,132,139,145,150,153,155,155,153,148,141,130,88,23,-76,-201,-335,-465,-574,-642,-647,-601,-470,-295,-111,53,133,160,134,99,74,86,125,176,195,202,194,180,173,169,165,162,159,156,153,149,146,143,141,140,141,143,145,147,148,149,149,148,148,148,148,148,148,148,150,151,152,152,153,152,149,145,140,133,124,107,99,96,93,89,87,93,105,114,123,130,134,134,127,117,107,98,87,75,62,49,34,19,2,-12,-25,-37,-46,-53,-59,-65,-71,-75,-81,-88,-102,-129,-143,-150,-156,-161,-164,-164,-162,-158,-153,-147,-142,-137,-131,-123,-115,-107,-100,-94,-89,-82,-77,-73,-72,-73,-76,-79,-81,-83,-85,-89,-93,-97,-98,-97,-96,-94,-92,-91,-90,-89,-87,-86,-85,-85,-86,-88,-92,-96,-100,-104,-107,-112,-117,-120,-120,-116,-106,-96,-88,-84,-80,-76,-73,-71,-69,-67,-65,-63,-60,-58,-57,-56,-55,-54,-52,-51,-51,-52,-52,-51,-49,-47,-44,-42,-40,-38,-34,-31,-28,-25,-24,-22,-19,-16,-13,-10,-8,-6,-3,0,3,6,8,9,10,11,13,15,16,17,18,18,18,19,20,21,22,23,24,26,27,29,30,32,34,35,37,38,39,38,38,37,36,36,36,35,33,31,30,28,27,26,24,21,18,14,11,7,0,-5,-11,-13,-11,-5,2,10,18,25,33,42,51,59,65,70,74,79,83,88,92,95,98,101,104,107,109,110,109,107,104,101,95,88,79,68,45,25,-24,-95,-195,-321,-457,-553,-584,-548,-438,-257,-82,45,100,115,124,130,135,140,145,151,158,164,166,163,156,147,141,133,127,123,126,132,140,147,155,163,166,162,153,144,137,129,122,116,113,113,115,118,120,121,123,125,127,130,132,134,134,133,131,126,121,115,109,104,99,94,89,84,80,76,73,69,66,62,57,52,47,42,36,29,23,18,12,7,1,-5,-15,-30,-44,-60,-78,-99,-122,-134,-142,-150,-156,-160,-162,-162,-161,-159,-154,-149,-143,-137,-131,-122,-115,-109,-107,-105,-103,-101,-100,-99,-97,-96,-93,-92,-90,-89,-88,-88,-88,-88,-88,-88,-88,-87,-84,-80,-78,-76,-77,-78,-81,-85,-89,-95,-100,-99,-94,-89,-83,-83,-94,-99,-103,-105,-107,-108,-108,-109,-109,-108,-106,-104,-102,-100,-99,-98,-97,-95,-93,-90,-87,-84,-81,-78,-75,-72,-68,-64,-57,-42,-34,-29,-25,-20,-17,-17,-23,-31,-36,-42,-48,-52,-54,-51,-45,-37,-30,-26,-22,-18,-13,-9,-5,-2,1,4,7,9,10,10,9,8,9,9,10,11,12,16,20,21,20,19,18,16,14,13,15,19,22,24,27,30,32,35,35,32,28,24,21,19,17,14,10,6,3,1,0,-1,-3,-3,-2,0,1,4,7,10,14,19,24,29,34,39,47,56,64,71,76,80,84,87,91,95,98,100,101,102,102,102,102,100,98,93,87,80,54,8,-62,-150,-244,-336,-417,-466,-482,-456,-377,-236,-89,30,106,134,138,139,140,142,143,144,145,146,152,159,168,178,193,201,195,181,165,147,142,140,139,139,141,151,161,168,173,178,182,185,185,183,179,174,170,166,164,161,159,157,156,155,153,151,148,145,142,139,137,134,132,131,130,129,128,126,123,118,113,107,101,96,91,86,82,77,71,63,51,38,24,7,-12,-33,-56,-76,-85,-89,-92,-95,-96,-98,-100,-103,-105,-109,-113,-119,-132,-149,-158,-163,-147,-132,-124,-117,-110,-103,-98,-95,-93,-90,-88,-86,-83,-80,-79,-77,-77,-76,-77,-77,-78,-78,-78,-79,-79,-78,-77,-75,-75,-75,-77,-80,-83,-86,-88,-90,-93,-95,-96,-96,-96,-97,-98,-98,-98,-97,-96,-94,-94,-94,-94,-92,-91,-89,-87,-86,-84,-82,-79,-78,-76,-75,-74,-72,-70,-67,-65,-64,-62,-60,-56,-51,-46,-42,-40,-38,-35,-31,-26,-22,-19,-16,-14,-11,-8,-5,-4,-5,-5,-5,-4,-3,-2,-1,-1,0,1,3,5,6,6,5,4,5,5,6,6,6,6,6,7,8,10,11,11,12,13,14,15,16,16,17,18,21,25,28,26,20,12,5,1,-1,-5,-10,-14,-17,-20,-21,-21,-20,-18,-16,-13,-8,-2,4,18,46,57,62,66,69,72,74,75,77,79,81,82,82,82,81,80,79,78,77,75,71,68,65,62,40,-5,-79,-179,-292,-405,-493,-532,-530,-482,-372,-224,-76,37,72,82,89,95,100,121,165,178,182,185,182,168,157,148,141,135,129,122,114,101,95,99,110,127,153,171,181,188,188,181,169,147,125,118,112,108,106,107,109,113,116,120,123,124,122,119,115,113,110,106,102,98,95,92,89,87,85,83,81,80,79,77,73,68,62,56,50,41,24,11,2,-7,-16,-26,-36,-45,-54,-63,-73,-84,-104,-132,-146,-154,-160,-162,-157,-149,-141,-136,-133,-131,-128,-126,-125,-125,-124,-122,-119,-115,-112,-109,-108,-106,-104,-101,-98,-95,-93,-91,-87,-82,-77,-73,-72,-74,-76,-78,-81,-82,-84,-87,-90,-93,-95,-97,-99,-99,-98,-96,-94,-90,-86,-81,-72,-72,-83,-89,-94,-98,-101,-103,-103,-101,-99,-96,-91,-86,-80,-71,-63,-58,-56,-53,-49,-46,-46,-52,-59,-65,-70,-74,-77,-79,-80,-79,-76,-71,-64,-51,-26,-6,6,12,7,-2,-14,-28,-42,-55,-67,-71,-75,-78,-66,-46,-25,-11,0,11,17,22,27,30,31,30,28,25,24,23,22,20,19,17,16,16,15,15,15,15,16,18,19,20,20,20,21,23,25,26,28,32,34,30,23,16,9,3,2,7,15,24,36,40,40,41,43,21,6,-2,-10,-16,-19,-21,-19,-16,-11,-5,2,13,33,45,56,68,81,90,97,103,104,102,100,97,95,93,92,91,93,96,100,105,111,119,125,122,113,85,29,-58,-178,-321,-465,-583,-635,-629,-544,-378,-193,-46,9,27,22,14,22,79,143,179,193,192,174,158,142,133,139,151,158,165,172,175,175,171,164,156,148,136,130,135,144,152,161,165,160,149,140,131,124,120,118,117,115,114,112,111,110,109,108,106,104,103,102,101,101,100,98,95,92,90,87,85,84,82,80,78,76,73,69,63,56,47,30,0,-18,-29,-38,-49,-59,-67,-74,-81,-89,-98,-106,-115,-124,-135,-145,-148,-149,-149,-150,-151,-152,-153,-153,-148,-140,-132,-126,-119,-113,-107,-103,-100,-98,-96,-95,-93,-90,-88,-86,-85,-84,-82,-80,-78,-77,-76,-77,-77,-76,-73,-71,-70,-71,-74,-77,-81,-84,-86,-89,-93,-97,-100,-101,-100,-95,-89,-83,-78,-73,-67,-61,-55,-50,-48,-48,-50,-53,-55,-57,-59,-62,-65,-68,-71,-72,-72,-69,-65,-60,-55,-50,-46,-42,-37,-33,-30,-27,-24,-21,-19,-18,-17,-16,-16,-15,-14,-14,-13,-12,-11,-10,-9,-8,-7,-5,-4,-3,-1,-1,0,0,1,2,3,5,7,8,9,11,13,15,18,20,22,23,24,24,25,25,25,24,22,21,21,21,21,22,22,22,22,21,21,20,17,14,13,12,11,11,12,13,12,8,2,0,-2,-4,-7,-10,-12,-14,-14,-11,-7,-1,5,12,22,38,55,71,80,86,92,96,100,104,107,109,111,112,113,115,117,120,124,128,126,118,103,59,-4,-91,-197,-313,-433,-542,-623,-633,-601,-472,-299,-126,16,108,130,133,134,135,136,138,139,139,136,133,129,124,115,115,129,153,170,174,177,179,177,168,157,150,144,139,135,131,129,126,123,120,116,110,105,104,106,108,110,112,113,113,114,114,114,114,111,107,102,98,94,91,87,84,82,80,78,76,74,71,68,66,64,62,59,55,51,43,27,17,8,0,-14,-35,-51,-64,-74,-83,-92,-99,-104,-108,-111,-113,-116,-118,-120,-122,-124,-126,-127,-127,-127,-126,-124,-121,-118,-114,-109,-104,-99,-94,-90,-82,-74,-68,-64,-63,-62,-60,-58,-55,-52,-51,-50,-50,-51,-51,-52,-53,-56,-60,-64,-67,-70,-73,-77,-80,-83,-84,-82,-78,-72,-66,-60,-56,-51,-46,-42,-38,-36,-35,-35,-36,-38,-39,-42,-45,-50,-57,-63,-62,-54,-44,-39,-37,-34,-32,-31,-29,-28,-26,-24,-21,-19,-18,-17,-15,-13,-12,-10,-10,-9,-9,-8,-6,-4,-3,-2,0,0,3,6,8,10,10,10,9,8,7,6,4,4,3,4,5,6,7,8,9,10,11,12,13,15,16,18,19,21,23,24,25,25,26,26,25,24,23,20,18,15,13,10,6,2,0,-3,-6,-11,-17,-23,-27,-27,-23,-16,-7,0,6,14,22,30,39,47,55,61,68,75,83,89,93,95,97,99,103,107,110,113,114,114,111,107,101,94,85,66,37,-38,-167,-326,-494,-640,-703,-696,-593,-419,-236,-70,54,97,107,115,122,127,131,134,136,137,137,137,137,137,136,136,137,139,141,142,144,145,146,145,144,143,140,136,129,122,115,102,83,85,87,88,88,88,91,98,105,110,116,122,124,123,119,114,107,97,85,69,56,43,33,31,34,39,44,49,54,56,55,49,41,34,29,24,19,13,8,2,-1,-5,-11,-18,-34,-62,-85,-101,-117,-131,-144,-148,-150,-152,-154,-156,-156,-151,-145,-141,-139,-137,-134,-131,-126,-121,-116,-111,-106,-101,-97,-93,-90,-88,-86,-83,-81,-78,-75,-72,-70,-68,-67,-66,-66,-67,-67,-67,-68,-68,-68,-67,-66,-66,-65,-65,-65,-66,-66,-65,-64,-64,-63,-62,-61,-60,-58,-56,-54,-53,-52,-51,-51,-50,-48,-47,-45,-45,-44,-43,-42,-40,-37,-35,-34,-32,-29,-26,-21,-18,-15,-13,-12,-12,-10,-9,-8,-7,-5,-1,1,0,-2,-5,-8,-11,-13,-14,-13,-11,-8,-6,-3,-1,0,3,6,9,11,13,15,17,17,16,16,16,16,16,17,18,19,21,23,25,26,26,25,25,23,21,18,13,9,5,1,-1,-5,-12,-19,-25,-24,-18,-9,-1,2,6,10,14,19,23,27,30,32,35,37,39,41,44,47,53,60,72,87,102,118,130,136,141,147,153,156,149,134,110,78,49,18,-32,-96,-170,-258,-360,-472,-573,-605,-589,-475,-294,-105,44,113,138,147,140,124,95,73,64,58,79,112,149,178,196,199,203,206,188,168,153,143,135,130,127,125,123,121,119,119,119,121,123,126,129,133,139,151,158,150,136,130,127,125,123,121,119,117,114,112,109,106,104,102,101,101,101,100,99,97,95,89,76,64,53,45,39,34,29,23,16,8,0,-7,-15,-23,-29,-35,-40,-45,-51,-58,-69,-79,-88,-98,-111,-129,-141,-149,-155,-160,-161,-160,-156,-149,-141,-128,-102,-86,-76,-69,-64,-59,-54,-48,-45,-47,-52,-56,-59,-62,-65,-67,-66,-65,-61,-57,-53,-47,-43,-50,-63,-72,-78,-85,-91,-99,-107,-116,-125,-138,-157,-170,-179,-190,-202,-213,-219,-224,-228,-232,-234,-233,-229,-221,-211,-202,-191,-178,-165,-154,-146,-139,-131,-124,-115,-107,-100,-91,-76,-49,-29,-16,-6,3,9,13,17,21,25,29,33,37,42,47,53,62,70,73,69,62,54,49,44,40,37,34,32,30,28,27,26,24,23,21,19,14,11,14,19,24,27,31,32,28,20,11,4,0,-6,-11,-16,-21,-27,-33,-38,-43,-49,-54,-60,-65,-69,-73,-76,-79,-84,-91,-100,-107,-115,-127,-140,-124,-114,-111,-107,-104,-101,-98,-95,-93,-90,-88,-85,-81,-76,-66,-40,-14,2,16,27,37,49,63,71,78,84,89,92,93,92,88,84,80,77,75,71,67,63,62,62,63,66,70,74,80,87,100,111,121,128,135,140,140,134,125,117,108,98,88,79,74,68,63,59,56,56,60,67,75,82,88,95,103,110,114,115,112,108,101,93,83,65,58,54,49,46,44,44,48,54,61,66,71,76,81,83,83,81,78,73,67,60,48,43,42,42,41,40,40,39,38,37,36,34,32,30,28,27,26,25,24,22,20,19,18,16,14,11,8,6,5,5,4,3,2,0,-1,-2,-4,-6,-9,-12,-14,-15,-16,-17,-16,-15,-13,-11,-8,-4,-1,1,6,14,22,23,15,6,1,-2,-6,-9,-11,-13,-14,-14,-13,-12,-10,-7,-3,0,2,5,9,12,16,17,17,15,12,9,6,3,0,-3,-7,-9,-10,-8,-4,0,4,9,18,25,26,20,11,6,1,-3,-7,-10,-11,-10,-9,-6,-3,0,0,3,5,7,9,11,12,14,15,16,16,16,15,14,12,11,9,7,5,2,0,-3,-6,-8,-11,-15,-19,-23,-25,-27,-27,-27,-26,-25,-22,-18,-12,0,22,32,37,41,44,47,49,50,52,53,55,57,59,63,65,63,54,40,27,11,0,-7,-33,-80,-159,-271,-404,-526,-585,-583,-513,-377,-222,-80,29,104,144,159,159,140,110,83,70,60,61,80,102,122,123,124,125,123,113,106,101,97,95,95,96,97,98,99,100,102,104,105,106,107,107,108,109,109,109,110,112,116,96,85,81,77,74,72,70,69,67,65,64,62,60,59,58,58,58,57,56,55,54,51,48,45,39,24,7,-9,-25,-41,-51,-56,-61,-65,-70,-75,-79,-83,-88,-95,-106,-118,-129,-143,-158,-170,-178,-185,-191,-198,-207,-215,-225,-237,-244,-239,-229,-220,-210,-198,-184,-166,-148,-145,-140,-136,-146,-154,-160,-164,-168,-169,-167,-159,-149,-139,-130,-120,-109,-99,-92,-87,-82,-72,-59,-55,-52,-50,-49,-48,-50,-55,-62,-69,-76,-86,-94,-93,-85,-74,-67,-62,-57,-53,-49,-45,-41,-37,-34,-30,-27,-25,-22,-20,-19,-18,-18,-17,-16,-16,-15,-14,-12,-10,-8,-7,-5,-4,-3,-2,-1,0,0,0,3,7,10,12,11,9,5,3,1,0,-2,-5,-8,-11,-13,-14,-14,-14,-13,-10,-7,-2,2,7,11,14,16,20,23,26,29,31,34,38,41,45,48,50,51,53,55,59,62,65,67,70,74,77,80,79,78,75,69,62,50,7,-101,-252,-411,-538,-571,-558,-454,-307,-155,-26,51,75,80,83,85,88,93,98,105,111,120,132,139,138,137,136,136,137,138,140,141,143,144,146,149,154,158,163,169,178,186,186,179,169,159,146,133,121,110,98,92,98,110,119,126,133,139,143,146,149,153,160,158,141,129,120,110,102,95,89,84,80,75,70,63,57,51,46,40,32,23,15,7,0,-5,-11,-18,-26,-35,-43,-53,-73,-99,-109,-115,-119,-122,-123,-123,-123,-124,-123,-121,-117,-113,-108,-103,-95,-78,-63,-52,-43,-37,-34,-39,-48,-57,-63,-71,-79,-85,-87,-85,-79,-72,-66,-63,-58,-53,-48,-43,-41,-43,-47,-54,-62,-70,-80,-94,-108,-117,-124,-138,-155,-162,-167,-171,-174,-175,-174,-171,-166,-160,-154,-148,-142,-136,-130,-124,-117,-109,-101,-94,-86,-80,-74,-69,-64,-59,-55,-52,-50,-48,-47,-45,-43,-41,-39,-38,-36,-33,-31,-28,-25,-23,-21,-19,-15,-10,-5,0,4,8,12,19,29,26,5,-6,-13,-20,-26,-30,-33,-35,-37,-38,-38,-36,-34,-31,-29,-26,-23,-21,-17,-12,-7,-3,-4,-9,-17,-26,-35,-46,-57,-67,-75,-81,-87,-93,-98,-102,-104,-105,-105,-105,-105,-105,-105,-104,-103,-101,-100,-100,-99,-96,-91,-86,-79,-70,-53,-38,-26,-16,-7,2,9,14,18,22,26,30,32,35,38,42,46,51,54,57,60,65,71,76,79,79,76,71,66,63,61,57,53,49,47,46,48,52,57,62,66,69,72,75,78,80,80,81,81,82,83,84
