-254,-344,-439,-537,-633,-715,-769,-815,-855,-866,-874,-879,-880,-879,-876,-870,-861,-848,-824,-788,-758,-733,-716,-705,-718,-731,-739,-744,-743,-735,-720,-678,-633,-590,-520,-430,-366,-332,-300,-276,-264,-258,-252,-244,-233,-219,-202,-191,-177,-158,-128,-75,-7,68,126,147,160,177,209,234,246,254,259,263,264,265,267,269,274,280,267,254,246,240,238,241,247,258,273,301,335,369,406,437,462,491,509,517,523,527,533,539,544,549,562,591,619,638,652,673,689,693,695,697,698,700,705,712,720,729,736,744,752,760,766,772,778,787,799,805,802,792,777,756,721,671,645,603,557,500,450,396,327,271,244,222,196,180,172,166,160,155,151,147,139,128,130,149,166,183,199,213,227,241,241,223,197,172,161,155,148,137,125,115,108,101,92,83,73,64,53,41,29,17,8,1,-2,-5,-9,-13,-16,-18,-19,-20,-22,-24,-27,-28,-28,-27,-27,-28,-27,-26,-24,-24,-27,-31,-35,-35,-28,-18,-12,-6,-1,3,8,13,16,21,40,90,146,204,280,361,407,423,406,354,270,174,70,-23,-92,-114,-124,-119,-73,-22,7,29,46,61,73,82,87,79,60,30,-2,-22,-37,-57,-70,-81,-90,-95,-94,-90,-85,-79,-71,-72,-87,-111,-129,-132,-134,-136,-138,-140,-141,-142,-143,-143,-141,-139,-134,-129,-124,-119,-107,-80,-52,-23,-4,7,12,6,-6,-21,-39,-53,-85,-133,-165,-174,-181,-185,-188,-188,-183,-176,-165,-151,-130,-99,-88,-75,-50,-15,14,61,97,109,115,117,117,113,105,80,35,-28,-76,-89,-97,-105,-112,-116,-121,-129,-139,-124,-115,-109,-103,-99,-97,-99,-103,-109,-116,-125,-138,-160,-163,-149,-129,-100,-75,-58,-44,-10,35,84,102,114,126,138,156,168,175,180,184,190,196,203,209,213,216,219,222,224,227,231,235,239,242,245,249,254,281,332,362,372,377,378,375,370,364,352,325,291,264,247,236,232,236,247,260,271,261,251,243,245,265,283,302,302,283,267,256,244,231,216,183,160,155,151,152,157,167,161,110,56,35,26,23,20,13,2,-12,-27,-44,-59,-72,-114,-178,-228,-246,-255,-255,-249,-241,-236,-232,-227,-219,-207,-191,-160,-129,-118,-111,-107,-103,-102,-104,-111,-121,-141,-164,-178,-187,-179,-174,-171,-169,-169,-168,-167,-164,-162,-159,-157,-156,-154,-151,-131,-79,-59,-48,-41,-58,-79,-97,-108,-123,-147,-177,-201,-219,-230,-213,-192,-173,-158,-139,-111,-75,-51,-43,-37,-33,-30,-29,-30,-33,-37,-42,-47,-54,-62,-69,-79,-111,-159,-208,-253,-268,-273,-266,-252,-236,-218,-200,-175,-149,-135,-125,-127,-150,-185,-226,-253,-270,-283,-295,-308,-323,-324,-310,-293,-275,-262,-250,-237,-223,-187,-136,-70,8,104,224,359,483,573,583,539,380,174,-7,-100,-130,-105,-77,-54,-53,-73,-124,-156,-168,-172,-171,-168,-165,-164,-163,-163,-162,-162,-160,-157,-153,-149,-146,-143,-139,-134,-128,-123,-119,-114,-107,-93,-69,-30,15,43,67,86,104,123,140,149,157,163,161,145,130,118,105,92,76,57,41,31,24,19,14,10,5,1,-2,-6,-10,-15,-18,-19,-16,-11,-3,6,26,57,82,109,156,207,235,256,271,272,258,237,207,172,145,132,126,120,112,101,87,61,27,5,-12,-32,-51,-70,-86,-107,-131,-166,-214,-235,-246,-255,-254,-235,-206,-174,-159,-151,-145,-141,-137,-131,-125,-120,-117,-113,-110,-107,-103,-99,-95,-91,-86,-81,-76,-70,-64,-58,-53,-49,-43,-35,-28,-24,-23,-26,-30,-35,-38,-41,-44,-49,-54,-58,-58,-55,-49,-41,-32,-19,3,17,35,61,89,115,134,148,148,135,123,113,103,91,77,62,44,35,30,24,19,16,14,11,8,21,41,64,86,105,115,121,125,127,124,117,107,89,61,45,36,28,18,9,0,-12,-18,-14,-5,2,10,18,24,35,51,62,70,73,69,59,50,39,29,19,11,5,0,-3,-6,-9,-10,-12,-15,-17,-18,-17,-11,-3,10,33,48,59,63,58,48,40,30,23,20,18,15,12,15,31,41,49,56,63,67,70,73,75,80,87,96,107,114,119,123,127,129,130,128,124,118,110,96,76,65,58,49,37,21,-4,-17,-22,-26,-28,-30,-32,-33,-35,-38,-40,-41,-42,-43,-44,-47,-50,-70,-106,-142,-161,-177,-196,-219,-240,-254,-263,-268,-269,-265,-257,-234,-172,-72,55,197,330,417,428,397,280,116,-48,-179,-243,-265,-266,-254,-241,-227,-215,-199,-180,-163,-142,-129,-122,-117,-113,-111,-110,-109,-109,-110,-112,-116,-120,-124,-130,-135,-141,-148,-154,-159,-163,-167,-173,-182,-181,-169,-158,-147,-137,-129,-120,-108,-95,-86,-78,-71,-62,-52,-39,-23,-18,-15,-13,-12,-10,-9,-7,-5,-2,1,7,20,37,42,44,46,48,51,54,56,59,63,72,90,110,131,154,180,195,204,211,215,217,215,209,201,191,177,155,140,125,109,89,60,27,4,-10,-24,-37,-57,-89,-109,-119,-127,-133,-139,-143,-146,-149,-154,-158,-162,-165,-165,-164,-160,-156,-152,-147,-140,-135,-140,-149,-154,-158,-162,-165,-168,-169,-169,-167,-165,-162,-157,-152,-143,-126,-107,-81,-52,-33,-19,-18,-33,-44,-55,-64,-71,-77,-83,-90,-95,-93,-88,-87,-86,-85,-83,-83,-83,-82,-81,-81,-80,-80,-81,-83,-84,-84,-83,-82,-82,-82,-81,-80,-78,-75,-73,-71,-69,-67,-64,-57,-42,-31,-24,-18,-13,-11,-13,-20,-30,-43,-61,-67,-71,-75,-79,-80,-77,-71,-61,-43,-23,-18,-15,-12,-9,-8,-6,-5,-2,0,1,3,4,4,5,6,7,9,11,13,16,20,26,32,38,43,48,52,57,62,68,72,75,75,74,73,71,69,67,63,58,54,54,61,71,83,99,115,128,139,146,149,151,153,156,157,150,136,121,102,83,76,71,67,63,59,57,56,55,54,55,55,55,56,57,59,61,62,64,66,64,50,36,24,11,-2,-20,-38,-41,-44,-47,-45,-30,11,78,172,291,426,557,656,682,667,560,386,209,74,5,-16,-28,-36,-42,-47,-52,-56,-62,-69,-77,-89,-105,-105,-90,-67,-44,-36,-32,-30,-28,-27,-26,-25,-25,-25,-25,-26,-27,-27,-28,-30,-32,-34,-38,-41,-42,-39,-33,-26,-21,-17,-12,-7,-2,1,4,8,14,26,49,69,83,92,99,107,106,94,74,55,44,35,37,51,66,81,98,120,147,167,183,204,223,239,252,262,273,283,291,298,302,306,309,311,312,309,302,292,279,262,232,206,180,154,137,123,111,98,86,66,38,13,-5,-28,-41,-50,-57,-63,-68,-73,-77,-80,-82,-83,-84,-86,-88,-89,-90,-91,-93,-96,-99,-102,-105,-107,-109,-111,-114,-116,-118,-121,-125,-130,-135,-139,-142,-141,-137,-130,-120,-109,-92,-63,-49,-41,-34,-29,-25,-24,-27,-32,-39,-45,-50,-55,-59,-63,-67,-70,-71,-72,-71,-68,-64,-59,-53,-48,-43,-39,-33,-25,-19,-17,-20,-28,-38,-47,-53,-59,-65,-71,-77,-80,-83,-83,-83,-82,-80,-76,-71,-66,-61,-57,-52,-46,-41,-37,-36,-40,-45,-52,-59,-65,-72,-79,-84,-85,-83,-78,-72,-65,-56,-43,-32,-23,-18,-15,-12,-10,-8,-7,-6,-4,-3,-3,-3,-4,-6,-8,-10,-12,-14,-16,-19,-21,-24,-28,-37,-35,-17,-8,-4,0,2,5,8,11,13,16,18,20,22,23,24,25,25,25,25,25,25,25,24,24,24,26,28,30,30,28,22,15,9,4,0,-4,-8,-13,-17,-22,-26,-30,-36,-43,-52,-66,-93,-112,-131,-151,-177,-194,-205,-213,-220,-227,-231,-235,-239,-244,-251,-256,-255,-247,-230,-181,-108,-17,81,188,294,371,397,371,294,141,-32,-186,-282,-316,-318,-299,-272,-238,-215,-202,-192,-186,-181,-175,-170,-169,-179,-193,-204,-216,-226,-230,-226,-218,-208,-199,-188,-178,-168,-159,-151,-143,-135,-128,-122,-116,-112,-109,-107,-104,-102,-100,-97,-93,-90,-87,-84,-80,-76,-69,-57,-44,-29,-19,-11,-4,1,9,16,24,30,37,43,49,56,63,70,78,87,97,111,126,140,155,171,190,203,212,220,228,235,243,251,258,264,270,274,275,272,264,252,238,217,183,159,136,112,86,64,46,26,3,-7,-15,-22,-28,-33,-38,-42,-45,-47,-48,-49,-49,-49,-49,-48,-49,-49,-48,-48,-47,-46,-46,-45,-42,-34,-24,-13,-3,4,13,23,32,38,39,35,28,19,12,6,3,-1,-5,-10,-13,-15,-16,-17,-19,-21,-22,-22,-22,-22,-22,-23,-25,-26,-28,-29,-30,-32,-35,-37,-39,-41,-45,-50,-57,-63,-69,-73,-75,-75,-75,-73,-69,-64,-58,-51,-44,-39,-34,-29,-24,-18,-13,-9,-6,-3,-2,-1,-1,-2,-5,-7,-10,-13,-16,-19,-24,-33,-41,-41,-33,-23,-18,-13,-8,-4,0,3,6,7,8,6,2,-2,-10,-18,-26,-34,-41,-48,-59,-70,-79,-82,-78,-71,-62,-55,-52,-49,-47,-44,-42,-41,-39,-38,-37,-36,-35,-34,-33,-33,-32,-32,-31,-30,-28,-25,-23,-21,-19,-17,-14,-12,-9,-6,-3,0,2,7,12,17,21,25,29,33,36,38,40,40,39,38,38,39,40,40,40,41,44,47,50,50,41,27,14,5,-2,-10,-18,-24,-28,-30,-28,-23,-16,-10,-3,3,10,21,33,42,42,34,20,5,-10,-35,-48,-41,-22,30,137,271,413,545,638,648,605,471,315,178,80,46,39,36,33,30,28,24,22,20,19,18,17,17,16,15,13,12,9,3,0,8,24,39,56,73,92,100,106,112,117,120,122,123,124,125,127,129,131,133,135,137,140,142,144,144,143,142,142,141,141,140,140,141,142,145,149,152,155,158,161,163,166,169,173,177,182,187,194,203,214,224,234,245,255,265,276,289,302,310,317,323,329,335,341,346,348,346,340,331,320,305,280,250,219,189,160,136,116,95,74,59,48,38,28,17,4,-7,-17,-23,-28,-32,-36,-38,-39,-40,-41,-43,-46,-48,-49,-51,-52,-53,-55,-56,-57,-58,-59,-60,-62,-64,-65,-67,-68,-70,-73,-76,-81,-86,-91,-99,-108,-116,-124,-131,-136,-140,-143,-146,-148,-149,-150,-151,-151,-151,-150,-150,-150,-151,-152,-153,-154,-155,-156,-157,-158,-159,-159,-158,-158,-159,-161,-164,-166,-168,-171,-174,-178,-182,-186,-187,-185,-180,-174,-167,-158,-147,-134,-112,-91,-72,-62,-54,-47,-41,-37,-34,-35,-38,-43,-49,-56,-62,-69,-75,-82,-89,-94,-99,-103,-105,-107,-107,-106,-103,-99,-95,-91,-88,-84,-81,-76,-70,-65,-62,-62,-65,-69,-74,-79,-83,-87,-92,-97,-101,-103,-102,-98,-93,-86,-79,-72,-67,-61,-55,-49,-45,-42,-41,-41,-44,-48,-52,-57,-63,-68,-73,-81,-90,-97,-97,-87,-72,-55,-38,-16,2,15,27,46,66,73,77,81,85,86,83,72,58,40,15,1,-6,-14,-21,-24,-22,-15,-9,-5,-2,0,1,3,6,8,9,9,8,6,4,1,-1,-5,-8,-12,-15,-18,-23,-27,-30,-30,-22,-10,2,17,35,54,72,93,130,181,258,347,450,559,631,654,613,496,322,154,56,29,11,0,-5,-5,-1,5,13,22,29,35,42,49,54,57,59,60,61,60,59,57,53,48,43,38,29,22,23,38,55,61,65,69,72,76,80,84,86,88,89,91,93,94,95,96,96,97,98,100,102,104,106,108,110,113,116,118,120,122,124,128,132,136,140,145,152,160,170,180,190,198,203,206,211,216,223,233,251,268,278,285,292,297,299,296,286,272,257,242,220,200,185,172,154,130,102,73,45,9,-15,-32,-46,-58,-68,-76,-84,-94,-105,-117,-133,-149,-157,-163,-169,-173,-177,-180,-182,-183,-182,-180,-179,-177,-173,-169,-164,-159,-155,-151,-148,-143,-137,-130,-126,-125,-127,-130,-133,-137,-140,-144,-150,-156,-161,-162,-156,-144,-131,-119,-111,-101,-92,-82,-74,-69,-68,-69,-71,-73,-77,-82,-89,-98,-110,-133,-147,-155,-162,-168,-172,-172,-163,-150,-138,-128,-118,-108,-99,-94,-94,-99,-109,-120,-132,-145,-165,-180,-189,-196,-202,-208,-213,-217,-220,-219,-216,-211,-207,-204,-199,-194,-189,-185,-184,-188,-197,-208,-220,-231,-242,-254,-265,-274,-281,-287,-291,-293,-294,-295,-295,-296,-297,-299,-300,-302,-304,-305,-307,-309,-309,-310,-310,-310,-310,-310,-311,-312,-313,-314,-315,-315,-316,-317,-317,-318,-319,-319,-320,-320,-321,-321,-321,-319,-317,-313,-309,-306,-301,-297,-292,-287,-282,-278,-274,-270,-263,-255,-245,-235,-227,-219,-212,-204,-197,-191,-186,-183,-182,-181,-180,-179,-178,-177,-176,-175,-174,-172,-169,-167,-165,-164,-162,-161,-158,-156,-153,-150,-145,-140,-133,-124,-112,-99,-86,-73,-59,-45,-32,-21,-10,0,9,17,24,29,33,37,43,50,60,81,107,177,266,382,517,645,717,741,707,602,440,271,132,87,76,68,62,57,53,51,50,50,52,55,60,67,77,87,96,104,114,126,136,147,157,167,175,183,192,202,213,227,241,253,263,271,279,287,294,300,306,312,318,324,329,335,339,344,351,360,371,380,389,396,404,416,441,488,528,558,588,629,684,717,733,745,755,766,776,786,796,806,816,826,835,844,851,857,862,867,873,879,884,889,893,896,897,895,890,882,871,857,841,817,771,738,694,643,595,542,493,458,430,411,398,386,371,356,338,317,290,264,237,220,207,197,187,177,167,157,147,138,128,117,106,96,90,86,84,82,80,78,77,75,74,73,73,72,72,72,72,73,74,77,80,84,88,93,97,101,105,109,112,115,116,117,117,117,117,117,117,116,115,114,113,112,112,110,109,107,106,104,102,99,97,94,92,90,89,87,86,85,83,82,80,79,77,75,73,71,68,66,63,60,57,53,49,44,38,32,26,18,10,2,-5,-12,-18,-23,-28,-32,-36,-41,-45,-49,-53,-58,-64,-69,-73,-76,-78,-81,-84,-87,-91,-96,-102,-110,-122,-137,-151,-164,-176,-186,-194,-202,-209,-216,-220,-224,-227,-228,-228,-225,-220,-212,-204,-195,-187,-179,-173,-166,-159,-152,-146,-140,-135,-129,-122,-117,-111,-106,-101,-95,-89,-81,-73,-63,-49,-34,-20,-11,-4,2,6,10,13,16,19,21,23,25,26,26,26,26,26,25,24,22,21,19,18,16,13,10,6,2,-1,-7,-12,-18,-25,-31,-38,-44,-52,-71,-93,-108,-120,-129,-137,-145,-153,-159,-164,-164,-161,-157,-150,-139,-123,-64,34,167,323,476,553,579,532,390,203,22,-113,-179,-191,-201,-208,-213,-219,-224,-228,-231,-235,-238,-241,-243,-243,-243,-243,-244,-245,-246,-247,-249,-251,-254,-257,-260,-261,-257,-249,-238,-226,-216,-208,-201,-194,-187,-181,-175,-169,-164,-159,-154,-149,-144,-140,-136,-132,-128,-124,-120,-116,-112,-109,-104,-98,-92,-86,-81,-77,-72,-69,-65,-60,-56,-50,-43,-34,-17,19,60,88,107,123,136,147,156,163,169,175,180,185,189,192,194,195,194,192,187,180,172,162,151,137,119,84,51,21,-10,-42,-72,-101,-121,-138,-151,-162,-169,-173,-178,-182,-184,-186,-187,-188,-189,-191,-193,-194,-195,-195,-196,-196,-196,-197,-197,-196,-196,-195,-195,-195,-195,-195,-194,-192,-191,-189,-187,-184,-180,-176,-172,-168,-163,-159,-155,-150,-146,-142,-138,-136,-133,-129,-125,-121,-117,-114,-111,-109,-107,-105,-105,-105,-106,-106,-106,-106,-105,-105,-104,-103,-102,-100,-98,-97,-96,-95,-94,-93,-92,-90,-89,-88,-88,-87,-85,-84,-83,-83,-84,-85,-86,-87,-88,-90,-93,-96,-99,-101,-104,-107,-110,-113,-116,-118,-119,-120,-120,-120,-121,-123,-124,-124,-125,-125,-127,-128,-130,-130,-130,-129,-128,-127,-127,-126,-124,-123,-122,-122,-122,-123,-123,-121,-119,-117,-115,-112,-109,-105,-101,-97,-95,-93,-91,-90,-88,-85,-83,-80,-78,-75,-72,-69,-66,-64,-62,-60,-59,-58,-57,-55,-52,-49,-45,-40,-34,-28,-22,-14,5,21,28,32,34,35,36,37,38,38,38,37,36,34,31,27,21,15,9,4,0,-2,-5,-7,-10,-11,-13,-14,-15,-15,-16,-18,-19,-20,-21,-21,-21,-19,-18,-16,-14,-12,-8,-4,0,3,8,15,56,147,268,406,535,601,622,582,463,301,144,68,59,52,44,38,32,25,20,16,13,11,9,9,12,16,19,22,24,26,28,29,29,29,28,28,27,27,27,27,28,29,29,30,30,31,31,32,33,35,36,38,40,43,45,48,51,54,57,60,64,68,73,78,83,89,94,100,105,111,116,121,127,133,138,144,151,158,166,175,184,192,201,209,218,226,234,241,248,255,262,272,283,293,301,306,307,305,301,294,286,275,259,229,202,176,149,121,97,76,54,32,12,-5,-22,-41,-58,-65,-71,-75,-80,-83,-86,-88,-90,-91,-91,-92,-92,-92,-92,-92,-91,-90,-89,-88,-87,-86,-86,-85,-85,-85,-86,-87,-88,-89,-91,-92,-94,-97,-99,-102,-105,-112,-118,-123,-123,-115,-103,-88,-75,-59,-44,-34,-28,-23,-19,-16,-12,-9,-5,-2,0,3,5,7,8,8,8,6,5,3,0,-1,-4,-7,-10,-14,-17,-22,-27,-37,-48,-61,-74,-87,-101,-114,-128,-142,-154,-165,-175,-184,-193,-202,-211,-218,-222,-225,-228,-230,-232,-235,-238,-241,-243,-244,-244,-240,-232,-222,-211,-201,-193,-185,-178,-172,-166,-161,-156,-151,-146,-142,-137,-132,-128,-123,-119,-116,-113,-110,-108,-105,-103,-101,-98,-95,-92,-89,-85,-82,-80,-79,-78,-77,-76,-76,-76,-76,-75,-75,-74,-71,-69,-66,-63,-60,-58,-56,-54,-52,-51,-51,-51,-52,-53,-54,-56,-57,-59,-62,-66,-70,-74,-78,-83,-89,-97,-112,-128,-138,-145,-151,-155,-159,-161,-163,-164,-165,-166,-167,-168,-170,-170,-171,-172,-173,-175,-176,-178,-179,-181,-182,-184,-186,-188,-190,-193,-194,-198,-208,-214,-205,-177,-101,20,178,348,494,557,551,459,291,104,-55,-137,-163,-178,-182,-176,-162,-147,-137,-129,-120,-113,-106,-99,-92,-86,-82,-79,-77,-74,-71,-68,-65,-63,-60,-57,-54,-51,-48,-44,-40,-35,-29,-22,-14,-1,21,43,65,75,81,85,89,91,93,95,96,98,100,102,105,108,110,112,113,114,116,117,119,121,124,128,134,144,156,167,179,191,203,215,228,240,252,262,271,280,292,306,318,324,329,333,337,341,343,343,337,327,314,298,271,251,225,191,166,150,136,123,102,72,45,26,6,-13,-33,-58,-75,-88,-98,-105,-106,-107,-107,-107,-107,-107,-107,-107,-106,-105,-103,-103,-102,-102,-101,-100,-99,-98,-97,-97,-96,-95,-93,-91,-89,-88,-87,-85,-84,-82,-80,-79,-78,-76,-74,-72,-68,-64,-60,-56,-51,-47,-42,-39,-36,-33,-31,-29,-27,-25,-24,-23,-22,-21,-20,-18,-17,-17,-17,-17,-17,-17,-18,-19,-20,-21,-21,-22,-22,-22,-22,-22,-21,-20,-19,-18,-16,-15,-13,-12,-10,-8,-6,-3,-1,1,4,6,9,11,14,18,21,25,28,31,33,36,39,41,43,45,46,47,49,50,51,51,50,50,49,49,49,49,48,47,46,45,45,44,43,41,39,38,37,36,36,35,35,35,35,36,36,37,37,38,38,38,39,41,43,47,50,55,59,63,68,73,77,81,87,93,100,106,112,117,121,125,130,135,141,148,152,154,156,158,160,162,163,165,165,165,165,164,162,158,153,147,142,137,135,132,130,128,126,124,122,120,118,115,112,110,109,108,108,108,107,106,104,101,98,93,89,84,80,76,75,74,76,78,82,87,95,122,210,339,500,672,815,866,854,743,557,356,198,122,100,87,79,73,68,61,51,46,48,52,56,60,64,63,54,44,40,38,37,35,32,30,27,24,22,20,19,19,20,21,22,23,23,23,22,22,21,19,18,16,15,14,14,14,13,13,13,12,11,7,3,0,-3,-2,2,8,15,22,29,37,45,54,63,72,82,91,101,111,121,130,139,148,156,164,173,180,187,193,198,203,207,211,213,214,213,211,208,203,196,188,176,153,134,109,75,39,5,-26,-58,-84,-104,-127,-141,-151,-159,-165,-169,-173,-175,-177,-179,-181,-182,-183,-184,-185,-185,-186,-186,-186,-185,-183,-180,-177,-174,-170,-166,-163,-160,-158,-156,-155,-154,-153,-152,-151,-150,-148,-146,-143,-140,-137,-134,-130,-126,-121,-117,-113,-108,-103,-97,-91,-85,-79,-74,-71,-69,-67,-65,-64,-63,-62,-62,-62,-62,-61,-61,-59,-58,-56,-55,-53,-51,-49,-47,-46,-45,-43,-42,-41,-39,-38,-36,-35,-33,-32,-30,-28,-27,-26,-26,-26,-27,-27,-27,-28,-29,-29,-30,-30,-30,-30,-30,-30,-31,-32,-33,-35,-36,-37,-38,-39,-41,-41,-42,-41,-40,-40,-40,-39,-39,-38,-37,-36,-35,-34,-33,-31,-29,-27,-25,-23,-21,-20,-18,-17,-16,-15,-15,-15,-15,-15,-16,-16,-17,-18,-19,-20,-21,-21,-22,-23,-23,-23,-24,-24,-24,-23,-22,-21,-20,-19,-18,-16,-12,-7,0,9,18,25,31,38,44,49,53,55,57,58,59,61,62,64,65,67,70,72,73,72,68,61,53,47,43,39,35,31,27,24,22,19,16,13,10,7,4,2,0,-1,-3,-5,-8,-11,-15,-17,-19,-21,-23,-24,-25,-26,-27,-27,-27,-29,-33,-15,39,123,239,382,536,672,731,726,638,474,277,99,-18,-51,-62,-38,-25,-20,-16,-13,-11,-9,-7,-6,-5,-4,-3,-3,-2,-2,-1,0,1,3,4,5,7,8,8,8,9,9,10,12,14,16,18,21,25,29,33,38,41,45,48,51,54,56,59,61,64,66,70,73,76,80,83,87,91,94,98,103,109,117,128,139,149,158,169,181,194,210,222,232,242,251,259,268,276,286,296,306,315,323,330,337,341,341,338,332,324,313,297,280,258,230,201,174,148,120,90,62,35,9,-9,-24,-42,-56,-68,-75,-81,-84,-86,-88,-89,-90,-91,-92,-93,-92,-91,-89,-87,-86,-84,-82,-80,-78,-77,-76,-76,-76,-76,-76,-77,-79,-81,-83,-85,-87,-88,-90,-93,-97,-99,-94,-85,-77,-74,-72,-70,-68,-66,-64,-62,-59,-57,-55,-54,-53,-52,-52,-52,-52,-53,-54,-55,-55,-56,-57,-57,-57,-57,-58,-58,-59,-59,-60,-60,-61,-61,-62,-63,-63,-64,-64,-65,-66,-67,-67,-67,-67,-67,-66,-66,-66,-65,-64,-63,-63,-63,-63,-63,-63,-63,-64,-64,-65,-65,-65,-65,-65,-66,-66,-67,-68,-69,-70,-71,-72,-76,-82,-86,-86,-84,-80,-76,-73,-69,-65,-62,-60,-60,-64,-69,-74,-77,-82,-86,-91,-94,-94,-92,-87,-81,-76,-74,-72,-69,-66,-62,-59,-57,-55,-54,-53,-53,-53,-53,-53,-53,-53,-53,-52,-51,-50,-50,-49,-48,-47,-45,-44,-43,-41,-39,-33,-20,-8,2,12,20,27,35,43,51,58,65,70,74,73,67,59,49,35,15,-1,-10,-17,-22,-26,-28,-29,-27,-24,-20,-17,-15,-13,-11,-8,-5,-2,0,2,4,4,3,2,1,0,-1,-3,-6,-9,-11,-13,-15,-19,-30,-30,-13,30,111,225,367,517,643,688,680,590,438,268,120,20,-7,-15,-21,-24,-26,-27,-26,-22,-16,-10,-2,10,19,16,8,0,-7,-13,-16,-13,-6,0,1,2,4,6,8,9,11,13,14,16,18,19,20,21,22,24,26,28,30,32,34,36,39,41,44,47,50,53,56,60,63,66,69,72,76,80,87,100,111,121,131,141,152,164,178,193,206,218,228,239,253,264,272,280,289,298,307,314,321,327,333,336,336,333,327,319,308,287,251,218,189,165,137,108,77,44,13,-11,-29,-49,-63,-72,-80,-88,-95,-102,-108,-114,-123,-130,-132,-133,-134,-135,-135,-136,-136,-137,-137,-135,-133,-130,-126,-122,-120,-117,-115,-114,-113,-113,-114,-114,-114,-114,-114,-113,-113,-111,-109,-105,-102,-99,-96,-93,-91,-88,-86,-84,-82,-81,-78,-76,-72,-69,-66,-64,-62,-61,-60,-59,-59,-60,-61,-62,-63,-63,-64,-64,-64,-65,-65,-66,-67,-67,-68,-69,-69,-68,-68,-68,-68,-68,-67,-67,-66,-66,-66,-66,-66,-65,-64,-63,-62,-61,-60,-58,-57,-56,-56,-57,-57,-57,-56,-56,-56,-55,-55,-54,-52,-51,-50,-50,-50,-51,-52,-52,-53,-54,-55,-56,-57,-57,-57,-56,-57,-57,-57,-56,-56,-55,-56,-56,-57,-57,-56,-56,-55,-54,-53,-52,-50,-48,-45,-43,-42,-40,-39,-39,-38,-38,-38,-38,-38,-37,-36,-35,-33,-32,-30,-29,-27,-26,-25,-25,-24,-23,-21,-19,-16,-13,-10,-5,-1,3,7,12,17,22,28,34,39,45,52,58,62,65,68,70,72,74,77,80,81,80,73,64,54,44,32,22,15,9,5,2,1,0,-1,-1,-2,-2,-2,-2,-2,-1,-1,-1,-2,-3,-3,-4,-4,-4,-5,-6,-7,-8,-9,-10,-11,-17,-27,-13,30,102,211,353,510,650,720,719,645,489,311,162,76,41,24,9,-10,-26,-42,-50,-44,-35,-32,-30,-29,-27,-25,-24,-22,-21,-19,-18,-18,-18,-18,-19,-20,-20,-21,-20,-18,-16,-15,-13,-12,-12,-11,-11,-10,-10,-10,-10,-9,-8,-6,-4,-2,0,1,3,6,10,23,36,49,57,63,69,75,81,87,93,98,104,110,117,123,129,134,138,143,148,157,172,189,207,225,245,260,273,282,290,295,300,304,308,312,314,314,311,306,299,289,269,236,206,177,151,121,87,52,22,0,-20,-40,-59,-75,-82,-85,-88,-90,-91,-93,-94,-96,-99,-101,-104,-106,-108,-110,-111,-113,-115,-117,-119,-121,-124,-129,-133,-136,-138,-139,-138,-136,-132,-128,-122,-116,-110,-106,-103,-101,-99,-97,-95,-93,-91,-89,-87,-85,-83,-81,-80,-79,-79,-79,-79,-79,-78,-76,-75,-73,-71,-68,-65,-62,-60,-57,-54,-51,-49,-46,-45,-44,-43,-44,-46,-49,-52,-55,-59,-62,-65,-67,-69,-71,-73,-74,-75,-76,-76,-76,-75,-75,-74,-73,-72,-72,-72,-71,-70,-70,-69,-69,-69,-68,-68,-67,-66,-65,-65,-64,-63,-62,-60,-59,-58,-57,-55,-54,-52,-51,-51,-51,-51,-50,-49,-48,-46,-46,-46,-45,-45,-44,-44,-45,-45,-46,-46,-46,-46,-46,-45,-45,-45,-44,-43,-42,-41,-41,-41,-40,-39,-38,-37,-36,-35,-34,-33,-32,-31,-30,-29,-28,-27,-26,-25,-24,-22,-20,-19,-18,-18,-17,-16,-14,-12,-10,-8,-6,-3,0,2,5,7,10,14,18,25,32,40,46,49,52,54,57,59,61,62,63,64,64,64,60,52,43,34,26,22,17,13,9,5,2,0,-3,-6,-9,-11,-12,-12,-12,-12,-12,-12,-12,-12,-13,-14,-15,-17,-17,-18,-19,-20,-21,-23,-26,-33,-40,-40,-30,-11,45,131,244,376,510,623,671,667,598,467,306,154,43,0,-7,-13,-18,-22,-26,-29,-30,-30,-30,-29,-27,-25,-21,-17,-14,-11,-10,-9,-8,-7,-7,-6,-5,-5,-4,-3,-2,-1,0,3,5,8,12,15,19,24,28,32,36,40,44,48,52,55,58,60,63,66,69,71,73,75,76,78,79,81,82,84,87,91,100,111,122,134,147,163,178,193,206,218,229,241,254,268,285,298,308,315,321,326,330,332,332,329,323,315,307,296,279,266,255,238,212,186,159,130,101,78,59,35,14,-2,-18,-32,-40,-45,-49,-52,-55,-58,-61,-63,-66,-68,-70,-72,-75,-77,-79,-80,-81,-82,-84,-86,-87,-87,-87,-87,-86,-84,-82,-79,-77,-74,-72,-70,-69,-68,-67,-66,-65,-64,-63,-63,-62,-62,-63,-63,-63,-63,-63,-63,-62,-61,-61,-60,-58,-58,-57,-57,-57,-57,-57,-56,-55,-54,-53,-52,-50,-48,-46,-45,-44,-43,-43,-43,-42,-41,-40,-33,-26,-22,-25,-32,-38,-39,-40,-41,-43,-45,-47,-49,-50,-51,-51,-52,-51,-51,-50,-50,-49,-49,-48,-48,-48,-47,-47,-47,-47,-47,-47,-46,-45,-45,-45,-47,-48,-49,-50,-50,-50,-50,-51,-51,-52,-52,-53,-54,-55,-57,-58,-59,-60,-60,-60,-60,-60,-60,-60,-60,-60,-61,-62,-63,-63,-64,-64,-64,-64,-64,-64,-63,-62,-62,-62,-62,-63,-64,-67,-69,-70,-69,-66,-62,-60,-57,-55,-53,-51,-49,-47,-45,-44,-42,-41,-39,-37,-36,-34,-31,-28,-25,-21,-18,-15,-13,-10,-6,0,14,31,39,44,49,54,59,62,63,63,61,58,54,49,42,36,27,15,5,0,-3,-4,-6,-7,-7,-8,-9,-10,-10,-11,-12,-12,-11,-11,-10,-9,-9,-9,-10,-11,-13,-14,-14,-13,-12,-11,-9,-7,-3,1,5,10,15,21,64,159,294,454,607,706,716,665,524,346,172,40,-7,-25,-25,-9,0,9,15,19,19,15,10,5,2,0,-1,-4,-6,-9,-10,-11,-11,-9,-6,-1,3,8,14,18,22,26,29,32,34,36,37,39,40,41,42,43,45,46,48,49,50,52,54,56,57,59,60,62,64,67,72,79,85,92,97,102,106,111,117,127,139,151,164,175,189,204,219,235,252,268,278,287,295,300,303,304,305,305,306,306,308,309,309,307,301,294,284,269,254,234,211,187,164,140,114,86,56,25,-5,-31,-50,-69,-83,-95,-104,-110,-114,-117,-120,-122,-123,-124,-124,-124,-123,-120,-118,-115,-112,-110,-107,-104,-101,-98,-96,-95,-95,-95,-96,-96,-97,-99,-101,-103,-102,-94,-84,-81,-78,-76,-74,-71,-69,-67,-66,-65,-64,-63,-62,-61,-60,-59,-58,-58,-58,-58,-59,-59,-60,-60,-61,-61,-60,-59,-58,-57,-56,-55,-55,-55,-55,-57,-58,-59,-60,-61,-61,-61,-61,-60,-60,-60,-62,-63,-65,-65,-63,-60,-57,-55,-53,-51,-48,-46,-44,-43,-43,-44,-45,-47,-49,-51,-53,-55,-55,-56,-56,-56,-56,-57,-57,-58,-60,-61,-63,-64,-65,-65,-64,-62,-61,-59,-58,-56,-55,-54,-54,-54,-55,-57,-58,-59,-61,-61,-62,-62,-62,-61,-60,-60,-59,-59,-59,-60,-60,-61,-61,-62,-63,-63,-63,-61,-60,-58,-57,-55,-54,-52,-51,-49,-48,-48,-48,-47,-46,-45,-43,-42,-41,-40,-38,-36,-34,-31,-29,-26,-24,-21,-17,-14,-9,-5,-1,3,8,13,18,24,31,38,44,50,54,59,63,68,73,76,79,78,75,70,65,60,55,51,47,43,39,35,31,27,23,19,16,13,11,9,6,4,2,0,-2,-4,-7,-9,-11,-12,-14,-14,-15,-16,-17,-18,-21,-24,-30,-35,-35,-28,-14,28,95,192,314,448,569,643,648,598,465,306,164,61,18,11,4,0,-4,-8,-12,-14,-16,-17,-18,-18,-17,-14,-11,-8,-4,-1,2,6,9,12,14,16,17,18,20,22,24,26,29,32,35,37,39,40,41,41,42,42,43,44,46,48,51,54,58,61,64,68,71,75,78,81,84,88,92,97,103,108,114,120,127,137,151,163,176,188,200,211,221,230,238,245,254,264,273,279,285,290,294,298,300,302,302,301,300,297,293,288,282,269,241,212,183,155,126,98,68,37,5,-21,-41,-64,-81,-93,-103,-110,-116,-120,-123,-125,-127,-129,-131,-133,-135,-136,-136,-137,-137,-137,-138,-137,-137,-136,-136,-135,-133,-132,-129,-126,-123,-120,-117,-114,-111,-107,-103,-100,-98,-96,-94,-92,-89,-87,-86,-85,-83,-83,-82,-81,-81,-81,-81,-80,-80,-79,-79,-78,-78,-78,-78,-79,-80,-82,-83,-85,-85,-85,-85,-84,-83,-82,-80,-79,-79,-78,-78,-79,-80,-80,-81,-81,-81,-81,-80,-79,-78,-76,-75,-75,-75,-75,-75,-75,-75,-76,-76,-77,-77,-77,-77,-77,-76,-76,-76,-75,-74,-73,-72,-71,-70,-70,-69,-69,-69,-69,-69,-69,-69,-68,-67,-66,-64,-62,-61,-60,-60,-60,-61,-63,-65,-67,-69,-72,-73,-75,-75,-76,-76,-76,-78,-81,-83,-83,-77,-69,-63,-60,-58,-56,-54,-51,-48,-46,-44,-43,-42,-41,-41,-41,-41,-42,-43,-43,-42,-41,-40,-38,-36,-35,-33,-32,-30,-29,-29,-29,-28,-28,-26,-24,-20,-16,-12,-7,-3,1,7,12,16,21,24,28,34,40,46,49,49,44,38,30,24,20,16,11,6,1,-2,-6,-10,-14,-18,-22,-25,-28,-30,-32,-35,-36,-38,-39,-40,-42,-44,-47,-49,-52,-54,-55,-55,-55,-54,-52,-49,-46,-41,-35,-29,-22,-8,31,111,220,352,493,619,688,690,628,488,314,145,11,-78,-103,-113,-105,-68,-42,-34,-31,-30,-29,-28,-27,-27,-25,-23,-21,-18,-16,-13,-11,-9,-6,-4,-1,2,5,8,11,14,17,20,23,25,27,28,29,31,32,34,35,37,38,40,42,44,46,48,49,51,54,58,61,66,76,87,97,105,111,118,123,128,132,137,142,148,155,162,171,181,195,210,223,236,248,260,270,280,289,297,303,308,314,318,322,323,322,319,315,309,301,285,258,233,204,171,136,105,82,60,38,17,-4,-20,-33,-45,-58,-69,-81,-93,-101,-101,-99,-97,-95,-95,-94,-94,-94,-94,-95,-95,-95,-94,-92,-90,-88,-84,-80,-77,-74,-71,-70,-69,-68,-66,-64,-62,-60,-58,-55,-52,-49,-47,-45,-44,-43,-42,-40,-38,-37,-36,-36,-34,-32,-30,-28,-27,-27,-28,-28,-28,-28,-28,-29,-30,-31,-32,-32,-32,-33,-34,-36,-38,-39,-39,-40,-41,-41,-42,-42,-42,-42,-42,-42,-44,-45,-46,-47,-47,-48,-48,-49,-50,-50,-50,-50,-51,-52,-53,-54,-54,-54,-54,-54,-54,-53,-52,-50,-49,-48,-48,-48,-47,-47,-46,-45,-44,-43,-41,-40,-39,-38,-37,-37,-37,-37,-37,-38,-39,-39,-39,-39,-39,-39,-39,-39,-39,-39,-40,-41,-42,-43,-44,-45,-46,-46,-47,-48,-49,-50,-51,-52,-52,-53,-53,-53,-52,-51,-49,-47,-44,-42,-40,-38,-37,-36,-34,-34,-33,-32,-32,-31,-29,-27,-25,-22,-19,-17,-14,-12,-10,-9,-8,-7,-4,-1,2,6,13,29,44,58,76,96,106,113,118,122,121,113,101,86,66,39,28,23,18,13,9,6,4,3,2,2,1,0,0,0,0,0,-1,-1,-2,-3,-3,-5,-6,-7,-8,-9,-10,-12,-17,-23,-27,-28,-26,-19,-9,27,106,219,357,502,623,666,657,565,412,243,95,-7,-23,-26,-28,-30,-32,-35,-37,-38,-39,-39,-40,-40,-38,-35,-33,-31,-28,-26,-24,-22,-20,-17,-14,-11,-8,-6,-3,-1,1,4,6,9,11,14,16,18,20,22,23,25,28,31,33,36,38,41,44,48,52,55,59,62,65,68,71,74,77,80,84,89,95,102,109,117,126,136,149,161,174,186,196,204,213,221,229,236,243,251,260,270,280,291,299,306,313,317,319,317,312,304,292,271,236,205,171,133,97,62,26,-3,-26,-47,-64,-79,-91,-102,-106,-109,-111,-113,-114,-116,-118,-119,-120,-121,-121,-122,-122,-122,-121,-119,-117,-116,-114,-111,-109,-107,-105,-104,-102,-101,-100,-98,-97,-95,-94,-91,-89,-87,-85,-83,-81,-80,-78,-76,-75,-73,-72,-70,-68,-66,-64,-61,-59,-58,-57,-56,-54,-53,-52,-52,-51,-51,-52,-52,-53,-54,-55,-56,-57,-57,-58,-59,-61,-62,-63,-64,-65,-67,-68,-68,-67,-66,-64,-62,-60,-58,-55,-53,-51,-50,-50,-50,-49,-47,-45,-45,-48,-52,-58,-62,-64,-66,-69,-72,-75,-77,-78,-79,-78,-77,-76,-74,-72,-69,-66,-64,-62,-60,-58,-56,-55,-54,-54,-55,-56,-57,-59,-62,-65,-68,-71,-73,-76,-77,-79,-82,-84,-87,-88,-89,-90,-89,-88,-86,-84,-80,-77,-73,-70,-67,-65,-63,-62,-61,-59,-58,-56,-55,-53,-51,-49,-47,-45,-44,-43,-42,-41,-40,-37,-35,-32,-28,-23,-16,-7,2,11,20,28,37,45,54,60,65,68,70,72,73,74,75,76,77,78,80,81,82,83,83,83,82,79,76,73,69,65,61,57,54,52,50,48,46,44,41,39,36,32,29,26,24,24,24,25,27,28,31,33,37,41,46,51,80,147,243,368,508,642,734,748,723,605,441,264,116,39,11,2,8,20,27,31,35,39,42,43,44,45,46,46,46,45,44,43,41,41,40,40,40,40,39,39,40,43,47,53,57,60,63,65,67,69,70,71,72,73,74,75,76,77,78,80,81,82,83,84,85,87,89,92,96,99,103,110,117,125,132,137,141,145,149,154,159,165,173,181,191,203,217,231,244,253,260,265,270,274,278,281,283,286,290,295,300,299,293,281,263,236,211,182,149,117,85,52,20,-10,-39,-65,-88,-111,-120,-123,-125,-128,-130,-133,-135,-136,-137,-138,-138,-138,-138,-136,-134,-132,-129,-127,-125,-123,-122,-120,-119,-117,-116,-115,-113,-111,-109,-107,-105,-103,-101,-100,-99,-97,-96,-95,-93,-91,-89,-87,-84,-82,-80,-78,-77,-75,-74,-73,-72,-70,-69,-67,-66,-65,-63,-62,-60,-59,-59,-59,-59,-59,-59,-59,-59,-60,-60,-59,-59,-59,-58,-58,-59,-60,-61,-62,-63,-64,-65,-66,-67,-67,-66,-65,-64,-64,-63,-62,-62,-61,-61,-62,-62,-63,-64,-65,-65,-64,-64,-63,-62,-61,-60,-60,-61,-61,-62,-63,-64,-65,-66,-66,-66,-66,-65,-63,-62,-62,-61,-62,-62,-63,-65,-66,-67,-68,-69,-70,-70,-70,-69,-69,-69,-69,-70,-70,-71,-72,-73,-74,-74,-74,-72,-69,-65,-61,-57,-53,-51,-48,-47,-45,-45,-45,-45,-44,-44,-44,-43,-42,-41,-40,-39,-38,-36,-34,-33,-31,-28,-25,-22,-17,-8,2,12,22,35,52,64,72,78,82,85,86,83,76,67,58,49,39,30,22,16,12,9,7,6,5,4,3,2,1,0,0,0,-2,-3,-4,-5,-7,-9,-11,-13,-15,-18,-22,-28,-41,-50,-56,-62,-68,-67,-48,2,87,204,348,507,655,745,750,689,532,344,172,45,-14,-36,-44,-38,-27,-22,-20,-17,-15,-14,-13,-12,-10,-8,-7,-5,-3,-1,0,2,5,7,9,12,14,17,20,23,26,29,34,39,45,50,55,59,63,67,71,75,77,79,81,83,85,88,90,92,94,97,99,101,103,104,105,106,107,108,109,111,114,118,125,140,156,172,188,206,219,228,236,244,250,257,265,274,285,298,311,325,334,340,344,348,351,353,350,342,333,320,302,284,266,248,229,204,172,140,107,73,39,4,-28,-53,-71,-83,-88,-90,-92,-94,-95,-95,-95,-95,-94,-94,-93,-92,-92,-92,-92,-92,-93,-93,-94,-95,-95,-96,-96,-96,-97,-97,-98,-99,-100,-102,-104,-107,-109,-111,-113,-114,-114,-113,-111,-107,-103,-99,-95,-90,-87,-85,-83,-81,-79,-77,-76,-74,-73,-71,-70,-68,-67,-65,-64,-63,-62,-60,-59,-58,-56,-56,-55,-54,-54,-53,-53,-53,-54,-55,-56,-57,-58,-59,-59,-60,-60,-60,-60,-60,-60,-62,-65,-67,-68,-66,-62,-59,-57,-55,-54,-52,-49,-47,-45,-44,-43,-43,-43,-44,-46,-49,-53,-56,-60,-64,-67,-69,-71,-72,-73,-74,-75,-75,-76,-76,-77,-77,-78,-78,-79,-79,-80,-81,-81,-82,-83,-83,-83,-83,-83,-83,-84,-84,-84,-85,-85,-85,-85,-85,-85,-85,-84,-83,-81,-80,-79,-78,-76,-75,-73,-71,-70,-68,-67,-66,-64,-62,-60,-57,-55,-53,-51,-49,-47,-45,-43,-41,-38,-35,-31,-27,-23,-18,-13,-1,9,14,16,18,19,22,23,22,13,-1,-17,-36,-45,-49,-51,-53,-55,-56,-58,-59,-60,-60,-60,-61,-61,-61,-61,-61,-61,-62,-64,-66,-67,-67,-67,-67,-67,-65,-64,-62,-59,-56,-53,-51,-31,19,95,201,336,483,609,656,647,551,388,205,49,-29,-57,-60,-56,-54,-52,-52,-51,-49,-43,-35,-28,-24,-20,-18,-16,-15,-14,-13,-11,-9,-6,-3,-1,0,1,2,3,5,6,8,10,12,14,16,17,19,21,23,25,27,29,32,35,38,40,42,44,46,47,49,52,55,58,62,68,75,83,91,99,108,117,126,138,149,158,166,173,181,190,199,207,215,223,233,249,265,279,289,297,303,307,310,314,317,319,319,315,308,299,287,269,254,234,208,182,152,117,85,54,26,1,-25,-48,-65,-80,-93,-104,-113,-119,-122,-124,-127,-129,-131,-133,-133,-132,-131,-129,-127,-124,-121,-116,-112,-108,-106,-104,-103,-101,-98,-96,-95,-94,-94,-93,-91,-89,-88,-86,-85,-83,-81,-79,-77,-76,-75,-74,-73,-72,-71,-70,-68,-67,-66,-64,-63,-61,-59,-58,-58,-59,-61,-63,-65,-67,-68,-69,-70,-70,-70,-70,-70,-70,-70,-71,-72,-73,-74,-75,-75,-75,-75,-75,-76,-76,-76,-76,-77,-78,-79,-80,-81,-82,-82,-83,-83,-83,-82,-82,-81,-80,-79,-78,-77,-76,-75,-73,-72,-70,-68,-67,-65,-64,-63,-62,-60,-59,-58,-57,-56,-54,-52,-51,-49,-48,-47,-46,-45,-44,-42,-41,-39,-37,-34,-32,-30,-28,-26,-25,-24,-23,-22,-22,-21,-19,-18,-16,-14,-12,-10,-7,-5,-4,-3,-1,0,1,3,6,9,13,19,26,33,40,47,53,59,66,72,78,83,86,89,91,93,96,98,100,100,99,94,86,78,72,68,64,61,58,54,52,49,48,46,45,45,44,44,45,46,47,47,47,47,46,46,45,45,45,44,43,42,41,40,38,30,25,29,44,90,171,287,430,580,711,754,742,636,470,291,138,72,61,52,44,37,31,25,20,17,14,12,10,11,14,16,17,18,20,21,23,25,28,30,31,33,34,36,38,40,43,46,48,51,53,56,58,61,63,65,66,68,71,73,75,77,79,81,84,86,88,90,92,94,97,100,103,105,108,109,111,112,114,115,117,118,120,123,127,133,140,148,156,166,177,190,205,221,229,236,241,246,250,252,253,253,251,249,246,242,236,225,202,180,155,129,101,70,43,18,-6,-31,-58,-83,-102,-120,-138,-156,-172,-186,-197,-208,-219,-232,-246,-252,-256,-260,-262,-264,-260,-252,-244,-238,-234,-230,-226,-221,-217,-212,-208,-204,-200,-197,-193,-189,-186,-182,-179,-175,-172,-168,-164,-160,-157,-154,-150,-146,-139,-129,-116,-102,-96,-93,-89,-86,-83,-81,-80,-79,-78,-76,-75,-74,-73,-72,-72,-71,-69,-68,-68,-67,-67,-66,-65,-63,-62,-61,-60,-59,-58,-57,-55,-54,-53,-51,-49,-47,-45,-42,-40,-38,-36,-34,-32,-30,-28,-27,-26,-25,-25,-25,-24,-24,-23,-23,-22,-21,-20,-19,-18,-17,-16,-16,-16,-17,-18,-18,-19,-19,-18,-18,-17,-17,-16,-16,-15,-14,-13,-13,-14,-14,-15,-15,-15,-15,-15,-15,-14,-13,-12,-11,-10,-9,-8,-7,-7,-7,-7,-8,-9,-9,-9,-8,-7,-6,-5,-3,-1,1,3,6,8,11,14,18,21,25,29,35,40,46,51,57,61,65,69,74,79,84,86,85,81,75,69,62,57,52,46,40,35,31,27,24,22,19,17,16,16,16,16,16,16,15,14,13,11,9,8,6,5,4,3,1,-1,-4,-10,-23,-24,-14,11,76,176,305,451,591,699,740,695,573,399,216,70,3,-20,-21,-11,-1,8,7,-4,-10,-15,-19,-22,-24,-25,-25,-25,-24,-24,-22,-19,-15,-11,-7,-4,-2,-1,0,2,5,8,12,15,19,23,26,30,34,36,39,42,46,51,55,60,63,66,69,71,73,75,77,78,79,81,83,86,89,93,96,100,105,112,122,139,156,167,175,183,191,199,208,218,231,243,254,264,274,282,291,298,304,310,315,319,321,321,319,316,311,305,296,281,265,246,219,190,161,133,101,66,33,1,-26,-47,-63,-79,-85,-89,-92,-94,-95,-96,-97,-98,-99,-99,-99,-100,-100,-101,-102,-102,-101,-100,-99,-99,-98,-98,-98,-97,-96,-96,-98,-99,-95,-89,-86,-84,-82,-81,-80,-79,-78,-77,-77,-77,-78,-78,-78,-78,-78,-78,-78,-77,-76,-74,-73,-72,-71,-71,-70,-69,-68,-67,-66,-63,-60,-56,-53,-53,-55,-59,-63,-66,-68,-70,-71,-74,-76,-78,-79,-81,-82,-82,-83,-83,-83,-82,-82,-81,-80,-79,-79,-78,-77,-77,-77,-76,-77,-77,-77,-78,-79,-80,-80,-80,-80,-80,-81,-81,-81,-81,-81,-83,-85,-88,-89,-87,-82,-79,-77,-75,-73,-70,-68,-66,-64,-64,-64,-65,-67,-68,-70,-72,-74,-77,-79,-80,-82,-83,-85,-88,-90,-90,-88,-85,-80,-75,-71,-68,-66,-63,-61,-59,-58,-57,-56,-56,-55,-54,-53,-51,-50,-50,-49,-48,-47,-46,-44,-42,-40,-37,-32,-21,-10,0,10,22,30,35,40,43,46,47,45,41,33,25,15,2,-8,-18,-23,-25,-28,-29,-31,-32,-33,-34,-34,-33,-33,-33,-33,-33,-33,-33,-33,-33,-34,-35,-36,-37,-38,-39,-40,-42,-44,-47,-51,-61,-68,-66,-60,-40,0,70,173,301,441,573,672,709,666,552,396,234,101,20,-8,-17,-23,-26,-27,-28,-27,-27,-27,-27,-27,-26,-25,-24,-23,-21,-18,-15,-12,-8,-4,0,4,9,15,20,25,29,32,34,37,39,41,44,46,48,50,53,56,59,62,64,66,69,72,76,80,84,88,92,95,99,103,107,110,114,119,126,133,140,146,152,159,169,181,191,200,210,222,236,251,266,281,293,303,310,316,321,325,329,332,334,336,337,336,334,330,324,317,304,275,245,214,183,153,125,96,68,40,12,-12,-28,-42,-63,-76,-85,-91,-97,-100,-103,-105,-107,-109,-111,-112,-114,-115,-116,-118,-119,-120,-121,-121,-121,-121,-121,-119,-117,-115,-113,-111,-108,-106,-104,-102,-100,-99,-98,-97,-96,-94,-92,-90,-88,-86,-85,-83,-82,-82,-82,-81,-81,-81,-80,-80,-79,-79,-78,-78,-77,-76,-77,-77,-77,-77,-75,-74,-72,-72,-72,-73,-74,-74,-74,-74,-75,-75,-75,-75,-72,-68,-64,-61,-60,-58,-56,-54,-52,-51,-50,-49,-48,-48,-47,-47,-48,-48,-49,-50,-50,-50,-50,-51,-52,-53,-53,-53,-53,-53,-53,-53,-53,-52,-52,-52,-52,-52,-53,-53,-54,-55,-57,-59,-60,-61,-61,-61,-61,-61,-62,-64,-66,-68,-71,-73,-77,-80,-83,-85,-85,-85,-83,-81,-78,-76,-72,-69,-66,-63,-60,-58,-56,-53,-51,-48,-46,-44,-41,-39,-36,-34,-31,-29,-28,-27,-26,-25,-24,-22,-20,-18,-15,-11,-4,13,31,48,66,82,92,99,105,108,109,107,101,94,86,77,64,51,36,30,26,22,20,17,15,14,13,12,11,11,10,10,10,11,11,12,12,12,12,11,10,10,10,10,9,9,7,6,4,3,0,-7,-7,13,70,158,278,420,563,678,713,699,594,434,267,130,52,24,18,15,13,11,10,10,10,12,15,19,23,27,29,31,33,36,38,40,41,41,42,42,42,42,42,42,42,41,41,41,42,42,43,45,46,47,49,50,52,54,56,59,64,76,87,96,102,106,110,113,115,117,120,122,125,128,131,134,138,141,145,150,154,159,164,169,175,183,195,215,229,246,268,288,303,322,333,340,346,351,353,354,353,349,343,336,328,318,301,285,271,249,216,183,149,113,82,54,21,1,-8,-15,-21,-26,-31,-36,-41,-47,-54,-62,-73,-85,-93,-100,-106,-112,-118,-123,-128,-132,-137,-144,-153,-159,-160,-161,-161,-161,-161,-161,-161,-161,-161,-161,-162,-161,-159,-156,-152,-148,-145,-142,-139,-135,-132,-128,-126,-124,-122,-120,-117,-113,-109,-106,-104,-102,-101,-99,-97,-96,-95,-95,-94,-94,-93,-93,-92,-92,-92,-92,-91,-90,-89,-88,-88,-87,-87,-86,-85,-84,-83,-82,-82,-82,-81,-81,-81,-80,-80,-79,-79,-78,-77,-76,-75,-74,-73,-73,-72,-71,-70,-70,-69,-68,-66,-64,-61,-59,-57,-55,-55,-55,-56,-57,-59,-61,-63,-65,-67,-68,-70,-72,-74,-76,-77,-77,-78,-78,-77,-76,-75,-73,-72,-72,-73,-74,-75,-75,-76,-77,-77,-77,-76,-75,-73,-71,-69,-68,-67,-66,-65,-65,-64,-64,-64,-63,-63,-62,-61,-59,-59,-58,-57,-56,-55,-54,-53,-51,-50,-48,-45,-42,-39,-35,-31,-26,-21,-12,4,17,24,28,32,36,39,41,41,36,28,19,9,-4,-12,-17,-20,-22,-24,-25,-26,-27,-27,-26,-26,-25,-25,-24,-23,-22,-21,-21,-21,-22,-23,-24,-25,-26,-28,-29,-30,-31,-33,-34,-38,-49,-50,-36,1,73,183,324,479,617,693,696,633,495,329,171,48,-2,-21,-28,-25,-20,-17,-15,-13,-11,-9,-6,-4,-1,2,4,6,6,7,7,7,7,7,8,10,11,12,13,14,15,15,17,18,19,19,20,22,25,28,32,36,41,46,57,67,73,76,77,78,78,79,80,81,82,82,83,84,86,87,89,91,94,97,102,109,123,137,149,162,175,188,201,214,227,241,255,266,276,284,289,293,295,298,301,304,306,306,305,300,292,282,262,229,200,167,139,119,97,76,55,35,18,4,-8,-22,-38,-57,-78,-86,-91,-95,-99,-101,-104,-106,-109,-110,-110,-109,-108,-106,-103,-101,-97,-94,-91,-88,-86,-86,-86,-85,-85,-85,-85,-85,-84,-84,-83,-82,-81,-80,-79,-78,-77,-75,-73,-71,-70,-67,-65,-63,-61,-59,-55,-51,-48,-44,-42,-40,-40,-39,-38,-38,-39,-40,-41,-41,-42,-43,-44,-45,-45,-45,-44,-43,-41,-39,-38,-36,-35,-34,-33,-33,-33,-34,-35,-36,-38,-40,-42,-44,-45,-47,-48,-49,-50,-50,-51,-52,-53,-53,-53,-51,-49,-47,-45,-44,-43,-42,-40,-39,-38,-38,-38,-39,-41,-43,-45,-47,-49,-51,-52,-53,-54,-55,-55,-54,-54,-54,-55,-55,-55,-54,-54,-53,-52,-51,-50,-49,-47,-46,-45,-45,-45,-45,-45,-45,-45,-45,-45,-44,-43,-41,-40,-40,-39,-39,-39,-39,-40,-40,-41,-40,-39,-38,-36,-34,-32,-29,-27,-24,-21,-18,-13,0,11,19,26,31,35,39,42,45,47,46,42,35,28,22,17,11,5,-1,-8,-14,-20,-25,-29,-33,-37,-40,-42,-44,-46,-47,-50,-52,-54,-56,-58,-60,-62,-64,-65,-64,-63,-62,-60,-58,-56,-53,-50,-46,-42,-38,-33,-2,64,167,307,470,628,733,747,708,576,399,215,68,-3,-30,-31,-17,-10,-6,-4,-2,0,3,6,10,14,18,21,25,27,29,31,32,32,33,34,36,38,39,40,41,42,43,44,44,44,44,44,44,45,46,47,47,49,51,54,57,59,61,63,66,69,73,77,82,85,89,93,97,101,105,110,115,122,130,138,145,153,161,170,182,195,207,220,236,258,276,288,296,304,309,314,317,320,323,326,330,332,333,331,325,317,308,294,272,254,231,205,182,155,124,93,62,30,3,-16,-32,-44,-53,-61,-70,-76,-79,-80,-82,-84,-86,-89,-91,-92,-94,-95,-96,-97,-98,-98,-97,-97,-97,-96,-95,-94,-94,-93,-92,-91,-90,-90,-89,-89,-88,-88,-88,-87,-86,-85,-84,-82,-79,-77,-76,-75,-74,-72,-70,-68,-67,-66,-64,-61,-58,-56,-56,-57,-59,-61,-63,-64,-65,-66,-67,-68,-69,-69,-69,-69,-70,-70,-71,-71,-71,-72,-73,-74,-75,-75,-75,-75,-75,-76,-76,-77,-78,-79,-80,-82,-83,-82,-78,-73,-68,-64,-61,-60,-58,-56,-55,-54,-53,-52,-52,-50,-49,-49,-49,-49,-50,-50,-49,-49,-49,-50,-50,-51,-51,-51,-51,-51,-50,-50,-50,-50,-50,-50,-51,-51,-52,-53,-54,-56,-57,-58,-59,-60,-60,-60,-60,-61,-61,-61,-62,-64,-64,-61,-56,-52,-49,-48,-46,-45,-45,-44,-44,-44,-44,-43,-42,-41,-41,-41,-40,-39,-37,-35,-33,-31,-28,-20,4,25,39,45,48,51,55,58,60,58,50,41,32,22,13,3,-4,-8,-11,-13,-15,-16,-17,-19,-20,-21,-23,-24,-25,-26,-28,-29,-31,-32,-32,-33,-35,-36,-39,-41,-43,-46,-49,-52,-57,-66,-75,-78,-81,-85,-91,-79,-43,15,103,220,361,514,650,714,712,640,490,313,149,32,-8,-17,-25,-30,-33,-36,-38,-38,-37,-36,-34,-32,-28,-23,-19,-16,-13,-11,-9,-7,-6,-5,-3,-2,0,1,2,4,5,7,9,10,12,13,14,16,18,21,24,27,31,35,39,44,50,54,59,63,66,70,74,78,83,88,95,104,112,120,128,136,143,149,155,161,166,170,173,177,181,188,197,209,223,240,258,275,290,303,315,324,330,335,339,343,345,346,345,341,335,326,315,292,256,226,196,164,132,97,63,34,13,-7,-17,-23,-28,-32,-36,-40,-44,-49,-54,-59,-63,-67,-70,-73,-75,-78,-81,-83,-85,-88,-90,-93,-94,-96,-96,-95,-94,-92,-90,-89,-87,-85,-83,-82,-81,-80,-79,-77,-75,-73,-69,-66,-63,-60,-57,-55,-53,-52,-51,-51,-51,-51,-50,-49,-47,-46,-44,-43,-43,-43,-43,-45,-47,-49,-51,-53,-54,-55,-56,-56,-56,-55,-54,-53,-52,-52,-51,-49,-47,-45,-42,-40,-39,-37,-35,-33,-31,-30,-30,-30,-30,-31,-31,-32,-32,-34,-35,-36,-36,-37,-38,-39,-40,-42,-44,-45,-46,-47,-48,-49,-50,-50,-51,-51,-51,-52,-52,-53,-54,-55,-56,-57,-58,-58,-59,-59,-60,-60,-61,-62,-63,-65,-66,-68,-69,-70,-70,-71,-71,-72,-72,-72,-72,-73,-74,-76,-77,-78,-79,-79,-79,-79,-80,-79,-80,-81,-83,-85,-87,-87,-85,-80,-75,-71,-67,-63,-59,-55,-51,-47,-43,-38,-34,-30,-27,-24,-21,-18,-15,-12,-7,-1,3,8,12,13,11,7,1,-4,-10,-16,-23,-30,-37,-44,-48,-51,-54,-56,-58,-59,-60,-61,-61,-62,-62,-63,-63,-64,-65,-65,-65,-65,-64,-62,-60,-57,-54,-51,-46,-41,-36,-30,-16,21,92,195,326,472,603,665,660,575,416,233,76,15,-2,-15,-22,-25,-25,-23,-20,-16,-10,-1,3,0,-5,-8,-11,-15,-18,-20,-21,-21,-22,-21,-18,-14,-8,-3,2,8,12,17,21,26,29,31,33,34,35,35,34,34,32,31,29,28,25,20,21,38,50,59,67,75,83,91,96,101,105,108,111,113,116,119,122,125,128,131,135,139,146,157,181,203,222,239,253,264,278,293,307,314,319,323,326,328,329,328,324,318,309,300,285,260,243,221,194,167,140,112,84,53,24,0,-33,-53,-61,-68,-73,-77,-80,-83,-84,-86,-87,-88,-90,-91,-91,-91,-91,-91,-91,-91,-91,-91,-91,-91,-91,-91,-91,-91,-90,-88,-86,-84,-83,-81,-80,-79,-77,-76,-75,-75,-76,-76,-77,-77,-76,-75,-75,-74,-73,-72,-71,-71,-70,-70,-69,-69,-68,-66,-65,-63,-61,-56,-51,-48,-51,-58,-65,-68,-71,-73,-76,-78,-80,-82,-83,-84,-84,-84,-84,-83,-83,-82,-82,-81,-80,-79,-78,-77,-77,-76,-76,-76,-76,-76,-76,-77,-78,-78,-79,-80,-81,-81,-82,-82,-82,-82,-81,-81,-81,-81,-79,-75,-71,-67,-64,-61,-58,-55,-53,-51,-51,-51,-52,-53,-53,-54,-54,-54,-55,-56,-57,-58,-58,-58,-58,-59,-59,-59,-58,-57,-56,-54,-52,-51,-49,-47,-44,-42,-40,-37,-33,-29,-19,-8,0,9,18,28,35,40,43,44,46,48,49,51,51,48,42,34,28,24,21,18,14,11,8,6,3,1,0,-2,-3,-3,-3,-3,-2,-1,-1,-1,-2,-3,-4,-5,-4,-3,-2,-1,0,1,3,5,7,9,12,28,92,189,313,441,552,616,620,576,467,331,197,94,40,26,16,9,5,1,-1,-3,-5,-6,-7,-8,-9,-10,-12,-13,-12,-8,-3,2,8,14,21,26,29,28,26,24,22,20,18,15,12,11,11,14,20,27,34,40,48,56,63,68,71,73,74,75,76,77,79,80,81,83,85,87,90,92,93,95,97,102,110,119,129,139,149,158,167,178,189,200,212,228,240,250,262,276,289,297,302,307,311,312,312,309,304,298,290,278,258,240,222,204,186,161,131,103,74,45,18,0,-11,-25,-41,-52,-60,-66,-73,-79,-86,-92,-97,-103,-109,-115,-119,-121,-122,-122,-122,-123,-124,-126,-123,-117,-114,-111,-109,-106,-105,-103,-101,-99,-96,-94,-93,-92,-92,-91,-90,-89,-88,-88,-88,-88,-86,-84,-82,-81,-81,-81,-81,-81,-82,-82,-84,-86,-87,-89,-90,-90,-91,-92,-92,-93,-93,-94,-94,-95,-96,-96,-95,-95,-94,-93,-91,-89,-87,-85,-82,-80,-79,-79,-78,-78,-78,-77,-77,-77,-77,-77,-77,-77,-77,-77,-77,-77,-78,-79,-79,-80,-81,-81,-82,-82,-82,-83,-83,-82,-81,-80,-79,-79,-78,-78,-77,-77,-76,-77,-77,-76,-75,-74,-74,-73,-72,-72,-71,-70,-68,-68,-68,-68,-68,-68,-66,-65,-63,-61,-59,-57,-54,-51,-48,-45,-42,-39,-34,-26,-15,-6,2,11,19,25,31,37,41,44,46,45,43,38,31,24,18,12,8,5,1,-1,-5,-8,-12,-15,-19,-21,-23,-25,-25,-25,-25,-24,-23,-23,-22,-22,-22,-23,-23,-22,-22,-22,-22,-22,-22,-22,-23,-25,-27,-22,-6,37,105,201,326,468,607,702,714,677,545,368,185,37,-33,-59,-61,-45,-26,-8,-3,0,4,6,5,3,3,2,2,1,1,1,0,0,0,0,2,5,8,10,12,14,14,15,16,16,17,17,19,20,22,24,25,27,28,29,31,32,34,35,37,40,44,48,54,64,74,83,90,97,105,115,125,135,140,142,145,147,150,152,154,156,158,161,164,167,170,173,177,182,192,202,214,227,236,246,255,262,265,263,258,250,239,220,185,151,122,102,87,68,49,30,14,0,-11,-22,-35,-50,-68,-80,-88,-93,-98,-103,-110,-118,-125,-129,-133,-138,-141,-144,-146,-148,-148,-148,-147,-146,-144,-141,-139,-136,-134,-133,-131,-130,-129,-128,-127,-126,-126,-124,-123,-122,-122,-122,-122,-122,-122,-122,-122,-121,-121,-120,-117,-115,-112,-108,-105,-102,-99,-95,-85,-76,-75,-76,-76,-76,-76,-75,-75,-74,-74,-73,-73,-72,-71,-72,-72,-73,-73,-73,-73,-72,-71,-70,-70,-69,-68,-68,-67,-67,-67,-68,-69,-70,-71,-72,-73,-75,-76,-77,-78,-78,-78,-78,-79,-79,-81,-82,-83,-84,-81,-77,-72,-67,-63,-59,-54,-49,-46,-45,-46,-49,-54,-59,-63,-68,-73,-78,-83,-86,-87,-86,-83,-78,-72,-66,-58,-43,-34,-29,-26,-25,-24,-22,-21,-19,-17,-16,-14,-12,-10,-7,-5,-2,1,5,10,18,34,44,50,55,60,63,62,54,44,34,25,15,4,-4,-9,-14,-18,-22,-26,-29,-32,-34,-35,-35,-34,-33,-30,-28,-24,-21,-18,-16,-14,-11,-8,-5,-1,2,7,12,17,22,27,36,48,96,180,290,416,547,657,688,676,580,433,274,137,62,38,26,22,19,17,15,14,12,11,10,9,9,10,10,10,10,11,14,17,21,25,28,30,33,38,43,48,52,55,57,58,60,60,61,60,60,60,62,64,66,67,69,70,72,75,78,82,86,90,97,105,114,121,127,133,139,145,152,158,165,171,176,181,185,189,194,199,204,209,215,223,235,255,271,285,296,306,316,322,328,333,337,339,339,339,337,333,328,321,308,279,248,216,180,150,125,96,69,49,30,14,0,-11,-21,-34,-49,-69,-76,-79,-83,-86,-88,-91,-93,-94,-96,-97,-99,-100,-101,-101,-102,-102,-102,-102,-102,-101,-100,-99,-98,-98,-98,-98,-98,-97,-97,-97,-97,-97,-95,-93,-91,-90,-89,-89,-87,-86,-85,-85,-86,-87,-87,-86,-82,-79,-76,-76,-76,-77,-78,-79,-81,-83,-86,-88,-89,-90,-89,-89,-88,-87,-85,-83,-81,-80,-80,-80,-80,-80,-80,-79,-79,-79,-79,-79,-79,-79,-79,-79,-80,-81,-81,-81,-80,-79,-78,-76,-74,-72,-70,-68,-67,-66,-65,-63,-60,-55,-50,-47,-46,-46,-46,-48,-49,-51,-52,-54,-56,-58,-60,-60,-60,-58,-55,-50,-45,-39,-32,-25,-12,0,8,15,20,25,28,29,28,25,20,16,11,5,0,-2,-1,2,9,17,26,36,47,59,71,81,91,100,105,105,101,93,83,66,38,15,0,-13,-20,-24,-27,-30,-33,-34,-33,-29,-25,-20,-15,-11,-6,0,5,8,8,5,0,-6,-12,-20,-30,-41,-50,-57,-65,-74,-78,-74,-64,-34,21,105,216,352,502,645,747,762,735,608,430,239,78,-30,-70,-85,-83,-65,-54,-48,-43,-38,-32,-27,-21,-16,-10,-4,2,11,19,23,25,27,29,33,37,40,40,37,32,26,22,18,14,10,8,7,10,16,23,30,36,42,47,53,59,64,68,70,72,73,74,75,76,77,78,79,80,82,84,86,88,91,93,96,100,105,111,122,144,161,174,184,194,205,216,228,241,251,259,264,269,273,276,277,277,274,268,260,251,240,222,205,188,167,143,120,101,85,68,52,26,-7,-31,-46,-61,-76,-84,-90,-96,-100,-103,-105,-106,-106,-103,-98,-92,-87,-81,-76,-72,-69,-65,-61,-59,-57,-55,-53,-50,-47,-44,-41,-39,-37,-34,-31,-28,-26,-24,-22,-20,-17,-14,-12,-10,-9,-8,-6,-5,-3,-3,-2,-2,-1,0,0,1,2,2,2,2,2,2,2,2,1,1,1,1,2,3,4,5,6,6,7,6,5,4,3,1,0,0,-1,-2,-4,-5,-7,-10,-12,-15,-18,-21,-23,-25,-27,-28,-29,-30,-31,-32,-32,-33,-33,-34,-35,-36,-36,-37,-38,-39,-39,-40,-40,-40,-41,-42,-43,-45,-46,-47,-48,-50,-52,-55,-57,-60,-62,-65,-68,-71,-74,-77,-79,-81,-82,-83,-85,-85,-85,-84,-83,-82,-81,-80,-78,-75,-72,-68,-65,-62,-58,-53,-46,-34,-21,-13,-6,0,4,10,14,16,14,7,-2,-15,-29,-48,-63,-75,-80,-82,-85,-87,-89,-90,-91,-92,-92,-93,-94,-94,-94,-93,-92,-91,-89,-88,-88,-87,-87,-86,-86,-86,-85,-85,-84,-83,-82,-80,-78,-76,-74,-53,9,112,254,428,608,752,798,783,659,455,242,62,-55,-81,-81,-81,-81,-79,-79,-75,-67,-58,-51,-48,-45,-42,-39,-36,-35,-33,-33,-32,-31,-29,-28,-27,-26,-25,-25,-25,-25,-25,-24,-23,-21,-19,-16,-13,-10,-7,-2,3,10,17,24,29,34,40,45,49,53,56,59,62,65,68,71,74,77,79,82,85,89,93,98,105,121,136,152,168,184,200,215,226,236,244,251,257,262,266,270,273,277,280,283,284,284,282,278,273,266,257,244,219,196,165,129,95,63,32,1,-21,-35,-49,-63,-71,-78,-83,-87,-91,-96,-100,-103,-106,-108,-111,-114,-117,-119,-122,-124,-126,-128,-129,-130,-131,-132,-133,-134,-135,-134,-134,-132,-131,-129,-128,-125,-122,-117,-113,-109,-105,-101,-96,-90,-84,-80,-78,-78,-80,-83,-86,-89,-92,-95,-98,-101,-103,-105,-106,-107,-107,-106,-103,-101,-98,-96,-95,-94,-93,-93,-92,-92,-91,-91,-91,-91,-90,-90,-89,-89,-88,-87,-87,-86,-84,-82,-81,-79,-78,-76,-73,-71,-68,-66,-64,-62,-61,-59,-58,-58,-58,-59,-60,-61,-61,-62,-62,-62,-63,-63,-62,-62,-61,-61,-61,-61,-60,-59,-58,-57,-55,-54,-52,-50,-48,-46,-45,-44,-44,-44,-44,-45,-45,-45,-44,-44,-42,-40,-38,-35,-33,-31,-29,-26,-23,-20,-16,-12,-4,5,16,24,32,39,46,53,61,68,73,75,76,77,78,81,83,81,69,56,50,47,44,41,39,37,36,35,33,33,32,32,31,31,31,31,31,31,32,32,33,33,32,32,31,30,29,28,26,24,21,19,16,13,5,0,6,26,83,173,299,456,627,778,849,846,755,571,356,166,34,-23,-43,-52,-51,-40,-30,-26,-23,-21,-19,-17,-15,-13,-10,-7,-5,-4,-2,-2,-2,-2,-3,-3,-4,-4,-4,-4,-4,-2,-1,0,2,4,6,7,8,9,9,10,12,13,14,16,17,19,22,24,27,29,31,33,34,35,36,36,36,35,35,35,36,37,38,39,41,43,45,47,49,51,54,57,64,82,96,108,122,139,159,177,192,207,222,240,258,264,270,275,273,258,236,208,188,173,153,131,111,90,70,50,35,20,4,-13,-31,-49,-67,-79,-88,-96,-100,-101,-101,-101,-101,-101,-101,-101,-100,-96,-89,-80,-73,-68,-65,-61,-58,-54,-51,-48,-46,-44,-42,-40,-39,-39,-38,-38,-38,-38,-38,-38,-38,-37,-37,-36,-35,-34,-33,-32,-32,-33,-33,-34,-35,-35,-36,-36,-37,-37,-37,-37,-37,-37,-37,-38,-39,-40,-41,-43,-44,-46,-47,-48,-49,-51,-53,-54,-55,-55,-55,-55,-56,-58,-60,-61,-62,-63,-64,-66,-67,-68,-69,-69,-69,-69,-70,-70,-70,-70,-69,-68,-68,-68,-67,-66,-64,-62,-61,-59,-58,-57,-56,-55,-53,-52,-52,-53,-52,-52,-51,-49,-48,-46,-46,-45,-45,-44,-45,-45,-45,-45,-45,-45,-44,-43,-42,-41,-39,-37,-35,-32,-29,-26,-23,-19,-16,-12,-4,4,11,15,17,19,21,24,27,30,29,20,8,0,-5,-11,-17,-23,-28,-34,-40,-45,-50,-55,-59,-64,-69,-73,-76,-79,-80,-80,-77,-74,-71,-67,-64,-60,-55,-47,-40,-34,-31,-32,-35,-38,-43,-51,-62,-45,8,106,243,410,581,720,765,752,642,464,273,105,-16,-64,-82,-82,-62,-32,-6,5,14,11,-6,-17,-24,-29,-33,-36,-37,-37,-34,-30,-24,-17,-9,0,20,30,35,40,44,48,50,49,48,46,45,44,43,42,41,39,38,37,37,36,37,40,43,47,50,54,58,61,65,73,81,87,92,96,100,103,107,110,115,120,126,131,138,145,152,160,167,175,184,195,205,213,222,236,261,281,294,302,307,311,315,318,319,317,310,299,280,254,217,175,133,107,82,59,38,12,-2,-8,-13,-16,-18,-21,-23,-25,-28,-31,-33,-35,-37,-39,-41,-46,-55,-62,-68,-71,-75,-77,-79,-79,-76,-70,-61,-52,-44,-35,-27,-21,-20,-20,-22,-23,-25,-26,-26,-27,-27,-26,-26,-26,-25,-24,-22,-20,-18,-15,-13,-11,-8,-4,0,2,4,3,0,-4,-11,-20,-30,-48,-60,-68,-74,-80,-85,-88,-87,-81,-73,-65,-58,-52,-45,-40,-37,-37,-40,-45,-52,-58,-69,-86,-96,-100,-103,-105,-107,-108,-110,-113,-117,-120,-122,-125,-128,-132,-136,-144,-159,-173,-181,-187,-193,-196,-197,-193,-186,-178,-172,-166,-160,-154,-149,-143,-137,-132,-127,-122,-118,-114,-111,-107,-103,-100,-96,-93,-89,-85,-81,-76,-69,-62,-56,-50,-45,-40,-34,-25,-15,-4,6,18,23,26,28,31,33,32,23,12,4,-2,-8,-15,-22,-28,-35,-42,-49,-59,-67,-70,-71,-72,-73,-75,-76,-68,-52,-44,-37,-30,-25,-21,-19,-18,-19,-20,-24,-27,-32,-39,-51,-52,-42,-13,45,138,272,440,614,752,813,774,641,443,231,57,-31,-60,-49,-31,-12,-3,0,3,5,8,10,13,16,19,21,23,23,24,25,26,27,27,28,28,29,29,30,31,33,35,36,37,37,38,39,40,43,48,53,62,81,98,108,115,121,126,128,127,124,121,117,114,111,108,103,100,98,101,108,118,128,137,150,162,171,177,183,192,204,219,232,243,256,271,289,308,312,314,316,317,318,319,320,320,319,318,314,310,303,295,278,246,215,185,161,143,123,102,82,60,38,15,-5,-23,-37,-53,-69,-78,-83,-88,-92,-95,-98,-100,-103,-106,-109,-110,-111,-112,-113,-113,-114,-115,-116,-121,-124,-123,-115,-105,-100,-95,-91,-88,-85,-83,-81,-79,-77,-77,-77,-78,-80,-82,-84,-85,-87,-88,-90,-91,-92,-94,-98,-103,-107,-105,-100,-94,-90,-85,-80,-76,-74,-74,-76,-78,-80,-81,-83,-85,-88,-90,-92,-94,-96,-98,-99,-100,-100,-99,-97,-95,-94,-93,-92,-92,-91,-91,-91,-91,-91,-91,-91,-90,-89,-88,-87,-86,-84,-82,-80,-78,-76,-75,-74,-72,-70,-68,-65,-62,-58,-45,-31,-17,-3,6,13,20,25,30,33,33,32,28,23,18,12,5,-4,-19,-35,-50,-56,-61,-64,-68,-71,-73,-73,-74,-74,-75,-75,-76,-76,-77,-77,-78,-78,-79,-80,-81,-82,-83,-84,-86,-88,-90,-94,-101,-108,-110,-103,-87,-37,54,187,351,527,681,752,747,649,469,268,91,-13,-54,-67,-74,-80,-83,-85,-83,-75,-66,-57,-51,-46,-40,-34,-29,-24,-20,-16,-14,-12,-11,-10,-10,-9,-8,-6,-4,-2,0,3,6,10,15,20,25,29,32,35,38,41,44,48,52,57,61,65,69,72,76,79,83,87,92,96,101,107,112,117,122,126,130,135,140,145,152,158,166,174,183,193,204,217,231,245,258,272,283,288,291,294,296,299,302,304,303,299,290,279,265,242,223,199,165,126,90,56,24,1,-16,-39,-53,-61,-67,-73,-79,-85,-91,-96,-101,-106,-110,-115,-120,-123,-127,-130,-133,-135,-136,-135,-133,-131,-128,-125,-121,-118,-114,-111,-107,-105,-101,-98,-94,-89,-86,-83,-81,-81,-81,-83,-85,-87,-90,-94,-97,-100,-103,-107,-111,-114,-115,-114,-111,-107,-102,-97,-93,-88,-82,-78,-75,-75,-79,-85,-92,-99,-104,-109,-115,-120,-125,-129,-130,-130,-127,-124,-118,-112,-105,-99,-93,-88,-82,-77,-72,-67,-63,-59,-55,-52,-49,-45,-42,-38,-34,-29,-21,-12,-5,0,4,7,11,15,18,20,21,18,14,8,0,-7,-15,-27,-38,-46,-53,-58,-62,-65,-68,-71,-72,-73,-73,-73,-73,-72,-70,-68,-65,-63,-61,-59,-55,-51,-48,-46,-48,-54,-63,-72,-82,-97,-105,-101,-87,-47,33,149,299,465,624,732,744,694,530,327,136,-3,-51,-69,-75,-70,-60,-55,-53,-50,-47,-45,-43,-41,-38,-35,-31,-28,-26,-24,-22,-19,-15,-9,-3,2,7,12,15,18,21,23,26,30,33,38,43,49,55,60,63,66,69,72,74,77,79,83,87,92,98,102,106,109,111,114,116,119,123,126,131,135,141,146,151,155,159,164,170,178,195,216,239,261,279,288,295,301,305,308,310,311,311,311,310,308,304,299,293,287,271,240,209,181,156,127,101,81,60,44,32,20,8,-3,-19,-40,-59,-74,-85,-94,-102,-109,-113,-116,-119,-121,-123,-123,-121,-116,-111,-106,-102,-100,-98,-95,-92,-90,-87,-85,-83,-80,-78,-77,-76,-75,-75,-75,-76,-77,-77,-77,-77,-77,-76,-75,-74,-73,-72,-71,-70,-70,-70,-71,-71,-72,-73,-75,-77,-79,-81,-82,-83,-83,-83,-83,-83,-83,-82,-82,-81,-82,-82,-83,-83,-83,-82,-82,-82,-82,-81,-80,-79,-79,-78,-79,-79,-80,-80,-80,-81,-81,-82,-81,-80,-79,-77,-76,-75,-74,-73,-71,-69,-67,-65,-62,-57,-48,-39,-26,-13,-2,9,19,26,30,34,37,39,43,46,47,45,38,30,21,9,-4,-20,-27,-31,-35,-40,-43,-46,-48,-50,-52,-54,-56,-57,-57,-57,-57,-58,-59,-60,-62,-63,-64,-65,-65,-66,-67,-67,-67,-68,-69,-70,-77,-76,-62,-22,52,164,310,474,626,726,737,688,539,352,169,33,-18,-36,-43,-40,-35,-33,-33,-33,-32,-32,-32,-32,-31,-30,-29,-28,-26,-24,-21,-18,-14,-10,-6,-2,2,5,7,9,12,15,18,21,23,26,29,32,35,38,39,40,41,42,43,44,45,46,47,49,51,54,57,61,67,74,81,87,94,101,107,113,118,124,131,139,148,157,166,175,184,193,200,204,209,214,220,227,233,239,245,249,254,258,263,265,265,260,252,242,228,206,186,160,131,104,74,40,10,-10,-27,-44,-58,-71,-82,-92,-98,-103,-107,-110,-114,-118,-123,-127,-132,-136,-140,-146,-151,-156,-159,-159,-157,-152,-147,-142,-137,-132,-127,-122,-117,-114,-111,-109,-107,-104,-101,-98,-96,-96,-97,-99,-101,-102,-104,-106,-108,-110,-111,-108,-103,-96,-89,-83,-77,-71,-65,-61,-60,-61,-65,-70,-75,-81,-88,-102,-107,-110,-111,-112,-113,-114,-114,-114,-113,-110,-105,-100,-95,-91,-87,-83,-79,-77,-75,-74,-74,-75,-76,-77,-78,-80,-82,-84,-86,-90,-92,-93,-92,-89,-87,-84,-83,-81,-80,-78,-77,-76,-75,-75,-75,-76,-77,-77,-78,-79,-81,-82,-85,-88,-90,-80,-62,-50,-41,-32,-24,-17,-12,-7,-2,1,4,7,10,13,14,15,14,14,12,9,4,0,-5,-10,-14,-18,-20,-23,-27,-30,-34,-38,-42,-45,-48,-51,-53,-54,-54,-53,-51,-49,-47,-45,-44,-44,-44,-44,-43,-43,-42,-41,-40,-37,-34,-32,-34,-39,-45,-53,-33,27,145,314,514,710,835,846,776,589,373,183,60,27,16,10,8,8,9,10,11,12,13,14,14,14,15,15,15,14,11,9,6,3,0,-3,-6,-9,-8,-2,5,15,22,29,37,44,50,56,61,64,67,69,71,73,75,77,80,83,87,91,94,97,100,103,105,107,109,111,114,117,121,125,130,134,137,140,144,148,153,160,174,185,193,204,217,237,253,265,275,284,291,295,300,304,307,310,311,310,308,304,298,290,276,246,213,179,143,109,77,47,19,-10,-36,-54,-74,-84,-91,-97,-101,-105,-106,-106,-105,-104,-101,-99,-96,-89,-85,-90,-99,-102,-105,-109,-112,-114,-117,-119,-120,-121,-120,-118,-115,-110,-105,-100,-94,-89,-85,-82,-79,-76,-74,-71,-69,-66,-63,-61,-60,-58,-57,-55,-54,-53,-52,-52,-52,-51,-51,-51,-52,-52,-53,-55,-56,-58,-59,-59,-59,-59,-59,-58,-58,-57,-57,-58,-59,-60,-61,-62,-63,-64,-65,-66,-67,-67,-67,-67,-67,-67,-69,-70,-72,-73,-75,-76,-78,-79,-80,-81,-81,-81,-82,-82,-85,-87,-89,-88,-83,-77,-71,-69,-66,-64,-62,-61,-59,-58,-57,-56,-55,-55,-54,-54,-54,-54,-53,-53,-53,-52,-51,-50,-48,-46,-43,-41,-38,-35,-32,-28,-23,-10,1,8,14,18,22,25,28,30,33,36,37,39,41,43,45,47,49,50,52,54,57,59,62,64,66,66,66,65,63,60,55,50,44,38,33,27,17,8,2,0,-1,-3,-4,-7,-9,-8,-2,4,8,9,10,11,13,15,17,20,23,25,27,29,31,34,38,44,75,166,298,463,634,776,825,814,702,516,316,144,30,3,-5,8,14,16,17,18,19,20,20,20,19,20,20,20,19,18,17,16,16,17,18,18,17,17,17,18,19,20,21,23,25,28,30,33,35,37,40,44,49,53,58,62,65,69,72,76,80,84,88,93,99,105,111,116,123,129,137,145,153,159,164,169,173,177,180,182,185,189,193,197,202,207,213,221,235,250,267,278,286,293,300,305,307,306,303,298,291,281,263,231,204,177,150,120,86,52,18,-11,-33,-49,-68,-85,-100,-108,-112,-114,-115,-115,-116,-116,-116,-116,-117,-118,-119,-120,-121,-121,-122,-122,-123,-123,-122,-121,-120,-118,-117,-116,-114,-112,-110,-108,-105,-103,-100,-95,-88,-81,-77,-73,-69,-65,-60,-56,-54,-54,-57,-61,-64,-66,-67,-69,-70,-72,-74,-75,-75,-76,-76,-75,-75,-74,-72,-71,-70,-70,-70,-70,-70,-71,-71,-72,-73,-73,-72,-72,-71,-71,-72,-72,-72,-72,-72,-71,-71,-71,-71,-71,-70,-70,-70,-71,-71,-71,-71,-71,-70,-70,-69,-69,-68,-68,-68,-68,-68,-68,-68,-67,-67,-66,-66,-66,-66,-65,-64,-64,-63,-60,-58,-55,-53,-52,-52,-53,-54,-56,-58,-63,-66,-61,-54,-51,-50,-48,-47,-45,-43,-42,-41,-39,-38,-36,-35,-34,-34,-34,-34,-33,-31,-30,-27,-24,-20,-9,2,16,32,49,65,76,85,91,90,82,70,57,44,30,17,11,7,3,0,-3,-6,-8,-9,-11,-12,-13,-14,-13,-13,-11,-9,-7,-5,-3,0,1,3,5,7,11,15,20,33,40,35,23,3,-14,-22,-27,0,81,214,387,576,741,823,823,742,572,373,191,53,-21,-46,-33,-9,10,16,19,22,24,25,28,30,34,37,39,40,41,40,40,40,41,42,43,45,46,47,48,48,48,48,48,49,49,50,51,53,55,56,58,60,62,64,66,68,71,73,76,83,91,98,105,111,116,120,123,126,130,134,139,143,149,155,162,171,185,198,206,213,221,228,235,243,252,261,269,278,285,291,294,297,300,303,307,311,313,313,307,298,284,260,224,194,163,133,102,72,43,23,10,-5,-21,-38,-54,-70,-83,-98,-113,-121,-127,-129,-130,-132,-133,-134,-135,-135,-135,-136,-136,-136,-135,-134,-133,-132,-131,-130,-127,-125,-122,-118,-115,-112,-109,-106,-104,-102,-100,-99,-97,-95,-93,-91,-88,-86,-83,-80,-77,-74,-72,-70,-68,-66,-66,-65,-65,-65,-65,-65,-64,-63,-61,-60,-58,-56,-54,-52,-50,-50,-50,-51,-51,-52,-55,-58,-62,-67,-70,-73,-75,-78,-80,-83,-86,-89,-93,-98,-104,-109,-114,-116,-116,-115,-114,-113,-113,-113,-112,-111,-110,-110,-110,-111,-111,-112,-112,-113,-114,-116,-118,-119,-120,-119,-119,-118,-118,-117,-115,-114,-111,-110,-108,-107,-107,-106,-105,-104,-102,-101,-99,-97,-94,-91,-88,-86,-83,-81,-79,-76,-74,-73,-71,-69,-67,-64,-61,-58,-54,-51,-48,-44,-41,-38,-36,-35,-34,-32,-31,-29,-26,-22,-18,-13,-5,15,35,52,65,73,76,78,80,83,84,73,53,39,26,15,7,0,-4,-8,-11,-12,-13,-14,-15,-15,-16,-16,-16,-17,-17,-17,-17,-17,-17,-18,-18,-18,-19,-19,-20,-21,-22,-24,-27,-30,-34,-43,-49,-44,-28,15,101,226,381,549,699,777,778,705,541,343,163,29,-23,-43,-43,-31,-25,-23,-21,-20,-19,-18,-17,-15,-13,-11,-9,-7,-4,-1,1,4,7,10,13,17,20,23,25,28,31,33,36,39,42,46,49,52,55,58,60,63,66,69,72,75,79,84,89,95,100,105,110,114,118,123,127,132,136,142,148,154,160,166,172,179,188,201,215,229,245,264,284,295,302,308,313,316,319,322,324,327,329,331,333,337,343,348,347,337,321,306,287,269,252,224,188,155,119,82,45,16,-5,-33,-51,-63,-72,-79,-84,-88,-92,-94,-96,-97,-99,-101,-103,-106,-108,-110,-112,-114,-115,-117,-118,-119,-119,-120,-121,-123,-126,-127,-125,-117,-107,-100,-97,-96,-94,-92,-89,-88,-86,-85,-84,-82,-80,-78,-77,-75,-74,-73,-72,-72,-72,-73,-73,-73,-72,-72,-72,-71,-70,-69,-68,-67,-67,-67,-69,-70,-72,-73,-74,-75,-76,-76,-77,-77,-77,-78,-79,-80,-81,-81,-81,-81,-81,-81,-80,-79,-78,-77,-76,-75,-75,-76,-76,-76,-76,-75,-74,-74,-74,-74,-74,-73,-73,-73,-74,-74,-75,-76,-76,-75,-74,-73,-72,-70,-69,-67,-66,-65,-65,-64,-62,-61,-58,-56,-53,-51,-48,-46,-45,-43,-43,-42,-43,-44,-45,-45,-46,-46,-47,-48,-49,-50,-52,-52,-53,-54,-54,-54,-54,-53,-52,-50,-47,-43,-38,-34,-29,-24,-19,-11,6,21,26,31,34,38,42,46,49,49,46,39,31,25,20,16,11,6,2,-1,-4,-7,-11,-14,-18,-22,-24,-27,-30,-34,-37,-40,-42,-45,-48,-50,-53,-56,-58,-60,-62,-63,-64,-64,-63,-62,-61,-59,-57,-55,-51,-47,-43,-39,-18,34,119,241,393,553,693,752,741,629,432,226,61,-43,-75,-85,-92,-96,-86,-65,-43,-18,-14,-17,-19,-20,-20,-20,-20,-22,-25,-27,-28,-29,-30,-32,-34,-36,-37,-37,-35,-31,-25,-19,-13,-6,0,4,8,11,14,16,19,21,24,26,29,32,35,38,40,43,45,46,48,51,53,56,60,65,72,80,87,92,97,102,107,114,122,135,149,166,176,184,191,197,202,207,212,216,222,229,241,261,274,281,288,293,295,293,285,274,257,227,197,169,147,131,114,97,80,63,42,12,-20,-55,-93,-129,-160,-180,-184,-188,-192,-186,-160,-150,-145,-140,-135,-132,-128,-126,-123,-120,-118,-117,-115,-114,-114,-114,-113,-113,-113,-112,-112,-111,-110,-109,-107,-106,-105,-104,-103,-101,-99,-95,-90,-85,-80,-75,-71,-67,-65,-62,-60,-58,-56,-54,-51,-48,-46,-46,-47,-48,-50,-51,-52,-54,-55,-57,-58,-60,-61,-61,-61,-61,-60,-59,-57,-56,-55,-54,-54,-54,-54,-53,-53,-52,-52,-51,-50,-49,-48,-47,-46,-45,-45,-44,-43,-42,-42,-42,-42,-42,-42,-42,-43,-43,-45,-45,-44,-43,-43,-43,-44,-46,-47,-48,-49,-51,-53,-55,-56,-58,-59,-60,-61,-61,-61,-60,-59,-58,-57,-56,-54,-52,-50,-48,-46,-44,-42,-39,-37,-34,-31,-29,-28,-26,-24,-22,-21,-20,-19,-18,-16,-14,-11,-9,-7,-5,-3,0,2,5,9,13,17,24,38,53,60,65,68,72,75,78,81,83,83,82,81,79,75,69,63,56,51,47,44,42,40,37,34,30,26,23,20,17,14,11,10,10,11,13,13,14,13,13,13,13,12,11,10,10,9,9,9,9,7,1,15,58,132,245,393,556,699,772,769,683,513,328,169,85,60,46,36,27,21,15,9,2,-3,-7,-9,-4,4,14,22,25,28,30,32,34,36,38,40,42,44,46,47,48,49,50,51,51,52,52,52,53,54,55,56,57,59,61,64,67,71,74,78,90,102,111,119,125,130,134,137,141,145,149,153,156,161,166,170,175,180,185,191,197,203,209,215,221,229,241,261,281,302,322,337,347,355,361,365,365,359,348,335,318,291,265,240,214,190,166,143,122,96,64,39,20,-1,-17,-28,-38,-48,-61,-71,-79,-84,-90,-95,-100,-104,-107,-109,-110,-111,-111,-112,-113,-114,-114,-115,-116,-117,-118,-118,-118,-118,-118,-118,-117,-115,-113,-110,-106,-103,-99,-96,-92,-88,-85,-83,-80,-78,-76,-73,-71,-70,-70,-69,-69,-68,-68,-68,-69,-69,-69,-68,-68,-67,-66,-67,-67,-67,-67,-67,-67,-67,-65,-64,-63,-61,-60,-59,-59,-60,-61,-63,-66,-69,-72,-74,-77,-80,-84,-86,-88,-87,-84,-79,-74,-69,-65,-61,-57,-54,-51,-49,-49,-49,-51,-53,-56,-59,-62,-65,-67,-68,-69,-71,-72,-73,-74,-75,-75,-75,-75,-76,-75,-75,-75,-75,-76,-77,-78,-79,-80,-81,-81,-82,-82,-81,-81,-80,-79,-78,-79,-79,-79,-79,-79,-79,-78,-78,-76,-74,-72,-69,-67,-66,-64,-63,-61,-59,-57,-56,-54,-51,-43,-31,-20,-9,1,8,15,22,28,33,35,35,32,29,25,19,13,6,-3,-20,-32,-41,-45,-49,-52,-55,-57,-58,-58,-57,-56,-55,-53,-51,-49,-46,-42,-40,-37,-33,-29,-25,-23,-22,-24,-27,-31,-36,-41,-47,-53,-54,-46,-30,19,91,192,326,484,629,710,711,638,474,281,116,8,-12,-12,-12,-11,-11,-11,-12,-12,-13,-14,-16,-17,-17,-17,-16,-16,-15,-14,-12,-9,-5,-1,1,3,5,7,9,12,14,16,19,22,26,30,34,37,40,43,46,49,52,54,56,58,60,62,64,67,70,73,77,82,86,91,96,101,105,109,113,116,121,127,136,147,159,172,183,193,203,213,223,232,241,252,265,279,290,300,307,312,318,322,326,327,326,322,317,309,300,287,263,240,210,173,135,98,61,27,5,-9,-21,-33,-47,-63,-77,-83,-86,-90,-93,-96,-99,-102,-104,-106,-107,-108,-109,-110,-109,-109,-109,-108,-108,-109,-110,-111,-112,-113,-114,-114,-114,-112,-110,-108,-104,-101,-98,-95,-92,-90,-88,-86,-85,-83,-80,-77,-74,-72,-72,-73,-74,-75,-77,-78,-80,-83,-86,-88,-88,-86,-82,-79,-77,-75,-73,-70,-68,-67,-66,-67,-67,-68,-68,-69,-69,-69,-70,-70,-70,-70,-70,-70,-71,-72,-73,-74,-74,-75,-75,-75,-75,-75,-74,-73,-72,-72,-72,-71,-70,-69,-68,-68,-68,-68,-68,-68,-69,-70,-71,-72,-72,-73,-73,-73,-73,-73,-72,-72,-71,-70,-70,-70,-70,-70,-69,-68,-67,-67,-67,-66,-64,-60,-57,-56,-58,-63,-70,-75,-80,-85,-91,-97,-99,-96,-89,-80,-72,-68,-65,-61,-58,-54,-51,-48,-47,-45,-43,-40,-37,-35,-34,-33,-33,-32,-30,-27,-24,-20,-16,-7,2,13,24,35,42,50,57,63,66,67,65,61,55,49,41,29,9,4,2,1,0,0,-1,-2,-3,-4,-4,-3,-3,-1,0,2,3,3,3,2,0,0,-3,-5,-7,-9,-11,-13,-15,-17,-20,-25,-36,-43,-38,-23,22,97,205,343,502,656,759,772,732,591,406,224,86,30,15,6,0,-4,-7,-12,-14,-16,-18,-20,-22,-25,-27,-28,-23,-14,-2,10,28,34,35,37,39,40,42,42,41,37,33,30,28,25,23,20,19,18,18,20,25,31,38,45,51,56,60,63,65,68,70,73,76,80,83,85,87,89,90,91,92,94,97,101,109,128,153,173,190,203,214,223,231,238,244,252,261,272,282,289,297,304,310,315,317,315,312,307,301,294,283,263,246,225,194,160,124,84,48,15,-16,-38,-50,-61,-71,-81,-89,-96,-103,-109,-113,-117,-120,-123,-125,-128,-131,-134,-136,-138,-139,-141,-144,-147,-149,-148,-143,-135,-129,-127,-125,-124,-122,-119,-117,-115,-113,-111,-108,-105,-101,-99,-97,-95,-93,-90,-87,-84,-81,-77,-73,-68,-64,-60,-59,-59,-60,-62,-64,-67,-70,-75,-80,-83,-83,-79,-74,-71,-68,-65,-62,-59,-57,-54,-53,-52,-53,-54,-56,-58,-60,-62,-64,-66,-68,-69,-69,-70,-71,-72,-73,-75,-76,-77,-76,-75,-73,-70,-67,-63,-60,-58,-57,-56,-55,-54,-53,-52,-52,-52,-52,-51,-51,-52,-53,-54,-55,-56,-57,-57,-57,-57,-58,-57,-57,-56,-56,-57,-57,-58,-58,-58,-58,-58,-58,-57,-56,-54,-52,-50,-49,-48,-48,-48,-48,-47,-47,-48,-48,-48,-47,-46,-43,-41,-39,-37,-35,-33,-31,-29,-28,-27,-26,-26,-26,-25,-23,-21,-18,-16,-12,-8,-3,1,6,11,17,24,37,49,57,64,68,73,77,81,84,86,88,88,87,85,81,76,71,65,59,51,37,25,18,12,9,6,3,0,-1,-3,-5,-6,-6,-6,-5,-6,-6,-7,-8,-9,-10,-10,-12,-13,-14,-15,-16,-17,-17,-22,-25,-17,4,63,165,304,464,616,725,742,719,596,431,260,119,53,33,22,15,9,4,-2,-10,-16,-16,-14,-10,-5,0,3,0,-5,-9,-13,-16,-16,-15,-10,-3,2,7,13,19,25,29,33,36,38,40,41,43,44,46,48,50,52,54,56,57,58,59,60,62,64,66,70,73,77,82,88,93,100,106,113,119,127,135,143,149,154,159,164,171,181,193,206,220,237,255,274,291,299,303,306,309,310,311,312,312,310,306,301,294,285,272,248,228,208,188,171,150,122,94,67,45,28,12,-8,-43,-70,-84,-94,-102,-108,-113,-116,-118,-120,-121,-122,-124,-125,-126,-127,-128,-129,-130,-130,-129,-128,-127,-125,-123,-121,-119,-117,-116,-116,-116,-116,-117,-117,-118,-118,-117,-116,-114,-113,-112,-112,-112,-113,-114,-115,-116,-115,-105,-94,-90,-87,-84,-81,-78,-76,-73,-71,-70,-70,-69,-69,-70,-70,-70,-70,-70,-70,-69,-69,-69,-69,-68,-68,-69,-70,-71,-72,-72,-72,-71,-70,-69,-68,-66,-65,-64,-63,-62,-61,-61,-61,-61,-62,-62,-62,-63,-62,-62,-61,-59,-57,-55,-54,-54,-54,-55,-57,-58,-60,-65,-68,-63,-55,-51,-48,-44,-42,-39,-38,-36,-35,-35,-37,-39,-42,-46,-51,-55,-60,-64,-68,-72,-76,-79,-81,-81,-79,-75,-69,-63,-57,-53,-50,-47,-45,-43,-41,-41,-40,-38,-36,-34,-32,-31,-30,-28,-27,-26,-25,-24,-23,-22,-20,-17,-13,-8,-1,11,24,36,46,54,61,66,70,72,72,69,63,56,47,34,15,10,9,8,6,5,4,4,4,4,4,3,2,3,4,5,5,5,5,6,6,5,4,2,1,1,2,3,4,5,6,7,10,12,15,18,42,112,216,353,509,654,738,743,684,531,343,169,43,-8,-25,-7,4,10,14,17,19,20,20,19,18,16,13,10,7,4,0,-3,-7,-10,-12,-12,-9,-4,0,5,10,16,24,31,37,43,46,49,51,52,54,56,57,58,59,62,65,69,72,75,78,80,83,86,89,92,96,100,105,110,116,121,125,128,131,135,139,144,152,161,171,184,201,223,242,256,267,277,290,301,309,316,323,328,332,333,332,328,323,315,307,294,271,253,229,198,170,149,128,107,86,60,38,20,5,-5,-16,-25,-36,-49,-63,-74,-84,-93,-100,-107,-113,-118,-122,-127,-131,-135,-137,-139,-139,-136,-131,-124,-117,-111,-106,-101,-96,-90,-86,-82,-80,-80,-80,-80,-81,-82,-84,-86,-87,-89,-89,-90,-92,-96,-100,-101,-96,-87,-78,-71,-65,-59,-54,-49,-45,-43,-45,-50,-56,-62,-67,-71,-76,-81,-85,-90,-93,-94,-94,-94,-93,-93,-92,-91,-90,-88,-88,-88,-88,-89,-88,-87,-86,-85,-85,-85,-85,-84,-84,-83,-84,-84,-85,-86,-87,-87,-87,-87,-87,-87,-85,-84,-83,-83,-83,-83,-83,-83,-83,-84,-85,-86,-86,-85,-84,-82,-81,-79,-77,-75,-74,-73,-73,-73,-72,-68,-62,-57,-53,-52,-51,-50,-49,-48,-48,-49,-52,-54,-56,-58,-59,-60,-61,-61,-59,-56,-52,-47,-41,-36,-30,-24,-17,-5,6,14,20,26,30,35,39,43,44,45,44,40,36,30,24,19,15,10,5,0,-3,-7,-9,-10,-11,-11,-12,-12,-11,-10,-8,-5,-3,-3,-5,-9,-13,-18,-23,-26,-24,-18,-11,-5,0,5,12,18,23,30,40,76,157,274,418,561,674,707,695,599,448,285,137,27,-4,-16,3,22,37,43,36,24,19,15,12,10,9,7,6,4,2,0,0,0,2,5,9,13,17,22,26,31,35,38,41,42,43,44,45,45,46,47,48,49,51,53,55,57,59,60,62,64,66,68,71,74,78,82,88,97,108,119,128,136,144,152,160,168,177,185,193,201,209,217,226,236,248,263,276,285,293,301,308,313,318,320,321,320,318,315,310,304,296,286,270,238,215,192,169,145,114,77,46,22,0,-20,-40,-71,-87,-96,-104,-110,-114,-117,-117,-116,-114,-112,-109,-107,-104,-101,-98,-95,-92,-89,-85,-83,-80,-79,-78,-79,-80,-81,-83,-84,-86,-87,-88,-89,-90,-90,-90,-91,-95,-97,-89,-75,-67,-61,-56,-51,-48,-46,-45,-46,-47,-49,-51,-54,-58,-61,-65,-68,-72,-75,-77,-78,-76,-72,-67,-61,-56,-51,-47,-42,-37,-33,-31,-29,-30,-31,-34,-37,-42,-47,-52,-57,-61,-65,-70,-76,-81,-85,-88,-87,-84,-80,-74,-67,-60,-54,-48,-43,-38,-34,-31,-30,-31,-33,-37,-42,-47,-52,-55,-57,-60,-63,-65,-67,-69,-71,-73,-75,-76,-76,-75,-74,-72,-71,-70,-68,-66,-65,-63,-63,-62,-61,-61,-61,-60,-60,-60,-59,-59,-57,-56,-54,-53,-53,-52,-51,-50,-48,-46,-44,-42,-39,-31,-22,-12,-3,5,13,21,28,36,43,49,52,51,45,35,25,16,9,2,-4,-11,-18,-24,-30,-34,-38,-41,-43,-44,-44,-44,-45,-46,-48,-50,-51,-49,-45,-40,-35,-31,-25,-19,-14,-14,-19,-28,-39,-48,-60,-70,-74,-72,-62,-44,13,104,231,380,527,616,647,615,515,358,192,57,5,0,-6,-11,-16,-21,-25,-29,-32,-34,-36,-38,-39,-38,-37,-38,-39,-40,-42,-44,-45,-45,-45,-45,-44,-45,-45,-45,-45,-45,-45,-46,-46,-46,-45,-44,-43,-42,-41,-39,-37,-34,-31,-29,-28,-26,-23,-20,-16,-13,-10,-6,0,9,18,27,34,41,47,54,61,70,78,85,93,101,109,116,122,128,134,141,148,155,162,171,182,199,216,232,244,255,264,270,270,266,260,251,239,220,203,181,150,116,78,43,17,-3,-24,-44,-64,-77,-86,-94,-103,-113,-122,-128,-133,-138,-143,-147,-150,-153,-155,-157,-158,-158,-158,-156,-153,-150,-147,-144,-141,-138,-135,-132,-130,-128,-126,-124,-121,-118,-116,-114,-112,-110,-108,-105,-103,-100,-97,-95,-93,-91,-89,-87,-86,-86,-85,-85,-84,-83,-82,-80,-79,-77,-76,-74,-73,-73,-72,-72,-73,-74,-76,-78,-79,-80,-80,-80,-79,-78,-77,-75,-73,-72,-70,-69,-68,-68,-67,-66,-64,-63,-62,-60,-59,-58,-57,-55,-54,-53,-52,-51,-50,-49,-48,-47,-46,-45,-44,-42,-41,-40,-39,-38,-38,-37,-37,-37,-36,-36,-35,-35,-34,-33,-32,-30,-28,-27,-29,-34,-38,-41,-44,-47,-49,-50,-51,-50,-47,-44,-40,-37,-35,-33,-31,-30,-29,-28,-26,-25,-24,-22,-20,-19,-18,-18,-17,-16,-15,-13,-10,-7,-2,2,10,20,29,37,45,53,59,64,69,74,77,78,77,73,67,59,51,45,40,36,31,27,24,22,20,19,17,16,14,13,12,12,11,10,10,10,11,12,13,13,12,11,9,8,6,4,1,-1,-3,-4,-3,0,3,9,18,51,132,250,397,554,690,757,755,679,524,342,177,66,29,22,16,11,8,4,1,0,0,1,2,4,6,9,12,15,17,19,21,22,23,24,25,26,27,28,30,32,35,37,40,42,44,47,50,54,58,63,73,83,93,100,107,112,116,119,122,125,126,128,130,132,134,136,139,141,143,146,149,153,158,166,181,195,210,223,236,247,258,267,276,284,291,297,304,311,318,328,341,352,360,367,373,378,380,378,371,362,352,335,315,286,253,220,189,160,131,103,76,57,46,34,21,13,6,1,-2,-7,-11,-15,-18,-21,-25,-30,-34
