-35,-41,-48,-55,-60,-63,-64,-63,-61,-58,-53,-48,-42,-35,-21,-8,4,16,28,40,53,59,63,66,68,70,71,73,74,76,77,79,81,82,83,84,84,84,84,84,85,87,88,90,92,94,96,98,99,97,93,87,80,73,66,60,54,47,41,35,30,27,26,25,25,25,25,26,26,25,26,26,27,28,28,29,30,31,32,33,33,34,34,33,33,32,32,32,32,32,32,32,30,29,27,26,23,20,17,14,12,10,9,6,2,-3,-8,-10,-8,-5,0,5,12,23,35,46,53,58,63,68,72,75,78,80,82,85,87,90,94,99,104,106,104,96,85,67,38,17,3,-6,-14,-18,-20,-22,-23,-25,-26,-28,-30,-31,-32,-32,-33,-33,-33,-32,-31,-30,-28,-27,-24,-20,-16,-11,-5,1,20,59,116,183,266,365,473,577,663,701,698,644,527,375,202,21,-155,-320,-458,-545,-574,-562,-527,-460,-391,-334,-286,-235,-176,-119,-88,-64,-46,-31,-16,-2,4,8,11,13,15,15,12,7,0,-6,-11,-16,-22,-27,-29,-27,-22,-14,-5,1,5,8,12,15,19,22,24,27,30,32,34,35,36,36,36,35,33,32,30,29,27,25,24,22,21,19,18,17,17,16,16,16,15,14,12,10,8,6,4,1,-1,-4,-8,-11,-16,-22,-31,-47,-58,-66,-70,-73,-75,-77,-79,-80,-81,-81,-82,-83,-82,-82,-81,-79,-77,-75,-73,-70,-68,-66,-65,-64,-64,-64,-64,-63,-63,-63,-62,-61,-60,-59,-57,-55,-53,-51,-49,-47,-44,-41,-38,-35,-32,-28,-25,-21,-17,-13,-10,-7,-4,-1,0,3,5,8,12,18,29,40,49,54,58,62,65,68,68,66,61,54,45,35,22,0,-14,-25,-31,-36,-41,-46,-50,-53,-54,-54,-54,-52,-51,-49,-46,-44,-41,-39,-37,-36,-34,-31,-28,-25,-21,-17,-14,-11,-8,-3,3,29,80,155,249,352,453,543,615,639,625,584,472,323,152,-27,-193,-330,-435,-501,-523,-513,-478,-416,-355,-303,-256,-208,-176,-140,-108,-86,-72,-58,-44,-35,-29,-25,-20,-17,-13,-9,-6,-3,0,5,10,16,22,28,37,44,48,51,53,56,59,62,66,68,70,72,74,75,75,75,75,74,74,74,75,76,76,77,77,78,78,78,78,78,79,79,81,82,83,83,84,84,83,83,82,81,80,78,76,74,72,68,62,43,19,4,-5,-14,-21,-28,-34,-39,-43,-46,-48,-50,-51,-51,-51,-52,-53,-54,-55,-57,-59,-61,-64,-66,-68,-70,-71,-73,-75,-77,-81,-85,-90,-95,-100,-104,-109,-113,-117,-121,-125,-131,-136,-140,-143,-145,-146,-148,-149,-151,-153,-154,-155,-155,-156,-156,-154,-150,-146,-141,-136,-132,-128,-124,-120,-116,-111,-108,-105,-103,-101,-99,-97,-96,-94,-90,-85,-81,-83,-92,-105,-118,-132,-143,-149,-153,-156,-159,-161,-163,-164,-165,-165,-165,-165,-165,-165,-165,-164,-163,-163,-163,-162,-160,-158,-156,-153,-150,-147,-143,-138,-133,-120,-88,-37,27,108,207,316,430,542,640,707,711,666,503,238,-81,-400,-652,-810,-854,-810,-719,-620,-530,-453,-386,-332,-299,-265,-235,-209,-182,-162,-146,-128,-114,-102,-89,-75,-66,-60,-55,-51,-46,-41,-36,-31,-26,-22,-17,-12,-6,-1,3,7,13,18,25,33,41,48,55,61,66,73,88,106,111,115,118,120,121,119,114,109,104,99,93,89,86,85,84,84,84,84,84,83,84,85,84,82,79,74,70,67,64,62,59,57,54,52,50,47,43,39,34,25,7,-7,-16,-22,-27,-30,-33,-35,-38,-40,-42,-43,-44,-46,-48,-53,-56,-49,-35,-20,-1,14,21,25,28,30,33,34,37,40,43,46,48,52,54,57,59,61,63,67,72,78,84,90,96,101,106,111,116,119,123,126,129,133,137,140,144,148,151,155,159,163,166,170,174,178,181,183,185,186,187,188,189,189,190,190,192,190,174,151,123,102,87,69,57,47,39,35,36,39,43,45,47,50,52,53,53,52,50,47,43,39,34,28,24,23,27,35,47,69,102,153,217,294,383,484,593,705,802,854,846,757,540,237,-102,-411,-637,-736,-744,-685,-588,-501,-431,-353,-275,-205,-147,-112,-97,-92,-87,-85,-83,-82,-81,-80,-79,-78,-76,-75,-73,-71,-70,-68,-67,-66,-65,-63,-62,-59,-56,-53,-46,-38,-30,-22,-16,-10,-4,1,8,14,19,22,25,26,27,27,27,27,27,27,28,28,28,28,29,28,28,28,27,26,24,22,21,21,19,18,16,15,14,13,13,11,7,1,-4,-12,-20,-26,-32,-38,-43,-48,-52,-56,-61,-65,-70,-74,-78,-81,-84,-87,-91,-94,-97,-99,-100,-100,-99,-98,-95,-92,-87,-82,-77,-72,-67,-62,-53,-44,-38,-36,-34,-32,-30,-28,-26,-26,-30,-35,-39,-42,-45,-48,-51,-53,-54,-55,-55,-54,-52,-48,-43,-39,-34,-30,-26,-22,-17,-11,-5,0,3,6,8,11,13,14,15,16,17,18,19,20,20,18,12,5,-3,-17,-37,-49,-54,-58,-61,-63,-66,-68,-69,-70,-70,-71,-72,-72,-72,-72,-72,-71,-71,-70,-69,-67,-65,-63,-61,-58,-54,-49,-43,-13,30,90,168,260,363,470,573,642,666,636,543,351,95,-188,-448,-640,-724,-730,-678,-592,-521,-461,-407,-348,-289,-234,-188,-159,-135,-120,-115,-112,-111,-110,-110,-109,-108,-108,-107,-107,-107,-106,-106,-105,-105,-104,-103,-102,-99,-96,-92,-87,-83,-76,-63,-50,-36,-31,-29,-26,-24,-22,-20,-18,-16,-15,-15,-14,-13,-13,-12,-12,-11,-11,-10,-9,-8,-7,-6,-5,-4,-4,-3,-2,-1,-1,0,1,3,5,6,8,10,13,18,21,24,24,20,15,9,4,0,-3,-6,-10,-13,-16,-19,-22,-24,-27,-29,-31,-32,-33,-35,-36,-38,-41,-43,-45,-46,-46,-46,-46,-46,-46,-46,-45,-44,-43,-42,-41,-40,-38,-36,-35,-36,-38,-42,-46,-49,-55,-59,-57,-52,-48,-45,-41,-35,-28,-21,-12,-1,9,20,26,30,33,35,38,41,43,45,46,46,46,45,44,43,40,37,33,29,26,19,5,-6,-15,-23,-28,-31,-32,-34,-37,-40,-40,-36,-32,-29,-26,-23,-21,-20,-21,-24,-28,-32,-37,-43,-49,-52,-49,-43,-32,-14,12,53,106,175,258,353,454,550,632,667,660,588,416,172,-95,-345,-541,-643,-655,-619,-542,-460,-384,-311,-240,-184,-143,-120,-104,-91,-75,-62,-50,-41,-34,-27,-20,-12,-1,10,24,39,45,49,52,54,56,57,59,62,64,66,69,71,74,76,79,83,92,100,108,113,119,124,128,129,128,126,124,122,120,118,117,116,114,113,112,111,110,109,108,107,105,99,100,112,120,125,130,134,135,134,130,124,117,107,91,85,80,77,74,70,65,60,54,46,40,34,25,12,2,-5,-4,4,11,16,20,24,25,26,28,30,34,34,29,25,21,19,23,31,36,39,43,45,46,47,45,43,40,38,36,34,32,30,27,25,23,22,21,21,21,22,24,26,29,32,35,38,42,52,58,62,65,67,68,68,66,61,57,52,46,40,34,28,23,19,16,12,9,7,4,2,0,-6,-20,-29,-34,-38,-42,-45,-49,-54,-57,-54,-47,-43,-40,-38,-36,-34,-32,-29,-27,-25,-22,-18,-12,9,53,115,195,291,399,511,616,703,740,730,644,457,196,-102,-376,-569,-635,-635,-569,-482,-410,-362,-323,-286,-251,-216,-185,-157,-141,-116,-91,-66,-40,-23,-10,-3,1,1,-3,-10,-15,-20,-25,-27,-26,-22,-16,-7,11,22,28,31,35,38,41,43,45,47,49,53,61,72,87,101,108,113,112,101,92,85,78,74,70,65,60,57,61,69,76,83,87,84,77,72,68,63,59,54,50,45,40,35,31,27,24,20,14,6,-1,-9,-15,-20,-24,-29,-35,-42,-48,-54,-60,-62,-61,-57,-52,-49,-45,-41,-39,-39,-42,-46,-51,-55,-61,-65,-65,-61,-55,-47,-38,-31,-28,-26,-25,-23,-22,-21,-21,-21,-24,-27,-31,-34,-38,-42,-47,-51,-54,-57,-59,-60,-62,-66,-68,-65,-57,-49,-39,-23,-9,1,7,8,9,11,12,13,12,9,5,3,1,0,-2,-4,-7,-11,-14,-18,-24,-32,-40,-47,-56,-66,-75,-80,-84,-86,-88,-90,-93,-96,-99,-103,-107,-110,-114,-117,-120,-123,-125,-127,-127,-127,-126,-125,-124,-122,-118,-107,-68,-10,61,144,239,344,450,544,615,649,623,524,345,101,-181,-455,-664,-788,-824,-797,-736,-667,-596,-520,-451,-382,-317,-259,-217,-185,-171,-165,-162,-160,-158,-155,-151,-147,-142,-138,-134,-130,-127,-125,-122,-121,-119,-116,-113,-106,-92,-77,-59,-42,-31,-21,-15,-12,-9,-6,-4,0,2,5,9,14,20,32,34,34,34,34,35,36,34,31,28,27,26,25,25,24,23,22,21,20,19,19,18,17,17,16,15,15,14,12,8,4,-1,-9,-17,-22,-27,-32,-37,-41,-43,-44,-45,-46,-47,-48,-50,-53,-59,-58,-50,-45,-41,-38,-34,-32,-31,-31,-31,-32,-33,-34,-36,-38,-39,-37,-33,-30,-27,-25,-23,-21,-17,-13,-8,-2,1,6,11,17,22,24,22,19,15,11,7,1,-4,-4,2,11,21,34,40,43,45,48,50,52,53,54,56,56,57,57,57,58,58,59,61,62,55,43,37,33,30,26,23,20,16,12,9,8,6,4,1,-2,-9,-16,-16,-10,-2,2,6,11,14,16,17,17,17,16,14,13,8,10,40,85,140,206,287,385,497,615,729,820,853,841,747,542,260,-59,-369,-612,-727,-739,-684,-571,-459,-367,-296,-238,-190,-153,-118,-98,-86,-80,-76,-72,-68,-64,-59,-54,-46,-35,-27,-22,-18,-16,-15,-13,-11,-9,-6,-3,0,3,7,12,20,28,37,46,55,63,70,76,81,87,91,94,98,101,103,106,108,110,111,113,115,117,120,120,119,116,111,105,96,83,79,76,74,72,71,70,69,68,66,63,60,57,54,49,42,35,29,24,17,7,-5,-14,-21,-26,-29,-31,-33,-35,-36,-38,-40,-41,-42,-45,-49,-53,-56,-58,-60,-62,-64,-67,-69,-71,-73,-75,-76,-76,-76,-76,-75,-74,-73,-71,-70,-69,-67,-66,-66,-65,-63,-61,-59,-58,-57,-57,-57,-59,-61,-63,-66,-69,-73,-74,-72,-66,-59,-49,-34,-25,-15,-5,3,9,13,17,20,25,30,35,41,47,53,55,54,50,44,34,17,2,-8,-18,-26,-30,-34,-36,-38,-40,-41,-43,-46,-48,-49,-47,-45,-43,-42,-41,-40,-39,-37,-35,-33,-32,-30,-28,-26,-22,-14,-2,13,34,67,110,168,240,331,435,547,660,763,825,825,760,570,287,-42,-355,-591,-704,-716,-667,-562,-465,-395,-350,-311,-272,-232,-195,-164,-144,-122,-104,-87,-71,-59,-49,-36,-29,-25,-22,-19,-17,-15,-12,-10,-8,-7,-5,-3,0,8,20,27,31,34,37,39,41,43,46,47,49,50,53,55,62,77,89,98,104,108,113,112,102,97,94,91,89,87,86,86,85,85,85,85,86,86,87,88,88,88,88,86,82,78,72,62,49,42,38,35,33,31,29,26,23,20,17,14,11,8,5,3,2,1,0,0,-1,-2,-3,-4,-5,-6,-7,-9,-10,-10,-10,-9,-9,-9,-9,-9,-10,-10,-10,-11,-11,-12,-13,-14,-15,-16,-17,-18,-20,-21,-23,-24,-23,-21,-17,-12,-7,-2,2,7,12,16,20,24,28,31,35,38,42,47,52,56,59,63,67,70,72,73,71,68,64,60,53,37,23,12,3,-6,-20,-30,-35,-39,-40,-39,-36,-34,-33,-32,-32,-32,-32,-33,-32,-32,-31,-30,-30,-29,-29,-29,-29,-28,-27,-25,-23,-9,25,72,136,215,308,410,518,624,714,754,746,665,478,210,-92,-375,-583,-677,-689,-655,-583,-514,-458,-410,-353,-293,-237,-194,-164,-146,-130,-118,-106,-97,-89,-84,-80,-77,-72,-65,-54,-38,-22,-15,-10,-7,-6,-5,-6,-7,-9,-11,-13,-17,-16,-7,1,9,19,31,37,41,45,49,53,56,58,59,59,60,61,61,61,61,60,60,61,62,63,61,56,49,41,30,23,17,10,10,16,20,23,26,28,29,26,22,16,10,3,-6,-14,-19,-24,-29,-36,-36,-25,-19,-14,-10,-7,-6,-7,-10,-15,-23,-39,-49,-53,-57,-60,-62,-63,-63,-62,-61,-61,-60,-60,-59,-58,-56,-55,-54,-55,-56,-56,-57,-58,-59,-61,-64,-66,-69,-71,-73,-77,-82,-86,-86,-84,-80,-75,-68,-58,-52,-47,-44,-41,-39,-36,-34,-31,-27,-23,-15,-4,2,5,9,12,13,11,6,0,-7,-18,-28,-35,-40,-45,-49,-52,-55,-56,-58,-61,-63,-64,-63,-60,-56,-52,-49,-46,-43,-39,-36,-34,-33,-32,-31,-28,-26,-27,-30,-34,-38,-31,-18,-3,23,73,139,216,304,403,506,602,677,700,687,593,404,154,-119,-371,-555,-624,-629,-586,-516,-457,-419,-377,-319,-255,-199,-151,-112,-79,-50,-35,-28,-26,-24,-23,-22,-21,-19,-18,-16,-14,-12,-10,-7,-5,-2,2,11,18,23,26,28,31,33,35,37,40,43,46,50,59,74,81,84,87,88,89,89,87,84,81,78,76,73,71,68,65,63,62,61,61,60,60,60,60,60,59,58,55,63,70,76,79,80,76,70,62,51,39,20,7,4,2,0,-1,-3,-7,-11,-16,-24,-35,-41,-45,-47,-49,-50,-50,-48,-45,-42,-40,-38,-36,-34,-32,-31,-30,-31,-32,-34,-36,-39,-41,-44,-45,-47,-49,-51,-52,-54,-56,-59,-60,-61,-62,-62,-61,-61,-60,-59,-58,-55,-53,-51,-50,-48,-46,-38,-26,-9,10,20,26,31,35,36,35,31,26,17,0,-13,-18,-23,-28,-34,-40,-44,-47,-50,-54,-57,-60,-62,-61,-60,-58,-57,-56,-52,-46,-55,-61,-65,-69,-72,-73,-70,-65,-58,-51,-45,-37,-28,-21,-15,-8,4,23,56,102,168,252,349,454,560,654,707,706,646,476,230,-45,-308,-517,-623,-639,-614,-553,-497,-448,-397,-350,-298,-235,-169,-116,-83,-73,-67,-63,-60,-58,-55,-52,-46,-37,-25,-9,7,18,22,24,27,28,27,24,19,15,10,6,6,14,22,28,32,37,42,46,50,53,55,57,60,64,72,85,91,93,95,96,96,93,87,81,78,74,71,69,66,64,62,61,61,61,62,62,63,64,65,67,70,72,69,63,57,51,43,34,27,22,17,12,7,3,0,-4,-11,-16,-16,-13,-8,-1,6,14,19,24,26,21,12,1,-10,-20,-24,-26,-27,-28,-29,-30,-30,-30,-31,-31,-32,-34,-35,-35,-36,-36,-37,-39,-40,-42,-44,-48,-54,-61,-65,-68,-72,-77,-80,-76,-67,-62,-58,-55,-52,-49,-45,-42,-39,-37,-34,-31,-27,-22,-18,-16,-15,-14,-13,-11,-12,-21,-27,-31,-34,-37,-41,-45,-48,-51,-55,-59,-65,-71,-76,-80,-84,-88,-91,-91,-87,-81,-75,-68,-60,-50,-43,-37,-33,-29,-25,-23,-21,-20,-18,-15,-10,-4,3,27,54,94,148,220,310,415,527,640,738,806,813,777,628,385,78,-237,-494,-646,-689,-646,-559,-462,-386,-333,-287,-242,-198,-160,-124,-105,-88,-71,-56,-45,-42,-40,-38,-37,-37,-36,-34,-31,-27,-22,-16,-11,-5,0,5,8,11,13,14,16,17,19,20,21,22,23,25,27,29,31,33,36,41,52,66,85,102,112,118,108,97,89,81,75,66,56,51,42,46,59,65,68,71,74,77,79,81,84,89,98,101,104,107,98,86,76,68,65,63,61,60,58,56,53,50,46,43,39,37,34,32,30,27,26,24,22,21,20,20,19,19,20,21,22,23,24,25,26,29,31,33,31,27,22,20,18,15,13,11,8,5,3,1,-1,-4,-7,-10,-12,-15,-18,-21,-24,-25,-25,-24,-21,-18,-14,-6,9,20,26,32,36,40,44,49,52,49,42,36,31,26,21,14,8,3,-1,-7,-14,-19,-25,-29,-34,-40,-47,-52,-57,-61,-63,-65,-67,-70,-72,-73,-73,-73,-72,-72,-70,-68,-65,-60,-52,-33,-20,-14,-10,-6,-2,0,4,19,48,96,169,273,396,527,655,767,842,848,800,621,341,7,-325,-584,-726,-756,-715,-634,-534,-446,-371,-301,-238,-185,-148,-128,-117,-110,-105,-99,-93,-86,-79,-70,-61,-50,-38,-28,-23,-20,-18,-17,-16,-15,-14,-13,-11,-10,-9,-8,-7,-6,-4,-2,0,4,13,21,31,40,50,65,78,85,90,91,85,82,79,77,75,74,74,75,76,77,78,80,82,85,85,81,75,69,61,56,53,50,46,44,47,52,58,64,68,64,55,41,22,6,-11,-21,-28,-32,-35,-36,-36,-34,-33,-31,-30,-29,-30,-35,-41,-45,-48,-52,-55,-57,-58,-57,-55,-52,-47,-41,-28,-6,4,11,15,17,15,10,3,-9,-34,-49,-57,-63,-67,-70,-72,-73,-74,-75,-75,-76,-77,-79,-79,-77,-72,-66,-60,-52,-42,-33,-24,-16,-9,-3,1,8,17,31,39,46,51,55,55,52,46,38,25,3,-10,-17,-23,-31,-39,-46,-53,-60,-67,-73,-76,-80,-83,-85,-87,-89,-91,-92,-93,-93,-93,-94,-94,-94,-95,-96,-97,-98,-99,-100,-98,-94,-89,-79,-63,-46,-30,-2,31,78,143,229,333,453,577,697,788,823,772,620,368,58,-256,-518,-699,-761,-761,-698,-602,-506,-426,-366,-320,-282,-250,-229,-208,-186,-166,-144,-130,-124,-119,-115,-111,-107,-104,-101,-96,-85,-62,-36,-21,-16,-13,-11,-10,-12,-16,-20,-25,-32,-35,-31,-23,-14,-2,10,18,24,29,33,36,40,42,44,45,46,47,47,48,49,51,52,52,53,53,53,53,53,53,53,54,54,53,53,52,51,50,49,48,46,44,41,39,37,35,31,21,10,-1,-11,-23,-29,-26,-20,-15,-11,-7,-3,0,0,-1,-2,-4,-6,-10,-17,-18,-13,-10,-7,-4,-2,-1,-5,-10,-15,-20,-27,-33,-33,-27,-18,-13,-7,-2,2,4,2,-1,-7,-13,-18,-27,-34,-35,-31,-24,-18,-9,0,10,16,21,25,29,34,39,43,47,51,57,68,85,102,114,125,131,127,119,110,97,84,65,46,38,35,32,28,24,20,17,14,10,6,0,-7,-17,-24,-32,-39,-42,-41,-37,-32,-30,-29,-27,-26,-24,-22,-20,-16,-14,-12,-10,-6,-2,5,35,82,142,219,311,416,521,615,694,738,737,689,541,302,5,-285,-507,-600,-608,-556,-481,-427,-403,-386,-363,-315,-253,-191,-141,-113,-91,-75,-60,-41,-15,-1,3,8,11,14,16,18,20,21,22,23,24,25,25,26,27,28,30,31,34,37,42,46,51,56,62,71,85,92,96,97,98,100,101,103,104,104,104,104,104,104,104,103,102,102,101,101,100,100,99,97,96,94,93,91,88,86,83,80,76,73,68,55,43,34,29,25,22,19,16,12,8,4,0,-3,-6,-9,-11,-13,-14,-14,-15,-16,-17,-18,-20,-23,-25,-26,-28,-28,-28,-28,-28,-27,-28,-28,-29,-31,-32,-34,-36,-38,-40,-41,-42,-43,-44,-45,-47,-49,-52,-55,-56,-58,-58,-58,-56,-54,-51,-47,-42,-36,-31,-25,-13,6,10,11,12,13,14,15,16,17,18,18,16,13,9,4,-1,-7,-15,-29,-43,-58,-64,-66,-68,-71,-74,-77,-79,-81,-82,-84,-85,-87,-88,-89,-89,-90,-90,-90,-90,-89,-87,-86,-85,-84,-83,-81,-78,-76,-73,-69,-57,-31,7,52,113,191,288,400,520,637,738,780,768,661,432,121,-206,-491,-669,-727,-687,-603,-526,-480,-457,-437,-415,-374,-321,-264,-212,-178,-158,-149,-143,-138,-134,-130,-126,-122,-119,-116,-111,-107,-102,-97,-92,-87,-81,-75,-68,-63,-57,-51,-47,-43,-40,-38,-36,-33,-32,-30,-27,-24,-21,-18,-14,-9,-4,0,7,17,26,33,39,46,53,59,60,55,48,43,37,32,29,27,28,28,29,30,31,33,36,37,37,33,27,20,14,7,-1,-7,-14,-24,-34,-38,-40,-43,-44,-41,-39,-36,-34,-33,-33,-34,-37,-39,-40,-42,-44,-46,-47,-48,-48,-49,-49,-48,-47,-46,-44,-42,-41,-40,-39,-38,-36,-35,-35,-38,-41,-44,-45,-47,-48,-50,-52,-53,-54,-54,-55,-55,-55,-54,-52,-50,-48,-45,-42,-38,-33,-27,-19,-10,0,14,28,40,51,54,56,57,59,61,60,55,48,43,40,37,34,31,27,23,21,18,15,11,6,1,-3,-8,-13,-19,-24,-24,-17,-7,3,16,23,28,32,35,39,40,39,36,33,30,27,23,21,21,22,25,30,47,76,122,188,274,380,502,631,751,857,926,927,869,689,415,78,-258,-529,-687,-728,-678,-569,-464,-379,-304,-246,-199,-160,-131,-114,-99,-78,-51,-25,-14,-10,-8,-6,-5,-4,-3,-1,0,2,4,6,8,10,12,15,18,21,26,39,51,61,69,77,83,84,81,78,76,74,71,68,67,68,70,74,78,80,83,87,90,94,97,98,99,100,101,102,103,103,103,104,105,106,106,103,98,92,86,78,70,65,59,51,40,29,23,19,17,14,12,10,7,5,2,0,-3,-8,-19,-30,-40,-48,-51,-52,-53,-55,-57,-58,-57,-53,-47,-41,-36,-32,-27,-22,-19,-18,-20,-23,-26,-29,-33,-37,-42,-46,-51,-56,-61,-66,-73,-78,-79,-80,-81,-81,-79,-67,-57,-49,-42,-37,-33,-16,14,26,30,33,35,36,37,36,34,31,27,23,16,15,16,17,18,19,19,17,13,8,3,0,-5,-10,-15,-20,-23,-27,-29,-32,-36,-40,-43,-46,-50,-54,-57,-59,-60,-59,-59,-58,-56,-55,-52,-50,-54,-61,-67,-73,-77,-77,-72,-65,-54,-34,-13,5,33,65,110,169,245,340,452,574,694,796,848,815,674,431,123,-203,-478,-661,-731,-703,-628,-542,-462,-383,-308,-236,-175,-130,-99,-87,-78,-68,-59,-50,-45,-42,-40,-37,-35,-32,-29,-27,-24,-20,-11,7,16,19,21,23,25,26,28,30,32,34,35,37,39,41,44,52,70,88,100,105,108,111,114,115,112,105,97,93,90,87,84,82,80,77,75,73,71,70,69,69,70,70,70,69,69,67,64,62,62,65,68,71,75,77,73,65,52,35,21,1,-12,-19,-24,-28,-31,-31,-32,-31,-31,-31,-31,-32,-33,-33,-34,-33,-32,-31,-29,-26,-21,-21,-27,-30,-31,-33,-35,-36,-38,-41,-43,-46,-49,-52,-56,-60,-69,-84,-86,-87,-89,-90,-90,-86,-82,-79,-78,-76,-74,-73,-70,-67,-64,-62,-59,-56,-53,-50,-43,-30,-15,-6,1,6,8,6,0,-6,-13,-22,-29,-31,-32,-34,-36,-35,-23,-11,0,1,-7,-21,-38,-53,-71,-91,-113,-139,-153,-158,-162,-151,-137,-125,-112,-94,-76,-66,-60,-56,-54,-55,-59,-63,-67,-73,-76,-72,-63,-37,-7,32,86,149,223,310,406,507,606,683,715,673,538,314,34,-254,-497,-651,-686,-679,-608,-538,-478,-433,-388,-328,-258,-198,-152,-118,-104,-92,-82,-73,-64,-55,-47,-38,-30,-23,-14,-6,-3,-3,-4,-3,-3,-2,-2,-1,0,0,1,4,7,11,18,35,41,44,46,48,49,50,51,52,55,58,60,62,63,64,66,67,70,72,74,77,82,89,94,95,94,91,87,81,65,50,40,40,45,50,53,56,58,54,47,38,29,17,8,1,-1,-2,-4,-5,-6,-7,-8,-9,-9,-10,-11,-11,-11,-12,-12,-11,-11,-11,-11,-11,-11,-12,-12,-13,-14,-16,-18,-20,-22,-24,-25,-26,-26,-26,-26,-26,-27,-28,-29,-32,-34,-37,-39,-41,-42,-42,-42,-41,-39,-37,-35,-31,-28,-24,-21,-14,4,20,29,36,41,44,46,49,51,54,55,55,53,50,46,40,34,24,8,-5,-17,-26,-31,-33,-34,-35,-36,-37,-38,-39,-40,-41,-43,-44,-45,-45,-46,-46,-46,-46,-47,-50,-53,-56,-56,-53,-46,-38,-29,-15,-5,1,8,15,25,38,56,84,136,209,307,422,541,649,727,735,697,545,311,22,-275,-507,-650,-682,-676,-612,-523,-444,-378,-318,-272,-231,-204,-173,-147,-127,-113,-98,-86,-76,-65,-53,-38,-22,-19,-17,-15,-14,-13,-13,-15,-18,-21,-23,-26,-28,-30,-31,-31,-27,-22,-16,-9,0,7,14,19,23,29,35,46,62,73,82,90,95,97,96,92,86,79,72,61,55,60,70,88,107,114,119,122,123,119,110,100,93,85,77,73,71,70,69,67,67,66,65,64,63,62,61,60,59,58,56,53,48,39,35,31,27,25,27,31,36,42,32,22,15,8,2,-1,-6,-9,-10,-7,-3,0,4,7,8,6,1,-3,-7,-11,-15,-19,-20,-19,-16,-12,-8,-5,-1,2,6,7,7,5,2,-1,-10,-21,-25,-29,-28,-18,-11,-6,0,7,15,31,47,52,55,57,58,59,60,59,56,53,48,44,39,33,27,20,14,6,-6,-28,-40,-46,-51,-55,-57,-57,-55,-53,-50,-48,-46,-44,-42,-40,-39,-37,-36,-34,-32,-30,-28,-27,-25,-24,-21,-17,1,41,99,166,246,342,455,574,690,789,840,812,688,467,170,-152,-428,-616,-677,-677,-619,-547,-485,-423,-355,-287,-226,-178,-141,-110,-77,-61,-54,-49,-46,-44,-45,-46,-47,-49,-51,-50,-40,-33,-27,-22,-16,-10,-1,9,22,31,38,44,48,53,56,58,59,60,62,63,64,65,66,67,68,68,68,69,68,68,67,67,66,65,63,61,60,58,57,56,55,54,52,49,46,44,44,45,46,49,51,52,55,58,60,60,57,53,46,34,12,0,-5,-10,-13,-16,-19,-23,-26,-29,-32,-35,-39,-45,-50,-53,-55,-55,-55,-55,-55,-55,-55,-56,-56,-56,-57,-58,-59,-61,-61,-61,-62,-64,-68,-71,-81,-98,-103,-106,-109,-112,-115,-117,-119,-120,-120,-121,-120,-120,-118,-116,-114,-111,-109,-106,-103,-97,-84,-72,-62,-53,-48,-45,-42,-39,-38,-36,-34,-32,-29,-25,-21,-17,-12,-8,-6,-9,-14,-22,-31,-45,-56,-62,-65,-69,-72,-75,-78,-82,-85,-88,-90,-93,-96,-100,-103,-105,-106,-106,-104,-103,-100,-95,-85,-67,-57,-53,-50,-48,-45,-42,-39,-36,-31,-25,0,57,136,237,352,478,601,705,764,763,696,521,271,-32,-333,-574,-713,-748,-713,-632,-553,-493,-440,-380,-327,-276,-226,-179,-139,-107,-72,-48,-39,-35,-35,-40,-47,-52,-58,-63,-62,-55,-44,-31,-14,0,7,12,16,19,22,25,28,31,33,36,39,44,53,68,82,93,99,102,104,105,106,108,109,110,110,111,111,111,111,110,109,109,108,108,108,108,108,107,107,106,104,100,109,115,119,122,125,126,126,123,119,113,91,72,67,63,60,58,57,57,58,59,60,61,63,65,68,66,61,55,47,37,24,13,10,7,5,7,12,16,19,22,23,22,20,17,14,12,9,6,3,2,3,7,12,16,21,27,32,33,32,30,29,27,25,24,25,27,30,33,37,43,46,44,38,33,26,27,35,44,54,65,74,84,90,94,99,102,99,92,84,74,61,52,44,39,38,40,41,42,44,46,46,43,37,29,14,-2,-15,-20,-23,-26,-28,-28,-26,-25,-24,-23,-22,-21,-21,-23,-26,-30,-34,-39,-44,-44,-42,-37,-22,15,74,152,247,359,486,614,734,824,860,820,689,470,183,-125,-399,-598,-685,-694,-653,-588,-529,-484,-440,-382,-314,-250,-197,-157,-125,-105,-92,-86,-81,-76,-74,-70,-64,-51,-41,-36,-32,-30,-30,-31,-33,-35,-38,-40,-43,-47,-48,-47,-43,-36,-26,-8,4,11,17,23,28,34,40,42,41,38,37,35,35,34,33,33,34,35,37,39,42,49,59,64,67,69,70,68,64,59,52,43,41,38,36,41,46,51,43,31,18,4,-10,-20,-26,-30,-32,-35,-38,-42,-33,-20,-10,-7,-5,-3,-2,-2,-3,-7,-14,-26,-41,-47,-49,-51,-53,-55,-58,-61,-65,-70,-78,-89,-90,-91,-91,-83,-75,-70,-65,-62,-60,-58,-56,-54,-52,-52,-54,-57,-62,-67,-73,-82,-88,-89,-89,-89,-90,-90,-90,-89,-86,-81,-73,-60,-45,-29,-16,-7,-2,1,4,8,7,-2,-16,-33,-44,-50,-57,-63,-70,-78,-82,-85,-86,-87,-87,-88,-89,-89,-90,-91,-91,-91,-91,-91,-91,-92,-93,-94,-96,-98,-99,-98,-95,-94,-92,-90,-88,-85,-82,-78,-73,-64,-53,-25,13,72,146,229,327,434,541,629,665,657,580,403,152,-131,-400,-616,-713,-721,-668,-572,-487,-431,-396,-372,-338,-294,-243,-190,-145,-115,-105,-100,-96,-93,-88,-74,-59,-49,-45,-43,-43,-42,-42,-42,-41,-41,-40,-39,-38,-37,-36,-34,-33,-32,-31,-27,-22,-15,-5,12,25,28,29,31,32,34,36,38,42,47,56,66,80,90,94,97,87,70,53,41,31,23,17,11,8,11,16,21,27,32,32,30,27,25,23,22,21,20,18,15,12,9,5,1,-3,-11,-26,-37,-45,-53,-56,-50,-40,-32,-25,-19,-15,-11,-8,-7,-6,-5,-4,-3,-2,-2,-1,-1,0,0,1,2,3,3,4,5,8,10,14,17,22,33,43,52,59,65,70,71,69,65,61,59,56,54,53,52,51,51,51,52,53,55,57,60,63,66,69,72,75,78,79,79,77,74,70,65,60,52,45,39,33,26,19,12,3,-2,-7,-13,-19,-25,-32,-41,-55,-69,-77,-83,-87,-90,-92,-93,-95,-96,-97,-99,-101,-103,-104,-102,-95,-86,-69,-44,-7,35,90,154,226,311,405,500,588,653,663,645,522,303,20,-276,-536,-705,-757,-752,-675,-588,-512,-452,-396,-340,-284,-236,-199,-179,-162,-150,-138,-131,-126,-122,-119,-116,-112,-108,-103,-95,-83,-70,-60,-52,-45,-34,-24,-15,-7,0,3,4,5,5,5,5,5,6,8,11,14,17,21,24,29,35,44,53,59,65,72,79,83,84,83,80,77,74,73,71,68,65,62,60,57,53,50,46,42,37,29,22,15,6,-3,-9,-12,-14,-17,-19,-20,-21,-22,-23,-24,-26,-28,-29,-29,-30,-31,-32,-34,-36,-37,-36,-33,-30,-27,-25,-22,-17,-12,-7,-4,-5,-7,-10,-14,-17,-23,-26,-26,-24,-23,-21,-20,-18,-18,-18,-20,-22,-24,-25,-29,-32,-34,-33,-29,-25,-23,-21,-19,-17,-15,-13,-10,-6,-3,0,2,5,10,16,33,58,69,75,79,82,82,80,75,67,51,30,22,18,15,13,9,5,1,-2,-7,-13,-22,-34,-48,-64,-82,-92,-98,-102,-106,-108,-109,-107,-102,-95,-87,-72,-53,-51,-49,-48,-47,-46,-47,-49,-52,-56,-61,-50,-18,38,110,189,279,382,495,606,703,760,762,716,574,351,76,-223,-473,-640,-694,-695,-648,-569,-483,-408,-349,-292,-234,-181,-140,-119,-99,-80,-72,-68,-65,-62,-59,-56,-52,-48,-44,-40,-36,-33,-31,-30,-28,-26,-24,-21,-18,-15,-13,-11,-9,-7,-7,-7,-7,-8,-7,-7,-5,-4,-3,-3,-2,-2,-1,-1,-1,-1,-1,0,1,3,4,5,6,5,5,5,4,2,0,-3,-5,-8,-11,-14,-19,-25,-31,-38,-43,-49,-54,-59,-63,-66,-68,-69,-71,-74,-78,-80,-79,-77,-75,-73,-71,-71,-74,-78,-80,-83,-86,-88,-88,-84,-77,-70,-64,-59,-53,-49,-45,-42,-40,-39,-37,-35,-32,-29,-26,-24,-24,-27,-30,-33,-37,-40,-42,-40,-34,-29,-25,-23,-19,-16,-12,-9,-6,-3,0,2,6,9,13,17,24,32,40,49,57,65,73,79,85,89,93,95,98,100,102,104,106,107,106,104,100,95,88,82,76,69,61,53,46,40,35,31,27,24,20,17,14,12,12,12,12,14,16,19,22,27,31,35,39,44,49,55,59,63,67,73,86,108,144,195,264,351,456,569,688,797,880,893,875,742,521,228,-85,-365,-563,-657,-668,-626,-540,-448,-361,-282,-204,-134,-82,-64,-53,-46,-37,-27,-12,0,10,16,20,22,24,24,25,26,28,30,33,34,37,40,45,54,77,91,97,101,105,108,111,114,117,121,124,127,130,134,137,142,147,151,153,155,156,157,159,161,162,164,165,165,166,166,166,166,166,164,161,157,154,150,146,142,137,130,113,106,102,100,98,97,95,93,91,89,87,85,83,79,71,52,31,13,3,-2,-6,-6,-3,0,3,6,10,12,12,10,5,0,-10,-22,-22,-22,-22,-23,-23,-24,-25,-26,-30,-33,-37,-41,-43,-44,-47,-49,-52,-55,-58,-60,-61,-63,-65,-66,-67,-68,-68,-68,-68,-69,-70,-71,-71,-67,-62,-56,-50,-46,-41,-35,-30,-26,-25,-26,-28,-30,-32,-33,-34,-36,-37,-39,-40,-42,-43,-45,-47,-49,-50,-51,-50,-48,-46,-44,-42,-40,-37,-35,-32,-30,-28,-26,-21,-16,-10,-8,-9,-12,-16,-19,-23,-27,-32,-35,-34,-31,-27,-24,-18,-11,-1,28,72,133,219,325,442,557,658,733,742,713,577,357,70,-230,-488,-663,-727,-728,-668,-581,-508,-441,-372,-298,-230,-175,-144,-134,-127,-120,-115,-108,-98,-87,-70,-51,-35,-24,-22,-21,-20,-18,-19,-22,-27,-30,-33,-36,-37,-35,-31,-25,-17,-5,4,19,33,39,43,46,48,50,51,51,50,49,49,47,45,58,66,70,75,78,81,82,82,82,80,78,75,71,67,62,58,53,49,45,42,39,36,34,31,29,27,25,23,21,19,17,15,12,8,0,-17,-38,-54,-64,-72,-77,-82,-86,-86,-79,-67,-56,-53,-50,-49,-53,-60,-65,-69,-72,-75,-76,-75,-73,-71,-68,-64,-60,-56,-57,-61,-67,-72,-77,-81,-84,-88,-90,-93,-97,-100,-101,-100,-98,-95,-91,-86,-80,-72,-63,-53,-44,-38,-33,-30,-26,-24,-22,-21,-19,-18,-17,-16,-15,-15,-15,-15,-15,-15,-15,-17,-18,-20,-21,-23,-26,-33,-39,-48,-62,-78,-94,-103,-109,-112,-112,-109,-103,-94,-77,-66,-60,-56,-53,-52,-52,-53,-55,-59,-62,-65,-70,-75,-77,-76,-73,-66,-44,-8,44,113,195,295,403,515,616,692,725,693,578,376,104,-187,-454,-626,-706,-681,-606,-529,-481,-449,-406,-344,-271,-199,-141,-106,-90,-79,-67,-54,-41,-30,-22,-15,-12,-10,-8,-6,-4,-1,2,5,9,14,20,26,35,51,69,85,96,102,106,106,99,91,83,79,75,72,73,80,90,103,128,145,150,154,159,164,168,174,177,173,166,159,153,147,142,137,132,125,125,133,138,142,145,148,149,148,146,143,139,132,119,107,98,86,69,48,34,25,18,11,5,-6,-21,-32,-41,-53,-59,-63,-65,-67,-69,-70,-71,-71,-71,-71,-70,-69,-68,-67,-66,-64,-60,-61,-68,-74,-79,-83,-85,-87,-88,-90,-92,-94,-95,-96,-98,-100,-102,-105,-108,-110,-113,-116,-119,-122,-124,-123,-120,-115,-110,-104,-94,-87,-82,-75,-67,-55,-44,-35,-28,-24,-10,18,29,36,41,32,20,10,1,-8,-22,-50,-76,-84,-89,-92,-95,-97,-99,-101,-103,-105,-107,-110,-113,-116,-117,-119,-121,-123,-124,-126,-126,-128,-129,-131,-132,-133,-134,-136,-138,-144,-144,-136,-114,-88,-55,-7,57,136,227,327,433,536,632,708,736,694,569,361,99,-179,-421,-591,-667,-677,-656,-602,-538,-467,-392,-317,-247,-191,-157,-142,-134,-127,-119,-108,-92,-79,-72,-67,-64,-61,-57,-51,-42,-36,-32,-29,-27,-26,-27,-28,-31,-34,-38,-43,-43,-35,-24,-8,10,27,40,48,54,59,63,66,68,71,73,77,80,83,86,90,94,98,101,102,102,101,100,99,99,99,98,98,97,97,96,95,94,93,92,91,90,89,87,85,83,80,74,67,58,49,44,39,34,30,27,25,25,25,26,26,27,27,29,30,32,34,34,33,32,30,26,21,31,38,43,47,50,52,52,52,51,50,49,48,45,43,41,42,46,49,51,53,54,56,58,61,63,66,68,69,71,73,77,82,94,114,122,126,129,132,136,140,145,153,168,190,206,217,220,224,227,218,204,184,165,151,144,139,137,134,129,122,113,96,70,44,20,1,-11,-23,-31,-37,-43,-49,-55,-60,-64,-67,-71,-75,-77,-78,-77,-75,-73,-70,-66,-63,-57,-51,-45,-36,-21,0,35,80,141,231,346,473,597,701,765,769,723,550,272,-70,-410,-671,-809,-828,-789,-687,-576,-491,-443,-413,-357,-282,-209,-160,-142,-141,-154,-165,-175,-181,-182,-178,-172,-163,-146,-136,-134,-133,-131,-130,-128,-126,-122,-119,-116,-114,-112,-109,-105,-101,-89,-68,-61,-58,-56,-54,-52,-50,-48,-45,-42,-40,-38,-35,-31,-21,-2,8,14,19,24,30,42,61,77,88,94,97,100,102,104,105,105,103,99,94,90,85,78,70,64,57,46,24,8,1,-4,-10,-17,-24,-31,-40,-54,-65,-74,-85,-95,-100,-102,-103,-104,-105,-106,-106,-106,-106,-107,-107,-108,-109,-110,-111,-111,-111,-111,-112,-113,-114,-114,-115,-116,-117,-119,-122,-122,-119,-112,-104,-99,-94,-90,-86,-82,-78,-74,-70,-66,-63,-60,-57,-54,-50,-47,-43,-40,-37,-34,-30,-25,-18,-11,-5,0,5,10,15,20,25,28,31,34,37,42,45,45,38,28,17,2,-11,-25,-39,-52,-58,-61,-63,-65,-67,-69,-71,-73,-74,-75,-77,-78,-78,-78,-78,-77,-77,-76,-75,-74,-73,-71,-69,-67,-65,-63,-57,-44,-35,-14,21,79,155,248,356,479,602,712,793,828,822,760,613,402,127,-157,-415,-591,-652,-650,-583,-485,-405,-346,-295,-239,-189,-146,-103,-61,-17,10,37,55,59,62,64,66,67,66,63,57,52,48,45,42,38,35,33,31,30,30,31,33,35,38,42,46,51,62,87,97,100,103,107,109,112,114,116,117,118,119,120,120,120,121,121,121,121,120,120,120,122,123,125,126,126,127,128,130,132,133,134,136,140,145,150,153,152,148,143,137,127,112,102,96,91,87,81,72,63,57,52,48,44,41,38,36,33,31,29,27,26,24,23,22,20,18,17,16,14,12,10,8,5,3,0,-2,-6,-12,-18,-23,-27,-30,-33,-36,-39,-41,-42,-44,-44,-43,-42,-38,-34,-30,-25,-20,-14,-6,0,5,11,16,21,28,33,38,41,44,46,49,51,52,50,45,38,25,4,-18,-39,-48,-52,-56,-59,-62,-63,-65,-67,-69,-70,-72,-74,-76,-78,-81,-83,-85,-87,-89,-90,-92,-93,-93,-92,-91,-89,-87,-85,-82,-79,-74,-66,-54,-36,-13,22,73,146,239,346,451,549,628,661,651,564,367,92,-204,-467,-646,-701,-702,-653,-588,-535,-491,-436,-374,-312,-258,-209,-169,-144,-129,-122,-116,-110,-105,-102,-98,-92,-85,-78,-71,-58,-45,-42,-40,-38,-36,-35,-34,-33,-32,-31,-29,-28,-26,-25,-23,-20,-16,-14,-14,-17,-21,-25,-30,-29,-18,-2,13,20,24,26,27,25,22,18,15,11,7,4,4,9,16,23,28,34,40,45,49,50,49,46,42,37,26,9,2,-2,-6,-9,-13,-16,-19,-24,-30,-34,-35,-36,-36,-36,-37,-39,-39,-39,-39,-39,-40,-41,-41,-41,-41,-42,-42,-44,-45,-45,-45,-45,-45,-45,-45,-45,-44,-43,-43,-42,-43,-43,-43,-43,-42,-42,-42,-42,-42,-42,-43,-44,-46,-49,-52,-56,-64,-68,-72,-75,-65,-54,-45,-38,-34,-27,-14,-1,8,15,21,25,29,32,34,38,42,27,17,11,6,2,-1,-3,-5,-7,-9,-13,-20,-30,-43,-63,-80,-91,-96,-96,-94,-93,-91,-90,-89,-89,-89,-91,-92,-93,-95,-96,-90,-80,-71,-62,-54,-50,-46,-40,-32,-21,7,54,123,209,312,427,543,646,706,708,654,498,267,-14,-299,-539,-682,-712,-657,-567,-496,-454,-425,-397,-352,-296,-237,-188,-152,-120,-89,-61,-49,-44,-43,-42,-40,-39,-37,-35,-33,-31,-29,-26,-22,-13,-1,3,6,9,12,14,17,19,21,23,24,26,28,31,37,51,60,65,69,72,76,79,82,85,88,91,93,94,95,96,97,98,98,99,100,101,101,102,102,100,98,95,93,90,88,86,83,79,75,71,68,64,60,54,48,44,42,40,39,37,35,33,31,30,28,26,24,21,18,15,13,11,9,7,4,2,0,-1,-3,-4,-6,-8,-10,-12,-14,-15,-17,-19,-22,-25,-27,-26,-24,-20,-17,-14,-12,-9,-5,-2,-1,-1,-2,-5,-9,-12,-16,-23,-29,-29,-24,-18,-14,-11,-8,-5,-1,1,5,9,13,17,22,27,30,29,26,22,16,8,-3,-9,-12,-14,-16,-17,-19,-22,-26,-32,-38,-44,-51,-63,-72,-76,-79,-82,-85,-88,-88,-84,-80,-76,-72,-67,-63,-58,-52,-48,-45,-41,-38,-34,-32,-29,-26,-21,-10,9,43,96,164,247,347,453,562,667,748,777,731,592,359,68,-236,-504,-688,-751,-748,-671,-560,-456,-370,-308,-265,-235,-218,-200,-182,-147,-112,-92,-73,-55,-46,-42,-38,-36,-35,-36,-39,-43,-48,-53,-60,-65,-65,-60,-53,-46,-37,-28,-19,6,34,52,59,62,65,67,68,69,70,71,71,72,72,73,73,74,74,74,75,75,76,77,78,80,82,84,86,88,97,116,127,134,139,141,139,134,127,118,106,97,91,87,84,80,77,74,70,62,47,31,20,15,11,11,13,14,15,17,18,17,15,12,10,10,9,8,6,4,3,1,1,0,0,0,-2,-3,-5,-9,-11,-9,-6,-3,0,1,0,-6,-12,-19,-27,-38,-51,-59,-64,-67,-70,-70,-67,-64,-61,-59,-56,-53,-50,-48,-47,-45,-41,-36,-41,-46,-50,-50,-41,-28,-13,-1,6,14,19,22,25,27,27,27,25,24,23,22,20,18,16,15,12,10,6,2,-4,-11,-17,-22,-27,-32,-34,-36,-37,-39,-41,-43,-45,-44,-40,-35,-27,-13,-3,2,2,-3,-14,-24,-30,-35,-33,-20,14,79,164,268,383,504,619,717,789,814,770,642,425,141,-174,-451,-648,-735,-744,-702,-615,-537,-467,-403,-341,-283,-230,-183,-148,-121,-114,-113,-112,-111,-112,-115,-117,-119,-121,-122,-121,-118,-114,-109,-103,-94,-85,-79,-58,-35,-26,-21,-23,-34,-40,-40,-35,-30,-26,-21,-14,-5,1,9,15,19,21,23,25,26,27,29,32,35,38,42,51,64,71,78,86,92,97,100,100,97,92,86,79,78,80,82,84,84,82,76,68,57,46,33,18,1,-14,-25,-32,-36,-39,-41,-43,-44,-43,-39,-35,-31,-28,-25,-22,-18,-14,-11,-8,-6,-3,1,4,4,1,-2,-8,-16,-26,-41,-53,-58,-62,-60,-48,-40,-35,-31,-27,-25,-23,-23,-25,-27,-30,-33,-36,-39,-43,-47,-51,-52,-51,-49,-46,-42,-34,-17,-3,6,16,27,39,51,52,45,41,38,35,33,32,31,32,34,36,39,43,49,40,26,8,-3,-10,-16,-23,-30,-43,-61,-73,-80,-84,-87,-89,-92,-96,-94,-84,-80,-77,-75,-74,-73,-72,-71,-69,-68,-66,-65,-64,-64,-64,-63,-62,-60,-48,-18,16,58,115,190,277,377,481,586,681,743,745,696,529,269,-45,-349,-604,-757,-812,-773,-677,-563,-447,-357,-291,-239,-195,-155,-135,-117,-97,-87,-83,-81,-79,-77,-75,-74,-72,-71,-70,-69,-69,-68,-66,-64,-59,-46,-32,-23,-14,-5,3,19,28,35,40,44,48,51,53,56,58,61,64,68,74,80,86,93,98,98,93,87,83,79,74,71,69,70,72,75,77,79,81,84,86,86,84,81,78,77,76,75,73,71,69,67,65,62,60,57,55,52,49,45,41,32,24,20,17,12,6,6,16,24,32,37,37,31,22,14,4,-4,-13,-21,-29,-35,-36,-34,-30,-28,-25,-22,-21,-21,-24,-27,-30,-33,-36,-37,-35,-32,-28,-23,-17,-13,-20,-34,-45,-56,-64,-66,-67,-67,-68,-70,-60,-45,-24,-6,3,11,17,22,27,31,33,33,29,21,14,6,-1,-9,-16,-21,-27,-33,-40,-47,-55,-63,-70,-76,-81,-85,-89,-93,-97,-100,-103,-106,-108,-110,-111,-112,-112,-111,-109,-108,-106,-105,-104,-103,-101,-98,-96,-93,-90,-86,-77,-62,-38,-6,40,106,190,291,403,518,622,675,672,604,427,169,-134,-415,-631,-733,-747,-720,-644,-566,-492,-427,-376,-327,-287,-251,-231,-212,-192,-172,-152,-130,-111,-97,-87,-76,-71,-68,-66,-64,-62,-60,-58,-55,-51,-47,-43,-39,-34,-28,-18,-8,-2,1,5,9,14,18,25,34,42,49,56,62,66,67,67,67,67,67,67,68,69,70,70,70,71,71,72,72,72,72,71,71,72,73,74,76,76,76,74,72,69,67,65,62,59,55,51,48,44,41,35,28,19,8,-10,-31,-42,-50,-56,-56,-50,-40,-32,-24,-17,-14,-16,-19,-22,-23,-26,-30,-32,-32,-29,-23,-15,0,20,31,39,37,19,6,-3,-11,-15,-16,-17,-19,-23,-15,14,34,44,52,55,49,38,26,13,6,2,0,-4,-6,-6,0,8,19,34,45,60,78,89,96,101,104,104,102,96,89,78,63,61,58,56,55,58,60,62,64,65,64,61,57,53,52,50,48,45,43,40,39,37,36,34,33,32,32,32,31,30,29,27,26,25,22,19,19,24,33,45,61,78,122,180,257,354,473,605,733,833,858,838,715,494,204,-111,-383,-571,-627,-626,-564,-485,-424,-383,-358,-317,-267,-212,-167,-139,-108,-82,-71,-65,-61,-58,-55,-52,-49,-46,-43,-40,-38,-36,-34,-33,-31,-30,-28,-25,-23,-21,-18,-16,-14,-12,-12,-11,-9,-7,-5,-2,4,12,21,31,45,61,69,74,78,80,82,80,75,67,60,55,50,45,40,36,34,36,39,43,47,51,54,58,63,68,70,70,67,62,56,49,41,27,15,5,-8,-22,-28,-31,-33,-35,-37,-39,-40,-40,-40,-41,-41,-41,-41,-41,-42,-43,-44,-46,-48,-50,-50,-51,-52,-53,-54,-55,-54,-54,-53,-54,-55,-57,-58,-57,-54,-50,-46,-43,-40,-36,-31,-26,-23,-24,-27,-31,-36,-40,-44,-49,-55,-60,-64,-63,-60,-55,-49,-42,-36,-27,-17,-6,6,18,26,33,39,45,50,53,54,53,51,48,44,38,33,26,16,4,-6,-17,-30,-44,-56,-66,-71,-76,-80,-83,-85,-86,-86,-86,-85,-85,-83,-82,-80,-78,-76,-75,-73,-69,-64,-61,-59,-58,-59,-60,-61,-63,-66,-70,-54,-8,42,110,189,285,395,520,645,752,827,836,807,655,402,101,-219,-478,-652,-701,-698,-636,-550,-477,-426,-382,-327,-268,-212,-178,-149,-127,-111,-99,-90,-81,-69,-57,-45,-33,-22
