209,256,308,363,388,401,411,410,396,380,363,349,330,304,288,279,270,262,256,249,239,224,207,189,172,160,152,146,141,140,142,150,162,176,197,214,236,265,289,303,312,319,323,326,327,328,329,331,333,335,336,337,338,338,338,338,339,340,343,349,348,332,309,278,248,215,177,142,127,118,112,108,105,103,100,98,96,95,94,93,91,88,80,80,89,116,159,212,264,325,415,536,673,798,891,927,938,916,850,754,634,497,356,229,137,98,86,77,71,68,66,66,66,69,72,77,83,90,99,111,132,139,141,143,145,145,139,128,111,83,67,61,55,50,46,44,43,44,45,46,47,50,53,57,62,71,77,73,66,59,51,47,52,62,71,79,86,90,94,102,111,94,82,75,70,66,62,60,60,60,59,59,58,58,60,61,63,65,65,62,56,51,47,42,36,28,19,8,-11,-37,-51,-60,-72,-91,-123,-150,-160,-166,-170,-171,-170,-166,-160,-152,-136,-109,-87,-69,-56,-46,-38,-35,-42,-56,-78,-107,-154,-214,-283,-338,-359,-369,-377,-376,-362,-325,-277,-240,-215,-204,-196,-190,-185,-180,-175,-172,-170,-167,-163,-156,-142,-125,-106,-88,-75,-64,-54,-43,-30,-10,14,31,42,53,65,83,109,127,139,146,150,153,155,158,162,164,163,157,148,132,110,100,96,92,88,84,80,78,75,71,66,62,58,55,50,44,38,33,32,36,41,47,52,56,60,65,70,75,78,81,85,89,93,98,104,114,126,141,165,196,243,318,413,512,622,754,885,970,998,988,961,887,780,654,525,397,282,196,172,163,159,165,178,192,207,215,218,220,222,225,228,233,240,250,267,292,313,336,360,383,426,463,475,482,484,481,474,464,453,434,406,389,379,369,362,357,356,359,363,369,376,381,387,396,404,410,412,409,405,399,392,382,364,345,318,295,284,276,276,289,295,301,306,310,313,315,316,317,317,314,310,305,298,292,283,264,250,242,236,233,230,227,222,216,209,202,193,181,161,146,136,125,111,93,83,75,69,64,61,60,60,60,61,63,68,74,82,98,125,137,144,149,152,154,153,151,147,142,135,129,121,112,105,99,91,75,41,15,0,-9,-16,-21,-25,-33,-45,-60,-80,-109,-123,-126,-129,-132,-136,-138,-141,-142,-143,-144,-146,-146,-146,-147,-148,-149,-150,-150,-150,-150,-152,-155,-157,-160,-162,-163,-164,-165,-167,-170,-171,-174,-177,-181,-185,-189,-193,-197,-201,-204,-206,-208,-211,-215,-221,-235,-254,-270,-281,-292,-305,-318,-326,-334,-340,-345,-349,-352,-352,-352,-352,-351,-349,-346,-341,-327,-279,-210,-115,12,160,312,449,548,563,536,402,224,31,-152,-309,-423,-468,-479,-488,-495,-499,-501,-504,-506,-507,-510,-512,-512,-512,-514,-517,-521,-523,-524,-524,-523,-524,-524,-525,-524,-523,-522,-525,-532,-539,-546,-553,-558,-557,-549,-534,-509,-472,-456,-449,-444,-440,-436,-432,-428,-425,-423,-423,-422,-423,-422,-421,-420,-419,-418,-416,-411,-406,-399,-392,-383,-374,-362,-350,-341,-332,-314,-286,-257,-221,-177,-137,-100,-63,-25,7,20,27,33,38,40,40,39,38,37,37,38,38,37,35,33,32,30,28,25,21,16,12,9,4,-1,-7,-12,-17,-21,-25,-29,-34,-39,-42,-42,-41,-39,-38,-35,-32,-29,-24,-16,-5,9,34,65,91,117,140,170,210,236,244,249,253,256,258,260,261,262,263,264,265,266,267,270,276,279,270,255,246,239,233,227,222,216,211,206,200,193,181,168,155,142,128,118,110,104,98,93,89,85,80,76,70,60,44,24,-3,-29,-45,-56,-40,-14,16,41,56,69,78,92,104,88,62,26,-17,-49,-67,-81,-97,-118,-153,-180,-194,-205,-212,-218,-221,-225,-231,-239,-249,-258,-268,-280,-280,-267,-233,-154,-49,68,177,264,288,275,187,45,-121,-286,-422,-507,-556,-575,-582,-588,-593,-595,-591,-582,-573,-565,-558,-551,-544,-538,-533,-529,-523,-510,-484,-460,-443,-437,-431,-426,-444,-474,-498,-510,-519,-518,-503,-482,-455,-411,-356,-300,-253,-226,-203,-186,-173,-166,-160,-155,-152,-153,-156,-161,-166,-172,-179,-185,-185,-179,-170,-159,-142,-120,-88,-54,-32,-17,-2,10,30,60,80,91,99,104,108,110,112,112,113,113,114,114,111,104,94,83,73,65,56,46,37,29,22,17,12,7,3,-2,-8,-17,-34,-55,-86,-118,-129,-134,-137,-140,-141,-143,-144,-145,-147,-148,-149,-150,-152,-154,-155,-157,-159,-160,-161,-164,-167,-170,-173,-176,-180,-185,-190,-194,-194,-188,-178,-167,-157,-148,-137,-126,-116,-111,-111,-116,-125,-134,-142,-152,-162,-167,-163,-156,-150,-147,-145,-142,-140,-138,-136,-134,-132,-130,-127,-126,-126,-127,-131,-134,-138,-142,-147,-151,-155,-159,-162,-165,-168,-171,-176,-182,-188,-193,-198,-202,-205,-208,-211,-213,-215,-217,-219,-223,-228,-233,-236,-236,-235,-232,-228,-223,-217,-205,-206,-227,-251,-277,-297,-311,-322,-331,-335,-330,-319,-303,-281,-250,-231,-185,-124,-41,72,221,396,568,678,715,675,558,351,108,-122,-292,-376,-408,-411,-393,-344,-269,-241,-227,-218,-239,-275,-309,-324,-332,-337,-341,-343,-343,-340,-336,-329,-322,-316,-310,-303,-295,-288,-281,-275,-269,-262,-251,-232,-213,-200,-190,-183,-180,-181,-188,-196,-205,-213,-221,-229,-235,-236,-233,-226,-216,-204,-182,-146,-115,-83,-69,-63,-59,-55,-52,-49,-46,-44,-42,-39,-36,-33,-30,-28,-27,-25,-22,-16,-3,15,39,51,59,66,71,75,78,80,81,81,82,84,88,90,92,93,94,96,98,102,105,108,111,116,128,142,156,170,181,190,200,210,221,232,243,253,263,274,287,299,312,337,381,406,419,430,437,441,441,437,432,427,422,416,404,398,407,426,441,458,470,476,481,485,490,494,497,498,497,491,483,471,453,413,388,375,364,356,352,352,355,361,368,376,384,398,406,398,381,364,346,330,317,295,262,247,241,236,234,233,232,230,228,226,222,219,215,212,208,204,200,197,194,187,172,164,160,158,156,154,152,149,145,142,140,137,134,132,130,128,127,125,123,118,112,107,103,104,109,117,130,176,233,319,436,573,722,864,973,1017,1006,902,699,455,221,39,-56,-88,-76,-63,-52,-56,-82,-97,-107,-115,-123,-130,-138,-145,-152,-159,-166,-171,-175,-178,-181,-183,-185,-189,-193,-198,-203,-207,-209,-211,-213,-213,-214,-214,-215,-216,-218,-223,-227,-232,-236,-237,-234,-228,-221,-213,-206,-198,-190,-182,-174,-165,-157,-150,-144,-139,-131,-123,-116,-112,-112,-114,-116,-118,-119,-121,-125,-130,-132,-129,-120,-111,-105,-100,-95,-90,-87,-86,-91,-99,-109,-119,-127,-134,-140,-147,-154,-161,-169,-176,-182,-188,-193,-198,-202,-207,-213,-220,-228,-235,-241,-247,-253,-258,-262,-266,-270,-278,-284,-284,-273,-257,-242,-226,-212,-204,-199,-195,-189,-183,-179,-178,-180,-185,-194,-204,-213,-221,-231,-242,-251,-253,-249,-242,-232,-220,-201,-175,-169,-167,-164,-163,-161,-160,-158,-157,-157,-157,-158,-158,-161,-164,-167,-170,-174,-176,-178,-180,-186,-191,-194,-192,-182,-167,-152,-138,-124,-110,-96,-82,-69,-60,-55,-50,-46,-42,-39,-37,-35,-33,-31,-28,-26,-24,-23,-22,-21,-21,-20,-21,-22,-22,-22,-21,-20,-18,-17,-16,-13,-10,-7,-5,-3,-1,1,10,35,52,63,70,76,82,89,98,108,119,135,163,213,300,406,535,681,823,950,1046,1078,1053,973,792,593,393,202,52,11,-3,0,30,59,86,102,111,116,120,124,128,133,137,141,145,149,155,160,165,169,172,178,186,194,200,203,202,201,200,199,198,192,181,198,215,227,238,252,264,269,272,275,279,282,284,286,286,288,290,294,298,300,301,302,304,307,311,315,319,324,332,346,363,376,387,396,404,412,421,430,438,444,451,458,466,478,489,493,488,478,469,465,462,459,455,450,446,442,439,436,432,426,420,415,411,407,401,392,383,375,367,360,356,351,345,339,333,329,326,322,318,314,309,304,298,290,273,261,251,240,225,205,183,162,145,123,95,65,31,8,-4,-13,-18,-18,-14,-8,-1,5,13,19,19,12,1,-16,-50,-75,-90,-99,-103,-105,-107,-110,-112,-105,-91,-79,-66,-57,-53,-51,-50,-48,-46,-44,-42,-40,-39,-37,-34,-31,-28,-25,-22,-20,-19,-16,-12,-9,-6,-3,-2,-1,0,0,0,-3,-7,-11,-16,-21,-25,-30,-37,-44,-51,-57,-63,-69,-76,-84,-94,-103,-109,-109,-105,-101,-97,-94,-92,-88,-85,-80,-75,-69,-58,-20,49,149,277,415,536,631,682,686,647,538,379,197,16,-113,-154,-167,-140,-93,-67,-58,-69,-118,-141,-151,-144,-113,-85,-70,-63,-57,-54,-52,-48,-44,-40,-36,-33,-29,-26,-22,-17,-13,-11,-11,-14,-18,-23,-28,-34,-41,-50,-57,-58,-54,-47,-41,-37,-34,-31,-28,-24,-20,-16,-12,-8,-4,0,4,10,17,30,57,72,86,101,120,140,159,177,194,211,233,250,263,274,284,292,300,308,318,329,343,362,384,393,398,404,408,408,400,388,367,333,310,300,292,284,275,267,259,250,241,231,222,216,208,192,165,150,142,137,132,127,122,117,112,107,102,97,91,85,78,72,64,55,40,15,-2,-11,-17,-22,-26,-30,-33,-37,-39,-40,-41,-41,-43,-45,-47,-49,-50,-52,-54,-59,-65,-70,-76,-81,-86,-93,-101,-107,-110,-108,-104,-101,-98,-93,-83,-82,-89,-95,-102,-101,-88,-76,-66,-57,-51,-46,-43,-39,-36,-33,-30,-29,-29,-29,-31,-33,-37,-41,-45,-49,-51,-53,-54,-57,-59,-62,-63,-64,-65,-67,-70,-73,-75,-78,-81,-85,-92,-102,-116,-129,-136,-144,-151,-159,-166,-170,-173,-174,-174,-175,-176,-175,-172,-166,-160,-154,-146,-111,-48,39,158,307,461,585,617,599,474,288,80,-120,-283,-392,-438,-455,-454,-437,-415,-381,-351,-330,-311,-288,-254,-235,-226,-219,-215,-211,-206,-200,-195,-190,-185,-180,-174,-167,-159,-153,-147,-142,-136,-128,-118,-106,-91,-76,-64,-54,-45,-35,-27,-21,-15,-8,-1,8,17,20,15,2,-10,-22,-36,-47,-49,-50,-50,-50,-50,-50,-51,-51,-50,-46,-40,-34,-29,-24,-17,-10,-4,-2,-6,-14,-24,-34,-41,-47,-53,-60,-67,-73,-80,-86,-92,-100,-106,-114,-124,-135,-143,-149,-155,-160,-164,-168,-172,-177,-183,-188,-193,-196,-200,-204,-208,-211,-212,-210,-203,-195,-187,-181,-178,-175,-170,-166,-162,-158,-155,-151,-147,-142,-138,-134,-132,-131,-129,-127,-124,-121,-119,-116,-111,-105,-99,-94,-90,-88,-89,-90,-91,-93,-95,-99,-102,-105,-109,-113,-118,-122,-124,-126,-127,-126,-123,-120,-116,-108,-103,-106,-113,-116,-120,-124,-128,-130,-131,-129,-125,-119,-111,-102,-93,-81,-70,-62,-59,-57,-56,-53,-51,-49,-48,-48,-52,-59,-67,-76,-84,-93,-102,-109,-112,-115,-117,-121,-125,-127,-119,-106,-97,-91,-85,-80,-78,-79,-84,-93,-103,-113,-122,-132,-143,-153,-159,-161,-157,-150,-139,-122,-62,27,137,266,401,528,632,680,677,610,467,293,125,0,-77,-147,-174,-183,-187,-190,-192,-193,-193,-192,-191,-190,-188,-186,-184,-181,-179,-178,-178,-177,-177,-178,-179,-179,-179,-178,-178,-178,-177,-175,-173,-169,-164,-160,-156,-149,-134,-117,-99,-90,-84,-79,-75,-71,-67,-63,-60,-57,-53,-48,-44,-42,-41,-39,-36,-31,-24,-3,32,46,51,57,62,67,71,74,76,78,80,82,85,87,88,89,92,96,99,102,103,105,107,110,116,116,105,96,90,85,80,75,71,66,62,56,51,44,34,20,8,0,-7,-14,-20,-24,-28,-31,-35,-39,-44,-48,-51,-54,-56,-59,-63,-66,-70,-75,-85,-95,-99,-101,-103,-105,-108,-110,-112,-107,-96,-83,-74,-65,-58,-51,-45,-38,-33,-29,-27,-26,-25,-23,-21,-20,-20,-20,-19,-18,-16,-14,-13,-13,-14,-14,-13,-12,-13,-15,-19,-22,-24,-26,-27,-29,-32,-34,-37,-38,-39,-43,-48,-55,-61,-64,-65,-65,-66,-66,-67,-68,-66,-63,-60,-59,-58,-60,-62,-64,-65,-66,-69,-72,-75,-78,-78,-76,-71,-65,-58,-53,-49,-45,-40,-36,-32,-30,-27,-24,-21,-19,-16,-15,-13,-12,-10,-8,-4,0,4,17,48,102,194,329,494,659,788,853,851,771,623,451,260,83,-46,-106,-129,-128,-103,-87,-72,-60,-55,-59,-69,-82,-92,-104,-113,-112,-102,-88,-76,-63,-50,-38,-27,-19,-12,-6,0,4,8,10,12,14,16,19,24,26,23,15,8,2,-4,-9,-11,-4,7,19,25,30,35,40,44,48,51,53,56,59,63,66,68,69,69,69,68,66,66,66,66,67,69,71,73,76,78,82,85,88,91,94,97,101,105,111,123,130,121,103,88,75,62,53,46,39,32,22,14,9,6,4,3,1,0,0,0,0,4,7,11,16,22,28,28,21,10,2,-7,-16,-24,-30,-37,-45,-51,-51,-42,-30,-20,-10,0,8,16,24,37,54,70,84,95,104,110,116,122,125,119,108,101,96,91,87,84,82,82,83,85,89,96,103,113,128,142,154,162,168,175,180,181,179,174,168,162,155,144,144,156,165,170,176,185,196,207,214,220,226,232,238,243,247,250,252,255,261,267,291,328,341,354,372,395,413,424,429,419,400,386,374,363,354,346,339,333,324,315,305,294,284,272,259,255,254,253,251,250,250,253,261,271,287,314,358,431,537,660,795,925,1012,1020,971,825,638,452,292,174,108,78,58,44,39,35,34,33,32,30,27,22,17,10,0,-4,2,15,26,35,42,44,40,33,24,9,-17,-37,-49,-60,-70,-78,-87,-94,-97,-95,-87,-77,-63,-46,-43,-39,-36,-53,-83,-108,-118,-126,-131,-133,-131,-124,-116,-111,-106,-101,-96,-91,-87,-82,-75,-60,-43,-38,-34,-32,-33,-38,-47,-57,-71,-88,-104,-119,-118,-99,-89,-84,-79,-73,-68,-64,-61,-59,-58,-56,-55,-53,-52,-52,-52,-51,-49,-47,-45,-43,-43,-42,-40,-38,-37,-37,-37,-36,-34,-33,-37,-50,-69,-99,-120,-134,-139,-131,-113,-97,-79,-65,-52,-40,-28,-23,-32,-51,-73,-99,-115,-122,-128,-132,-134,-135,-136,-137,-137,-135,-132,-127,-122,-117,-113,-108,-101,-96,-92,-92,-95,-100,-105,-110,-116,-121,-120,-107,-88,-72,-52,-38,-31,-25,-22,-19,-16,-13,-9,-5,0,3,9,16,27,48,91,137,174,190,200,207,212,212,205,194,182,173,164,156,148,141,135,129,123,117,111,104,97,91,87,83,79,75,71,69,66,64,61,59,57,54,50,47,44,41,39,36,34,31,28,23,13,4,4,10,23,61,124,218,346,501,664,817,933,951,924,758,525,277,66,-77,-132,-148,-159,-165,-168,-170,-168,-164,-159,-154,-150,-146,-140,-133,-124,-113,-102,-90,-75,-65,-65,-75,-89,-103,-119,-134,-148,-156,-162,-168,-174,-178,-181,-181,-178,-174,-170,-167,-165,-162,-158,-154,-151,-149,-149,-149,-149,-148,-148,-149,-151,-153,-156,-157,-159,-161,-167,-165,-151,-141,-135,-129,-125,-121,-116,-111,-105,-98,-92,-87,-80,-73,-67,-62,-62,-66,-74,-82,-91,-100,-109,-119,-129,-138,-147,-153,-157,-161,-164,-166,-168,-169,-169,-169,-169,-170,-170,-171,-172,-173,-174,-175,-175,-177,-178,-179,-180,-183,-186,-189,-192,-201,-223,-234,-243,-251,-256,-243,-220,-212,-207,-202,-197,-192,-189,-187,-185,-183,-182,-182,-181,-180,-181,-181,-182,-181,-181,-181,-181,-180,-179,-179,-179,-178,-177,-176,-176,-175,-173,-171,-168,-164,-159,-153,-148,-142,-136,-129,-122,-115,-107,-99,-92,-88,-84,-79,-75,-70,-66,-61,-56,-51,-48,-44,-41,-38,-36,-36,-36,-36,-36,-36,-35,-34,-33,-31,-29,-26,-24,-22,-20,-20,-20,-21,-22,-25,-28,-31,-34,-36,-39,-40,-42,-43,-43,-45,-47,-51,-54,-57,-58,-58,-58,-57,-56,-52,-47,-41,-32,-22,-3,30,80,144,230,333,447,557,645,709,730,711,654,526,367,204,70,-26,-89,-112,-122,-122,-110,-93,-74,-52,-40,-45,-56,-66,-77,-81,-66,-43,-32,-25,-20,-17,-13,-10,-7,-3,0,5,10,14,17,18,19,20,23,26,31,47,75,86,93,98,100,96,88,82,79,77,74,70,67,65,63,62,62,61,61,62,65,70,75,79,81,84,88,94,101,108,115,123,130,138,148,159,171,185,213,257,299,332,355,382,411,434,445,451,457,463,469,478,512,564,584,592,598,600,593,576,553,519,481,447,425,413,401,387,375,367,360,355,350,345,340,336,332,329,326,323,320,317,313,305,297,293,297,305,315,324,335,343,343,335,321,300,263,229,205,195,187,179,180,196,219,249,277,310,341,361,363,365,368,370,370,362,350,333,299,273,259,249,239,230,222,216,211,207,201,194,186,178,169,159,147,136,126,119,113,107,101,95,90,86,83,78,73,68,62,56,50,44,37,29,21,13,4,-7,-24,-39,-51,-64,-77,-83,-85,-88,-91,-93,-95,-97,-100,-106,-112,-119,-126,-132,-139,-146,-151,-154,-153,-150,-145,-139,-115,-59,19,128,265,415,548,621,624,564,400,200,2,-160,-287,-336,-350,-359,-364,-366,-366,-360,-351,-339,-313,-285,-274,-265,-260,-265,-276,-286,-297,-304,-303,-298,-292,-287,-281,-277,-277,-282,-289,-294,-301,-306,-305,-295,-281,-263,-239,-217,-206,-198,-192,-187,-184,-181,-180,-179,-180,-182,-185,-187,-189,-191,-197,-199,-194,-183,-174,-165,-157,-148,-141,-136,-131,-127,-122,-118,-115,-111,-108,-104,-101,-98,-95,-94,-94,-94,-94,-94,-93,-91,-90,-92,-104,-120,-136,-154,-169,-181,-188,-192,-197,-201,-204,-207,-209,-213,-217,-221,-226,-231,-236,-240,-245,-251,-262,-273,-281,-287,-291,-293,-295,-297,-301,-303,-305,-307,-308,-310,-310,-311,-311,-311,-310,-310,-310,-312,-313,-315,-316,-319,-321,-322,-325,-327,-328,-328,-328,-330,-332,-334,-335,-334,-331,-325,-319,-314,-311,-308,-305,-302,-299,-295,-291,-286,-282,-278,-273,-269,-264,-260,-254,-247,-238,-223,-207,-195,-186,-177,-169,-161,-153,-145,-135,-125,-116,-107,-99,-92,-85,-80,-75,-71,-68,-65,-62,-60,-58,-55,-52,-50,-48,-48,-48,-48,-50,-51,-52,-54,-56,-58,-59,-60,-61,-62,-63,-63,-62,-63,-62,-61,-58,-54,-48,-43,-37,-30,-24,-18,-11,-6,-1,3,11,44,104,195,314,455,600,724,787,807,774,672,523,368,230,118,43,1,-36,-80,-115,-138,-148,-140,-125,-108,-89,-86,-97,-108,-120,-118,-90,-59,-28,-5,7,15,21,24,26,24,19,12,5,-1,-8,-16,-21,-24,-23,-18,-8,3,17,38,57,72,79,83,86,89,92,95,97,100,104,107,110,114,118,121,124,127,129,132,136,142,149,155,159,160,160,159,158,156,151,143,168,192,209,222,229,234,241,251,255,244,223,205,186,172,163,157,152,148,145,142,138,133,129,125,123,121,119,116,113,110,108,109,110,112,113,114,114,116,118,120,120,117,110,102,95,90,85,79,74,68,64,63,63,63,64,66,68,70,73,80,86,87,81,74,70,68,66,65,64,62,60,57,55,54,54,54,53,52,51,51,51,53,55,56,58,61,64,67,70,72,74,77,80,82,85,88,92,96,101,106,110,114,116,118,120,122,124,126,130,139,137,121,105,89,87,95,109,108,92,83,84,103,114,122,131,137,141,140,135,128,122,116,111,105,97,89,82,78,76,75,74,74,74,77,82,90,98,109,152,245,370,524,688,843,960,1010,1006,934,787,617,452,317,218,147,82,38,-18,-48,-62,-57,-1,67,91,99,105,109,110,105,95,85,79,73,68,64,59,55,53,54,58,63,68,73,78,84,94,103,110,114,117,119,121,123,124,124,125,126,128,132,136,140,144,148,153,159,165,171,177,186,197,207,213,214,212,208,205,202,201,200,196,192,188,186,184,183,182,181,181,182,184,186,188,189,190,191,195,179,163,154,143,131,117,98,75,59,43,26,8,-35,-91,-122,-145,-164,-192,-221,-246,-255,-259,-263,-266,-269,-272,-274,-278,-283,-287,-287,-282,-274,-266,-259,-254,-256,-266,-277,-282,-287,-293,-298,-302,-305,-306,-305,-302,-299,-295,-290,-285,-279,-267,-252,-233,-218,-203,-190,-185,-185,-187,-188,-190,-192,-194,-196,-199,-203,-207,-212,-218,-225,-231,-235,-238,-242,-246,-251,-255,-258,-262,-263,-263,-262,-261,-258,-254,-250,-245,-239,-232,-225,-221,-222,-229,-239,-251,-262,-277,-288,-291,-294,-296,-298,-299,-301,-302,-304,-305,-304,-302,-298,-293,-286,-279,-271,-262,-246,-234,-225,-222,-221,-219,-218,-217,-215,-213,-211,-209,-208,-207,-205,-203,-200,-196,-175,-123,-37,83,240,432,651,868,1044,1123,1118,1012,798,546,313,126,53,32,19,12,10,11,14,20,28,43,74,109,137,153,165,162,139,124,113,104,98,98,102,109,119,136,169,196,212,228,244,260,275,291,307,320,332,342,348,348,342,334,327,323,319,315,310,305,303,304,308,312,317,322,326,333,341,347,350,351,352,354,359,359,351,345,339,334,335,345,359,374,393,411,421,429,437,442,445,442,436,428,421,414,406,399,391,383,376,369,361,354,347,340,333,326,318,311,304,297,291,286,281,276,271,266,260,254,245,226,190,160,137,116,94,74,64,61,59,56,55,54,54,53,53,53,52,51,51,51,52,53,53,54,55,57,58,60,62,63,63,63,63,63,63,63,66,68,67,57,43,24,2,-7,-16,-24,-23,-3,13,29,41,47,51,55,60,65,65,61,56,52,48,44,41,37,32,26,18,8,-6,-27,-29,-30,-31,-33,-35,-35,-34,-32,-29,-27,-25,-24,-21,-19,-16,-15,-15,-17,-20,-25,-31,-38,-46,-54,-66,-76,-84,-90,-96,-102,-109,-116,-120,-120,-117,-111,-103,-76,-21,56,155,269,390,509,603,635,620,573,430,251,77,-72,-175,-224,-243,-263,-289,-322,-351,-369,-351,-319,-295,-286,-280,-277,-276,-279,-284,-290,-297,-296,-280,-268,-258,-251,-247,-247,-251,-257,-263,-270,-280,-289,-291,-285,-277,-272,-268,-264,-261,-258,-254,-248,-241,-235,-230,-226,-221,-216,-211,-206,-202,-198,-195,-191,-186,-180,-175,-171,-167,-162,-157,-150,-142,-133,-124,-115,-104,-92,-79,-67,-57,-48,-40,-31,-22,-16,-13,-16,-25,-37,-47,-56,-64,-72,-80,-87,-93,-97,-100,-102,-105,-109,-113,-116,-120,-123,-126,-130,-134,-138,-142,-147,-151,-155,-161,-167,-171,-170,-164,-155,-146,-142,-139,-136,-133,-129,-124,-118,-111,-103,-96,-90,-84,-78,-72,-67,-63,-60,-55,-50,-43,-36,-30,-25,-21,-19,-18,-19,-22,-27,-33,-39,-46,-52,-57,-66,-75,-82,-83,-75,-62,-48,-32,-11,8,25,43,62,79,95,109,121,135,152,168,181,192,203,214,224,233,245,270,302,314,320,325,329,331,332,332,333,333,332,330,327,324,321,318,316,313,307,301,297,298,306,319,332,341,349,358,367,375,382,387,392,397,404,412,421,430,440,455,480,517,570,638,725,832,949,1060,1155,1186,1166,1106,943,744,549,414,364,355,348,344,341,339,336,334,332,327,321,316,311,307,303,299,294,289,283,278,272,265,258,251,245,239,235,231,228,224,221,216,213,209,204,199,193,184,171,157,143,134,126,118,111,104,98,92,87,83,79,75,70,66,62,58,53,47,39,32,25,18,13,10,6,1,-2,-6,-10,-14,-19,-25,-31,-37,-42,-48,-57,-76,-88,-97,-102,-106,-109,-113,-118,-125,-131,-137,-142,-148,-154,-166,-188,-207,-220,-230,-238,-244,-245,-246,-247,-247,-247,-246,-244,-244,-244,-249,-255,-261,-264,-267,-269,-273,-277,-279,-280,-280,-279,-279,-280,-281,-283,-284,-286,-288,-290,-293,-296,-298,-299,-300,-301,-301,-302,-303,-303,-304,-305,-307,-310,-312,-314,-316,-318,-318,-318,-316,-314,-312,-308,-304,-299,-295,-291,-286,-281,-276,-261,-215,-188,-177,-168,-161,-156,-150,-144,-140,-136,-133,-129,-124,-114,-98,-91,-86,-82,-79,-78,-80,-88,-100,-119,-147,-160,-168,-173,-176,-178,-174,-166,-155,-146,-139,-133,-126,-120,-113,-109,-105,-103,-103,-106,-110,-113,-119,-126,-134,-143,-153,-171,-186,-186,-180,-167,-132,-51,56,185,324,463,590,673,700,665,559,371,153,-42,-204,-285,-312,-324,-323,-311,-291,-257,-215,-196,-187,-180,-172,-163,-154,-147,-140,-134,-130,-127,-123,-118,-111,-103,-94,-85,-77,-69,-56,-42,-32,-27,-24,-20,-16,-9,-11,-27,-37,-44,-52,-57,-60,-59,-52,-43,-31,-20,-9,5,19,27,29,30,31,32,33,34,35,35,35,34,32,32,31,31,30,31,31,32,34,36,40,45,50,55,61,67,78,102,106,99,95,92,87,78,67,47,17,3,-3,-9,-14,-18,-20,-20,-19,-18,-17,-14,-12,-10,-7,-4,-2,0,4,10,15,20,26,31,40,54,68,80,88,94,99,104,108,110,110,109,108,108,108,107,105,102,99,97,97,98,99,101,103,107,110,113,112,109,106,104,103,101,99,97,95,93,93,93,92,90,89,89,89,87,82,96,106,112,117,122,124,122,117,111,104,99,93,85,76,69,65,64,63,63,61,58,55,53,54,56,59,60,61,61,62,64,66,69,71,73,74,75,75,75,73,70,67,64,62,59,55,50,45,38,25,19,25,42,86,180,309,457,604,725,796,821,823,803,749,644,503,336,168,34,-45,-72,-60,-23,24,42,42,27,4,-18,-26,-31,-34,-34,-29,-20,-11,-6,-3,0,3,6,9,12,15,17,17,16,15,14,13,12,10,7,5,2,0,-2,-7,-10,-2,10,20,29,37,45,52,59,65,71,77,82,87,91,95,99,103,107,111,116,121,128,135,141,142,141,137,133,129,124,119,117,120,125,131,137,146,152,153,146,136,123,106,88,81,78,74,71,67,64,63,62,61,60,58,56,54,53,51,50,47,45,43,41,39,37,33,27,20,14,12,14,17,20,23,27,35,39,34,24,8,-15,-39,-60,-70,-77,-82,-86,-87,-85,-81,-75,-69,-63,-57,-51,-45,-40,-37,-33,-23,-26,-54,-79,-98,-110,-121,-132,-150,-168,-178,-186,-184,-168,-153,-141,-130,-121,-111,-101,-93,-87,-80,-72,-71,-72,-73,-74,-75,-77,-78,-79,-80,-82,-86,-89,-93,-95,-97,-99,-102,-107,-112,-115,-115,-113,-110,-106,-103,-100,-95,-90,-85,-84,-87,-91,-98,-110,-127,-135,-140,-144,-146,-147,-143,-135,-121,-79,-14,71,175,301,450,602,730,784,779,697,532,334,150,1,-102,-156,-177,-194,-216,-238,-253,-261,-246,-221,-194,-169,-145,-133,-125,-120,-118,-120,-124,-130,-136,-142,-149,-156,-161,-166,-170,-174,-177,-182,-186,-188,-186,-181,-175,-168,-161,-150,-145,-146,-151,-155,-162,-162,-152,-144,-136,-127,-118,-109,-100,-88,-88,-96,-106,-115,-102,-91,-86,-81,-77,-71,-67,-63,-59,-53,-44,-34,-23,-6,19,52,70,76,82,82,74,68,63,58,53,48,44,37,28,28,39,47,54,61,69,76,84,94,109,111,103,99,95,91,88,86,87,91,98,106,113,117,121,127,132,137,141,145,148,150,151,152,152,153,153,153,152,152,152,152,151,151,149,154,159,163,165,164,156,147,142,138,136,134,132,131,132,136,143,151,159,166,176,187,195,197,194,187,177,163,141,128,116,105,104,111,115,118,120,122,124,125,125,125,124,121,117,112,106,99,89,78,68,58,48,39,32,27,24,21,18,13,9,9,15,26,46,67,76,83,81,64,49,35,29,33,42,67,120,200,296,390,468,538,607,628,638,629,557,433,276,115,-23,-96,-99,-64,-38,-22,-12,-34,-58,-76,-84,-78,-69,-65,-63,-62,-61,-61,-60,-59,-57,-54,-52,-51,-51,-51,-53,-54,-56,-58,-60,-61,-62,-63,-64,-65,-65,-65,-64,-63,-62,-63,-67,-65,-49,-38,-28,-20,-16,-16,-21,-28,-35,-41,-48,-57,-64,-68,-71,-74,-80,-87,-88,-82,-78,-75,-70,-65,-58,-48,-31,0,24,37,47,56,63,73,85,85,69,51,30,8,-9,-23,-35,-47,-57,-64,-71,-76,-81,-85,-86,-86,-82,-75,-68,-60,-51,-43,-33,-23,-16,-14,-13,-12,-10,-7,-5,-3,-2,-3,-3,-4,-5,-6,-7,-7,-6,-5,-3,-2,0,0,2,4,6,6,6,6,6,4,2,0,-1,-2,-3,-4,-6,-7,-7,-6,-3,1,4,8,13,19,26,32,35,34,29,22,15,6,-7,-9,2,9,14,19,24,26,25,22,18,14,10,2,-1,5,20,35,53,52,31,9,-13,-32,-45,-55,-62,-64,-64,-65,-66,-67,-68,-69,-66,-59,-51,-45,-38,-30,-25,-24,-28,-36,-44,-52,-62,-71,-75,-72,-63,-48,0,67,156,258,371,488,597,689,720,703,648,504,309,100,-76,-148,-175,-178,-173,-166,-162,-182,-199,-210,-218,-220,-214,-198,-182,-167,-151,-136,-127,-119,-114,-111,-107,-104,-100,-96,-94,-94,-94,-95,-95,-95,-96,-97,-99,-100,-102,-103,-104,-106,-109,-111,-110,-108,-103,-96,-88,-77,-62,-37,-19,-1,14,20,24,29,31,25,12,2,-8,-16,-16,-3,13,28,43,58,68,77,85,95,106,118,128,137,145,148,143,132,122,118,114,111,107,104,102,101,100,99,97,96,95,95,95,94,92,89,86,84,81,79,77,76,74,73,73,72,71,69,65,62,58,53,49,46,44,44,46,48,51,53,55,56,57,58,59,59,59,61,67,70,62,49,43,39,35,32,29,27,25,24,23,24,26,28,32,35,39,44,49,55,64,73,78,76,67,58,49,40,33,30,35,48,63,77,94,109,120,128,136,145,152,151,140,124,110,93,79,72,67,63,57,53,54,62,71,76,80,85,89,92,94,96,97,96,94,89,84,78,71,65,58,46,35,29,30,35,45,75,161,294,462,639,800,928,990,988,915,745,547,359,198,87,16,-29,-83,-114,-128,-138,-110,-88,-74,-63,-56,-53,-56,-60,-65,-68,-69,-70,-72,-74,-77,-81,-85,-88,-92,-95,-99,-102,-105,-108,-111,-115,-119,-126,-134,-140,-143,-141,-134,-125,-115,-106,-97,-88,-80,-72,-65,-58,-52,-47,-44,-42,-40,-39,-37,-36,-35,-35,-36,-35,-33,-31,-29,-28,-27,-26,-25,-23,-21,-19,-18,-17,-15,-11,-6,-2,1,5,8,11,15,17,18,16,12,8,4,0,-5,-11,-16,-20,-22,-25,-27,-31,-35,-40,-43,-46,-49,-52,-55,-57,-58,-57,-57,-57,-58,-58,-58,-56,-54,-52,-51,-49,-47,-43,-38,-33,-27,-22,-8,25,45,58,67,73,78,85,94,91,70,59,51,45,40,36,34,34,34,34,36,38,40,42,44,46,48,49,50,49,48,45,41,34,25,15,0,-17,-34,-45,-56,-66,-72,-71,-63,-52,-41,-35,-29,-24,-18,-13,-8,-5,-3,-3,-4,-6,-9,-13,-19,-26,-34,-44,-65,-92,-107,-116,-125,-133,-138,-141,-141,-139,-136,-131,-125,-119,-110,-95,-78,-58,-28,8,66,128,201,286,380,481,572,605,626,621,560,436,261,80,-68,-144,-172,-182,-176,-162,-138,-108,-91,-79,-74,-80,-92,-102,-113,-120,-121,-115,-107,-101,-93,-88,-87,-91,-96,-99,-104,-108,-111,-110,-105,-100,-98,-95,-93,-90,-87,-83,-78,-73,-69,-65,-61,-57,-53,-46,-32,-22,-16,-9,-2,2,3,0,-6,-9,-13,-17,-21,-23,-22,-17,-10,-3,3,8,15,22,29,36,42,47,50,54,59,64,67,68,66,64,63,63,63,63,62,61,59,59,60,60,59,58,57,55,55,54,53,51,49,46,44,38,27,44,59,70,78,84,87,92,97,99,91,77,67,59,52,45,43,45,50,57,64,79,108,127,137,146,150,150,145,139,132,125,113,102,91,78,64,52,43,37,30,23,17,11,6,1,-3,-6,-6,-2,5,13,25,41,49,54,60,65,65,57,48,43,41,40,38,35,32,29,26,23,21,18,15,12,9,7,5,0,-5,-11,-15,-18,-20,-22,-25,-28,-31,-34,-36,-37,-39,-41,-44,-47,-49,-51,-52,-54,-57,-61,-64,-65,-66,-64,-62,-58,-53,-45,-30,1,54,132,234,356,488,617,724,766,709,558,359,155,-12,-112,-161,-180,-198,-210,-219,-227,-236,-245,-257,-271,-276,-278,-280,-283,-262,-241,-226,-216,-216,-223,-233,-244,-259,-270,-276,-282,-286,-288,-290,-289,-285,-280,-276,-273,-269,-264,-261,-258,-258,-261,-266,-273,-280,-287,-297,-306,-310,-307,-300,-291,-280,-263,-251,-236,-209,-190,-180,-172,-168,-166,-167,-170,-174,-177,-178,-180,-181,-182,-183,-185,-186,-187,-188,-190,-191,-192,-193,-193,-193,-191,-189,-186,-185,-183,-181,-180,-178,-177,-175,-173,-172,-171,-166,-160,-155,-155,-158,-164,-172,-186,-212,-228,-235,-242,-246,-248,-247,-243,-238,-232,-228,-226,-225,-223,-221,-220,-219,-218,-217,-215,-214,-212,-210,-209,-209,-210,-210,-210,-210,-209,-208,-207,-205,-203,-200,-196,-186,-173,-157,-148,-143,-138,-134,-130,-126,-121,-117,-114,-111,-108,-104,-100,-95,-86,-67,-48,-34,-23,-15,-12,-14,-19,-27,-53,-97,-113,-121,-126,-131,-138,-136,-122,-105,-90,-88,-86,-84,-83,-83,-87,-93,-101,-110,-95,-73,-40,-7,16,30,48,76,98,109,117,121,123,124,125,126,128,129,130,129,128,127,123,131,187,266,355,444,533,610,678,741,775,774,731,646,537,444,375,315,244,173,98,69,58,59,74,85,94,104,116,129,141,154,164,167,164,159,157,152,149,154,165,176,186,184,163,142,117,69,-57,-206,-346,-527,-634,-641,-568,-328,-40,162,443,543,226,353,369,323,430,496,514,501,459,433,420,388,322,271,253,250,248,246,245,250,257,265,276,277,268,261,256,252,250,250,253,257,262,268,279,279,267,253,238,227,202,162,149,142,142,143,144,148,152,137,119,103,86,61,40,30,24,19,19,22,29,37,44,48,41,25,10,-4,-15,-23,-33,-45,-75,-120,-153,-164,-171,-175,-177,-178,-175,-169,-160,-133,-85,-76,-68,-61,-55,-50,-46,-44,-43,-43,-45,-45,-46,-48,-48,-48,-48,-48,-48,-47,-47,-47,-47,-48,-48,-48,-48,-49,-51,-53,-57,-61,-64,-68,-75,-90,-90,-74,-50,-16,7,19,29,39,49,56,63,68,73,76,79,82,85,89,94,98,102,107,113,121,130,140,150,158,164,171,178,184,188,186,180,169,159,150,143,136,127,119,113,108,106,105,104,104,104,107,114,122,132,171,239,326,435,551,653,722,745,723,654,521,373,230,115,61,41,41,60,89,122,171,229,267,286,296,303,310,315,317,319,319,318,316,313,308,302,294,287,278,267,254,245,236,228,216,201,195,194,192,191,191,191,191,191,190,187,182,176,169,160,148,124,100,83,70,61,55,52,49,44,40,36,37,46,58,67,76,84,87,83,74,64,56,48,40,35,35,41,50,61,72,86,97,99,97,94,90,86,77,59,37,16,8,3,-1,-5,-10,-14,-18,-25,-33,-14,-1,4,10,15,18,20,20,20,18,15,10,4,-2,-10,-24,-37,-49,-61,-74,-81,-77,-66,-48,-31,-27,-24,-21,-19,-18,-19,-21,-24,-27,-28,-30,-33,-35,-37,-39,-39,-38,-36,-33,-29,-25,-21,-17,-12,-5,0,5,7,6,5,3,1,0,-6,-6,2,8,14,19,22,23,21,16,11,7,5,2,0,-4,-6,-8,-8,-9,-9,-9,-8,-7,-4,0,3,5,7,10,15,21,28,35,41,47,55,63,76,86,91,95,99,103,107,111,113,112,109,104,98,91,80,81,101,119,137,149,158,169,182,197,237,307,400,528,685,850,992,1058,1058,989,843,661,469,305,166,80,18,-19,-60,-91,-111,-124,-110,-70,-12,43,92,119,130,135,139,142,145,148,151,153,154,156,157,158,159,159,158,157,156,157,161,164,166,165,159,151,143,137,130,123,115,112,112,116,124,133,151,172,180,184,188,191,192,190,186,180,172,158,132,121,115,110,107,105,104,103,103,104,106,108,111,113,117,121,121,116,109,102,94,85,71,55,41,30,19,8,0,-9,-18,-30,-47,-60,-71,-83,-97,-114,-121,-126,-130,-134,-137,-140,-142,-144,-146,-148,-149,-151,-152,-154,-156,-161,-173,-173,-159,-150,-141,-135,-131,-131,-134,-139,-143,-147,-154,-160,-162,-158,-152,-146,-141,-136,-135,-138,-145,-152,-157,-163,-169,-172,-172,-167,-158,-150,-142,-134,-126,-122,-120,-118,-116,-115,-113,-111,-109,-108,-105,-102,-97,-92,-88,-84,-80,-74,-68,-62,-58,-57,-58,-60,-63,-66,-71,-81,-80,-66,-58,-51,-46,-42,-40,-42,-48,-58,-69,-92,-124,-136,-142,-148,-152,-155,-156,-157,-157,-158,-157,-156,-153,-148,-144,-143,-147,-153,-156,-158,-160,-162,-164,-167,-169,-170,-170,-169,-167,-163,-157,-149,-139,-103,-34,58,174,305,439,572,687,742,740,677,543,386,213,60,-48,-125,-189,-223,-258,-282,-294,-302,-276,-232,-196,-179,-167,-162,-169,-181,-193,-207,-206,-188,-161,-128,-98,-67,-38,-21,-22,-22,-22,-21,-20,-19,-20,-23,-28,-32,-37,-45,-43,-24,-11,-2,5,14,24,31,38,43,49,55,60,64,66,66,65,63,62,59,55,48,37,38,60,73,82,91,97,102,105,109,111,114,116,118,120,121,122,123,124,125,125,126,126,125,123,121,117,113,107,100,92,78,52,40,31,23,18,24,36,45,52,58,62,61,54,44,32,18,-1,-16,-27,-34,-41,-47,-51,-53,-51,-47,-39,-31,-23,-15,-4,5,12,12,6,-2,-14,-26,-43,-57,-70,-79,-87,-94,-98,-100,-98,-93,-84,-74,-62,-45,-35,-29,-24,-19,-14,-14,-26,-42,-50,-56,-63,-69,-74,-79,-83,-87,-89,-90,-90,-89,-87,-83,-78,-72,-67,-63,-59,-56,-52,-45,-36,-31,-31,-36,-45,-54,-60,-67,-73,-79,-84,-87,-87,-87,-86,-85,-82,-80,-76,-73,-71,-74,-83,-91,-95,-98,-102,-106,-110,-115,-119,-123,-127,-129,-131,-131,-130,-129,-127,-126,-124,-121,-116,-111,-106,-101,-96,-61,5,110,253,415,561,639,665,636,542,383,203,58,-52,-140,-194,-210,-220,-226,-226,-219,-209,-199,-192,-184,-175,-168,-163,-161,-163,-168,-175,-184,-192,-206,-213,-204,-182,-147,-110,-84,-55,-24,13,39,54,64,70,69,64,54,43,31,14,1,-10,-16,-22,-28,-33,-37,-39,-41,-42,-43,-44,-44,-43,-41,-38,-34,-30,-25,-21,-15,-9,-3,4,17,31,43,50,57,65,77,94,114,123,128,132,135,138,141,143,144,145,146,146,146,145,143,141,138,136,134,131,128,124,121,116,113,110,108,106,104,101,97,94,91,88,85,83,80,78,77,77,77,77,75,73,71,66,57,51,58,72,82,93,101,101,89,75,65,55,46,40,38,41,48,57,65,70,76,82,88,92,93,90,83,75,65,54,45,32,18,8,4,7,13,22,32,43,58,69,74,78,82,87,90,89,76,61,52,45,37,30,24,21,21,23,25,29,32,34,37,41,44,46,47,44,40,34,28,22,18,14,10,7,5,4,2,0,-3,-6,-9,-11,-11,-13,-14,-15,-15,-16,-17,-19,-23,-32,-31,-9,50,116,196,288,386,470,537,562,575,585,558,477,345,171,-8,-145,-195,-213,-213,-206,-202,-199,-197,-195,-192,-189,-185,-180,-174,-168,-164,-161,-158,-152,-144,-137,-132,-132,-136,-142,-148,-153,-155,-158,-161,-163,-166,-169,-170,-171,-171,-170,-168,-166,-164,-163,-162,-161,-160,-159,-158,-156,-154,-152,-149,-146,-143,-138,-134,-130,-126,-123,-120,-116,-112,-108,-102,-95,-88,-81,-75,-69,-66,-64,-64,-63,-63,-62,-62,-60,-56,-52,-51,-58,-66,-69,-72,-75,-77,-79,-81,-83,-87,-90,-94,-97,-100,-101,-102,-104,-108,-112,-118,-134,-172,-194,-207,-217,-222,-220,-211,-198,-177,-139,-97,-56,-27,-9,9,28,40,49,58,64,67,69,69,69,68,68,68,69,70,72,74,75,76,77,78,78,77,75,74,73,71,70,70,70,69,68,67,65,62,57,51,43,26,0,-11,-18,-23,-26,-21,-9,4,15,24,33,41,46,51,56,61,64,67,69,72,76,80,83,87,90,95,102,114,136,164,181,193,203,210,216,221,225,227,230,234,238,242,244,243,237,229,219,209,196,185,183,184,187,189,192,195,197,196,193,188,182,175,164,165,179,218,281,351,431,531,647,762,858,906,908,863,741,566,376,195,51,-10,-32,-24,-17,-13,-9,-6,-5,-6,-7,-7,-7,-6,-6,-8,-10,-11,-8,-1,6,12,16,21,26,31,35,38,39,38,36,34,32,29,26,22,18,14,9,5,2,1,2,6,12,19,30,29,8,-8,-23,-34,-35,-30,-21,-6,23,47,61,70,72,67,60,56,51,45,41,40,42,46,49,51,54,57,60,61,62,60,55,49,43,37,30,23,18,17,16,16,15,15,14,13,13,17,21,24,29,33,36,34,28,19,6,-10,-20,-30,-40,-24,5,23,30,36,23,9,0,-10,-23,-36,-46,-57,-66,-74,-77,-74,-66,-56,-45,-36,-25,-14,-2,7,17,26,37,46,46,38,26,15,4,-8,-21,-35,-61,-98,-126,-147,-167,-180,-189,-197,-201,-201,-194,-184,-172,-162,-149,-136,-126,-114,-92,-57,-43,-37,-30,-24,-19,-15,-12,-10,-8,-7,-7,-6,-7,-9,-11,-13,-15,-18,-21,-24,-27,-30,-33,-38,-47,-58,-69,-79,-85,-91,-96,-100,-103,-104,-104,-104,-103,-100,-97,-92,-86,-79,-72,-65,-54,-43,-34,-33,-36,-41,-50,-65,-91,-112,-126,-116,-86,-15,77,198,329,441,523,551,529,462,334,209,90,-20,-93,-120,-122,-115,-109,-106,-99,-85,-75,-67,-59,-55,-56,-64,-75,-88,-97,-106,-113,-120,-126,-131,-133,-132,-130,-127,-122,-116,-110,-105,-100,-94,-89,-84,-80,-77,-77,-79,-81,-84,-86,-88,-91,-93,-96,-100,-102,-103,-104,-106,-108,-110,-111,-111,-112,-113,-114,-117,-120,-121,-120,-116,-110,-102,-92,-76,-53,-39,-31,-25,-21,-17,-13,-7,-2,0,4,8,14,21,32,54,73,81,86,92,97,100,102,103,104,104,101,95,88,78,68,58,51,44,33,20,8,1,2,9,18,28,37,42,50,59,68,75,79,82,84,84,83,81,76,69,62,56,52,49,45,40,35,32,30,28,26,23,22,22,25,29,35,40,45,51,57,63,68,71,72,73,74,75,76,76,76,75,76,78,80,81,83,86,88,90,93,96,98,100,103,106,111,118,127,135,142,148,150,150,146,140,132,124,116,107,97,87,76,67,59,52,41,25,16,22,35,45,55,64,72,77,82,93,105,82,66,57,50,44,39,38,38,38,39,42,46,52,61,97,182,289,423,534,645,682,702,703,664,572,471,327,207,114,38,9,-12,-21,-28,-33,-37,-41,-44,-46,-48,-50,-51,-51,-49,-48,-46,-45,-44,-42,-39,-37,-35,-33,-30,-24,-18,-13,-9,-5,-4,-3,-3,-6,-11,-21,-35,-52,-88,-135,-157,-174,-173,-157,-143,-132,-118,-98,-70,23,91,57,49,43,38,35,34,34,36,39,42,46,50,56,62,68,73,79,86,94,101,108,112,112,111,108,105,102,94,81,90,97,102,105,107,107,104,100,93,82,60,35,12,0,-6,-10,-12,-12,-7,-1,3,8,12,16,20,23,25,27,27,26,23,18,12,5,0,-7,-17,-28,-37,-42,-44,-46,-49,-52,-56,-63,-74,-84,-90,-96,-103,-109,-114,-116,-116,-116,-117,-117,-118,-118,-117,-116,-115,-115,-115,-115,-112,-107,-102,-100,-98,-97,-96,-94,-92,-90,-88,-87,-85,-84,-84,-84,-84,-84,-84,-84,-84,-82,-78,-75,-81,-93,-102,-110,-117,-119,-116,-109,-100,-82,-57,-44,-35,-29,-26,-27,-30,-33,-35,-36,-38,-41,-43,-47,-50,-54,-58,-62,-65,-67,-69,-70,-71,-74,-76,-80,-83,-85,-86,-86,-85,-83,-79,-74,-68,-62,-52,-40,-33,-24,5,64,149,256,389,529,663,764,778,749,611,421,225,60,-44,-89,-104,-112,-113,-107,-99,-92,-83,-76,-76,-81,-88,-93,-99,-103,-103,-97,-90,-81,-71,-71,-82,-91,-100,-104,-98,-86,-74,-62,-50,-40,-30,-19,-14,-18,-27,-34,-41,-48,-51,-49,-44,-37,-27,-13,-4,4,13,14,5,0,-4,-8,-11,-12,-9,-2,5,13,19,26,34,41,46,50,53,55,56,58,59,60,62,63,65,67,68,69,69,70,72,74,76,77,79,84,87,80,67,61,57,52,47,43,40,37,34,32,29,27,26,24,24,23,20,18,15,13,12,13,15,18,20,22,25,29,34,38,41,44,46,50,56,60,55,43,33,24,17,13,14,18,25,31,34,39,43,48,50,51,52,52,53,55,57,59,58,49,35,14,-9,-20,-28,-33,-33,-25,-13,-2,9,16,17,16,15,14,13,12,10,9,7,3,-1,-8,0,6,10,15,22,30,39,51,68,70,58,48,36,26,18,7,-2,14,34,50,56,58,60,62,64,64,64,64,63,61,58,54,48,40,25,16,11,4,-3,-4,-1,0,1,2,3,4,5,7,11,16,23,46,110,195,298,424,577,743,886,947,942,855,697,520,354,208,83,-5,-64,-106,-119,-105,-81,-57,-41,-32,-21,-6,18,47,65,79,79,63,39,7,-26,-44,-49,-53,-55,-55,-49,-40,-29,-14,0,6,10,14,18,20,20,18,14,10,5,1,-2,-7,-12,-14,-14,-12,-8,-3,3,11,27,42,55,68,68,53,40,28,21,18,16,13,9,23,40,57,75,88,98,105,106,99,91,85,79,72,64,54,46,41,37,33,30,28,26,24,22,20,17,14,12,10,9,7,4,2,0,-2,-5,-9,-15,-27,-40,-52,-61,-66,-70,-72,-74,-75,-76,-77,-79,-80,-81,-83,-85,-87,-89,-92,-93,-94,-94,-95,-95,-97,-98,-99,-101,-106,-112,-116,-114,-105,-94,-82,-64,-58,-57,-54,-49,-74,-90,-99,-107,-114,-120,-123,-125,-125,-124,-123,-119,-114,-108,-102,-97,-93,-90,-85,-80,-73,-66,-60,-55,-51,-47,-43,-40,-36,-33,-31,-30,-28,-24,-20,-18,-17,-20,-24,-28,-33,-36,-40,-44,-50,-55,-59,-61,-61,-61,-60,-59,-59,-57,-54,-49,-64,-82,-98,-97,-74,-54,-37,-24,-15,-10,-3,6,12,5,-9,-20,-32,-42,-42,-31,-15,9,50,123,219,327,445,576,698,779,806,775,682,495,283,113,-23,-117,-152,-154,-136,-115,-95,-91,-88,-86,-84,-82,-80,-76,-72,-69,-67,-66,-66,-67,-69,-70,-70,-68,-66,-63,-61,-59,-57,-55,-53,-50,-48,-44,-39,-30,-19,-10,-2,3,8,12,17,21,25,27,29,29,29,30,31,30,29,27,26,24,21,16,37,50,55,60,65,70,75,79,83,87,92,96,100,102,104,107,111,116,121,126,128,129,129,128,126,121,114,105,96,87,80,74,68,60,52,44,36,30,25,22,19,16,15,15,14,14,12,9,5,0,-3,-9,-16,-25,-35,-43,-49,-51,-52,-53,-55,-57,-60,-63,-65,-68,-72,-74,-75,-76,-75,-74,-72,-71,-69,-68,-66,-64,-64,-64,-65,-66,-67,-67,-67,-68,-70,-70,-70,-69,-68,-68,-66,-65,-63,-60,-58,-55,-53,-52,-50,-48,-45,-43,-41,-37,-33,-27,-20,-12,-5,0,4,8,12,16,19,21,23,25,29,35,43,49,54,57,59,59,60,60,60,59,57,56,57,58,59,58,55,51,49,47,45,43,40,37,35,34,34,34,34,35,35,35,35,35,36,37,39,41,43,45,48,52,58,64,71,79,126,217,343,499,678,839,966,1010,1000,908,743,537,338,172,49,-31,-68,-89,-105,-103,-71,-48,-27,-11,-3,-3,-4,-6,-7,-8,-8,-7,-6,-6,-8,-11,-13,-14,-14,-14,-14,-14,-15,-17,-18,-19,-21,-22,-23,-22,-20,-17,-15,-13,-11,-10,-7,-4,0,2,4,6,9,12,15,19,22,24,26,28,31,32,34,35,36,37,39,42,43,45,47,49,53,57,61,66,70,77,96,111,117,122,128,135,134,114,84,63,59,55,52,51,55,60,63,67,70,68,55,39,29,17,6,-1,-4,-2,1,5,8,10,13,17,21,23,23,22,19,17,16,14,11,7,3,2,3,6,10,13,16,22,27,30,27,19,10,6,2,-1,-4,-7,-10,-12,-12,-13,-13,-12,-11,-9,-7,-5,-3,0,1,3,3,0,-5,-11,-15,-19,-23,-27,-29,-30,-28,-23,-16,-9,-4,0,2,4,7,9,11,13,15,17,20,24,26,28,30,31,31,31,32,32,32,34,37,41,44,46,49,52,55,57,58,57,54,51,48,45,43,41,38,34,27,12,6,2,-1,-5,-8,-10,-10,-7,-4,0,5,11,18,26,35,44,57,99,153,222,298,385,487,601,708,796,824,812,722,577,381,198,57,3,-12,-23,-29,-32,-32,-29,-25,-20,-15,-11,-5,0,3,6,9,12,15,19,22,24,25,27,30,34,38,43,47,50,52,53,56,59,61,64,67,71,75,77,78,77,76,74,73,72,71,68,65,63,62,61,58,55,51,49,48,51,58,67,77,88,105,117,120,121,124,127,129,129,119,106,96,86,75,69,69,70,72,75,78,83,87,86,79,68,49,28,22,19,17,14,11,9,7,6,5,3,1,-1,-4,-11,-22,-27,-30,-23,-16,-13,-9,-5,0,3,10,20,18,0,-12,-21,-28,-33,-38,-42,-46,-50,-53,-57,-61,-65,-69,-71,-71,-69,-64,-57,-50,-40,-25,-24,-37,-47,-58,-64,-63,-60,-55,-50,-57,-63,-67,-71,-74,-75,-73,-70,-66,-62,-57,-52,-45,-37,-31,-28,-25,-18,-10,-22,-31,-36,-39,-42,-44,-44,-43,-39,-34,-27,-13,15,32,39,45,50,54,55,55,53,49,45,40,36,32,27,22,17,13,10,6,2,-2,-6,-10,-14,-17,-20,-22,-25,-28,-38,-37,-23,-14,-13,-19,-23,-26,-29,-31,-31,-31,-28,-25,-20,-16,-9,0,9,18,43,86,153,242,351,482,624,741,792,752,633,465,272,110,12,-46,-88,-111,-135,-156,-172,-181,-163,-138,-119,-112,-110,-109,-109,-108,-109,-108,-108,-106,-105,-103,-100,-97,-94,-92,-89,-86,-83,-80,-77,-74,-71,-68,-65,-62,-59,-57,-55,-53,-50,-48,-47,-46,-47,-47,-47,-48,-48,-49,-50,-50,-50,-49,-47,-47,-46,-46,-44,-41,-37,-34,-31,-29,-26,-20,-13,-3,5,13,18,24,31,39,46,52,60,70,84,96,106,118,129,133,136,140,137,120,105,92,83,77,74,72,70,67,64,62,62,64,67,71,74,77,80,85,89,92,92,90,86,81,77,75,72,68,65,62,60,60,61,62,63,65,69,73,81,100,117,128,127,112,101,93,85,77,71,65,57,47,47,57,67,76,74,63,57,52,48,45,43,42,43,45,48,51,55,59,67,71,66,58,53,49,45,42,42,42,42,42,41,41,42,43,45,47,48,47,45,43,42,41,38,36,36,41,48,54,58,61,64,67,69,70,71,69,66,63,58,54,49,43,34,26,16,7,0,-8,-16,-23,-28,-34,-40,-49,-53,-46,-31,-11,10,17,21,26,24,10,-3,-18,-18,-4,34,118,239,388,537,657,709,727,700,617,474,300,134,1,-80,-103,-109,-114,-115,-113,-110,-107,-104,-104,-108,-115,-121,-127,-130,-121,-101,-69,-47,-43,-39,-36,-36,-41,-50,-62,-75,-79,-82,-83,-85,-88,-91,-94,-96,-100,-106,-106,-95,-88,-81,-76,-72,-73,-78,-86,-96,-114,-139,-148,-153,-158,-162,-164,-164,-164,-163,-161,-159,-155,-151,-147,-142,-138,-135,-132,-129,-124,-119,-115,-110,-106,-103,-100,-96,-92,-88,-84,-77,-61,-63,-87,-105,-119,-131,-139,-144,-148,-153,-161,-160,-146,-131,-116,-113,-119,-127,-134,-118,-104,-94,-87,-82,-82,-89,-100,-110,-120,-132,-143,-148,-146,-141,-132,-116,-94,-84,-80,-76,-74,-72,-69,-67,-64,-63,-61,-59,-55,-50,-41,-41,-54,-61,-67,-71,-75,-78,-79,-78,-74,-68,-63,-56,-46,-37,-36,-40,-45,-47,-48,-49,-51,-52,-54,-56,-57,-57,-57,-55,-54,-52,-50,-46,-42,-37,-33,-29,-24,-17,-11,-4,0,4,7,11,15,19,22,24,25,25,25,28,31,34,38,45,49,45,39,36,34,31,28,25,23,21,18,17,16,17,18,19,19,19,19,19,20,20,19,17,14,11,7,3,0,-1,-3,-4,-4,-5,-5,-6,-6,-4,0,6,16,28,73,149,245,363,494,623,737,816,844,825,768,622,429,230,59,-66,-127,-148,-156,-152,-143,-130,-99,-54,-26,-16,-9,-7,-16,-31,-37,-40,-42,-45,-47,-49,-52,-54,-57,-60,-62,-64,-65,-66,-67,-68,-70,-71,-72,-73,-73,-73,-72,-72,-72,-71,-71,-70,-69,-69,-68,-67,-65,-62,-60,-59,-57,-56,-55,-54,-52,-50,-47,-44,-40,-36,-31,-27,-24,-20,-16,-10,-2,11,34,40,45,51,50,38,34,32,30,28,26,24,23,21,19,17,15,13,12,11,10,10,9,8,8,6,5,3,1,-1,-4,-8,-10,-10,-9,-5,-1,3,7,10,14,18,21,24,27,29,31,34,37,40,43,45,47,49,54,59,64,76,98,105,108,112,115,117,115,109,99,89,82,74,67,61,57,53,50,49,48,46,43,41,39,38,38,39,39,39,39,40,41,44,46,48,49,50,51,53,55,56,58,58,59,62,65,69,72,75,78,82,86,90,93,97,99,102,106,111,114,116,117,118,118,117,113,108,102,95,89,85,82,79,75,71,66,62,58,55,52,49,46,44,44,46,48,50,53,56,58,61,64,67,70,73,78,87,109,129,178,233,303,398,517,643,768,834,829,734,548,321,97,-21,-61,-48,-26,-8,-3,-2,-1,0,0,1,1,3,4,5,5,6,6,5,3,1,0,-1,-3,-4,-5,-6,-6,-7,-7,-7,-7,-7,-7,-7,-7,-7,-7,-7,-8,-9,-9,-8,-7,-7,-6,-4,-2,0,1,4,7,6,-3,-16,-28,-43,-51,-42,-26,-14,-5,2,10,17,23,29,35,40,43,46,49,50,50,49,47,43,39,34,29,25,22,19,16,13,9,6,4,2,1,0,0,0,0,0,0,-2,-7,1,13,22,6,-20,-46,-59,-67,-73,-75,-73,-69,-62,-54,-41,-25,-24,-24,-24,-25,-25,-25,-24,-25,-27,-30,-33,-37,-39,-42,-44,-47,-48,-50,-51,-52,-52,-53,-53,-54,-54,-53,-53,-53,-53,-53,-52,-50,-49,-47,-45,-43,-41,-39,-37,-36,-36,-35,-31,-27,-24,-24,-29,-37,-45,-51,-58,-64,-70,-74,-74,-70,-64,-57,-47,-32,-28,-23,-17,-22,-26,-31,-33,-29,-22,-16,-12,-7,-4,-2,3,10,-7,-26,-42,-55,-65,-74,-84,-90,-86,-78,-73,-68,-62,-59,-60,-66,-72,-77,-83,-89,-89,-84,-78,-72,-66,-61,-60,-67,-76,-82,-89,-95,-97,-96,-92,-85,-63,-21,26,80,149,231,325,418,513,590,627,625,578,451,264,79,-64,-134,-158,-151,-140,-132,-144,-160,-172,-162,-152,-147,-142,-135,-129,-124,-119,-112,-105,-104,-110,-119,-127,-137,-144,-143,-133,-121,-114,-109,-103,-97,-92,-89,-87,-85,-83,-77,-69,-61,-52,-48,-46,-43,-39,-37,-35,-33,-31,-29,-26,-22,-19,-17,-15,-11,-5,1,7,11,16,23,32,34,31,29,27,25,23,23,23,27,32,37,43,49,56,64,71,77,81,87,94,100,100,92,82,77,72,67,62,58,55,52,51,50,50,51,52,54,57,60,62,65,67,68,69,71,73,75,77,79,81,82,84,84,85,84,82,79,75,72,66,57,57,68,75,81,87,90,92,90,86,80,74,69,62,55,51,53,57,62,68,75,82,86,89,94,101,91,83,77,72,68,68,69,72,76,79,84,87,85,81,78,74,70,68,68,70,72,75,78,84,88,90,88,85,81,78,76,78,86,96,102,108,113,118,121,122,119,113,105,95,81,59,50,44,39,35,33,34,39,45,51,55,59,63,67,71,74,76,77,78,78,79,79,78,77,75,73,72,70,68,63,77,116,152,196,254,331,431,533,625,702,753,770,748,682,546,389,235,112,15,-79,-119,-133,-124,-97,-45,-33,-31,-31,-31,-31,-31,-30,-28,-26,-23,-21,-19,-18,-16,-14,-11,-8,-3,5,13,14,9,2,-9,-32,-50,-61,-66,-60,-49,-34,-18,-13,-9,-5,-3,-4,-10,-16,-19,-22,-24,-27,-29,-30,-32,-33,-33,-33,-33,-32,-30,-27,-25,-22,-19,-15,-5,-5,-13,-18,-23,-27,-29,-29,-27,-23,-18,-14,-10,-4,3,11,17,24,42,45,11,-24,-34,-41,-46,-50,-50,-48,-43,-38,-32,-22,-8,-23,-52,-68,-73,-77,-79,-73,-60,-55,-52,-50,-48,-46,-44,-41,-38,-35,-33,-31,-30,-29,-28,-28,-30,-31,-33,-35,-37,-39,-40,-42,-44,-46,-48,-50,-52,-55,-59,-63,-67,-71,-75,-79,-81,-83,-84,-84,-84,-83,-82,-81,-81,-81,-83,-84,-79,-70,-66,-63,-60,-57,-55,-53,-51,-50,-50,-50,-51,-52,-54,-56,-58,-60,-63,-65,-67,-70,-73,-73,-68,-58,-46,-38,-29,-21,-15,-12,-13,-18,-25,-32,-39,-46,-53,-61,-67,-73,-79,-84,-88,-94,-99,-103,-105,-104,-101,-96,-88,-80,-63,-33
