96,116,136,154,168,173,177,180,182,184,186,187,188,189,189,189,189,188,186,183,180,177,173,170,167,162,150,129,115,107,101,95,91,87,84,82,80,78,76,72,69,66,64,63,62,62,61,62,63,67,72,80,90,102,155,257,397,569,754,930,1075,1169,1180,1144,1000,780,516,251,26,-123,-177,-180,-142,-84,-30,-1,8,12,15,18,20,22,24,26,27,27,27,28,30,32,34,35,36,36,37,37,38,39,40,41,41,43,45,46,47,48,49,49,50,50,50,49,48,46,45,45,44,43,41,42,51,63,72,78,83,87,91,96,101,106,110,115,119,124,129,135,141,147,154,161,170,181,192,200,208,214,219,223,228,232,236,237,235,231,225,217,208,194,169,148,129,114,98,81,64,47,31,16,9,4,0,-2,-5,-7,-10,-12,-14,-16,-19,-21,-24,-26,-28,-30,-31,-33,-34,-36,-38,-39,-40,-40,-41,-42,-42,-43,-43,-43,-43,-42,-42,-43,-43,-43,-44,-45,-46,-47,-49,-49,-50,-50,-49,-49,-48,-47,-46,-46,-45,-45,-45,-46,-48,-49,-51,-52,-52,-52,-52,-52,-52,-53,-53,-53,-56,-61,-66,-69,-67,-61,-52,-44,-39,-34,-29,-23,-19,-15,-15,-18,-23,-28,-34,-39,-45,-53,-63,-71,-75,-73,-68,-60,-52,-44,-32,-22,-19,-21,-25,-29,-33,-38,-41,-41,-40,-39,-37,-35,-31,-27,-30,-35,-36,-38,-40,-42,-43,-44,-45,-46,-47,-47,-46,-44,-41,-38,-36,-34,-33,-31,-29,-27,-28,-29,-31,-33,-34,-34,-34,-34,-33,-31,-28,-24,-20,-15,-11,-7,-3,0,3,6,10,14,18,24,29,35,39,44,47,50,51,52,51,50,49,48,48,47,46,45,44,45,46,45,36,23,7,-11,-22,-28,-33,-38,-42,-42,-38,-32,-25,-21,-16,-11,-6,-3,-2,-4,-8,-15,-21,-28,-39,-48,-49,-43,-31,5,67,159,282,432,600,769,923,1032,1048,1017,862,628,346,72,-145,-262,-301,-284,-231,-153,-117,-103,-98,-94,-92,-89,-87,-83,-78,-73,-69,-65,-61,-58,-56,-53,-51,-47,-40,-32,-24,-21,-24,-29,-36,-42,-47,-52,-59,-65,-69,-70,-67,-61,-54,-48,-43,-39,-35,-31,-26,-22,-18,-14,-10,-6,-3,-1,0,2,4,6,8,11,14,18,22,26,30,35,40,45,49,54,59,66,75,98,142,161,170,177,183,187,190,192,193,192,190,186,182,176,169,154,124,103,91,77,62,52,43,36,29,22,15,8,0,-15,-37,-44,-48,-52,-54,-56,-56,-52,-46,-39,-33,-24,-16,-16,-25,-35,-42,-49,-56,-61,-64,-64,-61,-58,-53,-47,-40,-28,-16,-3,7,18,26,27,21,10,-7,-34,-49,-57,-63,-66,-67,-64,-57,-49,-40,-28,-18,-17,-23,-30,-33,-35,-38,-40,-42,-46,-50,-55,-59,-63,-67,-71,-76,-81,-92,-113,-121,-127,-133,-137,-138,-130,-115,-90,-64,-56,-51,-46,-44,-42,-44,-49,-56,-63,-70,-77,-85,-93,-100,-107,-112,-117,-124,-129,-133,-131,-123,-110,-98,-90,-83,-76,-69,-64,-60,-60,-61,-64,-67,-70,-72,-75,-79,-83,-86,-88,-89,-88,-84,-79,-74,-68,-63,-54,-46,-39,-37,-38,-42,-48,-53,-58,-65,-71,-75,-74,-69,-59,-48,-33,-10,3,8,12,15,19,21,24,27,29,31,32,32,32,31,29,27,24,21,17,13,9,5,1,-3,-11,-20,-28,-35,-42,-48,-51,-55,-58,-60,-62,-63,-64,-66,-67,-69,-70,-71,-71,-70,-69,-67,-65,-63,-61,-58,-55,-50,-47,-28,22,104,221,371,542,718,880,995,1012,986,840,617,353,101,-102,-235,-266,-276,-248,-202,-157,-136,-126,-119,-114,-109,-104,-100,-95,-90,-85,-81,-77,-73,-70,-65,-61,-55,-51,-47,-44,-43,-41,-40,-39,-38,-37,-35,-34,-32,-30,-28,-25,-24,-22,-21,-19,-17,-14,-11,-8,-4,0,9,19,29,37,44,51,58,68,80,92,103,113,119,124,128,132,135,139,143,147,151,156,161,167,174,186,198,208,219,237,265,280,288,295,299,301,300,296,290,281,271,261,247,230,213,193,167,135,105,92,84,78,73,70,66,63,61,59,57,55,53,51,50,49,49,49,50,50,50,51,52,53,54,54,53,53,53,53,53,53,52,51,50,49,47,45,42,38,34,31,28,25,23,19,15,10,6,1,-2,-6,-11,-15,-19,-23,-26,-28,-29,-30,-30,-31,-32,-32,-33,-34,-36,-38,-41,-43,-45,-46,-47,-47,-47,-47,-47,-46,-44,-43,-43,-44,-46,-47,-49,-51,-53,-55,-57,-59,-61,-61,-62,-62,-63,-63,-64,-65,-67,-70,-73,-76,-80,-84,-87,-90,-92,-94,-95,-96,-95,-95,-95,-95,-95,-96,-96,-97,-99,-100,-100,-100,-99,-98,-97,-96,-95,-94,-93,-92,-91,-92,-93,-94,-94,-93,-92,-91,-90,-90,-89,-88,-87,-86,-86,-86,-86,-85,-84,-82,-80,-79,-79,-77,-76,-73,-72,-71,-70,-68,-65,-61,-57,-52,-49,-45,-39,-26,-14,-6,-1,0,2,5,8,11,14,15,16,15,14,12,8,3,-3,-10,-16,-23,-36,-60,-64,-66,-69,-71,-72,-73,-72,-70,-67,-64,-61,-60,-58,-55,-53,-51,-48,-45,-43,-40,-38,-36,-31,-24,-15,28,109,227,380,564,764,955,1100,1140,1121,987,753,467,177,-71,-239,-281,-296,-268,-220,-174,-153,-143,-136,-131,-125,-118,-109,-98,-89,-82,-77,-72,-68,-65,-63,-61,-59,-56,-54,-51,-48,-46,-45,-43,-41,-39,-37,-34,-31,-29,-27,-25,-24,-23,-22,-21,-20,-18,-15,-11,-8,-4,0,3,7,11,14,17,19,22,25,29,33,36,41,46,52,59,65,71,76,80,84,89,94,99,106,118,142,168,194,221,249,268,283,294,298,296,289,279,262,233,204,174,141,113,101,95,91,88,85,81,77,73,68,61,52,38,14,-5,-15,-22,-28,-32,-34,-36,-37,-37,-36,-35,-32,-29,-26,-23,-21,-17,-12,-10,-14,-21,-29,-38,-49,-55,-56,-56,-56,-57,-58,-58,-58,-58,-57,-57,-56,-56,-56,-55,-53,-52,-51,-51,-51,-51,-50,-49,-48,-49,-57,-67,-75,-84,-91,-94,-92,-87,-81,-79,-76,-74,-71,-69,-68,-67,-66,-65,-65,-66,-66,-67,-68,-68,-69,-70,-71,-73,-75,-76,-77,-74,-69,-66,-65,-64,-62,-60,-59,-58,-57,-57,-57,-57,-56,-56,-57,-57,-58,-58,-58,-59,-59,-60,-60,-60,-60,-60,-60,-60,-60,-59,-57,-56,-54,-52,-51,-51,-51,-51,-52,-52,-53,-54,-55,-56,-56,-56,-56,-55,-54,-54,-53,-52,-52,-51,-50,-50,-49,-48,-47,-46,-44,-43,-41,-38,-35,-31,-25,-20,-15,-10,-5,-1,2,6,10,15,21,29,45,58,70,78,86,92,96,95,91,85,77,70,62,54,46,35,26,21,17,14,11,9,8,6,4,3,2,0,-1,-3,-5,-6,-7,-9,-10,-12,-14,-16,-17,-19,-22,-27,-33,-38,-40,-39,-32,-22,-6,46,135,262,423,608,798,966,1080,1096,1062,900,660,383,114,-94,-207,-244,-223,-203,-191,-181,-172,-163,-151,-135,-111,-101,-95,-91,-86,-83,-81,-80,-79,-77,-76,-74,-71,-69,-68,-67,-66,-64,-61,-58,-55,-52,-49,-46,-42,-39,-36,-34,-32,-30,-27,-23,-19,-15,-13,-10,-8,-5,-2,0,2,5,8,12,16,21,25,28,32,35,40,45,52,64,75,87,101,117,134,145,153,160,167,175,184,192,198,204,209,214,217,220,221,220,218,214,208,202,195,185,169,155,143,132,121,110,100,90,77,60,45,29,13,-6,-17,-25,-31,-35,-38,-38,-36,-32,-27,-20,-13,-3,5,7,5,2,1,0,-2,-4,-6,-6,-7,-7,-7,-8,-8,-7,-6,-4,-2,0,0,0,0,0,0,0,-1,-2,-2,-2,-2,-2,-2,-2,-2,-2,-2,-3,-4,-5,-6,-7,-8,-8,-9,-10,-11,-11,-11,-11,-11,-11,-11,-11,-10,-10,-10,-10,-10,-11,-11,-11,-11,-11,-11,-11,-10,-9,-8,-8,-9,-11,-12,-10,-5,0,3,7,12,16,19,19,16,13,9,5,0,-5,-9,-11,-10,-8,-6,-4,-3,-1,0,2,4,6,6,6,5,4,3,3,1,0,-2,0,5,14,24,36,43,46,51,57,41,24,11,-2,-15,-25,-35,-41,-41,-33,-20,-7,9,25,39,49,56,62,67,72,76,81,85,89,97,103,104,99,92,87,82,78,75,74,75,78,81,84,90,100,99,76,54,33,23,18,16,14,12,10,8,6,5,4,3,3,2,2,1,1,0,0,0,0,0,0,0,0,0,1,2,4,6,18,83,180,310,468,643,818,969,1060,1068,1018,859,623,347,84,-119,-242,-275,-272,-229,-173,-146,-132,-124,-117,-108,-99,-95,-92,-89,-88,-86,-85,-84,-82,-79,-77,-74,-72,-71,-69,-68,-66,-65,-64,-63,-62,-60,-58,-56,-55,-55,-54,-52,-50,-48,-46,-44,-42,-40,-37,-34,-31,-28,-26,-24,-21,-17,-12,-6,-1,2,7,10,14,17,20,22,23,25,27,29,31,33,35,38,43,48,53,59,65,70,76,82,87,93,97,102,105,107,106,104,101,96,90,83,75,62,40,21,6,-11,-33,-55,-75,-93,-103,-108,-112,-116,-120,-122,-123,-120,-115,-112,-110,-109,-107,-105,-102,-99,-97,-94,-92,-90,-88,-86,-86,-85,-85,-85,-85,-84,-83,-81,-80,-78,-76,-73,-71,-70,-71,-74,-78,-83,-89,-95,-105,-114,-115,-105,-91,-75,-56,-46,-40,-34,-27,-23,-32,-49,-57,-64,-70,-75,-79,-83,-86,-88,-89,-89,-87,-85,-82,-78,-74,-69,-65,-61,-59,-57,-56,-55,-53,-51,-49,-47,-45,-43,-41,-39,-36,-35,-34,-34,-34,-34,-34,-35,-35,-36,-37,-37,-37,-36,-34,-32,-30,-29,-28,-27,-26,-26,-26,-26,-27,-28,-28,-28,-27,-25,-25,-24,-23,-22,-21,-20,-19,-19,-19,-19,-19,-18,-18,-17,-17,-17,-18,-18,-19,-19,-19,-19,-19,-18,-17,-15,-13,-11,-9,-8,-7,-7,-7,-6,-6,-6,-5,-3,0,5,11,17,22,28,33,38,43,47,50,53,55,58,62,66,72,77,82,86,88,89,89,87,83,79,73,68,64,60,57,54,51,48,44,39,34,28,22,15,10,5,2,0,0,-1,-2,-3,-4,-6,-9,-11,-14,-16,-18,-19,-19,-18,-16,-13,-9,-3,4,32,89,178,300,451,621,792,951,1075,1121,1109,997,779,497,199,-60,-242,-292,-309,-285,-210,-149,-115,-99,-93,-87,-82,-78,-74,-69,-64,-62,-60,-58,-57,-55,-54,-53,-51,-47,-42,-39,-37,-35,-33,-32,-32,-32,-32,-33,-34,-36,-37,-38,-38,-38,-37,-35,-33,-30,-26,-23,-19,-15,-11,-7,-4,-1,2,7,13,18,23,28,32,37,42,49,59,74,90,106,116,122,128,132,136,141,146,151,156,160,164,169,173,178,184,189,194,197,197,196,193,189,184,177,164,137,108,78,57,46,36,27,19,14,10,7,4,1,-1,-5,-9,-13,-18,-22,-26,-30,-34,-40,-47,-52,-53,-51,-46,-39,-34,-31,-28,-27,-25,-23,-21,-19,-17,-15,-13,-12,-11,-10,-9,-10,-10,-12,-13,-15,-17,-18,-18,-19,-20,-21,-22,-22,-22,-21,-21,-21,-22,-24,-27,-28,-28,-28,-27,-25,-24,-22,-19,-15,-12,-12,-15,-19,-23,-24,-26,-27,-29,-31,-33,-34,-34,-34,-34,-33,-32,-31,-30,-30,-30,-30,-32,-33,-33,-33,-33,-33,-33,-33,-33,-32,-32,-32,-32,-33,-34,-34,-35,-36,-36,-35,-35,-33,-32,-30,-29,-28,-27,-26,-26,-25,-24,-23,-23,-23,-25,-28,-31,-33,-35,-37,-40,-42,-44,-45,-44,-42,-39,-35,-32,-30,-27,-25,-23,-21,-20,-19,-19,-20,-21,-23,-26,-28,-30,-32,-34,-37,-40,-41,-39,-33,-26,-19,-13,-7,0,5,11,17,21,24,27,32,37,47,62,73,79,83,88,91,91,85,76,65,57,49,41,33,26,18,10,4,0,-3,-6,-9,-11,-13,-14,-15,-16,-18,-20,-23,-25,-27,-29,-31,-34,-36,-37,-39,-41,-44,-48,-54,-57,-57,-52,-43,-29,16,88,191,326,489,666,839,988,1080,1089,1042,877,631,341,63,-152,-265,-282,-255,-190,-148,-138,-131,-124,-116,-109,-106,-103,-100,-98,-96,-95,-93,-93,-92,-91,-89,-87,-86,-84,-83,-82,-81,-80,-78,-75,-72,-69,-67,-64,-62,-59,-56,-53,-50,-48,-45,-43,-40,-37,-34,-31,-29,-27,-25,-22,-19,-16,-12,-7,-2,3,8,12,16,20,24,30,36,43,50,57,64,72,81,90,98,107,118,134,151,170,187,197,202,207,211,213,209,199,188,178,166,155,145,135,121,103,82,65,51,36,21,12,5,0,-5,-9,-13,-17,-21,-24,-27,-28,-30,-32,-33,-34,-35,-36,-36,-37,-38,-39,-40,-40,-39,-39,-38,-37,-37,-35,-33,-31,-29,-27,-26,-26,-25,-25,-24,-24,-24,-25,-25,-25,-24,-24,-23,-21,-20,-20,-19,-18,-18,-18,-19,-20,-22,-23,-25,-26,-26,-28,-29,-30,-31,-32,-32,-32,-34,-36,-40,-42,-42,-38,-34,-30,-27,-26,-25,-23,-21,-19,-17,-16,-14,-12,-11,-10,-10,-11,-12,-13,-14,-15,-16,-17,-17,-17,-16,-15,-14,-13,-13,-13,-14,-14,-15,-16,-16,-16,-15,-13,-12,-10,-9,-8,-7,-7,-6,-6,-7,-8,-9,-10,-10,-10,-11,-11,-11,-11,-10,-10,-10,-10,-10,-11,-10,-10,-10,-11,-11,-12,-11,-10,-8,-6,-4,-2,0,2,6,8,9,10,10,11,11,12,13,13,13,14,16,20,24,28,32,36,41,49,63,74,82,87,91,94,98,101,104,104,103,101,97,92,86,79,68,46,25,16,11,7,4,2,0,0,-1,-1,-2,-2,-4,-6,-8,-9,-10,-11,-11,-12,-12,-13,-14,-15,-18,-23,-29,-29,-23,-12,18,68,146,256,396,558,734,901,1030,1068,1051,925,695,405,115,-122,-272,-314,-312,-256,-195,-149,-134,-126,-120,-116,-113,-110,-108,-104,-101,-96,-91,-85,-79,-75,-70,-66,-62,-59,-56,-55,-55,-57,-60,-63,-67,-70,-73,-76,-80,-84,-86,-85,-78,-69,-59,-50,-45,-40,-34,-29,-24,-20,-16,-13,-10,-7,-4,-3,-2,-1,-1,-1,0,0,1,4,9,17,27,41,58,80,104,121,134,144,149,150,151,152,153,153,154,154,154,155,155,155,154,153,150,146,142,137,131,122,104,90,75,60,40,25,13,3,-6,-15,-25,-37,-47,-55,-60,-63,-66,-68,-69,-68,-65,-60,-55,-51,-49,-47,-45,-43,-42,-40,-38,-36,-35,-34,-33,-33,-33,-33,-33,-33,-33,-33,-34,-34,-34,-34,-34,-34,-34,-34,-34,-33,-32,-31,-30,-29,-28,-27,-26,-26,-27,-27,-28,-29,-29,-28,-28,-28,-28,-28,-27,-27,-27,-27,-27,-28,-28,-28,-28,-28,-28,-28,-28,-27,-26,-24,-22,-21,-20,-19,-17,-15,-14,-15,-17,-20,-23,-26,-29,-33,-36,-38,-38,-37,-36,-35,-34,-34,-33,-31,-29,-27,-25,-24,-24,-24,-24,-24,-25,-26,-27,-27,-26,-25,-24,-24,-27,-31,-36,-39,-44,-48,-50,-48,-42,-34,-28,-20,-12,-5,0,6,12,17,19,17,10,1,-9,-26,-43,-57,-69,-74,-70,-59,-44,-22,-5,7,22,43,68,81,87,92,96,97,95,92,87,80,69,45,30,21,14,10,7,7,8,9,11,13,16,21,19,1,-11,-22,-32,-38,-42,-45,-48,-51,-54,-57,-59,-60,-60,-59,-56,-52,-48,-44,-39,-34,-28,-22,-16,-10,-1,32,101,204,343,514,700,877,1014,1058,1045,931,723,464,201,-31,-204,-289,-317,-301,-253,-190,-134,-91,-76,-70,-68,-66,-64,-61,-60,-61,-67,-73,-80,-89,-94,-90,-80,-64,-40,-25,-16,-10,-8,-10,-16,-23,-33,-47,-57,-64,-69,-74,-76,-72,-63,-51,-34,-12,-7,-4,-1,0,1,0,-4,-10,-17,-27,-27,-14,4,28,44,55,60,62,64,65,66,68,70,73,77,82,90,103,126,148,173,198,213,216,217,218,219,220,216,207,193,176,151,124,108,98,89,82,76,71,67,65,62,59,53,42,24,0,-26,-40,-49,-55,-58,-55,-47,-40,-37,-35,-32,-30,-27,-23,-21,-19,-18,-18,-18,-18,-18,-18,-19,-19,-20,-19,-18,-18,-18,-18,-17,-17,-16,-16,-16,-17,-17,-17,-16,-15,-15,-15,-16,-16,-17,-17,-17,-17,-18,-19,-20,-20,-20,-20,-21,-23,-24,-25,-26,-27,-27,-27,-27,-26,-25,-24,-22,-22,-22,-22,-23,-23,-23,-22,-22,-22,-22,-22,-21,-21,-22,-22,-24,-25,-27,-29,-30,-30,-30,-30,-30,-30,-30,-29,-29,-29,-30,-31,-32,-33,-35,-36,-37,-39,-39,-40,-41,-41,-41,-42,-42,-43,-43,-43,-44,-44,-45,-46,-48,-47,-44,-40,-37,-36,-35,-34,-33,-32,-32,-31,-31,-31,-31,-31,-32,-32,-32,-32,-32,-32,-32,-32,-32,-32,-32,-31,-30,-29,-27,-25,-23,-20,-17,-15,-12,-9,-7,-1,15,32,40,44,48,51,54,57,60,63,66,68,70,72,73,74,76,77,78,80,81,84,89,93,96,92,82,69,56,38,24,12,6,1,-3,-7,-10,-12,-13,-14,-14,-13,-13,-12,-11,-9,-5,-2,0,3,6,9,14,21,29,38,52,101,199,336,507,694,873,1022,1105,1108,1044,867,620,339,73,-135,-247,-285,-271,-229,-168,-112,-87,-79,-75,-73,-71,-70,-69,-68,-69,-72,-76,-79,-83,-87,-93,-100,-104,-104,-97,-87,-78,-73,-70,-67,-64,-61,-57,-55,-52,-50,-48,-46,-44,-43,-41,-41,-40,-40,-39,-37,-36,-34,-32,-29,-26,-23,-19,-13,-6,1,8,16,23,30,36,42,49,55,60,66,72,80,90,101,112,123,133,141,149,157,165,172,178,184,191,198,203,205,202,196,187,176,161,135,107,88,75,64,53,42,32,22,11,0,-11,-18,-24,-28,-30,-31,-33,-34,-36,-38,-40,-41,-42,-42,-43,-43,-42,-41,-39,-38,-38,-38,-38,-38,-38,-37,-36,-35,-34,-33,-32,-31,-30,-30,-30,-30,-30,-31,-32,-33,-34,-35,-36,-36,-37,-37,-38,-38,-38,-38,-38,-39,-40,-40,-41,-40,-40,-40,-39,-39,-38,-37,-36,-35,-35,-36,-36,-36,-36,-35,-35,-35,-36,-37,-38,-38,-38,-38,-36,-35,-35,-34,-33,-32,-31,-30,-30,-30,-29,-28,-28,-29,-29,-29,-29,-29,-28,-28,-28,-27,-27,-27,-28,-28,-29,-30,-31,-32,-32,-32,-32,-32,-33,-34,-34,-33,-32,-32,-31,-31,-30,-29,-28,-27,-27,-27,-28,-29,-29,-29,-29,-29,-29,-28,-27,-26,-25,-24,-24,-25,-25,-26,-27,-28,-29,-31,-31,-31,-29,-28,-26,-25,-25,-24,-24,-24,-23,-22,-19,-13,-2,10,20,30,39,47,53,56,58,58,58,57,57,57,58,59,60,61,61,62,62,61,59,56,51,45,39,33,27,20,11,-3,-13,-19,-21,-23,-26,-27,-28,-29,-30,-30,-31,-31,-30,-28,-26,-22,-19,-15,-8,-4,-11,-25,-39,-56,-57,-44,-8,68,187,345,531,725,907,1052,1129,1130,1057,865,598,301,25,-183,-273,-304,-275,-226,-174,-149,-136,-127,-119,-113,-107,-102,-96,-92,-88,-86,-84,-83,-82,-82,-81,-79,-77,-75,-73,-71,-70,-69,-69,-68,-67,-66,-64,-61,-58,-54,-50,-46,-42,-38,-35,-32,-29,-27,-24,-21,-18,-14,-10,-6,-2,1,4,6,7,9,11,12,14,16,19,24,31,44,58,71,83,96,108,121,134,147,155,163,169,175,179,182,183,184,185,186,187,188,189,192,193,186,171,157,142,128,114,97,77,55,39,27,16,8,0,-13,-27,-27,-27,-28,-28,-29,-29,-29,-30,-29,-29,-29,-28,-26,-25,-24,-23,-24,-25,-26,-27,-28,-29,-30,-31,-32,-32,-30,-29,-28,-27,-27,-27,-27,-28,-28,-29,-29,-30,-29,-28,-27,-25,-23,-22,-20,-19,-19,-18,-18,-20,-21,-24,-25,-27,-27,-27,-27,-27,-27,-28,-27,-27,-27,-28,-30,-32,-33,-34,-32,-30,-28,-26,-25,-24,-23,-21,-21,-20,-20,-21,-21,-21,-21,-21,-21,-22,-23,-24,-25,-25,-26,-27,-28,-28,-28,-27,-26,-25,-25,-24,-24,-24,-23,-23,-23,-23,-24,-24,-23,-23,-24,-24,-25,-25,-26,-27,-28,-29,-31,-32,-33,-35,-40,-45,-45,-36,-25,-19,-13,-8,-4,0,0,0,0,-2,-5,-8,-10,-13,-17,-20,-22,-22,-19,-13,-6,0,7,15,24,30,34,36,38,40,41,42,43,44,46,47,48,49,49,49,49,47,45,41,37,32,27,23,18,10,-5,-17,-27,-33,-38,-43,-46,-48,-48,-45,-42,-39,-38,-37,-36,-35,-33,-31,-28,-25,-23,-21,-19,-17,-13,-8,-1,32,99,194,317,466,630,793,936,1028,1039,995,840,609,335,63,-155,-269,-307,-289,-236,-169,-134,-111,-98,-88,-78,-70,-60,-47,-39,-35,-33,-33,-32,-32,-31,-31,-30,-29,-28,-26,-24,-23,-22,-22,-22,-22,-21,-21,-20,-20,-19,-18,-16,-14,-11,-9,-7,-5,-3,0,1,3,4,5,5,6,8,11,14,17,20,24,28,31,35,39,43,48,56,73,103,125,151,176,194,209,218,225,231,234,236,233,226,217,208,201,194,187,180,174,170,167,165,164,161,157,148,133,111,84,54,28,6,-14,-32,-44,-50,-53,-55,-57,-58,-59,-59,-59,-59,-58,-57,-55,-52,-49,-46,-44,-41,-38,-35,-31,-28,-26,-25,-25,-27,-30,-33,-37,-42,-50,-55,-53,-47,-30,19,98,210,360,543,745,934,1072,1123,1070,917,686,408,122,-122,-288,-338,-336,-278,-211,-157,-129,-124,-120,-117,-115,-113,-112,-110,-108,-106,-104,-102,-101,-100,-98,-97,-95,-93,-89,-84,-80,-76,-73,-70,-68,-66,-63,-61,-60,-61,-63,-66,-69,-72,-75,-78,-82,-86,-88,-88,-85,-81,-76,-69,-60,-44,-30,-18,-7,-2,0,1,3,4,5,5,6,8,10,13,16,20,23,28,34,42,51,60,69,79,86,88,87,86,84,82,79,73,65,54,40,31,22,13,0,-11,-20,-28,-35,-42,-49,-52,-52,-52,-52,-52,-53,-53,-54,-55,-55,-56,-56,-57,-58,-58,-59,-59,-61,-65,-68,-68,-65,-61,-60,-60,-60,-59,-59,-58,-56,-55,-54,-54,-53,-52,-52,-51,-51,-51,-51,-51,-51,-51,-52,-52,-53,-53,-53,-54,-54,-55,-55,-55,-56,-56,-57,-60,-63,-65,-64,-60,-57,-55,-53,-51,-50,-47,-45,-43,-41,-39,-37,-36,-34,-33,-31,-29,-24,-15,-15,-24,-31,-37,-41,-44,-44,-45,-47,-50,-49,-38,-34,-32,-30,-29,-27,-26,-25,-24,-23,-22,-21,-21,-20,-20,-20,-20,-19,-18,-18,-17,-16,-15,-14,-13,-12,-12,-11,-11,-10,-9,-9,-8,-7,-5,-4,-2,0,1,2,3,4,4,4,4,5,5,7,8,10,16,19,16,9,4,0,-4,-8,-9,-8,-5,-2,0,2,5,9,12,15,17,19,20,22,25,27,29,28,24,20,16,11,4,0,3,8,11,14,17,19,20,19,16,12,7,-2,-14,-18,-21,-24,-26,-26,-24,-19,-13,6,26,32,37,39,41,40,38,34,31,28,24,21,19,21,24,29,34,41,46,52,60,69,81,88,92,96,98,100,101,100,97,93,88,82,73,58,48,36,20,3,-16,-29,-37,-43,-46,-45,-42,-37,-33,-28,-25,-25,-29,-34,-40,-47,-47,-37,-26,-15,-7,-1,2,7,10,15,33,78,161,290,461,660,864,1042,1163,1200,1128,944,674,362,70,-147,-265,-292,-257,-197,-139,-112,-104,-99,-94,-90,-86,-75,-60,-53,-49,-46,-44,-44,-45,-46,-47,-47,-47,-47,-48,-48,-49,-48,-48,-46,-45,-43,-41,-40,-39,-37,-36,-35,-34,-33,-31,-29,-27,-26,-25,-23,-21,-18,-12,-5,2,7,10,13,16,18,21,24,27,30,34,39,50,69,80,87,96,107,115,121,127,133,138,142,146,149,153,156,160,163,166,168,170,173,176,178,179,178,174,169,163,157,147,138,130,121,110,99,85,65,48,38,30,24,19,14,8,2,-5,-10,-15,-19,-23,-26,-30,-33,-35,-38,-41,-44,-46,-46,-45,-44,-43,-42,-41,-40,-39,-38,-36,-35,-34,-34,-34,-34,-34,-34,-35,-35,-36,-37,-37,-37,-36,-36,-36,-36,-36,-36,-36,-36,-36,-36,-37,-37,-37,-37,-38,-39,-40,-40,-41,-40,-40,-40,-40,-40,-40,-40,-40,-40,-42,-44,-45,-45,-44,-42,-40,-39,-37,-36,-35,-34,-33,-32,-31,-31,-30,-29,-29,-29,-28,-27,-27,-27,-28,-30,-33,-35,-37,-38,-41,-43,-46,-49,-52,-55,-62,-71,-77,-79,-78,-75,-69,-61,-42,-26,-14,-14,-22,-28,-32,-36,-40,-41,-41,-38,-35,-32,-28,-24,-20,-18,-19,-21,-23,-25,-26,-27,-29,-30,-31,-32,-32,-32,-32,-32,-32,-30,-29,-26,-24,-22,-20,-16,-7,-5,-8,-12,-16,-14,-2,9,19,31,43,52,60,67,73,76,78,80,81,83,85,87,88,87,82,77,71,65,58,51,44,36,27,17,5,-1,-5,-7,-8,-8,-8,-8,-8,-8,-9,-10,-11,-12,-13,-14,-15,-15,-16,-18,-20,-26,-44,-58,-68,-68,-58,-31,22,106,224,375,550,732,904,1042,1100,1092,993,784,506,207,-58,-250,-326,-332,-286,-218,-163,-143,-135,-132,-129,-127,-123,-119,-113,-109,-106,-104,-103,-101,-100,-98,-96,-93,-90,-87,-84,-82,-79,-76,-74,-71,-67,-57,-49,-43,-39,-35,-33,-30,-28,-25,-22,-19,-16,-13,-10,-7,-5,-3,-1,0,2,5,9,12,16,19,23,29,38,47,53,58,63,69,78,89,101,116,134,141,146,150,154,157,159,161,163,164,165,165,164,164,162,160,158,156,152,148,143,138,129,110,97,86,76,62,42,27,14,3,-4,-10,-15,-24,-35,-44,-48,-51,-54,-56,-57,-58,-58,-57,-56,-54,-51,-46,-41,-35,-30,-26,-22,-20,-18,-16,-15,-14,-13,-12,-11,-10,-9,-8,-7,-7,-8,-8,-9,-10,-11,-12,-12,-12,-13,-12,-12,-11,-10,-9,-9,-9,-9,-10,-11,-12,-13,-14,-15,-17,-18,-19,-19,-19,-19,-20,-21,-23,-24,-26,-28,-30,-32,-33,-34,-34,-34,-33,-32,-31,-31,-30,-30,-29,-29,-29,-30,-30,-31,-31,-31,-31,-31,-31,-30,-30,-30,-29,-28,-28,-27,-27,-26,-24,-22,-20,-19,-17,-16,-16,-15,-14,-13,-12,-10,-9,-6,-3,-3,-7,-12,-15,-17,-19,-21,-22,-24,-25,-27,-29,-31,-32,-32,-33,-33,-34,-34,-34,-32,-31,-29,-28,-27,-27,-26,-25,-23,-21,-19,-17,-15,-11,-5,0,5,10,15,20,25,29,32,36,40,43,46,49,51,53,54,53,52,49,46,41,36,30,25,17,2,-9,-19,-24,-27,-30,-33,-36,-38,-40,-40,-40,-39,-38,-38,-38,-36,-34,-32,-29,-27,-26,-24,-21,-18,-13,-9,-2,6,39,103,192,308,448,598,744,865,942,951,916,783,577,329,83,-116,-247,-281,-278,-223,-157,-117,-107,-100,-96,-92,-88,-82,-77,-71,-67,-63,-60,-58,-56,-55,-54,-53,-52,-51,-49,-48,-46,-45,-43,-42,-41,-40,-38,-37,-37,-37,-36,-35,-34,-33,-31,-29,-27,-25,-22,-20,-18,-16,-14,-12,-10,-7,-5,-3,-1,0,0,2,5,8,11,15,21,37,54,78,108,125,132,138,142,146,150,155,158,162,165,168,172,177,180,182,181,178,173,167,160,152,137,126,118,108,95,78,64,51,41,32,21,9,-9,-17,-22,-27,-31,-34,-37,-39,-40,-41,-40,-40,-40,-39,-38,-37,-36,-34,-33,-32,-31,-28,-22,-23,-34,-41,-46,-50,-54,-57,-60,-64,-70,-79,-80,-73,-68,-64,-60,-58,-57,-59,-61,-65,-69,-74,-83,-89,-86,-77,-66,-54,-47,-43,-40,-37,-35,-36,-39,-44,-48,-53,-58,-60,-58,-55,-51,-50,-48,-46,-44,-42,-40,-38,-35,-33,-31,-28,-26,-24,-23,-21,-19,-17,-14,-11,-9,-8,-10,-13,-17,-23,-29,-35,-44,-53,-56,-52,-45,-37,-29,-19,-12,-10,-9,-8,-7,-7,-6,-5,-5,-5,-5,-5,-6,-6,-7,-9,-11,-12,-13,-12,-12,-11,-10,-9,-9,-8,-8,-8,-8,-8,-9,-9,-8,-8,-8,-7,-7,-6,-6,-6,-8,-10,-13,-14,-13,-10,-8,-7,-7,-6,-5,-2,0,3,5,7,9,12,19,40,55,63,68,72,74,74,72,69,64,57,44,32,26,22,19,16,14,12,10,8,6,4,2,0,-3,-6,-9,-13,-17,-21,-25,-28,-30,-32,-34,-36,-38,-40,-42,-44,-46,-48,-48,-48,-46,-42,-35,-25,7,74,174,311,478,662,838,982,1065,1072,1020,856,614,328,49,-168,-298,-321,-314,-256,-200,-163,-149,-131,-121,-114,-109,-105,-101,-97,-94,-91,-89,-87,-86,-85,-84,-83,-82,-81,-80,-79,-77,-76,-75,-75,-74,-74,-74,-74,-74,-74,-73,-72,-70,-68,-67,-65,-63,-62,-60,-58,-55,-51,-45,-40,-35,-30,-25,-19,-14,-8,-3,1,4,9,15,22,32,44,58,73,85,95,104,113,121,128,132,137,143,150,158,165,170,177,184,190,192,188,179,168,157,147,136,124,114,108,104,99,95,90,84,76,65,52,34,11,2,-2,-5,-7,-10,-11,-12,-13,-13,-12,-12,-10,-8,-6,-3,-1,0,1,2,4,6,8,9,10,10,11,12,14,14,14,13,12,11,10,10,9,8,7,5,4,4,4,4,4,5,5,6,7,8,9,9,10,11,11,13,17,21,24,24,20,12,5,-1,-9,-18,-23,-24,-20,-15,-9,-5,0,6,10,10,7,1,-4,-10,-18,-25,-28,-24,-16,-7,-1,5,13,18,20,17,11,3,-2,-5,-8,-11,-14,-16,-19,-20,-21,-22,-24,-25,-26,-26,-25,-24,-24,-24,-24,-25,-25,-26,-26,-26,-27,-27,-27,-27,-28,-28,-28,-29,-30,-32,-35,-42,-47,-48,-43,-37,-33,-29,-24,-20,-19,-20,-23,-27,-30,-33,-35,-38,-41,-44,-47,-49,-49,-48,-46,-43,-38,-33,-26,-19,-11,2,14,24,29,33,36,39,41,42,43,44,45,44,44,42,39,36,32,27,22,14,-1,-23,-40,-54,-63,-68,-71,-73,-75,-77,-77,-78,-78,-78,-76,-73,-69,-66,-63,-58,-54,-50,-47,-46,-46,-47,-49,-51,-54,-59,-42,8,84,191,331,502,694,882,1037,1100,1092,983,772,508,234,-2,-172,-228,-246,-213,-184,-168,-154,-144,-136,-130,-125,-120,-115,-109,-104,-100,-97,-95,-93,-91,-89,-87,-85,-83,-82,-80,-78,-75,-72,-69,-66,-63,-59,-56,-53,-51,-49,-48,-46,-44,-42,-40,-37,-35,-32,-28,-25,-21,-19,-17,-16,-14,-12,-9,-5,-1,4,15,27,37,46,55,63,71,79,86,94,101,109,121,136,146,153,157,160,162,164,166,167,168,168,168,168,166,163,159,154,149,143,137,129,115,100,86,74,63,53,43,34,25,18,14,11,8,5,1,-1,-5,-8,-10,-13,-15,-17,-19,-20,-20,-21,-22,-24,-26,-27,-29,-30,-31,-32,-33,-33,-32,-32,-31,-30,-29,-28,-28,-28,-29,-31,-32,-32,-31,-29,-28,-27,-27,-27,-27,-28,-28,-30,-33,-36,-39,-41,-42,-44,-46,-51,-63,-68,-69,-70,-71,-73,-75,-76,-74,-70,-66,-62,-61,-60,-58,-56,-55,-54,-55,-55,-56,-56,-56,-56,-56,-57,-56,-56,-55,-55,-54,-53,-52,-50,-47,-45,-42,-40,-38,-35,-33,-31,-30,-29,-27,-25,-23,-20,-18,-16,-15,-13,-11,-10,-9,-9,-9,-10,-11,-11,-12,-12,-12,-11,-9,-8,-6,-5,-4,-3,-2,-2,-1,-2,-2,-2,-2,-2,-2,0,1,5,8,10,11,10,10,9,7,6,4,1,-1,7,24,34,43,50,57,63,69,73,77,80,83,85,89,94,97,98,98,95,90,85,79,72,63,54,44,32,21,11,0,-10,-17,-22,-24,-26,-27,-28,-29,-30,-31,-32,-33,-35,-37,-39,-40,-39,-37,-35,-33,-30,-27,-23,-19,-12,-6,0,39,118,224,364,533,718,892,1029,1079,1069,959,748,471,175,-83,-262,-328,-331,-279,-212,-174,-155,-146,-140,-134,-129,-123,-117,-112,-107,-101,-92,-77,-67,-58,-56,-54,-52,-50,-49,-47,-47,-46,-46,-46,-46,-47,-48,-49,-49,-49,-49,-48,-48,-48,-48,-48,-47,-46,-44,-43,-41,-39,-36,-33,-30,-27,-24,-20,-16,-12,-5,1,9,17,23,28,33,38,43,49,59,77,98,111,119,126,131,136,141,145,149,153,157,161,166,170,172,174,174,173,171,167,163,157,149,133,117,94,70,48,27,8,-15,-31,-40,-45,-48,-49,-49,-49,-50,-52,-54,-55,-55,-50,-44,-41,-38,-36,-33,-30,-28,-26,-25,-25,-25,-24,-24,-23,-21,-18,-15,-19,-27,-31,-35,-38,-42,-44,-45,-45,-44,-43,-40,-38,-36,-33,-30,-26,-24,-21,-19,-17,-16,-15,-15,-17,-19,-21,-23,-25,-28,-30,-33,-35,-38,-40,-45,-51,-57,-61,-60,-57,-51,-45,-33,-18,-19,-19,-18,-17,-17,-21,-27,-31,-36,-40,-43,-43,-42,-41,-39,-38,-37,-36,-36,-35,-34,-33,-33,-32,-32,-32,-31,-30,-28,-27,-26,-25,-24,-23,-22,-20,-18,-16,-12,-8,-4,-3,-6,-11,-16,-20,-25,-30,-33,-34,-34,-32,-29,-25,-19,-19,-27,-32,-37,-40,-40,-37,-30,-22,-11,4,17,24,29,33,36,39,42,46,49,52,54,56,58,61,64,66,66,63,57,51,45,39,32,24,19,17,15,14,13,12,10,7,4,2,-1,-5,-9,-14,-21,-27,-32,-37,-43,-52,-57,-55,-47,-43,-39,-36,-34,-31,-28,-25,-22,-18,-12,-5,23,96,196,317,457,614,778,931,1037,1049,997,813,548,250,-13,-198,-268,-290,-275,-229,-182,-155,-132,-116,-99,-91,-87,-84,-80,-76,-73,-70,-66,-63,-60,-57,-54,-51,-48,-44,-36,-28,-29,-37,-47,-55,-61,-67,-70,-70,-67,-63,-57,-48,-26,-12,-4,1,3,1,-3,-8,-12,-16,-19,-22,-22,-19,-14,-7,5,27,36,40,44,47,49,52,55,58,61,64,68,72,81,96,110,127,152,170,179,186,191,195,198,200,202,204,207,208,205,196,182,159,119,75,43,32,25,20,15,12,8,5,0,-3,-8,-13,-17,-20,-22,-26,-30,-34,-38,-42,-46,-50,-53,-55,-56,-56,-55,-54,-54,-54,-56,-60,-64,-64,-55,-45,-39,-35,-31,-26,-22,-19,-17,-15,-15,-17,-20,-23,-27,-31,-35,-38,-41,-44,-47,-50,-52,-53,-54,-55,-55,-54,-52,-49,-45,-42,-38,-36,-33,-31,-28,-25,-23,-22,-22,-23,-23,-23,-23,-24,-25,-26,-26,-26,-27,-27,-28,-29,-29,-29,-28,-27,-26,-25,-23,-21,-19,-17,-15,-13,-10,-9,-8,-11,-15,-19,-23,-27,-31,-35,-37,-36,-35,-33,-31,-29,-28,-26,-24,-23,-21,-20,-19,-17,-16,-16,-16,-17,-17,-18,-18,-19,-19,-19,-19,-19,-18,-17,-15,-14,-13,-11,-10,-9,-8,-7,-7,-7,-6,-6,-6,-5,-4,-2,0,2,5,8,11,14,17,21,25,28,32,35,39,44,50,56,61,66,70,72,75,77,78,80,81,83,86,89,87,78,65,53,40,29,19,11,7,4,1,0,-1,-1,-2,-3,-4,-5,-7,-8,-10,-11,-10,-9,-7,-5,-3,0,2,7,12,18,25,32,75,158,275,424,599,788,969,1112,1168,1159,1044,811,508,194,-67,-234,-269,-260,-180,-123,-110,-101,-95,-90,-84,-79,-75,-72,-67,-62,-55,-44,-37,-31,-28,-24,-20,-17,-15,-16,-20,-25,-29,-33,-38,-43,-48,-52,-53,-50,-45,-39,-32,-25,-19,-12,-5,1,7,13,18,23,27,31,35,39,43,47,51,56,60,65,69,73,77,82,87,92,97,102,107,112,117,122,128,137,154,175,194,211,218,222,225,227,228,230,231,232,232,231,229,226,220,213,204,191,167,147,130,116,99,77,65,57,50,44,39,35,31,29,27,25,25,23,22,21,20,20,19,19,18,18,17,18,19,20,21,21,22,21,21,20,18,16,13,9,6,3,1,0,-2,-3,-5,-6,-7,-9,-11,-14,-17,-20,-23,-25,-27,-29,-30,-31,-32,-32,-32,-33,-34,-35,-37,-39,-42,-45,-48,-52,-59,-67,-73,-78,-83,-88,-93,-98,-100,-99,-98,-97,-96,-96,-96,-95,-94,-93,-91,-89,-88,-88,-89,-91,-95,-100,-105,-110,-115,-120,-125,-131,-143,-150,-150,-150,-149,-149,-150,-150,-151,-151,-151,-150,-150,-149,-149,-148,-148,-147,-146,-146,-145,-145,-145,-144,-143,-142,-140,-138,-137,-135,-134,-132,-131,-131,-131,-131,-130,-129,-127,-125,-123,-121,-121,-120,-121,-122,-123,-124,-125,-125,-125,-123,-122,-120,-117,-114,-111,-107,-104,-101,-95,-80,-66,-53,-40,-26,-12,2,15,28,37,39,38,37,37,37,37,37,37,37,37,37,37,35,31,27,22,17,12,7,0,-7,-15,-22,-26,-29,-33,-36,-38,-40,-40,-39,-39,-37,-36,-34,-31,-28,-25,-23,-24,-25,-27,-29,-33,-38,-23,24,106,220,366,540,727,909,1058,1134,1135,1062,879,627,344,74,-135,-221,-250,-228,-162,-111,-98,-89,-78,-66,-57,-51,-47,-43,-39,-36,-34,-32,-31,-30,-29,-28,-26,-25,-24,-22,-21,-19,-18,-16,-14,-13,-12,-11,-11,-11,-11,-10,-9,-8,-7,-5,-3,-1,0,2,4,6,8,10,12,14,16,17,19,21,23,26,29,33,39,47,64,79,93,104,111,118,125,133,141,149,157,167,182,192,195,197,198,199,200,202,203,204,203,201,196,190,182,174,165,151,136,122,108,82,47,27,16,7,0,-8,-15,-20,-22,-23,-25,-26,-27,-29,-30,-32,-33,-34,-35,-36,-36,-35,-34,-34,-33,-32,-32,-31,-32,-32,-33,-35,-36,-37,-36,-35,-34,-33,-31,-31,-31,-31,-31,-31,-33,-34,-36,-36,-34,-30,-28,-29,-34,-39,-42,-43,-45,-48,-51,-54,-57,-59,-60,-59,-57,-55,-53,-50,-46,-42,-39,-37,-36,-35,-35,-33,-30,-27,-25,-25,-27,-29,-31,-32,-33,-34,-35,-37,-39,-40,-41,-43,-43,-43,-42,-41,-40,-39,-38,-38,-38,-39,-40,-42,-44,-45,-46,-46,-45,-45,-44,-43,-42,-41,-40,-40,-41,-43,-45,-46,-47,-47,-47,-48,-48,-47,-47,-46,-46,-46,-47,-48,-49,-50,-52,-53,-53,-54,-53,-52,-51,-49,-47,-45,-43,-41,-39,-38,-36,-34,-32,-30,-27,-24,-17,-8,0,11,24,35,42,49,55,62,67,72,75,77,78,78,77,75,72,68,62,56,49,43,36,25,13,4,0,-2,-4,-7,-10,-14,-18,-20,-20,-19,-17,-15,-13,-10,-6,-2,0,-2,-8,-15,-21,-27,-32,-36,-37,-31,-19,-2,27,77,160,274,421,591,764,919,1025,1061,1029,933,713,439,164,-60,-202,-244,-237,-194,-155,-125,-104,-87,-64,-37,-25,-19,-14,-9,-7,-5,-4,-3,-2,-2,-1,0,0,1,6,10,6,-1,-6,-12,-17,-19,-16,-9,-3,-2,-1,0,1,3,5,7,9,10,11,11,12,12,12,11,11,10,10,11,13,15,17,20,22,25,28,32,36,40,47,64,79,91,107,126,151,166,176,184,191,197,203,207,210,213,217,221,227,233,236,235,232,226,219,205,180,154,127,107,95,82,69,58,49,42,36,31,27,22,13,0,-3,-5,-6,-8,-9,-10,-10,-9,-7,-5,-5,-4,-2,0,3,4,4,4,3,2,2,2,0,-1,-4,-5,-6,-7,-7,-7,-7,-6,-5,-4,-3,-3,-4,-5,-5,-6,-6,-7,-8,-9,-10,-11,-11,-12,-13,-14,-15,-17,-19,-20,-21,-23,-25,-27,-29,-31,-34,-36,-39,-40,-42,-42,-41,-40,-39,-38,-36,-34,-32,-29,-27,-25,-23,-19,-14,-11,-12,-16,-23,-29,-34,-39,-44,-49,-53,-53,-51,-48,-44,-39,-35,-29,-23,-18,-15,-15,-17,-20,-23,-27,-34,-40,-41,-36,-30,-24,-18,-12,-10,-11,-16,-21,-25,-31,-37,-41,-42,-41,-39,-36,-33,-29,-25,-24,-28,-32,-36,-39,-43,-44,-39,-30,-20,-14,-8,-3,1,6,11,16,20,25,29,33,37,42,50,57,59,60,60,60,61,61,62,64,64,65,65,65,65,63,60,56,52,46,41,36,30,18,9,1,0,-1,-3,-4,-6,-9,-11,-13,-15,-17,-19,-20,-20,-19,-18,-16,-14,-11,-9,-6,-2,2,7,14,52,124,227,366,538,727,913,1067,1140,1136,1039,821,537,237,-22,-204,-271,-293,-276,-224,-171,-122,-89,-74,-70,-66,-62,-59,-56,-54,-52,-51,-50,-48,-47,-47,-48,-49,-50,-50,-50,-49,-49,-48,-48,-47,-47,-46,-45,-45,-45,-45,-44,-43,-43,-42,-41,-40,-38,-35,-32,-29,-27,-24,-21,-19,-16,-14,-12,-10,-7,-4,-1,3,9,15,21,27,34,41,48,57,66,75,83,92,103,116,128,137,143,147,150,153,155,157,158,158,158,156,153,148,143,136,129,121,105,89,73,47,12,-3,-10,-16,-20,-23,-26,-30,-34,-38,-43,-48,-54,-58,-63,-70,-78,-85,-87,-87,-87,-88,-89,-92,-95,-91,-79,-67,-55,-47,-42,-37,-32,-29,-33,-40,-43,-44,-46,-48,-49,-50,-52,-53,-55,-56,-57,-57,-56,-55,-54,-54,-53,-52,-51,-50,-50,-50,-50,-50,-49,-49,-48,-48,-48,-47,-47,-46,-46,-45,-45,-45,-44,-44,-43,-43,-43,-43,-43,-43,-42,-41,-41,-41,-40,-40,-39,-38,-37,-36,-35,-34,-32,-29,-28,-27,-26,-26,-26,-25,-25,-24,-23,-19,-15,-11,-8,-7,-8,-8,-10,-11,-13,-14,-17,-20,-22,-24,-25,-26,-26,-26,-26,-24,-22,-20,-17,-14,-12,-11,-10,-9,-9,-9,-9,-9,-9,-8,-7,-6,-5,-3,-2,0,0,0,-1,-3,-5,-6,-7,-8,-8,-7,-4,-1,1,5,8,10,13,15,18,20,22,25,29,34,41,47,53,58,62,65,69,72,75,78,80,82,85,87,89,89,85,79,72,64,57,51,44,37,30,24,18,14,11,8,6,4,3,2,1,0,0,-2,-3,-6,-8,-11,-14,-15,-16,-16,-15,-14,-12,-8,-4,1,8,16,26,78,176,315,492,695,899,1070,1162,1167,1096,909,653,370,103,-107,-221,-258,-233,-208,-192,-180,-173,-167,-153,-125,-93,-72,-60,-56,-53,-52,-51,-51,-50,-50,-50,-50,-50,-50,-49,-49,-49,-48,-47,-45,-44,-42,-40,-40,-39,-39,-39,-38,-38,-37,-36,-34,-32,-29,-27,-24,-22,-20,-18,-17,-16,-15,-13,-10,-7,-3,1,6,10,13,17,20,23,26,30,34,41,59,78,99,119,137,145,151,157,162,166,169,171,171,172,171,170,168,165,160,153,146,139,122,87,55,26,5,-10,-23,-30,-36,-40,-44,-47,-51,-54,-57,-60,-63,-65,-68,-73,-78,-81,-83,-82,-80,-77,-74,-72,-70,-68,-65,-62,-59,-56,-55,-53,-52,-51,-50,-49,-48,-47,-46,-43,-40,-38,-36,-35,-35,-35,-36,-36,-37,-39,-42,-45,-47,-48,-49,-51,-55,-60,-64,-65,-62,-56,-47,-31,-13,-8,-4,-1,0,-1,-6,-14,-21,-32,-40,-46,-50,-55,-58,-61,-61,-59,-54,-47,-39,-29,-13,-4,0,4,9,12,6,-3,-10,-16,-21,-26,-28,-27,-23,-18,-11,2,20,29,36,36,25,15,7,0,-9,-17,-23,-31,-37,-41,-39,-34,-26,-16,-3,0,1,3,6,6,1,-1,-4,-6,-8,-9,-9,-9,-8,-7,-6,-4,-3,0,2,4,5,4,2,0,-2,-3,-4,-6,-8,-10,-11,-12,-13,-14,-14,-14,-13,-12,-10,-8,-6,-4,-2,0,2,4,7,13,22,35,44,51,58,64,70,76,80,83,86,89,91,93,95,96,96,96,96,96,95,94,93,91,90,89,87,84,80,75,71,65,60,53,42,25,13,9,7,5,3,0,-1,-3,-5,-7,-7,-7,-7,-6,-4,-1,1,4,7,11,16,21,34,68,128,218,338,483,645,805,941,1032,1043,1008,854,619,334,44,-196,-346,-376,-371,-316,-265,-236,-207,-177,-146,-116,-98,-88,-82,-78,-81,-89,-99,-111,-130,-149,-170,-188,-191,-195,-199,-185,-167,-151,-133,-120,-109,-102,-102,-108,-118,-135,-152,-158,-163,-165,-159,-146,-131,-113,-98,-91,-86,-83,-80,-76,-72,-68,-65,-62,-59,-54,-45,-29,-12,5,22,37,53,70,89,106,121,133,144,158,173,187,194,199,203,206,208,209,210,208,205,201,195,187,178,167,148,131,116,103,93,82,72,64,55,42,24,4,-13,-29,-42,-55,-60,-64,-68,-72,-75,-78,-80,-82,-83,-83,-83,-82,-80,-78,-75,-72,-69,-66,-64,-62,-61,-60,-59,-57,-54,-51,-47,-43,-39,-36,-33,-30,-26,-22,-15,18,112,248,421,615,810,978,1065,1066,983,787,523,238,-21,-221,-329,-365,-351,-306,-239,-171,-141,-129,-123,-119,-115,-112,-108,-104,-100,-97,-94,-91,-90,-90,-90,-90,-89,-89,-88,-87,-86,-85,-84,-82,-80,-78,-76,-74,-72,-70,-68,-67,-66,-65,-64,-62,-59,-56,-53,-49,-45,-41,-37,-34,-30,-28,-26,-23,-21,-17,-13,-7,1,9,16,21,26,32,39,50,63,80,90,97,103,107,111,114,116,118,120,122,123,125,128,133,136,130,117,97,65,46,35,28,21,15,9,3,-1,-6,-10,-13,-17,-20,-23,-26,-29,-31,-35,-39,-41,-41,-35,-26,-17,-12,-7,-2,1,4,8,10,10,9,8,6,4,2,0,-3,-8,-14,-18,-15,-8,0,5,11,17,21,23,23,21,20,19,19,18,17,16,15,14,12,11,11,10,11,12,13,13,14,14,13,13,14,14,14,14,15,16,18,20,22,23,23,24,24,24,24,24,23,23,23,24,26,28,30,31,33,34,35,35,34,33,31,30,29,29,29,29,29,29,30,31,32,32,31,30,30,29,29,28,27,25,24,23,23,22,22,21,21,21,22,22,23,23,23,22,22,22,22,21,20,19,19,19,19,21,22,23,24,25,25,25,25,24,22,21,19,18,17,17,17,16,16,16,16,17,17,17,17,16,16,15,14,12,11,8,6,3,0,-2,-5,-9,-12,-15,-18,-22,-26,-30,-35,-40,-44,-47,-49,-51,-52,-52,-52,-51,-51,-51,-52,-55,-58,-58,-56,-52,-47,-43,-37,-31,-27,-27,-30,-35,-40,-45,-52,-58,-61,-58,-49,-37,-24,-7,2,7,10,14,17,20,22,23,24,24,24,23,20,16,12,6,1,-4,-11,-26,-42,-57,-66,-72,-77,-81,-86,-90,-94,-96,-98,-99,-100,-101,-103,-104,-107,-110,-112,-115,-117,-118,-120,-120,-120,-118,-116,-112,-106,-98,-90,-53,40,174,340,529,717,877,971,980,927,761,528,268,23,-176,-314,-370,-374,-336,-280,-233,-209,-198,-193,-190,-187,-184,-181,-176,-171,-166,-161,-155,-150,-147,-143,-139,-134,-130,-127,-125,-125,-125,-125,-126,-126,-127,-129,-131,-134,-135,-131,-120,-109,-100,-91,-81,-73,-69,-70,-73,-79,-84,-90,-98,-105
