17,19,21,22,25,38,53,59,62,66,69,74,77,71,58,42,22,6,-13,-39,-64,-93,-116,-131,-141,-147,-151,-154,-156,-158,-159,-160,-161,-160,-158,-155,-151,-146,-141,-135,-130,-125,-119,-114,-111,-109,-110,-113,-118,-126,-135,-154,-187,-235,-283,-334,-363,-413,-462,-497,-525,-540,-551,-561,-568,-574,-579,-583,-587,-592,-597,-602,-607,-614,-625,-644,-661,-678,-695,-712,-720,-726,-730,-734,-736,-738,-739,-740,-739,-737,-734,-729,-724,-718,-712,-704,-692,-680,-671,-663,-657,-653,-649,-646,-643,-640,-637,-633,-630,-626,-622,-617,-610,-600,-589,-581,-573,-564,-554,-544,-534,-518,-491,-465,-448,-442,-437,-431,-432,-447,-486,-535,-591,-647,-668,-679,-687,-675,-637,-594,-544,-489,-435,-383,-352,-331,-320,-313,-306,-300,-294,-288,-282,-275,-268,-260,-252,-243,-234,-223,-212,-203,-193,-184,-174,-165,-156,-147,-139,-132,-125,-118,-112,-105,-96,-86,-74,-61,-49,-36,-24,-12,1,18,33,49,65,82,99,116,133,147,158,165,167,168,170,172,173,173,170,161,149,134,111,90,69,48,27,6,-13,-30,-38,-43,-47,-51,-54,-56,-57,-57,-57,-55,-53,-50,-47,-42,-37,-32,-27,-21,-15,-9,-2,2,8,13,18,21,25,28,31,33,36,40,43,47,51,55,58,61,64,66,68,70,72,74,76,77,79,80,81,82,82,82,83,84,84,85,86,88,89,90,91,93,94,96,97,99,100,103,106,110,115,119,123,126,127,126,123,119,113,106,99,91,79,67,59,52,46,41,36,32,29,26,25,25,26,28,32,36,42,48,54,61,72,83,84,79,70,56,29,-2,-28,-45,-58,-57,-39,9,70,140,210,275,336,391,440,458,465,468,470,471,472,473,474,475,475,475,474,472,470,468,465,461,458,455,452,450,447,445,442,439,436,434,433,432,432,433,436,439,443,448,453,459,466,478,490,500,510,518,526,533,538,540,542,543,545,548,551,550,544,533,516,491,467,440,409,378,347,317,289,261,231,203,175,147,127,114,100,83,76,72,69,66,63,62,60,59,58,58,57,57,57,57,57,57,58,58,58,58,58,58,58,57,56,55,54,52,51,49,47,43,40,35,31,27,22,18,13,8,4,0,-4,-8,-13,-18,-23,-28,-32,-37,-41,-46,-51,-57,-63,-68,-73,-77,-81,-83,-85,-86,-87,-88,-89,-90,-90,-90,-91,-93,-94,-96,-97,-99,-101,-103,-105,-108,-112,-116,-122,-132,-143,-153,-163,-171,-178,-185,-190,-195,-198,-200,-201,-200,-197,-193,-188,-183,-176,-169,-161,-147,-135,-135,-140,-150,-183,-245,-320,-401,-478,-538,-560,-560,-537,-470,-378,-289,-222,-193,-183,-178,-175,-171,-168,-164,-160,-156,-151,-146,-140,-131,-117,-104,-92,-87,-84,-81,-78,-76,-75,-73,-72,-70,-68,-65,-64,-62,-60,-58,-56,-53,-50,-46,-40,-29,-18,-8,1,10,19,27,36,45,53,63,74,84,92,99,105,110,115,118,119,118,114,108,99,83,53,23,-8,-43,-77,-108,-142,-166,-180,-190,-198,-204,-208,-210,-213,-215,-217,-219,-220,-221,-221,-222,-222,-221,-220,-219,-217,-214,-210,-206,-202,-197,-185,-157,-126,-92,-53,-14,25,64,102,139,164,181,195,208,217,225,232,237,240,242,243,244,245,252,254,255,255,255,254,253,251,246,241,237,233,230,226,221,217,214,211,210,209,205,201,198,198,200,203,207,209,211,211,214,215,215,211,206,200,197,194,190,179,168,158,148,137,125,113,102,93,83,78,73,67,61,57,55,54,54,55,58,65,75,86,99,109,112,109,97,61,3,-66,-146,-224,-291,-330,-343,-327,-277,-193,-101,-15,49,65,66,66,65,65,65,65,65,65,65,65,64,62,60,59,58,57,57,57,55,54,54,56,60,63,66,68,68,69,71,74,78,84,90,96,100,103,107,113,122,131,140,150,159,171,184,193,201,208,213,218,220,220,219,216,212,206,196,176,155,130,101,72,40,9,-21,-47,-70,-91,-111,-131,-147,-159,-170,-174,-176,-177,-179,-181,-182,-183,-183,-183,-182,-181,-180,-178,-176,-173,-172,-170,-168,-166,-165,-162,-160,-159,-158,-156,-154,-149,-144,-140,-137,-134,-132,-129,-126,-124,-122,-120,-120,-120,-121,-119,-118,-116,-114,-112,-109,-108,-107,-107,-105,-103,-101,-100,-98,-97,-96,-95,-94,-92,-90,-90,-90,-89,-88,-88,-87,-86,-83,-77,-70,-61,-52,-42,-35,-29,-26,-22,-19,-17,-17,-17,-19,-22,-27,-31,-36,-42,-53,-62,-69,-73,-77,-80,-82,-84,-85,-86,-85,-84,-84,-85,-84,-80,-73,-61,-41,-26,-16,-10,-3,-3,-21,-58,-116,-191,-270,-344,-404,-438,-441,-418,-355,-273,-188,-111,-54,-19,-8,-9,-11,-11,-11,-10,-9,-8,-8,-6,-4,-2,0,1,2,2,1,1,1,2,3,5,8,12,15,19,24,31,37,43,50,56,62,68,77,91,103,118,130,138,145,157,172,186,202,214,224,234,241,248,253,256,254,250,244,234,221,208,194,169,141,111,83,55,29,2,-15,-38,-61,-78,-90,-101,-109,-117,-121,-122,-122,-123,-122,-120,-118,-116,-115,-115,-115,-114,-113,-113,-113,-112,-112,-111,-110,-108,-106,-104,-101,-98,-95,-92,-90,-88,-85,-81,-76,-72,-67,-63,-59,-57,-55,-54,-53,-54,-54,-54,-53,-53,-53,-53,-54,-54,-54,-54,-54,-53,-53,-53,-53,-52,-52,-51,-51,-50,-50,-49,-48,-47,-45,-43,-39,-29,-22,-14,-5,9,20,30,35,37,36,36,37,40,42,41,35,26,17,7,1,-1,-4,-6,-7,-9,-9,-8,-7,-5,-3,0,2,6,14,22,33,50,70,88,102,111,107,92,56,4,-64,-144,-227,-298,-342,-347,-329,-266,-181,-92,-13,44,71,79,83,83,83,84,85,87,89,90,90,89,89,90,92,93,94,95,95,96,97,98,99,100,101,103,105,107,110,116,122,128,135,144,153,162,171,180,193,209,223,237,251,263,275,288,303,319,334,349,361,369,372,373,375,378,378,368,353,336,312,286,258,230,200,172,146,121,95,79,61,44,36,34,32,30,29,27,25,26,26,26,27,28,30,32,35,38,41,43,44,46,47,48,49,50,50,50,50,50,50,52,54,57,59,61,63,64,66,68,70,73,76,78,80,80,80,78,76,74,72,69,66,61,55,48,41,29,14,-8,-31,-57,-88,-122,-161,-205,-247,-285,-318,-348,-376,-404,-418,-423,-423,-422,-421,-420,-419,-418,-417,-417,-417,-417,-419,-422,-424,-427,-431,-437,-447,-455,-462,-469,-474,-478,-482,-487,-493,-501,-508,-518,-534,-550,-562,-567,-572,-574,-563,-546,-525,-501,-485,-475,-474,-492,-533,-596,-676,-760,-836,-881,-897,-880,-826,-738,-639,-550,-485,-455,-446,-443,-438,-435,-431,-425,-416,-406,-396,-386,-376,-369,-363,-358,-353,-348,-340,-329,-319,-311,-306,-300,-294,-287,-280,-273,-266,-260,-252,-244,-232,-217,-204,-191,-178,-165,-152,-139,-123,-105,-87,-70,-52,-34,-16,1,18,36,52,63,69,74,77,80,82,80,75,67,54,35,16,-3,-26,-47,-69,-91,-112,-132,-149,-162,-170,-174,-177,-180,-182,-184,-184,-183,-182,-180,-178,-175,-172,-169,-165,-162,-158,-153,-148,-142,-137,-131,-125,-118,-112,-107,-101,-96,-90,-82,-74,-67,-59,-53,-48,-43,-40,-37,-34,-32,-31,-29,-27,-25,-21,-17,-13,-9,-5,-1,0,3,6,9,11,13,14,16,18,19,21,23,24,25,27,28,29,30,32,34,38,44,51,56,62,67,71,76,80,84,86,87,87,86,84,81,76,69,60,45,32,25,20,17,14,13,11,9,6,4,2,0,-3,-6,-6,-1,10,30,58,83,105,123,135,131,115,72,7,-71,-153,-229,-277,-292,-276,-230,-153,-70,2,57,86,94,97,97,97,98,99,102,103,104,107,110,114,118,121,124,128,131,133,133,133,133,134,136,138,140,142,145,148,152,154,156,158,161,165,171,178,184,191,200,210,221,232,244,256,269,282,294,305,311,316,320,325,328,328,322,311,295,274,256,240,212,183,152,123,96,69,40,19,-4,-26,-42,-55,-66,-76,-84,-94,-105,-110,-114,-117,-119,-121,-123,-126,-128,-129,-130,-130,-130,-132,-134,-134,-133,-131,-129,-129,-128,-128,-128,-128,-128,-128,-129,-131,-134,-136,-136,-137,-137,-139,-140,-142,-144,-145,-147,-148,-149,-149,-150,-151,-153,-155,-157,-159,-161,-163,-166,-167,-168,-169,-170,-172,-174,-175,-174,-172,-169,-166,-162,-158,-152,-146,-140,-136,-134,-132,-132,-131,-131,-135,-142,-151,-160,-166,-175,-184,-191,-200,-208,-216,-223,-228,-232,-234,-235,-237,-239,-241,-241,-241,-236,-226,-214,-202,-188,-177,-172,-171,-174,-190,-234,-299,-377,-456,-525,-574,-592,-580,-541,-465,-372,-280,-206,-163,-151,-143,-138,-135,-134,-133,-130,-125,-119,-112,-106,-99,-95,-90,-86,-82,-80,-77,-74,-70,-65,-58,-51,-44,-39,-35,-31,-26,-21,-13,-5,5,19,32,49,71,91,114,133,146,159,173,188,201,214,227,238,251,265,280,289,293,295,294,292,288,284,279,276,275,280,287,296,304,312,320,329,336,339,340,338,335,334,334,333,332,330,328,325,323,322,320,316,313,309,306,303,300,297,295,292,291,290,290,289,287,284,283,280,278,274,269,264,260,257,255,251,249,246,244,239,233,226,220,214,211,207,202,198,195,191,186,181,176,171,165,157,149,142,138,136,134,132,129,126,124,125,128,130,132,134,135,137,139,141,144,146,145,139,130,121,111,102,89,69,51,41,35,29,21,9,0,-5,-8,-10,-11,-13,-15,-16,-17,-19,-23,-22,-11,2,17,26,34,40,33,12,-24,-82,-157,-239,-317,-378,-410,-409,-385,-324,-241,-149,-64,-5,10,13,13,13,15,15,16,15,11,8,5,2,0,-2,-5,-9,-10,-8,-4,1,7,12,19,25,29,34,38,43,50,56,64,73,80,85,91,98,105,116,130,142,154,167,182,199,216,233,249,261,270,280,290,299,305,308,312,314,315,315,310,301,285,261,237,214,192,172,155,137,122,111,105,102,99,96,95,96,99,104,111,117,124,134,142,146,148,153,162,173,185,196,206,215,226,238,249,257,263,269,278,290,304,316,323,330,337,349,363,373,379,383,388,396,406,417,428,435,440,446,452,460,466,473,479,483,488,495,506,518,528,536,541,544,547,550,557,568,580,592,601,611,625,640,660,677,688,695,699,701,704,707,710,710,707,703,700,699,698,697,696,695,695,696,697,698,700,702,704,706,708,709,709,716,733,752,772,792,808,818,826,818,788,737,668,587,504,433,393,380,397,448,535,631,712,745,744,698,620,538,461,402,361,331,313,297,284,275,266,256,248,237,222,203,179,154,130,112,100,93,88,84,74,57,35,1,-32,-68,-107,-149,-191,-220,-228,-227,-224,-220,-215,-208,-194,-174,-156,-138,-123,-108,-91,-69,-40,-16,8,18,-17,-89,-193,-317,-448,-582,-721,-870,-1018,-1138,-1219,-1270,-1309,-1345,-1385,-1428,-1467,-1497,-1512,-1521,-1527,-1531,-1534,-1534,-1530,-1523,-1513,-1502,-1489,-1477,-1466,-1452,-1437,-1426,-1420,-1419,-1418,-1417,-1417,-1416,-1416,-1418,-1421,-1422,-1423,-1423,-1422,-1421,-1420,-1417,-1414,-1409,-1404,-1394,-1374,-1360,-1342,-1319,-1298,-1276,-1254,-1232,-1210,-1190,-1171,-1152,-1131,-1111,-1089,-1066,-1043,-1019,-995,-969,-945,-926,-915,-910,-909,-912,-917,-923,-926,-926,-922,-916,-907,-890,-862,-839,-815,-798,-785,-773,-764,-759,-756,-757,-759,-762,-766,-770,-772,-774,-774,-771,-766,-760,-753,-746,-736,-721,-711,-704,-697,-688,-678,-665,-647,-614,-577,-533,-485,-436,-415,-404,-400,-418,-471,-541,-622,-699,-744,-757,-737,-678,-580,-469,-370,-300,-260,-242,-226,-209,-191,-171,-149,-126,-107,-93,-78,-62,-47,-32,-16,0,15,31,48,64,79,93,105,116,128,139,153,166,179,193,208,224,240,254,266,283,305,325,344,365,387,408,430,452,472,491,512,529,543,560,575,588,596,598,601,603,605,605,601,590,572,548,525,501,476,450,423,399,375,352,334,320,307,301,298,296,294,293,291,291,291,292,293,294,295,296,296,296,297,298,299,300,301,302,302,301,302,303,304,306,308,309,311,312,312,312,311,310,309,307,305,302,297,291,286,281,274,261,248,239,230,220,212,203,193,182,173,165,158,150,143,137,133,130,128,126,123,118,112,108,104,99,95,88,79,68,59,48,33,14,0,-16,-32,-48,-64,-80,-98,-111,-119,-127,-136,-144,-149,-155,-163,-171,-176,-178,-179,-178,-173,-164,-155,-147,-137,-126,-136,-174,-231,-304,-389,-479,-556,-588,-595,-571,-504,-410,-306,-217,-159,-139,-127,-120,-115,-113,-108,-100,-91,-83,-77,-70,-60,-51,-42,-33,-23,-8,9,18,26,32,37,39,41,42,46,47,47,48,49,51,57,69,82,101,129,164,202,241,277,311,341,369,398,420,438,458,478,497,508,516,521,523,524,525,521,512,499,486,469,452,426,394,363,333,304,275,244,212,185,165,151,136,120,102,91,84,78,71,63,56,48,42,37,33,29,26,25,24,27,37,74,134,211,300,391,471,530,563,588,607,632,651,666,678,686,694,701,708,714,718,722,726,731,736,741,744,748,761,785,807,830,854,881,904,924,939,954,961,966,970,974,977,976,975,974,973,973,973,973,972,971,968,964,957,949,942,936,926,908,893,879,864,849,831,812,794,775,758,743,729,715,702,689,678,667,653,632,619,608,597,586,575,570,571,576,580,585,589,586,564,510,437,351,258,164,83,44,34,55,113,196,280,346,364,367,369,371,367,355,341,331,322,313,305,299,295,291,285,277,268,259,252,246,241,237,235,234,232,231,232,232,231,227,220,213,206,199,193,190,189,192,197,202,208,213,218,223,228,233,238,243,249,255,260,261,262,261,259,256,250,244,239,224,194,169,142,111,77,41,7,-23,-51,-75,-96,-113,-126,-139,-149,-156,-162,-170,-178,-185,-189,-192,-193,-196,-198,-200,-201,-201,-202,-202,-203,-205,-206,-207,-205,-204,-204,-204,-204,-204,-204,-204,-204,-205,-205,-205,-205,-205,-208,-211,-215,-218,-222,-226,-230,-233,-235,-235,-236,-237,-237,-239,-242,-245,-247,-248,-249,-250,-253,-255,-255,-253,-250,-245,-240,-236,-234,-229,-219,-209,-201,-191,-181,-170,-163,-157,-149,-141,-135,-133,-134,-139,-144,-148,-154,-162,-171,-183,-194,-199,-199,-198,-198,-201,-206,-209,-209,-207,-200,-193,-189,-188,-190,-187,-173,-155,-129,-99,-74,-61,-62,-89,-150,-230,-320,-411,-492,-550,-568,-555,-516,-429,-324,-228,-157,-132,-132,-129,-126,-122,-118,-117,-119,-120,-121,-121,-121,-121,-122,-122,-122,-123,-125,-124,-122,-118,-112,-108,-106,-106,-102,-96,-90,-86,-81,-77,-73,-69,-62,-56,-47,-36,-23,-12,-2,7,19,34,49,63,76,91,104,116,126,132,134,132,131,133,136,137,136,132,122,102,80,54,25,-3,-30,-55,-76,-94,-111,-130,-146,-161,-180,-188,-194,-198,-201,-200,-200,-199,-198,-197,-197,-195,-192,-190,-187,-187,-187,-187,-184,-179,-171,-164,-158,-154,-152,-149,-146,-146,-147,-144,-141,-141,-141,-140,-141,-140,-139,-134,-130,-127,-127,-126,-126,-125,-125,-125,-125,-124,-123,-123,-123,-125,-124,-124,-123,-121,-117,-115,-114,-114,-117,-120,-122,-122,-118,-110,-102,-93,-79,-68,-64,-60,-54,-48,-47,-48,-52,-56,-61,-63,-64,-67,-75,-88,-100,-106,-111,-113,-115,-115,-115,-113,-110,-111,-115,-121,-126,-127,-125,-122,-119,-110,-84,-56,-31,-12,-7,-17,-55,-118,-195,-278,-362,-435,-474,-487,-466,-403,-309,-207,-121,-65,-40,-35,-30,-26,-24,-23,-20,-17,-14,-12,-11,-12,-14,-14,-10,-5,-1,-1,0,0,1,3,6,7,9,10,13,19,25,32,41,53,64,70,70,70,69,73,82,94,109,126,141,158,171,180,190,199,207,217,226,234,240,244,245,243,238,232,222,203,182,156,128,105,72,41,23,0,-22,-41,-55,-70,-89,-104,-115,-125,-130,-128,-123,-119,-118,-118,-117,-115,-115,-116,-118,-120,-120,-115,-109,-104,-99,-96,-93,-89,-85,-81,-79,-76,-73,-69,-66,-63,-61,-61,-62,-62,-61,-61,-62,-64,-67,-71,-72,-72,-71,-69,-69,-71,-74,-74,-74,-73,-72,-69,-66,-64,-62,-62,-64,-69,-75,-79,-80,-79,-76,-71,-64,-55,-47,-37,-29,-27,-26,-24,-23,-22,-21,-20,-20,-22,-26,-32,-40,-54,-67,-78,-88,-94,-98,-100,-100,-100,-99,-99,-98,-97,-96,-94,-92,-92,-87,-70,-50,-26,-6,8,15,12,-6,-53,-118,-194,-273,-347,-404,-422,-414,-366,-285,-189,-99,-32,5,24,35,41,47,53,58,62,64,64,64,67,72,76,78,79,80,84,87,90,91,93,97,100,104,107,112,117,122,127,131,137,142,146,150,157,167,178,191,207,225,241,254,264,275,289,302,312,324,338,352,363,371,376,378,376,373,368,363,352,333,313,291,266,242,217,196,167,141,124,108,96,84,75,67,61,59,60,59,58,56,55,54,55,57,60,62,65,67,69,71,73,74,74,75,76,78,79,80,81,83,86,89,92,94,94,94,94,95,95,94,94,96,99,101,101,101,98,95,92,90,89,86,83,82,82,82,82,80,79,78,78,78,77,76,76,78,84,90,97,102,108,113,119,125,129,131,133,133,133,132,130,124,115,104,88,77,68,62,55,47,42,39,38,36,34,34,34,25,5,-32,-75,-120,-158,-186,-212,-230,-246,-257,-264,-274,-301,-345,-410,-493,-578,-650,-695,-711,-708,-690,-650,-596,-537,-475,-419,-375,-348,-342,-340,-339,-337,-333,-328,-323,-316,-306,-298,-289,-278,-275,-291,-334,-415,-529,-668,-809,-934,-1029,-1064,-1073,-1074,-1072,-1070,-1068,-1063,-1054,-1037,-1020,-1005,-992,-978,-949,-920,-889,-860,-831,-799,-768,-737,-711,-687,-663,-636,-606,-588,-569,-552,-535,-516,-505,-497,-493,-493,-496,-500,-506,-516,-535,-555,-576,-596,-615,-629,-641,-648,-652,-655,-657,-657,-656,-655,-652,-647,-640,-632,-622,-616,-614,-610,-599,-573,-539,-500,-456,-407,-352,-293,-233,-177,-129,-93,-64,-37,-10,5,20,34,48,65,80,91,102,109,116,126,138,147,152,157,161,166,171,176,180,183,186,190,195,200,203,206,208,209,210,212,212,212,210,210,210,211,213,215,218,224,232,244,253,257,260,263,266,268,267,265,263,263,261,257,251,245,237,227,218,208,199,193,188,186,184,181,178,176,175,175,174,169,163,161,168,181,204,235,265,287,302,313,303,267,200,113,16,-75,-148,-181,-179,-143,-70,17,100,161,186,190,192,193,192,192,192,194,195,196,196,196,197,200,202,203,204,205,205,206,207,208,210,212,213,215,217,219,223,226,229,231,234,237,240,244,249,257,267,278,290,303,315,327,340,354,368,380,387,391,394,397,399,399,399,396,390,382,367,342,319,293,265,240,204,168,143,115,91,70,50,33,15,0,-11,-25,-34,-40,-45,-50,-55,-59,-62,-64,-69,-72,-75,-77,-77,-79,-81,-84,-84,-83,-81,-81,-82,-81,-79,-75,-70,-66,-62,-58,-54,-50,-47,-46,-46,-46,-45,-44,-44,-46,-49,-51,-52,-53,-54,-56,-58,-60,-62,-63,-65,-67,-70,-73,-76,-78,-81,-84,-86,-87,-86,-83,-78,-72,-67,-62,-57,-51,-45,-41,-38,-37,-37,-38,-38,-40,-44,-51,-58,-65,-76,-88,-102,-112,-120,-126,-131,-133,-134,-135,-136,-137,-138,-139,-141,-142,-143,-141,-133,-119,-97,-69,-52,-38,-34,-43,-67,-116,-184,-268,-354,-430,-480,-496,-479,-435,-357,-268,-184,-122,-88,-73,-67,-64,-62,-60,-56,-52,-48,-47,-47,-46,-45,-43,-41,-41,-40,-38,-37,-35,-35,-35,-34,-32,-30,-27,-24,-21,-17,-13,-7,0,9,14,18,23,29,38,47,55,63,74,88,103,118,132,145,156,164,171,176,181,183,184,184,181,178,172,163,148,123,102,79,54,27,-1,-28,-54,-78,-102,-125,-142,-155,-169,-174,-177,-181,-184,-186,-187,-187,-189,-189,-190,-189,-189,-189,-189,-189,-189,-188,-187,-185,-184,-181,-178,-175,-172,-169,-165,-163,-161,-159,-157,-155,-153,-152,-150,-148,-144,-138,-129,-114,-102,-90,-81,-72,-62,-56,-51,-46,-42,-40,-41,-41,-35,-18,3,26,48,69,90,114,140,164,181,192,200,210,221,232,245,257,266,271,274,276,275,275,275,273,268,259,247,231,218,208,199,190,179,171,167,164,161,157,153,150,146,142,136,129,125,127,135,148,167,188,201,211,213,203,169,112,36,-49,-133,-204,-241,-252,-233,-176,-92,-2,75,126,145,152,154,155,155,154,154,153,152,150,148,147,146,145,145,145,145,145,145,144,144,144,146,148,150,152,153,154,155,156,157,157,158,160,162,167,178,187,194,203,215,227,237,245,253,263,275,287,296,303,307,312,316,318,318,314,308,299,284,260,237,216,184,154,122,91,57,34,8,-14,-32,-51,-63,-71,-79,-88,-94,-99,-103,-108,-113,-117,-120,-122,-124,-126,-128,-128,-128,-129,-130,-131,-131,-132,-132,-131,-131,-130,-129,-128,-127,-127,-127,-126,-125,-124,-124,-123,-122,-122,-122,-122,-123,-125,-127,-128,-130,-131,-132,-133,-133,-133,-133,-134,-135,-136,-138,-139,-141,-143,-144,-145,-144,-142,-140,-136,-131,-127,-123,-117,-112,-106,-100,-95,-91,-90,-88,-88,-90,-96,-103,-110,-118,-124,-129,-135,-141,-147,-152,-156,-158,-161,-163,-164,-165,-167,-171,-174,-174,-171,-162,-148,-131,-109,-96,-83,-71,-69,-80,-113,-167,-240,-324,-407,-477,-511,-521,-500,-439,-349,-253,-172,-120,-104,-97,-92,-89,-87,-85,-83,-80,-79,-79,-79,-77,-76,-75,-74,-74,-73,-71,-69,-67,-65,-60,-54,-48,-36,-25
