52,67,85,105,121,129,134,137,139,141,143,145,147,149,151,153,155,159,163,167,173,181,188,198,217,238,248,255,259,258,251,238,218,190,163,135,106,77,55,42,35,31,29,28,26,24,23,21,19,14,9,2,-3,-9,-16,-27,-37,-42,-42,-42,-42,-43,-44,-45,-46,-47,-47,-48,-49,-52,-55,-58,-60,-64,-70,-76,-75,-67,-55,-39,-19,-4,0,3,6,9,11,13,14,15,15,15,14,13,13,12,11,11,11,12,12,13,14,16,18,20,23,27,38,50,63,78,95,114,129,140,151,162,173,181,190,197,202,201,196,188,178,162,136,116,102,86,78,73,69,65,62,60,59,59,59,59,59,59,59,61,62,60,55,47,37,23,6,-3,-10,-16,-20,-24,-28,-32,-36,-41,-45,-49,-53,-57,-61,-65,-67,-68,-68,-66,-63,-59,-53,-46,-32,-10,18,65,129,201,267,301,313,312,299,265,215,154,83,14,-32,-48,-57,-61,-61,-61,-61,-61,-61,-60,-60,-59,-58,-57,-56,-56,-57,-58,-59,-56,-37,-24,-14,-6,-1,1,4,6,9,11,12,13,14,15,17,20,23,27,31,34,37,41,44,49,53,57,62,65,69,73,76,80,82,84,86,88,92,96,102,109,116,122,129,136,143,152,163,172,172,166,158,150,143,135,125,112,88,58,41,32,23,9,-4,-12,-19,-24,-29,-32,-36,-40,-44,-47,-51,-54,-57,-60,-64,-68,-74,-81,-86,-88,-90,-91,-91,-93,-94,-96,-97,-94,-86,-78,-73,-69,-65,-61,-57,-55,-54,-54,-55,-57,-59,-62,-65,-72,-75,-68,-54,-46,-39,-34,-29,-26,-26,-29,-36,-44,-53,-60,-68,-76,-82,-87,-90,-92,-92,-91,-90,-87,-84,-80,-77,-73,-70,-67,-66,-65,-65,-66,-68,-72,-78,-88,-87,-71,-62,-57,-53,-49,-46,-43,-40,-38,-37,-38,-40,-43,-47,-51,-56,-60,-63,-67,-70,-76,-83,-88,-92,-94,-93,-91,-87,-82,-75,-66,-48,-32,5,49,99,151,172,184,191,173,144,113,61,13,-37,-59,-67,-72,-76,-78,-79,-77,-71,-65,-61,-59,-57,-55,-52,-49,-47,-46,-46,-46,-45,-44,-43,-41,-40,-40,-40,-40,-40,-39,-39,-38,-38,-39,-40,-41,-42,-43,-44,-46,-48,-49,-51,-54,-57,-62,-65,-68,-70,-71,-70,-68,-64,-59,-52,-45,-36,-27,-18,-9,0,9,18,27,34,41,47,52,58,65,71,76,76,72,65,56,45,27,6,-14,-36,-57,-79,-99,-114,-121,-125,-130,-134,-136,-137,-138,-137,-136,-135,-134,-134,-133,-132,-131,-130,-129,-127,-126,-125,-123,-121,-117,-114,-110,-106,-103,-101,-99,-96,-93,-89,-85,-80,-75,-69,-64,-60,-56,-53,-50,-48,-47,-47,-46,-44,-42,-40,-38,-36,-34,-32,-30,-27,-26,-25,-25,-25,-24,-23,-23,-22,-22,-22,-22,-20,-18,-16,-13,-11,-7,-4,-1,1,4,8,13,18,24,30,35,39,42,45,48,50,52,54,55,56,57,57,56,53,50,47,43,40,38,37,36,34,33,31,28,25,23,20,18,17,14,11,8,4,-2,-9,-11,-9,-1,10,51,107,175,255,342,417,451,447,389,281,155,42,-39,-81,-97,-97,-82,-60,-30,-6,9,10,0,-10,-19,-24,-17,-3,12,29,39,43,46,49,50,50,47,42,36,32,29,25,21,18,16,15,16,17,19,21,23,25,27,29,30,32,33,34,35,36,37,39,41,42,44,46,49,53,58,68,86,107,117,124,131,137,142,145,147,148,148,148,147,145,141,137,132,127,122,115,100,85,69,44,14,3,-1,-5,-8,-11,-12,-14,-16,-18,-20,-23,-24,-25,-26,-28,-29,-30,-31,-32,-35,-38,-41,-42,-42,-38,-32,-24,-9,10,18,23,28,30,31,30,26,22,17,11,3,4,22,40,60,78,92,104,110,110,110,110,111,111,112,112,113,114,117,121,126,131,137,145,160,164,165,165,165,165,166,166,166,167,169,171,173,174,175,175,176,177,178,180,180,181,182,184,186,189,192,194,195,195,195,194,192,188,184,180,177,173,170,166,162,158,154,150,147,144,140,135,131,127,122,116,111,107,105,106,108,111,116,122,133,154,185,241,327,434,536,590,589,529,399,254,129,77,60,74,91,104,103,87,78,74,70,67,64,62,60,56,52,47,43,39,35,33,30,27,24,22,20,18,17,16,14,11,9,7,5,3,1,0,-1,-2,-2,-3,-4,-5,-7,-10,-15,-20,-22,-19,-14,-8,-3,1,7,13,22,30,35,40,45,50,54,58,61,63,64,64,65,64,63,61,59,56,54,50,47,38,14,-6,-22,-37,-50,-62,-74,-86,-104,-128,-151,-178,-195,-203,-210,-215,-218,-221,-223,-224,-225,-226,-226,-227,-228,-230,-232,-234,-235,-235,-233,-232,-230,-230,-230,-229,-227,-226,-224,-222,-219,-216,-213,-209,-204,-200,-196,-188,-180,-175,-172,-169,-165,-159,-156,-159,-166,-168,-169,-171,-173,-175,-176,-177,-179,-180,-182,-182,-182,-181,-181,-181,-181,-182,-182,-182,-181,-181,-182,-182,-183,-182,-181,-179,-178,-176,-175,-175,-173,-172,-171,-169,-168,-165,-163,-160,-155,-149,-143,-138,-132,-125,-120,-116,-112,-108,-104,-100,-97,-94,-92,-90,-90,-91,-91,-93,-94,-96,-97,-98,-99,-100,-102,-103,-107,-111,-110,-100,-87,-77,-67,-56,-49,-44,-38,-25,1,54,136,239,345,423,431,395,279,140,13,-78,-121,-135,-143,-146,-145,-143,-140,-137,-132,-129,-131,-135,-139,-142,-144,-143,-136,-130,-127,-127,-126,-125,-123,-120,-118,-115,-113,-111,-109,-107,-105,-104,-102,-101,-99,-93,-86,-80,-74,-70,-66,-62,-58,-53,-48,-43,-38,-33,-27,-22,-18,-14,-10,-7,-4,-1,3,8,16,29,45,67,93,110,121,128,132,136,140,143,138,127,114,99,85,74,67,61,53,46,38,28,16,7,0,-7,-16,-24,-28,-31,-34,-36,-37,-38,-39,-40,-41,-42,-43,-42,-42,-42,-42,-43,-44,-43,-41,-38,-34,-30,-28,-25,-21,-17,-15,-14,-14,-15,-16,-16,-17,-18,-19,-21,-23,-24,-24,-24,-24,-22,-19,-17,-14,-12,-10,-7,-5,-4,-4,-7,-11,-15,-19,-23,-27,-32,-35,-36,-34,-30,-24,-18,-13,-5,0,1,2,2,2,1,0,-11,-18,-24,-29,-32,-31,-27,-21,-12,0,9,15,19,23,27,31,36,41,45,49,53,60,66,70,69,64,57,51,47,45,41,37,33,30,27,25,23,21,19,17,16,15,14,13,11,9,7,7,7,7,7,7,9,11,14,17,28,58,104,173,266,373,472,514,506,423,278,128,18,-4,0,50,75,83,65,34,15,8,4,15,22,27,29,32,36,40,44,48,53,60,69,78,87,96,102,107,113,118,123,128,132,135,139,142,146,150,154,157,161,166,172,178,184,188,192,197,204,215,232,243,251,257,262,266,269,273,278,283,289,295,302,313,333,356,380,394,402,408,412,413,413,410,406,400,393,378,354,337,324,311,304,299,294,291,289,289,291,295,299,305,311,322,331,340,349,360,361,356,339,308,272,233,195,173,155,144,134,125,117,111,107,103,98,94,89,79,68,78,107,147,177,189,190,182,160,125,89,56,35,25,21,17,14,11,9,7,5,4,3,1,0,0,0,0,0,0,0,0,0,-1,-1,-3,-4,-6,-6,-7,-7,-8,-11,-13,-15,-20,-29,-36,-42,-47,-53,-58,-64,-72,-81,-73,-68,-64,-61,-59,-57,-57,-58,-59,-60,-62,-64,-67,-72,-77,-85,-94,-102,-113,-121,-127,-138,-151,-159,-165,-164,-154,-148,-142,-138,-134,-132,-130,-128,-126,-123,-119,-115,-110,-91,-53,-2,59,130,201,256,278,247,166,56,-45,-114,-133,-131,-112,-96,-72,-51,-44,-49,-64,-89,-110,-117,-111,-97,-73,-50,-25,-8,12,32,48,60,67,75,88,96,99,102,104,105,107,107,106,104,101,97,94,92,88,85,81,76,71,67,63,60,56,53,50,49,48,47,46,46,45,45,45,46,46,44,46,53,60,65,70,73,75,79,83,73,62,53,47,43,38,31,21,12,5,0,-5,-10,-19,-35,-54,-71,-87,-103,-117,-134,-155,-166,-169,-171,-172,-170,-166,-163,-161,-160,-158,-157,-157,-158,-159,-162,-165,-172,-182,-187,-191,-182,-173,-168,-163,-159,-156,-149,-141,-136,-134,-132,-130,-129,-127,-126,-125,-124,-122,-121,-120,-120,-119,-118,-115,-112,-109,-105,-100,-96,-96,-96,-97,-98,-99,-100,-101,-103,-104,-106,-110,-113,-106,-97,-90,-89,-92,-95,-97,-98,-99,-100,-99,-96,-92,-88,-79,-61,-49,-42,-37,-34,-32,-30,-29,-26,-22,-22,-25,-28,-32,-22,-6,3,5,7,6,1,-4,-10,-19,-30,-44,-59,-68,-71,-74,-75,-72,-64,-52,-38,-26,-15,-8,-4,-2,-3,-6,-10,-15,-5,23,74,145,233,325,402,433,426,361,243,112,9,-25,-26,-13,-6,-19,-36,-49,-42,-21,10,21,24,26,28,31,36,45,59,69,74,79,80,78,73,67,62,55,52,55,60,63,65,67,69,71,71,69,65,61,58,55,52,48,45,42,41,42,43,45,47,51,57,71,85,97,108,120,127,132,136,138,137,134,131,127,122,119,123,130,136,141,145,145,143,138,130,115,97,79,61,43,25,5,-14,-35,-50,-59,-66,-73,-81,-90,-100,-106,-109,-112,-115,-118,-121,-123,-125,-127,-130,-133,-136,-139,-142,-144,-147,-150,-153,-156,-158,-159,-160,-162,-164,-167,-169,-171,-174,-176,-179,-182,-184,-187,-189,-191,-193,-196,-199,-202,-205,-208,-211,-213,-216,-219,-222,-224,-227,-229,-230,-232,-234,-236,-238,-240,-241,-243,-246,-249,-254,-259,-264,-268,-272,-276,-279,-281,-282,-281,-278,-276,-273,-268,-261,-261,-269,-276,-283,-283,-274,-260,-241,-225,-214,-205,-198,-192,-189,-191,-198,-207,-224,-239,-250,-255,-259,-262,-265,-265,-262,-258,-255,-251,-248,-246,-249,-253,-258,-261,-264,-267,-270,-272,-273,-273,-272,-270,-268,-264,-249,-212,-158,-89,-10,68,127,134,115,27,-92,-217,-317,-365,-382,-378,-364,-335,-300,-270,-259,-259,-266,-286,-309,-317,-316,-305,-288,-266,-249,-237,-228,-224,-221,-219,-217,-215,-213,-210,-208,-206,-203,-199,-190,-174,-159,-144,-129,-110,-98,-91,-86,-83,-83,-86,-90,-95,-100,-107,-112,-112,-107,-100,-93,-82,-72,-59,-41,-21,-4,5,14,22,40,67,101,119,128,133,136,140,145,148,151,153,156,159,162,163,163,161,158,154,150,145,140,134,128,123,117,112,105,98,92,87,82,73,56,42,34,25,16,10,4,0,-3,-4,-2,1,8,17,35,63,87,113,139,167,197,225,251,274,289,301,316,332,348,362,377,391,396,400,405,404,392,375,355,326,296,258,241,231,222,222,232,259,293,333,363,372,377,382,385,389,406,466,536,599,623,631,635,635,633,631,630,628,626,626,631,638,643,647,652,655,655,653,650,647,643,639,636,634,634,638,645,654,667,685,698,711,725,738,749,759,763,760,750,737,718,685,650,613,573,547,526,513,508,510,515,531,569,623,701,805,925,1032,1106,1116,1094,1009,910,820,766,746,744,753,759,765,769,768,766,763,761,760,760,759,759,759,759,758,758,758,760,761,764,767,770,774,780,783,777,762,746,725,709,695,682,669,655,648,644,641,639,637,636,635,633,631,628,626,624,622,621,620,618,616,614,611,609,604,600,597,598,602,609,617,633,663,683,696,703,705,707,709,711,709,697,679,660,646,627,609,595,580,568,557,548,541,532,522,511,495,474,438,392,338,286,264,257,274,326,386,442,480,502,524,544,574,598,606,597,582,565,551,534,515,495,478,466,461,457,454,450,449,451,455,458,462,464,464,459,451,439,419,399,379,367,360,355,352,351,354,360,368,382,402,414,423,424,417,406,389,375,365,361,358,355,351,351,357,361,363,366,367,369,371,373,375,378,380,382,384,387,389,391,391,388,383,377,366,346,335,330,326,322,319,317,315,313,311,308,305,300,294,286,276,263,255,234,209,183,156,142,134,127,127,137,165,210,276,349,409,432,424,364,252,125,8,-70,-91,-98,-90,-76,-62,-50,-40,-34,-29,-31,-41,-54,-69,-80,-88,-99,-105,-109,-112,-115,-117,-119,-122,-124,-127,-130,-133,-137,-142,-147,-153,-157,-160,-163,-165,-167,-170,-172,-173,-174,-174,-174,-174,-173,-172,-170,-168,-166,-163,-160,-152,-136,-124,-114,-103,-92,-81,-68,-52,-32,-18,-7,0,6,13,19,24,28,27,15,1,-12,-20,-30,-46,-76,-113,-150,-175,-184,-189,-194,-201,-215,-229,-239,-247,-258,-271,-295,-320,-335,-344,-349,-352,-354,-357,-359,-362,-365,-367,-370,-373,-376,-378,-379,-378,-375,-371,-365,-358,-347,-342,-340,-338,-337,-336,-335,-335,-335,-335,-331,-332,-334,-336,-337,-338,-338,-338,-338,-337,-337,-337,-337,-337,-336,-335,-333,-331,-329,-326,-328,-339,-354,-368,-373,-376,-379,-382,-382,-380,-377,-375,-370,-363,-363,-370,-374,-378,-381,-385,-387,-386,-384,-381,-378,-375,-367,-356,-352,-350,-348,-347,-347,-346,-344,-341,-339,-338,-335,-330,-319,-311,-298,-283,-261,-236,-228,-225,-225,-236,-251,-265,-276,-283,-290,-296,-303,-305,-299,-293,-286,-280,-279,-282,-288,-298,-307,-314,-319,-319,-311,-286,-250,-200,-136,-61,7,41,18,-65,-185,-309,-408,-451,-466,-456,-444,-437,-448,-455,-459,-461,-460,-458,-452,-436,-412,-378,-346,-331,-326,-330,-335,-339,-338,-329,-317,-303,-281,-259,-242,-237,-231,-227,-223,-220,-218,-217,-215,-209,-199,-191,-185,-179,-174,-169,-164,-157,-146,-131,-115,-105,-96,-88,-78,-63,-51,-44,-38,-34,-30,-23,-11,-1,5,13,19,24,31,44,52,55,58,59,61,63,65,66,65,62,57,53,49,45,40,37,33,23,8,-17,-47,-65,-75,-81,-85,-87,-87,-84,-78,-72,-65,-60,-52,-45,-39,-36,-38,-41,-46,-50,-57,-71,-84,-98,-111,-116,-119,-122,-120,-111,-104,-98,-92,-85,-78,-71,-63,-63,-71,-83,-95,-100,-102,-104,-107,-108,-107,-105,-102,-100,-97,-92,-89,-92,-100,-107,-115,-119,-116,-111,-108,-105,-101,-98,-97,-96,-97,-99,-101,-104,-106,-108,-111,-114,-117,-117,-115,-112,-107,-102,-92,-74,-65,-62,-60,-57,-53,-49,-46,-42,-39,-35,-30,-23,-18,-15,-12,-8,-7,-12,-22,-29,-34,-40,-44,-47,-47,-46,-43,-39,-36,-33,-31,-28,-26,-24,-22,-20,-18,-16,-16,-16,-17,-15,-12,-8,11,41,84,144,219,305,394,456,461,419,298,151,19,-63,-77,-65,-21,0,-1,-28,-61,-80,-88,-87,-81,-77,-73,-70,-65,-58,-49,-39,-27,-19,-16,-14,-12,-11,-9,-6,-4,-3,-2,-1,0,1,3,6,11,16,23,32,44,58,65,69,73,77,80,84,87,90,95,99,103,108,117,133,145,153,161,170,180,192,204,211,216,220,223,226,228,231,233,236,238,242,244,244,239,233,223,209,196,180,165,153,141,130,121,110,99,90,82,74,65,56,48,42,37,31,26,20,15,10,4,-1,-6,-11,-15,-18,-20,-22,-24,-26,-29,-31,-33,-34,-34,-34,-33,-32,-31,-29,-28,-27,-27,-27,-26,-24,-22,-20,-18,-17,-15,-14,-13,-12,-12,-14,-15,-17,-18,-20,-22,-25,-28,-36,-49,-54,-56,-59,-60,-61,-60,-58,-55,-52,-50,-48,-45,-42,-39,-39,-41,-44,-48,-51,-53,-55,-57,-60,-62,-64,-64,-64,-63,-62,-60,-57,-53,-48,-41,-29,-16,-11,-8,-6,-3,0,0,1,2,3,4,5,6,5,4,3,1,0,-2,-5,-8,-11,-13,-16,-20,-31,-37,-40,-43,-45,-47,-48,-45,-38,-30,-23,-16,-7,0,5,13,27,52,99,166,253,346,424,440,425,334,202,70,-27,-64,-76,-67,-58,-52,-47,-48,-54,-64,-81,-95,-99,-101,-98,-84,-73,-63,-56,-50,-45,-42,-39,-35,-32,-30,-30,-31,-34,-37,-41,-45,-50,-55,-55,-50,-41,-27,-7,6,17,28,34,38,42,44,46,48,51,54,58,63,68,73,80,88,96,104,110,117,131,152,161,166,171,174,176,176,176,175,175,174,173,173,172,170,167,162,154,145,135,123,112,103,95,84,69,54,46,40,35,31,28,25,23,20,17,15,12,10,7,2,-1,-4,-3,0,5,11,15,19,24,27,29,28,27,25,23,22,20,19,17,17,17,19,23,27,30,33,37,41,46,49,51,52,52,52,52,50,48,45,40,36,37,41,44,46,48,50,51,51,51,50,49,49,49,48,46,45,44,42,41,41,40,40,40,41,42,43,45,47,49,51,53,54,56,58,61,63,66,69,72,76,80,84,88,91,93,93,93,92,91,88,85,82,78,75,71,67,60,53,48,46,44,43,41,39,37,35,33,32,31,30,28,27,24,22,20,17,10,7,10,18,43,84,146,223,308,388,434,436,395,295,170,60,29,20,14,8,3,-2,-14,-36,-47,-53,-57,-60,-61,-62,-62,-63,-63,-62,-59,-55,-51,-46,-39,-26,-13,-7,-4,-2,-1,0,0,0,1,3,4,4,4,4,5,6,7,7,8,8,9,10,12,14,16,17,19,22,26,32,39,45,52,59,65,73,79,85,88,90,91,92,94,95,96,98,98,99,99,98,97,95,91,86,80,67,44,24,4,-14,-33,-48,-60,-73,-82,-88,-93,-98,-103,-109,-118,-129,-130,-129,-129,-128,-128,-128,-128,-129,-129,-130,-130,-131,-131,-132,-132,-132,-132,-131,-131,-131,-130,-129,-128,-126,-124,-121,-119,-116,-113,-108,-102,-98,-95,-96,-98,-101,-107,-118,-134,-141,-147,-150,-144,-134,-128,-122,-116,-112,-109,-108,-109,-111,-113,-116,-120,-126,-130,-129,-125,-123,-121,-119,-117,-117,-118,-120,-123,-125,-128,-132,-136,-137,-134,-129,-123,-116,-108,-101,-96,-93,-90,-86,-83,-79,-76,-72,-69,-66,-63,-61,-58,-56,-54,-53,-52,-51,-50,-51,-53,-56,-60,-63,-67,-70,-73,-79,-86,-92,-95,-94,-93,-91,-90,-89,-88,-87,-85,-83,-81,-79,-77,-75,-73,-71,-68,-54,-12,51,142,256,376,453,457,398,249,73,-78,-161,-173,-149,-99,-85,-80,-77,-77,-79,-83,-88,-94,-101,-104,-100,-91,-87,-84,-81,-78,-76,-74,-72,-70,-67,-64,-62,-60,-58,-56,-54,-51,-48,-46,-44,-42,-39,-37,-34,-32,-30,-28,-25,-23,-20,-17,-14,-11,-7,-3,1,10,26,37,52,73,86,92,97,101,106,111,115,120,125,134,144,155,168,182,185,187,189,191,187,178,163,142,121,96,77,67,59,53,49,46,43,40,38,34,29,23,16,1,-16,-22,-25,-28,-30,-31,-31,-32,-32,-32,-31,-29,-27,-24,-22,-19,-15,-8,-1,4,9,15,22,24,23,22,22,21,20,20,21,22,24,25,26,28,29,31,32,32,32,32,31,28,25,21,17,14,12,10,8,5,3,1,0,-3,-5,-7,-9,-11,-11,-11,-11,-10,-10,-9,-8,-7,-6,-4,-2,0,1,4,6,9,14,20,25,28,31,33,34,37,39,40,38,35,29,23,14,2,-3,-7,-10,-13,-15,-18,-20,-23,-24,-25,-27,-30,-34,-53,-84,-95,-97,-98,-100,-99,-88,-57,-19,28,91,172,266,354,386,374,280,139,0,-98,-121,-129,-117,-102,-89,-77,-61,-38,-11,8,17,24,27,22,11,4,-2,-8,-12,-12,-9,-4,1,5,9,12,16,19,22,26,29,33,37,42,47,48,47,46,43,40,35,43,50,54,57,60,63,65,68,72,77,83,89,98,109,122,130,137,144,157,167,174,181,187,192,198,204,207,202,193,187,182,176,170,164,157,147,132,123,112,98,82,64,43,23,5,-11,-25,-41,-54,-65,-78,-85,-89,-92,-94,-96,-97,-98,-98,-99,-99,-99,-99,-99,-98,-97,-96,-95,-94,-94,-93,-92,-90,-89,-88,-88,-88,-87,-86,-85,-84,-82,-81,-80,-80,-82,-84,-87,-90,-93,-95,-97,-99,-102,-105,-107,-109,-110,-111,-112,-114,-115,-116,-117,-119,-121,-125,-128,-130,-130,-128,-127,-125,-123,-119,-113,-122,-130,-135,-140,-142,-140,-136,-130,-119,-107,-100,-95,-97,-108,-115,-121,-126,-130,-132,-134,-136,-137,-139,-140,-141,-142,-142,-143,-142,-141,-139,-137,-133,-129,-124,-113,-103,-92,-75,-55,-38,-11,24,79,153,233,292,298,273,195,100,6,-63,-97,-109,-114,-114,-105,-95,-88,-81,-75,-69,-64,-59,-54,-48,-40,-34,-33,-37,-42,-48,-57,-57,-48,-41,-35,-30,-24,-18,-13,-8,-3,3,11,18,29,49,69,77,81,86,94,105,119,134,135,136,137,137,137,137,137,138,140,143,146,150,155,166,189,205,214,220,223,225,226,228,231,233,235,236,237,237,235,233,229,224,215,196,176,159,147,140,131,121,104,80,69,64,61,58,55,53,51,49,46,44,42,41,39,38,36,33,27,23,24,32,42,52,64,75,85,90,94,98,100,102,104,105,105,105,104,104,105,105,105,104,103,102,102,102,102,102,102,102,105,110,116,121,127,133,135,133,127,120,113,104,96,89,83,79,74,70,67,65,67,71,78,84,88,93,98,103,107,109,110,111,111,112,115,114,103,92,81,70,60,44,28,22,18,14,9,3,-2,-5,-8,-11,-14,-17,-19,-21,-23,-25,-28,-32,-36,-39,-45,-57,-58,-47,-18,20,75,150,243,339,413,423,403,310,186,56,-46,-103,-125,-137,-146,-154,-158,-157,-154,-150,-147,-155,-164,-172,-170,-158,-150,-144,-138,-135,-133,-135,-138,-142,-147,-153,-163,-179,-195,-211,-226,-235,-240,-245,-248,-250,-248,-242,-235,-227,-218,-208,-199,-193,-189,-185,-182,-180,-179,-177,-176,-174,-172,-171,-169,-168,-166,-163,-159,-151,-129,-111,-100,-91,-83,-77,-71,-67,-68,-76,-88,-101,-116,-127,-136,-147,-160,-173,-186,-200,-214,-233,-259,-289,-319,-343,-361,-377,-387,-393,-399,-405,-411,-417,-423,-432,-446,-459,-471,-481,-490,-498,-504,-510,-514,-518,-518,-515,-509,-502,-495,-484,-474,-462,-453,-444,-437,-430,-426,-421,-416,-408,-405,-409,-422,-456,-501,-545,-590,-618,-649,-674,-691,-702,-689,-667,-640,-617,-603,-595,-591,-587,-583,-580,-580,-585,-595,-611,-640,-670,-701,-736,-763,-783,-805,-826,-850,-870,-885,-898,-912,-925,-935,-942,-949,-953,-948,-939,-929,-918,-919,-937,-955,-972,-978,-980,-982,-985,-975,-943,-892,-828,-768,-724,-711,-703,-696,-691,-686,-679,-668,-654,-618,-566,-495,-415,-327,-230,-134,-47,24,80,129,186,252,325,405,491,581,669,732,753,731,664,541,419,346,321,337,385,450,507,561,619,643,653,660,670,687,738,826,931,1033,1118,1185,1243,1301,1367,1441,1518,1596,1672,1739,1796,1828,1839,1843,1838,1826,1807,1783,1751,1700,1641,1588,1542,1511,1477,1446,1402,1352,1294,1244,1217,1192,1167,1151,1140,1136,1142,1158,1181,1214,1249,1278,1296,1311,1329,1353,1382,1426,1471,1498,1522,1538,1547,1554,1560,1563,1558,1545,1525,1497,1476,1460,1447,1416,1377,1333,1286,1241,1200,1156,1122,1078,1041,990,940,890,840,783,722,661,601,564,526,494,473,457,437,409,370,296,208,136,110,111,131,145,155,166,177,186,199,227,259,274,281,288,298,310,326,357,404,446,483,534,585,638,692,723,773,824,880,935,971,999,1016,1033,1052,1064,1074,1083,1089,1093,1093,1090,1084,1075,1062,1018,957,896,839,802,761,725,709,701,695,691,686,681,676,671,664,654,631,594,538,479,414,343,269,200,136,104,86,75,69,70,81,95,106,118,128,132,130,124,115,100,74,56,45,39,39,44,55,89,132,185,247,316,393,471,518,534,523,488,432,379,355,342,334,325,311,270,226,194,155,122,100,83,67,45,21,0,-21,-38,-50,-59,-66,-71,-75,-78,-81,-84,-87,-90,-94,-98,-103,-108,-107,-100,-90,-77,-60,-47,-29,-6,9,18,28,38,50,69,96,122,147,170,196,211,217,222,225,229,233,237,241,245,251,264,286,322,362,388,417,437,443,448,451,454,456,456,455,452,448,443,436,426,408,393,373,353,337,319,299,283,269,254,247,243,241,239,237,235,233,231,229,227,223,215,194,179,171,165,159,154,150,145,140,134,127,120,115,111,107,104,101,97,94,90,86,83,81,79,77,74,71,68,65,63,62,62,62,64,66,68,70,73,76,79,83,88,94,99,103,105,108,110,112,113,115,118,121,125,129,133,138,146,161,174,183,190,196,203,209,214,218,224,227,221,211,202,192,183,175,162,143,128,117,114,115,116,119,105,90,77,67,60,48,30,18,11,7,7,10,16,34,72,116,140,138,102,27,-71,-178,-274,-343,-380,-392,-400,-405,-414,-428,-444,-461,-475,-486,-496,-504,-510,-517,-526,-541,-559,-574,-589,-607,-618,-625,-629,-626,-623,-620,-618,-616,-616,-620,-626,-634,-649,-676,-696,-710,-716,-720,-722,-724,-726,-727,-729,-728,-724,-719,-712,-701,-681,-665,-655,-653,-651,-650,-650,-651,-658,-666,-671,-676,-682,-687,-690,-690,-689,-689,-688,-687,-685,-683,-681,-680,-682,-686,-694,-716,-751,-790,-819,-832,-849,-872,-901,-931,-958,-977,-992,-1007,-1022,-1035,-1035,-1034,-1034,-1034,-1035,-1035,-1035,-1035,-1035,-1035,-1035,-1035,-1036,-1038,-1041,-1044,-1047,-1050,-1052,-1055,-1058,-1059,-1059,-1056,-1051,-1044,-1037,-1031,-1023,-1005,-1002,-1006,-1014,-1025,-1034,-1042,-1046,-1044,-1036,-1026,-1007,-979,-958,-946,-955,-981,-1021,-1064,-1108,-1153,-1197,-1244,-1295,-1326,-1344,-1353,-1356,-1355,-1354,-1351,-1332,-1294,-1242,-1173,-1099,-1027,-954,-885,-813,-726,-624,-506,-367,-213,-54,105,271,437,596,736,857,960,1041,1094,1133,1170,1214,1264,1303,1316,1314,1301,1282,1270,1265,1261,1251,1227,1189,1150,1121,1107,1099,1082,1063,1043,1039,1049,1079,1122,1168,1200,1225,1241,1247,1239,1222,1202,1186,1203,1258,1348,1456,1557,1637,1693,1712,1731,1737,1705,1640,1556,1464,1383,1354,1353,1360,1367,1371,1363,1334,1291,1241,1190,1145,1097,1041,980,920,871,836,819,782,742,696,639,575,516,461,411,359,313,279,262,241,217,197,184,169,152,133,119,105,101,114,128,145,158,166,174,180,167,137,90,32,-24,-71,-108,-128,-138,-141,-143,-152,-162,-176,-202,-233,-264,-293,-320,-341,-358,-372,-389,-411,-426,-431,-437,-447,-461,-477,-496,-516,-533,-539,-548,-567,-594,-621,-648,-673,-693,-705,-715,-727,-741,-753,-762,-769,-776,-782,-788,-793,-795,-796,-796,-796,-792,-785,-776,-766,-751,-738,-736,-746,-761,-777,-793,-811,-822,-829,-834,-838,-842,-840,-834,-828,-823,-819,-815,-814,-818,-822,-821,-819,-822,-828,-830,-830,-826,-820,-812,-803,-791,-782,-771,-750,-717,-695,-684,-679,-673,-666,-658,-652,-647,-645,-643,-643,-643,-640,-635,-633,-632,-631,-628,-622,-610,-587,-563,-542,-527,-516,-507,-496,-481,-464,-449,-439,-425,-403,-374,-348,-327,-303,-290,-278,-265,-258,-258,-258,-250,-229,-208,-196,-196,-202,-201,-189,-176,-166,-164,-164,-165,-158,-147,-142,-145,-147,-146,-145,-147,-145,-141,-136,-134,-126,-109,-95,-55,0,77,167,264,356,413,421,386,281,147,19,-74,-103,-110,-83,-56,-38,-38,-52,-64,-77,-76,-64,-48,-20,2,14,21,25,29,33,42,57,79,98,111,122,131,135,137,140,147,156,166,180,195,213,234,250,262,270,277,287,298,307,311,313,316,320,326,330,331,327,325,330,344,364,377,383,392,403,416,428,435,437,437,437,439,440,440,442,446,444,434,421,409,402,397,390,377,359,345,337,334,332,327,318,308,300,288,270,251,231,214,200,188,178,168,163,163,164,165,160,149,137,128,125,124,120,115,109,109,114,122,126,123,116,110,109,114,118,112,103,96,95,100,106,108,106,104,105,106,105,99,89,78,70,65,62,61,63,64,61,54,49,44,41,38,36,34,30,30,34,38,38,36,34,30,27,24,21,16,15,16,15,8,2,0,2,9,15,17,15,13,14,18,23,25,24,23,23,24,23,21,20,18,14,9,6,6,9,15,20,20,13,7,7,13,15,14,10,7,5,7,9,6,-6,-18,-25,-28,-32,-37,-42,-44,-41,-32,-20,-11,-5,1,10,27,40,52,78,124,206,304,401,449,462,428,330,195,57,-26,-59,-60,-43,-29,-18,-23,-40,-48,-49,-49,-52,-56,-59,-58,-54,-49,-47,-45,-41,-34,-28,-22,-19,-17,-13,-5,2,8,7,4,2,4,9,11,10,9,9,15,28,44,59,69,77,82,84,86,88,93,102,113,125,139,151,160,168,174,177,179,185,194,207,224,245,261,271,278,283,286,287,288,288,287,285,282,277,272,265,255,239,210,181,159,145,137,131,126,123,120,119,123,130,131,123,110,97,86,77,70,63,57,51,45,41,37,34,32,29,25,22,21,25,33,44,51,52,53,53,50,44,36,26,15,12,9,6,3,0,-2,-4,-6,-9,-11,-13,-14,-14,-14,-13,-12,-11,-10,-9,-9,-10,-9,-9,-8,-7,-6,-5,-3,-2,-2,-1,0,1,4,7,9,9,8,5,2,-1,-8,-14,-15,-12,-8,-5,-1,3,6,7,5,2,-1,-5,-10,-15,-16,-12,-1,7,12,16,20,24,27,30,32,35,37,38,38,38,37,36,34,32,30,27,25,22,19,16,14,12,10,9,8,6,6,4,3,1,0,-2,-3,-4,-3,-3,-1,0,3,8,14,19,24,48,105,200,323,448,546,560,535,410,245,87,-25,-53,-63,-60,-43,-28,-13,-4,1,6,12,16,6,-12,-23,-32,-39,-45,-48,-48,-45,-39,-32,-28,-25,-22,-18,-15,-11,-7,-4,-1,0,1,1,1,1,1,2,4,6,7,9,11,12,12,12,13,13,15,17,20,24,32,51,73,86,94,99,104,110,115,120,125,131,138,145,152,157,161,164,167,171,176,181,182,180,173,164,148,122,101,85,68,57,51,46,41,36,31,26,20,15,9,1,-6,-12,-17,-21,-26,-30,-33,-36,-38,-38,-37,-34,-31,-27,-23,-19,-14,-9,-4,0,3,5,8,11,13,14,14,13,11,10,9,8,6,4,2,1,1,1,1,1,1,2,5,8,12,16,20,28,32,27,18,14,10,7,4,1,0,0,0,0,0,0,1,3,6,8,11,12,13,16,19,23,25,25,23,20,18,16,14,11,8,6,4,6,10,16,23,32,48,64,72,79,84,88,91,92,92,92,93,92,91,89,86,84,83,82,81,78,74,70,67,67,67,68,68,70,74,80,61,47,37,29,24,22,25,29,36,43,54,70,80,93,112,151,221,314,414,490,501,475,365,211,55,-61,-95,-106,-81,-56,-37,-28,-37,-49,-55,-59,-63,-66,-67,-68,-68,-70,-71,-74,-77,-79,-80,-80,-80,-80,-81,-82,-83,-84,-85,-87,-89,-91,-92,-93,-93,-94,-94,-94,-91,-88,-83,-79,-75,-72,-68,-65,-61,-56,-52,-49,-47,-44,-40,-36,-31,-20,2,18,27,33,40,46,50,54,57,62,65,68,69,68,67,65,62,59,54,47,33,15,3,-3,-9,-15,-20,-24,-29,-35,-43,-51,-59,-70,-82,-96,-102,-106,-110,-113,-116,-119,-120,-122,-123,-123,-123,-122,-120,-119,-117,-114,-110,-107,-103,-100,-96,-89,-80,-74,-68,-63,-60,-58,-56,-54,-51,-49,-46,-44,-42,-39,-37,-34,-31,-29,-26,-23,-20,-16,-13,-9,-7,-5,-4,-3,-3,-4,-5,-7,-10,-14,-18,-23,-29,-44,-64,-69,-72,-75,-78,-80,-81,-80,-78,-75,-71,-68,-65,-62,-58,-54,-52,-52,-54,-56,-59,-62,-64,-65,-67,-69,-70,-72,-74,-77,-80,-83,-86,-90,-93,-97,-101,-107,-113,-118,-123,-128,-132,-136,-139,-143,-147,-151,-153,-154,-153,-151,-148,-145,-141,-124,-90,-46,6,67,126,160,159,125,50,-39,-118,-163,-180,-191,-204,-222,-235,-244,-244,-230,-210,-185,-159,-142,-137,-134,-132,-131,-129,-128,-128,-128,-129,-130,-132,-134,-137,-141,-145,-148,-151,-155,-160,-164,-165,-163,-159,-153,-148,-145,-142,-140,-136,-133,-130,-127,-124,-122,-120,-117,-115,-112,-109,-105,-99,-92,-86,-79,-67,-46,-31,-23,-17,-10,-4,2,16,35,53,73,91,105,117,125,132,137,136,130,120,104,80,63,50,38,24,4,-8,-14,-19,-24,-30,-34,-39,-42,-46,-49,-53,-55,-56,-55,-53,-51,-49,-48,-46,-43,-39,-35,-31,-27,-22,-14,-2,6,18,27,30,31,32,33,34,35,35,35,36,36,37,38,39,40,43,44,44,42,40,39,37,37,39,43,49,58,71,76,79,82,84,84,81,76,71,64,54,53,59,64,67,71,75,80,85,89,94,99,105,110,117,133,144,145,146,146,146,146,146,146,147,147,148,148,148,148,147,146,145,143,141,140,138,136,134,131,128,120,98,82,72,67,71,79,93,112,132,148,157,163,171,183,219,292,391,489,550,551,497,368,217,83,-8,-35,-44,-32,2,46,86,101,107,93,71,51,44,41,38,37,36,36,37,38,41,44,49,55,69,90,96,99,101,103,104,105,106,107,108,108,108,108,107,106,106,106,106,106,107,107,108,110,111,112,113,115,118,125,144,157,165,173,181,187,191,195,199,203,206,209,213,218,226,225,215,203,191,185,182,179,176,170,162,154,146,136,124,106,78,55,41,32,27,19,1,-14,-23,-29,-32,-35,-38,-41,-43,-43,-41,-39,-37,-34,-30,-36,-41,-44,-46,-48,-49,-49,-46,-41,-36,-24,-11,-6,-2,-12,-21,-26,-31,-34,-35,-33,-29,-23,-17,-9,4,12,17,20,23,25,25,24,20,15,8,-1,-17,-27,-31,-34,-37,-40,-42,-44,-45,-46,-46,-45,-45,-43,-42,-39,-37,-34,-31,-28,-25,-21,-17,-13,-10,-8,-6,-4,-3,-1,0,2,3,2,0,-3,-8,-13,-15,-18,-21,-23,-25,-27,-28,-30,-32,-33,-34,-35,-35,-35,-35,-35,-36,-36,-37,-38,-41,-42,-42,-36,-25,6,53,120,204,301,402,487,514,501,408,265,126,27,-8,-21,-11,-5,-1,1,3,6,8,10,12,14,15,16,17,17,18,19,20,22,23,23,24,25,27,28,28,26,25,23,21,19,17,14,12,10,9,8,6,3,1,0,-1,-1,0,1,3,4,5,7,9,11,13,15,17,20,23,27,30,33,36,39,45,51,56,58,57,55,52,48,45,42,38,33,26,17,6,-9,-22,-38,-59,-81,-108,-142,-171,-191,-206,-221,-227,-230,-232,-234,-236,-238,-240,-242,-244,-246,-247,-249,-249,-249,-249,-249,-249,-250,-254,-259,-261,-261,-259,-259,-259,-259,-259,-259,-258,-258,-257,-256,-256,-257,-257,-257,-257,-258,-258,-258,-258,-258,-257,-257,-257,-257,-256,-256,-256,-255,-255,-255,-255,-254,-254,-254,-254,-254,-254,-255,-255,-255,-256,-257,-258,-258,-259,-261,-260,-251,-243,-236,-229,-221,-213,-207,-202,-197,-192,-188,-184,-181,-176,-168,-170,-188,-202,-213,-223,-229,-232,-234,-237,-243,-242,-227,-215,-206,-198,-193,-190,-188,-184,-179,-179,-188,-198,-208,-208,-194,-155,-78,29,158,278,340,338,262,109,-67,-219,-299,-307,-272,-207,-162,-146,-145,-153,-160,-167,-153,-139,-129,-122,-121,-122,-124,-127,-131,-119,-103,-89,-73,-57,-43,-32,-26,-22,-18,-15,-13,-10,-8,-5,-1,3,10,22,32,40,46,53,62,71,78,84,90,96,101,106,111,117,122,128,135,142,150,167,195,214,223,230,235,240,244,248,252,256,259,262,264,265,264,262,258,253,247,235,210,192,182,174,167,159,145,122,108,101,96,92,88,83,79,76,74,73,71,70,68,66,64,62,61,59,58,56,56,56,57,59,61,64,65,67,70,72,75,76,77,78,79,82,85,88,91,94,96,99,103,106,108,110,111,113,115,118,121,125,128,130,131,131,132,133,134,134,135,136,135,129,125,122,120,118,117,117,119,121,125,130,140,160,170,174,178,181,184,185,186,186,186,185,184,181,178,173,168,163,157,145,135,125,119,116,113,111,109,108,105,102,99,98,96,94,92,90,88,84,81,80,82,86,94,120,177,264,381,521,656,738,740,672,512,333,183,116,95,83,73,66,61,56,51,48,46,44,43,43,45,46,48,51,54,59,67,71,71,69,68,67,65,63,63,65,68,71,74,79,83,84,84,84,84,84,84,83,83,83,83,83,84,85,87,91,95,101,116,138,159,168,172,175,178,180,181,183,185,187,189,191,192,193,194,196,198,200,204,208,210,209,205,200,191,171,149,124,101,84,77,67,52,31,10,-3,-10,-16,-21,-25,-30,-35,-39,-39,-36,-32,-30,-28,-25,-24,-23,-24,-26,-28,-30,-31,-33,-35,-37,-39,-41,-42,-42,-42,-42,-41,-39,-36,-33,-29,-26,-23,-20,-17,-12,-8,-5,-4,-5,-5,-6,-6,-6,-7,-9,-10,-8,-6,-4,-3,-7,-14,-23,-31,-33,-36,-38,-28,-17,-9,0,7,13,17,20,23,26,30,32,35,38,40,44,47,50,50,48,45,42,38,33,24,15,6,-1,-6,-12,-18,-24,-30,-36,-42,-49,-56,-60,-61,-62,-62,-62,-63,-64,-66,-66,-63,-59,-52,-42,-21,19,89,195,332,481,606,665,630,500,309,104,-69,-153,-181,-165,-151,-140,-133,-129,-128,-126,-125,-124,-123,-121,-121,-120,-120,-121,-121,-122,-124,-126,-129,-133,-136,-140,-149,-148,-134,-122,-110,-102,-97,-91,-83,-76,-72,-69,-66,-65,-64,-63,-62,-61,-60,-59,-59,-58,-58,-58,-57,-55,-54,-51,-45,-44,-47,-52,-48,-17,12,22,29,34,41,56,71,81,82,75,70,67,63,58,51,45,38,32,26,20,17,13,0,-36,-54,-67,-75,-86,-97,-108,-118,-123,-121,-118,-114,-110,-121,-128,-132,-135,-137,-139,-140,-141,-140,-139,-138,-137,-136,-135,-133,-130,-127,-124,-122,-119,-115,-110,-110,-115,-120,-125,-125,-117,-111,-106,-101,-97,-94,-92,-89,-87,-84,-81,-77,-75,-75,-78,-83,-89,-100,-114,-119,-123,-126,-128,-128,-125,-121,-116,-112,-109,-106,-102,-98,-94,-89,-84,-80,-76,-73,-69,-66,-64,-63,-63,-63,-63,-65,-67,-70,-74,-78,-86,-93,-102,-116,-139,-156,-167,-174,-175,-170,-162,-155,-148,-141,-136,-132,-126,-119,-119,-127,-135,-143,-143,-134,-110,-66,2,108,251,411,553,611,601,496,316,113,-61,-166,-178,-183,-184,-183,-180,-176,-168,-152,-137,-125,-114,-97,-82,-76,-72,-72,-78,-83,-87,-90,-91,-89,-85,-78,-57,-22,-7,0,3,6,8,8,4,-1,-10,-29,-46,-52,-57,-43,-28,-16,-5,2,7,11,15,18,22,25,29,31,35,40,49,59,69,81,95,107,116,123,130,137,143,147,151,155,158,159,157,154,148,142,135,124,116,110,99,83,64,42,24,15,7,1,-3,-9,-17,-23,-26,-28,-30,-32,-35,-38,-42,-46,-49,-52,-56,-60,-63,-63,-59,-53,-46,-40,-36,-30,-23,-17,-13,-10,-8,-6,-3,0,3,5,6,7,8,9,9,10,11,13,15,17,18,14,8,2,-2,-6,-10,-14,-18,-21,-22,-22,-20,-17,-13,-8,-3,2,9,16,23,30,37,42,47,51,55,59,61,62,62,61,59,57,54,51,48,46,44,42,40,38,37,36,35,34,33,32,31,32,33,34,35,36,38,40,43,47,50,54,64,90,137,208,313,448,593,708,753,705,576,386,181,20,-38,-58,-48,-40,-36,-32,-27,-20,-14,-9,-4,0,3,7,10,13,16,20,24,27,30,31,32,33,35,37,39,42,44,47,50,53,54,55,55,56,57,59,60,62,64,68,72,77,82,88,93,99,104,110,116,123,130,136,143,149,157,165,175,185,195,202,209,216,222,226,228,228,229,230,232,235,232,217,202,189,179,172,160,138,117,102,92,85,81,77,70,59,48,39,30,21,14,9,6,2,-2,-9,-10,-2,5,13,18,17,14,12,11,11,11,12,12,12,11,11,11,12,12,13,12,11,11,10,9,8,7,6,5,3,2,0,-2,-5,-9,-11,-11,-9,-4,0,6,13,21,31,41,51,60,66,71,77,82,85,88,90,91,90,89,88,87,85,82,79,75,66,39,20,11,5,0,-4,-8,-12,-16,-19,-23,-27,-30,-33,-34,-36,-36,-36,-36,-35,-33,-30,-26,-21,-1,59,144,255,379,490,537,528,442,283,104,-43,-109,-128,-140,-146,-149,-149,-146,-141,-134,-126,-117,-105,-93,-86,-88,-95,-103,-110,-117,-122,-124,-121,-116,-109,-97,-74,-58,-49,-43,-40,-44,-51,-59,-62,-66,-69,-73,-76,-80,-83,-85,-88,-90,-91,-92,-91,-90,-88,-85,-83,-79,-76,-72,-67,-62,-55,-41,-28,-15,-8,-1,4,10,14,15,15,13,10,7,3,0,-3,-9,-15,-22,-29,-36,-42,-50,-58,-64,-73,-102,-137,-154,-165,-172,-182,-195,-200,-203,-207,-210,-212,-214,-214,-215,-216,-217,-218,-219,-220,-220,-219,-220,-222,-223,-225,-226,-227,-229,-231,-233,-235,-237,-239,-242,-247,-251,-255,-257,-258,-258,-257,-255,-252,-250,-246,-242,-238,-234,-229,-224,-218,-213,-206,-196,-188,-184,-181,-174,-159,-144,-137,-132,-127,-123,-121,-119,-118,-117,-115,-114,-113,-111,-110,-109,-106,-103,-99,-96,-94,-92,-90,-88,-86,-83,-80,-77,-75,-72,-69,-67,-66,-65,-63,-59,-55,-36,-1,49,114,194,293,408,523,603,612,577,461,302,137,5,-60,-84,-87,-81,-62,-30,3,25,38,44,48,51,54,59,63,68,71,74,78,81,83,86,87,89,90,90,90,90,89,89,87,86,85,83,81,79,74,71,76,84,89,93,96,99,103,109,115,121,128,136,144,151,158,164,170,176,181,186,191,196,203,217,235,241,245,248,250,250,247,244,239,231,214,197,184,173,164,157,149,141,129,113,101,91,84,76,68,57,48,41,36,31,27,23,17,12,7,3,0,-3,-4,-4,-2,0,1,4,6,2,-5,-12,-19,-24,-26,-27,-29,-31,-32,-29,-23,-19,-16,-13,-10,-7,-5,-2,2,8,0,-15,-26,-30,-33,-35,-36,-35,-33,-29,-23,-12,0,1,3,5,6,8,9,9,10,10,10,9,8,6,4,1,0,-3,-7,-16,-24,-33,-41,-49,-55,-61,-63,-62,-61,-59,-56,-55,-55,-56,-57,-57,-57,-57,-53,-48,-43,-36,-29,-9,16,58,123,214,323,433,516,549,517,425,297,166,58,-14,-54,-77,-94,-106,-107,-102,-85,-55,-31,-22,-18,-20,-24,-29,-33,-36,-35,-30,-24,-21,-19,-17,-16,-14,-12,-11,-10,-9,-9,-10,-10,-10,-11,-14,-16,-18,-19,-20,-25,-24,-13,-6,0,5,10,14,17,20,23,26,30,34,38,42,46,51,58,64,71,83,102,114,120,125,133,140,148,159,173,174,167,155,141,126,114,97,73,42,11,-3,-10,-15,-19,-26,-34,-39,-43,-46,-50,-53,-56,-58,-60,-62,-64,-68,-73,-79,-87,-92,-97,-101,-104,-104,-101,-96,-91,-86,-82,-77,-73,-69,-65,-62,-58,-52,-42,-33,-27,-24,-22,-20,-19,-16,-14,-11,-8,-5,-1,7,27,47,65,80,90,90,91,93,93,87,83,80,78,76,74,72,69,66,63,59,53,43,42,40,39,38,38,39,42,45,46,47,49,51,53,55,58,61,64,68,74,83,90,95,104,119,149,204,288,391,489,543,544,493,380,250,135,53,27,16,16,23,33,48,61,71,71,63,51,39,32,27,28,39,54,73,91,102,107,110,109,103,96,89,94,100,104,104,100,97,95,92,88,82,75,67,57,57,69,77,82,86,90,95,99,103,108,122,135,139,142,144,148,153,160,167,168,164,158,152,161,171,179,180,171,166,162,158,155,152,150,148,145,139,130,122,100,70,37,18,5,-3,-12,-20,-27,-33,-39,-44,-50,-58,-69,-79,-84,-88,-91,-93,-95,-96,-95,-94,-92,-90,-89,-87,-84,-81,-79,-79,-82,-86,-90,-93,-97,-101,-103,-104,-100,-95,-89,-84,-79,-74,-69,-65,-62,-59,-56,-52,-49,-46,-44,-41,-39,-37,-35,-32,-29,-26,-24,-21,-19,-17,-16,-16,-17,-19,-22,-27,-32,-41,-55,-56,-56,-56,-57,-57,-57,-56,-55,-53,-50,-47,-44,-41,-39,-36,-34,-31,-29,-26,-24,-20,-14,10,61,137,228,321,398,436,434,385,280,159,45,-38,-71,-81,-75,-57,-25,4,15,14,2,-6,-14,-21,-23,-22,-18,-14,-9,-3,0,-3,-7,-9,-9,-10,-12,-14,-16,-17,-19,-19,-19,-19,-18,-16,-14,-12,-10,-7,-5,-2,0,3,8,12,16,21,26,31,36,41,46,52,57,63,68,74,80,85,89,95,105,126,141,148,154,159,161,161,159,156,151,145,134,117,106,98,91,84,63,32,16,7,3,0,-1,-3,-4,-7,-11,-14,-17,-20,-23,-26,-30,-34,-37,-39,-40,-41,-43,-47,-52,-57,-63,-70,-80,-80,-73,-69,-66,-63,-59,-55,-52,-48,-46,-43,-40,-36,-34,-32,-32,-33,-34,-35,-37,-38,-40,-41,-43,-45,-46,-46,-46,-44,-42,-38,-34,-29,-24,-19,-13,-8,-4,-1,0,2,4,5,7,9,9,9,6,0,-5,-10,-14,-17,-20,-23,-26,-29,-32,-34,-37,-40,-42,-43,-44,-45,-46,-49,-55,-60,-63,-65,-67,-70,-72,-68,-61,-49,-32,-6,32,90,172,279,399,487,496,447,311,159,22,-78,-114,-127,-113,-89,-74,-71,-70,-69,-69,-69,-68,-67,-66,-64,-63,-59,-55,-70,-82,-90,-97,-101,-103,-101,-99,-97,-95,-94,-92,-91,-89,-87,-85,-83,-80,-77,-73,-70,-68,-66,-63,-60,-56,-51,-46,-41,-38,-35,-32,-30,-27,-25,-22,-19,-16,-12,-8,-3,1,11,29,42,53,63,71,76,80,84,87,88,82,74,68,62,57,50,43,34,16,-7,-25,-38,-51,-63,-73,-82,-91,-98,-104,-109,-115,-120,-124,-126,-129,-131,-133,-135,-136,-137,-137,-136,-137,-137,-136,-135,-132,-130,-129,-128,-127,-125,-123,-121,-120,-121,-124,-127,-130,-133,-138,-147,-148,-139,-132,-126,-119,-111,-101,-85,-61,-38,-19,-6
