221,252,280,307,330,349,341,317,308,302,298,294,289,286,283,280,277,272,265,253,230,217,209,201,195,191,189,190,194,198,205,212,224,245,260,297,345,374,401,421,437,458,477,488,495,479,459,442,426,406,378,328,273,239,212,196,182,171,151,127,105,80,33,-20,-63,-88,-112,-141,-174,-203,-217,-225,-231,-236,-238,-238,-235,-231,-226,-221,-212,-213,-224,-232,-238,-244,-248,-249,-246,-241,-235,-226,-207,-179,-162,-150,-141,-134,-111,-68,-18,34,101,188,284,385,494,610,724,828,912,977,1028,1055,1073,1083,1095,1107,1126,1154,1184,1205,1221,1214,1152,1046,911,756,590,424,269,125,-2,-95,-143,-162,-177,-195,-220,-249,-274,-287,-294,-299,-302,-302,-300,-295,-287,-276,-262,-241,-227,-220,-215,-210,-206,-203,-202,-201,-201,-202,-203,-206,-211,-217,-224,-237,-267,-296,-318,-335,-352,-367,-371,-376,-381,-365,-337,-308,-279,-250,-220,-199,-189,-181,-183,-199,-211,-219,-226,-230,-230,-227,-221,-214,-202,-185,-178,-173,-170,-168,-166,-164,-162,-159,-155,-150,-143,-131,-107,-88,-74,-56,-44,-35,-29,-25,-23,-22,-22,-22,-21,-21,-20,-19,-18,-20,-21,-21,-22,-23,-22,-18,-12,-6,0,11,11,-6,-20,-32,-42,-50,-58,-66,-74,-78,-68,-50,-36,-23,-12,-2,6,14,23,34,44,49,49,47,43,38,33,56,85,108,114,117,120,120,115,102,63,15,-41,-100,-132,-148,-155,-161,-165,-168,-169,-168,-165,-159,-153,-146,-140,-133,-125,-119,-115,-113,-111,-108,-104,-100,-97,-98,-102,-109,-114,-117,-120,-125,-130,-134,-135,-134,-130,-126,-121,-115,-106,-101,-105,-113,-118,-122,-126,-130,-136,-142,-151,-163,-184,-215,-237,-253,-266,-276,-285,-290,-281,-259,-223,-189,-176,-168,-160,-148,-134,-122,-108,-96,-86,-79,-72,-64,-57,-53,-53,-58,-67,-82,-99,-106,-110,-107,-96,-91,-87,-83,-79,-77,-78,-82,-88,-97,-106,-116,-130,-142,-148,-151,-154,-158,-163,-167,-167,-157,-139,-109,-72,-42,-16,7,31,55,81,113,140,163,184,215,258,302,329,352,368,375,379,384,386,380,367,359,354,348,343,337,331,326,319,312,302,285,264,253,246,241,237,234,230,226,222,219,215,211,207,199,183,166,148,133,123,115,107,104,111,124,133,140,146,150,152,152,150,146,139,132,126,119,112,105,98,93,88,82,73,61,47,29,9,-11,-24,-30,-37,-43,-47,-47,-44,-40,-35,-31,-28,-25,-23,-23,-25,-30,-36,-47,-75,-95,-106,-114,-121,-124,-125,-124,-124,-123,-123,-123,-122,-121,-119,-118,-117,-118,-119,-120,-121,-123,-126,-129,-135,-134,-123,-91,-33,58,203,414,690,994,1244,1347,1243,939,520,99,-221,-352,-369,-329,-262,-203,-173,-159,-150,-144,-141,-144,-151,-163,-183,-211,-223,-230,-235,-239,-241,-238,-232,-222,-204,-173,-155,-147,-141,-134,-124,-114,-103,-93,-82,-73,-66,-61,-57,-52,-44,-32,-26,-30,-38,-44,-51,-55,-56,-52,-44,-35,-23,-5,14,37,58,68,75,79,82,88,99,111,122,132,142,149,154,157,160,164,169,175,182,188,196,212,233,264,308,364,419,451,477,497,516,543,566,577,584,587,583,576,568,556,539,514,481,443,412,392,376,355,326,292,269,255,240,225,199,163,137,123,113,107,101,90,67,52,45,41,36,30,25,21,13,-3,-30,-50,-65,-82,-99,-115,-129,-141,-149,-158,-168,-178,-193,-211,-224,-233,-240,-245,-251,-258,-265,-270,-277,-283,-287,-286,-280,-270,-257,-233,-206,-199,-195,-191,-188,-186,-185,-184,-184,-184,-186,-190,-196,-202,-209,-216,-224,-235,-247,-258,-264,-268,-274,-287,-314,-336,-350,-358,-362,-364,-365,-367,-368,-370,-372,-376,-380,-386,-393,-403,-420,-435,-451,-467,-489,-521,-553,-578,-606,-635,-666,-694,-713,-728,-738,-745,-754,-767,-783,-812,-849,-877,-911,-944,-967,-980,-988,-994,-1000,-1002,-1001,-996,-991,-985,-977,-978,-993,-1014,-1047,-1072,-1086,-1096,-1103,-1108,-1116,-1126,-1126,-1110,-1069,-1014,-989,-974,-965,-951,-929,-863,-792,-751,-738,-725,-712,-673,-620,-574,-562,-553,-543,-533,-523,-510,-494,-485,-493,-506,-513,-519,-524,-528,-531,-534,-537,-540,-543,-546,-549,-554,-563,-587,-617,-652,-684,-705,-706,-690,-645,-540,-378,-167,79,331,546,642,635,502,245,-66,-345,-478,-491,-427,-294,-163,-81,-37,33,160,298,399,450,470,489,512,549,594,629,649,663,662,646,636,629,623,616,610,605,599,591,573,540,506,471,432,411,403,397,418,453,486,534,580,633,696,760,819,873,920,938,944,947,948,949,950,952,956,961,967,974,982,993,1003,1010,1016,1029,1056,1093,1124,1143,1156,1172,1191,1247,1300,1344,1369,1392,1418,1465,1520,1545,1555,1560,1564,1567,1568,1566,1561,1553,1544,1532,1509,1480,1440,1401,1350,1287,1201,1108,1029,963,931,920,916,913,911,911,911,910,908,906,903,900,898,896,892,888,881,874,866,845,801,762,721,674,637,616,600,601,621,637,650,663,673,684,724,780,838,897,962,1036,1128,1261,1444,1663,1916,2209,2542,2913,3319,3742,4154,4523,4820,5033,5171,5251,5289,5341,5393,5446,5448,5405,5245,5002,4698,4400,4194,4113,4105,4145,4260,4438,4664,4908,5121,5242,5255,5201,5036,4822,4601,4404,4240,4108,4007,3927,3902,3891,3901,3947,3988,4029,4065,4086,4102,4103,4090,4053,3981,3884,3786,3700,3617,3530,3449,3382,3317,3246,3178,3117,3056,3020,2961,2893,2794,2676,2545,2406,2274,2147,2009,1849,1668,1483,1318,1176,1025,853,676,497,312,144,2,-119,-243,-386,-530,-647,-730,-800,-867,-911,-958,-1012,-1053,-1075,-1090,-1099,-1104,-1109,-1116,-1129,-1152,-1184,-1220,-1276,-1351,-1464,-1606,-1759,-1913,-2056,-2175,-2273,-2374,-2485,-2586,-2670,-2742,-2785,-2829,-2864,-2912,-2984,-3068,-3127,-3165,-3207,-3250,-3276,-3289,-3299,-3307,-3313,-3317,-3324,-3355,-3413,-3476,-3544,-3625,-3708,-3748,-3761,-3730,-3633,-3460,-3221,-2937,-2647,-2422,-2328,-2412,-2683,-3059,-3424,-3711,-3891,-3933,-3924,-3831,-3732,-3669,-3650,-3635,-3624,-3614,-3597,-3578,-3556,-3541,-3530,-3522,-3512,-3503,-3489,-3464,-3426,-3367,-3295,-3220,-3161,-3094,-3048,-2999,-2953,-2910,-2863,-2813,-2762,-2709,-2663,-2595,-2527,-2462,-2398,-2335,-2297,-2265,-2240,-2216,-2192,-2167,-2139,-2110,-2081,-2059,-2030,-1993,-1955,-1915,-1870,-1828,-1795,-1770,-1744,-1711,-1668,-1624,-1581,-1539,-1501,-1467,-1427,-1383,-1333,-1274,-1227,-1163,-1099,-1033,-965,-919,-880,-855,-837,-826,-808,-781,-734,-687,-639,-590,-544,-499,-448,-426,-407,-412,-433,-443,-451,-456,-454,-447,-436,-417,-388,-361,-332,-302,-270,-236,-199,-156,-120,-93,-71,-50,1,63,125,158,184,204,222,236,249,248,241,219,169,143,128,120,118,123,136,152,165,180,190,195,200,205,211,215,221,230,238,246,265,303,324,336,344,351,359,365,365,360,349,334,305,261,250,242,235,231,228,223,212,203,203,209,219,234,222,195,160,132,112,92,73,55,48,43,39,41,55,76,106,121,126,129,130,133,140,146,150,154,157,161,173,200,230,258,277,291,301,305,303,296,286,269,239,209,173,135,105,92,83,75,71,69,66,65,68,73,82,90,95,99,103,105,110,126,173,251,350,450,550,644,722,786,811,830,836,804,747,668,580,496,425,365,330,294,265,238,202,163,123,97,88,83,77,70,60,41,16,2,-8,-19,-27,-36,-48,-63,-48,-27,4,46,81,112,134,145,154,153,134,114,94,81,81,92,128,213,339,508,708,925,1125,1223,1214,1057,727,334,-27,-269,-331,-332,-237,-158,-134,-147,-154,-158,-162,-165,-158,-143,-120,-88,-56,-21,11,41,57,66,76,85,93,102,115,136,159,169,179,193,206,213,221,229,234,233,230,226,223,219,219,220,220,218,209,203,198,194,191,193,202,214,225,236,246,263,275,286,307,333,347,352,358,367,373,383,420,476,537,586,616,644,675,705,731,757,776,792,805,815,832,861,896,926,943,952,956,955,944,926,907,883,862,832,791,748,705,678,666,653,637,621,593,550,512,483,467,445,417,369,299,226,196,180,175,175,177,178,177,178,183,190,196,199,201,204,207,210,211,212,212,213,212,210,209,208,206,204,202,200,199,197,194,191,188,184,180,172,161,148,132,119,108,98,86,75,66,54,28,-17,-48,-65,-78,-89,-100,-114,-132,-146,-155,-161,-165,-168,-167,-160,-150,-138,-127,-109,-99,-106,-126,-157,-202,-227,-239,-249,-258,-265,-270,-274,-277,-280,-285,-292,-295,-287,-268,-240,-196,-156,-129,-109,-94,-83,-73,-61,-48,-33,-14,14,47,65,76,86,94,101,105,105,104,100,95,87,78,68,57,39,23,11,0,-14,-22,-9,12,22,28,34,40,46,52,58,63,67,69,70,70,70,68,66,63,61,57,53,49,45,40,35,29,22,9,-4,-17,-27,-39,-66,-95,-109,-119,-119,-104,-67,-4,104,268,483,732,992,1223,1324,1310,1137,796,392,29,-204,-245,-232,-132,-76,-62,-49,-35,-18,15,52,76,89,67,30,1,-10,-18,-15,3,21,36,45,50,53,55,58,61,63,65,66,66,64,61,54,47,39,30,20,8,-12,-25,-34,-40,-44,-48,-50,-53,-53,-52,-49,-43,-37,-31,-25,-21,-15,-9,-4,1,7,13,18,25,34,46,72,115,142,163,184,214,243,260,272,273,265,255,247,276,298,311,322,329,332,329,322,310,292,259,190,124,78,55,36,16,-22,-44,-55,-63,-70,-77,-83,-90,-96,-101,-107,-112,-117,-123,-132,-142,-152,-162,-171,-178,-185,-191,-196,-199,-200,-198,-198,-197,-195,-192,-188,-182,-175,-167,-154,-143,-142,-147,-152,-155,-158,-161,-165,-168,-171,-173,-175,-176,-176,-174,-170,-165,-160,-155,-152,-148,-143,-138,-133,-128,-124,-121,-118,-114,-109,-106,-105,-107,-110,-113,-117,-121,-124,-129,-134,-138,-140,-140,-140,-140,-141,-142,-143,-144,-144,-145,-146,-147,-147,-144,-140,-135,-129,-119,-116,-117,-117,-118,-118,-119,-119,-118,-115,-113,-112,-110,-106,-101,-96,-92,-89,-87,-84,-81,-78,-75,-73,-72,-70,-67,-62,-57,-52,-47,-42,-37,-32,-27,-24,-23,-23,-23,-23,-22,-20,-18,-16,-13,-8,-3,2,7,12,16,19,22,25,30,39,50,59,62,61,58,55,52,49,43,36,36,47,61,72,83,92,97,97,94,92,91,90,88,84,80,78,81,90,102,112,118,126,134,142,149,155,158,158,157,156,153,148,141,131,119,97,58,28,10,34,105,251,457,709,974,1212,1374,1391,1310,1024,632,235,-63,-168,-172,-83,25,56,67,49,6,-13,-31,-46,-60,-77,-102,-132,-159,-183,-205,-226,-244,-263,-271,-261,-239,-218,-195,-173,-152,-126,-99,-93,-88,-85,-82,-76,-62,-47,-39,-32,-26,-22,-18,-16,-13,-9,-4,1,5,9,13,17,21,27,32,39,52,67,82,98,114,127,139,151,162,172,181,188,195,203,213,223,233,244,254,263,269,276,282,288,293,296,299,301,302,300,298,294,288,281,272,261,238,185,140,107,74,41,9,-27,-55,-77,-99,-120,-142,-182,-239,-285,-319,-359,-377,-387,-396,-403,-410,-416,-420,-424,-426,-427,-427,-426,-424,-421,-417,-410,-403,-394,-386,-379,-372,-362,-342,-318,-296,-276,-257,-240,-222,-205,-186,-166,-149,-141,-134,-125,-116,-107,-99,-92,-88,-86,-86,-86,-88,-94,-102,-112,-121,-130,-139,-148,-159,-183,-202,-209,-215,-222,-230,-238,-244,-243,-238,-230,-222,-211,-202,-201,-210,-221,-230,-239,-247,-250,-244,-230,-211,-187,-149,-113,-85,-63,-43,-27,-13,6,32,68,97,117,133,147,158,163,168,171,174,177,179,182,184,186,188,191,194,196,198,201,204,208,214,222,230,239,250,268,287,302,315,324,329,332,335,337,339,340,341,342,344,346,348,349,350,350,349,349,348,347,345,341,337,333,329,326,322,318,314,310,307,304,300,295,286,275,264,253,243,233,222,211,201,190,181,172,163,156,151,148,146,144,142,138,134,124,125,148,212,310,444,623,850,1094,1308,1382,1356,1143,775,345,-24,-201,-220,-137,4,89,119,113,71,50,36,24,15,9,6,5,5,6,7,10,12,15,19,23,28,32,35,36,37,37,37,35,32,28,23,19,14,10,8,5,1,-3,-6,-9,-9,-6,-1,5,12,16,21,26,31,37,42,47,52,56,60,63,68,73,82,93,122,182,214,230,243,255,269,285,301,315,325,335,344,353,361,368,373,376,379,379,378,376,372,367,360,350,337,323,290,227,172,109,52,10,-40,-60,-71,-80,-87,-92,-95,-97,-99,-101,-103,-104,-105,-105,-105,-106,-107,-107,-109,-110,-112,-114,-116,-119,-122,-125,-128,-131,-135,-139,-144,-149,-154,-160,-165,-171,-177,-183,-189,-194,-197,-197,-195,-191,-185,-179,-172,-167,-163,-159,-156,-153,-150,-146,-141,-136,-128,-118,-108,-100,-93,-87,-83,-81,-81,-81,-80,-79,-75,-63,-66,-104,-165,-208,-214,-217,-220,-224,-228,-234,-242,-251,-260,-271,-283,-294,-304,-318,-334,-344,-344,-337,-324,-308,-286,-252,-228,-217,-209,-201,-196,-192,-191,-194,-199,-205,-211,-215,-218,-223,-230,-238,-244,-250,-253,-255,-256,-254,-249,-239,-227,-214,-201,-189,-178,-170,-164,-160,-158,-157,-155,-154,-151,-148,-145,-142,-140,-137,-134,-131,-130,-130,-130,-131,-131,-130,-128,-125,-122,-120,-116,-112,-108,-105,-101,-97,-91,-84,-77,-68,-59,-51,-44,-39,-34,-30,-27,-25,-23,-22,-20,-17,-11,-4,2,7,7,1,-9,-22,-35,-45,-56,-68,-79,-88,-95,-99,-101,-100,-97,-91,-82,-70,-56,-38,32,140,285,481,720,968,1154,1220,1154,945,558,139,-200,-311,-348,-303,-168,-114,-107,-104,-101,-97,-94,-91,-89,-82,-77,-74,-71,-71,-75,-79,-82,-83,-84,-85,-86,-86,-86,-84,-82,-80,-78,-76,-73,-71,-69,-68,-67,-68,-68,-65,-58,-50,-42,-36,-30,-24,-18,-12,-7,-2,1,4,8,12,17,22,29,36,43,51,62,78,97,116,133,149,166,184,205,225,244,262,280,300,324,349,373,394,410,424,437,448,455,455,447,432,413,392,366,324,293,271,248,225,199,168,141,116,92,69,49,33,21,11,1,-8,-19,-29,-38,-45,-53,-62,-73,-83,-88,-87,-80,-72,-64,-59,-57,-54,-50,-44,-40,-37,-36,-36,-34,-32,-30,-28,-28,-29,-29,-29,-26,-24,-24,-26,-29,-32,-35,-37,-38,-39,-40,-41,-42,-43,-42,-42,-42,-44,-48,-53,-57,-58,-55,-49,-40,-32,-27,-21,-14,-7,0,6,11,15,16,18,19,20,20,18,17,16,16,20,28,26,1,-10,-15,-19,-23,-27,-32,-38,-45,-52,-57,-61,-64,-65,-67,-68,-68,-68,-69,-69,-71,-73,-77,-82,-88,-93,-97,-100,-100,-100,-98,-94,-90,-86,-82,-77,-73,-71,-69,-67,-66,-64,-62,-57,-50,-43,-38,-37,-39,-44,-50,-55,-58,-60,-64,-68,-73,-78,-83,-87,-89,-90,-88,-85,-80,-72,-64,-55,-48,-39,-31,-23,-16,-11,-6,0,5,11,17,23,27,30,31,31,29,26,22,18,14,11,7,5,3,1,0,-1,-3,-6,-11,-15,-18,-20,-21,-23,-23,-23,-24,-26,-29,-32,-43,-62,-38,36,161,342,572,829,1085,1296,1384,1370,1200,878,498,143,-131,-241,-279,-243,-128,-3,70,97,93,48,-6,-53,-49,-45,-43,-42,-41,-40,-40,-41,-42,-42,-43,-43,-42,-41,-41,-42,-44,-46,-48,-50,-51,-52,-51,-51,-50,-48,-47,-45,-43,-40,-37,-34,-30,-25,-20,-14,-7,3,16,31,44,56,67,78,90,101,114,128,141,153,165,179,194,211,228,245,262,277,291,306,323,342,361,382,405,436,461,477,489,502,518,526,515,495,479,464,450,436,426,414,391,347,296,246,207,176,146,108,69,51,42,36,31,28,25,23,22,20,16,11,9,9,13,19,26,33,43,48,39,19,-1,-27,-29,-11,-3,0,3,6,9,12,14,17,21,25,29,33,37,39,40,41,44,49,55,61,65,64,61,56,51,46,40,32,22,13,7,2,0,-4,-9,-15,-19,-23,-26,-29,-33,-36,-39,-42,-46,-52,-63,-73,-74,-61,-44,-33,-22,-12,-4,0,-2,-6,-14,-25,-47,-82,-104,-120,-128,-127,-122,-109,-123,-150,-157,-163,-169,-173,-175,-175,-177,-179,-181,-183,-185,-186,-186,-188,-191,-194,-197,-197,-197,-196,-196,-197,-198,-198,-199,-200,-201,-203,-206,-208,-209,-209,-210,-211,-213,-213,-211,-208,-204,-201,-200,-200,-200,-200,-198,-197,-196,-196,-196,-195,-194,-191,-188,-186,-186,-187,-188,-188,-189,-190,-192,-194,-197,-199,-200,-202,-205,-215,-224,-227,-223,-218,-213,-209,-206,-206,-207,-211,-218,-225,-233,-249,-248,-220,-138,-24,138,354,614,885,1108,1173,1142,911,537,96,-308,-565,-635,-545,-373,-219,-156,-134,-136,-161,-200,-240,-261,-276,-283,-270,-245,-230,-219,-211,-203,-195,-188,-181,-175,-169,-163,-157,-151,-144,-138,-132,-127,-122,-117,-111,-104,-97,-91,-85,-80,-75,-70,-64,-58,-53,-48,-43,-38,-33,-28,-24,-20,-15,-9,-2,4,12,20,29,40,53,71,97,121,142,167,198,229,261,293,325,352,375,401,430,446,459,469,478,484,489,491,491,488,484,479,473,463,451,425,366,300,237,200,179,161,142,126,111,92,69,47,25,-2,-33,-51,-64,-76,-81,-65,-38,-27,-21,-16,-11,-7,-4,0,3,7,9,10,10,10,9,8,9,10,11,11,12,13,15,17,19,20,21,22,24,27,30,33,37,40,43,46,49,52,54,56,57,60,62,63,65,65,64,62,61,60,59,57,55,52,49,45,41,38,30,22,21,28,40,50,63,72,71,51,28,15,4,-6,-18,-27,-32,-32,-29,-26,-22,-20,-19,-18,-14,-9,-3,0,2,1,0,-1,-5,-11,-19,-27,-35,-39,-42,-44,-46,-48,-52,-56,-60,-63,-66,-70,-75,-80,-82,-82,-80,-76,-72,-69,-66,-62,-59,-55,-51,-50,-49,-49,-49,-49,-48,-47,-46,-45,-44,-44,-45,-47,-49,-53,-57,-59,-61,-61,-62,-64,-66,-67,-68,-68,-67,-66,-66,-66,-66,-65,-63,-62,-61,-62,-63,-65,-67,-68,-69,-72,-74,-76,-76,-76,-76,-77,-79,-81,-83,-85,-86,-90,-87,-66,-52,-41,-31,-25,-22,-27,-37,-49,-61,-71,-83,-97,-108,-113,-111,-102,-82,-52,51,219,446,713,977,1179,1232,1204,1005,677,311,-9,-191,-250,-221,-134,-58,-29,-32,-56,-77,-98,-108,-100,-83,-72,-63,-55,-50,-46,-44,-44,-43,-43,-44,-45,-47,-49,-49,-49,-47,-45,-43,-42,-42,-42,-43,-44,-46,-48,-50,-51,-51,-48,-44,-39,-33,-27,-22,-16,-11,-6,-1,2,6,12,18,25,32,40,48,58,72,95,121,151,187,228,262,281,294,305,314,321,329,338,347,355,361,367,372,379,386,392,398,402,405,406,405,403,398,391,379,365,347,312,243,179,120,65,2,-38,-63,-80,-86,-82,-72,-62,-56,-50,-43,-37,-33,-32,-35,-40,-45,-50,-54,-56,-60,-64,-68,-70,-72,-74,-77,-79,-80,-81,-81,-81,-82,-83,-85,-88,-89,-89,-90,-91,-91,-91,-91,-90,-89,-88,-89,-92,-94,-96,-98,-101,-103,-106,-108,-110,-111,-111,-109,-109,-110,-112,-114,-117,-120,-122,-124,-126,-127,-128,-128,-126,-124,-121,-118,-114,-109,-105,-103,-101,-100,-99,-99,-98,-96,-94,-92,-86,-80,-76,-81,-93,-107,-119,-134,-148,-155,-152,-142,-130,-117,-101,-88,-89,-100,-112,-118,-121,-124,-126,-129,-132,-135,-137,-138,-138,-138,-137,-134,-130,-125,-119,-112,-105,-90,-82,-85,-91,-95,-99,-103,-105,-105,-99,-86,-73,-63,-60,-57,-53,-48,-43,-39,-36,-33,-29,-25,-21,-19,-17,-17,-17,-17,-17,-18,-18,-18,-18,-17,-15,-12,-10,-9,-9,-11,-13,-16,-19,-22,-26,-30,-33,-36,-37,-39,-42,-45,-52,-59,-65,-71,-77,-81,-83,-82,-79,-72,-61,-47,-31,0,64,176,310,477,675,881,1058,1148,1143,1024,753,411,94,-92,-153,-118,-57,-24,-15,-10,-32,-46,-53,-59,-63,-64,-63,-60,-57,-54,-51,-45,-37,-26,-12,0,6,5,0,-5,-9,-12,-15,-18,-22,-25,-27,-29,-32,-35,-37,-36,-33,-28,-22,-16,-11,-7,-3,0,3,5,7,9,13,19,25,32,40,47,54,59,65,72,80,90,116,178,209,222,231,239,247,257,270,282,294,305,316,329,347,373,396,410,422,437,454,463,450,419,383,339,311,274,225,181,149,122,95,67,33,-12,-65,-84,-90,-95,-101,-106,-110,-114,-117,-120,-123,-125,-126,-126,-126,-125,-125,-126,-126,-127,-128,-129,-129,-128,-125,-121,-115,-109,-103,-98,-93,-88,-85,-82,-81,-80,-78,-76,-74,-71,-69,-65,-61,-56,-51,-46,-43,-42,-41,-41,-41,-40,-40,-39,-38,-36,-33,-30,-28,-27,-25,-21,-14,-7,-2,0,-1,-5,-9,-13,-15,-19,-24,-30,-34,-36,-37,-37,-36,-33,-29,-23,-16,-9,-2,3,7,11,15,19,22,24,23,20,15,8,1,-5,-10,-17,-23,-29,-34,-36,-35,-30,-23,-15,-8,-2,1,6,11,17,23,29,35,40,45,50,53,53,52,50,48,47,47,47,47,49,51,54,56,58,55,50,42,32,22,7,-7,-14,-10,0,11,19,27,35,43,50,56,60,64,67,69,70,70,71,73,75,80,84,86,84,75,61,44,23,-11,-53,-88,-119,-135,-139,-141,-143,-147,-142,-111,-93,-79,-66,-57,-51,-51,-53,-56,-61,-66,-73,-85,-93,-85,-59,14,136,303,512,749,981,1133,1147,1052,769,395,25,-254,-350,-381,-324,-224,-171,-162,-156,-160,-179,-191,-198,-204,-206,-207,-208,-209,-209,-209,-205,-198,-190,-182,-176,-171,-163,-154,-146,-141,-143,-150,-159,-165,-169,-173,-180,-187,-194,-200,-204,-208,-212,-216,-218,-219,-217,-212,-208,-204,-200,-197,-192,-187,-183,-179,-176,-171,-164,-156,-147,-138,-129,-121,-114,-107,-99,-90,-79,-60,-22,20,58,91,117,139,156,172,185,196,204,210,217,224,230,234,237,236,229,216,200,182,158,120,84,51,10,-36,-76,-115,-154,-195,-231,-260,-282,-299,-312,-323,-333,-338,-337,-329,-315,-299,-284,-266,-244,-220,-193,-158,-113,-78,-50,-25,1,32,51,66,79,90,100,108,116,123,130,135,139,142,145,148,150,152,155,158,161,162,163,163,162,162,160,159,157,156,154,153,152,150,148,147,146,145,144,143,141,139,137,136,136,136,135,133,132,131,129,125,120,115,110,107,104,101,94,69,52,42,36,30,25,20,16,16,19,25,31,36,39,42,45,49,51,52,51,48,44,39,35,29,24,19,15,11,7,4,1,0,0,-1,0,2,5,10,14,19,23,27,31,38,45,47,37,19,0,-10,-20,-28,-36,-42,-47,-49,-48,-43,-37,-31,-24,-18,-12,-6,0,9,17,25,32,37,41,44,47,48,48,48,48,48,51,54,58,61,64,66,67,67,63,56,46,33,20,8,-3,-15,-33,-52,-68,-74,-71,-63,-53,-43,-35,-24,-12,-3,-2,-7,-17,-29,-41,-60,-71,-61,-35,38,177,386,651,929,1171,1255,1232,1020,643,214,-162,-368,-394,-318,-167,-89,-62,-108,-187,-232,-244,-254,-250,-218,-168,-115,-83,-61,-65,-100,-130,-156,-174,-183,-190,-202,-215,-178,-114,-77,-68,-62,-58,-59,-72,-90,-112,-141,-161,-177,-191,-199,-191,-168,-133,-75,-42,-25,-12,-3,2,3,0,-7,-17,-28,-40,-57,-71,-72,-57,-36,-18,1,23,46,72,107,150,185,213,237,264,295,313,325,336,345,351,356,359,361,360,356,350,342,333,321,308,293,267,239,214,186,149,103,62,27,0,-30,-63,-80,-93,-104,-115,-123,-129,-132,-133,-132,-128,-122,-114,-106,-96,-86,-76,-67,-58,-50,-41,-33,-24,-15,-7,-1,4,11,20,31,49,88,131,190,255,355,471,551,646,730,807,885,925,944,959,969,977,982,985,985,982,975,964,951,933,909,812,633,404,157,-64,-195,-241,-265,-269,-259,-243,-225,-202,-190,-205,-234,-251,-265,-276,-285,-290,-291,-288,-285,-280,-276,-273,-269,-262,-254,-245,-237,-230,-224,-218,-214,-211,-208,-207,-207,-207,-206,-205,-203,-201,-199,-197,-195,-192,-188,-183,-179,-176,-173,-170,-166,-163,-159,-155,-151,-147,-143,-137,-131,-123,-115,-106,-97,-88,-79,-68,-57,-46,-36,-26,-16,-4,10,25,39,49,54,59,63,67,70,71,72,72,74,76,78,80,81,80,79,77,76,74,70,66,62,58,55,53,51,49,46,45,44,42,40,36,32,30,29,30,32,35,37,40,45,51,58,65,69,73,78,85,91,96,97,90,78,64,53,46,40,34,27,21,16,11,7,4,1,-2,-6,-10,-14,-16,-19,-21,-24,-27,-29,-30,-30,-29,-29,-30,-31,-33,-35,-37,-41,-46,-50,-54,-57,-59,-59,-59,-59,-58,-57,-57,-58,-60,-63,-67,-70,-73,-74,-76,-77,-78,-78,-77,-74,-72,-70,-67,-65,-62,-56,-52,-63,-83,-94,-102,-109,-114,-119,-123,-126,-129,-129,-128,-126,-121,-116,-111,-105,-98,-93,-89,-86,-84,-82,-82,-82,-81,-80,-78,-77,-76,-76,-76,-78,-78,-78,-77,-76,-76,-75,-74,-72,-71,-68,-66,-65,-64,-63,-61,-59,-57,-57,-57,-57,-57,-56,-54,-53,-53,-54,-54,-54,-53,-53,-53,-54,-54,-54,-51,-47,-44,-40,-37,-35,-32,-29,-26,-24,-23,-21,-18,-14,-9,-3,1,6,10,14,16,17,16,14,12,11,11,10,9,9,10,12,15,17,18,18,17,18,19,20,21,21,21,22,24,29,34,39,44,49,54,59,64,68,70,72,73,75,78,81,83,86,88,92,96,101,105,107,107,106,104,103,101,98,94,90,85,80,76,73,71,68,66,63,62,60,58,56,53,49,44,39,34,28,22,17,12,8,5,5,4,3,0,-3,-9,-15,-22,-30,-38,-45,-51,-55,-55,-53,-50,-45,-39,-31,-22,-11,1,14,48,120,231,362,533,751,992,1211,1323,1316,1163,845,464,113,-122,-182,-166,-77,-29,-12,-4,1,8,17,28,43,41,18,8,3,-2,-8,-13,-17,-20,-24,-27,-29,-30,-29,-28,-26,-24,-22,-20,-20,-20,-22,-23,-25,-25,-24,-23,-21,-19,-17,-14,-11,-8,-7,-6,-6,-6,-6,-5,-4,-2,0,3,6,11,18,25,32,41,51,62,75,90,110,142,169,193,218,242,267,291,312,330,349,372,394,413,430,445,457,465,470,475,482,492,498,489,474,461,451,440,426,410,390,361,323,298,267,223,185,156,121,105,97,90,84,80,76,73,71,69,66,64,61,57,55,53,52,50,48,47,46,46,46,45,44,42,39,38,36,35,32,28,24,22,20,19,18,16,13,10,6,2,-3,-11,-20,-29,-37,-46,-57,-70,-86,-110,-133,-156,-176,-198,-209,-209,-210,-211,-212,-214,-216,-217,-218,-219,-220,-222,-225,-227,-229,-231,-233,-239,-246,-252,-252,-248,-241,-236,-234,-231,-228,-224,-220,-217,-215,-214,-215,-216,-218,-221,-226,-232,-237,-242,-247,-257,-264,-264,-253,-237,-224,-210,-197,-188,-181,-174,-167,-161,-156,-151,-148,-143,-138,-133,-127,-121,-116,-109,-102,-97,-93,-91,-91,-92,-94,-95,-98,-102,-106,-104,-89,-69,-54,-40,-25,-13,-2,7,16,21,26,32,36,40,42,41,39,35,31,27,24,22,20,18,17,17,17,16,15,14,13,12,11,11,11,10,9,8,9,10,11,11,11,10,8,7,5,1,-2,-7,-13,-19,-28,-39,-60,-103,-132,-147,-157,-163,-166,-169,-172,-174,-177,-180,-182,-180,-166,-138,-55,71,237,437,660,889,1092,1184,1168,996,645,236,-125,-319,-383,-337,-284,-241,-235,-248,-263,-275,-250,-210,-163,-125,-100,-79,-62,-51,-43,-35,-26,-15,-3,7,19,31,46,59,67,70,71,72,73,74,76,77,77,72,62,49,36,24,9,-6,-17,-18,-11,0,10,17,22,28,33,38,44,50,57,62,69,77,87,98,116,151,175,195,212,234,262,282,296,309,321,334,346,356,366,375,383,391,398,403,407,409,409,408,406,401,394,384,372,357,333,285,239,199,165,134,107,84,62,44,31,21,16,12,8,4,1,0,-2,-3,-3,-2,0,4,9,14,18,22,25,29,33,37,41,45,48,51,55,58,61,61,60,58,54,51,48,45,42,39,36,34,33,31,29,25,20,13,7,1,-4,-11,-20,-30,-40,-52,-69,-86,-102,-121,-141,-164,-181,-191,-198,-204,-209,-214,-219,-224,-230,-237,-248,-263,-292,-355,-399,-422,-438,-450,-461,-469,-474,-478,-480,-482,-483,-484,-487,-490,-493,-496,-498,-500,-501,-500,-500,-499,-500,-501,-501,-506,-519,-517,-488,-476,-471,-466,-463,-462,-460,-459,-455,-450,-444,-439,-435,-431,-427,-423,-418,-412,-407,-402,-396,-382,-348,-328,-316,-308,-301,-296,-292,-288,-284,-281,-279,-277,-276,-274,-273,-271,-269,-266,-261,-256,-250,-242,-230,-217,-202,-188,-176,-165,-154,-142,-131,-120,-112,-107,-105,-104,-104,-106,-107,-110,-115,-121,-127,-132,-135,-132,-123,-110,-99,-89,-80,-69,-59,-51,-45,-40,-36,-34,-31,-27,-24,-22,-21,-19,-17,-14,-12,-9,-8,-6,-6,-4,-3,-2,-1,0,2,6,11,19,26,34,57,113,214,368,589,860,1133,1341,1376,1339,1089,720,321,-12,-160,-210,-178,-81,-30,-22,-19,-15,-13,-10,-8,-4,2,9,15,20,23,25,28,31,33,34,35,38,43,49,55,62,69,75,82,89,95,98,100,101,104,108,112,116,119,121,124,128,134,141,146,149,153,157,161,165,170,174,178,184,193,208,228,252,281,312,349,375,395,410,421,430,440,452,466,482,499,522,554,584,611,627,638,648,658,664,669,670,668,663,654,641,626,608,578,522,478,435,390,346,302,258,214,178,150,131,120,111,106,102,99,96,94,92,91,90,89,89,89,90,91,93,95,97,98,99,100,101,103,105,108,110,111,112,112,112,112,111,110,110,110,111,113,116,120,124,129,134,138,142,146,148,150,153,156,160,166,172,179,186,194,201,207,212,214,214,210,204,196,186,176,166,156,148,140,134,129,124,120,118,115,113,110,107,102,98,94,90,87,84,81,78,75,73,69,66,62,57,51,44,37,27,12,-3,-19,-30,-38,-46,-53,-61,-68,-75,-82,-89,-97,-107,-118,-128,-138,-148,-159,-173,-187,-197,-201,-197,-192,-186,-182,-180,-178,-175,-172,-169,-166,-164,-161,-158,-154,-152,-152,-154,-158,-163,-169,-175,-180,-186,-192,-199,-204,-209,-213,-216,-220,-224,-229,-233,-237,-239,-241,-244,-247,-251,-254,-256,-257,-258,-259,-262,-264,-265,-263,-262,-260,-258,-256,-253,-248,-243,-236,-229,-223,-217,-163,-58,93,289,519,750,941,1023,1010,856,555,192,-144,-384,-461,-487,-427,-361,-310,-275,-249,-240,-234,-228,-223,-219,-214,-211,-208,-208,-208,-206,-204,-202,-200,-198,-196,-193,-189,-186,-183,-181,-180,-178,-177,-175,-172,-170,-168,-164,-161,-158,-155,-154,-152,-149,-144,-136,-127,-117,-107,-97,-85,-72,-58,-44,-30,-14,6,27,43,49,46,39,32,24,14,-1,1,39,95,160,205,241,287,316,337,355,367,372,372,371,369,366,364,361,357,344,325,310,296,282,265,246,225,193,152,123,100,81,58,31,7,-14,-33,-49,-62,-76,-90,-104,-116,-126,-136,-147,-155,-153,-142,-126,-106,-78,-45,-22,-2,10,11,-3,-22,-33,-43,-53,-60,-65,-66,-62,-56,-48,-40,-33,-28,-23,-16,-9,-3,2,9,15,21,24,25,24,21,18,14,10,8,6,4,3,3,3,3,3,3,2,1,0,-2,-4,-7,-9,-11,-13,-14,-15,-15,-14,-13,-13,-13,-14,-15,-17,-19,-22,-29,-36,-39,-39,-37,-34,-31,-29,-31,-42,-55,-59,-61,-64,-68,-73,-78,-83,-87,-89,-91,-92,-93,-92,-88,-84,-78,-73,-68,-64,-61,-57,-54,-52,-50,-49,-44,-36,-29,-24,-23,-25,-30,-36,-43,-49,-59,-69,-74,-68,-53,-39,-31,-25,-18,-11,-5,0,5,7,8,9,9,9,8,6,3,0,-4,-8,-14,-27,-27,-12,-4,1,8,14,17,19,18,17,17,17,17,17,16,14,12,11,10,9,7,4,1,-1,-2,-4,-7,-12,-19,-28,-39,-58,-68,-60,-38,25,132,281,474,702,942,1154,1260,1252,1099,800,442,108,-116,-171,-161,-92,-59,-54,-52,-52,-50,-50,-49,-49,-49,-48,-47,-48,-50,-53,-55,-54,-53,-52,-53,-52,-49,-42,-34,-25,-17,-12,-7,-2,3,9,14,19,23,29,35,42,49,55,60,65,71,78,87,95,102,108,115,122,129,137,143,149,155,163,175,190,206,222,241,262,289,314,337,352,363,373,381,392,404,416,428,439,448,457,467,476,483,488,492,493,493,490,487,481,474,463,450,421,362,302,250,205,154,106,69,24,-2,-19,-33,-42,-49,-53,-55,-56,-58,-59,-61,-62,-64,-66,-68,-70,-73,-75,-76,-77,-77,-77,-76,-75,-75,-74,-75,-75,-76,-77,-79,-82,-84,-86,-87,-87,-85,-82,-80,-77,-76,-74,-74,-75,-78,-80,-80,-77,-74,-74,-74,-74,-73,-72,-71,-70,-69,-68,-68,-69,-71,-73,-75,-79,-83,-89,-95,-101,-107,-112,-118,-123,-127,-131,-133,-136,-139,-143,-147,-150,-153,-156,-158,-159,-161,-163,-163,-162,-160,-158,-159,-161,-164,-167,-169,-171,-172,-173,-175,-178,-179,-179,-177,-176,-177,-180,-183,-185,-188,-191,-193,-196,-198,-200,-200,-197,-192,-188,-184,-181,-179,-177,-176,-174,-173,-173,-174,-175,-174,-172,-169,-167,-166,-166,-167,-168,-169,-170,-172,-175,-180,-183,-185,-184,-179,-171,-163,-157,-151,-145,-139,-134,-130,-128,-126,-126,-127,-128,-130,-132,-135,-138,-139,-141,-144,-147,-151,-154,-159,-165,-172,-180,-187,-192,-195,-195,-194,-192,-190,-185,-178,-170,-160,-149,-100,29,198,415,666,910,1074,1091,1006,733,370,7,-278,-374,-406,-354,-264,-196,-180,-175,-171,-168,-166,-166,-166,-165,-164,-165,-164,-163,-162,-160,-159,-158,-157,-156,-154,-152,-150,-148,-146,-143,-139,-132,-124,-114,-104,-94,-87,-81,-75,-71,-69,-68,-68,-66,-64,-61,-57,-53,-50,-46,-42,-38,-33,-28,-23,-18,-12,-1,13,28,44,61,80,102,125,147,170,199,235,268,296,320,345,372,404,440,470,496,517,542,570,593,616,633,634,627,613,592,559,526,491,457,416,383,361,338,313,275,231,194,153,107,65,50,46,42,39,36,34,32,30,29,27,26,24,24,23,23,23,22,21,20,20,20,20,18,16,15,14,12,11,7,3,4,16,34,54,78,85,87,88,90,93,95,92,82,67,49,24,5,-3,-10,-16,-22,-26,-29,-32,-35,-38,-41,-45,-49,-53,-58,-72,-80,-72,-59,-54,-49,-45,-40,-38,-37,-36,-34,-30,-27,-26,-26,-27,-28,-28,-27,-26,-26,-28,-32,-34,-36,-37,-38,-39,-41,-43,-45,-46,-47,-49,-52,-56,-59,-60,-60,-60,-60,-58,-54,-48,-41,-33,-24,-16,-9,-1,6,14,21,27,32,36,40,44,48,53,60,68,73,73,68,61,54,49,44,41,39,38,37,36,36,38,43,50,58,66,74,84,94,104,110,111,107,99,88,75,58,30,11,-2,-14,-25,-38,-51,-57,-62,-66,-71,-76,-80,-84,-89,-94,-98,-103,-107,-112,-117,-123,-134,-159,-161,-143,-92,9,166,374,626,902,1153,1299,1311,1217,938,564,183,-106,-221,-232,-173,-111,-97,-87,-81,-75,-70,-63,-58,-53,-48,-44,-39,-33,-26,-18,-14,-15,-24,-38,-50,-58,-66,-73,-79,-84,-88,-91,-93,-93,-92,-88,-83,-76,-69,-61,-54,-44,-34,-24,-15,-6,1,9,16,23,28,34,38,41,45,49,54,58,63,68,75,82,100,138,167,183,205,231,244,253,261,268,275,281,286,293,300,307,313,320,325,330,336,346,357,366,369,366,360,351,340,320,276,224,170,113,56,8,-25,-54,-83,-113,-141,-153,-161,-168,-174,-180,-185,-190,-193,-195,-197,-198,-198,-198,-197,-198,-199,-200,-203,-208,-212,-215,-217,-219,-220,-219,-217,-212,-205,-197,-189,-182,-177,-173,-169,-165,-161,-158,-155,-152,-149,-147,-145,-144,-144,-146,-148,-151,-154,-159,-169,-169,-153,-140,-126,-116,-116,-127,-142,-154,-167,-179,-185,-184,-179,-173,-167,-162,-158,-154,-151,-146,-140,-134,-127,-122,-119,-114,-108,-102,-98,-100,-108,-118,-128,-135,-140,-147,-155,-162,-168,-172,-174,-175,-177,-182,-191,-189,-163,-138,-115,-102,-95,-88,-80,-76,-89,-112,-123,-131,-139,-145,-151,-155,-160,-163,-165,-166,-166,-165,-162,-157,-151,-144,-137,-131,-125,-121,-116,-110,-103,-96,-88,-81,-75,-70,-66,-64,-62,-60,-58,-55,-52,-47,-42,-37,-32,-26,-21,-17,-14,-11,-7,-4,-1,4,14,24,28,25,17,10,8,6,4,2,0,-1,-4,-6,-7,-8,-7,-5,-3,-2,-1,-2,-3,-6,-9,-12,-15,-18,-21,-25,-29,-34,-41,-53,-84,-89,-72,-25,95,262,469,700,923,1099,1179,1173,1064,860,596,287,-14,-229,-318,-347,-319,-273,-208,-164,-139,-121,-112,-112,-121,-134,-146,-153,-158,-165,-171,-178,-184,-189,-191,-191,-189,-188,-185,-183,-180,-176,-171,-167,-163,-159,-154,-148,-141,-135,-130,-125,-121,-117,-113,-108,-103,-98,-89,-79,-73,-73,-74,-76,-80,-85,-88,-74,-47,-31,-21,-12,-3,4,12,19,27,34,41,55,80,106,132,159,190,223,254,283,321,371,424,482,520,543,558,564,558,544,527,514,503,494,483,472,462,450,434,410,374,340,316,301,288,275,263,252,237,214,181,160,148,138,130,125,122,123,125,128,131,132,133,135,137,139,141,139,131,120,108,98,90,81,71,61,54,50,52,56,62,66,70,75,82,91,98,99,89,75,64,60,57,54,49,44,39,34,31,29,27,26,24,23,24,26,29,30,31,31,31,30,29,28,27,25,24,22,21,20,19,18,17,16,16,16,15,15,13,11,8,6,3,0,-2,-6,-10,-13,-14,-16,-17,-19,-21,-22,-23,-23,-22,-23,-24,-26,-28,-31,-32,-33,-33,-32,-32,-31,-30,-29,-28,-27,-27,-28,-30,-33,-36,-39,-43,-48,-54,-65,-77,-84,-90,-95,-101,-108,-114,-117,-112,-100,-87,-77,-66,-55,-47,-43,-48,-59,-73,-89,-102,-118,-135,-148,-154,-158,-160,-167,-178,-178,-159,-151,-147,-141,-136,-131,-128,-124,-120,-116,-114,-114,-115,-117,-119,-122,-125,-128,-132,-137,-143,-148,-152,-155,-157,-161,-167,-176,-184,-190,-191,-186,-178,-163,-141,-67,61,233,457,717,979,1170,1188,1087,765,340,-76,-368,-436,-422,-290,-154,-107,-96,-92,-88,-87,-86,-87,-88,-89,-94,-99,-103,-109,-113,-116,-119,-121,-125,-129,-133,-136,-137,-134,-129,-121,-111,-100,-89,-79,-69,-62,-55,-49,-43,-37,-31,-25,-20,-15,-10,-6,-1,1,5,7,9,10,12,14,17,21,26,31,37,43,49,56,64,75,87,107,145,177,208,238,271,305,335,358,373,386,397,404,405,397,385,372,363,355,347,339,329,320,314,308,300,287,261,205,142,75,29,5,-15,-38,-59,-80,-103,-132,-149,-153,-155,-157,-159,-160,-161,-162,-164,-164,-164,-163,-161,-157,-151,-145,-138,-130,-123,-117,-113,-110,-107,-104,-100,-97,-94,-91,-89,-86,-83,-79,-74,-71,-68,-64,-60,-55,-49,-44,-40,-36,-30,-19,-5,5,9,4,-7,-21,-32,-39,-46,-55,-64,-71,-77,-81,-83,-81,-77,-71,-64,-55,-46,-36,-27,-18,-9,-1,5,10,13,15,12,8,1,-6,-12,-17,-21,-24,-28,-33,-37,-39,-40,-41,-43,-44,-46,-47,-48,-48,-50,-52,-53,-52,-49,-47,-46,-46,-47,-49,-51,-51,-52,-52,-53,-53,-52,-51,-50,-49,-48,-47,-47,-46,-44,-41,-39,-35,-21,-12,-25,-48,-59,-67,-73,-78,-82,-84,-85,-83,-80,-75,-69,-63,-57,-49,-37,-24,-14,-10,-12,-19,-28,-39,-51,-68,-82,-81,-61,-39,-30,-24,-19,-12,-5,2,9,15,20,23,26,28,28,26,21,16,12,8,4,0,-2,-5,-6,-6,-6,-8,-11,-17,-23,-27,-30,-32,-33,-34,-33,-31,-23,-15,-3,10,62,177,355,600,882,1153,1356,1382,1310,997,569,137,-189,-322,-329,-235,-89,-21,0,7,6,-8,-27,-43,-60,-73,-83,-90,-97,-108,-123,-131,-120,-93,-53,3,34,51,63,66,55,32,9,-3,-15,-27,-37,-47,-55,-62,-67,-71,-72,-71,-67,-60,-51,-39,-26,-11,2,19,49,77,96,111,119,126,132,136,141,145,150,155,160,165,170,176,182,189,197,207,221,247,273,292,311,337,368,406,428,444,457,466,471,470,466,459,448,433,406,355,314,282,242,202,163,122,86,56,29,4,-8,-18,-26,-34,-42,-50,-59,-69,-78,-86,-94,-102,-110,-119,-128,-136,-142,-146,-148,-147,-144,-139,-131,-122,-114,-108,-102,-96,-90,-84,-78,-74,-71,-69,-69,-69,-68,-67,-65,-64,-61,-58,-55,-50,-46,-43,-41,-40,-40,-40,-39,-39,-37,-36,-34,-30,-25,-19,-14,-9,-7,-6,-5,-5,-4,-4,-4,-5,-5,-4,-1,1,6,10,14,18,22,24,26,26,27,27,29,31,34,38,43,48,54,60,64,66,66,63,60,56,51,46,40,34,28,23,19,17,16,14,12,9,5,2,0,-2,-3,-3,-2,-1,2,7,13,20,26,32,38,44,52,59,64,66,64,59,52,43,34,26,18,8,-1,-8,-12,-13,-11,-9,-8,-7,-5,-4,-1,0,0,1,3,7,12,18,24,30,36,42,47,53,58,62,66,70,76,82,88,94,99,106,112,117,121,121,120,118,115,112,109,104,97,91,85,81,77,72,67,60,53,46,40,32,24,15,5,-5,-22,-54,-80,-100,-119,-129,-119,-91,-13,152,389,671,959,1206,1323,1318,1166,849,474,143,-94,-187,-219,-185,-157,-137,-123,-114,-112,-114,-118,-122,-124,-125,-126,-126,-128,-132,-135,-138,-140,-140,-140,-139,-138,-138,-138,-137,-136,-135,-134,-133,-133,-130,-127,-123,-119,-115,-111,-104,-86,-86,-114,-146,-181,-222,-257,-287,-310,-329,-343,-357,-368,-377,-385,-391,-397,-403,-412,-419,-424,-423,-411,-392,-373,-357,-339,-321,-303,-290,-279,-266,-245,-215,-188,-155,-102,-61,-39,-24,-15,-10,-5,-1,3,7,11,12,9,0,-14,-34,-67,-133,-192,-237,-282,-311,-331,-346,-355,-358,-361,-362,-363,-363,-365,-367,-370,-372,-367,-354,-336,-319,-307,-295,-283,-271,-259,-249,-241,-234,-228,-222,-215,-209,-205,-201,-196,-190,-183,-175,-168,-161,-153,-144,-135,-127,-121,-115,-110,-103,-94,-85,-76,-68,-61,-54,-46,-39,-33,-29,-27,-24,-21,-17,-12,-7,-2,0,1,1,3,4,4,4,4,4,3,2,0,-1,0,3,7,11,13,15,17,18,20,21,22,24,25,26,27,28,29,30,32,35,37,40,43,45,48,52,55,59,62,66,70,74,77,81,86,89,93,95,96,96,96,95,93,91,88,86,83,81,81,80,80,79,78,77,77,76,74,71,68,66,65,69,81,98,117,141,177,190,194,198,203,206,191,161,134,105,86,80,77,74,69,64,61,66,78,93,113,140,167,183,195,205,212,214,208,194,177,158,137,104,85,83,80,77,75,75,75,80,87,94,103,108,104,96,84,72,102,189,335,537,785,1048,1283,1444,1464,1402,1133,740,317,-30,-206,-226,-155,-23,37,60,53,11,-30,-73,-78,-53,-14,38,73,97,107,95,70,52,37,23,15,14,16,21,26,30,36,43,46,44,38,34,34,33,31,28,25,21,18,16,15,15,15,17,20,24,30,36,42,49,55,61,69,83,100,123,148,165,178,188,198,206,214,220,225,229,235,243,253,272,322,359,378,393,402,407,410,413,417,422,427,430,429,415,395,371,348,319,290,264,238,207,173,145,120,92,57,14,-30,-70,-90,-97,-102,-105,-109,-113,-116,-117,-118,-118,-117,-116,-114,-110,-106,-100,-93,-88,-84,-80,-78,-76,-75,-73,-72,-70,-68,-66,-63,-58,-53,-48,-44,-40,-38,-35,-31,-28,-26,-24,-23,-22,-19,-14,-8,-1,4,9,12,14,15,14,11,7,2,-1,-5,-8,-10,-14,-19,-24,-34,-45,-50,-46,-36,-24,-12,1,14,15,4,-12,-26,-43,-58,-66,-64,-55,-44,-34,-19,-7,-5,-17,-34,-45,-58,-70,-78,-80,-76,-72,-68,-66,-64,-62,-59,-56,-54,-52,-51,-50,-51,-53,-56,-60,-64,-67,-70,-76,-82,-88,-90,-87,-81,-74,-71,-68,-65,-61,-56,-51,-47,-45,-45,-46,-47,-49,-50,-52,-54,-54,-54,-51,-48,-45,-43,-43,-44,-45,-46,-46,-47,-48,-48,-47,-44,-40,-36,-33,-32,-31,-32,-31,-31,-32,-33,-33,-33,-31,-28,-26,-24,-23,-23,-24,-25,-25,-27,-29,-34,-38,-43,-46,-48,-50,-52,-57,-63,-69,-75,-80,-83,-85,-85,-84,-82,-78,-73,-65,-58,-50,-41,-28,40,172,376,641,931,1173,1252,1229,1020,664,255,-105,-280,-338,-288,-199,-149,-136,-127,-126,-134,-141,-148,-152,-138,-115,-101,-90,-80,-73,-69,-67,-68,-71,-76,-82,-88,-97,-106,-113,-114,-107,-96,-86,-80,-74,-69,-64,-59,-55,-52,-49,-47,-43,-39,-36,-32,-28,-24,-19,-14,-9,-3,3,11,27,63,86,101,111,117,123,129,136,145,155,167,182,199,217,237,264,291,311,324,334,345,361,382,400,417,427,434,440,446,449,451,450,447,441,432,421,406,383,341,304,258,197,143,103,59,15,-27,-65,-84,-94,-103,-110,-115,-118,-119,-117,-112,-105,-99,-94,-88,-80,-70,-61,-57,-60,-68,-80,-91,-99,-107,-115,-123,-130,-134,-134,-130,-121,-111,-100,-91,-83,-79,-74,-70,-66,-64,-63,-62,-61,-60,-57,-55,-53,-51,-52,-52,-53,-54,-55,-56,-56,-55,-54,-51,-47,-43,-39,-36,-33,-31,-30,-30,-31,-32,-33,-34,-34,-33,-31,-28,-26,-24,-22,-21,-21,-22,-23,-25,-28,-30,-31,-32,-33,-33,-33,-32,-31,-30,-30,-30,-30,-31,-31,-32,-31,-31,-31,-31,-30,-29,-29,-29,-30,-30,-29,-28,-27,-27,-27,-28,-30,-31,-34,-38,-43,-49,-56,-61,-66,-70,-73,-75,-77,-79,-80,-81,-82,-84,-86,-88,-90,-93,-95,-96,-98,-99,-98,-95,-90,-84,-78,-72,-66,-60,-55,-49,-44,-39,-35,-31,-22,-9,1,6,2,-9,-22,-34,-41,-46,-52,-59,-67,-75,-82,-88,-92,-95,-97,-98,-96,-92,-87,-81,-76,-73,-72,-72,-72,-70,-66,-62,-58,-53,-47,-37,-28,-18,-9,3,26,105,293,594,893,1100,1129,1067,819,504
