90,92,92,89,84,73,34,7,0,-3,-7,-10,-11,-9,-4,1,8,13,18,23,28,33,37,41,44,47,50,53,55,57,58,60,64,69,74,78,83,87,89,92,94,96,97,99,101,105,108,112,115,118,122,127,137,157,175,184,190,196,201,205,209,213,215,217,219,221,223,227,233,236,230,216,202,183,165,148,130,110,93,81,70,60,52,47,43,40,37,35,33,33,35,38,40,43,45,46,49,51,54,56,56,55,53,51,48,46,45,43,42,41,40,38,37,37,36,37,38,39,40,40,40,39,39,38,38,38,37,37,35,34,34,34,35,36,38,39,41,43,45,48,50,52,54,56,61,67,71,73,69,61,52,45,43,41,38,35,33,30,28,26,23,21,19,17,17,17,16,16,15,15,14,14,13,13,12,12,11,11,10,9,8,7,6,5,5,4,4,5,6,7,8,8,8,9,9,10,12,13,15,16,18,19,21,22,23,24,27,30,33,34,32,27,21,16,11,6,1,-2,-5,-4,0,5,11,17,20,23,26,29,31,32,33,34,36,38,40,41,42,42,41,41,40,39,37,35,33,31,30,29,29,29,28,26,24,20,15,9,2,-4,-11,-19,-28,-41,-60,-61,-47,-9,98,267,491,746,994,1187,1278,1236,1059,780,464,180,-15,-76,-97,-90,-82,-76,-72,-71,-73,-76,-77,-78,-77,-79,-81,-84,-87,-90,-92,-93,-95,-97,-98,-99,-103,-108,-112,-113,-110,-104,-98,-93,-88,-83,-77,-71,-63,-55,-48,-42,-37,-33,-29,-25,-21,-17,-13,-9,-6,-2,0,4,9,15,27,39,51,63,75,83,88,91,94,96,98,99,100,100,100,98,94,90,83,76,68,54,40,27,12,-6,-27,-44,-57,-67,-75,-82,-86,-90,-93,-95,-96,-97,-97,-97,-95,-93,-91,-89,-86,-83,-78,-72,-69,-71,-76,-82,-85,-88,-92,-95,-98,-99,-98,-94,-90,-86,-82,-79,-76,-72,-68,-64,-61,-58,-57,-56,-55,-53,-49,-32,43,171,355,591,858,1119,1319,1401,1326,1096,765,425,150,-18,-65,-77,-85,-90,-93,-93,-92,-90,-87,-84,-81,-76,-72,-70,-74,-81,-88,-93,-101,-108,-111,-108,-101,-93,-89,-85,-82,-78,-74,-69,-65,-61,-58,-54,-49,-45,-39,-34,-26,-17,-7,4,15,22,29,35,40,45,49,52,55,58,61,64,66,69,73,79,93,109,118,126,132,136,137,136,131,124,114,102,81,65,53,44,37,31,27,22,17,11,4,-2,-9,-15,-19,-19,-16,-12,-10,-8,-6,-3,-2,-1,-1,-1,-2,-3,-4,-5,-7,-8,-8,-7,-3,1,6,12,19,25,32,37,40,41,43,45,47,49,51,53,54,55,56,56,56,54,52,50,47,45,43,42,40,38,36,34,29,24,20,18,18,21,24,28,32,39,45,46,41,33,20,2,-6,-12,-15,-14,-7,0,3,5,7,9,10,12,14,15,17,18,19,19,19,19,18,18,17,16,15,15,14,14,14,14,15,15,16,15,15,14,14,14,14,15,15,16,17,19,20,21,22,23,22,22,22,22,23,25,30,30,23,20,18,17,15,14,12,9,7,6,5,5,6,7,7,8,8,7,7,7,6,5,4,3,2,1,1,2,4,5,6,6,6,6,6,8,9,11,14,20,20,15,11,7,6,6,6,5,5,5,5,3,0,-5,-10,-17,-23,-24,-23,-19,-14,-8,-8,-21,-41,-64,-82,-91,-83,-60,21,151,322,523,735,928,1044,1052,974,757,477,193,-34,-157,-176,-154,-98,-85,-83,-81,-89,-97,-103,-106,-107,-106,-106,-106,-106,-106,-105,-104,-104,-103,-103,-103,-103,-104,-105,-105,-105,-105,-102,-98,-94,-89,-84,-79,-74,-70,-67,-64,-61,-58,-55,-52,-49,-47,-44,-42,-40,-37,-33,-28,-22,-13,-5,1,11,22,41,55,65,73,76,78,79,80,81,83,84,85,82,76,67,59,49,39,29,18,7,-3,-13,-20,-24,-28,-32,-37,-42,-47,-51,-53,-55,-57,-59,-62,-65,-67,-69,-71,-73,-73,-72,-71,-70,-69,-69,-68,-68,-67,-66,-66,-65,-64,-61,-59,-62,-67,-70,-72,-74,-77,-78,-78,-74,-69,-62,-57,-54,-50,-47,-44,-41,-38,-36,-33,-31,-28,-26,-25,-25,-25,-24,-24,-23,-23,-22,-22,-22,-21,-20,-19,-17,-15,-14,-12,-10,-8,-5,-2,0,1,3,5,7,10,13,16,18,20,22,22,23,22,21,19,17,15,13,11,8,5,0,-8,-18,-29,-35,-39,-44,-48,-52,-54,-56,-57,-58,-59,-60,-61,-62,-65,-69,-45,24,144,318,541,789,1020,1180,1221,1125,909,618,316,64,-93,-133,-146,-120,-104,-97,-90,-84,-79,-75,-72,-70,-69,-68,-68,-69,-70,-73,-77,-80,-84,-86,-88,-90,-92,-95,-99,-101,-103,-102,-99,-94,-89,-83,-77,-68,-58,-48,-40,-33,-28,-24,-19,-15,-11,-8,-6,-4,-1,2,8,15,23,33,46,62,75,88,101,117,126,132,137,141,143,143,140,136,130,122,112,94,78,62,46,34,24,16,10,5,0,-6,-21,-37,-48,-53,-55,-57,-59,-60,-60,-60,-60,-60,-59,-58,-56,-53,-51,-49,-46,-44,-43,-42,-41,-41,-41,-40,-39,-37,-36,-35,-34,-34,-33,-33,-33,-32,-32,-32,-31,-30,-29,-27,-25,-24,-22,-20,-18,-13,-7,-3,0,1,3,4,6,6,7,7,8,8,9,9,10,11,12,12,14,15,17,20,23,25,29,37,44,48,51,54,57,58,58,54,49,45,42,40,38,36,34,31,28,26,23,21,19,17,16,16,15,13,11,9,7,4,2,0,-2,-5,-8,-12,-21,-36,-50,-58,-43,-1,94,239,429,649,879,1087,1229,1256,1149,923,630,330,79,-78,-121,-120,-93,-75,-68,-63,-60,-61,-66,-73,-77,-81,-85,-88,-90,-90,-89,-86,-84,-82,-81,-80,-78,-76,-74,-73,-72,-71,-70,-68,-67,-66,-66,-66,-65,-64,-62,-61,-60,-58,-56,-54,-49,-44,-39,-33,-28,-19,-7,5,17,29,39,52,68,83,99,117,135,145,150,154,156,158,158,156,153,149,143,132,113,97,86,80,66,45,19,-6,-18,-21,-24,-25,-26,-27,-27,-27,-26,-25,-24,-22,-20,-21,-26,-29,-32,-34,-36,-37,-37,-36,-34,-31,-28,-21,-9,-3,0,3,4,5,3,0,-5,-9,-12,-15,-18,-21,-24,-27,-29,-30,-31,-33,-34,-35,-37,-40,-46,-50,-56,-56,-39,14,124,301,538,814,1088,1302,1403,1353,1151,847,512,213,1,-89,-101,-73,-30,-16,-12,-20,-47,-68,-90,-97,-100,-102,-101,-94,-86,-78,-71,-66,-61,-58,-58,-60,-62,-63,-65,-67,-68,-69,-68,-66,-62,-59,-55,-51,-46,-42,-38,-33,-25,-10,-1,3,7,9,10,9,8,6,4,1,-3,6,21,36,48,61,72,79,87,92,97,100,100,97,92,87,81,76,71,65,58,51,42,30,20,9,-2,-14,-22,-25,-28,-30,-31,-32,-33,-33,-34,-34,-35,-36,-37,-39,-42,-41,-34,-30,-28,-25,-23,-20,-17,-14,-10,-4,-1,-2,-4,-6,-9,-8,-2,3,8,13,17,22,27,34,38,36,32,25,15,8,3,4,11,20,29,34,37,39,41,42,40,36,30,22,11,9,8,8,7,6,5,5,4,5,6,8,10,13,15,12,6,2,0,-3,-6,-7,-8,-8,-7,-6,-4,-2,0,2,4,7,9,11,13,16,18,21,25,28,28,25,21,17,14,10,5,0,-8,-17,-17,-10,-7,-4,-1,0,1,2,3,4,5,6,7,8,8,9,12,11,2,-5,-12,-19,-24,-30,-35,-38,-35,-29,-19,-9,-5,-2,-1,-2,-7,-14,-27,-41,-56,-70,-78,-72,-62,-48,-35,-28,-23,-21,-19,-17,-15,-25,-35,-41,-47,-50,-53,-59,-72,-90,-102,-108,-112,-95,-43,63,227,444,686,908,1065,1117,1043,854,585,295,48,-111,-169,-175,-149,-107,-82,-74,-70,-70,-73,-79,-86,-94,-95,-96,-98,-99,-100,-97,-92,-85,-77,-74,-72,-71,-70,-68,-66,-64,-62,-60,-57,-54,-51,-48,-45,-41,-38,-36,-32,-29,-26,-24,-22,-18,-14,-5,3,13,21,26,30,35,42,59,82,104,118,131,145,154,159,162,162,159,154,149,145,141,137,134,131,125,113,100,84,63,42,29,21,16,10,5,1,-5,-15,-25,-33,-39,-44,-45,-46,-48,-51,-51,-46,-42,-36,-36,-44,-55,-71,-83,-89,-93,-92,-89,-82,-73,-55,-34,-16,-6,-1,2,3,1,-1,-7,-13,-22,-31,-35,-39,-42,-45,-46,-45,-42,-36,-31,-25,-16,-10,-9,-12,-16,-22,-29,-14,31,138,305,521,764,1002,1190,1262,1252,1127,896,611,322,81,-64,-97,-94,-68,-54,-62,-77,-90,-96,-100,-102,-104,-104,-104,-103,-101,-99,-96,-92,-87,-80,-74,-70,-69,-68,-67,-67,-67,-66,-65,-64,-63,-61,-59,-57,-55,-52,-50,-47,-42,-37,-32,-28,-24,-21,-17,-14,-10,-6,-2,0,5,13,31,44,52,60,67,71,74,77,80,82,83,84,83,82,79,75,71,66,56,33,14,2,-4,-9,-11,-13,-15,-17,-19,-21,-23,-25,-26,-28,-31,-33,-36,-39,-44,-49,-48,-44,-39,-34,-29,-25,-23,-22,-21,-21,-20,-19,-18,-17,-17,-16,-14,-13,-11,-8,-7,-5,-2,2,13,19,23,27,31,30,24,20,16,14,17,23,27,31,34,37,38,39,38,38,38,39,39,38,37,35,34,34,35,37,39,41,44,47,48,47,45,43,42,40,39,38,38,38,39,40,41,43,44,46,48,51,52,53,53,51,48,45,41,36,30,24,23,27,34,42,53,56,57,58,59,59,60,61,61,61,60,59,58,57,55,53,51,49,46,44,42,39,37,36,34,33,33,34,36,39,43,47,50,52,56,60,64,66,67,67,65,64,63,62,62,61,60,58,56,55,54,53,52,51,49,48,48,47,46,45,43,41,39,38,36,33,30,27,24,20,14,2,-5,-15,-27,-36,-41,-21,37,172,382,652,941,1192,1313,1311,1179,914,601,306,85,-35,-56,-62,-58,-54,-53,-53,-52,-55,-60,-65,-69,-73,-77,-80,-82,-84,-86,-87,-88,-89,-90,-91,-92,-93,-93,-93,-93,-92,-90,-88,-86,-83,-80,-77,-74,-71,-67,-62,-58,-54,-50,-47,-43,-38,-30,-23,-18,-9,4,20,36,47,51,55,60,66,73,80,88,99,106,110,113,116,119,122,123,121,118,113,108,104,100,94,88,80,66,43,27,16,5,-5,-17,-29,-34,-37,-39,-39,-39,-39,-39,-39,-39,-39,-40,-39,-39,-40,-41,-42,-43,-43,-43,-44,-44,-45,-46,-47,-48,-50,-54,-59,-62,-64,-63,-60,-57,-54,-53,-53,-53,-51,-48,-46,-44,-42,-40,-38,-35,-32,-27,-20,12,136,324,560,828,1089,1292,1388,1348,1172,891,568,258,13,-98,-135,-117,-96,-79,-79,-93,-101,-107,-112,-116,-119,-119,-117,-113,-110,-106,-102,-99,-95,-91,-86,-81,-78,-75,-72,-70,-68,-65,-62,-60,-58,-56,-53,-50,-48,-45,-42,-40,-37,-33,-30,-25,-20,-14,-6,0,8,15,22,28,34,40,44,47,49,51,54,59,68,78,84,89,93,95,92,85,75,63,46,28,14,4,-4,-10,-16,-22,-29,-35,-42,-48,-53,-58,-62,-66,-70,-74,-78,-82,-85,-86,-85,-82,-78,-74,-70,-67,-63,-59,-54,-50,-45,-41,-36,-32,-28,-25,-22,-20,-18,-17,-15,-14,-13,-13,-12,-10,-9,-7,-5,-4,-4,-3,-3,-2,0,1,4,6,9,11,13,15,16,18,19,20,21,24,26,27,25,21,18,16,14,12,10,8,6,4,2,1,0,-1,-2,-2,-2,-2,-3,-4,-5,-7,-8,-9,-9,-9,-8,-7,-5,-4,-3,-2,-1,0,0,1,2,3,4,5,6,7,9,10,12,12,13,14,15,17,19,22,24,24,21,17,13,10,6,2,0,0,0,4,9,19,38,50,57,61,64,64,64,63,63,63,64,64,64,64,63,63,63,63,63,64,64,64,64,64,63,64,64,63,63,63,63,63,62,62,60,57,56,57,61,65,71,80,80,69,53,36,28,23,19,18,20,24,30,37,47,47,35,18,1,-8,-14,0,43,134,277,466,688,907,1073,1146,1104,954,731,480,242,53,-33,-62,-47,-30,-15,-14,-22,-34,-44,-46,-47,-48,-48,-48,-47,-46,-45,-44,-42,-40,-36,-31,-21,-9,-2,2,6,10,11,11,9,6,3,0,-3,-7,-7,-5,-3,-1,3,1,-11,-21,-29,-36,-40,-42,-43,-45,-47,-49,-50,-51,-50,-48,-44,-39,-31,-15,-2,6,7,0,-17,-44,-73,-105,-141,-180,-215,-244,-263,-278,-287,-296,-306,-313,-319,-324,-329,-335,-339,-344,-347,-352,-355,-358,-361,-361,-359,-356,-352,-346,-337,-315,-291,-269,-250,-227,-206,-192,-183,-175,-168,-161,-153,-144,-133,-123,-115,-107,-98,-86,-77,-70,-63,-56,-51,-46,-40,-35,-31,-26,-23,-20,-17,-12,-4,6,18,29,40,48,54,60,65,70,74,77,81,84,89,94,99,103,107,111,113,115,117,118,119,121,123,125,127,130,136,137,135,133,132,130,129,129,131,136,141,151,163,168,172,171,162,155,150,146,141,137,132,127,123,117,111,107,107,109,111,114,117,122,121,110,95,79,65,68,104,198,347,545,777,1021,1235,1356,1363,1275,1044,744,436,183,27,-7,-6,35,62,71,69,59,43,27,21,17,14,14,15,20,26,30,36,41,43,41,37,33,31,28,25,22,20,20,21,25,29,35,46,63,70,74,77,80,83,87,92,96,101,105,109,113,116,119,122,126,135,150,166,184,197,205,214,223,231,237,243,245,243,238,231,224,215,206,197,181,158,136,112,90,74,61,47,33,14,4,-1,-6,-10,-13,-16,-18,-20,-21,-22,-24,-25,-26,-27,-27,-27,-27,-28,-29,-30,-31,-31,-32,-33,-33,-34,-33,-33,-31,-29,-27,-25,-22,-19,-16,-13,-11,-10,-9,-8,-7,-5,-4,-3,-2,-1,0,2,3,5,5,5,5,5,4,4,3,1,0,0,0,0,0,0,0,0,1,2,3,3,2,0,0,-1,-1,-2,-3,-3,-4,-4,-4,-3,-3,-3,-4,-6,-7,-9,-11,-14,-16,-18,-20,-22,-23,-23,-23,-24,-25,-26,-27,-28,-30,-31,-33,-36,-39,-41,-44,-51,-65,-67,-71,-63,-12,83,231,437,686,939,1148,1240,1235,1116,873,575,285,57,-80,-106,-111,-116,-119,-123,-126,-127,-127,-126,-125,-124,-122,-119,-115,-111,-107,-101,-91,-83,-80,-78,-76,-75,-73,-72,-70,-68,-65,-62,-61,-59,-58,-57,-55,-53,-51,-49,-47,-44,-41,-37,-34,-31,-27,-24,-19,-11,5,20,36,51,67,79,87,95,103,111,119,132,148,156,160,164,166,168,167,162,154,143,129,108,92,75,58,44,24,5,-2,-5,-8,-9,-11,-13,-15,-17,-18,-20,-21,-24,-27,-34,-45,-53,-56,-58,-61,-62,-63,-64,-64,-64,-64,-64,-64,-63,-61,-59,-57,-54,-52,-48,-39,-33,-34,-35,-36,-37,-38,-38,-37,-36,-33,-30,-27,-24,-19,-14,-11,-13,-17,-24,-35,-56,-77,-90,-82,-60,11,130,300,514,757,992,1167,1239,1187,1019,769,482,214,20,-65,-78,-54,-31,-23,-33,-51,-71,-84,-92,-96,-96,-92,-86,-84,-82,-81,-79,-77,-76,-74,-73,-72,-71,-69,-68,-66,-65,-63,-61,-59,-55,-50,-41,-33,-28,-24,-20,-17,-14,-11,-9,-6,-4,-3,-1,0,2,5,14,32,40,45,48,51,55,60,66,78,93,99,103,105,106,106,103,98,91,79,56,40,32,25,20,15,7,-7,-22,-33,-40,-44,-46,-47,-49,-51,-54,-57,-60,-64,-71,-82,-89,-94,-98,-101,-98,-92,-83,-69,-62,-58,-55,-53,-50,-48,-46,-43,-41,-37,-31,-26,-20,-15,-8,-9,-17,-27,-36,-38,-39,-40,-41,-40,-36,-30,-23,-14,-7,-2,0,3,4,4,1,-1,-4,-6,-8,-9,-11,-13,-14,-15,-15,-16,-16,-16,-16,-15,-15,-15,-14,-13,-12,-11,-9,-6,-4,-6,-12,-16,-22,-24,-21,-13,-9,-5,-1,0,1,1,0,0,-1,-2,-3,-4,-5,-6,-6,-7,-8,-8,-9,-9,-8,-7,-5,-4,-2,1,1,-2,-4,-5,-6,-7,-8,-9,-10,-12,-13,-15,-17,-18,-20,-22,-28,-31,-28,-20,-11,0,10,16,20,23,26,29,31,32,33,34,34,35,36,37,38,39,40,40,41,41,42,42,43,43,44,47,48,45,37,28,19,16,15,14,14,13,12,11,10,10,9,8,8,7,6,4,1,13,52,143,296,513,774,1022,1195,1239,1133,913,633,351,119,-24,-65,-67,-54,-47,-44,-45,-49,-53,-57,-59,-55,-48,-42,-34,-31,-34,-39,-43,-48,-51,-53,-54,-55,-58,-56,-48,-45,-43,-42,-41,-40,-40,-39,-37,-36,-34,-33,-32,-31,-31,-30,-29,-27,-24,-20,-9,-1,9,22,35,47,59,72,81,86,91,97,102,107,110,114,117,121,124,128,133,140,144,140,132,118,102,91,83,72,62,51,39,30,23,16,9,3,-1,-5,-8,-11,-14,-16,-17,-19,-20,-21,-24,-27,-30,-36,-39,-35,-30,-27,-24,-21,-19,-18,-18,-20,-22,-25,-28,-31,-35,-40,-42,-41,-39,-36,-34,-32,-31,-30,-30,-30,-33,-36,-40,-45,-54,-55,-47,-24,47,185,397,663,933,1145,1235,1231,1118,896,629,358,126,-35,-98,-121,-124,-120,-118,-117,-116,-114,-110,-106,-102,-96,-88,-84,-87,-95,-102,-109,-117,-123,-129,-136,-139,-134,-125,-118,-112,-106,-101,-96,-92,-89,-86,-83,-79,-75,-71,-67,-64,-59,-53,-46,-39,-32,-27,-22,-17,-12,-8,-4,0,3,7,12,17,22,32,48,59,64,69,72,74,74,72,68,64,60,55,48,41,34,26,13,-2,-11,-17,-24,-31,-41,-49,-51,-52,-53,-54,-55,-55,-55,-54,-53,-52,-51,-50,-48,-46,-44,-42,-40,-38,-35,-33,-30,-26,-21,-15,-11,-6,-1,2,5,7,9,11,12,14,15,16,17,17,16,15,13,11,9,7,6,3,0,-1,-2,-3,-2,-1,0,1,2,5,7,8,4,0,-2,-4,-7,-8,-7,-4,0,3,4,6,7,8,9,10,10,11,12,12,13,14,16,17,18,18,18,19,19,20,21,23,25,27,31,35,37,39,40,41,42,44,46,44,40,37,37,41,44,47,47,41,35,29,29,34,39,44,39,34,32,30,29,29,29,30,32,34,38,44,57,66,71,74,74,72,68,65,62,58,53,46,39,31,27,30,37,49,64,71,76,79,81,83,87,91,82,71,61,52,44,38,33,28,24,19,15,10,6,1,-2,-5,-8,-11,-12,-12,-11,-8,-5,-1,4,0,-16,-37,-54,-59,-45,-3,93,244,452,710,977,1194,1304,1272,1099,826,515,230,19,-92,-116,-96,-81,-76,-77,-86,-91,-96,-100,-102,-103,-102,-99,-95,-92,-90,-87,-84,-81,-77,-74,-71,-67,-63,-60,-62,-66,-68,-69,-71,-72,-72,-71,-68,-63,-56,-44,-22,-12,-7,-3,-1,0,2,4,6,8,10,11,14,17,24,43,59,68,75,79,84,91,102,110,115,119,122,122,120,117,113,108,99,88,73,59,51,48,45,41,36,31,25,20,13,5,0,-8,-22,-36,-42,-45,-48,-48,-46,-41,-35,-27,-19,-13,-7,-4,-9,-18,-24,-30,-36,-41,-44,-44,-44,-43,-42,-40,-38,-34,-34,-38,-41,-42,-44,-45,-46,-46,-47,-47,-46,-46,-44,-41,-31,33,156,338,572,843,1105,1294,1357,1273,1060,766,456,189,5,-57,-74,-86,-94,-98,-100,-102,-103,-103,-103,-103,-103,-102,-101,-101,-102,-103,-103,-103,-103,-102,-100,-98,-95,-92,-88,-83,-74,-64,-53,-43,-32,-19,-9,-8,-8,-8,-8,-8,-7,-7,-6,-4,-1,1,8,24,37,44,50,56,61,66,70,75,80,86,94,103,108,111,115,114,105,98,92,87,81,75,68,59,52,46,40,34,29,23,13,2,-1,-2,-3,-4,-5,-6,-8,-9,-11,-12,-12,-14,-15,-15,-16,-18,-20,-23,-26,-28,-29,-29,-28,-27,-26,-24,-21,-19,-21,-24,-27,-30,-33,-34,-34,-32,-29,-27,-25,-23,-21,-20,-20,-21,-21,-22,-24,-25,-27,-28,-29,-31,-32,-33,-34,-35,-36,-37,-38,-39,-41,-43,-45,-45,-45,-45,-44,-43,-42,-40,-38,-37,-38,-40,-42,-45,-47,-48,-46,-43,-41,-39,-37,-36,-35,-34,-34,-34,-35,-35,-37,-36,-28,-19,-10,-6,-3,0,-7,-21,-31,-34,-37,-37,-30,-20,-7,2,14,22,27,29,26,19,13,7,3,0,0,-1,-3,-6,-6,-1,1,3,5,7,8,8,6,4,2,0,-4,-8,-8,-6,-3,-1,0,0,1,2,4,6,8,10,12,15,16,14,10,6,3,0,0,0,1,5,9,18,28,34,37,32,27,23,21,22,25,28,30,31,32,32,30,26,21,13,3,0,-3,-7,-9,-8,-5,-3,-1,0,-3,-11,-19,-29,-28,-15,19,115,262,461,696,929,1104,1169,1100,911,645,363,127,-22,-71,-74,-54,-42,-38,-35,-33,-37,-45,-51,-58,-63,-65,-67,-69,-71,-73,-75,-75,-73,-70,-67,-62,-56,-52,-50,-49,-46,-45,-46,-49,-51,-53,-55,-51,-44,-36,-26,-18,-13,-10,-7,-4,-1,0,2,5,10,17,25,33,42,50,58,66,74,83,91,100,112,125,133,137,140,141,140,135,130,123,113,107,101,94,87,77,62,49,41,34,27,16,-1,-12,-18,-22,-25,-27,-29,-30,-31,-31,-31,-32,-32,-32,-32,-32,-32,-33,-33,-34,-34,-34,-34,-35,-35,-35,-36,-36,-35,-35,-34,-32,-31,-30,-28,-27,-26,-24,-22,-20,-18,-16,-15,-12,-8,-4,-1,0,0,-3,-5,-8,-11,-14,-18,-23,-27,-28,-27,-25,-23,-21,-20,-19,-18,-16,-14,-12,-10,-8,-6,-4,-1,0,2,4,5,7,9,12,14,15,14,12,9,7,4,0,-4,-6,-5,-3,0,1,3,5,6,5,3,0,-2,-5,-8,-11,-14,-18,-22,-27,-33,-42,-57,-69,-78,-86,-89,-86,-81,-67,-17,70,203,389,621,868,1080,1185,1184,1075,845,560,274,44,-92,-130,-133,-111,-82,-71,-68,-64,-62,-66,-73,-78,-82,-85,-87,-88,-88,-87,-86,-85,-85,-83,-82,-80,-78,-77,-75,-72,-69,-65,-62,-58,-55,-50,-45,-41,-38,-36,-34,-31,-28,-25,-21,-15,-9,0,11,26,32,37,44,52,72,101,119,132,139,144,147,149,150,151,153,154,155,155,155,152,148,143,134,114,93,78,66,53,35,17,0,-15,-25,-29,-31,-32,-33,-33,-34,-33,-33,-33,-33,-32,-31,-30,-28,-26,-23,-21,-19,-16,-14,-12,-11,-11,-13,-16,-19,-22,-25,-28,-32,-37,-41,-44,-46,-48,-52,-58,-56,-45,-40,-38,-35,-33,-32,-31,-30,-29,-27,-26,-26,-25,-24,-24,-23,-23,-22,-22,-21,-21,-21,-21,-20,-19,-18,-17,-15,-14,-12,-8,1,10,14,17,20,21,22,23,22,20,17,13,10,8,6,5,3,2,0,-1,-2,-3,-5,-6,-7,-7,-8,-8,-7,-7,-8,-9,-10,-11,-12,-13,-14,-15,-17,-19,-21,-29,-45,-58,-65,-47,8,129,307,529,777,1018,1212,1309,1279,1114,841,521,227,15,-74,-86,-56,-26,-16,-27,-46,-65,-77,-85,-89,-86,-80,-77,-74,-71,-69,-68,-68,-69,-70,-72,-74,-76,-79,-83,-83,-78,-72,-66,-60,-54,-49,-45,-41,-37,-34,-32,-29,-26,-22,-17,-7,10,22,30,36,43,51,60,73,86,98,106,113,121,134,141,146,150,153,155,156,157,158,158,159,160,163,161,151,136,113,84,60,40,19,7,1,-2,-6,-8,-12,-15,-18,-22,-25,-28,-30,-33,-35,-36,-36,-36,-34,-32,-29,-26,-23,-18,-9,-1,4,10,16,19,14,5,-2,-9,-15,-20,-24,-27,-30,-32,-34,-36,-38,-39,-40,-41,-42,-42,-43,-44,-45,-46,-51,-49,-26,40,161,339,570,829,1059,1212,1251,1163,958,674,371,117,-41,-88,-91,-72,-57,-49,-43,-41,-45,-54,-59,-64,-68,-71,-74,-74,-73,-71,-68,-66,-62,-56,-56,-64,-69,-72,-75,-78,-79,-79,-78,-76,-73,-70,-66,-63,-58,-54,-50,-48,-46,-45,-42,-39,-36,-36,-38,-41,-44,-47,-49,-45,-37,-24,-9,3,18,35,52,64,73,76,73,66,61,58,56,53,50,47,46,44,42,38,31,19,1,-21,-27,-28,-28,-28,-28,-28,-28,-27,-27,-26,-25,-24,-22,-21,-19,-18,-17,-16,-14,-13,-12,-11,-10,-9,-8,-7,-5,-4,-2,-1,0,2,5,8,12,15,19,23,27,30,31,29,27,24,21,18,13,10,12,17,23,30,36,40,44,46,45,40,33,29,24,20,16,14,12,10,8,6,3,0,-1,-1,0,3,5,8,12,16,16,13,9,4,-2,-7,-11,-14,-16,-16,-14,-10,-7,-5,-2,0,0,-1,-3,-7,-12,-19,-30,-35,-39,-42,-44,-41,-35,-29,-23,-19,-16,-14,-11,-10,-14,-20,-24,-28,-32,-34,-35,-35,-33,-31,-28,-23,-13,-7,-3,0,2,3,5,7,10,10,6,3,1,0,-2,-4,-5,-6,-7,-9,-10,-11,-11,-8,-5,-1,9,18,22,25,28,31,31,31,29,27,26,24,23,22,21,20,19,19,19,19,18,17,15,14,13,12,11,10,9,7,5,3,-1,-11,-14,-18,-21,-7,36,132,280,476,710,949,1140,1234,1198,1034,773,468,183,-21,-114,-129,-114,-83,-66,-60,-61,-68,-71,-73,-75,-77,-78,-79,-80,-80,-81,-82,-82,-81,-81,-80,-79,-78,-77,-75,-74,-73,-72,-70,-67,-64,-61,-58,-55,-52,-49,-45,-41,-37,-33,-29,-26,-22,-18,-14,-10,-6,0,7,16,24,33,44,59,76,88,96,104,114,125,138,149,155,159,161,163,163,160,156,150,139,122,112,105,99,92,80,63,45,30,24,21,19,17,15,12,9,6,2,0,-4,-9,-14,-18,-19,-19,-17,-15,-13,-11,-8,-6,-6,-9,-12,-15,-17,-19,-22,-27,-32,-36,-39,-43,-45,-47,-48,-49,-49,-49,-49,-48,-46,-44,-40,-36,-17,31,109,220,366,555,781,1012,1198,1285,1234,1045,754,425,134,-55,-122,-94,-37,-5,-4,-33,-81,-123,-135,-138,-140,-130,-118,-107,-98,-94,-91,-89,-87,-83,-79,-75,-72,-69,-66,-64,-62,-60,-61,-63,-66,-70,-75,-81,-92,-93,-87,-77,-62,-49,-39,-30,-18,0,20,32,38,42,35,28,22,24,34,50,67,75,79,84,93,102,109,115,121,125,128,128,126,123,118,112,100,78,55,35,17,1,-10,-25,-35,-42,-46,-48,-48,-45,-41,-37,-32,-26,-21,-20,-18,-17,-14,-13,-16,-20,-23,-26,-29,-31,-33,-32,-31,-28,-25,-22,-20,-17,-14,-11,-8,-5,-3,-2,-1,0,1,3,4,5,5,6,8,9,11,11,11,10,9,8,7,6,5,4,3,2,1,0,0,-1,-3,-4,-5,-5,-4,-2,0,1,3,4,5,6,7,8,8,8,9,10,11,13,14,15,15,16,17,18,19,20,21,22,27,31,31,28,21,11,-3,-15,-23,-28,-33,-38,-37,-28,-14,1,15,26,31,35,37,38,36,33,27,17,4,0,-3,-6,-7,-8,-8,-7,-5,-3,-1,2,2,-1,-6,-11,-1,5,9,13,15,17,16,15,13,11,9,7,4,2,1,2,6,11,14,16,19,21,22,22,22,20,18,16,14,11,9,7,6,7,8,10,11,13,14,16,19,21,22,22,21,18,14,9,1,-11,-18,-24,-29,-34,-40,-48,-56,-66,-77,-85,-80,-62,0,106,254,446,670,896,1075,1162,1117,939,668,368,105,-68,-127,-133,-104,-85,-78,-88,-104,-118,-125,-129,-131,-127,-119,-110,-100,-92,-88,-85,-82,-81,-80,-81,-83,-85,-88,-91,-94,-96,-99,-100,-101,-102,-107,-105,-93,-80,-66,-52,-38,-25,-19,-17,-15,-12,-10,-8,-6,-5,-2,3,16,32,52,68,77,83,87,91,95,99,105,112,118,122,126,128,128,126,121,116,109,98,91,84,76,66,57,49,42,36,29,23,16,7,1,-4,-9,-15,-20,-26,-30,-34,-38,-42,-45,-47,-50,-52,-53,-55,-57,-59,-60,-61,-60,-58,-54,-51,-48,-47,-46,-44,-43,-41,-39,-37,-35,-33,-31,-28,-26,-24,-22,-21,-20,-19,-18,-17,-15,-14,-13,-11,-10,-7,-5,-4,-3,-2,-1,0,1,3,4,5,6,7,8,9,10,11,11,11,12,13,14,15,16,17,19,20,21,22,23,23,23,23,24,24,24,24,26,27,28,29,30,31,33,35,36,36,34,31,27,23,20,17,14,9,6,3,2,3,4,5,6,8,10,15,18,16,9,-1,-17,-33,-42,-34,-9,75,218,415,651,888,1073,1159,1122,970,737,471,220,29,-83,-110,-120,-119,-112,-108,-106,-104,-102,-101,-100,-100,-100,-101,-103,-105,-107,-110,-113,-117,-121,-122,-122,-118,-113,-108,-104,-100,-95,-91,-86,-82,-79,-77,-74,-72,-70,-68,-66,-64,-63,-61,-60,-58,-56,-52,-44,-34,-23,-12,-3,4,11,19,30,46,67,89,109,120,128,135,142,150,158,158,148,133,114,100,89,78,64,44,28,19,12,5,0,-2,-4,-6,-7,-9,-11,-13,-15,-17,-18,-20,-23,-26,-28,-31,-33,-38,-43,-47,-50,-51,-52,-54,-56,-58,-61,-62,-61,-56,-51,-45,-41,-37,-32,-27,-21,-15,-10,-2,30,111,241,423,648,886,1080,1166,1162,1057,851,591,317,77,-92,-163,-172,-147,-98,-66,-55,-56,-71,-78,-83,-87,-91,-93,-95,-97,-98,-99,-99,-99,-97,-95,-92,-89,-85,-82,-79,-75,-70,-65,-61,-58,-54,-49,-43,-33,-26,-21,-19,-17,-15,-14,-12,-11,-9,-8,-7,-5,-2,0,8,25,42,55,65,74,82,90,98,104,108,112,115,116,116,115,112,108,104,94,76,58,41,26,16,5,-5,-16,-28,-35,-40,-43,-45,-48,-51,-54,-57,-59,-61,-62,-64,-66,-66,-66,-64,-61,-58,-56,-53,-49,-45,-41,-38,-35,-31,-27,-21,-14,-9,-2,4,13,19,24,27,28,25,20,14,6,1,0,-2,-3,-4,-6,-7,-9,-11,-13,-15,-17,-20,-25,-33,-33,-24,-1,75,203,391,631,885,1094,1199,1160,976,699,398,138,-39,-115,-127,-114,-96,-90,-90,-97,-107,-121,-130,-134,-138,-140,-140,-139,-136,-133,-130,-127,-123,-119,-114,-108,-102,-94,-84,-83,-87,-89,-91,-93,-95,-96,-96,-95,-92,-88,-76,-56,-51,-48,-45,-41,-37,-34,-31,-24,-13,-6,1,15,32,49,60,66,70,74,76,77,78,80,82,84,83,79,73,67,62,56,50,45,37,27,21,16,12,8,3,0,-4,-7,-10,-13,-17,-21,-26,-30,-36,-40,-42,-41,-38,-34,-30,-25,-19,-10,-2,6,10,8,3,0,-3,-6,-9,-11,-12,-14,-17,-21,-21,-15,-11,-8,-6,-4,-2,-1,0,1,3,5,8,13,16,11,3,1,0,0,-1,-3,-4,-5,-6,-8,-9,-10,-11,-11,-11,-11,-11,-10,-10,-10,-9,-9,-9,-10,-11,-11,-12,-12,-12,-12,-12,-12,-12,-11,-11,-11,-11,-10,-10,-10,-10,-10,-9,-9,-7,-6,-3,-1,2,4,2,-3,-12,-26,-42,-52,-58,-52,-10,82,227,417,649,892,1091,1194,1171,1031,796,501,205,-22,-123,-136,-98,-46,-23,-16,-27,-45,-61,-68,-71,-73,-74,-75,-75,-74,-72,-68,-64,-60,-57,-52,-47,-42,-39,-36,-34,-33,-31,-28,-24,-20,-18,-16,-15,-14,-13,-12,-11,-10,-8,-6,-4,-1,5,17,29,41,51,59,71,80,86,92,97,101,105,113,126,133,136,139,141,141,139,135,130,120,106,99,96,92,88,85,81,67,43,29,18,10,0,-12,-22,-26,-28,-28,-25,-20,-16,-20,-24,-27,-21,-16,-13,-10,-8,-7,-7,-9,-12,-15,-18,-21,-26,-30,-31,-28,-25,-22,-20,-17,-16,-16,-17,-18,-20,-22,-24,-27,-30,-31,-29,-24,-19,-14,-9,-4,0,4,10,18,27,34,40,46,51,55,60,62,59,52,48,45,42,39,36,34,31,29,27,24,19,15,11,8,6,4,3,2,0,-1,-2,-4,-6,-7,-9,-12,-15,-19,-24,-33,-50,-70,-82,-71,-37,72,246,473,720,935,1046,1052,968,775,532,287,78,-59,-100,-113,-103,-91,-82,-82,-89,-100,-110,-116,-120,-119,-110,-103,-99,-94,-90,-85,-81,-77,-72,-68,-65,-63,-61,-59,-58,-57,-56,-55,-54,-53,-51,-50,-49,-46,-43,-38,-30,-19,-10,-2,4,11,17,22,27,30,33,39,52,70,89,102,109,115,119,122,129,144,157,166,169,167,162,157,150,144,129,106,78,50,24,15,9,5,2,0,-2,-4,-5,-7,-9,-12,-14,-16,-18,-19,-19,-19,-20,-20,-21,-22,-23,-24,-26,-27,-29,-29,-29,-29,-28,-28,-28,-28,-28,-28,-28,-28,-28,-28,-28,-27,-26,-26,-25,-23,-22,-20,-18,-17,-15,-10,-5,1,9,14,18,22,26,28,29,28,26,23,19,15,10,2,-1,3,12,18,23,28,31,33,33,31,27,23,19,16,13,9,5,1,-1,-4,-7,-10,-15,-21,-33,-56,-75,-87,-80,-62,5,122,290,505,742,961,1115,1169,1095,901,629,338,91,-67,-120,-126,-104,-71,-59,-55,-53,-52,-51,-50,-49,-48,-46,-42,-43,-53,-60,-66,-71,-73,-72,-68,-62,-56,-50,-43,-36,-30,-25,-23,-21,-20,-18,-17,-15,-14,-13,-12,-10,-9,-8,-7,-6,-5,-3,-1,1,9,28,47,64,81,95,108,124,138,147,152,155,157,159,160,161,159,156,150,144,135,120,108,92,73,54,37,26,19,11,3,-8,-25,-34,-38,-41,-44,-45,-45,-44,-41,-37,-32,-28,-21,-15,-14,-16,-20,-22,-24,-26,-27,-29,-32,-34,-37,-41,-44,-47,-51,-55,-58,-58,-57,-55,-52,-49,-44,-44,-51,-70,-98,-112,-125,-125,-103,-39,76,245,462,706,946,1134,1217,1157,959,670,366,109,-63,-132,-137,-118,-107,-106,-110,-115,-119,-122,-119,-114,-112,-110,-109,-108,-108,-108,-108,-107,-106,-105,-103,-103,-103,-103,-103,-102,-102,-100,-99,-97,-95,-91,-85,-81,-75,-66,-52,-44,-40,-36,-33,-28,-23,-18,-12,-4,2,8,14,21,31,40,48,55,63,70,77,84,90,93,97,100,103,102,97,90,84,76,68,62,50,34,19,6,-1,-6,-9,-14,-18,-22,-26,-30,-33,-37,-42,-46,-49,-51,-54,-56,-58,-59,-59,-59,-58,-56,-54,-52,-49,-47,-43,-40,-37,-33,-28,-19,-2,6,11,15,18,19,19,18,16,14,11,9,7,4,2,0,-2,-2,-2,-2,-1,-1,0,0,2,4,6,6,4,0,-6,-11,-17,-21,-23,-22,-18,-14,-8,0,5,8,10,12,13,13,10,5,1,-1,-5,-9,-12,-14,-15,-17,-18,-19,-21,-22,-23,-23,-22,-21,-18,-15,-10,-2,6,12,16,19,21,22,24,25,26,27,30,34,33,24,16,10,5,2,0,-3,-8,-10,-7,-3,0,1,3,5,6,6,4,2,0,-3,-10,-23,-44,-69,-96,-119,-126,-106,-47,92,294,544,812,1053,1214,1254,1160,960,693,410,163,-15,-117,-144,-143,-124,-108,-98,-92,-89,-94,-101,-106,-110,-114,-117,-118,-118,-117,-114,-111,-106,-102,-96,-90,-86,-82,-79,-77,-75,-73,-72,-70,-68,-66,-64,-62,-59,-55,-48,-44,-46,-49,-53,-57,-50,-37,-21,-7,3,11,18,25,38,49,56,62,66,70,73,81,94,118,142,150,153,156,156,153,147,137,125,109,89,65,42,27,15,9,5,3,1,0,0,-2,-3,-2,-1,1,3,2,-7,-12,-15,-18,-20,-21,-22,-22,-22,-20,-17,-13,-9,-6,-2,0,4,7,10,12,12,12,10,9,7,5,3,0,-2,-4,-5,-5,-3,0,0,1,2,3,4,5,6,8,9,10,11,12,13,14,15,16,18,20,23,30,47,64,80,87,92,96,98,99,97,93,87,81,75,67,59,54,48,41,31,25,21,19,17,15,13,11,8,4,-1,-9,-8,7,53,161,324,531,756,959,1095,1130,1042,842,571,298,82,-49,-82,-94,-89,-86,-85,-84,-84,-84,-84,-84,-83,-82,-80,-79,-79,-79,-78,-77,-73,-70,-64,-50,-43,-40,-37,-34,-33,-33,-34,-36,-38,-40,-44,-49,-52,-48,-38,-31,-25,-19,-14,-11,-6,2,14,23,31,39,49,62,78,92,103,112,117,120,123,125,126,127,127,126,124,121,117,112,106,94,82,71,59,46,29,8,-3,-9,-14,-18,-21,-23,-25,-26,-27,-28,-29,-31,-32,-32,-32,-32,-32,-32,-31,-31,-30,-29,-27,-25,-23,-25,-29,-33,-35,-37,-39,-42,-45,-47,-50,-52,-52,-53,-54,-55,-56,-57,-58,-59,-60,-62,-64,-67,-67,-65,-61,-57,-52,-48,-43,-38,-32,-27,-23,-19,-14,-6,-6,-13,-17,-20,-23,-26,-28,-28,-25,-21,-17,-13,-10,-6,-2,1,3,4,3,3,3,3,4,4,4,3,1,-1,-5,-8,-10,-12,-15,-17,-19,-21,-22,-22,-22,-21,-20,-19,-17,-14,-10,-4,0,-1,-3,-5,-5,-6,-7,-8,-8,-7,-5,-2,0,5,10,10,4,-2,-6,-9,-12,-15,-18,-21,-23,-26,-27,-28,-29,-30,-31,-32,-35,-41,-45,-43,-40,-39,-38,-37,-36,-35,-34,-32,-30,-27,-25,-23,-21,-19,-17,-14,-10,-7,-5,-2,0,1,4,6,7,8,8,8,9,9,10,11,12,14,15,16,16,17,16,16,17,17,18,20,22,23,23,21,18,13,3,-14,-24,-29,-33,-37,-41,-44,-49,-54,-62,-66,-59,-41,10,121,282,486,721,951,1125,1195,1135,949,669,353,72,-109,-160,-162,-123,-99,-92,-88,-86,-87,-90,-95,-100,-103,-106,-109,-111,-114,-116,-117,-118,-119,-118,-117,-115,-113,-111,-109,-107,-104,-101,-98,-95,-92,-89,-85,-81,-76,-71,-66,-60,-52,-45,-39,-37,-34,-31,-28,-23,-16,-6,9,29,46,66,79,86,92,97,102,106,111,117,125,137,147,157,164,164,159,150,138,118,99,80,67,56,40,29,23,17,12,6,0,-6,-12,-18,-25,-31,-36,-36,-36,-35,-33,-33,-33,-33,-33,-33,-31,-29,-27,-26,-25,-23,-21,-19,-17,-15,-14,-13,-11,-10,-8,-5,1,18,53,88,128,172,217,259,298,338,377,415,428,431,428,419,392,349,288,195,68,-74,-199,-263,-267,-221,-135,-54,-15,-2,-18,-47,-68,-77,-85,-83,-66,-41,-10,6,15,21,23,21,17,15,13,11,9,7,6,7,10,15,21,27,34,42,50,56,58,59,61,62,63,64,65,67,70,74,79,85,91,97,105,112,119,127,138,155,171,187,203,217,236,254,261,265,269,271,272,270,267,261,254,244,228,217,206,194,181,163,142,109,77,47,27,4,-18,-41,-61,-73,-82,-85,-85,-85,-85,-85,-85,-86,-86,-83,-79,-74,-70,-64,-59,-58,-60,-61,-62,-63,-64,-66,-66,-64,-60,-54,-50,-48,-46,-44,-42,-39,-36,-35,-33,-32,-31,-31,-32,-32,-33,-34,-35,-36,-37,-38,-38,-38,-38,-38,-39,-39,-39,-38,-37,-35,-33,-30,-27,-22,-19,-23,-33,-44,-57,-67,-76,-83,-88,-93,-98,-103,-102,-91,-81,-74,-68,-63,-59,-56,-52,-49,-47,-48,-51,-53,-54,-56,-57,-59,-61,-62,-63,-63,-63,-64,-64,-63,-62,-61,-61,-60,-60,-60,-58,-54,-50,-47,-45,-43,-42,-40,-39,-39,-40,-42,-43,-44,-46,-47,-49,-51,-52,-50,-47,-42,-39,-37,-35,-32,-30,-28,-25,-23,-21,-19,-16,-14,-11,-10,-9,-8,-6,-2,1,4,5,4,2,0,-1,-4,-10,-10,-2,2,5,8,10,11,12,13,14,15,17,18,19,20,22,25,27,28,25,20,16,12,8,2,-4,-10,-16,-22,-28,-33,-37,-43,-50,-58,-65,-78,-93,-107,-107,-80,-11,100,258,469,714,947,1105,1144,1048,834,541,235,-18,-170,-195,-190,-144,-117,-112,-109,-106,-105,-104,-104,-103,-102,-100,-99,-96,-95,-94,-93,-92,-90,-89,-87,-86,-84,-84,-83,-82,-82,-80,-79,-76,-74,-72,-70,-69,-68,-68,-67,-66,-65,-64,-61,-52,-42,-27,-9,5,16,24,34,48,64,81,90,94,98,100,103,105,107,109,112,115,119,123,129,139,145,140,131,123,117,111,104,99,92,80,60,46,34,20,0,-24,-40,-51,-57,-57,-51,-44,-40,-38,-35,-33,-32,-31,-29,-28,-27,-27,-27,-28,-29,-30,-31,-32,-34,-36,-38,-40,-43,-47,-50,-50,-45,-38,-32,-25,-18,-11,-5,0,3,6,8,9,10,11,11,11,12,12,13,13,13,14,15,15,16,17,17,17,16,16,16,17,17,17,17,18,20,22,25,28,30,33,35,39,42,44,47,49,50,52,54,57,60,62,64,65,66,67,67,66,64,62,59,57,55,53,50,48,46,44,42,41,38,35,32,29,26,21,17,12,6,1,-3,-10,-26,-49,-62,-71,-72,-62,-37,21,121,273,479,716,941,1102,1159,1095,914,653,369,117,-60,-127,-149,-133,-82,-30,-15,-9,-17,-35,-43,-49,-53,-54,-54,-54,-54,-54,-55,-55,-55,-54,-54,-53,-53,-53,-53,-53,-54,-55,-56,-57,-57,-57,-57,-57,-55,-52,-49,-44,-39,-34,-29,-21,-13,-6,0,6,21,44,61,71,82,92,103,117,129,138,146,152,159,167,183,197,204,209,199,181,160,142,128,113,99,87,78,71,62,53,45,35,19,7,0,-6,-11,-14,-17,-19,-21,-23,-24,-26,-27,-28,-30,-31,-32,-32,-32,-33,-34,-35,-36,-36,-37,-37,-38,-38,-39,-38,-38,-37,-36,-36,-35,-33,-32,-30,-29,-28,-27,-26,-23,-16,-11,-8,-4,0,0,-4,-8,-12,-3,11,25,33,37,40,41,39,35,29,19,1,-7,-12,-16,-19,-21,-22,-22,-22,-23,-23,-23,-22,-21,-19,-18,-17,-16,-15,-14,-12,-11,-10,-9,-8,-8,-7,-6,-6,-7,-8,-9,-9,-8,-7,-6,-8,-13,-17,-20,-21,-23,-25,-27,-30,-32,-34,-35,-36,-38,-40,-42,-44,-46,-49,-53,-58,-62,-66,-70,-77,-88,-98,-108,-118,-126,-135,-141,-134,-114,-45,71,238,450,687,908,1061,1102,1013,811,535,246,5,-150,-201,-220,-221,-212,-198,-181,-163,-151,-148,-145,-144,-143,-142,-144,-148,-151,-154,-156,-158,-160,-162,-163,-164,-162,-160,-156,-151,-147,-143,-139,-134,-129,-125,-121,-117,-111,-104,-99,-100,-103,-107,-111,-111,-106,-101,-96,-90,-81,-68,-48,-25,-6,7,17,26,34,41,48,56,63,70,78,85,94,102,106,108,111,113,101,83,65,50,35,20,3,-18,-38,-46,-49,-52,-54,-56,-57,-58,-60,-61,-62,-63,-64,-64,-64,-63,-63,-63,-63,-63,-64,-66,-68,-63,-52,-43,-33,-26,-22,-20,-18,-18,-17,-16,-15,-14,-13,-13,-12,-11,-10,-9,-7,-7,-6,-5,-4,-2,-1,0,0,1,1,2,3,4,5,7,8,9,10,11,12,14,15,16,18,20,24,32,39,45,47,49,52,55,58,61,63,64,65,66,67,66,65,63,61,59,57,55,54,52,51,50,49,46,42,37,34,33,33,34,35,36,38,41,44,46,44,39,33,28,24,19,15,11,7,4,1,-1,-8,-18,-28,-39,-47,-37,-9,74,208,392,614,853,1070,1220,1259,1175,979,705,403,132,-57,-129,-152,-139,-118,-96,-78,-67,-63,-60,-57,-58,-69,-82,-93,-94,-94,-95,-95,-96,-96,-97,-97,-97,-96,-94,-92,-88,-84,-80,-76,-73,-68,-64,-59,-55,-51,-48,-44,-41,-36,-30,-23,-17,-13,-10,-7,-2,5,18,27,33,37,43,48,54,63,96,130,150,166,178,189,198,205,209,206,196,181,161,142,124,108,90,70,44,26,17,10,5,0,-2,-6,-10,-17,-28,-34,-38,-41,-43,-44,-44,-43,-40,-38,-35,-31,-27,-27,-31,-36,-38,-40,-42,-44,-46,-48,-50,-52,-53,-54,-54,-54,-53,-52,-51,-51,-50,-49,-50,-50,-50,-45,-39,-37,-36,-35,-33,-32,-30,-29,-27,-26,-25,-23,-22,-21,-20,-20,-20,-20,-20,-20,-20,-19,-19,-18,-16,-14,-13,-13,-13,-14,-15,-17,-19,-22,-20,-7,-1,3,7,10,13,15,16,17,17,18,17,17,16,15,14,13,12,9,7,6,11,17,21,25,29,32,33,31,26,20,14,8,2,-3,-9,-14,-19,-22,-26,-30,-35,-42,-49,-53,-56,-62,-69,-51,2,120,297,515,749,961,1107,1144,1062,878,625,345,94,-80,-140,-144,-101,-60,-45,-40,-46,-55,-59,-61,-63,-66,-67,-69,-71,-73,-75,-76,-77,-77,-77,-76,-75,-74,-74,-74,-75,-76,-75,-68,-58,-52,-48,-45,-41,-37,-34,-30,-27,-24,-22,-19,-14,-5,2,13,25,39,54,68,79,92,104,119,136,151,161,170,176,177,178,179,180,181,182,177,166,155,141,128,115,102,85,67,50,33,22,16,10,5,0,-3,-7,-11,-15,-22,-32,-39,-45,-48,-51,-53,-55,-54,-51,-46,-41,-39,-38,-36,-35,-34,-33,-32,-30,-29,-27,-26,-24,-23,-22,-22,-21,-22,-22,-22,-22,-22,-21,-19,-16,-13,-10,-9,-10,-11,-12,-13,-15,-17,-20,-21,-22,-19,-15,-9,-5,-2,0,3,6,9,11,13,14,16,17,18,18,17,15,14,13,12,11,10,8,6,4,1,-4,-1,16,26,33,40,45,49,50,49,45,42,38,35,34,32,29,27,24,23,22,21,19,16,14,13,12,11,10,9,7,6,4,2,1,0,-2,-5,-8,-14,-20,-23,-21,-16,-5,28,126,290,517,782,1036,1214,1256,1152,932,651,366,130,-25,-69,-86,-86,-77,-70,-64,-60,-60,-65,-74,-85,-99,-109,-114,-119,-123,-125,-125,-122,-115,-107,-98,-84,-77,-72,-70,-68,-66,-64,-63,-62,-60,-58,-56,-53,-50,-46,-42,-38,-32,-21,-10,0,8,18,28,38,45,51,60,72,86,98,109,119,128,140,153,162,167,173,176,175,168,157,148,138,129,119,110,96,78,65,51,38,27,17,6,-3,-10,-13,-17,-21,-26,-33,-38,-42,-45,-49,-52,-55,-57,-58,-59,-59,-59,-59,-59,-58,-55,-52,-49,-46,-42,-33,-32,-39,-45,-51,-53,-49,-41,-36,-32,-28,-25,-23,-23,-25,-27,-29,-32,-35,-39,-43,-44,-43,-38,-33,-29,-23,-15,-5,3,12,18,18,12,4,-1,-6,-11,-15,-18,-18,-17,-15,-11,-8,-4,1,6,8,6,4,3,1,0,0,0,0,2,5,8,11,14,16,19,20,21,21,21,20,18,15,12,8,5,2,-1,-6,-11,-13,-12,-11,-8,-5,-2,3,7,4,-1,-12,-26,-32,-36,-39,-40,-39,-35,-30,-25,-17,-17,-28,-56,-88,-99,-93,-76,-3,122,300,523,770,1002,1175,1246,1195,1026,770,480,215,19,-91,-117,-126,-131,-133,-131,-127,-122,-118,-115,-112,-110,-108,-105,-102,-100,-98,-96,-94,-92,-89,-87,-85,-84,-82,-80,-78,-75,-72,-69,-66,-64,-62,-59,-57,-54,-51,-49,-45,-41,-34,-21,-8,0,5,10,15,20,26,37,58,74,83,90,96,101,109,126,139,147,154,161,168,176,185,190,186,176,160,140,125,114,102,86,66,48,34,22,10,0,-14,-20,-23,-26,-29,-31,-33,-35,-36,-37,-38,-38,-39,-38,-36,-35,-33,-31,-29,-28,-26,-25,-23,-23,-23,-22,-22,-22,-22,-21,-21,-21,-20,-19,-18,-18,-17,-18,-18,-18,-18,-18,-18,-18,-18,-18,-17,-16,-15,-14,-12,-10,-10,-9,-9,-8,-7,-6,-5,-3,-2,0,2,5,7,10,11,13,14,15,16,18,20,24,28,30,29,26,24,22,21,20,19,18,17,17,16,16,16,16,17,17,18,17,16,15,14,13,13,13,12,12,11,11,11,11,11,11,11,10,10,10,10,10,9,8,8,7,7,6,4,2,0,-1,-3,-11,-32,-54,-72,-85,-93,-78,-32,78,243,448,677,898,1065,1133,1074,900,651,381,139,-33,-84,-92,-99,-105,-110,-115,-118,-122,-124,-126,-127,-128,-127,-126,-126,-126,-125,-125,-124,-123,-122,-121,-120,-118,-116,-114,-113,-111,-109,-106,-99,-92,-85,-77,-70,-62,-55,-48,-41,-35,-30,-25,-20,-15,-9,2,22,38,48,57,64,73,83,95,105,114,120,123,125,126,128,130,131,132,130,124,117,110,104,97,90,83,78,74,69,49,32,28,24,18,12,4,-12,-25,-28,-30,-31,-33,-35,-38,-42,-47,-47,-37,-32,-29,-27,-25,-23,-22,-21,-19,-17,-15,-13,-12,-12,-11,-10,-9,-7,-4,-2,-1,-4,-9,-15,-18,-21,-24,-26,-28,-29,-30,-29,-28,-27,-25,-24,-23,-22,-21,-20,-18,-17,-15,-14,-12,-11,-9,-8,-6,-5,-4,-2,0,3,6,9,11,13,15,17,20,22,23,23,22,22,21,21,20,19,18,16,16,17,18,20,22,25,29,31,30,26,24,21,19,17,17,18,22,26,30,34,39,44,48,49,47,43,37,26,9,2,-1,-3,-6,-10,-12,-15,-20,-29,-44,-59,-60,-40,31,160,346,573,812,1025,1173,1226,1157,965,681,370,100,-77,-134,-139,-107,-78,-68,-64,-66,-70,-72,-74,-75,-77,-78,-78,-78,-77,-77,-76,-75,-73,-69,-67,-68,-73,-79,-86,-91,-94,-97,-99,-95,-88,-80,-69,-60,-53,-47,-41,-35,-30,-26,-23,-19,-14,-9,-2,7,16,27,41,54,69,88,106,117,125,131,137,146,157,162,165,167,168,168,166,161,155,145,128,111,95,84,75,65,53,39,28,21,13,3,-9,-21,-29,-39,-49,-58,-63,-66,-69,-71,-67,-59,-50,-39,-31,-27,-24,-22,-20,-18,-16,-15,-14,-14,-13,-13,-12,-11,-11,-11,-10,-10,-10,-10,-10,-11,-13,-14,-16,-18,-20,-22,-24,-26,-28,-29,-29,-29,-29,-27,-25,-22,-18,-14,-11,-5,1,5,8,10,12,13,14,16,18,19,20,20,21,21,22,22,17,14,12,10,8,7,8,9,11,12,14,15,15,17,18,19,20,20,21,22,23,24,24,25,25,24,24,23,23,22,21,20,19,19,18,17,17,16,14,11,7,5,6,9,12,15,19,21,17,10,-1,-16,-41,-65,-87,-88,-73,3,144,351,605,869,1105,1267,1309,1214,993,698,395,141,-28,-95,-118,-110,-100,-92,-91,-96,-101,-106,-106,-98,-88,-78,-72,-68,-65,-64,-64,-67,-70,-74,-78,-78,-74,-71,-70,-69,-67,-66,-65,-64,-64,-63,-61,-60,-56,-46,-38,-35,-33,-30,-27,-25,-22,-19,-11,3,17,28,36,55,80,105,131,147,157,164,168,169,169,170,170,171,171,169,163,156,148,138,125,111,97,82,67,51,37,27,18,10,3,-3,-13,-24,-37,-44,-50,-54,-58,-60,-61,-64,-67,-56,-36,-18,-9,-4,0,0,-1,-5,-10,-14,-19,-23,-26,-27,-25,-22,-20,-18,-16,-15,-13,-12,-11,-11,-11,-12,-14,-16,-18,-21,-24,-26,-29,-32,-35,-37,-39,-39,-38,-36,-34,-32,-29,-27,-25,-22,-20,-17,-15,-13,-12,-11,-10,-10,-9,-9,-9,-9,-8,-6,-3,-2,-3,-8,-14,-23,-34,-36,-38,-40,-40,-31,-22,-14,-8,-4,0,4,6,3,-3,-10,-18,-25,-31,-35,-38,-40,-42,-44,-46,-46,-46,-46,-46,-46,-46,-46,-46,-45,-44,-44,-47,-52,-59,-71,-92,-114,-128,-134,-139,-121,-64,40,194,395,635,888,1105,1195,1182,1025,739,419,141,-43,-109,-115,-78,-43,-41,-65,-120,-180,-235,-283,-312,-323,-326,-322,-314,-306,-298,-292,-288,-286,-283,-281,-279,-279,-280,-281,-281,-282,-272,-245,-209,-164,-116
