171,148,136,125,116,108,103,99,95,91,89,88,88,89,92,96,101,106,115,121,115,103,97,93,90,86,83,80,77,73,70,67,64,60,56,49,36,21,8,-3,-11,-16,-19,-22,-24,-26,-27,-27,-27,-25,-22,-18,-14,-10,-5,1,8,11,12,8,3,-3,-8,-15,-21,-26,-30,-34,-39,-47,-45,-28,-15,-4,4,10,14,17,22,27,31,31,26,21,17,13,10,6,2,-2,-6,-11,-15,-21,-29,-35,-38,-39,-41,-42,-43,-44,-45,-45,-45,-44,-41,-38,-33,-25,2,88,217,373,526,652,724,748,727,665,565,451,321,190,74,-13,-60,-76,-84,-89,-93,-96,-101,-108,-115,-123,-128,-121,-107,-92,-73,-57,-49,-44,-41,-38,-35,-34,-36,-40,-44,-49,-53,-58,-63,-68,-72,-72,-71,-67,-61,-54,-44,-28,-13,-2,6,14,25,34,41,46,50,53,56,59,62,65,68,71,73,75,77,79,81,84,85,85,82,78,73,67,62,55,48,41,35,29,25,21,17,13,9,6,4,3,1,0,-1,-3,-6,-9,-12,-17,-22,-30,-34,-34,-31,-29,-27,-25,-24,-23,-23,-23,-23,-24,-26,-28,-30,-32,-34,-36,-39,-43,-47,-52,-56,-61,-68,-75,-78,-80,-82,-84,-86,-88,-89,-91,-92,-93,-95,-98,-102,-106,-110,-113,-118,-125,-132,-138,-141,-143,-145,-148,-152,-155,-154,-148,-138,-126,-111,-91,-76,-63,-54,-51,-49,-47,-45,-43,-50,-65,-83,-103,-113,-123,-133,-138,-142,-145,-147,-142,-133,-126,-121,-116,-111,-105,-100,-94,-88,-81,-75,-70,-66,-63,-57,-36,0,54,137,251,389,528,643,702,722,704,647,532,395,260,129,7,-88,-124,-136,-120,-106,-99,-92,-85,-79,-74,-69,-64,-58,-52,-47,-45,-46,-50,-54,-58,-61,-63,-67,-71,-75,-77,-77,-74,-69,-63,-56,-47,-33,-21,-12,-5,2,7,10,10,9,7,5,2,0,0,2,8,17,32,55,78,104,120,130,137,141,141,137,132,125,116,101,89,81,76,71,67,62,58,54,50,44,36,27,17,8,-1,-6,-1,10,21,33,39,44,48,52,54,54,50,42,30,6,-12,-22,-31,-40,-49,-67,-91,-107,-117,-116,-100,-86,-72,-64,-59,-51,-34,-20,-12,-6,-6,-8,-12,-14,-16,-17,-19,-20,-22,-24,-26,-29,-31,-34,-36,-38,-41,-45,-55,-61,-57,-47,-37,-25,-12,-3,1,6,11,16,21,27,39,60,76,88,95,101,107,106,94,82,68,55,41,28,17,2,-15,-28,-34,-39,-43,-45,-46,-49,-53,-51,-36,-12,12,28,40,51,60,67,73,74,73,72,68,74,110,155,213,296,408,530,633,667,658,576,426,245,87,-3,-28,-36,-40,-41,-39,-32,-22,-5,23,47,64,75,82,89,92,88,80,67,46,27,14,1,-6,-13,-17,-19,-17,-12,-6,-1,4,9,15,20,23,26,28,30,33,34,37,39,41,42,44,47,50,53,56,59,63,67,71,76,81,86,91,96,102,109,112,112,109,102,93,77,47,25,11,5,6,8,10,12,13,7,-1,-6,-9,-12,-14,-16,-19,-22,-25,-28,-31,-33,-36,-37,-39,-42,-46,-51,-54,-54,-52,-48,-43,-40,-39,-38,-36,-34,-33,-32,-31,-31,-30,-27,-25,-23,-21,-21,-20,-20,-19,-18,-16,-15,-13,-9,-4,-1,-1,-3,-9,-15,-26,-49,-59,-61,-65,-68,-71,-73,-74,-74,-74,-75,-76,-77,-77,-78,-78,-78,-79,-80,-81,-82,-83,-84,-85,-87,-89,-91,-93,-97,-106,-111,-105,-93,-83,-74,-67,-62,-60,-59,-58,-57,-55,-53,-52,-51,-49,-47,-44,-41,-38,-34,-28,0,75,181,308,437,521,549,523,448,334,213,109,37,7,-2,-8,-11,-15,-19,-24,-29,-33,-37,-43,-50,-61,-70,-71,-65,-55,-44,-30,-22,-18,-14,-11,-9,-9,-9,-9,-9,-10,-11,-8,0,6,10,14,18,21,25,29,32,36,39,41,43,45,49,53,63,88,110,125,128,131,133,135,136,133,125,115,107,99,91,86,84,85,89,93,97,102,106,108,106,103,100,96,90,90,94,97,99,101,103,103,100,96,90,85,80,73,66,62,58,55,53,52,50,48,46,45,44,45,45,46,47,47,48,50,52,55,57,59,63,66,66,63,58,56,54,52,50,48,47,44,42,40,38,36,33,26,14,9,5,3,7,14,21,28,35,42,48,54,58,59,59,56,54,51,49,52,57,61,65,67,62,52,37,20,13,9,6,4,4,5,7,10,12,14,16,18,20,22,22,22,21,19,16,12,6,-2,-3,5,28,84,165,260,358,456,546,612,636,633,591,507,406,296,186,97,47,24,6,-11,-27,-38,-50,-57,-63,-68,-70,-69,-66,-62,-61,-60,-59,-58,-57,-55,-53,-51,-48,-46,-44,-42,-40,-38,-35,-31,-22,-17,-14,-12,-8,-6,-5,-8,-13,-16,-19,-22,-24,-26,-28,-31,-34,-36,-37,-38,-39,-40,-41,-45,-48,-48,-43,-34,-21,0,16,27,28,18,3,-13,-24,-32,-44,-54,-63,-67,-64,-59,-54,-48,-45,-50,-60,-69,-79,-87,-93,-98,-103,-107,-109,-106,-100,-92,-87,-83,-80,-77,-74,-72,-71,-72,-75,-78,-82,-85,-88,-92,-95,-99,-102,-104,-106,-107,-107,-107,-107,-106,-103,-101,-98,-96,-94,-90,-86,-81,-76,-70,-65,-61,-56,-53,-50,-49,-48,-45,-41,-50,-58,-63,-68,-70,-70,-67,-62,-56,-51,-46,-40,-36,-32,-28,-22,-14,-7,0,6,6,-3,-11,-19,-25,-29,-33,-39,-45,-45,-35,-27,-18,-13,-17,-24,-30,-35,-40,-41,-38,-32,-26,-20,-14,-9,-4,0,5,28,65,113,175,254,353,469,581,664,694,653,538,379,229,117,50,30,32,62,104,133,144,144,135,122,100,74,55,44,36,37,48,55,59,62,65,67,68,69,69,70,69,69,68,67,66,65,64,61,57,57,60,68,80,94,98,100,102,103,105,108,110,112,115,122,134,141,144,146,147,147,145,142,139,135,129,122,112,106,100,94,90,87,85,83,82,80,77,74,70,66,62,59,56,56,57,58,59,61,60,51,42,31,20,3,-11,-18,-22,-25,-27,-29,-27,-24,-19,-13,-5,5,12,18,22,25,28,29,30,31,32,32,31,28,25,21,17,13,8,0,-7,-13,-20,-27,-35,-39,-35,-24,-8,12,24,32,37,39,40,41,43,44,47,52,58,62,66,70,74,76,76,75,72,68,65,61,55,51,52,53,54,55,55,56,54,50,44,37,27,15,4,-3,-11,-18,-24,-31,-36,-38,-36,-30,-24,-19,-15,-12,-8,-3,0,4,11,21,61,148,273,426,569,668,702,702,665,579,456,323,206,111,32,-28,-58,-68,-74,-77,-79,-81,-82,-83,-83,-82,-80,-76,-71,-65,-59,-50,-43,-41,-40,-38,-37,-35,-35,-37,-42,-48,-54,-59,-64,-66,-65,-60,-54,-47,-38,-29,-21,-15,-10,-6,-2,0,3,5,7,12,20,29,34,37,39,41,42,44,46,48,49,50,52,54,56,59,65,69,63,51,43,35,28,21,14,7,0,-10,-22,-35,-51,-68,-81,-87,-92,-97,-100,-102,-100,-96,-91,-87,-84,-82,-79,-76,-73,-71,-69,-69,-69,-69,-69,-70,-72,-73,-75,-76,-78,-79,-80,-81,-83,-85,-87,-89,-91,-93,-93,-93,-91,-89,-86,-83,-80,-77,-75,-73,-71,-69,-68,-67,-65,-62,-60,-57,-53,-50,-46,-43,-39,-36,-33,-30,-25,-17,-9,-5,-1,1,3,6,9,13,15,16,14,11,6,2,-1,-5,-9,-14,-20,-25,-32,-47,-63,-68,-72,-74,-75,-73,-68,-62,-51,-33,-21,-13,-9,-13,-22,-37,-54,-64,-71,-63,-37,21,120,260,417,565,678,732,736,699,602,477,343,216,120,58,13,-12,-33,-49,-65,-78,-87,-95,-99,-102,-105,-109,-113,-112,-107,-99,-94,-91,-87,-84,-80,-76,-72,-69,-66,-62,-57,-48,-33,-27,-24,-22,-21,-21,-19,-16,-12,-7,-3,1,4,8,11,14,17,19,23,26,28,31,35,39,47,65,84,108,123,130,136,139,141,141,139,135,129,121,106,82,63,50,45,42,38,35,34,35,40,45,48,51,54,57,60,60,58,55,51,47,43,39,33,28,23,18,13,9,5,1,-3,-7,-12,-18,-32,-50,-60,-67,-66,-57,-44,-25,-12,-5,-1,1,1,0,-4,-7,-10,-13,-16,-20,-23,-25,-28,-31,-35,-41,-50,-57,-63,-68,-73,-76,-78,-77,-73,-68,-60,-43,-21,0,14,22,30,36,42,48,55,59,54,45,38,31,24,16,8,-6,-24,-31,-34,-37,-40,-42,-43,-44,-44,-44,-44,-44,-43,-42,-39,-37,-35,-33,-31,-28,-24,-18,-14,-10,-5,13,43,90,157,242,347,472,606,714,745,733,638,477,286,108,-20,-73,-90,-98,-102,-104,-107,-110,-113,-115,-110,-102,-97,-93,-89,-86,-83,-80,-78,-76,-73,-70,-67,-63,-59,-53,-48,-48,-53,-58,-61,-65,-69,-71,-71,-69,-66,-62,-47,-15,-2,1,3,5,6,7,8,10,13,16,20,26,32,46,68,77,82,86,89,90,89,87,84,81,77,73,67,61,56,49,36,24,21,18,16,14,13,13,14,14,14,15,15,16,16,16,16,16,15,14,13,11,8,5,1,-2,-8,-13,-12,-3,6,13,19,24,29,33,36,39,41,43,45,47,50,52,53,54,53,49,44,37,25,10,6,4,1,0,0,0,1,4,8,12,17,22,29,37,42,43,45,47,50,53,53,48,44,39,37,40,47,51,55,58,60,61,59,57,54,52,48,45,43,44,48,52,57,62,67,66,60,51,42,31,24,20,18,15,12,10,9,11,14,20,29,61,109,192,313,461,609,727,771,765,692,548,374,219,123,80,61,39,4,-17,-32,-39,-44,-48,-51,-54,-55,-56,-59,-65,-77,-84,-89,-92,-94,-92,-86,-79,-68,-54,-48,-44,-39,-38,-44,-47,-50,-52,-53,-51,-48,-41,-34,-24,-12,-7,-3,0,2,4,6,8,10,13,15,18,21,25,32,47,60,70,77,82,86,89,92,97,103,107,106,99,90,85,81,77,74,71,67,64,61,58,56,53,50,46,37,16,-2,-15,-24,-30,-35,-39,-39,-33,-26,-21,-16,-12,-8,-5,-4,-3,-3,-2,-2,-1,0,0,1,1,2,3,3,2,1,1,0,-1,-3,-6,-9,-13,-23,-37,-43,-47,-49,-44,-35,-29,-25,-22,-20,-17,-13,-9,-5,-1,2,7,11,16,20,25,27,28,29,30,31,32,34,35,32,25,20,14,8,0,-7,-12,-15,-19,-22,-25,-25,-25,-24,-22,-19,-16,-12,-7,1,6,2,-6,-17,-30,-38,-44,-50,-48,-32,11,74,144,226,325,429,520,559,555,493,381,251,126,32,-18,-41,-58,-76,-96,-112,-119,-123,-125,-126,-125,-122,-116,-108,-95,-73,-64,-59,-55,-52,-50,-48,-48,-48,-49,-51,-53,-56,-59,-62,-65,-70,-75,-81,-87,-92,-96,-100,-103,-106,-108,-109,-108,-106,-101,-96,-91,-84,-73,-65,-59,-51,-42,-29,-21,-16,-12,-8,-4,-1,0,3,6,8,11,15,19,21,21,20,17,14,10,2,-16,-33,-44,-49,-52,-54,-56,-58,-59,-59,-56,-51,-47,-42,-35,-27,-19,-8,2,9,13,17,20,20,15,8,2,-3,-8,-10,-8,-3,0,1,2,4,6,8,10,11,13,14,15,17,18,19,19,20,22,28,29,26,23,21,19,17,16,15,13,10,9,10,15,19,23,26,30,35,39,45,50,50,45,37,28,18,11,6,3,0,-2,-5,-9,-13,-19,-31,-49,-64,-80,-91,-97,-103,-111,-119,-125,-131,-136,-140,-144,-148,-151,-154,-159,-165,-170,-170,-166,-158,-133,-71,18,131,252,366,466,545,577,539,442,311,167,32,-73,-142,-189,-211,-219,-208,-175,-137,-116,-108,-115,-122,-128,-132,-131,-122,-110,-99,-87,-78,-77,-81,-87,-93,-100,-99,-87,-80,-76,-73,-70,-68,-66,-65,-63,-62,-60,-58,-56,-50,-35,-19,-4,6,12,21,32,42,52,62,71,76,80,83,85,86,87,86,85,81,77,72,63,50,48,47,46,45,44,43,43,42,41,39,36,32,27,21,8,-13,-31,-50,-67,-80,-95,-104,-111,-116,-120,-121,-121,-119,-117,-114,-109,-99,-78,-63,-54,-48,-47,-50,-54,-58,-62,-65,-67,-65,-58,-51,-46,-42,-38,-34,-30,-26,-22,-19,-16,-12,-9,-5,-1,2,5,7,9,12,16,21,28,35,44,57,76,92,102,105,106,108,110,106,96,83,69,63,58,54,55,67,85,99,103,107,108,103,90,71,48,29,9,0,-4,-8,-11,-13,-14,-15,-14,-13,-11,-8,-5,-2,0,4,7,10,12,15,20,36,83,155,249,359,482,613,743,850,889,880,793,650,496,346,199,74,-9,-36,-45,-32,-20,-9,-4,-6,-10,-15,-20,-23,-19,-8,7,24,29,32,35,36,36,34,29,24,20,14,9,7,9,14,21,29,39,50,62,76,91,101,106,108,110,112,113,113,113,114,116,118,120,121,123,125,126,129,132,136,142,157,179,188,194,198,198,194,190,186,181,176,169,162,153,144,134,126,113,92,68,37,19,12,6,1,-2,-5,-7,-9,-9,-9,-8,-6,-4,-1,1,4,8,13,19,32,37,38,40,41,27,12,1,-6,-12,-15,-18,-19,-21,-23,-26,-29,-31,-35,-38,-41,-44,-46,-49,-52,-56,-60,-64,-68,-69,-69,-68,-65,-61,-57,-51,-41,-29,-15,-4,3,10,17,23,29,34,40,46,52,56,55,52,47,40,28,7,-10,-23,-46,-57,-63,-68,-72,-76,-79,-82,-85,-88,-90,-92,-94,-96,-97,-98,-101,-106,-111,-113,-111,-105,-99,-91,-82,-73,-65,-38,4,74,177,308,461,606,694,700,645,498,314,138,9,-61,-92,-110,-124,-142,-159,-176,-177,-166,-159,-154,-149,-145,-145,-146,-148,-151,-155,-161,-158,-141,-116,-91,-82,-75,-70,-66,-65,-68,-73,-79,-86,-96,-101,-96,-86,-78,-69,-63,-62,-63,-65,-66,-68,-70,-70,-67,-58,-50,-44,-39,-34,-28,-22,-16,-10,-5,0,8,22,42,50,53,56,58,60,60,55,47,38,30,21,13,5,0,-3,-7,-16,-35,-52,-61,-69,-78,-87,-95,-103,-109,-108,-101,-92,-85,-77,-68,-58,-47,-37,-26,-19,-18,-20,-23,-25,-28,-31,-35,-38,-42,-46,-50,-55,-60,-65,-70,-74,-78,-82,-87,-91,-93,-92,-89,-85,-81,-77,-74,-71,-67,-62,-58,-55,-53,-51,-49,-45,-41,-35,-28,-17,-11,-14,-20,-23,-25,-26,-29,-31,-33,-36,-39,-42,-45,-48,-50,-52,-54,-56,-58,-60,-63,-66,-70,-73,-76,-79,-82,-85,-87,-88,-89,-90,-92,-96,-102,-110,-113,-112,-106,-96,-81,-59,-29,11,70,153,269,403,524,610,642,636,576,460,324,204,116,53,28,21,17,14,11,9,9,10,12,16,21,27,35,53,85,104,116,123,123,116,108,104,101,98,94,90,86,83,82,81,80,81,83,86,90,95,100,105,110,114,120,127,133,135,134,134,135,136,137,139,140,140,140,140,141,142,144,146,150,154,158,164,173,181,182,176,167,151,124,100,83,66,51,37,27,21,15,9,1,-7,-22,-48,-62,-68,-72,-76,-78,-82,-85,-89,-92,-94,-96,-99,-103,-112,-126,-129,-130,-131,-131,-133,-134,-135,-136,-136,-135,-135,-133,-131,-129,-126,-122,-118,-114,-109,-100,-92,-91,-93,-96,-99,-101,-104,-107,-110,-115,-120,-125,-131,-137,-141,-144,-146,-150,-157,-156,-140,-130,-121,-114,-109,-108,-112,-118,-124,-130,-137,-144,-147,-145,-141,-136,-131,-125,-120,-120,-125,-133,-142,-152,-159,-163,-166,-169,-172,-174,-176,-178,-179,-181,-184,-186,-189,-193,-201,-199,-177,-118,-25,86,200,312,417,477,497,481,432,351,244,132,43,3,-9,-18,-26,-34,-41,-46,-50,-54,-57,-61,-64,-68,-73,-79,-85,-88,-87,-85,-82,-80,-78,-76,-75,-75,-77,-80,-83,-86,-88,-87,-78,-65,-51,-34,-24,-17,-10,-2,7,19,27,32,37,42,48,53,59,64,69,73,77,81,85,89,92,96,100,105,111,118,125,131,135,140,145,150,153,154,153,149,145,140,136,132,124,116,110,105,101,97,94,89,83,76,68,55,42,40,40,39,38,39,47,57,64,69,74,79,84,88,93,98,101,104,108,112,115,117,117,115,112,109,104,99,92,81,72,65,61,57,54,51,50,49,48,48,49,51,52,55,58,62,66,70,75,80,85,89,91,93,93,94,95,96,98,100,101,101,100,99,98,97,96,94,92,90,91,94,97,101,106,109,104,93,83,71,61,54,42,23,6,-6,-19,-28,-36,-41,-42,-37,-30,-8,40,105,194,308,442,581,700,787,814,805,731,591,427,290,189,114,61,26,5,-14,-38,-66,-81,-86,-89,-87,-72,-62,-54,-48,-42,-39,-36,-34,-32,-29,-25,-23,-21,-21,-22,-24,-27,-31,-37,-45,-45,-34,-28,-25,-22,-20,-17,-14,-11,-9,-6,-4,0,4,26,61,77,84,89,93,94,89,82,72,60,48,43,40,38,36,34,32,30,29,27,26,24,23,21,20,18,16,11,5,0,-4,-15,-26,-31,-35,-37,-38,-36,-32,-29,-26,-23,-21,-21,-21,-20,-19,-19,-19,-20,-20,-21,-22,-23,-25,-26,-28,-30,-32,-35,-40,-50,-55,-58,-61,-62,-58,-49,-38,-25,-17,-10,-5,-2,-3,-9,-17,-26,-37,-47,-54,-64,-75,-84,-91,-98,-101,-99,-92,-81,-63,-43,-23,-10,-4,0,4,8,12,16,24,41,54,62,67,66,62,54,41,21,1,-20,-38,-51,-61,-70,-79,-92,-103,-112,-117,-120,-124,-128,-119,-103,-87,-71,-54,-40,-31,-23,-14,0,21,67,143,246,366,508,666,812,892,896,838,707,536,344,168,53,18,7,0,-4,-22,-52,-62,-66,-60,-50,-39,-26,-23,-22,-23,-23,-23,-27,-34,-38,-42,-45,-47,-49,-49,-47,-44,-39,-29,-14,-6,-1,1,-2,-11,-20,-31,-31,-24,-17,-11,-3,5,19,35,42,45,49,53,57,62,68,78,92,102,112,121,131,138,145,148,144,135,124,111,100,90,80,70,61,54,48,44,40,39,39,39,39,39,39,40,40,41,41,40,40,39,38,37,37,36,34,32,30,27,18,0,-9,-15,-20,-23,-22,-17,-10,0,21,47,63,70,76,76,69,63,58,53,45,37,30,22,17,19,24,27,28,30,31,32,33,34,35,37,38,40,41,43,44,46,48,50,52,54,55,58,61,64,67,70,73,77,81,88,94,99,104,109,113,115,114,111,106,99,86,69,64,61,59,57,54,51,47,43,39,34,29,23,17,16,17,21,26,45,96,188,321,476,623,743,791,785,704,565,420,302,219,157,105,64,42,25,11,-2,-15,-29,-45,-67,-96,-124,-142,-151,-161,-178,-200,-223,-237,-244,-250,-253,-253,-249,-242,-233,-215,-184,-168,-161,-156,-152,-148,-144,-140,-136,-133,-130,-127,-125,-122,-119,-115,-111,-109,-108,-109,-111,-113,-116,-121,-129,-116,-78,-31,-8,13,33,44,52,56,56,52,45,40,37,34,31,26,22,16,10,3,-6,-19,-31,-40,-46,-50,-54,-58,-60,-61,-60,-58,-54,-51,-49,-47,-44,-42,-39,-36,-32,-28,-25,-21,-16,-12,-8,-5,-3,0,2,6,10,14,18,21,25,28,32,35,38,42,47,52,57,61,64,66,69,75,84,84,74,67,60,53,50,50,53,57,59,60,62,64,66,68,71,74,78,80,83,85,86,87,88,90,92,95,98,101,105,108,111,113,114,113,112,110,108,105,103,100,97,94,90,86,77,55,43,31,20,21,34,72,141,234,349,479,598,679,726,742,729,686,570,424,283,177,100,57,42,55,67,77,83,83,77,69,61,50,45,43,39,34,45,51,54,57,60,62,64,67,70,74,77,80,83,87,97,120,132,138,142,144,147,149,151,154,157,159,160,161,162,165,168,169,168,163,156,150,145,141,138,134,130,127,124,122,121,119,117,115,113,111,109,107,103,97,90,82,72,57,46,39,28,9,-11,-35,-50,-58,-64,-68,-72,-76,-79,-82,-86,-90,-95,-101,-108,-115,-121,-126,-130,-133,-136,-138,-138,-138,-137,-135,-131,-127,-123,-119,-112,-102,-90,-78,-65,-63,-63,-62,-61,-59,-57,-58,-58,-59,-58,-58,-58,-59,-60,-61,-62,-63,-63,-63,-63,-64,-64,-64,-62,-59,-54,-49,-39,-22,-15,-10,-6,-4,-4,-5,-7,-11,-15,-20,-26,-36,-46,-55,-60,-65,-70,-73,-76,-77,-77,-76,-75,-73,-71,-67,-60,-76,-103,-132,-151,-164,-169,-163,-147,-104,-23,77,188,297,398,482,539,559,548,511,416,290,152,26,-67,-89,-94,-97,-102,-108,-116,-131,-149,-158,-164,-167,-164,-158,-154,-151,-150,-149,-148,-146,-141,-136,-129,-123,-118,-111,-104,-98,-93,-87,-81,-74,-68,-61,-54,-48,-42,-32,-20,-17,-15,-14,-13,-12,-11,-12,-15,-18,-23,-27,-31,-36,-41,-45,-46,-44,-39,-32,-25,-19,-9,-1,1,5,8,12,15,16,14,10,6,3,0,-2,-6,-10,-14,-18,-22,-27,-33,-39,-45,-51,-58,-66,-70,-66,-59,-55,-51,-47,-44,-42,-43,-45,-46,-48,-51,-54,-57,-61,-64,-65,-63,-60,-57,-54,-51,-47,-45,-45,-50,-56,-62,-66,-71,-76,-81,-85,-85,-84,-81,-78,-75,-72,-69,-65,-59,-53,-45,-37,-29,-20,-10,-1,7,13,18,24,29,34,37,39,37,34,30,26,21,16,7,-1,-9,-18,-30,-44,-49,-52,-55,-57,-59,-59,-60,-59,-59,-58,-56,-54,-51,-48,-45,-41,-37,-33,-28,-24,-19,-15,-11,-8,-3,4,37,114,225,348,472,600,713,766,765,708,585,427,264,127,31,-12,-29,-44,-54,-62,-68,-72,-72,-71,-69,-67,-64,-60,-59,-64,-75,-87,-101,-109,-113,-117,-121,-122,-120,-114,-106,-100,-93,-87,-80,-73,-67,-58,-47,-41,-39,-36,-34,-33,-32,-34,-38,-42,-47,-53,-57,-51,-40,-32,-24,-17,-11,-6,0,7,20,34,45,54,59,61,62,63,65,63,50,37,25,15,7,2,-2,-6,-9,-10,-11,-12,-14,-15,-17,-16,-10,-6,-2,0,0,-4,-10,-16,-23,-29,-33,-37,-41,-46,-48,-43,-34,-28,-24,-20,-17,-15,-13,-13,-14,-15,-17,-20,-24,-29,-35,-47,-61,-68,-73,-77,-81,-84,-86,-87,-87,-86,-85,-83,-81,-77,-73,-66,-56,-44,-29,-12,0,18,39,50,55,59,61,64,67,69,70,73,76,83,94,100,103,102,91,82,74,66,57,51,45,40,38,39,41,43,48,54,47,41,37,34,32,31,32,34,37,41,45,53,65,73,91,129,202,316,463,625,781,907,962,955,868,699,511,347,237,187,168,159,138,99,52,10,-6,-13,-16,-18,-20,-21,-24,-27,-30,-33,-36,-40,-45,-47,-48,-48,-46,-43,-41,-37,-31,-40,-48,-54,-56,-51,-42,-34,-26,-17,-9,-1,14,25,27,29,30,32,35,38,39,40,42,45,50,56,79,104,111,116,120,123,126,128,131,136,143,152,163,181,196,202,206,194,157,120,87,69,51,36,30,27,25,23,22,22,22,23,26,29,34,38,41,45,49,52,55,57,57,55,52,47,42,37,33,27,22,16,13,12,11,11,10,9,6,6,16,24,31,38,44,50,54,60,64,65,64,61,58,54,58,61,62,63,63,64,64,65,67,70,74,79,84,91,106,128,137,142,147,155,164,171,177,183,188,191,191,189,185,181,176,169,159,150,142,134,124,110,96,83,74,69,65,63,61,60,58,56,53,51,48,45,39,31,32,51,100,188,305,435,558,659,731,764,765,734,653,536,404,279,168,81,34,18,12,9,6,3,0,-4,-11,-20,-27,-33,-40,-45,-47,-45,-40,-35,-31,-29,-26,-24,-20,-17,-14,-11,-9,-7,-5,-1,1,2,3,3,3,4,5,7,8,7,3,-2,-6,-9,-11,-14,-16,-19,-20,-20,-18,-15,-13,-10,-8,-4,0,1,2,0,-4,-9,-15,-23,-31,-41,-50,-60,-64,-63,-61,-59,-58,-57,-55,-54,-53,-53,-54,-56,-58,-61,-65,-72,-74,-71,-68,-65,-63,-63,-68,-76,-85,-97,-109,-120,-129,-134,-131,-121,-110,-95,-78,-65,-53,-47,-52,-61,-67,-72,-77,-80,-80,-76,-69,-63,-59,-55,-51,-48,-44,-41,-40,-41,-43,-45,-47,-48,-50,-52,-55,-57,-59,-60,-61,-61,-60,-59,-56,-53,-49,-44,-38,-26,-2,10,18,23,23,16,6,-4,-20,-32,-49,-66,-73,-76,-78,-80,-82,-84,-84,-85,-86,-87,-88,-88,-88,-86,-85,-83,-81,-79,-76,-73,-68,-63,-57,-22,62,176,298,407,491,537,542,520,447,349,236,110,-2,-76,-98,-106,-97,-90,-84,-80,-79,-81,-86,-92,-96,-100,-103,-106,-108,-107,-103,-97,-90,-85,-79,-73,-69,-65,-62,-59,-57,-56,-55,-53,-51,-49,-48,-48,-48,-50,-51,-53,-54,-57,-62,-52,-45,-41,-37,-34,-31,-28,-25,-23,-20,-15,-8,3,14,28,49,61,66,71,75,78,78,78,76,73,70,65,60,52,37,20,10,4,0,-2,-5,-10,-15,-19,-23,-27,-30,-36,-42,-45,-45,-42,-35,-27,-15,0,0,0,0,2,3,4,4,5,5,6,8,9,11,12,13,15,17,20,22,25,27,31,36,42,48,54,60,69,78,83,87,89,92,94,96,98,99,98,96,90,83,75,63,45,39,34,30,27,27,32,40,52,71,79,83,87,90,92,93,94,94,93,92,91,90,87,83,78,69,50,35,25,25,37,46,54,60,63,60,53,43,25,-2,-21,-34,-34,-24,4,53,127,235,368,499,611,692,727,692,599,471,337,222,132,63,15,-9,-21,-27,-31,-35,-37,-40,-43,-45,-48,-51,-55,-61,-66,-66,-61,-54,-49,-43,-38,-31,-23,-15,-10,-5,-1,2,5,6,6,4,2,0,-2,-4,-6,-8,-11,-13,-15,-16,-17,-17,-15,-12,-7,0,15,39,48,54,57,61,64,68,72,76,80,85,91,98,100,97,89,81,73,65,56,50,45,40,33,22,13,0,-16,-33,-45,-51,-54,-53,-42,-25,-9,-4,0,2,3,3,0,-6,-14,-25,-40,-50,-58,-64,-69,-73,-77,-80,-83,-85,-88,-89,-90,-90,-88,-86,-83,-78,-70,-57,-51,-49,-47,-45,-43,-42,-41,-41,-41,-41,-41,-42,-43,-44,-46,-49,-51,-53,-58,-66,-55,-38,-17,-1,10,20,33,46,50,53,56,58,59,59,58,55,53,50,46,41,29,17,1,-17,-31,-39,-43,-42,-39,-36,-32,-43,-53,-59,-64,-67,-68,-67,-64,-61,-56,-48,-33,-21,-10,0,26,68,129,210,311,423,531,625,704,740,736,677,547,369,179,15,-95,-132,-131,-106,-92,-83,-89,-117,-132,-138,-142,-130,-112,-89,-65,-48,-43,-39,-36,-36,-41,-48,-61,-82,-97,-107,-110,-107,-102,-97,-91,-84,-76,-63,-41,-25,-17,-11,-4,0,4,11,20,29,37,43,51,60,66,70,73,76,79,81,83,85,87,90,94,97,94,87,84,81,78,76,74,72,70,69,68,67,64,61,48,18,1,-3,-6,-7,-7,-6,-2,2,10,25,33,37,41,44,46,46,45,42,40,38,36,35,34,32,30,28,27,27,27,27,27,27,28,29,30,30,31,31,32,32,35,40,38,25,15,8,2,-1,-1,2,8,15,25,41,54,63,68,72,77,82,88,94,102,120,145,157,164,169,168,160,151,144,138,133,128,124,122,119,116,113,109,104,97,88,77,63,51,39,28,20,10,-4,-23,-44,-63,-76,-87,-92,-96,-99,-101,-102,-103,-104,-103,-102,-98,-94,-87,-79,-44,23,129,265,409,546,662,716,715,658,548,414,276,150,39,-52,-124,-185,-223,-237,-238,-231,-226,-221,-217,-215,-216,-218,-221,-224,-228,-228,-218,-204,-189,-180,-174,-175,-184,-189,-191,-192,-194,-196,-198,-200,-201,-202,-203,-203,-204,-204,-205,-206,-206,-209,-203,-181,-159,-146,-139,-134,-128,-121,-114,-109,-105,-101,-98,-95,-92,-90,-89,-88,-86,-85,-84,-82,-81,-78,-73,-73,-84,-95,-107,-120,-126,-130,-133,-136,-138,-141,-143,-146,-148,-150,-152,-155,-158,-161,-167,-172,-172,-165,-155,-145,-134,-121,-109,-102,-96,-91,-87,-84,-83,-82,-83,-85,-88,-91,-93,-95,-98,-102,-106,-110,-112,-110,-107,-102,-99,-97,-95,-94,-91,-88,-86,-83,-79,-76,-73,-71,-70,-69,-67,-64,-54,-32,-21,-16,-12,-9,-5,-1,2,6,9,12,17,29,55,86,111,127,139,139,124,116,112,108,103,99,96,92,88,83,79,74,69,63,58,54,52,51,51,51,50,49,48,48,50,56,64,73,85,94,102,128,167,225,304,400,508,614,710,809,896,944,943,889,756,586,419,280,185,137,113,91,69,53,43,38,36,34,31,28,26,31,43,63,83,90,95,99,101,100,98,94,91,86,82,83,88,95,98,100,102,105,107,110,112,116,119,122,125,128,131,135,140,149,157,162,166,170,175,179,180,176,167,159,155,152,150,148,146,144,141,139,138,136,134,133,132,131,131,130,129,129,128,127,126,124,122,120,117,115,111,100,90,80,71,63,57,57,60,64,67,72,75,75,71,65,58,48,41,35,30,31,43,57,70,76,80,84,87,89,86,80,74,70,67,63,60,57,54,51,49,46,45,44,43,43,42,41,38,33,30,36,49,56,61,66,70,74,79,83,86,90,95,101,109,116,115,108,98,81,54,32,15,-1,-15,-28,-39,-50,-59,-67,-74,-77,-79,-80,-81,-82,-83,-84,-84,-83,-80,-75,-69,-60,-47,-35,-25,-16,-8,0,13,33,69,128,229,371,517,633,676,669,593,449,280,141,49,-1,-26,-39,-47,-52,-54,-53,-51,-48,-45,-40,-41,-55,-67,-78,-87,-97,-102,-106,-110,-113,-116,-118,-120,-120,-120,-119,-118,-116,-113,-109,-105,-100,-88,-74,-61,-48,-29,-15,-4,4,10,15,19,21,23,25,27,29,30,30,31,31,31,32,32,33,34,35,36,37,38,38,40,41,44,46,47,49,54,67,72,76,80,82,74,58,51,46,42,37,33,29,27,26,25,26,27,29,31,33,37,40,44,48,56,63,66,64,60,55,52,48,45,42,41,42,45,49,53,57,63,68,72,72,68,61,55,51,48,46,44,42,40,38,36,35,34,32,30,28,26,25,24,23,21,20,19,18,16,12,7,5,8,15,24,33,44,51,52,53,55,57,59,59,59,54,46,35,21,0,-11,-21,-28,-34,-40,-45,-50,-54,-59,-62,-62,-59,-54,-48,-43,-36,-30,-29,-32,-36,-46,-45,-15,36,101,173,253,349,456,555,599,593,513,379,233,98,-3,-52,-66,-75,-85,-95,-103,-107,-109,-112,-114,-117,-119,-120,-121,-123,-124,-125,-126,-126,-126,-125,-124,-124,-124,-124,-124,-125,-125,-126,-127,-128,-129,-130,-130,-131,-133,-137,-148,-154,-160,-167,-166,-152,-142,-133,-124,-114,-104,-98,-93,-89,-85,-81,-77,-74,-70,-68,-65,-61,-57,-52,-42,-25,-21,-17,-12,-25,-37,-45,-53,-61,-69,-86,-99,-103,-107,-108,-107,-106,-105,-104,-104,-106,-109,-114,-120,-129,-132,-134,-135,-137,-138,-139,-139,-138,-136,-133,-130,-127,-122,-115,-103,-92,-75,-60,-55,-53,-52,-50,-49,-49,-48,-48,-48,-49,-49,-50,-51,-52,-54,-55,-57,-59,-61,-63,-63,-64,-65,-66,-67,-66,-65,-63,-60,-56,-52,-46,-34,-25,-15,0,13,24,34,43,49,55,61,66,71,77,83,89,95,99,102,105,109,112,115,118,120,122,124,126,128,129,128,127,125,122,119,114,108,98,90,85,81,77,73,74,77,83,93,112,150,225,338,479,639,778,854,863,834,731,567,376,213,99,20,-33,-51,-56,-59,-62,-63,-63,-63,-61,-59,-56,-52,-49,-45,-43,-47,-53,-60,-64,-68,-71,-76,-80,-85,-89,-93,-97,-102,-106,-110,-111,-109,-104,-98,-91,-84,-75,-67,-63,-61,-58,-50,-19,17,38,54,67,77,91,112,137,159,171,178,184,190,194,199,205,208,206,202,199,197,195,193,190,186,182,174,163,154,148,146,144,143,140,137,135,132,130,127,125,120,117,115,117,122,129,140,159,169,174,178,182,185,187,190,193,198,197,186,171,150,136,128,122,115,109,102,94,90,93,100,107,114,114,108,104,101,98,95,91,86,78,64,45,33,23,10,-8,-29,-52,-67,-72,-76,-78,-79,-79,-79,-76,-72,-68,-62,-52,-42,-31,-21,-14,2,28,53,62,65,62,56,50,45,40,35,28,8,-22,-56,-75,-90,-102,-116,-123,-128,-132,-136,-138,-138,-138,-138,-136,-134,-131,-119,-83,-41,-1,45,116,214,337,472,594,660,661,599,451,269,106,-13,-85,-126,-163,-199,-233,-249,-260,-266,-252,-228,-214,-211,-208,-209,-219,-229,-240,-246,-251,-255,-254,-244,-235,-228,-221,-214,-203,-186,-173,-166,-161,-161,-167,-174,-180,-186,-191,-195,-196,-196,-196,-195,-193,-191,-188,-189,-201,-209,-215,-220,-224,-225,-223,-221,-217,-212,-202,-181,-161,-147,-138,-130,-124,-115,-105,-98,-92,-87,-84,-83,-82,-81,-79,-78,-77,-77,-81,-86,-92,-99,-100,-96,-94,-93,-91,-91,-90,-91,-93,-97,-101,-108,-119,-120,-111,-98,-79,-70,-66,-63,-61,-59,-56,-53,-49,-45,-40,-35,-25,-9,8,19,26,32,36,39,41,42,44,45,46,47,48,48,44,38,31,24,17,11,8,6,4,2,1,0,-1,-3,-3,-3,-1,0,2,4,6,9,11,14,18,22,25,28,29,31,32,33,34,34,35,36,38,39,41,43,45,46,47,48,50,51,52,53,55,58,64,71,73,71,65,57,48,36,35,48,82,160,265,387,529,686,831,925,938,906,786,630,462,313,208,145,109,90,73,56,38,23,15,10,6,4,4,6,9,11,12,13,15,16,19,23,27,33,39,48,63,75,85,93,100,104,108,111,114,117,119,119,116,111,105,97,85,67,54,44,36,33,35,42,50,64,87,114,137,150,158,164,169,173,176,179,182,184,184,183,179,173,164,148,121,103,92,81,72,61,48,38,31,26,22,23,29,37,42,46,50,53,55,57,57,57,56,52,47,42,37,31,27,24,19,15,11,8,5,2,0,-2,-4,-5,-7,-7,-8,-8,-9,-9,-10,-12,-13,-14,-14,-12,-7,0,5,11,17,24,31,36,40,44,47,49,52,54,57,60,62,63,64,66,67,68,68,68,66,64,62,59,56,52,49,47,44,41,34,27,24,23,22,20,19,18,17,21,31,38,47,52,53,46,36,19,-6,-29,-44,-49,-56,-53,-21,28,93,177,284,404,520,617,663,678,662,613,517,391,262,158,88,44,21,8,1,-4,-11,-18,-26,-39,-55,-60,-62,-63,-65,-66,-66,-66,-65,-64,-62,-59,-54,-50,-43,-31,-15,-7,-2,0,3,4,6,8,12,15,17,20,23,27,32,40,54,64,71,77,82,89,97,105,114,123,128,123,116,114,112,111,110,109,108,108,107,106,105,104,102,101,100,99,97,95,92,89,86,83,78,64,55,47,43,40,37,35,34,33,33,35,39,45,50,55,59,64,69,73,77,79,80,79,78,76,74,72,70,67,65,62,60,57,54,50,47,45,43,41,39,35,27,18,9,4,0,-4,-8,-13,-17,-21,-25,-28,-33,-39,-50,-59,-66,-74,-83,-82,-65,-55,-48,-42,-36,-30,-25,-21,-18,-14,-10,-6,-1,2,3,2,0,-4,-9,-16,-29,-52,-73,-96,-114,-126,-134,-140,-144,-148,-152,-154,-156,-157,-157,-158,-158,-156,-153,-149,-143,-135,-125,-84,4,117,237,345,421,442,450,427,354,249,130,16,-74,-136,-150,-152,-153,-155,-156,-154,-148,-142,-139,-135,-131,-128,-125,-123,-121,-121,-121,-122,-124,-126,-129,-133,-137,-141,-145,-148,-155,-161,-165,-165,-160,-154,-148,-142,-137,-130,-124,-119,-113,-107,-99,-91,-82,-73,-63,-52,-40,-26,-12,0,11,21,29,37,46,57,66,72,76,80,83,85,85,83,77,69,54,25,6,-2,-10,-16,-22,-27,-31,-37,-42,-48,-53,-59,-70,-89,-110,-126,-137,-145,-145,-142,-140,-140,-139,-139,-139,-139,-140,-139,-138,-137,-136,-136,-135,-135,-135,-135,-135,-134,-134,-134,-134,-132,-126,-127,-137,-143,-148,-152,-154,-153,-149,-144,-138,-125,-105,-94,-87,-82,-80,-84,-93,-102,-109,-115,-122,-128,-132,-133,-132,-129,-124,-119,-106,-94,-91,-89,-86,-83,-77,-71,-63,-52,-52,-65,-86,-99,-101,-102,-103,-104,-104,-103,-102,-100,-98,-95,-89,-86,-90,-98,-103,-107,-110,-112,-114,-116,-117,-118,-118,-117,-115,-111,-106,-100,-75,-23,53,155,275,401,519,616,665,666,620,497,322,137,-13,-105,-134,-144,-131,-116,-104,-103,-109,-116,-122,-122,-111,-95,-74,-53,-32,-21,-16,-12,-8,-4,-1,1,4,9,20,32,40,44,47,50,53,57,60,62,63,66,71,79,87,95,103,113,113,107,103,98,97,102,112,121,131,141,151,168,183,188,192,195,196,196,193,189,184,180,176,173,170,166,162,159,156,153,148,138,118,104,92,81,69,57,48,42,39,35,32,29,26,23,20,16,13,15,18,19,21,22,23,23,23,23,25,28,30,33,35,37,39,42,46,49,52,54,56,57,58,58,59,58,57,56,55,54,52,49,47,43,37,31,25,16,9,4,0,-1,-2,-4,-5,-7,-8,-9,-9,-9,-9,-9,-8,-7,-5,-3,-2,0,3,-11,-24,-30,-36,-41,-47,-52,-57,-62,-68,-74,-80,-87,-92,-98,-106,-111,-112,-112,-111,-111,-110,-109,-109,-111,-117,-125,-137,-160,-177,-189,-189,-173,-127,-34,90,231,376,511,618,681,689,667,581,445,279,110,-33,-100,-124,-132,-128,-120,-111,-101,-111,-141,-173,-185,-185,-177,-164,-147,-131,-118,-111,-107,-104,-104,-105,-106,-108,-111,-98,-82,-67,-56,-47,-38,-35,-34,-32,-30,-30,-38,-44,-50,-55,-55,-51,-43,-32,-12,-1,5,9,11,11,9,6,2,-1,0,9,20,32,47,62,77,86,92,97,100,100,95,89,81,71,61,47,26,1,-19,-28,-33,-37,-40,-41,-42,-43,-44,-45,-44,-44,-45,-45,-47,-50,-49,-40,-27,-11,-3,0,4,7,8,7,5,2,0,-2,-4,-6,-10,-16,-23,-29,-33,-36,-40,-43,-45,-48,-50,-52,-53,-53,-55,-57,-59,-62,-67,-66,-53,-36,-13,-2,3,8,12,13,14,13,10,7,2,-1,-4,-8,-12,-15,-18,-19,-19,-17,-14,-10,-4,1,9,23,33,40,47,54,59,59,52,42,34,24,16,14,15,16,16,17,17,17,13,7,0,-7,-18,-24,-28,-32,-37,-40,-36,-26,-1,54,128,219,321,429,545,672,787,823,812,719,578,417,265,156,94,53,27,12,4,-1,-6,-11,-15,-19,-24,-30,-35,-37,-33,-25,-16,-9,-1,5,12,20,26,30,32,34,36,36,37,38,39,40,42,44,45,46,47,49,50,50,51,52,54,57,66,75,83,91,100,104,104,102,100,98,97,101,107,110,112,114,116,117,119,120,121,122,122,122,121,119,117,115,113,110,107,103,98,91,83,75,71,67,64,60,57,54,52,50,48,45,43,41,39,38,36,34,33,30,28,25,22,19,16,13,10,8,6,5,3,0,-5,-10,-12,-9,0,10,21,34,45,51,56,59,61,64,66,68,70,71,72,73,73,73,74,73,72,71,71,70,70,68,67,66,65,64,63,62,60,53,54,71,89,107,120,127,132,137,141,143,141,136,128,120,113,106,97,89,82,74,64,45,14,-2,-11,-17,-20,-24,-26,-29,-32,-37,-45,-44,-35,-10,42,118,205,294,381,473,571,648,659,633,506,328,154,14,-51,-75,-78,-74,-70,-65,-68,-86,-112,-143,-168,-183,-183,-183,-184,-185,-181,-170,-158,-142,-118,-100,-88,-79,-72,-67,-63,-60,-58,-57,-56,-54,-52,-50,-50,-49,-49,-50,-50,-51,-51,-51,-53,-54,-55,-56,-57,-57,-60,-67,-67,-55,-46,-38,-32,-27,-24,-21,-19,-17,-14,-12,-12,-12,-12,-11,-11,-10,-10,-12,-19,-27,-33,-38,-43,-46,-46,-44,-40,-35,-23,-8,-1,2,4,0,-12,-26,-42,-54,-61,-66,-70,-73,-76,-79,-82,-84,-87,-88,-90,-92,-94,-96,-97,-97,-97,-97,-96,-95,-93,-90,-86,-82,-76,-67,-61,-65,-73,-82,-94,-105,-122,-139,-151,-159,-159,-148,-129,-112,-105,-101,-98,-96,-97,-101,-106,-112,-120,-120,-109,-80,-51,-20,-11,-5,0,2,5,8,11,15,17,18,18,17,13,7,0,-11,-35,-58,-82,-96,-102,-108,-112,-114,-115,-114,-112,-109,-106,-102,-96,-92,-91,-95,-102,-110,-122,-127,-133,-137,-123,-82,-19,64,164,275,387,487,544,547,505,398,252,98,-33,-125,-163,-175,-163,-151,-142,-137,-139,-144,-147,-151,-154,-153,-148,-139,-125,-101,-89,-83,-79,-75,-72,-71,-72,-74,-78,-83,-88,-95,-99,-97,-90,-84,-76,-77,-92,-101,-109,-116,-120,-119,-116,-111,-104,-92,-71,-50,-30,-16,-8,-1,4,11,18,27,34,41,45,49,53,55,56,55,52,48,42,34,22,13,4,-2,-10,-19,-29,-41,-54,-65,-73,-79,-79,-73,-65,-54,-40,-28,-21,-18,-14,-11,-8,-5,-1,1,5,8,12,17,25,31,34,36,37,37,38,38,37,36,36,36,36,36,36,36,37,38,39,40,41,43,45,47,50,55,68,72,77,81,69,59,52,47,45,48,55,62,65,67,69,71,74,76,79,82,85,88,91,94,96,99,101,105,110,117,122,126,131,136,144,150,146,135,124,111,105,102,100,99,98,96,94,91,88,85,80,71,52,38,30,22,12,5,-3,-9,-10,-6,0,19,67,148,257,374,492,604,697,757,777,765,728,637,514,379,262,182,135,98,80,72,68,64,62,58,53,46,40,36,33,30,26,23,20,16,12,9,6,4,1,-2,-5,-13,-26,-31,-34,-37,-40,-42,-42,-38,-31,-23,-16,-9,-1,5,10,15,20,32,51,61,65,68,69,71,73,76,79,82,86,89,94,100,115,141,152,159,164,165,163,158,151,138,117,95,73,57,46,36,26,10,-13,-27,-35,-40,-44,-45,-43,-39,-32,-23,-7,17,32,40,47,55,62,68,73,78,83,85,86,84,81,77,73,69,66,61,56,51,43,34,25,14,-1,-10,-12,-13,-14,-16,-18,-15,-10,-8,-6,-3,0,1,3,5,6,7,6,5,2,0,-3,-6,-9,-12,-16,-23,-29,-32,-34,-37,-41,-30,-12,10,22,28,33,37,40,42,42,41,39,37,35,32,28,23,16,7,-4,-14,-24,-33,-42,-48,-53,-58,-62,-66,-69,-73,-75,-77,-78,-80,-85,-90,-81,-56,-21,27,92,183,310,465,623,757,818,812,722,565,399,257,149,71,18,-5,-14,-19,-22,-26,-28,-31,-35,-39,-43,-47,-50,-53,-55,-56,-57,-58,-59,-60,-62,-63,-65,-66,-66,-67,-68,-70,-71,-73,-75,-76,-78,-79,-81,-83,-85,-87,-89,-93,-98,-104,-108,-111,-111,-109,-107,-102,-97,-89,-75,-54,-43,-33,-23,-10,6,27,50,64,69,72,74,73,67,57,41,14,-2,-12,-19,-26,-31,-36,-41,-48,-58,-73,-98,-124,-134,-139,-143,-146,-149,-149,-145,-140,-134,-129,-126,-123,-119,-114,-109,-105,-102,-100,-98,-96,-94,-91,-87,-79,-59,-47,-41,-35,-31,-29,-28,-29,-31,-34,-37,-42,-49,-49,-41,-37,-34,-32,-29,-27,-25,-25,-26,-27,-29,-30,-32,-36,-43,-36,-27,-20,-18,-21,-24,-28,-20,-10,-2,-1,-6,-13,-19,2,24,40,52,60,66,69,72,75,77,79,81,81,81,79,77,75,74,72,69,65,62,60,60,61,63,66,69,73,71,53,35,17,13,13,12,11,29,83,164,267,377,488,610,718,778,799,779,714,583,438,308,203,124,92,81,99,113,119,124,129,133,138,143,146,151,157,171,195,206,212,216,219,219,218,213,208,202,197,188,180,179,183,190,196,203,211,219,224,227,230,233,236,239,241,244,247,250,254,260,267,283,310,324,332,339,345,350,356,363,361,343,329,315,305,299,293,285,274,257,246,238,233,229,227,226,225,223,222,221,219,217,213,211,213,217,221,225,224,210,194,178,158,132,96,66,47,35,26,17,10,0,-12,-22,-30,-37,-41,-41,-38,-35,-31,-28,-24,-20,-18,-20,-27,-38,-55,-86,-114,-133,-143,-152,-160,-170,-185,-196,-206,-214,-223,-232,-241,-250,-260,-269,-275,-279,-283,-289,-310,-331,-343,-351,-354,-355,-356,-355,-355,-354,-355,-355,-356,-356,-356,-355,-355,-355,-355,-354,-354,-353,-353,-354,-355,-357,-359,-361,-363,-366,-370,-374,-378,-381,-385,-390,-403,-415,-422,-429,-436,-443,-448,-448,-442,-429,-389,-329,-234,-111,14,122,186,193,164,66,-65,-202,-315,-389,-413,-423,-429,-418,-407,-399,-395,-398,-403,-409,-415,-413,-398,-380,-362,-341,-328,-318,-311,-307,-305,-304,-302,-302,-301,-300,-299,-299,-302,-306,-310,-314,-318,-321,-324,-327,-330,-332,-333,-334,-333,-332,-330,-328,-325,-322,-318,-314,-310,-302,-286,-276,-268,-261,-256,-254,-258,-264,-269,-277,-281,-274,-262,-255,-249,-243,-239,-236,-236,-237,-239,-241,-244,-246,-250,-254,-257,-257,-252,-244,-237,-232,-227,-221,-216,-211,-206,-202,-200,-199,-198,-196,-195,-192,-191,-189,-187,-184,-182,-178,-175,-171,-166,-158,-143,-114,-91,-73,-52,-30,-8,9,18,24,28,31,34,37,41,44,48,51,54,58,62,66,71,77,83,90,96,101,104,109,116,126,142,155,165,173,184,199,219,239,247,251,255,258,259,256,247,235,220,199,188,184,180,176,174,172,172,173,175,179,184,190,197,208,226,235,238,241,244,246,246,243,238,232,226,228,248,275,310,365,442,539,643,733,796,820,820,792,716,593,465,352,262,219
