-231,-280,-312,-350,-373,-379,-382,-383,-384,-385,-387,-389,-392,-395,-400,-403,-406,-412,-421,-429,-435,-440,-447,-454,-459,-459,-453,-442,-429,-410,-393,-370,-339,-304,-269,-233,-196,-157,-122,-91,-61,-37,-20,-4,11,26,41,53,63,76,93,103,110,116,122,126,129,132,133,135,136,138,139,140,141,143,144,145,145,142,136,130,122,114,103,91,81,71,59,45,33,22,11,1,-10,-22,-37,-54,-71,-88,-105,-121,-136,-147,-161,-175,-186,-196,-204,-210,-214,-217,-221,-224,-228,-230,-231,-229,-224,-218,-210,-201,-191,-180,-169,-158,-147,-134,-124,-116,-110,-107,-104,-101,-100,-99,-100,-102,-103,-105,-107,-110,-113,-116,-118,-119,-117,-111,-103,-94,-83,-67,-52,-38,-31,-25,-20,-16,-13,-12,-12,-15,-18,-22,-27,-31,-35,-38,-42,-46,-50,-52,-54,-56,-56,-54,-51,-48,-43,-39,-33,-28,-21,-11,0,10,18,25,32,39,46,50,52,53,53,55,58,37,-25,-121,-239,-369,-490,-571,-598,-585,-545,-444,-316,-166,-24,106,217,262,277,259,229,195,162,134,115,104,93,82,73,66,60,54,48,42,36,25,9,-1,-8,-15,-19,-19,-13,-2,11,28,44,57,69,82,97,108,118,126,132,136,139,142,145,147,150,152,152,151,148,143,135,127,114,90,69,48,27,8,-11,-30,-49,-61,-70,-77,-82,-84,-83,-79,-73,-65,-50,-24,0,27,54,80,107,134,163,190,210,226,244,257,267,276,285,295,307,324,341,358,376,394,409,420,431,441,450,458,468,475,478,480,481,482,484,485,485,482,472,462,454,446,439,431,425,419,414,408,402,396,389,381,373,363,349,330,314,298,281,261,241,222,202,185,173,164,159,156,153,150,148,146,145,147,151,157,165,177,196,214,232,250,268,291,324,345,356,365,370,371,369,364,356,347,333,311,292,272,252,236,217,191,168,150,131,113,94,73,65,61,59,56,54,51,49,47,45,43,41,40,40,40,41,42,44,45,47,49,50,52,54,56,58,62,69,87,104,120,134,146,156,171,197,216,225,231,235,238,240,242,244,248,253,242,211,166,87,-30,-154,-282,-360,-387,-377,-346,-255,-139,-15,128,271,376,421,436,424,387,342,299,276,257,233,209,192,173,150,119,93,74,56,33,5,-18,-34,-43,-48,-52,-56,-57,-57,-51,-41,-30,-17,0,16,29,38,45,51,56,59,59,57,52,47,39,24,-1,-26,-49,-70,-94,-119,-148,-172,-186,-199,-212,-225,-239,-246,-251,-253,-256,-258,-260,-260,-260,-257,-252,-244,-234,-220,-196,-179,-158,-134,-97,-54,-28,-1,26,48,65,81,93,103,113,123,133,150,178,202,219,231,236,239,241,244,246,247,248,249,250,250,250,248,245,241,237,234,231,227,223,218,212,207,202,195,186,172,157,137,114,93,71,51,28,5,-21,-47,-66,-83,-97,-109,-122,-137,-150,-162,-172,-183,-191,-197,-203,-208,-212,-215,-216,-214,-209,-203,-196,-187,-174,-152,-131,-121,-115,-109,-104,-100,-97,-95,-95,-95,-98,-101,-105,-111,-117,-123,-128,-132,-136,-140,-143,-146,-148,-150,-152,-153,-153,-154,-154,-155,-155,-155,-156,-157,-157,-158,-158,-157,-157,-157,-158,-159,-160,-162,-165,-168,-172,-175,-177,-179,-180,-179,-178,-174,-170,-165,-159,-153,-143,-123,-100,-88,-81,-75,-70,-66,-62,-58,-56,-54,-53,-51,-49,-47,-44,-38,-36,-42,-59,-105,-180,-293,-430,-590,-743,-847,-856,-799,-606,-338,-52,168,290,304,256,150,26,-88,-185,-268,-338,-390,-412,-419,-424,-427,-429,-430,-431,-431,-430,-428,-425,-420,-413,-405,-396,-380,-367,-356,-345,-333,-321,-308,-293,-275,-257,-241,-228,-217,-207,-202,-197,-193,-190,-188,-187,-187,-188,-191,-196,-201,-209,-225,-256,-287,-319,-374,-422,-470,-527,-586,-622,-661,-693,-719,-740,-749,-755,-759,-760,-758,-751,-741,-724,-694,-663,-628,-588,-550,-513,-477,-441,-410,-381,-353,-326,-300,-276,-251,-226,-198,-168,-142,-118,-92,-70,-54,-37,-22,-10,2,15,27,37,47,56,64,74,86,98,111,121,129,136,142,149,155,162,168,174,179,184,187,190,195,198,200,202,204,207,208,209,209,206,203,195,189,184,178,174,168,165,164,162,161,163,167,172,177,183,189,196,201,208,215,222,229,232,236,241,243,244,245,248,250,253,253,255,256,255,253,252,250,244,238,232,225,216,199,183,166,157,152,147,145,142,140,137,135,132,130,129,126,125,121,116,112,101,93,86,83,76,75,73,73,72,73,72,74,75,77,79,81,81,84,84,87,87,87,86,86,83,81,79,76,74,70,65,47,1,-72,-169,-292,-441,-587,-725,-779,-767,-655,-425,-134,139,317,373,373,296,212,124,48,-28,-84,-129,-178,-204,-227,-254,-278,-296,-317,-336,-354,-374,-384,-389,-392,-393,-393,-394,-395,-395,-396,-397,-398,-396,-396,-395,-395,-395,-396,-399,-403,-408,-413,-424,-436,-448,-460,-475,-492,-509,-524,-535,-547,-555,-566,-578,-595,-622,-647,-674,-695,-712,-735,-750,-759,-769,-775,-776,-774,-765,-756,-744,-724,-702,-671,-633,-595,-559,-523,-489,-452,-419,-387,-352,-323,-299,-279,-258,-237,-213,-196,-182,-169,-158,-147,-139,-131,-124,-117,-109,-101,-92,-81,-65,-51,-35,-23,-13,-5,3,13,22,29,34,38,41,43,44,44,47,50,53,55,57,61,63,65,71,81,102,123,151,183,214,246,278,300,326,354,374,379,382,384,387,387,385,385,381,378,375,371,367,363,362,365,373,381,391,398,404,411,418,425,431,437,444,450,457,459,464,470,477,481,485,489,489,483,478,471,464,455,448,442,437,430,425,423,424,426,430,433,439,446,455,461,466,461,453,438,419,391,365,343,319,291,271,254,240,232,227,223,221,218,217,217,217,218,217,216,219,219,223,227,233,239,245,252,255,261,266,274,281,286,287,283,278,266,247,203,127,30,-110,-268,-457,-624,-721,-723,-631,-413,-128,152,356,400,396,313,219,136,93,72,61,52,44,39,32,27,23,18,12,6,1,-1,-1,0,5,8,14,20,24,29,32,37,40,45,50,53,53,49,45,39,34,24,13,-5,-27,-44,-62,-76,-91,-108,-123,-139,-153,-168,-185,-201,-216,-240,-273,-300,-319,-332,-338,-344,-349,-353,-352,-348,-337,-324,-310,-292,-273,-254,-233,-210,-186,-155,-121,-90,-54,-25,-2,20,44,68,94,114,139,165,189,208,225,246,264,282,300,318,334,345,353,359,365,367,372,374,376,375,373,368,359,351,343,335,326,317,306,295,288,275,265,253,246,240,234,228,223,215,209,202,195,189,183,176,169,162,153,145,136,127,125,123,121,120,120,120,120,118,117,116,122,138,157,179,206,230,251,262,272,280,286,291,293,293,292,288,284,278,271,262,251,232,213,193,171,149,130,113,93,69,43,23,7,-6,-21,-33,-46,-57,-68,-81,-94,-108,-122,-137,-151,-164,-177,-187,-195,-199,-206,-209,-214,-214,-214,-211,-208,-202,-195,-187,-181,-174,-169,-163,-158,-154,-153,-152,-154,-156,-161,-167,-175,-183,-191,-199,-211,-224,-239,-253,-272,-307,-360,-449,-567,-720,-893,-1049,-1121,-1112,-990,-736,-441,-171,14,77,76,12,-65,-121,-130,-138,-145,-150,-156,-161,-163,-167,-168,-168,-166,-165,-164,-162,-160,-157,-155,-152,-149,-145,-142,-139,-135,-133,-130,-126,-121,-117,-113,-109,-107,-107,-109,-114,-119,-127,-136,-145,-154,-165,-182,-198,-212,-226,-240,-253,-268,-283,-300,-323,-352,-380,-403,-423,-440,-454,-463,-469,-475,-480,-484,-486,-484,-478,-470,-458,-444,-423,-389,-363,-337,-311,-284,-262,-244,-223,-202,-181,-164,-146,-129,-110,-84,-51,-20,7,32,58,86,110,132,149,160,168,171,174,177,180,184,186,190,192,194,194,195,195,194,193,190,186,181,175,168,160,152,142,134,124,116,107,99,90,82,76,70,65,63,59,58,55,54,54,52,50,49,49,47,45,42,39,36,30,26,21,15,10,4,0,-4,-8,-13,-16,-21,-23,-28,-32,-38,-45,-51,-62,-78,-96,-113,-131,-148,-163,-174,-186,-195,-205,-214,-223,-231,-237,-242,-247,-250,-255,-259,-263,-266,-269,-272,-276,-278,-281,-284,-287,-290,-292,-294,-296,-297,-298,-297,-294,-291,-287,-282,-277,-271,-263,-255,-246,-236,-223,-197,-173,-165,-161,-158,-156,-153,-152,-150,-149,-147,-147,-148,-151,-156,-164,-173,-187,-204,-236,-296,-394,-520,-675,-835,-946,-983,-932,-776,-485,-151,134,290,341,310,257,196,159,137,121,107,98,90,83,80,76,72,68,65,64,63,64,66,69,72,76,78,82,85,87,91,94,98,101,105,107,108,108,106,103,99,95,90,84,77,71,64,52,27,1,-23,-49,-73,-99,-124,-150,-174,-199,-224,-249,-273,-295,-314,-327,-337,-347,-353,-358,-357,-352,-343,-329,-312,-288,-248,-214,-180,-147,-110,-81,-59,-41,-25,-11,3,17,29,41,52,63,69,74,80,84,88,91,93,94,94,92,90,86,81,75,70,64,58,53,50,47,44,41,39,37,35,34,32,31,30,31,32,33,34,36,39,41,43,45,47,48,49,51,53,56,58,61,64,67,70,74,77,81,85,95,124,148,172,198,228,260,291,318,345,371,400,412,418,424,429,433,436,439,442,445,446,447,448,447,445,443,441,439,436,433,430,427,424,421,417,414,411,408,403,399,393,384,375,365,355,345,335,325,315,305,296,289,283,279,275,271,268,264,262,260,258,257,258,259,262,265,269,275,280,285,290,295,301,307,313,317,320,319,315,309,301,290,280,269,256,240,228,220,210,188,158,115,50,-44,-175,-331,-488,-605,-615,-551,-336,-53,247,498,612,650,621,532,443,363,313,277,255,238,220,204,195,187,180,174,168,164,162,160,160,158,158,158,157,157,156,157,156,155,153,152,151,149,147,145,142,138,133,126,120,112,102,90,79,69,59,49,35,16,0,-15,-34,-56,-82,-104,-123,-141,-159,-178,-196,-213,-230,-240,-249,-255,-261,-265,-266,-264,-259,-251,-241,-229,-214,-190,-170,-153,-135,-118,-100,-82,-66,-52,-39,-26,-14,-6,0,4,9,13,18,22,26,29,32,35,37,40,42,47,51,54,56,53,47,37,25,12,-3,-19,-33,-45,-55,-63,-71,-78,-85,-92,-98,-105,-111,-118,-123,-130,-137,-144,-153,-162,-170,-178,-187,-195,-203,-209,-213,-214,-216,-216,-217,-217,-217,-217,-217,-216,-216,-214,-212,-210,-205,-199,-192,-185,-178,-173,-167,-162,-158,-155,-151,-150,-150,-151,-155,-160,-167,-174,-181,-189,-196,-204,-213,-221,-229,-235,-241,-247,-251,-257,-262,-266,-271,-276,-281,-287,-292,-298,-305,-312,-323,-339,-357,-377,-394,-410,-425,-438,-449,-455,-459,-463,-467,-470,-472,-475,-477,-479,-481,-482,-484,-484,-484,-482,-479,-475,-471,-467,-462,-457,-452,-446,-439,-430,-412,-392,-375,-360,-349,-337,-327,-319,-317,-318,-324,-331,-342,-375,-448,-558,-697,-863,-1010,-1070,-1056,-915,-666,-371,-106,68,117,109,19,-78,-151,-181,-196,-208,-205,-178,-155,-131,-113,-100,-90,-81,-71,-60,-48,-36,-24,-12,-1,9,19,28,36,44,51,59,68,76,85,95,109,128,140,148,152,156,159,162,164,165,163,158,151,143,135,126,117,107,98,89,80,72,65,59,52,46,40,36,32,30,29,30,32,35,40,46,53,61,74,101,124,145,162,179,195,211,226,242,258,270,280,289,297,304,311,317,320,323,326,329,333,336,340,343,346,349,351,351,351,349,348,345,343,341,338,334,329,324,314,289,267,247,231,213,195,179,167,153,139,124,108,93,79,66,55,43,31,20,10,0,-11,-24,-38,-54,-73,-94,-117,-134,-147,-159,-173,-186,-196,-204,-211,-217,-222,-227,-231,-234,-238,-241,-246,-250,-255,-260,-266,-273,-281,-291,-305,-323,-340,-354,-371,-391,-411,-423,-432,-439,-443,-443,-440,-432,-421,-408,-390,-362,-335,-320,-310,-302,-295,-291,-288,-289,-292,-297,-304,-311,-317,-323,-330,-336,-343,-348,-352,-355,-357,-357,-356,-353,-349,-344,-338,-331,-314,-279,-244,-207,-169,-133,-99,-60,-31,-14,0,12,23,32,41,49,54,56,55,53,48,40,17,-45,-143,-277,-445,-628,-785,-852,-795,-597,-317,-4,262,409,432,399,303,209,140,100,80,71,64,59,54,49,44,40,36,32,28,24,20,15,11,6,2,0,-1,0,1,4,10,18,28,45,77,106,140,172,195,213,224,232,238,242,245,245,241,235,227,219,210,199,187,175,164,151,137,119,101,82,60,34,10,-2,-11,-19,-25,-28,-28,-25,-19,-12,-2,10,33,54,81,112,142,177,210,235,267,293,315,340,368,380,388,395,402,408,413,418,422,426,429,432,434,435,434,432,430,426,422,418,413,408,402,396,390,383,373,353,332,314,296,276,254,231,208,184,162,139,117,93,69,49,30,22,16,10,5,1,-3,-6,-9,-12,-14,-16,-18,-19,-22,-25,-28,-30,-32,-33,-34,-33,-33,-32,-32,-32,-33,-34,-34,-29,-16,0,16,37,60,84,105,124,138,144,148,153,159,164,162,146,126,111,97,83,69,56,42,31,22,14,6,0,-6,-10,-14,-15,-15,-14,-12,-9,-4,0,8,17,32,64,95,136,184,219,247,285,311,329,343,355,366,375,383,388,393,397,400,403,406,409,411,414,417,418,418,418,417,415,412,408,402,395,388,357,275,160,10,-151,-304,-389,-387,-284,-57,239,520,734,804,801,719,610,511,432,401,368,344,325,311,307,305,303,302,301,299,298,296,297,303,312,324,337,350,364,379,389,395,399,402,405,408,411,414,417,417,416,411,403,393,382,372,360,347,335,325,313,303,293,283,274,264,254,244,234,224,214,204,194,186,179,174,170,166,162,156,148,144,147,159,178,207,247,282,327,351,360,369,377,384,389,393,397,399,400,399,397,393,388,383,378,374,367,361,353,344,330,300,272,247,216,180,135,90,46,9,-27,-64,-104,-127,-142,-153,-163,-172,-181,-189,-196,-205,-218,-239,-262,-288,-315,-343,-370,-396,-417,-435,-451,-464,-477,-488,-493,-497,-499,-502,-504,-506,-508,-511,-513,-517,-520,-524,-528,-532,-536,-540,-546,-551,-557,-563,-569,-576,-583,-590,-598,-606,-612,-619,-624,-629,-632,-633,-634,-632,-629,-625,-619,-613,-606,-598,-590,-580,-571,-560,-544,-526,-509,-494,-482,-470,-461,-454,-447,-443,-438,-433,-428,-423,-417,-411,-405,-398,-390,-382,-372,-361,-347,-331,-316,-306,-298,-291,-285,-281,-278,-275,-272,-269,-267,-266,-265,-264,-264,-265,-265,-267,-269,-274,-278,-283,-289,-297,-306,-318,-330,-359,-424,-528,-660,-824,-986,-1105,-1118,-1060,-837,-528,-221,20,109,137,87,4,-61,-82,-90,-97,-103,-108,-114,-117,-118,-117,-116,-112,-106,-100,-93,-85,-77,-69,-62,-56,-51,-47,-44,-41,-39,-37,-35,-34,-34,-34,-35,-37,-39,-41,-44,-47,-50,-54,-58,-62,-67,-72,-77,-82,-87,-92,-98,-104,-110,-118,-133,-150,-164,-175,-185,-194,-200,-208,-215,-220,-224,-227,-227,-224,-217,-208,-195,-180,-157,-117,-85,-55,-23,12,48,83,120,157,193,225,247,263,276,290,305,317,326,332,337,342,348,353,359,367,375,384,392,400,406,412,416,420,425,430,435,440,446,451,455,457,458,456,452,448,442,435,428,421,413,404,396,381,348,319,292,269,246,226,207,189,176,162,150,138,126,115,107,100,96,92,89,85,79,76,72,66,61,55,52,47,40,34,27,19,12,2,-5,-13,-22,-29,-35,-42,-49,-57,-64,-70,-77,-83,-89,-95,-101,-106,-110,-114,-118,-120,-119,-119,-118,-114,-110,-104,-99,-92,-86,-80,-74,-69,-64,-58,-52,-45,-37,-30,-22,-15,-8,0,5,11,16,20,25,30,36,40,45,48,52,53,53,52,48,45,39,36,31,27,23,18,14,9,4,-3,-17,-36,-54,-78,-115,-174,-275,-396,-557,-723,-838,-851,-791,-566,-272,34,268,370,375,308,197,105,52,29,19,12,5,0,-1,-2,-2,-2,-1,1,4,7,10,13,15,17,18,19,19,18,18,15,11,6,2,-2,-8,-15,-22,-29,-41,-57,-71,-84,-96,-107,-119,-130,-141,-152,-163,-176,-190,-207,-231,-253,-277,-297,-316,-334,-352,-370,-382,-393,-402,-409,-414,-417,-416,-412,-407,-400,-390,-377,-358,-322,-290,-257,-223,-191,-158,-126,-102,-73,-32,1,26,52,78,102,116,122,126,130,134,137,140,143,144,142,141,137,132,127,121,114,108,100,91,74,55,39,24,12,1,-7,-14,-20,-27,-33,-39,-43,-47,-51,-54,-57,-61,-64,-68,-72,-76,-81,-86,-90,-94,-98,-103,-107,-112,-116,-120,-122,-123,-123,-122,-118,-113,-107,-100,-93,-87,-80,-73,-65,-58,-51,-45,-38,-35,-33,-34,-35,-39,-44,-49,-56,-63,-70,-79,-93,-108,-123,-136,-151,-166,-183,-197,-208,-218,-222,-226,-229,-231,-233,-235,-237,-237,-237,-237,-235,-233,-231,-227,-225,-223,-220,-218,-216,-214,-213,-210,-208,-206,-203,-200,-196,-191,-183,-175,-167,-161,-155,-151,-147,-145,-142,-140,-140,-139,-139,-141,-142,-144,-145,-146,-146,-147,-147,-147,-147,-147,-147,-147,-147,-144,-141,-140,-137,-137,-136,-137,-139,-143,-148,-155,-163,-202,-275,-380,-517,-676,-820,-875,-860,-726,-487,-190,70,250,298,293,217,137,70,45,37,34,32,30,30,31,34,37,42,47,53,56,60,61,64,63,63,64,62,60,59,57,53,49,43,38,32,26,22,17,14,10,8,4,1,-2,-5,-9,-12,-15,-17,-19,-23,-27,-32,-38,-47,-60,-74,-86,-98,-105,-111,-117,-123,-128,-131,-132,-133,-131,-127,-121,-113,-103,-91,-67,-24,13,53,97,141,186,231,268,296,325,343,354,364,373,381,391,400,406,413,417,420,422,424,426,428,430,433,437,439,442,443,446,447,447,449,451,453,456,460,464,466,466,463,459,451,444,435,427,418,408,401,394,387,383,380,377,374,371,370,368,366,364,364,364,364,365,367,368,371,372,373,372,372,371,370,367,365,362,360,355,351,344,330,314,300,285,273,261,251,243,235,226,221,218,215,213,211,210,209,208,207,206,206,204,204,203,201,199,198,195,193,189,188,186,182,180,177,174,168,161,159,159,167,181,194,207,220,232,244,245,246,248,248,249,248,250,250,249,248,247,245,243,238,233,229,225,220,215,209,204,199,194,187,175,151,111,48,-45,-178,-333,-504,-647,-691,-667,-501,-221,84,334,471,487,436,331,234,167,141,133,130,127,125,124,124,125,126,128,129,132,133,133,133,132,132,130,128,127,123,120,116,110,98,83,69,54,37,18,2,-10,-22,-37,-52,-70,-87,-105,-121,-137,-152,-168,-183,-198,-212,-225,-237,-247,-259,-275,-295,-313,-331,-350,-372,-390,-403,-413,-418,-421,-424,-429,-432,-431,-423,-408,-392,-367,-340,-302,-264,-233,-201,-173,-152,-127,-107,-91,-78,-71,-67,-62,-60,-59,-57,-56,-54,-55,-55,-56,-59,-62,-66,-71,-75,-80,-83,-85,-88,-90,-92,-94,-95,-96,-96,-95,-95,-94,-93,-91,-91,-90,-90,-89,-90,-90,-91,-92,-93,-95,-96,-96,-97,-97,-96,-96,-95,-93,-91,-89,-86,-84,-80,-75,-71,-66,-58,-48,-39,-31,-28,-25,-24,-23,-22,-23,-22,-22,-22,-22,-23,-26,-33,-42,-49,-56,-61,-67,-72,-75,-78,-79,-78,-77,-74,-72,-70,-67,-65,-64,-62,-61,-60,-59,-59,-59,-61,-62,-64,-67,-71,-74,-74,-75,-75,-71,-67,-63,-58,-53,-48,-43,-39,-34,-28,-21,-13,-5,1,7,11,12,10,7,4,0,-5,-11,-17,-22,-28,-37,-48,-56,-64,-72,-79,-85,-91,-97,-105,-112,-119,-131,-173,-248,-357,-512,-697,-890,-1026,-1081,-1010,-819,-534,-254,-23,101,117,71,-11,-67,-122,-143,-150,-150,-151,-152,-151,-150,-150,-150,-149,-149,-149,-148,-146,-146,-144,-144,-145,-148,-152,-155,-159,-163,-168,-171,-174,-179,-185,-191,-198,-202,-208,-214,-221,-228,-238,-248,-259,-269,-278,-286,-295,-303,-311,-319,-330,-344,-358,-373,-391,-413,-436,-458,-481,-499,-514,-529,-535,-538,-541,-543,-546,-538,-522,-506,-483,-461,-432,-395,-360,-324,-288,-252,-217,-183,-148,-119,-97,-68,-48,-38,-30,-23,-16,-9,-3,0,1,3,5,7,8,9,11,12,13,14,16,17,17,18,20,20,22,23,25,26,27,29,31,32,33,35,36,37,37,38,38,38,39,40,42,44,47,51,55,59,63,68,72,77,81,88,95,103,111,117,121,124,125,127,127,127,127,126,125,125,124,124,123,121,118,114,110,106,102,96,90,87,87,92,102,116,134,162,181,206,237,269,301,335,366,389,406,428,451,473,486,492,497,501,503,504,503,498,493,487,481,478,475,472,470,467,465,463,460,458,455,453,452,450,448,446,443,439,434,425,408,392,375,360,347,335,326,318,311,304,298,291,283,276,267,258,248,238,225,203,170,116,33,-85,-250,-435,-615,-711,-708,-596,-341,-18,264,455,505,498,413,323,244,218,214,210,208,206,203,200,198,195,193,191,190,189,187,183,176,167,160,152,144,136,127,119,108,96,84,72,61,55,49,39,17,-3,-18,-34,-48,-60,-72,-85,-96,-105,-113,-122,-129,-137,-149,-166,-186,-203,-217,-231,-244,-261,-281,-298,-321,-349,-373,-391,-408,-420,-430,-436,-436,-428,-414,-393,-358,-322,-286,-250,-214,-178,-140,-111,-93,-76,-60,-43,-26,-15,-8,-5,-4,-3,-3,-2,-3,-2,-3,-3,-3,-5,-7,-8,-10,-12,-14,-16,-17,-18,-18,-18,-17,-16,-15,-13,-13,-11,-10,-10,-9,-9,-8,-9,-11,-12,-13,-14,-15,-15,-16,-17,-17,-18,-18,-21,-23,-23,-18,-6,5,12,19,25,31,37,42,46,49,50,49,47,44,39,34,28,22,17,12,7,1,-3,-8,-13,-18,-22,-25,-27,-29,-30,-31,-32,-32,-32,-31,-31,-30,-30,-30,-31,-32,-32,-32,-32,-31,-29,-26,-22,-18,-14,-9,-4,0,4,10,20,31,40,50,59,68,77,86,93,99,105,109,112,114,115,116,118,119,121,122,123,124,125,125,124,122,120,117,114,110,107,103,99,95,90,81,61,41,-11,-81,-190,-324,-474,-609,-664,-651,-531,-305,-18,234,414,462,454,370,275,189,130,111,96,85,80,77,73,71,69,68,66,64,62,60,58,55,53,51,49,47,44,40,32,16,1,-13,-30,-50,-71,-88,-101,-113,-124,-136,-149,-164,-180,-197,-211,-223,-234,-243,-251,-258,-266,-276,-288,-302,-321,-344,-374,-395,-417,-438,-451,-457,-462,-466,-469,-471,-472,-471,-467,-462,-455,-445,-432,-408,-384,-351,-313,-275,-239,-203,-165,-133,-111,-91,-84,-82,-80,-78,-77,-75,-73,-71,-69,-68,-66,-65,-65,-66,-66,-67,-68,-69,-70,-69,-68,-67,-65,-64,-62,-60,-59,-59,-59,-59,-59,-59,-59,-58,-56,-54,-51,-48,-45,-42,-39,-37,-35,-33,-31,-28,-24,-19,-13,-7,-1,3,9,14,19,24,30,37,46,55,65,73,80,87,92,96,100,104,107,110,113,116,120,122,124,124,123,122,119,116,114,111,109,107,106,105,105,105,104,103,102,100,97,95,93,92,92,92,94,95,97,99,102,105,107,110,113,115,118,122,127,132,139,148,159,170,180,191,199,204,208,213,217,221,225,228,232,235,237,238,238,237,236,234,233,231,230,229,227,226,224,222,219,216,212,208,203,197,192,177,145,95,12,-105,-257,-430,-568,-588,-554,-361,-69,228,462,539,563,525,413,315,259,236,228,222,218,215,211,209,208,207,206,205,205,205,206,206,206,207,207,207,207,207,206,203,201,198,194,189,182,169,154,140,126,114,102,91,78,65,51,34,13,-6,-25,-41,-54,-66,-76,-85,-93,-102,-111,-123,-139,-158,-175,-192,-205,-212,-216,-220,-223,-226,-230,-233,-235,-234,-229,-221,-209,-194,-172,-136,-108,-81,-53,-29,-6,15,31,38,43,46,49,51,53,53,52,50,47,42,36,30,25,21,17,14,11,9,8,7,6,5,4,2,1,-1,-3,-6,-9,-12,-13,-14,-15,-15,-15,-16,-17,-19,-22,-25,-29,-32,-35,-38,-39,-39,-38,-35,-31,-27,-22,-16,-10,-5,0,4,13,23,30,34,39,42,45,48,51,54,57,58,60,61,61,61,59,57,54,50,45,40,35,30,25,20,16,10,3,-3,-8,-11,-11,-8,-3,3,11,20,31,49,62,66,68,71,75,78,77,67,53,37,17,11,11,9,7,6,5,9,19,30,37,43,49,54,58,61,61,59,55,50,45,41,37,34,30,27,23,20,16,12,9,5,2,0,-1,-4,-9,-15,-22,-42,-81,-142,-235,-365,-534,-724,-888,-954,-937,-783,-482,-156,141,349,402,396,310,227,162,122,104,97,91,87,84,82,78,74,70,66,62,58,54,50,47,45,42,40,38,35,33,30,26,23,20,16,13,10,8,6,4,1,-1,-5,-11,-26,-40,-54,-64,-71,-78,-84,-91,-98,-104,-112,-121,-132,-145,-158,-172,-186,-199,-213,-226,-239,-254,-272,-283,-290,-297,-304,-309,-308,-299,-283,-258,-221,-186,-148,-110,-71,-38,-13,10,30,47,63,79,87,93,98,102,105,106,107,107,106,105,104,103,101,99,98,97,96,95,93,92,92,92,92,93,94,95,96,96,97,98,98,98,98,98,99,99,100,101,102,103,104,106,107,108,110,112,114,116,119,125,131,138,143,146,150,153,157,160,164,167,168,169,168,164,159,152,145,137,127,116,105,95,85,75,65,55,46,37,31,27,24,21,19,16,14,12,10,8,6,4,2,1,0,-1,-2,-3,-3,-3,-3,-4,-4,-5,-5,-6,-9,-11,-13,-10,-4,1,5,9,13,17,21,24,27,29,30,29,28,25,22,19,14,9,4,0,-4,-9,-13,-19,-25,-32,-38,-42,-46,-50,-53,-56,-59,-62,-65,-68,-72,-75,-80,-84,-89,-94,-102,-117,-154,-230,-342,-496,-678,-861,-963,-965,-876,-647,-342,-70,138,218,222,165,97,43,26,15,5,0,-2,-4,-6,-8,-10,-12,-14,-16,-19,-20,-22,-24,-27,-30,-33,-38,-44,-54,-71,-88,-104,-112,-116,-120,-122,-125,-126,-127,-128,-129,-130,-133,-135,-137,-138,-139,-140,-141,-142,-144,-146,-148,-155,-172,-190,-209,-228,-251,-274,-297,-324,-346,-364,-374,-378,-380,-382,-385,-388,-387,-379,-365,-343,-311,-281,-249,-215,-182,-155,-135,-115,-96,-77,-60,-47,-35,-22,-8,-2,2,7,11,15,18,20,22,22,22,21,18,15,10,4,-1,-7,-12,-16,-20,-25,-30,-35,-41,-45,-49,-52,-53,-53,-53,-51,-47,-43,-37,-31,-24,-16,0,14,27,36,44,50,55,58,58,56,52,46,38,28,11,-7,-21,-32,-40,-49,-57,-63,-66,-69,-72,-74,-76,-79,-81,-82,-83,-83,-83,-82,-80,-78,-75,-72,-68,-64,-61,-59,-56,-55,-54,-53,-52,-51,-50,-49,-47,-45,-43,-41,-39,-38,-36,-35,-33,-30,-27,-24,-20,-14,-3,7,17,25,28,31,33,34,36,37,38,39,40,41,41,43,44,44,45,44,44,43,42,42,40,39,37,35,35,35,35,35,36,35,34,32,31,28,24,20,14,7,2,-5,-17,-61,-142,-264,-418,-593,-769,-878,-882,-792,-549,-236,70,309,400,408,357,265,201,169,157,151,146,142,139,136,132,129,126,124,122,119,116,111,105,103,108,117,127,134,141,148,153,157,157,155,151,146,140,135,130,124,118,112,107,101,93,83,66,50,34,18,2,-12,-28,-46,-64,-82,-100,-119,-138,-158,-176,-191,-202,-210,-215,-220,-225,-228,-229,-227,-222,-213,-202,-181,-149,-125,-99,-73,-43,-8,22,49,74,96,118,141,168,191,205,211,211,211,212,212,212,212,212,211,207,202,198,196,194,192,190,187,185,183,182,180,178,176,174,172,171,169,168,167,166,165,165,165,165,164,164,163,163,163,163,163,164,164,165,165,166,167,167,167,166,166,165,164,163,162,161,159,157,155,153,150,147,143,138,131,124,117,109,102,97,92,89,86,82,79,75,72,69,66,63,58,53,46,33,20,8,1,-3,-8,-12,-15,-18,-19,-20,-19,-18,-15,-11,-7,-2,3,10,23,35,44,50,54,57,60,62,63,64,63,63,62,61,60,59,59,59,58,57,56,54,53,51,50,49,47,44,41,36,30,0,-70,-167,-307,-473,-637,-740,-741,-642,-411,-113,181,383,439,427,315,208,125,69,43,27,17,10,6,3,0,0,-1,-2,-4,-5,-6,-7,-8,-10,-11,-12,-14,-16,-18,-21,-24,-29,-34,-40,-45,-51,-59,-68,-82,-95,-108,-120,-133,-145,-158,-167,-173,-178,-182,-186,-189,-191,-194,-196,-198,-202,-207,-214,-223,-233,-246,-262,-279,-291,-300,-308,-311,-312,-312,-313,-314,-315,-313,-300,-281,-255,-229,-200,-168,-136,-101,-69,-37,-7,14,30,49,55,58,61,64,67,69,70,72,74,75,77,78,78,78,78,78,78,78,77,75,74,72,70,68,65,62,60,57,54,52,49,47,44,41,37,32,27,22,17,13,9,7,7,7,8,10,12,15,18,23,27,33,41,59,77,94,108,119,127,131,134,137,139,140,142,143,143,144,143,143,142,140,137,134,131,127,123,118,114,108,102,95,88,81,75,71,67,64,60,57,54,50,47,44,42,39,37,36,34,33,33,32,31,29,28,27,26,25,25,27,30,34,38,44,49,54,57,61,65,69,72,75,77,78,78,78,77,76,74,72,70,68,66,63,61,58,55,53,50,47,45,42,40,36,31,7,-47,-132,-251,-399,-566,-702,-757,-741,-597,-340,-52,202,348,368,322,227,131,64,30,10,-2,-9,-12,-13,-15,-16,-17,-17,-16,-16,-16,-15,-15,-14,-13,-12,-11,-10,-9,-7,-6,-5,-4,-3,-2,-1,0,-1,-4,-10,-17,-24,-33,-44,-55,-63,-72,-81,-91,-103,-114,-129,-146,-162,-176,-188,-201,-216,-226,-235,-242,-248,-252,-255,-258,-261,-265,-269,-271,-269,-263,-255,-241,-215,-192,-174,-155,-128,-99,-75,-50,-26,1,32,61,81,94,104,114,118,122,126,129,131,133,134,135,135,134,133,130,126,122,117,111,102,82,63,36,6,-15,-32,-51,-68,-82,-97,-110,-118,-124,-129,-133,-137,-140,-143,-145,-147,-149,-151,-152,-154,-156,-158,-160,-162,-163,-164,-165,-166,-165,-164,-162,-158,-154,-149,-144,-137,-130,-120,-108,-99,-91,-84,-75,-65,-57,-53,-50,-48,-47,-45,-43,-42,-41,-40,-40,-40,-41,-44,-47,-51,-55,-60,-64,-67,-69,-72,-75,-78,-80,-83,-86,-89,-92,-95,-97,-99,-100,-101,-102,-103,-104,-105,-106,-107,-107,-108,-109,-109,-110,-110,-110,-109,-108,-107,-105,-104,-103,-101,-100,-99,-98,-97,-96,-96,-97,-97,-98,-100,-102,-104,-106,-109,-112,-115,-118,-122,-133,-143,-149,-153,-156,-160,-163,-167,-172,-177,-184,-197,-239,-310,-418,-567,-735,-913,-1032,-1040,-964,-746,-453,-155,88,182,190,136,57,-21,-50,-59,-66,-71,-70,-62,-52,-41,-29,-17,-6,4,15,27,39,49,58,66,74,81,85,88,90,92,94,95,96,97,97,97,97,95,93,91,88,86,83,79,76,72,69,65,61,57,53,49,46,42,38,32,24,11,-11,-30,-49,-67,-87,-100,-109,-116,-121,-123,-122,-119,-114,-107,-96,-72,-45,-16,16,46,74,101,122,138,157,173,186,199,213,222,229,235,239,243,244,242,238,232,225,218,212,206,199,191,184,177,171,164,157,151,145,138,133,128,124,120,117,114,112,111,108,106,104,101,99,97,95,94,94,93,94,95,98,101,104,108,112,117,121,125,128,132,136,140,145,149,155,160,164,168,171,173,174,173,172,171,168,165,161,157,153,148,144,138,128,117,108,99,92,87,83,79,75,72,69,66,63,60,57,54,52,50,48,47,45,43,40,38,35,33,31,29,28,28,29,32,35,39,42,46,51,55,59,63,67,71,75,79,83,85,85,84,81,76,71,65,57,49,37,23,8,-6,-17,-26,-35,-42,-47,-51,-54,-56,-58,-60,-61,-63,-64,-65,-66,-67,-69,-70,-72,-74,-75,-77,-81,-86,-91,-98,-136,-194,-285,-412,-573,-752,-901,-959,-941,-791,-522,-210,63,239,272,264,189,120,65,45,26,16,10,6,2,0,-4,-8,-12,-16,-21,-25,-31,-37,-45,-54,-63,-73,-82,-88,-92,-96,-100,-104,-107,-110,-113,-116,-118,-121,-124,-127,-130,-133,-137,-145,-153,-161,-170,-178,-186,-195,-204,-213,-223,-232,-240,-248,-256,-264,-273,-282,-290,-296,-302,-308,-313,-317,-319,-320,-320,-317,-313,-307,-300,-292,-279,-253,-234,-214,-193,-172,-150,-129,-111,-97,-87,-78,-67,-56,-48,-42,-37,-32,-27,-22,-17,-11,-5,0,4,10,15,20,24,29,33,36,39,41,43,45,48,50,52,55,57,60,63,67,71,75,80,84,89,93,98,102,106,111,116,121,125,128,131,132,132,131,129,126,123,119,115,111,108,105,101,98,94,90,87,83,80,76,73,70,67,65,63,61,59,56,54,52,49,46,43,40,36,33,29,25,22,19,17,16,16,16,18,22,25,29,33,38,43,48,52,57,63,69,76,82,87,91,93,94,93,92,89,86,82,78,74,70,67,65,62,60,58,56,55,53,52,52,51,49,46,45,43,42,41,40,38,35,31,25,18,-25,-117,-253,-422,-614,-771,-855,-810,-634,-337,-5,271,450,515,467,379,293,236,213,207,205,203,202,201,200,199,198,197,196,194,192,191,189,187,184,181,177,173,169,164,158,150,142,134,127,121,114,107,99,91,84,77,71,64,56,49,41,33,25,17,7,-4,-16,-28,-43,-60,-77,-99,-124,-147,-174,-197,-212,-222,-231,-237,-243,-248,-251,-251,-247,-240,-231,-220,-201,-183,-164,-145,-122,-102,-84,-71,-61,-56,-53,-50,-47,-44,-43,-42,-41,-42,-42,-44,-46,-48,-51,-54,-57,-59,-61,-63,-65,-67,-69,-71,-72,-73,-74,-76,-76,-77,-77,-78,-78,-79,-79,-80,-80,-79,-78,-77,-76,-75,-73,-70,-67,-64,-61,-58,-55,-50,-37,-26,-18,-12,-7,-2,1,2,1,-3,-9,-16,-21,-26,-31,-36,-41,-44,-47,-49,-51,-52,-54,-55,-56,-57,-58,-58,-58,-58,-58,-58,-59,-59,-58,-58,-57,-57,-57,-56,-55,-54,-52,-51,-50,-49,-48,-47,-46,-45,-44,-43,-42,-40,-38,-35,-31,-26,-20,-13,-7,-4,-1,1,3,6,8,10,11,13,14,15,16,17,18,18,19,19,19,20,19,19,19,19,20,21,22,24,26,30,42,56,71,87,104,128,149,161,169,168,146,85,-17,-163,-331,-476,-541,-490,-315,-33,282,559,741,789,743,658,569,500,479,473,468,467,474,485,492,497,502,506,509,511,512,512,511,508,504,499,493,484,467,450,436,424,413,405,394,382,370,359,347,333,313,290,270,246,226,213,201,190,178,167,156,146,129,107,85,60,33,6,-13,-29,-44,-64,-87,-108,-131,-149,-161,-167,-169,-172,-175,-173,-157,-133,-102,-73,-46,-21,3,27,48,67,86,100,111,122,128,132,135,138,140,141,141,139,136,133,130,125,121,115,108,101,94,88,85,82,80,78,76,74,73,71,69,67,65,63,61,59,57,55,53,52,50,49,47,45,44,43,42,42,42,41,41,41,41,41,41,42,42,41,41,41,41,41,41,41,40,40,39,38,36,34,31,25,19,13,6,0,-6,-12,-18,-26,-34,-42,-46,-49,-52,-55,-57,-59,-61,-63,-65,-67,-69,-70,-71,-72,-73,-74,-75,-75,-76,-76,-77,-79,-80,-82,-83,-84,-85,-85,-84,-82,-79,-75,-71,-66,-61,-56,-48,-41,-38,-37,-36,-35,-34,-33,-32,-32,-33,-37,-42,-47,-51,-54,-58,-62,-65,-67,-70,-72,-74,-75,-77,-79,-82,-85,-88,-94,-103,-136,-198,-283,-393,-540,-677,-795,-835,-775,-595,-323,-31,218,360,415,350,256,177,98,58,22,3,-2,-5,-6,-8,-9,-10,-11,-12,-12,-12,-12,-12,-12,-12,-12,-12,-13,-12,-13,-13,-14,-16,-17,-19,-21,-23,-25,-29,-42,-55,-66,-75,-83,-90,-96,-105,-117,-131,-145,-158,-173,-187,-201,-213,-226,-239,-250,-261,-272,-286,-300,-314,-329,-339,-347,-353,-356,-354,-348,-340,-327,-305,-283,-265,-240,-203,-166,-141,-110,-85,-49,-13,8,33,56,71,81,90,97,101,103,105,108,109,111,112,113,113,113,112,111,108,105,102,99,97,94,92,91,90,89,88,87,86,84,82,81,79,77,76,75,75,74,74,74,74,74,74,74,74,74,74,74,75,76,77,78,80,81,83,85,86,88,90,91,93,95,97,100,102,105,106,107,107,106,104,101,97,91,86,80,73,60,48,39,31,21,10,0,-13,-19,-23,-27,-30,-32,-35,-39,-42,-46,-49,-53,-57,-61,-64,-67,-70,-74,-77,-81,-85,-88,-91,-93,-94,-95,-95,-94,-92,-89,-86,-82,-79,-76,-72,-68,-64,-60,-55,-50,-44,-40,-36,-33,-32,-33,-36,-40,-45,-51,-57,-65,-77,-87,-92,-96,-98,-100,-102,-104,-105,-106,-106,-106,-105,-104,-102,-99,-95,-90,-85,-78,-65,-63,-72,-97,-148,-229,-343,-489,-656,-818,-898,-896,-801,-569,-277,5,219,285,288,231,161,101,78,73,70,68,66,64,63,61,58,56,54,52,50,49,46,43,38,31,23,15,6,-1,-10,-20,-28,-37,-45,-49,-52,-55,-57,-60,-62,-64,-66,-68,-70,-72,-74,-77,-79,-82,-85,-89,-97,-106,-115,-125,-136,-148,-164,-178,-190,-198,-204,-210,-214,-217,-217,-215,-212,-207,-201,-193,-179,-163,-139,-112,-91,-74,-56,-33,-5,15,31,50,63,72,79,83,85,86,86,87,88,90,89,81,73,69,67,65,62,60,58,55,52,50,48,47,46,45,43,42,42,41,40,40,39,37,36,35,34,33,33,32,33,34,35,36,37,38,39,40,40,40,39,38,37,36,35,34,32,29,26,23,19,12,3,-4,-12,-21,-28,-35,-40,-45,-50,-54,-58,-62,-65,-69,-73,-76,-79,-82,-84,-87,-90,-92,-94,-97,-99,-101,-103,-104,-105,-106,-106,-106,-106,-106,-106,-107,-107,-109,-110,-111,-112,-111,-107,-100,-92,-82,-64,-47,-30,-13,2,18,33,47,52,54,56,57,59,60,61,61,62,64,66,68,70,72,74,77,79,82,85,88,90,93,96,100,104,107,111,114,117,120,122,124,126,127,128,129,131,132,133,134,136,140,143,145,145,141,134,122,83,6,-110,-265,-435,-601,-684,-675,-545,-277,29,318,507,572,528,438,338,268,240,229,223,219,214,207,199,192,183,173,164,159,156,154,153,153,151,150,149,148,147,146,144,141,138,134,130,126,122,118,115,111,108,105,103,101,98,96,93,91,89,87,86,85,83,82,82,81,79,76,70,56,40,24,9,-4,-22,-47,-62,-70,-76,-80,-82,-82,-81,-78,-73,-67,-55,-32,-9,14,35,52,68,90,115,133,147,161,172,181,187,192,195,197,198,198,198,199,199,199,200,201,202,203,204,205,207,209,211,214,216,219,221,223,225,228,230,233,237,240,243,245,246,246,246,244,242,238,234,230,226,220,213,205,197,189,181,175,170,166,162,159,156,154,152,151,149,148,147,146,144,142,141,140,138,137,135,134,133,133,133,133,132,131,130,129,128,126,123,121,122,128,138,146,154,162,166,169,171,174,177,179,181,181,180,175,168,159,147,128,115,101,88,74,56,33,13,-1,-17,-33,-48,-63,-73,-79,-84,-89,-94,-100,-105,-109,-113,-115,-118,-120,-122,-125,-127,-130,-132,-134,-135,-137,-140,-144,-148,-171,-227,-309,-422,-561,-734,-892,-990,-990,-888,-647,-334,-16,193,288,292,220,136,71,23,5,-8,-25,-48,-66,-77,-88,-98,-105,-111,-116,-123,-130,-138,-143,-148,-152,-156,-159,-162,-165,-168,-170,-173,-176,-178,-181,-185,-189,-193,-197,-201,-205,-210,-215,-223,-231,-240,-249,-256,-263,-268,-273,-277,-281,-284,-288,-293,-301,-311,-323,-336,-352,-365,-379,-392,-406,-415,-421,-427,-430,-430,-428,-423,-417,-406,-384,-359,-336,-315,-293,-271,-246,-224,-207,-190,-178,-170,-163,-156,-150,-144,-137,-130,-122,-112,-102,-97,-93,-90,-87,-84,-82,-80,-77,-75,-72,-71,-69,-67,-65,-62,-59,-54,-47,-40,-32,-25,-16,-4,11,23,27,30,32,34,36,38,39,40,41,41,42,42,41,38,35,31,26,22,18,14,10,7,5,3,1,0,-1,-3,-6,-8,-10,-12,-14,-16,-17,-19,-20,-20,-20,-20,-19,-19,-18,-17,-15,-14,-12,-11,-9,-8,-6,-4,-1,1,4,9,22,35,48,64,82,98,110,119,125,129,132,134,135,137,139,141,142,142,140,136,131,125,119,112,101,92,86,82,79,76,72,70,68,68,68,69,70,71,72,73,74,76,77,76,73,69,65,63,61,59,58,58,57,56,54,52,50,49,48,46,43,40,36,30,22,-18,-101,-223,-377,-552,-701,-754,-735,-581,-322,-26,240,421,476,428,328,228,160,95,62,32,7,0,-3,-6,-7,-9,-10,-11,-12,-12,-13,-13,-13,-13,-12,-12,-13,-13,-14,-15,-16,-17,-18,-19,-20,-21,-22,-23,-25,-27,-28,-30,-33,-37,-41,-47,-52,-57,-61,-66,-70,-76,-84,-96,-107,-117,-133,-156,-180,-203,-224,-246,-266,-291,-306,-314,-320,-324,-326,-326,-324,-320,-314,-306,-296,-279,-265,-246,-223,-198,-176,-157,-133,-113,-101,-87,-72,-57,-42,-27,-12,-5,0,4,7,10,13,15,18,20,22,25,27,29,31,33,36,41,50,59,71,83,93,102,111,116,118,119,119,119,119,120,120,121,122,123,124,127,129,131,133,135,137,139,140,142,143,144,145,147,149,151,153,156,158,160,163,165,167,169,171,172,175,177,180,183,185,188,192,196,200,205,209,212,216,219,222,226,229,233,238,243,252,262,270,278,284,289,294,298,302,305,306,304,300,294,287,279,271,260,249,240,233,227,221,216,210,204,196,187,179,172,167,162,157,153,149,146,143,140,137,133,129,125,119,112,103,94,84,63,30,-28,-113,-227,-376,-540,-679,-728,-709,-563,-297,3,267,428,464,453,360,256,164,109,81,68,62,59,55,51,44,39,33,27,19,10,1,-6,-14,-21,-29,-37,-46,-54,-62,-70,-78,-86,-94,-102,-110,-118,-126,-134,-142,-150,-157,-165,-172,-179,-186,-193,-200,-207,-217,-232,-252,-269,-283,-298,-312,-329,-349,-370,-387,-399,-410,-419,-427,-433,-439,-445,-449,-450,-449,-445,-439,-431,-416,-389,-364,-337,-310,-283,-256,-231,-210,-186,-167,-156,-144,-132,-127,-124,-121,-119,-118,-116,-115,-113,-112,-110,-107,-105,-102,-100,-98,-95,-94,-92,-89,-87,-84,-81,-78,-74,-70,-66,-61,-58,-55,-52,-49,-47,-44,-42,-39,-36,-30,-23,-15,-8,0,13,31,48,65,82,103,124,144,159,166,171,175,179,181,181,180,176,170,164,157,150,141,132,124,117,109,104,102,100,99,98,97,96,95,94,93,92,91,90,89,89,89,89,90,90,90,90,90,89,89,89,89,88,88,88,89,90,91,92,93,95,96,98,99,101,102,103,104,104,104,104,103,102,101,100,98,96,93,90,87,83,79,72,64,55,48,44,40,37,35,33,31,30,31,31,31,29,28,27,26,25,24,22,18,13,8,0,-35,-106,-210,-340,-501,-661,-785,-799,-749,-561,-294,1,235,351,390,363,280,217,151,127,120,116,114,113,111,107,103,100,96,93,88,82,76,65,54,44,35,27,19,11,4,-2,-7,-11,-13,-16,-18,-20,-23,-25,-29,-32,-35,-39,-42,-46,-51,-58,-69,-81,-89,-97,-106,-117,-129,-143,-155,-166,-176,-188,-198,-205,-210,-215,-219,-223,-226,-227,-227,-226,-225,-222,-218,-212,-205,-190,-159,-133,-112,-90,-67,-45,-21,-13,-9,-5,-2,0,3,6,8,10,11,12,13,13,13,12,11,9,8,7,6,5,4,3,2,1,0,-1,-3,-4,-6,-7,-8,-8,-8,-8,-7,-6,-4,-3,0,1,3,5,8,10,12,14,17,19,21,24,26,28,31,33,34,36,37,38,39,39,38,37,35,33,30,28,26,23,21,20,19,18,18,18,18,18,17,17,16,16,15,14,14,13,13,12,13,13,13,14,15,17,18,19,22,24,28,32,35,40,45,50,58,77,88,94,97,100,102,104,106,108,109,110,110,109,107,104,99,93,87,80,74,67,59,50,43,39,38,37,36,36,36,35,35,34,34,34,33,33,33,34,34,34,35,35,36,37,38,40,41,40,39,37,35,33,31,27,23,18,13,7,0,-48,-151,-300,-477,-649,-767,-779,-721,-506,-213,89,314,423,432,371,280,204,135,110,90,78,69,62,55,46,36,29,24,20,17,14,11,8,6,3,1,-1,-4,-8,-11,-13,-16,-18,-21,-24,-26,-29,-32,-35,-37,-40,-43,-45,-48,-50,-52,-54,-55,-57,-59,-60,-62,-64,-67,-70,-76,-92,-108,-124,-140,-159,-175,-188,-204,-221,-231,-239,-246,-252,-256,-257,-256,-252,-247,-239,-230,-218,-195,-173,-152,-130,-110,-89,-69,-53,-39,-28,-16,-1,9,20,28,31,32,32,32,32,32,32,32,32,32,33,34,36,37,39,41,43,46,49,51,54,56,59,62,66,70,73,75,76,76,75,73,71,67,63,59,53,46,38,30,23,16,9,1,-4,-9,-13,-16,-18,-20,-22,-24,-26,-27,-27,-28,-28,-27,-26,-23,-20,-15,-10,-4,4,22,36,49,62,78,89,96,102,109,115,122,129,138,148,158,170,184,202,210,215,220,224,227,230,231,233,233,233,233,233,231,228,225,222,219,215,212,207,196,188,183,179,177,174,172,170,167,162,156,149,139,126,103,86
