194,244,296,352,388,407,416,423,428,431,433,434,433,432,429,425,419,412,384,323,246,172,111,79,57,41,40,51,83,134,192,250,277,288,294,299,303,306,308,311,314,316,319,320,323,328,333,335,331,323,314,309,305,300,294,289,284,280,277,275,272,270,269,267,266,264,262,259,256,253,249,245,240,235,229,222,214,199,186,178,171,166,161,156,152,146,140,134,126,116,101,88,78,68,60,53,45,37,33,29,26,24,22,21,20,19,19,20,21,24,27,32,37,44,59,87,111,138,160,174,188,202,208,213,217,221,224,228,230,233,234,235,236,235,233,230,226,222,218,214,210,205,201,195,187,177,168,162,157,151,146,138,129,119,106,93,81,73,68,64,59,56,56,61,67,69,71,73,75,78,81,85,87,89,90,91,90,88,85,81,76,72,67,63,60,58,56,54,53,51,49,47,45,42,39,36,33,30,29,27,26,25,24,22,20,17,10,-5,-15,-20,-25,-29,-32,-34,-35,-34,-32,-30,-28,-25,-22,-19,-19,-20,-22,-24,-26,-28,-30,-32,-34,-35,-34,-33,-30,-27,-25,-23,-20,-18,-16,-14,-14,-16,-20,-23,-27,-29,-30,-32,-33,-35,-36,-37,-38,-38,-38,-37,-36,-33,-31,-28,-25,-22,-20,-17,-14,-12,-11,-11,-10,-8,-6,-5,-4,-3,-4,-5,-7,-8,-10,-13,-16,-19,-21,-22,-23,-24,-25,-27,-28,-30,-31,-31,-32,-32,-31,-28,-24,-20,-15,-10,-5,0,3,5,7,9,10,11,13,15,17,19,21,23,25,26,27,28,29,30,30,29,29,29,29,29,29,29,30,31,31,32,32,31,31,30,30,29,28,28,27,26,26,26,25,24,23,21,19,16,14,10,7,4,2,0,-4,-9,-15,-22,-27,-31,-34,-35,-35,-32,-28,-23,-16,-9,0,12,26,38,50,56,61,66,69,72,74,76,77,79,82,84,86,89,90,91,93,95,97,101,109,114,114,109,100,72,9,-68,-149,-223,-282,-303,-315,-313,-282,-229,-159,-82,-13,41,67,76,81,85,88,90,92,93,93,94,94,93,92,89,85,82,78,74,70,66,63,60,58,55,53,52,50,49,48,47,45,44,42,41,40,39,38,37,36,35,35,34,32,30,28,26,23,19,13,8,3,-1,-6,-13,-21,-32,-44,-55,-66,-75,-85,-94,-102,-112,-123,-135,-150,-162,-173,-182,-189,-194,-199,-203,-207,-211,-214,-216,-216,-213,-207,-199,-190,-177,-155,-139,-119,-89,-68,-58,-51,-43,-36,-30,-25,-18,-11,-4,3,13,21,25,27,28,31,33,35,37,39,41,43,45,46,47,48,48,48,47,47,46,45,44,44,43,43,42,41,40,39,38,37,35,33,31,29,26,24,21,18,15,12,8,-4,-15,-25,-31,-35,-39,-43,-46,-47,-46,-43,-38,-33,-27,-20,-10,1,15,28,34,39,43,47,51,53,55,57,58,60,62,63,64,63,63,63,63,63,63,62,62,61,60,60,60,60,60,61,61,61,60,60,59,58,57,56,55,54,53,52,51,51,50,49,47,45,43,41,39,37,35,33,32,30,29,27,26,24,22,20,19,17,16,15,13,13,12,12,12,12,12,12,13,13,14,16,16,17,18,20,20,21,21,21,21,21,20,19,18,17,16,15,13,12,11,10,9,8,7,6,4,3,3,2,2,2,2,2,1,0,0,-2,-3,-4,-5,-6,-7,-7,-7,-7,-7,-7,-7,-8,-9,-10,-11,-12,-12,-12,-12,-12,-11,-11,-11,-12,-12,-13,-13,-14,-15,-15,-15,-15,-14,-14,-13,-13,-12,-12,-11,-11,-11,-10,-10,-10,-9,-9,-9,-8,-8,-8,-7,-6,-6,-5,-4,-4,-3,-2,-1,0,0,0,0,0,0,0,0,0,-1,-2,-3,-4,-7,-10,-14,-23,-36,-53,-72,-81,-87,-92,-96,-98,-98,-94,-87,-78,-66,-47,-25,-14,-8,-3,0,2,5,7,8,10,11,13,15,17,19,21,24,26,27,29,31,33,38,43,46,45,41,34,21,-20,-86,-168,-254,-315,-335,-319,-269,-176,-80,-6,24,30,36,40,44,48,51,53,54,54,55,54,52,49,46,43,41,40,38,37,35,34,33,31,30,28,27,26,24,23,22,21,19,18,17,16,15,14,13,12,11,10,9,8,6,5,4,2,1,0,-1,-3,-4,-6,-8,-13,-20,-27,-34,-40,-48,-57,-70,-83,-97,-107,-114,-121,-129,-138,-146,-154,-159,-164,-169,-173,-177,-179,-181,-181,-181,-179,-177,-174,-170,-165,-158,-143,-124,-104,-84,-64,-45,-26,-4,11,23,33,41,48,54,57,60,62,64,66,67,69,69,70,71,71,71,71,71,71,70,69,68,67,66,66,64,62,60,59,57,55,53,51,49,47,45,41,34,25,16,8,0,-7,-15,-23,-29,-32,-34,-36,-40,-44,-47,-40,-27,-16,-6,2,11,20,28,31,34,37,39,42,44,46,48,50,52,53,55,56,57,58,59,59,59,59,59,58,58,57,57,56,56,55,54,53,53,52,52,52,50,49,47,46,45,44,42,40,38,36,34,31,9,-42,-113,-194,-269,-300,-309,-284,-212,-129,-58,-28,-18,-14,-10,-7,-4,-2,0,0,0,0,0,0,-2,-4,-5,-7,-10,-12,-14,-16,-17,-18,-18,-19,-19,-20,-21,-22,-23,-24,-25,-26,-28,-29,-31,-33,-35,-37,-39,-41,-42,-44,-46,-48,-50,-52,-55,-58,-61,-64,-67,-70,-73,-75,-78,-81,-85,-89,-96,-106,-117,-126,-135,-146,-162,-181,-196,-208,-216,-222,-226,-229,-232,-235,-237,-238,-239,-238,-236,-232,-227,-220,-206,-183,-164,-143,-122,-100,-78,-57,-41,-28,-14,2,23,41,54,65,70,72,75,77,79,81,82,83,84,84,85,85,84,83,81,79,77,76,74,73,71,69,67,65,63,60,57,54,50,46,43,40,38,34,30,22,9,-4,-12,-17,-21,-25,-27,-27,-26,-22,-16,-9,-1,7,23,35,44,47,49,51,53,55,57,59,59,60,60,60,61,61,62,62,61,61,62,62,63,63,63,63,63,63,62,61,61,60,60,60,61,62,63,63,63,62,61,60,58,56,55,52,50,48,45,43,21,-29,-96,-174,-252,-317,-347,-347,-314,-249,-171,-99,-45,-11,2,6,8,10,12,14,15,15,16,16,16,16,16,16,15,14,13,12,12,11,11,10,9,8,7,5,3,2,1,0,-1,-2,-4,-5,-6,-8,-10,-13,-16,-18,-20,-22,-24,-26,-29,-32,-35,-39,-42,-47,-52,-56,-61,-65,-70,-76,-85,-94,-100,-106,-117,-135,-150,-159,-168,-177,-185,-193,-199,-203,-207,-210,-212,-214,-215,-215,-214,-211,-207,-202,-192,-173,-155,-137,-119,-102,-86,-70,-53,-33,-10,9,22,29,36,43,49,54,59,63,66,67,67,67,68,68,68,68,69,69,69,67,64,60,56,53,48,44,39,36,32,29,26,23,20,16,12,7,4,1,-1,-4,-7,-9,-10,-9,-6,-3,1,7,18,37,49,57,64,72,75,77,79,81,82,84,85,86,87,88,88,89,89,88,87,86,85,85,84,82,81,79,77,75,74,72,68,63,59,56,53,51,49,48,47,47,47,47,48,48,48,48,47,46,45,43,42,40,38,36,34,33,32,30,29,26,22,19,16,14,12,11,10,9,8,8,9,9,9,9,8,8,7,6,5,5,5,6,7,8,10,12,14,16,18,20,21,22,23,24,25,27,28,30,31,32,33,34,35,35,36,36,36,37,38,39,40,41,42,43,44,46,49,51,53,54,55,57,58,60,61,62,62,62,62,62,62,62,61,60,59,59,59,59,59,58,56,54,54,58,62,64,65,66,67,69,71,72,74,76,77,79,81,82,83,84,85,86,88,89,91,92,94,95,97,98,99,100,101,101,101,102,102,101,100,99,98,96,95,93,90,88,85,82,79,71,64,59,55,50,45,42,43,49,57,65,75,84,91,102,124,136,141,145,149,151,153,154,155,156,157,158,160,160,160,160,160,161,161,163,166,179,193,202,203,192,163,97,4,-109,-227,-326,-364,-358,-290,-178,-60,38,107,139,149,156,163,169,173,176,179,181,184,185,186,187,186,186,185,183,181,178,175,172,168,164,160,155,152,148,145,140,134,129,125,121,118,115,112,108,104,100,96,91,86,80,74,68,64,59,55,52,50,48,46,43,39,30,20,10,0,-11,-23,-34,-43,-52,-61,-71,-84,-101,-113,-120,-128,-135,-144,-154,-165,-171,-176,-179,-182,-183,-182,-179,-175,-169,-159,-142,-127,-110,-91,-72,-52,-33,-14,4,22,41,58,70,82,90,95,100,106,112,118,124,132,139,144,149,151,152,153,154,156,157,158,159,160,160,161,161,162,162,162,161,161,161,161,160,160,159,159,158,156,155,153,151,149,147,145,142,139,135,123,116,111,108,105,102,100,100,102,106,112,119,127,139,149,156,165,175,182,185,188,190,192,193,194,194,194,195,195,194,192,190,187,184,182,179,177,174,171,168,165,161,158,154,150,145,140,134,128,123,118,114,109,104,98,91,84,77,68,59,50,42,35,30,25,19,15,9,3,-4,-13,-24,-31,-36,-40,-44,-48,-52,-55,-58,-64,-87,-126,-181,-251,-326,-394,-431,-444,-428,-379,-305,-229,-169,-149,-141,-143,-158,-168,-174,-179,-184,-189,-192,-196,-199,-204,-210,-215,-220,-225,-231,-237,-243,-250,-257,-264,-272,-280,-289,-299,-305,-310,-314,-317,-321,-325,-329,-332,-337,-343,-349,-355,-361,-369,-379,-388,-394,-398,-401,-404,-408,-413,-418,-427,-439,-450,-461,-471,-484,-495,-504,-513,-521,-530,-541,-552,-565,-583,-600,-618,-635,-652,-669,-687,-700,-708,-715,-720,-725,-730,-733,-733,-727,-717,-705,-689,-674,-653,-631,-611,-589,-568,-553,-536,-522,-509,-499,-490,-486,-483,-479,-477,-475,-473,-473,-473,-474,-475,-477,-481,-485,-490,-494,-499,-502,-507,-513,-518,-521,-522,-520,-516,-510,-504,-498,-495,-491,-488,-485,-482,-480,-479,-477,-475,-474,-472,-470,-469,-467,-466,-464,-463,-462,-460,-459,-458,-456,-454,-451,-447,-442,-436,-430,-425,-420,-414,-407,-400,-393,-386,-379,-372,-366,-359,-352,-346,-339,-332,-324,-314,-303,-293,-286,-281,-278,-274,-270,-266,-263,-259,-254,-247,-237,-227,-215,-206,-199,-192,-185,-177,-170,-164,-160,-155,-151,-147,-143,-140,-137,-135,-131,-127,-122,-117,-111,-104,-98,-92,-87,-82,-77,-72,-67,-62,-57,-52,-48,-43,-38,-34,-28,-23,-18,-12,-6,-1,4,8,13,17,21,24,27,30,33,37,41,45,49,52,54,56,58,60,62,63,65,66,67,68,69,70,70,71,72,73,74,75,77,79,80,82,84,85,87,88,89,91,92,94,96,98,101,104,107,110,113,115,118,120,122,124,126,128,130,132,135,139,143,147,151,155,157,160,162,164,166,168,170,171,173,174,176,178,179,181,183,184,185,186,187,188,189,191,193,195,198,201,203,203,198,190,182,173,160,151,149,147,145,143,142,149,164,177,192,205,215,229,244,258,264,267,269,272,274,275,276,278,280,282,283,285,286,285,285,284,283,282,280,278,275,273,270,267,248,191,111,13,-85,-149,-171,-150,-87,12,115,200,245,261,267,264,256,248,239,241,256,262,264,266,267,268,268,269,270,271,272,273,274,275,274,274,274,273,273,273,273,274,274,274,275,275,276,277,279,280,281,282,283,283,283,283,282,280,279,278,276,275,273,272,270,267,265,262,254,244,236,230,224,217,209,199,185,171,158,145,133,119,103,87,75,65,59,57,55,54,52,51,50,50,52,57,65,76,91,114,133,151,170,190,211,231,254,263,267,270,274,277,281,283,285,287,289,291,292,293,293,292,292,292,292,292,291,290,289,287,286,285,283,281,279,277,274,272,270,267,264,261,258,254,248,241,234,229,225,221,217,213,209,205,201,197,192,185,179,172,166,161,155,148,143,139,136,136,139,144,149,155,160,164,167,170,173,176,179,181,184,186,187,189,190,191,192,193,194,195,196,197,198,198,198,199,199,200,200,201,201,200,200,201,202,203,203,203,203,204,204,205,205,205,204,202,200,197,195,191,188,186,187,192,198,208,218,207,173,103,8,-100,-206,-273,-294,-273,-207,-104,-2,75,113,125,130,134,137,140,144,147,149,151,152,153,154,154,154,153,151,150,147,146,144,142,139,137,134,131,129,127,125,123,120,117,113,109,106,103,100,97,95,92,89,87,83,79,75,71,66,62,57,52,47,43,39,34,29,22,11,0,-9,-18,-28,-37,-48,-60,-73,-91,-113,-133,-148,-160,-169,-176,-181,-185,-190,-194,-197,-198,-196,-192,-185,-176,-158,-133,-113,-91,-69,-47,-24,0,20,36,52,65,77,87,94,98,100,102,103,105,106,107,108,109,109,109,109,109,108,107,106,104,103,101,99,97,94,91,87,83,78,68,57,47,41,36,31,28,26,26,27,30,34,39,45,50,57,65,72,80,87,93,100,106,110,113,115,116,117,117,118,118,119,119,120,121,122,124,125,125,125,125,123,122,120,117,115,112,110,108,107,106,104,103,102,100,99,97,95,92,89,87,85,83,81,80,78,77,75,75,74,73,71,69,66,64,61,57,52,48,43,39,33,29,24,21,18,15,13,11,9,6,4,2,1,0,0,-1,-2,-2,-2,-2,-1,-1,0,0,0,0,0,0,0,-1,-1,-2,-2,-2,-1,-1,-1,-1,0,0,0,0,-1,-2,-3,-3,-4,-4,-4,-4,-3,-2,-1,0,0,1,1,0,0,0,0,0,0,0,0,0,-1,-1,-1,-2,-3,-4,-6,-8,-9,-11,-12,-13,-15,-16,-16,-16,-16,-16,-17,-17,-17,-17,-17,-17,-17,-17,-16,-16,-15,-14,-13,-13,-12,-12,-12,-12,-12,-13,-13,-14,-15,-16,-16,-17,-18,-18,-18,-18,-18,-18,-19,-19,-20,-21,-22,-23,-25,-27,-29,-31,-33,-36,-39,-46,-61,-71,-76,-81,-85,-88,-88,-85,-79,-72,-63,-48,-33,-26,-22,-18,-16,-13,-12,-10,-9,-8,-7,-5,-3,-2,0,0,2,3,4,5,6,8,13,17,19,18,14,6,-15,-61,-131,-219,-309,-372,-393,-378,-331,-241,-151,-76,-24,-10,-6,-4,-6,-16,-20,-22,-23,-24,-25,-25,-25,-26,-28,-29,-30,-31,-32,-34,-35,-37,-39,-41,-42,-44,-44,-45,-46,-48,-49,-51,-52,-54,-57,-59,-62,-64,-65,-66,-67,-68,-69,-70,-71,-71,-71,-72,-74,-76,-78,-80,-82,-85,-90,-95,-101,-107,-113,-119,-126,-135,-145,-152,-160,-170,-183,-195,-205,-214,-225,-236,-243,-248,-252,-256,-259,-260,-260,-259,-256,-253,-248,-243,-234,-218,-204,-184,-159,-140,-128,-116,-103,-91,-78,-67,-56,-46,-37,-28,-18,-8,0,7,14,20,23,26,28,30,31,33,34,35,36,36,37,37,37,37,36,36,35,35,34,32,31,29,28,26,24,21,18,15,11,8,5,0,-5,-10,-14,-16,-18,-20,-22,-24,-26,-28,-29,-28,-25,-19,-12,-5,2,11,21,29,35,40,43,45,47,49,51,53,54,55,56,58,59,59,60,60,60,60,60,60,60,60,59,59,58,57,55,54,52,51,49,48,47,46,46,46,45,45,44,43,41,39,37,35,32,30,28,25,20,0,-42,-101,-174,-253,-308,-327,-310,-257,-168,-82,-18,0,4,8,10,11,11,11,11,10,9,10,12,12,11,11,11,11,12,13,13,14,13,12,10,8,5,2,0,-2,-4,-5,-6,-8,-9,-11,-12,-14,-15,-17,-18,-20,-22,-23,-24,-25,-27,-29,-32,-35,-38,-42,-49,-56,-63,-70,-77,-84,-92,-102,-111,-120,-128,-138,-149,-160,-170,-181,-191,-203,-216,-223,-229,-234,-238,-241,-243,-243,-242,-239,-236,-231,-225,-212,-190,-171,-153,-135,-114,-89,-65,-46,-31,-20,-10,0,15,27,34,41,46,51,55,58,60,62,64,66,67,68,69,69,69,70,69,68,66,64,62,60,57,54,49,43,38,31,26,20,15,9,4,-1,-6,-9,-12,-14,-17,-19,-20,-21,-21,-20,-18,-16,-13,-9,-5,0,12,23,35,46,53,56,57,58,59,60,61,62,62,62,63,63,63,63,63,63,63,62,62,62,62,61,61,61,61,61,61,61,60,60,60,59,58,58,57,56,55,54,53,52,51,50,49,47,45,42,39,37,34,32,29,26,23,21,20,19,17,16,14,12,11,10,9,8,7,6,5,4,4,3,2,1,0,0,0,-1,-2,-2,-3,-3,-3,-3,-4,-4,-4,-4,-3,-3,-3,-2,-2,-2,-2,-2,-3,-3,-4,-5,-6,-6,-6,-6,-6,-5,-5,-5,-5,-5,-5,-6,-6,-6,-6,-6,-5,-4,-3,-2,-1,0,0,1,1,1,1,1,1,2,2,2,2,2,2,2,2,1,0,-1,-3,-5,-8,-11,-15,-15,-12,-8,-5,-3,0,1,2,2,2,1,0,0,-1,-1,-2,-3,-3,-4,-4,-4,-4,-4,-3,-2,-1,0,0,0,0,-1,-2,-4,-5,-7,-9,-12,-15,-18,-21,-25,-34,-44,-51,-57,-62,-65,-69,-73,-76,-77,-77,-76,-73,-69,-65,-59,-53,-42,-32,-23,-15,-7,-1,3,5,6,7,7,7,8,9,11,13,15,16,18,20,22,25,28,32,37,48,55,51,39,4,-62,-155,-268,-381,-469,-498,-492,-429,-320,-199,-92,-18,6,13,17,20,22,24,25,26,26,27,27,28,28,28,28,28,29,29,28,27,26,25,24,23,22,22,21,20,19,17,15,14,13,12,10,8,6,4,3,1,0,0,-2,-4,-6,-9,-11,-14,-18,-22,-25,-29,-32,-35,-39,-43,-50,-57,-63,-69,-77,-89,-102,-113,-122,-132,-141,-152,-165,-182,-195,-204,-211,-216,-219,-222,-226,-230,-233,-234,-232,-227,-219,-210,-196,-184,-169,-148,-128,-113,-96,-78,-61,-46,-31,-16,0,11,18,24,30,36,42,47,51,55,59,63,67,69,70,71,71,71,72,73,73,74,74,75,77,78,80,80,79,77,74,72,70,68,66,64,62,60,60,59,58,56,53,50,47,44,40,36,32,27,22,17,12,8,3,-1,-7,-13,-17,-18,-15,-9,-2,5,14,28,42,55,60,63,65,68,71,73,76,77,78,78,79,80,80,81,81,81,81,81,81,81,82,81,81,80,79,78,77,76,76,75,74,73,73,72,71,70,69,68,66,65,63,62,60,57,54,50,48,49,50,53,57,60,66,76,76,64,27,-39,-138,-258,-377,-462,-474,-454,-358,-236,-119,-30,12,27,35,37,37,35,33,30,27,28,36,44,51,53,48,41,37,36,35,34,34,33,32,31,29,28,26,24,23,22,21,19,17,15,13,11,9,7,4,1,-1,-5,-8,-10,-13,-16,-19,-22,-24,-27,-29,-33,-38,-45,-51,-57,-62,-69,-78,-89,-102,-116,-132,-150,-161,-170,-177,-184,-194,-206,-216,-225,-233,-238,-242,-244,-247,-251,-257,-257,-246,-229,-208,-189,-169,-149,-128,-104,-81,-57,-36,-23,-15,-6,4,15,29,47,56,61,65,69,72,74,76,77,78,78,78,77,76,74,72,69,66,62,58,52,41,32,24,19,16,12,9,7,6,5,5,6,8,11,14,18,23,28,35,50,59,62,64,66,68,69,71,73,75,76,77,77,77,77,77,77,76,76,75,75,75,75,75,76,76,75,75,74,74,73,72,70,69,68,67,67,66,65,64,63,62,61,60,59,57,55,54,52,51,50,48,46,44,43,42,40,39,38,36,35,33,32,31,30,29,28,28,27,27,27,26,26,25,24,24,23,22,21,20,19,18,17,16,15,14,12,11,10,8,8,7,6,6,5,5,4,4,3,2,1,1,0,0,-1,-1,-1,-1,-2,-2,-3,-3,-4,-4,-4,-4,-4,-4,-4,-4,-3,-3,-2,-2,-1,-1,0,0,0,0,0,0,0,0,0,0,-1,-1,0,0,0,0,0,-1,-1,-1,-1,-2,-2,-2,-1,0,1,0,-2,-4,-5,-6,-6,-7,-8,-8,-9,-9,-9,-9,-9,-8,-8,-7,-7,-6,-6,-6,-6,-6,-6,-6,-7,-8,-9,-10,-11,-12,-14,-16,-18,-21,-23,-26,-29,-38,-48,-58,-69,-75,-81,-87,-91,-95,-97,-97,-95,-91,-87,-82,-77,-71,-62,-53,-44,-36,-31,-28,-25,-22,-19,-17,-15,-13,-11,-10,-8,-6,-4,-3,-2,0,2,7,13,19,24,31,39,39,27,-3,-60,-138,-228,-313,-361,-362,-323,-235,-136,-51,-19,-15,-11,-8,-5,-2,0,1,2,4,5,6,6,5,5,6,6,6,5,5,4,3,2,1,1,0,0,0,0,-1,-1,-1,-1,-1,-3,-4,-5,-6,-7,-8,-9,-10,-11,-12,-13,-14,-16,-19,-22,-25,-27,-30,-32,-35,-37,-40,-43,-45,-49,-55,-62,-68,-75,-82,-90,-99,-110,-122,-135,-151,-165,-171,-175,-179,-182,-184,-186,-186,-186,-185,-183,-181,-177,-172,-167,-158,-140,-123,-105,-88,-74,-62,-52,-42,-30,-17,-1,14,27,39,51,63,71,78,84,89,92,93,94,94,94,94,94,94,94,94,94,94,94,94,95,95,95,94,93,91,89,87,85,83,81,78,76,73,70,67,63,58,52,45,39,33,27,23,18,13,9,5,3,2,2,4,6,9,13,18,23,28,32,36,40,45,51,55,59,62,65,67,70,72,74,75,76,77,77,79,80,80,81,81,81,81,80,80,79,78,76,74,73,72,71,70,70,70,70,71,71,71,70,70,70,69,69,69,68,66,63,57,49,16,-44,-121,-205,-283,-326,-326,-286,-197,-100,-25,2,12,19,25,33,40,49,59,63,59,51,47,45,42,41,39,38,37,34,32,30,29,28,27,27,27,26,24,23,21,19,18,16,14,11,10,8,7,5,4,2,1,0,-2,-3,-6,-8,-11,-14,-18,-22,-26,-30,-36,-41,-48,-56,-65,-72,-77,-82,-91,-103,-119,-132,-141,-151,-160,-170,-182,-197,-213,-223,-229,-235,-239,-241,-241,-238,-234,-229,-222,-212,-195,-183,-169,-147,-120,-95,-69,-46,-26,-4,13,27,41,53,64,73,80,83,86,88,90,93,95,96,97,98,99,99,99,99,98,98,98,97,97,96,95,93,92,90,88,86,84,81,77,72,67,62,56,50,42,30,22,14,10,8,5,3,1,0,0,0,1,3,6,10,14,19,26,41,54,58,61,63,65,67,69,71,73,74,75,76,77,78,78,78,78,77,76,76,75,75,75,74,74,73,72,71,71,70,68,67,65,64,64,63,61,59,58,57,56,55,55,56,56,57,59,60,63,65,69,75,68,47,11,-46,-131,-239,-349,-435,-470,-440,-355,-243,-133,-47,-4,8,16,21,24,26,28,29,30,31,32,32,33,33,34,34,34,34,33,31,29,26,23,20,17,15,13,11,9,7,5,3,2,0,-1,-3,-5,-6,-8,-9,-10,-11,-13,-14,-16,-18,-21,-26,-31,-36,-42,-49,-56,-65,-73,-78,-83,-90,-99,-113,-125,-135,-144,-153,-164,-176,-188,-197,-203,-210,-219,-227,-233,-239,-244,-248,-250,-250,-248,-246,-241,-236,-225,-207,-189,-170,-149,-127,-101,-77,-57,-42,-30,-15,3,18,29,38,46,53,57,58,59,59,60,61,62,62,62,62,62,62,61,60,58,55,52,49,47,44,40,35,30,25,20,15,9,1,-4,-7,-8,-9,-9,-10,-12,-12,-10,-5,1,8,15,22,28,35,42,51,60,68,72,75,78,80,82,84,85,85,85,84,84,83,83,82,82,82,82,82,81,81,81,80,79,78,77,76,75,75,74,73,73,73,74,74,73,72,71,69,68,66,65,63,60,57,55,53,51,49,48,47,46,45,44,44,43,43,42,41,40,40,40,40,39,38,38,37,37,36,35,33,32,30,29,28,27,26,25,25,25,25,24,24,23,23,22,22,21,20,19,18,18,17,17,17,17,17,17,17,17,17,17,16,15,15,14,13,13,13,14,14,15,16,17,17,17,17,16,16,15,14,14,13,13,12,11,11,11,12,11,10,7,5,4,3,3,3,3,3,3,4,5,6,7,7,7,6,6,6,5,4,3,1,0,0,0,0,0,0,0,0,0,0,0,0,-1,-2,-3,-3,-4,-5,-5,-6,-7,-7,-8,-8,-9,-10,-11,-13,-14,-16,-18,-20,-23,-25,-28,-32,-35,-40,-48,-64,-75,-81,-86,-90,-92,-93,-93,-89,-84,-78,-70,-59,-50,-43,-35,-28,-20,-12,-8,-6,-4,-3,-3,-2,-1,0,1,3,5,6,7,8,9,10,12,14,17,25,29,27,19,-3,-55,-132,-230,-333,-422,-466,-466,-419,-320,-204,-102,-31,-8,-3,0,2,4,6,8,9,9,10,10,10,10,9,8,6,5,3,2,1,0,0,-2,-4,-5,-6,-6,-6,-7,-7,-8,-8,-9,-10,-11,-13,-14,-15,-16,-17,-18,-19,-20,-22,-23,-25,-27,-30,-34,-38,-42,-45,-48,-52,-56,-64,-76,-90,-99,-104,-109,-113,-117,-121,-125,-130,-136,-142,-147,-152,-161,-180,-195,-204,-210,-212,-212,-212,-211,-210,-210,-209,-208,-202,-192,-181,-165,-152,-138,-124,-108,-87,-62,-41,-26,-15,-4,6,23,32,36,40,43,46,49,51,53,54,56,57,59,59,60,60,60,61,61,61,62,62,62,64,65,66,67,67,66,66,66,64,63,61,58,57,55,54,52,50,48,45,43,40,36,31,26,21,16,12,7,3,0,-6,-11,-15,-17,-17,-15,-11,-7,-2,4,14,26,37,44,50,55,59,64,66,68,69,70,71,71,71,71,71,71,71,72,72,71,70,68,66,64,62,61,60,59,58,57,57,57,56,56,56,56,56,55,55,54,53,52,51,50,48,46,44,42,40,38,37,35,34,32,31,30,29,27,26,25,24,23,22,21,20,20,19,18,18,17,16,14,13,12,10,9,8,7,6,5,4,3,2,1,1,0,0,-1,-2,-2,-2,-2,-2,-2,-2,-1,-1,0,0,-1,-1,-2,-2,-2,-3,-4,-5,-5,-5,-5,-5,-4,-4,-5,-5,-6,-6,-7,-7,-7,-8,-8,-8,-8,-7,-6,-5,-4,-3,-2,-1,0,0,0,0,0,0,1,2,3,4,5,6,7,8,9,9,9,9,8,8,9,10,11,12,12,12,13,14,14,15,15,14,14,13,13,13,13,14,13,13,13,13,13,13,13,12,12,12,11,11,10,9,7,6,4,3,1,0,-2,-5,-8,-13,-27,-37,-42,-46,-49,-52,-54,-54,-53,-49,-43,-36,-30,-23,-14,-4,3,11,17,20,23,25,28,30,32,33,35,37,38,40,42,44,44,43,42,41,40,40,38,36,33,29,26,21,-4,-66,-144,-229,-309,-361,-367,-343,-262,-160,-65,6,21,22,22,22,22,22,22,22,22,21,21,21,20,19,19,19,18,17,15,14,12,11,9,7,5,4,3,2,2,1,0,0,-2,-3,-4,-6,-7,-9,-11,-12,-14,-15,-16,-19,-21,-24,-28,-32,-37,-42,-47,-51,-56,-60,-64,-68,-72,-77,-81,-84,-88,-93,-100,-109,-118,-126,-136,-148,-162,-177,-192,-206,-215,-221,-226,-230,-231,-231,-229,-225,-221,-215,-210,-202,-193,-184,-173,-154,-126,-101,-76,-56,-41,-24,-7,8,23,33,39,44,50,57,65,72,75,78,80,82,84,87,89,91,92,94,96,97,99,100,101,102,102,102,102,102,101,101,99,98,97,95,94,92,90,88,86,84,82,80,77,74,71,66,60,54,48,43,38,33,28,24,20,16,13,9,6,4,2,2,3,6,10,14,19,25,31,41,51,62,71,76,79,83,85,88,91,93,95,97,98,99,100,100,101,100,100,99,97,96,95,93,92,90,89,87,86,84,83,82,80,77,74,72,71,72,75,78,83,89,95,107,114,111,100,68,6,-83,-194,-310,-405,-435,-426,-348,-226,-106,-13,19,24,29,33,36,39,42,44,45,46,47,48,48,47,45,44,44,43,43,42,41,39,37,34,32,30,28,26,24,22,20,17,14,11,8,5,3,0,-1,-4,-6,-9,-11,-14,-17,-20,-23,-26,-29,-33,-36,-40,-44,-49,-54,-63,-72,-81,-90,-103,-119,-133,-144,-154,-165,-177,-192,-209,-225,-240,-251,-263,-274,-281,-288,-294,-298,-299,-298,-296,-292,-287,-277,-260,-241,-220,-196,-170,-144,-119,-94,-73,-54,-35,-21,-11,-4,0,5,9,13,22,31,36,39,43,46,49,51,53,55,56,57,57,57,56,54,52,50,47,44,40,36,32,28,21,14,8,4,0,-1,-4,-6,-9,-11,-12,-13,-13,-13,-12,-10,-8,-5,0,4,11,25,41,49,54,58,61,64,67,69,72,74,77,80,82,84,86,88,91,93,95,96,97,97,96,96,95,94,92,91,89,88,87,86,85,84,84,83,83,83,83,82,82,81,80,78,77,75,73,71,70,68,67,66,65,65,64,63,61,59,57,56,54,53,51,50,48,47,45,44,43,42,41,40,39,38,37,36,34,33,31,29,28,26,26,25,24,23,23,23,22,21,21,20,19,19,19,19,19,19,19,20,20,20,20,20,20,20,20,21,21,21,21,21,22,23,23,23,23,24,25,25,19,15,12,9,7,7,8,10,12,14,16,20,24,26,26,25,22,20,18,17,15,12,10,9,8,7,7,6,6,5,5,5,4,3,2,1,0,0,0,0,0,0,0,2,3,3,3,3,3,3,3,3,3,4,4,6,7,8,7,2,-1,-5,-8,-11,-15,-19,-23,-28,-34,-40,-48,-60,-68,-73,-77,-80,-82,-82,-79,-73,-65,-58,-50,-41,-32,-23,-18,-14,-11,-8,-5,-2,0,0,2,3,4,6,7,8,9,11,14,18,22,28,35,42,50,56,54,50,36,0,-62,-149,-250,-347,-412,-421,-400,-322,-229,-146,-86,-48,-23,6,23,32,37,25,12,2,-2,0,6,11,15,19,21,19,15,11,7,4,0,-1,-1,0,0,0,0,2,3,5,6,5,3,1,0,-2,-3,-4,-6,-8,-10,-12,-13,-15,-17,-19,-20,-22,-24,-26,-29,-32,-37,-42,-46,-50,-54,-58,-65,-73,-82,-90,-100,-112,-125,-133,-139,-144,-150,-155,-160,-165,-172,-182,-190,-197,-203,-208,-212,-214,-214,-210,-204,-197,-186,-170,-156,-138,-113,-91,-74,-61,-49,-36,-24,-9,12,28,37,45,53,60,63,65,67,69,71,72,74,75,76,77,77,78,78,78,78,78,78,78,78,78,78,77,75,74,72,70,68,65,63,61,59,58,56,53,51,47,42,34,27,19,13,7,0,-6,-14,-22,-25,-25,-25,-24,-24,-24,-25,-17,-2,7,16,23,30,35,40,44,48,51,53,54,55,56,57,58,59,60,60,61,61,62,62,63,63,63,63,63,63,63,63,62,62,62,62,63,63,64,65,65,64,63,62,60,58,56,54,51,49,46,42,15,-46,-126,-211,-268,-286,-267,-211,-125,-48,-2,11,22,30,37,44,50,51,45,38,36,34,32,30,29,28,26,25,23,21,20,19,18,17,17,16,15,13,12,11,9,7,5,3,1,0,-1,-2,-4,-6,-8,-10,-12,-14,-17,-19,-21,-23,-25,-27,-30,-33,-37,-42,-48,-54,-61,-69,-78,-87,-96,-103,-110,-120,-133,-146,-158,-167,-177,-188,-198,-209,-216,-222,-226,-230,-233,-235,-236,-235,-232,-226,-219,-206,-186,-169,-150,-128,-108,-77,-42,-19,5,27,43,55,69,78,83,88,92,96,99,101,103,104,105,106,107,108,109,110,112,113,114,114,113,112,111,109,107,104,100,97,93,88,80,71,61,49,36,28,25,22,20,18,16,16,16,17,18,21,24,29,34,42,55,68,73,76,78,80,82,84,85,86,87,88,89,90,90,90,90,90,89,88,88,87,87,86,86,85,84,82,81,80,79,77,76,74,73,72,71,71,70,70,70,68,67,65,63,60,58,57,55,54,52,48,33,-11,-82,-175,-278,-367,-402,-398,-340,-241,-132,-37,11,29,35,32,26,24,23,23,22,21,21,21,20,20,19,19,19,19,19,18,18,17,16,14,13,12,11,10,9,7,6,5,4,3,1,0,-2,-4,-6,-8,-10,-12,-14,-16,-18,-20,-23,-26,-29,-33,-39,-45,-51,-56,-60,-65,-71,-78,-86,-93,-102,-112,-127,-140,-152,-162,-172,-183,-193,-202,-209,-214,-219,-222,-226,-229,-231,-232,-231,-229,-226,-222,-214,-199,-184,-165,-142,-120,-98,-78,-58,-39,-20,-3,10,20,30,39,49,56,59,61,63,65,66,68,68,69,69,69,68,67,66,64,63,61,58,55,52,48,44,39,34,30,24,19,15,11,7,4,1,0,-2,-2,-1,0,1,4,8,12,16,24,31,37,44,53,64,71,74,75,76,77,78,79,80,81,81,81,82,82,82,82,81,80,80,80,80,80,80,79,77,76,76,74,70,69,70,71,72,73,75,75,74,71,68,66,65,63,61,58,55,53,52,50,49,48,47,46,45,45,44,42,40,37,35,32,29,27,25,24,23,22,22,21,21,19,18,17,15,13,11,9,8,8,8,8,9,10,11,11,11,10,9,7,5,5,4,5,5,5,7,8,8,6,4,3,2,1,0,0,0,0,0,0,0,0,0,1,2,3,4,5,5,6,7,7,8,8,8,9,9,9,8,8,7,7,6,6,5,5,4,3,2,1,0,0,-1,-1,-2,-2,-2,-2,-2,-2,-2,-2,-2,-2,-3,-3,-3,-3,-3,-4,-4,-4,-5,-5,-6,-6,-7,-7,-7,-8,-9,-10,-11,-12,-12,-13,-13,-14,-15,-17,-18,-19,-21,-24,-28,-33,-38,-43,-49,-55,-63,-70,-76,-81,-85,-89,-92,-94,-93,-90,-85,-79,-69,-59,-50,-40,-30,-23,-16,-11,-6,-2,0,0,1,2,3,4,6,8,10,12,14,16,19,22,25,31,41,47,46,40,24,-27,-110,-219,-339,-451,-530,-556,-520,-430,-308,-183,-84,-23,5,13,17,21,23,25,27,29,31,34,38,39,37,32,28,25,23,21,20,18,17,16,15,13,12,11,10,9,8,8,8,8,7,6,5,3,2,0,-1,-4,-7,-9,-12,-16,-20,-25,-31,-37,-42,-47,-51,-54,-58,-61,-64,-68,-71,-75,-79,-84,-89,-94,-101,-111,-119,-128,-136,-144,-154,-167,-181,-196,-207,-213,-218,-221,-224,-227,-231,-233,-233,-228,-220,-211,-198,-188,-173,-156,-139,-118,-92,-69,-48,-27,-13,-5,4,16,26,34,41,46,51,54,57,59,61,63,64,66,66,67,67,67,68,68,69,69,70,70,71,71,72,72,71,70,69,68,66,64,63,61,60,58,57,56,54,51,48,44,40,36,32,27,21,14,3,-3,-9,-12,-16,-19,-21,-22,-21,-17,-12,-5,3,18,34,44,52,58,63,67,70,72,74,75,76,78,79,80,81,82,82,83,83,83,82,82,82,82,82,81,81,81,81,81,81,80,80,79,78,77,76,75,73,72,70,69,68,67,66,66,64,63,62,60,58,55,53,50,47,44,42,41,40,39,38,37,36,35,35,34,34,33,32,31,30,29,28,28,27,26,26,25,24,23,22,21,19,18,17,17,16,15,15,15,14,14,14,13,12,11,10,9,9,8,8,8,7,7,7,6,6,5,4,3,2,1,0,0,0,-1,-1,-1,-1,-2,-2,-2,-3,-4,-5,-6,-7,-8,-8,-9,-9,-9,-9,-9,-9,-9,-9,-9,-10,-11,-11,-12,-12,-12,-12,-12,-12,-11,-11,-10,-9,-8,-8,-8,-8,-8,-7,-7,-6,-6,-6,-6,-6,-6,-5,-5,-5,-5,-5,-5,-5,-4,-4,-4,-5,-5,-5,-5,-5,-5,-5,-5,-6,-7,-8,-10,-12,-14,-16,-19,-22,-25,-28,-32,-40,-49,-53,-55,-58,-60,-63,-65,-64,-58,-51,-45,-40,-35,-29,-21,-13,-6,-2,1,5,8,10,12,14,16,19,21,23,25,25,26,26,27,28,29,29,32,40,40,32,8,-41,-112,-198,-284,-340,-358,-340,-286,-199,-113,-46,-2,14,22,28,30,26,18,15,14,12,10,9,8,7,5,4,3,3,3,3,4,5,5,5,4,4,2,1,0,-1,-2,-4,-5,-6,-7,-8,-8,-9,-11,-12,-15,-17,-20,-24,-27,-30,-33,-36,-38,-40,-43,-45,-46,-49,-52,-56,-60,-64,-67,-71,-74,-79,-86,-98,-111,-125,-138,-150,-161,-170,-178,-185,-189,-192,-195,-197,-199,-200,-200,-200,-199,-197,-194,-189,-184,-178,-168,-149,-132,-115,-98,-82,-62,-37,-18,-6,4,15,25,35,47,60,66,69,72,75,78,79,81,84,86,87,89,90,90,90,90,90,90,90,90,90,90,92,93,95,95,94,91,87,82,77,72,67,61,57,52,48,44,39,35,31,27,23,20,16,13,10,10,13,18,24,30,36,40,46,52,58,62,66,69,71,73,75,77,78,78,78,79,81,82,83,84,84,84,84,84,84,82,81,79,78,77,76,76,74,73,73,72,71,71,69,68,66,65,64,64,63,62,61,60,59,58,57,55,53,51,48,46,45,44,42,39,37,34,33,33,34,36,37,39,41,46,54,53,34,-16,-94,-195,-299,-365,-388,-364,-292,-181,-75,0,23,31,31,23,20,20,20,20,20,19,19,18,17,16,15,15,15,15,14,13,12,10,8,5,3,1,0,-2,-3,-6,-8,-10,-12,-14,-16,-19,-22,-24,-27,-29,-31,-33,-35,-36,-37,-38,-39,-40,-42,-44,-47,-52,-59,-65,-71,-79,-89,-103,-120,-132,-140,-147,-154,-158,-163,-170,-177,-187,-200,-214,-230,-244,-252,-258,-263,-266,-267,-266,-263,-258,-252,-244,-230,-220,-206,-188,-171,-153,-124,-91,-70,-48,-28,-13,-1,12,27,41,49,53,57,60,63,66,68,70,72,75,77,79,79,77,73,69,64,59,52,44,37,31,27,24,21,18,15,13,13,13,15,18,21,25,29,36,46,56,66,72,77,81,85,87,88,88,89,89,89,89,89,89,89,89,89,89,88,88,88,88,87,86,85,83,82,80,79,77,76,74,73,72,71,70,69,68,67,66,65,64,63,62,62,61,60,59,58,58,57,55,54,53,51,50,49,46,43,40,38,36,35,34,33,32,31,30,29,29,28,27,27,26,26,26,27,26,26,25,25,24,23,22,21,20,20,20,20,19,19,18,18,17,17,16,15,15,14,14,15,15,15,15,15,15,16,16,16,16,16,16,18,18,16,15,14,14,13,13,13,12,11,11,10,10,11,12,13,13,13,14,14,14,14,13,13,11,10,9,8,7,6,5,4,3,2,1,0,0,-2,-3,-4,-5,-7,-7,-8,-8,-8,-8,-7,-7,-7,-7,-7,-6,-6,-7,-7,-7,-7,-7,-7,-6,-6,-7,-7,-8,-9,-9,-10,-12,-14,-16,-17,-19,-20,-23,-28,-33,-38,-44,-49,-54,-60,-65,-69,-71,-72,-73,-73,-75,-77,-75,-64,-53,-42,-34,-27,-19,-12,-5,0,2,4,5,6,7,8,9,11,14,16,18,20,22,24,28,32,40,46,48,45,38,19,-33,-117,-230,-353,-461,-522,-526,-488,-393,-280,-172,-92,-44,-11,6,14,18,21,24,27,29,31,33,36,41,44,39,30,25,23,21,20,20,20,19,18,16,16,15,14,13,12,11,10,10,9,9,7,6,4,2,1,0,-3,-11,-18,-25,-31,-36,-39,-42,-44,-47,-50,-52,-54,-56,-58,-61,-65,-70,-76,-83,-91,-100,-110,-120,-129,-138,-148,-157,-166,-176,-185,-194,-201,-208,-216,-221,-225,-228,-230,-232,-233,-231,-224,-214,-203,-185,-171,-152,-130,-109,-88,-66,-45,-26,-4,13,27,46,59,69,76,82,86,89,90,92,94,95,97,98,99,100,101,102,103,103,102,102,102,102,103,103,104,104,104,105,105,105,104,102,100,98,96,94,92,90,87,85,83,81,78,70,61,52,46,40,35,29,22,15,10,5,2,-1,-5,-9,-8,-2,7,18,33,52,59,62,65,68,71,74,76,78,79,80,82,83,84,84,85,85,85,86,85,85,85,85,84,83,82,81,80,80,79,78,77,76,76,75,74,73,73,72,72,72,72,70,69,68,66,65,63,62,60,59,57,55,32,-18,-91,-181,-276,-361,-407,-410,-376,-294,-191,-91,-19,3,8,11,15,17,20,22,23,24,25,25,25,25,24,22,19,17,15,13,12,11,10,8,6,4,1,0,-3,-6,-9,-11,-14,-16,-18,-20,-22,-23,-24,-25,-27,-29,-31,-34,-37,-40,-44,-47,-51,-55,-59,-63,-68,-75,-84,-93,-102,-111,-119,-125,-131,-137,-142,-147,-153,-165,-186,-205,-219,-232,-243,-253,-260,-266,-269,-273,-276,-278,-279,-278,-274,-269,-262,-250,-227,-204,-181,-158,-134,-109,-85,-61,-38,-20,-7,7,22,37,51,57,60,63,66,68,71,73,74,76,77,77,77,76,75,73,71,69,66,63,60,57,54,50,43,35,29,24,20,16,13,9,6,4,4,5,7,11,16,21,28,38,46,52,55,57,59,60,62,63,64,65,66,67,68,68,68,68,68,68,69,69,68,68,68,68,69,69,68,67,66,65,64,63,62,61,60,59,58,58,57,56,55,55,54,53,53,52,51,50,49,48,48,48,48,48,47,47,46,46,45,44,43,42,41,41,41,40,40,39,40,40,41,41,41,40,40,39,39,39,38,38,37,36,35,34,33,32,31,31,30,29,29,28,27,26,25,24,23,21,20,19,18,17,17,16,15,15,14,14,13,13,12,10,9,7,6,5,5,4,3,3,3,3,4,4,4,4,4,5,5,6,6,6,6,6,6,7,7,6,6,5,5,5,5,5,5,4,3,3,3,3,2,2,2,3,4,5,6,6,7,7,8,8,8,8,8,7,7,8,8,8,8,7,7,6,5,4,3,2,1,0,0,0,0,-1,-2,-4,-5,-8,-11,-15,-20,-24,-28,-31,-35,-38,-43,-46,-49,-50,-50,-49,-47,-45,-42,-37,-31,-18,-4,1,5,8,11,13,15,17,18,20,21,23,25,27,29,30,32,34,36,39,43,48,51,52,50,45,38,13,-39,-111,-194,-273,-316,-331,-312,-254,-170,-87,-16,32,46,51,54,53,45,42,40,38,37,36,35,35,34,33,33,33,32,32,32,31,29,28,26,24,21,19,17,15,13,12,10,8,5,2,0,-3,-6,-8,-11,-13,-15,-16,-17,-18,-19,-21,-23,-24,-25,-27,-29,-31,-33,-35,-38,-41,-45,-51,-65,-78,-88,-97,-107,-116,-125,-134,-143,-152,-161,-169,-178,-187,-193,-197,-201,-204,-206,-206,-206,-204,-201,-197,-192,-185,-172,-161,-147,-128,-109,-88,-69,-54,-39,-25,-11,6,20,31,40,48,55,59,62,64,66,68,70,72,73,75,76,78,79,80,81,81,81,80,79,77,75,74,72,70,67,64,61,59,56,53,49,45,39,33,28,24,21,18,14,10,3,-6,-12,-16,-19,-21,-23,-25,-25,-25,-21,-17,-11,-5,0,6,13,19,23,27,30,32,33,35,36,37,38,39,41,42,43,44,44,45,45,46,46,45,44,44,43,43,43,43,43,42,42,42,42,42,42,42,41,41,40,39,38,37,36,35,34,34,33,33,22,-19,-87,-180,-280,-360,-381,-372,-303,-200,-95,-13,9,13,17,20,22,24,26,28,28,29,29,29,28,26,24,23,23,23,22,21,20,19,18,18,17,16,16,15,14,14,13,13,12,11,11,10,10,9,8,7,6,5,4,2,1,0,-2,-5,-7,-10,-13,-21,-29,-36,-42,-47,-51,-56,-60,-65,-70,-75,-82,-91,-107,-122,-137,-151,-167,-176,-182,-186,-190,-193,-194,-194,-194,-194,-194,-193,-193,-192,-185,-167,-147,-122,-102,-71,-44,-14,6,31,54,69,78,87,96,107,118,130,139,147,155,163,167,169,171,172,174,175,177,178,179,179,180,180,181,181,180,179,178,177,176,175,174,172,170,168,166,164,162,159,155,149,144,139,133,129,125,121,117,114,112,111,113,115,118,122,126,132,144,158,173,185,187,187,188,189,190,191,191,190,190,190,190,190,190,189,189,188,187,186,185,184,182,181,180,179,177,175,174,172,171,170,169,169,168,167,166,165,165,165,165,164,164,163,163,163,163,163,162,162,161,160,151,112,50,-37,-148,-261,-349,-384,-353,-266,-148,-36,39,60,67,74,83,97,110,115,118,120,121,120,116,111,108,105,103,101,98,95,91,87,84,79,72,64,55,49,44,41,37,34,32,30,27,21,13,3,-3,-7,-11,-16,-21,-27,-34,-43,-51,-56,-63,-71,-81,-88,-93,-97,-103,-108,-114,-122,-135,-146,-160,-177,-194,-210,-222,-232,-243,-255,-267,-277,-288,-298,-308,-317,-327,-334,-339,-343,-346,-346,-341,-332,-318,-300,-286,-274,-257,-237,-214,-191,-175,-159,-142,-127,-111,-94,-78,-66,-59,-54,-50,-47,-46,-44,-43,-42,-42,-42,-42,-42,-44,-47,-50,-53,-56,-59,-64,-69,-74,-77,-81,-83,-86,-90,-93,-96,-99,-103,-111,-119,-122,-124,-126,-126,-126,-124,-120,-116,-111,-102,-95,-85,-72,-61,-53,-43,-38,-36,-33,-31,-30,-28,-26,-25,-24,-23,-21,-20,-18,-16,-14,-12,-10,-9,-7,-5,-4,-2,-1,0,1,3,4,3,0,-3,-5,-8,-11,-12,-13,-13,-12,-13,-12,-12,-11,-10,-10,-11,-14,-17,-20,-21,-22,-24,-25,-27,-28,-29,-29,-29,-30,-30,-30,-29,-29,-29,-30,-30,-31,-31,-32,-32,-32,-32,-33,-33,-33,-32,-32,-33,-34,-36,-37,-39,-40,-40,-41,-41,-41,-42,-42,-41,-41,-41,-40,-40,-39,-39,-39,-40,-40,-41,-41,-40,-39,-39,-38,-37,-35,-33,-32,-31,-30,-29,-29,-28,-28,-27,-27,-26,-26,-24,-23,-22,-21,-20,-19,-18,-16,-15,-13,-12,-10,-7,-3,0,1,2,3,5,7,9,10,8,4,0,-4,-7,-10,-13,-15,-17,-18,-18,-18,-18,-18,-18,-18,-18,-18,-19,-19,-19,-18,-17,-15,-14,-12,-11,-14,-19,-22,-24,-26,-28,-30,-31,-30,-30,-29,-28,-27,-26,-25,-24,-23,-22,-23,-25,-28,-33,-37,-41,-48,-54,-57,-60,-61,-63,-65,-66,-68,-68,-67,-65,-62,-57,-49,-35,-25,-18,-10,-6,-3,-1,0,1,2,4,6,9,11,14,17,20,22,25,27,29,30,31,32,33,36,39,39,30,7,-40,-114,-209,-309,-393,-424,-418,-355,-244,-121,-20,30,46,39,30,23,23,29,36,41,34,28,25,21,19,19,21,23,25,26,26,27,28,29,31,32,33,34,35,35,34,33,32,30,29,27,26,24,22,20,18,15,12,8,5,2,-1,-4,-7,-11,-14,-17,-19,-21,-22,-23,-25,-26,-28,-30,-33,-37,-43,-53,-67,-76,-84,-91,-99,-108,-119,-126,-131,-135,-138,-139,-141,-142,-143,-144,-145,-147,-147,-146,-142,-137,-130,-121,-108,-91,-70,-50,-32,-16,-1,13,29,47,66,77,83,88,93,98,103,111,121,129,133,135,137,138,139,140,142,143,143,143,143,142,142,141,139,137,134,132,129,126,122,117,112,105,99,92,85,79,73,68,64,60,56,53,50,48,46,45,44,44,42,41,41,43,48,55,64,76,83,85,86,88,89,90,91,92,93,94,95,95,96,96,96,96,96,95,95,95,95,95,95,96,96,95,95,94,94,93,93,92,90,89,88,87,86,85,85,84,84,83,83,82,81,80,79,78,77,76,75,75,74,73,72,72,72,71,70,69,68,67,66,66,65,65,64,63,63,62,61,60,58,57,55,53,51,49,47,46,44,43,42,41,40,38,36,34,32,31,29,28,26,24,23,22,21,21,20,19,19,18,17,16,15,14,13,12,11,10,10,9,9,9,9,9,9,9,8,8,7,7,7,7,7,7,7,7,8,8,9,9,9,9,9,9,9,9,9,9,9,9,9,9,9,10,10,11,11,12,12,13,13,13,13,13,13,12,12,12,12,12,12,12,13,12,10,7,6,5,3,2,1,0,0,0,0,0,1,1,1,2,3,3,3,3,4,5,5,6,6,4,1,-2,-6,-10,-15,-21,-27,-33,-45,-60,-69,-74,-77,-78,-76,-71,-64,-52,-34,-18,1,12,17,20,23,26,28,29,30,31,32,33,34,35,36,38,39,39,40,42,43,45,47,47,46,44,40,35,16,-33,-104,-190,-277,-344,-361,-354,-301,-221,-135,-58,-1,25,30,34,38,41,44,45,46,47,47,47,47,46,45,43,43,42,42,42,41,41,40,39,38,36,34,32,29,27,24,21,20,18,17,16,15,14,12,9,7,5,3,1,0,-2,-7,-15,-23,-31,-35,-39,-42,-46,-49,-53,-56,-60,-64,-70,-79,-88,-97,-105,-112,-119,-126,-133,-142,-153,-163,-171,-178,-185,-193,-206,-219,-223,-225,-228,-229,-228,-224,-218,-210,-200,-183,-171,-154,-133,-117,-105,-93,-78,-59,-40,-17,0,11,24,37,45,51,56,60,64,66,68,69,70,70,72,73,74,75,75,76,76,77,78,78,78,78,77,77,76,75,73,71,69,68,66,64,62,59,55,52,49,46,42,38,34,29,24,19,13,8,3,-1,-5,-9,-14,-20,-25,-29,-32,-35,-38,-41,-44,-43,-35,-25,-14,-1,9,18,25,31,36,40,44,46,48,50,51,52,53,54,55,56,56,56,57,57,57,57,57,56,56,55,55,54,53,52,51,50,50,49,48,48,48,48,48,48,47,47,45,43,43,45,47,51,57,63,52,17,-46,-139,-252,-362,-445,-463,-452,-374,-255,-126,-20,32,50,40,23,9,1,-2,9,16,19,21,23,25,26,27,28,29,31,31,32,32,31,29,27,26,25,24,23,22,21,20,18,17,15,13,11,8,6,4,1,-2,-7,-11,-15,-19,-22,-25,-28,-31,-34,-37,-39,-41,-44,-47,-50,-54,-58,-62,-67,-71,-77,-90,-109,-129,-149,-164,-174,-183,-193,-202,-211,-219,-225,-230,-235,-239,-241,-241,-237,-232,-224,-210,-188,-170,-150,-129,-105,-77,-51,-27,-4,12,25,37,46,53,60,66,73,80,88,95,101,103,105,106,108,109,110,111,112,112,112,111,110,108,105,102,98,94,89,84,74,64,58,53,45,35,22,15,10,6,3,1,0,0,2,4,8,13,18,25,36,47,56,61,64,67,69,72,74,76,77,77,78,78,79,80,81,82,82,83,84,85,85,86,86,86,87,87,87,88,89,90,90,89,87,83,80,77,75,73,71,69,67,65,64,63,62,61,59,58,57,56,56,54,53,51,50,49,48,46,44,41,38,36,34,32,30,29,27,26,25,25,24,23,22,21,19,18,17,15,14,12,11,10,9,9,8,8,7,6,6,5,4,2,1,1,0,0,0,1,1,2,2,2,1,0,0,0,-1,-2,-3,-4,-4,-5,-5,-5,-5,-6,-7,-7,-7,-7,-7,-8,-8,-8,-8,-8,-9,-9,-9,-9,-9,-9,-8,-8,-9,-9,-9,-9,-9,-9,-10,-10,-10,-10,-11,-11,-11,-11,-11,-10,-10,-10,-10,-10,-10,-10,-11,-11,-10,-10,-9,-9,-9,-9,-9,-9,-10,-10,-11,-12,-12,-12,-11,-10,-9,-9,-9,-9,-10,-10,-11,-12,-14,-16,-18,-20,-22,-24,-27,-32,-38,-44,-51,-58,-64,-72,-78,-83,-85,-86,-88,-89,-92,-90,-77,-63,-48,-40,-33,-27,-21,-15,-12,-10,-8,-7,-6,-4,-4,-2,0,1,3,4,5,7,9,12,17,27,31,33,35,38,26,-10,-64,-138,-231,-326,-396,-406,-391,-315,-214,-113,-35,-5,0,5,9,12,15,18,19,20,20,19,19,17,14,12,9,7,5,3,1,0,-1,-2,-3,-3,-4,-5,-7,-8,-9,-10,-10,-10,-10,-11,-12,-13,-15,-16,-17,-18,-20,-22,-24,-25,-27,-29,-31,-35,-38,-42,-45,-47,-50,-52,-55,-58,-61,-69,-86,-98,-105,-111,-118,-125,-132,-139,-146,-151,-157,-163,-172,-182,-187,-190,-193,-196,-198,-199,-199,-198,-196,-194,-191,-186,-181,-173,-158,-140,-121,-103,-90,-73,-53,-33,-12,5,19,33,44,52,59,67,72,75,78,80,82,83,84,85,86,87,88,88,88,88,88,88,87,87,86,85,83,82,80,79,77,75,73,71,68,66,63,59,53,46,39,32,24,17,11,6,1,-2,-6,-9,-10,-10,-9,-6,-3,0,3,7,12,19,27,34,40,45,48,51,54,56,57,58,58,58,59,59,59,60,60,60,61,61,61,61,61,60,58,56,55,53,51,50,49,48,47,47,46,46,41,37,37,43,51,57,64,69,71,68,62,53,37,10,-36,-93,-161,-230,-270,-283,-265,-211,-137,-67,-18,8,18,22,25,27,30,33,36,38,40,41,43,44,44,44,43,41,38,36,34,32,31,29,27,26,25,23,22,20,17,14,11,9,6,4,2,0,-1,-2,-4,-4,-5,-6,-8,-9,-11,-13,-15,-17,-19,-23,-28,-35,-41,-47,-53,-60,-68,-77,-86,-95,-105,-117,-128,-138,-148,-158,-168,-179,-192,-207,-221,-229,-235,-240,-243,-245,-245,-243,-240,-236,-230,-218,-198,-182,-163,-143,-123,-102,-81,-58,-35,-11,10,27,40,52,64,75,86,90,93,95,97,99,101,102,104,105,106,107,108,108,107,107,107,106,105,104,102,100,98,96,94,90,82,74,66,58,51,44,36,28,20,14,8,4,2,1,0,0,-2,0,10,18,25,31,38,46,52,55,57,59,62,64,65,67,68,69,70,72,73,74,74,75,76,76,77,76,76,75,75,74,73,73,72,71,70,69,69,68,67,65,64,62,61,59,57,55,53,52,51,51,52,53,55,57,59,62,68,69,61,42,1,-59,-141,-235,-325,-385,-393,-370,-290,-185,-78,3,23,29,33,34,36,36,38,38,39,41,45,43,30,20,13,7,5,7,8,10,11,11,12,13,14,15,15,16,16,16,14,12,9,6,2,0,-3,-6,-10,-13,-16,-19,-21,-24,-27,-30,-33,-36,-38,-40,-43,-46,-49,-52,-54,-57,-60,-66,-77,-88,-100,-111,-120,-129,-139,-151,-163,-175,-185,-196,-207,-219,-227,-233,-237,-240,-241,-240,-238,-234,-228,-217,-198,-178,-159,-140,-121,-102,-83,-64,-45,-25,-7,5,14,25,40,57,64,67,70,72,73,75,76,77,78,79,79,80,81,83,86,89,88,82,74,68,63,59,54,49,45,40,35,28,18,11,5,-4,-15,-20,-24,-23,-10,2,16,24,30,34,38,42,47,51,56,61,66,71,74,76,77,78,79,81,81,82,83,84,84,85,85,85,85,84,84,83,83,82,81,81,80,79,79,78,78,78,78,77,76,76,75,74,72,70,68,66,64,63,61,60,59,58,58,57,56,54,52,50,49,47,45,44,43,42,42,42,42,42,41,40,38,36,34,32,31,29,28,27,26,25,25,24,22,21,20,18,17,16,15,13,13,12,12,13,13,13,12,12,12,12,12,11,10,9,9,9,9,9,8,7,7,6,6,6,6,6,5,4,4,4,4,3,2,1,0,0,0,0,0,-1,-1,-2,-2,-2,-3,-4,-5,-5,-6,-6,-6,-6,-7,-8,-9,-9,-9,-10,-10,-11,-12,-12,-12,-12,-12,-12,-12,-12,-13,-13,-13,-14,-14,-14,-15,-15,-14,-14,-14,-13,-13,-12,-12,-12,-12,-11,-11,-11,-11,-11,-11,-11,-11,-11,-12,-13,-14,-15,-16,-18,-19,-22,-26,-29,-34,-39,-45,-51,-58,-64,-68,-70,-72,-74,-77,-80,-79,-74,-67,-59,-50,-42,-34,-25,-15,-5,-1,0,1,2,3,4,4,5,6,8,9,11,12,13,14,15,18,20,24,34,50,59,66,65,53,17,-48,-142,-256,-376,-482,-539,-543,-501,-403,-281,-163,-72,-15,5,10,14,16,19,22,24,26,28,31,36,40,39,33,25,21,19,17,15,14,12,10,7,5,4,3,2,1,0,0,-1,-2,-2,-3,-4,-6,-8,-9,-11,-12,-14,-16,-17,-19,-21,-23,-26,-30,-34,-39,-44,-48,-53,-57,-61,-65,-69,-73,-75,-78,-81,-86,-94,-101,-109,-120,-136,-151,-167,-182,-192,-200,-204,-207,-209,-211,-212,-213,-213,-212,-210,-207,-204,-199,-193,-180,-169,-154,-136,-116,-98,-79,-58,-40,-26,-12,-1,8,18,27,35,43,50,56,61,63,64,66,66,67,68,69,69,70,71,71,72,72,72,72,71,71,70,69,69,68,68,67,66,65,65,64,64,64,63,62,61,60,59,57,55,51,45,40,34,27,18,4,-7,-15,-21,-25,-28,-29,-28,-24,-19,-13,-7,0,8,16,24,32,38,45,50,55,59,61,62,63,64,65,66,67,68,69,70,71,71,72,72,72,72,71,71,71,71,71,71,72,72,72,72,72,71,71,69,68,66,64,62,61,59,58,57,57,56,56,55,54,53,52,50,48,46,44,43,41,40,39,38,38,38,38,37,36,34,32,31,28,26,24,22,21,21,20,20,20,19,19,19,17,16,15,13,12,12,12,12,12,12,13,14,14,13,13,11,10,9,9,8,7,7,7,7,7,7,6,6,5,5,4,4,4,4,4,5,6,7,7,7,7,6,5,4,3,1,0,0,-1,-1,-1,-1,-2,-4,-6,-7,-8,-8,-7,-7,-7,-6,-5,-4,-3,-2,-1,0,0,0,0,-1,-2,-4,-5,-6,-8,-8,-9,-9,-9,-8,-7,-7,-7,-7,-7,-7,-7,-7,-6,-6,-5,-4,-3,-2,-2,-3,-4,-5,-6,-7,-9,-11,-14,-17,-20,-22,-25,-32,-40,-46,-52,-57,-60,-64,-67,-70,-72,-74,-74,-71,-67,-62,-57,-51,-44,-33,-23,-17,-11,-8,-6,-4,-3,-1,0,1,2,3,5,7,8,9,10,11,13,14,16,19,24,29,29,24,13,-19,-71,-139,-217,-289,-335,-341,-321,-258,-179,-97,-26,14,30,30,16,4,-6,-11,-8,-3,-1,0,0,0,0,0,0,1,2,3,4,4,3,2,1,0,0,0,-2,-3,-5,-6,-8,-9,-10,-12,-14,-15,-17,-19,-22,-25,-28,-31,-33,-35,-37,-39,-41,-43,-44,-46,-48,-50,-52,-55,-58,-62,-65,-71,-80,-90,-101,-110,-117,-124,-131,-137,-143,-153,-166,-178,-184,-188,-192,-194,-196,-197,-198,-199,-199,-198,-197,-195,-191,-187,-182,-175,-161,-132,-107,-83,-62,-39,-19,-3,15,29,39,47,56,67,76,80,83,86,88,91,93,95,97,99,100,102,104,105,105,105,104,104,102,101,99,97,95,94,92,91,89,88,86,84,82,79,76,71,66,61,55,50,44,39,33,29,24,19,15,12,9,7,6,7,9,13,18,23,27,32,37,42,49,55,60,64,66,68,70,72,74,75,76,77,77,77,77,77,77,77,77,77,77,78,78,78,78,78,78,77,76,74,73,73,72,72,72,71,71,70,69,68,65,62,62,63,65,69,72,55,6,-64,-152,-247,-327,-359,-355,-302,-210,-114,-35,16,36,43,48,52,52,47,42,40,39,38,37,37,36,35,33,32,31,30,30,31,32,32,31,31,30,28,27,25,23,21,20,18,16,14,12,11,9,7,4,1,-1,-5,-9,-12,-15,-18,-21,-23,-26,-30,-34,-39,-45,-50,-56,-61,-68,-76,-88,-98,-108,-118,-128,-139,-151,-163,-175,-187,-198,-207,-216,-224,-230,-235,-239,-244,-248,-250,-250,-247,-242,-235,-223,-203,-184,-162,-135,-110,-86,-65,-48,-29,-11,7,27,47,61,70,80,91,95,99,102,104,107,109,110,112,113,114,115,115,115,115,113,112,111,109,108,106,104,101,99,96,93,90,85,80,75,70,65,60,55,50,45,39,33,27,21,17,12,6,2,0,-1,0,1,4,8,12,17,24,32,41,49,61,74,78,79,80,81,82,82,82,83,83,84,84,84,84,83,82,81,80,80,79,79,78,78,78,78,77,76,75,73,72,71,70,70,69,68,65,62,60,59,60,63,66,69,73,81,80,65,24,-43,-135,-244,-353,-440,-463,-453,-377,-264,-142,-39,5,18,26,30,32,33,34,36,38,41,41,36,31,26,23,21,22,23,24,24,24,25,25,26,27,26,24,22,19,16,14,11,8,6,3,0,-1,-4,-6,-7,-9,-11,-13,-16,-18,-20,-23,-26,-29,-32,-35,-38,-43,-50,-57,-63,-67,-72,-82,-99,-112,-121,-128,-135,-146,-163,-177,-185,-191,-197,-203,-211,-221,-230,-235,-239,-243,-245,-245,-242,-238,-232,-222,-206,-191,-175,-157,-137,-114,-91,-67,-45,-25,-7,9,28,42,51,58,64,67,68,70,71,73,74,76,77,77,77,77,77,77,76,75,74,73,71,70,68,67,65,62,60,57,52,46,40,35,28,19,8,4,2,1,0,0,0,0,0,0,3,6,10,15,22,35,45,56,67,73,75,77,78,79,80,81,82,82,83,84,84,84,84,83,83,83,83,83,84,84,84,84,83,83,82,81,80,79,79,78,77,75,74,74,73,72,71,70,69,68,67,66,64,61,58,55,53,51,49,48,46,44,43,42,41,40,38,35,33,31,30,28,26,24,22,21,20,20,20,20,20,19,18,17,16,15,14,13,12,11,11,11,11,11,11,11,10,9,9,8,7,7,6,5,5,5,5,5,4,4,4,4,4,4,4,4,3,3,2,2,2,1,0,0,0,0,-1,-2,-3,-4,-5,-5,-5,-5,-6,-6,-6,-7,-7,-7,-8,-9,-9,-9,-9,-9,-10,-10,-11,-12,-13,-13,-14,-15,-16,-16,-17,-18,-18,-18,-18,-18,-19,-19,-19,-20,-20,-20,-20,-20,-21,-21,-20,-20,-19,-19,-19,-19,-19,-20,-20,-21,-22,-23,-23,-24,-25,-26,-27,-28,-30,-32,-34,-36,-39,-43,-49,-54,-59,-64,-70,-78,-91,-97,-101,-104,-106,-107,-106,-104,-99,-93,-82,-65,-50,-33,-25,-22,-20,-18,-16,-15,-14,-14,-13,-12,-10,-9,-8,-7,-6,-6,-4,-3,-1,1,6,17,22,28,34,25,1,-46,-118,-212,-318,-414,-466,-469,-429,-336,-224,-119,-43,-14,-8,-4,0,1,3,5,6,7,7,7,6,5,4,2,1,0,-2,-3,-5,-6,-7,-8,-9,-10,-11,-11,-11,-11,-12,-12,-13,-13,-14,-14,-15,-16,-17,-18,-19,-20,-21,-22,-23,-24,-26,-28,-32,-40,-46,-50,-53,-56,-58,-60,-64,-68,-73,-79,-88,-96,-103,-110,-117,-123,-128,-133,-139,-144,-150,-156,-163,-173,-185,-190,-192,-194,-196,-197,-198,-198,-197,-195,-191,-187,-181,-172,-157,-142,-123,-101,-84,-71,-57,-39,-17,0,13,29,37,42,46,49,53,55,57,59,61,63,64,66,67,68,68,69,69,70,71,71,72,73,73,74,74,73,71,70,68,66,64,61,58,55,51,47,40,32,25,18,12,5,0,-6,-9,-10,-10,-10,-9,-9,-9,-3,8,18,28,37,44,49,52,54,55,57,58,59,60,61,61,61,62,62,63,64,64,65,65,66,66,66,67,67,66,66,66,65,65,65,65,64,64,63,63,63,62,61,60,59,58,57,56,55,55,54,53,52,52,51,51,51,50,50,49,49,49,48,48,47,46,45,44,43,42,41,40,39,38,37,36,35,34,33,31,30,30,29,28,28,27,27,27,26,25,24,24,23,22,22,21,21,20,20,20,20,20,20,19,18,16,15,14,13,13,12,11,11,11,11,11,10,9,7,5,3,1,0,-1,-2,-2,-2,-1,0,0,2,3,4,5,5,6,7,8,8,8,8,9,11,12,13,14,14,14,15,15,15,14,13,12,11,11,12,12,12,11,11,11,11,11,10,9,8,7,7,6,6,5,4,4,4,4,4,4,4,4,3,4,4,3,3,2,2,2,1,1,0,0,0,-2,-3,-5,-8,-11,-14,-17,-21,-27,-38,-48,-54,-59,-63,-67,-69,-71,-71,-68,-63,-56,-47,-33,-17,-10,-6,-2,0,2,4,5,7,8,10,12,13,15,16,16,17,18,20,22,27,37,44,50,56,56,47,20,-29,-104,-196,-288,-361,-382,-375,-319,-232,-141,-65,-17,0,10,15,20,24,28,30,30,28,26,23,21,19,18,16,15,13,12,10,8,7,5,3,2,2,1,0,0,-1,-3,-4,-6,-7,-8,-9,-11,-12,-12,-14,-15,-17,-19,-20,-22,-24,-26,-28,-31,-34,-37,-40,-43,-46,-50,-54,-58,-63,-69,-76,-84,-92,-100,-108,-116,-124,-130,-135,-140,-147,-157,-168,-177,-185,-193,-201,-206,-210,-213,-216,-217,-216,-212,-207,-201,-194,-185,-174,-164,-147,-125,-104,-84,-63,-42,-20,4,24,37,48,59,66,72,76,80,83,86,88,91,92,94,95,97,98,100,101,103,104,105,107,108,109,109,109,110,110,109,109,108,107,106,105,103,102,100,98,96,93,90,87,83,78,73,68,64,60,55,51,47,42,37,31,26,20,16,12,9,5,1,0,-1,0,4,10,16,23,29,37,46,53,57,61,63,64,65,66,68,69,69,70,71,71,72,72,72,72,71,71,71,71,71,71,71,71,71,72,73,75,76,76,75,74,73,71,70,68,65,63,61,59,56,31,-33,-126,-238,-351,-431,-444,-426,-337,-223,-113,-30,5,17,22,25,27,29,31,32,33,34,35,36,36,36,36,35,32,30,26,23,20,18,16,15,14,13,12,12,10,9,7,6,4,2,1,0,-2,-4,-5,-7,-10,-12,-15,-19,-24,-29,-34,-37,-41,-45,-49,-54,-59,-65,-71,-76,-82,-87,-92,-98,-104,-111,-119,-131,-147,-163,-179,-195,-212,-228,-241,-250,-257,-262,-266,-270,-272,-273,-272,-269,-265,-259,-247,-226,-202,-179,-154,-133,-113,-94,-78,-59,-40,-22,-5,10,24,40,54,64,76,85,91,96,101,106,110,114,117,120,123,126,128,129,130,129,129,128,126,123,120,115,108,96,89,85,83,80,77,74,70,65,59,51,37,26,14,4,1,-1,-4,-3,6,16,25,33,40,46,50,55,60,66,71,73,74,76,77,79,81,82,83,84,84,85,86,86,86,86,85,85,84,83,82,81,80,79,78,78,77,76,75,74,74,73,72,71,70,70,69,69,69,69,70,71,72,74,75,76,77,80,85,84,72,38,-20,-109,-220,-338,-436,-473,-467,-399,-285,-158,-52,18,36,41,45,47,49,51,52,52,52,52,51,50,48,46,43,41,40,39,39,38,37,36,35,35,34,33,32,30,29,27,26,24,23,22,20,19,17,15,12,9,5,0,-3,-6,-10,-14,-18,-23,-30,-36,-41,-44,-47,-51,-55,-59,-63,-67,-71,-76,-84,-96,-112,-131,-146,-158,-169,-181,-192,-202,-212,-222,-228,-231,-233,-235,-237,-237,-236,-233,-229,-222,-211,-188,-164,-142,-120,-99,-79,-58,-37,-15,1,11,20,28,35,43,51,60,64,68,70,73,75,77,79,80,81,81,81,80,79,78,75,72,69,65,61,51,29,19,14,9,6,4,2,0,0,0,0,1,3,6,9,12,16,21,30,39,49,53,56,58,61,63,65,67,68,69,71,72,73,73,73,72,72,71,71,70,69,69,69,68,68,67,66,65,64,63,62,61,60,58,57,56,55,54,54,53,52,52,51,50,49,47,44,42,39,37,35,33,31,30,29,27,27,26,24,23,21,20,19,18,16,15,14,13,13,13,14,14,14,14,13,12,11,10,9,8,8,7,7,8,8,8,9,9,9,9,9,9,8,7,6,6,6,6,5,5,5,4,4,4,5,5,5,5,5,5,6,6,7,7,6,6,5,5,6,6,6,6,7,8,8,9,9,9,8,8,7,6,6,5,4,3,3,2,2,0,0,-1,0,0,1,1,1,1,1,1,2,2,2,2,3,3,2,2,2,1,1,0,1,1,1,0,0,1,2,3,4,4,4,4,5,5,6,6,5,4,2,1,0,0,-2,-4,-7,-9,-11,-14,-25,-33,-40,-46,-51,-54,-57,-57,-55,-51,-46,-40,-33,-27,-20,-14,-9,-4,0,2,5,8,10,11,13,14,16,17,19,21,23,25,27,29,31,34,37,42,50,55,52,41,11,-43,-120,-208,-289,-334,-336,-302,-225,-141,-70,-25,-3,3,6,9,12,14,17,18,19,20,20,20,19,18,17,16,14,13,12,12,11,11,10,8,6,4,2,0,-1,-3,-5,-6,-8,-9,-10,-10,-11,-12,-13,-14,-15,-16,-17,-19,-21,-22,-24,-25,-27,-29,-31,-34,-37,-40,-45,-50,-55,-58,-61,-63,-67,-72,-81,-94,-106,-118,-131,-140,-147,-153,-157,-160,-162,-164,-165,-167,-168,-169,-170,-171,-170,-169,-167,-164,-160,-155,-149,-140,-122,-105,-88,-71,-56,-41,-26,-8,8,25,41,53,63,71,78,84,88,91,94,96,98,99,100,100,100,99,96,94,91,89,87,85,84,82,80,78,76,74,71,68,66,63,61,59,57,55,52,49,46,41,32,22,13,4,-1,-6,-10,-13,-16,-18,-19,-18,-15,-11,-6,-1,3,9,17,25,30,34,38,40,41,43,44,46,47,47,48,48,49,49,48,47,46,45,44,44,43,43,42,41,40,39,38,37,36,35,33,32,31,31,31,32,33,34,35,35,34,33,31,29,28,26,25,22,19,14,8,-24,-87,-167,-255,-331,-359,-355,-303,-216,-126,-59,-31,-27,-23,-20,-17,-14,-11,-9,-7,-5,-4,-3,-3,-3,-4,-5,-5,-6,-6,-5,-5,-5,-6,-6,-7,-8,-9,-11,-14,-16,-18,-20,-21,-23,-24,-26,-27,-29,-30,-32,-35,-38,-42,-46,-50,-53,-56,-58,-60,-63,-66,-69,-72,-76,-81,-87,-93,-98,-104,-110,-117,-126,-136,-144,-151,-164,-188,-211,-227,-240,-247,-252,-255,-258,-260,-261,-261,-261,-260,-259,-257,-253,-250,-242,-223,-201,-180,-159,-136,-112,-89,-64,-41,-26,-17,-8,0,10,22,34,42,48,53,58,62,66,69,71,74,76,77,79,79,80,80,80,79,77,75,73,71,68,66,63,59,55,50,45,41,36,32,27,21,16,12,9,7,4,2,0,0,1,6,12,17,24,31,41,52,60,69,76,81,84,86,87,87,88,88,89,90,91,91,91,92,92,92,93,92,91,91,90,90,90,90,90,89,89,89,90,90,89,88,87,87,86,85,84,83,82,81,80,79,78,77,76,75,75,74,74,73,72,71,69,68,67,66,65,63,61,60,59,59,58,57,55,54,53,52,51,50,48,47,45,43,41,40,38,35,33,31,30,28,26,25,24,23,23,22,21,21,20,19,19,18,17,15,14,13,11,10,8,6,4,3,1,0,0,-2,-3,-4,-5,-7,-9,-10,-12,-13,-13,-13,-12,-11,-10,-9,-8,-6,-5,-4,-4,-3,-3,-2,-2,-1,-1,-1,-1,-3,-5,-8,-10,-13,-14,-16,-18,-20,-22,-23,-24,-25,-26,-27,-27,-26,-25,-24,-23,-22,-21,-20,-18,-17,-16,-15,-15,-14,-14,-12,-11,-9,-8,-7,-7,-6,-6,-6,-7,-8,-9,-11,-13,-14,-15,-17,-20,-24,-28,-33,-39,-45,-51,-58,-64,-68,-70,-72,-74,-76,-78,-79,-80,-77,-73,-67,-58,-40,-27,-20,-15,-9,-3,1,3,4,5,6,8,9,11,12,14,16,19,20,22,23,25,27,31,38,44,44,39,30,4,-61,-153,-265,-381,-478,-530,-532,-491,-396,-277,-158,-61,3,24,32,31,23,15,8,8,18,26,31,36,38,37,34,30,27,26,25,24,23,22,20,19,18,16,15,13,12,11,11,9,8,7,6,5,4,3,1,-1,-3,-5,-7,-9,-11,-14,-16,-18,-20,-22,-25,-29,-35,-40,-44,-48,-52,-56,-60,-64,-69,-73,-79,-88,-102,-112,-124,-144,-158,-166,-172,-177,-183,-187,-190,-192,-195,-197,-199,-200,-200,-199,-197,-193,-188,-183,-171,-149,-132,-119,-106,-88,-64,-43,-28,-15,-3,8,21,35,49,63,74,84,89,91,92,93,93,93,93,93,92,92,93,93,93,93,93,92,92,91,89,88,86,85,84,83,82,82,81,80,79,78,77,76,74,72,69,66,63,61,58,54,50,42,29,15,7,3,0,-4,-7,-9,-9,-9,-7,-5,-2,0,5,11,19,35,51,56,59,61,64,66,68,69,70,71,72,73,74,75,75,76,76,76,76,75,75,74,74,73,73,73,73,73,72,72,72,72,72,71,70,69,67,66,64,63,62,61,59,58,56,55,54,52,50,48,46,44,43,42,40,38,37,35,34,33,33,32,31,30,29,28,27,26,24,23,21,20,20,19,18,17,17,16,15,15,14,12,11,9,8,7,7,6,6,6,6,6,6,6,6,5,3,1,0,-1,-3,-4,-5,-6,-6,-6,-6,-6,-6,-7,-7,-8,-8,-10,-11,-12,-13,-12,-12,-11,-10,-10,-10,-10,-10,-10,-10,-11,-12,-13,-14,-14,-15,-15,-14,-14,-13,-12,-12,-11,-11,-10,-10,-10,-9,-9,-9,-8,-8,-7,-7,-6,-6,-6,-6,-6,-7,-7,-7,-8,-8,-9,-9,-9,-9,-8,-8,-8,-7,-7,-7,-7,-7,-8,-8,-9,-9,-10,-11,-12,-13,-14,-16,-17,-19,-22,-26,-30,-34,-38,-43,-48,-53,-57,-61,-65,-70,-74,-77,-78,-77,-73,-68,-63,-57,-50,-40,-30,-21,-14,-10,-8,-5,-2,0,2,3,4,5,5,6,8,9,10,11,11,11,12,13,14,16,17,18,22,29,29,20,-3,-59,-139,-231,-314,-358,-361,-331,-260,-176,-100,-46,-10,7,16,23,26,21,14,10,8,6,5,4,3,3,2,1,1,1,2,2,2,2,1,0,-1,-2,-4,-6,-7,-8,-9,-10,-11,-13,-15,-16,-18,-19,-21,-23,-25,-27,-29,-31,-32,-34,-36,-37,-39,-40,-41,-42,-43,-44,-46,-48,-50,-53,-57,-65,-84,-97,-107,-115,-123,-133,-143,-151,-158,-165,-170,-173,-176,-179,-181,-183,-186,-188,-190,-192,-192,-192,-190,-186,-181,-175,-167,-155,-133,-115,-97,-79,-64,-45,-23,-1,21,38,49,60,72,79,85,91,95,98,101,102,103,104,104,104,104,105,105,106,106,106,106,106,106,105,103,100,97,94,90,87,84,81,77,74,71,68,64,61,57,53,49,44,39,34,29,24,19,15,12,10,11,14,19,24,29,34,37,42,48,54,59,63,65,67,69,70,72,73,73,73,73,73,74,74,74,73,72,72,72,72,72,71,69,68,67,66,65,63,62,61,61,62,63,64,65,65,67,68,70,71,73,74,76,84,89,85,72,36,-24,-105,-201,-293,-344,-361,-339,-272,-182,-96,-28,19,36,40,42,42,43,45,45,45,46,46,46,46,45,45,44,43,42,41,39,37,35,33,30,28,26,24,22,21,20,19,18,16,15,14,12,11,10,9,7,6,5,4,2,1,0,-2,-5,-8,-12,-18,-31,-43,-53,-60,-66,-71,-76,-81,-87,-93,-101,-112,-123,-136,-149,-162,-174,-186,-196,-204,-213,-222,-231,-239,-247,-254,-257,-257,-256,-256,-255,-247,-228,-210,-191,-172,-152,-130,-107,-86,-66,-46,-27,-8,12,33,54,74,87,94,99,102,105,108,109,110,111,112,112,113,114,114,114,114,114,114,113,112,111,109,106,104,102,100,97,94,91,88,84,80,76,70,61,52,43,32,20,13,10,7,4,2,1,1,2,5,9,14,19,25,33,43,51,59,65,71,76,80,82,83,82,82,82,81,81,81,81,81,81,80,78,76,74,72,71,69,68,66,65,64,63,62,62,61,61,60,60,59,59,59,59,59,59,59,59,59,59,58,58,57,56,54,51,44,22,-23,-94,-186,-287,-378,-430,-435,-405,-322,-214,-108,-29,-2,4,10,13,15,15,16,16,16,15,15,15,14,14,14,14,15,15,14,14,13,13,12,12,12,11,10,8,7,5,4,2,1,0,-2,-4,-6,-8,-10,-12,-14,-16,-18,-20,-22,-24,-27,-30,-35,-39,-44,-48,-53,-59,-66,-74,-82,-89,-97,-107,-114,-120,-127,-136,-148,-162,-174,-184,-192,-199,-208,-219,-229,-241,-247,-250,-253,-255,-257,-258,-256,-250,-241,-226,-203,-181,-161,-129,-99,-69,-51,-35,-23,-11,2,20,33,40,46,51,56,58,60,62,64,65,67,68,69,70,71,71,71,71,70,69,68,67,67,66,65,63,60,57,54,49,37,24,16,9,4,1,0,-2,-4,-5,-7,-7,-5,0,5,12,21,31,41,50,57,63,67,71,74,76,77,77,77,78,79,79,80,81,81,81,81,81,81,81,81,80,79,78,78,77,76,75,73,73,73,73,73,73,73,73,73,73,73,73,73,72,71,70,69,68,66,63,59,56,53,50,46,41,37,36,35,35,35,35,34,33,32,31,31,32,32,32,32,32,33,35,35,32,27,25,23,21,20,19,18,17,16,15,15,15,15,15,15,14,14,14,13,12,11,9,8,8,8,8,8,7,7,7,7,7,7,6,5,5,4,4,4,5,5,5,5,5,6,6,7,6,6,5,5,5,4,3,2,1,1,1,0,0,0,0,0,-1,-1,-2,-2,-3,-4,-5,-5,-6,-6,-6,-6,-6,-7,-7,-7,-7,-8,-8,-9,-9,-9,-9,-9,-9,-9,-9,-9,-9,-9,-10,-10,-11,-11,-11,-12,-12,-13,-13,-13,-13,-13,-14,-15,-17,-18,-20,-22,-25,-28,-33,-38,-44,-51,-60,-67,-71,-74,-76,-79,-81,-82,-80,-75,-68,-63,-58,-52,-46,-39,-32,-25,-18,-12,-7,-4,0,1,3,5,7,8,10,12,14,16,17,19,21,23,26,29,34,42,47,43,31,-4,-68,-160,-273,-388,-477,-511,-481,-394,-275,-156,-59,-20,-14,-8,-4,0,2,5,7,8,9,10,11,10,9,7,6,5,4,4,3,2,1,0,0,-1,-3,-4,-6,-7,-9,-10,-11,-14,-17,-20,-22,-24,-26,-27,-29,-30,-32,-33,-34,-35,-37,-39,-41,-43,-44,-46,-48,-50,-52,-55,-58,-60,-63,-66,-69,-73,-77,-82,-91,-106,-116,-126,-137,-150,-160,-167,-173,-179,-184,-188,-191,-194,-197,-200,-201,-202,-201,-199,-195,-189,-183,-174,-158,-146,-128,-109,-90,-70,-51,-37,-24,-13,-3,5,15,26,39,52,62,70,76,81,84,85,86,87,88,89,90,90,91,92,93,93,94,93,93,92,92,92,92,92,91,91,91,90,90,89,88,87,85,83,81,79,77,74,71,65,50,35,27,22,17,13,11,9,9,9,10,14,18,23,29,34,39,43,46,48,51,54,56,59,62,66,69,71,73,75,76,77,77,77,76,76,75,75,76,77,77,77,77,76,76,75,74,73,72,70,69,68,66,64,63,61,60,58,57,55,54,52,50,49,47,45,43,41,39,37,35,34,33,32,31,31,30,30,29,29,28,27,25,24,21,17,-4,-51,-121,-206,-282,-319,-318,-280,-205,-125,-59,-24,-14,-8,-1,3,10,20,24,20,11,7,5,4,2,1,1,0,-1,-2,-3,-3,-4,-4,-4,-4,-5,-5,-6,-8,-10,-12,-14,-16,-18,-20,-22,-24,-25,-27,-29,-31,-34,-37,-40,-42,-45,-47,-49,-52,-54,-56,-58,-61,-64,-69,-74,-79,-84,-88,-93,-100,-109,-118,-130,-141,-152,-162,-172,-179,-185,-190,-195,-201,-208,-215,-222,-230,-238,-241,-240,-238,-234,-229,-216,-199,-180,-160,-138,-113,-92,-72,-54,-37,-21,-4,12,25,32,40,47,54,62,65,67,68,69,70,70,69,65,59,53,49,45,41,38,35,33,31,31,32,33,36,39,43,48,52,57,65,72,76,78,79,80,81,82,82,82,82,82,82,82,82,82,83,83,83,84,84,84,85,85,85,85,86,86,87,88,90,92,92,87,82,79,76,75,73,72,70,69,68,67,67,66,65,64,62,60,58,57,55,54,53,52,51,50,49,48,46,44,42,40,39,37,36,35,33,33,32,33,33,33,33,32,31,29,28,27,26,24,23,22,22,22,23,24,25,25,25,25,26,26,27,27,27,28,30,32,31,26,20,18,16,15,15,14,13,12,11,9,8,7,6,5,5,4,4,5,5,7,8,9,9,10,10,9,9,9,8,8,8,8,10,11,12,11,9,7,5,4,3,2,1,0,0,-1,-1,-1,-2,-3,-3,-4,-4,-5,-6,-7,-8,-9,-10,-11,-13,-14,-14,-15,-16,-16,-17,-18,-18,-18,-18,-19,-19,-20,-20,-20,-20,-21,-21,-21,-22,-21,-21,-22,-23,-23,-24,-24,-25,-26,-27,-29,-32,-34,-36,-40,-45,-50,-55,-60,-69,-80,-85,-88,-90,-92,-92,-91,-86,-80,-70,-49,-36,-29,-24,-20,-17,-14,-12,-10,-9,-8,-7,-6,-5,-4,-2,0,0,2,4,6,9,12,17,27,32,33,36,38,29,1,-42,-109,-199,-301,-399,-460,-466,-439,-357,-255,-163,-96,-59,-41,-27,-7,5,10,15,18,21,24,26,27,28,29,29,28,27,26,24,22,19,17,15,14,12,11,10,8,5,3,1,-1,-3,-5,-7,-8,-8,-8,-9,-9,-10,-11,-12,-13,-14,-16,-18,-21,-24,-26,-28,-31,-35,-40,-45,-50,-55,-59,-63,-67,-73,-81,-90,-98,-108,-116,-121,-125,-133,-148,-162,-171,-178,-183,-189,-195,-197,-199,-200,-201,-202,-203,-203,-202,-199,-194,-187,-175,-154,-133,-110,-90,-75,-62,-45,-24,-1,22,38,48,56,64,72,75,77,79,81,82,83,84,85,86,87,88,88,88,88,88,88,89,88,88,87,87,86,86,85,84,83,82,82,82,82,81,80,80,78,78,77,76,75,72,68,64,60,56,51,45,36,22,6,-2,-8,-13,-17,-19,-21,-20,-17,-14,-9,-3,2,12,22,32,42,52,60,65,68,69,71,73,74,75,76,77,77,77,77,77,77,77,78,78,79,80,80,79,79,78,77,76,74,71,68,66,63,61,59,57,56,54,53,52,50,49,47,44,42,41,39,38,37,35,35,35,35,35,36,36,35,35,34,34,33,33,32,31,31,30,30,30,30,29,28,27,27,26,25,24,23,22,21,20,19,19,18,18,17,17,17,16,16,15,15,14,13,11,10,9,8,7,7,7,6,5,5,5,5,5,5,4,4,3,3,3,2,2,1,1,1,2,2,3,2,2,2,3,3,4,4,4,4,4,4,4,4,4,3,3,3,4,4,5,5,5,5,5,5,5,5,4,4,4,4,4,4,3,3,3,3,3,3,2,1,0,0,-1,-2,-3,-4,-4,-5,-5,-5,-5,-6,-7,-7,-8,-8,-8,-9,-10,-11,-11,-12,-12,-13,-14,-15,-17,-19,-21,-25,-35,-44,-53,-64,-76,-85,-90,-94,-97,-99,-100,-99,-96,-91,-85,-78,-70,-58,-48,-40,-36,-33,-32,-30,-30,-30,-30,-30,-30,-29,-28,-27,-25,-24,-23,-23,-23,-22,-21,-19,-17,-14,-6,-2,-4,-10,-27,-80,-155,-246,-344,-435,-490,-493,-456,-355,-232,-119,-51,-26,-24,-31,-38,-44,-47,-42,-36,-33,-32,-31,-30,-30,-30,-29,-28,-27,-26,-25,-25,-25,-25,-25,-26,-27,-29,-30,-31,-33,-34,-35,-37,-38,-39,-40,-41,-42,-43,-44,-46,-48,-50,-51,-52,-54,-56,-57,-59,-60,-60,-61,-62,-64,-66,-68,-70,-72,-76,-82,-91,-101,-112,-121,-129,-137,-145,-152,-159,-165,-173,-181,-190,-198,-205,-210,-214,-218,-221,-223,-223,-221,-217,-211,-204,-196,-185,-171,-156,-137,-116,-100,-84,-67,-50,-32,-15,-1,10,21,33,47,59,68,77,84,92,98,102,105,108,111,113,116,118,119,120,120,120,119,118,116,113,110,107,104,101,98,95,91,86,81,76,72,68,65,62,58,55,52,50,48,46,43,40,38,35,34,34,35,36,39,43,47,53,58,63,68,71,73,75,78,80,83,85,87,88,90,91,92,93,93,94,93,93,92,92,91,91,90,89,88,88,87,87,86,86,85,83,82,81,81,80,79,78,78,78,78,78,78,77,75,73,71,68,65,63,61,58,53,34,-10,-69,-141,-215,-263,-280,-262,-207,-119,-35,30,48,50,50,51,52,53,53,51,46,41,37,35,32,29,26,24,22,21,20,19,18,16,15,14,14,13,12,11,10,9,8,6,5,4,3,2,1,1,0,-1,-3,-4,-7,-11,-16,-22,-29,-36,-42,-47,-51,-55,-59,-63,-67,-71,-74,-78,-82,-87,-93,-102,-112,-122,-132,-143,-156,-169,-183,-199,-218,-234,-242,-247,-252,-256,-258,-260,-260,-259,-256,-253,-249,-244,-233,-213,-195,-173,-147,-121,-93,-68,-44,-23,-8,2,15,25,32,39,47,54,59,64,67,71,73,74,75,76,76,76,76,77,77,78,79,79,78,73,67,62,57,52,47,42,38,34,30,26,23,19,16,12,9,6,3,2,2,3,6,10,15,20,25,32,40,48,56,64,68,71,74,77,80,81,83,83,84,84,85,85,86,85,85,85,85,86,86,86,86,85,84,83,83,83,82,82,81,81,82,83,83,83,82,79,76,74,72,71,69,67,66,65,65,64,64,63,62,62,61,61,60,58,57,56,55,54,53,51,50,48,47,46,45,44,43,42,41,40,40,39,38,37,35,34,34,34,33,32,31,30,30,29,29,29,28,28,28,28,28,28,27,26,25,25,24,24,24,23,21,20,20,20,19,19,18,16,15,15,14,14,13,11,10,9,9,9,9,9,9,9,9,9,9,8,8,7,7,6,6,5,5,4,4,4,3,2,2,1,0,0,-2,-3,-5,-6,-6,-7,-8,-9,-9,-10,-10,-11,-11,-13,-14,-15,-16,-17,-18,-18,-19,-19,-19,-18,-18,-18,-19,-20,-21,-21,-22,-23,-25,-26,-27,-29,-29,-30,-31,-33,-36,-40,-46,-58,-68,-76,-81,-85,-88,-90,-92,-93,-95,-97,-98,-94,-85,-77,-69,-60,-47,-32,-16,-10,-8,-7,-6,-6,-6,-6,-5,-4,-3,-2,-1,0,0,0,1,2,4,6,9,13,22,23,10,-25,-84,-165,-261,-360,-441,-474,-472,-423,-332,-225,-126,-50,-11,1,6,5,3,3,2,2,1,0,0,0,1,2,3,4,6,9,11,12,10,6,2,0,-2,-5,-7,-9,-11,-12,-14,-15,-16,-16,-17,-17,-18,-19,-21,-23,-24,-26,-27,-28,-30,-33,-34,-36,-37,-39,-41,-44,-47,-50,-53,-55,-57,-61,-66,-76,-96,-113,-125,-134,-140,-144,-147,-151,-155,-158,-163,-168,-176,-189,-200,-207,-211,-215,-218,-220,-220,-217,-213,-207,-200,-193,-181,-169,-157,-138,-111,-89,-72,-57,-41,-26,-8,6,19,31,42,53,64,75,86,90,93,95,96,98,100,102,104,105,107,108,109,110,111,112,112,112,111,111,110,110,110,109,107,105,104,102,101,99,96,94,91,88,85,82,78,72,66,61,56,52,49,46,43,39,33,24,16,10,3,-3,-7,-2,10,21,34,47,59,66,71,77,81,85,88,90,90,91,91,91,92,92,92,92,92,93,94,94,95,95,94,94,94,94,93,92,91,90,89,89,89,88,88,88,89,90,90,91,91,91,91,92,93,94,95,95,99,105,94,61,4,-76,-178,-291,-391,-443,-444,-400,-304,-190,-87,-12,22,28,33,37,40,43,46,48,49,50,52,53,53,52,51,49,46,43,40,37,34,31,28,25,23,21,19,17,15,13,10,6,3,0,-3,-5,-8,-9,-11,-13,-15,-17,-19,-23,-28,-33,-39,-45,-52,-58,-63,-69,-74,-79,-84,-90,-96,-104,-117,-127,-136,-144,-153,-164,-176,-188,-200,-211,-221,-232,-242,-253,-266,-274,-281,-288,-292,-294,-292,-288,-282,-275,-266,-249,-234,-213,-190,-170,-149,-126,-105,-83,-62,-41,-18,-1,8,18,27,31,34,37,39,41,44,46,48,49,50,50,50,50,49,47,45,43,40,37,34,31,28,23,14,5,-1,-7,-12,-16,-20,-23,-26,-27,-27,-24,-21,-16,-10,-4,3,15,26,34,41,44,46,49,50,52,52,53,53,53,54,55,56,56,57,57,58,58,58,58,58,58,58,58,58,59,59,59,60,61,62,63,63,63,63,62,61,62,62,62,61,59,56,54,52,52,51,50,49,48,48,47,46,45,45,44,44,44,44,43,43,42,42,43,43,43,43,42,42,42,42,42,43,43,43,43,43,44,45,45,46,46,47,48,49,50,51,52,53,53,55,56,57,57,57,58,58,59,59,60,60,60,60,61,62,63,64,65,66,67,69,70,71,72,73,74,75,77,78,80,82,83,85,87,89,90,91,91,91,92,92,92,92,93,93,94,95,95,95,95,94,94,94,94,94,94,93,94,94,95,97,98,99,99,100,102,103,103,103,103,103,104,105,106,106,107,107,108,110,111,112,113,113,113,113,113,112,111,110,108,106,105,103,100,98,94,91,88,82,75,69,64,58,54,49,45,43,45,51,58,67,80,98,107,112,116,120,124,126,129,131,133,135,137,140,142,144,146,148,150,152,154,156,156,156,155,152,148,142,134,103,50,-17,-94,-167,-205,-206,-169,-89,0,73,109,120,128,132,132,130,127,123,121,119,117,115,113,110,107,104,100,96,93,90,87,85,82,78,74,70,66,63,59,55,50,46,41,36,31,26,22,17,13,9,6,3,0,-2,-5,-7,-9,-12,-16,-22,-29,-37,-45,-53,-61,-69,-77,-84,-92,-102,-110,-119,-125,-131,-136,-142,-148,-155,-163,-174,-185,-195,-206,-220,-236,-245,-250,-255,-259,-261,-263,-264,-264,-263,-261,-258,-254,-249,-243,-234,-216,-198,-180,-163,-147,-128,-102,-83,-71,-59,-48,-37,-25,-16,-9,-6,-5,-3,-1,0,0,1,1,2,2,3,3,4,3,3,2,1,0,0,-1,-3,-5,-7,-8,-10,-12,-14,-17,-20,-22,-25,-31,-39,-47,-54,-61,-66,-71,-76,-81,-85,-88,-88,-86,-82,-77,-71,-65,-59,-49,-40,-36,-34,-32,-31,-29,-28,-26,-26,-25,-25,-24,-24,-24,-24,-25,-27,-29,-31,-33,-36,-39,-42,-44,-46,-49,-52,-55,-59,-62,-66,-69,-72,-76,-79,-82,-85,-87,-89,-92,-94,-97,-100,-103,-106,-109,-112,-115,-119,-123,-128,-142,-171,-219,-284,-367,-453,-518,-540,-525,-478,-387,-291,-214,-182,-173,-167,-165,-163,-161,-159,-158,-157,-157,-157,-156,-156,-156,-156,-155,-154,-154,-154,-155,-156,-159,-161,-164,-166,-168,-170,-171,-172,-173,-174,-176,-177,-179,-182,-184,-187,-190,-192,-195,-198,-202,-205,-208,-210,-214,-217,-220,-224,-227,-231,-234,-238,-241,-245,-249,-253,-258,-264,-271,-276,-281,-287,-293,-299,-307,-314,-322,-330,-338,-345,-352,-357,-360,-363,-365,-368,-373,-376,-375,-368,-357,-344,-326,-311,-290,-267,-233,-194,-169,-140,-116,-95,-73,-51,-25,-12,-7,-2,0,4,6,8,9,11,12,13,13,13,14,14,14,15,15,15,16,17,18,19,18,15,10,5,0,-5,-11,-18,-22,-25,-26,-28,-29,-32,-34,-35,-33,-27,-20,-11,1,15,26,35,44,54,64,75,88,99,110,117,123,128,133,138,142,147,151,157,164,170,175,180,181,182,182,183,183,184,184,184,184,184,184,183,182,182,181,180,179,178,178,178,178,179,179,179,179,180,180,181,182,182,183,184,184,185,186,188,189,189,190,190,191,192,192,193,194,195,196,198,199,200,201,202,203,204,205,206,208,210,211,213,213,214,213,212,210,207,203,200,196,193,190,188,185,183,181,179,177,176,175,174,173,172,172,171,171,172,172,174,175,176,178,180,182,184,186,188,189,191,192,194,195,196,197,199,201,203,204,206,208,209,210,212,213,214,215,217,218,220,223,225,227,230,233,236,238,237,232,226,219,211,201,188,148,85,9
