-664,-793,-924,-1062,-1187,-1267,-1272,-1241,-1210,-1151,-1097,-1069,-1027,-959,-860,-755,-669,-603,-543,-480,-419,-380,-366,-361,-366,-375,-381,-387,-392,-396,-397,-394,-390,-386,-381,-372,-367,-377,-394,-401,-405,-409,-413,-418,-422,-427,-431,-434,-437,-438,-438,-437,-435,-432,-428,-425,-421,-417,-414,-411,-408,-399,-381,-376,-373,-368,-365,-367,-371,-373,-374,-375,-376,-378,-381,-385,-388,-391,-393,-396,-401,-413,-441,-459,-468,-474,-479,-483,-488,-492,-495,-497,-500,-503,-506,-508,-509,-508,-505,-499,-491,-482,-473,-462,-450,-440,-431,-423,-419,-415,-412,-409,-407,-405,-403,-401,-399,-397,-395,-393,-392,-391,-390,-389,-388,-386,-381,-371,-358,-344,-334,-328,-321,-314,-305,-296,-289,-281,-274,-265,-256,-247,-237,-228,-220,-213,-204,-197,-190,-182,-163,-135,-122,-116,-112,-110,-108,-108,-107,-107,-108,-110,-113,-118,-99,-85,-78,-72,-67,-63,-60,-56,-53,-50,-48,-45,-43,-41,-38,-34,-30,-29,-31,-34,-38,-41,-43,-48,-52,-55,-52,-43,-29,-11,12,21,28,34,39,39,32,18,-25,-82,-147,-214,-279,-345,-413,-483,-549,-604,-652,-675,-691,-702,-687,-643,-572,-491,-406,-324,-247,-176,-108,-46,2,21,35,46,55,68,83,101,120,134,150,174,199,224,241,254,259,253,241,224,197,149,100,52,5,-43,-75,-109,-138,-160,-185,-204,-220,-246,-265,-279,-290,-297,-301,-307,-318,-341,-369,-396,-446,-505,-580,-662,-735,-784,-802,-804,-793,-764,-714,-654,-587,-521,-464,-416,-373,-323,-290,-262,-242,-228,-194,-150,-86,-8,70,148,234,337,459,584,691,770,823,843,853,860,859,840,791,737,704,676,656,643,627,603,581,564,545,526,508,493,484,478,474,468,461,455,447,435,416,399,378,344,314,295,281,270,263,258,253,249,243,239,234,228,221,211,198,184,167,148,128,109,94,78,62,36,4,-19,-37,-58,-72,-82,-90,-92,-90,-83,-75,-66,-54,-38,-15,6,25,41,50,58,67,77,86,97,109,120,132,148,167,189,207,226,242,249,254,260,257,238,224,212,203,199,197,195,192,187,187,199,208,217,221,215,202,188,172,159,142,119,105,94,88,87,94,103,109,114,117,120,123,125,126,125,122,117,112,107,102,95,89,84,80,77,74,68,59,60,73,82,89,94,97,102,107,113,119,123,126,128,129,132,134,137,139,139,139,138,137,135,132,129,126,122,117,112,105,97,89,82,73,54,28,18,14,11,9,7,4,0,-2,-3,-5,-7,-10,-26,-73,-95,-106,-113,-118,-122,-123,-121,-117,-112,-106,-98,-94,-98,-105,-110,-113,-117,-119,-121,-122,-121,-118,-113,-106,-100,-93,-84,-75,-70,-67,-64,-59,-52,-49,-51,-56,-59,-62,-64,-66,-67,-67,-64,-60,-53,-47,-40,-32,-24,-18,-14,-11,-8,-4,2,0,-21,-55,-91,-140,-201,-279,-356,-427,-490,-538,-564,-587,-616,-634,-643,-649,-654,-657,-658,-657,-654,-649,-643,-635,-623,-601,-583,-560,-531,-480,-406,-317,-219,-119,-26,47,100,134,171,204,221,229,235,241,249,257,264,270,276,281,286,289,290,291,291,289,285,280,273,266,259,252,244,238,233,229,224,220,215,211,207,202,197,190,181,173,166,159,153,148,143,138,133,128,123,116,105,86,69,53,36,17,-1,-20,-36,-53,-70,-86,-102,-118,-129,-138,-147,-146,-131,-118,-105,-94,-84,-67,-42,-24,-13,-4,3,11,26,53,70,78,84,87,89,90,90,91,92,93,94,95,96,97,98,98,98,98,96,93,90,88,85,83,78,70,51,32,19,10,3,-5,-15,-24,-31,-38,-44,-49,-51,-51,-48,-42,-35,-19,-2,4,9,8,-6,-14,-18,-23,-27,-30,-33,-35,-37,-37,-37,-36,-35,-34,-32,-30,-26,-23,-18,-12,-1,-1,-11,-20,-28,-26,-14,-8,-6,-5,-5,-5,-5,-3,-1,0,2,4,6,7,8,11,14,18,22,26,35,56,76,85,91,97,103,107,110,111,112,111,110,109,109,108,106,103,100,99,99,99,99,98,97,96,94,91,90,88,87,85,84,83,80,77,74,71,68,64,58,53,47,41,34,25,13,3,-5,-9,-13,-16,-19,-22,-24,-26,-27,-28,-29,-28,-27,-24,-22,-20,-18,-15,-13,-10,-8,-7,-5,-1,2,7,9,9,5,-1,-9,-20,-39,-55,-93,-144,-207,-277,-351,-429,-498,-551,-584,-602,-611,-618,-624,-628,-630,-631,-631,-630,-628,-626,-621,-615,-608,-595,-563,-499,-432,-363,-286,-201,-109,-19,57,117,169,200,216,222,227,231,234,237,242,246,250,253,256,260,265,274,292,301,306,310,313,315,313,307,297,280,252,223,200,192,188,186,184,182,180,177,174,171,168,165,162,159,155,147,139,133,128,123,116,107,94,77,58,39,27,18,12,6,0,-7,-14,-22,-30,-37,-42,-44,-47,-53,-60,-45,-18,16,39,51,58,64,71,77,83,86,89,90,92,95,98,100,102,104,105,106,108,110,111,113,114,117,120,122,122,118,112,104,88,71,67,63,60,59,58,58,58,58,58,58,60,63,47,30,17,10,9,9,10,10,9,9,8,7,7,7,9,12,16,20,2,-14,-25,-33,-33,-27,-21,-17,-14,-11,-7,-5,-2,0,5,12,-1,-12,-18,-23,-27,-29,-30,-29,-27,-25,-21,-15,-3,-3,-15,-21,-25,-29,-32,-35,-36,-36,-36,-35,-34,-31,-28,-24,-21,-17,-14,-9,-4,0,2,3,2,-2,-7,-13,-20,-28,-40,-52,-63,-72,-78,-82,-86,-90,-93,-94,-94,-93,-91,-90,-89,-89,-87,-85,-84,-83,-83,-85,-87,-89,-92,-95,-99,-103,-107,-108,-106,-103,-99,-94,-88,-77,-76,-86,-96,-104,-110,-114,-118,-122,-128,-131,-130,-126,-120,-114,-129,-155,-182,-223,-279,-351,-432,-516,-596,-666,-713,-729,-720,-691,-639,-621,-622,-642,-663,-684,-685,-670,-652,-635,-625,-613,-597,-565,-504,-421,-335,-257,-192,-140,-95,-66,-40,-22,-12,-8,-5,-3,-1,0,3,6,8,10,12,15,18,23,34,40,32,17,10,5,1,-2,-6,-9,-12,-14,-14,-14,-14,-12,-9,-6,-3,0,5,10,17,31,31,14,-10,-34,-42,-47,-52,-55,-55,-53,-49,-44,-38,-29,-33,-56,-70,-80,-89,-96,-100,-101,-99,-97,-93,-88,-82,-74,-62,-47,-31,-18,-7,3,11,17,23,31,43,62,83,103,117,126,134,138,137,128,115,98,77,69,64,59,56,56,63,74,84,97,104,96,83,69,54,47,44,40,37,34,35,42,52,57,61,66,70,72,72,71,69,66,63,61,59,57,54,52,50,49,47,46,45,43,42,42,42,43,44,44,45,46,48,49,50,50,50,50,50,50,51,52,53,54,54,56,57,57,57,57,57,57,56,55,52,49,46,44,42,39,35,31,28,27,28,30,32,34,35,36,38,40,42,43,43,43,43,42,42,41,39,38,37,37,38,39,39,38,37,36,36,35,34,33,31,30,28,28,27,26,25,23,21,19,18,16,14,11,9,7,6,6,6,7,8,10,13,16,19,22,25,29,35,41,44,41,35,24,6,-26,-61,-92,-144,-194,-258,-336,-425,-520,-609,-661,-677,-656,-595,-530,-509,-523,-566,-633,-656,-642,-619,-592,-575,-567,-558,-549,-536,-492,-435,-362,-271,-173,-85,-13,44,79,102,114,122,129,136,142,148,157,168,177,183,190,197,200,194,182,169,153,144,140,139,137,135,131,128,125,122,118,114,109,104,99,94,90,84,77,71,66,63,64,67,71,77,83,91,103,114,116,109,99,88,75,63,52,35,9,-17,-45,-75,-99,-108,-114,-118,-121,-121,-117,-108,-95,-71,-31,-11,-1,5,11,18,25,32,38,44,49,54,60,66,71,72,72,70,67,64,62,60,58,54,50,47,46,46,47,48,50,52,55,60,65,68,67,58,46,35,29,23,16,9,3,-1,-5,-6,-7,-7,-7,-7,-7,-6,-5,-5,-4,-4,-2,1,0,-19,-26,-28,-30,-32,-33,-35,-37,-39,-42,-44,-45,-47,-48,-49,-50,-52,-53,-54,-55,-57,-58,-60,-63,-66,-69,-72,-75,-79,-84,-89,-93,-97,-101,-103,-106,-107,-108,-108,-109,-110,-111,-112,-113,-115,-117,-118,-120,-121,-121,-121,-120,-119,-118,-117,-116,-115,-114,-113,-113,-113,-114,-115,-116,-116,-117,-117,-118,-119,-119,-119,-120,-120,-122,-124,-126,-127,-129,-131,-134,-137,-140,-143,-146,-147,-148,-149,-148,-146,-142,-137,-132,-126,-121,-115,-109,-101,-87,-74,-67,-62,-59,-53,-47,-44,-51,-70,-98,-139,-179,-219,-290,-371,-463,-556,-637,-699,-720,-710,-681,-639,-624,-624,-638,-651,-663,-669,-660,-644,-630,-617,-604,-595,-586,-567,-540,-502,-444,-364,-272,-179,-92,-17,40,80,99,106,113,118,122,126,128,130,131,131,131,129,128,125,122,120,118,116,114,112,111,110,108,106,103,101,99,98,96,95,93,91,91,90,91,91,90,90,90,89,88,87,85,83,82,81,80,79,77,74,71,68,64,52,18,-10,-32,-56,-72,-84,-94,-100,-101,-98,-91,-82,-73,-61,-45,-25,-9,5,18,29,39,46,51,56,60,64,67,70,74,79,84,88,93,99,104,111,122,133,140,144,148,154,164,160,131,117,109,102,96,91,87,84,79,76,74,72,70,68,66,64,63,62,61,58,53,47,40,34,29,24,19,13,8,3,0,-1,-2,-5,-8,-11,-12,-9,-2,4,11,14,18,24,29,34,36,36,34,31,29,27,26,24,21,17,14,13,14,16,20,23,26,28,30,33,35,37,39,41,42,43,44,45,46,47,47,46,44,42,39,36,32,27,22,17,12,7,1,-4,-12,-26,-43,-54,-60,-65,-68,-72,-75,-78,-81,-84,-87,-89,-91,-92,-93,-92,-91,-89,-87,-84,-80,-76,-72,-67,-62,-56,-47,-31,-14,0,14,28,41,53,61,65,68,70,75,81,51,2,-48,-95,-140,-183,-226,-300,-370,-439,-477,-513,-547,-578,-611,-628,-637,-644,-648,-651,-653,-655,-654,-653,-649,-644,-636,-624,-610,-585,-535,-456,-356,-227,-73,78,201,267,284,295,303,309,316,324,330,335,340,346,353,361,368,373,376,373,367,357,345,331,311,293,278,271,266,262,258,254,251,248,247,246,245,244,243,241,239,238,236,235,234,232,229,226,223,218,213,202,177,156,143,133,125,116,105,95,84,70,51,35,20,10,1,-5,-11,-14,-14,-11,-5,3,14,29,53,79,97,112,123,127,126,123,121,119,118,117,117,117,117,118,118,118,118,117,115,112,109,105,103,102,101,101,102,102,104,106,108,110,110,109,107,105,102,99,98,97,98,99,101,102,103,104,104,103,103,102,101,100,100,100,101,101,101,100,98,97,95,92,87,80,72,65,58,51,38,23,9,0,-9,-16,-21,-26,-32,-37,-41,-43,-44,-45,-46,-46,-45,-44,-42,-42,-42,-43,-45,-46,-46,-46,-45,-45,-45,-44,-43,-41,-39,-38,-38,-39,-40,-42,-46,-51,-57,-62,-67,-71,-73,-74,-74,-74,-74,-74,-75,-77,-79,-82,-86,-91,-97,-101,-104,-106,-107,-109,-111,-114,-117,-119,-122,-126,-133,-140,-146,-149,-146,-138,-127,-117,-107,-99,-90,-80,-70,-61,-56,-53,-53,-54,-56,-60,-66,-76,-87,-105,-138,-173,-220,-273,-357,-444,-536,-594,-649,-685,-692,-695,-697,-699,-700,-700,-701,-701,-700,-697,-693,-686,-676,-664,-641,-588,-528,-472,-420,-377,-316,-233,-132,-26,72,161,190,199,207,210,202,186,179,174,170,166,164,162,159,155,151,149,148,147,146,144,141,138,134,130,127,123,120,116,112,110,109,108,106,104,100,96,92,89,85,81,78,75,72,70,67,64,59,53,43,27,9,-9,-31,-52,-75,-93,-107,-118,-125,-130,-135,-140,-145,-148,-148,-145,-138,-129,-120,-110,-99,-84,-67,-50,-33,-18,-6,5,16,25,30,33,35,36,37,38,40,42,44,46,47,50,53,55,57,59,60,61,64,67,71,74,76,78,80,82,84,86,87,86,85,83,80,77,73,69,66,61,52,44,42,51,63,73,86,96,95,80,64,58,55,52,50,48,45,41,37,33,30,28,27,27,29,30,32,34,37,40,41,42,41,39,38,38,38,38,38,38,38,38,39,38,35,28,26,35,40,44,48,51,52,49,41,32,21,12,3,-6,-14,-23,-31,-38,-45,-51,-57,-64,-72,-81,-87,-89,-86,-78,-69,-60,-54,-47,-38,-31,-24,-20,-17,-14,-9,-1,5,4,-6,-19,-26,-30,-34,-37,-41,-44,-48,-50,-51,-50,-49,-47,-44,-39,-32,-25,-19,-13,-9,-4,0,6,12,15,16,15,11,6,0,-12,-25,-43,-78,-110,-153,-205,-292,-398,-515,-623,-649,-654,-634,-528,-425,-380,-366,-394,-477,-557,-584,-562,-524,-477,-443,-424,-406,-392,-376,-317,-229,-131,-33,57,146,188,203,211,217,223,228,232,236,240,245,250,256,260,264,266,270,276,281,286,286,282,272,260,249,240,233,228,222,217,213,210,207,204,201,196,192,189,186,185,184,183,182,181,180,179,178,174,169,157,128,97,64,32,3,-33,-77,-112,-139,-165,-179,-188,-196,-202,-206,-207,-205,-199,-190,-181,-170,-158,-136,-118,-102,-92,-84,-78,-72,-67,-60,-53,-46,-40,-36,-32,-29,-25,-21,-17,-14,-11,-8,-5,-1,1,1,0,-1,-3,-5,-7,-9,-11,-14,-17,-19,-20,-21,-26,-32,-38,-42,-42,-41,-40,-37,-36,-33,-30,-27,-24,-22,-21,-20,-20,-23,-27,-34,-40,-47,-53,-58,-63,-68,-72,-77,-80,-82,-84,-86,-87,-89,-89,-89,-89,-89,-89,-89,-89,-88,-86,-83,-82,-86,-93,-99,-102,-104,-106,-109,-113,-116,-118,-119,-120,-121,-123,-124,-124,-122,-121,-119,-117,-115,-114,-111,-109,-107,-105,-103,-101,-99,-97,-95,-93,-93,-92,-92,-91,-90,-89,-89,-90,-91,-93,-94,-95,-96,-98,-99,-99,-100,-100,-101,-102,-103,-104,-105,-105,-106,-106,-106,-104,-102,-100,-98,-96,-94,-93,-91,-88,-85,-82,-78,-74,-68,-61,-53,-46,-41,-36,-33,-29,-25,-21,-15,-5,-7,-31,-64,-104,-167,-233,-317,-414,-515,-611,-680,-706,-705,-678,-657,-637,-623,-622,-633,-647,-662,-680,-692,-699,-710,-721,-704,-655,-597,-530,-483,-426,-378,-310,-238,-159,-81,-10,57,106,134,147,157,164,170,173,174,173,169,163,156,149,142,136,132,127,123,120,117,115,112,109,107,104,101,99,96,94,92,91,90,89,89,88,87,85,84,82,80,78,76,73,70,65,57,47,38,30,21,11,-1,-18,-34,-50,-70,-92,-112,-138,-167,-186,-198,-204,-197,-182,-165,-143,-122,-105,-89,-74,-59,-48,-40,-34,-29,-26,-25,-23,-22,-20,-18,-16,-13,-10,-7,-2,3,8,15,22,33,41,43,45,49,54,53,41,35,31,28,25,23,22,21,21,22,23,26,29,32,36,40,44,47,48,48,45,39,32,22,8,-12,-19,-23,-26,-28,-30,-31,-27,-22,-16,-12,-8,-3,0,4,6,7,6,4,2,0,-3,-7,-9,-9,-5,-1,0,3,6,11,15,19,22,24,25,25,26,25,24,23,23,23,25,27,29,32,33,35,37,39,41,41,41,41,41,41,43,44,45,46,46,47,47,47,47,46,44,43,41,39,37,35,34,34,33,33,31,29,27,25,24,21,19,16,13,11,9,7,5,2,0,-3,-5,-7,-10,-14,-19,-22,-25,-26,-26,-24,-22,-18,-12,-5,3,12,24,45,59,67,73,80,86,88,85,76,64,48,23,-5,-43,-86,-152,-214,-272,-327,-381,-443,-477,-493,-500,-506,-510,-513,-517,-521,-525,-529,-534,-540,-550,-566,-565,-547,-519,-488,-444,-389,-310,-208,-98,3,87,152,215,241,250,254,257,259,260,260,258,253,246,237,223,200,188,180,176,172,170,169,167,164,160,156,152,148,143,139,135,130,125,118,111,104,96,90,84,78,73,67,62,57,52,45,39,33,27,21,15,7,-4,-26,-43,-57,-73,-92,-113,-130,-145,-155,-161,-165,-167,-170,-173,-175,-176,-173,-168,-159,-149,-136,-117,-99,-84,-71,-60,-51,-41,-28,-17,-12,-8,-6,-2,1,5,9,13,17,21,25,28,31,33,35,36,37,38,39,41,42,43,45,47,49,50,50,50,51,52,53,53,54,54,55,57,58,58,59,59,59,60,61,62,64,66,68,70,72,74,75,79,84,88,88,80,69,57,49,40,32,24,17,14,14,17,22,27,32,37,42,47,52,56,58,59,58,54,49,44,39,33,28,26,24,23,22,21,18,15,11,7,4,0,-2,-6,-9,-12,-14,-16,-18,-20,-24,-27,-30,-32,-34,-36,-38,-41,-42,-44,-46,-48,-50,-53,-56,-57,-58,-58,-58,-57,-56,-54,-50,-45,-40,-35,-31,-28,-25,-22,-18,-14,-8,0,11,23,35,46,56,65,72,77,82,85,89,92,96,99,101,104,108,111,113,114,114,115,116,117,118,120,121,124,131,128,100,59,13,-51,-129,-227,-336,-438,-521,-552,-561,-568,-574,-547,-519,-497,-487,-497,-517,-530,-543,-554,-560,-559,-552,-540,-523,-494,-447,-375,-297,-211,-123,-39,9,43,63,80,96,110,121,132,141,149,156,162,166,170,175,180,184,186,186,180,172,163,154,149,144,139,134,128,124,120,117,114,110,106,102,98,95,92,90,88,85,83,80,77,74,71,67,62,58,53,48,43,38,35,32,28,22,15,-3,-41,-64,-78,-87,-88,-81,-72,-66,-62,-58,-54,-50,-46,-41,-36,-30,-24,-16,-4,16,31,46,62,83,107,126,128,129,131,132,132,130,121,109,98,93,89,85,82,79,76,74,72,70,68,67,66,65,64,63,62,61,61,61,61,62,63,65,66,67,67,66,65,63,61,59,57,55,52,49,46,36,8,-5,-13,-21,-27,-31,-33,-34,-34,-33,-32,-29,-24,-20,-20,-21,-22,-24,-26,-24,-14,-3,3,9,15,20,24,25,22,16,9,1,-4,-11,-18,-25,-32,-37,-41,-44,-46,-48,-51,-53,-56,-58,-59,-60,-61,-62,-64,-65,-65,-66,-67,-69,-72,-76,-80,-84,-87,-91,-95,-100,-105,-109,-115,-124,-132,-132,-126,-118,-111,-102,-94,-91,-90,-90,-90,-90,-88,-87,-86,-90,-97,-102,-106,-109,-114,-118,-122,-126,-128,-128,-127,-124,-122,-118,-114,-109,-104,-97,-87,-78,-68,-60,-51,-42,-35,-35,-45,-59,-77,-102,-122,-148,-179,-229,-286,-352,-428,-513,-592,-630,-642,-623,-564,-493,-434,-412,-412,-434,-495,-535,-549,-547,-527,-504,-480,-459,-431,-401,-358,-300,-226,-152,-90,-34,1,41,77,94,103,111,116,119,118,115,109,102,94,86,78,69,59,49,39,28,13,-6,-18,-24,-28,-31,-34,-36,-37,-37,-35,-30,-23,-17,-10,-2,7,17,24,24,18,10,0,-9,-24,-40,-55,-73,-94,-115,-124,-131,-137,-143,-148,-151,-152,-152,-152,-152,-150,-148,-144,-138,-133,-127,-120,-114,-104,-94,-83,-72,-61,-50,-40,-29,-18,-8,0,7,13,19,25,31,37,42,47,52,57,62,68,74,78,82,86,90,94,97,99,100,102,104,107,110,113,116,118,120,122,123,123,122,121,119,118,117,118,118,120,121,122,123,124,123,122,121,119,117,115,112,110,107,106,105,104,103,101,99,98,97,96,95,93,91,89,88,87,86,84,82,79,77,76,75,73,71,69,67,66,65,64,62,59,56,53,51,49,45,40,34,28,23,19,15,12,9,6,3,1,0,-1,-3,-5,-7,-9,-11,-13,-15,-18,-20,-21,-22,-23,-24,-25,-26,-28,-29,-31,-34,-37,-40,-42,-44,-46,-48,-50,-52,-53,-55,-57,-60,-64,-68,-71,-73,-74,-74,-73,-70,-67,-63,-58,-54,-49,-44,-39,-33,-27,-19,-9,-1,4,6,4,1,-4,-12,-28,-62,-99,-135,-171,-212,-257,-304,-386,-469,-514,-540,-556,-566,-570,-566,-555,-542,-533,-522,-512,-503,-496,-489,-478,-459,-417,-363,-311,-259,-213,-141,-72,15,110,190,261,339,413,437,452,461,499,587,687,733,716,586,379,200,64,13,3,-4,-11,-16,-20,-24,-26,-27,-28,-28,-27,-25,-21,-17,-14,-11,-8,-3,1,7,14,26,40,52,67,94,133,197,269,338,414,442,455,464,443,382,291,218,146,58,3,-27,-43,-55,-63,-67,-67,-63,-54,-43,-29,2,47,68,83,93,99,95,85,74,67,60,52,45,40,38,39,41,44,47,51,55,60,66,73,80,86,89,90,91,92,93,94,95,97,101,106,110,115,119,124,128,133,139,148,165,180,185,186,187,189,192,194,194,185,166,148,139,133,127,121,115,109,104,100,97,95,93,91,89,88,87,86,85,85,87,90,94,97,100,105,111,116,121,126,132,143,171,197,224,245,262,278,293,307,319,332,349,371,393,412,424,433,440,448,455,463,471,479,488,501,522,539,553,573,593,566,489,386,293,261,248,245,246,246,245,252,295,332,365,387,398,407,414,423,431,437,440,438,436,431,426,419,422,454,501,551,581,600,565,463,347,246,148,39,-71,-176,-263,-284,-301,-313,-321,-326,-328,-331,-332,-333,-335,-337,-339,-340,-342,-345,-350,-358,-369,-384,-405,-443,-511,-582,-635,-701,-779,-882,-974,-1012,-1028,-1039,-1048,-1053,-1053,-1044,-1028,-1012,-1000,-988,-977,-966,-954,-945,-938,-929,-917,-891,-839,-784,-734,-654,-568,-475,-386,-299,-242,-177,-118,-61,-10,10,20,26,30,35,40,48,55,61,67,74,85,110,157,200,251,288,311,324,323,308,286,260,223,191,149,93,66,57,50,44,40,36,32,28,24,20,15,10,6,2,-1,-4,-8,-11,-14,-17,-22,-26,-30,-33,-36,-37,-38,-38,-37,-35,-33,-31,-30,-30,-29,-28,-25,-22,-19,-16,-14,-12,-10,-7,-4,-1,0,2,4,7,10,14,17,20,23,25,28,31,34,35,35,34,34,35,36,38,38,40,42,45,50,55,60,66,72,83,110,140,174,230,279,299,315,315,291,255,211,170,122,90,72,59,51,51,60,73,85,91,96,100,103,107,113,119,124,129,134,138,142,145,148,153,159,169,195,249,301,353,390,412,433,454,489,526,558,554,476,346,191,56,1,-17,-9,36,62,79,93,104,111,116,116,113,108,102,92,82,72,60,46,31,20,16,18,26,38,53,75,107,116,126,136,110,77,47,15,-16,-49,-88,-109,-122,-134,-144,-150,-154,-152,-148,-141,-132,-125,-118,-110,-101,-94,-87,-80,-73,-67,-59,-49,-35,-19,17,70,133,215,303,360,403,432,445,441,425,376,285,167,48,-37,-65,-82,-94,-114,-163,-223,-263,-289,-313,-337,-365,-442,-547,-675,-751,-780,-777,-726,-644,-573,-540,-517,-521,-565,-618,-668,-682,-691,-701,-704,-684,-638,-570,-484,-360,-253,-182,-101,-31,34,77,88,94,97,99,101,103,108,113,120,129,138,149,161,181,225,271,334,417,475,513,528,518,494,459,400,336,259,162,97,76,65,56,48,43,41,41,43,49,57,68,83,100,127,175,202,215,224,231,236,239,241,242,242,240,233,225,215,202,188,164,117,81,46,12,-27,-52,-71,-88,-99,-103,-101,-96,-88,-76,-34,49,134,220,306,359,408,437,415,350,251,148,57,14,-21,-66,-118,-169,-207,-234,-232,-200,-177,-159,-145,-134,-127,-123,-121,-119,-117,-114,-111,-108,-107,-107,-107,-106,-104,-103,-102,-103,-103,-103,-102,-101,-100,-99,-97,-94,-91,-87,-84,-82,-80,-78,-76,-75,-74,-72,-66,-59,-51,-48,-51,-60,-71,-81,-90,-101,-113,-123,-127,-123,-113,-102,-92,-87,-83,-79,-74,-69,-65,-63,-61,-60,-58,-55,-53,-52,-52,-52,-52,-52,-52,-52,-52,-52,-52,-52,-51,-52,-53,-54,-55,-56,-58,-60,-61,-63,-66,-68,-68,-68,-69,-70,-74,-87,-100,-102,-87,-70,-61,-55,-49,-42,-35,-29,-24,-21,-21,-22,-24,-27,-33,-40,-47,-53,-59,-65,-76,-89,-97,-98,-92,-84,-76,-70,-64,-59,-54,-49,-42,-36,-31,-24,-14,-7,-8,-21,-43,-78,-127,-205,-279,-324,-371,-417,-492,-570,-644,-670,-680,-685,-689,-694,-697,-694,-680,-658,-620,-573,-555,-546,-540,-532,-523,-515,-504,-488,-427,-323,-217,-124,-49,-1,25,39,50,59,68,74,78,82,87,92,96,101,104,106,107,108,110,110,108,106,102,97,92,86,78,64,37,25,15,4,5,20,27,31,35,39,42,45,47,48,48,46,42,38,33,27,19,8,-13,-35,-64,-93,-105,-110,-114,-116,-118,-120,-124,-128,-132,-136,-140,-145,-152,-165,-173,-167,-154,-141,-128,-113,-95,-79,-66,-51,-38,-23,4,29,36,41,45,48,48,45,38,31,23,11,4,6,10,13,14,16,19,21,25,30,37,44,54,70,95,104,111,117,115,95,65,31,15,6,0,-5,-6,-5,-4,-2,0,1,5,-12,-33,-49,-50,-38,-31,-24,-18,-15,-15,-19,-25,-32,-40,-54,-53,-30,-7,15,22,25,27,29,30,32,34,38,43,52,64,81,105,114,121,128,126,112,105,100,96,93,91,89,87,85,83,80,77,73,66,62,62,64,66,70,73,76,74,69,63,60,57,54,51,47,42,38,35,31,26,16,0,-10,-21,-31,-9,10,25,34,34,26,16,3,-14,-31,-45,-58,-64,-57,-41,-17,11,28,41,40,27,13,0,0,15,26,34,41,45,44,41,36,28,3,-51,-82,-110,-139,-187,-248,-325,-407,-481,-547,-586,-618,-638,-621,-570,-499,-430,-375,-355,-354,-366,-398,-458,-514,-557,-573,-572,-547,-478,-379,-281,-196,-133,-99,-44,18,58,101,142,165,181,190,191,183,169,151,128,114,101,89,88,98,105,111,117,120,116,108,97,87,75,64,62,68,76,83,92,100,99,85,67,56,48,40,32,26,20,14,10,5,0,-5,-10,-15,-19,-23,-29,-36,-42,-47,-51,-57,-65,-83,-121,-161,-194,-212,-224,-230,-223,-210,-199,-189,-178,-166,-154,-141,-125,-108,-90,-79,-71,-64,-58,-53,-49,-45,-42,-40,-38,-37,-36,-33,-29,-23,-17,-13,-13,-14,-17,-19,-22,-28,-32,-28,-18,-11,-3,2,5,2,-4,-13,-22,-36,-45,-34,-15,-5,2,9,14,18,22,24,27,29,29,28,26,24,21,18,14,7,0,-20,-48,-61,-70,-67,-41,-28,-20,-13,-7,-1,3,6,9,10,11,11,11,10,9,7,5,3,1,0,-4,-14,-13,1,12,22,29,31,26,16,4,-8,-26,-28,-19,-13,-9,-5,-1,0,-3,-9,-18,-27,-41,-63,-66,-52,-42,-34,-26,-20,-20,-24,-31,-38,-45,-55,-65,-66,-62,-57,-52,-47,-42,-40,-42,-47,-52,-57,-64,-71,-74,-70,-60,-50,-44,-38,-33,-28,-23,-18,-15,-14,-14,-16,-19,-24,-31,-39,-49,-71,-118,-168,-217,-266,-318,-374,-422,-494,-564,-607,-639,-661,-670,-663,-645,-617,-583,-563,-549,-543,-555,-580,-622,-657,-675,-671,-622,-545,-446,-345,-256,-181,-135,-86,-45,-22,-7,8,29,57,84,88,90,92,94,93,83,69,58,46,34,29,31,38,46,53,62,69,67,53,38,29,22,16,9,4,0,-2,-3,-1,1,4,9,15,22,29,37,52,65,65,56,42,18,-25,-54,-70,-82,-95,-106,-119,-135,-157,-172,-182,-188,-195,-200,-204,-205,-197,-184,-171,-160,-152,-143,-133,-123,-114,-106,-99,-92,-83,-70,-47,-28,-11,-3,2,7,13,19,23,26,30,33,37,41,45,48,51,53,57,60,62,62,62,62,63,64,65,65,65,64,64,65,66,65,65,66,67,67,68,68,67,67,69,72,73,74,74,75,81,89,96,97,91,83,75,72,69,66,62,57,53,52,52,53,53,53,54,56,59,63,67,71,75,78,78,76,72,68,67,66,64,63,62,61,60,59,58,58,57,56,54,54,52,50,48,46,43,40,37,33,26,14,2,-2,1,9,18,23,28,34,40,43,37,23,5,-11,-23,-35,-47,-59,-69,-77,-80,-80,-78,-75,-70,-65,-59,-53,-47,-41,-34,-29,-22,-15,-8,0,7,15,24,32,43,60,75,82,78,68,52,26,-26,-131,-253,-383,-479,-508,-524,-533,-539,-544,-549,-556,-564,-557,-516,-480,-445,-425,-429,-441,-455,-470,-469,-439,-395,-335,-273,-208,-138,-76,-20,28,69,119,146,158,167,174,179,181,182,182,180,178,174,169,163,156,149,142,134,126,117,110,103,97,92,87,81,73,61,49,44,46,50,54,55,56,59,62,66,68,70,71,72,71,68,63,56,47,37,27,17,7,-5,-20,-34,-44,-51,-57,-63,-70,-80,-91,-102,-110,-119,-130,-147,-144,-106,-84,-70,-58,-47,-38,-30,-22,-14,-7,-1,4,11,22,42,58,59,47,34,28,24,21,18,15,12,9,7,5,3,2,2,2,5,8,11,13,15,17,19,21,24,26,28,29,30,32,33,32,31,30,29,29,29,30,30,30,28,27,25,21,16,11,5,0,-4,-7,-9,-11,-12,-13,-15,-16,-18,-20,-22,-25,-28,-32,-36,-40,-44,-48,-53,-58,-63,-67,-70,-73,-77,-82,-86,-90,-92,-95,-98,-101,-105,-107,-108,-108,-108,-107,-107,-107,-105,-104,-104,-104,-106,-108,-110,-112,-112,-112,-113,-113,-114,-113,-113,-114,-115,-116,-117,-119,-121,-122,-123,-124,-124,-124,-123,-121,-120,-117,-115,-112,-109,-107,-104,-100,-97,-93,-89,-86,-83,-80,-75,-62,-47,-40,-44,-56,-74,-105,-154,-200,-255,-319,-382,-433,-471,-505,-553,-600,-627,-646,-645,-619,-604,-595,-588,-582,-575,-567,-559,-551,-542,-529,-511,-475,-401,-324,-256,-194,-138,-89,-31,15,43,72,101,137,176,197,205,211,216,221,225,228,229,230,228,226,222,217,211,205,198,191,185,179,175,170,165,160,154,149,146,144,143,143,144,145,148,153,157,161,165,168,172,180,188,191,182,162,142,128,116,105,94,82,72,62,53,45,38,30,23,17,11,3,-2,-8,-13,-16,-17,-16,-13,-8,-2,4,12,19,24,28,33,37,42,47,52,57,61,64,67,68,69,69,68,66,63,60,57,53,49,45,41,37,34,32,30,28,27,25,24,24,23,23,21,17,14,11,9,7,6,4,1,-2,-6,-11,-16,-23,-31,-39,-47,-53,-57,-60,-62,-65,-68,-72,-77,-82,-85,-85,-83,-82,-81,-79,-76,-73,-71,-71,-75,-83,-91,-98,-103,-108,-112,-117,-120,-121,-122,-122,-122,-122,-123,-124,-125,-127,-129,-130,-131,-130,-129,-128,-127,-127,-126,-126,-127,-132,-136,-137,-125,-109,-100,-93,-86,-81,-75,-68,-62,-57,-54,-54,-55,-56,-56,-54,-52,-50,-48,-41,-36,-37,-42,-46,-52,-59,-63,-58,-46,-32,-23,-15,-7,0,7,14,17,17,14,9,3,-4,-13,-27,-56,-86,-124,-177,-237,-299,-367,-428,-458,-474,-484,-493,-501,-509,-516,-523,-530,-537,-547,-557,-563,-563,-556,-542,-523,-488,-424,-357,-299,-249,-205,-167,-123,-72,-23,57,110,123,132,138,142,144,145,144,142,139,134,129,120,110,107,113,120,125,128,131,134,136,139,142,144,143,140,134,128,121,114,108,102,96,91,87,83,79,75,70,65,60,54,49,43,36,26,16,6,-2,-10,-20,-30,-45,-67,-84,-98,-105,-112,-119,-125,-129,-131,-130,-126,-119,-110,-101,-92,-83,-73,-64,-54,-40,-24,-9,0,5,9,14,18,22,26,30,34,37,42,46,48,49,49,48,48,48,48,47,47,47,49,51,52,52,51,49,48,48,47,45,42,40,39,39,41,42,42,42,41,42,43,45,45,44,42,42,41,41,40,39,37,36,35,36,36,35,34,31,30,30,30,30,28,26,23,21,20,19,19,17,14,9,7,7,11,15,18,21,22,23,25,27,28,28,28,29,31,34,35,35,35,34,35,36,38,38,37,36,35,35,36,35,34,30,26,23,20,18,14,9,4,-1,-5,-9,-13,-20,-29,-38,-46,-50,-50,-45,-37,-29,-20,-12,-4,4,13,22,29,35,40,42,42,41,36,29,18,5,-10,-42,-107,-170,-230,-287,-348,-402,-440,-463,-475,-483,-489,-493,-496,-499,-500,-501,-501,-499,-495,-489,-480,-470,-459,-445,-424,-387,-353,-322,-275,-204,-127,-41,55,152,189,199,209,218,227,235,240,245,248,251,254,256,257,256,253,251,249,246,244,241,237,234,231,229,226,223,220,216,214,214,214,214,214,214,212,210,207,204,201,199,196,194,192,191,189,186,182,176,169,160,151,141,130,119,107,94,81,66,42,22,17,16,15,14,13,13,12,11,11,12,18,27,39,53,67,81,100,119,133,140,144,148,153,160,165,163,147,127,113,99,87,76,65,55,47,40,37,35,34,33,32,31,29,28,26,25,25,25,26,27,29,32,34,36,37,38,38,37,35,32,28,25,22,20,18,18,16,14,12,10,8,5,1,-2,-7,-11,-15,-17,-19,-20,-21,-21,-21,-20,-20,-21,-22,-24,-25,-25,-24,-23,-23,-23,-22,-20,-18,-16,-14,-14,-13,-12,-11,-9,-8,-6,-5,-3,-1,0,2,2,3,3,4,4,3,2,1,0,-1,-2,-3,-3,-4,-5,-4,-4,-4,-4,-5,-5,-4,-3,-3,-3,-3,-3,-3,-2,-1,-1,-1,-1,-1,0,-1,-1,-3,-8,-15,-24,-38,-55,-75,-99,-122,-144,-179,-227,-274,-326,-386,-440,-492,-531,-545,-553,-558,-561,-563,-566,-569,-572,-574,-576,-579,-582,-587,-596,-592,-557,-506,-445,-391,-345,-307,-263,-213,-162,-74,24,127,187,206,184,160,139,140,167,190,213,225,218,205,198,193,190,188,188,186,184,180,175,171,167,163,158,154,151,147,143,139,135,131,126,123,120,117,115,111,107,102,98,95,92,89,86,82,78,75,70,64,55,44,31,21,11,2,-8,-21,-39,-53,-62,-68,-73,-78,-82,-85,-86,-83,-74,-62,-47,-27,5,39,63,83,98,105,110,113,118,124,123,112,105,102,99,95,93,90,87,84,81,80,79,78,77,75,70,65,63,65,71,78,84,91,97,101,100,93,83,71,58,40,27,21,17,13,8,5,3,5,12,22,31,36,42,47,53,58,61,64,64,64,63,61,57,53,49,46,44,39,33,28,23,22,24,27,31,33,33,35,38,42,45,45,43,39,35,32,30,26,20,15,12,11,12,15,18,21,25,32,37,32,20,11,1,-6,-9,-5,3,12,19,26,32,37,39,36,28,18,7,-1,-13,-24,-33,-35,-37,-37,-38,-38,-39,-39,-40,-39,-37,-32,-25,-18,-11,-2,5,11,12,7,-2,-17,-43,-82,-134,-191,-253,-317,-381,-420,-460,-502,-525,-535,-542,-547,-552,-557,-562,-566,-570,-574,-579,-584,-593,-606,-613,-607,-590,-547,-494,-429,-347,-252,-162,-89,-29,23,85,126,175,206,219,229,229,218,209,200,194,197,202,207,212,215,203,182,173,168,165,162,159,156,153,148,144,141,138,135,133,132,132,132,133,132,131,129,122,115,112,116,125,136,148,165,173,164,146,132,119,105,90,74,56,35,17,1,-8,-17,-25,-30,-32,-31,-26,-19,-8,8,41,55,60,63,66,68,71,73,75,77,80,83,86,89,91,93,94,95,96,97,98,99,101,104,108,112,116,119,119,115,109,100,91,82,74,62,50,41,38,38,37,37,35,32,32,41,45,49,52,54,55,54,50,44,39,35,32,29,26,22,19,16,14,11,8,5,2,0,0,0,0,0,0,-1,-2,-4,-6,-9,-13,-17,-21,-22,-20,-16,-10,-4,1,8,14,22,29,34,37,38,35,31,26,20,15,11,9,7,5,4,2,0,-3,-6,-8,-12,-15,-17,-20,-22,-24,-25,-28,-31,-36,-42,-56,-82,-88,-92,-96,-99,-98,-88,-74,-56,-34,-17,-7,0,6,12,14,11,5,-3,-13,-21,-31,-43,-56,-69,-85,-108,-140,-171,-214,-260,-331,-396,-457,-498,-527,-543,-556,-568,-579,-588,-595,-602,-610,-615,-619,-619,-617,-612,-605,-597,-580,-546,-483,-412,-330,-247,-174,-114,-55,12,84,126,158,181,206,241,268,278,285,283,262,251,244,239,233,229,224,219,214,208,203,197,192,186,180,173,165,156,147,137,127,118,111,104,98,93,89,86,83,80,78,74,71,69,66,64,60,54,47,38,29,19,6,-10,-34,-59,-79,-94,-106,-115,-122,-128,-135,-140,-143,-143,-137,-126,-112,-94,-66,-34,-6,16,32,44,51,55,59,63,66,69,73,77,81,84,86,87,88,89,89,89,89,89,90,93,96,99,100,100,99,98,97,96,95,93,90,87,85,85,86,86,86,86,86,86,88,90,91,92,92,93,95,97,99,100,101,101,102,103,105,106,107,107,107,108,109,109,110,109,108,106,105,104,103,102,101,99,98,96,94,92,91,90,90,90,89,88,87,86,85,85,84,82,80,78,77,77,77,77,77,75,73,71,68,65,59,52,44,36,28,20,13,7,1,-3,-7,-9,-10,-12,-13,-14,-14,-13,-13,-12,-11,-10,-9,-8,-6,-3,0,4,6,4,-1,-10,-21,-34,-53,-75,-99,-127,-159,-192,-234,-287,-341,-395,-451,-511,-553,-577,-594,-606,-614,-620,-626,-632,-639,-643,-645,-643,-635,-623,-606,-575,-521,-467,-420,-377,-332,-250,-144,-27,87,185,231,242,249,253,254,252,244,234,226,220,215,209,201,193,186,180,175,171,167,163,160,158,157,158,159,159,158,156,153,149,145,142,138,135,131,129,127,126,126,124,122,119,115,110,105,99,90,79,66,55,45,36,24,9,-13,-36,-58,-71,-81,-90,-98,-104,-106,-104,-97,-87,-75,-64,-53,-38,-22,-11,-1,6,11,16,21,26,31,35,41,46,52,58,64,69,72,74,75,78,81,84,88,91,94,96,98,100,101,101,102,102,102,102,103,104,105,107,107,108,108,108,107,106,106,105,106,106,106,106,106,105,105,104,102,101,100,98,97,96,96,95,95,93,92,89,86,84,82,79,76,73,71,68,67,66,64,58,49,41,39,41,46,51,55,57,60,64,69,72,75,77,78,79,79,76,71,65,58,51,44,39,35,30,25,20,15,10,6,2,-1,-5,-9,-13,-16,-17,-18,-19,-21,-23,-25,-26,-27,-28,-32,-38,-44,-46,-43,-35,-25,-15,-7,1,11,19,23,21,13,1,-15,-47,-104,-162,-218,-273,-319,-383,-453,-528,-580,-613,-628,-639,-647,-653,-657,-659,-661,-663,-664,-667,-670,-677,-674,-651,-617,-577,-519,-453,-377,-325,-265,-211,-127,-33,62,146,173,185,189,191,193,195,196,197,197,197,193,186,177,169,163,158,152,146,140,134,128,123,118,113,109,105,101,98,95,93,90,87,84,81,77,73,70,66,62,59,57,55,53,50,47,43,38,30,19,-2,-22,-39,-54,-67,-80,-98,-117,-131,-145,-157,-166,-169,-165,-157,-145,-131,-111,-80,-53,-38,-28,-20,-14,-9,-3,3,9,14,19,24,32,42,53,64,75,81,86,91,96,100,103,105,105,104,103,102,99,96,91,84,77,61,32,16,6,1,8,22,35,49,61,72,82,93,98,87,70,62,58,55,52,49,47,45,42,39,36,33,30,29,30,31,32,33,34,35,35,35,33,31,27,23,18,13,9,4,0,-3,-6,-8,-10,-11,-12,-13,-14,-15,-17,-19,-21,-22,-23,-24,-24,-25,-25,-26,-26,-27,-27,-28,-29,-31,-33,-35,-38,-41,-45,-50,-55,-59,-64,-69,-73,-77,-80,-83,-85,-86,-85,-80,-72,-63,-55,-49,-43,-36,-28,-22,-18,-17,-20,-25,-31,-39,-48,-63,-91,-109,-131,-162,-196,-227,-278,-332,-412,-504,-591,-656,-677,-662,-614,-546,-498,-480,-481,-503,-536,-570,-589,-603,-602,-587,-546,-497,-440,-380,-312,-243,-175,-107,-41,13,47,70,84,96,109,120,128,134,140,145,149,150,148,143,135,126,118,110,101,91,82,76,71,66,62,59,55,52,50,49,48,47,47,45,43,41,40,39,37,35,33,30,27,24,20,14,0,-15,-30,-43,-53,-64,-77,-92,-109,-129,-139,-143,-147,-151,-154,-155,-152,-145,-135,-122,-103,-88,-75,-64,-54,-44,-33,-20,-4,4,10,14,18,22,25,28,32,35,38,41,44,47,50,52,55,58,60,61,61,61,60,58,55,51,46,42,38,34,26,18,13,10,9,7,5,3,1,0,2,8,15,23,30,39,48,53,52,46,38,29,17,7,0,-3,-7,-11,-14,-18,-22,-26,-31,-37,-44,-54,-60,-53,-40,-30,-21,-13,-6,0,9,20,19,6,-15,-35,-41,-45,-49,-51,-52,-53,-53,-52,-50,-46,-40,-31,-43,-64,-86,-94,-97,-100,-102,-103,-105,-108,-111,-113,-115,-118,-120,-123,-125,-129,-138,-143,-138,-126,-111,-94,-79,-71,-66,-63,-60,-57,-55,-53,-52,-51,-50,-49,-48,-47,-43,-44,-55,-81,-119,-169,-225,-291,-365,-445,-524,-589,-608,-615,-609,-584,-563,-553,-549,-546,-543,-540,-537,-533,-529,-524,-517,-501,-473,-445,-419,-376,-324,-262,-194,-120,-54,2,54,78,87,92,95,98,100,102,103,105,106,108,109,110,110,110,112,116,119,119,116,111,102,89,65,53,46,39,35,33,33,36,40,45,49,54,61,69,78,87,95,106,111,108,97,81,58,40,26,12,3,-1,-7,-15,-21,-32,-67,-105,-117,-124,-129,-132,-134,-139,-144,-125,-94,-61,-39,-26,-11,3,23,43,47,49,50,51,52,52,52,53,54,55,56,55,55,55,55,56,58,60,62,64,67,71,76,82,90,100,115,115,99,80,61,53,48,44,41,41,46,59,75,90,111,122,116,104,91,73,51,31,14,9,7,4,0,13,25,34,41,47,52,59,69,68,53,31,1,-14,-23,-29,-32,-28,-20,-10,-2,8,18,24,25,24,21,18,15,9,6,9,14,18,22,25,27,22,10,-3,-14,-27,-38,-43,-41,-36,-30,-25,-19,-13,-9,-9,-13,-21,-31,-50,-69,-75,-80,-80,-68,-58,-50,-41,-30,-19,-12,-6,0,5,8,10,10,8,5,0,-5,-13,-30,-68,-112,-149,-202,-256,-317,-384,-446,-498,-527,-544,-554,-561,-564,-562,-557,-552,-547,-542,-537,-535,-536,-540,-545,-553,-562,-549,-514,-444,-350,-242,-134,-41,25,62,96,130,164,192,205,213,219,222,219,211,202,194,186,178,173,172,173,175,178,180,182,183,184,184,185,185,182,177,169,160,145,121,107,99,91,85,81,81,83,86,90,93,98,100,94,84,77,72,65,57,49,41,31,12,-16,-38,-54,-70,-78,-83,-88,-92,-95,-97,-97,-96,-93,-89,-83,-77,-66,-47,-27,-9,4,18,34,45,52,59,64,69,72,75,78,81,82,82,82,83,83,83,83,83,83,83,84,86,87,88,88,88,87,88,89,89,90,90,91,91,93,95,96,97,98,98,96,93,90,86,84,81,79,78,76,76,75,73,71,69,66,64,62,62,59,58,54,51,47,40,32,-14,-88,-164,-215,-266,-298,-265,-162,-43,63,153,150,100,67,36,8,-16,-19,-3,19,53,88,109,92,68,35,13,2,-5,-9,-9,-8,-6,-3,0,2,-5,-17,-23,-26,-30,-33,-36,-37,-39,-39,-38,-36,-33,-29,-24,-18,-13,-7,-1,3,7,10,10,9,6,1,-5,-13,-23,-39,-68,-93,-124,-162,-226,-303,-381,-456,-503,-544,-573,-590,-603,-615,-622,-612,-594,-583,-576,-570,-564,-559,-553,-548,-544,-540,-534,-525,-487,-423,-346,-256,-156,-58,30,109,187,256,282,285,276,251,191,137,117,115,130,173,214,229,234,225,210,200,193,186,180,174,169,166,162,156,147,133,113,102,96,91,88,85,84,84,85,87,90,92,95,97,101,105,109,112,111,109,104,98,90,75,45,14,-17,-54,-75,-81,-85,-89,-92,-93,-93,-89,-85,-78,-72,-66,-59,-49,-39,-28,-16,1,24,34,41,45,49,52,54,57,63,70,58,44,33,26,22,16,11,25,48,75,91,101,108,111,110,106,100,79,44,14,3,4,16,27,37,44,50,55,60,64,63,55,44,36,26,17,16,21,27,32,38,44,46,44,38,31,19,5,-1,-7,-8,-5,-4,-3,-2,-1,-1,0,0,1,3,5,7,8,10,14,17,14,6,-1,-9,-14,-15,-16,-16,-17,-20,-22,-22,-21,-17,-14,-9,-2,-3,-14,-19,-22,-24,-27,-30,-33,-36,-39,-41,-43,-44,-47,-50,-58,-74,-80,-83,-86,-88,-89,-91,-91,-92,-93,-94,-93,-91,-88,-83,-79,-73,-67,-52,-25,-11,-2,3,4,1,-5,-25,-82,-152,-219,-267,-305,-343,-393,-463,-541,-609,-636,-645,-626,-610,-600,-592,-586,-581,-577,-572,-564,-552,-540,-530,-522,-514,-507,-481,-445,-395,-333,-264,-193,-119,-41,32,94,142,169,189,204,209,211,212,213,213,213,213,211,207,201,194,178,152,138,130,124,120,117,117,117,119,122,125,130,135,121,111,107,102,98,94,90,88,86,84,81,74,63,56,53,52,52,51,49,45,41,37,31,24,10,-18,-47,-75,-96,-110,-115,-117,-120,-122,-123,-119,-108,-76,14,-66,-122,-269,-407,-574,-658,-574,-366,-128,96,269,205,-53,52,-5,-4,52,157,169,129,99,89,83,81,82,85,88,89,91,91,84,72,62,54,46,37,29,24,20,17,13,10,8,6,3,0,-2,-5,-8,-11,-13,-16,-21,-27,-32,-36,-40,-45,-51,-56,-59,-58,-52,-42,-24,6,25,38,45,45,37,25,13,0,-13,-24,-33,-43,-50,-50,-42,-31,-20,-7,1,4,6,9,12,10,1,-1,-3,-4,-6,-8,-9,-9,-10,-11,-12,-13,-13,-13,-13,-13,-13,-14,-16,-17,-18,-18,-19,-21,-23,-26,-29,-36,-51,-57,-61,-65,-68,-68,-66,-60,-52,-45,-39,-32,-24,-18,-14,-11,-9,-7,-4,-1,2,4,4,1,-3,-9,-31,-67,-113,-168,-228,-290,-349,-409,-466,-513,-549,-563,-572,-579,-583,-587,-591,-595,-601,-616,-619,-592,-508,-377,-225
