-103,-133,-162,-194,-222,-242,-247,-249,-250,-250,-250,-250,-246,-237,-227,-215,-201,-191,-184,-180,-177,-174,-172,-171,-169,-167,-166,-164,-163,-163,-164,-165,-165,-165,-165,-164,-164,-164,-164,-164,-164,-166,-167,-169,-171,-173,-175,-176,-177,-179,-180,-180,-181,-181,-183,-185,-188,-189,-190,-190,-190,-189,-187,-184,-180,-176,-173,-170,-167,-165,-162,-159,-156,-152,-149,-145,-140,-136,-131,-127,-124,-121,-118,-115,-111,-106,-101,-96,-93,-90,-89,-90,-92,-96,-100,-105,-111,-117,-124,-131,-137,-140,-143,-146,-152,-159,-139,-122,-112,-105,-100,-98,-96,-94,-92,-90,-89,-87,-85,-82,-79,-76,-74,-73,-71,-70,-69,-68,-67,-66,-65,-64,-64,-65,-66,-68,-70,-72,-76,-80,-84,-88,-93,-101,-119,-141,-157,-171,-179,-179,-173,-162,-146,-119,-70,-19,31,85,104,113,119,106,86,61,33,2,-33,-61,-68,-71,-74,-76,-78,-80,-82,-83,-83,-83,-82,-82,-80,-78,-77,-77,-78,-79,-80,-80,-80,-81,-81,-82,-82,-82,-80,-79,-79,-80,-81,-83,-83,-84,-85,-86,-87,-87,-86,-86,-88,-95,-104,-110,-115,-120,-124,-127,-129,-131,-131,-131,-130,-131,-132,-132,-133,-133,-133,-133,-131,-128,-123,-118,-112,-107,-103,-100,-96,-92,-88,-85,-81,-78,-75,-71,-67,-63,-57,-47,-38,-28,-23,-21,-20,-19,-17,-15,-13,-10,-6,-3,0,2,4,6,8,10,13,17,20,24,25,25,25,24,22,19,14,8,2,0,0,2,4,5,5,6,8,10,11,13,14,15,17,17,17,15,13,11,10,9,8,7,7,7,8,8,8,8,7,6,5,4,4,6,9,11,14,17,20,23,24,25,26,26,26,24,22,20,18,16,15,14,13,12,11,9,6,3,1,2,5,8,12,15,20,25,29,31,29,26,23,20,17,15,13,11,9,9,9,11,14,17,20,22,24,26,28,29,28,24,19,13,8,4,0,-3,-7,-10,-12,-14,-14,-13,-11,-8,-3,1,6,9,12,14,15,17,19,20,21,22,23,24,25,26,27,29,29,29,30,30,30,30,30,29,28,27,25,22,19,16,12,9,4,-8,-46,-72,-87,-96,-97,-94,-87,-63,-22,21,71,99,117,129,136,137,130,118,106,92,77,63,50,38,26,13,1,-4,-8,-10,-13,-15,-18,-20,-22,-24,-26,-28,-28,-28,-27,-26,-24,-21,-19,-17,-16,-16,-15,-15,-15,-16,-16,-17,-16,-14,-13,-21,-35,-40,-44,-47,-50,-53,-56,-60,-63,-64,-66,-68,-69,-70,-71,-71,-71,-70,-69,-69,-68,-68,-68,-69,-71,-72,-73,-74,-74,-73,-72,-70,-67,-63,-58,-53,-47,-40,-27,-15,-3,6,15,21,25,28,29,30,31,31,31,31,32,34,36,37,38,39,39,39,40,42,43,44,46,49,51,53,54,55,54,53,51,50,48,45,42,40,38,39,41,44,47,49,53,56,59,62,64,65,64,61,57,51,44,37,30,22,15,11,8,6,4,2,1,1,1,3,6,11,16,20,23,26,28,31,33,35,35,36,37,37,37,37,36,35,33,31,30,30,30,29,29,29,28,28,28,28,28,28,27,26,26,25,24,22,21,20,20,19,18,17,14,9,5,3,4,6,10,13,15,19,23,26,26,24,20,16,14,11,8,5,4,2,2,3,5,9,13,17,21,25,27,28,30,32,35,37,40,42,43,44,44,44,45,45,45,44,42,41,40,40,39,39,37,35,32,29,26,23,17,2,-19,-52,-83,-99,-110,-115,-110,-95,-55,-5,57,126,191,211,220,215,170,123,75,57,43,36,30,26,22,18,15,12,10,7,4,1,0,0,5,12,19,26,35,43,47,43,34,23,10,-6,-14,-18,-21,-25,-28,-27,-21,-13,-7,-2,2,7,9,9,5,0,-6,-15,-26,-44,-54,-60,-63,-66,-69,-72,-74,-76,-77,-77,-78,-80,-80,-79,-77,-75,-72,-70,-67,-65,-62,-59,-56,-53,-50,-47,-43,-38,-34,-29,-24,-19,-13,-9,-4,0,6,13,22,31,38,40,42,42,43,44,45,46,46,46,44,40,34,29,25,20,14,10,8,10,15,19,23,25,27,29,31,34,35,37,37,38,37,37,37,36,35,34,32,30,29,29,29,28,28,28,29,29,29,29,30,30,31,32,32,33,33,33,33,33,33,33,32,31,29,28,26,25,24,22,21,19,17,14,12,10,8,7,8,9,12,15,19,23,27,31,35,38,41,43,43,42,40,37,34,30,27,25,24,22,19,17,16,15,14,14,14,13,13,13,13,13,13,13,12,12,11,11,11,11,10,9,8,8,7,7,6,5,4,4,3,3,3,3,3,2,1,0,-2,-1,2,8,14,17,20,24,27,31,33,34,35,34,32,30,28,25,23,21,20,19,18,17,16,16,15,14,12,11,10,8,6,5,2,0,-5,-11,-26,-58,-87,-115,-137,-151,-141,-109,-45,33,117,180,202,203,188,168,141,115,86,53,25,14,11,8,6,4,2,1,0,-1,-2,-3,-4,-4,-4,-3,-3,-3,-4,-5,-6,-8,-9,-10,-10,-11,-12,-13,-13,-14,-15,-17,-21,-25,-29,-29,-27,-23,-20,-16,-11,-6,-6,-15,-26,-33,-38,-43,-47,-52,-57,-62,-66,-69,-71,-72,-74,-77,-81,-85,-87,-85,-79,-70,-63,-59,-56,-53,-49,-46,-44,-41,-38,-35,-32,-29,-27,-26,-25,-23,-21,-17,-8,14,31,42,46,49,51,54,56,51,40,21,0,-11,-18,-22,-21,-14,-5,4,15,23,26,28,29,30,31,32,33,35,35,36,36,37,37,37,37,36,36,35,35,35,34,33,32,31,31,30,30,29,29,28,27,26,25,22,20,18,18,19,20,22,24,27,15,-4,-19,-25,-28,-31,-33,-33,-28,-20,-14,-10,-6,-2,1,5,8,12,15,17,19,22,23,24,25,26,28,30,32,35,38,39,39,37,35,31,28,25,21,15,9,5,3,1,0,0,-1,-2,-2,-3,-3,-3,-4,-5,-4,-3,-2,-1,0,0,0,1,1,1,1,1,0,1,1,2,2,2,1,0,0,0,0,0,-2,-2,-2,-2,-3,-3,-6,-8,-10,-6,2,11,16,21,27,32,35,37,37,36,33,31,30,29,28,27,26,26,24,23,22,21,20,19,18,17,15,14,11,8,0,-20,-43,-67,-86,-100,-102,-95,-76,-33,19,75,124,150,159,163,159,148,116,71,15,-42,-56,-59,-52,-14,13,23,22,9,-2,-13,-19,-15,-7,-2,3,8,10,7,1,-5,-10,-17,-22,-22,-18,-13,-11,-8,-5,-3,-2,-3,-5,-8,-11,-15,-19,-26,-34,-41,-47,-55,-63,-68,-67,-63,-61,-58,-55,-53,-53,-55,-58,-61,-64,-67,-71,-76,-80,-81,-77,-71,-65,-60,-56,-51,-47,-43,-39,-37,-35,-35,-34,-32,-30,-27,-23,-20,-18,-16,-14,-12,-10,-9,-7,-4,-1,1,5,9,13,18,25,33,37,41,44,47,50,53,56,57,56,55,52,49,47,43,39,36,36,38,41,44,46,49,53,55,53,48,41,33,21,18,18,18,17,16,15,15,15,16,17,20,22,24,26,28,30,33,34,35,35,35,34,33,33,32,31,30,28,28,30,34,37,39,41,43,45,47,46,43,38,31,25,20,15,10,5,2,0,0,0,2,4,6,8,12,17,22,25,26,25,23,21,21,19,17,14,12,12,12,14,15,17,18,20,22,24,25,24,21,17,14,13,11,9,6,4,1,0,-1,-3,-5,-6,-8,-8,-9,-9,-10,-10,-12,-15,-18,-21,-21,-18,-14,-9,-5,0,4,9,10,10,9,7,5,3,-1,-3,2,12,18,23,27,31,32,32,31,28,25,22,19,16,14,11,9,6,2,-1,-5,-9,-14,-21,-37,-67,-98,-122,-137,-147,-139,-115,-75,-27,25,75,102,123,138,145,153,158,146,108,64,50,42,47,62,71,70,51,22,-3,-15,-24,-25,-16,-8,-1,2,-4,-17,-27,-36,-43,-46,-42,-34,-25,-17,-7,0,1,-2,-9,-21,-37,-43,-46,-48,-50,-52,-53,-53,-54,-54,-53,-52,-50,-47,-44,-41,-37,-34,-28,-23,-21,-25,-34,-45,-58,-75,-89,-97,-102,-107,-111,-113,-115,-115,-114,-112,-108,-103,-97,-89,-74,-60,-49,-41,-34,-24,-14,-8,-3,0,4,8,11,14,17,19,22,24,27,29,31,34,36,38,40,42,43,44,44,43,41,38,35,32,29,26,23,20,17,14,11,8,6,5,7,9,12,15,18,19,21,23,25,26,27,28,28,29,29,30,31,31,31,31,31,31,31,30,30,29,29,28,27,25,23,22,21,19,18,17,16,14,13,11,8,4,0,-2,-2,0,3,11,20,41,65,75,83,81,65,52,42,32,23,13,3,-9,-15,-8,3,10,15,20,24,27,29,27,24,20,15,11,7,2,-4,-9,-12,-12,-7,-1,5,11,16,22,28,33,37,39,39,37,33,28,23,18,14,11,8,6,3,0,-1,-4,-6,-8,-9,-10,-11,-11,-11,-11,-10,-9,-7,-5,-3,0,2,5,8,11,14,16,18,19,21,24,27,30,34,37,39,41,43,44,43,42,39,35,31,25,19,10,-8,-26,-44,-61,-81,-97,-110,-117,-113,-104,-76,-20,46,113,166,192,207,218,218,204,165,114,74,51,42,35,29,24,20,15,11,8,5,2,0,-1,-2,-3,-4,-7,-9,-13,-16,-18,-20,-22,-24,-24,-24,-23,-22,-21,-20,-19,-20,-19,-19,-19,-19,-18,-17,-16,-17,-25,-34,-39,-42,-45,-47,-49,-51,-53,-56,-58,-59,-61,-63,-65,-67,-69,-71,-72,-73,-74,-75,-77,-79,-81,-85,-90,-94,-96,-94,-88,-80,-72,-63,-53,-43,-33,-24,-16,-11,-7,-5,-3,-1,0,2,5,8,12,16,20,23,27,30,33,36,40,46,54,60,62,60,55,49,43,39,34,28,23,19,19,20,24,28,32,37,44,51,55,51,42,33,28,22,16,10,5,2,2,2,3,4,6,7,10,14,18,19,19,18,16,16,15,13,11,9,7,7,9,12,15,19,24,31,37,41,39,33,25,16,4,-2,1,10,16,21,27,31,34,33,30,26,22,16,6,1,5,11,13,15,16,17,17,18,19,21,21,22,22,22,21,21,20,19,17,16,16,15,14,12,10,8,7,6,6,5,4,3,3,4,4,5,5,4,3,3,3,4,4,5,5,5,5,5,6,6,6,5,4,3,3,3,3,3,3,4,5,7,8,9,10,10,10,11,13,14,15,15,16,18,22,26,29,29,28,24,20,16,12,8,5,1,-3,-7,-12,-15,-19,-23,-29,-37,-56,-87,-104,-115,-120,-114,-99,-58,-1,61,119,152,172,186,194,194,187,172,124,72,10,-3,-3,-3,-3,-4,-5,-6,-8,-8,-9,-10,-12,-12,-11,-10,-9,-8,-7,-7,-7,-7,-8,-9,-10,-11,-13,-14,-15,-15,-15,-15,-19,-27,-34,-36,-37,-38,-39,-41,-42,-44,-45,-47,-48,-49,-50,-51,-51,-51,-51,-50,-49,-49,-50,-50,-51,-52,-53,-53,-55,-57,-59,-61,-62,-63,-63,-64,-65,-65,-64,-59,-51,-44,-37,-33,-30,-26,-23,-19,-15,-11,-7,-4,0,4,8,11,14,16,17,19,20,22,25,27,29,31,33,35,35,36,35,34,33,31,29,28,27,25,24,23,22,21,21,21,21,21,21,22,23,24,25,25,27,28,29,29,30,30,31,32,33,33,33,32,32,33,33,33,32,31,30,28,28,28,28,27,26,25,24,24,23,20,17,13,10,8,6,5,3,1,-1,-2,-4,-5,-8,-11,-14,-16,-14,-8,0,7,13,19,25,32,37,40,41,42,42,43,43,43,43,43,43,43,40,35,29,24,21,18,16,13,11,8,6,4,2,0,0,-1,-2,-2,-2,0,0,0,0,1,1,1,2,1,1,0,0,-1,-2,-3,-4,-4,-3,-3,-3,-2,-2,-2,-2,-1,-1,-1,-2,-2,-3,-3,-3,-4,-4,-3,-2,-1,0,2,3,4,5,6,7,9,9,9,10,10,11,12,14,15,17,17,18,17,16,13,8,2,-4,-13,-32,-66,-84,-95,-102,-104,-100,-90,-76,-51,-16,31,75,118,171,195,211,221,200,167,129,94,56,23,0,-17,-29,-40,-47,-47,-38,-28,-22,-16,-10,-5,-2,-1,-1,-1,-1,-1,-1,-1,-2,-3,-3,-1,0,0,-2,-4,-8,-12,-17,-21,-21,-19,-17,-13,-10,-15,-26,-32,-36,-40,-44,-47,-50,-54,-57,-60,-62,-64,-66,-67,-69,-70,-72,-74,-75,-76,-75,-72,-67,-63,-58,-54,-50,-45,-40,-35,-32,-29,-26,-24,-23,-23,-23,-24,-25,-25,-24,-23,-22,-21,-19,-17,-14,-7,0,11,24,24,24,25,25,26,25,23,20,16,14,10,6,4,5,10,16,24,36,45,51,55,59,62,64,64,61,57,52,49,46,43,41,39,37,36,35,35,34,34,33,32,31,29,27,26,24,23,21,20,19,17,15,13,7,1,-1,0,2,6,9,11,14,16,17,19,21,24,26,27,28,30,32,35,38,38,34,27,19,10,1,-6,-14,-13,1,12,23,31,33,34,36,37,38,38,31,21,12,1,-4,-6,-7,-8,-9,-11,-9,-3,4,8,11,14,17,20,22,23,25,25,25,24,22,19,16,14,11,10,8,5,3,2,1,0,0,0,-2,-2,-3,-3,-3,-4,-6,-7,-7,-7,-7,-7,-7,-7,-8,-8,-7,-7,-7,-8,-8,-8,-5,0,5,12,21,24,26,27,28,29,30,30,31,31,32,32,32,31,29,27,25,23,20,17,14,9,-2,-13,-23,-32,-40,-50,-65,-87,-107,-120,-125,-133,-131,-107,-60,0,66,130,181,211,221,207,183,159,120,79,54,41,36,31,28,25,22,19,16,14,12,11,9,8,7,5,2,0,-2,-5,-8,-11,-14,-17,-21,-25,-33,-45,-54,-59,-63,-66,-67,-65,-59,-51,-43,-32,-28,-27,-27,-26,-25,-25,-24,-24,-24,-24,-23,-24,-26,-28,-31,-33,-35,-38,-41,-45,-49,-54,-59,-64,-67,-70,-74,-77,-79,-80,-81,-82,-84,-84,-83,-82,-79,-74,-70,-65,-61,-53,-39,-25,-11,-4,0,5,9,12,15,18,20,22,23,24,26,26,27,27,27,26,26,27,27,26,26,27,27,27,27,27,28,27,28,28,29,30,31,32,33,34,35,35,36,38,39,40,42,43,48,52,51,43,32,20,6,-3,-9,-14,-19,-23,-25,-23,-16,-8,0,12,20,24,28,33,37,38,35,32,30,28,26,25,23,21,19,18,17,16,16,18,19,21,23,24,25,26,27,27,28,29,32,38,43,38,30,26,23,20,18,15,14,14,14,14,15,16,17,17,18,20,22,23,24,25,25,25,24,23,21,18,14,11,8,6,5,4,3,2,1,1,1,0,0,-2,-4,-7,-10,-11,-13,-14,-16,-17,-19,-20,-21,-23,-27,-31,-34,-34,-29,-22,-13,-3,11,18,22,23,25,27,28,30,31,33,34,34,33,32,31,29,26,23,21,19,18,17,17,17,16,15,13,12,9,6,3,0,-5,-11,-19,-35,-72,-115,-143,-158,-167,-144,-78,8,106,191,225,221,189,158,125,92,74,64,57,51,45,41,37,33,26,17,10,5,1,-2,-5,-6,-5,-4,-3,-2,-1,0,0,-3,-9,-12,-14,-16,-18,-20,-21,-23,-24,-24,-23,-22,-20,-19,-17,-15,-13,-8,-4,-9,-21,-31,-42,-50,-56,-60,-63,-66,-69,-72,-74,-74,-74,-74,-74,-74,-73,-72,-71,-69,-66,-64,-61,-55,-52,-57,-66,-72,-78,-83,-87,-89,-86,-80,-72,-64,-57,-49,-40,-32,-24,-17,-10,-4,0,5,10,14,19,23,27,32,38,45,54,69,78,83,87,92,94,92,81,67,59,52,45,39,34,31,30,31,33,35,37,38,39,43,47,51,53,51,47,42,37,34,30,25,20,16,14,14,17,20,24,28,33,44,43,29,22,17,12,7,4,3,3,3,3,4,6,9,12,15,18,19,21,24,29,33,35,36,35,33,31,30,30,28,26,23,21,19,17,15,13,11,9,9,8,7,3,0,-3,-3,-1,2,6,7,8,8,10,12,14,16,17,18,18,18,18,16,15,12,10,8,7,6,5,4,4,3,3,2,0,-1,-3,-6,-8,-9,-10,-11,-13,-14,-16,-18,-21,-26,-30,-30,-22,-13,-9,-7,-4,-2,0,2,5,7,10,11,12,12,13,13,13,13,14,14,14,13,13,13,13,13,13,12,11,9,7,5,3,0,-2,-5,-9,-12,-16,-19,-28,-54,-77,-93,-107,-116,-117,-112,-103,-72,-29,19,69,123,151,170,184,184,166,139,102,81,71,64,56,49,41,30,5,-24,-40,-52,-51,-32,-17,-4,3,6,1,-6,-13,-18,-20,-23,-25,-27,-29,-31,-32,-32,-32,-31,-31,-30,-29,-28,-26,-22,-18,-16,-19,-27,-35,-39,-42,-45,-47,-50,-54,-57,-60,-61,-63,-64,-66,-68,-69,-69,-69,-69,-69,-70,-72,-74,-75,-77,-79,-82,-86,-90,-91,-91,-86,-80,-72,-66,-59,-53,-46,-38,-31,-25,-19,-13,-7,-1,1,5,7,8,9,10,11,11,11,12,12,13,14,15,16,18,18,18,18,18,18,18,19,20,21,24,27,32,39,45,51,56,62,67,73,79,87,93,95,91,83,73,63,51,41,33,26,19,12,6,5,7,10,12,16,19,22,22,19,15,11,8,5,1,-2,-4,-3,0,6,11,14,17,20,24,27,31,34,35,36,36,36,35,34,32,30,27,26,24,23,22,21,19,17,15,14,11,8,4,2,1,3,7,13,19,24,29,34,38,42,44,45,45,43,39,36,32,29,26,24,22,19,16,13,11,8,6,3,0,-2,-4,-5,-5,-4,-5,-5,-6,-7,-7,-8,-11,-14,-17,-19,-19,-16,-12,-7,-2,1,3,6,9,11,13,14,16,18,21,24,25,26,27,27,27,27,26,25,24,22,20,19,17,15,13,10,6,3,0,-3,-9,-26,-43,-59,-73,-87,-96,-97,-92,-79,-39,11,71,107,131,145,154,154,146,135,125,113,98,81,59,36,21,14,9,6,3,1,0,-1,-3,-5,-7,-9,-10,-11,-11,-12,-12,-13,-15,-16,-19,-22,-24,-26,-27,-26,-25,-23,-20,-18,-13,-10,-18,-35,-45,-53,-62,-69,-73,-74,-72,-71,-69,-67,-66,-65,-64,-62,-61,-61,-61,-61,-61,-61,-61,-61,-62,-63,-63,-62,-61,-59,-58,-57,-56,-53,-51,-48,-46,-44,-42,-40,-38,-35,-32,-30,-27,-25,-22,-19,-15,-12,-8,-6,-4,-2,0,0,0,0,1,3,4,7,10,15,19,23,28,31,35,38,40,43,45,48,51,56,61,66,69,70,68,65,60,55,49,43,33,23,17,12,8,3,-3,-6,-1,7,13,20,26,28,25,17,8,1,-5,-12,-17,-16,-9,0,7,10,12,14,17,19,22,25,28,31,34,36,38,40,40,40,39,38,38,39,39,39,39,40,40,41,42,43,43,42,42,42,45,46,40,28,16,3,-2,-5,-9,-13,-17,-19,-15,-9,-5,0,4,6,6,5,4,2,0,-3,-5,-4,0,4,7,12,17,21,24,25,24,22,21,20,18,17,14,11,8,6,3,2,0,0,-1,-2,-3,-3,-5,-7,-10,-12,-12,-11,-7,-3,1,4,7,9,12,14,16,17,18,20,22,24,26,27,28,29,29,29,29,27,25,23,21,19,17,15,12,8,5,1,-6,-27,-43,-64,-87,-104,-116,-117,-102,-81,-51,1,57,119,146,160,170,169,154,132,103,72,44,28,18,12,12,22,37,54,76,79,67,48,23,11,5,1,-1,-4,-7,-10,-14,-18,-22,-25,-27,-29,-33,-37,-40,-43,-42,-40,-37,-33,-30,-25,-17,-9,-5,-7,-16,-25,-31,-36,-40,-44,-48,-53,-57,-60,-61,-62,-63,-64,-65,-66,-67,-68,-69,-71,-74,-76,-78,-79,-79,-79,-79,-79,-78,-76,-73,-69,-65,-62,-58,-54,-49,-38,-26,-15,-4,0,3,5,8,10,12,13,15,16,19,23,26,28,30,31,33,34,36,38,40,44,49,56,62,65,64,60,53,44,32,14,3,-2,-7,-11,-14,-14,-11,-4,2,8,10,12,14,17,19,21,22,24,26,28,29,30,31,30,30,30,30,29,28,27,26,25,26,26,25,25,25,25,25,25,25,24,23,22,21,20,19,17,16,15,13,11,9,7,5,2,0,-1,-4,-8,-12,-15,-18,-20,-21,-19,-17,-13,-9,-5,-1,2,4,7,10,13,15,18,20,22,24,26,27,28,28,27,26,25,24,23,21,20,18,17,16,15,15,14,13,12,11,10,8,7,5,4,1,0,-1,-3,-4,-5,-7,-8,-12,-25,-34,-39,-46,-54,-53,-37,-20,-2,13,23,31,38,40,35,24,12,5,-1,-7,-13,-18,-22,-24,-24,-23,-21,-18,-14,-9,-3,3,15,25,31,36,41,45,49,50,47,39,27,8,-22,-50,-79,-99,-112,-119,-115,-101,-63,1,77,151,194,209,207,188,167,146,131,112,78,32,0,-13,-21,-27,-31,-32,-29,-25,-20,-15,-12,-9,-7,-4,-1,1,2,1,1,0,0,-1,-2,-4,-5,-6,-7,-8,-9,-11,-13,-14,-15,-16,-16,-17,-18,-19,-21,-23,-25,-27,-29,-32,-35,-38,-40,-42,-44,-46,-47,-48,-49,-51,-52,-53,-53,-53,-53,-52,-52,-52,-52,-52,-52,-52,-52,-53,-53,-52,-52,-52,-52,-53,-55,-55,-55,-50,-42,-33,-20,-1,11,14,16,18,20,21,22,24,25,27,28,29,29,29,28,28,28,28,28,27,27,27,28,29,29,29,29,29,29,30,30,30,30,30,30,31,32,33,34,34,35,35,34,33,31,29,27,26,25,24,22,20,17,14,11,7,2,-3,-9,-14,-18,-20,-21,-20,-18,-15,-11,-6,-2,2,5,8,12,16,19,23,26,28,31,33,33,33,32,30,29,26,24,22,20,18,17,16,13,9,6,6,9,14,19,23,26,29,31,34,36,37,37,37,36,35,34,32,31,31,30,30,31,30,30,29,28,27,26,24,20,16,12,8,4,1,-2,-8,-13,-18,-22,-25,-29,-32,-35,-39,-41,-42,-43,-45,-48,-50,-51,-50,-46,-38,-29,-20,-12,-1,10,20,28,35,40,44,47,50,52,53,53,49,43,37,32,27,24,22,19,15,13,10,8,5,2,-1,-5,-8,-11,-13,-14,-17,-22,-30,-49,-66,-79,-90,-98,-99,-94,-81,-39,11,66,116,133,140,145,142,127,114,105,94,83,71,55,34,19,12,9,7,6,6,6,5,4,3,3,1,0,0,-2,-4,-6,-9,-11,-12,-13,-14,-14,-16,-17,-19,-23,-27,-32,-37,-39,-39,-38,-36,-34,-32,-31,-28,-25,-22,-20,-20,-23,-29,-35,-41,-47,-54,-61,-67,-71,-75,-76,-78,-79,-81,-83,-86,-87,-89,-89,-89,-89,-89,-87,-84,-80,-76,-72,-68,-63,-58,-50,-41,-32,-25,-18,-7,8,16,20,23,25,26,27,28,28,30,31,33,34,34,34,34,35,36,37,38,38,40,42,44,47,49,51,51,51,52,53,54,54,54,53,54,55,56,57,57,56,51,46,41,36,33,30,26,23,20,17,15,12,9,7,5,4,3,3,2,1,0,0,-1,-3,-6,-9,-9,-7,-2,1,5,9,13,16,18,20,22,23,24,25,26,27,28,28,29,30,30,29,28,26,23,21,20,18,17,15,13,12,11,9,7,5,4,3,4,5,6,7,9,10,11,12,14,15,15,14,13,14,16,18,20,20,20,18,16,15,15,14,14,14,13,13,12,11,9,7,6,4,3,2,0,-1,-4,-6,-10,-18,-25,-27,-29,-32,-36,-38,-33,-25,-21,-19,-17,-14,-11,-8,-5,-2,0,3,5,7,8,9,10,11,14,17,20,23,24,24,24,23,20,17,13,7,0,-9,-17,-25,-41,-63,-84,-105,-121,-131,-131,-124,-105,-54,11,82,134,153,156,157,158,160,159,146,109,55,1,-23,-33,-33,-26,-19,-12,-9,-13,-20,-23,-26,-28,-31,-33,-34,-36,-38,-39,-40,-39,-39,-37,-34,-31,-28,-25,-23,-21,-18,-15,-9,-3,-1,-4,-10,-16,-20,-24,-29,-34,-37,-37,-37,-35,-34,-33,-33,-32,-30,-29,-28,-28,-30,-35,-40,-46,-52,-61,-71,-78,-84,-93,-103,-104,-105,-105,-106,-107,-107,-106,-103,-99,-93,-84,-66,-51,-39,-28,-15,3,14,18,22,25,27,27,26,24,22,19,16,13,10,7,4,2,3,5,8,11,12,14,15,16,18,20,22,24,26,27,28,29,30,31,32,32,32,32,33,34,35,36,37,38,39,39,39,39,39,38,37,36,35,33,32,30,28,26,24,23,22,21,20,20,20,19,18,16,12,10,15,26,44,57,60,62,61,51,35,14,-6,-24,-36,-44,-44,-32,-14,3,11,16,20,21,21,18,16,13,9,6,4,6,10,13,16,18,21,23,25,25,24,22,19,17,16,13,10,7,5,5,6,9,12,15,18,22,25,27,23,16,7,0,-8,-16,-20,-22,-23,-25,-26,-28,-30,-31,-30,-26,-21,-15,-8,1,7,5,1,0,-2,-4,-6,-6,-4,0,4,15,30,35,38,40,43,45,47,48,49,50,50,50,50,49,48,47,46,46,45,44,43,41,39,36,29,22,13,-13,-46,-78,-108,-139,-174,-187,-197,-192,-152,-83,2,91,175,236,256,248,226,178,126,83,59,43,33,23,13,8,3,0,-3,-6,-9,-12,-15,-17,-20,-22,-25,-27,-29,-31,-32,-33,-34,-35,-35,-36,-35,-34,-33,-31,-30,-28,-27,-25,-24,-21,-19,-17,-15,-13,-12,-12,-11,-12,-14,-17,-21,-25,-28,-32,-35,-40,-50,-58,-62,-64,-68,-73,-76,-75,-72,-68,-62,-63,-75,-82,-88,-93,-96,-97,-95,-91,-87,-82,-77,-71,-64,-56,-49,-42,-35,-26,-17,-8,-1,4,9,13,17,21,26,30,35,40,49,62,68,70,72,74,75,75,68,59,47,32,29,28,28,27,26,25,25,25,26,27,28,30,33,37,41,45,49,55,61,63,61,55,46,30,6,-7,-15,-21,-21,-17,-12,-9,-7,-5,-2,0,3,6,9,12,15,17,19,20,21,22,23,25,26,28,29,30,30,30,30,29,27,26,24,22,20,18,15,14,17,23,30,35,40,46,50,52,50,46,40,35,33,32,30,28,25,23,21,20,19,18,17,17,17,19,20,21,21,21,21,21,20,20,19,18,17,17,18,18,18,17,16,15,14,13,11,9,7,6,6,6,5,5,5,5,5,5,4,3,1,0,0,0,0,0,0,0,1,1,2,2,2,1,0,0,-1,-1,-1,-1,0,0,0,2,2,2,2,2,2,2,2,2,1,0,0,-1,-2,-3,-5,-7,-9,-12,-15,-18,-22,-34,-47,-62,-74,-85,-93,-97,-94,-86,-74,-53,-23,22,68,114,140,163,177,163,141,110,83,67,52,36,29,25,21,18,16,13,11,10,8,7,4,2,0,0,0,0,-1,-3,-6,-11,-20,-28,-36,-42,-48,-53,-55,-53,-46,-36,-23,-6,-1,1,3,5,4,-5,-18,-27,-37,-46,-53,-56,-58,-60,-61,-62,-62,-62,-63,-64,-64,-65,-65,-66,-67,-67,-67,-66,-66,-65,-64,-63,-61,-59,-58,-56,-55,-53,-52,-51,-48,-46,-43,-38,-32,-26,-20,-13,-7,-1,1,3,4,6,8,10,12,14,15,16,17,17,17,16,15,15,14,14,15,16,17,18,19,20,21,21,22,22,21,21,21,21,23,25,28,31,34,36,37,38,37,36,34,32,30,29,27,27,26,25,23,20,19,21,26,30,33,35,37,40,42,44,46,48,49,50,51,50,49,48,48,51,48,35,22,11,1,-6,-11,-16,-19,-22,-24,-21,-15,-8,-3,0,1,3,5,7,10,12,15,16,17,18,19,19,19,18,17,16,15,15,16,17,18,18,18,19,18,18,17,15,14,13,12,12,12,13,14,16,17,18,19,20,20,20,20,20,20,23,26,25,18,8,0,-9,-16,-16,-15,-14,-14,-15,-16,-15,-11,-9,-8,-7,-7,-6,-5,-3,-1,0,2,3,4,4,4,5,5,7,8,11,18,25,27,27,26,25,23,21,20,20,21,24,27,31,36,43,48,42,29,8,-19,-44,-68,-92,-115,-131,-142,-148,-144,-134,-105,-52,15,89,159,201,216,207,182,133,88,63,47,36,31,35,44,54,64,63,47,32,19,9,3,0,-1,-1,-1,-2,-3,-3,-4,-4,-4,-5,-7,-9,-11,-13,-15,-17,-20,-23,-27,-31,-41,-60,-58,-57,-57,-59,-60,-60,-60,-60,-60,-59,-59,-59,-58,-57,-56,-56,-57,-59,-60,-61,-62,-63,-65,-68,-71,-72,-68,-59,-50,-43,-36,-29,-24,-23,-26,-32,-39,-45,-54,-61,-60,-53,-43,-34,-22,-13,-6,-3,0,2,5,7,10,12,13,14,15,15,16,17,17,18,19,20,22,25,28,30,32,34,35,37,38,38,39,40,41,43,44,46,47,49,51,53,54,55,55,54,52,50,48,45,42,40,38,35,33,30,27,24,20,16,12,8,4,2,0,0,-1,-2,-3,-3,-4,-4,-5,-6,-6,-6,-6,-3,0,5,12,20,32,39,42,45,49,51,42,27,17,7,0,-5,-5,-2,1,7,16,29,34,37,40,43,45,45,42,40,38,36,33,31,30,31,32,34,36,40,38,23,10,-3,-10,-14,-16,-19,-21,-22,-24,-24,-23,-21,-18,-15,-13,-10,-6,-3,0,0,1,0,-2,-5,-7,-12,-16,-17,-13,-9,-7,-5,-3,0,2,4,6,8,9,10,10,10,10,9,9,7,6,5,4,4,4,4,3,2,1,0,-1,-5,-8,-11,-13,-13,-12,-11,-9,-7,-3,-4,-20,-44,-69,-82,-90,-94,-94,-89,-78,-45,-5,39,87,132,178,190,194,196,180,153,127,110,96,79,62,45,28,15,5,-2,-9,-16,-22,-26,-29,-32,-35,-38,-39,-40,-38,-35,-33,-30,-27,-23,-16,-10,-9,-14,-22,-30,-40,-47,-51,-56,-63,-62,-48,-40,-33,-27,-22,-19,-18,-19,-20,-21,-24,-27,-31,-35,-39,-42,-45,-48,-51,-54,-57,-60,-62,-65,-69,-74,-78,-81,-80,-78,-76,-73,-71,-70,-67,-63,-59,-55,-51,-47,-44,-39,-32,-19,-4,4,10,15,19,22,23,22,20,18,14,9,5,2,3,6,10,14,21,27,28,27,25,24,22,21,20,19,18,17,16,16,17,18,20,22,24,25,26,28,30,33,37,42,44,43,41,38,36,33,30,28,25,22,19,16,13,11,9,7,6,3,0,-2,-3,-1,4,10,16,20,24,29,35,39,41,41,38,35,31,28,24,19,12,8,8,13,21,28,35,43,50,53,50,43,33,21,6,-8,-21,-31,-41,-49,-53,-51,-44,-35,-23,-6,12,21,26,31,36,40,42,43,44,43,41,39,35,31,27,22,17,14,11,8,4,1,-2,-6,-10,-14,-16,-17,-17,-15,-13,-11,-9,-6,-3,0,1,2,3,4,7,11,15,17,17,15,12,7,2,-5,-19,-20,-3,2,6,10,13,16,19,22,25,29,32,34,35,34,33,32,30,28,24,20,15,10,5,0,-14,-46,-73,-97,-113,-124,-130,-126,-112,-72,-16,50,118,181,203,215,209,177,144,115,93,79,70,64,58,50,38,27,17,8,0,-7,-16,-24,-31,-40,-50,-60,-65,-63,-56,-46,-32,-16,-9,-6,-4,-2,0,1,2,2,2,2,1,0,-3,-6,-9,-11,-12,-13,-14,-16,-18,-20,-22,-25,-28,-32,-36,-41,-45,-49,-54,-61,-74,-85,-89,-92,-95,-98,-102,-105,-101,-90,-80,-74,-69,-65,-61,-58,-54,-50,-46,-42,-38,-34,-29,-25,-21,-16,-12,-9,-7,-6,-3,-1,1,4,7,10,12,15,17,20,22,24,25,26,28,29,30,31,32,33,33,34,35,36,36,36,35,36,36,36,36,37,38,39,40,41,41,41,40,39,38,37,36,36,35,35,35,35,35,34,32,30,28,25,21,17,13,9,7,5,4,4,4,5,6,7,7,8,8,8,8,9,10,11,12,14,15,17,18,19,21,22,23,23,23,23,22,21,19,17,15,13,11,9,8,7,7,6,6,5,4,3,2,0,-1,-3,-4,-6,-7,-7,-7,-5,-3,-1,1,4,6,7,7,7,6,5,3,2,2,2,3,4,6,8,9,9,9,8,5,3,0,-2,-6,-9,-11,-14,-16,-19,-21,-28,-35,-38,-33,-21,-10,-2,5,12,18,24,27,29,31,32,33,34,36,37,41,43,38,30,25,23,21,19,18,17,15,12,9,7,5,3,1,0,-3,-7,-12,-17,-28,-52,-78,-105,-131,-141,-150,-159,-157,-138,-111,-73,-5,69,147,217,240,229,197,125,64,42,41,57,77,94,71,32,5,-1,-4,-7,-8,-7,-5,-2,1,6,10,14,20,27,32,34,30,21,10,0,-7,-15,-24,-32,-37,-39,-38,-36,-34,-32,-31,-29,-27,-24,-22,-20,-19,-17,-16,-15,-15,-16,-20,-25,-31,-36,-40,-45,-49,-53,-57,-60,-63,-66,-69,-73,-76,-80,-82,-83,-82,-81,-80,-78,-75,-71,-66,-60,-54,-49,-44,-37,-25,-13,-4,2,5,7,9,11,14,16,19,20,22,23,24,25,26,26,26,25,24,23,23,23,22,21,20,19,19,18,18,18,18,17,15,14,11,6,1,0,5,11,14,18,22,25,28,30,32,31,30,27,24,19,12,7,8,13,16,19,23,25,26,23,19,14,9,2,-3,-3,1,7,11,14,18,20,22,22,23,23,23,22,20,18,15,13,10,7,4,0,-1,-2,0,3,8,13,17,21,25,29,32,34,36,36,35,33,29,24,19,15,11,5,0,-4,-6,-4,1,8,15,20,24,28,32,36,40,42,44,44,44,42,41,39,37,34,30,27,25,23,22,20,18,16,14,13,12,12,11,11,10,9,9,8,7,5,3,2,0,0,0,0,0,1,3,5,7,8,10,12,13,14,15,17,18,21,25,29,33,35,34,32,29,26,23,21,19,16,14,11,9,6,3,0,-2,-4,-6,-7,-9,-12,-17,-30,-51,-61,-68,-72,-65,-49,-23,7,51,102,125,136,144,147,141,128,114,96,79,57,31,7,-21,-42,-55,-62,-61,-51,-37,-26,-12,-2,-1,-2,-3,-3,-2,-2,-2,-3,-5,-8,-12,-15,-17,-20,-23,-27,-29,-31,-30,-29,-28,-27,-25,-24,-21,-19,-17,-17,-22,-28,-33,-36,-38,-40,-43,-47,-51,-55,-59,-62,-65,-69,-73,-77,-82,-87,-95,-105,-112,-117,-122,-128,-135,-140,-134,-120,-110,-101,-92,-82,-73,-63,-50,-33,-18,-4,2,7,12,15,18,20,22,22,21,21,20,20,20,20,20,20,21,21,20,18,15,14,15,19,22,23,25,26,29,32,35,37,39,39,40,40,39,39,37,35,33,32,31,30,28,26,24,22,21,19,16,12,7,4,4,6,9,11,13,14,16,17,17,18,17,17,17,19,20,21,22,23,24,26,28,30,31,33,34,37,39,42,45,50,55,61,63,62,58,52,47,44,41,38,34,30,27,25,25,25,26,27,28,29,31,34,37,39,36,29,22,18,16,14,12,10,7,5,3,0,-1,-3,-5,-6,-6,-5,-4,-3,-2,0,0,1,2,3,4,4,4,4,4,7,10,12,13,10,5,0,-2,-6,-9,-12,-14,-17,-18,-18,-15,-11,-5,0,6,12,17,22,27,31,34,34,31,27,21,15,10,5,2,0,-3,-4,-5,-6,-7,-8,-10,-13,-15,-18,-19,-21,-23,-25,-27,-29,-31,-32,-34,-37,-42,-48,-59,-71,-76,-74,-67,-57,-41,-14,27,71,121,170,188,195,191,180,163,132,92,70,63,59,57,53,47,39,30,16,-1,-11,-17,-21,-24,-26,-28,-27,-26,-23,-19,-14,-6,-1,-6,-17,-24,-30,-36,-40,-42,-42,-39,-36,-32,-28,-19,-13,-18,-29,-38,-46,-53,-55,-51,-44,-36,-32,-27,-22,-17,-14,-13,-14,-18,-23,-29,-34,-40,-46,-54,-61,-65,-69,-73,-76,-80,-83,-87,-90,-92,-92,-92,-90,-85,-79,-72,-63,-46,-29,-16,-5,2,8,13,15,17,19,21,23,24,25,26,26,26,26,25,23,22,21,21,22,22,23,23,23,24,24,24,24,23,22,21,23,26,29,31,33,36,39,42,45,47,49,51,52,53,53,52,50,47,44,41,39,36,33,30,26,23,15,6,2,4,8,14,20,30,35,38,41,47,44,28,21,17,12,8,4,1,0,0,-1,-1,-1,-1,0,2,4,6,8,10,12,16,20,21,19,13,7,1,-4,-10,-10,-3,4,9,14,18,22,25,26,27,26,25,23,20,16,12,4,-8,-21,-29,-36,-41,-43,-40,-32,-22,-8,11,22,30,38,42,35,21,13,5,-1,-7,-10,-8,-4,1,6,9,12,16,20,24,27,30,32,32,32,30,28,25,22,18,13,9,6,3,-1,-6,-10,-12,-11,-7,-1,6,16,32,36,37,38,40,41,42,43,43,40,35,30,23,16,3,-7,-18,-34,-58,-87,-103,-109,-113,-112,-99,-81,-58,-20,28,78,126,153,171,182,190,190,184,173,136,87,14,-60,-83,-90,-65,-24,9,20,26,30,34,35,36,34,30,24,18,11,4,-4,-14,-20,-21,-16,-10,-4,0,2,6,9,12,14,13,11,8,4,-1,-9,-23,-36,-52,-70,-80,-86,-90,-90,-83,-73,-57,-33,-20,-11,-6,-7,-15,-28,-43,-64,-84,-99,-111,-118,-118,-112,-103,-96,-86,-77,-69,-63,-60,-57,-54,-50,-45,-40,-34,-28,-21,-12,1,26,38,45,51,56,58,54,46,38,33,28,24,19,16,13,12,12,12,13,13,14,16,17,19,21,22,23,24,25,26,27,28,29,29,30,31,31,32,32,32,32,32,32,32,32,31,30,29,28,27,25,23,20,17,15,12,11,9,7,5,3,1,0,-1,-3,-6,-8,-9,-10,-9,-7,-5,-3,0,2,6,10,13,17,20,24,33,42,42,33,22,12,1,-7,-12,-17,-24,-34,-32,-16,-9,-4,0,3,7,11,14,16,18,19,20,21,21,21,20,21,23,29,26,5,-14,-33,-44,-51,-57,-64,-68,-61,-45,-29,-11,0,5,9,13,17,21,22,20,15,9,2,-2,-7,-13,-20,-25,-26,-24,-19,-14,-8,-4,0,5,10,16,20,23,23,23,23,22,21,19,18,16,16,18,20,20,18,15,13,13,12,11,10,9,8,7,7,8,9,10,10,10,10,10,9,7,4,1,-3,-7,-12,-17,-23,-35,-64,-91,-112,-132,-141,-139,-130,-105,-47,21,96,167,195,209,219,204,159,106,68,43,31,23,16,11,5,0,-3,-6,-9,-14,-17,-20,-22,-23,-25,-28,-32,-39,-43,-35,-21,-15,-10,-5,-1,2,6,9,11,12,11,9,6,1,-3,-9,-14,-19,-23,-27,-32,-37,-42,-46,-49,-50,-51,-51,-51,-49,-48,-46,-44,-41,-37,-35,-37,-45,-57,-80,-117,-154,-178,-189,-196,-178,-149,-117,-94,-80,-69,-60,-44,-17,5,22,21,3,-8,-16,-24,-29,-31,-30,-23,-13,-1,9,19,32,46,55,57,57,57,57,58,58,59,61,59,54,48,44,41,37,32,28,23,20,17,15,14,13,13,14,14,15,15,15,13,11,9,8,7,7,7,8,9,10,11,12,13,13,13,13,12,11,9,7,4,2,0,0,-2,-4,-6,-7,-8,-9,-9,-8,-6,-3,0,4,9,14,19,23,27,30,35,40,44,47,47,44,38,31,24,17,12,7,1,-4,-9,-14,-17,-19,-20,-20,-18,-15,-12,-8,-3,0,4,8,12,17,20,22,23,23,20,16,11,7,3,1,0,-2,-5,-8,-11,-14,-16,-18,-19,-19,-20,-19,-17,-15,-12,-11,-10,-9,-9,-8,-8,-7,-7,-7,-6,-2,0,-3,-9,-13,-17,-21,-24,-25,-23,-19,-15,-12,-10,-9,-7,-4,-2,0,0,2,3,5,7,8,8,8,8,8,8,9,9,9,9,10,11,12,13,12,11,10,8,6,4,0,-2,-6,-10,-14,-19,-34,-73,-109,-133,-144,-153,-152,-134,-84,-25,40,109,178,202,212,219,199,138,76,41,21,12,5,-1,-7,-14,-20,-27,-36,-43,-47,-42,-31,-19,-10,0,7,13,14,11,4,-4,-17,-36,-48,-57,-66,-70,-63,-47,-21,12,30,40,47,51,51,47,39,30,17,-2,-21,-35,-46,-56,-65,-73,-80,-88,-94,-97,-94,-87,-78,-66,-49,-36,-27,-20,-14,-11,-13,-20,-32,-52,-75,-84,-91,-95,-86,-67,-52,-36,-24,-22,-23,-24,-24,-23,-23,-23,-20,-14,-6,4,18,24,25,25,25,27,28,29,30,30,30,30,31,31,32,32,31,31,31,31,32,32,31,31,31,32,34,35,35,34,33,31,29,26,23,19,19,26,35,42,49,55,59,59,56,51,44,35,20,13,8,5,2,0,3,7,12,14,16,19,21,22,24,25,25,24,22,20,17,13,9,6,3,0,-3,-8,-11,-12,-11,-9,-5,0,3,8,15,22,28,32,36,41,47,50,44,30,19,6,0,-1,-1,-2,-3,-4,-4,-4,-4,-4,-3,-3,-3,-2,-1,0,2,3,5,7,8,9,10,11,12,13,13,13,14,15,17,19,24,28,23,14,7,1,-4,-7,-7,-5,-3,-1,2,5,4,-3,-12,-18,-23,-27,-31,-33,-34,-33,-30,-27,-22,-16,-6,2,6,8,11,13,14,15,15,15,16,17,19,19,20,19,19,20,21,21,21,21,22,24,26,28,28,26,22,16,9,0,-17,-34,-51,-67,-73,-78,-83,-82,-67,-24,26,80,132,151,162,160,133,96,64,54,48,45,41,26,-15,-33,-46,-42,-29,-24,-21,-18,-15,-12,-9,-7,-6,-4,-2,0,2,6,11,13,8,0,-7,-12,-18,-24,-28,-30,-29,-25,-20,-14,-9,-2,3,6,4,0,-5,-11,-19,-26,-33,-39,-41,-44,-46,-49,-51,-52,-53,-54,-55,-56,-58,-59,-59,-59,-58,-57,-56,-55,-53,-52,-50,-47,-45,-42,-39,-36,-32,-23,-14,-4,4,10,15,20,25,28,32,34,36,36,36,35,35,35,35,36,36,37,37,38,40,41,43,45,48,51,54,58,62,64,65,64,61,57,54,51,47,43,39,37,35,34,34,33,34,35,38,41,44,46,48,51,54,56,53,47,40,31,18,2,-7,-15,-22,-27,-28,-26,-21,-16,-12,-9,-6,-3,0,4,10,15,21,28,38,53,59,60,63,67,65,51,36,19,-3,-15,-23,-29,-34,-38,-41,-41,-39,-36,-33,-30,-28,-26,-24,-21,-17,-14,-12,-10,-9,-9,-9,-10,-13,-17,-21,-26,-30,-34,-37,-40,-43,-47,-51,-54,-57,-60,-64,-67,-69,-70,-70,-68,-66,-64,-62,-61,-59,-57,-55,-54,-53,-53,-53,-53,-53,-51,-50,-50,-49,-48,-47,-46,-45,-43,-42,-42,-42,-41,-41,-40,-39,-39,-38,-36,-34,-32,-29,-26,-24,-23,-21,-21,-21,-22,-25,-29,-34,-39,-45,-52,-62,-73,-82,-90,-98,-104,-110,-114,-117,-120,-127,-134,-122,-85,-27,35,79,93,100,99,93,82,64,37,8,-14,-21,-24,-27,-29,-32,-34,-35,-36,-37,-38,-38,-38,-37,-35,-33,-31,-29,-27,-25,-23,-22,-21,-21,-20,-18,-17,-16,-14,-12,-10,-10,-11,-15,-21,-27,-32,-36,-39,-43,-46,-49,-52,-54,-57,-59,-60,-61,-62,-62,-62,-63,-63,-64,-63,-63,-62,-62,-61,-60,-58,-56,-53,-51,-48,-45,-42,-39,-36,-33,-24,-16,-12,-9,-6,-4,-1,1,4,7,11,16,22,29,34,39,42,44,46,48,51,53,55,57,59,60,62,62,63,63,63,62,61,61,60,61,61,60,60,61,61,61,61,61,62,62,64,69,73,67,54,46,38,31,27,27,32,40,47,54,64,72,76,73,68,61,51,38,33,30,27,25,27,35,44,48,53,56,60,63,65,66,65,64,62,60,57,54,50,44,38,35,38,44,51,56,63,70,73,70,64,56,50,43,37,34,34,37,41,45,50,58,64,64,59,50,35,14,4,-2,-6,-7,-5,1,11,27,58,78,90,99,102,100,92,83,76,70,64,58,53,49,46,42,38,30,19,7,-1,-7,-12,-14,-11,-4,5,23,47,60,69,74,70,61,57,55,52,50,48,45,42,38,34,30,27,24,21,18,15,10,4,0,0,5,12,20,30,44,51,54,58,63,62,48,27,0,-47,-97,-149,-165,-174,-167,-115,-40,43,116,165,183,183,172,157,135,110,81,47,14,0,-6,-11,-15,-19,-22,-24,-28,-32,-36,-40,-44,-46,-49,-50,-51,-52,-53,-55,-57,-59,-62,-64,-66,-67,-68,-69,-70,-70,-70,-69,-68,-67,-67,-67,-67,-67,-67,-68,-68,-69,-69,-69,-69,-70,-70,-70,-71,-73,-74,-76,-78,-81,-84,-87,-92,-105,-112,-116,-119,-122,-124,-126,-123,-116,-108,-102,-98,-93,-89,-85,-80,-75,-70,-65,-60,-55,-51,-47,-43,-39,-35,-31,-27,-24,-21,-18,-15,-12,-10,-8,-7,-6,-5,-4,-3,-1,0,0,1,2,3,4,5,7,9,11,12,14,14,15,16,16,17,17,18,20,21,23,25,28,30,31,33,34,34,35,35,35,35,35,35,34,33,33,33,32,32,31,31,31,31,32,32,32,32,32,33,34,34,34,34,34,34,35,37,39,42,43,45,46,47,48,47,46,44,42,39,38,37,35,32,29,26,24,22,20,17,13,10,8,7,8,8,9,9,10,12,14,17,19,20,20,21,22,24,27,29,29,29,28,27,25,21,16,11,6,2,0,-4,-9,-14,-19,-24,-26,-27,-27,-27,-27,-27,-26,-24,-21,-20,-25,-29,-33,-37,-38,-34,-24,-14,-7,0,5,11,16,20,23,24,26,27,29,31,32,34,35,36,37,39,39,38,36,34,30,26,21,16,11,6,1,-5,-13,-22,-29,-36,-43,-52,-65,-87,-109,-130,-148,-150,-138,-107,-32,58,138,176,189,187,168,148,128,108,82,47,30,22,16,11,5,1,-2,-7,-10,-13,-15,-17,-18,-18,-18,-19,-19,-20,-22,-25,-28,-31,-33,-35,-36,-36,-37,-37,-37,-36,-35,-34,-33,-32,-31,-30,-28,-27,-25,-24,-23,-21,-19,-16,-13,-4,3,3,-4,-17,-33,-54,-67,-77,-86,-92,-93,-88,-80,-74,-68,-62,-57,-57,-58,-61,-64,-67,-71,-74,-76,-71,-61,-49,-39,-30,-20,-11,-4,1,5,9,12,15,16,17,17,17,17,18,20,22,24,26,27,28,30,32,33,34,34,36,39,44,47,47,43,36,29,24,16,9,6,8,13,18,22,24,27,29,30,32,34,35,35,34,32,29,25,21,17,12,9,5,0,-6,-11,-16,-17,-16,-14,-10,-6,-1,4,15,24,29,33,37,41,43,38,27,19,12,4,-1,-7,-12,-16,-21,-25,-29,-31,-31,-28,-25,-21,-18,-16,-13,-10,-6,-2,0,0,1,0,0,-2,-4,-8,-13,-17,-21,-24,-28,-33,-39,-44,-46,-44,-40,-35,-31,-29,-26,-24,-21,-18,-16,-15,-14,-14,-16,-18,-21,-25,-30,-34,-39,-48,-55,-54,-47,-38,-30,-21,-14,-9,-5,-2,0,3,5,7,8,8,7,6,5,4,3,0,-1,-2,-3,-1,2,8,16,32,55,74,94,109,118,124,124,117,106,93,75,60,51,44,39,33,28,23,17,4,-15,-34,-55,-78,-96,-107,-115,-115,-98,-54,16,101,177,224,241,241,226,204,180,145,104,59,43,42,49,59,66,50,24,-3,-24,-38,-38,-26,-10,4,9,11,13,14,15,15,14,11,7,4,3,1,0,-2,-3,-5,-5,-5,-5,-4,-4,-4,-4,-5,-5,-6,-7,-8,-8,-9,-9,-9,-10,-10,-10,-10,-11,-12,-13,-14,-16,-19,-21,-24,-26,-28,-30,-31,-33,-35,-37,-39,-41,-44,-50,-56,-61,-64,-62,-58,-52,-45,-38,-26,-12,3,12,18,25,30,35,39,42,43,44,44,44,44,44,43,42,41,40,39,38,37,36,35,33,33,33,32,32,31,30,30,30,31,31,31,31,31,31,31,31,31,30,30,29,28,28,27,25,23,21,20,19,17,16,14,13,12,12,12,11,11,11,11,10,10,10,11,11,11,12,13,14,15,16,17,17,18,17,17,17,16,16,16,16,16,17,17,18,19,20,20,21,23,23,24,23,23,23,23,23,23,22,21,19,17,14,12,9,6,2,0,-4,-7,-9,-11,-12,-12,-11,-10,-8,-7,-5,-3,-2,0,1,3,7,11,13,12,9,5,2,0,-1,-4,-7,-10,-13,-15,-18,-20,-21,-23,-26,-29,-30,-28,-22,-13,-3,7,22,35,47,56,63,69,73,74,71,65,57,49,42,34,26,19,16,17,21,26,31,36,42,48,51,49,42,32,15,-12,-41,-60,-69,-76,-79,-71,-51,-21,16,70,120,149,167,179,187,187,180,165,123,68,15,-6,-14,-19,-23,-26,-25,-22,-16,-11,-7,-5,-2,0,2,4,5,6,7,9,9,9,9,7,6,6,5,4,3,1,-1,-4,-7,-9,-12,-16,-19,-23,-25,-27,-29,-30,-32,-35,-37,-40,-43,-46,-48,-52,-56,-59,-61,-63,-66,-69,-73,-78,-85,-100,-105,-107,-108,-109,-111,-112,-113,-113,-113,-111,-107,-102,-95,-88,-79,-68,-56,-47,-39,-31,-24,-15,-8,-1,4,6,8,9,10,10,11,11,12,14,16,18,20,22,22,23,23,24,25,26,28,31,36,42,45,43,36,28,19,8,2,1,0,0,0,-1,-1,-1,-1,0,0,3,6,10,15,22,29,33,30,24,18,15,12,9,5,2,0,-3,-5,-7,-8,-9,-10,-10,-10,-10,-11,-16,-19,-12,1,14,29,37,42,45,49,53,55,51,42,33,28,25,22,20,16,13,9,6,3,1,0,0,0,1,3,5,7,9,10,12,13,14,14,15,15,16,17,21,25,26,23,17,11,8,5,1,-1,-3,-5,-6,-6,-5,-4,-2,0,2,5,7,8,9,10,11,13,15,16,18,20,22,24,25,25,25,25,26,27,28,29,32,39,43,38,26,15,4,-2,-3,-3,-4,-7,-9,-4,5,12,18,24,26,26,23,18,11,-2,-27,-52,-81,-105,-122,-123,-116,-96,-50,6,81,163,235,281,296,287,259,209,157,104,54,8,-5,-7,-8,-8,-9,-10,-10,-10,-11,-11,-12,-12,-12,-11,-11,-11,-12,-13,-13,-13,-13,-12,-11,-11,-10,-10,-11,-11,-11,-11,-10,-10,-9,-10,-10,-10,-10,-11,-12,-14,-17,-20,-22,-24,-26,-28,-31,-33,-35,-37,-39,-42,-45,-49,-52,-55,-57,-59,-62,-65,-67,-69,-70,-70,-69,-69,-68,-68,-67,-65,-64,-62,-60,-58,-55,-52,-49,-45,-38,-21,-5,4,12,18,22,26,28,31,34,38,41,40,32,23,17,10,4,0,-1,0,5,12,18,24,31,37,43,45,44,41,37,30,19,-7,-28,-42,-50,-51,-46,-38,-25,-1,27,48,56,62,66,67,65,60,54,50,45,41,38,37,39,44,50,56,62,68,75,80,82,80,75,68,60,51,39,30,28,25,24,22,21,19,19,21,25,29,31,34,36,39,41,43,45,47,48,49,48,47,44,41,38,34,30,26,22,19,17,15,14,12,10,7,5,2,0,-1,-2,-4,-5,-6,-5,-3,-1,0,0,0,1,1,1,1,1,0,0,2,0,-11,-17,-21,-24,-27,-29,-31,-32,-32,-32,-31,-29,-26,-24,-21,-17,-13,-9,-6,-3,1,6,9,11,11,10,9,7,6,6,5,4,3,3,2,3,4,4,4,3,2,2,2,1,0,-2,-5,-8,-11,-15,-26,-50,-71,-94,-110,-121,-125,-122,-111,-81,-40,3,53,100,140,154,159,155,146,120,80,38,-3,-30,-48,-58,-65,-68,-65,-58,-48,-31,-2,12,19,25,29,32,32,30,26,21,14,5,-11,-28,-44,-57,-65,-71,-75,-80,-84,-86,-82,-74,-66,-59,-52,-45,-39,-37,-38,-41,-45,-49,-53,-59,-64,-65,-58,-48,-37,-23,-16,-13,-9,-5,-3,-8,-20,-31,-41,-50,-56,-61,-65,-68,-71,-74,-75,-76,-77,-76,-74,-70,-65,-60,-55,-50,-46,-41,-36,-30,-25,-21,-17,-14,-10,-7,-4,-2,0,2,5,9,11,11,10,8,7,6,6,6,4,3,2,3,6,10,15,24,36,40,44,46,48,46,40,33,23,11,7,4,1,2,13,22,28,34,40,46,52,60,69,76,79,80,82,84,86,87,82,75,66,55,45,40,36,32,29,26,25,25,27,29,30,32,36,42,27,14,6,0,-4,-7,-8,-9,-12,-16,-3,14,29,37,42,46,49,50,50,50,46,41,35,29,23,15,7,1,1,3,8,14,22,33,34,35,36,37,33,24,13,2,-1,-3,-4,-6,-8,-8,-7,-4,-1,0,1,2,4,6,8,9,9,8,6,4,2,0,-3,-6,-10,-13,-17,-23,-29,-33,-34,-30,-24,-17,-9,1,9,15,22,32,43,49,54,58,61,62,60,56,51,45,40,34,29,24,20,16,12,7,1,-7,-15,-22,-27,-30,-34,-40,-49,-60,-71,-86,-94,-92,-86,-68,-28,28,90,144,172,182,181,169,136,98,73,45,19,3,-8,-15,-21,-28,-35,-19,8,25,29,31,32,31,27,21,14,5,-6,-20,-31,-34,-36,-37,-38,-38,-39,-39,-39,-40,-41,-43,-45,-48,-53,-51,-38,-21,3,17,25,31,34,34,29,23,16,12,8,4,0,-4,-9,-13,-17,-21,-26,-31,-40,-55,-67,-73,-78,-82,-84,-85,-86,-85,-82,-79,-74,-69,-62,-53,-45,-41,-37,-33,-30,-28,-26,-23,-20,-17,-14,-12,-9,-6,-2,0,5,9,13,17,20,24,27,29,30,31,31,32,33,34,35,36,38,39,41,42,42,41,40,38,36,34,32,31,30,29,28,29,29,30,30,30,30,31,32,34,35,35,35,35,36,38,40,39,30,20,14,9,4,0,-3,-5,-7,-6,-3,0,2,6,9,12,15,19,23,26,27,26,24,21,17,14,11,7,4,1,0,0,0,2,5,9,12,15,17,19,21,23,25,27,29,29,29,28,27,24,21,17,13,10,6,4,2,0,-1,-2,-3,-4,-5,-5,-7,-8,-9,-10,-10,-10,-9,-9,-9,-9,-8,-8,-8,-7,-7,-7,-7,-6,-5,-4,-2,0,1,3,4,6,9,11,13,15,16,19,23,27,31,34,35,35,34,32,30,27,23,20,17,13,10,7,4,1,-1,-4,-6,-10,-14,-18,-28,-51,-70,-84,-99,-111,-123,-128,-124,-112,-76,-4,81,167,240,264,272,250,186,126,86,71,57,37,9,-12,-27,-34,-27,-15,-8,-3,0,4,7,9,10,11,10,8,5,1,-3,-8,-13,-18,-24,-30,-36,-39,-40,-38,-34,-29,-25,-20,-13,-6,-6,-12,-23,-41,-68,-90,-104,-111,-115,-119,-122,-124,-121,-114,-105,-95,-83,-72,-61,-54,-47,-40,-36,-34,-37,-42,-47,-52,-56,-60,-65,-69,-72,-72,-68,-61,-53,-45,-38,-29,-19,-9,-2,4,10,15,18,20,21,22,23,24,25,26,27,29,30,31,31,31,30,29,27,26,24,23,22,20,19,18,18,17,17,17,16,16,16,16,15,15,15,14,9,7,12,23,30,37,44,48,49,45,37,30,22,12,3,-1,0,4,9,12,17,21,25,26,25,23,20,17,13,9,6,6,7,8,9,10,11,13,15,17,19,20,21,23,26,28,33,42,47,39,26,22,21,19,17,15,13,11,9,7,5,4,3,3,4,6,8,9,10,12,12,12,12,12,11,11,11,12,13,13,14,14,14,14,14,13,13,11,10,9,7,6,5,3,2,1,0,0,0,0,-1,-2,-3,-3,-4,-5,-8,-10,-10,-8,-3,2,8,14,21,28,34,35,33,29,24,20,14,9,7,9,16,24,31,37,44,47,47,42,36,29,23,16,9,3,-1,-5,-9,-15,-26,-48,-71,-92,-106,-117,-116,-99,-54,7,78,145,180,192,196,189,172,147,116,100,91,83,75,66,47,20,7,1,-2,-7,-10,-12,-13,-14,-15,-15,-15,-15,-15,-14,-13,-12,-11,-11,-11,-12,-13,-14,-13,-12,-11,-9,-7,-5,-3,0,2,4,7,9,13,18,20,17,11,3,-5,-16,-27,-40,-46,-50,-55,-58,-61,-63,-66,-68,-71,-73,-76,-77,-78,-79,-80,-81,-83,-86,-91,-97,-101,-101,-96,-88,-78,-67,-50,-37,-25,-17,-10,-4,0,4,8,12,15,17,19,20,22,23,24,26,27,28,29,29,29,29,28,27,26,24,22,20,19,18,17,16,14,13,11,11,10,8,6,4,3,4,7,13,20,25,30,34,39,44,48,51,53,53,52,50,47,43,38,33,29,25,21,17,14,10,7,5,3,2,0,0,0,1,1,2,3,4,5,6,7,9,10,11,13,14,16,18,21,23,25,26,26,26,26,25,24,23,22,20,19,17,16,15,15,14,14,12,10,9,8,8,8,10,11,13,16,19,23,25,22,14,3,-7,-22,-31,-37,-42,-49,-52,-46,-31,-13,5,10,14,17,19,19,10,0,-9,-20,-29,-32,-28,-19,-9,2,18,28,35,39,43,46,49,51,51,49,44,39,34,29,21,14,9,9,13,20,26,32,40,47,52,52,48,39,30,22,12,2,-5,-10,-17,-26,-40,-58,-77,-93,-102,-112,-120,-110,-81,-30,33,102,162,185,186,172,152,119,97,87,79,73,67,63,59,50,31,-5,-35,-54,-53,-35,-27,-22,-19,-16,-14,-12,-10,-8,-7,-6,-4,-3,-3,-4,-5,-7,-8,-9,-10,-10,-11,-12,-14,-16,-18,-21,-23,-24,-26,-27,-28,-28,-28,-27,-27,-27,-28,-30,-33,-36,-38,-42,-45,-50,-54,-58,-61,-63,-65,-68,-71,-75,-79,-82,-85,-88,-89,-90,-89,-87,-83,-78,-73,-67,-61,-54,-44,-33,-22,-13,-5,2,9,16,24,28,28,28,26,26,25,25,24,24,24,23,23,23,23,23,23,23,24,24,24,23,22,20,18,17,15,14,12,10,8,6,5,3,0,-6,-11,-15,-15,-11,-5,0,5,9,14,20,26,30,33,32,30,26,22,17,12,7,0,-5,-9,-11,-8,-1,7,19,33,56,65,69,72,76,79,73,58,42,23,6,-4,-12,-18,-22,-21,-16,-7,0,3,7,10,14,17,19,21,24,25,27,28,28,28,28,28,28,28,27,26,25,24,23,21,20,18,15,12,10,9,8,7,5,4,3,2,0,0,-1,-2,-3,-4,-4,-5,-5,-5,-5,-5,-5,-4,-4,-3,-3,-2,-2,-1,-1,0,0,1,2,3,4,4,5,5,5,5,5,5,5,4,3,2,2,2,3,3,4,5,6,7,7,7,7,6,4,3,0,-2,-7,-14,-22,-39,-77,-107,-126,-134,-129,-117,-82,-25,35,95,141,154,163,169,172,173,170,163,152,138,112,73,54,43,34,25,15,7,3,0,-4,-7,-10,-12,-13,-13,-13,-13,-12,-10,-8,-5,-3,-1,0,0,0,0,0,1,2,4,5,5,5,5,5,3,0,-4,-9,-15,-21,-27,-32,-39,-51,-61,-63,-63,-62,-62,-63,-64,-65,-66,-66,-65,-65,-64,-63,-61,-58,-56,-54,-54,-56,-60,-64,-68,-73,-79,-79,-69,-56,-45,-35,-25,-16,-10,-5,-1,3,7,11,14,17,19,21,23,25,26,27,27,27,27,27,27,28,28,28,28,29,30,32,33,34,35,36,37,38,38,38,40,42,45,48,49,47,44,39,35,31,25,18,13,11,13,16,19,22,25,27,29,32,35,37,38,39,39,37,35,32,28,25,21,18,16,14,11,8,5,2,1,0,0,1,2,5,7,12,16,19,18,15,12,8,2,-1,-2,2,9,15,23,29,30,25,18,12,4,0,-1,1,6,9,12,14,17,19,20,20,18,15,12,10,7,5,2,0,-1,-2,-3,-4,-5,-7,-8,-9,-10,-11,-12,-14,-16,-18,-19,-20,-22,-24,-27,-28,-27,-22,-16,-9,-3,6,14,16,14,12,10,8,5,4,4,4,5,6,7,9,11,15,19,19,9,-1,-7,-11,-16,-21,-25,-30,-33,-35,-36,-36,-36,-35,-33,-30,-26,-22,-16,-10,18,62,94,117,129,138,141,140,135,127,116,99,80,53,39,36,34,33,30,22,11,-3,-21,-25,-26,-27,-28,-28,-28,-29,-30,-30,-30,-28,-26,-23,-21,-18,-15,-12,-10,-8,-6,-4,-2,0,1,2,3,2,0,-4,-9,-15,-20,-27,-35,-43,-49,-53,-55,-58,-62,-68,-71,-70,-66,-63,-61,-58,-56,-55,-55,-55,-54,-55,-55,-55,-56,-58,-59,-60,-61,-59,-56,-52,-47,-42,-37,-32,-26,-20,-14,-8,-4,-2,-1,0,1,3,5,6,7,8,9,10,11,12,12,13,14,15,16,18,19,21,22,24,27,29,32,35,38,40,42,43,43,42,40,38,35,33,32,30,28,25,23,20,18,18,18,18,18,18,19,20,22,25,27,23,14,7,0,-6,-6,-4,-1,0,1,3,5,7,7,6,4,1,0,-2,-4,-6,-9,-12,-13,-14,-14,-13,-11,-8,-5,0,4,9,13,17,23,29,34,37,36,33,28,22,13,0,-9,-15,-20,-24,-26,-23,-17,-8,1,14,23,30,35,40,44,47,49,48,46,43,38,33,27,21,11,2,-1,-4,-7,-10,-13,-15,-15,-12,-6,2,17,36,44,49,53,54,47,35,16,-7,-17,-24,-28,-28,-22,-13,-3,9,17,22,25,29,32,34,34,30,25,17,8,-6,-21,-42,-64,-76,-85,-88,-85,-75,-46,-3,48,109,168,211,227,228,217,187,140,93,51,32,23,19,14,5,-7,-22,-40,-42,-30,-12,12,32,47,47,31,7,-18,-30,-37,-42,-43,-41,-36,-32,-29,-26,-22,-20,-17,-15,-14,-14,-14,-15,-17,-19,-21,-24,-25,-26,-26,-26,-25,-25,-26,-28,-31,-34,-38,-42,-46,-50,-53,-56,-59,-61,-65,-70,-74,-79,-81,-81,-81,-79,-78,-77,-75,-73,-71,-67,-64,-61,-57,-53,-48,-44,-38,-31,-20,-10,-5,0,3,7,11,15,20,25,28,31,35,39,43,46,47,46,45,44,43,40,36,29,30,31,31,33,34,34,32,29,26,24,22,20,17,14,14,14,15,17,18,18,18,19,20,21,22,23,24,25,26,27,28,29,30,31,32,33,35,37,39,42,45,47,48,48,46,42,38,32,26,19,7,-1,-5,-8,-10,-11,-12,-13,-14,-15,-15,-13,-10,-6,-2,3,9,16,27,36,39,40,40,41,43,44,38,26,14,0,-5,-7,-10,-12,-14,-13,-4,7,14,20,26,31,34,36,34,29,23,16,10,3,-3,-12,-19,-22,-21,-18,-13,-7,2,18,24,28,32,35,37,37,36,35,34,34,33,32,32,31,30,29,30,32,33,35,37,38,40,42,45,48,48,43,35,28,21,13,5,1,3,7,13,18,24,28,30,27,21,11,-5,-31,-56,-80,-95,-106,-111,-106,-93,-56,-2,63,125,167,181,188,189,183,172,154,124,75,18,-1,-13,-7,13,24,31,32,29,26,24,22,20,18,16,12,7,0,-5,-13,-23,-29,-31,-32,-33,-34,-36,-39,-40,-41,-40,-39,-36,-33,-30,-26,-21,-17,-17,-19,-24,-30,-35,-41,-48,-51,-49,-42,-35,-29,-24,-19,-16,-14,-15,-19,-25,-34,-45,-64,-81,-90,-96,-102,-106,-108,-107,-103,-96,-87,-72,-54,-56,-56,-56,-55,-54,-54,-54,-54,-51,-46,-40,-31,-23,-15,-4,7,17,25,37,61,100,128,146,153,140,117,100,87,75,65,54,44,37,33,28,22,16,11,7,4,2,0,-4,-7,-8,-7,-4,0,2,5,9,12,16,19,22,24,25,28,33,38,43,47,50,53,54,54,52,50,47,44,41,38,34,31,28,24,19,14,10,8,7,7,8,9,10,12,13,15,17,19,20,21,22,22,23,23,23,23,23,22,21,20,20,20,19,18,18,17,16,16,17,17,17,17,17,16,16,15,13,11,11,12,14,16,18,20,22,24,25,27,28,28,28,26,24,21,18,14,10,6,2,-4,-17,-25,-29,-33,-39,-36,-17,-3,8,17,24,28,31,33,34,35,37,38,40,42,44,45,47,48,50,50,49,47,45,42,38,35,31,28,25,22,19,15,8,0,-8,-14,-18,-21,-25,-31,-37,-44,-52,-60,-70,-83,-83,-72,-43,7,67,124,163,177,177,162,141,110,88,76,67,60,54,41,14,-22,-47,-62,-71,-52,-18,3,11,16,14,-3,-16,-26,-34,-36,-31,-22,-12,-5,0,6,11,13,13,11,6,0,-8,-21,-41,-54,-61,-67,-72,-76,-78,-76,-70,-61,-53,-46,-39,-32,-26,-21,-18,-17,-16,-15,-15,-14,-14,-13,-10,-31,-46,-56,-63,-69,-71,-70,-66,-60,-52,-33,-15,-9,-5,-7,-22,-32,-39,-46,-50,-52,-49,-44,-38,-32,-27,-20,-13,-7,-1,3,8,13,19,25,31,37,42,45,48,51,54,56,59,60,61,61,61,60,59,57,54,52,49,46,43,37,26,19,16,12,8,6,9,16,19,21,23,25,28,29,31,31,32,32,31,30,28,25,23,21,19,18,17,16,15,14,14,14,14,13,12,11,11,11,11,11,11,10,9,9,9,9,8,7,7,6,5,4,2,-2,-5,0,9,14,19,22,25,27,28,28,27,25,22,19,15,11,3,-4,-14,-21,-28,-33,-36,-34,-28,-21,-15,-8,-1,2,2,1,0,-2,-3,-4,-6,-7,-9,-11,-13,-16,-18,-22,-27,-37,-51,-56,-60,-62,-60,-55,-51,-47,-44,-40,-34,-26,-16,0,12,29,45,54,61,62,54,42,26,8,-7,-14,-18,-21,-23,-25,-28,-30,-32,-34,-36,-39,-43,-45,-44,-42,-38,-34,-29,-22,-23,-37,-58,-80,-93,-102,-102,-92,-66,-21,37,106,175,232,267,279,270,244,197,145,91,51,39,31,25,19,10,0,-13,-22,-28,-32,-35,-36,-35,-35,-35,-37,-39,-38,-26,-13,0,4,8,11,9,-4,-9,-11,-13,-15,-17,-18,-19,-20,-21,-22,-22,-23,-24,-25,-25,-25,-25,-24,-24,-24,-25,-25,-26,-28,-29,-31,-33,-36,-41,-48,-55,-65,-76,-90,-100,-107,-113,-117,-117,-112,-105,-93,-70,-55,-47,-41,-37,-35,-35,-35,-35,-35,-34,-34,-34,-35,-35,-35,-34,-32,-29,-25,-22,-17,-9,2,20,31,39,45,51,56,61,64,66,68,71,75,85,104,115,120,124,126,126,122,115,106,93,75,68,65,64,62,62,62,62,63,63,62,62,60,59,57,56,55,54,53,53,53,52,51,49,45,42,40,39,38,37,37,37,37,37,38,38,39,40,41,40,39,37,34,32,29,26,22,20,18,16,13,11,9,8,7,6,7,8,9,11,14,16,19,22,25,28,32,35,37,37,34,31,27,24,22,20,17,14,11,9,7,7,8,8,9,10,11,13,15,20,20,9,-2,-15,-26,-31,-35,-38,-40,-41,-41,-37,-31,-25,-20,-17,-16,-14,-12,-9,-6,-4,-2,0,0,1,2,3,3,1,0,-1,-2,-4,-5,-7,-9,-10,-11,-12,-14,-15,-19,-25,-34,-41,-50,-60,-75,-90,-100,-108,-113,-115,-112,-105,-92,-51,6,78,148,193,208,209,198,168,130,106,78,54,17,-22,-53,-64,-69,-62,-50,-45,-41,-38,-35,-34,-33,-32,-32,-30,-29,-27,-25,-23,-23,-22,-21,-19,-17,-15,-12,-9,-7,-3,3,10,13,11,5,-2,-16,-40,-56,-65,-71,-71,-66,-59,-54,-50,-45,-41,-39,-41,-45,-50,-54,-57,-60,-64,-68,-72,-75,-78,-81,-82,-84,-85,-86,-87,-88,-89,-92,-95,-97,-96,-91,-84,-70,-47,-27,-13,0,7,11,15,19,21,23,25,26,28,30,31,31,31,30,29,28,27,25,24,23,23,23,24,23,23,21,19,18,17,15,13,11,10,9,8,9,10,11,12,13,14,15,15,15,13,12,11,10,10,11,12,14,15,17,18,19,19,19,18,18,17,17,17,18,18,19,21,21,22,22,20,18,14,9,3,-6,-22,-30,-36,-42,-44,-37,-23,-11,0,10,18,25,34,43,55,68,89,110,120,127,125,109,84,50,12,-20,-41,-57,-58,-44,-23,3,23,37,36,20,6,-7,-13,-6,8,20,33,42,42,34,23,9,-6,-11,-14,-16,-18,-18,-12,-5,-2,-2,-1,0,0,1,2,4,5,5,5,5,5,5,4,4,5,5,5,7,9,10,12,15,18,21,25,32,46,57,64,74,84,69,50,33,18,2,-13,-25,-37,-49,-64,-84,-113,-139,-157,-158,-152,-134,-83,-15,58,126,178,193,199,193,168,145,121,100,90,84,80,75,71,55,24,-8,-35,-45,-46,-36,-9,27,67,83,89,94,96,96,90,81,72,61,53,46,40,34,28,20,12,6,1,-3,-8,-15,-21,-28,-33,-38,-44,-48,-51,-51,-49,-46,-43,-40,-38,-35,-31,-29,-29,-31,-36,-41,-48,-58,-63,-66,-68,-70,-72,-74,-75,-75,-75,-76,-76,-75,-73,-71,-67,-63,-58,-53,-41,-20,-8,0,5,11,16,22,24,22,17,14,11,8,6,4,3,3,2,2,1,0,0,0,1,4,7,10,12,15,18,21,23,22,19,16,12,8,3,0,2,8,13,18,22,25,26,26,28,31,28,26,24,23,22,22,23,26,31,34,37,42,46,50,51,48,44,37,13,-17,-32,-41,-49,-49,-40,-15,11,35,63,76,83,87,89,86,79,72,62,55,38,6,-21,-32,-37,-40,-42,-44,-48,-53,-61,-70,-63,-42,-9,26,62,74,69,54,19,-18,-42,-50,-49,-39,-28,-17,-7,0,5,11,16,22,30,36,51,77,98,105,107,104,97,86,71,48,22,10,5,2,0,-1,-2,-3,-3,-3,-2,0,1,3,6,9,13,21,24,27,28,29,29,30,31,32,32,32,32,31,30,27,24,21,17,12,2,-3,-6,-9,-11,-12,-11,-7,-4,0,7,8,1,-15,-40,-65,-78,-88,-94,-88,-70,-31,24,89,147,192,207,212,204,178,145,107,79,70,65,62,60,58,49,14,-28,-71,-92,-99,-91,-68,-36,-6,2,6,9,8,2,0,-2,-3,-4,-5,-7,-9,-11,-13,-14,-16,-19,-22,-27,-37,-39,-40,-42,-41,-35,-30,-26,-23,-20,-20,-22,-26,-32,-43,-53,-56,-58,-58,-54,-51,-49,-48,-47,-48,-51,-56,-61,-64,-68,-72,-76,-77,-77,-76,-74,-70,-62,-48,-39,-32,-29,-30,-34,-36,-39,-41,-39,-32,-22,-7,7,24,38,47,48,44,31,13,6,4,7,15,26,40,46,49,51,52,53,52,49,46,42,37,30,24,19,11,-1,-18,-31,-38,-43,-43,-35,-24,-11,0,7,16,21,25,28,31,33,33,32,30,27,24,22,20,18,15,11,7,3,0,-3,-7,-11,-14,-14,-12,-8,-4,-1,2,6,8,6,3,0,-4,-8,-12,-13,-11,-8,-3,3,18,34,49,59,67,67,60,49,36,25,17,12,9,6,4,3,2,4,7,11,19,30,37,41,43,41,36,30,25,17,9,0,-8,-8,1,11,21,22,14,0,-8,-11,-13,-13,-9,-2,9,25,36,43,43,34,21,3,-12,-23,-26,-29,-32,-30,-22,-14,-7,-3,-4,-7,-11,-15,-15,-9,-4,0,5,11,14,17,19,21,23,25,25,25,25,24,23,21,19,16,11,-1,-18,-36,-55,-70,-92,-110,-117,-116,-102,-65,-3,69,139,196,233,246,234,199,146,98,57,27,9,2,2,6,10,14,13,4,-1,-4,-7,-9,-10,-11,-12,-13,-13,-14,-15,-18,-12,-8,-6,-3,-1,0,0,-1,-2,-3,-4,-5,-9,-10,-8,-6,-4,-8,-11,-14,-17,-21,-25,-32,-39,-41,-42,-44,-44,-44,-42,-39,-36,-32,-26,-27,-36,-50,-67,-83,-96,-103,-107,-109,-110,-109,-106,-102,-97,-89,-82,-72,-60,-52,-47,-42,-35,-27,-21,-16,-11,-6,-1,2,8,18,31,32,33,33,34,34,35,35,34,34,32,30,28,29,32,34,34,35,36,38,39,40,41,41,41,40,39,37,36,34,32,31,29,28,26,24,23,23,24,26,28,31,34,38,41,43,42,38,33,23,12,8,5,6,13,20,29,42,53,63,67,65,59,43,9,-23,-33,-36,-39,-37,-28,-18,-8,2,18,28,31,34,21,7,-3,-12,-18,-26,-35,-38,-41,-43,-32,-13,8,32,51,62,70,73,70,63,52,35,15,3,0,-3,-2,5,10,14,16,19,20,20,19,16,13,9,1,-13,-21,-25,-28,-31,-32,-31,-29,-25,-21,-18,-14,-9,-4,0,2,1,0,0,-1,-1,-1,-2,-3,-5,-6,-6,-6,-6,-6,-5,-4,-1,0,3,6,13,26,32,36,38,34,24,8,-12,-32,-53,-77,-96,-106,-113,-117,-115,-109,-92,-64,-20,34,87,128,144,155,168,183,191,184,162,110,50,24,17,13,10,6,2,0,-3,-6,-7,-9,-10,-11,-11,-12,-14,-16,-18,-20,-22,-23,-24,-24,-24,-25,-26,-27,-31,-34,-33,-26,-17,-10,-1,4,4,0,-6,-18,-34,-45,-52,-58,-64,-67,-70,-72,-74,-76,-76,-76,-76,-75,-74,-73,-72,-71,-69,-68,-66,-65,-64,-65,-66,-69,-72,-77,-85,-104,-124,-143,-155,-164,-167,-164,-156,-134,-97,-54,-13,9,25,36,47,58,66,71,75,78,81,82,84,86,88,91,95,98,95,88,82,76,73,77,83,87,91,94,95,92,85,77,71,65,60,55,50,46,44,41,37,32,23,17,12,8,6,12,24,38,54,64,71,77,80,77,69,57,37,21,10,8,8,8,7,6,5,4,3,3,3,4,4,6,8,10,13,16,18,22,28,34,40,45,50,52,48,40,31,20,14,8,4,0,-2,-5,-8,-11,-11,-7,-2,0,3,6,9,11,12,13,13,13,12,12,11,10,16,23,27,30,30,25,18,10,0,-8,-15,-22,-21,-14,-2,9,15,20,18,8,0,-9,-14,-16,-17,-19,-22,-20,-11,2,13,17,20,19,15,13,12,11,10,9,9,9,9,10,11,13,15,18,20,22,26,29,31,29,26,19,8,-11,-21,-26,-30,-33,-35,-38,-41,-44,-48,-57,-71,-80,-87,-86,-77,-54,-17,28,76,115,131,137,142,144,140,129,113,89,74,65,60,56,53,47,32,8,-2,-6,-8,-7,-1,5,11,12,9,8,6,5,5,5,4,2,0,-4,-10,-22,-38,-46,-51,-50,-40,-25,-10,-3,1,3,0,-7,-17,-36,-60,-74,-78,-82,-81,-71,-56,-41,-33,-29,-26,-26,-30,-37,-49,-62,-67,-71,-70,-63,-59,-55,-52,-51,-51,-52,-55,-59,-63,-67,-72,-77,-80,-83,-85,-89,-94,-93,-84,-70,-49,-25,-2,22,39,47,54,53,44,33,23,19,17,15,14,13,12,11,11,10,11,12,15,19,23,28,37,56,67,73,78,80,81,79,75,70,64,57,46,38,32,22,8,0,-5,-9,-12,-13,-10,-4,0,5,11,17,21,23,23,22,20,18,16,11,11,18,20,21,23,24,25,26,27,28,29,30,31,33,33,33,34,34,35,36,37,38,39,41,45,49,49,42,33,21,6,-7,-25,-42,-51,-58,-58,-47,-32,-10,16,44,75,98,112,122,114,89,52,17,6,15,29,38,25,4,-18,-34,-45,-49,-46,-38,-25,-4,12,23,28,24,15,2,-15,-27,-34,-37,-37,-32,-24,-10,10,26,35,41,44,48,53,53,43,28,9,-6,-21,-27,-31,-34,-36,-37,-34,-28,-22,-14,-4,2,9,15,22,30,40,48,56,61,60,56,49,38,22,-2,-33,-66,-103,-121,-133,-142,-142,-126,-80,-15,60,130,185,210,217,208,182,148,126,103,77,47,17,-14,-31,-36,-40,-42,-36,-23,-1,16,21,25,27,26,19,11,5,0,-3,-7,-10,-12,-14,-16,-18,-20,-20,-21,-20,-20,-19,-18,-19,-19,-20,-21,-21,-22,-23,-24,-25,-26,-28,-30,-35,-46,-60,-82,-96,-101,-106,-103,-87,-77,-70,-64,-59,-55,-52,-51,-50,-48,-46,-44,-40,-37,-38,-47,-59,-68,-78,-86,-89,-87,-82,-74,-61,-41,-23,-5,13,25,29,32,34,35,29,21,14,7,0,-1,0,4,8,11,13,16,18,20,21,21,19,17,14,10,5,-4,-4,5,17,30,40,51,62,73,82,91,92,84,64,31,17,12,9,7,6,5,7,11,18,24,31,41,49,51,49,44,39,31,17,9,4,0,-3,-7,-11,-14,-17,-22,-33,-55,-80,-93,-98,-93,-62,-21,-5,0,3,6,14,26,49,73,87,95,88,67,33,21,18,16,16,16,15,14,13,12,11,9,7,5,6,10,15,19,23,26,22,13,0,-17,-31,-41,-50,-58,-66,-70,-65,-56,-46,-35,-30,-28,-27,-25,-23,-23,-24,-27,-29,-32,-34,-30,-22,-10,8,20,27,32,36,37,34,30,27,24,22,21,19,16,14,11,9,6,3,1,-1,-4,-7,-11,-18,-26,-32,-37,-42,-52,-70,-89,-107,-124,-139,-150,-157,-144,-107,-40,41,116,156,170,170,156,120,80,59,39,19,3,-7,-8,-9,-10,-11,-12,-13,-13,-14,-15,-16,-18,-20,-21,-22,-23,-24,-26,-28,-31,-34,-36,-39,-41,-43,-44,-44,-44,-44,-44,-44,-45,-46,-48,-49,-51,-53,-55,-57,-59,-61,-63,-65,-69,-76,-79,-73,-58,-34,-11,1,9,-2,-36,-101,-180,-244,-277,-277,-246,-170,-88,-26,2,3,-24,-71,-97,-106,-104,-85,-67,-49,-47,-53,-61,-72,-79,-84,-73,-61,-52,-45,-39,-33,-27,-22,-15,-11,-9,-6,-4,-2,0,1,3,5,8,12,18,29,41,53,65,72,81,94,105,114,124,134,143,148,152,155,154,145,137,129,122,117,113,109,105,100,95,89,83,75,69,65,63,62,60,59,58,57,55,54,52,50,48,46,45,44,43,41,40,38,36,33,31,29,27,25,23,22,20,15,7,16,24,28,32,35,38,39,41,44,49,40,31,26,21,17,13,10,6,2,-1,-4,-6,-10,-13,-15,-11,-3,1,8,12,12,8,1,-9,-24,-32,-37,-40,-42,-43,-42,-41,-39,-37,-35,-33,-31,-28,-26,-24,-21,-17,-15,-17,-22,-26,-32,-35,-32,-26,-18,-5,14,33,37,41,43,44,44,42,39,34,29,26,22,17,13,9,7,5,3,1,-2,-5,-10,-15,-22,-46,-75,-105,-132,-142,-142,-137,-124,-73,4,83,145,172,181,175,158,133,109,86,63,49,41,38,36,34,32,29,27,25,22,19,14,6,-3,-7,-9,-10,-12,-14,-15,-18,-20,-22,-24,-25,-27,-30,-32,-36,-43,-47,-49,-51,-53,-54,-55,-54,-53,-51,-50,-47,-45,-44,-46,-50,-54,-57,-61,-63,-65,-67,-68,-68,-68,-68,-68,-67,-67,-68,-68,-67,-63,-60,-57,-56,-55,-53,-52,-50,-48,-46,-45,-43,-41,-39,-36,-33,-27,-17,-8,0,5,9,11,12,14,16,18,16,13,11,9,7,6,6,7,9,13,16,20,23,27,31,34,38,42,46,50,54,58,62,66,68,68,69,70,70,70,71,71,67,57,46,32,21,10,0,-1,-4,-6,-6,1,6,11,14,16,14,9,4,1,0,-2,-4,-6,-8,-9,-10,-10,-10,-9,-9,-8,-8,-7,-6,-6,-5,-4,-1,0,2,0,-2,-5,-6,-8,-9,-12,-14,-16,-18,-19,-19,-20,-20,-20,-19,-19,-18,-18,-20,-10,-3,1,5,7,7,5,0,-4,-9,-14,-20,-26,-30,-32,-33,-34,-35,-37,-39,-41,-41,-40,-37,-34,-31,-29,-26,-24,-22,-19,-18,-17,-16,-15,-14,-13,-12,-9,-7,-7,-11,-15,-19,-24,-28,-23,-15,-8,-2,2,5,6,7,9,12,11,1,-5,-10,-14,-19,-23,-27,-31,-37,-45,-53,-61,-71,-81,-84,-88,-91,-84,-62,-29,11,59,105,141,163,171,171,163,152,135,104,60,5,-36,-50,-40,-9,23,34,29,15,-15,-26,-33,-37,-28,-15,-4,2,7,11,14,13,7,1,-2,-7,-11,-14,-16,-15,-11,-7,-2,3,13,18,14,5,-3,-13,-19,-23,-26,-30,-32,-30,-25,-21,-16,-13,-17,-26,-37,-49,-55,-58,-60,-61,-62,-64,-65,-66,-66,-66,-66,-66,-66,-65,-63,-61,-59,-57,-55,-52,-49,-40,-31,-22,-12,0,6,11,14,17,21,24,27,30,33,38,42,44,42,35,27,21,14,8,5,5,8,14,20,26,32,39,45,51,56,60,65,69,73,75,74,71,67,62,57,52,45,39,36,35,34,32,30,28,30,35,38,41,43,46,46,45,43,42,40,40,40,39,39,38,37,36,35,34,34,33,33,33,33,34,34,33,33,32,32,31,31,30,29,29,28,27,27,26,26,26,26,26,27,28,28,29,30,30,30,31,31,32,33,34,35,36,36,36,37,38,38,39,39,40,42,45,45,38,30,21,10,4,0,-2,-7,-10,-9,-5,-3,-1,0,2,4,4,4,4,4,3,2,0,-2,-4,-4,1,9,14,18,22,25,29,32,34,36,37,38,41,45,47,43,33,21,8,2,-1,-4,-6,-8,-9,-9,-8,-6,-4,-1,1,4,1,-6,-19,-40,-66,-91,-119,-136,-147,-145,-113,-52,20,93,135,149,156,159,157,153,146,133,112,72,38,29,23,19,15,12,9,6,3,1,0,-2,-4,-5,-7,-8,-10,-13,-16,-21,-24,-26,-24,-19,-14,-10,-7,-3,0,1,0,-3,-8,-14,-22,-33,-41,-46,-51,-55,-59,-61,-61,-60,-57,-55,-52,-48,-46,-46,-51,-59,-70,-83,-95,-103,-110,-115,-115,-109,-102,-99,-96,-94,-92,-90,-88,-86,-83,-81,-78,-75,-73,-71,-68,-64,-59,-52,-39,-25,-12,3,22,39,48,54,59,63,65,66,66,64,61,57,52,48,44,39,34,29,24,21,17,14,11,9,7,6,6,5,3,1,0,-2,-3,-3,-4,-3,-2,0,2,6,9,12,14,17,18,20,21,21,21,22,22,23,24,24,24,24,24,24,24,24,24,24,24,25,25,26,27,27,28,30,31,33,35,42,46,40,29,21,13,6,3,1,0,-1,-5,-7,-4,3,7,11,15,18,19,19,17,14,10,6,1,-5,-11,-16,-16,-12,-6,0,3,7,11,15,19,21,22,23,23,22,21,19,16,13,10,8,6,2,-2,-6,-6,-2,2,7,10,13,16,19,21,23,24,24,22,20,18,15,13,11,7,3,0,-2,-3,-3,-3,-2,-2,-1,0,2,4,5,6,7,7,7,5,3,0,-2,-7,-12,-21,-45,-75,-95,-107,-115,-101,-58,4,71,131,178,194,199,194,181,162,137,115,89,60,29,13,5,-1,-6,-10,-12,-15,-17,-19,-21,-23,-25,-26,-27,-29,-30,-31,-32,-31,-28,-24,-19,-13,-7,2,11,11,5,-4,-14,-26,-35,-42,-48,-54,-57,-50,-37,-30,-24,-19,-15,-12,-10,-10,-11,-13,-17,-21,-25,-30,-38,-51,-59,-63,-66,-68,-71,-73,-75,-76,-75,-72,-70,-67,-66,-65,-63,-61,-59,-57,-55,-54,-52,-50,-47,-44,-40,-36,-31,-26,-18,-1,11,22,26,29,32,35,37,40,42,43,44,44,45,45,44,43,42,40,39,38,37,37,36,36,35,34,33,32,30,29,28,27,26,26,27,28,30,31,33,34,36,37,38,40,41,41,42,45,50,53,53,50,44,36,23,5,-2,-8,-13,-18,-20,-20,-15,-8,-1,5,11,18,25,32,39,44,49,53,58,60,61,60,56,49,42,35,31,26,21,16,12,9,7,6,6,6,6,8,10,12,14,18,22,24,21,15,7,0,-5,-11,-19,-27,-35,-43,-50,-56,-63,-67,-69,-67,-62,-55,-46,-32,-12,-6,-2,0,3,5,8,10,12,15,19,22,25,27,29,32,36,40,43,44,44,43,40,37,34,31,27,22,17,12,8,4,0,-7,-21,-49,-72,-88,-95,-102,-109,-96,-54,4,74,138,178,192,196,190,174,151,116,81,44,22,11,3,-2,-7,-10,-13,-15,-17,-18,-20,-21,-22,-23,-22,-22,-20,-18,-15,-12,-10,-6,-2,0,0,-3,-10,-17,-23,-30,-37,-42,-42,-37,-28,-20,-13,-5,2,8,12,12,9,4,-1,-7,-15,-25,-36,-45,-52,-57,-60,-64,-67,-70,-73,-75,-76,-77,-78,-78,-77,-75,-73,-70,-68,-65,-62,-59,-55,-51,-47,-42,-36,-30,-23,-16,-10,-3,2,7,12,19,26,31,33,30,24,16,8,1,-6,-15,-22,-25,-23,-18,-11,-4,1,7,13,19,25,30,34,37,40,42,44,46,50,54,57,57,51,43,36,33,31,29,26,23,20,16,13,11,9,8,7,6,6,6,6,7,7,6,5,4,3,3,2,2,3,3,3,4,4,5,5,6,6,6,7,8,9,11,12,13,15,16,17,17,18,19,20,22,28,34,37,35,29,22,18,14,9,5,2,2,3,5,7,10,12,16,19,23,24,23,20,18,15,14,13,12,10,8,6,4,2,0,0,-2,-3,-3,-3,-2,-2,-1,-1,-1,-1,-2,-3,-4,-5,-6,-7,-7,-6,-4,-2,1,4,7,9,11,13,15,16,18,19,20,21,22,23,24,24,24,24,24,22,21,20,19,17,15,12,9,6,2,-1,-14,-45,-73,-105,-129,-144,-151,-146,-132,-91,-35,24,81,135,157,168,176,172,143,123,108,95,85,77,72,68,63,53,36,20,14,11,10,9,7,5,3,1,0,0,-1,-2,-3,-3,-3,-3,-4,-5,-7,-10,-12,-14,-17,-19,-21,-23,-24,-25,-26,-27,-27,-28,-29,-30,-31,-32,-34,-36,-38,-41,-43,-44,-46,-47,-48,-49,-49,-49,-49,-49,-50,-51,-53,-56,-58,-60,-63,-64,-64,-63,-59,-54,-49,-43,-38,-33,-28,-23,-17,-13,-9,-7,-4,-1,0,2,4,5,6,8,10,13,15,17,19,22,24,27,29,31,33,36,39,47,54,54,47,37,26,10,-2,-10,-16,-21,-23,-19,-9,0,5,9,14,17,21,24,27,29,31,33,35,36,36,36,35,35,34,33,32,31,30,30,29,29,29,29,29,29,28,27,26,26,25,25,24,23,22,22,21,20,20,19,19,20,21,21,22,21,21,20,19,18,18,17,16,15,14,14,14,15,14,13,12,12,11,11,10,10,10,10,11,12,13,14,14,14,14,14,13,13,12,11,12,12,12,8,3,1,0,0,-1,-2,-2,-3,-3,-4,-5,-6,-7,-8,-9,-9,-9,-9,-10,-10,-11,-11,-13,-18,-23,-23,-17,-7,5,20,27,31,35,38,40,37,30,23,19,17,15,13,11,9,7,5,4,1,0,-2,-3,-4,-5,-6,-8,-10,-13,-17,-22,-36,-65,-91,-108,-116,-122,-122,-108,-71,-21,40,104,159,188,199,199,183,140,96,50,22,11,12,26,44,58,49,21,-19,-56,-69,-73,-65,-51,-41,-31,-24,-18,-15,-12,-9,-6,-2,0,1,1,-1,-4,-7,-9,-11,-13,-15,-17,-19,-20,-20,-19,-18,-17,-16,-14,-12,-9,-7,-5,-5,-9,-16,-24,-32,-44,-54,-63,-69,-73,-76,-78,-80,-82,-84,-86,-88,-90,-91,-92,-93,-95,-97,-99,-103,-112,-111,-99,-85,-70,-60,-51,-43,-34,-25,-18,-12,-6,0,4,9,18,30,34,36,39,40,40,35,30,26,23,20,17,15,14,15,16,17,18,20,23,27,27,24,19,15,10,6,5,7,12,17,21,27,32,35,34,32,27,21,12,7,4,0,1,13,17,20,22,25,28,30,32,33,34,35,35,34,33,32,30,27,26,24,22,20,18,15,9,4,5,10,18,27,39,44,47,50,51,48,38,21,4,-3,-9,-12,-12,-6,0,3,6,9,12,14,15,16,17,17,16,15,13,10,7,4,1,-2,-6,-11,-14,-14,-12,-8,-3,2,13,22,35,47,52,56,55,46,38,30,21,12,-3,-22,-34,-42,-46,-42,-34,-29,-25,-22,-18,-15,-12,-10,-7,-3,0,9,32,51,63,68,65,56,47,36,26,12,0,-7,-13,-11,2,23,48,60,68,73,76,76,73,69,63,52,32,15,3,-6,-18,-35,-54,-73,-93,-113,-133,-150,-161,-168,-167,-157,-131,-95,-43,17,76,124,153,164,168,173,176,166,138,108,73,55,46,42,37,30,21,3,-13,-17,-18,-19,-20,-21,-21,-21,-21,-21,-21,-21,-21,-20,-20,-20,-20,-21,-22,-24,-25,-27,-28,-28,-29,-29,-29,-29,-29,-30,-30,-31,-33,-34,-36,-39,-41,-43,-45,-47,-49,-50,-51,-52,-52,-53,-54,-54,-56,-58,-60,-62,-65,-67,-68,-69,-69,-69,-68,-67,-65,-63,-61,-58,-56,-53,-50,-48,-45,-42,-38,-32,-24,-16,-9,-3,1,5,9,13,17,21,22,22,21,20,19,18,17,16,15,13,12,11,10,9,9,10,11,13,16,19,22,24,26,28,30,31,31,31,31,31,31,32,32,32,32,31,31,30,29,27,26,23,21,19,18,17,16,15,15,15,14,14,14,14,15,15,14,14,14,14,14,14,14,14,15,16,17,18,19,20,21,22,24,25,26,26,27,27,27,28,30,32,35,36,35,33,30,28,27,24,21,19,18,18,21,26,31,36,44,50,50,45,37,29,20,14,10,7,4,0,-1,-1,0,3,6,7,8,8,9,10,11,11,12,12,13,13,14,15,15,15,15,15,16,16,17,17,18,19,21,24,26,26,23,18,11,4,-6,-13,-18,-22,-27,-31,-30,-23,-12,1,20,30,38,45,49,45,35,24,10,1,-5,-11,-15,-11,-2,10,31,52,73,110,147,182,218,256,275,287,295,293,275,249,221,182,144,105,65,23,0,-11,-17,-21,-24,-27,-30,-33,-35,-38,-40,-43,-45,-47,-50,-52,-54,-56,-56,-54,-52,-49,-46,-43,-40,-37,-33,-29,-26,-25,-27,-30,-34,-38,-43,-47,-52,-56,-60,-63,-66,-68,-71,-74,-76,-79,-81,-84,-88,-92,-96,-101,-106,-112,-119,-129,-137,-142,-145,-149,-152,-156,-158,-156,-150,-143,-136,-130,-123,-117,-111,-104,-97,-88,-80,-73,-66,-52,-33,-14,3,20,40,53,60,65,68,68,63,57,51,45,39,34,30,29,31,35,41,46,51,58,64,68,70,72,73,74,76,77,77,70,61,48,32,20,12,5,0,0,2,7,11,15,19,22,22,19,15,11,7,3,0,-2,-2,0,6,11,14,16,18,20,23,25,28,30,33,35,37,38,38,38,38,38,38,38,39,39,42,45,47,46,41,36,29,19,13,10,7,3,1,4,11,13,14,16,18,19,20,21,22,23,23,24,24,23,22,22,21,21,20,20,19,19,20,21,22,23,24,24,25,25,26,26,25,24,23,22,21,20,18,17,15,14,12,10,6,1,-3,-6,-7,-5,-1,3,9,17,30,38,44,47,50,52,54,56,56,53,49,43,37,31,23,16,12,9,7,5,1,0,2,8,12,17,21,22,19,13,5,-9,-31,-42,-48,-52,-55,-55
