-100,-119,-144,-174,-189,-197,-204,-209,-212,-213,-214,-213,-211,-208,-204,-200,-194,-188,-183,-177,-170,-165,-161,-159,-157,-155,-155,-154,-153,-152,-152,-152,-152,-152,-152,-152,-151,-150,-149,-147,-145,-142,-138,-135,-132,-128,-124,-120,-114,-107,-100,-93,-87,-82,-76,-70,-64,-59,-55,-51,-47,-43,-40,-37,-35,-32,-29,-25,-18,-4,11,23,33,42,50,58,67,80,100,110,114,118,122,124,126,127,129,131,132,133,134,134,134,134,134,133,132,132,131,132,133,134,132,127,120,114,108,101,93,88,84,82,81,80,78,73,71,76,89,106,135,152,161,169,174,174,170,164,156,148,136,130,133,144,174,220,272,316,331,335,331,319,286,239,184,123,66,13,-4,-12,-17,0,20,39,58,76,93,105,113,120,127,130,126,116,106,100,94,89,84,79,73,69,67,65,65,64,65,66,67,67,66,62,59,57,57,58,60,63,45,25,11,7,6,3,0,-2,-4,-3,0,5,11,19,24,23,20,18,16,13,10,9,9,10,12,16,19,23,28,33,40,49,59,73,83,91,98,101,95,84,66,51,48,46,45,44,42,41,40,38,36,34,34,35,36,36,36,35,35,35,34,32,31,30,30,31,33,36,38,41,44,47,49,50,50,49,47,44,38,32,25,20,14,8,3,0,0,1,5,10,15,19,23,30,37,42,45,43,38,33,29,26,23,19,14,9,5,0,-4,-10,-15,-20,-25,-31,-37,-45,-52,-58,-62,-65,-67,-69,-71,-73,-75,-75,-76,-77,-78,-78,-75,-69,-61,-53,-46,-40,-36,-31,-27,-23,-19,-15,-10,-6,-2,1,3,5,6,7,9,10,11,12,14,17,20,24,27,29,29,28,25,22,19,14,10,6,3,0,-1,-3,-5,-8,-11,-15,-19,-24,-28,-32,-36,-39,-41,-43,-46,-49,-53,-57,-61,-65,-67,-69,-71,-73,-75,-75,-76,-76,-77,-82,-81,-63,-16,45,108,165,218,239,253,252,218,166,99,15,-76,-135,-155,-162,-157,-143,-119,-88,-66,-49,-35,-22,-10,-7,-9,-10,-11,-12,-13,-13,-12,-11,-10,-9,-8,-5,-1,1,3,2,-2,-10,-19,-28,-37,-48,-57,-66,-75,-87,-93,-87,-75,-68,-62,-57,-53,-51,-51,-51,-51,-52,-54,-56,-57,-60,-62,-64,-66,-65,-59,-51,-42,-33,-24,-15,-7,0,5,10,14,18,24,30,33,34,35,37,41,44,37,23,14,7,2,-2,-6,-11,-17,-21,-26,-30,-34,-39,-44,-49,-53,-58,-63,-68,-73,-77,-81,-85,-89,-94,-98,-99,-98,-95,-91,-88,-85,-83,-80,-77,-74,-71,-68,-65,-62,-59,-57,-54,-52,-50,-48,-45,-43,-40,-37,-33,-30,-29,-31,-35,-41,-46,-51,-57,-63,-68,-71,-70,-65,-58,-51,-44,-37,-28,-20,-14,-9,-3,4,18,34,56,84,111,142,177,209,241,265,277,284,289,290,288,282,275,269,264,259,251,238,220,185,146,131,123,118,115,114,116,121,128,136,143,151,159,166,170,172,172,172,172,173,174,176,177,170,157,147,138,130,127,129,135,141,148,159,165,160,149,132,106,91,82,76,76,84,94,102,113,120,120,112,100,86,67,59,56,53,51,49,46,43,39,36,33,29,24,15,1,-6,-13,-21,-20,-2,47,106,171,235,284,300,289,255,167,46,-78,-177,-215,-227,-208,-177,-148,-131,-117,-103,-84,-55,-34,-21,-13,-10,-11,-13,-14,-14,-14,-14,-13,-13,-14,-16,-16,-17,-17,-16,-16,-15,-14,-14,-14,-15,-15,-17,-18,-20,-22,-23,-24,-23,-24,-25,-26,-26,-26,-27,-28,-28,-29,-29,-29,-28,-28,-27,-25,-24,-21,-19,-17,-15,-14,-13,-11,-10,-9,-8,-8,-6,-5,-4,-2,0,0,2,3,5,6,7,7,7,7,7,6,5,4,3,2,1,0,0,-3,-5,-8,-11,-21,-43,-54,-60,-64,-67,-70,-72,-75,-78,-80,-82,-84,-87,-91,-95,-96,-95,-91,-86,-75,-57,-46,-41,-37,-35,-34,-34,-36,-39,-45,-51,-60,-72,-78,-83,-86,-88,-90,-91,-92,-90,-86,-80,-74,-64,-49,-44,-39,-35,-32,-33,-40,-53,-75,-92,-97,-101,-103,-99,-90,-81,-71,-64,-59,-53,-47,-60,-74,-87,-87,-74,-41,-5,34,75,121,167,210,236,252,261,267,269,266,261,255,249,240,234,230,228,226,224,223,221,218,214,209,204,195,195,206,221,242,257,267,270,265,252,234,209,189,174,164,154,144,130,117,107,97,87,78,68,62,59,56,54,51,44,36,32,29,27,25,24,23,23,22,21,19,17,16,16,17,17,18,18,19,19,19,18,16,12,25,65,133,219,299,337,335,285,176,45,-72,-151,-165,-170,-171,-170,-168,-165,-157,-136,-96,-57,-34,-26,-26,-37,-56,-75,-89,-98,-103,-106,-105,-93,-79,-66,-59,-54,-49,-47,-47,-51,-56,-62,-69,-70,-67,-64,-61,-59,-61,-65,-69,-73,-77,-80,-82,-85,-90,-81,-75,-71,-68,-65,-61,-58,-55,-51,-47,-42,-37,-31,-25,-20,-17,-15,-13,-11,-10,-9,-8,-7,-5,-3,-2,0,0,1,1,3,4,6,9,15,18,19,20,21,21,15,8,0,-10,-19,-26,-31,-31,-28,-24,-21,-16,-13,-15,-21,-30,-41,-50,-61,-74,-83,-88,-92,-92,-86,-81,-77,-74,-74,-77,-82,-85,-88,-91,-93,-93,-91,-88,-84,-76,-60,-41,-35,-34,-33,-32,-32,-34,-37,-39,-42,-45,-44,-40,-34,-31,-27,-24,-21,-20,-21,-23,-26,-29,-36,-49,-56,-61,-65,-66,-64,-59,-54,-49,-44,-40,-37,-36,-35,-34,-32,-30,-33,-37,-40,-39,-28,-19,-11,-5,-3,-2,0,2,3,0,-7,-14,-22,-26,-24,-18,-7,5,13,19,23,27,31,35,36,34,32,29,34,39,42,44,47,52,56,60,64,68,71,71,69,65,59,50,34,23,15,10,7,4,2,0,-3,-7,-16,-23,-26,-28,-20,-12,-5,0,5,12,19,19,14,0,-24,-36,-43,-47,-50,-49,-44,-33,-3,45,103,168,240,313,371,388,378,313,197,55,-72,-164,-200,-205,-187,-154,-120,-90,-60,-48,-45,-43,-41,-39,-36,-32,-28,-25,-22,-19,-16,-16,-17,-19,-23,-27,-34,-47,-55,-61,-63,-60,-52,-39,-23,-2,21,53,74,81,86,91,95,100,106,108,106,101,88,66,55,45,34,25,20,17,18,21,26,29,32,35,38,40,43,45,48,52,58,65,72,78,83,87,91,93,96,106,128,150,156,160,163,164,164,162,158,153,146,133,112,99,89,74,59,44,35,14,-14,-27,-32,-34,-36,-37,-38,-38,-36,-33,-29,-26,-22,-17,-12,-10,-11,-15,-20,-26,-33,-40,-48,-58,-69,-72,-76,-78,-73,-69,-67,-65,-64,-64,-66,-70,-75,-84,-100,-116,-126,-131,-133,-136,-138,-139,-137,-132,-126,-122,-117,-113,-110,-111,-113,-115,-117,-119,-121,-122,-120,-115,-109,-99,-82,-74,-69,-65,-62,-61,-63,-68,-74,-81,-88,-98,-107,-113,-117,-121,-126,-132,-138,-146,-151,-154,-157,-159,-160,-159,-156,-152,-146,-138,-126,-114,-101,-89,-80,-68,-52,-33,-21,-16,-14,-12,-11,-12,-17,-22,-29,-39,-50,-60,-71,-80,-89,-99,-110,-121,-131,-143,-150,-155,-159,-162,-164,-164,-162,-157,-151,-144,-129,-104,-89,-79,-70,-62,-58,-55,-51,-48,-46,-44,-44,-45,-46,-48,-50,-52,-59,-60,-40,-5,45,116,195,266,306,305,257,141,-10,-157,-278,-346,-356,-338,-304,-267,-211,-157,-131,-123,-134,-149,-159,-153,-134,-98,-58,-25,4,22,39,54,66,75,85,91,96,100,102,101,99,94,89,81,71,63,59,55,52,50,52,56,62,72,90,102,110,115,118,120,123,126,128,132,136,142,152,170,190,210,221,226,230,233,235,235,234,232,229,225,221,216,210,203,196,189,183,178,173,170,169,170,171,173,175,177,179,173,162,153,145,138,134,133,132,130,128,140,147,152,155,158,161,162,163,162,161,160,158,156,152,147,137,122,111,105,100,96,92,88,86,83,81,76,67,60,53,48,49,61,73,83,91,98,103,109,113,113,107,101,97,94,92,89,86,83,80,78,75,72,69,66,64,63,60,57,54,50,47,44,40,36,32,28,24,20,15,9,3,0,-3,-5,-7,-9,-11,-13,-14,-15,-16,-16,-16,-16,-16,-15,-13,-11,-10,-7,-5,-2,0,2,5,9,15,21,27,32,36,42,55,78,95,106,108,108,107,108,108,108,102,94,87,81,75,70,65,61,55,48,41,31,25,20,16,13,11,10,8,6,5,3,1,0,-2,-4,-7,-10,-13,-16,-20,-24,-30,-39,-45,-47,-49,-51,-55,-55,-45,-19,16,61,110,154,182,192,180,143,63,-33,-128,-206,-246,-260,-260,-250,-224,-191,-159,-120,-97,-79,-68,-62,-59,-56,-53,-51,-51,-56,-61,-63,-65,-68,-70,-72,-74,-74,-75,-76,-76,-76,-75,-74,-72,-71,-70,-69,-69,-68,-66,-65,-65,-67,-72,-77,-82,-86,-91,-96,-100,-103,-103,-100,-97,-93,-88,-78,-58,-41,-30,-23,-18,-16,-14,-12,-11,-10,-9,-9,-9,-9,-9,-10,-10,-12,-13,-14,-15,-17,-19,-21,-23,-26,-29,-33,-37,-41,-46,-49,-52,-54,-57,-60,-63,-65,-69,-72,-74,-76,-76,-75,-73,-71,-69,-66,-63,-59,-54,-49,-45,-40,-32,-23,-15,-7,0,4,9,14,19,23,25,26,24,21,16,10,3,-7,-25,-33,-37,-41,-45,-46,-43,-36,-27,-15,2,10,14,18,21,24,25,23,21,20,19,18,17,15,13,12,11,11,12,12,14,15,17,19,22,24,26,27,28,29,30,30,29,25,19,13,7,3,0,-4,-7,-10,-14,-18,-21,-23,-25,-26,-28,-28,-29,-29,-30,-31,-34,-40,-44,-39,-26,-13,2,16,30,44,55,62,69,74,74,68,60,53,47,40,32,24,13,-7,-36,-54,-65,-74,-83,-92,-103,-101,-85,-70,-56,-44,-36,-31,-27,-23,-19,-16,-15,-14,-14,-15,-16,-16,-17,-17,-18,-19,-20,-21,-20,-19,-15,-10,-3,21,74,154,242,320,349,343,279,162,15,-126,-229,-269,-282,-266,-240,-212,-192,-181,-172,-165,-140,-99,-57,-41,-35,-40,-50,-57,-62,-66,-70,-74,-77,-80,-83,-86,-89,-93,-98,-104,-110,-111,-108,-103,-99,-97,-96,-94,-91,-88,-86,-84,-82,-81,-79,-77,-74,-72,-70,-68,-65,-60,-55,-49,-44,-39,-34,-28,-20,-13,-4,2,7,11,16,20,24,27,28,28,27,25,21,18,13,8,2,-3,-15,-23,-24,-25,-27,-30,-32,-32,-25,-16,-11,-7,-3,0,4,8,11,12,13,12,9,6,2,-1,-7,-12,-17,-21,-27,-33,-39,-43,-47,-51,-54,-57,-60,-63,-66,-68,-69,-70,-68,-66,-64,-62,-58,-51,-28,22,94,171,233,253,236,182,81,-32,-131,-188,-207,-190,-161,-133,-93,-48,0,16,19,21,24,23,15,9,5,0,-6,-16,-25,-32,-38,-44,-49,-53,-56,-59,-61,-63,-65,-68,-70,-72,-76,-85,-83,-66,-53,-43,-34,-26,-17,-8,0,12,23,34,44,54,64,73,80,86,90,94,96,99,100,101,102,101,99,97,94,91,88,84,81,76,72,68,64,60,55,50,44,35,27,24,28,35,45,62,87,99,107,113,115,113,107,100,96,92,89,85,81,76,70,65,61,57,53,49,45,41,38,35,31,26,18,4,-14,-32,-48,-53,-55,-57,-59,-59,-55,-45,-31,-8,6,15,23,30,36,42,50,54,51,46,43,40,37,34,29,23,16,9,0,-7,-11,-15,-18,-21,-24,-28,-33,-40,-49,-66,-94,-115,-128,-134,-129,-117,-99,-74,-46,-27,-20,-16,-13,-12,-10,-7,-5,-4,-3,-1,0,1,4,9,13,6,-7,-15,-23,-29,-34,-39,-43,-46,-50,-54,-58,-61,-64,-67,-69,-71,-72,-74,-74,-74,-73,-71,-69,-66,-63,-59,-55,-48,-41,-33,-26,-20,-15,-10,-6,-3,-4,-7,-13,-19,-25,-30,-35,-41,-48,-53,-58,-61,-65,-68,-72,-76,-82,-87,-89,-86,-81,-76,-73,-69,-66,-63,-61,-60,-59,-58,-57,-56,-54,-54,-54,-53,-52,-50,-48,-46,-44,-41,-37,-33,-27,-20,-13,-6,1,6,5,4,3,2,0,0,-1,-2,-3,-4,-6,-8,-9,-11,-12,-14,-18,-22,-24,-23,-18,-13,-10,-7,-4,-1,1,5,8,12,17,24,37,44,48,52,55,55,54,51,48,44,45,58,93,138,192,248,283,296,277,219,102,-36,-155,-216,-222,-194,-145,-104,-89,-88,-95,-104,-111,-96,-70,-43,-19,7,23,30,35,39,42,45,47,48,50,51,53,55,60,62,57,48,43,38,34,30,29,30,35,40,46,51,58,65,68,68,64,59,49,34,23,17,14,17,24,30,36,42,50,58,64,69,74,79,82,85,88,91,96,100,100,96,89,78,62,54,49,46,44,45,50,57,67,79,81,82,83,82,74,69,66,62,60,57,54,52,49,46,44,42,40,38,36,34,32,31,29,27,24,17,0,-12,-19,-24,-28,-32,-37,-44,-54,-62,-68,-73,-76,-79,-81,-83,-84,-86,-87,-87,-87,-87,-87,-87,-86,-84,-82,-80,-78,-77,-76,-74,-71,-68,-67,-69,-72,-77,-84,-99,-110,-111,-113,-113,-113,-112,-109,-103,-85,-51,-14,27,64,97,106,109,100,49,-27,-114,-188,-223,-234,-226,-211,-195,-168,-133,-90,-51,-8,32,48,47,37,31,37,43,48,47,39,33,27,20,11,6,1,-2,-5,-5,-3,0,4,13,30,40,46,51,54,55,54,52,48,43,32,22,20,17,18,19,20,22,23,25,27,29,32,36,40,46,51,54,57,59,62,63,64,63,60,55,52,49,47,45,43,41,40,38,36,35,33,31,29,27,26,26,25,24,23,22,20,19,18,17,15,13,12,10,9,7,6,5,4,2,0,0,-2,-5,-7,-10,-12,-13,-15,-16,-17,-19,-21,-22,-17,-7,-1,4,9,13,14,15,16,17,18,19,20,20,21,22,23,25,27,29,31,35,43,52,62,72,79,84,88,90,87,81,71,56,41,25,11,1,-7,-11,-15,-18,-20,-22,-22,-22,-22,-23,-23,-22,-21,-19,-17,-16,-16,-15,-14,-12,-10,-8,-7,-6,-4,-2,0,2,3,6,12,12,2,-5,-14,-22,-29,-41,-52,-56,-58,-60,-64,-69,-77,-92,-106,-111,-115,-115,-107,-99,-90,-79,-65,-47,-16,-1,2,6,9,11,13,15,18,21,25,29,34,38,43,47,53,59,66,71,75,79,83,87,89,89,87,84,80,75,65,45,29,19,13,9,7,5,4,2,1,1,1,2,3,5,7,9,11,13,17,19,21,21,20,19,17,14,11,22,32,40,44,45,43,41,36,38,61,90,127,180,241,291,298,285,208,98,-13,-101,-136,-147,-135,-98,-82,-78,-75,-71,-65,-47,-4,14,21,9,-3,-15,-17,-12,3,27,37,36,26,14,3,-1,-3,-5,-5,-6,-6,-8,-11,-13,-16,-17,-18,-19,-20,-21,-22,-22,-22,-22,-22,-22,-21,-19,-16,-14,-12,-9,-7,-5,-2,1,4,7,10,13,16,17,18,20,22,26,34,43,52,59,59,50,45,42,38,36,35,35,37,41,44,51,59,61,63,66,53,32,9,-3,-12,-19,-27,-35,-39,-44,-49,-52,-53,-54,-53,-51,-48,-45,-42,-35,-24,-17,-13,-10,-7,-6,-6,-6,-5,-5,-5,-5,-6,-6,-7,-7,-7,-7,-7,-6,-5,-4,-3,-1,0,2,5,7,4,-1,-6,-11,-15,-14,-9,-1,6,19,32,52,75,92,104,104,95,83,68,60,57,54,50,44,39,33,28,22,15,8,-2,-11,-17,-22,-26,-30,-33,-36,-39,-41,-44,-46,-49,-50,-50,-51,-51,-53,-56,-62,-65,-59,-46,-37,-27,-18,-14,-11,-4,9,19,24,28,32,34,35,35,35,36,38,21,4,-6,-17,-28,-36,-43,-49,-56,-62,-68,-72,-76,-80,-85,-90,-96,-104,-111,-118,-125,-132,-134,-136,-137,-139,-140,-141,-136,-126,-119,-115,-111,-107,-103,-99,-96,-92,-88,-82,-69,-45,-3,48,110,184,265,333,343,326,238,105,-25,-117,-169,-183,-186,-188,-174,-161,-153,-146,-139,-132,-123,-113,-107,-103,-98,-93,-94,-104,-112,-119,-123,-123,-119,-112,-103,-92,-80,-71,-64,-57,-49,-42,-37,-33,-29,-26,-24,-23,-22,-22,-22,-24,-26,-30,-33,-37,-40,-43,-45,-49,-52,-56,-60,-63,-65,-66,-68,-69,-69,-68,-66,-65,-62,-60,-57,-54,-48,-39,-28,-11,13,30,40,49,55,61,68,77,83,87,91,93,94,89,78,66,55,43,32,24,18,13,9,6,3,0,-6,-12,-19,-27,-38,-54,-55,-48,-43,-40,-37,-35,-33,-30,-28,-26,-24,-21,-18,-10,5,13,17,21,24,25,24,22,19,16,15,13,12,10,8,7,6,5,5,5,7,9,11,14,16,18,20,22,24,26,27,28,29,30,32,34,35,36,36,37,37,37,37,35,34,32,30,28,26,24,21,18,14,10,0,-12,-26,-36,-44,-50,-55,-59,-63,-66,-69,-72,-75,-80,-84,-87,-88,-87,-82,-76,-69,-62,-54,-45,-40,-34,-13,25,82,153,224,270,270,226,122,2,-104,-171,-193,-204,-205,-198,-187,-169,-139,-122,-115,-109,-105,-100,-96,-91,-87,-84,-81,-80,-78,-78,-77,-76,-76,-75,-73,-72,-70,-68,-66,-64,-62,-59,-57,-54,-50,-46,-40,-26,-14,-2,4,10,16,20,23,26,28,28,28,25,23,20,17,14,10,5,-5,-16,-26,-34,-41,-47,-49,-45,-38,-29,-16,0,18,34,45,51,55,59,62,63,65,66,68,69,71,72,72,74,79,82,77,66,55,43,34,26,22,19,16,13,10,6,2,0,-4,-9,-19,-36,-50,-59,-65,-71,-77,-83,-90,-98,-109,-111,-112,-113,-115,-114,-100,-84,-67,-49,-39,-33,-29,-24,-19,-14,-10,-7,-5,-2,0,2,4,7,9,11,13,15,16,16,16,14,11,8,5,2,-2,-6,-11,-20,-28,-32,-35,-38,-43,-46,-45,-37,-26,-17,-7,1,6,9,12,16,21,23,18,8,2,-2,-7,-12,-15,-18,-20,-22,-24,-26,-28,-29,-31,-32,-34,-36,-39,-41,-43,-44,-45,-47,-49,-52,-54,-57,-63,-65,-62,-57,-51,-44,-44,-49,-53,-56,-59,-59,-54,-47,-39,-27,-16,-8,-1,3,3,0,-3,-6,-9,-12,-15,-16,-17,-16,-14,-11,-5,0,8,20,32,44,52,58,63,66,69,69,70,70,70,69,69,69,70,65,56,48,40,32,24,14,-3,-26,-39,-47,-51,-52,-53,-55,-58,-46,-39,-35,-31,-28,-26,-24,-24,-23,-23,-22,-22,-23,-25,-27,-29,-32,-34,-37,-42,-45,-41,-26,12,71,149,237,324,370,369,319,215,87,-35,-132,-178,-176,-140,-126,-124,-123,-120,-108,-91,-60,-40,-31,-24,-19,-16,-14,-14,-13,-12,-11,-11,-11,-12,-13,-15,-17,-20,-23,-24,-21,-18,-17,-16,-15,-14,-12,-10,-8,-6,-4,-3,-1,0,0,1,2,2,3,4,4,5,7,8,10,11,12,13,13,14,14,14,15,15,15,16,17,18,19,20,21,23,26,28,31,34,37,43,57,71,85,94,103,110,116,117,112,104,94,85,75,65,58,51,45,40,36,32,28,25,22,19,16,13,11,7,4,0,-5,-9,-9,-4,2,10,15,20,25,29,34,39,44,49,54,59,64,70,76,83,91,97,101,103,106,107,108,109,110,111,111,112,113,113,114,114,114,113,112,109,106,103,100,97,95,92,89,86,83,81,78,74,71,69,69,70,72,74,76,78,79,81,83,85,87,89,90,91,91,91,90,90,89,89,90,90,90,90,88,87,85,83,80,77,74,71,68,64,60,54,39,28,22,14,5,6,22,45,75,101,117,122,124,126,127,129,130,131,130,129,128,125,121,115,108,100,89,67,50,43,39,36,33,31,28,26,23,20,19,18,18,17,18,18,17,17,15,14,11,8,6,5,4,3,3,4,7,12,18,25,32,47,79,132,194,269,351,407,425,398,314,173,33,-72,-100,-109,-93,-77,-64,-55,-47,-42,-36,-31,-30,-33,-41,-53,-76,-103,-111,-114,-118,-121,-124,-126,-126,-127,-125,-123,-119,-114,-109,-104,-99,-94,-88,-81,-75,-71,-70,-72,-75,-78,-80,-82,-83,-85,-88,-91,-94,-98,-101,-104,-108,-113,-119,-131,-148,-150,-151,-152,-154,-156,-157,-158,-157,-155,-152,-148,-144,-137,-127,-114,-98,-80,-59,-44,-30,-19,-6,7,17,25,32,37,39,38,33,26,18,6,-11,-22,-28,-33,-36,-39,-43,-46,-51,-55,-62,-74,-94,-105,-111,-115,-117,-113,-103,-93,-86,-81,-77,-72,-68,-64,-60,-57,-55,-53,-51,-49,-45,-40,-29,-13,10,35,71,109,151,198,220,240,240,202,113,-2,-116,-186,-208,-201,-179,-136,-111,-96,-88,-82,-76,-69,-64,-58,-54,-50,-48,-45,-42,-39,-35,-31,-27,-23,-18,-12,-2,6,16,24,30,37,44,49,52,51,46,40,34,29,26,22,17,12,7,2,-2,-7,-12,-18,-25,-35,-45,-51,-54,-58,-62,-65,-68,-72,-77,-82,-89,-97,-109,-108,-94,-79,-62,-46,-25,0,43,85,113,137,154,158,159,160,154,126,95,68,61,57,53,49,46,44,40,35,15,-24,-80,-140,-189,-210,-217,-203,-162,-112,-72,-36,-22,-17,-13,-11,-10,-11,-13,-15,-18,-20,-20,-15,-6,4,17,19,22,24,11,2,-2,-5,-8,-11,-14,-17,-19,-21,-24,-27,-32,-39,-47,-58,-69,-79,-87,-93,-102,-120,-134,-144,-148,-144,-134,-124,-113,-106,-101,-95,-89,-90,-100,-109,-116,-120,-117,-109,-87,-50,5,86,183,278,354,375,366,295,184,53,-60,-146,-188,-202,-196,-177,-152,-138,-129,-125,-120,-117,-112,-96,-69,-51,-41,-35,-31,-29,-30,-32,-35,-37,-39,-41,-43,-45,-46,-46,-45,-44,-41,-32,-4,20,32,38,42,44,44,42,38,26,4,-14,-21,-24,-21,-15,-11,-9,-6,-4,-2,0,3,6,9,12,14,17,19,20,21,23,24,24,26,27,28,29,31,33,36,40,45,54,62,71,84,99,111,121,127,119,106,91,73,59,50,42,28,20,15,11,8,5,3,0,-1,-2,-4,-5,-7,-8,-8,-8,-7,-5,-2,0,1,3,7,10,13,14,14,12,10,9,7,3,4,13,38,64,72,77,81,86,95,103,108,103,86,65,58,57,57,58,59,58,55,53,52,51,49,46,43,39,36,32,29,27,25,24,23,22,21,19,18,17,16,16,18,21,24,28,31,35,40,44,49,52,56,61,63,60,56,53,49,45,41,36,28,19,15,12,11,9,7,4,2,0,-1,-3,-4,-5,-6,-6,-6,-5,-5,-4,-2,0,1,3,6,13,18,21,22,24,25,26,27,28,30,31,33,37,50,69,76,75,68,63,58,54,51,49,45,41,42,52,58,63,67,70,72,72,71,70,68,65,54,29,16,5,-8,-24,-38,-47,-53,-56,-56,-52,-46,-40,-33,-30,-28,-25,-27,-32,-33,-35,-35,-36,-37,-38,-39,-41,-44,-47,-54,-62,-67,-63,-37,11,76,157,240,301,323,301,215,78,-59,-167,-228,-236,-214,-180,-165,-157,-144,-128,-108,-85,-64,-45,-33,-25,-30,-42,-48,-51,-55,-58,-61,-63,-65,-67,-68,-70,-72,-73,-75,-77,-79,-81,-83,-86,-89,-93,-101,-105,-105,-105,-105,-105,-95,-83,-72,-65,-59,-53,-49,-46,-42,-38,-38,-40,-45,-41,-23,-5,7,16,23,29,38,50,54,55,57,59,60,61,62,63,63,64,65,66,67,68,69,72,74,71,64,54,39,26,12,-1,-12,-16,-19,-21,-23,-23,-20,-15,-10,-6,-2,1,4,8,11,14,17,20,24,32,43,45,47,48,48,45,37,26,9,-9,-27,-37,-43,-47,-50,-52,-51,-49,-45,-41,-35,-23,-2,31,76,134,197,243,258,240,186,89,-13,-98,-141,-156,-146,-117,-86,-50,-4,40,55,60,43,27,14,9,10,14,19,23,22,12,-1,-20,-39,-61,-76,-84,-89,-91,-90,-86,-80,-69,-49,-37,-30,-25,-22,-22,-23,-26,-29,-30,-32,-35,-37,-37,-36,-33,-28,-23,-18,-9,-3,0,4,6,9,10,11,10,9,6,2,0,-5,-10,-16,-22,-27,-31,-35,-38,-40,-42,-44,-47,-50,-53,-55,-57,-59,-62,-63,-63,-61,-57,-52,-49,-46,-43,-39,-36,-33,-31,-30,-31,-33,-35,-36,-39,-43,-51,-40,-29,-22,-15,-9,-3,1,7,10,4,-4,-10,-15,-20,-23,-27,-29,-31,-32,-34,-36,-38,-40,-41,-41,-42,-43,-44,-46,-47,-47,-48,-51,-54,-49,-38,-21,0,17,36,58,66,66,66,67,68,68,67,64,61,57,53,50,46,41,36,30,25,18,13,13,16,20,24,29,29,20,14,9,5,3,2,1,1,1,0,0,-1,-1,0,1,4,6,10,15,25,34,42,48,51,44,31,21,11,4,1,0,0,-2,-5,5,15,22,26,25,21,14,9,5,1,-4,-10,-17,-21,-24,-27,-30,-33,-36,-38,-40,-41,-42,-44,-45,-47,-48,-50,-55,-57,-52,-43,-34,-24,-15,-7,5,22,33,41,44,41,34,26,18,9,0,-7,-15,-20,-17,-11,-9,-7,-5,-3,-1,0,1,3,5,7,10,12,13,14,15,16,18,19,20,20,21,22,23,24,25,26,27,28,29,31,33,34,35,36,37,39,41,43,46,50,53,53,51,45,38,25,1,-11,-17,-21,-26,-29,-32,-35,-37,-38,-40,-43,-51,-61,-66,-69,-68,-54,-15,37,104,180,256,309,313,281,192,77,-41,-140,-181,-194,-178,-160,-146,-139,-137,-125,-93,-49,-6,16,24,15,0,-16,-25,-30,-32,-35,-39,-43,-48,-54,-64,-77,-89,-96,-101,-104,-107,-108,-108,-107,-105,-102,-98,-92,-81,-71,-62,-53,-44,-39,-36,-34,-32,-30,-28,-26,-23,-21,-18,-16,-14,-11,-7,0,6,7,8,10,12,-5,-17,-24,-31,-35,-39,-40,-41,-41,-40,-38,-35,-29,-33,-48,-55,-58,-57,-50,-41,-32,-21,-14,-9,-6,-4,-2,0,1,2,3,2,0,-2,-6,-10,-14,-20,-31,-43,-54,-63,-72,-78,-78,-77,-75,-74,-72,-69,-67,-68,-71,-77,-81,-84,-87,-90,-94,-97,-99,-98,-94,-89,-83,-78,-72,-64,-56,-47,-37,-30,-25,-21,-18,-13,-9,-5,-2,0,0,1,2,4,5,6,7,8,10,12,14,15,13,9,4,-1,-11,-25,-27,-29,-30,-31,-31,-31,-31,-29,-27,-23,-18,-14,-9,-4,0,5,9,12,16,19,23,26,28,30,31,31,31,32,34,35,36,38,39,40,42,44,47,49,50,51,54,58,61,63,63,61,59,57,55,54,49,44,44,50,58,66,76,80,81,81,82,84,86,88,89,89,88,88,88,87,86,83,81,79,78,78,78,77,77,78,78,79,80,80,79,78,77,76,75,75,74,74,74,73,73,73,72,71,68,62,53,61,86,135,206,291,373,434,439,402,292,152,22,-69,-104,-116,-104,-66,-22,20,57,100,115,119,121,123,124,125,123,119,114,108,97,90,85,79,75,75,79,85,90,95,100,102,101,93,83,73,67,62,57,51,45,41,38,36,35,35,36,37,40,43,47,51,53,56,60,64,68,72,77,81,86,90,95,99,103,107,110,113,116,119,122,124,126,128,130,131,133,135,136,137,137,137,137,136,134,132,129,126,123,121,119,116,112,108,105,103,102,101,100,98,97,95,94,93,92,89,85,81,76,70,63,48,25,4,-20,-34,-39,-43,-47,-50,-54,-59,-63,-66,-68,-70,-73,-77,-84,-99,-111,-119,-124,-130,-133,-135,-133,-128,-121,-110,-95,-85,-81,-78,-75,-73,-70,-69,-68,-68,-68,-67,-67,-66,-66,-66,-65,-65,-62,-57,-59,-62,-64,-66,-67,-67,-67,-66,-64,-63,-62,-59,-53,-53,-64,-73,-81,-88,-93,-97,-100,-102,-105,-108,-110,-112,-113,-112,-112,-111,-109,-107,-103,-98,-94,-90,-87,-83,-78,-71,-67,-67,-73,-82,-91,-97,-102,-107,-112,-116,-120,-122,-123,-123,-121,-120,-117,-114,-109,-89,-45,16,91,166,213,229,208,146,33,-93,-198,-229,-240,-239,-226,-211,-195,-179,-158,-124,-81,-56,-50,-46,-44,-41,-39,-37,-34,-31,-27,-24,-20,-17,-13,-9,-4,0,1,0,-1,-6,-11,-20,-34,-47,-56,-65,-71,-72,-64,-55,-49,-44,-40,-36,-33,-29,-25,-21,-18,-15,-12,-8,-2,11,29,40,47,51,56,61,66,72,78,83,89,95,101,106,108,109,110,110,110,110,111,112,113,113,113,111,108,105,101,97,91,81,70,57,43,29,17,7,0,-6,-10,-14,-16,-17,-18,-18,-18,-18,-19,-20,-22,-23,-18,-9,-4,0,3,6,8,9,9,7,5,2,0,0,-2,-4,-6,-8,-11,-13,-17,-19,-22,-25,-27,-29,-32,-34,-38,-45,-52,-55,-53,-47,-40,-34,-28,-21,-16,-13,-10,-8,-5,-1,3,11,20,26,32,37,41,43,42,38,33,27,24,21,17,13,9,4,0,-2,-6,-10,-16,-22,-28,-34,-39,-45,-60,-83,-102,-114,-116,-117,-118,-116,-106,-99,-94,-89,-82,-74,-64,-52,-37,-36,-51,-65,-80,-81,-71,-61,-51,-46,-48,-52,-55,-57,-58,-59,-59,-59,-58,-59,-60,-60,-60,-60,-60,-60,-58,-57,-56,-55,-53,-66,-88,-111,-124,-131,-136,-138,-137,-132,-126,-119,-107,-90,-81,-76,-72,-68,-64,-60,-57,-55,-51,-48,-44,-40,-35,-25,-16,-8,0,6,11,12,8,0,-8,-16,-26,-35,-40,-44,-47,-49,-51,-54,-57,-62,-67,-74,-88,-103,-108,-111,-113,-113,-109,-103,-94,-80,-54,-36,-25,-18,-15,-13,-12,-11,-10,-9,-7,-6,-4,0,4,22,61,118,192,274,342,351,328,221,75,-68,-179,-227,-229,-193,-133,-94,-84,-79,-75,-72,-70,-67,-65,-63,-60,-59,-57,-55,-53,-49,-45,-39,-30,-14,14,36,51,64,73,80,86,89,88,84,79,75,71,67,64,63,63,64,66,67,70,72,73,72,71,70,68,65,62,62,63,63,62,63,63,64,64,66,69,72,75,79,83,88,93,105,117,128,135,141,146,151,154,156,157,158,158,158,158,158,164,174,178,182,183,184,183,181,178,173,165,148,133,122,113,102,86,53,28,14,3,-4,-14,-22,-29,-32,-31,-28,-26,-24,-23,-23,-22,-21,-19,-17,-15,-12,-8,-4,0,8,17,27,57,104,164,229,284,301,293,233,116,-19,-127,-173,-177,-151,-93,-25,30,56,66,66,57,45,28,-3,-39,-71,-89,-95,-99,-100,-97,-93,-90,-89,-87,-85,-82,-79,-74,-68,-62,-54,-42,-33,-26,-20,-13,-10,-8,-7,-5,-3,-2,-1,0,0,2,6,9,12,15,18,22,27,32,34,34,33,32,30,27,16,-9,-22,-31,-37,-42,-47,-54,-61,-53,-40,-24,-14,-10,-6,-4,-2,-1,0,0,1,2,5,13,20,25,17,4,-6,-12,-15,-18,-18,-17,-13,-7,2,13,21,25,19,11,6,10,18,18,0,-26,-54,-74,-83,-93,-119,-143,-167,-181,-179,-151,-129,-120,-112,-101,-85,-69,-58,-52,-48,-45,-43,-40,-36,-31,-24,-15,-10,-7,-4,-2,-5,-12,-18,-25,-25,-16,9,59,124,198,271,322,323,282,172,32,-106,-208,-249,-228,-174,-118,-97,-100,-117,-127,-127,-118,-110,-101,-100,-103,-109,-109,-93,-68,-40,-15,-2,7,13,19,23,26,30,31,31,29,25,15,-8,-17,-21,-22,-24,-25,-26,-27,-28,-30,-33,-36,-39,-44,-47,-47,-45,-43,-42,-41,-39,-37,-35,-34,-31,-26,-14,1,14,35,57,70,76,80,83,85,86,88,90,91,93,95,97,102,104,100,92,84,76,68,62,52,38,23,10,0,-6,-16,-26,-35,-45,-59,-68,-70,-71,-72,-73,-71,-68,-62,-54,-39,-29,-24,-20,-17,-13,-11,-6,-1,-8,-13,-16,-18,-20,-22,-22,-21,-19,-17,-14,-10,-4,0,-2,-9,-21,-36,-43,-46,-48,-51,-53,-57,-60,-63,-65,-68,-72,-76,-78,-78,-76,-72,-68,-60,-46,-38,-35,-33,-32,-31,-30,-28,-26,-24,-23,-22,-19,-15,-19,-23,-24,-26,-28,-30,-32,-33,-35,-37,-39,-42,-45,-48,-52,-57,-57,-47,-40,-35,-31,-27,-25,-23,-22,-19,-15,-13,-15,-20,-23,-27,-29,-31,-29,-25,-19,-10,7,27,49,64,73,79,83,85,86,90,94,84,67,48,29,10,-7,-25,-43,-56,-64,-70,-61,-47,-33,-25,-20,-16,-16,-20,-26,-32,-39,-44,-47,-52,-58,-48,-39,-33,-28,-24,-19,-15,-9,-7,-10,-17,-25,-34,-35,-31,-18,9,58,125,203,276,326,332,309,230,123,7,-92,-137,-140,-111,-83,-74,-81,-94,-91,-48,14,47,58,52,32,-1,-34,-56,-64,-63,-56,-36,-11,0,20,43,66,74,74,66,54,37,26,19,14,12,13,17,21,26,32,35,31,24,12,1,-5,-9,2,13,21,28,33,38,40,43,45,47,49,50,49,46,43,40,36,33,29,24,21,21,23,27,32,41,56,66,72,79,87,101,116,126,134,133,122,110,96,87,75,57,43,35,28,22,16,6,-10,-22,-28,-34,-41,-47,-53,-57,-61,-66,-69,-72,-76,-80,-86,-91,-91,-87,-81,-62,-33,-24,-19,-16,-15,-13,-12,-10,-8,-9,-17,-26,-35,-36,-31,-27,-24,-21,-19,-21,-25,-29,-32,-33,-35,-37,-41,-45,-50,-54,-58,-61,-64,-69,-73,-75,-74,-71,-66,-59,-47,-32,-26,-21,-21,-26,-32,-37,-26,-17,-11,-7,-3,0,1,2,4,6,8,10,11,12,9,5,1,-3,-7,-12,-17,-22,-27,-32,-35,-38,-41,-46,-50,-54,-55,-54,-50,-44,-37,-25,-5,2,7,10,13,15,17,20,23,27,31,34,38,43,51,59,66,71,75,79,82,85,87,88,87,83,78,73,66,54,45,37,30,21,11,5,0,-3,-8,-14,-20,-24,-29,-34,-38,-42,-44,-44,-41,-37,-31,-24,-14,1,11,22,32,39,46,52,52,42,34,26,18,10,3,-5,-6,2,25,60,108,167,235,307,353,354,314,216,90,-34,-129,-179,-197,-204,-202,-197,-183,-152,-102,-44,-13,-5,0,2,5,9,13,16,19,23,29,43,57,60,61,63,64,64,64,63,61,60,56,51,56,61,66,65,56,50,46,42,37,32,28,23,18,12,6,2,0,2,6,10,13,16,20,24,28,32,36,40,45,51,60,69,78,94,106,108,109,110,111,112,113,113,114,115,116,116,116,117,117,118,119,120,122,125,123,108,92,75,63,49,29,7,-15,-26,-33,-38,-41,-44,-44,-43,-40,-37,-33,-30,-26,-23,-19,-15,-12,-10,-9,-7,-6,-5,-4,-3,-2,-1,0,0,2,3,3,3,2,1,0,-1,-3,-5,-8,-10,-12,-14,-17,-20,-25,-31,-36,-42,-47,-53,-59,-65,-72,-76,-75,-71,-65,-59,-54,-48,-42,-37,-35,-35,-37,-39,-43,-48,-57,-55,-39,-29,-21,-14,-9,-7,-8,-11,-17,-25,-42,-57,-60,-63,-64,-63,-60,-59,-57,-56,-57,-64,-73,-78,-82,-86,-90,-93,-94,-93,-91,-89,-85,-80,-75,-68,-61,-57,-54,-51,-47,-43,-41,-41,-43,-46,-49,-52,-56,-60,-59,-53,-44,-37,-30,-23,-18,-18,-21,-26,-33,-47,-63,-68,-71,-74,-76,-73,-66,-60,-57,-54,-51,-47,-44,-40,-37,-34,-32,-30,-27,-25,-24,-23,-22,-20,-19,-17,-15,-14,-14,-13,-13,-14,-15,-17,-20,-22,-25,-27,-30,-34,-38,-41,-41,-40,-38,-36,-34,-33,-31,-30,-28,-27,-27,-29,-33,-38,-44,-51,-62,-70,-75,-81,-87,-79,-55,-13,40,103,168,228,271,286,270,222,125,10,-95,-153,-171,-159,-139,-115,-89,-64,-50,-42,-37,-33,-29,-25,-21,-16,-12,-9,-12,-18,-25,-30,-36,-41,-44,-45,-44,-42,-40,-39,-38,-38,-37,-36,-34,-32,-31,-29,-28,-27,-25,-23,-20,-17,-14,-10,-3,13,27,42,56,61,64,67,69,69,63,53,35,12,-1,-11,-10,3,23,48,60,67,73,77,77,73,66,58,50,38,32,36,43,46,48,50,52,54,55,55,54,53,51,50,48,45,42,39,36,33,30,25,20,13,6,1,-1,-5,-9,-14,-20,-25,-29,-32,-35,-37,-40,-43,-46,-47,-48,-50,-52,-55,-57,-59,-57,-53,-47,-41,-36,-31,-26,-21,-15,-10,-6,-2,1,4,7,10,12,14,16,20,27,33,36,32,23,14,9,5,1,-3,-8,-12,-16,-19,-21,-24,-25,-24,-24,-23,-23,-22,-22,-21,-21,-21,-21,-22,-23,-22,-20,-16,-12,-9,-6,-4,-3,-3,-3,-4,-6,-8,-8,0,8,14,18,23,27,29,31,33,32,29,24,17,10,-2,-21,-21,-22,-24,-26,-27,-27,-27,-27,-28,-28,-28,-26,-23,-20,-16,-12,-9,-5,0,8,17,26,37,48,62,73,81,87,92,95,97,99,101,103,103,102,99,95,89,82,75,66,52,38,25,13,3,-6,-15,-21,-25,-29,-31,-33,-35,-36,-38,-39,-39,-37,-33,-28,-22,-16,-11,-6,0,4,10,15,20,25,29,34,42,59,93,155,223,296,356,376,363,322,237,126,3,-89,-140,-163,-178,-188,-178,-146,-104,-92,-85,-80,-74,-69,-64,-59,-53,-45,-38,-32,-26,-21,-15,-7,3,13,22,27,30,34,37,39,41,42,42,41,40,38,34,30,25,20,15,11,8,3,-1,-7,-11,-15,-18,-20,-22,-24,-26,-28,-29,-31,-34,-38,-38,-31,-22,-11,0,11,22,30,36,41,47,54,60,64,69,75,83,95,103,105,107,110,113,115,114,104,89,75,60,45,30,16,4,-6,-17,-24,-25,-26,-25,-25,-25,-25,-26,-26,-26,-25,-24,-23,-22,-21,-21,-20,-18,-17,-17,-16,-17,-17,-17,-17,-16,-16,-16,-16,-15,-15,-15,-15,-15,-16,-16,-17,-18,-18,-19,-19,-20,-20,-20,-20,-21,-21,-21,-21,-22,-22,-22,-22,-21,-20,-19,-18,-17,-17,-15,-13,-11,-9,-8,-6,-5,-4,-2,0,1,3,5,6,7,6,5,3,1,-1,-4,-7,-9,-12,-14,-15,-16,-17,-18,-18,-18,-18,-19,-20,-20,-20,-20,-19,-19,-17,-16,-15,-13,-10,-7,-3,0,3,6,8,10,12,14,16,17,17,19,20,21,24,26,29,31,32,34,35,35,35,35,34,32,31,30,29,28,26,23,21,20,19,18,17,15,13,11,10,9,9,9,8,7,6,6,6,6,6,6,5,6,8,10,11,12,12,11,10,10,10,10,9,8,7,6,6,6,4,0,-7,-7,10,60,124,202,284,301,302,283,182,71,-28,-108,-127,-130,-132,-110,-83,-60,-37,-16,0,10,16,19,22,25,26,27,28,29,29,29,28,26,24,20,16,12,7,2,-1,-5,-8,-11,-14,-17,-19,-21,-23,-24,-25,-26,-26,-26,-26,-25,-23,-21,-18,-15,-11,-8,-4,0,3,7,11,16,20,25,30,35,40,44,47,49,50,50,49,48,47,45,44,43,42,42,42,42,42,41,39,37,35,33,30,28,26,24,22,21,20,20,19,18,14,10,6,3,3,3,4,4,5,6,10,13,15,12,3,-6,-12,-16,-20,-25,-30,-35,-39,-43,-45,-46,-47,-49,-50,-51,-52,-53,-55,-58,-61,-64,-66,-68,-69,-69,-69,-68,-66,-63,-59,-55,-52,-49,-45,-37,-22,-14,-10,-8,-5,-3,-1,0,2,3,3,3,2,0,-2,-6,-10,-14,-18,-23,-29,-37,-44,-50,-56,-61,-66,-72,-78,-81,-82,-79,-74,-68,-62,-55,-46,-37,-30,-26,-23,-16,-7,-4,-5,-5,-7,-9,-10,-7,-1,5,8,11,14,17,20,21,20,17,12,8,4,2,0,-3,-8,-12,-15,-16,-17,-18,-17,-15,-13,-10,-7,-2,1,6,11,23,33,41,48,55,60,58,45,29,21,15,9,3,-1,-5,-8,-10,-12,-13,-15,-17,-18,-19,-19,-20,-20,-21,-21,-22,-24,-25,-28,-31,-35,-37,-37,-34,-30,-28,-25,-23,-20,-16,-11,-3,22,89,182,287,377,400,387,295,155,16,-76,-119,-134,-142,-144,-142,-135,-124,-83,-31,6,20,19,4,-9,-23,-27,-27,-28,-29,-30,-30,-23,-15,-10,-5,0,2,5,5,4,0,-3,-7,-11,-13,-16,-19,-22,-24,-24,-21,-17,-11,-5,0,4,12,21,29,34,35,35,33,31,29,25,19,17,18,19,19,20,21,21,22,23,26,30,35,41,45,50,55,61,67,73,78,82,86,91,96,102,107,110,110,106,99,89,73,45,31,24,19,15,12,9,5,1,-2,-5,-9,-13,-17,-21,-26,-31,-35,-40,-44,-48,-51,-55,-59,-63,-66,-67,-68,-69,-68,-67,-64,-61,-57,-52,-48,-44,-38,-31,-24,-20,-16,-13,-10,-7,-4,0,2,5,7,9,12,15,18,21,24,28,30,31,29,23,16,7,-2,-17,-26,-32,-35,-37,-38,-40,-41,-41,-42,-43,-43,-43,-43,-43,-42,-40,-38,-36,-33,-30,-27,-24,-21,-18,-14,-9,-3,1,4,7,10,12,15,17,18,19,20,20,20,19,16,13,9,4,-1,-7,-16,-34,-42,-46,-49,-53,-56,-57,-51,-44,-39,-35,-32,-28,-24,-19,-14,-9,-4,0,6,18,37,48,52,56,59,63,66,68,69,70,70,70,69,67,63,59,54,48,43,35,17,3,-11,-25,-33,-37,-39,-41,-43,-45,-46,-47,-48,-49,-51,-52,-52,-52,-51,-51,-51,-52,-53,-53,-53,-55,-59,-48,-13,35,95,162,231,300,335,347,329,273,193,96,-4,-98,-147,-163,-149,-127,-105,-92,-84,-74,-63,-56,-51,-47,-42,-38,-35,-32,-29,-27,-26,-25,-24,-23,-22,-21,-20,-20,-18,-16,-14,-11,-8,-5,-3,0,3,7,11,16,24,33,38,40,42,43,44,44,45,46,46,46,45,44,42,40,38,36,34,32,30,28,27,26,25,23,22,21,21,21,21,22,24,26,28,31,34,36,39,43,48,56,73,82,88,93,97,101,101,96,87,77,69,61,54,46,38,29,22,14,7,0,-9,-15,-17,-17,-17,-17,-17,-18,-20,-22,-23,-23,-24,-26,-30,-34,-38,-42,-45,-50,-56,-61,-65,-66,-63,-59,-54,-49,-44,-39,-34,-27,-21,-15,-10,-3,5,19,26,28,31,34,35,27,13,5,0,-5,-11,-15,-19,-23,-26,-29,-31,-33,-36,-38,-41,-48,-54,-54,-47,-34,3,53,113,172,201,212,195,146,77,6,-55,-96,-109,-116,-115,-108,-99,-90,-79,-68,-58,-46,-31,-7,11,27,37,36,25,13,6,2,-1,-4,-6,-7,-10,-13,-17,-20,-24,-27,-30,-32,-33,-34,-36,-37,-40,-45,-52,-56,-57,-54,-48,-40,-25,1,17,28,34,34,28,17,-1,-20,-29,-36,-17,0,12,22,29,35,38,41,44,47,49,51,51,51,51,50,49,47,43,38,33,28,25,21,16,10,4,-2,-9,-17,-25,-34,-43,-51,-57,-62,-73,-85,-76,-60,-42,-32,-26,-22,-18,-16,-14,-10,-5,-7,-17,-23,-26,-28,-30,-32,-34,-36,-38,-40,-41,-42,-43,-45,-48,-51,-55,-65,-65,-55,-50,-46,-43,-41,-38,-35,-32,-29,-27,-25,-22,-19,-13,-3,2,5,7,9,11,12,13,13,13,13,11,9,7,5,3,0,-1,-3,-5,-6,-8,-10,-13,-16,-18,-19,-20,-22,-24,-26,-29,-31,-32,-33,-34,-35,-36,-36,-35,-34,-33,-31,-30,-29,-28,-26,-24,-21,-19,-15,-8,-1,0,0,-1,-2,-4,-6,-6,-3,-1,0,0,1,2,4,5,5,4,1,-1,-5,-9,-14,-19,-25,-31,-38,-47,-58,-63,-65,-67,-69,-71,-70,-64,-56,-51,-47,-43,-40,-36,-32,-28,-24,-21,-18,-14,-8,0,5,7,8,9,9,10,11,12,13,14,15,15,15,15,14,14,13,13,12,12,12,12,12,12,12,12,11,10,9,8,7,6,4,2,1,0,-2,-3,-5,-7,-10,-13,-15,-16,-15,-12,-10,-7,-4,-2,0,2,5,7,8,7,5,2,0,-2,-5,-9,-14,-18,-21,-24,-27,-31,-35,-41,-45,-45,-41,-32,-10,31,85,144,200,251,275,272,226,141,29,-93,-192,-238,-253,-241,-205,-151,-100,-50,-7,10,16,18,21,23,25,26,26,26,26,25,23,21,18,14,11,7,4,1,-1,-4,-7,-10,-14,-17,-21,-25,-29,-32,-32,-28,-22,-16,-9,-1,6,12,17,22,27,31,35,42,49,56,60,64,67,70,72,75,77,80,82,84,86,88,90,91,93,94,96,98,100,102,103,103,101,97,92,85,78,67,48,38,34,31,30,28,27,26,25,24,24,24,24,24,23,23,22,22,22,22,22,22,21,20,19,19,18,17,15,13,13,16,20,25,27,30,33,36,38,39,41,41,39,36,31,24,16,-1,-23,-32,-38,-41,-37,-26,-16,-6,2,13,19,24,28,33,36,39,40,41,42,44,46,46,46,47,48,50,52,53,50,43,33,24,15,5,-4,-13,-21,-27,-32,-38,-49,-55,-51,-40,-22,3,43,91,138,154,163,157,106,28,-63,-150,-202,-219,-208,-173,-132,-106,-75,-49,-30,-16,0,15,28,39,47,54,61,66,65,56,45,38,32,26,20,16,12,8,5,0,-4,-10,-18,-28,-40,-50,-61,-70,-76,-79,-82,-86,-92,-90,-72,-58,-46,-35,-26,-19,-13,-7,-2,3,8,12,18,24,34,49,68,79,86,93,98,101,101,99,96,92,88,85,82,77,73,69,65,62,59,55,50,45,39,30,20,0,-28,-40,-47,-52,-54,-54,-49,-43,-36,-29,-20,-12,-8,-8,-11,-14,-17,-21,-24,-25,-22,-17,-12,-9,-6,-2,0,2,3,2,0,-4,-9,-14,-18,-23,-28,-34,-39,-43,-46,-49,-52,-56,-63,-75,-85,-91,-96,-100,-102,-100,-94,-86,-74,-51,-35,-26,-19,-11,-3,2,6,10,15,19,23,27,31,34,37,40,44,47,50,50,49,47,45,41,35,27,13,-3,-20,-35,-49,-59,-67,-73,-77,-79,-81,-82,-84,-86,-87,-88,-88,-85,-82,-78,-73,-68,-61,-53,-44,-35,-24,-9,2,9,15,19,21,20,18,14,12,11,10,10,9
