28
12
12
12
12
12
38
38
12
12
12
12
12
38
38
12
12
12
12
12
38
38
12
12
12
12
12
14
38
38
12
12
14
12
12
12
38
38
12
12
12
12
38
38
38
12
12
12
12
12
38
38
12
12
12
12
12
38
38
12
12
12
12
12
12
38
38
12
12
12
12
12
38
38
38
12
12
12
12
14
12
28
13
13
13
28
12
12
14
12
12
12
38
38
12
12
12
12
12
12
1
38
38
12
12
12
12
12
38
38
38
38
12
12
12
12
12
12
28
1
1
38
38
28
12
12
12
12
12
12
1
38
38
12
12
12
14
12
12
12
1
38
12
12
12
12
12
12
1
38
38
14
12
12
12
12
12
12
38
1
38
38
12
12
12
12
12
12
12
38
1
38
38
12
12
12
12
12
12
12
12
38
1
38
38
38
14
38
12
12
12
12
14
12
12
12
12
12
12
28
1
1
1
38
38
38
38
28
12
12
14
12
12
12
12
12
12
28
1
1
38
38
14
28
12
12
12
14
12
14
12
12
12
14
38
1
38
38
12
12
12
12
12
12
12
28
1
14
1
38
38
38
28
12
12
14
12
12
12
12
12
12
12
12
14
12
28
1
1
38
38
38
38
38
38
38
38
38
38
38
38
38
38
38
38
14
13
13
38
14
38
14
38
1
1
1
1
1
14
1
1
1
1
1
1
14
1
1
1
1
1
1
1
1
1
1
5
28
12
12
12
12
12
12
12
12
12
12
12
12
12
12
12
38
38
38
38
38
38
38
38
38
38
38
14
14
38
38
14
38
38
38
38
38
38
1
38
38
12
14
12
12
12
12
12
12
12
12
12
12
12
12
12
12
14
12
12
12
14
12
12
12
14
12
12
28
1
1
1
1
1
1
1
1
1
1
1
1
1
14
1
1
1
1
1
1
1
1
1
1
38
38
1
38
38
1
38
38
38
38
38
38
38
38
38
38
13
13
13
13
38
38
38
13
13
13
13
13
13
13
13
13
28
38
12
12
12
12
12
12
12
12
12
12
12
12
12
12
12
12
14
12
12
12
14
12
12
12
12
12
12
12
12
12
12
12
12
12
12
12
12
12
12
12
12
12
12
38
38
38
38
28
1
1
1
1
1
1
1
14
1
1
1
1
1
1
1
1
38
1
1
38
38
14
38
38
38
38
38
38
38
38
38
38
14
38
38
14
38
38
38
38
38
38
38
38
38
38
38
38
38
38
38
38
38
38
38
38
38
38
38
38
38
38
38
38
38
28
12
12
12
12
12
12
12
12
12
12
12
12
12
12
12
12
28
1
1
38
38
38
38
38
38
38
38
38
38
38
38
38
28
12
12
12
12
12
12
12
12
12
28
1
1
38
38
38
38
38
28
12
12
12
12
12
12
12
12
12
12
12
38
1
38
38
38
38
38
38
38
38
12
12
12
12
12
12
12
12
12
12
12
12
12
28
1
1
38
38
38
38
38
38
38
38
38
38
38
38
28
12
12
12
12
12
12
12
12
12
12
12
12
28
1
1
38
38
38
38
38
38
38
38
28
12
12
14
12
12
12
12
12
12
12
12
28
1
1
38
38
38
38
14
38
38
38
28
12
12
12
12
12
12
12
12
12
12
12
38
1
38
38
38
38
38
38
38
12
12
12
12
12
12
12
12
12
28
1
1
38
38
38
38
28
12
12
12
12
12
12
12
12
12
1
38
38
38
38
38
38
12
12
12
12
12
12
12
12
12
28
1
1
38
38
38
38
38
28
12
12
12
12
12
12
12
12
12
12
28
1
1
38
38
38
38
38
28
12
12
12
12
12
12
12
12
12
28
1
1
38
38
38
38
28
12
12
12
12
12
12
12
28
1
1
38
38
38
28
12
12
12
12
12
12
12
12
38
38
38
38
12
12
12
12
12
12
12
12
1
38
38
38
38
12
12
12
12
12
12
12
12
12
28
1
1
38
38
38
38
28
12
12
12
12
12
12
12
12
12
28
1
1
38
38
38
28
12
12
12
12
12
12
12
12
12
38
38
38
38
12
12
12
12
12
12
12
12
38
38
38
38
12
12
12
12
12
12
12
12
1
38
38
38
12
12
12
12
12
12
12
12
1
38
38
38
12
12
12
12
12
12
12
12
38
1
38
38
38
12
12
12
12
12
12
12
12
38
38
38
38
12
12
12
12
12
12
12
38
38
38
12
12
12
12
12
12
12
38
1
12
12
12
12
12
12
12
38
38
38
38
12
12
12
12
12
12
12
12
38
38
38
38
38
12
12
12
12
12
12
12
12
1
38
38
38
38
38
12
12
12
12
12
12
12
12
1
38
38
38
12
12
12
12
12
12
12
38
38
38
12
12
12
12
12
12
12
38
38
38
12
12
12
12
12
12
12
38
38
38
12
12
12
12
12
12
12
38
38
38
12
12
12
12
12
12
12
1
38
38
38
12
12
12
12
12
12
12
1
38
38
38
12
12
12
12
12
12
12
1
38
38
12
12
12
12
12
12
12
38
38
38
12
12
12
12
12
12
38
38
38
12
12
12
12
12
12
38
38
12
12
12
12
12
12
38
38
38
12
12
12
12
12
12
38
38
38
12
12
12
12
12
12
1
38
38
12
12
12
12
12
12
12
38
38
38
12
12
12
12
12
12
38
38
38
12
12
12
12
12
12
12
38
38
12
12
12
12
12
12
38
38
12
12
12
12
12
12
38
38
38
12
12
12
12
12
38
38
38
12
12
12
12
12
38
38
38
12
12
12
12
12
38
38
38
5
12
12
12
12
38
38
38
12
12
12
12
12
12
38
38
38
38
12
12
12
12
12
12
38
38
12
12
12
12
12
12
12
38
38
38
12
12
12
12
12
38
38
38
12
12
12
12
12
12
38
38
12
12
12
12
12
38
38
38
12
12
12
12
12
38
38
38
12
12
12
12
12
12
1
38
38
12
12
12
12
12
12
38
1
38
38
12
12
12
12
12
12
12
1
38
38
12
12
12
12
12
12
38
38
38
12
12
12
12
12
12
38
38
38
12
12
12
12
12
12
38
38
12
12
12
12
12
12
38
38
12
12
12
12
12
12
38
38
12
12
12
12
12
12
1
38
38
12
12
12
12
12
12
1
38
38
12
12
12
12
12
12
12
1
38
38
12
12
12
12
12
12
1
38
38
12
12
12
12
12
12
38
38
38
12
12
12
12
12
12
38
38
12
12
12
12
12
38
38
38
12
12
12
12
12
38
38
12
12
12
12
12
12
38
38
38
12
12
12
12
12
12
38
38
12
12
12
12
12
12
12
1
38
38
12
12
12
12
12
12
12
1
38
38
12
12
12
12
12
12
12
38
38
12
12
12
12
12
12
38
38
38
12
12
12
12
12
12
38
38
12
12
12
12
12
12
38
38
12
12
12
12
12
38
38
38
12
12
12
12
12
38
38
38
12
12
12
12
12
12
1
38
38
38
12
12
12
12
12
12
1
38
38
12
12
12
12
12
12
1
38
38
12
38
12
12
12
12
38
38
38
12
12
12
12
12
12
38
38
12
12
12
12
12
38
38
12
12
12
12
12
12
38
38
12
12
12
12
12
12
38
38
12
12
12
12
12
38
38
38
12
12
12
12
12
12
1
38
38
12
12
12
12
12
12
1
38
38
12
12
12
12
12
12
12
38
38
38
12
12
12
12
12
12
1
38
38
12
12
12
12
12
12
38
38
12
12
12
12
12
12
38
38
12
12
12
12
12
12
38
38
12
12
12
12
12
12
38
38
12
12
12
12
12
12
38
38
12
12
12
12
12
12
1
38
38
12
12
12
12
12
12
1
38
38
12
12
12
12
12
12
12
1
38
38
12
12
12
12
12
12
1
38
38
12
12
12
12
12
12
38
38
12
12
12
12
12
12
38
38
38
12
12
12
12
12
12
38
38
12
12
12
12
12
38
38
38
12
12
12
12
12
38
38
12
12
12
12
12
12
38
38
12
12
12
12
12
12
1
38
38
12
12
12
12
12
12
12
1
38
38
12
12
12
12
12
12
12
1
38
38
12
12
12
12
12
12
38
38
38
12
12
12
12
12
12
12
38
38
12
12
12
12
12
12
38
38
12
12
12
12
12
12
38
38
38
12
12
12
12
12
12
38
38
12
12
12
12
12
12
38
38
38
12
12
12
12
12
12
1
38
12
12
12
12
12
12
12
38
1
38
38
12
12
12
12
12
12
38
38
38
38
12
12
12
12
12
12
38
38
12
12
12
12
12
12
38
38
38
12
12
12
12
12
38
38
38
12
12
12
12
12
12
38
38
12
12
12
12
12
12
38
38
38
12
12
12
12
12
12
1
38
38
12
12
12
12
12
12
1
38
38
12
12
12
12
12
12
28
1
1
38
38
28
12
12
12
12
12
12
1
38
38
12
12
12
12
12
12
38
38
12
12
12
12
12
12
38
38
12
12
12
12
12
12
38
38
12
12
12
12
12
38
38
12
12
12
12
12
12
38
38
12
12
12
12
12
12
1
38
12
12
12
12
12
12
12
1
38
38
12
12
12
12
12
12
12
1
38
38
12
12
12
12
12
12
12
1
38
38
12
12
12
12
12
12
38
38
38
12
12
12
12
12
12
38
38
38
12
12
12
12
12
12
38
38
12
12
12
12
12
12
38
38
38
12
12
12
12
12
38
38
38
12
12
12
12
12
12
1
38
38
38
12
12
12
12
12
12
1
38
38
12
12
12
12
12
12
12
1
38
38
38
12
12
12
12
12
12
28
1
1
38
38
28
12
12
12
12
12
12
38
38
38
12
12
12
12
12
12
38
38
12
12
12
12
12
12
38
38
38
12
12
12
12
12
12
38
38
12
12
12
12
12
12
38
38
38
38
12
12
12
12
12
12
1
38
38
12
12
12
12
12
12
12
38
38
38
12
12
12
12
12
12
12
12
38
38
38
12
12
12
12
12
12
12
38
38
38
12
12
12
12
12
12
12
38
38
12
12
12
12
12
12
38
38
38
12
12
12
12
12
12
38
38
38
12
12
12
12
12
12
1
38
38
12
12
12
12
12
12
12
38
38
38
12
12
12
12
12
12
12
38
1
38
38
12
12
12
12
12
12
12
1
38
38
38
12
12
12
12
12
12
38
38
38
12
12
12
12
12
12
12
38
38
12
12
12
12
12
12
38
38
38
12
12
12
12
12
12
38
38
38
12
12
12
12
12
12
38
38
12
12
12
12
12
12
