28
1
5
1
1
1
1
1
5
1
1
1
1
1
5
1
1
1
1
1
1
1
1
1
28
5
1
5
1
5
1
5
1
5
1
5
28
1
1
1
1
1
28
5
1
5
1
5
1
5
28
1
1
1
1
1
5
1
1
5
1
1
5
1
5
1
1
28
5
1
5
1
5
28
1
1
1
1
1
1
1
1
1
5
1
1
1
1
1
1
1
5
1
1
1
1
1
28
5
1
5
1
5
28
1
1
1
1
1
1
1
1
1
1
1
1
1
1
1
1
1
1
1
1
1
1
1
1
1
1
1
1
1
1
1
1
5
1
1
1
1
1
1
1
1
5
1
1
1
1
1
1
28
5
1
5
1
5
28
1
1
1
5
1
1
5
1
1
1
1
1
5
1
1
1
1
1
1
1
1
1
1
1
1
5
1
1
5
1
1
5
1
5
1
1
5
1
1
1
1
1
28
5
1
1
5
1
1
5
1
1
5
1
1
5
28
1
5
1
1
28
5
1
5
1
5
1
5
1
5
1
5
28
1
1
1
1
1
1
5
1
5
1
1
1
28
5
1
5
1
5
28
1
1
1
1
1
1
1
1
1
1
1
1
5
1
1
1
5
1
5
1
1
1
5
1
28
5
1
1
5
1
1
5
1
1
5
28
1
5
1
1
5
1
1
1
1
1
5
1
1
1
1
1
5
1
1
1
1
1
5
1
1
1
1
5
1
5
1
1
1
5
1
1
1
28
5
1
5
1
5
28
1
1
5
1
1
5
1
1
28
5
1
5
1
5
1
5
28
1
1
28
5
1
1
5
1
1
5
1
1
5
1
1
5
28
1
5
1
1
1
1
1
1
1
1
5
1
5
1
1
1
28
5
1
1
5
1
1
5
1
1
5
1
1
5
1
1
5
28
1
1
1
1
5
1
5
1
1
1
1
1
1
1
1
1
1
1
1
1
1
1
5
1
5
1
1
1
5
1
28
5
1
1
5
1
1
5
1
1
5
1
1
5
1
1
5
1
1
5
28
1
1
1
1
1
1
1
1
1
1
5
1
1
1
1
1
1
1
1
1
1
1
1
1
1
1
1
1
1
1
1
1
1
1
1
1
1
1
1
1
5
1
1
1
1
1
5
1
1
1
1
1
1
1
1
1
28
5
1
1
5
1
1
5
1
1
5
1
1
5
28
1
5
1
1
1
5
1
1
1
1
1
1
1
1
5
1
5
1
1
1
28
5
1
5
1
5
28
1
1
1
1
1
5
1
1
1
1
1
5
1
1
1
1
1
1
1
1
1
1
1
1
1
1
1
1
1
1
1
1
1
1
1
1
1
1
1
1
1
1
1
1
1
1
1
1
1
1
1
1
1
1
1
1
1
1
1
1
1
1
1
1
1
1
1
1
1
1
1
1
1
1
1
1
1
1
1
1
1
1
1
5
1
1
1
1
1
5
1
1
1
1
1
5
1
1
1
1
1
5
1
1
1
1
1
1
28
5
1
1
5
1
1
5
1
1
5
1
1
5
1
1
5
1
5
1
1
5
1
1
5
1
1
5
1
5
1
1
5
1
1
5
1
1
5
28
1
1
1
1
1
1
1
1
5
1
1
5
1
5
1
1
1
1
1
1
1
5
1
1
1
1
1
5
1
1
1
1
1
5
1
1
1
1
1
1
1
1
1
1
1
1
1
1
1
1
1
1
5
1
1
5
1
1
1
1
1
1
1
1
1
1
1
1
1
1
1
1
1
28
5
1
1
5
1
1
5
28
1
1
1
1
1
5
1
1
5
1
1
1
1
1
5
1
1
5
1
1
1
1
1
1
1
1
1
1
1
1
1
1
1
1
1
1
5
1
1
1
1
1
5
1
1
1
1
1
5
1
1
1
1
1
5
1
1
1
1
1
1
5
1
1
5
1
1
5
1
5
1
1
1
1
1
5
1
5
1
1
1
5
1
5
1
1
1
1
1
1
28
5
1
1
5
1
1
5
1
1
28
5
1
5
1
5
28
1
1
1
28
5
1
1
5
1
1
5
1
1
5
1
1
28
5
1
5
1
5
1
5
28
1
1
1
1
1
5
1
1
1
1
1
1
1
1
1
1
1
1
1
1
1
1
1
1
1
1
1
1
1
5
1
1
1
1
1
1
5
1
5
1
1
1
5
1
5
1
1
1
5
1
1
5
1
5
1
1
1
1
1
1
1
1
1
1
1
1
1
1
1
1
1
5
1
1
1
1
1
1
1
1
1
1
1
1
1
1
5
1
1
5
1
1
1
1
1
1
1
1
1
1
1
1
1
5
1
1
1
1
1
5
1
1
1
1
1
1
1
1
1
5
1
5
1
1
1
5
1
1
1
5
1
1
1
1
5
1
1
1
1
1
1
1
1
1
5
1
1
1
1
1
1
1
5
1
1
1
1
1
1
1
1
1
1
1
1
1
1
1
1
1
1
28
5
1
1
5
1
1
5
1
1
5
1
1
5
1
1
5
1
1
5
1
1
28
5
1
5
1
5
28
1
1
1
1
1
5
1
1
1
1
5
1
5
1
1
1
5
1
5
1
1
1
1
1
1
1
1
5
1
5
1
1
1
1
1
1
1
1
1
1
1
1
1
1
1
1
1
1
1
1
1
1
1
5
1
1
1
1
5
1
5
1
1
1
1
1
1
1
1
1
1
1
1
1
1
1
1
1
1
1
1
1
5
1
5
1
1
1
1
1
1
1
1
1
1
1
1
1
1
1
1
1
1
28
5
1
5
1
5
28
1
1
1
1
1
1
1
1
1
5
1
1
28
5
1
5
1
5
28
1
1
1
5
1
1
1
1
1
1
28
5
1
5
1
5
28
1
1
1
1
1
1
1
1
28
5
1
5
1
5
28
1
1
5
1
1
1
1
28
5
1
5
1
5
28
1
1
1
5
1
1
1
1
1
5
1
1
1
1
28
5
1
5
1
5
1
5
1
5
28
1
1
1
1
1
28
5
1
5
1
5
28
1
1
1
1
28
5
1
5
1
5
1
5
1
5
28
1
1
1
1
1
5
1
1
1
1
1
28
5
1
1
5
1
1
5
1
1
5
1
1
28
5
1
5
1
5
1
5
1
5
28
1
1
1
1
5
1
5
1
1
1
1
5
1
1
1
1
5
1
5
1
1
5
1
14
1
1
5
1
1
1
5
1
1
5
1
5
1
1
1
28
5
1
1
5
1
1
5
14
1
1
5
28
1
1
1
1
1
28
5
1
5
1
5
1
5
28
1
1
1
1
1
5
1
1
5
1
5
1
1
5
1
1
1
28
5
1
5
1
5
28
1
1
1
5
1
1
1
5
1
5
1
1
5
1
28
5
1
1
5
1
1
5
1
1
5
1
1
28
5
1
5
1
5
28
1
1
1
1
1
28
5
1
5
1
5
1
5
1
5
1
5
1
5
28
1
1
1
5
1
5
1
1
1
1
1
5
1
1
5
1
1
1
28
5
1
5
1
5
28
1
1
1
28
5
1
5
1
5
1
5
1
5
1
5
1
5
1
5
28
1
1
1
1
1
1
1
1
1
1
1
1
1
1
1
1
1
1
28
5
1
5
1
5
1
5
28
1
1
5
1
1
5
1
5
1
1
1
1
1
1
28
5
1
5
1
5
1
5
1
5
28
1
1
5
1
5
1
1
1
5
1
5
1
1
5
1
1
28
5
1
5
1
5
1
5
28
1
1
5
1
1
5
1
5
1
1
5
1
1
1
5
1
5
1
1
1
5
1
5
1
1
5
1
1
1
1
5
1
1
1
1
1
5
1
5
1
1
5
1
1
1
5
1
5
1
1
5
1
5
1
1
1
28
5
1
5
1
5
28
1
1
28
5
1
1
5
1
1
5
1
1
5
1
1
28
5
1
5
1
5
28
1
1
1
1
1
28
5
1
5
1
5
1
5
1
5
1
5
1
5
28
1
1
1
1
1
1
1
1
1
1
1
1
1
1
1
1
1
1
1
1
1
28
5
1
5
1
5
1
5
1
5
28
1
1
5
1
1
1
28
5
1
5
14
1
5
28
1
1
5
1
1
1
1
1
1
5
1
1
5
1
5
14
1
1
1
5
1
5
1
1
1
5
1
1
1
5
1
1
1
1
5
1
1
1
5
1
1
1
1
1
1
1
1
5
1
5
1
1
1
5
1
5
1
1
1
5
1
5
1
1
1
5
1
1
1
1
5
1
5
1
1
1
5
1
1
1
1
1
5
1
28
5
1
1
5
1
1
5
1
1
5
28
1
5
1
1
5
1
5
1
1
1
1
1
1
5
1
5
1
1
1
1
5
1
5
1
1
1
1
1
5
1
1
1
1
1
1
1
1
1
1
1
1
1
1
5
1
1
5
1
1
1
1
1
1
5
1
1
1
1
1
5
1
5
1
1
5
1
1
1
1
1
5
1
1
5
1
1
1
1
1
1
1
1
1
1
1
1
5
1
5
1
1
1
1
28
5
1
5
1
5
28
1
1
1
28
5
1
1
5
1
1
5
28
1
1
1
1
1
1
1
1
1
1
1
1
1
1
1
1
1
1
1
1
1
1
1
1
1
1
1
1
1
1
1
1
1
1
1
1
1
1
1
1
1
1
1
1
1
5
1
5
1
1
1
1
1
1
1
1
1
1
1
1
1
1
5
1
1
1
1
1
1
5
1
1
1
1
1
1
1
1
1
1
1
1
1
5
1
1
1
1
1
1
1
1
1
1
1
1
