28
5
1
5
1
5
1
5
1
5
1
5
1
5
1
5
28
1
1
1
1
1
1
1
1
1
1
1
5
1
5
1
5
5
1
5
1
5
5
1
5
1
1
1
1
1
1
1
1
1
1
1
5
1
5
5
1
5
1
1
28
5
1
5
1
5
28
1
1
28
5
1
5
1
5
1
5
1
5
28
1
1
28
5
1
5
1
5
1
5
1
5
1
5
1
5
28
1
1
1
1
1
1
1
1
1
1
1
1
5
1
5
5
1
28
5
1
5
1
5
1
5
1
5
1
5
28
1
1
1
28
5
1
5
1
5
1
5
1
5
1
5
28
1
1
1
1
1
1
1
1
1
1
1
28
5
1
5
1
5
1
5
1
5
1
5
1
28
5
5
5
28
1
5
1
5
1
5
1
5
28
1
1
28
5
1
5
1
5
1
5
1
5
1
5
1
5
1
5
28
1
1
28
5
1
5
1
5
28
1
1
1
1
1
1
1
1
1
1
1
1
1
1
1
1
1
1
1
1
1
1
1
1
1
1
1
1
1
1
1
1
1
1
1
1
1
1
1
1
1
1
1
1
1
1
1
1
1
1
1
1
1
1
1
1
1
1
1
5
5
1
5
5
1
28
5
1
5
1
5
1
5
1
5
1
5
1
5
1
5
1
5
1
5
1
5
1
5
1
5
1
5
1
5
1
5
1
5
1
5
1
5
28
1
1
1
1
8
1
1
1
1
1
1
1
28
5
1
5
1
5
1
5
14
1
5
28
1
1
1
28
5
1
5
1
5
1
5
1
5
5
14
1
5
28
1
1
1
1
1
1
1
1
1
14
1
8
1
1
1
1
1
5
1
5
1
1
1
1
1
1
1
1
1
1
1
1
1
1
1
1
1
1
1
5
1
1
1
5
1
5
1
1
1
1
1
5
1
1
1
5
1
5
1
1
1
1
1
1
1
5
5
1
1
1
1
5
1
1
1
5
1
5
1
1
1
1
1
1
1
1
1
1
1
5
1
5
1
1
1
1
1
5
1
5
1
1
1
1
1
1
1
1
1
5
1
1
1
1
1
14
5
1
1
1
5
1
5
1
1
1
1
1
1
1
28
5
1
5
1
5
1
5
28
1
1
1
5
1
1
14
1
28
5
1
14
5
1
5
1
5
28
1
1
1
5
1
5
1
1
1
1
1
5
1
5
1
1
1
5
1
5
1
14
1
1
1
1
5
1
1
1
1
1
14
5
1
5
1
1
1
1
1
1
1
28
5
1
5
1
5
1
5
28
1
1
1
1
1
14
1
1
1
14
1
1
1
5
1
5
1
1
1
1
1
1
5
1
5
1
1
1
1
1
1
1
1
1
1
1
1
1
1
1
1
1
1
1
1
1
1
14
1
1
14
1
1
1
1
1
1
1
28
5
1
5
1
5
1
5
1
5
1
5
5
1
5
28
1
1
1
1
1
1
28
5
1
5
1
5
1
5
28
1
1
1
1
1
1
1
1
1
1
1
1
1
1
1
1
1
1
1
1
1
8
1
28
5
1
5
1
5
1
5
1
5
1
5
1
5
1
5
1
5
1
5
1
5
1
5
1
5
28
1
1
8
5
1
5
1
1
1
1
1
1
1
1
28
5
1
5
1
5
1
5
1
5
28
1
1
1
1
1
1
28
5
1
5
1
5
1
5
5
1
5
28
1
1
1
1
1
1
1
1
1
28
5
1
14
5
1
5
1
5
1
5
1
5
14
1
5
28
1
1
1
1
1
1
1
1
5
1
1
5
1
1
1
28
5
1
5
1
5
1
5
1
5
1
5
28
1
1
28
5
1
5
1
5
1
5
1
5
28
1
1
1
1
1
1
8
1
28
5
1
5
1
5
28
1
1
1
1
1
1
1
1
1
1
1
1
1
1
1
1
1
1
1
1
1
1
1
1
1
1
1
1
1
1
1
1
1
1
1
1
1
1
1
1
1
1
1
1
1
1
1
1
1
1
1
1
28
5
1
5
1
5
1
5
1
5
1
5
1
5
1
5
1
5
1
5
1
5
5
14
1
5
1
5
1
5
1
5
1
5
1
5
1
5
1
5
14
1
5
1
5
1
5
14
1
5
1
5
1
5
1
5
1
5
1
5
5
1
5
5
14
1
5
28
14
1
1
6
1
28
5
14
1
5
1
5
1
5
1
5
1
5
28
14
1
1
1
1
1
1
1
14
1
1
1
1
1
14
1
1
1
8
14
1
5
1
28
5
5
5
28
1
5
1
5
14
1
1
1
1
1
1
1
1
1
28
5
1
5
1
5
1
5
28
1
1
1
5
1
5
1
5
5
1
5
1
1
1
5
1
5
1
1
1
5
1
5
1
1
1
5
5
1
1
1
5
1
5
1
1
1
5
1
1
1
5
1
1
1
5
1
5
1
1
1
5
1
5
1
1
1
5
1
5
1
1
1
5
1
5
1
1
1
5
1
5
1
1
1
1
1
1
1
14
1
1
5
1
5
1
1
1
1
1
1
1
1
1
1
1
1
8
1
28
5
1
5
1
5
28
1
1
1
28
5
1
5
1
5
28
1
1
1
5
1
5
1
1
1
8
1
5
1
5
1
1
1
1
1
5
1
5
1
1
1
1
1
1
1
1
1
1
1
1
1
28
5
1
5
1
5
28
1
8
1
28
5
1
5
1
5
1
5
28
1
14
1
1
1
1
1
1
1
1
1
1
1
1
1
1
1
1
1
1
1
1
1
1
1
1
1
8
1
1
1
1
1
1
1
1
1
1
1
1
1
28
5
1
5
1
5
28
1
1
1
1
1
8
1
28
5
1
5
1
5
1
5
1
5
28
1
1
1
28
5
1
5
1
5
1
5
28
1
1
1
5
1
5
5
1
5
1
1
1
1
1
1
1
28
5
1
5
1
5
28
1
1
1
5
1
5
1
1
1
1
1
1
1
1
1
1
1
5
1
5
1
1
1
5
5
1
1
1
1
1
1
1
1
1
1
5
1
1
1
5
1
1
1
5
1
1
1
5
1
1
1
5
1
1
1
5
1
1
1
1
1
1
1
1
1
1
1
1
1
1
1
1
1
1
1
1
1
1
1
1
1
1
1
1
1
1
1
1
1
1
1
1
1
1
1
1
1
1
1
1
1
5
1
1
1
1
1
1
1
1
1
1
1
1
1
1
1
1
1
1
1
1
1
1
1
1
1
1
1
1
1
1
1
14
5
1
1
1
1
1
5
1
1
1
1
1
1
1
1
1
1
1
1
1
1
1
1
1
1
1
1
1
1
1
5
1
1
1
1
1
5
1
1
1
5
1
1
1
5
1
1
1
1
1
1
1
5
1
1
1
1
1
14
1
1
1
1
1
1
28
5
1
5
1
5
28
1
1
1
1
1
1
1
1
28
5
5
5
5
28
1
1
1
1
5
1
5
14
1
1
1
1
1
1
1
1
1
28
5
1
5
1
5
1
5
1
5
28
1
8
1
28
14
5
1
5
1
5
1
5
1
5
28
1
8
1
28
5
1
5
1
14
5
1
5
5
28
1
1
14
1
1
1
1
28
5
1
5
1
5
1
5
28
1
1
28
5
1
5
1
5
1
5
1
5
28
1
1
1
1
1
1
1
5
1
5
5
1
28
5
14
1
5
1
5
1
5
1
5
1
5
1
5
1
5
1
5
1
5
1
5
1
5
1
5
1
5
1
5
1
5
1
5
1
5
1
5
1
5
1
5
1
5
1
5
1
5
5
1
5
1
5
28
1
1
1
1
8
1
1
1
1
1
1
1
1
1
1
1
1
1
1
28
5
1
5
1
5
1
5
1
5
1
5
1
5
1
5
1
5
1
5
1
28
5
5
6
28
1
5
1
5
1
5
1
5
1
5
1
5
1
5
1
5
1
5
1
5
1
5
1
5
1
5
1
5
1
5
1
5
1
5
5
1
5
1
28
5
5
5
5
28
1
5
1
5
1
5
5
1
5
1
5
1
5
1
5
1
5
1
5
1
5
5
1
5
1
5
1
5
1
5
28
1
1
28
5
1
5
1
5
1
5
1
5
1
28
5
5
5
28
1
5
1
5
1
5
1
5
1
5
14
1
5
1
5
1
5
1
14
5
1
5
5
1
5
28
1
1
1
1
1
1
1
1
5
1
5
5
1
28
5
1
5
1
5
28
1
1
28
5
1
5
1
5
1
5
1
5
1
5
5
1
5
1
5
1
5
1
5
1
5
1
5
5
1
5
1
5
1
5
1
5
1
5
1
5
1
5
1
5
1
5
1
5
5
1
5
1
5
1
5
1
5
1
5
1
5
1
5
1
5
1
5
1
5
1
5
1
5
1
5
1
5
1
5
1
5
1
5
1
5
1
5
1
5
1
5
1
5
1
5
1
5
1
5
1
5
1
5
14
1
5
1
5
1
5
1
5
1
5
1
5
1
5
1
5
1
5
1
5
1
5
1
5
1
5
1
5
1
5
1
5
1
5
1
5
1
5
1
5
1
5
1
5
1
5
14
1
5
1
5
1
5
1
5
1
5
1
5
1
5
5
1
5
28
1
1
1
1
1
5
1
5
1
5
5
1
28
5
1
5
1
5
1
5
1
5
1
5
1
5
1
5
1
5
1
5
1
5
1
5
1
5
1
5
1
5
1
5
1
5
1
5
1
5
1
5
1
5
1
5
1
5
28
1
1
1
1
1
8
1
28
5
1
5
1
5
1
5
1
5
1
5
5
1
5
1
5
1
5
1
5
1
5
1
5
1
5
1
5
1
5
1
5
1
5
1
5
14
1
5
1
5
1
5
28
1
14
1
8
1
1
1
1
1
28
5
1
5
1
5
1
5
1
5
1
5
1
5
1
5
1
5
1
5
1
5
1
5
1
5
1
5
1
5
1
5
1
5
5
1
5
1
5
1
5
1
5
1
5
1
5
1
5
1
5
1
5
1
5
1
5
1
5
1
5
1
5
1
5
1
5
1
5
1
5
1
5
5
1
5
1
5
1
5
5
28
1
1
1
1
1
1
1
1
1
1
1
28
5
1
5
1
5
1
5
1
5
1
5
1
5
1
5
1
5
1
5
1
5
1
5
1
5
1
5
1
5
1
5
1
5
1
5
1
5
1
5
1
5
1
5
1
5
1
5
1
5
1
5
1
5
1
5
1
5
1
5
1
5
1
5
1
5
1
5
1
5
1
5
1
5
1
5
1
5
1
5
1
5
1
5
1
5
5
28
1
1
5
1
1
1
1
1
1
1
1
1
1
1
1
1
8
1
5
1
28
5
5
5
28
1
5
1
1
1
28
5
1
5
1
5
1
5
1
5
1
5
28
1
1
1
1
8
1
1
1
1
1
28
5
1
5
1
5
28
1
1
1
1
1
1
8
8
1
5
5
1
5
1
1
5
1
5
1
1
5
1
5
1
5
5
1
28
5
1
5
1
5
1
5
1
5
1
5
1
5
1
5
1
5
28
1
1
28
5
1
5
1
5
28
1
1
28
5
1
5
1
5
28
1
1
1
1
1
1
1
1
1
1
1
1
8
1
28
5
1
5
1
5
1
5
5
1
5
5
28
1
1
1
1
1
1
1
28
5
1
5
1
5
28
1
1
1
28
5
1
5
1
5
1
5
28
1
1
1
1
1
1
1
1
1
8
1
28
5
1
5
1
5
1
5
28
1
1
1
1
1
1
1
1
1
1
1
8
1
5
1
5
1
1
5
1
5
1
1
1
1
5
5
1
28
5
1
5
1
5
28
1
1
1
1
1
1
1
1
8
1
28
5
1
5
1
5
28
1
1
1
1
1
1
1
1
1
1
1
1
1
1
8
1
28
5
1
5
1
5
28
1
1
1
1
28
5
1
5
1
5
1
5
28
1
1
1
8
1
5
1
5
1
1
5
5
1
5
1
1
1
1
1
5
1
5
1
1
1
1
1
8
1
5
1
5
1
1
1
1
1
1
1
1
1
1
1
1
1
1
1
5
1
5
1
1
5
1
1
5
1
5
1
1
5
5
1
5
1
1
1
1
1
1
1
1
8
1
1
1
1
1
1
1
5
1
5
1
1
1
1
1
28
5
1
5
1
5
28
1
1
1
8
1
28
5
1
5
1
5
1
5
1
5
1
5
28
1
1
1
1
1
1
1
1
1
1
1
1
8
1
5
1
1
1
1
1
28
5
1
5
1
5
1
5
28
1
1
1
1
1
1
1
28
5
1
5
1
5
1
5
28
1
1
14
1
1
1
1
1
1
1
1
1
14
1
1
1
1
5
1
1
1
5
1
5
1
1
1
1
1
14
1
1
1
