28
1
1
1
1
1
1
1
1
1
1
1
1
1
1
1
1
1
1
1
1
1
1
1
1
1
1
1
1
1
1
1
1
1
1
1
1
1
1
1
1
1
1
1
1
1
1
1
1
1
1
1
1
1
1
1
1
1
1
1
1
1
1
1
1
1
1
1
1
1
1
1
1
4
1
1
1
1
1
1
1
1
1
1
1
1
1
1
1
1
1
1
1
1
1
1
1
1
1
1
1
1
1
1
1
1
1
1
1
1
1
1
1
1
1
1
1
1
1
1
1
1
1
1
1
1
1
1
1
1
1
1
1
1
1
1
1
1
1
1
1
1
1
1
1
1
1
1
1
1
1
1
1
1
1
1
1
1
1
1
1
1
1
1
1
1
1
1
1
1
1
1
1
1
1
1
1
1
1
1
1
1
1
1
1
1
1
1
1
1
1
1
1
1
1
1
1
1
1
1
1
1
1
1
1
1
1
1
1
1
1
1
1
1
1
1
1
1
1
1
1
1
1
1
1
1
1
1
1
1
1
1
1
1
1
1
1
1
1
1
1
1
1
1
1
1
1
1
1
1
1
1
1
1
1
1
1
1
1
1
1
1
1
1
1
1
1
1
1
1
1
1
1
1
1
1
1
1
1
1
1
1
1
1
1
1
1
1
1
1
1
1
1
1
1
1
1
1
1
1
1
1
1
1
1
1
1
1
1
1
1
1
1
1
4
1
1
1
1
1
1
1
1
1
1
1
1
1
1
1
1
1
1
1
1
1
1
1
1
1
1
1
1
1
1
1
1
1
1
1
1
1
1
1
1
1
1
1
1
1
1
1
1
1
1
1
1
1
1
1
1
1
1
1
1
1
1
1
1
1
1
1
1
1
1
1
1
1
1
1
1
1
1
1
1
1
1
1
1
1
1
1
1
1
1
1
1
1
1
1
1
1
1
1
1
1
1
1
1
1
1
1
1
1
1
1
1
1
1
1
1
1
1
1
1
1
1
1
1
1
1
1
1
1
1
1
1
1
1
4
1
1
1
1
1
1
1
1
1
1
1
1
1
1
1
1
1
1
1
1
1
1
1
1
1
1
1
1
1
1
1
1
1
1
1
1
1
1
1
1
1
1
1
1
1
1
1
1
1
1
1
1
1
1
1
1
1
1
1
1
1
1
1
1
1
1
1
1
1
1
1
1
1
1
1
1
1
1
1
1
1
1
1
1
1
1
1
1
1
1
1
1
1
1
1
1
1
1
1
1
1
1
1
1
28
11
11
28
1
11
1
1
1
4
1
1
1
1
5
1
1
1
1
5
1
1
1
1
1
1
1
1
1
1
1
1
1
1
1
1
1
1
1
5
1
4
1
4
1
1
1
5
1
1
4
1
1
37
1
37
1
37
1
1
4
1
1
1
1
1
1
1
37
5
1
1
37
1
1
1
1
4
1
1
5
1
1
1
1
28
5
4
4
1
4
4
1
1
1
1
1
1
1
4
1
1
1
1
1
1
1
1
1
1
1
1
1
1
1
1
1
1
1
1
1
1
1
1
1
1
1
1
1
1
1
1
1
4
4
1
1
1
1
1
4
1
1
1
1
1
1
1
28
1
11
1
11
8
11
8
28
1
1
5
7
1
37
1
37
1
37
1
37
1
37
1
37
1
37
1
37
1
37
1
37
1
1
5
1
1
37
1
1
28
5
1
1
5
1
1
5
1
1
5
1
1
5
1
1
5
1
1
5
28
1
1
4
1
1
5
1
1
5
1
1
1
1
5
1
1
1
1
5
1
1
1
1
5
1
1
1
1
28
5
1
1
5
1
1
5
1
1
5
28
1
1
1
1
1
1
1
1
1
1
1
1
5
1
4
1
1
1
28
5
1
1
5
1
1
5
1
1
5
1
1
5
28
1
1
1
1
28
5
1
1
5
1
1
5
1
1
5
1
1
5
1
1
5
1
1
5
1
1
5
1
1
5
1
1
5
1
1
5
1
1
5
1
1
5
1
1
5
1
1
5
1
1
5
1
1
5
1
1
5
1
1
5
1
1
5
1
1
5
1
1
5
1
1
5
28
1
4
1
1
5
1
4
1
1
1
5
1
1
5
1
4
1
1
1
5
1
4
1
1
1
5
1
1
1
1
1
5
1
1
4
1
1
1
5
1
1
5
1
1
1
4
1
1
1
5
1
1
1
5
1
1
1
5
1
1
1
5
1
1
1
1
28
5
1
1
5
1
1
5
1
1
5
1
1
5
1
1
5
1
1
5
1
1
5
1
1
5
1
1
5
1
1
5
1
1
5
1
1
5
1
1
5
1
1
5
1
1
5
1
1
5
1
1
5
1
1
5
1
1
5
1
1
5
1
1
5
1
1
5
1
1
5
1
1
5
1
1
5
1
1
5
1
1
5
1
1
5
1
1
5
28
1
1
1
5
1
1
1
5
1
1
1
5
1
1
1
5
1
1
1
5
1
1
1
5
1
1
1
1
5
1
1
1
5
1
1
1
5
1
1
1
5
1
1
1
5
1
1
1
5
1
1
1
5
1
1
5
1
4
1
1
28
5
1
1
5
1
1
5
1
1
5
28
1
4
1
1
5
1
1
5
1
1
1
8
1
1
5
1
1
1
1
28
5
1
1
5
1
1
5
1
1
5
1
1
5
1
1
5
1
1
5
1
1
5
28
1
1
1
1
28
5
1
1
5
1
1
5
1
1
5
1
1
5
1
1
5
1
1
5
1
1
5
1
1
5
1
1
5
28
1
1
1
1
28
5
1
1
5
1
1
5
28
1
4
4
1
1
28
5
1
1
5
1
14
1
14
5
28
1
14
1
8
14
1
1
8
1
4
11
1
1
1
1
8
8
1
1
5
1
1
1
1
1
1
1
4
11
8
1
1
1
1
1
5
1
1
1
1
1
1
1
5
8
8
1
1
5
8
1
1
1
5
1
1
5
8
8
1
1
5
1
4
1
1
28
5
1
1
5
1
1
5
1
1
5
28
8
8
1
1
1
1
5
1
4
4
1
1
5
1
1
4
1
1
5
1
1
5
1
1
1
4
1
1
5
1
1
1
5
1
4
4
1
1
1
5
8
8
1
5
1
1
5
1
4
1
1
5
1
1
5
8
1
1
1
5
8
1
1
1
5
1
1
5
1
1
4
4
1
1
4
1
1
5
1
1
1
4
1
1
5
1
1
1
5
1
4
1
1
1
5
1
1
5
1
37
1
1
1
5
1
4
1
1
1
28
5
1
1
5
1
1
5
1
1
5
1
1
5
1
1
5
1
1
5
1
1
5
1
1
5
1
1
5
1
1
5
1
1
5
1
1
5
1
1
5
1
1
5
1
1
5
1
1
5
1
1
5
1
1
5
1
1
5
1
1
5
1
1
5
28
1
1
1
1
1
1
1
1
1
1
1
1
1
1
1
1
1
1
1
1
1
1
1
1
1
1
1
1
1
1
1
1
1
1
1
5
1
1
1
1
1
5
1
1
1
1
1
1
1
1
1
1
1
1
1
1
1
1
1
1
1
1
1
1
1
1
1
1
1
5
4
8
1
1
4
1
1
4
4
1
1
6
1
4
1
4
1
37
1
4
1
4
1
37
1
4
1
4
1
4
1
37
1
4
1
4
1
4
8
1
4
1
37
1
4
1
4
4
1
4
1
37
1
4
1
4
1
4
1
1
8
1
4
1
37
1
4
1
8
1
4
1
37
1
4
4
1
4
4
1
37
1
1
4
1
1
4
1
37
37
1
4
1
1
1
5
1
1
1
4
1
1
4
8
1
1
1
8
8
1
8
8
1
8
1
37
1
4
4
1
4
4
1
1
4
1
4
1
37
6
4
1
37
1
4
1
37
1
37
1
4
1
37
1
28
4
4
8
28
1
37
1
1
4
1
37
1
4
1
28
1
1
1
1
1
1
1
1
1
1
1
1
1
1
1
1
1
1
1
1
1
1
1
1
1
1
1
1
1
1
1
1
1
1
1
1
1
1
1
1
1
1
1
1
1
1
1
1
1
1
1
1
1
1
1
1
1
1
1
1
1
1
1
1
1
1
1
1
1
1
1
1
1
1
1
1
1
1
1
1
1
1
1
1
1
1
1
1
1
1
1
1
1
1
1
1
1
1
1
1
1
1
1
1
1
1
1
1
1
1
1
1
1
1
1
1
1
1
1
1
1
1
1
1
1
1
1
1
1
1
1
1
1
1
1
1
1
1
1
1
1
4
1
1
4
1
1
1
1
1
1
1
1
1
1
1
1
1
1
1
1
1
1
1
1
1
1
1
1
1
1
1
1
1
1
1
4
1
1
1
1
1
1
1
1
1
1
1
1
1
1
1
1
1
1
1
1
1
1
1
1
1
1
1
1
1
1
1
1
1
1
1
1
1
1
1
1
1
1
1
1
1
1
1
1
1
1
1
1
1
1
1
1
1
1
1
1
1
1
1
1
1
1
1
1
1
1
1
1
1
1
1
1
1
1
1
1
1
1
1
1
1
1
1
1
1
1
1
1
1
1
1
1
1
1
1
1
1
1
1
1
1
1
1
1
1
1
1
1
1
1
1
1
1
1
1
28
11
1
11
1
28
1
4
1
37
1
1
4
1
37
1
