28
14
1
1
1
1
1
1
1
1
1
1
5
5
1
1
1
1
1
1
1
14
1
5
1
1
5
1
1
1
1
1
1
1
1
1
1
1
1
1
1
1
1
1
1
1
1
1
1
1
1
1
1
1
1
1
1
1
1
1
1
1
1
1
1
1
1
1
1
1
1
1
1
1
1
14
1
5
1
1
28
5
5
5
28
1
5
1
14
1
1
1
1
1
1
1
1
1
5
1
1
1
1
1
1
1
1
1
1
1
5
5
1
5
1
1
1
1
1
1
5
1
5
1
1
1
1
1
1
1
1
5
1
1
1
5
5
1
1
1
1
1
5
1
1
1
1
1
1
1
1
1
1
1
5
1
1
1
1
1
1
1
1
1
28
5
5
5
28
1
5
14
1
4
1
1
1
5
5
1
4
1
1
1
1
16
1
5
16
1
1
1
14
1
1
28
5
5
5
28
1
1
1
5
5
1
1
1
1
1
1
1
1
1
5
1
5
1
1
1
1
1
1
1
1
1
1
1
1
1
1
1
1
1
1
1
1
1
5
1
5
1
1
1
5
1
1
1
1
1
5
1
1
1
5
1
1
1
1
1
1
1
1
5
1
1
1
1
1
1
1
1
1
1
1
1
1
1
1
1
1
1
1
1
1
5
5
1
5
1
1
1
1
1
1
1
1
1
1
1
1
1
1
1
1
1
1
1
1
1
1
1
1
1
1
1
1
1
1
1
1
1
1
1
1
1
1
1
1
1
1
1
1
1
1
1
1
1
1
1
1
1
1
1
1
1
5
1
1
1
1
5
1
1
1
1
1
1
1
1
1
1
1
1
1
1
1
1
1
1
1
1
1
1
1
1
1
1
1
1
1
5
1
5
1
1
5
1
5
1
1
1
5
5
1
5
1
1
1
1
1
1
1
1
5
1
1
1
1
1
1
1
1
1
1
1
1
1
1
1
1
1
1
1
1
1
1
1
1
1
5
1
1
1
1
1
1
1
1
1
1
1
5
5
1
1
1
5
1
1
1
1
5
1
1
1
1
1
1
1
1
1
5
1
28
5
5
5
28
1
1
1
1
1
1
1
1
1
1
1
5
1
5
5
1
1
5
1
1
1
1
1
1
1
5
1
5
5
1
1
1
1
1
5
1
1
1
1
5
1
1
1
1
1
1
1
1
1
28
5
5
5
5
28
1
28
5
5
5
5
5
5
5
5
5
28
1
5
1
5
1
1
5
5
1
1
1
1
1
1
1
5
1
1
1
1
1
1
1
1
1
1
5
1
1
1
1
1
1
1
1
1
1
1
1
1
1
1
1
1
1
1
1
1
1
1
1
1
1
1
5
5
1
5
1
1
1
1
1
1
1
1
1
1
1
1
5
1
1
1
1
5
1
1
1
1
1
1
1
5
1
1
1
1
5
1
1
1
1
1
1
1
1
1
1
1
1
1
1
1
1
1
1
1
1
1
5
5
1
5
1
5
1
1
1
1
1
1
1
1
1
1
1
1
5
1
1
1
1
1
14
1
1
1
14
1
16
1
1
1
1
1
1
1
1
5
1
1
1
1
1
1
5
1
1
1
1
1
1
1
1
1
1
1
1
1
1
5
5
1
1
5
14
1
1
1
5
1
1
1
1
1
1
1
1
1
1
1
1
1
1
1
1
5
5
14
1
1
5
5
1
1
1
1
1
1
1
1
1
1
1
1
1
5
1
1
1
1
5
1
1
5
1
1
1
1
5
1
1
5
1
5
1
1
1
1
1
5
1
5
1
1
1
1
1
1
1
1
1
5
1
1
1
1
5
1
1
1
5
1
1
1
1
1
1
1
1
1
5
1
5
1
1
1
1
5
1
1
1
1
1
1
1
1
1
1
14
1
5
1
1
1
1
1
1
1
1
1
1
1
1
14
1
1
1
1
1
1
1
1
5
1
1
1
1
5
1
1
1
1
5
1
1
1
1
1
1
1
1
1
5
1
1
1
5
1
1
1
28
5
5
5
28
1
1
5
1
1
1
5
1
14
1
5
1
1
1
1
1
1
1
1
1
1
1
5
5
1
1
1
1
1
1
1
1
14
5
5
1
1
1
1
1
1
5
14
1
1
1
1
1
1
1
1
5
1
1
1
1
1
1
1
1
5
1
1
1
1
1
1
1
5
1
1
14
13
14
14
1
1
1
14
1
1
1
1
1
1
1
1
1
1
1
1
1
1
1
1
1
1
1
1
5
1
1
1
1
1
1
5
1
5
1
1
1
1
1
1
5
1
1
1
1
1
1
1
14
1
1
1
1
5
1
16
14
1
5
1
5
1
1
1
1
1
1
5
1
5
5
1
1
1
1
14
1
5
1
1
1
1
1
1
1
1
5
1
1
1
14
1
1
1
1
1
1
1
1
5
1
1
1
1
5
5
1
1
1
1
1
14
1
1
1
1
14
5
5
1
5
1
1
1
1
14
1
1
1
1
1
5
1
1
5
5
1
5
1
1
1
1
5
1
5
1
1
1
1
1
5
1
1
1
1
1
1
28
5
5
5
5
28
1
1
1
1
1
1
1
5
1
1
1
1
1
5
1
1
1
5
1
1
1
1
1
5
5
1
1
1
1
1
1
1
1
1
1
1
1
1
1
1
1
28
5
1
1
5
1
1
5
28
1
16
1
1
1
1
1
1
1
1
1
1
1
1
1
1
1
1
1
1
1
1
1
1
1
1
1
5
1
1
1
1
1
1
5
1
1
1
1
1
1
1
1
1
1
1
1
1
1
5
1
1
1
1
1
1
5
1
1
1
1
1
1
1
1
5
1
1
28
5
5
5
28
1
1
1
1
1
5
1
5
1
5
5
1
1
5
1
5
1
1
1
1
1
1
1
1
1
1
1
1
1
1
1
5
5
1
1
1
16
1
1
1
1
1
5
1
1
1
1
1
1
1
1
1
1
1
1
1
28
5
5
5
5
28
1
5
1
14
1
1
1
1
1
5
5
1
1
1
1
1
1
1
5
1
1
1
5
1
1
5
1
1
1
28
5
5
5
5
28
1
1
1
5
1
1
1
1
16
1
5
5
1
1
5
1
5
1
1
1
1
1
1
1
1
1
1
1
1
1
5
1
14
1
1
1
1
1
1
1
1
1
1
1
28
5
5
5
28
1
1
1
1
1
1
1
1
1
1
1
1
1
1
1
1
1
1
1
1
1
1
1
1
1
1
5
1
1
5
5
1
1
5
5
1
1
1
1
5
1
1
1
1
1
1
1
1
1
5
1
1
1
1
1
1
1
1
1
1
5
1
1
1
5
1
1
5
1
1
1
1
1
1
1
1
1
1
1
1
1
1
1
1
1
1
1
14
1
1
1
1
14
1
1
1
1
1
1
1
1
1
1
1
14
1
1
1
1
1
1
14
1
1
5
1
5
1
1
1
1
1
1
1
1
1
1
1
1
1
1
1
1
14
1
1
5
1
1
16
1
1
1
1
1
1
1
1
1
1
1
1
1
1
1
1
1
14
1
1
1
5
5
1
1
1
1
1
1
1
1
1
1
1
1
1
1
1
1
1
1
1
5
1
1
1
1
1
5
14
1
1
1
1
16
1
16
1
1
1
1
1
1
1
1
1
1
5
1
1
1
1
1
1
1
1
1
14
1
5
1
1
1
1
1
1
1
1
1
1
14
1
16
1
16
16
1
5
1
1
1
1
5
16
1
1
1
1
1
1
1
1
1
1
1
16
1
16
1
16
16
16
16
14
1
5
5
1
1
1
1
1
1
1
1
1
14
1
16
1
14
5
5
1
1
14
1
1
1
1
1
1
1
1
1
1
1
1
1
1
1
1
5
1
1
1
1
1
1
1
1
1
1
1
1
5
5
1
1
1
5
1
1
1
1
1
1
1
1
1
1
1
1
1
1
1
1
1
1
1
1
1
1
1
1
1
1
1
1
1
1
1
5
1
5
1
1
1
1
1
1
1
1
1
1
1
5
1
1
1
1
1
1
1
1
1
1
1
1
1
1
1
1
1
1
1
5
5
1
1
1
1
5
1
1
1
1
1
5
1
1
1
1
1
1
1
1
1
1
1
1
1
1
5
5
1
1
1
1
1
1
1
1
1
1
1
1
1
5
1
1
1
1
1
5
1
1
1
1
1
1
1
5
1
1
1
1
1
1
5
1
1
1
1
1
1
1
1
14
1
5
1
5
1
1
1
5
1
1
1
1
5
1
5
1
14
1
1
1
1
1
1
5
1
1
1
1
5
5
1
1
1
5
1
1
1
1
1
5
1
1
1
1
1
1
1
1
1
1
1
5
1
5
1
1
5
5
1
1
5
1
1
1
28
5
5
5
28
1
1
5
1
5
1
1
1
1
1
1
5
5
1
5
1
1
1
1
1
5
1
1
1
5
1
1
1
1
1
1
1
1
1
1
1
5
5
1
1
5
5
1
1
1
1
1
1
1
1
1
1
1
1
1
1
1
1
1
1
5
1
1
1
1
1
1
1
1
5
5
1
1
1
1
1
1
28
5
5
5
28
1
1
1
1
5
1
1
14
1
1
1
1
1
1
1
5
1
1
1
1
1
14
5
1
1
1
5
1
5
1
1
1
1
1
1
1
1
28
5
5
5
28
1
5
1
5
1
28
5
5
5
5
28
1
5
1
1
1
1
1
5
5
1
1
5
1
5
14
16
1
5
1
1
1
1
5
1
14
1
1
1
1
1
1
1
1
1
5
1
1
1
5
1
1
1
1
1
1
1
1
1
1
5
5
1
1
1
1
1
1
1
1
5
1
1
1
1
1
1
1
1
1
1
1
1
1
1
1
1
1
5
1
1
1
28
5
5
5
28
1
1
1
1
1
1
1
1
1
1
1
1
1
1
5
5
1
1
5
5
1
1
1
1
1
5
1
1
1
1
1
5
1
1
1
1
1
1
1
1
1
1
1
1
1
5
1
1
5
1
1
1
1
1
1
1
1
1
1
1
1
1
1
5
1
1
1
1
1
1
1
1
1
1
1
1
1
1
1
1
1
1
1
1
5
1
1
1
1
1
1
1
1
1
1
1
1
1
1
5
5
1
14
16
1
1
1
1
1
1
1
1
1
1
1
1
1
1
1
1
1
1
1
1
1
1
1
1
1
1
1
1
1
1
1
1
1
1
5
1
1
1
1
1
1
1
1
1
1
1
1
5
1
1
1
5
1
1
1
1
14
1
1
1
1
1
1
1
1
1
5
1
5
1
1
1
1
1
1
1
1
1
1
1
1
1
1
1
1
5
1
1
1
5
5
1
5
1
1
1
1
1
1
1
5
1
1
1
1
1
1
1
1
1
1
1
1
1
1
1
1
1
1
1
1
5
1
1
1
1
1
5
1
1
1
1
1
1
1
5
1
1
1
1
1
1
1
1
1
1
1
1
1
1
1
1
1
1
1
1
1
1
1
1
1
1
1
1
1
1
1
1
1
1
1
1
1
1
1
1
1
1
1
1
1
1
1
1
1
1
1
1
5
5
1
1
1
1
1
1
1
1
1
1
1
1
1
1
1
1
14
1
1
1
1
1
1
1
1
14
1
1
1
1
1
1
1
1
1
1
1
14
1
1
1
1
5
1
5
1
1
1
1
5
1
1
1
1
1
5
5
1
1
1
5
1
1
1
1
1
1
1
14
1
1
1
1
5
5
1
1
1
1
1
5
1
1
1
5
5
1
1
1
1
1
1
1
1
1
1
1
1
1
1
1
5
1
5
5
1
1
1
1
1
1
1
1
1
1
5
5
1
1
1
1
1
1
1
1
1
1
1
1
1
1
1
1
1
1
1
1
1
1
1
1
1
1
1
1
1
14
1
1
1
1
1
1
5
1
1
1
1
16
1
1
16
13
13
13
1
1
1
1
5
1
14
1
1
1
28
5
5
5
16
28
1
1
14
1
5
14
1
5
5
1
1
1
1
1
1
1
1
1
1
1
1
1
1
1
1
1
1
1
1
1
1
1
5
1
1
1
1
1
1
1
1
5
1
1
5
1
1
5
5
1
1
1
1
1
1
1
1
1
1
1
5
1
1
1
1
1
5
1
1
1
1
1
1
1
1
1
1
1
1
1
1
1
1
1
1
1
5
5
1
1
5
1
5
1
1
1
1
5
1
1
1
1
1
1
1
1
1
1
1
1
1
5
1
1
1
1
1
1
1
1
1
1
1
1
1
1
1
1
1
1
1
5
1
5
1
1
1
1
5
1
1
5
1
1
1
1
1
1
1
1
5
5
1
1
1
1
1
1
1
1
1
1
1
1
5
1
1
1
5
1
1
28
5
5
5
5
5
5
5
28
1
1
1
1
1
1
1
1
1
5
1
1
1
1
1
5
5
1
1
1
1
5
1
1
1
1
1
1
1
1
1
1
1
1
5
1
1
1
1
1
1
1
1
1
1
1
1
1
1
28
5
5
5
28
1
1
5
1
1
1
1
1
1
1
1
1
1
1
1
1
1
1
1
1
1
1
1
1
1
5
5
1
1
1
1
1
1
1
1
1
1
1
5
5
1
5
1
1
1
1
1
1
1
5
1
1
1
1
1
1
1
1
1
5
5
1
1
1
1
1
1
1
1
1
1
1
1
1
1
1
1
1
5
1
1
1
1
1
1
1
1
1
1
28
5
5
5
5
28
1
1
1
1
5
1
1
1
1
1
1
1
1
1
1
1
1
1
1
1
1
1
1
1
1
1
1
1
1
1
5
5
1
1
1
1
5
5
1
1
1
1
1
1
5
1
6
1
1
1
1
1
5
5
1
1
1
5
1
1
1
1
1
1
1
1
5
1
1
1
1
1
1
1
1
1
1
1
1
1
1
1
1
1
1
1
1
1
1
1
1
1
1
1
1
1
1
1
1
1
1
1
1
5
1
1
1
1
1
1
1
1
1
1
5
1
1
1
1
1
1
1
1
1
1
1
1
1
1
1
1
1
1
1
1
1
1
1
1
1
1
1
1
5
1
1
1
1
1
1
1
1
1
1
1
1
1
1
1
1
1
1
1
1
1
