28
6
5
1
6
5
1
5
5
1
5
5
1
5
5
1
5
5
1
6
5
1
6
5
1
6
5
1
5
5
14
1
6
5
1
1
6
1
1
14
1
5
1
1
1
5
1
1
1
5
1
1
1
5
1
1
1
5
1
1
1
5
1
1
1
1
14
1
6
1
1
1
1
1
1
5
1
1
5
1
1
6
1
1
5
1
1
5
1
1
6
1
1
1
1
1
1
5
1
1
5
14
1
1
6
5
1
6
5
1
1
5
1
1
6
28
5
1
1
5
1
1
5
1
1
5
5
1
6
5
1
6
5
1
1
5
1
1
5
28
1
1
5
5
1
5
5
1
6
5
1
1
1
1
1
5
5
1
5
5
1
6
5
1
1
6
1
1
1
1
1
6
5
1
6
28
5
1
1
5
1
1
5
28
1
1
6
5
1
1
1
1
1
6
5
1
5
5
1
6
5
1
1
5
1
5
5
1
5
5
1
5
5
1
6
5
1
5
5
1
6
5
1
6
5
1
6
5
1
6
5
1
6
5
1
6
28
5
1
1
5
1
1
5
1
1
5
1
1
28
5
1
5
5
1
5
5
1
5
5
1
6
5
1
6
28
5
1
1
5
1
1
5
1
1
5
28
1
6
5
1
5
5
1
6
5
1
6
5
1
6
5
1
6
5
1
6
28
5
1
1
5
1
1
5
1
1
5
1
1
5
1
1
5
1
1
5
28
1
1
6
5
1
6
5
1
1
6
1
1
1
5
1
1
6
5
1
1
1
1
1
6
5
1
6
5
1
6
5
1
6
5
1
6
5
1
6
5
1
6
5
1
1
5
1
1
5
1
6
28
5
1
1
5
1
1
5
28
1
1
1
1
1
6
5
1
6
5
1
6
5
1
1
1
1
1
5
5
1
6
5
1
1
5
1
1
6
5
1
1
1
5
1
1
1
5
1
1
1
1
1
6
5
1
1
5
1
1
1
1
1
6
5
1
5
5
1
6
5
1
1
5
1
1
5
1
6
5
1
6
5
1
1
5
1
1
1
1
1
6
5
1
6
5
1
6
5
1
1
5
1
1
6
5
1
6
5
1
1
5
1
1
6
5
1
5
5
1
5
5
1
6
28
5
1
1
5
1
1
5
1
1
5
1
6
5
1
6
5
1
1
5
28
1
1
6
5
1
6
5
1
1
5
1
1
5
5
1
5
5
1
6
5
1
1
1
1
1
5
5
1
5
5
1
6
5
1
1
5
1
1
5
1
6
5
1
6
28
5
1
1
5
1
1
5
1
1
5
1
1
5
28
1
1
6
1
1
5
1
1
1
1
6
5
1
1
5
1
1
1
1
1
6
5
1
6
5
1
1
5
1
1
1
5
1
1
14
1
5
1
1
1
5
1
1
5
1
1
1
5
1
1
6
5
1
1
1
1
1
1
6
1
1
1
5
1
1
1
5
1
1
6
5
1
1
1
1
1
1
5
1
1
1
5
1
1
1
5
1
1
1
6
1
1
1
16
1
1
1
1
1
16
1
1
1
6
1
1
1
28
5
1
1
5
14
1
1
5
1
1
5
28
1
6
5
1
5
1
1
6
5
1
1
5
1
1
6
5
1
5
1
1
6
5
1
5
1
1
1
5
1
1
6
5
1
6
5
1
6
5
1
1
6
5
1
1
5
1
1
5
5
1
6
5
1
6
5
1
1
5
1
1
5
5
1
5
1
1
6
5
1
5
5
1
6
5
1
6
5
1
5
5
1
6
5
1
6
5
1
6
5
1
6
5
1
6
5
1
6
5
1
5
5
1
6
5
1
6
5
1
6
5
1
6
5
1
6
5
1
6
5
1
6
5
1
6
5
1
1
1
1
1
5
5
1
5
5
1
5
5
1
5
5
1
5
5
1
5
5
1
5
5
1
5
5
1
5
5
1
5
5
1
5
5
1
6
5
1
6
5
1
5
5
1
5
5
1
6
5
1
5
5
1
5
5
1
5
5
1
6
5
1
5
5
1
5
5
1
5
5
1
5
5
1
5
5
1
5
5
1
5
5
1
5
5
1
5
5
1
5
5
1
5
5
1
6
5
1
6
5
1
5
5
1
5
5
1
5
5
1
6
5
1
6
5
1
5
5
1
5
5
1
5
5
1
5
5
1
5
5
1
6
5
1
1
6
1
1
6
5
1
5
5
1
5
5
1
6
5
1
5
5
1
5
5
1
5
5
1
6
5
1
6
5
1
6
5
1
5
5
1
6
5
1
5
5
1
5
5
1
5
5
1
6
5
1
6
5
1
6
5
1
5
5
1
6
5
1
6
5
1
6
5
1
6
5
1
6
5
1
6
5
1
5
5
1
5
5
1
6
5
1
6
5
1
6
5
1
6
5
1
6
5
1
6
5
1
6
5
1
6
5
1
6
5
1
6
5
1
6
5
1
6
5
1
6
5
1
6
1
1
5
5
1
5
5
1
1
1
1
1
1
1
1
1
1
1
1
1
6
5
1
6
5
1
6
5
1
1
5
1
1
6
5
1
6
5
1
1
1
1
1
6
5
1
1
5
1
6
5
1
6
5
1
6
5
1
1
5
1
6
5
1
5
5
1
6
5
1
6
5
1
6
5
1
6
5
1
6
5
1
6
5
1
6
5
1
6
5
1
6
5
1
6
5
1
6
5
1
6
5
1
6
5
1
6
5
1
6
5
1
6
5
1
6
5
1
6
5
1
5
5
1
6
5
1
6
5
1
6
5
1
5
5
1
6
5
1
6
5
1
6
5
1
6
5
1
6
5
1
5
5
1
6
5
1
5
5
1
6
5
1
6
5
1
6
5
1
6
5
1
6
5
1
6
5
1
6
5
1
6
5
1
5
5
1
5
5
1
6
5
1
5
5
1
5
5
1
6
5
1
6
5
1
6
5
1
6
5
1
6
5
1
6
5
1
5
5
1
5
5
1
5
5
1
6
5
1
6
5
1
6
5
1
6
5
1
5
5
1
6
5
1
6
5
1
5
5
1
6
5
1
5
5
1
5
5
1
6
5
1
6
5
1
5
5
1
5
5
1
6
5
1
6
5
1
6
5
1
6
5
1
6
5
1
6
5
1
5
5
1
5
5
1
6
5
1
6
5
1
5
5
1
6
5
1
6
5
1
6
5
1
6
5
1
6
5
1
6
5
1
6
5
1
6
5
1
6
5
1
6
5
1
6
5
1
5
5
1
5
5
1
6
5
1
6
5
1
6
5
1
6
5
1
6
5
1
6
5
1
6
5
1
6
5
1
6
5
1
5
5
1
5
5
1
6
5
1
6
5
1
6
5
1
6
5
1
6
5
1
6
5
1
6
5
1
6
5
1
6
5
1
6
5
1
1
5
1
1
5
1
5
5
1
6
5
1
1
1
1
1
1
1
1
1
6
5
1
6
5
1
1
1
5
1
1
6
1
1
6
5
1
1
1
5
1
1
6
5
14
1
5
5
14
1
1
5
1
16
1
6
5
16
1
14
6
28
5
1
1
5
1
1
5
28
1
1
6
5
1
6
5
1
6
28
5
1
1
5
1
1
5
28
1
1
5
5
1
5
5
1
5
5
1
6
5
1
6
5
5
1
5
1
1
5
5
1
5
1
1
5
5
1
5
5
1
5
1
1
6
5
1
5
5
1
5
1
1
6
5
1
1
5
1
1
6
5
1
1
1
1
1
5
5
1
5
5
1
5
5
1
6
5
1
5
5
1
5
5
1
5
5
1
28
5
1
1
5
1
1
5
1
1
5
28
1
5
5
1
5
5
1
1
6
5
1
5
5
1
5
1
1
6
1
1
5
1
5
5
1
5
5
1
6
5
1
5
5
1
28
5
1
1
5
1
1
5
1
1
5
1
1
5
28
1
1
6
5
1
1
5
1
6
5
5
1
1
1
5
5
1
1
6
5
1
5
5
1
5
1
1
6
5
1
5
5
1
5
5
1
1
28
5
1
1
5
1
1
5
1
1
5
1
1
5
1
1
5
1
1
5
1
6
5
5
28
1
1
6
5
5
1
1
6
5
1
5
5
1
6
5
1
1
6
5
1
6
5
1
5
1
1
5
5
1
1
5
1
1
5
1
9
5
5
1
9
6
5
1
28
5
1
1
5
1
1
5
1
1
5
5
1
1
5
1
1
5
1
1
5
1
1
5
5
1
1
5
1
1
5
1
1
5
1
1
5
1
1
5
1
1
5
1
1
5
1
1
5
1
1
5
1
1
5
1
1
5
1
1
5
28
1
1
5
5
1
5
1
1
5
1
1
5
1
6
5
5
1
1
5
1
28
5
1
1
5
1
1
5
1
1
5
1
1
5
1
1
5
1
1
5
1
1
5
1
1
5
1
1
5
1
1
5
1
1
5
1
1
5
1
1
5
1
1
5
1
1
5
1
1
5
1
1
5
1
1
5
1
1
5
1
1
5
1
1
5
14
1
1
5
1
1
5
28
1
1
6
1
1
1
1
1
1
1
1
1
1
1
1
1
1
1
1
1
1
1
1
1
1
1
1
1
1
1
1
1
1
1
6
6
1
6
6
1
6
1
16
1
1
1
1
1
1
1
6
1
1
6
1
1
1
1
14
1
6
1
1
14
1
1
1
1
1
1
1
1
1
1
1
1
6
1
1
1
1
1
6
1
1
6
14
1
1
6
1
1
14
1
1
1
1
5
1
1
5
1
1
6
1
1
1
6
1
1
5
16
1
1
6
1
1
6
1
1
6
1
1
1
5
1
1
6
1
1
1
1
1
1
1
6
1
1
1
1
5
1
5
1
1
6
1
1
6
1
1
28
5
1
1
5
1
1
5
1
1
5
1
1
14
5
28
1
16
1
16
13
1
1
6
1
1
6
5
1
1
5
5
1
5
1
1
1
14
14
13
1
1
6
1
1
5
1
1
5
1
14
1
6
1
1
6
1
1
5
1
1
1
1
1
5
1
1
5
1
1
6
1
1
1
1
1
1
1
1
1
1
1
1
1
1
6
1
1
6
1
1
6
1
1
1
6
1
1
1
1
1
1
5
1
1
5
5
1
1
1
1
1
5
1
5
1
6
5
1
5
1
1
5
1
1
1
1
1
5
5
1
5
1
1
1
1
1
1
6
1
1
5
1
5
1
1
6
1
1
5
1
5
1
1
6
1
1
5
1
1
5
5
1
28
5
1
1
5
1
1
5
1
1
5
28
1
5
1
1
6
1
1
1
1
1
1
1
1
1
1
1
6
1
1
1
6
1
1
6
1
1
1
5
1
1
5
1
1
5
1
5
1
1
5
1
1
6
1
1
5
1
5
1
1
5
5
14
1
5
1
1
5
1
1
6
1
1
28
14
5
1
1
5
1
1
5
1
1
5
28
1
1
6
1
1
5
1
6
28
5
1
1
5
1
1
5
28
1
1
5
5
1
5
1
1
1
5
1
1
6
1
1
1
5
1
1
6
1
1
1
5
1
1
5
1
1
6
5
1
6
1
1
5
1
1
5
1
1
6
1
1
6
5
1
28
5
1
1
5
1
1
5
28
1
1
6
1
1
5
5
1
5
1
1
6
1
1
28
5
1
1
5
1
1
5
1
1
5
1
1
5
5
28
1
6
1
1
5
1
1
6
1
1
6
1
1
1
5
1
1
5
1
6
5
1
5
1
1
1
5
1
1
5
1
6
5
1
1
5
1
1
6
1
1
5
1
1
5
1
1
5
5
1
5
1
1
1
6
1
1
6
1
1
5
1
5
1
1
6
1
1
14
6
1
1
5
1
1
14
5
1
1
6
1
1
6
1
1
6
5
1
6
28
5
1
1
5
1
1
5
1
1
5
1
6
5
28
1
6
1
1
1
5
1
6
5
1
1
5
1
1
6
5
1
1
1
1
1
1
1
1
6
14
1
1
1
5
1
1
6
1
1
6
5
1
1
5
1
1
6
1
1
6
5
1
5
1
1
6
1
1
5
1
1
6
1
1
5
1
1
1
5
1
1
6
1
14
1
1
1
1
1
28
5
1
1
5
1
1
5
1
1
5
1
1
5
1
1
5
1
1
5
1
1
5
1
1
5
1
1
5
1
1
5
1
1
5
1
1
5
1
1
5
1
1
5
1
1
5
1
1
5
1
1
5
1
1
5
1
5
1
1
5
1
1
5
1
1
5
1
1
5
1
1
5
5
1
5
1
1
5
1
1
5
1
1
5
5
28
1
1
1
5
5
1
1
5
1
1
5
1
5
5
1
5
1
1
5
1
1
5
1
5
5
1
5
1
6
5
1
5
1
1
5
1
1
5
1
5
1
1
5
5
1
1
5
1
1
5
5
1
1
5
1
6
5
1
28
5
1
1
5
1
1
5
1
1
5
1
1
5
1
1
5
1
1
5
1
1
5
28
1
1
6
1
1
6
1
1
6
1
1
5
1
6
5
1
5
1
5
5
1
5
1
6
5
1
5
1
1
5
5
1
5
1
5
5
1
1
1
6
5
5
1
1
5
1
5
1
5
5
1
5
5
1
5
1
1
5
1
1
5
5
1
1
5
1
5
1
5
5
1
5
1
5
1
1
5
1
1
5
5
1
1
5
1
5
5
1
5
1
6
5
1
5
1
1
5
5
1
5
1
1
5
5
1
5
5
1
5
1
1
5
1
1
5
1
5
5
1
5
1
5
5
1
5
1
1
6
5
1
5
5
1
5
1
5
5
1
5
1
1
5
5
1
5
1
1
5
5
1
5
1
1
5
5
1
5
1
1
5
5
1
5
1
5
1
1
5
1
1
5
5
1
5
1
6
5
5
1
1
6
28
5
1
1
5
1
1
5
1
1
5
1
1
5
1
1
5
1
1
5
28
1
6
5
1
5
1
6
5
1
5
1
1
