28
1
1
1
1
1
1
1
1
1
1
1
1
1
1
1
1
1
1
1
1
1
1
1
1
1
1
1
1
1
1
1
1
1
1
1
1
1
1
1
1
1
1
1
1
1
1
1
1
1
1
1
1
1
1
1
1
1
1
1
1
1
1
1
1
1
1
1
1
1
1
1
1
1
1
1
1
1
1
1
1
1
1
1
1
1
1
1
1
1
1
1
1
1
1
1
1
1
1
1
1
1
1
1
1
1
1
1
1
1
1
1
6
1
1
1
1
8
1
1
1
1
1
1
1
1
1
1
1
1
1
1
1
1
1
1
1
1
1
1
1
1
1
1
1
1
1
1
1
1
1
1
1
1
1
1
1
1
1
1
1
1
1
1
1
1
1
1
1
1
1
1
1
1
1
1
1
1
1
1
1
1
1
1
1
1
1
1
1
1
1
1
1
1
1
1
1
1
1
1
1
1
1
1
6
1
1
1
1
1
1
1
1
1
1
1
1
1
6
1
6
1
6
1
5
1
6
1
6
1
6
1
1
1
6
1
6
1
6
1
6
1
6
1
6
1
6
1
6
1
6
1
6
1
6
1
5
1
6
1
6
1
6
1
1
1
1
1
1
1
1
1
6
1
6
1
28
5
1
5
1
5
28
1
6
1
1
1
6
1
6
1
6
1
6
1
5
1
6
1
6
1
6
1
6
1
6
1
6
1
5
1
5
1
6
1
6
1
1
1
1
1
1
1
6
1
5
1
1
1
6
1
6
1
6
1
6
1
6
1
6
1
1
1
1
1
6
1
5
1
5
1
6
1
6
1
6
1
6
1
1
1
1
1
6
1
5
1
5
1
6
1
6
1
6
1
6
1
6
1
6
1
6
1
6
1
6
1
6
1
5
1
6
1
1
1
1
1
6
1
5
1
6
1
6
1
6
1
6
1
6
1
6
1
6
1
6
6
1
1
1
1
6
1
6
1
6
1
6
1
6
1
6
1
6
1
6
1
6
1
1
1
1
1
1
1
6
1
5
1
6
1
1
1
1
1
1
1
6
1
6
1
5
1
1
1
1
1
1
1
1
1
6
1
6
1
6
1
5
1
1
1
1
1
1
1
1
1
1
1
1
1
28
5
1
5
1
5
28
1
6
1
1
1
6
1
1
1
1
1
1
1
6
1
5
1
1
1
1
1
1
1
1
1
6
1
5
1
1
1
1
1
1
1
1
1
1
1
1
1
1
1
1
1
6
1
5
1
5
1
6
1
1
1
1
1
6
1
5
1
5
1
1
1
1
1
1
1
1
1
1
1
1
1
5
1
5
1
1
1
1
1
1
1
1
1
1
1
1
1
28
5
1
5
1
5
28
1
1
1
1
1
1
1
6
1
5
1
5
1
1
1
1
1
1
1
1
1
1
1
6
1
5
1
1
1
1
1
1
1
1
1
1
1
1
8
1
1
1
1
1
1
1
1
8
1
1
1
1
1
1
1
1
1
1
1
1
1
1
1
1
1
1
1
1
1
1
8
1
1
1
1
1
1
1
1
1
1
1
1
1
1
1
1
1
1
1
1
1
1
1
1
8
1
1
1
1
1
8
1
1
1
1
1
1
1
1
1
1
1
1
1
1
1
1
1
1
1
1
1
1
1
1
1
1
1
1
1
1
1
1
1
1
1
1
8
1
1
1
1
1
1
1
1
1
1
1
1
1
1
1
1
1
1
1
1
1
1
1
1
1
1
1
1
1
1
1
1
1
1
1
1
1
1
1
1
1
1
1
1
1
1
1
1
1
1
1
1
1
1
1
1
1
1
1
1
1
1
1
1
1
6
1
1
1
1
1
1
1
1
1
1
1
8
1
1
1
1
1
1
5
1
1
1
1
1
1
1
1
1
1
1
6
1
5
1
5
1
6
1
6
1
6
1
6
1
6
1
5
1
5
1
6
1
6
1
6
1
28
5
1
5
1
5
28
1
6
1
6
1
5
1
1
1
5
1
6
1
28
5
1
5
1
5
28
1
6
1
6
1
6
1
6
1
28
5
1
5
1
5
28
1
1
1
1
1
6
1
6
1
6
1
28
5
1
5
1
5
28
1
6
1
6
1
6
1
6
1
6
1
5
1
5
1
6
1
1
1
1
1
1
1
5
1
5
1
1
1
1
1
1
1
1
1
8
1
5
1
1
1
6
1
6
1
5
1
6
1
6
1
6
1
5
1
5
1
6
1
6
1
6
1
6
1
6
1
6
1
6
1
6
1
5
1
6
1
5
1
6
1
6
1
6
1
6
1
5
1
6
1
6
1
1
1
1
1
1
1
6
1
6
1
5
1
6
1
1
1
1
8
1
1
1
1
6
1
5
1
1
1
1
1
1
1
1
1
1
1
1
1
1
1
5
1
5
1
1
1
1
1
1
1
1
5
1
1
1
5
1
6
1
6
1
6
1
6
1
6
1
6
1
6
1
6
1
6
1
1
1
6
1
6
1
6
1
6
1
6
1
1
1
6
1
6
1
6
1
6
1
6
1
6
1
6
1
6
1
6
1
6
1
1
1
1
1
1
1
1
6
1
1
28
5
1
5
1
5
28
1
6
1
1
1
1
1
1
1
1
1
5
1
1
1
1
1
1
1
1
1
6
1
28
5
1
5
1
5
28
1
1
1
1
1
1
1
1
1
6
1
5
1
5
1
6
8
1
1
1
1
1
1
1
1
5
1
6
1
1
8
1
1
1
1
1
1
1
1
8
1
1
1
1
1
1
1
1
1
1
1
1
1
1
1
1
1
1
1
1
1
1
1
1
1
1
1
1
1
1
1
1
1
1
1
1
1
1
1
1
1
1
1
1
1
1
1
1
1
1
1
1
1
1
1
1
1
1
1
1
1
1
1
1
1
1
1
1
1
1
1
1
1
1
1
1
1
1
1
1
1
1
1
1
1
1
1
1
1
1
1
1
1
1
1
1
1
1
1
1
1
1
1
1
1
1
1
1
1
1
1
1
1
1
1
1
1
1
1
1
1
1
1
1
1
1
1
1
1
1
1
1
1
1
1
1
1
1
1
1
1
1
1
1
1
1
1
1
1
1
1
1
1
1
1
1
1
1
1
1
1
1
1
1
1
1
1
1
1
1
1
1
1
1
1
1
1
1
1
1
1
1
1
1
1
1
1
1
1
1
1
1
1
1
1
1
1
1
1
1
1
1
1
1
1
1
6
1
6
1
5
1
5
1
6
1
6
1
6
1
6
1
28
5
1
5
1
5
1
5
28
1
6
1
6
1
6
1
6
1
6
1
6
1
6
1
28
5
1
5
1
5
28
1
6
1
1
1
1
1
1
1
6
1
28
5
1
5
1
5
1
5
1
5
28
1
1
1
1
1
1
1
1
1
6
1
5
1
1
1
1
1
1
1
6
1
5
1
1
1
5
1
5
1
6
1
6
1
6
1
6
1
6
1
5
1
5
1
6
1
6
1
1
1
1
1
6
1
5
1
5
1
6
1
6
1
6
1
6
1
6
1
5
1
6
1
6
1
1
1
1
1
1
1
1
1
6
1
1
1
6
1
1
1
1
1
8
1
5
1
1
1
1
1
1
1
1
1
6
1
28
5
1
5
1
5
28
1
1
1
1
1
1
1
1
1
6
1
5
1
5
1
1
1
1
1
1
1
1
1
1
1
6
1
1
1
5
1
1
1
1
1
5
1
1
1
1
1
1
1
1
1
8
5
1
1
1
1
6
1
6
1
1
1
1
1
1
1
1
1
6
1
28
5
5
6
28
1
1
1
1
1
1
1
6
1
5
1
1
1
1
1
1
1
1
1
1
6
5
1
6
1
1
1
1
1
1
1
1
1
5
1
6
1
6
1
1
1
1
1
1
1
8
1
5
1
1
8
1
1
1
1
1
1
1
1
1
1
1
1
1
1
1
1
1
1
1
1
1
1
1
1
1
1
1
1
1
1
1
1
1
1
8
1
1
1
1
1
1
1
1
1
1
1
1
1
1
1
1
1
1
1
1
1
1
1
1
1
1
1
1
1
1
1
1
1
1
1
1
1
1
1
1
1
1
1
1
1
1
1
1
1
1
1
1
1
1
1
1
1
1
1
1
1
1
1
1
1
1
1
1
1
1
1
1
1
1
1
1
1
1
1
1
1
1
1
1
1
1
1
1
1
1
1
1
1
1
1
1
1
1
1
1
1
1
8
1
1
1
1
1
1
1
1
1
1
1
1
1
1
1
1
1
1
1
1
1
1
1
1
1
1
1
1
1
1
1
1
1
1
1
1
1
1
1
1
1
1
1
1
1
1
1
1
1
1
1
1
1
1
1
1
1
1
1
1
1
1
1
1
1
1
1
1
1
1
1
1
6
1
6
1
6
1
28
5
1
5
1
5
1
5
28
1
6
1
6
1
6
1
6
28
5
5
5
5
28
1
6
1
1
1
6
1
28
5
1
5
1
5
28
1
6
1
6
1
6
1
5
1
6
1
5
1
6
1
6
1
28
5
1
5
1
5
1
5
1
5
1
5
28
1
6
1
5
8
5
1
1
6
1
5
1
1
1
1
1
1
1
1
1
1
1
6
1
5
1
1
1
1
1
1
1
1
1
1
1
6
1
1
1
5
1
5
1
6
1
6
1
6
1
1
1
1
1
1
1
6
1
6
1
1
1
1
1
1
1
1
1
1
1
6
1
5
1
5
1
6
1
1
1
1
1
1
1
1
1
5
1
1
1
5
1
6
1
6
1
6
1
6
1
6
1
6
1
5
1
6
1
1
1
1
1
1
1
1
1
1
1
6
1
5
1
1
1
1
1
1
1
1
1
1
1
5
1
1
1
1
1
1
1
1
1
1
1
1
1
5
1
1
1
6
1
5
1
6
1
6
1
6
1
6
1
1
1
1
1
6
1
6
1
6
1
1
1
1
1
1
1
6
1
5
1
6
1
6
1
6
1
6
1
5
1
1
1
1
1
1
1
1
1
6
1
5
1
1
1
1
1
1
1
1
1
1
1
6
1
1
1
1
1
1
1
1
1
1
1
1
1
1
1
1
1
1
1
1
1
1
1
1
1
1
1
1
1
1
1
1
1
1
1
1
1
1
1
1
1
1
1
1
1
1
1
1
1
1
1
1
1
1
1
1
1
1
1
1
1
1
1
1
1
1
1
1
1
1
1
1
1
1
1
1
1
1
1
1
1
1
1
1
1
1
1
1
1
1
1
1
1
1
1
1
1
1
1
1
1
1
1
1
1
1
1
1
1
1
1
1
1
1
1
1
1
1
1
1
1
1
1
1
1
1
1
1
1
1
1
1
1
1
1
1
1
1
1
1
1
1
1
1
1
1
1
1
1
1
1
1
1
1
1
1
1
1
1
1
1
1
1
1
1
1
1
1
1
1
1
1
1
1
1
1
1
1
1
1
1
1
1
1
1
1
1
1
1
1
1
1
1
1
1
1
1
1
1
1
1
1
1
1
1
1
1
1
1
1
1
1
1
1
1
1
1
1
1
1
1
1
1
1
1
1
1
6
1
6
1
6
1
6
1
6
1
6
1
6
1
6
1
5
1
1
1
6
1
6
1
5
1
6
1
5
1
6
1
5
1
6
1
6
1
6
1
6
1
6
1
5
1
6
1
5
1
6
1
6
1
6
1
6
1
6
1
5
1
6
1
1
1
1
1
1
1
6
1
5
1
1
1
1
1
6
1
1
1
1
1
1
1
1
1
6
1
5
1
1
1
28
5
1
5
1
5
28
1
6
1
1
1
1
1
1
1
1
1
28
5
1
5
1
5
28
1
6
1
1
1
1
1
1
1
1
1
1
1
6
1
5
6
5
1
1
6
6
1
6
1
6
1
6
1
5
1
6
1
1
1
1
1
1
1
6
1
5
1
1
1
1
1
1
1
6
1
6
1
5
1
6
1
1
1
6
1
1
1
6
6
5
1
6
1
6
1
1
1
1
1
1
1
6
1
1
1
6
1
6
1
5
8
1
1
1
1
1
1
1
1
6
1
5
1
1
1
1
1
1
1
1
1
1
1
1
1
5
1
1
1
6
1
6
1
8
1
5
1
6
1
6
1
1
1
1
1
1
1
1
1
1
1
1
1
6
1
1
1
1
1
1
1
1
1
1
1
1
1
6
1
1
1
6
1
1
1
1
1
1
1
1
1
1
1
6
1
5
1
4
5
1
1
1
1
1
1
1
1
1
1
1
1
1
1
1
1
1
1
1
1
1
1
1
1
1
1
1
1
1
1
1
1
1
1
1
1
1
1
1
1
1
1
1
1
1
1
1
1
1
1
1
1
1
1
1
1
1
1
1
1
1
1
1
1
1
1
1
1
1
1
1
1
1
1
1
1
1
1
1
1
1
1
1
1
1
1
1
1
1
1
1
1
1
1
1
1
1
1
1
1
1
1
1
1
1
1
1
1
1
1
1
1
1
1
1
1
1
1
1
1
1
1
1
1
1
1
1
1
1
1
1
4
4
1
1
1
1
1
1
1
1
1
1
1
1
1
1
1
1
1
1
1
1
1
1
1
1
1
1
1
1
1
1
1
1
1
1
1
1
1
1
1
1
1
1
6
1
1
1
1
1
1
1
1
1
1
1
1
1
1
1
1
1
1
1
1
1
1
1
1
6
1
28
5
1
5
1
5
28
1
1
1
6
1
6
1
6
1
6
1
5
1
6
1
6
1
6
1
5
1
5
1
6
1
5
1
5
1
5
5
1
1
1
1
1
1
5
1
1
1
5
1
1
1
1
1
1
1
1
5
1
1
1
5
1
1
1
1
1
1
5
1
1
1
1
1
1
5
1
1
1
1
1
1
1
1
6
1
1
1
1
1
5
1
1
1
5
1
6
1
6
1
6
1
6
1
1
1
8
1
6
1
1
1
1
1
1
1
1
1
1
1
1
1
1
1
5
1
1
1
5
1
6
1
1
1
1
1
1
1
1
1
1
1
5
1
5
1
1
1
1
1
1
1
1
1
6
1
5
1
1
1
5
1
1
1
1
1
1
1
1
1
1
1
6
1
5
1
1
1
5
1
1
1
1
1
1
1
1
1
6
1
6
1
5
1
5
1
6
1
1
1
1
1
1
1
1
1
6
1
6
1
5
1
1
1
1
1
1
1
1
1
1
1
6
1
5
1
6
1
1
1
1
1
1
1
1
1
1
1
1
1
1
1
6
1
6
1
5
1
1
1
1
1
1
1
1
1
1
1
1
1
8
1
1
1
1
1
1
1
1
1
1
1
5
1
5
1
1
1
1
1
1
1
1
1
1
1
5
1
5
1
1
1
1
1
1
1
1
1
1
1
1
1
1
1
5
1
6
1
6
1
1
1
1
1
1
1
1
1
1
1
1
1
6
1
5
1
6
1
1
1
1
1
1
1
1
1
1
1
1
1
1
1
1
1
6
1
1
1
1
8
1
1
1
1
1
1
1
