28
2
2
2
2
2
2
2
5
2
2
2
5
2
2
2
2
2
2
2
2
2
2
2
2
2
2
2
2
2
2
2
2
2
2
2
2
2
2
2
2
2
2
2
2
5
2
2
2
2
2
2
2
2
2
2
2
2
2
2
2
2
2
2
2
2
2
2
2
2
2
2
2
2
2
2
2
2
2
2
2
2
2
2
2
2
2
2
2
2
2
2
2
2
2
2
2
2
14
2
14
2
28
5
2
2
5
14
2
2
14
5
2
2
5
2
2
5
28
2
2
2
2
2
2
2
5
2
2
2
2
2
2
2
2
2
2
2
2
2
2
2
2
2
2
2
2
2
2
2
2
5
2
2
2
2
2
2
5
2
2
2
2
2
2
2
5
2
2
2
5
2
2
2
5
2
2
2
2
2
2
2
2
2
2
16
2
2
2
2
2
5
2
2
2
2
2
5
2
2
2
2
2
2
2
2
2
5
2
2
5
2
2
2
5
5
2
2
2
2
2
2
2
2
5
2
2
2
5
2
2
5
2
2
2
2
2
2
2
2
2
2
2
2
2
2
2
5
2
2
2
2
2
5
2
2
2
2
2
2
2
5
2
2
2
2
2
5
2
2
2
2
2
2
2
2
2
2
2
2
5
2
2
2
2
2
2
5
2
2
2
5
2
2
2
2
5
2
2
2
2
2
5
2
2
2
2
2
2
2
2
2
2
2
2
5
5
2
2
16
2
2
2
2
2
2
2
2
2
2
2
2
2
2
28
5
2
2
5
2
2
5
2
2
5
28
2
2
2
2
2
2
2
2
2
5
2
2
2
5
2
2
2
2
5
2
2
2
2
2
2
2
2
2
2
2
2
2
2
2
2
2
2
2
2
2
2
2
2
5
5
2
2
5
2
2
2
2
2
2
2
2
2
2
2
2
2
2
2
2
5
13
22
13
2
2
2
2
2
5
2
2
2
5
2
2
2
2
2
2
2
2
2
5
2
2
2
2
2
2
2
2
2
2
2
2
28
5
5
5
28
2
2
2
2
2
28
5
2
2
5
2
2
5
28
2
2
2
2
2
2
5
2
2
5
2
2
2
2
2
2
2
2
2
2
2
2
2
2
5
2
2
2
2
2
2
2
2
2
2
2
2
2
2
2
2
2
2
2
2
2
5
2
2
2
5
2
2
2
2
2
2
2
2
2
5
2
2
2
2
2
2
2
2
5
2
2
2
5
2
2
2
2
2
2
2
2
2
2
2
2
16
2
2
5
2
2
2
2
2
2
2
2
2
5
2
2
2
2
2
2
2
2
2
2
2
2
5
2
2
2
5
2
2
2
2
2
2
5
2
2
2
2
2
2
5
2
2
2
2
2
5
2
2
2
16
2
2
2
5
2
2
2
2
2
2
2
2
2
5
2
2
2
2
5
2
2
2
2
2
2
2
2
2
2
2
2
2
2
2
2
2
5
2
5
2
2
2
2
2
2
16
2
2
5
2
2
2
2
2
2
2
2
2
5
2
2
2
2
2
2
2
2
2
2
2
2
2
2
2
2
2
2
2
2
2
2
5
2
2
2
2
2
5
2
2
2
2
2
5
2
2
2
2
2
28
5
2
2
5
2
2
5
2
2
5
28
2
2
2
2
2
5
2
2
2
2
2
5
2
2
2
2
2
5
2
2
5
2
2
2
2
2
2
2
2
2
2
2
2
2
2
2
2
2
2
2
2
2
2
2
2
2
2
2
2
2
2
2
2
2
5
2
2
2
2
2
2
2
2
2
2
2
2
2
2
2
2
2
2
2
2
2
5
2
2
2
2
2
2
2
2
2
2
2
2
2
2
2
2
5
2
2
2
2
2
5
2
2
2
5
2
2
2
2
2
2
2
2
2
2
2
2
2
2
2
5
2
2
2
28
5
2
2
5
2
2
5
2
2
5
2
2
5
28
2
2
2
2
2
2
2
2
2
5
2
2
2
2
2
2
2
2
2
2
5
2
2
2
2
2
2
2
2
5
2
2
2
2
2
2
2
5
2
2
2
2
2
5
2
2
2
2
2
2
2
2
2
2
2
2
2
5
2
2
2
5
2
2
2
2
2
5
2
2
2
2
2
2
2
2
2
5
2
2
2
2
2
2
2
2
2
2
2
2
2
2
2
2
2
5
2
2
2
2
2
2
2
2
2
2
2
2
2
2
2
2
2
2
2
2
2
2
2
2
2
2
2
2
2
5
2
2
2
2
5
2
2
2
2
2
2
2
2
2
2
2
5
2
2
2
2
2
2
2
2
2
5
2
2
5
2
2
2
2
2
2
5
2
2
2
2
2
5
2
2
2
2
2
2
2
5
2
2
2
2
2
2
2
5
2
2
2
2
2
5
2
2
2
2
2
2
2
2
2
2
2
2
2
5
2
2
2
2
2
5
2
2
2
2
5
2
2
2
2
2
2
2
28
5
5
5
28
2
2
2
2
2
5
2
2
2
2
2
2
2
2
2
2
5
5
2
2
2
2
2
2
5
2
2
2
2
5
2
2
2
2
2
2
2
2
2
2
5
2
2
2
2
2
2
2
5
2
2
5
2
2
2
2
2
2
2
2
2
5
2
2
2
2
2
2
2
2
2
2
2
2
2
5
2
2
2
5
2
2
2
2
2
2
2
5
2
2
2
5
2
2
2
2
2
2
2
2
2
2
2
2
2
2
2
2
5
2
2
2
2
2
5
2
2
2
2
2
2
2
2
2
5
2
2
2
2
5
2
2
2
2
2
2
2
2
2
2
2
2
5
2
2
2
2
2
2
2
2
2
2
2
2
2
5
2
2
2
2
2
2
2
2
2
5
2
2
2
2
2
2
2
2
2
5
2
2
2
5
5
2
2
2
2
2
2
2
2
2
2
2
2
2
2
2
2
2
2
2
2
2
5
2
2
2
2
2
2
2
2
2
2
2
2
2
5
2
2
5
2
2
2
2
2
5
2
2
2
2
2
5
2
2
2
2
2
2
2
2
2
2
2
2
2
5
2
2
2
2
2
5
2
2
2
2
2
2
2
2
2
2
5
2
2
2
2
2
5
2
2
2
2
2
2
2
2
2
2
2
2
2
2
2
2
2
2
2
2
2
2
2
2
2
2
2
2
2
2
2
2
2
2
2
2
2
2
2
2
2
2
5
2
2
2
2
2
2
5
2
2
2
2
2
5
2
2
2
2
2
28
5
2
2
5
2
2
5
28
2
2
2
2
2
5
2
2
2
2
2
2
2
2
5
2
2
2
2
2
2
5
2
2
2
2
2
2
2
2
2
2
2
2
2
2
2
2
5
5
2
2
2
2
2
2
2
2
2
2
2
2
2
2
2
5
2
2
2
2
2
5
2
2
2
2
2
2
2
2
2
2
2
2
2
2
2
2
2
2
5
2
2
2
2
2
2
2
5
2
2
2
2
2
2
5
2
2
2
2
2
2
5
2
2
2
5
2
2
2
2
2
5
2
2
2
2
2
2
5
2
2
2
2
2
2
2
2
2
5
2
2
2
2
2
2
5
2
2
2
2
2
2
2
2
2
2
2
5
2
5
2
2
2
2
2
5
2
2
2
2
2
2
2
2
2
2
2
2
5
2
2
2
2
28
5
2
2
5
2
2
5
28
2
2
2
2
2
5
2
2
2
2
2
5
5
2
2
28
5
2
2
5
2
2
5
28
2
2
2
2
2
2
2
2
2
2
2
2
2
2
2
2
2
2
2
2
2
2
2
2
2
2
2
2
5
2
2
2
2
2
5
2
2
2
2
2
2
2
2
2
2
5
2
2
5
2
2
2
2
2
2
2
2
2
2
2
2
2
2
2
2
2
2
5
2
2
2
2
2
2
2
2
2
2
2
2
2
2
2
2
2
2
2
2
2
2
2
2
2
2
2
2
2
2
2
2
5
2
2
2
2
2
2
2
2
2
2
2
2
2
2
2
2
2
2
2
2
2
2
2
2
2
5
2
2
2
2
2
2
2
2
2
2
2
2
5
2
2
5
2
2
2
2
2
2
2
2
2
2
2
5
5
2
2
2
2
2
2
2
2
2
2
2
2
2
2
2
2
2
2
2
2
2
2
2
2
5
2
2
5
2
2
2
2
2
2
2
2
2
2
2
5
2
2
2
2
2
5
2
2
2
2
2
5
2
2
5
2
2
2
2
2
5
2
2
2
2
5
2
2
2
2
2
2
2
2
2
2
2
2
2
2
2
2
2
2
2
2
2
5
2
2
2
2
2
5
2
2
2
2
2
5
2
2
2
2
2
2
2
2
2
2
2
2
2
2
2
2
2
2
2
2
5
2
2
2
2
2
5
2
2
2
2
2
2
2
2
2
2
2
2
2
2
2
2
5
2
2
2
5
2
2
2
5
2
2
5
2
2
2
2
2
2
5
2
2
2
2
2
2
2
2
2
2
2
2
2
2
2
2
2
2
2
2
5
2
2
2
2
2
2
2
2
2
2
2
2
2
2
5
2
2
2
2
2
5
2
2
2
2
2
5
2
2
2
2
2
28
5
2
2
5
2
2
5
28
2
2
2
2
2
2
2
2
5
2
2
5
2
2
2
2
2
5
2
2
2
2
2
2
2
2
2
2
2
2
2
2
5
2
2
5
2
2
2
2
2
2
2
5
2
2
2
5
2
2
2
2
2
2
2
2
5
2
2
2
2
2
2
2
5
2
2
2
2
2
2
2
2
2
5
2
2
2
2
2
2
2
2
2
2
2
2
2
2
2
2
2
2
2
2
2
2
2
2
2
2
2
2
2
2
2
2
2
2
2
2
2
2
2
2
5
6
2
2
2
2
2
2
2
2
2
2
2
2
2
2
2
2
2
2
2
2
5
2
2
2
2
2
2
2
2
2
2
2
2
2
2
2
2
2
2
5
2
2
2
2
2
2
5
2
2
2
2
5
2
2
2
2
2
5
2
2
2
2
2
5
2
2
2
2
2
5
2
2
2
2
2
2
5
2
2
2
2
5
2
2
2
5
2
2
2
2
2
2
2
2
2
2
2
2
2
2
2
2
2
2
2
2
2
2
2
2
2
2
2
2
2
2
2
2
2
2
2
2
2
2
5
2
2
2
2
2
5
2
2
2
2
2
2
5
2
2
2
2
2
5
2
2
2
2
2
2
5
2
2
2
2
2
28
5
2
2
5
2
2
5
28
2
2
2
2
2
