28
12
12
12
12
12
38
12
12
12
12
12
12
12
12
12
12
12
12
12
12
12
12
12
12
12
12
12
12
12
12
12
12
12
12
12
12
12
12
12
12
12
12
12
12
12
5
12
12
12
12
12
12
12
12
12
12
12
12
12
12
12
12
12
12
12
12
12
12
12
12
12
12
12
12
12
12
12
12
12
12
12
12
12
12
12
12
12
12
12
12
12
12
12
12
12
38
5
38
5
12
12
12
12
38
28
5
38
5
38
5
38
5
28
12
12
12
12
12
12
12
12
12
12
12
12
12
12
12
12
12
12
12
12
12
12
12
12
12
5
38
12
12
12
12
12
12
12
12
12
12
12
12
12
12
12
12
12
12
12
12
12
12
12
12
12
12
12
12
12
12
12
12
12
12
12
12
12
12
12
12
12
12
12
12
12
12
12
12
12
12
12
12
12
12
38
5
38
1
38
12
12
12
12
12
12
12
12
12
12
12
12
12
12
12
12
12
12
12
38
38
1
5
12
12
12
12
38
28
1
1
5
28
12
12
12
12
12
12
12
12
12
12
12
12
12
12
12
12
12
38
12
38
38
1
5
38
38
38
5
12
12
12
12
12
12
12
38
12
12
12
12
12
12
12
12
12
12
12
12
12
12
12
12
12
12
12
12
12
12
38
5
38
5
38
12
12
12
12
12
12
12
12
12
12
12
12
12
12
12
12
12
12
12
12
12
38
38
5
12
5
38
28
1
1
1
38
1
5
28
12
12
12
12
12
12
12
12
12
12
12
12
12
12
12
12
12
12
12
12
12
12
12
12
12
12
12
12
12
12
12
38
28
5
12
5
12
5
28
38
38
5
12
12
12
12
12
12
12
12
12
12
12
12
12
12
38
38
5
12
5
38
38
38
38
12
12
12
12
12
12
12
12
12
12
12
12
12
12
12
12
12
12
12
12
12
12
12
12
12
12
12
12
12
12
12
12
12
12
12
12
38
5
38
5
12
12
12
12
12
12
12
12
12
12
12
12
12
12
12
12
12
12
12
12
12
12
12
12
12
12
12
5
12
5
5
12
12
12
12
12
12
12
12
12
12
12
12
5
12
12
12
12
12
12
12
12
12
12
12
12
12
12
12
12
12
12
12
12
12
12
12
12
12
38
28
5
38
5
12
5
12
5
5
28
38
38
38
12
12
12
12
12
12
12
12
12
12
12
12
12
12
28
5
5
5
28
12
12
12
12
5
38
38
28
1
1
1
38
28
12
12
12
5
12
12
12
12
12
12
12
5
38
38
12
12
5
38
12
12
12
5
5
38
28
1
1
1
38
5
28
12
12
12
12
5
12
12
12
5
38
12
38
38
1
38
28
1
1
38
28
12
12
12
12
12
12
12
12
38
12
12
12
12
12
12
12
38
38
5
38
1
12
12
12
12
12
12
12
12
12
12
12
12
12
12
12
12
12
5
12
12
38
38
12
12
12
38
12
12
12
12
12
12
12
12
12
12
12
12
12
12
12
12
12
12
12
12
12
12
12
12
12
12
12
12
12
12
12
12
38
38
5
12
5
1
38
1
12
12
12
12
12
12
12
12
12
12
38
38
38
5
12
12
12
12
12
12
12
12
12
12
12
12
12
12
12
12
12
12
12
12
12
12
12
12
12
12
12
12
12
12
12
12
12
12
12
12
12
12
38
28
5
12
5
38
5
28
38
38
38
38
12
12
12
12
12
12
12
12
12
12
12
12
12
12
12
12
12
12
12
12
12
12
12
12
12
38
12
12
12
12
12
12
12
12
12
12
12
12
12
12
12
12
12
12
12
12
12
12
12
12
12
12
12
12
12
12
12
12
12
12
12
12
12
12
12
12
12
12
12
12
12
12
12
12
12
12
12
12
12
12
12
12
12
12
12
12
12
12
12
12
12
12
12
12
12
12
12
12
12
12
12
12
12
12
12
12
12
12
12
12
12
5
38
12
38
38
5
5
38
38
38
28
5
12
5
38
5
28
12
12
5
12
12
12
12
12
12
12
12
12
12
12
12
5
38
12
12
12
5
12
12
5
12
12
12
12
5
12
12
12
12
12
5
12
12
12
12
12
5
38
38
38
38
5
12
12
12
12
28
5
12
5
12
5
12
5
28
12
38
12
12
12
12
12
12
12
5
38
38
12
38
12
12
12
12
12
12
5
12
12
12
12
12
12
5
12
12
12
12
12
38
12
12
12
5
14
12
12
12
14
12
5
38
28
1
1
1
1
1
1
1
1
1
5
1
1
1
1
1
38
1
1
28
12
12
12
38
28
1
1
1
1
38
1
1
1
1
38
1
1
38
1
1
5
38
28
12
12
12
12
12
12
12
12
38
1
5
38
28
1
1
1
1
38
1
1
28
5
38
5
38
5
28
38
38
38
1
38
1
1
5
38
14
5
12
38
14
38
28
12
12
38
1
5
38
28
1
1
1
38
38
12
38
28
12
12
12
12
38
28
5
38
5
12
5
38
5
28
12
12
12
12
12
12
12
12
12
12
12
38
28
1
1
38
38
38
1
1
1
1
38
1
5
1
1
5
38
38
28
12
12
12
12
5
1
38
1
12
12
12
5
38
38
5
1
38
38
28
1
1
1
1
1
38
1
5
38
1
1
38
1
1
5
28
12
12
12
12
38
5
1
38
28
1
1
1
38
1
1
1
5
38
1
1
1
1
1
1
1
1
38
1
5
1
1
1
38
5
1
5
12
1
1
1
1
28
12
12
38
28
1
1
1
1
1
38
1
38
38
1
5
38
38
28
12
12
38
5
5
38
28
1
1
1
1
1
1
1
1
1
28
12
12
38
28
1
1
38
38
1
1
5
38
1
1
1
1
1
1
1
1
1
38
38
38
1
1
1
1
1
1
1
1
1
38
1
5
1
5
38
38
1
1
1
1
1
1
5
1
1
1
1
1
1
1
1
5
38
1
1
1
1
5
1
1
1
12
38
1
5
5
1
1
28
12
12
38
1
5
5
38
5
28
1
1
5
1
38
1
1
5
38
1
5
38
1
1
38
5
38
12
5
38
1
1
1
28
12
12
12
38
28
1
1
1
5
38
28
12
12
38
12
38
28
1
1
1
38
1
1
1
1
1
1
5
38
38
38
5
38
1
1
38
1
1
28
12
12
12
38
12
12
12
12
12
12
38
5
38
5
38
28
1
1
1
28
12
12
38
28
1
1
5
38
5
12
38
1
5
38
28
12
12
12
12
12
12
12
12
12
38
1
12
38
12
12
12
12
38
38
12
12
12
12
12
12
12
12
12
12
12
12
12
12
12
12
12
12
12
12
12
12
12
12
12
12
12
12
12
12
12
12
12
12
12
12
12
12
12
12
12
12
12
12
12
12
12
12
12
12
12
12
12
12
38
38
38
1
38
38
12
12
12
12
12
12
12
12
12
12
12
12
12
12
12
12
12
12
12
12
12
12
12
12
12
12
12
12
12
12
12
38
12
12
12
12
12
12
38
1
38
28
1
1
1
38
28
12
12
12
38
38
1
12
12
12
12
12
12
12
38
12
12
38
38
12
12
12
38
38
38
12
12
38
38
12
12
12
12
12
12
12
12
12
12
12
38
38
12
12
12
12
12
12
12
38
1
5
12
38
12
12
38
12
38
38
1
38
12
12
12
12
12
12
12
12
12
12
12
12
12
12
12
12
38
38
12
12
38
28
1
1
5
38
1
28
12
12
12
12
12
38
38
38
12
12
12
12
12
12
12
12
12
12
12
12
12
12
12
12
12
12
12
12
12
12
12
12
12
12
12
12
38
12
12
12
12
12
12
12
12
12
12
12
12
12
12
12
38
12
12
12
12
12
12
12
12
12
12
12
12
12
12
12
12
12
12
12
12
12
12
12
12
12
12
12
12
28
1
1
5
5
38
1
1
1
1
1
1
1
1
1
1
1
1
1
1
1
5
38
1
1
1
1
1
1
38
1
28
12
12
12
38
12
12
12
38
12
38
38
38
12
12
12
12
12
12
12
12
12
12
12
12
12
12
12
38
38
38
12
38
12
12
12
12
12
12
38
38
1
28
5
38
5
38
5
28
38
38
38
38
12
12
12
12
12
12
12
12
12
12
12
12
12
12
12
12
38
38
12
12
12
12
12
12
12
12
12
12
12
12
12
12
12
12
12
12
12
12
12
12
12
12
12
12
12
5
12
5
12
12
12
12
12
5
12
12
12
12
12
5
12
12
12
12
5
12
12
12
12
12
5
12
12
12
12
5
12
12
12
12
12
5
12
12
12
12
5
12
12
12
12
12
5
38
12
12
12
12
12
12
12
12
12
5
12
12
12
12
12
5
12
12
12
12
12
5
12
12
12
12
5
12
12
12
12
12
5
12
12
12
12
12
5
12
12
12
12
12
5
12
12
12
12
12
5
12
12
12
12
12
5
12
12
12
12
12
5
12
12
12
12
5
12
12
12
12
12
12
12
12
12
12
12
12
12
12
12
12
12
12
12
12
12
12
12
12
12
12
12
12
12
12
12
12
12
12
12
12
12
12
12
12
12
12
12
12
12
12
12
12
12
12
12
12
12
12
12
12
12
12
12
12
12
12
12
12
12
12
12
12
12
12
12
12
12
12
12
12
12
12
12
12
12
12
12
12
12
12
12
16
12
12
12
12
12
12
12
12
12
12
12
38
12
12
38
5
12
38
38
38
38
12
12
12
12
12
12
12
12
12
12
12
12
12
12
12
12
12
12
12
12
12
12
12
12
12
12
12
12
12
12
12
12
12
12
38
38
12
12
12
12
12
12
12
12
12
12
38
5
12
5
12
12
12
12
12
12
12
12
12
12
12
12
12
12
12
12
12
12
12
12
12
12
12
12
12
12
12
12
12
12
12
12
12
12
12
12
12
12
12
12
12
12
12
12
12
12
12
12
12
12
12
12
12
12
12
12
12
12
12
12
12
12
12
12
12
12
12
12
12
12
12
12
12
12
12
12
12
12
12
12
12
12
12
12
12
12
12
12
12
12
12
12
12
12
12
12
12
12
12
12
12
12
12
12
12
12
12
12
12
12
12
12
12
12
12
12
12
12
12
12
12
12
12
12
12
12
12
12
12
12
12
12
12
12
12
12
12
12
12
12
12
12
12
12
12
12
12
12
12
12
12
12
12
12
12
12
