28
1
1
1
1
1
1
1
1
1
1
1
1
1
1
1
1
1
1
1
1
1
1
1
1
1
1
1
1
1
1
1
1
1
1
1
1
1
1
1
1
1
1
1
1
1
1
1
1
1
1
1
1
1
1
1
1
1
1
1
1
1
1
1
1
1
1
1
1
1
1
1
1
1
1
1
1
1
1
1
1
1
1
1
1
1
1
1
1
1
1
1
1
1
1
1
1
1
1
1
1
1
1
1
1
1
1
1
1
1
1
1
1
1
1
1
1
1
1
1
1
1
1
1
1
1
1
1
1
1
1
1
1
1
1
14
1
1
1
1
14
1
1
1
1
14
1
1
14
1
1
1
1
1
1
1
1
1
1
1
1
1
1
1
1
1
1
1
1
1
1
1
1
1
1
1
1
1
1
1
1
1
1
1
1
1
1
1
1
1
1
1
1
1
1
1
1
1
1
1
1
1
1
1
1
1
1
1
1
1
1
1
1
1
1
1
1
1
1
1
1
1
1
1
1
1
1
1
1
1
1
1
1
1
1
1
1
1
1
1
1
1
1
1
1
1
1
1
1
1
1
1
1
1
1
1
1
1
1
1
1
1
1
1
1
1
1
1
1
1
1
1
1
1
1
1
1
1
1
1
1
1
1
1
1
1
1
1
1
1
1
1
1
1
1
1
1
1
1
1
1
1
1
1
1
1
1
1
1
1
1
1
1
1
1
1
1
1
1
1
1
1
1
1
1
1
1
1
1
1
1
1
1
1
1
1
1
1
1
1
1
1
1
1
1
1
1
1
1
1
1
1
1
1
1
1
1
1
1
1
1
1
1
1
1
1
1
1
1
1
1
1
1
1
1
1
1
1
1
1
1
1
1
1
1
1
1
1
1
1
1
1
1
1
1
1
1
1
1
1
1
1
1
1
1
1
1
1
1
1
1
1
1
1
1
1
1
1
1
1
1
1
1
1
1
1
1
1
1
1
1
1
1
1
1
1
1
1
1
1
1
1
1
1
1
1
1
1
1
1
1
1
1
1
1
1
1
1
1
1
1
1
1
1
1
1
1
1
1
1
1
1
1
1
1
1
1
1
1
1
1
1
1
1
1
1
1
1
1
1
1
1
1
1
1
1
1
1
1
1
1
1
1
1
1
1
1
1
1
1
1
1
1
1
1
1
1
1
1
1
1
1
1
1
1
1
1
1
1
1
1
1
1
1
1
1
1
1
1
1
1
1
1
1
1
1
1
1
1
1
1
1
1
1
1
1
1
1
1
1
1
1
1
1
1
1
1
1
1
1
1
1
1
1
1
1
1
1
1
1
1
1
1
1
1
1
1
1
1
1
1
1
1
1
1
1
1
1
1
1
1
1
1
1
1
1
1
1
1
1
1
1
1
1
1
1
1
1
1
1
1
1
1
1
1
1
1
1
1
1
1
1
1
1
1
1
1
1
1
1
1
1
1
1
1
1
1
1
1
1
1
1
1
1
1
14
1
1
8
1
1
1
14
1
8
1
8
1
8
1
8
1
28
1
1
1
1
1
1
1
28
11
11
11
11
11
11
28
1
1
1
1
1
1
1
8
1
1
1
1
1
1
1
1
1
8
1
8
1
28
1
1
1
1
28
1
1
1
1
1
1
1
1
1
1
1
1
1
1
1
1
1
1
1
28
1
1
1
1
1
1
1
1
1
1
1
1
1
1
1
1
1
1
1
1
1
1
1
1
1
1
1
1
1
1
1
8
1
8
1
1
1
8
1
28
1
8
11
8
1
8
1
8
1
8
28
1
1
1
1
1
1
1
28
1
1
1
1
1
1
1
1
1
1
1
1
1
1
1
1
1
28
11
11
11
11
11
11
11
11
28
1
1
1
1
1
1
1
1
1
1
1
1
1
1
1
1
1
1
1
1
1
1
1
1
1
1
1
1
1
1
1
1
1
28
1
8
1
8
1
8
1
8
1
8
1
8
1
8
1
8
1
8
28
1
1
8
1
1
8
1
1
8
1
8
28
1
1
1
1
1
28
1
1
1
1
1
1
1
1
1
1
1
1
28
1
11
11
1
11
28
1
1
8
1
8
1
28
8
8
8
28
1
8
1
8
28
1
1
1
1
28
1
1
1
1
1
1
1
1
1
1
1
1
1
1
1
1
1
1
1
1
1
1
1
1
1
1
1
28
1
1
28
11
11
8
1
11
11
11
8
11
11
1
8
11
8
8
1
8
28
1
1
1
1
1
1
1
1
1
1
1
1
28
11
11
11
11
11
11
8
1
8
11
11
8
28
1
1
1
1
1
1
1
1
1
28
11
11
11
11
28
1
1
1
1
1
1
1
1
1
1
1
1
1
1
1
1
8
1
8
11
11
8
11
8
11
1
8
28
1
1
1
1
1
1
1
1
1
1
28
11
11
11
11
11
11
28
1
1
1
1
1
1
1
1
1
1
1
1
1
1
1
1
1
8
28
1
1
1
28
1
1
1
1
1
28
11
11
11
11
11
28
1
8
11
8
1
11
11
11
8
28
1
1
1
1
28
11
11
28
1
1
1
1
1
1
1
1
1
1
1
1
1
1
1
8
11
8
8
1
8
8
7
1
8
28
1
1
28
1
1
1
1
28
11
11
11
1
8
11
8
8
1
8
28
1
1
28
1
1
1
1
1
1
1
1
1
1
1
28
11
11
11
11
8
11
11
1
11
28
1
1
1
1
1
1
1
1
1
1
1
1
8
1
8
11
1
8
28
1
1
1
1
28
1
1
1
1
1
1
1
1
1
1
1
1
1
8
1
1
8
28
1
1
1
1
1
1
1
1
1
1
1
1
1
1
1
1
1
1
1
1
1
28
11
11
11
11
11
11
28
1
1
1
1
1
1
1
1
1
1
1
1
11
1
8
11
28
1
1
28
1
1
1
1
1
1
1
1
1
1
1
28
11
11
11
1
8
28
1
1
1
1
1
1
1
1
1
1
1
1
1
1
1
1
1
1
1
28
1
1
1
1
1
1
1
1
1
1
1
1
1
1
1
1
28
1
1
1
28
1
1
1
1
1
1
1
1
1
1
1
1
1
1
1
1
1
1
1
1
1
1
1
1
1
1
28
1
1
28
1
1
1
28
1
1
1
1
1
1
1
1
1
1
1
1
1
1
1
1
1
1
1
1
1
1
1
1
1
1
1
1
1
1
1
1
1
1
1
1
1
1
1
1
1
1
1
1
1
28
1
1
1
1
1
1
1
1
1
28
1
1
28
1
1
1
1
1
1
1
1
1
1
1
1
1
28
1
1
1
1
1
1
1
1
1
1
1
1
1
1
1
1
1
1
1
1
28
1
1
1
1
1
1
1
1
1
1
1
1
1
1
1
1
1
1
1
1
1
1
28
11
11
8
1
11
8
11
8
11
8
11
11
11
11
8
28
1
1
1
1
1
1
1
1
1
1
1
1
1
1
1
1
1
1
1
1
1
1
1
1
1
1
1
1
1
1
1
1
1
1
1
1
1
1
8
11
8
1
1
1
1
8
1
1
1
1
1
8
1
8
1
1
1
1
1
1
1
1
1
1
1
1
1
1
1
8
1
1
1
8
1
1
1
28
1
8
1
8
1
8
1
8
11
8
1
8
1
8
1
8
1
8
1
8
1
8
1
8
1
8
1
8
1
8
11
11
11
8
8
1
8
1
8
11
8
1
8
11
8
11
8
11
8
11
8
11
8
8
11
8
11
8
11
8
11
8
11
8
11
8
11
8
8
11
8
11
8
11
8
11
8
1
8
1
8
1
8
1
8
1
8
1
8
1
8
28
1
1
1
1
1
1
1
1
1
1
1
1
1
28
11
11
11
11
11
11
8
1
8
8
1
8
8
1
8
28
1
1
1
1
1
1
1
1
1
28
11
11
11
28
1
8
8
1
8
11
1
8
8
1
8
28
1
1
1
1
1
1
1
1
1
1
1
1
1
14
28
11
11
11
11
11
11
11
8
11
8
8
8
11
11
28
1
1
1
1
1
14
1
1
1
1
1
1
28
11
11
11
14
11
11
11
8
8
1
1
8
1
11
11
28
1
1
1
1
1
28
8
8
8
8
28
11
11
11
11
1
8
8
14
11
28
1
8
8
8
28
1
1
1
1
1
1
1
1
8
11
8
1
8
8
1
8
8
1
8
8
11
8
11
8
8
28
11
8
8
8
8
28
1
1
1
1
8
28
1
1
1
1
1
28
1
1
1
1
28
11
11
11
28
1
1
1
1
8
1
1
28
1
1
1
1
1
1
1
1
1
28
1
11
11
1
1
1
8
11
8
1
8
28
1
1
1
1
1
1
1
1
1
1
14
28
11
11
11
14
11
11
1
8
11
8
1
8
28
1
1
1
28
1
1
1
1
1
1
1
1
28
11
11
28
1
1
1
1
8
28
1
1
1
1
1
1
1
1
1
28
1
11
1
1
1
1
1
8
1
1
8
28
1
1
1
1
28
1
1
1
1
1
1
1
1
1
1
8
11
1
8
28
1
1
1
1
1
1
28
11
11
28
1
1
1
1
1
1
1
1
1
1
1
8
8
1
8
1
8
11
11
1
8
28
1
1
1
28
11
1
11
11
8
11
11
11
28
1
1
1
28
1
11
8
8
1
8
28
1
1
1
1
1
1
1
28
11
11
11
11
8
8
1
8
11
28
1
1
1
1
1
1
1
1
1
28
1
11
8
28
1
1
1
28
11
11
11
11
11
11
1
8
28
1
1
1
1
1
1
1
1
1
14
1
28
11
11
11
14
28
1
1
1
1
1
14
1
1
1
1
1
1
8
8
28
1
1
1
1
1
1
1
1
1
1
1
1
1
1
1
1
1
1
1
1
28
11
11
11
11
28
1
1
1
1
1
1
1
1
1
1
1
1
1
1
1
1
1
1
1
1
1
1
1
1
1
1
1
1
1
8
28
1
1
1
1
1
1
1
1
1
1
1
1
1
1
1
1
1
1
1
1
1
28
11
11
11
11
11
28
1
1
1
1
1
1
1
1
1
1
1
1
1
1
1
1
1
1
1
1
1
1
8
28
1
1
1
1
1
1
1
1
1
1
1
1
1
1
1
1
28
11
11
11
11
1
11
28
1
1
8
28
1
1
1
1
28
11
11
11
11
11
1
1
8
8
1
1
8
28
1
1
1
1
1
1
1
1
1
1
1
1
1
1
1
28
1
1
1
1
1
1
1
1
1
1
1
1
1
1
1
1
1
1
1
1
1
1
1
1
1
1
1
1
28
1
1
1
1
1
28
1
1
1
1
1
1
1
1
1
1
1
1
1
1
1
1
1
1
1
1
1
1
1
1
1
1
1
1
1
1
1
1
1
1
1
1
1
1
1
1
1
1
1
1
1
1
1
1
1
28
1
1
1
1
1
1
28
1
1
1
1
1
28
1
1
1
1
1
28
1
1
1
1
1
1
1
1
1
1
1
1
1
1
1
1
1
1
1
1
1
1
1
1
1
1
1
1
1
1
1
1
1
1
1
1
1
1
1
1
1
1
1
1
1
1
1
1
1
1
1
1
1
1
1
1
1
1
1
1
1
1
1
1
1
1
1
1
1
1
1
1
1
1
1
1
1
1
1
1
1
1
1
1
1
1
1
1
1
1
1
1
1
1
1
1
1
1
1
1
1
1
1
1
1
1
1
1
1
1
1
1
1
1
1
1
1
1
1
1
1
1
1
1
1
1
1
1
1
1
1
1
1
1
1
1
1
1
1
1
1
1
1
1
1
1
1
1
1
1
1
1
1
1
1
1
1
1
1
1
1
1
1
1
1
1
1
1
1
1
1
1
1
1
1
1
1
1
1
1
1
1
1
1
1
1
1
1
1
1
1
1
1
1
1
1
1
1
1
1
1
1
1
1
1
1
1
1
1
1
1
1
1
1
1
1
1
1
1
1
1
1
1
1
1
1
1
1
1
1
1
1
1
1
1
