28
1
1
1
1
1
1
1
1
1
1
1
1
1
1
1
1
1
16
1
1
16
1
16
1
28
5
1
5
1
5
1
5
1
5
1
5
1
5
1
5
1
5
1
5
1
5
28
1
1
1
1
1
1
1
1
1
1
1
1
16
16
1
16
16
16
1
1
16
16
1
1
1
1
1
5
1
1
1
5
5
1
1
1
14
1
1
1
1
14
5
1
1
1
5
1
5
1
1
1
1
1
1
1
1
1
1
1
1
1
1
1
1
5
1
1
1
1
1
1
5
1
5
1
1
1
28
5
16
1
5
16
1
5
1
5
1
5
1
16
5
1
5
1
5
1
5
1
5
1
5
16
16
1
5
28
1
1
1
1
1
1
1
1
1
1
1
1
1
1
1
1
28
5
1
5
1
5
28
1
1
1
1
1
1
1
1
1
1
1
1
1
28
5
1
5
1
5
28
1
1
1
5
1
1
1
1
1
5
1
1
1
1
5
14
1
1
1
5
1
1
1
1
1
5
1
5
1
1
1
1
1
1
1
1
1
1
16
1
1
14
1
5
1
1
1
1
1
1
14
1
1
1
1
1
14
5
1
1
1
1
1
1
1
1
5
1
1
1
1
1
1
1
5
1
1
1
1
1
1
1
1
1
5
1
5
1
1
1
5
1
1
1
1
1
1
1
1
5
1
5
1
1
1
1
1
5
1
1
1
1
1
1
1
1
1
1
1
1
1
1
1
1
5
1
1
1
1
1
1
1
1
1
1
1
1
1
1
1
1
5
1
1
1
1
1
1
1
1
1
1
1
1
14
5
1
5
1
1
1
1
14
1
1
1
1
1
1
1
1
1
1
16
1
1
1
5
1
1
1
1
1
5
1
1
1
1
1
1
5
1
5
1
1
16
1
16
16
1
1
1
1
1
1
1
1
1
1
1
1
1
1
1
1
16
1
16
1
1
1
1
1
1
5
1
1
1
1
1
16
1
1
1
1
1
1
1
1
1
1
1
1
28
5
1
5
1
5
1
5
1
5
1
5
1
5
1
5
1
5
1
5
1
5
1
5
1
5
1
5
1
5
1
5
1
5
1
5
1
5
1
5
1
5
1
5
1
5
1
5
1
5
1
5
1
5
1
5
1
5
1
5
1
5
1
5
1
5
1
5
1
5
1
5
1
5
1
5
1
5
1
5
1
5
1
5
1
5
1
5
1
5
1
5
1
5
1
5
1
5
1
5
1
5
28
1
1
1
1
1
1
5
1
1
1
1
1
5
1
5
1
1
1
1
1
5
1
1
1
1
1
5
1
1
1
1
1
1
5
1
1
1
1
1
5
1
1
1
1
1
1
5
1
1
1
1
1
1
1
1
1
1
1
1
1
1
1
1
1
28
5
1
5
1
5
1
5
1
5
1
5
1
5
1
5
1
5
1
5
1
5
1
5
1
5
1
5
1
5
1
5
1
5
1
5
1
5
1
5
1
5
28
1
1
1
1
1
1
1
1
1
1
1
1
5
1
5
1
1
1
1
1
1
5
1
1
1
5
1
5
1
1
1
1
1
1
1
1
5
1
1
1
1
5
1
1
1
1
5
1
1
1
1
1
1
1
1
5
1
5
1
1
1
1
5
1
1
1
1
1
1
1
1
1
1
5
1
5
1
1
1
1
1
1
1
1
1
1
1
1
1
1
1
1
1
1
1
1
1
1
5
1
1
1
28
5
1
5
1
5
16
1
5
28
1
1
1
1
1
1
5
1
1
1
1
1
1
1
1
1
1
5
1
1
1
1
1
1
1
1
1
1
1
1
1
1
1
1
1
1
1
5
1
5
1
1
1
1
1
1
1
1
1
1
1
1
1
1
1
1
1
5
1
1
1
1
1
1
5
1
1
1
28
5
1
5
1
5
1
5
28
1
1
1
1
1
1
1
1
1
1
1
1
1
1
28
5
1
5
1
5
1
5
1
5
1
5
1
5
1
5
1
5
1
5
1
5
1
5
1
5
28
1
1
1
1
1
1
1
1
1
1
1
1
5
1
1
1
1
1
1
5
1
1
1
1
1
1
1
1
1
5
1
1
1
1
1
1
1
1
1
1
1
1
1
1
5
1
1
1
1
1
1
1
1
28
5
1
5
1
5
1
5
1
5
1
5
1
5
1
5
1
5
1
5
1
5
1
5
1
5
1
5
1
5
1
5
1
5
1
5
1
5
1
5
28
1
1
1
1
1
1
5
1
1
1
1
1
1
5
1
1
1
1
1
1
1
1
1
1
1
1
1
1
1
1
1
1
1
1
1
1
1
1
1
1
1
5
1
1
1
1
1
1
1
1
1
1
1
1
1
1
1
1
1
1
1
1
1
1
1
1
1
1
1
5
1
1
1
1
1
1
1
1
5
1
1
1
1
1
1
1
1
1
1
1
1
1
1
1
1
1
1
1
1
1
5
1
1
1
1
1
1
1
1
1
1
1
1
1
1
1
1
1
1
1
1
1
1
1
1
1
1
1
1
1
1
1
1
1
1
5
1
1
1
1
1
1
1
1
1
1
1
1
1
1
1
1
1
1
1
1
1
1
1
1
1
1
1
1
1
1
1
1
5
1
1
1
1
1
1
1
1
1
1
1
1
1
1
1
1
5
1
1
1
1
1
1
1
1
1
1
1
1
1
1
1
1
1
1
1
1
1
1
1
1
1
1
1
1
1
1
1
1
1
1
1
1
5
1
1
1
1
1
1
1
1
1
1
1
1
5
1
1
1
1
1
1
5
1
1
1
1
1
1
1
1
1
1
1
1
1
1
28
5
1
5
1
5
28
1
1
1
1
1
1
1
1
5
1
1
1
1
1
1
1
1
1
1
1
1
1
5
1
1
1
1
1
1
1
1
1
1
1
1
1
1
1
1
5
1
5
1
1
1
1
1
1
5
1
1
1
1
1
1
1
1
1
1
1
1
1
1
1
1
1
1
1
1
1
1
1
1
1
1
1
1
1
1
1
1
1
1
1
1
1
1
1
1
1
1
1
5
1
1
1
1
1
1
1
1
1
1
1
1
1
1
1
1
1
1
1
1
5
1
1
1
1
1
1
1
5
1
5
1
1
1
1
1
1
1
5
1
1
1
1
1
1
1
1
5
1
1
1
8
1
1
1
1
1
1
1
1
1
1
1
1
1
1
1
1
1
1
1
1
1
1
1
1
1
1
1
1
1
1
1
1
1
1
1
1
1
1
1
1
1
1
1
1
1
5
14
1
1
1
1
1
1
1
1
5
1
1
1
1
1
1
5
1
1
1
5
1
1
1
1
1
14
1
1
5
1
1
1
1
1
1
1
5
1
1
1
1
1
5
1
1
1
1
14
1
1
1
1
1
14
1
1
5
1
1
1
1
1
5
1
5
1
1
1
1
1
1
1
1
1
1
1
1
5
1
1
1
1
1
1
1
1
1
1
1
5
1
1
1
1
1
28
5
1
5
1
5
28
1
1
1
1
1
5
22
1
1
1
1
1
1
28
5
1
5
1
5
22
28
1
1
1
1
1
1
5
22
1
1
1
5
1
1
1
1
1
1
28
5
1
5
1
5
28
1
1
1
1
1
1
1
1
1
5
1
1
1
1
1
1
1
1
1
1
1
5
1
1
1
1
1
1
1
1
1
1
1
1
1
1
1
14
1
1
1
1
1
1
5
1
1
1
1
1
1
1
1
1
14
1
1
1
1
1
1
1
1
1
1
1
1
1
1
5
1
1
1
1
1
1
5
1
1
5
1
1
1
1
28
5
1
5
1
5
1
5
1
5
1
5
1
5
1
5
1
5
1
5
1
5
1
5
1
5
1
5
1
5
1
5
1
5
1
5
1
5
1
5
1
5
1
5
1
5
1
5
1
5
1
5
1
5
1
5
1
5
1
5
1
5
1
5
28
1
1
1
1
1
5
1
1
1
1
1
1
1
5
14
1
1
1
1
1
5
1
1
1
5
14
1
5
1
1
5
1
1
8
1
1
1
1
1
1
5
1
1
1
14
1
1
1
1
1
1
1
5
1
5
14
1
1
1
1
1
1
1
1
1
1
1
1
14
1
1
1
1
1
1
1
1
1
14
1
1
1
1
1
5
1
1
5
1
1
1
1
1
1
5
1
1
1
1
1
1
1
1
1
5
1
1
1
1
1
5
1
5
1
1
1
1
1
1
1
1
1
1
1
1
5
1
1
1
1
5
1
1
1
1
5
1
1
1
1
1
1
1
1
1
1
1
1
1
1
1
1
1
1
1
1
1
1
1
1
1
1
1
5
1
1
1
1
1
1
28
5
1
5
1
5
28
1
1
1
1
1
28
5
1
5
1
5
1
5
1
5
1
5
28
1
1
1
1
1
5
1
5
1
1
1
1
5
1
1
1
1
1
1
1
1
1
1
1
5
1
5
1
1
1
1
1
1
5
1
1
1
1
1
1
1
1
5
1
5
1
1
1
1
5
1
5
1
1
1
1
8
1
5
1
1
1
1
28
5
1
5
1
5
28
1
1
1
1
1
1
1
1
1
1
1
1
1
1
1
28
5
1
5
1
5
1
5
1
5
1
5
28
1
1
1
1
1
1
5
1
1
1
1
1
1
5
1
1
1
1
1
1
1
1
1
5
1
1
1
1
1
5
1
1
1
1
1
1
5
1
1
1
1
1
1
1
1
1
1
1
1
1
1
1
1
1
1
1
1
5
1
5
1
1
1
1
5
1
1
1
1
1
1
1
1
1
1
1
1
5
1
1
1
1
5
1
5
1
1
1
1
1
28
5
1
5
1
5
28
1
1
1
1
1
1
5
1
1
1
1
1
1
5
1
1
5
1
1
1
5
1
