28
3
3
3
3
3
3
22
3
3
3
3
3
3
3
3
3
3
3
3
3
3
3
3
3
3
3
3
3
3
3
3
3
3
3
3
3
3
3
3
3
3
3
3
3
3
3
3
3
3
3
3
3
3
3
3
3
3
3
3
3
3
3
3
3
3
3
3
3
3
3
3
3
3
3
3
3
3
3
3
3
3
3
3
3
3
3
3
3
3
3
3
3
3
3
3
3
3
3
3
3
3
22
1
3
28
22
1
22
1
22
1
22
1
22
1
22
1
22
1
22
1
22
1
22
1
22
1
22
3
22
3
22
3
22
3
22
3
22
3
22
3
22
3
22
3
22
3
22
3
22
3
22
3
22
3
22
3
22
3
22
3
22
3
37
8
3
37
5
5
28
3
3
3
3
3
3
3
3
3
3
3
3
3
3
3
3
3
3
3
3
3
3
3
3
3
3
3
3
3
3
3
3
3
3
3
3
3
3
3
3
3
3
3
3
3
3
3
3
3
3
3
3
3
3
3
3
3
3
3
3
3
3
3
3
3
3
3
3
3
3
3
3
3
3
3
3
3
3
3
3
3
3
3
3
3
3
3
3
3
3
3
3
3
3
3
3
3
3
3
3
3
3
3
3
3
3
3
3
3
3
3
3
3
3
3
3
3
3
3
3
3
3
3
3
3
3
3
3
3
3
3
3
3
3
3
3
3
3
3
3
3
3
3
3
3
3
3
3
3
3
3
3
3
3
3
3
3
3
3
3
3
3
3
3
3
3
3
3
3
3
3
3
3
3
3
3
3
3
3
3
3
3
3
3
3
3
3
3
3
3
3
22
1
3
28
22
1
22
1
22
1
22
1
22
1
22
3
22
3
22
3
22
3
22
3
22
3
22
3
22
3
22
3
22
3
22
3
22
3
22
3
22
3
22
3
22
3
22
3
22
1
22
1
22
1
22
1
22
1
22
1
22
3
22
3
22
3
22
3
22
3
22
3
22
3
22
3
22
3
22
3
22
3
22
3
22
3
22
3
22
3
22
1
22
1
22
1
22
1
22
1
22
1
22
1
22
1
22
1
22
1
22
1
22
1
22
1
22
1
22
1
22
1
22
1
22
1
22
1
22
1
22
1
22
1
22
1
22
1
22
1
22
1
22
1
22
1
22
1
22
1
22
1
22
1
22
1
22
1
22
1
22
1
22
1
22
1
22
1
22
1
22
1
22
1
22
1
22
1
22
1
22
1
22
1
22
1
22
1
22
1
22
1
22
1
22
1
22
1
22
1
22
1
22
1
22
1
22
1
22
1
22
1
22
1
22
1
22
1
22
1
22
1
22
1
22
1
22
1
22
1
22
1
22
1
22
1
22
1
22
1
22
1
22
1
22
1
22
1
22
1
22
1
22
1
22
1
22
1
22
1
22
1
22
1
22
1
22
1
22
1
22
1
22
1
22
1
22
1
22
28
1
3
3
3
3
3
3
3
3
3
3
3
3
3
3
3
3
3
3
3
3
3
3
3
3
3
3
3
3
3
3
3
3
3
3
3
3
3
3
3
3
3
3
3
3
3
3
3
3
3
3
3
3
3
3
3
3
3
3
3
3
3
3
3
3
3
3
3
3
3
3
3
3
3
3
3
3
3
3
3
3
3
3
3
3
3
3
3
3
3
3
3
3
3
3
3
3
3
3
3
3
3
3
3
3
3
3
3
3
3
3
3
3
3
3
3
3
3
3
3
3
3
3
3
3
3
3
3
3
3
3
3
3
3
3
3
3
3
3
3
3
3
3
3
3
3
3
3
3
3
3
3
3
3
3
3
3
3
3
3
22
1
3
3
3
3
3
3
3
3
3
3
3
3
3
3
3
3
3
3
3
3
3
3
3
3
3
3
3
3
3
3
3
3
3
3
3
3
3
3
3
3
3
3
3
3
3
3
3
3
3
3
3
3
3
3
3
3
3
3
3
3
3
3
3
3
3
3
3
3
3
3
3
3
3
3
3
3
3
3
3
3
3
3
3
3
3
3
3
3
3
3
28
22
1
22
1
22
1
22
1
22
1
22
1
22
3
22
3
22
3
22
3
22
3
22
3
22
3
22
3
22
3
22
3
22
3
22
3
22
3
22
3
22
3
22
3
22
3
22
3
22
3
22
3
22
1
22
1
22
1
22
1
22
1
22
1
22
1
22
1
22
1
22
1
22
1
22
1
22
1
22
1
22
1
22
1
22
1
22
1
22
1
22
1
22
1
22
1
22
1
22
1
22
1
22
1
22
1
22
1
22
1
22
1
22
1
22
1
22
1
22
1
22
1
22
1
22
1
22
1
22
1
22
1
22
1
22
1
22
1
22
1
22
1
22
1
22
1
22
1
22
1
22
1
22
1
22
1
22
1
22
1
22
1
22
1
22
1
22
1
22
1
22
1
22
1
22
1
22
1
22
1
22
1
22
1
22
1
22
1
22
1
22
1
22
1
22
1
22
1
22
1
22
1
22
1
22
1
22
1
22
1
22
1
22
1
22
1
22
1
22
1
22
1
22
1
22
1
22
1
22
1
22
1
22
1
22
1
22
1
22
1
22
1
22
1
22
1
22
1
22
1
22
1
22
1
22
1
22
1
22
1
22
1
22
1
22
1
22
1
22
1
22
1
22
1
22
1
22
1
22
1
22
1
22
1
22
1
22
1
22
1
22
1
22
28
1
3
3
3
3
3
3
3
3
3
3
3
3
3
3
3
3
3
3
3
3
3
3
3
3
3
3
3
3
3
3
3
3
3
3
3
3
3
3
3
3
3
3
3
3
3
3
3
3
3
3
3
3
3
3
3
3
3
3
3
3
3
3
3
3
3
3
3
3
3
3
3
3
3
3
3
3
3
3
3
3
3
3
3
3
3
3
3
3
3
3
3
3
3
3
3
3
3
3
3
3
3
3
3
3
3
3
3
3
3
3
3
3
3
3
3
3
3
3
3
3
3
3
3
3
3
3
3
3
3
3
3
3
3
3
3
3
3
3
3
3
3
3
3
3
3
3
3
3
3
3
3
3
3
3
3
3
3
3
3
3
3
3
3
3
3
3
3
28
22
3
22
3
22
3
22
3
22
3
22
3
22
3
22
3
22
3
22
3
22
3
22
3
22
3
22
3
22
3
22
3
22
3
22
3
22
3
22
3
22
3
22
3
22
3
22
3
22
28
3
3
3
3
3
3
3
3
3
3
3
3
3
3
3
3
3
3
3
3
3
3
3
3
3
3
3
3
3
3
28
22
3
22
3
22
3
22
3
22
3
22
3
22
3
22
3
22
3
22
3
22
3
22
3
22
3
22
3
22
3
22
3
22
3
22
1
22
1
22
1
22
1
22
1
22
1
22
1
22
1
22
1
22
1
22
1
22
1
22
1
22
1
22
1
22
1
22
1
22
1
22
1
22
1
22
1
22
1
22
1
22
1
22
1
22
1
22
1
22
1
22
1
22
1
22
1
22
1
22
1
22
1
22
1
22
1
22
1
22
1
22
1
22
1
22
1
22
1
22
1
22
1
22
1
22
1
22
1
22
1
22
1
22
1
22
1
22
1
22
1
22
1
22
1
22
1
22
1
22
1
22
1
22
1
22
1
22
1
22
1
22
28
1
3
3
3
3
3
3
3
3
3
3
3
3
3
3
3
3
3
3
3
3
3
3
3
3
3
3
3
3
3
3
3
3
3
3
3
3
3
3
3
3
3
3
3
3
3
3
3
3
3
3
3
3
3
3
3
3
3
3
3
3
3
3
3
3
3
3
3
3
3
3
3
3
3
3
3
3
3
3
3
3
3
3
3
3
3
3
3
3
3
3
3
3
3
3
3
3
3
3
3
3
3
3
3
3
3
3
3
3
3
3
3
3
3
3
3
3
3
3
3
3
3
3
3
3
3
3
3
3
3
3
3
3
3
3
3
3
3
3
3
3
3
3
3
3
3
3
3
3
3
3
3
3
3
3
3
3
3
3
3
3
3
3
3
3
3
3
3
3
3
3
3
3
3
3
3
3
3
3
3
3
3
3
3
3
3
3
3
3
3
3
3
3
3
3
3
3
3
3
3
3
3
3
22
1
3
3
3
3
3
3
3
3
3
3
3
3
3
3
3
3
3
3
3
3
3
3
3
3
3
3
3
3
3
3
3
3
3
3
3
3
3
3
3
3
3
3
3
3
3
3
3
3
3
3
3
3
3
3
3
3
3
3
3
3
3
3
3
3
3
3
3
3
3
3
3
3
3
3
3
3
3
3
3
3
3
3
3
3
3
3
3
3
3
3
3
3
3
3
3
3
3
3
3
3
3
3
3
3
3
3
3
3
3
3
3
3
3
3
3
3
3
3
3
3
3
3
3
3
3
3
3
3
3
3
3
3
3
3
3
3
3
3
3
3
3
3
3
3
3
3
3
3
3
3
3
3
3
3
3
22
1
3
3
3
3
3
3
3
3
3
3
3
3
3
3
3
3
3
3
3
3
3
3
3
3
3
3
3
3
3
3
3
3
3
3
3
3
3
22
1
3
3
3
3
3
3
3
3
3
