28
3
8
8
3
8
8
14
3
8
3
8
3
8
3
8
8
3
8
8
8
8
8
8
8
3
3
3
8
8
3
8
8
8
8
8
8
8
8
8
8
8
3
3
8
8
3
8
8
8
3
3
8
8
8
8
8
3
3
8
8
3
8
8
3
8
8
8
3
14
3
3
8
8
8
8
8
8
8
8
8
8
3
14
8
8
8
3
8
8
14
3
8
8
8
8
8
3
8
8
3
8
8
8
3
8
8
3
8
8
8
3
8
8
3
8
8
3
8
8
3
8
8
3
8
8
8
8
8
3
8
8
8
8
8
8
8
8
8
8
3
3
8
8
8
8
3
8
8
3
8
8
3
8
8
3
8
8
3
8
8
8
8
8
3
3
8
8
3
8
8
8
8
8
3
8
3
8
3
8
3
8
8
3
8
8
3
8
8
3
8
3
8
8
3
8
8
8
3
8
3
8
8
8
8
3
3
8
8
3
8
8
3
8
8
3
8
8
8
8
8
3
8
8
14
8
8
8
8
8
8
8
8
8
8
8
8
8
3
8
8
8
8
3
14
3
8
8
8
8
8
8
8
8
3
8
8
3
8
3
8
8
8
8
3
8
8
3
8
8
8
8
8
14
3
8
3
8
8
8
14
8
14
3
8
8
14
3
8
8
8
3
3
8
8
3
8
8
3
3
8
8
8
8
8
8
8
3
3
8
8
8
8
3
8
8
8
8
8
3
3
8
3
8
8
8
8
8
8
8
8
3
8
3
8
8
3
8
8
8
8
8
3
8
8
8
14
14
8
3
8
8
8
8
3
8
8
8
8
14
3
8
8
3
3
3
8
14
8
8
8
8
8
8
3
3
8
8
8
8
3
8
14
8
3
8
8
8
8
8
14
8
3
14
3
8
8
8
8
8
8
14
14
3
8
8
8
14
8
8
8
8
3
3
8
8
8
3
8
8
3
8
8
8
8
14
8
8
8
14
8
8
8
3
8
8
3
8
8
8
8
8
3
3
8
8
3
8
8
8
8
3
8
8
3
8
8
8
8
8
8
3
8
8
8
8
8
3
8
8
8
8
3
8
8
8
8
8
8
3
8
8
8
3
3
8
8
3
8
8
3
8
8
8
3
8
8
8
3
8
8
8
8
8
3
8
8
8
8
8
8
3
8
8
3
8
8
8
8
8
8
8
8
3
8
8
8
8
8
8
8
3
8
8
8
8
3
8
8
3
8
3
8
8
8
8
8
8
3
8
8
3
8
3
8
8
8
8
8
8
3
8
8
3
8
8
3
8
8
8
8
3
8
8
8
8
3
8
8
8
3
8
8
8
8
8
3
8
8
8
8
8
3
8
8
3
8
8
8
8
3
3
8
8
3
8
8
8
3
8
8
8
8
8
8
8
8
8
8
3
8
8
8
8
3
8
8
8
3
8
8
8
8
3
8
8
8
8
3
8
8
8
3
8
8
8
8
8
8
3
8
8
3
8
8
3
8
8
3
8
8
8
8
3
3
8
8
8
8
8
8
8
3
3
8
8
3
8
8
8
8
3
8
8
8
3
8
8
8
8
3
8
8
8
8
3
8
8
8
8
8
8
8
14
3
8
8
8
8
8
8
8
8
8
8
8
8
8
8
8
8
8
14
8
8
8
8
8
8
8
8
8
8
8
8
8
8
14
8
8
8
8
8
3
14
8
3
8
8
8
14
8
8
8
3
8
8
8
8
8
8
8
8
8
8
8
8
3
8
8
3
8
8
8
3
14
8
8
8
8
8
8
3
8
8
3
8
3
8
14
8
3
8
8
3
8
8
8
8
3
8
8
8
8
8
8
8
8
3
8
8
3
8
8
8
3
8
8
3
8
8
3
8
8
3
8
8
8
3
8
8
3
8
8
3
8
8
3
8
8
8
8
8
8
8
8
8
8
8
8
8
8
3
8
8
8
8
3
8
8
3
8
8
3
8
8
3
8
8
3
8
8
8
3
8
8
3
8
8
3
8
8
8
3
8
8
3
8
8
3
8
8
8
8
3
8
8
8
8
8
8
8
3
8
8
3
8
3
8
8
3
8
8
8
8
8
8
3
3
3
14
8
8
8
14
8
8
3
8
8
8
3
3
8
8
8
8
8
8
8
8
8
3
3
8
8
8
8
8
8
3
8
8
3
8
8
8
3
3
8
8
8
8
8
8
3
8
8
3
8
8
8
8
8
3
8
8
8
8
8
8
3
8
8
8
3
3
8
8
3
8
8
8
8
8
8
8
8
3
3
8
8
8
8
8
8
8
3
3
8
8
3
8
8
8
8
8
8
8
8
3
3
3
8
8
8
8
8
8
8
8
8
8
3
3
8
8
3
8
8
8
8
8
8
3
8
8
8
8
3
3
8
8
8
8
8
8
3
3
8
8
8
8
8
8
8
3
3
3
8
8
8
8
8
8
3
8
8
3
8
8
8
3
8
8
8
8
8
8
8
8
3
3
8
8
8
8
8
8
8
8
8
8
8
3
3
8
8
8
8
8
8
8
8
3
3
8
8
8
3
8
8
3
8
8
8
8
8
8
3
3
3
8
8
8
8
3
3
8
8
8
8
8
8
8
8
8
3
3
3
8
8
8
8
8
8
8
8
3
8
8
8
8
8
3
3
8
8
8
8
8
8
8
8
8
8
8
3
3
8
8
8
8
8
8
8
3
3
3
8
8
8
8
8
8
8
8
8
8
8
3
3
8
8
8
8
8
8
8
8
3
3
8
8
8
8
8
8
3
3
8
8
8
8
8
8
8
8
8
3
3
8
8
8
8
8
8
8
8
8
3
3
8
8
8
8
8
8
8
8
8
8
3
8
8
3
8
8
8
8
8
8
8
3
3
8
8
8
8
8
8
8
8
8
3
3
8
8
8
8
11
3
8
8
8
8
8
8
8
8
8
8
3
3
8
8
8
8
8
8
8
8
8
8
3
3
3
3
3
8
8
8
8
8
8
8
8
3
3
8
8
8
8
8
8
8
8
8
8
3
3
8
8
8
8
8
8
3
3
8
8
8
8
8
8
8
8
8
8
8
8
8
14
3
14
3
8
8
8
8
8
8
8
8
3
14
3
8
3
8
14
8
3
8
8
8
8
8
8
8
3
3
3
8
8
8
8
8
8
8
8
8
3
3
3
3
8
8
8
8
8
8
8
8
8
8
3
3
3
8
8
8
8
8
8
8
8
8
8
8
8
8
8
8
3
3
3
8
8
8
8
8
8
8
8
8
8
8
3
3
8
8
8
8
8
8
8
8
3
3
3
3
3
3
8
8
8
8
8
8
8
8
8
8
8
3
3
8
8
8
8
8
8
8
8
8
8
8
8
3
3
8
8
8
8
8
8
8
8
8
8
8
8
3
8
8
8
8
3
3
8
8
8
8
8
8
8
8
8
8
3
3
8
8
8
8
8
8
3
3
8
8
8
8
8
8
8
8
8
3
3
3
8
8
8
8
8
8
8
8
8
8
8
8
8
3
3
8
8
8
8
8
8
8
8
8
8
3
3
8
8
8
8
8
8
8
8
8
8
8
8
3
3
8
8
8
8
8
8
8
8
8
8
8
3
3
8
8
8
8
8
8
8
8
8
8
8
8
8
3
3
8
8
8
8
8
8
3
3
8
8
8
8
8
8
8
8
8
3
3
8
8
8
8
8
8
8
8
8
8
8
3
3
8
8
8
8
8
8
3
3
3
8
8
8
8
8
8
3
3
8
8
8
8
8
8
8
8
8
8
3
3
8
8
8
8
8
8
8
8
8
8
8
3
3
3
8
8
8
8
8
8
8
8
8
8
8
8
8
3
3
8
8
8
8
8
8
3
3
3
8
8
8
8
8
8
8
8
8
8
8
3
8
8
8
8
3
3
8
8
8
3
3
3
3
3
3
8
8
8
8
8
8
8
8
8
8
8
8
8
8
3
3
8
8
8
8
8
8
8
8
8
8
8
8
8
8
8
3
3
3
8
8
8
8
8
8
8
8
8
3
3
3
8
8
8
8
8
8
8
8
8
8
8
3
3
8
8
8
8
8
8
8
8
8
8
3
3
8
8
8
8
8
8
8
8
8
8
3
8
8
8
8
3
8
8
