28
5
1
5
1
1
5
1
5
1
1
5
1
1
1
5
1
1
1
1
1
1
5
1
5
1
1
8
5
1
1
1
1
1
1
1
8
1
1
5
1
1
1
5
1
1
1
1
28
5
5
5
28
1
5
1
1
5
1
5
1
1
5
1
5
1
1
1
5
1
1
5
1
5
1
1
1
5
5
1
5
1
1
1
1
1
5
1
1
1
5
1
1
1
1
1
5
1
1
1
5
1
1
5
1
1
1
1
1
1
5
1
5
1
1
5
1
5
1
1
1
1
1
5
1
1
5
1
5
1
1
5
1
1
1
5
1
1
1
28
5
1
1
5
1
1
5
28
1
1
1
1
1
1
1
1
1
1
1
5
1
1
1
1
1
5
1
1
1
5
1
1
1
1
1
5
1
1
1
1
1
1
1
5
1
1
1
1
1
1
1
1
1
1
1
1
1
1
1
5
1
1
1
1
1
1
1
5
1
1
1
1
5
1
5
1
1
5
1
5
1
1
28
5
1
5
1
5
1
5
28
1
1
5
1
8
1
1
28
5
1
5
1
5
1
5
28
1
1
1
5
1
1
28
5
1
5
1
5
1
5
28
1
1
28
5
1
5
1
5
1
5
5
1
5
28
1
1
5
1
5
1
1
28
5
1
5
1
5
28
1
1
5
1
5
1
1
28
5
1
5
1
5
1
5
28
1
1
5
1
6
5
1
1
1
5
1
1
5
1
1
5
1
5
1
1
1
1
1
1
5
1
5
1
1
1
5
1
1
1
5
1
1
1
1
1
1
5
1
5
1
1
5
1
5
1
1
5
1
5
1
1
1
5
1
1
1
5
1
1
5
1
5
1
1
1
1
1
1
1
1
1
1
5
1
5
1
1
28
5
1
5
1
5
28
1
1
1
1
1
1
1
1
5
5
1
1
5
6
1
5
6
1
1
1
5
5
1
1
1
1
1
1
1
1
5
5
1
1
1
1
5
1
1
1
1
1
1
1
5
1
5
1
1
5
1
5
1
1
1
1
1
1
1
1
1
1
1
1
1
1
1
5
1
6
1
1
1
5
5
1
5
1
1
1
1
1
5
1
1
5
1
1
1
1
1
5
1
1
1
1
1
5
1
1
1
1
1
1
5
1
1
1
5
1
5
1
1
1
6
1
1
1
1
5
1
1
1
5
1
5
1
1
1
1
1
5
1
1
1
1
1
5
1
1
1
5
1
1
1
5
1
1
1
28
5
1
5
1
5
1
5
28
1
1
1
1
1
5
1
1
1
28
5
1
5
1
5
1
5
28
1
1
1
1
1
5
1
1
1
5
1
1
1
5
1
1
1
5
1
1
1
5
1
1
1
5
1
1
1
5
1
1
1
5
1
1
1
5
1
5
5
1
1
1
1
1
5
1
1
1
5
1
1
1
5
1
1
1
1
1
5
1
1
1
5
1
1
1
5
1
1
1
5
1
1
1
5
1
1
1
5
1
1
1
5
1
1
1
5
1
1
1
5
1
1
1
5
1
1
1
5
1
1
1
5
1
1
1
5
1
1
1
5
1
1
1
5
1
1
1
5
1
1
1
5
1
1
1
5
1
1
1
5
1
1
1
5
1
1
1
1
1
5
1
1
1
1
5
1
5
5
1
5
1
5
1
1
5
1
5
1
1
1
5
1
1
5
5
1
5
1
1
1
5
1
1
1
1
5
1
1
1
5
5
1
5
1
1
1
1
1
1
1
1
1
1
1
1
1
1
1
1
1
5
1
1
5
1
1
1
1
1
5
1
1
1
1
1
5
1
6
1
1
1
5
6
1
1
1
1
1
5
1
5
1
1
1
1
1
5
1
1
1
5
1
1
1
5
1
1
1
5
1
1
1
5
1
1
1
5
1
1
1
5
1
1
1
5
1
1
1
5
1
1
1
5
1
1
1
5
1
1
1
5
1
1
1
5
1
1
1
5
1
1
5
5
1
5
1
1
1
1
1
5
1
1
1
5
1
1
1
5
1
1
1
5
1
1
1
5
1
1
1
5
1
1
1
5
5
1
1
1
5
1
1
1
5
1
1
1
5
1
1
1
5
1
1
1
5
1
1
1
1
1
1
5
1
1
1
5
1
1
1
5
1
1
1
5
1
5
1
1
1
5
1
1
1
5
5
1
1
1
1
1
5
1
1
1
1
1
5
1
1
1
5
1
1
1
5
1
1
1
5
1
1
1
5
1
1
1
5
1
1
1
5
5
1
1
1
1
1
5
1
5
5
1
1
1
5
1
1
1
5
1
5
1
1
1
5
1
1
1
5
1
1
1
5
1
1
1
5
1
1
1
28
5
5
5
28
1
5
1
1
1
1
1
5
1
1
1
1
1
5
1
1
1
5
1
1
1
5
1
1
1
5
1
1
1
5
1
1
1
5
1
1
5
1
1
1
1
1
5
1
1
1
1
1
1
5
5
1
5
1
1
1
5
5
1
1
1
1
1
5
1
5
5
1
28
5
1
5
1
5
1
5
28
1
1
1
5
1
6
1
1
1
1
1
1
1
5
5
1
5
1
5
1
1
5
1
5
1
1
1
1
1
5
1
1
1
5
1
1
1
5
1
1
1
5
1
1
5
1
1
1
1
1
1
1
1
1
1
1
5
1
1
5
1
5
1
1
5
1
1
1
1
1
1
1
5
1
1
28
5
1
5
1
5
1
5
28
1
1
28
5
1
5
1
5
1
5
28
1
1
28
5
1
5
1
5
1
5
28
1
1
5
1
5
1
1
1
5
1
1
1
1
1
1
5
1
5
1
1
1
5
5
1
5
1
1
5
1
1
1
1
1
5
1
5
1
1
1
5
16
1
1
1
5
1
1
1
5
1
1
1
5
1
1
5
16
1
1
1
1
1
1
5
1
5
1
1
5
1
1
1
5
1
1
1
5
1
1
5
1
1
1
5
1
1
1
5
1
1
1
5
1
1
1
5
1
1
1
5
1
1
1
5
1
1
1
5
1
1
5
1
1
1
1
1
1
1
5
1
1
1
5
1
1
5
1
1
1
1
1
1
1
5
1
1
5
1
5
1
1
5
1
1
1
1
1
1
1
1
1
1
1
1
1
1
1
1
1
1
1
1
5
5
1
5
1
1
1
5
5
1
1
1
1
1
5
1
1
1
5
1
1
1
1
1
5
1
1
1
1
1
1
1
1
1
1
5
1
1
1
1
1
1
1
28
5
1
5
1
5
28
1
1
1
5
1
1
5
1
1
1
1
1
1
1
5
1
1
5
1
1
1
1
1
5
1
1
1
5
1
1
1
28
5
1
5
1
5
28
1
1
5
5
1
1
1
5
1
1
1
1
1
5
1
1
1
1
1
1
28
5
1
5
1
5
1
5
1
5
28
1
1
28
5
1
5
1
5
28
1
1
1
5
1
6
28
5
1
5
1
5
1
5
28
1
1
5
1
5
1
1
28
5
1
5
1
5
28
1
1
5
1
5
1
1
28
5
1
5
1
5
1
5
28
1
1
1
5
1
1
1
5
1
1
5
1
5
1
1
1
1
1
5
1
1
1
5
1
1
1
5
1
1
1
5
5
1
5
1
1
1
5
1
1
1
5
1
1
5
1
5
1
1
5
1
5
1
1
1
1
1
1
1
1
1
1
1
1
1
1
1
1
5
1
1
1
5
1
5
1
1
1
5
1
5
1
1
1
1
1
5
1
5
1
1
1
1
1
1
1
1
1
1
1
1
5
1
1
1
5
1
1
1
5
1
1
1
1
1
1
1
6
1
1
5
1
1
1
1
1
1
1
1
1
1
1
1
1
1
1
1
1
5
1
1
1
1
1
1
1
1
1
1
5
1
5
1
5
5
1
1
1
1
1
1
1
1
1
1
1
1
1
1
1
5
1
5
1
1
1
1
5
1
5
1
1
5
1
5
5
1
1
1
5
1
5
1
1
5
1
5
1
1
5
1
5
1
1
1
1
1
28
5
1
5
1
5
28
1
1
1
5
1
1
1
5
1
1
5
1
5
1
1
1
5
1
1
1
5
1
1
1
5
1
1
1
5
1
1
1
1
1
5
1
1
1
1
1
5
1
5
1
1
1
1
1
5
1
1
1
8
1
1
5
1
5
1
1
1
5
1
1
1
5
1
1
1
5
1
1
5
1
1
1
1
1
5
1
5
1
1
5
1
5
1
1
5
1
5
1
1
5
1
5
1
1
1
1
1
5
1
1
1
5
1
1
1
1
1
5
1
1
1
1
1
5
1
5
1
1
1
1
1
1
1
1
5
1
5
1
1
1
5
5
1
5
1
1
1
1
1
5
1
1
1
8
1
1
1
5
1
1
1
5
1
1
1
5
1
1
8
1
1
1
1
1
1
5
1
1
1
5
1
1
5
1
1
1
28
5
1
5
1
5
28
1
1
1
1
1
5
1
1
1
1
1
1
1
1
1
5
1
1
1
1
1
5
1
1
1
1
1
1
1
1
1
5
1
5
1
1
1
1
5
5
1
5
1
5
1
1
5
1
5
1
1
1
1
1
1
5
1
5
1
1
1
1
1
5
1
1
1
1
1
5
5
1
5
1
1
1
1
1
1
5
1
5
1
1
1
5
5
1
5
1
1
5
1
5
1
1
5
1
5
5
1
1
1
5
1
1
5
1
5
1
1
28
5
1
5
1
5
28
1
1
5
1
1
1
5
1
1
1
5
1
1
1
5
1
1
1
5
1
1
1
5
1
1
1
5
1
1
1
5
1
5
1
1
1
5
1
1
1
1
1
1
1
1
1
1
1
1
1
1
1
1
1
1
1
1
5
1
1
1
5
1
5
1
1
1
1
5
1
1
1
5
1
1
1
1
1
5
1
1
1
5
1
1
1
5
1
5
1
1
1
1
5
1
1
1
5
1
1
1
5
1
5
1
1
1
5
5
1
5
5
1
1
1
1
1
5
1
1
1
5
1
1
1
5
1
1
1
5
1
1
1
1
1
1
1
1
1
5
1
1
1
5
1
1
1
5
1
1
1
1
1
1
1
5
1
1
1
5
1
1
1
5
1
1
1
5
1
1
1
5
1
1
1
5
1
1
1
5
1
1
1
5
1
1
1
5
1
1
1
5
1
1
1
5
1
1
1
5
1
1
1
5
1
1
1
5
1
1
1
5
1
1
1
5
1
1
1
5
1
1
1
5
1
1
1
5
1
1
1
5
1
1
1
5
1
1
1
5
1
1
1
5
5
1
5
1
1
1
5
1
1
1
5
5
1
5
1
1
1
1
1
5
1
1
1
5
5
1
5
1
5
1
1
1
5
1
1
1
5
5
1
1
1
1
5
5
1
1
5
1
1
28
5
5
5
28
1
5
5
1
28
5
5
5
28
1
5
1
1
1
1
5
1
5
5
1
1
1
5
1
1
5
1
1
1
5
1
1
1
28
5
5
5
28
1
1
1
5
1
5
1
1
1
1
1
1
1
1
5
1
1
1
5
1
1
1
5
1
1
1
5
1
1
1
5
1
1
1
5
1
1
1
5
1
1
1
5
1
1
1
5
1
1
1
5
1
1
1
5
1
1
1
5
1
1
1
5
1
1
1
5
1
1
1
5
1
1
1
1
1
1
1
1
1
1
1
1
1
1
28
5
1
5
1
5
1
5
28
1
1
1
5
1
1
1
5
1
1
1
5
1
1
1
5
1
1
1
5
5
1
5
1
1
1
5
1
5
1
1
1
1
1
1
1
1
1
5
1
1
1
5
1
5
1
1
1
5
1
1
1
5
1
1
1
5
5
1
5
1
5
1
5
5
1
1
1
5
1
5
1
1
1
5
1
1
1
5
1
1
1
5
1
1
1
5
5
1
5
5
1
1
5
1
5
1
1
1
5
1
1
5
1
1
1
5
1
1
1
5
1
1
1
5
1
1
1
5
1
1
1
5
1
1
1
5
1
1
1
5
1
1
1
5
1
1
1
5
1
1
1
5
1
1
1
5
1
1
1
5
1
1
1
5
1
1
1
5
1
1
1
5
1
1
1
5
1
1
1
5
1
1
1
28
5
1
5
1
5
28
1
1
1
1
1
1
1
1
5
1
5
5
1
1
1
5
1
1
1
5
1
1
1
5
1
1
1
5
1
1
1
5
1
1
1
5
1
1
1
5
1
1
1
5
1
1
1
5
1
1
1
5
1
1
1
5
1
1
1
5
1
1
1
5
1
1
1
5
1
1
1
5
1
1
1
5
1
1
1
5
1
1
1
5
1
1
1
5
1
1
1
5
1
1
5
1
1
1
5
1
1
1
5
1
1
1
5
1
1
1
5
1
1
1
5
1
1
1
5
1
1
1
5
1
1
1
5
1
1
1
5
1
1
1
5
1
1
1
5
1
1
1
5
1
1
1
5
1
1
1
5
1
1
1
5
1
1
1
5
1
1
1
5
1
1
1
5
1
1
1
5
1
1
1
5
1
1
1
5
1
1
1
5
1
1
1
5
1
1
1
5
1
1
1
5
1
1
1
5
1
1
1
5
1
1
1
5
5
1
5
1
5
1
1
1
6
1
1
1
5
1
5
5
1
1
1
5
1
1
1
5
1
1
1
5
1
1
1
5
1
1
1
5
1
1
1
5
1
1
1
5
1
1
1
5
1
1
1
28
5
1
5
1
5
1
5
1
5
28
1
1
1
1
1
5
5
1
1
1
5
1
5
1
1
1
5
1
1
5
1
1
5
1
5
1
1
5
1
1
1
5
1
1
1
5
1
8
1
1
1
1
1
5
1
1
1
5
1
1
1
5
1
1
1
5
1
1
1
5
1
1
1
5
5
1
5
1
1
1
5
1
1
1
5
5
1
5
1
1
1
5
1
1
1
5
5
1
5
1
1
1
5
1
1
1
5
5
1
5
1
1
1
28
5
1
5
1
5
28
1
1
1
28
5
5
5
28
1
5
1
1
1
1
1
5
1
5
1
1
1
5
1
1
1
5
1
1
1
5
5
1
5
1
5
1
1
5
1
5
1
1
5
1
5
1
1
1
1
5
1
1
1
1
1
1
1
5
1
1
1
5
5
1
5
1
1
28
5
1
5
1
5
1
5
1
5
28
1
1
1
1
1
5
1
1
1
5
1
1
1
5
1
1
1
