0.05
0.21389
1.0278
1.8389
2.6278
3.4194
4.2083
5.025
5.6778
6.6722
7.5167
8.3278
9.1167
9.8889
10.728
11.583
12.406
13.233
14.056
14.85
15.647
16.439
17.261
18.131
18.953
19.739
20.531
21.306
22.092
22.903
23.719
24.547
25.392
26.197
26.972
27.772
28.561
29.419
30.261
31.086
31.889
32.725
33.517
34.306
35.125
35.969
36.85
37.672
38.45
39.253
40.064
40.861
41.697
42.528
43.353
44.164
44.953
45.733
46.542
47.383
48.217
49.047
49.853
50.631
51.428
52.208
53
53.856
54.703
55.525
56.308
57.094
57.881
58.697
59.508
60.358
61.192
62.003
62.786
63.558
64.344
65.147
65.989
66.814
67.625
68.403
69.203
69.992
70.792
71.608
72.467
73.297
74.083
74.867
75.658
76.489
77.314
78.144
78.975
79.797
80.594
81.372
82.167
82.981
83.839
84.686
85.497
86.292
87.078
87.875
88.686
89.511
90.358
91.211
92.019
92.786
93.586
94.389
95.206
96.042
96.861
97.689
98.486
99.267
100.04
100.86
101.68
102.54
103.38
104.16
104.95
105.75
106.54
107.36
108.19
109.03
109.85
110.63
111.38
112.17
112.99
113.81
114.64
115.46
116.25
116.99
117.82
118.6
119.43
120.3
121.12
121.92
122.7
123.49
124.29
125.08
125.9
126.74
127.57
128.34
129.11
129.89
130.66
131.48
132.31
133.11
133.89
134.68
135.46
136.22
137.01
137.83
138.68
139.48
140.25
141.03
141.82
142.61
143.41
144.22
145.04
145.85
146.62
147.4
148.17
148.97
149.79
150.61
151.41
152.18
152.96
153.73
154.51
155.3
156.13
156.95
157.73
158.49
159.26
160.04
160.83
161.64
162.47
163.3
164.1
164.87
165.64
166.44
167.26
168.1
168.94
169.74
170.53
171.33
172.12
172.91
173.74
174.59
175.43
176.22
176.97
177.77
178.58
179.39
180.21
181.04
181.84
182.64
183.42
184.19
185.01
185.53
186.47
187.32
188.13
188.91
189.73
190.54
191.35
192.2
193.06
193.88
194.65
195.44
196.23
197.06
197.89
198.72
199.57
200.38
201.16
201.95
202.77
203.61
204.47
205.31
206.1
206.9
207.69
208.29
209.26
210.09
210.93
211.76
212.54
213.29
214.09
214.91
215.73
216.54
217.36
218.16
218.96
219.72
220.52
221.36
222.2
223.03
223.84
224.63
225.42
226.22
227.03
227.86
228.71
229.54
230.35
231.14
231.92
232.76
233.62
234.46
235.3
236.14
236.95
237.72
238.53
239.36
240.22
241.06
241.89
242.68
243.48
244.28
245.09
245.92
246.76
247.6
248.39
249.18
249.97
250.79
251.64
252.46
253.31
254.11
254.89
255.68
256.49
257.31
258.18
259.02
259.82
260.62
261.39
262.21
263.04
263.88
264.72
265.57
266.37
267.14
267.92
268.74
269.58
270.41
271.23
272.04
272.86
273.63
274.41
275.23
276.06
276.61
277.58
278.38
279.16
279.95
280.75
281.56
282.37
283.17
283.98
284.77
285.54
286.32
287.14
287.97
288.79
289.61
290.4
291.19
291.99
292.8
293.63
294.49
295.32
296.11
296.89
297.66
298.48
299.31
300.13
300.95
301.79
302.57
303.33
304.13
304.92
305.77
306.59
307.43
308.23
309.01
309.79
310.58
311.41
312.24
313.08
313.89
314.67
315.45
316.25
317.06
317.86
318.66
319.44
320.22
320.96
321.71
322.46
323.25
324.04
324.83
325.59
326.37
327.13
327.9
328.68
329.46
330.31
331.15
331.97
332.75
333.55
334.38
335.21
336.08
336.94
337.79
338.58
339.36
340.17
340.97
341.81
342.67
343.51
344.27
345.06
345.85
346.6
347.39
348.21
349.02
349.79
350.56
351.32
352.07
352.85
353.65
354.45
355.26
355.79
356.73
357.49
358.22
358.97
359.77
360.55
361.27
361.99
362.69
363.38
364.09
364.79
365.51
366.25
367.01
367.73
368.41
369.12
369.81
370.53
371.28
372.04
372.77
373.51
374.27
374.97
375.68
376.4
377.17
377.95
378.75
379.53
380.27
381.03
381.8
382.58
383.36
384.18
384.99
385.8
386.57
387.33
388.11
388.91
389.73
390.55
391.34
392.09
392.84
393.57
394.29
395.02
395.77
396.52
397.25
397.96
398.65
399.35
400.07
400.79
401.55
402.31
403.09
403.84
404.57
405.28
406.03
406.79
407.6
408.37
409.14
409.9
410.64
411.39
412.12
412.88
413.66
414.46
415.24
416.02
416.75
417.51
418.26
419.02
419.78
420.57
421.39
422.15
422.88
423.64
424.39
425.19
426.01
426.79
427.56
428.31
429.08
429.84
430.58
431.36
432.19
432.96
433.7
434.43
435.13
435.85
436.58
437.31
438.04
438.78
439.54
440.25
440.92
441.59
442.29
443
443.72
444.45
445.17
445.85
446.54
447.24
447.93
448.61
449.34
450.1
450.86
451.59
452.32
453.04
453.78
454.52
455.27
456.06
456.84
457.59
458.31
459.02
459.72
460.43
461.2
461.95
462.69
463.45
464.2
464.92
465.67
466.42
467.2
468.01
468.84
469.65
470.41
471.19
471.96
472.78
473.6
474.22
475.21
476.03
476.81
477.56
478.33
479.11
479.93
480.74
481.53
482.3
483.07
483.82
484.59
485.38
486.18
487.01
487.8
488.55
489.29
490.07
490.83
491.6
492.36
493.12
493.88
494.61
495.32
496.05
496.78
497.55
498.3
499.06
499.8
500.51
501.23
501.96
502.68
503.43
504.23
505.03
505.79
506.54
507.29
508.04
508.84
509.65
510.49
511.31
512.11
512.91
513.7
514.48
515.31
516.19
517.05
517.86
518.66
519.46
520.25
521.05
521.87
522.72
523.56
524.34
525.12
525.92
526.73
527.58
528.41
529.25
530.06
530.87
531.65
532.43
533.27
534.11
534.93
535.73
536.52
537.29
538.06
538.87
539.67
540.48
541.3
542.1
542.85
543.61
544.38
545.19
546
546.8
547.59
548.37
549.13
549.86
550.62
551.4
552.2
552.99
553.76
554.5
555.26
556
556.76
557.54
558.31
559.09
559.85
560.57
561.3
562.05
562.82
563.6
564.39
565.19
565.95
566.73
567.5
568.26
569.04
569.88
570.72
571.49
572.27
573.02
573.8
574.57
575.36
576.17
577.01
577.79
578.55
579.3
580.06
580.83
581.64
582.45
583.26
584.04
584.82
585.58
586.35
587.12
587.93
588.75
589.52
590.28
591.05
591.83
592.57
593.35
594.15
594.95
595.74
596.49
597.24
598
598.79
599.58
600.39
601.2
601.97
602.75
603.52
604.3
605.07
605.89
606.71
607.51
608.26
609.02
609.8
610.59
611.38
612.2
613.03
613.83
614.59
615.35
616.12
616.89
617.71
618.52
619.31
620.08
620.85
621.62
622.35
623.13
623.95
624.76
625.54
626.31
627.06
627.84
628.6
629.37
630.17
630.96
631.74
632.51
633.26
633.99
634.77
635.58
636.37
637.16
637.94
638.71
639.48
640.24
641
641.83
642.66
643.44
644.2
644.97
645.72
646.48
647.27
648.06
648.86
649.65
650.42
651.15
651.9
652.66
653.47
654.3
655.08
655.86
656.64
657.4
658.13
658.9
659.71
660.51
661.31
662.06
662.81
663.57
664.33
665.09
665.88
666.66
667.41
668.17
668.91
669.63
670.33
671.08
671.82
672.54
673.26
673.98
674.66
675.37
676.08
676.79
677.52
678.31
679.06
679.8
680.51
681.24
681.99
682.75
683.51
684.31
685.13
685.93
686.67
687.41
688.17
688.94
689.72
690.52
691.33
692.11
692.87
693.63
694.41
695.2
695.99
696.83
697.67
698.45
699.19
699.98
700.79
701.62
702.41
703.22
704.04
704.84
705.58
706.34
707.18
708.03
708.81
709.59
710.38
711.19
711.93
712.7
713.5
714.33
715.11
715.86
716.57
717.29
717.99
718.71
719.46
720.22
720.95
721.7
722.43
723.15
723.85
724.59
725.37
726.16
726.92
727.69
728.45
729.21
729.97
730.73
731.53
732.34
733.14
733.94
734.72
735.48
736.28
737.09
737.92
738.74
739.55
740.36
741.15
741.94
742.71
743.55
744.38
745.17
745.96
746.73
747.51
748.29
749.08
749.89
750.71
751.53
752.28
753.04
753.81
754.6
755.42
756.23
757.04
757.89
758.67
759.43
760.21
761.02
761.84
762.67
763.48
764.25
765.01
765.75
766.52
767.32
768.1
768.9
769.73
770.52
771.25
772.01
772.81
773.66
774.48
775.27
776.06
776.6
777.55
778.36
779.2
780.04
780.86
781.67
782.45
783.21
783.98
784.76
785.56
786.38
787.19
787.98
788.73
789.49
790.25
791.05
791.87
792.67
793.48
794.27
795.03
795.79
796.56
797.36
798.2
799.04
799.84
800.63
801.41
802.2
802.99
803.81
804.63
805.48
806.27
807.05
807.81
808.64
809.46
810.27
811.08
811.89
812.68
813.46
814.23
815.03
815.87
816.7
817.49
818.28
819.05
819.84
820.61
821.44
822.26
823.11
823.92
824.69
825.47
826.25
827.05
827.87
828.71
829.52
830.33
831.13
831.9
832.66
833.48
834.33
835.17
835.94
836.69
837.48
838.28
839.06
839.85
840.68
841.52
842.33
843.06
843.81
844.63
845.45
846.22
847.01
847.81
848.6
849.19
850.1
850.94
851.78
852.62
853.43
854.21
854.85
855.73
856.52
857.29
858.09
858.93
859.76
860.5
861.26
862.03
862.85
863.65
864.44
865.24
866.06
866.84
867.58
868.35
868.96
869.98
870.86
871.69
872.47
873.26
874.07
874.87
875.68
876.5
877.34
878.16
878.93
879.7
880.5
881.29
882.11
882.74
883.74
884.55
885.36
886.14
886.73
887.74
888.62
889.46
890.26
891.07
891.87
892.7
893.51
894.36
895.21
896.04
896.82
897.61
898.4
899.25
900.12
900.94
901.78
902.58
903.38
904.15
904.95
905.8
906.65
907.49
908.29
909.1
909.91
910.72
911.52
912.37
913.2
914.04
914.83
915.61
916.42
917.27
918.12
918.94
919.79
920.59
921.4
922.19
923
923.86
924.71
925.55
926.33
927.13
927.93
928.74
929.56
930.4
931.24
932.06
932.84
933.61
934.4
935.22
936.05
936.89
937.7
938.51
939.29
940.09
940.89
941.74
942.58
943.43
944.24
945.01
945.81
946.61
947.43
948.27
949.12
949.93
950.74
951.52
952.28
953.1
953.91
954.74
955.54
956.33
957.1
957.9
958.69
959.49
960.34
961.16
961.97
962.77
963.34
964.3
965.15
966
966.84
967.69
968.49
969.26
970.06
970.84
971.68
972.53
973.36
974.14
974.94
975.74
976.34
977.28
978.1
978.93
979.75
980.52
981.27
982.08
982.87
983.69
984.52
985.33
986.15
986.95
987.72
988.49
989.35
990.17
990.99
991.79
992.58
993.36
994.17
994.96
995.78
996.63
997.46
998.24
998.98
999.73
1000.5
1001.3
1002.1
1002.9
1003.7
1004.5
1005.3
1006
1006.8
1007.6
1008.4
1009.2
1010
1010.8
1011.5
1012.4
1013.1
1014
1014.8
1015.7
1016.4
1017.2
1018
1018.8
1019.6
1020.5
1021.3
1022.1
1022.9
1023.7
1024.5
1025.3
1026.1
1027
1027.8
1028.6
1029.3
1030.1
1030.9
1031.7
1032.5
1033.4
1034.2
1034.9
1035.7
1036.5
1037.3
1038.1
1038.9
1039.7
1040.5
1041.3
1042
1042.8
1043.7
1044.4
1045.2
1046
1046.8
1047.4
1048.3
1049.2
1050
1050.9
1051.7
1052.5
1053.2
1054
1054.8
1055.6
1056.4
1057.3
1058
1058.8
1059.6
1060.3
1061.2
1062
1062.8
1063.6
1064.4
1065.2
1066
1066.7
1067.5
1068.4
1069.2
1070
1070.8
1071.6
1072.4
1073.2
1074
1074.8
1075.7
1076.5
1077.3
1078
1078.8
1079.6
1080.5
1081.3
1082.1
1082.9
1083.7
1084.5
1085.4
1086.2
1087.1
1087.9
1088.7
1089.5
1090.3
1091.1
1091.9
1092.7
1093.5
1094.3
1095.1
1095.9
1096.7
1097.5
1098.3
1099.2
1100
1100.7
1101.5
1102.3
1103.1
1103.7
1104.7
1105.6
1106.4
1107.1
1107.9
1108.7
1109.5
1110.4
1111.2
1112
1112.8
1113.5
1114.3
1115.1
1116
1116.8
1117.7
1118.5
1119.3
1120
1120.9
1121.7
1122.5
1123.3
1124.2
1124.9
1125.7
1126.5
1127.3
1128.1
1129
1129.8
1130.6
1131.4
1132.1
1132.9
1133.8
1134.6
1135.4
1136.2
1137
1137.8
1138.6
1139.4
1140.2
1141.1
1141.9
1142.6
1143.4
1144.2
1145
1145.9
1146.7
1147.5
1148.3
1149.1
1149.9
1150.7
1151.5
1152.4
1153.2
1154
1154.7
1155.5
1156.3
1157.1
1157.9
1158.8
1159.6
1160.4
1161.1
1161.9
1162.7
1163.5
1164.3
1165.1
1166
1166.7
1167.5
1168.3
1169.1
1169.9
1170.8
1171.6
1172.2
1173.1
1173.9
1174.5
1175.5
1176.3
1177.1
1178
1178.7
1179.5
1180.3
1181.1
1181.9
1182.7
1183.5
1184.4
1185.2
1185.9
1186.7
1187.6
1188.4
1189.2
1190
1190.8
1191.6
1192.4
1193.2
1194.1
1194.9
1195.8
1196.5
1197.3
1198.1
1198.9
1199.8
1200.6
1201.4
1202.2
1203
1203.8
1204.6
1205.1
1206.1
1207
1207.8
1208.6
1209.4
1210.2
1211
1211.5
1212.5
1213.4
1214.2
1215
1215.8
1216.6
1217.4
1218.3
1219.1
1219.9
1220.7
1221.5
1222.3
1223.1
1224
1224.8
1225.6
1226.4
1227.3
1228.1
1228.9
1229.5
1230.5
1231.4
1232.2
1233
1233.8
1234.6
1235.3
1236.3
1237.1
1237.9
1238.7
1239.5
1240.3
1241.1
1242
1242.8
1243.6
1244.4
1245.2
1246
1246.8
1247.6
1248.4
1249.3
1250.1
1250.9
1251.7
1252.5
1253.3
1254.2
1255
1255.8
1256.6
1257.4
1258.2
1259
1259.8
1260.7
1261.5
1262.3
1262.9
1263.9
1264.7
1265.5
1266.4
1267.2
1268
1268.8
1269.6
1270.4
1271.2
1272
1272.7
1273.7
1274.5
1275.3
1276.1
1276.8
1277.7
1278.5
1279.4
1280.2
1281
1281.8
1282.6
1283.4
1284.2
1285.1
1285.9
1286.7
1287.4
1288.2
1289
1289.9
1290.7
1291.6
1292.4
1293.2
1293.9
1294.7
1295.6
1296.4
1297.3
1298.1
1298.9
1299.7
1300.5
1301.3
1302.1
1303
1303.8
1304.6
1305.4
1306.2
1307
1307.9
1308.7
1309.6
1310.4
1311.2
1312
1312.7
1313.6
1314.4
1315.3
1316.1
1316.9
1317.7
1318.5
1319.3
1320.1
1321
1321.8
1322.6
1323.4
1324.2
1325
1325.9
1326.7
1327.5
1328.3
1329.1
1329.9
1330.7
1331.5
1332.3
1333.1
1333.9
1334.7
1335.5
1336.3
1337.1
1337.9
1338.7
1339.6
1340.3
1341.1
1341.9
1342.6
1343.4
1344.3
1345.1
1345.9
1346.6
1347.4
1348.2
1349
1349.8
1350.7
1351.5
1352.3
1353.1
1354
1354.8
1355.6
1356.4
1357.3
1358.1
1358.9
1359.7
1360.5
1361.4
1362.2
1363
1363.9
1364.7
1365.5
1366.3
1367.1
1367.9
1368.8
1369.6
1370.4
1371.2
1372
1372.8
1373.6
1374.4
1375.2
1376
1376.8
1377.6
1378.3
1379.2
1379.8
1380.8
1381.6
1382.4
1383.2
1384
1384.8
1385.6
1386.4
1387.3
1388.1
1388.9
1389.6
1390.4
1391.2
1392.1
1392.9
1393.7
1394.6
1395.3
1396.1
1396.9
1397.8
1398.6
1399.4
1400.2
1401
1401.8
1402.6
1403.4
1404.2
1405.1
1405.9
1406.7
1407.4
1408.2
1409
1409.9
1410.7
1411.6
1412.4
1413.2
1413.9
1414.8
1415.6
1416.5
1417.3
1418.1
1418.9
1419.7
1420.5
1421.3
1422.1
1423
1423.8
1424.6
1425.4
1426.2
1427
1427.8
1428.7
1429.5
1430.3
1431.1
1431.9
1432.7
1433.5
1434.4
1435.2
1436
1436.8
1437.6
1438.4
1439.2
1440.1
1440.9
1441.7
1442.5
1443.3
1444.1
1444.9
1445.7
1446.6
1447.2
1448.2
1449
1449.8
1450.6
1451.4
1452.3
1453.1
1453.9
1454.7
1455.6
1456.3
1457.2
1458
1458.9
1459.7
1460.5
1461.3
1462.1
1462.9
1463.7
1464.6
1465.4
1466.2
1467
1467.8
1468.6
1469.4
1470.3
1471.1
1471.9
1472.8
1473.5
1474.3
1475.2
1476
1476.9
1477.7
1478.5
1479.3
1480.1
1480.9
1481.7
1482.6
1483.4
1484.2
1485
1485.8
1486.6
1487.4
1488.2
1489.1
1489.9
1490.7
1491.5
1492.3
1493.1
1493.9
1494.8
1495.6
1496.4
1497.2
1498
1498.8
1499.7
1500.5
1501.3
1502.1
1502.9
1503.7
1504.5
1505.3
1506.2
1507
1507.8
1508.7
1509.5
1510.2
1511.1
1511.9
1512.8
1513.6
1514.4
1515.2
1515.9
1516.7
1517.5
1518.3
1518.9
1520
1520.8
1521.5
1522.3
1523.2
1524
1524.8
1525.6
1526.4
1527.2
1528
1528.7
1529.6
1530.4
1531.3
1532
1532.8
1533.6
1534.4
1535.2
1536
1536.9
1537.7
1538.5
1539.3
1540.1
1540.9
1541.7
1542.6
1543.4
1544.2
1545
1545.8
1546.6
1547.4
1548.2
1549.1
1549.9
1550.7
1551.5
1552.3
1553.1
1553.9
1554.7
1555.5
1556.4
1557.2
1557.9
1558.7
1559.5
1560.4
1561.2
1562
1562.8
1563.4
1564.3
1565.1
1565.9
1566.8
1567.6
1568.3
1569.1
1569.9
1570.7
1571.5
1572.3
1572.9
1573.9
1574.7
1575.5
1576.1
1577
1577.9
1578.7
1579.5
1580.3
1581.1
1581.9
1582.7
1583.5
1584.3
1585.2
1586
1586.8
1587.6
1588.4
1589.2
1590.1
1590.9
1591.8
1592.6
1593.4
1594.1
1595
1595.6
1596.6
1597.5
1598.3
1599.1
1599.9
1600.7
1601.5
1602.4
1603.2
1604
1604.8
1605.6
1606.4
1607.2
1608.1
1608.9
1609.6
1610.5
1611.3
1612.1
1612.9
1613.7
1614.6
1615.4
1616.2
1617
1617.8
1618.5
1619.2
1620.1
1620.9
1621.7
1622.5
1623.2
1624
1624.7
1625.5
1626.3
1627
1627.8
1628.5
1629.2
1629.9
1630.6
1631.4
1632.1
1632.9
1633.6
1634.4
1635.1
1635.8
1636.6
1637.4
1638.2
1639
1639.8
1640.5
1641.3
1642.1
1642.8
1643.6
1644.4
1645.2
1646
1646.8
1647.4
1648.3
1649.1
1650
1650.8
1651.6
1652.4
1653.1
1653.9
1654.7
1655.5
1656.3
1657.2
1658
1658.7
1659.5
1660.2
1660.9
1661.6
1662.4
1663.1
1663.8
1664.5
1665.2
1665.8
1666.5
1667.3
1668
1668.7
1669.5
1670.2
1670.9
1671.7
1672.4
1673.1
1673.9
1674.7
1675.5
1676.3
1677
1677.7
1678.5
1679.3
1680.1
1681
1681.8
1682.6
1683.4
1684.1
1685
1685.8
1686.6
1687.4
1688.2
1689
1689.7
1690.5
1691.3
1692
1692.8
1693.7
1694.4
1695.2
1696
1696.7
1697.5
1698.3
1699.2
1700
1700.7
1701.5
1702.3
1703.1
1703.9
1704.7
1705.5
1706.3
1707.1
1707.8
1708.6
1709.4
1710.2
1711
1711.8
1712.6
1713.3
1714.1
1714.9
1715.7
1716.5
1717.4
1718.1
1718.9
1719.7
1720.5
1721.3
1722.1
1722.9
1723.7
1724.5
1725.3
1726.1
1726.8
1727.6
1728.5
1729.3
1730.1
1730.8
1731.6
1732.3
1733.1
1733.9
1734.7
1735.5
1736.2
1737
1737.7
1738.5
1739.3
1740.1
1740.9
1741.7
1742.4
1743.2
1744
1744.7
1745.5
1746.4
1747.2
1747.7
1748.6
1749.3
1750.1
1750.8
1751.6
1752.3
1753.1
1753.8
1754.5
1755.3
1756
1756.7
1757.5
1758.2
1759
1759.7
1760.5
1761.2
1761.9
1762.6
1763.4
1764.2
1765
1765.8
1766.6
1767.3
1768.1
1768.9
1769.7
1770.6
1771.4
1772.2
1773
1773.8
1774.6
1775.4
1776.2
1777.1
1777.9
1778.7
1779.5
1780.3
1781
1781.9
1782.7
1783.5
1784.3
1785
1785.8
1786.6
1787.3
1788.1
1788.9
1789.7
1790.4
1791.1
1791.8
1792.6
1793.3
1794.1
1794.8
1795.5
1796.3
1797
1797.7
1798.4
1799.1
1799.8
1800.6
1801.3
1802
1802.7
1803.4
1804.1
1804.8
1805.5
