0.019444
0.23056
1.1
1.975
2.8667
3.8
4.7556
5.6556
6.525
7.3944
8.2556
9.1694
10.086
11
11.897
12.803
13.689
14.558
15.469
16.383
17.286
18.133
18.972
19.842
20.731
21.628
22.514
23.372
24.225
25.072
25.892
26.744
27.647
28.558
29.417
30.256
31.069
31.861
32.667
33.472
34.272
35.058
35.864
36.619
37.381
38.167
38.972
39.814
40.667
41.453
42.208
42.983
43.778
44.586
45.419
46.264
47.1
47.917
48.7
49.483
50.275
51.1
51.908
52.714
53.519
54.328
55.167
56.036
56.925
57.839
58.794
59.717
60.578
61.472
62.364
63.283
64.239
65.158
66.039
66.917
67.789
68.667
69.556
70.483
71.4
72.244
73.083
73.992
74.908
75.842
76.725
77.594
78.453
79.331
80.169
80.986
81.853
82.728
83.578
84.408
85.244
86.069
86.972
87.872
88.742
89.617
90.458
91.294
92.125
92.964
93.825
94.7
95.531
96.331
97.167
98.022
98.883
99.756
100.6
101.47
102.33
103.17
104.03
104.92
105.83
106.75
107.63
108.5
109.38
110.26
111.15
112.06
112.79
112.97
113.57
113.82
114.63
115.4
116.19
116.47
117.02
117.84
118.65
119.42
120.19
120.96
121.71
122.49
123.3
124.1
124.94
125.75
126.54
127.33
128.16
129
129.86
130.72
131.55
132.38
133.18
133.97
134.77
135.61
136.46
137.28
138.05
138.83
139.58
140.35
141.16
141.98
142.78
143.57
144.35
145.11
145.87
146.65
147.46
148.28
149.07
149.85
150.61
151.44
152.26
153.07
153.9
154.75
155.59
156.41
157.24
158.11
159.03
159.98
160.91
161.79
162.62
163.46
164.35
165.25
166.17
167.1
167.99
168.84
169.69
170.54
171.46
172.38
173.22
174.09
174.98
175.27
175.88
176.15
176.75
177.69
178.59
179.52
180.36
181.24
182.16
183.07
183.96
184.9
185.81
186.66
187.53
188.42
189.34
190.29
191.19
192.04
192.91
193.77
194.67
195.6
196.53
197.47
198.33
199.19
200.06
200.97
201.89
202.78
203.63
204.44
205.31
206.19
207.1
208.04
208.93
209.82
210.71
211.57
212.48
213.42
214.34
215.27
216.19
217.07
217.98
218.93
219.89
220.88
221.81
222.67
223.51
224.37
225.3
226.26
227.19
228.09
229.01
229.93
230.85
231.76
232.71
233.66
234.52
235.38
236.31
237.27
238.2
239.08
239.92
240.79
241.64
242.51
243.48
244.44
245.38
246.3
247.22
248.18
249.16
250.17
251.11
252.05
252.97
253.88
254.84
255.82
256.8
257.75
258.7
259.64
260.6
261.55
262.55
263.52
264.44
265.36
266.29
267.3
268.3
269.28
270.23
271.14
272.08
273.03
274.02
275.03
275.99
276.92
277.82
278.78
279.78
280.79
281.74
282.7
283.65
284.6
285.63
286.66
287.65
288.56
289.47
290.41
291.34
292.22
293.14
294.03
294.95
295.85
296.78
297.8
298.8
299.77
300.7
301.59
302.55
303.54
304.54
305.55
306.52
307.48
308.46
309.47
310.53
311.57
312.56
313.56
314.57
315.6
316.63
317.65
318.56
318.63
319.62
319.79
320.77
321.51
322.48
323.43
324.36
325.27
326.2
327.16
328.18
329.2
330.15
331.05
331.98
332.9
333.81
334.73
335.62
336.52
337.38
338.22
339.14
340.13
341.12
342.07
342.99
343.95
344.94
345.93
346.93
347.87
348.79
349.69
350.63
351.64
352.65
353.61
354.54
355.47
356.36
357.31
358.29
359.31
360.26
361.13
362.04
362.91
363.86
364.77
365.69
366.55
367.41
368.27
369.2
370.2
371.25
372.27
373.24
374.23
375.29
375.83
377.01
378.02
378.98
379.96
380.94
381.96
383.02
383.98
384.95
385.93
386.97
388.02
389.06
390.09
391.04
392.02
393.04
394.09
395.14
396.14
397.08
398.07
399.11
400.17
401.22
402.24
403.21
404.19
405.22
406.25
407.23
408.23
409.21
410.2
411.25
412.32
413.36
414.35
415.34
416.34
417.39
418.47
419.48
420.46
421.47
422.48
423.53
424.61
425.68
426.66
427.67
428.73
429.78
430.84
431.88
432.88
433.85
434.88
435.96
437.01
437.98
438.97
439.96
440.99
441.99
443.02
444.07
445.04
446.04
447.09
448.15
449.21
450.24
451.26
452.27
453.34
454.43
455.48
456.48
457.48
458.48
459.56
460.64
461.68
462.66
463.67
464.7
465.71
466.75
467.75
468.69
469.59
470.53
471.57
472.58
473.56
474.57
475.53
476.49
477.51
478.53
479.57
480.53
481.47
482.5
483.57
484.6
485.65
486.64
487.63
488.65
489.68
490.73
491.76
492.72
493.6
494.53
495.52
496.53
497.58
498.58
499.54
500.59
501.66
502.71
503.73
504.7
505.67
506.63
507.59
508.54
509.51
510.46
511.4
512.36
513.35
514.33
515.26
516.17
517.09
518.03
519.02
520.02
521.03
521.93
522.8
523.69
524.61
525.59
526.56
527.5
528.43
529.34
530.23
531.18
532.17
533.16
534.06
534.96
535.88
536.83
537.79
538.75
539.68
540.62
541.54
542.46
543.43
544.46
545.46
546.39
547.35
548.31
549.26
550.23
551.2
552.17
553.1
554.05
555.03
556.02
557.01
557.97
558.92
559.86
560.82
561.78
562.77
563.78
564.75
565.69
566.66
567.62
568.58
569.54
570.46
571.38
572.35
573.39
574.4
575.44
576.44
577.44
578.43
579.51
580.6
581.6
582.63
583.64
584.65
585.69
586.77
587.84
588.82
589.86
590.91
591.93
592.95
593.92
594.87
595.82
596.8
597.87
598.8
599.95
600.94
601.91
602.88
603.86
604.77
605.72
606.64
607.53
608.52
609.56
610.61
611.62
612.64
613.66
614.67
615.74
616.77
617.74
618.69
619.62
620.6
621.62
622.6
623.57
624.52
625.48
626.43
627.47
628.52
629.54
630.54
631.53
632.51
633.57
634.63
635.63
636.64
637.64
638.61
639.64
640.72
641.76
642.7
643.71
644.73
645.77
646.81
647.86
648.87
649.83
650.86
651.96
653.01
654.03
655.03
656.04
657.06
658.16
659.24
660.22
661.19
662.17
663.15
664.19
665.23
666.19
667.16
668.16
669.18
670.23
671.29
672.32
673.29
674.31
675.39
676.46
677.51
678.52
679.55
680.54
681.59
682.69
683.72
684.69
685.68
686.73
687.77
688.82
689.86
690.85
691.79
692.79
693.84
694.85
695.85
696.81
697.79
698.75
699.77
700.83
701.83
702.83
703.82
704.84
705.9
706.95
707.98
708.94
709.96
711.01
712.06
713.14
714.19
715.16
716.17
717.24
718.29
719.33
720.35
721.34
722.28
723.27
724.31
725.35
726.33
727.3
728.29
729.3
730.34
731.38
732.35
733.34
734.32
735.32
736.38
737.42
738.38
739.35
740.37
741.39
742.41
743.44
744.44
745.41
746.37
747.42
748.48
749.48
750.48
751.49
752.46
753.5
754.56
755.57
756.56
757.54
758.55
759.58
760.61
761.64
762.61
763.6
764.61
765.61
766.67
767.72
768.68
769.64
770.65
771.72
772.72
773.72
774.74
775.71
776.68
777.73
778.81
779.82
780.8
781.82
782.84
783.87
784.93
785.96
786.93
787.94
788.95
790.02
791.05
792.08
793.06
794.03
795.06
796.11
797.13
798.13
799.11
800.09
801.09
802.18
803.19
804.18
805.19
806.15
807.15
808.2
809.22
810.2
811.18
812.15
813.16
814.21
815.26
816.23
817.21
818.2
819.19
820.19
821.22
822.19
823.15
824.13
825.19
826.24
827.24
828.29
829.27
830.26
831.3
832.29
833.3
834.24
835.11
836.03
836.95
837.94
838.96
839.98
840.96
841.95
842.98
844.06
845.11
846.14
847.16
848.16
849.18
850.23
851.31
852.31
853.3
854.29
855.3
856.37
857.33
858.28
859.24
860.19
861.19
862.24
863.29
864.26
865.21
866.18
867.14
868.16
869.18
870.13
871.09
872.06
873.02
874.03
874.96
875.85
876.7
877.56
878.43
879.34
880.28
881.2
882.18
883.13
884.11
885.1
886.16
887.22
888.22
889.19
890.19
891.22
892.28
893.29
894.3
895.28
896.24
897.26
898.31
899.34
900.31
901.26
902.26
903.28
904.3
905.31
906.27
907.14
908.01
908.89
909.88
910.88
911.86
912.83
913.81
914.83
915.89
916.92
917.96
918.96
919.99
921.04
922.09
923.11
924.13
925.14
926.13
927.06
928.08
929.05
929.96
930.82
931.66
932.52
933.39
934.29
935.19
936.09
936.97
937.84
938.75
939.72
940.72
941.71
942.67
943.68
944.64
945.65
946.63
947.54
948.45
949.37
950.34
951.41
952.47
953.52
954.54
955.58
956.61
957.63
958.68
959.69
960.63
961.54
962.49
963.5
964.46
965.35
966.27
967.19
968.11
969.08
970.08
971.09
972.03
972.89
973.72
974.56
975.41
976.26
977.16
978.06
979
979.96
980.98
982.04
983.05
984.03
984.94
985.86
986.76
987.7
988.69
989.7
990.68
991.65
992.67
993.73
994.8
995.83
996.84
997.83
998.83
999.89
1000.9
1001.9
1002.9
1003.8
1004.8
1005.7
1006.7
1007.6
1008.5
1009.3
1010.1
1010.9
1011.9
1012.8
1013.8
1014.6
1015.5
1016.4
1017.4
1018.5
1019.5
1020.6
1021.6
1022.7
1023.7
1024.8
1025.9
1026.8
1027.8
1028.8
1029.8
1030.8
1031.8
1032.8
1033.7
1034.7
1035.8
1036.8
1037.8
1038.7
1039.7
1040.7
1041.8
1042.8
1043.8
1044.8
1045.8
1046.8
1047.8
1048.8
1049.8
1050.8
1051.7
1052.7
1053.7
1054.8
1055.8
1056.7
1057.7
1058.7
1059.6
1060.5
1061.5
1062.4
1063.3
1064.2
1065.2
1066.2
1067.2
1068.2
1069.2
1070.1
1071.1
1072.2
1073.2
1074.2
1075.2
1076.2
1077.1
1078.2
1079.1
1080
1080.9
1081.8
1082.7
1083.7
1084.6
1085.6
1086.6
1087.6
1088.5
1089.6
1090.6
1091.6
1092.6
1093.5
1094.5
1095.5
1096.6
1097.6
1098.5
1099.4
1100.4
1101.5
1102.5
1103.5
1104.5
1105.5
1106.4
1107.5
1108.5
1109.5
1110.5
1111.4
1112.4
1113.3
1114.3
1115.3
1116.2
1117.2
1118.2
1119.2
1120.2
1121.3
1122.3
1123.3
1124.3
1125.4
1126.4
1127.5
1128.5
1129.5
1130.4
1131.5
1132.6
1133.6
1134.6
1135.6
1136.5
1137.6
1138.6
1139.7
1140.6
1141.6
1142.6
1143.6
1144.7
1145.7
1146.6
1147.6
1148.6
1149.6
1150.7
1151.7
1152.7
1153.7
1154.6
1155.7
1156.7
1157.7
1158.7
1159.6
1160.6
1161.6
1162.7
1163.7
1164.6
1165.6
1166.6
1167.6
1168.6
1169.6
1170.6
1171.6
1172.5
1173.6
1174.6
1175.6
1176.5
1177.5
1178.4
1179.3
1180.3
1181.2
1182.2
1183.1
1184.1
1185.1
1186.1
1187.2
1188.2
1189.1
1190.1
1191.1
1192.1
1193.2
1194.2
1195.2
1196.2
1197.2
1198.2
1199.2
1200.2
1201.2
1202.1
1203
1204
1205
1206
1206.9
1207.9
1208.9
1210
1211
1212
1213
1213.9
1215
1216
1217
1218
1219
1219.9
1220.9
1221.9
1222.9
1223.8
1224.8
1225.7
1226.7
1227.6
1228.6
1229.6
1230.5
1231.4
1232.2
1233.2
1234.2
1235.1
1236
1237
1237.9
1238.9
1239.9
1240.9
1241.9
1242.8
1243.8
1244.8
1245.7
1246.7
1247.7
1248.7
1249.6
1250.6
1251.5
1252.5
1253.5
1254.4
1255.4
1256.3
1257.3
1258.3
1259.3
1260.3
1261.2
1262.2
1263.1
1264.1
1265.1
1266.1
1267
1268
1268.9
1269.9
1270.9
1271.8
1272.8
1273.7
1274.7
1275.7
1276.7
1277.7
1278.6
1279.5
1280.5
1281.5
1282.4
1283.4
1284.3
1285.3
1286.2
1287.2
1288.2
1289.2
1290.2
1291.1
1292.1
1293.1
1294.1
1295.1
1296
1296.9
1297.8
1298.8
1299.7
1300.7
1301.7
1302.6
1303.5
1304.5
1305.5
1306.5
1307.4
1308.4
1309.4
1310.3
1311.3
1312.3
1313.3
1314.3
1315.3
1316.3
1317.2
1318.2
1319.2
1320.2
1321.1
1322
1323
1324
1325.1
1326
1327
1327.9
1328.8
1329.9
1330.9
1331.8
1332.8
1333.8
1334.8
1335.8
1336.8
1337.8
1338.7
1339.7
1340.6
1341.7
1342.6
1343.6
1344.5
1345.5
1346.4
1347.3
1348.3
1349.4
1350.3
1351.3
1352.3
1353.4
1354.4
1355.4
1356.4
1357.4
1358.3
1359.3
1360.3
1361.3
1362.3
1363.2
1364.2
1365.2
1366.2
1367.1
1368
1368.9
1369.9
1370.8
1371.7
1372.7
1373.6
1374.6
1375.5
1376.4
1377.4
1378.4
1379.4
1380.3
1381.2
1382.1
1383.1
1384
1384.9
1385.8
1386.6
1387.5
1388.4
1389.3
1390.2
1391.1
1392
1392.9
1393.8
1394.7
1395.6
1396.6
1397.5
1398.4
1399.2
1400.1
1401
1402
1403
1404
1404.9
1405.8
1406.7
1407.7
1408.6
1409.6
1410.5
1411.5
1412.4
1413.5
1414.5
1415.6
1416.5
1417.5
1418.5
1419.5
1420.6
1421.6
1422.6
1423.5
1424.5
1425.5
1426.5
1427.5
1428.5
1429.5
1430.5
1431.5
1432.5
1433.6
1434.6
1435.5
1436.5
1437.5
1438.5
1439.5
1440.5
1441.5
1442.5
1443.5
1444.5
1445.5
1446.5
1447.4
1448.4
1449.5
1450.5
1451.5
1452.4
1453.4
1454.3
1455.3
1456.3
1457.3
1458.2
1459.2
1460.1
1461.2
1462.2
1463.2
1464.2
1465.2
1466.2
1467.1
1468.1
1469.1
1470.1
1471
1472.1
1473.1
1474.1
1475.2
1476.2
1477.2
1477.8
1479.1
1480.2
1481.2
1482.2
1483.2
1484.2
1485.2
1486.3
1487.3
1488.2
1489.2
1490.2
1491.3
1492.4
1493.5
1494.6
1495.6
1496.5
1497.6
1498.6
1499.7
1500.6
1501.6
1502.6
1503.6
1504.6
1505.6
1506.7
1507.6
1508.6
1509.6
1510.7
1511.7
1512.7
1513.7
1514.7
1515.7
1516.8
1517.8
1518.8
1519.7
1520.7
1521.8
1522.8
1523.8
1524.8
1525.8
1526.8
1527.9
1529
1530
1531
1531.9
1532.9
1533.9
1534.9
1535.9
1536.9
1537.8
1538.9
1539.9
1540.9
1541.9
1542.9
1543.8
1544.8
1545.9
1546.9
1547.9
1548.9
1549.8
1550.8
1551.9
1552.9
1553.9
1554.9
1555.9
1556.9
1557.9
1558.9
1559.9
1560.8
1561.6
1562.5
1563.6
1564.6
1565.6
1566.6
1567.6
1568.6
1569.6
1570.7
1571.7
1572.7
1573.7
1574.7
1575.8
1576.8
1577.8
1578.8
1579.8
1580.8
1581.8
1582.9
1583.9
1584.9
1585.9
1586.9
1587.9
1588.9
1589.9
1590.9
1591.8
1592.8
1593.9
1594.9
1595.9
1596.9
1597.8
1598.8
1599.8
1600.8
1601.8
1602.7
1603.7
1604.7
1605.8
1606.8
1607.9
1608.9
1609.9
1610.8
1611.9
1612.9
1614
1614.9
1615.9
1617
1618
1619.1
1620.1
1621.1
1622.1
1623.1
1624.1
1625.2
1626.2
1627.1
1628.1
1629.1
1630.1
1631.2
1632.2
1633.1
1634.1
1635.1
1636.1
1637.1
1638.1
1639.1
1640.1
1641.1
1642.1
1643.1
1644.1
1645
1645.9
1646.8
1647.8
1648.7
1649.7
1650.6
1651.5
1652.5
1653.5
1654.5
1655.6
1656.6
1657.5
1658.6
1659.6
1660.7
1661.7
1662.7
1663.6
1664.6
1665.6
1666.6
1667.6
1668.6
1669.6
1670.5
1671.6
1672.6
1673.6
1674.5
1675.5
1676.4
1677.4
1678.4
1679.4
1680.3
1681.2
1682.2
1683.2
1684.2
1685.2
1686.2
1687.1
1688
1688.9
1689.9
1690.9
1691.8
1692.8
1693.8
1694.8
1695.8
1696.9
1698
1698.9
1699.9
1700.9
1702
1703
1704
1704.9
1705.9
1706.9
1707.9
1709
1710
1710.9
1711.9
1712.9
1714
1715
1716
1717
1718
1719
1720
1721.1
1722
1723
1724
1725
1726.1
1727.1
1728.1
1729.1
1730
1731
1732
1733
1733.9
1734.9
1735.8
1736.7
1737.8
1738.8
1739.8
1740.8
1741.7
1742.7
1743.7
1744.7
1745.6
1746.6
1747.6
1748.6
1749.6
1750.7
1751.7
1752.7
1753.7
1754.7
1755.7
1756.8
1757.8
1758.8
1759.8
1760.8
1761.9
1762.9
1763.9
1764.9
1765.9
1766.9
1768
1769
1770
1771
1771.9
1772.9
1773.9
1774.8
1775.7
1776.7
1777.6
1778.6
1779.6
1780.6
1781.7
1782.6
1783.5
1784.5
1785.6
1786.6
1787.6
1788.6
1789.6
1790.6
1791.7
1792.8
1793.7
1794.7
1795.7
1796.7
1797.8
1798.8
1799.8
1800.8
1801.8
1802.8
1803.8
1804.9
