0.18889
0.37778
1.1389
1.9361
2.7472
3.625
4.4833
5.3083
6.1139
6.9139
7.725
8.5333
9.3694
10.256
11.106
11.914
12.719
13.517
14.344
15.183
16.022
16.9
17.722
18.514
19.308
20.117
20.969
21.825
22.664
23.536
24.342
25.119
25.925
26.75
27.611
28.458
29.286
30.125
30.978
31.706
32.528
33.383
34.25
35.089
35.906
36.731
37.531
38.325
39.161
40.022
40.883
41.703
42.503
43.389
44.139
44.953
45.811
46.675
47.522
48.314
49.111
49.942
50.761
51.592
52.442
53.289
54.111
54.903
55.708
56.553
57.397
58.236
59.078
59.908
60.714
61.508
62.317
63.178
64.028
64.861
65.686
66.511
67.317
68.117
68.958
69.828
70.669
71.492
72.289
73.103
73.908
74.719
75.681
76.45
77.281
78.092
78.908
79.725
80.528
80.925
81.322
82.172
83
83.781
84.556
85.322
86.108
86.914
87.739
88.561
89.389
90.183
90.928
91.694
92.492
93.319
94.119
94.606
95.044
95.486
96.297
97.083
97.883
98.711
99.578
100.42
101.26
102.1
102.9
103.68
104.55
105.35
106.22
107.06
107.45
107.84
108.66
109.45
110.23
111.05
111.89
112.75
113.56
114.33
115.14
115.92
116.71
117.54
118.38
119.21
120.01
120.78
121.58
122.38
123.2
124.03
124.85
125.68
126.45
127.22
128.02
128.83
129.66
130.49
131.3
132.11
132.89
133.66
134.46
135.3
136.12
136.93
137.72
138.49
139.29
140.05
140.84
141.7
142.54
143.32
144.12
144.89
145.67
146.46
147.26
148.11
148.93
149.7
150.48
151.25
152.04
152.83
153.65
154.49
155.31
156.09
156.86
157.62
158.43
159.25
160.06
160.89
161.71
162.47
163.24
164.01
164.82
165.66
166.48
167.29
168.1
168.86
169.62
170.41
171.24
172.07
172.89
173.7
174.51
174.91
175.32
176.11
176.94
177.81
178.67
179.5
180.3
181.12
181.93
182.72
183.57
184.43
185.28
186.08
186.89
187.72
188.53
189.37
190.22
191.08
191.9
192.69
193.49
194.32
195.15
195.99
196.84
197.68
198.49
199.29
200.1
200.95
201.86
202.64
203.47
204.29
205.09
205.88
206.72
207.58
208.43
209.26
210.07
210.89
211.69
212.5
213.36
214.22
215.06
215.87
216.67
217.48
218.29
219.12
220
220.86
221.68
222.48
223.28
224.11
224.93
225.77
226.64
227.49
228.28
229.07
229.88
230.72
231.57
232.41
233.29
234.11
234.89
235.69
236.51
237.37
238.21
239.04
239.89
240.69
241.48
242.3
243.14
244.02
244.86
245.68
246.5
247.3
248.09
248.92
249.78
250.65
251.47
252.26
253.09
253.91
254.71
255.57
256.42
257.27
258.08
258.86
259.69
260.51
261.33
262.18
263.03
263.87
264.67
265.46
266.3
267.14
267.98
268.82
269.66
270.47
271.26
272.06
272.91
273.77
274.6
275.43
276.31
277.06
277.86
278.69
279.56
280.4
281.23
282.04
282.84
283.65
284.46
285.31
286.18
287.02
287.84
288.64
289.45
290.27
291.1
291.96
292.82
293.64
294.43
295.23
296.05
296.89
297.73
298.6
299.45
300.24
301.04
301.84
302.68
303.52
304.36
305.23
306.04
306.82
307.63
308.45
309.32
310.17
311.01
311.85
312.65
313.44
314.25
315.08
315.96
316.81
317.61
318.44
319.25
320.1
320.93
321.78
322.61
323.44
324.23
325.05
325.86
326.67
327.52
328.37
329.23
330.03
330.82
331.71
332.48
333.31
334.16
335.01
335.84
336.64
337.42
338.26
339.1
339.94
340.79
341.62
342.45
343.29
344.04
344.9
345.75
346.57
347.41
348.21
349.02
349.82
350.64
351.52
352.37
353.19
354.01
354.82
355.63
356.44
357.28
358.15
359
359.8
360.59
361.41
362.23
363.06
363.92
364.79
365.62
366.41
367.2
368.02
368.85
369.69
370.55
371.41
372.2
372.99
373.79
374.63
375.49
376.33
377.19
378.01
378.79
379.59
380.4
381.26
382.12
383.02
383.79
384.6
385.39
386.2
387.04
387.93
388.77
389.59
390.41
391.27
392
392.82
393.68
394.54
395.38
396.18
397
397.81
398.63
399.48
400.33
401.19
401.99
402.78
403.6
404.42
405.25
406.11
406.96
407.86
408.61
409.39
410.23
411.07
411.91
412.76
413.59
414.41
415.19
415.99
416.85
417.71
418.55
419.38
420.2
421.01
421.8
422.62
423.49
424.35
425.17
425.98
426.78
427.59
428.41
429.24
430.13
430.98
431.79
432.58
433.39
434.21
435.04
435.89
436.82
437.59
438.37
439.16
439.98
440.82
441.67
442.53
443.38
444.18
444.97
445.77
446.61
447.46
448.3
449.15
449.97
450.77
451.56
452.38
453.25
454.11
454.94
455.77
456.58
457.37
458.17
459.01
459.88
460.73
461.54
462.37
463.18
463.98
464.81
465.66
466.52
467.35
468.14
468.96
469.77
470.58
471.43
472.28
473.14
473.96
474.74
475.57
476.4
477.23
478.08
478.93
479.77
480.56
481.34
482.18
483.02
483.86
484.71
485.54
486.36
487.16
487.95
488.81
489.66
490.49
491.33
492.14
492.95
493.74
494.56
495.44
496.3
497.13
497.94
498.75
499.56
500.37
501.21
502.09
502.93
503.73
504.53
505.34
506.16
506.99
507.86
508.73
509.56
510.34
511.14
511.96
512.79
513.63
514.49
515.39
516.14
516.93
517.73
518.58
519.43
520.27
521.13
521.96
522.79
523.53
524.34
525.2
526.06
526.89
527.73
528.55
529.34
530.14
530.99
531.86
532.7
533.51
534.34
535.14
535.93
536.76
537.61
538.48
539.31
540.11
540.94
541.74
542.56
543.41
544.26
545.12
545.93
546.7
547.53
548.35
549.18
550.03
550.88
551.73
552.52
553.31
554.15
554.99
555.82
556.67
557.5
558.31
559.1
559.9
560.76
561.61
562.45
563.29
564.11
564.91
565.71
566.53
567.4
568.25
569.08
569.89
570.7
571.51
572.32
573.17
574.05
574.95
575.7
576.5
577.06
577.9
578.72
579.63
580.44
581.28
582.07
582.87
583.69
584.52
585.36
586.22
587.08
587.9
588.68
589.48
590.3
591.14
591.99
592.84
593.69
594.49
595.28
596.09
596.94
597.8
598.64
599.48
600.3
601.09
601.88
602.71
603.57
604.43
605.26
606.09
606.9
607.69
608.51
609.36
610.22
611.07
611.87
612.68
613.49
614.29
615.13
615.99
616.86
617.69
618.48
619.3
620.11
620.93
621.78
622.63
623.48
624.27
625.06
625.89
626.72
627.56
628.42
629.26
630.09
630.88
631.66
632.51
633.36
634.2
635.04
635.86
636.67
637.46
638.27
639.14
640.01
640.83
641.65
642.46
643.27
644.07
644.9
645.78
646.63
647.44
648.24
649.05
649.86
650.68
651.54
652.42
653.25
654.05
654.89
655.65
656.48
657.31
658.17
659.03
659.84
660.64
661.44
662.27
663.13
663.96
664.83
665.66
666.51
667.24
668.04
668.89
669.74
670.59
671.44
672.25
673.04
673.85
674.68
675.55
676.4
677.23
678.05
678.85
679.64
680.47
681.31
682.19
683.04
683.84
684.66
685.47
686.27
687.11
687.96
688.83
689.65
690.43
691.26
692.07
692.89
693.76
694.61
695.46
696.31
697.04
697.88
698.7
699.54
700.39
701.23
702.05
702.84
703.63
704.48
705.33
706.24
707.02
707.84
708.66
709.45
710.25
711.12
711.97
712.79
713.61
714.42
715.24
716.04
716.88
717.76
718.6
719.42
720.22
721.03
721.84
722.65
723.51
724.38
725.21
726.02
726.81
727.64
728.46
729.3
730.16
731.02
731.83
732.62
733.42
734.25
735.08
735.92
736.79
737.63
738.42
739.23
740.03
740.88
741.73
742.56
743.42
744.23
745.01
745.82
746.64
747.51
748.36
749.19
750.03
750.84
751.63
752.45
753.29
754.17
755.01
755.81
756.63
757.44
758.23
759.07
759.93
760.79
761.62
762.41
763.24
764.1
764.86
765.71
766.56
767.41
768.21
769
769.83
770.66
771.56
772.35
773.21
774.03
774.82
775.61
776.46
777.31
778.14
778.98
779.81
780.62
781.46
782.23
783.1
783.95
784.78
785.61
786.42
787.22
788.01
788.86
789.72
790.57
791.39
792.2
793.02
793.83
794.64
795.51
796.38
797.2
798.01
798.86
799.62
800.44
801.27
802.14
803
803.81
804.61
805.41
806.24
807.08
807.91
808.79
809.62
810.4
811.2
812.01
812.86
813.7
814.54
815.41
816.22
817.01
817.81
818.64
819.51
820.35
821.17
822.02
822.82
823.6
824.47
825.27
826.14
826.98
827.79
828.63
829.42
830.21
831.05
831.91
832.76
833.58
834.38
835.2
836.01
836.82
837.68
838.55
839.39
840.19
841
841.81
842.63
843.47
844.32
845.18
846
846.78
847.6
848.43
849.27
850.12
850.96
851.8
852.6
853.38
854.21
855.06
855.9
856.75
857.58
858.4
859.2
859.99
860.85
861.72
862.55
863.39
864.19
865.01
865.81
866.61
867.49
868.35
869.18
869.99
870.8
871.62
872.43
873.26
874.15
874.99
875.8
876.6
877.39
878.22
879.05
879.89
880.77
881.6
882.39
883.19
884
884.85
885.7
886.54
887.4
888.21
888.98
889.78
890.62
891.48
892.33
893.18
894.01
894.81
895.59
896.4
897.26
898.12
898.95
899.78
900.59
901.38
902.19
903.03
903.91
904.76
905.57
906.39
907.2
907.99
908.83
909.67
910.54
911.38
912.16
912.98
913.8
914.62
915.47
916.33
917.19
917.99
918.77
919.6
920.42
921.25
922.1
922.95
923.79
924.58
925.37
926.21
927.06
927.9
928.74
929.56
930.38
931.23
931.97
932.83
933.68
934.52
935.36
936.17
936.99
937.79
938.61
939.49
940.34
941.15
941.96
942.77
943.57
944.39
945.23
946.11
946.95
947.76
948.62
949.38
950.19
951.03
951.89
952.75
953.57
954.36
955.16
955.98
956.82
957.66
958.53
959.38
960.18
960.98
961.77
962.62
963.46
964.3
965.16
965.98
966.82
967.57
968.39
969.25
970.11
970.94
971.79
972.59
973.37
974.18
975.02
975.89
976.74
977.55
978.37
979.18
979.98
980.81
981.67
982.55
983.46
984.16
984.99
985.79
986.6
987.44
988.3
989.24
989.96
990.75
991.58
992.4
993.23
994.08
994.93
995.76
996.56
997.35
998.18
999.02
999.86
1000.7
1001.5
1002.4
1003.2
1004
1004.8
1005.7
1006.5
1007.3
1008.2
1009
1009.7
1010.6
1011.4
1012.3
1013.1
1013.9
1014.8
1015.6
1016.4
1017.2
1018.1
1018.9
1019.7
1020.5
1021.3
1022.2
1023
1023.9
1024.7
1025.5
1026.3
1027.1
1028
1028.8
1029.6
1030.5
1031.3
1032.1
1033
1033.7
1034.6
1035.4
1036.3
1037.1
1038
1038.7
1039.5
1040.4
1041.2
1042.1
1042.9
1043.7
1044.5
1045.3
1046.1
1047
1047.9
1048.7
1049.5
1050.4
1051.2
1051.9
1052.8
1053.6
1054.5
1055.3
1056.1
1057
1057.8
1058.6
1059.5
1060.3
1061.1
1061.9
1062.7
1063.5
1064.4
1065.2
1066
1066.9
1067.7
1068.5
1069.3
1070.2
1071
1071.8
1072.7
1073.6
1074.3
1075.1
1075.9
1076.8
1077.6
1078.5
1079.3
1080.1
1080.9
1081.7
1082.6
1083.4
1084.3
1085.1
1085.9
1086.7
1087.5
1088.3
1089.2
1090.1
1090.9
1091.7
1092.5
1093.3
1094.1
1095
1095.8
1096.7
1097.5
1098.3
1099.1
1099.9
1100.8
1101.6
1102.5
1103.3
1104.1
1104.9
1105.7
1106.5
1107.4
1108.2
1109.1
1109.9
1110.7
1111.5
1112.3
1113.2
1114
1114.9
1115.7
1116.5
1117.3
1118.1
1119
1119.8
1120.7
1121.5
1122.3
1123.1
1123.9
1124.7
1125.6
1126.5
1127.3
1128.1
1128.9
1129.7
1130.5
1131.4
1132.2
1133.1
1133.9
1134.7
1135.5
1136.3
1137.2
1138
1138.9
1139.7
1140.5
1141.3
1142.1
1143
1143.8
1144.7
1145.5
1146.3
1147.1
1147.9
1148.8
1149.6
1150.5
1151.3
1152.2
1152.9
1153.7
1154.5
1155.4
1156.2
1157.1
1157.9
1158.7
1159.5
1160.3
1161.2
1162
1162.9
1163.7
1164.5
1165.3
1166.1
1166.9
1167.8
1168.7
1169.5
1170.3
1171.1
1171.9
1172.7
1173.6
1174.5
1175.3
1176.1
1176.9
1177.7
1178.5
1179.4
1180.2
1181.1
1181.9
1182.7
1183.5
1184.3
1185.2
1186
1186.9
1187.7
1188.5
1189.3
1190.1
1190.9
1191.8
1192.6
1193.5
1194.3
1195.1
1195.9
1196.7
1197.6
1198.4
1199.2
1200.1
1200.9
1201.7
1202.5
1203.4
1204.2
1205.1
1205.9
1206.7
1207.5
1208.3
1209.1
1210
1210.9
1211.7
1212.5
1213.3
1214.1
1214.9
1215.8
1216.6
1217.5
1218.3
1219.1
1219.9
1220.7
1221.5
1222.4
1223.3
1224.1
1224.9
1225.7
1226.5
1227.4
1228.2
1229
1229.9
1230.7
1231.5
1232.3
1233.1
1234
1234.8
1235.7
1236.5
1237.3
1238.1
1238.9
1239.8
1240.6
1241.5
1242.3
1243.1
1243.9
1244.7
1245.6
1246.4
1247.3
1248.1
1248.9
1249.7
1250.5
1251.3
1252.3
1253.1
1253.9
1254.7
1255.5
1256.3
1257.1
1258
1258.9
1259.7
1260.5
1261.3
1262.1
1262.9
1263.8
1264.6
1265.5
1266.3
1267
1267.9
1268.7
1269.6
1270.4
1271.2
1272.1
1272.9
1273.6
1274.5
1275.3
1276.2
1277
1277.8
1278.7
1279.5
1280.3
1281.1
1282
1282.8
1283.6
1284.5
1285.3
1286.1
1286.9
1287.7
1288.6
1289.4
1290.2
1291.1
1291.9
1292.7
1293.5
1294.4
1295.2
1296
1296.8
1297.7
1298.5
1299.3
1300.2
1301
1301.9
1302.7
1303.4
1304.3
1305.1
1306
1306.8
1307.6
1308.4
1309.2
1310
1310.9
1311.8
1312.6
1313.4
1314.2
1315.1
1315.8
1316.7
1317.5
1318.4
1319.2
1320
1320.8
1321.7
1322.5
1323.3
1324.2
1325
1325.8
1326.6
1327.4
1328.3
1329.1
1330
1330.8
1331.6
1332.4
1333.2
1334.1
1334.9
1335.7
1336.6
1337.4
1338.2
1339
1339.8
1340.7
1341.5
1342.4
1343.2
1344
1344.8
1345.6
1346.5
1347.3
1348.2
1349
1349.8
1350.6
1351.4
1352.2
1353.1
1353.9
1354.8
1355.6
1356.4
1357.2
1358
1358.9
1359.7
1360.6
1361.4
1362.2
1363
1363.8
1364.6
1365.5
1366.4
1367.2
1368
1368.8
1369.6
1370.4
1371.3
1372.1
1373
1373.8
1374.6
1375.4
1376.2
1377.1
1378
1378.8
1379.6
1380.4
1381.2
1382
1382.9
1383.7
1384.6
1385.4
1386.2
1387
1387.8
1388.7
1389.5
1390.4
1391.2
1392
1392.8
1393.6
1394.4
1395.3
1396.1
1397
1397.8
1398.6
1399.4
1400.2
1401.1
1401.9
1402.8
1403.7
1404.4
1405.2
1406
1406.8
1407.7
1408.6
1409.4
1410.2
1411
1411.6
1412.4
1413.2
1414.1
1414.9
1415.8
1416.5
1417.3
1418.2
1419
1419.9
1420.7
1421.6
1422.4
1423.2
1424
1424.8
1425.7
1426.5
1427.3
1428.2
1428.9
1429.7
1430.6
1431.4
1432.3
1433.1
1434
1434.8
1435.5
1436.4
1437.2
1438.1
1438.9
1439.7
1440.5
1441.4
1442.2
1443
1443.9
1444.7
1445.5
1446.3
1447.2
1448
1448.8
1449.6
1450.5
1451.3
1452.1
1452.9
1453.8
1454.6
1455.4
1456.3
1457.1
1457.9
1458.7
1459.5
1460.4
1461.2
1462
1462.9
1463.7
1464.5
1465.3
1466.1
1467
1467.9
1468.7
1469.5
1470.3
1471.1
1471.9
1472.8
1473.6
1474.5
1475.3
1476.1
1476.9
1477.7
1478.5
1479.4
1480.3
1481.1
1481.9
1482.7
1483.5
1484.3
1485.2
1486.1
1486.9
1487.7
1488.5
1489.3
1490.2
1491
1491.8
1492.7
1493.5
1494.3
1495.1
1495.9
1496.8
1497.6
1498.5
1499.3
1500.1
1500.9
1501.7
1502.6
1503.4
1504.3
1505.1
1505.9
1506.8
1507.5
1508.3
1509.2
1510
1510.9
1511.7
1512.6
1513.3
1514.1
1515
1515.8
1516.7
1517.5
1518.3
1519.1
1519.9
1520.8
1521.6
1522.5
1523.3
1524.1
1524.9
1525.7
1526.5
1527.4
1528.2
1529.1
1529.9
1530.7
1531.5
1532.4
1533.2
1534
1534.9
1535.7
1536.5
1537.3
1538.1
1539
1539.8
1540.7
1541.5
1542.3
1543.1
1543.9
1544.8
1545.6
1546.5
1547.3
1548.1
1548.9
1549.7
1550.5
1551.4
1552.2
1553.1
1553.9
1554.7
1555.5
1556.3
1557.2
1558
1558.9
1559.7
1560.5
1561.3
1562.1
1562.9
1563.8
1564.7
1565.5
1566.3
1566.8
1567.6
1568.5
1569.3
1570.2
1571
1571.8
1572.6
1573.4
1574.3
1575.1
1575.9
1576.8
1577.7
1578.4
1579.2
1580
1580.9
1581.7
1582.6
1583.4
1584.2
1585
1585.8
1586.7
1587.5
1588.4
1589.2
1590
1590.8
1591.6
1592.4
1593.3
1594.2
1595
1595.8
1596.6
1597.4
1598.2
1599.1
1600
1600.8
1601.6
1602.4
1603.2
1604
1604.9
1605.7
1606.6
1607.4
1608.2
1609
1609.9
1610.7
1611.5
1612.4
1613.2
1614
1614.8
1615.6
1616.5
1617.3
1618.2
1619
1619.8
1620.6
1621.4
1622.3
1623.1
1624
1624.8
1625.6
1626.4
1627.2
1628
1628.9
1629.7
1630.6
1631.4
1632.2
1633
1633.8
1634.7
1635.5
1636.4
1637.2
1638
1638.8
1639.6
1640.4
1641.3
1642.2
1643
1643.8
1644.6
1645.4
1646.2
1647.1
1647.9
1648.8
1649.6
1650.4
1651.2
1652
1652.9
1653.7
1654.6
1655.4
1656.2
1657
1657.8
1658.6
1659.5
1660.3
1661.2
1662
1662.8
1663.6
1664.4
1665.3
1666.2
1667
1667.8
1668.6
1669.4
1670.2
1671.1
1671.9
1672.8
1673.6
1674.4
1675.3
1676
1676.8
1677.7
1678.6
1679.4
1680.2
1681
1681.8
1682.6
1683.5
1684.3
1685.2
1686
1686.8
1687.6
1688.4
1689.3
1690.1
1691
1691.8
1692.6
1693.4
1694.2
1695
1695.9
1696.8
1697.6
1698.4
1699.2
1700
1700.9
1701.7
1702.5
1703.4
1704.2
1705
1705.8
1706.6
1707.5
1708.3
1709.2
1710
1710.8
1711.6
1712.4
1713.3
1714.1
1715
1715.8
1716.6
1717.4
1718.2
1719
1719.9
1720.8
1721.6
1722.4
1723.2
1724
1724.8
1725.7
1726.5
1727.4
1728.2
1729
1729.8
1730.6
1731.5
1732.3
1733.2
1734
1734.8
1735.6
1736.4
1737.2
1738.1
1739
1739.8
1740.6
1741.4
1742.2
1743
1743.9
1744.7
1745.6
1746.4
1747.2
1748
1748.8
1749.7
1750.5
1751.4
1752.2
1753
1753.8
1754.6
1755.5
1756.3
1757.1
1758
1758.8
1759.6
1760.4
1761.2
1762.1
1762.9
1763.8
1764.6
1765.4
1766.2
1767
1767.9
1768.7
1769.6
1770.3
1771.2
1772
1772.8
1773.7
1774.5
1775.4
1776.2
1777
1777.8
1778.6
1779.5
1780.3
1781.2
1782
1782.8
1783.6
1784.4
1785.3
1786.1
1786.9
1787.8
1788.6
1789.4
1790.2
1791
1791.9
1792.8
1793.5
1794.4
1795.2
1796
1796.8
1797.7
1798.5
1799.4
1800.2
1801
1801.8
1802.6
1803.5
1804.3
1805.1
