0.058333
0.73611
1.5972
2.4333
3.2778
4.1167
4.9861
5.9083
6.7889
7.6222
8.4556
9.2972
10.131
10.983
11.894
12.803
13.719
14.597
15.5
16.367
17.267
18.203
19.092
19.939
20.781
21.614
22.492
23.381
24.275
25.167
26.003
26.842
27.675
28.553
29.436
30.306
31.175
32
32.786
33.603
34.431
35.272
36.114
36.944
37.772
38.572
39.358
40.169
41.025
41.894
42.731
43.564
44.381
45.192
46.042
46.906
47.831
48.711
49.547
50.406
51.236
52.053
52.911
53.794
54.689
55.528
56.35
57.203
58.036
58.889
59.769
60.658
61.489
62.286
63.131
63.961
64.797
65.664
66.542
67.411
68.225
69.056
69.903
70.736
71.592
72.45
73.303
74.122
74.928
75.756
76.594
77.428
78.294
79.142
79.956
80.733
81.511
82.361
83.208
84.053
84.928
85.778
86.614
87.439
88.311
89.211
90.1
90.994
91.847
92.706
93.55
94.389
95.3
96.192
97.05
97.886
98.722
99.572
100.43
101.32
102.23
103.1
103.94
104.77
105.63
106.48
107.35
108.26
109.12
109.94
110.76
111.61
112.44
113.3
114.18
115.04
115.85
116.66
117.46
118.31
119.17
120.01
120.89
121.74
122.54
123.34
124.18
125.04
125.9
126.75
127.58
128.38
129.16
129.96
130.81
131.64
132.45
133.27
134.06
134.84
135.63
136.43
137.28
138.13
138.96
139.79
140.61
141.41
142.25
143.11
144
144.86
145.69
146.53
147.35
148.16
149
149.87
150.71
151.53
152.33
153.13
153.92
154.74
155.57
156.4
157.19
157.96
158.74
159.55
160.38
161.26
162.15
163.06
163.96
164.84
165.72
166.6
167.49
168.4
169.28
170.13
170.94
171.8
172.67
173.54
174.42
175.29
176.15
176.97
177.84
178.77
179.68
180.59
181.46
182.33
183.16
184
184.93
185.82
186.69
187.57
188.42
189.27
190.12
191.03
191.95
192.85
193.72
194.59
195.45
196.33
197.25
198.18
199.08
199.95
200.8
201.66
202.52
203.41
204.33
205.19
206.02
206.83
207.68
208.53
209.38
210.29
211.14
211.94
212.76
213.59
214.43
215.28
216.15
217.01
217.82
218.61
219.4
220.25
221.09
221.93
222.79
223.63
224.43
225.24
226.04
226.91
227.76
228.59
229.46
230.29
231.08
231.9
232.74
233.62
234.46
235.28
236.09
236.87
237.63
238.43
239.27
240.11
240.93
241.73
242.53
243.31
244.09
244.91
245.75
246.58
247.38
248.17
248.97
249.74
250.54
251.38
252.23
253.06
253.86
254.65
255.46
256.26
257.08
257.92
258.76
259.56
260.33
261.12
261.91
262.71
263.54
264.35
265.15
265.89
266.61
267.32
268.08
268.86
269.66
270.49
271.31
272.14
272.93
273.77
274.67
275.52
276.38
277.24
278.08
278.89
279.69
280.56
281.46
282.34
283.22
284.09
284.94
285.79
286.67
287.57
288.46
289.35
290.21
291.08
291.93
292.82
293.77
294.68
295.55
296.4
297.27
298.15
299.04
299.98
300.89
301.72
302.56
303.41
304.27
305.13
306.03
306.91
307.76
308.58
309.41
310.29
311.17
312.06
312.94
313.78
314.61
315.44
316.32
317.23
318.13
319.05
319.93
320.77
321.62
322.49
323.38
324.26
325.14
325.99
326.82
327.67
328.54
329.44
330.32
331.19
332.06
332.88
333.71
334.55
335.44
336.32
337.16
338
338.81
339.61
340.45
341.32
342.19
343.03
343.82
344.65
345.45
346.24
347.08
347.93
348.78
349.59
350.39
351.24
352.09
352.95
353.84
354.76
355.64
356.46
357.33
358.19
359.07
359.96
360.84
361.69
362.5
363.31
364.18
365.03
365.87
366.74
367.61
368.42
369.22
370.05
370.88
371.69
372.47
373.24
374.03
374.81
375.63
376.54
377.5
378.42
379.34
380.26
381.17
382.06
383.04
383.98
384.88
385.76
386.64
387.52
388.39
389.32
390.25
391.13
391.99
392.85
393.72
394.58
395.49
396.39
397.25
398.09
398.93
399.78
400.61
401.47
402.36
403.21
404.03
404.84
405.68
406.55
407.42
408.32
409.21
410.05
410.9
411.76
412.66
413.55
414.43
415.35
416.2
417.02
417.88
418.79
419.68
420.55
421.44
422.26
423.07
423.89
424.76
425.68
426.56
427.45
428.31
429.14
430.01
430.9
431.82
432.71
433.55
434.42
435.25
436.08
436.96
437.87
438.74
439.59
440.43
441.24
442.06
442.94
443.84
444.76
445.62
446.48
447.36
448.24
449.14
450.06
451
451.88
452.72
453.59
454.44
455.29
456.18
457.04
457.86
458.66
459.49
460.33
461.19
462.07
462.95
463.79
464.59
465.41
466.28
467.15
468.01
468.87
469.74
470.58
471.41
472.28
473.19
474.07
474.96
475.81
476.64
477.46
478.3
479.22
480.1
480.95
481.82
482.68
483.52
484.36
485.27
486.15
487
487.83
488.65
489.48
490.3
491.16
492.04
492.9
493.72
494.52
495.32
496.13
496.95
497.81
498.68
499.5
500.34
501.18
502.05
502.94
503.83
504.76
505.63
506.46
507.31
508.19
509.06
509.94
510.85
511.69
512.51
513.35
514.2
515.09
515.97
516.84
517.7
518.52
519.37
520.23
521.13
522.02
522.88
523.75
524.58
525.39
526.25
527.14
528.02
528.9
529.77
530.63
531.48
532.36
533.26
534.21
535.09
535.95
536.82
537.69
538.58
539.5
540.45
541.35
542.19
543.1
543.97
544.87
545.79
546.71
547.59
548.44
549.3
550.17
551.03
551.93
552.82
553.67
554.5
555.34
556.19
557.08
557.98
558.85
559.73
560.56
561.39
562.28
563.17
564.06
564.93
565.8
566.64
567.44
568.29
569.18
570.04
570.91
571.77
572.63
573.48
574.34
575.25
576.13
577
577.84
578.69
579.5
580.33
581.23
582.09
582.93
583.75
584.56
585.38
586.19
587.01
587.88
588.7
589.48
590.26
591.04
591.84
592.66
593.51
594.37
595.2
596
596.81
597.64
598.49
599.35
600.26
601.13
601.95
602.78
603.61
604.49
605.37
606.26
607.16
607.99
608.81
609.64
610.51
611.39
612.24
613.13
613.98
614.77
615.6
616.47
617.35
618.22
619.11
619.96
620.78
621.61
622.46
623.37
624.25
625.1
625.97
626.78
627.59
628.43
629.3
630.17
630.99
631.81
632.64
633.43
634.23
635.08
635.98
636.85
637.67
638.51
639.34
640.16
641
641.86
642.72
643.54
644.34
645.18
646.01
646.87
647.78
648.68
649.6
650.42
651.3
652.17
653.06
653.95
654.82
655.69
656.51
657.34
658.21
659.08
659.95
660.82
661.67
662.48
663.29
664.16
665.03
665.89
666.76
667.62
668.46
669.27
670.13
671.03
671.91
672.81
673.66
674.49
675.3
676.12
677.01
677.89
678.73
679.58
680.42
681.27
682.11
683
683.91
684.78
685.62
686.45
687.29
688.11
688.97
689.89
690.76
691.61
692.45
693.32
694.21
695.1
696.04
696.95
697.79
698.63
699.48
700.36
701.25
702.16
703.06
703.9
704.73
705.58
706.45
707.33
708.2
709.09
709.92
710.74
711.56
712.44
713.33
714.21
715.11
715.97
716.8
717.66
718.53
719.43
720.31
721.17
722.04
722.86
723.68
724.54
725.44
726.32
727.18
728.04
728.86
729.67
730.51
731.4
732.29
733.13
733.98
734.82
735.66
736.52
737.42
738.34
739.22
740.05
740.92
741.76
742.59
743.47
744.36
745.23
746.04
746.87
747.7
748.52
749.38
750.26
751.14
751.96
752.75
753.6
754.46
755.31
756.18
757.06
757.9
758.71
759.56
760.43
761.31
762.21
763.1
763.98
764.81
765.64
766.56
767.48
768.33
769.18
770.01
770.81
771.59
772.44
773.32
774.21
775.09
775.95
776.83
777.69
778.61
779.55
780.46
781.37
782.24
783.13
784.01
784.91
785.86
786.76
787.64
788.51
789.39
790.26
791.17
792.12
793.02
793.87
794.73
795.61
796.5
797.4
798.34
799.22
800.07
800.92
801.81
802.71
803.63
804.57
805.45
806.29
807.14
807.99
808.88
809.78
810.68
811.56
812.39
813.23
814.1
815.02
815.92
816.8
817.69
818.52
819.33
820.17
821.08
821.96
822.82
823.7
824.54
825.37
826.22
827.11
828.02
828.91
829.76
830.63
831.46
832.34
833.25
834.17
835.05
835.9
836.76
837.6
838.45
839.35
840.27
841.15
841.99
842.87
843.72
844.59
845.48
846.4
847.29
848.14
849.01
849.9
850.79
851.73
852.65
853.56
854.39
855.23
856.1
856.98
857.86
858.75
859.64
860.47
861.32
862.22
863.13
864.03
864.94
865.84
866.72
867.57
868.5
869.41
870.32
871.28
872.2
873.1
873.97
874.91
875.85
876.75
877.65
878.53
879.38
880.26
881.21
882.15
883.06
883.95
884.86
885.75
886.63
887.58
888.48
889.37
890.23
891.1
891.99
892.88
893.83
894.75
895.61
896.47
897.33
898.21
899.11
900.06
900.98
901.83
902.66
903.51
904.35
905.17
906
906.85
907.66
908.45
909.27
910.14
911.05
911.94
912.87
913.77
914.63
915.5
916.4
917.34
918.24
919.12
919.98
920.77
921.59
922.44
923.33
924.21
925.09
925.98
926.83
927.67
928.55
929.48
930.36
931.2
932.06
932.89
933.74
934.62
935.52
936.44
937.32
938.17
939.05
939.91
940.83
941.76
942.69
943.61
944.49
945.41
946.33
947.26
948.2
949.14
950.01
950.9
951.79
952.7
953.63
954.55
955.46
956.33
957.19
958.06
958.94
959.85
960.74
961.61
962.45
963.27
964.15
965.05
965.95
966.88
967.81
968.7
969.59
970.53
971.46
972.38
973.28
974.16
975.01
975.85
976.77
977.66
978.54
979.4
980.25
981.09
981.93
982.82
983.73
984.62
985.49
986.33
987.18
988.03
988.9
989.83
990.72
991.58
992.41
993.29
994.14
995.01
995.96
996.84
997.71
998.55
999.4
1000.3
1001.2
1002.1
1003
1003.9
1004.7
1005.6
1006.5
1007.4
1008.3
1009.3
1010.1
1011
1011.9
1012.8
1013.7
1014.6
1015.6
1016.4
1017.3
1018.1
1019.1
1019.9
1020.8
1021.7
1022.5
1023.3
1024.2
1025.1
1025.9
1026.8
1027.7
1028.5
1029.3
1030.2
1031.1
1032
1032.9
1033.8
1034.7
1035.5
1036.3
1037.2
1038.1
1039
1039.8
1040.7
1041.5
1042.4
1043.3
1044.2
1045
1045.9
1046.8
1047.6
1048.5
1049.4
1050.3
1051.2
1052
1052.9
1053.8
1054.6
1055.6
1056.5
1057.4
1058.2
1059.1
1059.9
1060.8
1061.7
1062.5
1063.4
1064.2
1065.1
1065.9
1066.8
1067.7
1068.6
1069.5
1070.4
1071.2
1072.1
1073
1073.9
1074.8
1075.6
1076.5
1077.3
1078.2
1079.1
1080
1080.9
1081.7
1082.6
1083.4
1084.3
1085.2
1086.1
1087
1087.8
1088.6
1089.4
1089.8
1090.2
1091
1091.8
1092.6
1093.3
1094
1094.7
1095.4
1096
1096.7
1097.4
1098.1
1098.4
1098.8
1099.5
1100.1
1100.8
1101.4
1102.1
1102.8
1103.6
1104.4
1105.1
1105.9
1106.6
1107.4
1108.2
1109.1
1110
1110.9
1111.7
1112.6
1113.4
1114.3
1115.2
1116.2
1117.1
1118
1118.9
1119.8
1120.8
1121.7
1122.6
1123.6
1124.4
1125.3
1126.1
1127
1127.9
1128.8
1129.7
1130.5
1131.4
1132.3
1133.2
1134.1
1135
1135.9
1136.7
1137.6
1138.4
1139.4
1140.3
1141.2
1142.1
1142.9
1143.8
1144.6
1145.6
1146.5
1147.3
1148.1
1148.2
1148.8
1149.5
1150.3
1151
1151.8
1152.5
1153.2
1153.9
1154.7
1155.4
1156.2
1156.9
1157.8
1158.6
1159.4
1160.2
1161.1
1161.9
1162.9
1163.8
1164.7
1165.6
1166.5
1167.4
1168.3
1169.2
1170.1
1171
1171.9
1172.8
1173.6
1174.6
1175.5
1176.4
1177.3
1178.2
1179.1
1179.9
1180.8
1181.7
1182.6
1183.5
1184.4
1185.2
1186.1
1187.1
1188
1188.9
1189.8
1190.7
1191.6
1192.5
1193.5
1194.4
1195.4
1196.3
1197.2
1198
1198.9
1199.9
1200.8
1201.6
1202.4
1203.2
1203.9
1204.6
1205.4
1206.2
1207
1207.8
1208.6
1209.3
1210.1
1210.9
1211.7
1212.5
1213.2
1213.9
1214.6
1215.3
1216
1216.8
1217.5
1218.3
1219.1
1219.8
1220.6
1221.3
1222.2
1223
1223.8
1224.7
1225.6
1226.4
1227.3
1228.2
1229.1
1230
1231
1231.9
1232.7
1233.6
1234.5
1235.5
1236.4
1237.4
1238.3
1239.1
1240
1241
1241.9
1242.8
1243.7
1244.6
1245.4
1246.3
1247.2
1248.2
1249
1249.9
1250.8
1251.6
1252.5
1253.4
1254.3
1255.1
1256
1256.8
1257.6
1258.4
1259.3
1260.2
1261.1
1261.9
1262.7
1263.6
1264.4
1265.3
1266.2
1267.1
1268
1268.9
1269.8
1270.7
1271.6
1272.5
1273.5
1274.4
1275.3
1276.2
1277.1
1278
1279
1279.9
1280.8
1281.7
1282.6
1283.5
1284.4
1285.3
1286.2
1287.1
1288
1288.9
1289.8
1290.8
1291.6
1292.5
1293.3
1294.2
1295.1
1296
1296.9
1297.7
1298.6
1299.4
1300.2
1300.6
1301
1301.9
1302.8
1303.6
1304.5
1305.3
1306.2
1307.1
1308.1
1308.9
1309.8
1310.7
1311.5
1312.4
1313.3
1314.2
1315
1315.9
1316.7
1317.5
1318.4
1319.2
1320.1
1321
1321.8
1322.7
1323.6
1324.4
1325.2
1326
1326.8
1327.6
1328.3
1328.8
1329
1329.8
1330.5
1331.3
1332
1332.8
1333.6
1334.4
1335.1
1336
1336.8
1337.7
1338.6
1339.5
1340.4
1341.3
1342.2
1343.1
1344
1345
1345.9
1346.7
1347.6
1348.4
1349.4
1350.3
1351.2
1352.1
1352.9
1353.8
1354.8
1355.8
1356.7
1357.6
1358.5
1359.4
1360.1
1361.2
1362.2
1363.1
1364
1364.9
1365.8
1366.7
1367.6
1368.5
1369.4
1370.2
1371.1
1371.9
1372.8
1373.7
1374.7
1375.5
1376.4
1377.3
1378.1
1379
1380
1380.9
1381.8
1382.6
1383.5
1384.3
1385.2
1386.1
1387
1387.9
1388.7
1389.7
1390.5
1391.4
1392.3
1393.2
1394.1
1395
1395.9
1396.8
1397.8
1398.7
1399.6
1400.5
1401.4
1402.3
1403.2
1404.1
1405
1405.9
1406.8
1407.7
1408.6
1409.5
1410.4
1411.3
1412.2
1413
1413.8
1414.7
1415.6
1416.5
1417.4
1418.2
1419.1
1420
1420.9
1421.9
1422.8
1423.6
1424.5
1425.3
1426.1
1426.9
1427.8
1428.6
1429.5
1430.3
1431.2
1432.1
1433
1434.1
1435
1435.9
1436.8
1437.7
1438.7
1439.6
1440.5
1441.4
1442.3
1443.2
1444
1445
1445.9
1446.8
1447.7
1448.5
1449.4
1450.3
1451.2
1452
1452.9
1453.7
1454.5
1455.3
1456.2
1457.1
1458
1458.9
1459.8
1460.6
1461.4
1462.3
1463.2
1464.2
1465.1
1466
1466.8
1467.6
1468.5
1469.4
1470.3
1471.2
1472.2
1473
1473.9
1474.8
1475.8
1476.7
1477.6
1478.5
1479.4
1480.3
1481.3
1482.2
1483.2
1484
1484.9
1485.8
1486.7
1487.6
1488.5
1489.4
1490.2
1491.1
1492
1492.9
1493.8
1494.7
1495.6
1496.3
1497.2
1498
1498.8
1499.6
1500.5
1501.4
1502.3
1503.2
1504.1
1505
1506
1506.9
1507.8
1508.7
1509.5
1510.4
1511.3
1512.3
1513.2
1514
1514.9
1515.8
1516.7
1517.6
1518.5
1519.4
1520.3
1521.2
1522
1523
1523.9
1524.8
1525.7
1526.5
1527.4
1528.3
1529.2
1530.1
1531
1531.9
1532.7
1533.6
1534.4
1535.4
1536.2
1537.1
1538
1538.8
1539.6
1540.5
1541.4
1542.3
1543.2
1544
1544.9
1545.8
1546.7
1547.6
1548.6
1549.5
1550.4
1551.3
1552.2
1553.1
1554.1
1555
1555.8
1556.7
1557.5
1558.4
1559.3
1560.2
1561.1
1562
1562.8
1563.7
1564.6
1565.4
1566.3
1567.2
1568.1
1568.9
1569.8
1570.7
1571.6
1572.5
1573.5
1574.3
1575.2
1576.1
1577
1577.9
1578.8
1579.7
1580.6
1581.4
1582.3
1583.2
1584.1
1585
1585.9
1586.7
1587.5
1588.4
1589.3
1590.2
1591
1591.8
1592.7
1593.5
1594.3
1595.2
1596.1
1597
1597.9
1598.7
1599.5
1600.4
1601.3
1602.2
1603.1
1603.9
1604.8
1605.7
1606.6
1607.5
1608.5
1609.4
1610.2
1611.1
1612
1612.9
1613.7
1614.6
1615.5
1616.3
1617.2
1618
1618.9
1619.8
1620.7
1621.6
1622.4
1623.3
1624.2
1625.1
1626
1626.9
1627.8
1628.7
1629.6
1630.5
1631.4
1632.3
1633.2
1634.1
1635
1635.8
1636.7
1637.6
1638.5
1639.4
1640.3
1641.1
1642
1642.9
1643.8
1644.8
1645.7
1646.6
1647.4
1648.3
1649.3
1650.2
1651.1
1652
1652.5
1652.9
1653.7
1654.6
1655.5
1656.4
1657.3
1658.1
1659
1659.8
1660.7
1661.6
1662.5
1663.4
1664.2
1665.1
1666
1666.9
1667.8
1668.8
1669.7
1670.5
1671.4
1672.4
1673.3
1674.3
1675.2
1676.1
1676.9
1677.8
1678.7
1679.6
1680.6
1681.4
1682.3
1683.1
1684
1684.9
1685.9
1686.8
1687.7
1688.5
1689.4
1690.3
1691.2
1692.1
1693
1693.9
1694.7
1695.5
1696.3
1697.2
1698.1
1699
1699.9
1700.7
1701.6
1702.5
1703.4
1704.3
1705.2
1706.1
1707
1707.9
1708.8
1709.7
1710.6
1711.5
1712.4
1713.2
1714.1
1715
1716
1716.9
1717.8
1718.7
1719.6
1720.5
1721.5
1722.4
1723.3
1724.2
1725.1
1726
1726.9
1727.8
1728.8
1729.6
1730.5
1731.4
1732.2
1733
1733.9
1734.7
1735.5
1736.3
1737.2
1738
1738.9
1739.9
1740.8
1741.7
1742.5
1743.4
1744.3
1745.2
1746.2
1747.1
1748
1748.8
1749.7
1750.6
1751.6
1752.5
1753.3
1754.2
1755
1755.9
1756.8
1757.7
1758.6
1759.4
1760.2
1761
1761.9
1762.8
1763.7
1764.6
1765.5
1766.4
1767.3
1768.3
1769.2
1770.2
1771.1
1772
1773
1773.8
1774.8
1775.7
1776.7
1777.6
1778.4
1779.3
1780.2
1781.1
1782
1782.9
1783.8
1784.6
1785.5
1786.4
1787.3
1788.2
1789.1
1789.9
1790.7
1791.6
1792.5
1793.3
1794.3
1795.2
1796
1796.9
1797.8
1798.7
1799.7
1800.6
1801.5
1802.4
1803.3
1804.3
1805.2
