0.1
0.20278
0.87778
1.7083
2.5028
3.3
4.1028
4.8583
5.7278
6.5583
7.3639
8.1722
8.9778
9.7833
10.544
11.394
12.242
13.067
13.875
14.669
15.469
16.314
17.064
17.919
18.733
19.561
20.367
20.989
21.164
22.003
22.733
23.6
24.347
24.428
25.244
26.05
26.883
27.642
28.422
29.258
30.108
30.931
31.761
32.569
33.444
34.131
34.931
35.792
36.625
37.442
38.286
39.053
39.831
40.603
41.472
42.314
43.125
43.933
44.772
45.528
46.308
47.131
47.983
48.808
49.636
50.475
51.233
52.011
52.8
53.661
54.489
55.306
56.081
56.922
57.789
58.489
59.339
60.189
60.997
61.414
61.803
62.194
62.589
63.411
64.169
64.581
64.994
65.836
66.361
66.661
67.5
68.306
69.103
69.939
70.667
71.519
72.356
73.169
73.983
74.794
75.511
76.358
77.161
78.011
78.833
79.653
80.453
81.25
81.997
82.811
83.733
84.503
85.331
86.144
86.95
87.722
88.503
89.356
89.739
90.125
90.928
91.831
92.589
92.986
93.383
94.156
94.983
95.828
96.65
97.475
98.219
99.058
99.828
100.63
101.47
102.3
102.64
103.12
103.94
104.75
105.49
106.33
107.15
107.98
108.79
109.62
110.43
111.22
111.95
112.8
113.64
114.14
114.47
115.31
116.12
117.04
117.7
118.47
119.31
120.12
120.99
121.79
122.61
123.39
124.16
125.01
125.85
126.67
127.49
128.28
129.04
129.85
130.65
131.5
132.32
133.16
133.98
134.79
135.57
136.35
137.2
138.01
138.71
139.57
140.44
141.17
141.69
141.94
142.76
143.6
144.43
145.26
145.82
146.07
146.88
147.65
148.43
149.28
150.1
150.46
150.82
151.62
152.44
153.26
154.07
154.93
155.69
156.11
156.52
157.34
157.78
158.16
158.96
159.73
160.53
161.37
162.2
162.58
162.97
163.75
164.63
165.38
165.74
165.77
166.16
167.01
167.84
168.35
168.64
169.07
169.47
170.3
171.08
171.54
171.82
172.57
173.49
174.27
175.11
175.93
176.73
177.51
178.3
179.13
179.96
180.34
180.71
181.08
181.49
182.37
183.19
183.9
184.32
184.74
185.58
186.24
186.39
187.22
188.04
188.83
189.61
190.42
191.24
192.03
192.54
192.92
193.27
193.62
194.43
195.22
196.01
196.85
197.69
198.53
199.36
200.2
201
201.76
202.59
203.42
204.24
205.08
205.89
206.69
207.44
207.94
208.22
209.05
209.87
210.48
210.69
211.32
211.52
212.3
213.06
213.8
214.6
215.41
215.71
216.22
217.04
217.85
218.63
219.4
220.17
220.52
220.98
221.79
222.6
223.42
224.22
225
225.74
226.54
227.35
228.15
228.68
229.11
229.55
230.37
231.14
231.91
232.74
233.56
234.38
235.21
236.04
236.83
237.6
238.42
239.24
240.06
240.89
241.72
242.53
243.3
244.09
244.92
245.81
246.65
247.46
248.28
249.04
249.8
250.04
250.32
250.62
251.44
252.03
252.24
253.07
253.91
254.7
255.47
256.3
256.96
257.82
258.66
259.49
259.99
260.31
261.09
261.86
262.69
263.5
264.34
265.17
266.01
266.8
267.57
268.39
269.2
270.01
270.85
271.24
271.68
272.48
273.25
273.92
274.06
274.89
275.69
276.39
276.54
277.37
277.73
278.1
278.75
279.51
280.28
281.07
281.88
282.68
283.51
284.3
285.04
285.81
286.6
287.4
287.87
288.2
289
289.83
290.59
291.34
292.14
292.91
293.73
294.55
295.36
296.18
296.94
297.71
298.54
299.34
300.16
301.01
301.85
302.62
303.4
304.21
305.02
305.85
306.66
307.51
308.32
309.08
309.91
310.71
311.53
312.38
313.21
314.02
314.8
315.59
316.41
317.21
318.07
318.93
319.78
320.57
321.27
321.94
322.1
322.91
323.8
324.56
325.4
326.2
326.97
327.77
328.59
329.39
330.27
331.07
331.91
332.68
333.46
334.28
335.07
335.49
335.9
336.74
337.58
338.08
338.38
339.14
339.96
340.77
341.57
342.4
343.25
344.07
344.85
345.65
346.45
347.26
348.1
348.93
349.77
350.55
351.33
352.15
352.94
353.76
354.6
355.46
356.25
357.02
357.88
358.63
359.01
359.39
360.18
360.97
361.77
362.51
363.25
364.04
364.66
364.81
365.59
366.39
367.23
368.02
368.78
369.57
370.37
371.18
371.99
372.83
373.68
374.46
374.82
375.24
376.07
376.88
377.71
378.57
379.41
380.22
381
381.83
382.63
382.99
383.44
384.18
384.71
385.03
385.86
386.64
387.44
388.24
389.04
389.87
390.71
391.56
392.41
393.18
393.98
394.76
395.55
396.38
397.23
398.03
398.78
399.6
400.4
401.2
402.04
402.91
403.74
404.54
405.38
406.1
406.9
407.73
408.15
408.57
409.42
410.21
411
411.81
412.59
413.41
414.25
415.1
415.91
416.68
417.5
418.29
419.08
419.91
420.77
421.13
421.5
422.21
423.02
423.82
424.62
425.43
426.27
427.13
427.95
428.74
429.57
430.38
431.11
431.94
432.81
433.23
433.65
434.42
435.24
436.03
436.81
437.63
438.47
439.31
440.11
440.47
440.83
441.63
442.44
443.3
444.18
444.97
445.77
446.16
446.56
447.37
448.15
448.94
449.77
450.63
451.46
452.25
453.06
453.86
454.64
455.36
456.18
457.05
457.86
458.66
459.48
460.28
461.03
461.86
462.73
463.56
464.33
465.15
465.94
466.72
467.54
468.39
469.23
470.03
470.83
471.63
472.41
473.23
473.59
473.97
474.75
475.6
476.39
477.2
477.98
478.76
479.59
480.45
481.29
482.11
482.93
483.74
484.44
484.84
485.25
486.1
486.95
487.76
488.56
489.36
490.13
490.94
491.77
492.63
493.45
494.24
494.6
494.96
495.73
496.5
497.34
498.21
499.07
499.88
500.72
501.45
502.22
502.63
503.03
503.86
504.51
504.71
505.6
506.33
507.13
507.9
508.7
509.53
510.39
510.76
511.13
511.89
512.74
513.54
514.33
515.14
515.69
516.03
516.8
517.61
518.02
518.43
519.22
520
520.8
521.63
522.48
523.3
524.1
524.91
525.68
526.47
527.28
527.99
528.86
529.7
530.54
531.34
532.13
532.86
533.7
534.56
535.37
536.18
536.99
537.76
538.55
539.38
540.24
541.07
541.43
541.8
542.63
543.45
544.25
545.01
545.86
546.28
546.7
547.51
548.33
549.13
549.89
550.7
551.52
552.38
553.21
553.93
554.75
555.56
556.37
557.22
558.01
558.83
559.64
560.48
561.26
562.01
562.81
563.66
564.51
565.32
566.15
566.52
566.88
567.61
568.43
569.3
570.17
570.92
571.74
572.15
572.56
573.33
574.12
574.93
575.79
576.62
577.43
578.26
579.06
579.81
580.18
580.55
581.34
582.22
583.05
583.94
584.67
585.44
585.84
586.24
587.05
587.9
588.73
589.54
590.37
591.14
591.91
592.71
593.11
593.51
594.31
595.19
596.08
596.8
597.56
597.96
598.35
599.17
600.02
600.85
601.68
602.49
603.25
603.63
604.01
604.76
605.68
606.55
607.29
607.71
608.13
608.91
609.68
610.47
611.31
612.16
612.97
613.82
614.6
615.39
616.22
616.98
617.83
618.66
619.5
620.32
621.09
621.88
622.67
623.52
624.29
625.11
626
626.84
627.53
628.33
629.16
629.99
630.82
631.67
632.47
633.24
634.02
634.83
635.23
635.63
636.44
637.29
638.17
638.9
639.67
640.08
640.48
641.32
642.16
642.98
643.83
644.62
645.37
646.15
646.98
647.37
647.77
648.56
649.46
650.32
651.03
651.42
651.82
652.62
653.45
654.28
655.12
655.94
656.73
657.51
658.3
659.11
659.96
660.82
661.64
662.44
663.2
663.99
664.81
665.64
666.46
667.32
668.14
668.88
669.67
670.53
671.3
672.13
672.98
673.81
674.59
675.38
676.17
676.99
677.83
678.6
679.48
680.34
681.04
681.83
682.66
683.49
684.31
685.18
685.99
686.76
687.54
688.27
689.12
690.02
690.79
691.63
692.41
693.2
693.99
694.82
695.64
696.46
697.33
698.12
698.81
699.65
700.42
701.25
702.08
702.93
703.77
704.54
705.33
706.12
706.95
707.76
708.58
709.46
710.3
711.02
711.81
712.63
713.44
714.27
715.14
715.95
716.72
717.49
718.31
719.12
719.94
720.81
721.64
722.42
723.2
723.98
724.81
725.63
726.34
727.24
728.04
728.82
729.61
730.42
731.23
732.05
732.92
733.71
734.54
735.28
736.09
736.9
737.72
738.58
739.42
740.21
741
741.78
742.57
743.39
744.29
745.09
745.89
746.69
747.47
748.29
749.09
749.91
750.79
751.61
752.38
753.08
753.9
754.73
755.58
756.38
757.22
758.02
758.8
759.58
760.39
761.21
762.05
762.91
763.71
764.44
765.25
766.13
766.87
767.69
768.56
769.38
770.16
770.94
771.75
772.55
773.35
774.21
775.12
775.86
776.65
777.44
778.24
779.04
779.88
780.73
781.54
782.35
783.13
783.95
784.74
785.55
786.43
787.27
788.04
788.83
789.63
790.43
791.22
792.1
792.95
793.75
794.54
795.33
796.13
796.92
797.75
798.64
799.42
800.23
801.02
801.82
802.61
803.42
804.3
805.13
805.89
806.69
807.55
808.3
809.1
809.97
810.82
811.61
812.4
813.19
813.98
814.7
815.58
816.49
817.24
818.06
818.84
819.64
820.42
821.23
822.1
822.92
823.67
824.51
825.3
826.09
826.88
827.74
828.6
829.4
830.19
830.99
831.76
832.58
833.4
834.26
835.08
835.89
836.69
837.48
838.26
839.08
839.95
840.75
841.58
842.36
843.17
843.96
844.74
845.61
846.46
847.33
848.06
848.86
849.66
850.44
851.28
852.13
852.95
853.78
854.55
855.36
856.13
856.94
857.79
858.61
859.45
860.23
861.07
861.84
862.62
863.48
864.32
865.13
865.94
866.74
867.49
868.29
869.22
869.99
870.81
871.64
872.44
873.24
874.01
874.82
875.65
876.51
877.31
878.13
878.94
879.71
880.49
881.35
882.19
882.98
883.8
884.68
885.41
886.19
887.02
887.86
888.69
889.5
890.31
891.12
891.94
892.69
893.54
894.36
895.19
896
896.81
897.59
898.41
899.21
900.03
900.85
901.67
902.5
903.27
904.08
904.91
905.72
906.54
907.36
908.18
908.98
909.74
910.58
911.43
912.21
913.05
913.86
914.67
915.44
916.23
917.08
917.94
918.72
919.55
920.37
921.14
921.91
922.75
923.57
924.39
925.21
925.99
926.82
927.59
928.41
929.24
930.03
930.87
931.77
932.52
933.29
934.08
934.91
935.73
936.56
937.37
938.21
939.05
939.76
940.59
941.41
942.23
943.06
943.9
944.69
945.46
946.33
947.1
947.92
948.76
949.59
950.4
951.17
951.97
952.78
953.65
954.44
955.28
956.11
956.89
957.65
958.49
959.31
960.13
960.96
961.8
962.58
963.35
964.17
964.99
965.8
966.65
967.46
968.28
969.06
969.85
970.67
971.48
972.32
973.16
973.99
974.77
975.54
976.36
977.16
977.99
978.82
979.66
980.46
981.22
982.04
982.85
983.65
984.49
985.34
986.09
986.9
987.7
988.5
989.31
990.16
990.99
991.83
992.6
993.38
994.17
995
995.9
996.67
997.52
998.3
999.07
999.89
1000.7
1001.5
1002.3
1003.1
1003.9
1004.7
1005.5
1006.3
1007.1
1008
1008.8
1009.6
1010.4
1011.3
1012
1012.8
1013.6
1014.5
1015.3
1016.1
1016.9
1017.7
1018.5
1019.3
1020.2
1021
1021.8
1022.6
1023.4
1024.2
1025
1025.8
1026.7
1027.5
1028.3
1029.1
1029.9
1030.7
1031.5
1032.4
1033.2
1034
1034.8
1035.6
1036.4
1037.2
1038.1
1038.9
1039.7
1040.5
1041.3
1042.1
1042.9
1043.7
1044.6
1045.4
1046.2
1047
1047.8
1048.6
1049.4
1050.2
1051
1051.9
1052.7
1053.5
1054.3
1055.1
1055.9
1056.8
1057.6
1058.4
1059.1
1060
1060.7
1061.5
1062.4
1063.2
1064
1064.8
1065.6
1066.4
1067.2
1068.1
1068.9
1069.7
1070.5
1071.3
1072.1
1072.9
1073.7
1074.6
1075.4
1076.2
1077
1077.8
1078.6
1079.4
1080.3
1081.1
1081.9
1082.7
1083.5
1084.3
1085.1
1085.9
1086.8
1087.6
1088.4
1089.2
1090
1090.8
1091.6
1092.5
1093.3
1094.1
1094.9
1095.7
1096.5
1097.3
1098.1
1099
1099.8
1100.6
1101.4
1102.1
1102.9
1103.8
1104.6
1105.5
1106.3
1107.1
1107.9
1108.6
1109.5
1110.3
1111.1
1112
1112.8
1113.5
1114.3
1115.2
1116
1116.8
1117.6
1118.5
1119.3
1120
1120.8
1121.7
1122.5
1123.3
1124.2
1125
1125.7
1126.5
1127.3
1128.2
1129
1129.8
1130.6
1131.5
1132.2
1133
1133.9
1134.7
1135.5
1136.3
1137.1
1137.9
1138.7
1139.5
1140.4
1141.2
1142
1142.8
1143.6
1144.4
1145.3
1146.1
1146.9
1147.7
1148.5
1149.3
1150.1
1150.9
1151.7
1152.6
1153.4
1154.2
1155
1155.8
1156.6
1157.4
1158.2
1159.1
1159.9
1160.7
1161.5
1162.3
1163.1
1163.9
1164.7
1165.6
1166.4
1167.2
1167.9
1168.8
1169.6
1170.4
1171.3
1172.1
1172.8
1173.6
1174.4
1175.3
1176.1
1176.9
1177.8
1178.5
1179.3
1180.1
1180.9
1181.8
1182.6
1183.5
1184.2
1185
1185.8
1186.6
1187.4
1188.3
1189.1
1189.9
1190.7
1191.5
1192.3
1193.1
1193.9
1194.8
1195.6
1196.4
1197.2
1198
1198.8
1199.6
1200.5
1201.3
1202.1
1202.9
1203.7
1204.5
1205.3
1206.1
1207
1207.8
1208.6
1209.4
1210.2
1211
1211.8
1212.7
1213.5
1214.3
1215.1
1215.9
1216.7
1217.5
1218.3
1219.2
1220
1220.8
1221.6
1222.4
1223.2
1224
1224.9
1225.7
1226.5
1227.2
1228.1
1228.9
1229.7
1230.5
1231.4
1232.1
1233
1233.7
1234.5
1235.3
1236.2
1237
1237.8
1238.6
1239.4
1240.2
1241
1241.8
1242.7
1243.5
1244.3
1245.1
1245.9
1246.7
1247.5
1248.4
1249.2
1250
1250.8
1251.6
1252.4
1253.2
1254.1
1254.9
1255.7
1256.5
1257.3
1258.1
1258.9
1259.7
1260.6
1261.4
1262.2
1263
1263.8
1264.6
1265.4
1266.3
1267.1
1267.9
1268.7
1269.5
1270.3
1271.1
1271.9
1272.8
1273.6
1274.4
1275.2
1276
1276.7
1277.6
1278.5
1279.3
1280.1
1280.9
1281.7
1282.5
1283.3
1284.1
1285
1285.8
1286.6
1287.4
1288.2
1288.9
1289.8
1290.7
1291.5
1292.3
1293.1
1293.9
1294.6
1295.5
1296.3
1297.1
1298
1298.7
1299.5
1300.3
1301.1
1301.9
1302.8
1303.6
1304.4
1305.2
1306
1306.8
1307.7
1308.5
1309.3
1310
1310.9
1311.7
1312.4
1313.3
1314.1
1314.9
1315.8
1316.6
1317.3
1318.1
1318.9
1319.8
1320.6
1321.4
1322.2
1323
1323.8
1324.6
1325.5
1326.3
1327.1
1327.9
1328.7
1329.5
1330.3
1331.2
1332
1332.8
1333.6
1334.4
1335.2
1336
1336.8
1337.7
1338.5
1339.3
1340.1
1340.9
1341.7
1342.5
1343.3
1344.2
1345
1345.8
1346.6
1347.4
1348.2
1349
1349.8
1350.7
1351.5
1352.3
1353.1
1353.9
1354.7
1355.5
1356.3
1357.1
1358
1358.8
1359.6
1360.4
1361.2
1362
1362.9
1363.6
1364.5
1365.2
1366
1366.9
1367.7
1368.5
1369.3
1370.2
1370.9
1371.7
1372.5
1373.3
1374.2
1375
1375.8
1376.6
1377.4
1378.2
1379
1379.8
1380.7
1381.5
1382.3
1383.1
1383.9
1384.7
1385.5
1386.3
1387.2
1388
1388.8
1389.6
1390.4
1391.2
1392
1392.8
1393.7
1394.5
1395.3
1396.1
1396.9
1397.7
1398.5
1399.4
1400.2
1400.9
1401.8
1402.6
1403.4
1404.2
1405
1405.9
1406.6
1407.4
1408.2
1409
1409.9
1410.7
1411.6
1412.3
1413.1
1413.9
1414.7
1415.6
1416.5
1417.2
1418
1418.8
1419.6
1420.4
1421.2
1422
1422.9
1423.7
1424.5
1425.3
1426.1
1426.9
1427.7
1428.6
1429.4
1430.2
1431
1431.8
1432.6
1433.4
1434.2
1435.1
1435.9
1436.7
1437.4
1438.3
1439
1439.9
1440.7
1441.5
1442.3
1443.1
1443.9
1444.7
1445.5
1446.5
1447.2
1448
1448.8
1449.6
1450.4
1451.2
1452.1
1452.9
1453.8
1454.5
1455.3
1456.1
1456.9
1457.8
1458.6
1459.4
1460.3
1461
1461.8
1462.6
1463.4
1464.3
1465.1
1465.9
1466.7
1467.6
1468.3
1469.1
1470
1470.8
1471.6
1472.4
1473.2
1474
1474.8
1475.6
1476.5
1477.3
1478.1
1478.9
1479.7
1480.5
1481.3
1482.2
1483
1483.8
1484.6
1485.4
1486.2
1486.9
1487.8
1488.6
1489.5
1490.3
1491.1
1491.8
1492.6
1493.5
1494.2
1495.1
1495.9
1496.7
1497.5
1498.3
1499.1
1499.9
1500.8
1501.2
1501.5
1502.4
1503.2
1503.9
1504.3
1504.7
1505.6
1506.4
1507.2
1508.1
1508.9
1509.6
1510.5
1511.3
1512.1
1512.9
1513.8
1514.6
1515.3
1516.1
1516.9
1517.8
1518.6
1519.4
1520.3
1521
1521.8
1522.6
1523.5
1524.4
1525.1
1526
1526.8
1527.5
1528.3
1529.1
1530
1530.8
1531.7
1532.5
1533.2
1534
1534.8
1535.7
1536.5
1537.3
1538.2
1538.9
1539.7
1540.5
1541.4
1542.2
1543.1
1543.9
1544.6
1545.4
1546.2
1547
1547.9
1548.6
1549.6
1550.3
1551.1
1551.9
1552.7
1553.5
1554.4
1555.2
1556
1556.8
1557.6
1558.4
1559.2
1560
1560.9
1561.7
1562.5
1563.3
1564
1564.8
1565.6
1566.5
1567.3
1568.1
1568.9
1569.7
1570.5
1571.3
1572.1
1573
1573.8
1574.6
1575.4
1576.2
1577
1577.8
1578.7
1579.5
1580.3
1581.1
1581.8
1582.7
1583.5
1584.3
1585.2
1586
1586.7
1587.5
1588.3
1589.2
1590
1590.9
1591.7
1592.5
1593.2
1594
1594.9
1595.7
1596.5
1597.4
1598.2
1598.9
1599.7
1600.5
1601.4
1602.2
1603.1
1603.8
1604.6
1605.4
1606.2
1607
1607.9
1608.7
1609.5
1610.4
1611.1
1612
1612.7
1613.6
1614.4
1615.3
1616.1
1616.8
1617.6
1618.4
1619.2
1620.1
1621
1621.8
1622.5
1623.3
1624.1
1624.9
1625.7
1626.6
1627.4
1628.2
1629
1629.8
1630.5
1631.4
1632.3
1633.1
1633.9
1634.7
1635.5
1636.3
1637
1637.9
1638.3
1638.7
1639.5
1640.4
1641.1
1641.5
1641.9
1642.7
1643.6
1644.4
1645.2
1646
1646.8
1647.6
1648.4
1649.2
1650.1
1650.9
1651.7
1652.5
1653.3
1654.1
1655
1655.8
1656.6
1657.4
1658.2
1659
1659.8
1660.6
1661.4
1662.3
1663.1
1663.9
1664.7
1665.5
1666.3
1667.1
1667.9
1668.8
1669.6
1670.4
1671.2
1672
1672.8
1673.6
1674.4
1675.3
1676.1
1676.9
1677.7
1678.5
1679.3
1680.1
1681
1681.8
1682.5
1683.4
1684.1
1685
1685.8
1686.6
1687.4
1688.3
1689.1
1689.8
1690.6
1691.5
1692.4
1693.1
1694
1694.8
1695.5
1696.3
1697.2
1698
1698.8
1699.6
1700.5
1701.3
1702
1702.9
1703.7
1704.5
1705.3
1706.2
1706.9
1707.7
1708.5
1709.4
1710.2
1711
1711.9
1712.6
1713.4
1714.2
1715
1715.9
1716.7
1717.5
1718.3
1719.1
1719.9
1720.7
1721.5
1722.4
1723.2
1724.1
1724.8
1725.6
1726.4
1727.2
1728.1
1728.9
1729.7
1730.5
1731.3
1732.1
1732.9
1733.7
1734.6
1735.4
1736.2
1737
1737.8
1738.7
1739.4
1740.2
1741.1
1741.9
1742.7
1743.5
1744.3
1745.1
1745.9
1746.8
1747.6
1748.4
1749.2
1750
1750.8
1751.6
1752.4
1753.3
1754.1
1754.9
1755.7
1756.5
1757.3
1758.1
1759
1759.8
1760.6
1761.4
1762.1
1762.9
1763.8
1764.6
1765.5
1766.3
1767.1
1767.8
1768.6
1769.5
1770.3
1771.1
1772
1772.7
1773.5
1774.3
1775.2
1776
1776.8
1777.7
1778.5
1779.3
1780
1780.8
1781.7
1782.5
1783.3
1784.1
1785
1785.7
1786.5
1787.3
1788.2
1789
1789.8
1790.7
1791.4
1792.2
1793
1793.9
1794.7
1795.5
1796.3
1797.1
1797.9
1798.7
1799.5
1800.5
1801.2
1802
1802.8
1803.6
1804.4
1805.2
