0.18611
0.54722
1.275
1.9667
2.6806
3.3944
4.1083
4.8361
5.5972
6.3528
7.0833
7.7861
8.4778
9.175
9.8972
10.653
11.394
12.142
12.875
13.614
14.317
15.019
15.447
16.453
17.208
17.967
18.711
19.433
20.128
20.85
21.575
22.006
23.028
23.789
24.525
25.258
25.972
26.667
27.347
28.069
28.833
29.569
30.3
31.022
31.733
32.433
33.142
33.853
34.581
35.069
36.075
36.811
37.519
38.208
38.906
39.592
40.325
41.072
41.814
42.531
43.264
43.983
44.678
45.375
46.083
46.817
47.578
48.328
49.056
49.767
50.467
51.183
51.894
52.628
53.369
54.119
54.853
55.578
56.283
56.986
57.678
58.419
58.894
59.933
60.661
61.389
62.086
62.789
63.5
64.206
64.933
65.669
66.433
67.167
67.858
68.547
69.006
69.975
70.728
71.478
72.214
72.928
73.656
74.364
75.056
75.758
76.469
77.208
77.961
78.708
79.417
80.097
80.803
81.525
82.236
82.969
83.714
84.447
85.172
85.386
85.881
86.569
86.961
87.267
87.969
88.706
89.464
90.211
90.931
91.628
92.317
93.028
93.747
94.472
95.206
95.95
96.717
97.433
98.117
98.808
99.528
100.26
101.02
101.76
102.2
103.2
103.92
104.63
105.32
106.02
106.75
107.48
108.22
108.96
109.66
110.33
111.04
111.75
112.47
113.18
113.91
114.64
115.35
116.06
116.74
117.43
118.12
118.87
119.61
120.34
121.04
121.72
122.39
123.09
123.8
124.49
125.21
125.94
126.69
127.12
128.06
128.74
129.43
130.12
130.85
131.59
132.32
133.02
133.72
134.43
135.12
135.8
136.51
137.25
137.99
138.73
139.44
140.13
140.81
141.53
142.24
142.98
143.71
144.45
145.16
145.87
146.58
147.28
147.97
148.71
149.49
150.22
150.93
151.63
152.32
153.03
153.75
154.46
155.2
155.94
156.7
157.41
158.11
158.79
159.21
160.18
160.95
161.69
162.43
163.14
163.85
164.55
165.26
165.95
166.68
167.42
168.18
168.91
169.62
170.31
171
171.72
172.45
173.19
173.91
174.66
175.36
176.06
176.76
177.46
178.15
178.89
179.65
180.38
181.07
181.77
182.46
183.15
183.86
184.57
185.29
185.74
186.74
187.46
188.16
188.83
189.51
190.21
190.94
191.69
192.41
193.12
193.81
194.52
195.2
195.9
196.61
197.35
198.09
198.83
199.53
200.22
200.91
201.35
202.35
203.1
203.83
204.56
205.29
206
206.39
207.39
208.1
208.84
209.61
210.35
211.06
211.76
212.46
213.16
213.88
214.6
215.35
216.07
216.82
217.53
218.22
218.91
219.62
220.32
221.07
221.82
222.56
223.25
223.96
224.67
225.36
226.05
226.78
227.52
228.25
228.99
229.69
230.37
231.06
231.79
232.51
233.25
233.97
234.7
235.41
236.12
236.82
237.52
238.22
238.97
239.74
240.47
241.17
241.87
242.55
243.26
243.98
244.71
245.46
246.2
246.52
246.95
247.66
248.36
249.04
249.76
250.48
251.23
251.99
252.72
253.43
254.13
254.85
255.56
256.26
257.01
257.75
258.5
259.25
259.95
260.64
261.34
262.09
262.83
263.57
264.32
264.85
265.07
265.78
266.49
267.19
267.9
268.63
269.4
270.16
270.89
271.6
272.31
272.99
273.73
273.95
274.47
275.21
275.95
276.71
277.45
278.15
278.84
279.54
280.26
281.01
281.78
282.5
283.22
283.65
284.64
284.88
285.33
286.04
286.76
287.5
288.23
288.96
289.66
290.36
291.03
291.74
292.48
293.22
293.94
294.67
295.38
295.64
296.08
296.29
296.78
297.47
298.18
298.9
299.66
300.07
301.09
301.79
302.49
303.17
303.88
304.61
305.35
306.07
306.81
307.54
308.23
308.91
309.33
309.6
310.31
311.04
311.8
312.52
312.67
313.23
313.93
314.64
315.33
316.04
316.76
317.51
318.24
318.98
319.69
320.38
321.06
321.77
322.51
323.26
323.99
324.72
325.44
326.14
326.85
327.55
328.26
328.73
329.76
330.51
331.22
331.91
332.6
333.09
333.3
334.01
334.74
335.49
336.21
336.95
337.67
338.37
339.04
339.75
340.47
341.22
341.98
342.36
342.71
343.41
344.11
344.84
345
345.53
346.23
346.98
347.73
348.47
349.21
349.91
350.31
351.3
352.04
352.78
353.53
354.27
354.99
355.7
356.41
357.13
357.83
358.56
359.31
360.07
360.81
361.51
362.2
362.9
363.61
364.34
365.07
365.81
366.54
367.27
367.97
368.66
369.34
370.06
370.79
371.55
372.29
373.02
373.71
374.41
375.13
375.84
376.55
377.3
378.04
378.79
379.52
380.22
380.91
381.61
382.36
383.1
383.84
384.58
385.31
386.01
386.72
387.43
388.14
388.87
389.65
390.4
391.13
391.84
392.52
393.22
393.95
394.7
395.44
396.18
396.93
397.66
398.36
399.05
399.76
400.49
401.25
402.01
402.74
403.46
404.16
404.87
405.58
406.3
407.03
407.78
408.19
409.24
409.95
410.65
411.34
412.06
412.81
413.57
414.29
415.01
415.71
416.4
417.11
417.82
418.53
419.27
420.04
420.76
421.46
422.14
422.84
423.54
424.26
425
425.74
426.47
427.21
427.93
428.63
429.32
430.04
430.77
431.54
432.3
433.02
433.71
434.42
435.13
435.57
436.57
437.31
438.05
438.79
439.51
440.19
440.52
440.89
441.58
442.31
443.05
443.79
444.52
445.23
445.92
446.62
447.32
448.02
448.74
449.49
450.25
450.97
451.65
452.34
453.04
453.74
454.47
454.89
455.95
456.68
457.41
458.12
458.81
459.5
460.23
460.68
461.71
462.48
463.2
463.89
464.59
465.31
466.02
466.74
467.49
468.23
468.96
469.69
470.38
471.07
471.79
472.54
473.28
474.03
474.77
475.49
476.19
476.9
477.6
478.33
479.06
479.81
480.56
481.28
481.97
482.66
483.14
484.09
484.84
485.57
486.31
487.02
487.75
488.44
489.13
489.82
490.56
491.31
492.05
492.78
493.5
494.17
494.88
495.59
496.31
497.01
497.76
498.48
499.2
499.92
500.6
501.29
502
502.76
503.5
504.23
504.96
505.66
506.36
507.07
507.77
508.5
509.23
509.99
510.74
511.46
512.15
512.84
513.53
514.27
515.03
515.77
516.51
517.24
517.96
518.66
519.35
520.06
520.81
521.56
522.31
523.02
523.73
524.42
525.13
525.83
526.56
527.28
528.03
528.77
529.48
530.19
530.88
531.57
532.3
533.06
533.81
534.53
535.26
535.95
536.66
537.37
538.09
538.82
539.57
540.33
541.07
541.77
542.46
543.17
543.88
544.64
545.39
546.13
546.86
547.6
548.31
549.02
549.73
550.46
550.91
551.96
552.09
552.71
553.41
554.1
554.81
555.52
556.23
556.95
557.68
558.41
558.78
559.14
559.85
560.53
561.22
561.93
562.67
563.41
564.16
564.87
565.58
566.27
566.97
567.69
568.41
569.14
569.88
570.64
571.36
572.04
572.73
573.43
574.16
574.91
575.66
576.39
577.13
577.86
578.56
579.25
579.97
580.72
581.47
582.23
582.97
583.68
584.01
584.37
585.09
585.81
586.55
587.29
588.03
588.76
589.11
589.48
590.2
590.89
591.59
592.32
593.09
593.84
594.58
595.3
596.01
596.73
597.45
598.16
598.9
599.66
600.43
601.16
601.87
602.56
603.27
603.99
604.73
605.49
606.24
606.96
607.68
608.4
609.1
609.8
610.53
611.28
612.04
612.8
613.52
614.21
614.92
615.65
616.38
617.11
617.86
618.61
619.34
620.07
620.77
621.47
622.19
622.97
623.71
624.46
625.19
625.64
625.9
626.27
626.61
627.33
628.04
628.78
629.52
630.29
631.03
631.48
631.74
632.44
633.14
633.85
634.21
634.6
635.36
636.11
636.83
637.56
638.28
638.99
639.69
640.41
641.16
641.92
642.39
643.4
644.11
644.8
645.53
646.27
647
647.75
648.5
649.23
649.96
650.66
651.36
652.08
652.85
653.61
654.36
655.09
655.81
656.51
657.22
657.95
658.7
659.44
660.21
660.48
660.96
661.35
662.35
663.05
663.76
664.49
665.26
666
666.72
667.44
668.16
668.44
668.86
669.54
670.26
671
671.74
672.17
673.2
673.91
674.6
675.3
676.02
676.75
677.48
678.21
678.94
679.65
680.35
681.03
681.73
682.46
683.22
683.5
683.96
684.68
685.39
686.09
686.79
687.49
688.21
688.94
689.67
690.43
691.16
691.33
691.85
692.53
693.23
693.93
694.68
695.44
696.18
696.9
697.61
698.33
699.02
699.71
700.44
701.18
701.94
702.69
703.4
704.1
704.8
705.53
706.26
706.73
707.76
708.51
709.24
709.97
710.67
711.37
712.09
712.86
713.63
714.39
715.12
715.83
716.54
717.27
718.01
718.76
719.51
720.27
721.03
721.75
722.45
723.16
723.89
724.65
725.43
726.19
726.94
727.67
728.41
729.13
729.83
730.57
731.34
732.1
732.87
733.59
734.29
735
735.75
736.48
737.22
737.98
738.73
739.47
740.2
740.9
741.61
742.34
743.13
743.88
744.63
745.36
746.07
746.77
747.5
748.23
748.68
749.72
750.49
751.22
751.94
752.63
753.33
754.04
754.8
755.56
756.3
757.02
757.75
758.47
759.18
759.88
760.61
761.37
762.14
762.88
763.59
763.71
764.29
764.99
765.73
766.45
767.18
767.92
768.67
769.39
770.09
770.79
771.5
771.71
772.21
772.97
773.73
774.48
775.2
775.91
776.6
777.31
778.05
778.79
779.51
780.26
781.02
781.72
782.39
783.09
783.79
784.53
785.29
786.02
786.75
787.46
788.18
788.87
789.56
790.28
791.02
791.75
792.49
793.21
793.91
794.59
795.29
796
796.74
797.47
798.2
798.92
799.64
800.34
801.02
801.72
802.43
803.18
803.93
804.66
805.36
806.06
806.74
807.45
808.17
808.91
809.64
810.39
811.13
811.84
812.51
813.21
813.92
814.65
815.41
816.14
816.86
817.57
818.29
818.97
819.66
820.38
821.12
821.85
822.59
823.31
823.72
824.68
825.39
826.11
826.84
827.56
828.29
829
829.72
830.42
831.1
831.79
832.51
833.27
834.01
834.73
835.43
836.13
836.82
837.53
838.24
838.98
839.71
840.44
841.17
841.87
842.54
843.23
843.92
844.66
845.4
846.13
846.84
847.54
847.81
848.24
848.92
849.6
850.29
851.02
851.74
852.46
853.18
853.86
854.52
854.86
855.21
855.92
856.64
857.35
858.07
858.79
859.49
860.18
860.86
861.53
862.22
862.96
863.7
864.42
865.11
865.51
866.46
867.16
867.86
868.56
869.27
869.99
870.72
871.39
871.88
872.06
872.72
873.35
874.05
874.75
875.48
875.94
876.16
876.4
876.85
877.52
878.18
878.85
879.51
880.19
880.89
881.6
882.32
883.03
883.71
884.38
885.04
885.75
886.45
887.16
887.86
888.59
889.29
889.97
890.65
891.33
892.01
892.73
893.48
894.2
894.89
895.59
896.27
896.96
897.65
898.35
899.08
899.8
900.54
901.26
901.95
902.28
902.63
903.32
904.01
904.74
905.5
906.23
906.93
907.64
908.36
909.05
909.75
910.46
911.21
911.95
912.7
913.41
914.11
914.81
915.52
916.26
917
917.74
918.48
919.2
919.91
920.62
921.31
922.02
922.76
923.53
924.28
924.99
925.69
926.39
927.1
927.81
928.54
929.28
930.02
930.77
931.49
932.19
932.88
933.59
934.31
935.06
935.82
936.56
937.27
937.99
938.7
939.4
940.1
940.84
941.58
942.33
943.08
943.79
944.47
945.18
945.92
946.65
947.39
948.14
948.87
949.6
950.32
951.01
951.71
952.44
953.21
953.94
954.69
955.41
956.11
956.82
957.54
958.27
959.02
959.77
960.53
961.27
962
962.69
963.4
964.13
964.9
965.66
966.42
967.15
967.88
968.61
969.32
970.03
970.77
971.52
972.27
973.02
973.73
974.42
975.13
975.88
976.62
977.35
977.75
978.11
978.85
979.58
980.31
981.02
981.73
982.47
983.25
983.99
984.73
985.45
986.16
986.88
987.62
988.37
989.12
989.89
990.68
991.41
992.13
992.84
993.57
994.31
995.07
995.82
996.56
997.29
997.66
998.01
998.61
998.71
999.43
1000.2
1000.9
1001.7
1002.4
1003.1
1003.9
1004.5
1005.3
1006
1006.7
1007.5
1008.2
1008.8
1008.9
1009.7
1010.4
1011.1
1011.2
1011.8
1012.5
1013.3
1014
1014.7
1015.5
1015.8
1016.2
1016.9
1017.4
1017.6
1018.3
1019
1019.7
1020.5
1021.2
1021.9
1022.6
1023.3
1024
1024.7
1025.5
1026.2
1026.9
1027.6
1028.3
1028.9
1029
1029.6
1029.9
1030.4
1030.8
1031.1
1031.6
1032.4
1032.5
1033.2
1033.5
1033.9
1034.6
1035.3
1035.9
1036.1
1036.7
1037.4
1038.1
1038.8
1039.5
1040.2
1040.8
1041.3
1041.5
1042.2
1042.9
1043.7
1044.4
1044.6
1045.1
1045.7
1046.4
1047.1
1047.8
1048.5
1049.2
1049.9
1050.6
1051.3
1052
1052.7
1053.3
1054
1054.7
1055.5
1056.2
1056.9
1057.5
1058.2
1058.9
1059.6
1060.2
1061
1061.7
1062.4
1063.1
1063.8
1064
1064.4
1064.6
1065.1
1065.8
1066.5
1067.2
1067.9
1068.4
1068.6
1068.9
1069.2
1069.9
1070.6
1070.9
1071.2
1071.9
1072.6
1073.3
1073.4
1074
1074.7
1075.4
1076
1076.7
1077.2
1077.4
1077.9
1078.1
1078.8
1079.5
1080.2
1080.9
1081.6
1082.2
1082.9
1083.6
1084.3
1085
1085.7
1086.4
1087.1
1087.8
1088.4
1089.1
1089.8
1090.5
1091.2
1091.9
1092.6
1093.3
1094
1094.7
1095.3
1096
1096.8
1097.5
1098.2
1098.9
1099.6
1100.2
1100.9
1101.6
1102.3
1103
1103.7
1104.4
1104.9
1105.1
1105.8
1106.5
1106.9
1107.2
1107.2
1107.9
1108.3
1108.6
1109.3
1109.4
1110
1110.8
1111.4
1112.1
1112.8
1113.5
1114.2
1114.9
1115.7
1116.4
1117.1
1117.8
1118.5
1119.2
1119.8
1120.6
1121.3
1122
1122.8
1123.5
1124.1
1124.8
1125.1
1125.5
1126.2
1127
1127.4
1127.7
1128.4
1129.1
1129.8
1130.5
1130.7
1131.2
1131.9
1132.6
1133.3
1134.1
1134.3
1134.8
1135.5
1136.1
1136.8
1137.5
1138.2
1138.9
1139.6
1140.3
1141.1
1141.7
1142.4
1143.1
1143.8
1144.5
1145.2
1145.9
1146.6
1147.3
1147.5
1148
1148.3
1148.7
1149.4
1149.8
1150
1150.8
1151.5
1152.2
1152.9
1153.6
1154.3
1155
1155.7
1156.4
1157.1
1157.9
1158.6
1159.3
1160
1160.3
1160.7
1161.4
1162.1
1162.8
1163.6
1164.3
1165
1165.7
1166.3
1167
1167.2
1167.7
1168.4
1169.1
1169.9
1170.6
1171.3
1172
1172.7
1173.3
1174
1174.8
1175.5
1176.2
1176.9
1177.6
1178.3
1179
1179.6
1180.3
1181.1
1181.8
1182.5
1183.2
1183.9
1184.3
1184.5
1185.2
1185.9
1186.3
1187.3
1188
1188.7
1189.4
1190.1
1190.7
1191.4
1192.1
1192.8
1193.2
1193.5
1194.2
1194.9
1195.5
1196.2
1196.8
1197.5
1198.2
1198.9
1199.6
1200.3
1200.9
1201.6
1202.2
1202.9
1203.5
1204.2
1204.3
1205.5
1205.6
1206.2
1206.6
1207.5
1208.2
1208.9
1209.5
1210.2
1210.8
1211.5
1212.2
1212.9
1213.5
1214.1
1214.8
1215.4
1216.1
1216.8
1217.5
1218.2
1218.8
1219.5
1220.1
1220.8
1221.4
1222
1222.7
1223.4
1224.1
1224.7
1225.3
1226
1226.6
1227.3
1227.9
1228.6
1229.2
1229.9
1230.6
1231.3
1231.9
1232.5
1233.2
1233.8
1234.5
1235.2
1235.8
1236.5
1237.2
1237.8
1238.5
1239.1
1239.8
1240.4
1241.1
1241.8
1242.5
1243.1
1243.8
1244.2
1245
1245.7
1246.4
1247
1247.7
1248.4
1249
1249.7
1250.3
1250.9
1251.6
1252.2
1252.6
1252.9
1253.6
1254.3
1254.9
1255.5
1256.2
1256.8
1257.5
1258.1
1258.8
1259.5
1259.6
1260.2
1260.8
1261.5
1262.1
1262.7
1263.4
1263.7
1264
1264.7
1265.4
1266.1
1266.7
1267.4
1268
1268.5
1268.9
1269.3
1270
1270.6
1271.3
1271.8
1272
1272.7
1273.3
1273.9
1274.6
1275.2
1275.9
1276.5
1277.2
1277.8
1278.5
1279.1
1279.8
1280.4
1281
1281.6
1282.3
1283
1283.6
1284.3
1284.9
1285.6
1285.7
1286.2
1286.8
1287.5
1287.9
1288.8
1289.4
1290.1
1290.3
1290.8
1291.4
1292
1292.6
1293.3
1293.9
1294.4
1294.6
1295.2
1295.5
1295.9
1296.6
1297.2
1297.9
1298.5
1299.1
1299.7
1300.4
1301
1301.7
1302.4
1303.1
1303.7
1304.3
1304.9
1305.6
1306.2
1306.9
1307.6
1308.2
1308.9
1309.5
1310.2
1310.8
1311.4
1312.1
1312.3
1313.4
1313.5
1314.1
1314.8
1315.4
1316.1
1316.7
1317.3
1318
1318.6
1319.3
1320
1320.7
1321.3
1322
1322.6
1323.2
1323.9
1324.5
1325.2
1325.9
1326.5
1327.2
1327.8
1328.5
1329.1
1329.2
1330.3
1330.4
1331.1
1331.8
1332.5
1333.1
1333.7
1334.4
1335
1335.7
1336.4
1337
1337.7
1338.4
1339.1
1339.7
1340.4
1341
1341.6
1342.3
1343
1343.7
1344.4
1345
1345.7
1346.3
1347
1347.6
1348.3
1349
1349.7
1350.3
1351
1351.6
1351.8
1352.3
1352.9
1353.5
1354.2
1354.9
1355.5
1355.9
1356.9
1357.5
1358.2
1358.5
1358.8
1359.4
1360.1
1360.7
1361.4
1361.8
1362.8
1363.4
1364
1364.7
1365.3
1366
1366.6
1367.3
1368
1368.6
1369.3
1369.9
1370.5
1371.2
1371.8
1372.5
1373.1
1373.8
1374.5
1375.1
1375.8
1376.4
1376.6
1377.1
1377.7
1378.4
1379
1379.7
1380.4
1381.1
1381.7
1382.3
1383
1383.6
1384.3
1384.9
1385.6
1386.3
1387
1387.6
1388.3
1388.9
1389.5
1390.2
1390.8
1391.5
1392.2
1392.8
1393.5
1394.1
1394.8
1395.4
1396
1396.7
1397.4
1398.1
1398.7
1399.4
1400
1400.6
1401.3
1401.9
1402.6
1403.3
1403.9
1404.6
1405.2
1405.9
1406.5
1407.1
1407.8
1408.4
1409.1
1409.8
1410.5
1411.1
1411.7
1412.4
1413
1413.6
1414.3
1414.9
1415.6
1416.3
1416.9
1417.6
1418.2
1418.8
1419.5
1420.1
1420.8
1421.4
1422.1
1422.8
1423.4
1424
1424.7
1425.3
1425.9
1426.6
1427.3
1427.9
1428.6
1429.3
1429.5
1429.9
1430.5
1431.1
1431.8
1432.4
1432.9
1433.1
1433.8
1434.4
1435.1
1435.7
1436.3
1437
1437.6
1438.2
1438.9
1439.6
1440.3
1441
1441.6
1442.2
1442.9
1443.5
1444.2
1444.8
1445.5
1446.2
1446.8
1447.5
1448.1
1448.7
1449.4
1450
1450.7
1451.4
1452.1
1452.7
1453.4
1454
1454.7
1455.3
1455.9
1456.6
1457.3
1458
1458.7
1459.4
1460
1460.6
1461
1462
1462.6
1463.3
1464
1464.7
1465.4
1466
1466.7
1467.3
1468
1468.7
1469.4
1470.1
1470.8
1471.5
1472.1
1472.8
1473.4
1474.1
1474.8
1475.5
1476.2
1476.9
1477.6
1478.2
1478.9
1479.5
1480.2
1480.9
1481.6
1482.3
1483
1483.7
1484.3
1485
1485.7
1486.3
1487
1487.7
1488.1
1488.4
1489.1
1489.8
1490.4
1491.1
1491.8
1492.5
1493.2
1493.9
1494.6
1495.2
1495.9
1496.6
1497.2
1497.9
1498.5
1499.3
1499.6
1500
1500.3
1500.7
1501.3
1502
1502.6
1503.3
1504
1504.6
1505.3
1505.5
1506
1506.7
1507.4
1507.5
1508
1508.7
1509.3
1510
1510.7
1511.4
1512.1
1512.8
1513.4
1514.1
1514.8
1515.4
1516.1
1516.8
1517.5
1518.2
1518.9
1519.5
1520.2
1520.8
1521.5
1522.2
1522.9
1523.5
1524.2
1524.9
1525.6
1526.2
1526.9
1527.5
1528.2
1528.9
1529.6
1530.3
1531
1531.7
1532.3
1533
1533.7
1534.3
1535
1535.7
1536.4
1537.1
1537.8
1538.4
1539.1
1539.8
1540.5
1541.2
1541.9
1542.6
1543.2
1543.9
1544.6
1545.2
1545.9
1546.6
1547.3
1548
1548.7
1549.3
1550
1550.6
1551.3
1552
1552.7
1553.3
1554
1554.7
1555.4
1556.1
1556.7
1557.4
1558
1558.7
1559.4
1560.1
1560.8
1561.3
1561.5
1562.1
1562.8
1563.4
1564.1
1564.8
1565.5
1566.2
1566.5
1566.9
1567.5
1568.2
1568.8
1569.5
1570.2
1570.9
1571.6
1572.3
1572.9
1573.6
1574.3
1575
1575.6
1576.3
1577
1577.7
1578.5
1579.1
1579.6
1580.5
1581.2
1581.8
1582.5
1583.2
1584
1584.7
1585.4
1586
1586.7
1587.4
1588
1588.8
1589.5
1590.2
1590.9
1591.5
1592.2
1592.9
1593.5
1594.2
1594.9
1595.6
1596.4
1597.1
1597.7
1598.4
1599.1
1599.7
1600.4
1601.2
1601.9
1602.6
1603.3
1604
1604.6
1605.3
1606
1606.7
1607.4
1608.1
1608.8
1609.5
1610.2
1610.6
1611.5
1612.2
1612.9
1613.6
1614.4
1615.1
1615.7
1616.4
1617.1
1617.8
1618.5
1618.8
1619.2
1619.9
1620.6
1621.3
1621.7
1621.9
1622.6
1623.3
1624
1624.7
1625.4
1626.1
1626.8
1627.5
1628.1
1628.8
1629.4
1630.1
1630.8
1631.5
1632.2
1632.9
1633.6
1634.3
1634.9
1635.6
1636.3
1637
1637.7
1638.4
1639.1
1639.8
1640.5
1641.1
1641.8
1642.5
1643.2
1643.9
1644.6
1645.3
1645.8
1646
1646.6
1647.3
1648
1648.7
1649.4
1650.1
1650.8
1651.5
1652.1
1652.8
1652.9
1654
1654.1
1654.8
1655.5
1656.2
1656.9
1657.6
1658.2
1658.9
1659.6
1660.3
1661
1661.4
1661.7
1662.4
1663.1
1663.7
1664.4
1665
1665.7
1666.4
1667.1
1667.8
1668.5
1669.2
1669.8
1670.5
1671.2
1671.9
1672.5
1673.2
1673.9
1674.6
1675.3
1676
1676.6
1677.3
1678
1678.7
1679.4
1680
1680.7
1681
1681.4
1682.1
1682.8
1683.4
1683.6
1684.1
1684.8
1685.5
1686.2
1686.9
1687.5
1688.2
1688.8
1689.5
1690.1
1690.8
1691.3
1692.2
1692.9
1693.6
1694.2
1694.8
1695.5
1696.2
1696.8
1697.5
1698.2
1698.9
1699.5
1699.8
1700.2
1700.8
1701.5
1701.8
1702.1
1702.8
1703.5
1704.2
1704.9
1705.5
1706.2
1706.8
1707.5
1708.2
1708.8
1709.2
1709.5
1710.2
1710.9
1711.5
1712.2
1712.8
1713.5
1714.1
1714.4
1714.8
1715.3
1716.2
1716.8
1717.5
1718.1
1718.7
1719.3
1719.4
1719.8
1720.7
1721.4
1721.8
1722.1
1722.8
1723.5
1724.1
1724.8
1725.4
1726.1
1726.8
1727.5
1728.2
1728.9
1729.6
1730.3
1730.9
1731.6
1732.3
1733
1733.7
1734.4
1735.1
1735.8
1736.4
1737.1
1737.8
1738.5
1739.2
1739.9
1740.6
1741.3
1741.9
1742.6
1743.3
1744
1744.7
1745.4
1745.7
1746.1
1746.8
1747.5
1747.8
1748.2
1748.8
1749.5
1750.2
1750.9
1751.6
1752.3
1753
1753.7
1754.4
1755
1755.7
1756.4
1757.1
1757.9
1758.6
1759.3
1760
1760.6
1761
1761.3
1762
1762.2
1762.7
1763.4
1764.1
1764.9
1765.5
1766.2
1766.9
1767.6
1768.3
1769
1769.7
1770.5
1771.1
1771.8
1772.5
1773.2
1773.9
1774.6
1775.3
1776
1776.7
1777.4
1778.1
1778.8
1779.5
1780.2
1780.9
1781.6
1782.3
1783
1783.7
1784.4
1785
1785.7
1786.4
1787.2
1787.9
1788.6
1789.3
1790
1790.7
1791.4
1792.1
1792.8
1793.5
1794.3
1795
1795.7
1796.4
1797
1797.8
1798.5
1799.2
1799.9
1800.6
1801.3
1802
1802.7
1803.4
1804.1
1804.8
