0.23056
0.63611
0.975
2.0111
3.0167
4.0222
5.0806
6.1028
7.1417
8.1056
8.9833
9.9194
10.919
11.892
12.811
13.742
14.597
15.439
16.286
17.15
17.978
18.769
19.569
20.378
21.153
21.936
22.731
23.542
24.328
25.069
25.753
26.436
27.136
27.883
28.653
29.397
30.236
31.233
32.189
33.153
34.131
35.136
36.114
36.997
37.825
38.206
38.661
39.519
40.456
41.397
42.308
43.225
44.167
45.125
46.125
47.217
48.206
49.169
50.072
50.925
51.789
52.678
53.542
54.386
55.192
55.933
56.683
57.472
58.303
59.167
60.103
61.133
62.122
62.483
63.025
63.933
64.9
65.886
66.8
67.672
68.564
69.472
70.383
71.381
72.411
73.428
74.408
75.383
76.308
77.25
78.225
79.167
80.003
80.847
81.689
82.533
83.4
84.261
85.083
85.889
86.639
87.394
88.128
88.928
89.822
90.139
90.742
91.297
91.792
92.989
93.481
93.944
95.292
96.294
96.828
98
98.522
98.994
100.28
100.81
102.1
102.64
103.12
104.39
105.31
105.81
106.3
107.65
108.16
108.66
109.97
110.84
111.35
111.82
113.09
113.98
114.51
114.99
116.21
116.67
117.89
118.4
118.88
120.21
120.72
121.96
122.46
123.63
124.14
124.63
125.97
126.52
127.71
128.21
128.68
129.94
130.43
131.7
132.24
132.72
133.96
134.48
134.91
136.14
136.64
137.15
138.43
138.95
140.07
140.57
141.04
142.26
142.78
144.03
144.55
145.03
146.28
146.77
147.99
148.83
149.65
150.21
150.7
151.99
152.47
152.95
154.33
154.85
156.19
156.6
157.08
157.89
158.82
159.71
160.23
160.76
162.07
162.59
163.87
164.36
164.81
165.54
166.03
166.28
166.54
167.87
168.43
169.67
170.21
170.84
171.47
172.5
173.58
174.51
175.36
176.08
176.39
176.73
176.92
177.4
177.88
178.75
179.36
179.91
181.35
182.51
183.62
184.68
185.79
186.95
188.06
189.15
190.18
191.3
192.42
193.43
193.77
194.34
195.22
196.16
197.22
198.35
199.49
200.54
201.55
202.63
203.71
204.81
205.8
206.69
207.62
208.72
209.76
210.85
211.91
212.97
213.96
215
216.03
217.1
218.06
219.04
220.17
221.25
222.31
223.26
224.13
225.05
226.08
227.23
228.37
229.4
230.4
231.41
232.4
233.43
234.54
235.66
236.7
237.78
238.92
239.94
240.99
242.03
243.07
244.13
245.27
246.42
247.49
248.42
249.28
250.16
251.11
252.16
253.15
254.04
254.87
255.68
256.51
257.38
258.38
259.43
260.31
261.21
262.15
263.1
264
264.94
265.88
266.4
267.6
268.51
269.47
270.36
271.17
271.97
272.82
273.65
274.5
275.37
276.31
277.24
278.11
279.01
279.97
280.97
281.99
283.01
283.97
284.89
285.86
286.95
287.96
289
290.02
291.05
292.01
293.06
294.16
295.24
296.2
297.16
298.24
299.38
300.43
301.49
302.56
303.58
304.63
305.73
306.76
307.74
308.71
309.64
310.65
311.74
312.82
313.76
314.74
315.76
316.83
317.79
318.72
319.67
320.63
321.57
322.56
323.7
324.75
325.77
326.81
327.75
328.79
329.89
330.94
331.9
332.92
333.95
335.01
336.13
337.23
338.25
339.22
340.19
341.14
342.05
343.01
344.12
345.13
346.24
347.31
348.38
349.41
350.32
351.26
352.26
353.24
354.34
355.43
356.42
357.44
358.47
359.58
360.61
361.62
362.61
363.53
364.54
365.64
366.7
367.73
368.67
369.66
370.74
371.76
372.8
373.8
374.73
375.7
376.71
377.72
378.76
379.79
380.72
381.68
382.66
383.61
384.61
385.61
386.59
387.58
388.54
389.55
390.48
391.45
392.44
393.44
394.37
395.38
396.43
397.42
398.32
399.19
400.1
400.99
401.89
402.75
403.65
404.69
405.74
406.81
407.84
408.87
409.83
410.76
411.64
412.56
413.58
414.73
415.8
416.76
417.74
418.83
419.94
421.04
422.03
423.02
424.07
425.15
426.2
426.57
427.18
428.02
428.84
429.26
429.68
430.57
431.44
432.32
433.17
433.96
434.72
435.48
436.26
437.06
437.82
438.6
439.36
440.09
440.81
441.49
442.23
443.01
443.85
444.78
445.78
446.26
447.43
448.38
449.31
450.21
451.18
452.16
452.65
453.55
453.8
454.74
455.74
456.71
457.19
457.6
458.5
459.45
460.43
461.39
462.27
463.13
463.97
464.89
465.82
466.78
467.78
468.81
469.75
470.66
471.55
472.48
473.52
474.51
475.44
476.34
477.31
478.33
479.34
480.3
480.85
481.27
482.22
483.11
483.98
484.88
485.8
486.63
487.47
488.29
489.08
489.95
490.83
491.71
492.58
493.38
494.13
494.96
495.82
496.76
497.71
498.62
499.47
500.34
501.23
502.17
503.17
504.17
505.09
505.96
506.84
507.73
508.62
509.05
509.54
510.49
511.44
512.31
513.2
514.14
515.15
516.13
517.08
518.04
518.95
519.86
520.86
521.81
522.8
523.75
524.64
525.55
526.43
527.32
528.2
529.11
529.96
530.85
531.81
532.82
533.84
534.86
535.84
536.76
537.68
538.64
539.6
540.57
541.54
542.45
543.34
544.34
545.34
546.35
547.36
548.33
549.26
550.19
551.14
552.12
553.15
554.12
555.01
555.94
556.93
557.93
558.93
559.86
560.72
561.58
562.44
563.27
564.12
564.97
565.78
566.59
567.4
568.27
569.21
570.26
571.29
572.25
573.22
574.17
575.19
576.28
577.31
578.28
579.25
580.25
581.25
582.26
583.25
584.18
585.12
586.08
587.09
588.09
589.11
590.06
590.99
591.99
592.98
593.42
593.97
594.96
595.9
596.71
597.59
598.55
599.56
600.57
601.48
602.36
603.22
604.13
605.03
605.93
606.84
607.76
608.67
609.58
610.52
611.51
612.55
613.55
614.51
615.55
616.64
617.76
618.81
619.83
620.83
621.79
622.79
623.79
624.72
625.64
626.52
627.38
628.27
629.16
630.06
630.92
631.72
632.55
633.37
634.27
635.21
636.13
636.62
637.03
637.97
638.85
639.69
640.54
641.46
642.41
643.36
644.29
645.13
646.01
646.97
647.94
648.88
649.78
650.67
651.58
652.48
653.41
653.71
654.38
655.37
656.3
657.21
658.08
658.99
659.95
660.92
661.79
662.68
663.6
664.6
665.6
666.56
667.44
668.26
669.06
669.92
670.87
671.85
672.87
673.88
674.89
675.84
676.84
677.84
678.77
679.72
680.64
681.58
682.56
683.54
684.48
685.41
686.24
687.05
687.88
688.75
689.6
690.45
691.28
692.11
692.94
693.73
694.56
695.42
696.26
697.11
697.88
698.66
699.48
700.33
701.32
702.3
703.23
704.09
704.89
705.73
706.55
707.41
708.32
709.19
710.04
710.89
711.4
712.52
713.36
714.2
715.01
715.26
715.51
716.03
716.55
717.05
718.15
718.65
719.23
719.8
720.61
721.11
722.2
722.69
723.88
724.69
725.46
725.8
726.33
726.85
727.9
728.65
729.38
729.86
730.33
731.54
732.35
732.85
733.92
734.4
735.44
736.23
737.04
737.56
738.7
739.48
739.96
740.44
741.5
742
743.03
743.78
744.29
744.81
745.85
746.09
746.33
747.23
747.75
748.68
749.22
750.12
750.63
751.52
752
752.85
753.31
754.21
754.69
755.68
756.17
757.16
757.64
758.56
759.01
759.98
760.46
761.48
761.98
763.01
763.47
764.42
764.89
765.8
766.32
767.23
767.72
768.66
769.16
770.07
770.53
771.44
771.9
772.87
773.37
774.36
774.84
775.75
776.19
777.06
777.5
778.41
778.89
779.8
780.28
781.18
781.64
782.52
782.96
783.9
784.34
785.32
785.79
786.74
787.23
788.09
788.53
789.4
789.87
790.81
791.28
792.22
792.68
793.59
794.02
794.91
795.36
796.29
796.75
797.73
798.21
799.22
799.67
800.64
801.08
802.07
802.54
803.6
804.1
805.08
805.54
806.44
806.91
807.83
808.31
809.25
809.75
810.67
811.15
812.04
812.51
813.43
813.89
814.9
815.39
816.45
816.97
817.9
818.39
819.3
819.81
820.74
821.29
822.24
822.73
823.71
824.17
825.15
825.62
826.7
827.19
828.35
828.85
829.98
830.45
831.57
832.05
833.32
833.83
835.02
835.52
836.7
837.19
838.41
838.91
840.12
840.64
841.76
842.25
843.26
843.76
844.88
845.4
846.62
847.13
848.27
848.75
849.92
850.45
851.66
852.19
853.3
853.83
854.86
855.36
856.51
857.03
858.23
858.77
859.91
860.39
861.48
862.02
863.11
863.66
864.76
865.27
866.31
866.8
867.26
868.44
868.93
870.04
870.55
871.06
872.21
872.64
873.74
874.23
875.32
875.88
876.92
877.44
878.39
878.87
879.86
880.37
881.43
881.92
882.98
883.47
884.54
885.02
886.1
886.6
887.73
888.28
889.35
889.84
890.32
890.8
891.52
892.06
892.57
893.77
894.03
894.29
895.36
895.87
896.9
897.4
898.53
899.09
899.64
900.18
900.97
901.71
902.44
902.94
903.41
904.51
905.31
906.09
906.84
907.09
907.34
908.41
908.89
909.94
910.55
911.05
911.55
912.33
912.84
913.31
914.47
914.97
916.02
916.6
917.69
918.47
919.29
919.54
920.11
920.97
921.46
922.7
923.65
924.55
925.46
926.43
927.32
928.24
929.21
930.15
931.05
931.93
932.77
933.63
934.51
935.42
936.3
937.11
937.93
938.74
939.54
940.42
941.32
942.18
943.07
943.94
944.78
945.66
946.61
947.54
948.49
949.44
950.31
951.19
952.15
953.08
954.02
954.92
955.8
956.68
957.51
958.39
959.33
960.23
961.14
961.51
962.01
962.82
963.61
964.36
965.16
965.98
966.54
967
968.09
968.34
968.6
969.58
970.13
971.08
971.59
972.57
973.12
973.58
974.05
974.73
975.23
975.68
976.81
977.36
978.45
979.21
979.94
980.43
980.85
982.07
982.62
983.77
984.31
985.41
986.15
986.87
987.6
988.36
989.21
990.07
990.59
991.7
992.5
993.26
994.1
995.04
995.58
996.75
997.6
998.38
998.9
999.36
1000.6
1001.1
1002.3
1003.1
1003.9
1004.3
1004.8
1006
1006.5
1007.7
1008.5
1009.3
1010.1
1010.9
1011.7
1012.5
1013.3
1014.1
1014.9
1015.8
1016.6
1017.4
1018.1
1018.9
1019.8
1020.7
1021.5
1022.3
1023.1
1023.9
1024.7
1025.6
1026.4
1027.2
1028
1028.9
1029.7
1030.6
1031.5
1032.4
1033.3
1034.2
1035
1035.9
1036.9
1037.9
1038.7
1039.6
1040.3
1041.2
1041.6
1042
1043
1043.9
1044.9
1045.9
1046.8
1047.7
1048.8
1049.4
1050.7
1051.2
1052.4
1053.2
1054
1055
1055.5
1056
1057.3
1057.8
1059
1059.5
1060
1061.3
1061.5
1061.8
1063.1
1063.6
1064.8
1065.3
1066.6
1067.1
1068.5
1069
1070.2
1070.7
1072
1072.5
1073.9
1074.4
1075.8
1076.3
1077.5
1078.1
1079.4
1080
1080.6
1081.3
1082.2
1083.1
1083.6
1084.1
1085.5
1086
1087.4
1087.9
1088.4
1089.6
1090.1
1091.4
1092
1093.3
1093.7
1094.2
1094.7
1095.9
1096.9
1097.4
1098
1099.2
1099.5
1099.8
1101
1101.5
1102.7
1103.3
1103.9
1104.6
1105.5
1106.1
1106.5
1107.8
1108.3
1109.7
1110.7
1111.7
1112.7
1113.2
1114.5
1115.6
1116.6
1117.7
1118.2
1119.5
1120.4
1121
1121.5
1122.9
1123.2
1123.4
1124.7
1125.2
1126.4
1127
1127.7
1128.3
1129.3
1129.8
1130.3
1131.5
1132
1133.3
1134.2
1134.8
1135.3
1136.5
1136.7
1137
1138.2
1138.8
1140
1140.6
1141.8
1142.3
1143.5
1144
1144.6
1145.2
1145.7
1147
1147.5
1148.7
1149.2
1150.5
1151
1152.4
1152.9
1154.1
1154.6
1155.9
1156.4
1157.7
1158.3
1159.5
1160
1161.3
1161.8
1163.1
1163.6
1164.9
1165.4
1166.7
1167.1
1168.4
1168.9
1170.3
1170.8
1172
1172.5
1173.7
1174.2
1175.5
1176.1
1177.3
1177.9
1179.1
1179.6
1180.9
1181.5
1182.8
1183.3
1184.5
1185
1186.2
1186.8
1187.4
1188
1189
1189.9
1190.5
1191.7
1192.6
1193.6
1194.5
1195.1
1196.3
1197.3
1198.3
1199.2
1200.3
1201.2
1202.2
1203.2
1203.8
1205.1
1206.2
1207.2
1208.2
1209.3
1209.8
1211.1
1212.2
1212.8
1214
1215.1
1215.3
1215.6
1216.9
1217.5
1218.8
1219.4
1220.6
1221.1
1221.6
1222.9
1223.5
1224.8
1225.3
1226.6
1227.1
1228.3
1228.9
1230.2
1230.8
1232
1232.5
1233.8
1234.3
1235
1235.6
1236.6
1236.9
1237.2
1238.4
1238.9
1240.1
1240.7
1241.9
1242.5
1243.6
1244.1
1244.7
1245.3
1246.2
1246.5
1246.7
1248
1248.6
1249.9
1250.4
1251.6
1252.1
1252.8
1253.4
1254.4
1255
1256.2
1257.2
1257.4
1257.7
1259.1
1259.6
1261
1261.5
1262.8
1263.3
1264.6
1265.2
1266.5
1267.1
1268.4
1268.9
1270.2
1270.7
1272.1
1272.6
1273.9
1274.4
1275
1275.6
1276.5
1277.5
1278
1279.4
1280.4
1281.3
1282.3
1283.5
1284.5
1285.6
1286.7
1287.8
1288.8
1289.9
1291
1292
1293.1
1294.1
1295.3
1296.4
1297.5
1298.5
1299.6
1300.7
1301.7
1302.8
1303.8
1304.9
1305.9
1307
1308.1
1309.1
1310.1
1311.2
1312.2
1313.3
1314.3
1315.4
1316.4
1317.3
1318.3
1319.4
1320.6
1321.7
1322.8
1323.9
1325
1326.2
1327.3
1328.3
1329.3
1330.4
1331.5
1332.6
1333.8
1334.8
1335.8
1336.9
1338
1339.2
1340.2
1341.3
1342.4
1343.5
1344.5
1345.5
1346.5
1347.5
1348.5
1349.5
1350.6
1351.6
1352.6
1353.6
1354.5
1355.7
1356.7
1357.7
1358.8
1359.8
1360.8
1361.9
1362.9
1363.9
1364.9
1365.9
1367
1368
1369.1
1370.1
1371.1
1372
1373
1374.1
1375.2
1376.1
1377.1
1378.2
1379.3
1380.4
1381.4
1382.4
1383.4
1384.3
1385.3
1386.3
1387.3
1388.3
1389.3
1390.3
1391.4
1392.4
1393.5
1394.5
1395.4
1396.4
1397.6
1398.7
1399.8
1400.8
1401.9
1403.1
1404.2
1405.3
1406.3
1407.4
1408.4
1409.5
1410.7
1411.8
1412.9
1413.9
1415
1416.2
1417.3
1418.3
1419.3
1420.4
1421
1421.5
1422.6
1423.5
1424.4
1425.3
1426.1
1427
1427.9
1428.7
1429.5
1430.4
1431.2
1432
1432.9
1433.7
1434.6
1435.5
1436
1437.2
1438.1
1438.6
1439.9
1440.9
1441.1
1441.4
1442.6
1443.1
1444.3
1444.9
1446.1
1446.6
1447.1
1448.4
1448.8
1450.1
1450.6
1451.9
1452.5
1453.7
1454.2
1455.4
1455.9
1457.2
1457.8
1459
1459.5
1460.8
1461.3
1462.5
1463.1
1464.4
1464.9
1466.1
1466.6
1467.7
1468.2
1469.5
1470
1471.3
1471.8
1473
1473.5
1474.8
1475.3
1476.6
1477.2
1478.4
1478.9
1480
1480.5
1481.8
1482.3
1483.5
1484
1485.1
1485.6
1486.8
1487.3
1488.6
1489.1
1490.3
1490.8
1492.1
1492.7
1494
1494.5
1495.7
1496.2
1497.4
1497.9
1498.6
1499.2
1500.1
1500.6
1501.2
1502.4
1502.9
1504.1
1505
1505.6
1506.1
1507.4
1507.6
1507.9
1509.1
1509.6
1510.8
1511.4
1512.7
1513.3
1514.4
1514.9
1516.1
1516.6
1517.1
1518.4
1518.9
1520.2
1520.7
1521.8
1522.3
1523.6
1524.2
1525.4
1525.9
1527
1527.5
1528.8
1529.3
1530.5
1531.1
1532.2
1532.7
1533.9
1534.4
1535.7
1536.2
1537.5
1538
1539.2
1539.7
1541
1541.5
1542.8
1543.4
1544.5
1545
1546.3
1546.9
1548.2
1548.7
1549.9
1550.5
1551.6
1552.2
1553.5
1554
1555.3
1555.8
1556.4
1557.6
1558.1
1558.7
1559.4
1560
1560.4
1561.8
1562.3
1563.6
1564.1
1564.6
1565.3
1566
1567.1
1568
1568.6
1569
1570.4
1571.5
1572.1
1572.6
1573.9
1574.4
1574.9
1576.3
1577.4
1578.3
1579.3
1579.9
1580.4
1581.6
1582.7
1583.9
1585
1586
1587.2
1588.3
1589.2
1590.3
1591.4
1592.4
1593.5
1594.6
1595.8
1596.9
1598.1
1599.3
1600.5
1601.7
1602.9
1604
1605.2
1606.2
1607.4
1608.6
1609.8
1610.2
1610.8
1611.7
1612.8
1613.8
1614.7
1615.3
1615.8
1617
1618
1619
1620
1620.5
1621
1622.4
1623.5
1624.6
1625.2
1625.7
1627.2
1628.3
1628.8
1629.3
1630.8
1632
1632.5
1633
1634.4
1635.6
1636.2
1636.7
1638.2
1638.7
1639.2
1640.6
1641.7
1642.3
1642.8
1644.2
1645.4
1645.9
1646.4
1647.8
1649
1649.6
1650.1
1651.5
1652.7
1653.2
1653.7
1655.1
1656.4
1656.9
1657.4
1658.8
1659.3
1659.8
1661.3
1662.6
1663.1
1663.6
1665
1665.5
1665.9
1667.4
1668.6
1669.2
1669.7
1671
1672.2
1672.7
1673.3
1674.7
1675.8
1676.4
1676.8
1678.2
1679.4
1679.9
1680.4
1681.8
1682.9
1683.4
1683.9
1685.3
1686.5
1687
1687.6
1688.9
1689.4
1689.9
1691.3
1691.8
1692.3
1693.6
1694.2
1695.3
1695.9
1696.3
1697.2
1697.7
1698.2
1698.7
1700
1700.5
1701.8
1702.3
1702.9
1704.2
1704.5
1704.7
1706
1707
1707.5
1708.8
1709.8
1710.4
1711.7
1712.7
1713.2
1713.7
1715.1
1716.3
1716.9
1717.5
1718.2
1718.8
1719.3
1720.7
1721.9
1722.5
1723
1724.4
1725.4
1725.9
1726.5
1728
1729.1
1730.1
1730.7
1731.2
1732.6
1733.7
1734.3
1734.8
1736.2
1737.1
1737.7
1738.9
1739.5
1740.8
1741.6
1742.5
1743.4
1744
1744.5
1745.8
1746.4
1747.5
1748.3
1749.1
1749.9
1750.7
1751.6
1752.2
1752.6
1753.9
1754.4
1755.5
1756.4
1756.8
1757
1757.5
1758.7
1759.2
1760.3
1760.8
1761.2
1762.4
1762.7
1762.9
1764.1
1764.6
1765.7
1766.2
1767.3
1767.8
1769
1769.5
1770.8
1771.3
1772.4
1772.9
1774.1
1774.6
1775.8
1776.4
1777.5
1778
1778.5
1779.7
1780.2
1780.8
1781.4
1782.3
1782.8
1783.3
1784.4
1784.7
1784.9
1786
1786.5
1787.7
1788.2
1788.8
1789.3
1790
1790.6
1791
1792.2
1792.7
1793.9
1794.4
1794.9
1795.6
1796.2
1797
1797.8
1798.8
1799.4
1800.7
1801.7
1802.7
1803.2
1803.7
1805
