0.13056
0.26389
0.75556
1.5806
2.4556
3.35
4.2194
5.0556
5.8833
6.7056
7.5583
8.425
9.2972
10.169
11.031
11.853
12.667
13.5
14.361
15.25
16.122
16.969
17.797
18.644
19.481
20.328
21.203
22.072
22.928
23.753
24.569
25.394
26.283
27.169
28.028
28.883
29.706
30.539
31.375
32.233
33.106
34
34.85
35.664
36.486
37.308
38.186
39.078
39.953
40.8
41.642
42.467
43.286
44.136
45.014
45.894
46.761
47.578
48.392
49.242
50.108
50.983
51.856
52.708
53.544
54.378
55.2
56.036
56.928
57.814
58.667
59.492
60.319
61.15
62.022
62.897
63.767
64.631
65.475
66.297
67.114
67.961
68.831
69.725
70.586
71.417
72.236
73.094
73.947
74.806
75.681
76.536
77.372
78.2
79.028
79.864
80.764
81.642
82.494
83.333
84.153
84.992
85.853
86.719
87.583
88.467
89.197
90.006
90.822
91.667
92.542
93.436
94.303
95.136
95.964
96.806
97.65
98.506
99.383
100.25
101.11
101.92
102.74
103.58
104.48
105.36
106.22
107.07
107.88
108.71
109.55
110.41
111.29
112.18
113.03
113.84
114.66
115.49
116.38
117.26
118.13
118.97
119.82
120.64
121.46
122.32
123.2
124.08
124.93
125.76
126.58
127.44
128.31
129.17
130.03
130.88
131.71
132.54
133.37
134.22
135.13
136
136.83
137.66
138.49
139.33
140.2
141.07
141.94
142.81
143.63
144.45
145.27
146.13
147.02
147.91
148.76
149.57
150.42
151.25
152.11
152.97
153.85
154.71
155.55
156.36
157.18
158.05
158.94
159.82
160.67
161.5
162.32
163.16
164.01
164.88
165.76
166.63
167.46
168.27
169.1
169.95
170.84
171.72
172.58
173.41
174.25
175.08
175.92
176.79
177.66
178.53
179.37
180.19
181.01
181.88
182.77
183.63
184.49
185.32
186.15
186.99
187.83
188.69
189.58
190.45
191.28
192.09
192.93
193.79
194.68
195.55
196.4
197.24
198.07
198.9
199.74
200.61
201.49
202.37
203.2
204.02
204.85
205.72
206.59
207.46
208.33
209.16
209.99
210.81
211.64
212.52
213.43
214.29
215.13
215.95
216.76
217.62
218.49
219.35
220.22
221.09
221.91
222.71
223.55
224.42
225.31
226.19
227.04
227.86
228.7
229.54
230.39
231.27
232.13
232.98
233.82
234.64
235.46
236.36
237.24
238.1
238.94
239.76
240.59
241.44
242.3
243.16
244.06
244.9
245.71
246.53
247.37
248.24
249.14
250.01
250.85
251.68
252.51
253.34
254.19
255.07
255.95
256.81
257.64
258.45
259.3
259.98
260.92
261.78
262.64
263.47
264.3
265.12
265.96
266.84
267.74
268.6
269.42
270.24
271.07
271.93
272.81
273.68
274.54
275.39
276.21
277.02
277.87
278.74
279.63
280.5
281.34
282.15
283.01
283.85
284.72
285.59
286.45
287.29
288.13
288.95
289.78
290.68
291.56
292.43
293.25
294.07
294.91
295.77
296.63
297.5
298.37
299.22
300.04
300.85
301.71
302.58
303.48
304.34
305.17
306
306.84
307.68
308.54
309.42
310.29
311.13
311.96
312.78
313.62
314.52
315.41
316.26
317.1
317.91
318.75
319.59
320.46
321.33
322.23
323.07
323.88
324.7
325.54
326.42
327.31
328.17
329.01
329.86
330.68
331.5
332.36
333.24
334.12
334.98
335.8
336.62
337.47
338.34
339.21
340.08
340.93
341.75
342.59
343.42
344.27
345.17
346.04
346.89
347.71
348.53
349.37
350.25
351.13
351.98
352.84
353.67
354.49
355.31
356.17
357.06
357.95
358.8
359.62
360.45
361.29
362.15
363.02
363.89
364.75
365.59
366.41
367.22
368.09
368.99
369.87
370.71
371.54
372.37
373.21
374.06
374.92
375.81
376.68
377.51
378.32
379.15
380
380.9
381.77
382.62
383.45
384.29
385.12
385.96
386.83
387.7
388.57
389.4
390.23
391.05
391.93
392.81
393.67
394.53
395.36
396.19
397.03
397.88
398.74
399.63
400.5
401.33
402.14
402.97
403.83
404.72
405.59
406.44
407.28
408.11
408.94
409.77
410.65
411.53
412.41
413.24
414.06
414.89
415.76
416.63
417.5
418.37
419.2
420.03
420.85
421.69
422.56
423.47
424.34
425.17
425.99
426.81
427.67
428.54
429.41
430.27
431.14
431.96
432.77
433.61
434.48
435.37
436.24
437.08
437.9
438.75
439.59
440.44
441.32
442.18
443.03
443.86
444.69
445.52
446.41
447.29
448.15
449
449.81
450.64
451.5
452.36
453.22
454.12
454.96
455.77
456.59
457.43
458.31
459.2
460.06
460.9
461.74
462.56
463.38
464.24
465.13
466
466.86
467.69
468.5
469.36
470.23
471.1
471.96
472.81
473.64
474.48
475.31
476.15
477.05
477.93
478.78
479.6
480.43
481.26
482.14
483.01
483.87
484.74
485.57
486.39
487.21
488.07
488.95
489.84
490.69
491.51
492.34
493.18
494.04
494.91
495.79
496.63
497.47
498.29
499.12
499.97
500.88
501.76
502.6
503.43
504.25
505.09
505.82
506.74
507.62
508.49
509.32
510.13
510.96
511.81
512.69
513.58
514.45
515.27
516.11
516.93
517.77
518.64
519.52
520.39
521.24
522.06
522.87
523.74
524.63
525.5
526.36
527.2
528.02
528.86
529.69
530.55
531.44
532.32
533.16
533.97
534.81
535.65
536.54
537.41
538.27
539.11
539.95
540.78
541.61
542.48
543.35
544.23
545.07
545.89
546.72
547.58
548.45
549.32
550.19
551.02
551.85
552.67
553.51
554.38
555.28
556.15
556.99
557.81
558.63
559.48
560.35
561.22
562.09
562.96
563.78
564.59
565.42
566.28
567.18
568.05
568.9
569.72
570.56
571.4
572.25
573.12
573.99
574.85
575.67
576.49
577.32
578.21
579.1
579.96
580.81
581.63
582.46
583.3
584.16
585.02
585.92
586.77
587.59
588.41
589.24
590.12
591.01
591.88
592.5
593.41
594.24
595.06
595.9
596.78
597.66
598.53
599.36
600.17
601.01
601.88
602.75
603.62
604.48
605.31
606.14
606.96
607.8
608.68
609.58
610.45
611.27
612.09
612.92
613.78
614.66
615.31
616.23
617.09
617.9
618.72
619.55
620.42
621.31
622.19
623.04
623.85
624.69
625.53
626.39
627.26
628.13
628.98
629.82
630.63
631.46
632.34
633.24
634.11
634.94
635.77
636.6
637.45
638.31
639.18
640.05
640.92
641.74
642.56
643.39
644.26
645.16
646.03
646.87
647.7
648.54
649.38
650.22
651.1
651.97
652.83
653.65
654.47
655.3
656.19
657.08
657.94
658.79
659.61
660.44
661.27
662.13
663
663.9
664.75
665.57
666.39
667.22
668.1
668.98
669.85
670.7
671.54
672.37
673.18
674.03
674.91
675.8
676.66
677.49
678.3
679.16
680.01
680.88
681.75
682.6
683.44
684.27
685.09
685.94
686.84
687.72
688.57
689.4
690.22
691.06
691.92
692.79
693.66
694.54
695.37
696.18
697
697.85
698.74
699.63
700.49
701.31
702.15
702.98
703.83
704.69
705.57
706.44
707.28
708.09
708.91
709.77
710.66
711.54
712.39
713.23
714.05
714.89
715.74
716.59
717.48
718.36
719.19
720.01
720.84
721.68
722.58
723.45
724.31
725.15
725.99
726.82
727.64
728.51
729.38
730.26
731.1
731.92
732.74
733.61
734.49
735.35
736.22
737.06
737.89
738.72
739.56
740.42
741.31
742.19
743.03
743.85
744.67
745.52
746.41
747.29
748.14
748.99
749.83
750.64
751.47
752.34
753.23
754.12
754.96
755.58
756.35
757.2
758.06
758.92
759.8
760.65
761.49
762.31
763.13
763.99
764.89
765.77
766.62
767.45
768.27
769.11
769.96
770.83
771.71
772.59
773.41
774.23
775.05
775.9
776.79
777.67
778.53
779.36
780.2
781.03
781.87
782.74
783.61
784.48
785.21
785.96
786.77
787.64
788.52
789.39
790.25
791.09
791.92
792.75
793.59
794.44
795.34
796.21
797.05
797.87
798.69
799.54
800.38
801.18
802.04
802.89
803.73
804.55
805.37
806.24
807.12
808.01
808.85
809.67
810.5
811.35
812.22
813.09
813.96
814.81
815.64
816.46
817.28
818.14
819.05
819.92
820.76
821.59
822.41
823.07
823.87
824.74
825.61
826.48
827.32
828.13
828.96
829.8
830.69
831.59
832.45
833.27
834.11
834.94
835.79
836.65
837.53
838.4
839.24
840.05
840.87
841.73
842.62
843.5
844.36
845.2
845.85
846.61
847.46
848.32
849.19
850.09
850.93
851.75
852.57
853.4
854.29
855.18
856.05
856.89
857.73
858.55
859.38
860.24
861.11
862
862.86
863.68
864.49
865.35
866.23
867.1
867.96
868.81
869.64
870.48
871.3
872.14
873.04
873.92
874.77
875.6
876.42
877.26
878.14
879.01
879.87
880.74
881.38
882.14
882.96
883.8
884.67
885.57
886.43
887.27
888.09
888.94
889.79
890.65
891.52
892.38
893.22
894.04
894.86
895.71
896.61
897.49
898.34
899.18
899.99
900.83
901.68
902.55
903.42
904.31
905.14
905.95
906.61
907.38
908.26
909.16
910.03
910.86
911.7
912.53
913.36
914.21
915.09
915.97
916.83
917.65
918.46
919.31
920.19
920.98
921.77
922.63
923.45
924.28
925.11
925.95
926.83
927.73
928.59
929.41
930.23
930.87
931.66
932.56
933.43
934.29
935.14
935.96
936.78
937.62
938.49
939.38
940.26
941.1
941.91
942.75
943.6
944.47
945.34
946.21
947.05
947.88
948.7
949.53
950.41
951.3
952.17
953.01
953.84
954.66
955.51
956.38
957.24
958.12
958.98
959.81
960.61
961.45
962.31
963.21
964.09
964.93
965.75
966.6
967.44
968.29
969.17
970.03
970.89
971.72
972.42
973.18
974.07
974.96
975.82
976.67
977.51
978.33
979.17
980.02
980.89
981.78
982.64
983.46
984.28
985.11
985.97
986.87
987.75
988.59
989.44
990.12
990.88
991.72
992.59
993.47
994.36
995.18
995.99
996.83
997.69
998.58
999.43
1000.3
1001.1
1002
1002.8
1003.6
1004.5
1005.4
1006.3
1006.9
1007.6
1008.5
1009.1
1010
1010.9
1011.8
1012.6
1013.5
1014.3
1015.1
1016
1016.8
1017.7
1018.6
1019.4
1020.3
1021.1
1021.8
1022.6
1023.4
1024.3
1025.2
1026
1026.8
1027.6
1028.5
1029.4
1030.3
1031.1
1031.9
1032.8
1033.6
1034.5
1035.3
1036.2
1037.1
1037.9
1038.7
1039.5
1040.4
1041.3
1042.2
1043
1043.9
1044.7
1045.5
1046.4
1047.2
1048.1
1049
1049.7
1050.4
1051.2
1052.1
1053
1053.9
1054.7
1055.5
1056.4
1057.2
1058
1058.9
1059.8
1060.7
1061.5
1062.3
1063.2
1064
1064.9
1065.6
1066.4
1067.3
1068.1
1068.9
1069.7
1070.6
1071.5
1072.4
1073.2
1074
1074.9
1075.7
1076.6
1077.5
1078.3
1079.2
1080
1080.8
1081.7
1082.6
1083.3
1084.1
1084.9
1085.7
1086.6
1087.4
1088.3
1089.1
1090
1090.9
1091.7
1092.5
1093.4
1094.2
1095.1
1096
1096.8
1097.7
1098.5
1099.3
1100.2
1101.1
1101.9
1102.8
1103.6
1104.4
1105.3
1106.2
1107
1107.7
1108.5
1109.4
1110.2
1111
1111.9
1112.7
1113.6
1114.5
1115.3
1116.1
1117
1117.8
1118.7
1119.6
1120.4
1121.3
1122.1
1122.9
1123.8
1124.6
1125.4
1126.2
1127
1127.8
1128.7
1129.5
1130.4
1131.3
1132.1
1133
1133.8
1134.6
1135.5
1136.1
1136.9
1137.8
1138.6
1139.5
1140.3
1141.1
1142
1142.9
1143.7
1144.5
1145.2
1146
1146.8
1147.7
1148.6
1149.5
1150.3
1151.2
1152
1152.8
1153.7
1154.5
1155.4
1156.1
1156.9
1157.7
1158.5
1159.3
1160.2
1161.1
1162
1162.8
1163.6
1164.3
1165.1
1165.9
1166.8
1167.7
1168.6
1169.4
1170.2
1171
1171.9
1172.6
1173.4
1174.3
1175.1
1176
1176.8
1177.6
1178.5
1179.4
1180.3
1181.1
1181.9
1182.6
1183.4
1184.2
1185.1
1186
1186.8
1187.7
1188.5
1189.3
1190.2
1191.1
1191.9
1192.8
1193.6
1194.4
1195.3
1196.1
1197
1197.9
1198.6
1199.4
1200.2
1201
1201.9
1202.8
1203.7
1204.5
1205.3
1206.2
1206.8
1207.7
1208.6
1209.5
1210.3
1211.2
1212
1212.8
1213.7
1214.6
1215.4
1216.3
1217.1
1218
1218.8
1219.6
1220.5
1221.4
1222.3
1223.1
1223.9
1224.7
1225.6
1226.5
1227.3
1228.2
1229.1
1229.9
1230.7
1231.5
1232.4
1233.3
1234.2
1235
1235.8
1236.7
1237.5
1238.4
1239.3
1240.1
1241
1241.8
1241.8
1242.6
1243.5
1243.8
1244.3
1245.2
1246.1
1246.9
1247.8
1248.6
1249.4
1250.3
1251.2
1252
1252.9
1253.7
1254.5
1255.4
1256.2
1257.1
1258
1258.8
1259.7
1260.5
1261.3
1262.2
1263.1
1263.8
1264.7
1265.5
1266.3
1267.2
1268
1268.9
1269.8
1270.6
1271.5
1272.3
1273.1
1274
1274.9
1275.7
1276.6
1277.4
1278.2
1279.1
1279.9
1280.8
1281.7
1282.5
1283.4
1284.2
1285.1
1285.9
1286.8
1287.7
1288.5
1289.3
1290.2
1291
1291.9
1292.8
1293.6
1294.5
1295.3
1296.2
1297
1297.8
1298.7
1299.6
1300.5
1301.3
1302.1
1302.9
1303.8
1304.7
1305.5
1306.4
1307.3
1308.1
1308.9
1309.7
1310.6
1311.5
1312.4
1313.2
1314
1314.9
1315.7
1316.6
1317.5
1318.3
1319.2
1320
1320.8
1321.7
1322.5
1323.4
1324.3
1325.1
1325.9
1326.8
1327.6
1328.5
1329.4
1330.3
1331.1
1331.9
1332.7
1333.6
1334.4
1335.3
1336.2
1337
1337.9
1338.7
1339.5
1340.4
1341.3
1342.2
1343
1343.8
1344.6
1345.5
1346.4
1347.2
1348.1
1348.9
1349.8
1350.6
1351.4
1352.3
1353.2
1354.1
1354.9
1355.7
1356.5
1357.4
1358.3
1359.1
1360
1360.9
1361.7
1362.5
1363.3
1364.2
1365.1
1366
1366.8
1367.6
1368.5
1369.3
1370.2
1371
1371.9
1372.8
1373.6
1374.4
1375.3
1376.1
1377
1377.9
1378.7
1379.6
1380.4
1381.2
1382.1
1382.7
1383.6
1384.4
1385.3
1386.1
1386.9
1387.8
1388.6
1389.5
1390.4
1391.2
1392.1
1392.9
1393.7
1394.6
1395.5
1396.4
1397.2
1397.9
1398.6
1399.5
1400.4
1401.2
1402.1
1402.9
1403.8
1404.6
1405.5
1406.2
1407.1
1408
1408.8
1409.6
1410.5
1411.3
1412.2
1413
1413.9
1414.5
1415.3
1416.2
1417
1417.8
1418.7
1419.5
1420.3
1421.1
1421.8
1422.6
1423.4
1424.3
1424.9
1425.7
1426.6
1427.4
1428
1428.8
1429.5
1430.4
1431.2
1432.1
1432.9
1433.7
1434.6
1435.4
1436.3
1437.2
1438.1
1438.9
1439.7
1440.5
1441.4
1442.3
1443.1
1444
1444.8
1445.7
1446.5
1447.3
1448.2
1449.1
1450
1450.8
1451.7
1452.5
1453.3
1454.2
1455
1455.9
1456.8
1457.6
1458.4
1459.3
1460.1
1461
1461.9
1462.7
1463.6
1464.4
1465.2
1466.1
1467
1467.8
1468.7
1469.5
1470.3
1471.2
1472
1472.9
1473.8
1474.7
1475.5
1476.3
1477.1
1478
1478.9
1479.7
1480.6
1481.4
1482.3
1483.1
1483.9
1484.8
1485.7
1486.6
1487.4
1488.2
1489
1489.9
1490.8
1491.7
1492.5
1493.4
1494.2
1495
1495.9
1496.7
1497.6
1498.5
1499.3
1500.1
1501
1501.8
1502.5
1503.3
1504.2
1505
1505.8
1506.6
1507.5
1508.3
1509.1
1510
1510.8
1511.7
1512.5
1513.3
1514.2
1515.1
1516
1516.8
1517.6
1518.5
1519.3
1520.2
1521
1521.9
1522.8
1523.6
1524.4
1525.2
1526.1
1527
1527.9
1528.7
1529.5
1530.4
1531.2
1532.1
1532.9
1533.8
1534.7
1535.5
1536.3
1537.2
1538
1538.9
1539.6
1540.3
1541.2
1542
1542.8
1543.7
1544.5
1545.4
1546.3
1547.1
1547.9
1548.8
1549.6
1550.5
1551.3
1552.1
1552.9
1553.7
1554.6
1555.4
1556.3
1557
1557.9
1558.7
1559.6
1560.4
1561.2
1562.1
1563
1563.8
1564.7
1565.5
1566.3
1567.2
1568
1568.9
1569.8
1570.7
1571.5
1572.3
1573.1
1574
1574.9
1575.5
1576.3
1577.2
1578
1578.8
1579.7
1580.3
1581.1
1582
1582.9
1583.7
1584.5
1585.1
1585.9
1586.8
1587.7
1588.5
1589.4
1590
1590.8
1591.6
1592.5
1593.4
1594.3
1595.1
1595.9
1596.7
1597.6
1598.5
1599.3
1600.2
1601.1
1601.9
1602.7
1603.6
1604.4
1605.3
1606.2
1607
1607.8
1608.7
1609.5
1610.4
1611.3
1612.1
1613
1613.8
1614.6
1615.5
1616.4
1617.3
1618.1
1619
1619.8
1620.6
1621.4
1622.3
1623.2
1624.1
1624.9
1625.7
1626.6
1627.4
1628.3
1629.2
1630
1630.9
1631.7
1632.5
1633.4
1634.2
1635.1
1636
1636.8
1637.7
1638.5
1639.3
1640.2
1641.1
1641.9
1642.8
1643.6
1644.4
1645.3
1646.2
1647
1647.9
1648.8
1649.6
1650.4
1651.2
1652.1
1653
1653.8
1654.7
1655.5
1656.3
1657.2
1658.1
1659
1659.8
1660.7
1661.5
1662.3
1663.2
1664
1664.9
1665.8
1666.6
1667.5
1668.3
1669.1
1670
1670.9
1671.7
1672.6
1673.4
1674.2
1675.1
1675.9
1676.8
1677.7
1678.5
1679.4
1680.2
1681
1681.9
1682.8
1683.6
1684.5
1685.3
1686.2
1687
1687.8
1688.7
1689.6
1690.5
1691.3
1692.1
1693
1693.8
1694.7
1695.5
1696.4
1697.2
1698.1
1698.9
1699.7
1700.6
1701.5
1702.4
1703.2
1704
1704.9
1705.7
1706.6
1707.4
1708.3
1709.2
1710
1710.8
1711.7
1712.5
1713.4
1714.3
1715.1
1716
1716.8
1717.6
1718.5
1719.1
1719.9
1720.8
1721.6
1722.4
1723.3
1724.2
1725
1725.9
1726.8
1727.6
1728.4
1729.2
1730.1
1730.7
1731.6
1732.4
1733.2
1734.1
1734.9
1735.8
1736.6
1737.3
1738.1
1738.9
1739.8
1740.6
1741.4
1742.3
1743.2
1743.8
1744.6
1745.4
1746.3
1747.1
1748
1748.8
1749.7
1750.6
1751.4
1752.2
1753
1753.9
1754.8
1755.7
1756.5
1757.2
1758
1758.8
1759.7
1760.5
1761.4
1762.3
1763.1
1763.9
1764.8
1765.6
1766.5
1767.2
1768
1768.8
1769.7
1770.5
1771.3
1772.2
1773
1773.9
1774.8
1775.6
1776.4
1777.3
1778.1
1779
1779.9
1780.7
1781.6
1782.4
1783.2
1784.1
1785
1785.8
1786.7
1787.5
1788.3
1789.2
1790.1
1790.9
1791.8
1792.7
1793.5
1794.3
1794.9
1795.7
1796.5
1797.4
1798.3
1799
1799.7
1800.6
1801.4
1802.3
1803.1
1804
1804.9
