0.063889
0.24444
1.2278
2.1917
3.2083
4.1472
5.0583
5.9917
6.9917
8.025
8.9944
9.9806
10.9
11.403
11.658
12.783
13.808
14.861
15.875
16.986
17.997
19.128
20.242
21.353
22.378
23.422
24.456
25.544
26.628
27.567
27.675
28.681
29.219
29.711
30.211
30.556
31.814
32.831
33.817
34.747
35.711
36.767
37.9
39.092
40.186
41.242
42.283
43.389
44.494
45.564
46.633
47.669
48.706
49.811
50.908
51.903
52.903
53.933
55.006
56.092
57.183
58.172
59.189
60.211
61.261
62.297
63.317
64.414
65.583
66.769
67.928
69.028
70.089
71.158
72.197
73.294
74.408
75.503
76.514
77.572
78.647
79.769
80.833
81.819
82.767
83.75
84.847
86.044
87.278
88.486
89.617
90.828
92.003
93.092
94.136
95.164
96.181
97.272
98.372
99.344
100.32
101.31
102.36
103.6
104.95
106.11
107.19
108.31
109.41
110.5
111.58
112.61
113.65
114.74
115.84
116.92
117.97
119
120.06
121.16
122.24
123.31
124.38
125.41
126.44
127.52
128.63
129.18
129.61
130.57
131.53
132.57
133.87
135.11
136.14
136.54
137.2
137.44
138.28
139.38
140.4
141.43
142.41
143.4
144.47
145.54
146.6
147.64
148.61
149.63
150.72
151.84
152.89
153.92
154.95
156.04
157.13
158.24
159.25
160.31
161.33
162.46
163.52
164.69
165.69
166.67
167.69
168.85
169.94
171.06
172.09
173.12
174.16
175.3
176.36
177.42
178.46
179.49
180.54
181.65
182.76
183.78
184.84
185.87
186.93
188.01
189.1
190.14
191.11
192.15
193.13
194.22
195.21
196.46
197.66
198.97
200.16
201.27
202.33
203.39
204.46
205.57
206.65
207.72
208.7
209.75
210.81
211.97
213.06
214.06
215.1
216.19
217.21
217.58
218.31
219.38
220.38
221.46
222.53
223.59
224.61
225.6
226.55
227.5
228.56
229.65
230.93
232.07
232.84
234.33
235.58
236.74
237.73
238.79
239.77
240.86
241.88
242.96
243.99
245.04
246.11
247.19
248.36
248.66
249.48
250.55
251.56
252.67
253.77
254.86
255.89
256.93
257.96
259.07
260.07
261.13
262.13
263.14
264.09
265.14
266.31
267.58
268.79
269.84
269.99
271.01
272.17
273.2
274.18
275.19
276.23
277.32
278.37
279.39
280.4
281.41
282.41
283.44
284.45
285.49
286.72
287.84
289.01
290.16
291.23
292.3
293.34
294.4
295.51
296.66
297.71
298.14
298.87
299.86
300.94
302.05
303.18
304.26
305.25
306.39
307.54
308.61
309.73
310.73
311.8
312.93
314.02
315.1
316.17
317.22
318.26
319.42
320.5
321.58
322.62
323.68
324.71
325.87
326.61
326.98
328.04
329.11
330.2
331.28
332.44
333.49
334.52
335.6
336.71
337.22
337.82
338.92
340
340.95
341.97
343.03
344.14
345.18
346.22
347.22
348.28
349.35
350.47
351.51
352.57
353.63
354.68
355.79
356.94
357.94
359.04
360.07
361.16
362.28
363.36
364.41
365.43
366.53
367.62
368.71
369.72
370.71
371.66
372.67
373.73
374.8
376.13
377.35
378.49
379.61
380.76
381.8
382.86
383.93
385
386.15
387.22
388.26
389.3
390.38
391.5
392.58
393.66
394.71
395.75
396.9
398.02
399.14
400.22
401.29
402.35
403.52
404.64
405.72
406.83
407.89
409.03
410.18
411.31
412.36
413.45
414.55
415.67
416.82
417.9
418.96
420.06
421.14
422.27
423.35
424.41
425.4
426.49
427.56
428.63
429.65
430.68
431.71
432.77
433.93
434.95
435.96
437
438.06
439.11
440.2
441.23
442.22
443.22
444.33
445.69
446.92
448.03
449.12
450
450.18
451.29
452.33
452.89
453.41
454.39
455.39
456.47
457.56
458.64
459.7
460.75
461.8
462.86
463.98
464.22
465.06
466.07
467.07
468.12
469.18
470.29
471.35
472.35
473.4
474.45
475.52
476.61
477.65
478.68
479.68
480.75
481.81
482.84
483.85
484.82
485.76
486.82
488
489.26
490.36
491.41
492.46
493.56
494.65
495.66
496.63
497.65
498.61
499.57
499.71
500.11
500.51
501.73
501.98
502.85
503.89
504.97
505.99
507.1
508.11
509.09
510.13
511.22
512.27
513.32
514.34
515.3
516.31
517.66
518.91
520.04
521.11
522.16
523.24
524.38
525.41
526.39
527.43
528.43
529.5
530.56
531.56
532.49
533.5
534.52
535.78
537.06
537.65
538.04
539.26
540.42
541.51
542.55
543.6
544.64
545.65
546.67
547.72
548.75
549.74
551.03
552.29
553.45
554.61
555.68
556.71
557.76
558.85
559.93
561.03
562.06
563.07
564.09
565.19
566.21
567.26
568.36
569.62
570.82
571.48
573.07
574.18
575.18
576.21
577.25
578.35
579.37
580.36
581.37
582.36
583.38
584.61
585.8
586.85
587.89
588.93
590.01
591.14
592.19
593.19
594.28
595.37
596.42
597.48
598.52
599.55
600.6
601.72
602.76
603.76
604.8
605.76
606.78
608.07
609.4
610.57
611.69
612.77
613.86
614.46
614.74
615.94
616.9
617.91
618.9
620.04
621.29
622.36
623.43
624.5
625.63
626.7
627.77
628.8
629.84
630.91
632.03
633.05
634.09
635.09
636.13
637.17
638.21
639.26
640.23
641.52
642.7
643.84
644.95
646.07
647.12
648.26
649.3
650.38
651.43
652.41
653.42
654.42
655.56
656.61
657.64
658.68
659.69
660.66
661.95
663.34
664.46
665.67
666.73
667.91
669.05
670.06
671.08
672.18
673.29
674.41
675.45
676.44
677.45
678.48
679.6
680.66
681.74
682.73
683.75
684.84
685.97
687.06
688.14
689.21
690.29
691.41
692.53
693.58
694.59
695.65
696.73
697.83
698.91
699.92
700.89
701.88
702.57
702.86
703.94
705.2
706.06
706.27
707.29
708.39
709.48
710.55
711.55
712.52
713.45
714.41
715.6
716.54
717.5
718.41
719.69
720.81
722.03
723.08
724.07
725.05
726.07
727.07
728.09
729.09
730.44
731.09
732.42
733.85
734.88
735.97
736.99
738
739.12
740.2
741.24
742.25
743.21
744.25
745.86
746.38
747.16
748.24
749.39
750.49
751.59
752.74
753.81
754.86
755.91
757
758.07
759.1
760.09
761.08
762.36
763.59
764.73
765.8
766.81
767.16
767.86
768.93
769.96
771.01
771.96
772.38
773.02
774.05
775.13
776.2
777.2
778.18
779.17
779.21
780.4
781.72
782.96
784.03
785.09
786.19
787.33
788.42
789.5
790.54
791.54
792.64
793.72
794.8
795.82
796.84
797.86
798.93
799.99
800.97
802.06
803.22
804.34
805.4
806.46
807.44
808.4
809.39
810.36
811.41
812.46
813.46
814.09
814.44
815.43
816.5
817.5
818.53
818.89
819.55
820.53
821.5
822.57
823.65
824.73
825.73
826.74
827.73
828.76
829.84
831.01
832.2
833.31
834.39
835.51
836.63
836.73
837.64
838.49
838.6
839.74
840.88
841.99
843.08
844.13
845.14
846.2
847.26
848.26
849.31
850.34
851.88
852.67
853.83
854.94
856.06
857.08
858.14
859.24
860.31
861.33
862.35
863.35
864.34
865.38
865.79
866.63
867.84
868.41
868.99
869.29
870.11
871.25
872.38
873.45
874.49
875.51
876.68
877.77
878.85
879.93
880.94
882.03
883.14
884.23
885.24
886.38
887.41
888.51
889.62
890.73
891.79
892.81
893.86
894.94
896.05
897.09
898.13
899.15
900.21
901.26
902.43
903.49
904.45
905.57
906.64
907.17
907.5
908.78
909.84
910.83
911.85
912.91
913.99
915
915.99
916.99
918.02
919.45
920.73
921.86
922.96
924.01
925.11
926.23
927.31
928.31
928.37
928.79
929.37
930.42
931.48
932.56
933.59
934.17
934.53
934.69
935.5
936.54
937.86
939.08
940.24
941.36
942.47
943.63
944.72
945.78
946.81
947.87
948.92
950.04
951.06
952.1
953.09
954.14
955.2
956.25
957.34
958.83
960.06
961.26
962.35
963.48
964.49
965.51
966.6
967.69
968.76
969.8
970.81
971.82
972.89
973.99
975.02
976.11
977.12
978.16
979.25
980.34
981.38
982.39
983.44
984.52
985.61
986.75
987.79
988.83
989.9
990.99
992.09
993.13
994.16
995.24
996.34
997.46
998.61
999.65
1000.7
1001.8
1002.9
1004
1005.1
1006.2
1007.3
1008.3
1009.5
1010.6
1011.6
1012.7
1013.7
1014.8
1015.8
1016.9
1017.6
1017.9
1018.9
1020
1021
1022
1023.1
1024
1025
1026.3
1027.5
1028.6
1029.6
1030.7
1031.7
1032.8
1034
1035
1036
1037.1
1037.5
1038.1
1039.2
1040.2
1041.3
1042.2
1043.2
1044.3
1045.4
1046.5
1047.5
1048.5
1049.4
1050.4
1051.4
1052.3
1053.3
1053.8
1054.2
1055.2
1056.1
1057.1
1058
1059
1059.9
1060.8
1061.7
1062.6
1063.6
1064.6
1065.6
1066.5
1067.4
1068.4
1069.4
1070.3
1071.2
1072.1
1073
1074
1074.9
1075.8
1076.8
1077.6
1078.5
1079.4
1080.3
1081.2
1082.1
1083
1083.9
1084.7
1085.7
1086.7
1087.7
1088.6
1089.5
1090.4
1091.2
1091.8
1092
1093.1
1094
1094.9
1095.7
1096.5
1097.1
1097.4
1098.2
1099.1
1100
1100.9
1101.7
1102.5
1103.4
1104.3
1105.3
1106.3
1107.2
1108.1
1109
1109.9
1110.4
1110.9
1111.8
1112.7
1113.7
1114.6
1115.6
1116.6
1117.6
1118.5
1119.5
1120.4
1121.4
1122.4
1123.4
1124.4
1125.3
1126.2
1126.7
1127.2
1128.1
1129.4
1130.4
1131.4
1132.3
1133.7
1134.9
1135.9
1136.9
1137.8
1138.7
1139.7
1140.8
1141.8
1143.1
1144
1145
1146
1147.1
1148.6
1149.9
1151
1152.1
1153.2
1154.3
1155.2
1156.2
1157.4
1157.8
1158.4
1159.5
1160.7
1161.7
1162.7
1163.8
1164.9
1166
1167.1
1168.1
1169
1170.1
1171.3
1171.6
1172.7
1173.7
1174.8
1175.9
1177
1178.1
1179.2
1180.2
1181.2
1182.3
1183.4
1184.6
1186.3
1187.3
1188.4
1189.6
1190.7
1191.8
1192
1192.8
1193.7
1193.8
1194.9
1196
1197.1
1198.6
1199.9
1201.2
1202.3
1203.3
1204.3
1205.3
1206.4
1207.5
1208.6
1210.2
1211.3
1212.4
1213.6
1214.7
1215.4
1215.7
1216.7
1217.8
1218.8
1219.8
1221
1222.2
1223.4
1224.6
1225.7
1226.8
1227.9
1228.9
1229.9
1230.9
1232
1233
1234
1235
1236
1237.1
1238.2
1239.2
1240.2
1241.2
1242.2
1243.3
1244.6
1245.6
1246.5
1247.6
1248.6
1249.6
1250.6
1251.6
1252.5
1253.5
1254.5
1255.5
1256.4
1256.8
1257.4
1258.3
1259.2
1260.2
1261.2
1262.1
1263.1
1264
1264.9
1265.9
1266.8
1267.8
1268.8
1269.7
1270.2
1271.5
1272.5
1273.5
1274.5
1275.4
1276.3
1277.2
1278.2
1279.2
1280.2
1281.2
1282.1
1283.1
1284
1285
1285.9
1286.9
1287.8
1288.7
1289.6
1290.6
1291.6
1292.5
1293.5
1294.4
1295.3
1296.3
1297.3
1298.2
1299.1
1300
1300.8
1301.7
1302.7
1303.7
1304.6
1305.5
1305.9
1306.4
1307.3
1308.3
1309.2
1310.2
1311.1
1312
1312.8
1313.7
1314.6
1315.5
1316.4
1317.3
1318.2
1319
1319.9
1320.9
1321.8
1322.7
1323.6
1324.5
1325.3
1326.2
1327.2
1328.2
1329.1
1330
1330.9
1331.8
1332.8
1333.8
1334.7
1335.7
1336.6
1337.5
1338.4
1339.4
1340.4
1341.3
1342.2
1343.1
1344
1345
1345.9
1346.8
1347.8
1348.7
1349.6
1350.5
1351.5
1352.4
1353.3
1354.2
1355.1
1356.1
1357.1
1358
1358.9
1359.9
1360.9
1361.8
1362.8
1363.3
1363.6
1364.8
1365.7
1366.6
1367.5
1368.4
1369.3
1370.3
1371.1
1371.9
1372.8
1373.7
1374.6
1375.5
1376.5
1377.4
1378.3
1379.1
1380
1380.9
1381.9
1382.8
1383.8
1384.6
1385.5
1386.4
1387.4
1388.3
1389.2
1390
1390.9
1391.8
1392.8
1393.8
1394.7
1395.6
1396.5
1397.4
1398.4
1399.3
1400.3
1401.3
1402.3
1403.2
1404.1
1405.1
1406.1
1407.1
1408
1408.9
1409.9
1410.9
1411.8
1412.8
1413.8
1414.7
1415.6
1416.1
1417.6
1418.6
1419.4
1420.3
1421.3
1422.2
1423.2
1424.2
1425.2
1426.1
1427
1428.1
1429.1
1430.1
1431.1
1432
1433
1433.9
1435
1436
1437
1438
1439
1439.9
1441
1441.9
1442.9
1443.8
1444.8
1445.7
1446.7
1447.7
1448.7
1449.7
1450.6
1451.6
1452.7
1453.8
1454.8
1455.8
1456.8
1457.8
1458.8
1459.8
1460.8
1461.8
1462.3
1462.6
1463.8
1464.8
1465.7
1466.7
1467.3
1468.8
1469.3
1470.5
1471.6
1472.5
1473.5
1474.5
1475.4
1476.5
1477.5
1478.4
1479.5
1480.5
1481.5
1482.5
1483.5
1484.6
1485.6
1486.6
1487.5
1488.6
1489.5
1490.6
1491.6
1492.5
1493.5
1494.5
1495.5
1496.6
1497.5
1498.5
1499.4
1500.4
1501.4
1502.5
1503.4
1504.4
1505.3
1506.3
1507.3
1508.3
1509.4
1510.3
1511.4
1512.4
1513.4
1514.5
1515.4
1516.4
1517.4
1518.6
1519.5
1520.6
1521.5
1522.5
1523.5
1524.7
1525.8
1526.8
1527.9
1528.9
1529.9
1531
1532.1
1533.1
1534.1
1535.1
1536.4
1537.7
1538.8
1539.8
1540.9
1541.9
1543
1544.1
1545
1546
1547.3
1548.5
1549.7
1550.8
1551.9
1552.9
1553.9
1555.1
1556.2
1557.3
1558.3
1559.3
1560.4
1561.5
1562.7
1563.8
1564.8
1565.8
1566.9
1568
1569
1570
1571
1572.1
1573.1
1574.1
1575.1
1576.1
1577.1
1578.1
1579.3
1580.5
1581.5
1582.6
1583.6
1584.6
1585.7
1586.6
1587.5
1588.6
1589.5
1590.7
1591.8
1592.7
1593.7
1594.6
1595.6
1596.6
1597.7
1598.7
1599.7
1600.8
1601.7
1602.8
1603.9
1605
1605.8
1606.9
1607.9
1608.9
1610
1610.9
1611.9
1612.8
1613.3
1613.5
1614.8
1615.7
1616.6
1617.6
1618.5
1619.4
1620.4
1621.5
1622.4
1623.4
1624.4
1625.3
1626.2
1627.3
1628.4
1629.3
1630.4
1631.3
1632.3
1633.4
1634.4
1635.4
1636.3
1637.3
1638.2
1639.3
1640.3
1641.2
1642.2
1643.1
1644
1645.1
1646
1647
1648
1649
1650
1650.9
1651.3
1652
1653
1653.9
1654.8
1655.8
1656.8
1657.8
1658.8
1659.7
1660.6
1661.6
1662.6
1663.6
1664.2
1664.7
1665.7
1666.7
1667.7
1668.7
1669.7
1670.8
1671.7
1672.7
1673.7
1674.8
1675.8
1676.7
1677.7
1678.6
1679.6
1680.6
1681.6
1682.6
1683.6
1684.5
1685.4
1686.4
1687.4
1688.3
1689.2
1690.1
1691
1691.9
1692.8
1693.7
1694.6
1695.5
1696.3
1697.2
1698.1
1699
1699.9
1700.8
1701.6
1702.5
1703.3
1704.2
1705
1705.9
1706.7
1707.6
1708.4
1709.2
1710.1
1711
1711.9
1712.8
1713.6
1714.5
1715.4
1716.2
1717.1
1718
1718.8
1719.6
1720.1
1720.3
1721.2
1722
1722.9
1723.7
1724.5
1725.3
1726.1
1726.9
1727.7
1728.5
1729.3
1730.2
1731
1731.8
1732.6
1733.4
1734.2
1735.1
1735.9
1736.8
1737.6
1738.4
1739.2
1740
1740.9
1741.7
1742.6
1743.4
1744.2
1745
1745.8
1746.7
1747.5
1748.4
1749.2
1750
1750.8
1751.7
1752.5
1753.4
1754
1755.1
1755.9
1756.7
1757.6
1758
1758.4
1759.3
1760.2
1761
1761.8
1762.6
1763.5
1764.3
1765.2
1766.1
1766.9
1767.8
1768.6
1769.4
1770.3
1771.2
1772.1
1773
1773.8
1774.7
1775.5
1776.4
1777.3
1778.2
1779.1
1779.9
1780.8
1781.7
1781.9
1782.6
1783.6
1784.6
1785.5
1786.4
1787.3
1788.2
1789.1
1790
1790.9
1791.8
1792.6
1793.4
1794.3
1795.2
1795.7
1796.1
1797
1797.9
1798.7
1799.6
1800.6
1801.5
1802.4
1803.3
1804.1
1804.9
