0.05
0.30833
0.95278
1.5861
2.2417
2.9111
3.575
4.2306
4.9028
5.5389
6.1639
6.7639
7.3917
8.0083
8.6556
9.3111
9.9611
10.592
11.225
11.844
12.444
13.028
13.633
14.244
14.883
15.533
16.167
16.797
17.386
18.006
18.6
19.217
19.817
20.436
21.067
21.733
22.408
23.033
23.644
24.269
24.919
25.547
26.175
26.833
27.506
28.189
28.864
29.5
30.125
30.764
31.417
32.081
32.733
33.417
34.103
34.786
35.458
36.103
36.744
37.4
38.1
38.678
39.478
40.175
40.872
41.55
42.225
42.881
43.525
44.217
44.947
45.658
46.35
47.044
47.717
48.4
49.064
49.731
50.428
51.172
51.886
52.581
53.267
53.931
54.611
55.297
55.975
56.667
57.411
58.136
58.833
59.514
60.189
60.861
61.556
62.244
62.947
63.672
64.414
65.108
65.769
66.439
67.106
67.8
68.511
69.231
69.944
70.689
71.386
72.05
72.717
73.394
74.108
74.833
75.556
76.264
76.822
77.681
78.344
79.033
79.719
80.444
81.194
81.917
82.619
83.344
84.042
84.719
85.397
86.103
86.831
87.589
88.311
89.006
89.708
90.419
91.108
91.783
92.342
93.225
93.961
94.689
95.375
96.056
96.769
97.461
98.144
98.864
99.592
100.33
101.05
101.74
102.43
103.14
103.84
104.55
105.28
106.01
106.75
107.47
108.16
108.83
109.54
110.25
110.98
111.7
112.42
113.14
113.84
114.52
115.19
115.89
116.64
117.36
118.07
118.79
119.48
120.18
120.87
121.56
122.25
123.01
123.74
124.44
125.15
125.84
126.53
127.16
127.91
128.59
129.32
130.06
130.77
131.43
132.11
132.77
133.46
134.14
134.85
135.57
136.31
137.02
137.69
138.36
139.03
139.72
140.44
141.14
141.84
142.58
143.28
143.95
144.61
145.28
145.97
146.7
147.41
148.11
148.83
149.54
150.2
150.85
151.53
152.2
152.91
153.63
154.33
155.01
155.71
156.38
157.03
157.7
158.39
159.12
159.86
160.56
161.25
161.94
162.63
163.31
163.99
164.71
165.45
166.19
166.9
167.58
168.28
168.98
169.67
170.37
171.1
171.83
172.57
173.27
173.94
174.63
175.33
176.03
176.72
177.44
178.14
178.86
179.54
180.21
180.86
181.55
182.25
182.95
183.64
184.36
185.07
185.77
186.44
187.1
187.8
188.53
189.26
189.97
190.68
191.38
192.07
192.74
193.41
194.11
194.86
195.58
196.28
196.99
197.67
198.35
199.04
199.73
200.42
201.16
201.89
202.6
203.29
203.98
204.66
205.36
206.06
206.76
207.49
208.25
208.96
209.63
210.31
210.98
211.68
212.4
213.13
213.84
214.6
215.31
215.98
216.66
217.36
218.07
218.81
219.53
220.24
220.97
221.68
222.36
223.03
223.72
224.44
225.18
225.9
226.61
227.32
228.03
228.71
229.38
230.08
230.79
231.54
232.27
232.97
233.66
234.38
235.06
235.62
236.43
237.13
237.88
238.6
239.29
239.94
240.63
241.29
241.95
242.62
243.31
244
244.68
245.33
245.97
246.6
247.28
247.93
248.58
249.26
249.94
250.64
251.33
251.96
252.6
253.26
253.96
254.65
255.33
256.04
256.73
257.43
258.11
258.77
259.46
260.2
260.93
261.64
262.38
263.09
263.81
264.51
265.21
265.91
266.68
267.43
268.17
268.9
269.62
270.33
271.04
271.75
272.48
273.26
274.01
274.73
275.44
276.13
276.85
277.55
278.27
279
279.78
280.51
281.21
281.9
282.57
283.27
283.99
284.7
285.42
286.18
286.9
287.59
288.27
288.96
289.67
290.38
291.16
291.88
292.63
293.35
294.04
294.71
295.41
296.13
296.87
297.6
298.32
299.05
299.78
300.47
301.15
301.86
302.59
303.34
304.09
304.81
305.53
306.25
306.94
307.62
308.34
309.07
309.82
310.56
311.27
311.97
312.7
313.39
314.1
314.83
315.57
316.34
317.07
317.77
318.45
319.18
319.89
320.6
321.34
322.08
322.82
323.55
324.25
324.93
325.67
326.39
327.11
327.85
328.58
329.29
329.99
330.66
331.32
332.03
332.74
333.45
334.14
334.82
335.5
336.16
336.79
337.42
338.06
338.76
339.42
340.08
340.73
341.36
342
342.65
343.27
343.89
344.55
345.25
345.91
346.55
347.2
347.84
348.48
349.13
349.77
350.42
351.1
351.81
352.48
353.11
353.76
354.39
355.04
355.71
356.38
357.05
357.76
358.47
359.15
359.79
360.44
361.09
361.78
362.47
363.17
363.87
364.6
365.29
365.96
366.61
367.28
367.99
368.73
369.43
370.14
370.88
371.59
372.27
372.94
373.64
374.34
375.09
375.82
376.54
377.26
377.98
378.67
379.34
380.04
380.76
381.51
382.25
382.97
383.65
384.37
385.05
385.73
386.43
387.15
387.9
388.64
389.35
390.02
390.72
391.41
392.12
392.82
393.55
394.29
395.01
395.69
396.36
397.04
397.75
398.45
399.16
399.88
400.58
401.3
401.98
402.65
403.32
404.04
404.76
405.47
406.19
406.91
407.62
408.32
409.01
409.68
410.42
411.17
411.9
412.61
413.31
414.01
414.72
415.39
416.07
416.81
417.57
418.3
418.99
419.69
420.38
421.08
421.76
422.46
423.2
423.96
424.68
425.2
426.05
426.72
427.43
428.13
428.67
429.57
430.32
431.04
431.71
432.38
433.05
433.74
434.44
435.15
435.85
436.58
437.26
437.92
438.58
439.26
439.95
440.68
441.41
442.11
442.85
443.56
444.23
444.89
445.59
446.3
447.05
447.77
448.48
449.21
449.91
450.6
451.27
451.97
452.69
453.45
454.17
454.87
455.58
456.29
456.99
457.67
458.39
459.12
459.87
460.6
461.3
461.99
462.71
463.41
464.09
464.82
465.55
466.3
467.02
467.72
468.41
469.14
469.85
470.56
471.31
472.04
472.79
473.51
474.21
474.9
475.62
476.34
477.07
477.8
478.52
479.26
479.97
480.66
481.32
482.05
482.78
483.51
484.22
484.94
485.63
486.32
486.98
487.65
488.37
489.04
489.83
490.52
491.24
491.91
492.6
493.29
493.97
494.68
495.43
496.15
496.84
497.51
498.18
498.86
499.56
500.24
500.93
501.67
502.41
503.12
503.78
504.47
505.16
505.87
506.58
507.31
508.06
508.82
509.53
510.07
510.91
511.62
512.38
513.12
513.85
514.62
515.36
516.06
516.74
517.45
518.16
518.92
519.66
520.39
521.13
521.85
522.54
523.23
523.94
524.68
525.46
526.19
526.9
527.63
528.33
528.89
529.7
530.42
531.19
531.94
532.67
533.36
534.08
534.78
535.46
536.16
536.89
537.64
538.39
539.09
539.75
540.46
541.15
541.84
542.55
543.29
544.02
544.77
545.47
546.13
546.83
547.54
548.26
548.96
549.7
550.43
551.16
551.85
552.52
553.23
553.97
554.71
555.45
556.2
556.94
557.67
558.36
559.05
559.77
560.52
561.27
562
562.75
563.46
564.19
564.89
565.59
566.33
567.1
567.86
568.6
569.33
570.04
570.76
571.48
572.19
572.94
573.73
574.48
575.19
575.92
576.62
577.34
578.06
578.79
579.55
580.32
581.05
581.73
582.43
583.13
583.84
584.56
585.29
586.03
586.78
587.49
588.17
588.86
589.55
590.28
591.02
591.75
592.48
593.23
593.92
594.6
595.3
596
596.76
597.51
598.23
598.97
599.72
600.41
601.09
601.63
602.53
603.28
604.04
604.76
605.48
606.21
606.91
607.59
608.32
609.06
609.82
610.44
611.26
611.97
612.7
613.4
614.11
614.84
615.58
616.34
617.06
617.74
618.44
619.16
619.87
620.58
621.32
622.06
622.81
623.52
624.2
624.91
625.63
626.36
627.09
627.84
628.58
629.32
630.02
630.7
631.41
632.14
632.89
633.62
634.36
635.1
635.83
636.51
637.2
637.93
638.68
639.43
640.16
640.89
641.61
642.34
643.02
643.7
644.46
645.21
645.94
646.67
647.38
648.08
648.79
649.47
650.16
650.9
651.66
652.27
653.09
653.8
654.5
655.2
655.91
656.63
657.38
658.15
658.89
659.59
660.29
660.99
661.71
662.44
663.18
663.93
664.7
665.42
666.11
666.8
667.5
668.24
668.98
669.72
670.47
671.22
671.92
672.61
673.31
674.02
674.78
675.53
676.26
677
677.74
678.44
679.13
679.85
680.58
681.35
681.94
682.84
683.55
684.3
685.01
685.7
686.43
687.18
687.95
688.68
689.39
690.1
690.83
691.54
692.24
692.98
693.73
694.49
695.21
695.9
696.62
697.34
698.06
698.79
699.54
700.31
701.06
701.76
702.44
703.16
703.87
704.6
705.33
706.07
706.81
707.55
708.24
708.92
709.64
710.37
711.11
711.83
712.57
713.3
714.02
714.71
715.4
716.14
716.89
717.63
718.36
719.09
719.81
720.52
721.22
721.92
722.68
723.43
724.16
724.9
725.6
726.31
727.02
727.72
728.43
729.19
729.94
730.65
731.36
732.06
732.76
733.48
734.19
734.92
735.7
736.45
737.16
737.86
738.55
739.26
739.98
740.71
741.46
742.23
742.96
743.66
744.35
745.04
745.77
746.51
747.26
747.99
748.75
749.45
750.14
750.82
751.51
752.24
753.01
753.74
754.45
755.19
755.89
756.58
757.25
757.96
758.69
759.44
760.17
760.87
761.59
762.3
762.98
763.67
764.39
765.12
765.86
766.59
767.29
767.98
768.69
769.38
770.07
770.8
771.54
772.3
773.02
773.73
774.42
775.15
775.87
776.58
777.33
778.08
778.84
779.55
780.24
780.95
781.68
782.41
783.14
783.89
784.63
785.36
786.06
786.75
787.47
788.21
788.96
789.69
790.44
791.16
791.88
792.57
793.26
793.98
794.73
795.48
796.2
796.93
797.65
798.36
799.06
799.75
800.49
801.25
802
802.72
803.43
804.14
804.86
805.55
806.25
807.01
807.76
808.49
809.21
809.91
810.62
811.34
812.06
812.77
813.54
814.29
815.01
815.71
816.41
817.12
817.84
818.56
819.29
820.06
820.81
821.51
822.19
822.89
823.61
824.34
825.08
825.81
826.58
827.3
827.99
828.69
829.39
830.12
830.87
831.61
832.34
833.1
833.8
834.48
835.17
835.88
836.61
837.37
838.11
838.82
839.55
840.25
840.94
841.64
842.36
843.11
843.88
844.62
845.32
845.96
846.74
847.45
848.16
848.91
849.67
850.43
851.16
851.85
852.57
853.28
854
854.73
855.49
856.25
857
857.71
858.39
859.11
859.83
860.56
861.3
862.04
862.79
863.52
864.21
864.89
865.61
866.35
867.08
867.81
868.55
869.26
869.98
870.66
871.34
872.07
872.83
873.56
874.29
875.02
875.74
876.44
877.14
877.83
878.59
879.33
880.08
880.81
881.52
882.24
882.96
883.66
884.38
885.15
885.91
886.64
887.36
888.05
888.76
889.49
890.2
890.92
891.7
892.44
893.14
893.84
894.53
895.24
895.96
896.68
897.41
898.18
898.91
899.59
900.28
900.97
901.68
902.4
903.13
903.86
904.62
905.34
906.02
906.72
907.4
908.13
908.87
909.61
910.33
911.08
911.78
912.45
913.14
913.82
914.56
915.31
916.03
916.74
917.33
918.18
918.84
919.54
920.25
920.98
921.73
922.46
923.15
923.86
924.54
925.22
925.9
926.62
927.36
928.11
928.83
929.52
930.22
930.91
931.61
932.16
933.04
933.76
934.52
935.22
935.9
936.59
937.31
938.01
938.71
939.46
940.18
940.92
941.63
942.31
943.01
943.74
944.46
945.18
945.94
946.66
947.39
948.1
948.79
949.48
950.23
950.98
951.71
952.45
953.17
953.89
954.59
955.29
955.99
956.76
957.52
958.24
958.97
959.67
960.4
961.1
961.8
962.52
963.31
964.06
964.78
965.49
966.18
966.89
967.59
968.3
969.04
969.81
970.55
971.25
971.96
972.64
973.36
974.07
974.8
975.54
976.32
977.05
977.74
978.44
979.14
979.86
980.59
981.33
982.08
982.84
983.55
984.24
984.94
985.65
986.4
987.13
987.86
988.61
989.34
990.03
990.71
991.41
992.12
992.88
993.63
994.35
995.11
995.83
996.53
997.23
997.95
998.71
999.48
1000.2
1001
1001.7
1002.4
1003.1
1003.8
1004.5
1005.3
1006.1
1006.8
1007.5
1008.3
1009
1009.6
1010.4
1011.1
1011.9
1012.6
1013.3
1014
1014.7
1015.4
1016.1
1016.9
1017.6
1018.3
1019.1
1019.8
1020.5
1021.2
1021.9
1022.6
1023.3
1024.1
1024.8
1025.5
1026.2
1026.9
1027.6
1028.4
1029.1
1029.8
1030.5
1031.3
1032
1032.7
1033.4
1034.1
1034.9
1035.6
1036.3
1037.1
1037.8
1038.5
1039.1
1039.8
1040.6
1041.3
1042.1
1042.8
1043.5
1044.2
1044.9
1045.6
1046.3
1047
1047.8
1048.6
1049.3
1050
1050.6
1051.3
1052.1
1052.8
1053.5
1054.3
1055
1055.7
1056.4
1057.1
1057.8
1058.5
1059.1
1060
1060.8
1061.5
1062.2
1062.9
1063.6
1064.3
1065.1
1065.8
1066.6
1067.3
1068
1068.7
1069.4
1070.1
1070.8
1071.6
1072.3
1073
1073.8
1074.4
1075.1
1075.8
1076.5
1077.3
1078
1078.7
1079.5
1080.2
1080.9
1081.5
1082.3
1083
1083.8
1084.5
1085.2
1085.9
1086.6
1087.3
1088
1088.7
1089.5
1090.3
1091
1091.7
1092.4
1093.1
1093.8
1094.5
1095.2
1095.8
1096.8
1097.4
1098.1
1098.8
1099.6
1100.3
1101
1101.7
1102.5
1103.2
1103.9
1104.6
1105.3
1106
1106.7
1107.5
1108.2
1109
1109.7
1110.4
1111.1
1111.8
1112.5
1113.3
1114
1114.7
1115.4
1116.2
1116.9
1117.5
1118.3
1119
1119.8
1120.5
1121.2
1121.9
1122.6
1123.3
1124
1124.7
1125.5
1126.2
1126.9
1127.7
1128.3
1129
1129.7
1130.5
1131.2
1132
1132.7
1133.2
1134.1
1134.8
1135.5
1136.2
1137
1137.7
1138.5
1139.2
1139.9
1140.6
1141.3
1142
1142.6
1143.5
1144.2
1145
1145.7
1146.4
1147.1
1147.8
1148.5
1149.3
1150
1150.7
1151.5
1152.1
1152.8
1153.5
1154.2
1155
1155.7
1156.4
1157.1
1157.9
1158.5
1159.2
1159.9
1160.6
1161.4
1162.1
1162.8
1163.5
1164.3
1164.9
1165.6
1166.3
1167
1167.7
1168.5
1169.3
1170
1170.7
1171.4
1172.1
1172.8
1173.5
1174.3
1175
1175.7
1176.4
1177.1
1177.8
1178.5
1179.3
1180
1180.7
1181.5
1182.2
1182.8
1183.6
1184.3
1185
1185.7
1186.5
1187.2
1187.9
1188.6
1189.3
1190
1190.8
1191.5
1192.2
1192.9
1193.7
1194.3
1195
1195.7
1196.5
1197.2
1197.9
1198.7
1199.4
1200.1
1200.8
1201.4
1202.1
1202.9
1203.7
1204.4
1205.1
1205.8
1206.5
1207.2
1207.9
1208.6
1209.4
1210.1
1210.9
1211.6
1212.3
1213
1213.7
1214.4
1215.1
1215.9
1216.6
1217.3
1218
1218.7
1219.4
1220.2
1220.9
1221.6
1222.4
1223.1
1223.8
1224.5
1225.2
1225.9
1226.7
1227.4
1228.1
1228.9
1229.6
1230.3
1230.9
1231.6
1232.4
1233.1
1233.8
1234.6
1235.3
1236
1236.7
1237.4
1238.1
1238.8
1239.6
1240.3
1241
1241.8
1242.5
1243.2
1243.8
1244.6
1245.3
1246.1
1246.8
1247.5
1248.2
1248.9
1249.6
1250.3
1251.1
1251.8
1252.6
1253.3
1254
1254.7
1255.4
1256.1
1256.8
1257.6
1258.3
1259.1
1259.8
1260.4
1261.2
1261.9
1262.6
1263.3
1264.1
1264.8
1265.5
1266.2
1266.9
1267.6
1268.3
1269.1
1269.8
1270.5
1271.3
1272
1272.7
1273.3
1274.1
1274.8
1275.5
1276.3
1277
1277.7
1278.4
1279.1
1279.8
1280.5
1281.3
1282
1282.7
1283.4
1284.1
1284.8
1285.5
1286.2
1287
1287.7
1288.4
1289.1
1289.8
1290.5
1291.2
1291.9
1292.6
1293.4
1294.1
1294.9
1295.5
1296.2
1296.9
1297.6
1298.3
1299
1299.8
1300.5
1301.2
1301.9
1302.6
1303.3
1304
1304.7
1305.5
1306.2
1307
1307.7
1308.3
1309
1309.7
1310.5
1311.2
1312
1312.7
1313.4
1314.1
1314.8
1315.5
1316.2
1316.9
1317.7
1318.5
1319.2
1319.9
1320.6
1321.3
1322
1322.7
1323.5
1324.2
1324.9
1325.6
1326.3
1327
1327.7
1328.4
1329.2
1329.9
1330.6
1331.3
1332
1332.8
1333.5
1334.2
1334.9
1335.6
1336.4
1337.1
1337.8
1338.5
1339.2
1339.9
1340.6
1341.3
1342.1
1342.8
1343.5
1344.2
1344.9
1345.6
1346.3
1347
1347.8
1348.5
1349.2
1349.9
1350.6
1351.3
1352
1352.7
1353.4
1354.2
1354.9
1355.6
1356.3
1357
1357.7
1358.4
1359.2
1359.9
1360.6
1361.3
1362
1362.7
1363.4
1364.1
1364.9
1365.6
1366.3
1367
1367.7
1368.4
1369.1
1369.8
1370.5
1371.3
1372
1372.7
1373.4
1374.1
1374.8
1375.5
1376.2
1376.9
1377.7
1378.4
1379.1
1379.8
1380.5
1381.2
1382
1382.7
1383.4
1384.2
1384.9
1385.6
1386.3
1386.9
1387.7
1388.4
1389.1
1389.8
1390.6
1391.3
1392
1392.7
1393.4
1394.1
1394.8
1395.6
1396.3
1397
1397.7
1398.4
1399.1
1399.8
1400.5
1401.2
1402
1402.7
1403.4
1404.1
1404.8
1405.5
1406.2
1407
1407.7
1408.5
1409.2
1409.9
1410.6
1411.3
1412
1412.7
1413.4
1414.2
1414.9
1415.6
1416.3
1417
1417.7
1418.5
1419.2
1419.8
1420.7
1421.4
1422.1
1422.8
1423.5
1424.2
1425
1425.7
1426.4
1427.2
1427.9
1428.5
1429.2
1430
1430.7
1431.4
1432.2
1432.9
1433.6
1434.3
1435
1435.7
1436.4
1437.1
1437.8
1438.6
1439.3
1440
1440.7
1441.4
1442.1
1442.8
1443.5
1444.3
1445
1445.7
1446.4
1447.1
1447.8
1448.5
1449.2
1450
1450.7
1451.4
1452.1
1452.8
1453.5
1454.2
1454.9
1455.7
1456.3
1457.1
1457.8
1458.5
1459.2
1459.9
1460.6
1461.3
1462
1462.8
1463.4
1464.1
1464.8
1465.4
1466.1
1466.9
1467.6
1468.3
1469
1469.7
1470.3
1471
1471.7
1472.4
1473.1
1473.7
1474.4
1475.1
1475.8
1476.4
1477
1477.6
1478.2
1478.8
1479.5
1480.2
1480.9
1481.5
1482.2
1482.8
1483.5
1484.1
1484.8
1485.5
1486.1
1486.8
1487.5
1488.2
1488.8
1489.4
1490.1
1490.8
1491.5
1492.3
1493
1493.6
1494.3
1495
1495.7
1496.3
1497
1497.8
1498.5
1499.2
1499.9
1500.5
1501.3
1502
1502.7
1503.4
1504.2
1504.9
1505.6
1506.3
1507.1
1507.8
1508.5
1509.3
1510
1510.8
1511.5
1512.3
1513
1513.7
1514.3
1515.2
1516
1516.7
1517.4
1518.1
1518.8
1519.5
1520.3
1521
1521.7
1522.5
1523.2
1523.9
1524.6
1525.3
1526
1526.8
1527.5
1528.3
1529
1529.7
1530.4
1531.1
1531.9
1532.6
1533.4
1534.2
1534.9
1535.6
1536.3
1537
1537.8
1538.5
1539.3
1540
1540.8
1541.5
1542.2
1543
1543.7
1544.4
1545.2
1546
1546.8
1547.5
1548.2
1548.9
1549.7
1550.4
1551.1
1551.9
1552.7
1553.4
1554.1
1554.8
1555.5
1556.3
1557
1557.8
1558.5
1559.3
1560
1560.7
1561.4
1562.1
1562.8
1563.6
1564.3
1565
1565.8
1566.5
1567.1
1567.9
1568.6
1569.3
1570
1570.7
1571.1
1571.4
1572.1
1572.7
1573.4
1574
1574.7
1575.4
1576.1
1576.8
1577.4
1578.1
1578.7
1579.4
1580
1580.7
1581.4
1582.1
1582.8
1583.4
1584
1584.8
1585.1
1585.4
1586.1
1586.7
1587.4
1588.1
1588.7
1589.4
1590
1590.6
1591.3
1592
1592.7
1593.4
1594.1
1594.8
1595.5
1596.2
1596.8
1597.5
1598.3
1599
1599.7
1600.5
1601.2
1601.9
1602.6
1603.3
1604
1604.8
1605.6
1606.3
1607
1607.7
1608.5
1609.2
1609.9
1610.6
1611.4
1612.1
1612.9
1613.6
1614.3
1615
1615.7
1616.4
1617.1
1617.9
1618.6
1619.3
1620
1620.7
1621.3
1622.1
1622.9
1623.7
1624.4
1625.1
1625.8
1626.5
1627.3
1628
1628.7
1629.5
1630.3
1631
1631.7
1632.4
1633.1
1633.8
1634.6
1635.3
1636.1
1636.8
1637.6
1638.2
1638.9
1639.6
1640.4
1641.2
1641.9
1642.7
1643.4
1644.1
1644.8
1645.6
1646.3
1647.1
1647.9
1648.6
1649.4
1650.1
1650.8
1651.6
1652.3
1653.1
1653.9
1654.6
1655.4
1656
1656.8
1657.5
1658.3
1659
1659.8
1660.6
1661.3
1662
1662.7
1663.5
1664.2
1664.9
1665.7
1666.4
1667.2
1667.9
1668.6
1669.3
1670.1
1670.8
1671.6
1672.3
1673.1
1673.8
1674.5
1675.2
1676
1676.5
1677.4
1678.2
1678.9
1679.7
1680.4
1681.1
1681.8
1682.6
1683.3
1684.1
1684.8
1685.6
1686.3
1687
1687.7
1688.4
1689.1
1690
1690.7
1691.4
1692.2
1692.9
1693.6
1694.3
1695.1
1695.9
1696.6
1697.4
1698.1
1698.8
1699.6
1700.3
1701.1
1701.9
1702.6
1703.3
1704.1
1704.8
1705.5
1706.2
1707
1707.8
1708.6
1709.3
1710
1710.7
1711.5
1712.2
1713
1713.8
1714.6
1715.3
1716
1716.7
1717.5
1718.2
1719
1719.7
1720.5
1721.3
1722
1722.7
1723.4
1724.1
1724.9
1725.6
1726.4
1727.1
1727.9
1728.6
1729.3
1730
1730.8
1731.6
1732.3
1733.1
1733.8
1734.5
1735.2
1736
1736.7
1737.5
1738.2
1739
1739.7
1740.4
1741.2
1741.9
1742.6
1743.4
1744.2
1745
1745.7
1746.4
1747.1
1747.9
1748.6
1749.4
1750.2
1750.9
1751.7
1752.4
1753.1
1753.9
1754.5
1755.4
1756.2
1756.9
1757.7
1758.4
1759.1
1759.8
1760.5
1761.3
1762
1762.8
1763.5
1764.2
1765
1765.7
1766.5
1767.2
1768
1768.7
1769.5
1770.2
1770.9
1771.6
1772.4
1773.2
1773.9
1774.7
1775.4
1776.2
1776.9
1777.6
1778.4
1779.2
1779.9
1780.6
1781.3
1782
1782.6
1783.4
1784
1784.7
1785.4
1786.1
1786.8
1787.5
1788.1
1788.8
1789.5
1790.2
1790.8
1791.6
1792.3
1793
1793.7
1794.3
1795
1795.7
1796.4
1797.2
1797.9
1798.7
1799.4
1800.1
1800.8
1801.6
1802.2
1803.1
1803.8
1804.6
1805.4
