0.086111
0.54722
1.3583
2.2333
3.1306
3.9722
4.8306
5.6667
6.5111
7.3361
8.225
9.1056
9.9417
10.797
11.653
12.483
13.294
14.169
15.053
15.903
16.789
17.619
18.439
19.261
20.169
21.05
21.9
22.764
23.608
24.45
25.289
26.175
27.036
27.894
28.783
29.636
30.472
31.319
32.231
33.153
34.036
34.925
35.8
36.656
37.533
38.458
39.353
40.222
41.108
41.95
42.783
43.658
44.536
45.444
46.286
47.147
47.981
48.792
49.683
50.581
51.433
52.281
53.175
54.028
54.858
55.75
56.653
57.556
58.425
59.297
60.147
60.983
61.903
62.819
63.728
64.592
65.464
66.322
67.172
68.061
68.969
69.825
70.706
71.572
72.406
73.25
74.153
75.086
75.986
76.872
77.731
78.608
79.503
80.428
81.342
82.192
83.064
83.925
84.786
85.653
86.553
87.489
88.369
89.247
90.108
90.953
91.864
92.786
93.683
94.528
95.378
96.244
97.089
97.992
98.9
99.792
100.67
101.56
102.41
103.25
104.16
105.07
105.93
106.76
107.59
108.43
109.27
110.19
111.08
111.94
112.83
113.69
114.56
115.42
116.32
117.23
118.12
119.01
119.84
120.67
121.55
122.47
123.36
124.21
125.09
125.95
126.81
127.69
128.61
129.53
130.41
131.27
132.12
132.95
133.85
134.77
135.69
136.53
137.38
138.23
139.07
139.97
140.83
141.71
142.56
143.42
144.28
145.1
145.99
146.91
147.8
148.67
149.5
150.29
151.19
152.11
153
153.86
154.73
155.59
156.43
157.23
158.12
158.99
159.86
160.74
161.59
162.42
163.26
164.16
165.04
165.42
165.9
166.77
167.6
168.45
168.83
169.28
170.14
171.02
171.87
172.75
173.58
174.39
175.2
176.08
176.96
177.84
178.67
179.5
180.33
181.16
182.04
182.9
183.76
184.03
184.59
185.43
186.24
187.03
187.83
188.56
188.71
189.55
190.35
191.14
191.93
192.7
193.52
194.38
195.23
196.05
196.89
197.72
198.52
199.32
200.18
201.04
201.88
202.73
203.56
204.38
205.18
206.06
206.91
207.76
208.56
209.39
210.2
210.99
211.86
212.74
213.59
214.42
215.25
216.05
216.83
217.69
218.55
219.42
220.26
221.11
221.93
222.77
223.65
224.53
225.4
226.24
227.1
227.94
228.79
229.64
230.53
231.44
232.32
233.2
234.05
234.89
235.8
236.72
237.61
238.46
239.33
240.19
241.03
241.92
242.81
243.72
244.56
245.42
246.29
247.12
247.97
248.87
249.75
250.59
251.47
252.29
253.09
253.98
254.86
255.73
256.56
257.44
258.27
259.08
259.97
260.86
261.72
262.57
263.42
264.23
265.04
265.92
266.81
267.67
268.52
269.34
270.18
271.01
271.9
272.78
273.67
274.52
275.38
276.2
277
277.87
278.79
279.68
280.52
281.36
282.22
283.06
283.95
284.84
285.73
286.57
287.43
288.26
289.07
289.96
290.86
291.72
292.55
293.39
294.22
295.04
295.94
296.82
297.7
298.56
299.45
300.31
301.13
302.01
302.91
303.79
304.64
305.48
306.3
307.12
308.01
308.91
309.78
310.63
311.48
312.32
313.19
314.07
314.94
315.85
316.73
317.59
318.42
319.26
320.17
321.07
321.92
322.79
323.64
324.49
325.3
326.19
327.07
327.92
328.79
329.64
330.47
331.31
332.19
333.09
333.94
334.81
335.65
336.47
337.29
338.19
339.07
339.91
340.77
341.63
342.48
343.29
344.16
345.06
345.9
346.77
347.61
348.42
349.22
350.13
351.03
351.89
352.73
353.59
354.43
355.26
356.16
357.05
357.91
358.8
359.65
360.48
361.31
362.21
363.11
363.98
364.85
365.71
366.56
367.43
368.34
369.23
370.09
370.95
371.79
372.65
373.49
374.38
375.28
376.13
376.99
377.81
378.65
379.5
380.42
381.34
382.2
383.07
383.93
384.75
385.59
386.47
387.37
388.21
389.08
389.91
390.73
391.58
392.48
393.34
394.18
395.03
395.87
396.72
397.56
398.47
399.36
400.22
401.11
401.96
402.79
403.67
404.57
405.49
406.37
407.21
408.03
408.87
409.76
410.67
411.55
412.4
413.26
414.1
414.91
415.81
416.7
417.63
418.49
419.34
420.19
421.04
421.94
422.86
423.75
424.6
425.47
426.34
427.18
428.06
428.96
429.85
430.73
431.58
432.42
433.25
434.15
435.05
435.92
436.77
437.61
438.46
439.31
440.23
441.13
442
442.91
443.78
444.62
445.47
446.39
447.29
448.15
449.02
449.84
450.66
451.51
452.4
453.3
454.15
455.03
455.88
456.73
457.59
458.49
459.38
460.23
461.09
461.94
462.78
463.65
464.55
465.47
466.32
467.18
468.02
468.88
469.76
470.62
471.51
472.37
473.23
474.08
474.91
475.78
476.66
477.57
478.41
479.24
480.07
480.88
481.75
482.66
483.54
484.37
485.23
486.08
486.91
487.76
488.65
489.54
490.4
491.27
492.1
492.89
493.78
494.68
495.54
496.35
497.19
498.01
498.84
499.69
500.56
501.44
502.3
503.17
503.99
504.81
505.68
506.58
507.49
508.36
509.2
510.04
510.9
511.78
512.67
513.56
514.41
515.27
516.12
516.93
517.64
518.67
519.57
520.39
521.21
522
522.8
523.62
524.5
525.35
526.16
527.01
527.84
528.68
529.48
530.41
531.3
532.16
533.03
533.91
534.76
535.62
536.55
537.46
538.31
539.16
539.99
540.86
541.74
542.63
543.56
544.44
545.31
546.16
546.99
547.88
548.79
549.65
550.49
551.35
552.17
552.98
553.84
554.7
555.55
556.38
557.22
558.03
558.84
559.68
560.54
561.4
562.23
563.06
563.85
564.67
565.48
566.36
567.23
568.04
568.89
569.72
570.54
571.34
572.19
573.06
573.89
574.75
575.6
576.42
577.23
578.09
578.97
579.82
580.64
581.47
582.3
583.12
583.99
584.84
585.71
586.53
587.37
588.19
588.98
589.85
590.74
591.6
592.43
593.26
594.08
594.87
595.73
596.61
597.48
598.3
599.14
599.97
600.8
601.61
602.47
603.34
604.18
605.01
605.82
606.66
607.43
608.29
609.15
609.97
610.81
611.62
612.41
613.19
614.04
614.9
615.74
616.55
617.39
618.21
619.01
619.86
620.74
621.6
622.41
623.23
624.06
624.86
625.71
626.59
627.47
628.31
629.17
630.01
630.85
631.73
632.62
633.51
634.36
635.24
636.08
636.94
637.81
638.73
639.61
640.45
641.32
642.17
643.04
643.89
644.77
645.67
646.51
647.36
648.18
649
649.89
650.81
651.71
652.6
653.21
654.19
655.04
655.96
656.85
657.77
658.58
659.45
660.29
661.11
662.01
662.92
663.82
664.69
665.55
666.38
667.21
668.14
669.03
669.91
670.78
671.65
672.48
673.29
674.17
675.05
675.94
676.81
677.65
678.49
679.33
680.25
681.14
681.99
682.88
683.73
684.58
685.42
686.32
687.2
688.05
688.95
689.81
690.63
691.46
692.36
693.28
694.16
695.02
695.89
696.69
697.54
698.44
699.31
700.17
701.03
701.87
702.71
703.54
704.39
705.28
706.15
707.03
707.86
708.71
709.56
710.49
711.36
712.2
713.07
713.92
714.76
715.61
716.5
717.39
718.29
719.16
719.98
720.8
721.58
722.48
723.36
724.2
725.06
725.9
726.74
727.62
728.51
729.41
730.3
731.19
732.05
732.89
733.79
734.72
735.61
736.47
737.33
738.16
739.02
739.85
740.73
741.6
742.44
743.28
744.11
744.93
745.78
746.67
747.58
748.44
749.31
750.14
750.98
751.89
752.82
753.73
754.58
755.44
756.27
757.08
757.96
758.82
759.68
760.54
761.41
762.24
763.06
763.96
764.87
765.8
766.58
767.42
768.26
769.06
769.94
770.84
771.7
772.56
773.4
774.23
775.04
775.92
776.8
777.68
778.52
779.37
780.17
780.98
781.88
782.78
783.65
784.5
785.36
786.23
787.06
787.93
788.83
789.74
790.6
791.43
792.26
793.09
793.99
794.89
795.81
796.64
797.45
798.3
799.12
799.98
800.84
801.73
802.58
803.42
804.26
805.11
806.01
806.95
807.86
808.73
809.61
810.47
811.34
812.27
813.18
814.05
814.95
815.82
816.68
817.52
818.43
819.34
820.2
821.07
821.92
822.76
823.63
824.57
825.43
826.27
827.13
827.94
828.77
829.61
830.49
831.33
832.18
833.04
833.88
834.74
835.52
836.41
837.29
838.14
838.99
839.82
840.66
841.48
842.38
843.21
844.06
844.9
845.72
846.54
847.34
848.2
849.09
849.95
850.79
851.62
852.46
853.27
854.16
855.02
855.89
856.74
857.6
858.43
859.25
860.13
861.01
861.91
862.79
863.63
864.45
865.27
866.16
867.04
867.89
868.75
869.56
870.38
871.19
872.05
872.91
873.76
874.59
875.43
876.24
877.04
877.91
878.8
879.69
880.52
881.36
882.18
883.03
883.85
884.7
885.56
886.37
887.25
888
888.79
889.59
890.46
891.34
892.18
893
893.83
894.64
895.45
896.33
897.19
898.02
898.84
899.68
900.46
901.24
902.09
902.94
903.79
904.6
905.43
906.22
907.02
907.89
908.77
909.64
910.47
911.29
912.11
912.94
913.79
914.66
915.52
916.4
917.26
918.08
918.89
919.74
920.65
921.51
922.3
923.14
923.94
924.77
925.58
926.46
927.33
928.19
929.05
929.91
930.77
931.6
932.49
933.4
934.27
935.15
936.01
936.87
937.73
938.64
939.54
940.4
941.26
942.11
942.95
943.8
944.69
945.58
946.43
947.29
948.14
948.92
949.75
950.66
951.54
952.38
953.23
954.07
954.88
955.74
956.63
957.51
958.37
959.24
960.11
960.91
961.74
962.62
963.47
964.32
965.16
965.96
966.78
967.62
968.49
969.32
970.14
970.98
971.8
972.61
973.4
974.25
975.11
975.98
976.81
977.64
978.46
979.25
980.15
981.05
981.92
982.76
983.61
984.45
985.27
986.16
987.05
987.91
988.76
989.62
990.46
991.27
992.17
993.08
993.97
994.82
995.67
996.5
997.32
998.19
999.06
999.92
1000.8
1001.6
1002.4
1003.2
1004
1004.9
1005.8
1006.6
1007.5
1008.3
1009.1
1010
1010.9
1011.7
1012.6
1013.4
1014.3
1015.1
1015.9
1016.8
1017.7
1018.6
1019.4
1020.3
1021.1
1022
1022.9
1023.8
1024.7
1025.5
1026.4
1027.2
1028.1
1029
1029.9
1030.8
1031.7
1032.5
1033.3
1034.2
1035.1
1036
1036.9
1037.7
1038.6
1039.4
1040.3
1041.2
1042.1
1043
1043.8
1044.7
1045.5
1046.4
1047.3
1048.1
1049
1049.8
1050.7
1051.5
1052.4
1053.3
1054.1
1055
1055.9
1056.7
1057.6
1058.5
1059.4
1060.3
1061.1
1062
1062.8
1063.7
1064.6
1065.5
1066.3
1067.2
1068.1
1068.9
1069.8
1070.7
1071.6
1072.5
1073.3
1074.2
1075.1
1076
1076.9
1077.8
1078.6
1079.5
1080.3
1081.2
1082
1082.9
1083.8
1084.7
1085.5
1086.4
1087.2
1088.1
1089
1089.9
1090.7
1091.6
1092.4
1093.3
1094.2
1095.1
1096
1096.9
1097.7
1098.6
1099.5
1100.4
1101.3
1102.2
1103.1
1103.9
1104.8
1105.7
1106.6
1107.5
1108.3
1109.2
1110
1110.9
1111.7
1112.6
1113.5
1114.4
1115.3
1116.2
1117
1117.9
1118.8
1119.8
1120.6
1121.5
1122.4
1123.2
1124.1
1125
1126
1126.8
1127.7
1128.6
1129.4
1130.3
1131.2
1132.1
1132.9
1133.8
1134.6
1135.5
1136.4
1137.3
1138.2
1139.1
1140
1140.8
1141.7
1142.6
1143.5
1144.4
1145.2
1146.1
1146.9
1147.8
1148.7
1149.6
1150.5
1151.3
1152.2
1153.1
1153.9
1154.8
1155.7
1156.5
1157.4
1158.3
1159.1
1160
1160.9
1161.8
1162.6
1163.5
1164.3
1165.1
1166
1167
1167.9
1168.8
1169.7
1170.6
1171.4
1172.4
1173.3
1174.2
1175.1
1175.9
1176.8
1177.6
1178.5
1179.4
1180.3
1181.2
1182
1182.9
1183.8
1184.7
1185.6
1186.5
1187.4
1188.3
1189.1
1190
1191
1191.9
1192.8
1193.7
1194
1194.6
1195.5
1196.4
1197.3
1198.2
1199.1
1200
1200.9
1201.2
1201.8
1202.7
1203.6
1204.5
1205.4
1206.3
1207.1
1208
1208.9
1209.8
1210.7
1211.5
1212.4
1213.2
1214.1
1215.1
1216
1216.8
1217.7
1218.5
1219.4
1220.3
1221.2
1222.1
1222.9
1223.8
1224.7
1225.5
1226.5
1227.4
1228.2
1229.1
1230
1230.8
1231.7
1232.6
1233.5
1234.4
1235.3
1236.2
1237
1237.9
1238.8
1239.7
1240.6
1241.4
1242.3
1243.1
1243.9
1244.8
1245.7
1246.6
1247.4
1248.3
1249.1
1249.9
1250.8
1251.7
1252.5
1253.3
1254.2
1255
1255.8
1256.7
1257.6
1258.5
1259.4
1260.2
1261.1
1262
1262.9
1263.8
1264.6
1265.5
1266.3
1267.2
1268
1268.9
1269.8
1270.7
1271.5
1272.3
1273.1
1274
1274.9
1275.8
1276.6
1277.4
1278.2
1279
1279.9
1280.7
1281.6
1282.4
1283.2
1284.1
1284.9
1285.7
1286.6
1287.4
1288.3
1289.1
1289.9
1290.7
1291.5
1292.3
1293.2
1294
1294.8
1295.7
1296.5
1297.3
1298.2
1299.1
1299.9
1300.8
1301.6
1302.5
1303.2
1304.1
1305
1305.9
1306.7
1307.5
1308.3
1309.1
1310
1310.9
1311.7
1312.6
1313.4
1314.2
1315
1315.9
1316.7
1317.6
1318.4
1319.2
1320
1320.8
1321.7
1322.5
1323.3
1324.2
1325
1325.8
1326.6
1327.4
1328.3
1329.1
1330
1330.8
1331.7
1332.5
1333.3
1334.2
1335.1
1336
1336.9
1337.7
1338.6
1339.4
1340.2
1341.1
1342
1342.8
1343.6
1344.5
1345.3
1346.1
1347
1347.9
1348.8
1349.6
1350.4
1351.2
1352.1
1353
1353.8
1354.7
1355.5
1356.4
1357.2
1358
1358.9
1359.8
1360.6
1361.4
1362.2
1363
1363.8
1364.6
1365.4
1366.2
1367
1367.8
1368.5
1369.3
1370.1
1370.9
1371.7
1372.5
1373.3
1374.1
1374.9
1375.7
1376.5
1377.4
1378.3
1379.1
1379.9
1380.7
1381.5
1382.3
1383.1
1383.9
1384.7
1385.5
1386.2
1387
1387.7
1388.6
1389.4
1390.2
1390.9
1391.7
1392.5
1393.2
1394.1
1394.9
1395.7
1396.5
1397.3
1398
1398.8
1399.5
1400.4
1401.2
1402
1402.8
1403.6
1404.3
1405.1
1405.9
1406.7
1407.5
1408.3
1409.1
1409.9
1410.7
1411.4
1412.2
1413
1413.8
1414.6
1415.4
1416.2
1416.9
1417.7
1418.6
1419.4
1420.2
1421
1421.8
1422.6
1423.3
1424.2
1425
1425.8
1426.6
1427.4
1428.2
1429
1429.8
1430.7
1431.5
1432.3
1433.1
1434
1434.8
1435.6
1436.4
1437.3
1438.1
1439
1439.8
1440.6
1441.4
1442.3
1443.1
1444
1444.8
1445.6
1446.4
1447.2
1448.1
1448.9
1449.7
1450.5
1451.3
1452.1
1452.9
1453.7
1454.5
1455.3
1456.1
1456.9
1457.8
1458.5
1459.3
1460.2
1461
1461.9
1462.7
1463.5
1464.3
1465.1
1466
1466.8
1467.7
1468.6
1469.4
1470.3
1471.1
1471.9
1472.8
1473.7
1474.5
1475.3
1476.1
1476.9
1477.8
1478.7
1479.5
1480.4
1481.2
1482.1
1482.9
1483.7
1484.6
1485.4
1486.3
1487.1
1487.9
1488.8
1489.5
1490.4
1491.2
1492.1
1492.9
1493.7
1494.5
1495.3
1496.2
1497.1
1498
1498.9
1499.7
1500.6
1501.4
1502.3
1503.2
1504
1504.9
1505.8
1506.6
1507.4
1508.3
1509.2
1510.1
1511
1511.8
1512.6
1513.5
1514.3
1515.2
1516.1
1517
1517.8
1518.6
1519.4
1520.3
1521.2
1522
1522.9
1523.7
1524.6
1525.4
1526.2
1527.1
1528
1528.8
1529.7
1530.5
1531.3
1532.2
1533.1
1534
1534.8
1535.7
1536.5
1537.3
1538.2
1539.1
1539.9
1540.8
1541.6
1542.4
1543.2
1544
1544.9
1545.7
1546.5
1547.3
1548.1
1549
1549.8
1550.6
1551.5
1552.3
1553.1
1554
1554.8
1555.6
1556.5
1557.4
1558.2
1559.1
1559.9
1560.7
1561.5
1562.4
1563.2
1564.1
1564.9
1565.7
1566.5
1567.3
1568.2
1569.1
1569.9
1570.8
1571.6
1572.4
1573.2
1574
1574.9
1575.7
1576.5
1577.4
1578.2
1579
1579.8
1580.7
1581.5
1582.4
1583.2
1584.1
1584.9
1585.7
1586.6
1587.4
1588.3
1589.1
1590
1590.8
1591.6
1592.5
1593.3
1594.2
1595
1595.8
1596.6
1597.4
1598.3
1599.2
1600
1600.9
1601.7
1602.5
1603.3
1604.2
1605.1
1605.9
1606.8
1607.6
1608.4
1609.2
1610.1
1611
1611.9
1612.7
1613.5
1614.4
1615.2
1616
1616.9
1617.8
1618.6
1619.4
1620.3
1621.1
1621.9
1622.8
1623.6
1624.5
1625.3
1626.1
1626.9
1627.7
1628.5
1629.4
1630.2
1631
1631.8
1632.6
1633.4
1634.2
1635
1635.8
1636.6
1637.4
1638.2
1639
1639.7
1640.6
1641.4
1642.2
1643
1643.8
1644.6
1645.4
1646.2
1646.7
1647
1647.9
1648.7
1649.5
1649.9
1650.3
1651
1651.8
1652.7
1653.5
1654.3
1655.1
1655.9
1656.7
1657.5
1658.4
1659.3
1660.1
1661
1661.8
1662.6
1663.4
1664.3
1665.2
1666
1666.9
1667.7
1668.5
1669.3
1670.2
1671.1
1672
1672.8
1673.6
1674.4
1675.2
1676.1
1677
1677.8
1678.7
1679.5
1680.3
1681.1
1682
1682.9
1683.7
1684.6
1685.4
1686.2
1687
1687.9
1688.8
1689.7
1690.5
1691.4
1692.2
1693.1
1693.9
1694.8
1695.7
1696.5
1697.4
1698.2
1699
1699.9
1700.7
1701.6
1702.5
1703.3
1704.1
1705
1705.8
1706.7
1707.5
1708.3
1709.2
1710
1710.8
1711.6
1712.5
1713.4
1714.3
1715.1
1715.9
1716.8
1717.6
1718.5
1719.3
1720.2
1721
1721.8
1722.6
1723.4
1724.3
1725.2
1726
1726.8
1727.6
1728.4
1729.2
1730
1730.8
1731.7
1732.4
1733.2
1734
1734.8
1735.6
1736.4
1737.2
1738
1738.7
1739.5
1740.2
1740.9
1741.7
1742.5
1743.3
1744.1
1744.8
1745.6
1746.4
1747.1
1747.9
1748.7
1749.5
1750.3
1751
1751.8
1752.5
1753.3
1754.1
1754.8
1755.6
1756.4
1757.2
1757.9
1758.7
1759.5
1760.2
1761
1761.8
1762.5
1763.3
1764
1764.8
1765.5
1766.3
1767
1767.9
1768.6
1769.4
1770.2
1771
1771.7
1772.5
1773.3
1774.2
1775
1775.7
1776.6
1777.3
1778.2
1779
1779.9
1780.7
1781.5
1782.2
1783.1
1783.8
1784.7
1785.5
1786.3
1787.1
1787.9
1788.7
1789.4
1790.2
1791.1
1791.9
1792.6
1793.5
1794.3
1795
1795.8
1796.7
1797.5
1798.4
1799.2
1800
1800.8
1801.6
1802.4
1803.2
1804
1804.8
