0.041667
0.34444
1.0611
1.7889
2.4778
3.1917
3.8694
4.5778
5.2528
5.9639
6.6444
7.3056
8
8.6889
9.3806
10.061
10.753
11.442
12.133
12.844
13.531
14.219
14.892
15.603
16.292
16.969
17.669
18.361
19.061
19.769
20.492
21.203
21.908
22.639
23.347
24.05
24.744
25.467
26.178
26.881
27.611
28.319
29.014
29.728
30.45
31.167
31.847
32.589
33.269
33.978
34.694
35.403
36.106
36.803
37.533
38.228
38.925
39.606
40.294
40.992
41.667
42.389
43.081
43.775
44.483
45.192
45.911
46.608
47.317
48.006
48.708
49.417
50.136
50.819
51.517
52.225
52.917
53.625
54.311
55.019
55.714
56.428
57.153
57.869
58.578
59.292
60.003
60.717
61.414
62.131
62.808
63.514
64.211
64.925
65.611
66.3
67.011
67.694
68.406
69.089
69.789
70.478
71.183
71.883
72.569
73.25
73.939
74.633
75.319
76.003
76.692
77.381
78.075
78.761
79.469
80.161
80.856
81.556
82.25
82.961
83.639
84.336
85.019
85.711
86.403
87.097
87.775
88.464
89.156
89.844
90.539
91.214
91.897
92.592
93.281
93.972
94.667
95.342
96.017
96.714
97.389
98.064
98.739
99.414
100.1
100.78
101.49
102.18
102.86
103.56
104.26
104.96
105.64
106.34
107.05
107.74
108.45
109.15
109.85
110.54
111.25
111.95
112.64
113.34
114.05
114.75
115.43
116.16
116.84
117.54
118.25
118.95
119.65
120.33
121.04
121.71
122.41
123.1
123.79
124.48
125.16
125.88
126.58
127.27
127.96
128.67
129.36
130.06
130.79
131.49
132.19
132.91
133.64
134.34
135.03
135.75
136.45
137.16
137.89
138.6
139.29
140
140.74
141.44
142.16
142.88
143.59
144.3
145.02
145.74
146.45
147.16
147.88
148.59
149.3
149.97
150.67
151.36
152.05
152.76
153.45
154.14
154.84
155.54
156.23
156.93
157.63
158.33
159.03
159.73
160.45
161.14
161.84
162.55
163.24
163.95
164.64
165.36
166.05
166.75
167.45
168.16
168.85
169.54
170.25
170.94
171.64
172.32
173.02
173.72
174.42
175.13
175.82
176.53
177.24
177.97
178.69
179.4
180.11
180.83
181.54
182.26
182.97
183.68
184.39
185.13
185.84
186.56
187.28
187.99
188.73
189.45
190.18
190.9
191.61
192.36
193.08
193.81
194.52
195.23
195.94
196.65
197.37
198.08
198.76
199.49
200.19
200.91
201.6
202.32
203.03
203.73
204.46
205.15
205.85
206.54
207.25
207.94
208.61
209.31
210
210.69
211.39
212.11
212.82
213.53
214.26
214.98
215.69
216.38
217.09
217.81
218.51
219.24
219.93
220.61
221.34
222.04
222.74
223.43
224.15
224.85
225.57
226.3
227.02
227.71
228.43
229.15
229.86
230.55
231.27
231.97
232.68
233.39
234.12
234.81
235.52
236.26
236.99
237.72
238.43
239.16
239.87
240.6
241.34
242.07
242.79
243.53
244.25
244.97
245.68
246.4
247.12
247.82
248.56
249.26
249.98
250.69
251.41
252.11
252.82
253.52
254.21
254.9
255.6
256.29
256.98
257.66
258.36
259.05
259.75
260.42
261.11
261.78
262.47
263.14
263.82
264.5
265.17
265.87
266.54
267.23
267.89
268.57
269.26
269.94
270.62
271.31
271.97
272.65
273.34
274.02
274.71
275.39
276.07
276.78
277.49
278.19
278.88
279.58
280.27
280.98
281.7
282.39
283.1
283.79
284.51
285.2
285.93
286.63
287.32
288.03
288.73
289.43
290.1
290.8
291.47
292.16
292.85
293.53
294.21
294.89
295.58
296.27
296.94
297.62
298.3
298.98
299.64
300.35
301.02
301.69
302.38
303.08
303.76
304.42
305.12
305.79
306.47
307.16
307.86
308.55
309.23
309.96
310.65
311.36
312.05
312.77
313.47
314.18
314.9
315.61
316.31
317.03
317.75
318.47
319.16
319.88
320.57
321.27
322
322.71
323.41
324.11
324.84
325.56
326.26
326.97
327.67
328.38
329.11
329.84
330.55
331.27
332.01
332.74
333.45
334.18
334.87
335.58
336.29
337.02
337.73
338.44
339.16
339.86
340.56
341.23
341.95
342.63
343.32
344.02
344.73
345.41
346.12
346.83
347.52
348.23
348.91
349.59
350.29
350.97
351.68
352.35
353.04
353.72
354.43
355.12
355.81
356.52
357.2
357.91
358.6
359.31
360
360.69
361.39
362.09
362.79
363.48
364.18
364.87
365.57
366.28
366.98
367.69
368.39
369.1
369.79
370.49
371.19
371.86
372.56
373.24
373.94
374.63
375.31
376.01
376.7
377.39
378.08
378.77
379.46
380.16
380.86
381.56
382.26
382.95
383.66
384.35
385.05
385.73
386.42
387.11
387.79
388.49
389.18
389.87
390.55
391.26
391.95
392.64
393.34
394.03
394.71
395.41
396.11
396.79
397.46
398.16
398.85
399.55
400.22
400.93
401.63
402.32
403.03
403.74
404.45
405.15
405.89
406.61
407.32
408.04
408.76
409.46
410.18
410.89
411.59
412.28
413.02
413.73
414.44
415.14
415.86
416.56
417.28
418.02
418.74
419.45
420.19
420.91
421.63
422.33
423.05
423.76
424.48
425.22
425.93
426.64
427.36
428.08
428.79
429.49
430.21
430.92
431.63
432.35
433.06
433.78
434.48
435.21
435.91
436.6
437.3
437.99
438.67
439.37
440.07
440.76
441.44
442.16
442.85
443.55
444.21
444.93
445.61
446.29
447
447.7
448.39
449.09
449.8
450.51
451.21
451.91
452.61
453.32
454.04
454.75
455.46
456.16
456.89
457.6
458.32
459.01
459.73
460.41
461.12
461.84
462.54
463.25
463.94
464.67
465.36
466.07
466.77
467.46
468.16
468.87
469.59
470.29
470.99
471.7
472.41
473.12
473.83
474.54
475.25
475.96
476.69
477.39
478.12
478.83
479.58
480.3
481.01
481.74
482.45
483.17
483.88
484.6
485.3
486.01
486.73
487.44
488.15
488.85
489.56
490.27
490.99
491.71
492.42
493.13
493.86
494.58
495.29
495.99
496.7
497.41
498.11
498.83
499.54
500.24
500.96
501.69
502.41
503.11
503.83
504.54
505.26
505.99
506.71
507.43
508.14
508.88
509.6
510.31
511.05
511.77
512.49
513.24
513.98
514.72
515.46
516.21
516.96
517.67
518.42
519.16
519.88
520.62
521.34
522.06
522.77
523.52
524.25
524.96
525.7
526.43
527.14
527.88
528.61
529.33
530.06
530.8
531.52
532.23
532.95
533.66
534.38
535.1
535.82
536.52
537.24
537.95
538.66
539.36
540.05
540.76
541.44
542.13
542.82
543.51
544.17
544.86
545.56
546.25
546.92
547.63
548.3
548.99
549.69
550.4
551.09
551.77
552.49
553.18
553.88
554.56
555.25
555.94
556.63
557.33
558.03
558.72
559.42
560.15
560.85
561.56
562.26
562.96
563.65
564.34
565.05
565.74
566.42
567.11
567.81
568.49
569.18
569.88
570.57
571.27
571.97
572.67
573.36
574.05
574.75
575.43
576.13
576.79
577.49
578.17
578.85
579.55
580.23
580.93
581.61
582.32
583.02
583.72
584.41
585.1
585.78
586.49
587.18
587.86
588.54
589.22
589.91
590.6
591.26
591.94
592.62
593.3
593.98
594.67
595.36
596.04
596.73
597.43
598.13
598.8
599.5
600.18
600.87
601.56
602.26
602.95
603.63
604.34
605.03
605.72
606.41
607.09
607.79
608.48
609.2
609.9
610.6
611.32
612.02
612.74
613.41
614.12
614.8
615.5
616.2
616.91
617.61
618.3
619.03
619.73
620.43
621.14
621.84
622.54
623.25
623.96
624.66
625.35
626.08
626.78
627.48
628.16
628.87
629.56
630.25
630.97
631.66
632.35
633.05
633.77
634.48
635.17
635.89
636.59
637.29
638.02
638.73
639.42
640.12
640.84
641.55
642.25
642.95
643.66
644.34
645.05
645.76
646.46
647.14
647.84
648.55
649.24
649.93
650.64
651.33
652
652.7
653.4
654.08
654.76
655.48
656.16
656.86
657.55
658.26
658.94
659.64
660.34
661.03
661.72
662.41
663.13
663.81
664.49
665.19
665.88
666.57
667.27
667.98
668.66
669.36
670.07
670.77
671.49
672.16
672.88
673.55
674.24
674.94
675.62
676.3
676.98
677.68
678.37
679.06
679.27
679.74
680.44
681.14
681.86
682.57
683.27
683.96
684.66
685.36
686.07
686.76
687.45
688.13
688.82
689.52
690.22
690.91
691.6
692.31
693.03
693.74
694.45
694.98
695.16
695.88
696.59
697.3
698
698.71
699.41
700.12
700.84
701.56
702.31
703.05
703.81
704.44
705.4
706.21
707.05
707.84
708.59
709.34
710.07
710.79
711.52
712.22
712.94
713.63
714.36
715.06
715.77
716.45
717.16
717.86
718.55
719.27
719.96
720.64
721.34
722.03
722.73
723.39
724.09
724.77
725.46
726.16
726.86
727.55
728.23
728.95
729.64
730.34
731.03
731.73
732.42
733.11
733.81
734.51
735.19
735.87
736.57
737.24
737.9
738.59
739.26
739.94
740.62
741.33
742.01
742.69
743.4
744.09
744.77
745.45
746.16
746.86
747.55
748.26
748.98
749.67
750.37
751.09
751.79
752.48
753.18
753.87
754.56
755.25
755.94
756.62
757.3
758
758.7
759.38
760.04
760.75
761.27
761.41
762.09
762.79
763.48
764.16
764.84
765.55
766.24
766.92
767.6
768.29
768.96
769.64
770.33
771.02
771.69
772.36
773.06
773.59
774.41
775.08
775.78
776.46
777.17
777.88
778.58
779.29
780
780.72
781.44
782.14
782.31
782.85
783.54
784.23
784.94
785.63
786.32
787.02
787.74
788.43
789.15
789.84
790.54
791.24
791.94
792.66
793.34
794.03
794.72
795.41
796.1
796.78
797.47
798.15
798.84
799.53
800.23
800.91
801.59
802.29
802.98
803.67
804.33
805.02
805.69
806.36
807.04
807.45
807.71
808.38
809.04
809.71
810.38
811.06
811.71
812.39
813.06
813.74
814.43
815.11
815.79
816.46
817.17
817.85
818.01
818.53
819.19
819.87
820.53
821.19
821.87
822.53
822.79
823.19
823.85
824.22
824.52
825.19
825.85
826.51
827.17
827.84
828.5
829.17
829.45
829.84
830.51
831.17
831.85
832.52
833.19
833.85
834.52
834.78
835.19
835.86
836.56
837.23
837.9
838.57
839.27
839.93
840.59
841.27
841.94
842.61
843.27
843.94
844.61
845.27
845.94
846.61
847.29
847.95
848.62
849.3
849.99
850.66
851.35
852.03
852.69
853.38
854.07
854.74
855.4
856.09
856.76
857.43
858.12
858.81
859.48
860.15
860.84
861.53
862.22
862.88
863.58
864.26
864.94
865.63
866.33
867
867.69
868.39
869.08
869.77
870.44
871.13
871.81
872.5
873.21
873.89
874.58
875.26
875.97
876.65
877.33
878.02
878.71
879.39
880.08
880.78
881.47
882.16
882.88
883.58
884.28
884.98
885.7
886.41
887.11
887.84
888.56
889.27
889.98
890.71
891.41
892.12
892.83
893.53
894.25
894.95
895.67
896.37
897.07
897.79
898.5
899.22
899.91
900.63
901.33
902.04
902.75
903.45
904.14
904.86
905.56
906.28
906.96
907.68
908.38
909.1
909.82
910.54
911.26
911.97
912.69
913.41
914.11
914.81
915.5
916.21
916.92
917.64
918.35
919.05
919.78
920.49
921.2
921.9
922.6
923.31
924.02
924.73
925.44
926.15
926.87
927.57
928.29
928.99
929.7
930.42
931.13
931.85
932.56
933.26
933.98
934.69
935.41
936.09
936.81
937.52
938.23
938.95
939.67
940.36
941.05
941.77
942.48
943.17
943.86
944.56
945.26
945.97
946.68
947.39
948.08
948.78
949.48
950.19
950.88
951.58
952.27
952.98
953.69
954.39
955.08
955.78
956.5
957.2
957.89
958.61
959.32
960.02
960.74
961.46
962.16
962.85
963.57
964.27
964.98
965.67
966.38
967.08
967.77
968.49
969.19
969.88
970.58
971.29
971.99
972.67
973.38
974.08
974.77
975.47
976.18
976.88
977.56
978.28
978.98
979.69
980.39
981.12
981.84
982.57
983.31
984.04
984.77
985.51
986.25
986.98
987.69
988.43
989.14
989.86
990.6
991.33
992.04
992.77
993.52
994.25
994.96
995.69
996.41
997.13
997.86
998.57
999.27
999.98
1000.7
1001.4
1002.1
1002.8
1003.5
1004.1
1004.9
1005.6
1006.3
1007
1007.7
1008.4
1009.2
1009.9
1010.6
1011.3
1012
1012.7
1013.3
1014
1014.7
1015.4
1016.1
1016.8
1017.5
1018.2
1018.9
1019.6
1020.3
1021
1021.7
1022.4
1023.1
1023.8
1024.5
1025.2
1025.9
1026.7
1027.4
1028.1
1028.8
1029.5
1030.3
1031
1031.7
1032.4
1033.1
1033.8
1034.5
1035.2
1035.9
1036.6
1037.3
1038.1
1038.8
1039.5
1040.2
1040.9
1041.7
1042.4
1043.2
1043.9
1044.6
1045.4
1046.1
1046.8
1047.5
1048.3
1049
1049.7
1050.4
1051.1
1051.9
1052.6
1053.3
1054
1054.7
1055.4
1056.1
1056.8
1057.5
1058.2
1058.9
1059.6
1060.3
1061
1061.7
1062.4
1063.1
1063.8
1064.5
1065.2
1065.9
1066.6
1067.3
1068
1068.7
1069.4
1070.1
1070.8
1071.6
1072.3
1073
1073.7
1074.4
1075.1
1075.8
1076.5
1077.2
1077.9
1078.6
1079.3
1080
1080.7
1081.5
1082.2
1082.8
1083.6
1084.3
1085
1085.7
1086.4
1087.1
1087.8
1088.5
1089.2
1089.9
1090.7
1091.4
1092.1
1092.8
1093.5
1094.2
1094.9
1095.7
1096.4
1097.1
1097.8
1098.5
1099.2
1099.9
1100.6
1101.3
1102
1102.7
1103.4
1104.2
1104.8
1105.6
1106.3
1107
1107.7
1108.4
1109.1
1109.8
1110.5
1111.2
1111.9
1112.6
1113.3
1114
1114.8
1115.5
1116.2
1117
1117.7
1118.4
1119.2
1119.9
1120.6
1121.3
1122.1
1122.8
1123.5
1124.2
1125
1125.7
1126.4
1127.2
1127.9
1128.6
1129.4
1130.1
1130.8
1131.5
1132.3
1133
1133.7
1134.4
1135.1
1135.9
1136.6
1137.3
1138.1
1138.8
1139.6
1140.3
1141
1141.7
1142.4
1143.2
1143.9
1144.6
1145.3
1146
1146.8
1147.5
1148.2
1148.9
1149.6
1150.3
1151.1
1151.8
1152.5
1153.3
1154
1154.7
1155.4
1156.1
1156.8
1157.6
1158.3
1159
1159.7
1160.4
1161.1
1161.9
1162.6
1163.3
1164.1
1164.8
1165.5
1166.2
1167
1167.7
1168.4
1169.1
1169.8
1170.5
1171.3
1172
1172.7
1173.4
1174.2
1174.9
1175.6
1176.3
1177
1177.8
1178.5
1179.2
1179.9
1180.6
1181.4
1182.1
1182.8
1183.6
1184.3
1185
1185.7
1186.5
1187.2
1187.9
1188.7
1189.4
1190.1
1190.8
1191.6
1192.3
1193
1193.7
1194.5
1195.2
1195.9
1196.7
1197.4
1198.1
1198.9
1199.6
1200.3
1201
1201.8
1202.5
1203.2
1203.9
1204.6
1205.4
1206.1
1206.9
1207.6
1208.3
1209.1
1209.8
1210.6
1211.3
1212
1212.8
1213.5
1214.2
1214.9
1215.7
1216.4
1217.1
1217.9
1218.6
1219.3
1220
1220.8
1221.5
1222.2
1222.9
1223.7
1224.4
1225.1
1225.8
1226.5
1227.3
1228
1228.7
1229.4
1230.2
1230.9
1231.6
1232.4
1233.1
1233.8
1234.6
1235.3
1236
1236.7
1237.4
1238.2
1238.9
1239.6
1240.3
1241
1241.8
1242.5
1243.2
1243.9
1244.6
1245.4
1246.1
1246.8
1247.5
1248.3
1249
1249.7
1250.4
1251.2
1251.9
1252.6
1253.3
1254.1
1254.8
1255.6
1256.3
1257.1
1257.8
1258.5
1259.3
1260
1260.7
1261.5
1262.2
1262.9
1263.6
1264.3
1265
1265.8
1266.5
1267.2
1267.9
1268.7
1269.4
1270.1
1270.8
1271.6
1272.3
1273
1273.7
1274.4
1275.2
1275.9
1276.6
1277.3
1278
1278.8
1279.5
1280.2
1280.9
1281.6
1282.3
1283.1
1283.8
1284.5
1285.2
1285.9
1286.7
1287.4
1288.1
1288.8
1289.5
1290.2
1291
1291.7
1292.4
1293.1
1293.9
1294.6
1295.3
1296.1
1296.8
1297.5
1298.3
1299
1299.7
1300.4
1301.1
1301.9
1302.6
1303.3
1304
1304.7
1305.5
1306.2
1306.9
1307.7
1308.4
1309.2
1309.9
1310.6
1311.4
1312.1
1312.8
1313.6
1314.3
1315.1
1315.8
1316.6
1317.3
1318
1318.8
1319.5
1320.3
1321.1
1321.8
1322.6
1323.3
1324
1324.8
1325.5
1326.2
1326.9
1327.7
1328.4
1329.1
1329.9
1330.6
1331.4
1332.1
1332.8
1333.6
1334.3
1335
1335.8
1336.5
1337.2
1337.9
1338.7
1339.4
1340.1
1340.8
1341.5
1342.3
1343
1343.7
1344.5
1345.2
1345.9
1346.6
1347.3
1348
1348.8
1349.5
1350.2
1350.9
1351.7
1352.4
1353.2
1353.9
1354.6
1355.3
1356.1
1356.8
1357.5
1358.3
1359
1359.7
1360.4
1361.1
1361.8
1362.5
1363.2
1364
1364.7
1365.4
1366.2
1366.9
1367.6
1368.3
1369
1369.8
1370.5
1371.2
1371.9
1372.6
1373.4
1374.1
1374.9
1375.6
1376.3
1377.1
1377.8
1378.6
1379.3
1380
1380.7
1381.5
1382.2
1382.9
1383.6
1384.3
1385.1
1385.8
1386.5
1387.2
1388
1388.7
1389.4
1390.1
1390.9
1391.6
1392.3
1393
1393.8
1394.5
1395.2
1396
1396.7
1397.4
1398.2
1398.9
1399.6
1400.4
1401.1
1401.8
1402.6
1403.3
1404
1404.8
1405.5
1406.2
1407
1407.7
1408.5
1409.2
1409.9
1410.7
1411.4
1412.1
1412.9
1413.6
1414.4
1415.1
1415.9
1416.6
1417.3
1418.1
1418.8
1419.6
1420.3
1421
1421.8
1422.5
1423.2
1424
1424.7
1425.4
1426.2
1426.9
1427.6
1428.3
1429.1
1429.8
1430.5
1431.2
1432
1432.7
1433.4
1434.1
1434.9
1435.6
1436.3
1437
1437.8
1438.5
1439.2
1440
1440.7
1441.4
1442.1
1442.9
1443.6
1444.3
1445
1445.8
1446.5
1447.2
1448
1448.6
1449.4
1450.1
1450.8
1451.5
1452.3
1453
1453.7
1454.5
1455.2
1455.9
1456.6
1457.4
1458.1
1458.8
1459.6
1460.3
1461
1461.8
1462.6
1463.3
1464
1464.8
1465.5
1466.3
1467
1467.7
1468.5
1469.2
1469.9
1470.7
1471.4
1472.1
1472.8
1473.6
1474.3
1475
1475.8
1476.5
1477.3
1478
1478.8
1479.5
1480.2
1481
1481.7
1482.4
1483.2
1483.9
1484.7
1485.4
1486.2
1486.9
1487.6
1488.4
1489.1
1489.9
1490.6
1491.3
1492.1
1492.8
1493.5
1494.2
1495
1495.7
1496.4
1497.2
1497.9
1498.6
1499.4
1500.1
1500.8
1501.6
1502.3
1503.1
1503.8
1504.5
1505.3
1506
1506.8
1507.5
1508.3
1509
1509.8
1510.6
1511.3
1512
1512.8
1513.5
1514.3
1515
1515.8
1516.5
1517.2
1518
1518.7
1519.4
1520.2
1520.9
1521.7
1522.4
1523.1
1523.9
1524.6
1525.4
1526.1
1526.8
1527.6
1528.3
1529.1
1529.8
1530.5
1531.3
1532
1532.8
1533.5
1534.3
1535
1535.7
1536.5
1537.2
1537.9
1538.6
1539.4
1540.1
1540.8
1541.5
1542.3
1543
1543.7
1544.5
1545.2
1546
1546.7
1547.4
1548.2
1548.9
1549.6
1550.4
1551.1
1551.8
1552.6
1553.3
1554
1554.8
1555.5
1556.2
1557
1557.7
1558.4
1559.2
1559.9
1560.6
1561.3
1562.1
1562.8
1563.5
1564.2
1565
1565.7
1566.4
1567.1
1567.9
1568.6
1569.3
1570
1570.8
1571.5
1572.2
1572.9
1573.6
1574.3
1575
1575.8
1576.5
1577.2
1577.9
1578.6
1579.4
1580.1
1580.8
1581.5
1582.2
1583
1583.7
1584.4
1585.1
1585.9
1586.6
1587.3
1588
1588.7
1589.4
1590.2
1590.9
1591.6
1592.3
1593
1593.7
1594.5
1595.2
1595.9
1596.6
1597.3
1598.1
1598.8
1599.5
1600.2
1601
1601.7
1602.4
1603.1
1603.8
1604.5
1605.3
1606
1606.7
1607.4
1608.1
1608.9
1609.6
1610.3
1611
1611.7
1612.4
1613.1
1613.9
1614.6
1615.3
1616
1616.7
1617.5
1618.2
1618.9
1619.7
1620.4
1621.1
1621.9
1622.6
1623.3
1624
1624.8
1625.5
1626.2
1626.9
1627.6
1628.3
1629
1629.8
1630.5
1631.2
1631.9
1632.7
1633.4
1634.1
1634.9
1635.6
1636.3
1637
1637.8
1638.5
1639.2
1640
1640.7
1641.4
1642.1
1642.9
1643.6
1644.3
1645.1
1645.8
1646.5
1647.2
1647.9
1648.6
1649.3
1650.1
1650.8
1651.5
1652.2
1652.9
1653.7
1654.4
1655.1
1655.9
1656.6
1657.3
1658.1
1658.8
1659.5
1660.2
1661
1661.7
1662.4
1663.1
1663.9
1664.6
1665.3
1666.1
1666.8
1667.5
1668.3
1669
1669.7
1670.4
1671.2
1671.9
1672.6
1673.3
1674
1674.8
1675.5
1676.2
1676.9
1677.7
1678.4
1679.1
1679.8
1680.6
1681.3
1682
1682.7
1683.4
1684.2
1684.9
1685.6
1686.3
1687
1687.7
1688.5
1689.2
1689.9
1690.6
1691.3
1692.1
1692.8
1693.5
1694.2
1694.9
1695.7
1696.4
1697
1697.8
1698.5
1699.2
1699.9
1700.6
1701.4
1702.1
1702.8
1703.5
1704.2
1705
1705.7
1706.4
1707.1
1707.9
1708.6
1709.3
1710
1710.7
1711.5
1712.2
1712.9
1713.6
1714.4
1715.1
1715.8
1716.5
1717.3
1718
1718.7
1719.4
1720.2
1720.9
1721.6
1722.4
1723.1
1723.8
1724.6
1725.3
1726.1
1726.8
1727.6
1728.3
1729
1729.8
1730.5
1731.2
1732
1732.7
1733.5
1734.2
1734.9
1735.7
1736.4
1737.1
1737.9
1738.6
1739.3
1740.1
1740.8
1741.5
1742.2
1742.9
1743.7
1744.4
1745.1
1745.8
1746.5
1747.3
1748
1748.7
1749.4
1750.1
1750.9
1751.6
1752.3
1753.1
1753.8
1754.5
1755.2
1756
1756.7
1757.4
1758.2
1758.9
1759.6
1760.3
1761.1
1761.8
1762.5
1763.3
1764
1764.7
1765.4
1766.2
1766.9
1767.6
1768.4
1769.1
1769.8
1770.5
1771.3
1772
1772.7
1773.5
1774.2
1774.9
1775.7
1776.4
1777.1
1777.8
1778.5
1779.3
1780
1780.7
1781.4
1782.1
1782.9
1783.6
1784.3
1785
1785.7
1786.4
1787.2
1787.9
1788.6
1789.3
1790.1
1790.8
1791.5
1792.2
1792.9
1793.6
1794.4
1795.1
1795.8
1796.5
1797.3
1798
1798.7
1799.4
1800.2
1800.9
1801.6
1802.4
1803.1
1803.8
1804.5
1805.2
