0.061111
0.47222
1.6194
2.6833
3.6833
4.7333
5.8167
6.975
7.9778
9.0306
10.128
11.156
12.086
13.053
14.125
15.147
16.039
17.092
18.292
19.383
20.358
21.472
22.547
23.475
24.011
25.131
26.256
27.303
28.325
29.381
30.525
31.622
32.617
33.664
34.708
35.758
36.775
37.803
38.836
39.903
40.831
41.808
42.947
43.986
44.9
45.894
46.947
48.028
49.019
50.039
51.094
52.147
53.092
54.2
55.339
56.425
57.406
58.406
59.411
60.478
61.5
62.494
63.617
64.606
65.625
66.761
67.892
68.867
69.814
70.878
71.936
72.931
73.994
75.078
76.097
77
78.114
79.242
80.317
81.381
82.447
83.472
84.486
85.497
86.489
87.517
88.5
89.514
90.6
91.672
92.619
93.633
94.697
95.781
96.833
97.864
98.964
100.02
100.94
101.96
103.09
104.18
105.16
106.15
107.14
108.23
109.24
110.24
111.35
112.39
113.33
114.42
115.52
116.51
117.46
118.54
119.5
120.53
121.55
122.54
123.53
124.44
125.42
126.53
127.69
128.7
129.73
130.78
131.86
132.89
133.93
135.03
136.08
137
138.04
139.18
140.26
141.23
142.21
143.18
144.27
145.28
146.33
147.45
148.53
149.59
150.72
151.84
152.83
153.88
154.91
156.07
157.13
158.16
159.21
160.24
161.13
162.17
163.31
164.36
165.32
166.31
167.32
168.33
169.25
170.29
171.33
172.34
173.22
174.37
175.5
176.53
177.5
178.49
179.55
180.67
181.71
182.75
183.82
184.86
185.79
186.72
187.75
188.88
189.76
190.54
191.34
192.27
193.15
194.07
195.33
196.58
197.68
198.95
200.13
201.32
202.41
203.48
204.65
205.85
206.93
207.9
208.93
210.09
211.22
212.21
213.29
214.35
215.34
216.31
217.3
218.32
219.37
220.39
221.33
222.42
223.56
224.62
225.49
226.37
227.36
228.52
229.6
230.65
231.76
232.79
233.77
234.82
235.86
236.91
237.86
238.84
239.93
241.1
242.1
243.06
244.04
244.94
246
247.17
248.32
249.32
250.38
251.45
252.56
253.54
254.54
255.64
256.7
257.66
258.74
259.91
260.98
261.99
263.02
264.12
265.23
266.22
267.27
268.34
269.4
270.45
271.45
272.46
273.5
274.44
275.41
276.61
277.74
278.76
279.83
280.92
281.97
282.92
283.89
284.89
285.91
286.81
287.76
288.93
290.04
291.1
292.14
293.19
294.31
295.31
296.31
297.39
298.44
299.33
300.35
301.49
302.59
303.56
304.56
305.62
306.74
307.77
308.66
309.64
310.63
311.52
312.64
313.81
314.9
315.88
316.9
317.98
319.02
320.05
321.1
322.14
323.06
324.11
325.17
326.21
327.18
328.18
329.2
330.34
331.4
332.41
333.5
334.59
335.54
336.52
337.6
338.74
339.78
340.88
342.02
343.19
344.23
345.3
346.38
347.44
348.53
349.63
350.71
351.79
352.77
353.78
354.97
356.03
356.96
357.93
358.94
360
360.99
362.02
363.07
364.1
364.99
366.02
367.1
368.11
369.11
370.09
371.16
372.3
373.32
374.28
375.34
376.45
377.34
378.3
379.4
380.54
381.58
382.64
383.73
384.82
385.82
386.87
387.94
388.91
389.9
390.95
392.04
393.11
394.1
394.59
395.58
396.62
397.6
398.48
399.48
400.58
401.64
402.79
403.94
405.02
406.02
407.02
407.54
408.7
409.73
410.77
411.88
412.89
413.85
414.93
416.07
417.11
418.08
419.11
420.27
421.36
422.31
423.34
424.36
425.35
426.39
427.45
428.5
429.56
430.52
431.46
432.61
433.73
434.68
435.72
436.77
437.81
438.92
440.06
441.13
442.02
443.02
444.2
445.33
446.32
447.39
448.43
449.47
450.54
451.63
452.69
453.72
454.66
455.65
456.79
457.88
458.85
459.84
460.91
462.04
463.05
464.06
465.12
466.17
467.06
468.15
469.29
470.32
471.3
472.31
473.28
474.33
475.33
476.32
477.35
478.4
479.37
480.44
481.49
482.53
483.44
484.41
485.4
486.5
487.52
488.54
489.62
490.63
491.49
492.54
493.65
494.73
495.67
496.67
497.73
498.83
499.83
500.85
501.86
502.83
503.81
504.83
505.87
506.89
507.89
508.39
509.41
510.56
511.65
512.63
513.65
514.7
515.67
516.61
517.58
518.66
519.61
520.56
521.59
522.79
523.81
524.81
525.88
526.9
527.92
528.94
530.01
531.04
531.96
532.91
533.99
535.09
536.03
537.02
538.02
539.01
540.06
541.09
542.16
543.23
544.23
545.21
546.39
547.49
548.4
549.43
550.5
551.52
552.61
553.73
554.77
555.7
556.6
557.52
558.69
559.73
560.83
561.92
562.92
563.9
564.99
566.05
567.11
568.11
569.08
570.19
571.29
572.27
573.19
574.18
575.16
576.12
577.13
578.17
579.24
580.16
581.01
582.15
583.26
584.26
585.28
586.35
587.38
588.41
589.54
590.59
591.66
592.67
593.64
594.71
595.8
596.84
597.76
598.76
599.86
600.99
601.97
603.02
604.11
605.06
606.04
607.09
608.11
609.09
609.98
610.95
612.04
613.06
614
614.99
615.99
616.9
617.92
619.02
620.07
621.15
622.15
623.16
624.31
625.41
626.35
627.37
628.41
629.42
630.46
631.53
632.56
633.54
634.41
635.28
636.36
637.47
638.47
639.48
640.5
641.48
642.5
643.58
644.62
645.59
646.57
647.57
648.72
649.77
650.75
651.78
652.8
653.88
654.87
655.86
656.91
657.97
658.91
660.02
661.19
662.18
663.11
664.08
665.06
666.17
667.22
668.27
669.29
670.26
671.12
672.12
673.09
674.11
675.11
676.06
676.98
678.01
678.99
679.94
681.01
682.09
683
684.06
685.18
686.25
687.21
688.18
689.18
690.29
691.28
692.21
693.23
694.29
695.26
696.39
697.49
698.53
699.48
700.46
701.47
702.61
703.65
704.65
705.65
706.59
707.45
708.27
709.05
709.86
710.69
711.45
712.17
712.95
714.3
715.54
716.48
717.3
718.11
718.86
720.07
721.21
722.25
723.27
724.37
725.47
726.6
727.71
728.8
729.73
730.57
731.45
732.46
733.5
734.54
735.61
736.61
737.5
738.46
739.36
740.33
741.4
742.48
743.43
744.33
745.17
745.94
746.7
747.45
748.19
748.86
749.66
750.69
751.67
752.62
753.77
754.86
756.06
757.25
758.35
759.48
760.6
761.66
762.71
763.71
764.74
765.79
766.79
767.94
769.09
770.2
771.25
772.14
773.01
774.15
775.26
776.25
777.38
778.51
779.59
780.68
781.72
782.73
783.73
784.67
785.55
786.47
787.57
788.69
789.71
790.73
791.85
793.02
794.1
795.1
796.07
797.05
798.15
799.19
800.19
801.25
802.3
803.22
804.14
805.16
806.23
807.26
808.17
809.1
810.28
811.38
812.31
813.27
814.27
815.24
816.24
817.26
818.26
819.29
820.25
821.19
822.2
823.22
824.18
825.11
826.06
827.08
828.09
828.97
829.92
831.11
832.21
833.2
834.41
835.65
836.71
837.59
838.54
839.64
840.81
841.83
842.86
843.94
844.98
846.16
847.3
848.39
849.36
850.24
851.22
852.44
853.51
854.56
855.67
856.76
857.86
859.05
860.21
861.27
862.22
863.17
864.29
865.4
866.43
867.38
868.33
869.33
870.49
871.48
872.4
873.48
874.54
875.52
876.63
877.77
878.79
879.7
880.68
881.74
882.75
883.67
884.65
885.66
886.56
887.56
888.67
889.71
890.64
891.59
892.56
893.49
894.44
895.43
896.39
897.4
898.27
899.13
900.08
901.04
901.94
902.96
904.01
904.99
905.99
907.08
908.15
909.25
910.21
911.09
912.19
913.37
914.41
915.41
916.5
917.54
918.52
919.56
920.64
921.58
922.45
923.35
924.39
925.29
926.2
927.38
928.5
929.51
930.67
931.74
932.66
933.51
934.44
935.44
936.43
937.46
938.52
939.51
940.41
941.38
942.52
943.58
944.48
945.35
946.26
947.19
948.14
949.13
950.1
951.16
952.1
953.03
954.17
955.27
956.21
957.12
958.02
958.96
959.92
960.88
961.89
962.99
963.93
964.82
965.92
966.92
967.76
968.64
969.67
970.68
971.64
972.77
973.84
974.82
975.67
976.53
977.58
978.76
979.82
980.87
981.9
982.81
983.72
984.64
985.52
986.38
987.2
987.95
988.66
989.48
990.45
991.59
992.66
993.76
994.88
995.99
997.17
998.29
999.38
1000.4
1001.5
1002.6
1003.6
1004.6
1005.4
1006.4
1007.4
1008.6
1009.6
1010.6
1011.7
1012.6
1013.6
1014.5
1015.3
1016.1
1017
1017.8
1018.6
1019.4
1020.8
1022
1023.1
1024.3
1025.4
1026.6
1027.7
1028.8
1029.9
1031
1032.2
1033.2
1034.4
1035.5
1036.5
1037.6
1038.7
1039.8
1040.9
1041.8
1042.7
1043.8
1045
1045.9
1046.9
1048.1
1049.1
1050.1
1051
1052
1053.1
1054.1
1055
1056.2
1057.3
1058.3
1059.3
1060.4
1061.4
1062.5
1063.6
1064.7
1065.8
1066.7
1067.8
1068.9
1069.9
1071
1072
1073
1074.1
1075.1
1076
1077.1
1078.1
1079.1
1080.2
1081.2
1082.3
1083.3
1084.2
1085.3
1086.4
1087.5
1088.3
1089.3
1090.3
1091.4
1092.5
1093.5
1094.6
1095.4
1096.4
1097.3
1098.5
1099.5
1100.5
1101.6
1102.6
1103.6
1104.6
1105.7
1106.6
1107.5
1108.5
1109.5
1110.7
1111.7
1112.7
1113.7
1114.6
1115.7
1116.8
1117.9
1118.8
1119.9
1120.9
1122
1123
1124.1
1125.1
1126.1
1127
1128
1129.1
1130.3
1131.3
1132.4
1133.5
1134.7
1135.8
1136.9
1137.9
1138.8
1140
1141
1142
1143
1143.9
1144.7
1145.8
1146.9
1147.9
1148.8
1149.7
1150.7
1151.6
1152.5
1153.3
1154.2
1155
1155.8
1156.6
1157.6
1158.6
1159.5
1160.4
1161.3
1162.3
1163.2
1164
1164.9
1165.9
1166.7
1167.5
1168.4
1169.4
1170.5
1171.6
1172.7
1173.7
1174.8
1175.9
1177
1178
1179.1
1180.1
1181.1
1182.2
1183.3
1184.3
1185.3
1186.3
1187.2
1188.2
1189.4
1190.6
1191.7
1192.7
1193.9
1195.1
1196.2
1197.3
1198.4
1199.5
1200.8
1201.8
1202.8
1203.9
1205
1206.1
1207.2
1208.3
1209.2
1210.3
1211.4
1212.4
1213.4
1214.4
1215.5
1216.5
1217.6
1218.6
1219.6
1220.6
1221.5
1222.4
1223.4
1224.5
1225.7
1226.7
1227.7
1228.6
1229.5
1230.4
1231.4
1232.2
1233
1234
1234.9
1235.9
1236.8
1237.7
1238.7
1239.6
1240.4
1241.3
1242.3
1243.1
1243.9
1244.6
1245.4
1246.6
1247.7
1248.8
1249.8
1250.8
1251.7
1252.5
1253.4
1254.6
1255.7
1256.5
1257.4
1258.3
1259.3
1260.5
1261.5
1262.4
1263.5
1264.5
1265.3
1266.2
1267.2
1268.2
1269.2
1269.7
1270.6
1271.6
1272.6
1273.5
1274.4
1275.4
1276.3
1277.1
1278
1279
1280
1280.9
1281.9
1282.9
1284
1284.9
1286
1287
1288.1
1289.1
1290.3
1291.4
1292.5
1293.5
1294.6
1295.7
1296.8
1297.9
1298.9
1300
1301
1302.1
1303.2
1304.3
1305.3
1306.2
1307.3
1308.5
1309.5
1310.4
1311.3
1312.3
1313.3
1314.4
1315.4
1316.5
1317.4
1318.3
1319.3
1320.3
1321.3
1322.3
1323.4
1324.3
1325.2
1326.2
1327.2
1328.2
1329.1
1330
1331.1
1332.2
1333.2
1334.2
1335.3
1336.2
1336.7
1337.8
1339
1340
1341
1342
1343.1
1344
1345.1
1346
1347
1347.8
1348.7
1349.7
1350.7
1351.6
1352.4
1353.4
1354.2
1355
1355.9
1356.9
1357.7
1358.5
1359.4
1360.5
1361.5
1362.5
1363.6
1364.7
1365.6
1366.5
1367.5
1368.6
1369.5
1370.5
1371.5
1372.4
1373.4
1374.5
1375.5
1376.4
1377.4
1378.3
1379.1
1380.2
1381.2
1382.1
1383.1
1384.1
1385
1386.1
1387.2
1388.2
1389.2
1390.2
1391.1
1392.2
1393.3
1394.3
1395.2
1396.2
1397.2
1398.2
1399.1
1400.1
1401.1
1402.2
1403.2
1404.2
1405.3
1406.3
1407.3
1408.2
1409.2
1410.3
1411.3
1412.4
1413.4
1414.3
1415.3
1416.4
1417.4
1418.4
1419.4
1420.4
1421.5
1422.6
1423.5
1424.6
1425.5
1426.3
1427.3
1428.5
1429.5
1430.3
1431.3
1432.3
1433.1
1434
1434.9
1435.9
1436.7
1437.6
1438.6
1439.6
1440.6
1441.6
1442.5
1443.3
1444.3
1445.2
1446.2
1447.2
1448.1
1449
1449.8
1450.6
1451.5
1452.4
1453.4
1454.5
1455.4
1456.3
1457.2
1458.3
1459.3
1460.2
1461.1
1462
1462.8
1463.7
1464.6
1465.6
1466.4
1467.2
1467.9
1468.6
1469.3
1470
1471.3
1472.4
1473.3
1474.3
1475.4
1476.5
1477.5
1478.4
1479.4
1480.4
1481.5
1482.7
1483.8
1484.8
1485.9
1486.9
1487.9
1488.9
1490
1491.1
1492.1
1493.1
1494.1
1495.1
1496
1497
1498
1499
1500.2
1501.2
1502.2
1503.2
1504.1
1504.8
1505.9
1506.9
1507.8
1508.6
1509.5
1510.5
1511.4
1512.4
1513.4
1514.3
1515.1
1516
1517
1518.2
1519.3
1520.4
1521.4
1522.4
1523.4
1524.5
1525.6
1526.5
1527.5
1528.5
1529.5
1530.6
1531.6
1532.4
1533.3
1534.3
1535.2
1536.1
1537.3
1538.4
1539.4
1540.5
1541.6
1542.6
1543.6
1544.6
1545.4
1546.3
1547.1
1548
1548.9
1549.9
1550.7
1551.6
1552.6
1553.6
1554.5
1555.4
1556.3
1557.1
1558.3
1559.3
1560.4
1561.4
1562.4
1563.3
1564.3
1565.2
1566.1
1567
1567.9
1568.8
1569.6
1570.5
1571.5
1572.6
1573.6
1574.5
1575.4
1576.4
1577.1
1578
1578.9
1579.8
1580.7
1581.4
1582.2
1583.2
1584.4
1585.3
1586.1
1587
1587.9
1588.7
1589.6
1590.6
1591.7
1592.7
1593.5
1594.3
1595.2
1596.2
1597.1
1598
1599
1600
1601
1602
1603
1603.9
1604.8
1605.6
1606.4
1607.2
1608.2
1609.2
1610.1
1611
1612
1613
1614
1615
1616
1617
1617.8
1618.7
1619.7
1620.7
1621.6
1622.5
1623.5
1624.5
1625.4
1626.4
1627.4
1628.4
1629.4
1630.4
1631.5
1632.7
1633.8
1634.8
1635.8
1636.8
1637.8
1638.9
1640
1641.1
1642.2
1643.3
1644.5
1645.6
1646.7
1647.8
1648.8
1649.9
1651
1652.1
1653.2
1654.1
1655.2
1656.3
1657.3
1658.3
1659.4
1660.5
1661.4
1662.4
1663.4
1664.3
1665.1
1666
1667.1
1668.2
1669.2
1670.2
1671.3
1672.3
1673.2
1674.3
1675.3
1676.2
1677.1
1678
1678.9
1679.9
1681
1682
1683.1
1684
1685
1686.2
1687.2
1688.2
1689.2
1690.2
1691
1691.9
1692.8
1693.7
1694.6
1695.4
1696.2
1697
1697.8
1698.6
1699.4
1700.1
1701
1701.8
1702.6
1703.6
1704.7
1705.7
1706.5
1707.3
1708.2
1709.2
1710.2
1711.1
1712
1713.1
1714.1
1715
1716.1
1717.2
1718.1
1719.1
1720.1
1721.1
1722.3
1723.4
1724.5
1725.5
1726.6
1727.6
1728.7
1729.7
1730.6
1731.6
1732.6
1733.6
1734.6
1735.7
1736.6
1737.5
1738.5
1739.6
1740.7
1741.6
1742.5
1743.3
1744.1
1744.7
1745.5
1746.9
1748
1749.1
1750.2
1751.3
1752.3
1753.2
1754.3
1755.4
1756.3
1757.1
1758.1
1759.3
1760.4
1761.4
1762.3
1763.4
1764.4
1765.4
1766.3
1767.2
1768.3
1769.3
1770.3
1771.4
1772.4
1773.4
1774.3
1775.2
1776.3
1777.4
1778.3
1779.2
1780.1
1781.2
1782.3
1783.2
1784.1
1785
1785.9
1786.7
1787.7
1788.8
1789.8
1790.8
1791.8
1792.8
1793.9
1795
1796
1797
1797.8
1798.6
1799.5
1800.4
1801.6
1802.8
1803.8
1804.7
1805.5
