0.058333
0.86111
2.0167
3.175
4.3139
5.4583
6.55
7.6167
8.7944
9.9111
11.003
12.089
13.133
14.278
15.408
16.494
17.575
18.639
19.697
20.85
21.958
23.044
24.103
25.169
26.317
27.492
28.6
29.714
30.858
31.986
33.183
34.339
35.431
36.544
37.636
38.767
39.939
41.019
42.1
43.164
44.325
45.45
46.575
47.639
48.7
49.803
50.9
52.011
53.097
54.106
55.119
56.233
57.311
58.4
59.442
60.472
61.5
62.625
63.714
64.808
65.844
66.878
67.972
69.083
70.158
71.242
72.275
73.269
74.392
75.469
76.528
77.592
78.6
79.628
80.736
81.819
82.875
83.919
84.914
85.458
87.081
88.142
89.231
90.261
91.261
92.356
93.469
94.503
95.567
96.617
97.633
98.753
99.864
100.93
102
103.03
104.14
105.26
106.35
107.43
108.52
109.56
110.7
111.82
112.91
113.96
115.04
116.17
117.3
118.41
119.5
120.59
121.7
122.84
123.97
125.08
126.14
126.68
128.34
129.49
130.58
131.68
132.74
133.86
134.97
136.07
137.16
138.22
139.26
140.4
141.5
142.57
143.68
144.71
145.82
146.94
148.07
149.16
150.24
151.28
152.42
153.55
154.61
155.71
156.76
157.81
158.95
160.03
161.08
162.16
163.16
164.29
165.4
166.46
167.53
168.6
169.66
170.8
171.91
172.99
174.07
175.13
176.25
177.4
178.49
179.56
180.68
181.74
182.9
184.03
185.09
186.19
187.23
188.36
189.51
190.57
191.65
192.72
193.33
194.88
195.99
197.04
198.09
199.07
200.2
201.27
202.37
203.41
204.47
205.52
206.65
207.76
208.89
209.97
211.01
212.19
213.32
214.44
215.55
216.6
217.69
218.83
219.93
221.04
222.08
223.12
223.64
225.31
226.37
227.44
228.45
229.47
230.56
231.64
232.66
233.7
234.71
235.74
236.85
237.93
238.98
240.04
241.06
242.03
243.33
244.42
245.52
246.58
247.09
248.19
249.75
250.83
251.94
252.56
254.07
255.21
256.31
257.39
258.23
259.53
260.67
261.83
262.91
263.52
265.05
266.18
267.32
268.41
269.48
270.57
271.61
272.75
273.86
274.95
276.01
277.05
278.18
279.24
280.41
281.49
282.56
283.64
284.78
285.91
287.02
287.97
289.06
290.34
291.46
292.56
293.09
294.65
295.79
296.93
298.01
298.62
300.13
301.16
302.31
303.39
303.9
305.44
306.48
307.48
308.58
309.64
310.66
311.68
312.67
313.66
314.76
315.79
316.83
317.87
318.89
319.94
321.07
322.1
323.15
324.18
325.19
326.27
327.37
328.43
329.48
330.56
331.59
332.74
333.86
334.91
335.97
337
338.07
339.15
339.58
341.16
342.19
343.17
344.22
345.3
346.3
347.32
348.32
349.32
350.38
351.47
352.51
353.52
354.56
355.6
356.67
357.77
358.81
359.81
360.84
361.91
363.01
363.92
365.15
366.19
367.18
368.29
369.33
370.43
371.47
372.11
373.54
374.67
375.73
376.8
377.85
378.83
379.93
381.04
382.09
383.2
384.24
385.28
386.4
387.52
388.59
389.67
390.57
391.79
392.93
394.02
395.08
396.14
397.16
398.27
399.4
400.47
401.54
402.63
403.68
404.32
405.93
407.02
408.13
409.14
409.77
411.39
412.49
413.55
414.61
415.37
416.78
417.93
418.97
420.02
421.05
422.12
423.21
424.29
425.31
426.37
427.41
428.49
429.61
430.54
431.7
432.75
433.78
434.88
435.96
436.76
437.02
438.06
439.11
440.22
441.35
442.42
443.52
444.58
445.15
446.8
447.95
449.08
450.16
451.26
452.44
453.61
454.74
455.85
456.51
458.12
459.3
460.41
461.53
462.62
463.71
464.9
466
467.1
468.22
469.21
470.45
471.58
472.67
473.75
474.8
475.61
477.05
478.12
479.21
480.26
481.31
482.42
483.56
484.63
485.68
486.78
487.88
489.02
490.15
491.25
491.87
493.43
494.61
495.79
496.86
497.48
498.99
500.15
501.28
502.32
503.42
504.46
505.53
506.63
507.76
508.81
509.62
510.84
511.96
513.06
514.14
514.79
516.23
516.74
518.32
519.42
520.46
521.48
522.49
523.51
524.61
525.69
526.77
527.82
528.83
529.96
531.08
532.16
533.26
534.31
535.33
536.48
537.14
538.66
539.73
540.74
541.83
542.95
543.96
545.12
546.19
547.22
548.38
549.52
550.59
551.71
552.76
553.86
555.01
556.06
557.17
558.26
559.29
560.42
561.53
562.61
563.65
564.23
565.75
566.9
568
569.07
569.54
570
571.1
572.22
573.29
574.34
574.85
575.33
576.34
577.34
578.35
579.4
580.41
581.4
582.38
583.34
584.36
585.34
586.36
587.32
588.27
589.24
590.27
591.3
592.28
593.25
594.18
595.16
596.15
597.15
598.13
599.12
600.05
600.98
601.94
602.94
603.9
604.82
605.75
606.65
607.6
608.57
609.51
610.42
611.36
612.26
613.14
614.14
615.1
616.02
616.97
617.89
618.77
619.74
620.73
621.67
622.58
623.5
624.42
625.29
626.3
627.24
628.14
629.06
629.87
630.8
631.71
632.68
633.62
634.5
635.4
636.31
637.18
638.12
639.09
640
640.92
641.82
642.74
643.67
644.63
645.62
646.54
647.45
648.38
649.31
650.27
651.27
652.21
653.17
654.09
655.01
656.04
657.06
658.08
659.06
660.04
660.97
662.05
663.07
664.08
664.53
665.08
666.02
666.96
668
668.51
669.01
669.98
670.96
671.89
672.81
673.85
674.86
675.85
676.84
677.81
678.75
679.78
680.85
681.86
682.9
683.89
684.86
685.94
687.01
688.01
689.08
690.07
691.04
692.11
693.17
694.16
695.19
696.17
697.13
698.17
699.21
699.72
699.93
700.43
700.93
701.41
702.2
702.62
703.57
704.59
704.85
705.9
706.9
707.91
708.86
709.88
710.94
711.96
712.98
713.99
714.94
716.03
717.09
718.11
719.11
720.12
721.09
722.13
723.2
724.23
725.23
726.25
727.26
728.33
729.41
730.46
731.48
732.23
733.59
734.68
735.75
736.79
737.76
738.79
739.88
740.94
741.96
743.01
744.01
745.03
745.9
747.22
748.29
749.34
750.37
751.44
752.54
753.18
754.67
755.71
756.7
757.79
758.85
759.9
760.92
761.92
762.84
763.89
764.92
765.92
766.9
767.84
768.74
769.76
770.77
771.71
772.65
773.59
774.51
775.43
776.44
777.42
778.39
779.32
780.26
781.16
782.19
783.19
784.13
785.09
786.06
786.98
788.01
789.06
790.05
791.04
792.02
792.96
793.97
795.02
795.99
796.98
797.94
798.88
799.89
800.94
801.91
802.87
803.81
804.74
805.73
806.74
807.72
808.69
809.64
810.6
811.59
812.59
813.64
814.61
815.56
816.54
817.52
818.54
819.57
820.56
821.52
822.48
823.26
824.54
825.59
826.62
827.6
828.6
829.58
830.67
831.7
832.72
833.69
834.67
835.71
836.79
837.61
838.86
839.85
840.83
841.88
842.96
843.97
845.02
846
846.97
847.63
849.08
850.08
851.11
852.09
853.03
854.09
855.14
856.12
857.14
858.11
859.02
860.03
861.06
862.02
863.02
864.01
864.91
865.94
866.99
867.96
868.96
869.93
870.87
871.89
872.94
873.96
874.96
875.94
876.87
877.92
878.95
879.95
880.94
881.93
882.88
883.87
884.89
885.89
886.84
887.79
888.71
889.69
890.72
891.71
892.66
893.6
894.55
895.49
896.49
897.49
898.45
899.39
900.31
901.28
902.26
903.26
904.2
905.16
906.1
907.02
908.04
909.02
909.96
910.95
911.87
912.78
913.84
914.86
915.84
916.82
917.79
918.72
919.78
920.81
921.79
922.75
923.7
924.62
925.58
926.61
927.59
928.54
929.51
930.46
931.39
932.44
933.42
934.38
935.33
936.27
937.19
938.25
939.25
940.21
941.17
942.13
943.06
944.08
945.1
946.02
946.97
947.9
948.79
949.75
950.75
951.72
952.63
953.56
954.52
955.46
956.49
957.5
958.44
959.39
960.34
961.29
962.28
963.3
964.25
965.2
966.15
967.05
968.06
969.1
970.08
971.04
971.99
972.93
973.96
974.96
975.95
976.89
977.84
978.74
979.73
980.73
981.71
982.67
983.57
984.09
985.43
986.23
987.34
988.27
988.81
990.08
990.95
991.95
992.89
993.8
994.74
995.61
996.5
997.42
998.41
999.37
1000.3
1001.2
1002.1
1003
1004
1005
1005.9
1006.8
1007.8
1008.6
1009.6
1010.6
1011.6
1012.6
1013.5
1014.5
1015.4
1016.4
1017.4
1018.3
1019.3
1020.2
1021.1
1022.1
1023.2
1024.1
1025.1
1026
1026.9
1027.9
1028.9
1029.8
1030.8
1031.7
1032.6
1033.5
1034.5
1035.4
1036.3
1037.3
1038.2
1039
1040
1040.9
1041.9
1042.8
1043.7
1044.6
1045.5
1046.5
1047.5
1048.4
1049.4
1050.3
1051.2
1052.2
1053.1
1054.1
1055
1055.9
1056.9
1057.8
1058.8
1059.7
1060.7
1061.6
1062.5
1063.5
1064.4
1065.4
1066.4
1067.3
1068.2
1069.1
1070.1
1071.1
1072
1073
1073.9
1074.8
1075.8
1076.8
1077.7
1078.7
1079.6
1080.5
1081.5
1082.5
1083.5
1084.4
1085.3
1086.3
1087.2
1088.2
1089.2
1090.1
1091
1091.9
1092.8
1093.8
1094.8
1095.7
1096.7
1097.6
1098.5
1099.5
1100.6
1101.5
1102.5
1103.4
1104.3
1105.2
1106.2
1107.2
1108.1
1109
1109.9
1110.8
1111.8
1112.8
1113.7
1114.6
1115.5
1116.4
1117.3
1118.2
1119.2
1120.1
1121
1121.9
1122.8
1123.8
1124.8
1125.8
1126.7
1127.6
1128.5
1129.5
1130.4
1131.4
1132.3
1133.2
1134.1
1135
1136
1136.9
1137.8
1138.8
1139.7
1140.6
1141.5
1142.5
1143.4
1144.3
1145.2
1146.1
1147
1148
1148.9
1149.9
1150.8
1151.7
1152.6
1153.6
1154.6
1155.6
1156.5
1157.4
1158.3
1159.2
1160.3
1161.2
1162.1
1163
1164
1164.8
1165.8
1166.8
1167.7
1168.6
1169.6
1170.4
1171.4
1172.3
1173.3
1174.2
1175.1
1176
1176.9
1177.9
1178.8
1179.8
1180.7
1181.6
1182.5
1183.5
1184.5
1185.5
1186.4
1187.3
1188.3
1189.2
1190.1
1191.1
1192.1
1193
1193.9
1194.8
1195.7
1196.7
1197.7
1198.6
1199.5
1200.4
1201.3
1202.3
1203.3
1204.2
1205.1
1206
1206.9
1207.2
1207.9
1208.8
1209.8
1210.7
1211
1211.6
1212.5
1213.4
1214.3
1215.2
1216.2
1217
1217.9
1218.8
1219.7
1220.7
1221.6
1222.6
1223.5
1224.4
1225.4
1226.3
1227.3
1228.2
1229.2
1230.1
1231.1
1232.1
1233.1
1234
1235
1235.9
1236.8
1237.7
1238.7
1239.6
1240.5
1241.4
1242.3
1243.2
1244.1
1245.1
1246
1246.8
1247.7
1248.5
1249.4
1250.3
1251.2
1252.1
1252.9
1253.7
1254.5
1255.4
1256.3
1257.2
1258
1258.9
1259.7
1260.5
1261.4
1262.4
1263.3
1264.1
1265
1265.9
1266.7
1267.6
1268.5
1269.5
1270.3
1271.2
1272
1272.9
1273.8
1274.8
1275.7
1276.5
1277.4
1278.3
1279.1
1280.1
1281
1281.9
1282.8
1283.6
1284.5
1285.4
1286.3
1287.2
1288.1
1289
1289.8
1290.7
1291.6
1292.5
1293.4
1294.3
1295.1
1295.9
1296.8
1297.7
1298.5
1299.5
1300.3
1301.2
1302
1302.8
1303.7
1304.6
1305.5
1306.4
1307.2
1308.1
1308.9
1309.8
1310.7
1311.6
1312.5
1313.3
1314.2
1315.1
1316
1316.9
1317.8
1318.8
1319.6
1320.5
1321.4
1322.4
1323.3
1324.2
1325.1
1326
1326.8
1327.8
1328.7
1329.6
1330.5
1331.4
1332.2
1333.1
1334
1335
1335.8
1336.7
1337.6
1338.4
1339.3
1340.2
1341.1
1342
1342.9
1343.8
1344.6
1345.5
1346.4
1347.3
1348.2
1349
1349.9
1350.7
1351.6
1352.5
1353.4
1354.3
1355.1
1356
1356.8
1357.7
1358.6
1359.6
1360.4
1361.3
1362.1
1363
1363.9
1364.8
1365.7
1366.5
1367.4
1368.2
1369.1
1370
1370.9
1371.8
1372.7
1373.5
1374.3
1375.2
1376.1
1377
1377.9
1378.7
1379.5
1380.4
1381.3
1382.2
1383.1
1384
1384.9
1385.7
1386.6
1387.5
1388.3
1389.2
1390.1
1390.9
1391.7
1392.6
1393.5
1394.3
1395.2
1396.1
1396.9
1397.7
1398.6
1399.5
1400.4
1401.3
1402.1
1403
1403.8
1404.7
1405.6
1406.5
1407.4
1408.2
1409.1
1410
1410.8
1411.7
1412.6
1413.5
1414.3
1415.2
1416.1
1416.9
1417.9
1418.8
1419.7
1420.6
1421.5
1422.4
1423.2
1424.2
1425.2
1426.1
1427
1427.9
1428.7
1429.7
1430.7
1431.5
1432.4
1433.2
1434.1
1434.9
1435.8
1436.7
1437.6
1438.4
1439.3
1440.1
1440.9
1441.8
1442.7
1443.6
1444.5
1445.3
1446.2
1447
1447.9
1448.8
1449.7
1450.6
1451.4
1452.3
1453.1
1454
1454.9
1455.8
1456.7
1457.5
1458.4
1459.2
1460.1
1461.1
1461.9
1462.8
1463.6
1464.5
1465.4
1466.3
1467.3
1468.2
1469
1469.9
1470.7
1471.6
1472.5
1473.4
1474.3
1475.1
1476
1476.8
1477.7
1478.6
1479.5
1480.4
1481.2
1482
1482.9
1483.8
1484.7
1485.6
1486.5
1487.3
1488.2
1489
1490
1490.9
1491.8
1492.7
1493.6
1494.4
1495.3
1496.3
1497.2
1498.1
1499
1499.9
1500.7
1501.7
1502.6
1503.5
1504.5
1505.3
1506.2
1507.1
1508
1509
1509.8
1510.7
1511.6
1512.5
1513.4
1514.3
1515.3
1516.1
1517
1517.9
1518.7
1519.6
1520.5
1521.4
1522.2
1523
1523.9
1524.7
1525.5
1526.5
1527.3
1528.2
1529
1529.9
1530.7
1531.6
1532.5
1533.4
1534.3
1535.1
1536
1536.9
1537.8
1538.7
1539.6
1540.5
1541.3
1542.2
1543
1543.9
1544.8
1545.7
1546.5
1547.4
1548.2
1549
1549.9
1550.8
1551.7
1552.5
1553.3
1554.2
1555
1555.9
1556.7
1557.6
1558.4
1559.2
1560.1
1560.9
1561.7
1562.6
1563.4
1564.2
1565
1565.8
1566.6
1567.5
1568.3
1569.1
1570
1570.8
1571.6
1572.4
1573.2
1574.1
1575
1575.8
1576.6
1577.4
1578.2
1579.1
1580
1580.8
1581.7
1582.6
1583.4
1584.3
1585.1
1586.1
1586.9
1587.7
1588.6
1589.4
1590.2
1591
1592
1592.8
1593.7
1594.5
1595.4
1596.2
1597
1598
1598.7
1599.7
1600.6
1601.5
1602.3
1603.1
1604
1604.8
1605.7
1606.6
1607.4
1608.2
1609
1609.9
1610.7
1611.6
1612.1
1613.1
1613.9
1614.6
1615.5
1616.3
1617.1
1617.9
1618.7
1619.5
1620.3
1621.1
1621.9
1622.8
1623.6
1624.4
1625.2
1626
1626.8
1627.7
1628.6
1629.4
1630.2
1631.1
1631.9
1632.7
1633.5
1634.4
1635.3
1636.1
1636.9
1637.8
1638.6
1639.5
1640.5
1641.4
1642.3
1643.1
1644
1644.9
1645.8
1646.7
1647.6
1648.5
1649.4
1650.2
1651.1
1651.9
1652.8
1653.7
1654.5
1655.4
1656.2
1657.1
1658
1658.9
1659.8
1660.7
1661.5
1662.3
1663.2
1664.1
1664.9
1665.8
1666.6
1667.4
1668.2
1669
1669.9
1670.7
1671.5
1672.4
1673.2
1674
1674.8
1675.8
1676.7
1677.5
1678.5
1679.3
1680.2
1681
1682
1682.9
1683.7
1684.6
1685.5
1686.3
1687.2
1688.1
1689.1
1689.9
1690.8
1691.7
1692.5
1693.4
1694.3
1695.2
1696.1
1696.9
1697.8
1698.6
1699.5
1700.4
1701.3
1702.1
1703
1703.8
1704.6
1705.5
1706.4
1707.3
1708.1
1709
1709.8
1710.6
1711.5
1712.4
1713.3
1714.1
1715
1715.8
1716.6
1717.5
1718.4
1719.3
1720.1
1720.9
1721.7
1722.5
1723.3
1724.2
1725.1
1725.9
1726.7
1727.5
1728.3
1729.1
1730
1730.9
1731.7
1732.6
1733.4
1734.2
1735
1735.9
1736.7
1737.6
1738.4
1739.2
1740
1740.8
1741.7
1742.5
1743.4
1744.2
1745
1745.8
1746.6
1747.5
1748.3
1749.2
1750
1750.8
1751.6
1752.4
1753.2
1754
1754.9
1755.7
1756.5
1757.3
1758.1
1758.9
1759.8
1760.6
1761.5
1762.3
1763.1
1763.9
1764.7
1765.6
1766.4
1767.3
1768.1
1768.9
1769.8
1770.5
1770.8
1771.2
1772.3
1773.3
1774.1
1775
1775.9
1776.7
1777.6
1778.5
1779.4
1780.2
1781
1781.8
1782.5
1783.3
1784.2
1785
1785.8
1786.5
1787.3
1788.1
1788.8
1789.6
1790.5
1791.3
1792
1792.8
1793.5
1794.3
1795
1795.8
1796.7
1797.4
1798.2
1799
1799.7
1800.4
1801.2
1802
1802.8
1803.5
1804.2
1805
