0.12222
0.44722
1.4389
2.3611
3.3639
4.525
5.4917
6.4639
7.4972
8.5139
9.4611
10.381
11.428
12.467
13.397
14.386
15.331
16.236
17.114
18.047
19.047
19.944
20.822
21.767
22.736
23.661
24.528
25.456
26.383
27.336
28.217
29.144
30.078
30.994
31.869
32.75
33.647
34.525
35.375
36.353
37.286
38.15
39.133
40.194
41.136
42.194
43.333
44.344
45.328
46.375
47.419
48.406
49.408
50.453
51.439
52.4
53.378
54.356
55.228
56.119
57.053
57.986
58.819
59.689
60.644
61.581
62.553
63.55
64.497
65.392
66.311
67.322
68.236
69.214
70.236
71.275
72.256
73.261
74.258
75.192
76.064
76.969
77.878
78.764
79.625
80.517
81.536
82.425
83.342
84.314
85.261
86.194
87.169
88.239
89.192
90.142
91.103
92.069
92.975
93.919
94.892
95.861
96.744
97.769
98.728
99.628
100.65
101.69
102.57
103.47
104.54
105.58
106.48
107.51
108.6
109.54
110.48
111.49
112.51
113.39
114.32
115.32
116.23
117.07
117.96
118.91
119.81
120.7
121.67
122.65
123.55
124.5
125.53
126.46
127.39
128.46
129.46
130.34
131.21
132.13
132.99
133.87
134.78
135.72
136.64
137.61
138.59
139.51
140.4
141.43
142.42
143.33
144.29
145.32
146.23
147.09
148.01
148.92
149.76
150.62
151.55
152.46
153.32
154.24
155.35
156.33
157.26
158.29
159.25
160.11
161.06
162.17
163.13
164.07
165.08
166.06
166.92
167.86
168.82
169.79
170.66
171.59
172.62
173.54
174.39
175.37
176.43
177.35
178.3
179.35
180.35
181.22
182.08
182.95
183.83
184.66
185.54
186.5
187.4
188.33
189.53
190.56
191.59
192.65
193.71
194.71
195.75
196.78
197.76
198.8
199.83
200.85
201.83
202.82
203.83
204.79
205.77
206.76
207.77
208.7
209.64
210.65
211.65
212.57
213.52
214.54
215.52
216.42
217.31
218.23
219.1
219.97
220.85
221.75
222.62
223.57
224.56
225.54
226.44
227.37
228.26
229.1
229.98
230.86
231.69
232.52
233.39
234.23
235.03
235.87
236.74
237.59
238.54
239.54
240.5
241.55
242.55
243.48
244.46
245.37
246.21
247.04
247.94
248.93
249.89
250.85
251.94
253.06
254.07
255.1
256.16
257.14
258.04
259.05
260.09
261.04
261.92
262.92
263.92
264.81
265.73
266.7
267.59
268.44
269.39
270.41
271.33
272.33
273.37
274.24
275.11
276.04
276.95
277.8
278.69
279.62
280.52
281.49
282.59
283.57
284.49
285.49
286.54
287.5
288.44
289.44
290.37
291.25
292.19
293.26
294.32
295.29
296.25
297.19
298.06
298.94
299.79
300.73
301.64
302.56
303.57
304.59
305.53
306.54
307.61
308.64
309.57
310.55
311.63
312.6
313.5
314.44
315.43
316.34
317.23
318.18
319.11
319.99
320.92
321.87
322.77
323.68
324.69
325.73
326.63
327.57
328.64
329.55
330.46
331.41
332.39
333.28
334.2
335.17
336.16
337.04
338.01
339
339.89
340.74
341.67
342.65
343.54
344.43
345.5
346.54
347.45
348.4
349.35
350.27
351.1
352.03
353.14
354.09
354.97
355.93
356.95
357.82
358.7
359.67
360.61
361.47
362.35
363.31
364.2
365.04
365.94
366.89
367.79
368.65
369.57
370.61
371.61
372.51
373.59
374.61
375.52
376.47
377.49
378.41
379.24
380.15
381.14
382.02
382.89
383.89
384.95
385.87
386.83
387.94
388.9
389.77
390.76
391.82
392.75
393.59
394.58
395.6
396.59
397.53
398.56
399.67
400.65
401.54
402.54
403.5
404.38
405.24
406.18
407.13
408.01
408.91
409.89
410.94
411.88
412.92
413.98
414.91
415.78
416.68
417.59
418.44
419.32
420.24
421.19
422.05
422.92
423.84
424.78
425.63
426.56
427.6
428.6
429.52
430.46
431.38
432.24
433.07
433.99
434.97
435.86
436.71
437.62
438.48
439.3
440.13
441.11
442.08
442.98
444.07
445.16
446.08
447.02
448.01
448.94
449.82
450.7
451.64
452.55
453.38
454.23
455.16
456.02
456.89
457.81
458.84
459.83
460.7
461.6
462.52
463.4
464.24
465.06
465.87
466.7
467.56
468.4
469.26
470.1
471.33
472.49
473.5
474.52
475.56
476.61
477.61
478.65
479.69
480.71
481.69
482.71
483.69
484.59
485.52
486.59
487.57
488.48
489.51
490.53
491.44
492.33
493.31
494.29
495.25
496.13
497.1
498.13
499.19
500.09
500.98
501.91
502.85
503.69
504.57
505.54
506.53
507.41
508.35
509.38
510.37
511.23
512.17
513.22
514.16
515.04
515.97
516.89
517.74
518.61
519.52
520.42
521.28
522.19
523.16
524.13
525.02
526
527.12
528.11
529.09
530.06
531.02
531.9
532.83
533.81
534.74
535.65
536.57
537.56
538.51
539.49
540.48
541.43
542.34
543.27
544.2
545.11
545.99
546.87
547.8
548.71
549.58
550.51
551.48
552.47
553.37
554.32
555.34
556.27
557.16
558.08
558.95
559.83
560.76
561.76
562.69
563.64
564.69
565.63
566.51
567.45
568.41
569.34
570.24
571.21
572.18
573.04
573.96
574.89
575.77
576.63
577.55
578.59
579.5
580.35
581.39
582.43
583.34
584.23
585.21
586.17
587.04
587.93
588.86
589.75
590.59
591.45
592.38
593.29
594.12
595
595.97
596.86
597.69
598.56
599.47
600.33
601.16
602.01
603.03
603.92
604.76
605.67
606.59
607.48
608.3
609.19
610.2
611.13
611.98
612.86
613.83
614.69
615.53
616.47
617.48
618.36
619.2
620.09
621.15
622.09
623.06
624.12
625.09
625.94
626.9
627.88
628.79
629.66
630.56
631.55
632.44
633.29
634.17
635.04
635.89
636.75
637.68
638.56
639.43
640.27
641.09
641.9
642.8
643.72
644.56
645.4
646.34
647.22
648.06
648.95
649.92
650.83
651.68
652.59
653.62
654.53
655.38
656.37
657.39
658.31
659.17
660.15
661.11
661.97
662.87
663.84
664.78
665.64
666.54
667.52
668.41
669.26
670.17
671.14
672.04
672.88
673.75
674.75
675.65
676.5
677.43
678.34
679.2
680.02
680.9
681.86
682.73
683.54
684.43
685.29
686.16
686.96
687.82
688.72
689.58
690.4
691.29
692.25
693.13
693.99
694.94
695.94
696.84
697.77
698.72
699.67
700.55
701.42
702.41
703.41
704.28
705.31
706.37
707.3
708.18
709.08
710.07
710.94
711.87
713
714.07
715
715.95
716.97
717.86
718.71
719.58
720.46
721.33
722.23
723.15
724.06
724.97
725.94
727.03
728
728.93
729.84
730.71
731.58
732.45
733.31
734.18
735.01
735.88
736.79
737.67
738.53
739.41
740.26
741.08
741.89
742.78
743.76
744.63
745.6
746.79
747.79
748.76
749.79
750.77
751.65
752.58
753.59
754.51
755.36
756.32
757.4
758.38
759.26
760.23
761.26
762.18
763.08
764.02
765.05
765.96
766.85
767.82
768.78
769.64
770.58
771.59
772.53
773.41
774.33
775.3
776.14
776.96
777.79
778.67
779.5
780.31
781.18
782.11
782.96
783.76
784.64
785.57
786.44
787.27
788.19
789.24
790.12
791.03
791.96
792.85
793.69
794.56
795.44
796.33
797.16
798
798.95
799.85
800.71
801.6
802.52
803.42
804.26
805.27
806.37
807.36
808.33
809.3
810.29
811.17
812.08
813.06
814.05
814.97
815.94
817
817.98
818.87
819.84
820.82
821.76
822.62
823.5
824.48
825.37
826.21
827.1
828.08
829.06
829.93
830.88
831.85
832.72
833.58
834.48
835.4
836.28
837.16
838.08
839.04
839.91
840.81
841.92
842.97
843.9
844.83
845.76
846.69
847.53
848.48
849.47
850.44
851.3
852.2
853.16
854.14
855
855.9
856.83
857.77
858.63
859.49
860.45
861.36
862.19
863.08
864.01
864.91
865.75
866.58
867.44
868.32
869.13
869.96
870.87
871.85
872.73
873.73
874.98
876
877.05
878.11
879.16
880.13
881.13
882.16
883.1
884.02
884.99
885.96
886.83
887.73
888.73
889.71
890.58
891.58
892.62
893.59
894.45
895.4
896.49
897.42
898.33
899.34
900.33
901.22
902.04
902.99
903.92
904.76
905.59
906.44
907.3
908.13
908.94
909.83
910.91
911.83
912.87
914
915.02
915.92
916.87
917.94
918.82
919.69
920.62
921.54
922.39
923.31
924.28
925.22
926.07
926.96
927.87
928.77
929.64
930.56
931.64
932.58
933.46
934.38
935.31
936.19
937.05
938.02
939.03
939.92
940.77
941.73
942.72
943.63
944.49
945.5
946.59
947.5
948.36
949.25
950.11
950.98
951.86
952.85
953.84
954.7
955.67
956.83
957.83
958.77
959.81
960.86
961.75
962.65
963.57
964.52
965.39
966.31
967.27
968.26
969.13
970.04
971.1
972.16
973.06
973.98
974.91
975.77
976.58
977.48
978.39
979.27
980.08
980.97
981.89
982.81
983.64
984.56
985.54
986.52
987.38
988.3
989.28
990.14
990.95
991.8
992.66
993.51
994.31
995.14
995.98
996.82
997.63
998.46
999.34
1000.2
1001.1
1002
1002.9
1003.8
1004.7
1005.6
1006.8
1007.8
1008.7
1009.7
1010.6
1011.4
1012.3
1013.3
1014.2
1015.1
1016
1016.9
1017.8
1018.6
1019.5
1020.5
1021.3
1022.2
1023.1
1024
1024.9
1025.8
1026.7
1027.6
1028.5
1029.3
1030.2
1031.1
1032
1032.9
1033.9
1034.8
1035.7
1036.6
1037.5
1038.4
1039.4
1040.3
1041.2
1042.1
1043.2
1044.2
1045.1
1046.2
1047.1
1048
1048.9
1049.8
1050.8
1051.6
1052.5
1053.4
1054.2
1055
1055.9
1056.8
1057.6
1058.5
1059.3
1060.3
1061.2
1062
1062.9
1063.8
1064.6
1065.5
1066.3
1067.2
1068
1068.8
1069.6
1070.5
1071.3
1072.2
1073.1
1074.1
1075.1
1076.1
1077.3
1078.3
1079.2
1080.1
1080.9
1081.8
1082.7
1083.5
1084.4
1085.3
1086.3
1087.5
1088.6
1089.7
1090.8
1091.8
1092.9
1093.9
1094.8
1095.7
1096.6
1097.4
1098.3
1099.2
1100.1
1101
1102
1103.1
1104.1
1105
1106.1
1107
1108
1108.9
1109.8
1110.7
1111.6
1112.5
1113.4
1114.3
1115.3
1116.2
1117.1
1118
1119
1120.1
1121
1122
1122.9
1123.8
1124.6
1125.6
1126.7
1127.7
1128.7
1129.6
1130.6
1131.5
1132.4
1133.3
1134.2
1135.1
1136
1136.9
1137.9
1138.8
1139.7
1140.6
1141.5
1142.3
1143.2
1144.1
1145
1145.8
1146.7
1147.6
1148.5
1149.4
1150.3
1151.2
1152.1
1153
1153.9
1154.8
1155.7
1156.5
1157.3
1158.3
1159.1
1159.9
1160.8
1161.6
1162.4
1163.2
1164
1164.8
1165.6
1166.4
1167.3
1168.1
1169
1169.8
1170.8
1171.7
1172.6
1173.4
1174.3
1175.2
1176.1
1176.9
1177.9
1178.8
1179.7
1180.6
1181.6
1182.5
1183.4
1184.3
1185.1
1186
1187
1188
1188.9
1190
1191
1192
1192.9
1194
1194.9
1195.8
1196.6
1197.5
1198.4
1199.2
1200.1
1201
1201.9
1202.7
1203.6
1204.6
1205.4
1206.3
1207.1
1208
1208.8
1209.7
1210.7
1211.6
1212.5
1213.5
1214.5
1215.4
1216.3
1217.2
1218.1
1219
1219.8
1220.7
1221.7
1222.6
1223.4
1224.4
1225.6
1226.6
1227.5
1228.4
1229.3
1230.1
1231
1231.9
1232.8
1233.8
1234.7
1235.7
1236.8
1237.7
1238.6
1239.6
1240.5
1241.3
1242.2
1243
1243.8
1244.6
1245.3
1246.2
1247
1247.9
1248.8
1249.9
1251
1251.9
1253
1254.1
1255.1
1256.1
1257.1
1258
1258.8
1259.7
1260.6
1261.4
1262.2
1263.1
1264
1264.8
1265.7
1266.5
1267.4
1268.2
1269
1269.9
1270.7
1271.6
1272.5
1273.3
1274.3
1275.2
1276
1276.8
1277.6
1278.4
1279.2
1280.1
1280.9
1281.7
1282.5
1283.4
1284.3
1285.1
1286
1286.8
1287.7
1288.5
1288.9
1289.4
1290.2
1291
1291.7
1292.5
1293.3
1294
1294.8
1295.5
1296.3
1297
1297.7
1298.2
1298.5
1299.2
1300
1300.7
1301.5
1302.2
1302.9
1303.7
1304.4
1305.2
1305.9
1306.7
1307.5
1308.3
1309.1
1310.1
1311.2
1312.3
1313.3
1314.4
1315.3
1316.2
1317.3
1318.2
1319.1
1319.9
1320.8
1321.7
1322.6
1323.5
1324.4
1325.3
1326.2
1327.1
1327.9
1328.8
1329.7
1330.5
1331.3
1332.1
1332.9
1333.7
1334.6
1335.4
1336.2
1337.1
1338
1338.8
1339.7
1340.7
1341.8
1342.8
1343.8
1344.8
1345.8
1346.8
1347.6
1348.5
1349.4
1350.3
1351.2
1352
1353
1353.9
1354.8
1355.7
1356.8
1357.7
1358.6
1359.4
1360.3
1361.1
1362
1362.9
1363.8
1364.7
1365.6
1366.6
1367.5
1368.4
1369.3
1370.3
1371.1
1372
1372.8
1373.8
1374.6
1375.6
1376.8
1377.8
1378.8
1379.8
1380.8
1381.7
1382.6
1383.4
1384.2
1385
1385.9
1386.7
1387.5
1388.5
1389.4
1390.3
1391.1
1392
1392.9
1393.8
1394.6
1395.4
1396.3
1397.1
1397.9
1398.7
1399.5
1400.4
1401.2
1402
1402.9
1403.8
1404.6
1405.5
1406.3
1407.2
1408
1408.9
1409.8
1410.6
1411.5
1412.4
1413.2
1414.2
1415.4
1416.5
1417.6
1418.6
1419.7
1420.7
1421.8
1422.8
1423.8
1424.8
1425.9
1426.8
1427.8
1428.9
1429.8
1430.7
1431.6
1432.4
1433.2
1434
1434.9
1435.7
1436.5
1437.3
1438.1
1438.9
1439.4
1439.7
1440.5
1441.2
1442
1442.8
1443.6
1444.4
1445.3
1446.2
1447
1447.9
1448.9
1450
1450.9
1451.8
1452.8
1453.8
1454.6
1455.5
1456.4
1457.5
1458.5
1459.4
1460.3
1461.5
1462.5
1463.5
1464.4
1465.4
1466.3
1467.2
1468
1468.9
1469.9
1470.8
1471.7
1472.7
1473.9
1474.9
1475.9
1476.9
1477.9
1478.8
1479.7
1480.5
1481.4
1482.2
1483.1
1484.1
1485.1
1486.1
1487.2
1488.3
1489.4
1490.5
1491.5
1492.5
1493.6
1494.5
1495.5
1496.4
1497.3
1498.1
1498.9
1499.8
1500.8
1501.7
1502.7
1503.6
1504.5
1505.3
1506.2
1507.2
1508
1508.9
1509.9
1510.9
1511.8
1513
1514.1
1515.1
1516
1517
1517.8
1518.7
1519.5
1520.4
1521.2
1522.1
1523
1523.9
1524.8
1525.6
1526.5
1527.4
1528.3
1529.2
1530.1
1530.9
1531.7
1532.5
1533.3
1534.1
1534.9
1535.8
1536.8
1537.7
1538.6
1539.7
1540.9
1541.9
1542.9
1544
1545
1546
1547.1
1548.1
1549.2
1550.3
1551.3
1552.4
1553.5
1554.5
1555.6
1556.7
1557.7
1558.7
1559.7
1560.7
1561.6
1562.5
1563.4
1564.2
1565.1
1566
1566.8
1567.7
1568.5
1569.3
1570.2
1571
1571.8
1572.6
1573.4
1574.2
1575
1575.9
1576.7
1577.6
1578.4
1579.3
1580.3
1581.2
1582.1
1583
1584
1585.2
1586.2
1587
1588
1588.8
1589.7
1590.6
1591.4
1592.3
1593.2
1594.1
1595
1595.8
1596.7
1597.7
1598.6
1599.5
1600.3
1601.2
1602.1
1603
1603.8
1604.6
1605.4
1606.2
1607
1607.9
1608.7
1609.6
1610.4
1611.3
1612.6
1613.8
1614.9
1615.9
1617
1618.1
1619.1
1620.1
1621.1
1621.3
1621.6
1622.1
1623.1
1624.2
1625.2
1626.3
1627.2
1627.3
1628.2
1629.2
1630.1
1631
1631.9
1633.1
1633.5
1634.1
1635.3
1636.3
1637.4
1638.5
1639.6
1640.7
1641.7
1642.6
1642.6
1643.4
1644.2
1644.9
1645.7
1646.4
1647.1
1647.8
1648.5
1649.3
1650
1650.7
1651.4
1652.2
1653.1
1653.8
1654.6
1655.4
1656.3
1657.1
1657.9
1658.7
1659.6
1660.5
1661.4
1662.2
1663.1
1664.4
1665.4
1666.6
1667.8
1668.9
1670
1671.1
1672.2
1673.2
1674.3
1675.4
1676.3
1677.5
1678.6
1679.7
1680.9
1682
1683.1
1684.2
1685.2
1686.3
1687.4
1688.3
1689.3
1690.4
1691.4
1692.4
1693.5
1694.7
1695.8
1696.9
1697.9
1699.1
1700.1
1701
1701.9
1703.1
1704.2
1705.3
1706.4
1707.5
1708.5
1709.5
1710.5
1711.5
1712.3
1713.2
1714.1
1714.9
1715.8
1716.6
1717.5
1718.3
1719.1
1720
1720.8
1721.6
1722.4
1723.2
1724
1724.9
1725.7
1726.5
1727.3
1728.1
1728.9
1729.7
1730.6
1731.4
1732.2
1733.1
1733.9
1734.7
1735.5
1736.4
1737.2
1738
1738.9
1739.7
1740.6
1741.4
1742.3
1743.1
1743.9
1744.8
1745.6
1746.4
1747.3
1748.1
1749
1749.8
1750.6
1751.5
1752.4
1753.2
1754
1754.9
1755.9
1756.8
1757.7
1759
1760.1
1761.1
1762.3
1763.3
1764.4
1765.5
1766.5
1767.5
1768.5
1769.5
1770.6
1771.7
1772.7
1773.8
1774.7
1775.7
1776.7
1777.8
1778.8
1779.9
1780.9
1782
1783
1784
1785
1786
1787
1787.8
1788.7
1789.5
1790.3
1791.1
1791.9
1792.7
1793.5
1794.4
1795.1
1795.9
1796.7
1797.5
1798.3
1799.1
1799.8
1800.6
1801.3
1802.1
1802.9
1803.8
1804.6
1805.4
