0.48333
0.78333
1.5583
2.325
3.0667
3.8028
4.5528
5.3028
6.0556
6.7972
7.55
8.2972
9.0417
9.8028
10.544
11.297
12.067
12.817
13.572
14.344
15.094
15.85
16.603
17.372
18.144
18.894
19.681
20.444
21.203
21.972
22.731
23.492
24.272
25.028
25.786
26.558
27.308
28.058
28.811
29.564
30.328
31.078
31.833
32.594
33.367
34.119
34.864
35.625
36.422
37.186
37.961
38.75
39.503
40.269
41.033
41.792
42.553
43.306
44.064
44.825
45.597
46.35
47.092
47.858
48.644
49.414
50.192
50.975
51.756
52.536
53.3
54.081
54.869
55.628
56.403
57.189
57.958
58.736
59.503
60.275
61.067
61.842
62.636
63.403
64.158
64.942
65.706
66.472
67.242
68.003
68.783
69.564
70.308
71.086
71.853
72.639
73.397
74.158
74.947
75.706
76.464
77.228
77.986
78.764
79.514
80.264
81.039
81.794
82.539
83.297
84.05
84.828
85.592
86.344
87.125
87.897
88.644
89.406
90.161
90.939
91.689
92.447
93.239
94.008
94.775
95.547
96.322
97.106
97.589
98.656
99.425
99.908
100.95
101.71
102.47
103.24
104
104.78
105.54
106.29
107.06
107.81
108.58
109.36
110.12
110.9
111.67
112.45
113.22
113.98
114.76
115.54
116.3
117.07
117.84
118.59
119.35
120.11
120.88
121.67
122.44
123.22
123.99
124.75
125.52
126.28
127.05
127.83
128.59
129.39
130.16
130.93
131.7
132.47
133.25
134.03
134.8
135.56
136.33
137.09
137.84
138.61
139.36
140.12
140.87
141.66
142.41
143.15
143.93
144.68
145.46
146.23
146.98
147.77
148.54
149.01
150.04
150.8
151.55
152.31
153.06
153.83
154.58
155.32
156.06
156.84
157.61
158.14
159.11
159.89
160.64
161.37
162.11
162.86
163.6
164.34
165.09
165.85
166.59
167.33
168.09
168.83
169.6
170.36
171.1
171.88
172.62
173.36
174.11
174.86
175.59
176.35
177.1
177.86
178.62
179.35
180.12
180.86
181.63
182.39
183.14
183.92
184.67
185.41
186.16
186.91
187.67
188.43
189.18
189.95
190.7
191.43
192.2
192.95
193.71
194.47
195.22
195.99
196.75
197.49
198.25
198.99
199.74
200.5
201.25
201.99
202.75
203.49
204.24
204.97
205.73
206.5
207.23
207.71
208.74
209.49
210.23
210.97
211.71
212.46
213.21
213.94
214.7
215.44
216.18
216.92
217.67
218.42
219.16
219.9
220.66
221.4
222.13
222.88
223.62
224.36
225.11
225.84
226.59
227.34
228.08
228.82
229.57
230.31
231.06
231.8
232.56
233.3
234.04
234.79
235.51
236.26
237.02
237.76
238.5
239.26
240.01
240.75
241.5
242.25
243.01
243.76
244.52
245.28
246.04
246.79
247.53
248.29
249.06
249.81
250.57
251.34
252.1
252.86
253.63
254.39
255.16
255.91
256.68
257.44
258.18
258.94
259.68
260.42
261.18
261.92
262.68
263.2
264.18
264.95
265.43
266.44
266.97
267.97
268.71
269.47
270.2
270.95
271.67
272.42
273.18
273.92
274.66
275.42
276.18
276.94
277.7
278.48
279.26
280.04
280.81
281.6
282.38
283.14
283.9
284.68
285.46
286.21
286.99
287.77
288.54
289.31
289.8
290.81
291.58
292.33
292.8
293.81
294.56
295.28
296.01
296.73
297.48
298.21
298.96
299.74
300.51
301.28
302.06
302.84
303.64
304.41
305.18
305.98
306.75
307.5
308.27
309.02
309.81
310.57
311.33
312.11
312.89
313.65
314.4
315.16
315.93
316.68
317.43
318.19
318.94
319.68
320.43
321.2
321.97
322.73
323.49
324.27
325.02
325.79
326.53
327.27
328.04
328.77
329.5
330.26
331
331.73
332.47
333.21
333.96
334.71
335.44
336.19
336.95
337.69
338.43
339.18
339.95
340.68
341.42
342.18
342.93
343.65
344.39
345.14
345.89
346.63
347.37
348.13
348.88
349.39
350.37
351.11
351.87
352.6
353.33
354.09
354.83
355.56
356.32
357.07
357.83
358.59
359.34
360.11
360.86
361.61
362.37
363.11
363.88
364.65
365.4
366.17
366.73
367.65
368.41
369.16
369.92
370.67
371.41
372.18
372.94
373.68
374.16
375.18
375.93
376.69
377.44
378.19
378.94
379.69
380.45
381.18
381.93
382.7
383.43
384.18
384.94
385.69
386.41
387.15
387.89
388.64
389.38
390.12
390.88
391.38
392.35
393.1
393.85
394.61
395.36
396.11
396.89
397.65
398.39
399.15
399.9
400.66
401.41
402.16
402.93
403.66
404.38
405.13
405.86
406.6
407.34
408.07
408.83
409.57
410.29
411.05
411.79
412.54
413.31
413.84
414.81
415.57
416.32
416.84
417.8
418.56
419.31
420.05
420.81
421.57
422.31
423.06
423.8
424.3
425.3
426.04
426.79
427.28
428.24
428.98
429.7
430.43
431.18
431.91
432.67
433.45
434.2
434.73
435.71
436.44
437.21
437.94
438.67
439.41
440.15
440.88
441.6
442.33
443.08
443.79
444.53
445.29
446.02
446.74
447.48
448.2
448.94
449.68
450.39
451.14
451.87
452.59
453.33
454.07
454.82
455.56
456.3
457.06
457.81
458.32
459.27
460
460.72
461.46
462.18
462.89
463.63
464.36
465.07
465.8
466.53
467.04
468
468.73
469.48
470.21
470.93
471.5
472.38
473.11
473.86
474.56
475.28
476.02
476.74
477.45
478.18
478.91
479.65
480.39
481.12
481.64
482.62
483.34
484.08
484.8
485.55
486.28
487
487.74
488.48
489.2
489.95
490.44
491.41
492.16
492.89
493.64
494.38
495.12
495.85
496.39
497.32
498.07
498.79
499.52
500.27
500.99
501.73
502.46
503.19
503.71
504.68
505.42
506.18
506.93
507.67
508.41
509.17
509.68
510.7
511.46
512.24
512.76
513.75
514.51
515.26
516.02
516.78
517.53
518.29
519.05
519.78
520.52
521.27
522.03
522.76
523.49
524.25
524.99
525.72
526.46
527.2
527.96
528.7
529.19
530.19
530.94
531.66
532.39
533.12
533.88
534.6
535.33
536.08
536.82
537.54
538.29
539.02
539.75
540.51
541.25
541.99
542.74
543.49
544.02
544.95
545.71
546.44
547.17
547.9
548.65
549.39
550.12
550.85
551.58
552.34
553.08
553.82
554.33
555.32
556.04
556.79
557.52
558.26
558.99
559.72
560.47
561.2
561.94
562.69
563.43
564.19
564.96
565.71
566.21
567.24
568
568.77
569.53
570.29
570.79
571.81
572.6
573.19
574.13
574.9
575.66
576.42
577.2
577.96
578.75
579.24
580.27
581.05
581.82
582.32
583.34
584.11
584.88
585.4
586.37
587.12
587.87
588.64
589.38
590.11
590.88
591.6
592.32
592.83
593.79
594.52
595.26
595.98
596.73
597.46
598.18
598.68
599.64
600.39
601.13
601.87
602.62
603.37
604.11
604.61
605.64
606.42
607.02
607.39
608.48
609.28
610.06
610.57
611.6
612.4
613.2
613.7
614.76
615.54
616.29
616.78
617.81
618.58
619.34
620.1
620.89
621.67
622.44
623.25
624.04
624.85
625.64
626.44
627.25
628.02
628.79
629.57
630.31
631.09
631.83
632.56
633.33
634.08
634.81
635.56
636.32
636.85
637.84
638.58
639.35
640.1
640.83
641.58
642.32
643.09
643.86
644.61
645.41
645.9
646.95
647.73
648.51
649.03
650.07
650.85
651.64
652.42
653.18
653.96
654.74
655.56
656.33
657.12
657.94
658.72
659.5
660.28
661.04
661.83
662.61
663.37
664.14
664.64
665.66
666.42
667.18
667.95
668.7
669.48
670.24
670.99
671.76
672.53
673.31
674.08
674.58
675.62
676.38
677.13
677.9
678.64
679.14
680.14
680.88
681.64
682.39
683.11
683.87
684.62
685.38
686.15
686.91
687.67
688.45
689.2
689.96
690.73
691.23
692.24
693.01
693.79
694.54
695.29
696.06
696.81
697.6
698.37
698.86
699.89
700.65
701.39
702.14
702.89
703.65
704.41
705.16
705.95
706.72
707.48
708.26
709.05
709.86
710.63
711.42
712.22
713.01
713.79
714.56
715.34
716.14
716.91
717.7
718.48
719.26
720.03
720.8
721.29
722.36
723.12
723.89
724.67
725.43
725.93
726.96
727.72
728.5
729.26
730.03
730.53
731.57
732.35
733.11
733.63
734.66
735.43
736.23
736.99
737.76
738.54
739.33
740.13
740.94
741.74
742.56
743.37
744.18
744.97
745.77
746.59
747.36
748.15
748.95
749.72
750.51
751.29
752.07
752.86
753.64
754.44
755.23
756.02
756.81
757.61
758.42
759
759.98
760.79
761.57
762.34
763.11
763.89
764.67
765.46
766.26
767.04
767.81
768.62
769.4
770.21
770.99
771.75
772.57
773.35
774.11
774.89
775.67
776.46
777.23
778.01
778.79
779.56
780.33
781.08
781.86
782.65
783.39
783.87
784.92
785.67
786.44
787.19
787.93
788.69
789.46
790.2
790.97
791.73
792.49
793.25
794.03
794.81
795.57
796.36
797.14
797.63
798.67
799.43
800.19
800.98
801.75
802.51
803.31
804.08
804.86
805.64
806.44
807.22
807.99
808.8
809.58
810.34
811.14
811.91
812.69
813.47
814.25
815.06
815.84
816.62
817.41
818.2
819
819.78
820.56
821.35
822.14
822.9
823.67
824.44
825.23
825.99
826.77
827.55
828.33
829.11
829.89
830.39
831.33
832.13
832.65
833.7
834.47
835.25
836.01
836.78
837.57
838.34
839.14
839.67
840.68
841.48
842.26
843.05
843.82
844.59
845.38
846.17
846.94
847.71
848.49
849.28
850.06
850.86
851.66
852.43
853.23
854.02
854.81
855.6
856.39
857.18
857.97
858.73
859.49
860.26
861.05
861.81
862.57
863.36
864.12
864.88
865.65
866.4
867.18
867.93
868.69
869.45
870.21
870.96
871.7
872.45
873.22
873.97
874.71
875.48
876.24
876.99
877.76
878.53
879.32
880.08
880.85
881.64
882.41
883.18
883.94
884.71
885.51
886.27
887.05
887.84
888.62
889.4
890.17
890.95
891.74
892.52
893.3
894.09
894.85
895.63
896.38
897.16
897.93
898.68
899.46
900.22
900.98
901.75
902.51
903.28
904.05
904.81
905.58
906.36
907.11
907.86
908.62
909.39
910.16
910.92
911.71
912.48
913.24
914.03
914.79
915.57
916.35
917.11
917.91
918.69
919.46
920.23
921.01
921.79
922.56
923.34
924.13
924.91
925.69
926.45
927.23
928
928.76
929.52
930.29
931.04
931.8
932.57
933.33
934.11
934.87
935.67
936.45
937.22
938.02
938.8
939.59
940.38
941.14
941.93
942.71
943.47
944.23
945.01
945.78
946.54
947.32
948.09
948.86
949.34
950.36
951.13
951.9
952.64
953.39
954.16
954.9
955.39
956.36
957.11
957.86
958.59
959.34
960.08
960.84
961.59
962.34
963.09
963.87
964.62
965.37
966.16
966.91
967.64
968.41
969.17
969.94
970.71
971.47
972.25
973.02
973.78
974.54
975.3
976.07
976.82
977.57
978.34
979.08
979.57
980.56
981.3
982.05
982.79
983.53
984.3
985.05
985.79
986.54
987.29
988.04
988.79
989.52
990.3
991.04
991.76
992.52
993.02
994.02
994.78
995.53
996.29
997.05
997.79
998.54
999.29
1000
1000.3
1000.7
1001.5
1002.3
1003
1003.5
1003.8
1004.5
1005.3
1006
1006.8
1007.5
1008.3
1009.1
1009.8
1010.6
1011.3
1012.1
1012.8
1013.6
1014.3
1015.1
1015.8
1016.6
1017.3
1018
1018.8
1019.5
1020.3
1021.1
1021.8
1022.6
1023.3
1024.1
1024.8
1025.6
1026.4
1027.1
1027.8
1028.6
1029.3
1030.1
1030.9
1031.6
1032.4
1033.1
1033.9
1034.6
1035.4
1036.1
1036.9
1037.6
1038.4
1039.2
1039.6
1040.7
1041.4
1042.2
1042.9
1043.6
1044.4
1045.2
1045.9
1046.7
1047.4
1048.2
1048.7
1049.7
1050.5
1051.2
1051.9
1052.7
1053.4
1054.2
1054.9
1055.7
1056.4
1057.2
1057.9
1058.7
1059.2
1060.2
1060.9
1061.7
1062.4
1063.2
1063.9
1064.7
1065.4
1066.1
1066.9
1067.6
1068.4
1069.2
1069.7
1070.7
1071.4
1072.2
1072.9
1073.7
1074.4
1075.2
1075.9
1076.7
1077.4
1078.2
1078.9
1079.7
1080.1
1081.2
1081.9
1082.7
1083.4
1084.2
1084.9
1085.7
1086.4
1087.2
1087.9
1088.6
1089.4
1090.1
1090.6
1091.7
1092.4
1093.2
1093.9
1094.7
1095.4
1096.2
1096.9
1097.7
1098.4
1099.2
1100
1100.7
1101.5
1102.2
1103
1103.7
1104.5
1105.2
1106
1106.8
1107.3
1108.2
1109
1109.8
1110.5
1111.2
1112
1112.7
1113.5
1114.2
1114.9
1115.7
1116.4
1117.2
1117.9
1118.6
1119.4
1120.1
1120.9
1121.6
1122.4
1123.2
1123.9
1124.7
1125.2
1126.2
1127
1127.7
1128.5
1129.2
1130
1130.8
1131.3
1132.3
1133
1133.8
1134.5
1135.3
1136
1136.8
1137.5
1138.3
1138.8
1139.8
1140.5
1141.3
1142
1142.8
1143.5
1144.3
1144.8
1145.8
1146.5
1147.3
1148
1148.8
1149.5
1150.3
1151
1151.8
1152.5
1153.3
1154
1154.8
1155.5
1156.3
1157
1157.8
1158.6
1159.3
1160.1
1160.8
1161.6
1162.3
1163.1
1163.9
1164.6
1165.4
1165.9
1166.9
1167.6
1168.4
1169.1
1169.9
1170.6
1171.4
1172.1
1172.8
1173.6
1174.3
1175.1
1175.8
1176.5
1177.3
1178
1178.8
1179.5
1180.3
1180.8
1181.8
1182.5
1183.3
1184
1184.7
1185.5
1186.2
1187
1187.7
1188.5
1189.3
1190
1190.8
1191.5
1192.3
1193.1
1193.8
1194.3
1195.4
1196.1
1196.9
1197.6
1198.4
1199.1
1199.9
1200.6
1201.4
1202.2
1202.9
1203.7
1204.4
1204.9
1205.9
1206.7
1207.4
1208.2
1208.9
1209.7
1210.4
1211.1
1211.9
1212.6
1213.4
1213.9
1214.9
1215.6
1216.4
1217.1
1217.9
1218.6
1219.4
1220.1
1220.8
1221.6
1222.3
1223.1
1223.8
1224.6
1225.3
1226.1
1226.8
1227.6
1228.3
1229
1229.8
1230.5
1231.3
1232
1232.7
1233.5
1234.2
1234.9
1235.7
1236.4
1237.2
1237.9
1238.7
1239.4
1240.1
1240.9
1241.6
1242.3
1243.1
1243.8
1244.6
1245.3
1246
1246.7
1247.5
1248.2
1249
1249.7
1250.5
1251.2
1251.9
1252.7
1253.4
1254.1
1254.8
1255.6
1256.3
1257
1257.8
1258.5
1259.2
1260
1260.7
1261.2
1262.2
1262.9
1263.6
1264.4
1265.1
1265.8
1266.6
1267.3
1268
1268.7
1269.5
1270.2
1270.9
1271.4
1272.4
1273.1
1273.9
1274.6
1275.3
1276.1
1276.8
1277.5
1278.3
1279
1279.7
1280.2
1281.2
1281.9
1282.7
1283.4
1284.1
1284.9
1285.6
1286.1
1287.1
1287.8
1288.6
1289.3
1290
1290.7
1291.5
1292.2
1292.9
1293.4
1294.4
1295.1
1295.9
1296.6
1297.3
1298.1
1298.8
1299.5
1300.3
1301
1301.8
1302.5
1303.2
1303.9
1304.7
1305.4
1306.1
1306.9
1307.6
1308.3
1309.1
1309.8
1310.6
1311.3
1312
1312.5
1313.5
1314.3
1315
1315.7
1316.5
1317.2
1317.9
1318.7
1319.4
1320.2
1320.9
1321.6
1322.4
1323.2
1323.9
1324.6
1325.4
1326.1
1326.9
1327.6
1328.4
1328.8
1329.8
1330.6
1331.3
1332.1
1332.8
1333.5
1334.3
1335.1
1335.8
1336.5
1337.3
1338
1338.8
1339.3
1340.3
1341
1341.8
1342.5
1343.2
1344
1344.7
1345.5
1346.3
1347
1347.7
1348.5
1349.2
1349.7
1350.7
1351.5
1352.2
1353
1353.7
1354.3
1354.4
1355.2
1355.9
1356.6
1357.2
1358.1
1358.9
1359.6
1360.3
1361.1
1361.8
1362.6
1363.3
1364
1364.8
1365.2
1365.5
1366.3
1367
1367.7
1368.5
1369.2
1370
1370.7
1371.4
1372.2
1372.9
1373.4
1374.4
1375.2
1375.9
1376.6
1377.3
1378.1
1378.8
1379.6
1380.3
1381.1
1381.8
1382.3
1383.3
1384
1384.8
1385.5
1386.3
1387
1387.7
1388.4
1389.2
1389.9
1390.4
1390.6
1391.3
1392.1
1392.8
1393.6
1394.4
1395.1
1395.8
1396.6
1397.3
1398.1
1398.8
1399.3
1399.6
1400.3
1401.1
1401.8
1402.5
1403.3
1403.8
1404.1
1404.8
1405.5
1405.9
1406.3
1407.1
1407.8
1408.5
1409.3
1410
1410.8
1411.5
1412.2
1412.9
1413.7
1414.4
1415.1
1415.8
1416.6
1417.3
1418.1
1418.9
1419.6
1420.4
1420.9
1421.9
1422.7
1423.4
1424.1
1424.9
1425.6
1426.4
1427.1
1427.8
1428.6
1429.3
1430.1
1430.8
1431.6
1432.3
1433.1
1433.8
1434.6
1435.3
1435.8
1436.8
1437.5
1438.3
1439
1439.8
1440.5
1441.3
1442
1442.8
1443.5
1444.3
1445
1445.7
1446.5
1447.2
1447.9
1448.6
1449.3
1450.1
1450.5
1451.5
1452.2
1453
1453.7
1454.4
1455.2
1455.8
1456.6
1457.3
1458
1458.7
1459.4
1460.1
1460.8
1461.6
1462.3
1463
1463.7
1464.5
1465.2
1465.9
1466.5
1467.4
1468.1
1468.8
1469.6
1470.3
1471
1471.7
1472.4
1473.2
1473.9
1474.6
1475.3
1476.1
1476.8
1477.5
1478.3
1479
1479.7
1480.5
1481.2
1481.9
1482.6
1483.4
1484.1
1484.8
1485.5
1486.3
1487
1487.7
1488.4
1489.2
1489.9
1490.6
1491.3
1492.1
1492.8
1493.5
1494.3
1495
1495.7
1496.4
1497.1
1497.8
1498.6
1499.3
1500
1500.8
1501.5
1502.3
1503
1503.8
1504.5
1505.3
1505.8
1506.8
1507.5
1508.2
1508.9
1509.7
1510.4
1511.1
1511.8
1512.6
1513.3
1514
1514.8
1515.5
1516.2
1517
1517.7
1518.5
1519.2
1519.9
1520.7
1521.4
1522.1
1522.8
1523.6
1524.3
1525.1
1525.8
1526.5
1527.3
1528
1528.7
1529.3
1530.2
1531
1531.7
1532.4
1533.2
1533.9
1534.7
1535.1
1536.2
1536.9
1537.7
1538.5
1539.2
1540
1540.7
1541.5
1542.2
1542.9
1543.7
1544.4
1545.1
1545.8
1546.6
1547.3
1548
1548.8
1549.5
1550.2
1550.9
1551.5
1551.9
1552.9
1553.6
1554.4
1555.1
1555.8
1556.5
1557.2
1558
1558.7
1559.4
1560.2
1560.9
1561.6
1562.4
1563.1
1563.9
1564.6
1565.3
1566.1
1566.6
1567.5
1568.3
1569
1569.7
1570.5
1571.2
1571.9
1572.6
1573.4
1573.9
1574.8
1575.5
1576.2
1577
1577.7
1578.4
1579.2
1579.9
1580.6
1581.4
1582.1
1582.8
1583.6
1584.3
1585.1
1585.8
1586.6
1587.3
1588.1
1588.8
1589.5
1590.3
1591
1591.7
1592.4
1593.2
1593.9
1594.6
1595.4
1595.9
1596.8
1597.6
1598.3
1599
1599.8
1600.5
1601.2
1601.9
1602.6
1603.3
1604.1
1604.8
1605.5
1606.2
1607
1607.7
1608.4
1609.2
1609.9
1610.7
1611.4
1612.2
1612.9
1613.6
1614.4
1615.1
1615.8
1616.5
1617.3
1618
1618.7
1619.4
1620.2
1620.9
1621.4
1622.4
1623.1
1623.8
1624.5
1625.2
1625.9
1626.7
1627.3
1628.1
1628.8
1629.5
1630.2
1630.9
1631.7
1632.4
1633.1
1633.8
1634.6
1635.3
1636
1636.7
1637.4
1638.1
1638.9
1639.6
1640.3
1641
1641.7
1642.4
1643.1
1643.8
1644.5
1645.2
1645.9
1646.6
1647.3
1648
1648.7
1649.4
1650.1
1650.8
1651.5
1652.2
1652.9
1653.6
1654.4
1655.1
1655.8
1656.5
1657.2
1657.9
1658.7
1659.4
1660.1
1660.8
1661.5
1662.3
1663
1663.7
1664.4
1665.2
1665.9
1666.6
1667.3
1668
1668.7
1669.4
1670.1
1670.9
1671.6
1672.3
1673
1673.7
1674.4
1675.1
1675.8
1676.5
1677.2
1677.9
1678.6
1679.3
1680.1
1680.8
1681.5
1682.2
1683
1683.7
1684.4
1685.1
1685.9
1686.6
1687.3
1688
1688.7
1689.4
1690.1
1690.8
1691.6
1692.3
1693
1693.7
1694.4
1695.2
1695.9
1696.6
1697.3
1698.1
1698.8
1699.5
1700.2
1701
1701.7
1702.4
1703.1
1703.8
1704.6
1705.3
1706
1706.7
1707.5
1708.2
1708.9
1709.6
1710.3
1711
1711.7
1712.5
1713.2
1713.9
1714.6
1715.3
1716
1716.7
1717.5
1718.2
1718.9
1719.6
1720.3
1721
1721.7
1722.4
1723.2
1723.9
1724.6
1725.3
1726
1726.7
1727.4
1728.1
1728.9
1729.6
1730.3
1731
1731.8
1732.5
1733.2
1733.9
1734.7
1735.4
1735.9
1736.9
1737.6
1738.3
1739
1739.7
1740.4
1741.2
1741.9
1742.6
1743.4
1744.1
1744.8
1745.5
1746.3
1747
1747.7
1748.4
1749.1
1749.9
1750.6
1751.3
1752
1752.7
1753.5
1754.2
1754.9
1755.6
1756.3
1757.1
1757.8
1758.5
1759.2
1759.9
1760.6
1761.4
1762.1
1762.8
1763.5
1764.2
1765
1765.7
1766.4
1767.2
1767.9
1768.7
1769.4
1770.1
1770.8
1771.6
1772.3
1773
1773.7
1774.4
1775.1
1775.8
1776.6
1777.3
1778
1778.8
1779.5
1780.2
1780.9
1781.7
1782.4
1783.1
1783.8
1784.6
1785.3
1786
1786.7
1787.5
1788.2
1788.9
1789.6
1790.4
1791.1
1791.8
1792.5
1793.2
1794
1794.7
1795.4
1796.1
1796.8
1797.5
1798.2
1799
1799.7
1800.4
1801.1
1801.8
1802.6
1803.3
1804
1804.7
1805.4
