0.2
0.525
1.6611
2.7944
3.9111
5.0944
6.2472
7.4361
8.625
9.8028
10.994
12.172
13.333
14.553
15.758
16.939
18.194
19.397
20.642
21.864
23.111
24.356
25.581
26.806
27.997
29.219
30.358
31.517
32.667
33.831
35.061
36.292
37.503
38.761
39.967
41.225
42.453
43.65
44.867
46.056
47.283
48.478
49.697
50.964
52.15
53.406
54.65
55.853
57.064
58.286
59.5
60.708
61.942
63.153
64.364
65.606
66.797
68.022
69.175
70.375
71.544
72.7
73.925
75.1
76.322
77.489
78.714
79.939
81.117
82.353
83.472
84.683
85.861
87.069
88.297
89.528
90.789
91.992
93.25
94.458
95.711
96.914
98.133
99.333
100.51
101.75
102.97
104.17
105.4
106.59
107.78
108.94
110.17
111.34
112.54
113.77
114.97
116.19
117.37
118.59
119.77
120.95
122.13
123.28
124.47
125.64
126.84
128.04
129.23
130.47
131.66
132.84
134.06
135.24
136.48
137.7
138.91
140.11
141.28
142.51
143.67
144.86
146.05
147.18
148.38
149.56
150.74
151.93
153.13
154.33
155.52
156.68
157.85
159.01
160.17
161.39
162.6
163.89
165.13
166.38
167.61
168.85
170.11
171.33
172.59
173.79
175.03
176.21
177.41
178.61
179.76
180.94
182.13
183.26
184.44
185.61
186.8
187.97
189.15
190.35
191.49
192.68
193.87
195.04
196.27
197.43
198.63
199.79
201
202.2
203.37
204.59
205.78
206.99
208.2
209.38
210.56
211.72
212.88
214.08
215.21
216.38
217.55
218.68
219.85
220.98
222.14
223.28
224.43
225.63
226.78
227.98
229.15
230.35
231.53
232.71
233.9
235.07
236.23
237.41
238.55
239.73
240.9
242.1
243.31
244.5
245.76
246.94
248.15
249.35
250.53
251.77
252.95
254.18
255.37
256.61
257.84
259.07
260.27
261.5
262.7
263.89
265.1
266.25
267.45
268.63
269.81
270.99
272.15
273.33
274.5
275.66
276.86
278.06
279.26
280.5
281.71
282.94
284.11
285.29
286.49
287.65
288.84
290.01
291.2
292.41
293.6
294.81
295.99
297.18
298.38
299.55
300.74
301.93
303.1
304.31
305.48
306.68
307.84
309.02
310.2
311.35
312.53
313.69
314.86
316.04
317.21
318.43
319.59
320.77
321.93
323.08
324.24
325.43
326.58
327.76
328.91
330.1
331.27
332.44
333.63
334.78
335.98
337.11
338.26
339.42
340.56
341.74
342.9
344.09
345.27
346.42
347.59
348.76
349.92
351.11
352.28
353.45
354.62
355.76
356.95
358.08
359.24
360.39
361.52
362.7
363.86
365.06
366.26
367.43
368.62
369.75
370.92
372.06
373.21
374.39
375.56
376.77
377.96
379.17
380.39
381.55
382.74
383.98
385.17
386.4
387.58
388.8
390.04
391.2
392.44
393.63
394.83
395.99
397.15
398.34
399.49
400.68
401.87
403.08
404.3
405.54
406.78
407.97
409.18
410.38
411.54
412.74
413.89
415.09
416.32
417.51
418.76
419.95
421.18
422.38
423.57
424.8
425.99
427.19
428.43
429.6
430.8
431.98
433.14
434.34
435.49
436.69
437.86
439.04
440.26
441.41
442.62
443.79
444.99
446.18
447.36
448.55
449.69
450.88
452.04
453.22
454.39
455.56
456.73
457.88
459.01
460.22
461.38
462.57
463.77
464.97
466.16
467.34
468.56
469.69
470.86
472.02
473.16
474.36
475.52
476.73
477.88
479.09
480.26
481.4
482.58
483.75
484.96
486.15
487.36
488.57
489.73
490.9
492.04
493.2
494.34
495.49
496.66
497.84
499.04
500.23
501.42
502.61
503.83
505.03
506.26
507.49
508.72
509.98
511.19
512.41
513.6
514.81
516
517.21
518.39
519.59
520.79
521.93
523.11
524.29
525.42
526.59
527.72
528.86
530.01
531.14
532.33
533.47
534.65
535.83
536.97
538.16
539.33
540.52
541.68
542.89
544.07
545.2
546.39
547.56
548.77
549.96
551.17
552.35
553.55
554.76
555.94
557.14
558.35
559.55
560.75
561.92
563.12
564.3
565.47
566.66
567.82
568.97
570.13
571.3
572.44
573.59
574.75
575.91
577.08
578.24
579.46
580.63
581.83
583.06
584.26
585.47
586.64
587.84
589.04
590.25
591.49
592.66
593.89
595.09
596.33
597.54
598.75
599.94
601.11
602.3
603.49
604.66
605.87
607.05
608.25
609.43
610.62
611.83
612.99
614.19
615.35
616.52
617.71
618.89
620.11
621.25
622.47
623.64
624.8
626
627.19
628.4
629.58
630.78
632.02
633.18
634.36
635.56
636.73
637.93
639.12
640.32
641.54
642.69
643.86
644.95
646.07
647.16
648.25
649.37
650.47
651.62
652.73
653.91
655.08
656.26
657.44
658.61
659.82
660.97
662.18
663.36
664.54
665.72
666.91
668.09
669.23
670.42
671.56
672.73
673.89
675.11
676.3
677.5
678.73
679.89
681.09
682.29
683.48
684.67
685.85
687.06
688.23
689.42
690.62
691.8
692.99
694.17
695.37
696.54
697.71
698.92
700.1
701.32
702.49
703.72
704.88
706.06
707.22
708.37
709.57
710.71
711.88
713.02
714.14
715.26
716.33
717
717.39
717.96
718.41
719.4
720.39
721.34
722.28
723.22
724.13
725.06
725.92
726.5
727.14
727.49
728.43
729.38
730.33
731.3
732.26
733.25
734.26
735.27
736.32
737.39
738.5
739.64
740.8
742
743.19
744.4
745.59
746.79
747.95
749.14
750.34
751.5
752.64
753.74
754.86
755.88
756.92
757.98
758.99
760.05
761.11
762.2
763.35
764.49
765.71
766.89
768.13
769.33
770.58
771.76
773.02
774.22
775.47
776.67
777.91
779.12
780.33
781.55
782.77
784
785.21
786.45
787.65
788.88
790.09
791.29
792.49
793.67
794.87
796.01
797.17
798.31
799.45
800.59
801.72
802.9
804.03
805.23
806.38
807.59
808.76
809.95
811.13
812.33
813.55
814.73
815.96
817.12
818.34
819.52
820.74
821.95
823.17
824.37
825.55
826.74
827.9
829.08
830.27
831.43
832.62
833.79
834.98
836.16
837.34
838.51
839.66
840.82
841.98
843.13
844.3
845.45
846.61
847.76
848.93
850.1
851.26
852.44
853.59
854.75
855.87
857.03
858.18
859.38
860.58
861.76
862.99
864.15
865.35
866.53
867.73
868.94
870.12
871.33
872.49
873.71
874.89
876.07
877.27
878.42
879.63
880.82
882.02
883.22
884.39
885.57
886.71
887.86
889
890.15
891.29
892.47
893.65
894.81
895.99
897.2
898.38
899.58
900.73
901.89
903.08
904.24
905.45
906.59
907.77
908.93
910.11
911.3
912.48
913.66
914.84
916.07
917.21
918.4
919.56
920.73
921.91
923.05
924.24
925.38
926.55
927.71
928.88
930.06
931.22
932.41
933.57
934.73
935.91
937.04
938.21
939.37
940.55
941.73
942.91
944.12
945.31
946.52
947.73
948.92
950.14
951.34
952.57
953.74
954.94
956.13
957.31
958.5
959.65
960.83
961.97
963.14
964.34
965.49
966.69
967.85
969.05
970.22
971.38
972.55
973.69
974.89
976.04
977.23
978.42
979.59
980.78
981.92
983.11
984.27
985.44
986.62
987.79
988.98
990.14
991.32
992.5
993.65
994.85
996
997.18
998.38
999.57
1000.8
1001.9
1003.2
1004.3
1005.5
1006.6
1007.8
1009
1010.1
1011.3
1012.4
1013.5
1014.5
1015.5
1016.6
1017.6
1018.6
1019.7
1020.8
1021.9
1023.1
1024.3
1025.6
1026.9
1028.1
1029.3
1030.5
1031.8
1033
1034.2
1035.5
1036.7
1037.9
1039.1
1040.4
1041.6
1042.8
1043.9
1045.1
1046.3
1047.4
1048.6
1049.7
1050.9
1052.1
1053.3
1054.5
1055.7
1056.9
1058.1
1059.3
1060.5
1061.8
1063
1064.2
1065.5
1066.7
1067.9
1069.1
1070.3
1071.6
1072.8
1074.1
1075.3
1076.5
1077.7
1079
1080.2
1081.4
1082.6
1083.8
1085
1086.2
1087.3
1088.5
1089.7
1090.9
1092.1
1093.2
1094.4
1095.6
1096.8
1097.9
1099.1
1100.3
1101.5
1102.7
1103.8
1105
1106.2
1107.3
1108.5
1109.6
1110.8
1112
1113.2
1114.4
1115.6
1116.8
1118
1119.3
1120.5
1121.7
1122.9
1124.1
1125.4
1126.5
1127.7
1128.9
1130.1
1131.3
1132.5
1133.6
1134.8
1136
1137.1
1138.3
1139.5
1140.7
1141.9
1143.1
1144.3
1145.5
1146.7
1147.8
1149
1150.2
1151.3
1152.5
1153.7
1154.8
1156.1
1157.2
1158.5
1159.7
1160.9
1162.1
1163.3
1164.5
1165.6
1166.8
1168
1169.2
1170.4
1171.6
1172.8
1174
1175.2
1176.4
1177.6
1178.7
1179.9
1181
1182.3
1183.4
1184.6
1185.8
1186.9
1188.1
1189.2
1190.4
1191.6
1192.7
1193.9
1195.1
1196.3
1197.4
1198.6
1199.8
1201
1202.2
1203.4
1204.6
1205.8
1207
1208.2
1209.4
1210.6
1211.8
1213
1214.1
1215.3
1216.5
1217.7
1218.8
1220
1221.2
1222.4
1223.5
1224.7
1225.8
1227
1228.2
1229.3
1230.5
1231.7
1232.9
1234.1
1235.3
1236.4
1237.6
1238.8
1240
1241.3
1242.5
1243.7
1244.9
1246.1
1247.3
1248.5
1249.7
1250.8
1252
1253.2
1254.4
1255.7
1256.8
1258.1
1259.3
1260.4
1261.7
1262.8
1264
1265.2
1266.5
1267.6
1268.8
1270
1271.2
1272.4
1273.6
1274.8
1275.9
1277.1
1278.3
1279.5
1280.7
1281.8
1283
1284.1
1285.3
1286.4
1287.6
1288.8
1290
1291.2
1292.4
1293.6
1294.7
1295.9
1297.1
1298.3
1299.5
1300.6
1301.8
1303
1304.2
1305.4
1306.5
1307.7
1308.9
1310
1311.2
1312.4
1313.5
1314.7
1315.8
1317
1318.1
1319.3
1320.5
1321.6
1322.8
1324
1325.2
1326.4
1327.6
1328.7
1329.9
1331
1332.2
1333.4
1334.5
1335.7
1336.9
1338.1
1339.2
1340.4
1341.6
1342.8
1344
1345.2
1346.3
1347.5
1348.7
1349.9
1351.1
1352.3
1353.5
1354.7
1355.8
1357.1
1358.2
1359.4
1360.6
1361.7
1362.9
1364.1
1365.3
1366.4
1367.6
1368.8
1369.9
1371.1
1372.2
1373.4
1374.6
1375.8
1377
1378.2
1379.3
1380.5
1381.7
1382.9
1384.1
1385.2
1386.4
1387.6
1388.8
1390
1391.2
1392.3
1393.5
1394.7
1395.8
1397
1398.1
1399.3
1400.5
1401.7
1402.9
1404
1405.2
1406.4
1407.6
1408.8
1409.9
1411.1
1412.3
1413.5
1414.7
1415.8
1417
1418.2
1419.3
1420.5
1421.7
1422.9
1424
1425.2
1426.3
1427.5
1428.6
1429.8
1431
1432.1
1433.3
1434.4
1435.6
1436.8
1438
1439.1
1440.3
1441.5
1442.6
1443.8
1445
1446.1
1447.3
1448.4
1449.6
1450.8
1452
1453.2
1454.3
1455.5
1456.7
1457.8
1459
1460.2
1461.3
1462.5
1463.6
1464.8
1465.9
1467.1
1468.3
1469.4
1470.6
1471.7
1472.9
1474
1475.2
1476.4
1477.5
1478.7
1479.8
1481
1482.1
1483.3
1484.5
1485.6
1486.8
1488
1489.1
1490.3
1491.5
1492.7
1493.8
1495
1496.2
1497.4
1498.5
1499.7
1500.8
1502
1503.2
1504.4
1505.5
1506.7
1507.9
1509
1510.2
1511.4
1512.5
1513.7
1514.8
1516
1517.2
1518.3
1519.5
1520.6
1521.8
1523
1524.2
1525.4
1526.6
1527.7
1528.9
1530.1
1531.3
1532.5
1533.7
1534.9
1536
1537.2
1538.3
1539.5
1540.6
1541.8
1542.9
1544.1
1545.3
1546.4
1547.6
1548.8
1549.9
1551.1
1552.2
1553.4
1554.5
1555.7
1556.9
1558
1559.2
1560.4
1561.5
1562.7
1563.8
1565
1566.2
1567.3
1568.5
1569.7
1570.9
1572
1573.2
1574.4
1575.5
1576.7
1577.9
1579.1
1580.2
1581.5
1582.6
1583.8
1584.9
1586.1
1587.3
1588.5
1589.6
1590.8
1592
1593.1
1594.3
1595.5
1596.6
1597.8
1598.9
1600
1601.2
1602.4
1603.5
1604.7
1605.8
1606.9
1608
1609.1
1610.2
1611.3
1612.4
1613.6
1614.8
1616
1617.2
1618.4
1619.6
1620.8
1622
1623.2
1624.3
1625.5
1626.7
1627.8
1629.1
1630.2
1631.4
1632.6
1633.8
1634.9
1636.1
1637.3
1638.5
1639.7
1640.8
1642
1643.2
1644.4
1645.6
1646.7
1647.9
1649.1
1650.2
1651.4
1652.6
1653.7
1654.9
1656
1657.2
1658.4
1659.6
1660.7
1661.9
1663.1
1664.3
1665.5
1666.6
1667.8
1669
1670.1
1671.3
1672.5
1673.6
1674.8
1676
1677.1
1678.3
1679.4
1680.6
1681.7
1682.9
1684
1685.2
1686.3
1687.5
1688.6
1689.8
1691
1692.2
1693.3
1694.5
1695.6
1696.8
1698
1699.2
1700.4
1701.5
1702.7
1703.8
1705
1706.2
1707.3
1708.5
1709.6
1710.8
1712
1713.2
1714.4
1715.5
1716.7
1717.8
1719
1720.2
1721.3
1722.5
1723.7
1724.9
1726.1
1727.3
1728.5
1729.7
1730.8
1732
1733.2
1734.4
1735.5
1736.7
1737.8
1739
1740.2
1741.3
1742.5
1743.6
1744.8
1746
1747.2
1748.4
1749.5
1750.7
1751.9
1753.1
1754.3
1755.4
1756.6
1757.8
1759
1760.2
1761.3
1762.5
1763.7
1764.8
1766
1767.2
1768.4
1769.5
1770.7
1771.9
1773
1774.2
1775.3
1776.5
1777.7
1778.8
1780
1781.1
1782.2
1783.4
1784.5
1785.7
1786.9
1788
1789.2
1790.3
1791.5
1792.6
1793.8
1794.9
1796.1
1797.2
1798.3
1799.5
1800.6
1801.8
1803
1804.2
1805.3
