0.036111
0.18889
1.025
1.8722
2.7222
3.5667
4.4083
5.2194
6.0417
6.875
7.6833
8.4833
9.3444
10.206
11.05
11.894
12.722
13.564
14.364
15.178
16.006
16.825
17.642
18.456
19.247
20.042
20.85
21.647
22.45
23.272
24.067
24.906
25.739
26.569
27.431
28.272
29.111
29.969
30.683
31.619
32.464
33.308
34.15
34.986
35.828
36.664
37.492
38.306
39.086
39.886
40.661
41.433
42.247
43.047
43.858
44.694
45.536
46.392
47.239
48.092
48.95
49.814
50.675
51.522
52.372
53.214
54.053
54.892
55.708
56.556
57.375
58.214
59.075
59.906
60.744
61.6
62.428
63.269
64.1
64.925
65.742
66.578
67.422
68.239
69.064
69.914
70.758
71.597
72.439
73.264
74.094
74.933
75.772
76.597
77.425
78.269
79.081
79.908
80.722
81.528
82.356
83.186
84
84.825
85.639
86.447
87.256
88.067
88.85
89.644
90.444
91.25
92.058
92.858
93.489
94.397
95.25
96.05
96.844
97.642
98.292
99.167
99.981
100.77
101.56
102.34
103.14
103.94
104.74
105.36
106.28
106.91
107.92
108.74
109.52
110.31
111.09
111.9
112.56
113.41
114.24
115.04
115.85
116.66
117.46
118.28
119.1
119.93
120.76
121.57
122.39
123.19
124.01
124.82
125.64
126.45
127.25
128.09
128.9
129.71
130.53
131.34
132.13
132.95
133.74
134.53
135.32
136.14
136.93
137.75
138.56
139.38
140.21
141.04
141.89
142.72
143.56
144.41
145.26
146.08
146.93
147.78
148.62
149.47
150.32
151.17
152.02
152.88
153.71
154.55
155.42
156.26
157.09
157.95
158.77
159.61
160.44
161.25
162.08
162.88
163.7
164.52
165.34
166.16
166.97
167.77
168.57
169.21
170.09
170.91
171.73
172.53
173.33
174.14
174.93
175.75
176.56
177.36
178.18
179
179.22
180.43
181.32
182.15
182.97
183.78
184.57
185.41
186.21
187.02
187.85
188.67
189.48
190.32
191.17
191.45
192.71
193.6
194.47
195.33
196.15
196.98
197.8
198.63
199.31
200.29
200.95
201.99
202.88
203.75
204.62
205.47
206.3
207.16
207.99
208.8
209.61
210.44
211.27
212.1
212.94
213.77
214.6
215.44
216.29
217.12
217.95
218.8
219.65
220.49
221.33
222.17
223.01
223.87
224.61
225.53
226.37
227.21
228.03
228.85
229.67
230.48
231.3
232.11
232.93
233.73
234.52
235.32
236.12
236.93
237.74
238.54
239.34
240.15
240.98
241.76
242.56
243.39
244.18
245.01
245.82
246.64
247.49
248.33
249.17
250
250.83
251.7
252.57
253.4
254.25
255.11
255.96
256.84
257.72
258.59
259.49
260.38
260.88
261.27
262.1
262.96
263.81
264.31
264.68
265.5
266.31
267.12
267.92
268.73
269.55
270.35
271.16
271.98
272.8
273.65
274.47
275.07
275.98
276.84
277.64
278.45
279.26
279.88
280.77
281.62
282.42
283.22
284.04
284.69
285.62
286.51
286.71
287.97
288.88
289.71
290.53
291.38
292.19
292.96
293.84
294.66
295.49
296.3
297.11
297.97
298.79
299.61
300.43
301.25
302.06
302.82
303.61
304.38
305.04
305.89
306.69
307.48
308.27
309.07
309.71
310.62
311.46
312.29
313.1
313.91
314.76
315.56
316.38
317.21
318.02
318.85
319.68
320.5
321.33
322.16
322.99
323.83
324.67
325.49
326.33
327.16
327.96
328.78
329.6
330.41
331.26
332.08
332.91
333.74
334.59
335.43
336.25
337.11
337.93
338.77
339.61
340.43
341.27
342.05
342.86
343.7
344.49
345.31
346.12
346.93
347.76
348.54
349.16
350.12
350.97
351.81
352.62
353.21
354.08
354.74
355.7
356.34
357.28
357.93
358.89
359.73
360.54
361.11
362
362.82
363.37
363.63
364.43
365.21
365.96
366.74
367.52
368.27
369.01
369.57
369.78
370.54
371.29
372.06
372.84
373.59
374.36
375.13
375.87
376.61
377.34
378.07
378.81
379.55
380.28
381.02
381.75
382.48
383.23
383.98
384.72
385.43
386.19
386.92
387.65
388.39
389.14
389.87
390.6
391.36
392.09
392.83
393.48
394.28
395
395.73
396.44
397.16
397.87
398.57
399.28
399.99
400.69
401.4
402.08
402.78
403.49
404.18
404.89
405.59
406.28
406.96
407.66
408.37
409.06
409.73
410.41
411.1
411.77
412.45
413.14
413.81
414.49
415.17
415.85
416.53
417.22
417.9
418.56
419.24
419.92
420.59
421.26
421.94
422.61
423.27
423.93
424.62
425.29
425.95
426.61
427.3
427.96
428.63
429.31
430.01
430.68
431.36
432.04
432.74
433.41
434.09
434.76
435.44
436.12
436.8
437.47
438.15
438.84
439.37
440.16
440.88
441.58
442.29
442.98
443.69
444.39
445.08
445.79
446.5
447.19
447.88
448.57
449.09
449.86
450.56
451.25
451.94
452.63
453.33
454.04
454.74
455.46
456.18
456.88
457.62
458.34
459.06
459.77
460.51
460.99
461.71
462.58
463.35
464.08
464.82
465.56
466.31
467.04
467.78
468.51
469.23
469.96
470.68
471.41
472.13
472.84
473.54
474.28
474.99
475.72
476.42
477.16
477.88
478.59
479.33
480.07
480.77
481.47
482.21
482.91
483.63
484.32
485.04
485.73
486.46
487.17
487.9
488.6
489.32
490.04
490.73
491.5
492.23
492.94
493.66
494.13
494.99
495.84
496.58
497.31
498.02
498.76
499.39
500.2
500.75
501.67
502.4
503.12
503.86
504.57
505.29
506.01
506.69
507.45
508.18
508.89
509.61
510.32
511.04
511.63
512.44
513.16
513.88
514.59
515.37
516.05
516.76
517.45
517.98
518.77
519.47
520.19
520.91
521.59
522.29
522.98
523.68
524.37
525.07
525.76
526.44
527.13
527.83
528.52
529.21
529.9
530.4
531.17
531.89
532.58
533.27
533.96
534.66
535.34
536.02
536.73
537.35
538.11
538.81
539.55
540.27
540.99
541.72
542.46
543.19
543.92
544.66
545.4
546.14
546.89
547.64
548.39
549.14
549.89
550.64
551.39
552.14
552.91
553.68
554.44
554.98
555.82
556.61
557.15
558.03
558.79
559.56
560.32
561.1
561.87
562.65
563.43
564.21
565
565.79
566.57
567.35
567.84
568.91
569.69
570.49
571.26
572.01
572.81
573.59
574.36
575.14
575.93
576.7
577.47
578.25
579.01
579.79
580.54
581.32
582.09
582.86
583.62
584.4
585.17
585.93
586.71
587.47
588.21
588.95
589.72
590.46
591.2
591.96
592.71
593.45
594.21
594.99
595.74
596.51
597.29
598.06
598.85
599.62
600.39
601.17
601.95
602.73
603.28
604.13
604.9
605.67
606.44
607.2
607.94
608.71
609.47
610.23
611
611.77
612.52
613.28
614.07
614.81
615.58
616.34
617.1
617.85
618.61
619.37
620.13
620.89
621.65
622.41
623.17
623.94
624.71
625.46
626.23
626.99
627.78
628.53
629.06
629.91
630.7
631.46
632.2
632.96
633.68
634.43
635.19
635.96
636.72
637.49
638.25
639.01
639.81
640.56
641.33
642.09
642.85
643.61
644.4
645.15
645.9
646.67
647.44
648.23
648.96
649.74
650.52
651.29
652.09
652.64
653.49
654.26
655.05
655.83
656.6
657.36
658.14
658.93
659.73
660.52
661.32
662.11
662.91
663.73
664.52
665.07
665.94
666.74
667.53
668.14
669.11
669.92
670.76
671.6
672.43
673.29
674.13
674.99
675.87
676.72
677.59
678.45
679.29
680.17
681.04
681.87
682.74
683.59
684.41
685.26
686.09
686.91
687.74
688.58
689.41
690.23
691.07
691.94
692.8
693.67
694.56
695.45
696.33
697.22
698.1
698.97
699.85
700.7
701.56
702.42
703.25
703.81
704.76
705.61
706.47
707.34
708.21
709.1
710
710.88
711.76
712.64
713.52
714.4
715.25
716.13
716.99
717.86
718.74
719.6
720.46
721.34
722.19
723.03
723.88
724.72
725.34
726.34
727.17
728.01
728.86
729.43
730.34
731.16
731.71
732.59
733.23
734.14
734.94
735.73
736.49
737.29
738.06
738.83
739.59
740.38
741.13
741.9
742.69
743.45
743.93
744.94
745.71
746.44
747.19
747.83
747.95
748.64
749.2
749.39
750.14
750.88
751.63
752.38
753.12
753.88
754.63
755.37
756.09
756.7
757.53
758.27
759.02
759.77
760.49
761.02
761.86
762.61
763.35
764.08
764.83
765.41
766.26
767.02
767.77
768.52
769.26
769.98
770.72
771.34
772.15
772.88
773.6
774.33
775.04
775.69
776.49
777.23
777.97
778.75
779.49
780.26
781.02
781.77
782.55
783.34
784.14
784.91
785.7
786.51
787.31
788.12
788.91
789.71
790.51
791.29
792.09
792.91
793.7
794.49
795.31
795.91
796.77
797.6
798.42
799.24
800.05
800.87
801.67
802.49
803.31
804.14
804.98
805.79
806.62
807.44
808.26
809.09
809.89
810.68
811.31
812.13
812.91
813.67
814.46
815.23
815.99
816.79
817.58
818.37
819.16
819.98
820.77
821.58
822.38
823.17
824
824.8
825.62
826.43
827.24
828.08
828.89
829.71
830.54
831.36
832.17
832.46
833.74
834.63
835.49
836.36
837.17
837.97
838.77
839.56
840.37
841.17
841.97
842.76
843.54
844.33
845.12
845.9
846.66
847.44
848.21
848.82
850.04
850.89
851.67
852.46
853.06
853.87
854.65
855.42
856.18
856.93
857.71
858.47
859.22
859.82
860.61
861.39
862.17
862.94
863.19
864.31
865.15
865.93
866.71
867.48
868.22
869.01
869.77
870.52
871.29
872.08
872.67
873.5
874.34
875.12
875.92
876.71
877.51
878.29
879.08
879.88
880.65
881.44
882.23
883.02
883.82
884.61
885.42
886.23
887.04
887.64
888.66
889.56
890.42
891.29
892.11
892.93
893.76
894.56
895.36
896.17
896.96
897.77
898.59
899.41
900.22
901.03
901.85
902.66
903.46
904.24
905.06
905.86
906.67
907.5
908.3
909.1
909.91
910.73
911.54
912.33
913.14
913.92
914.73
915.53
916.33
916.96
918.18
919.13
919.99
920.77
921.59
922.39
923.17
923.99
924.78
925.56
926.36
927.17
927.97
928.75
929.56
930.34
931.13
931.94
932.73
933.52
934.32
935.12
935.91
936.7
937.48
938.26
939.06
939.85
940.64
941.44
942.2
942.79
943.63
944.43
945.17
945.96
946.73
947.48
948.27
949.05
949.81
950.59
951.38
952
953.2
954.04
954.82
955.59
956.35
957.13
957.88
958.52
959.36
960.16
960.73
961.67
962.47
963.24
964.01
964.79
965.56
966.33
967.11
967.93
968.7
969.47
970.26
971.03
971.82
972.63
973.43
974.19
974.82
975.67
976.48
977.27
978.04
978.82
979.58
980.35
981.14
981.93
982.69
983.46
984.13
985.01
985.82
986.62
987.38
988.17
988.96
989.73
990.5
991.28
992.06
992.83
993.62
994.38
995.17
995.94
996.71
997.49
997.99
999.07
999.86
1000.7
1001.4
1002.2
1003
1003.8
1004.6
1005.2
1006.1
1006.9
1007.8
1008.6
1009.4
1010.3
1011.1
1011.9
1012.7
1013.6
1014.4
1015.2
1016
1016.9
1017.2
1018.4
1019.3
1020.1
1020.9
1021.7
1022.6
1023.4
1024.2
1025
1025.8
1026.6
1027.4
1028.2
1029
1029.8
1030.6
1031.4
1032.2
1033
1033.8
1034.6
1035.4
1036.1
1036.9
1037.7
1038.5
1039.3
1040.1
1040.9
1041.7
1042.5
1043.3
1044.1
1044.9
1045.7
1046.5
1047.1
1048
1048.8
1049.6
1050.5
1051.3
1052.1
1052.9
1053.2
1054.4
1055.2
1056.1
1056.9
1057.7
1058.5
1059.3
1060.1
1060.9
1061.7
1062.5
1063.3
1064.1
1064.9
1065.7
1066.5
1067.4
1068.2
1069
1069.9
1070.7
1071.5
1072.3
1073.1
1073.9
1074.8
1075.6
1076.4
1077.2
1078
1078.8
1079.6
1080.5
1081.3
1082
1082.8
1083.6
1084.4
1085.2
1086
1086.8
1087.5
1088.3
1089.1
1089.9
1090.7
1091.5
1092.4
1093.2
1094
1094.8
1095.6
1096.5
1097.3
1098.1
1099
1099.8
1100.6
1101.4
1102.2
1103
1103.9
1104.7
1105.5
1106.3
1107.1
1107.9
1108.8
1109.3
1110.2
1111
1111.8
1112.7
1113.5
1114.3
1115.2
1116
1116.9
1117.7
1118.5
1119.3
1120.2
1121
1121.8
1122.6
1123.5
1124.3
1125.1
1126
1126.8
1127.6
1128.4
1129.2
1129.9
1130.7
1131.6
1132.4
1133.3
1134.1
1134.9
1135.8
1136.6
1137.4
1137.7
1139
1139.8
1140.7
1141.5
1142.4
1143.2
1144.1
1144.9
1145.7
1146.6
1147.4
1148.3
1149.1
1149.9
1150.8
1151.6
1152.5
1153.3
1154.2
1155
1155.8
1156.7
1157.5
1158.3
1159.2
1160
1160.8
1161.6
1162.5
1163.3
1164.1
1164.9
1165.8
1166.6
1167.3
1168.2
1169
1169.8
1170.6
1171.4
1172.2
1173
1173.6
1174.5
1175.3
1176.1
1176.8
1177.6
1178.3
1179.1
1179.9
1180.7
1181.4
1182.2
1183
1183.7
1184.5
1185.3
1186.1
1186.9
1187.7
1188.5
1189.3
1190.1
1190.9
1191.7
1192.5
1193.2
1194
1194.8
1195.6
1196.3
1197.2
1198
1198.8
1199.6
1200.4
1201.2
1202
1202.9
1203.7
1204.5
1205.3
1206.2
1207
1207.8
1208.7
1209.5
1210.3
1211.1
1212
1212.8
1213.6
1214.5
1215.3
1216.1
1217
1217.8
1218.7
1219.5
1220.3
1221.2
1222
1222.9
1223.7
1224.5
1225.3
1226.2
1227
1227.8
1228.7
1229.5
1230.3
1231.1
1231.9
1232.7
1233.5
1234.3
1235.2
1236
1236.8
1237.6
1238.3
1239.1
1239.9
1240.7
1241.5
1242.3
1243.1
1243.7
1244.5
1245.3
1246.1
1247
1247.8
1248.6
1249.4
1250.2
1251
1251.9
1252.7
1253.5
1254.4
1255.2
1256
1256.9
1257.7
1258.6
1259.4
1260.3
1261.2
1262
1262.8
1263.7
1264.6
1265.4
1266.3
1267.2
1268
1268.9
1269.8
1270.6
1271.5
1272.4
1273.2
1274
1274.9
1275.7
1276.6
1277.5
1278.3
1279.1
1280
1280.8
1281.6
1282.5
1283.3
1284.2
1285
1285.9
1286.7
1287.5
1288.4
1289.2
1290
1290.8
1291.6
1292.4
1293.3
1294.1
1294.9
1295.8
1296.6
1297.4
1298.2
1299.1
1299.9
1300.7
1301.5
1302.4
1303.2
1304
1304.8
1305.6
1306.5
1307.3
1308.1
1309
1309.8
1310.6
1311.5
1312.3
1313.1
1314
1314.8
1315.6
1316.5
1317.3
1318.2
1319
1319.9
1320.7
1321.6
1322.4
1323.3
1324.2
1325
1325.9
1326.8
1327.6
1328.5
1329.3
1330.2
1331.1
1331.9
1332.8
1333
1334.4
1335.2
1336.1
1336.9
1337.7
1338.5
1339.3
1340.1
1340.8
1341.7
1342.5
1343.3
1344.2
1345
1345.8
1346.7
1347.5
1348.3
1349.2
1350
1350.8
1351.6
1352.5
1353.3
1354.1
1355
1355.8
1356.6
1357.3
1358.3
1358.6
1358.9
1359.9
1360.8
1361.7
1362.5
1363.4
1364.2
1365.1
1365.7
1366.7
1367.7
1368.6
1369.4
1370.3
1371.2
1372.1
1372.9
1373.8
1374.7
1375.6
1376.4
1377.3
1378.2
1379.1
1379.9
1380.6
1381.6
1382.5
1383
1384.3
1385.2
1386
1386.7
1387.7
1388.6
1389.5
1390.4
1391.3
1392.2
1393.1
1394
1394.9
1395.8
1396.6
1397.5
1398.1
1399.2
1400.1
1401
1401.9
1402.8
1403.7
1404.5
1405.4
1406.2
1407.1
1408
1408.6
1409.6
1410.4
1411.3
1412.2
1412.8
1413.7
1414.6
1415.4
1416.3
1416.9
1417.9
1418.7
1419.6
1420.4
1421.3
1422.1
1423
1423.6
1424.6
1425.4
1426.3
1426.9
1427.9
1428.8
1429.6
1430.2
1431.2
1432.1
1433
1433.8
1434.7
1435.6
1436.4
1437.2
1438.1
1439
1439.8
1440.7
1441.6
1442.4
1443.3
1444.2
1445
1445.9
1446.8
1447.6
1448.5
1449.4
1450.2
1451.1
1452
1452.9
1453.7
1454.6
1455.5
1456.3
1457.2
1458
1458.9
1459.7
1460.6
1461.4
1462.3
1463.2
1464
1464.9
1465.8
1466.6
1467.4
1468.3
1469.1
1470
1470.8
1471.6
1472.5
1473.3
1474.2
1475
1475.8
1476.7
1477.2
1478.3
1479.2
1480
1480.9
1481.7
1482.5
1483.4
1484.2
1485
1485.9
1486.7
1487.6
1488.4
1489.3
1490.2
1491
1491.9
1492.7
1493.6
1494.4
1495.2
1496.1
1497
1497.8
1498.7
1499.6
1500.4
1501.3
1502.2
1503.1
1503.9
1504.8
1505.7
1506.5
1507.4
1508.3
1509.1
1510
1510.8
1511.7
1512.6
1513.4
1514.3
1515.1
1516
1516.8
1517.7
1518.5
1519.4
1520.2
1521.1
1521.9
1522.8
1523.6
1524.5
1525.3
1526.2
1527
1527.6
1528.5
1529.4
1530.2
1531.1
1531.9
1532.7
1533.6
1534.4
1535.3
1536.1
1537
1537.8
1538.6
1539.5
1540.3
1541.1
1541.9
1542.8
1543.6
1544.4
1545.2
1546.1
1546.6
1547.5
1548.5
1549.4
1550.2
1551.1
1551.9
1552.8
1553.6
1554.5
1555.3
1556.2
1557
1557.8
1558.7
1559.5
1560.4
1561.2
1562
1562.9
1563.7
1564.5
1565.3
1566.1
1566.7
1567.6
1568.4
1569.2
1570.1
1570.9
1571.7
1572.6
1573.4
1574.3
1575.2
1576
1576.9
1577.7
1578.5
1579.4
1580.2
1581.1
1581.9
1582.8
1583.7
1584.5
1585.4
1586.3
1586.8
1588
1588.7
1589.7
1590.5
1591.4
1592.3
1593.1
1593.9
1594.8
1595.7
1596.5
1597.4
1598.2
1599.1
1600
1600.8
1601.7
1602.6
1603.4
1604.3
1605.1
1606
1606.9
1607.7
1608.6
1609
1609.4
1610.3
1611.1
1612
1612.8
1613.6
1614.4
1615.3
1616.1
1616.9
1617.5
1618.4
1619.2
1620
1620.8
1621.6
1622.3
1623.1
1623.9
1624.7
1625.2
1625.5
1626.2
1626.9
1627.6
1628.4
1629.1
1629.8
1630.5
1631.2
1631.9
1632.7
1633.4
1634.1
1634.7
1634.9
1635.4
1636.1
1636.8
1637.5
1638.1
1638.8
1639.5
1640.1
1640.5
1640.8
1641.5
1642.2
1642.8
1643.5
1644.2
1644.9
1645.6
1646.2
1646.9
1647.6
1648.3
1649
1649.6
1650.3
1651
1651.6
1652.3
1653
1653.7
1654.3
1655
1655.7
1656.4
1657.1
1657.7
1658.4
1659.1
1659.8
1660.4
1661.1
1661.8
1662.5
1663.2
1663.8
1664.5
1665
1665.8
1666.5
1667.2
1667.9
1668.6
1669.2
1669.9
1670.6
1671.3
1672
1672.7
1673.4
1674.1
1674.8
1675.4
1676.1
1676.8
1677.5
1678.2
1678.9
1679.6
1680.3
1681
1681.8
1682.5
1683.2
1683.8
1684.5
1685.2
1685.9
1686.6
1687.3
1688
1688.7
1689.5
1690.2
1690.9
1691.6
1692.3
1693
1693.7
1694.4
1695.1
1695.8
1696.5
1697.2
1697.9
1698.6
1699.3
1700
1700.6
1701.7
1702.5
1703.2
1703.9
1704.6
1705.3
1706
1706.8
1707.5
1708.1
1708.7
1709.4
1710.1
1710.8
1711.6
1712.1
1712.9
1713.6
1714.3
1715
1715.7
1716.5
1717.2
1717.9
1718.6
1719.3
1720
1720.7
1721.4
1722.1
1722.8
1723.5
1724.2
1724.9
1725.6
1726.3
1726.6
1727
1727.7
1728
1728.4
1729.1
1729.7
1730.4
1731.1
1731.8
1732.5
1733.2
1733.7
1734.5
1735.2
1735.9
1736.6
1737.3
1738
1738.7
1739.5
1740.2
1740.9
1741.6
1742.3
1742.8
1743.3
1744
1744.7
1745.4
1746.1
1746.8
1747.6
1748.3
1748.9
1749.7
1750.3
1751
1751.7
1752.5
1753.1
1753.8
1754.5
1755.3
1756
1756.7
1757.4
1758.1
1758.8
1759.5
1760.2
1760.9
1761.6
1762.3
1763
1763.8
1764.5
1765.2
1765.9
1766.6
1767.4
1768.1
1768.8
1769.5
1770.2
1770.8
1772
1772.7
1773.4
1774.1
1774.8
1775.6
1776.1
1776.9
1777.6
1778.3
1779
1779.5
1780.3
1781
1781.7
1782.4
1783.1
1783.8
1784.5
1785.3
1785.9
1786.6
1787.4
1788.1
1788.8
1789.5
1790.2
1790.9
1791.6
1792.4
1793.1
1793.8
1794.5
1795.1
1795.9
1796.7
1797.4
1798.1
1798.7
1799.5
1800.2
1800.9
1801.7
1802.2
1803.4
1804
1804.8
