0.088889
0.85833
1.3972
2.7139
3.6528
4.5861
5.475
6.3722
6.9111
8.2111
9.1556
10.036
10.897
11.825
12.356
13.628
14.553
15.422
16.339
17.25
18.114
19.067
20
20.867
21.139
21.414
22.717
23.269
24.611
25.144
26.475
27.044
28.317
28.947
30.186
30.736
31.403
32.069
32.953
33.85
34.728
35.567
35.836
36.108
37.394
37.936
39.222
39.792
41.078
41.614
42.267
42.919
43.8
44.667
45.569
46.444
46.967
48.308
49.228
49.758
51.078
52.017
52.558
53.897
54.489
55.844
56.769
57.033
57.3
58.617
59.156
60.453
61.028
61.639
62.253
63.178
64.061
64.947
65.894
66.817
67.794
68.742
69.639
70.175
71.544
72.422
73.339
74.247
75.131
76.017
76.931
77.453
78.808
79.772
80.708
81.6
82.511
82.811
83.083
84.406
84.931
86.294
86.839
87.483
88.131
89.064
89.931
90.825
91.736
92.622
93.519
94.447
95.358
96.269
97.208
98.161
99.072
100.04
100.98
101.9
102.86
103.77
104.67
105.63
106.54
107.43
108.38
109.28
110.16
111.07
111.94
112.85
113.76
114.66
115.58
116.49
117.02
118.32
119.24
120.14
121.01
121.89
122.79
123.66
124.54
125.08
126.37
127.31
128.22
129.11
130.04
130.92
131.19
131.46
132.76
133.31
134.62
135.28
135.91
136.52
137.47
138.35
138.9
140.19
141.1
141.63
142.94
143.86
144.76
145.65
146.52
147.06
148.35
149.31
150.22
151.1
152.02
152.91
153.79
154.72
155.61
156.49
157.42
158.29
158.81
160.14
161.03
161.54
162.84
163.73
164.27
165.53
166.08
167.38
168.25
168.76
170.02
170.88
171.79
172.7
173.59
173.86
174.13
175.54
176.44
176.99
178.37
179.36
179.89
181.25
182.18
182.71
184.03
184.96
185.51
186.17
186.84
187.38
188.71
189.63
189.89
190.15
191.43
192
193.29
193.85
195.14
195.77
197.03
197.56
198.88
199.44
200.09
200.74
201.68
202.58
203.47
204.43
205.34
205.86
207.21
207.78
209.11
210.04
210.92
211.2
211.47
212.81
213.35
214.69
215.23
215.89
216.54
217.48
218.35
219.28
220.21
221.08
222.01
222.95
223.89
224.83
225.79
226.76
227.29
228.61
229.56
230.44
230.98
232.31
232.85
234.18
235.09
235.94
236.49
237.79
238.06
238.33
239.64
240.52
241.06
242.37
243.26
243.8
245.11
246.04
246.57
247.23
247.89
248.62
249.86
250.74
251.27
252.6
253.57
254.46
255.33
256.28
256.81
258.11
259.06
259.98
260.89
261.78
262.31
263.63
264.57
265.46
266.34
267.24
267.78
269.11
270.04
270.98
271.87
272.4
273.7
274.23
275.56
276.48
277.35
277.88
279.2
280.09
280.98
281.24
281.51
282.81
283.36
284.64
285.23
285.89
286.53
287.41
287.94
289.2
290.07
290.61
291.86
292.73
293.04
293.32
294.54
295.06
296.39
296.93
298.23
298.82
299.46
300.07
301.01
301.27
301.54
302.82
303.72
304.25
305.55
306.44
306.96
308.26
309.17
309.69
310.98
311.89
312.42
313.12
313.71
314.24
315.55
316.41
317.25
318.13
318.97
319.86
320.77
321.63
322.16
323.49
324.04
325.32
326.23
327.09
327.36
327.63
328.92
329.8
330.36
331.64
332.52
333.05
334.32
335.21
335.74
336.97
337.88
338.4
339.63
340.51
341.04
341.67
342.31
343.21
344.1
344.97
345.51
346.77
347.31
348.57
349.46
350.31
351.17
352.05
352.91
353.79
354.68
355.53
356.41
357.34
358.21
359.1
360.02
360.89
361.41
362.69
363.23
364.53
365.44
366.29
366.86
368.14
368.4
368.67
369.96
370.83
371.36
372.63
373.51
374.02
375.3
376.18
376.69
377.97
378.85
379.4
380.68
381.56
382.11
383.41
384.26
384.78
385.41
386.04
386.93
387.8
388.69
389.62
390.52
391.43
392.33
393.23
394.16
394.71
396.01
396.97
397.86
398.71
399.62
400.49
401.38
402.29
403.15
404.05
404.98
405.86
406.73
407.65
408.54
409.45
410.34
411.23
412.13
413.02
413.88
414.77
415.68
416.57
417.44
418.34
419.26
420.09
420.96
421.49
422.76
423.7
424.61
425.46
426.36
426.91
428.21
429.14
430.01
430.9
431.82
432.69
433.61
434.55
435.44
435.7
435.96
437.29
438.2
438.74
440.07
440.97
441.52
442.85
443.73
444.27
445.54
446.43
446.96
447.58
448.21
448.77
450.04
450.93
451.77
452.3
453.63
454.51
455.42
456.36
457.25
458.14
459.07
459.96
460.48
461.82
462.36
463.69
464.63
465.49
465.76
466.04
467.34
467.89
469.21
469.75
470.41
471.06
471.99
472.84
473.72
474.61
475.14
476.46
477.4
478.33
479.21
480.11
480.65
481.95
482.93
483.84
484.71
485.65
486.53
487.41
488.35
489.22
490.12
491.06
491.96
492.86
493.79
494.69
495.56
496.46
497.37
498.27
499.16
500.04
500.93
501.83
502.71
503.57
504.48
505.38
506.25
507.16
508.05
508.95
509.86
510.76
511.64
512.57
513.46
514.36
515.29
516.17
517.07
517.97
518.84
519.73
520.66
521.57
522.44
523.38
524.31
525.18
526.09
526.99
527.88
528.78
529.67
530.57
531.48
532.36
533.24
534.14
535.04
535.95
536.85
537.75
538.63
539.5
540.36
541.22
542.09
542.99
543.84
544.75
545.3
546.59
547.54
548.45
549.32
550.26
550.77
552.09
553.06
553.98
554.88
555.79
556.31
557.66
558.62
559.53
560.43
561.34
561.86
563.18
564.13
565.04
565.9
566.81
567.69
567.95
568.22
569.55
570.44
570.98
572.35
573.26
573.78
575.14
576.06
576.59
577.9
578.83
579.37
580.68
581.61
582.14
583.45
584.01
585.33
586.22
586.77
588.04
588.96
589.51
590.79
591.68
592.19
593.47
594.01
595.31
596.17
596.73
597.97
598.83
599.37
600.7
601.64
602.17
602.83
603.5
604.42
605.34
606.23
607.13
608.02
608.94
609.82
610.37
611.69
612.59
613.13
614.43
614.96
616.29
617.18
618.03
618.92
619.81
620.67
621.59
622.11
623.42
624.39
625.26
626.13
627.06
627.58
628.9
629.87
630.78
631.69
632.61
633.13
634.49
635.45
636.34
637.21
638.12
639.04
639.9
640.82
641.74
642.61
643.52
644.42
645.31
646.24
647.13
648.01
648.95
649.82
650.33
651.66
652.55
653.08
654.4
655.3
656.2
657.1
657.96
658.84
659.75
660.66
661.53
662.46
663.36
664.27
665.18
666.09
666.99
667.94
668.83
669.09
669.36
670.72
671.63
672.17
673.47
674.38
674.91
675.58
676.24
677.12
678.04
678.93
679.78
680.32
681.64
682.55
683.09
684.4
685.3
686.19
687.08
687.96
688.48
689.78
690.69
691.23
692.52
693.46
694.38
695.23
696.11
697.01
697.89
698.77
699.67
700.57
701.46
702.34
703.23
704.11
705.02
705.93
706.79
707.71
708.24
709.53
710.48
711.36
712.26
713.19
713.71
715.03
715.98
716.86
717.73
718.6
719.14
720.44
721.36
722.25
723.14
724.05
724.56
725.89
726.86
727.78
728.68
729.62
730.52
731.05
732.38
733.29
733.81
735.16
736.07
736.59
737.93
738.48
739.84
740.74
741.67
742.61
743.49
744.01
745.34
745.89
747.2
748.12
748.99
749.53
750.84
751.38
752.71
753.65
754.52
755.42
756.34
757.23
757.49
757.76
759.07
759.99
760.52
761.84
762.73
763.26
764.58
765.5
765.76
766.01
767.33
767.89
769.21
769.75
770.39
771.04
771.97
772.83
773.09
773.35
774.67
775.59
776.11
777.44
778.34
778.88
780.21
781.11
781.65
782.95
783.85
784.12
784.38
785.66
786.21
787.49
788.04
789.34
790.01
790.64
791.24
792.2
793.1
794
794.9
795.42
796.76
797.72
798.62
799.51
800.44
801.35
802.23
803.13
804.05
804.96
805.86
806.74
807.62
808.55
809.41
810.28
811.21
812.08
812.95
813.86
814.73
815.63
816.54
817.06
818.36
819.31
820.2
821.1
822
822.89
823.42
824.77
825.31
826.65
827.59
828.48
828.99
830.34
830.9
832.21
833.14
834.04
834.57
835.9
836.84
837.37
838.72
839.25
840.59
841.49
842.37
843.26
844.13
844.99
845.92
846.83
847.72
848.68
849.61
850.5
851.44
852.34
853.26
854.17
855.05
855.59
856.94
857.84
858.76
859.67
860.58
861.46
862.34
863.24
864.11
864.98
865.85
866.72
867.64
868.51
869.03
870.36
871.26
871.79
873.11
874
874.92
875.83
876.69
877.6
878.52
879.37
880.28
881.2
882.11
883
883.92
884.45
885.79
886.73
887.66
888.54
889.47
890
891.31
892.28
893.18
894.06
895
895.89
896.79
897.73
898.6
899.12
900.49
901.03
902.35
903.27
904.16
904.7
906.01
906.92
907.82
908.38
909.66
910.58
911.49
912.38
912.93
914.25
915.16
916.07
916.98
917.9
918.78
919.71
920.62
921.49
922.06
923.37
924.25
925.13
926.01
926.89
927.75
928.64
929.17
930.49
931.43
932.37
933.24
934.18
935.11
935.99
936.93
937.84
938.72
939.67
940.59
941.5
942.46
943.37
944.3
945.22
946.09
946.36
946.63
947.95
948.87
949.43
950.72
951.65
952.18
953.46
954.38
954.91
956.21
957.14
957.67
958.99
959.89
960.42
961.69
962.57
963.1
964.41
965.27
965.54
965.8
967.09
967.65
968.94
969.48
970.12
970.76
971.68
972.54
973.4
974.29
974.83
976.1
977.02
977.91
978.79
979.33
980.64
981.21
982.51
983.45
984.32
984.84
986.15
986.69
987.98
988.89
989.76
990.66
991.56
992.44
993.37
994.25
994.77
996.14
996.71
998.02
998.96
999.83
1000.7
1001.6
1002.5
1003.4
1004.3
1005.2
1006.1
1007
1007.9
1008.8
1009.7
1010.5
1011.4
1012.4
1013.2
1014.1
1015
1015.9
1016.8
1017.7
1018.3
1019.6
1020.5
1021.4
1022.2
1022.8
1024.1
1024.6
1025.9
1026.9
1027.7
1028.6
1029.6
1030.5
1031.4
1032.3
1033.2
1034.1
1035
1035.9
1036.8
1037.7
1038.6
1039.5
1040.4
1041.4
1042.3
1043.2
1044.1
1044.7
1046
1046.5
1047.9
1048.8
1049.7
1050.6
1051.5
1052.3
1053.2
1054.1
1055
1055.9
1056.8
1057.7
1058.6
1059.5
1060.4
1061.3
1062.2
1063.1
1063.4
1063.7
1065
1065.6
1067
1067.5
1068.2
1068.9
1069.9
1070.8
1071.8
1072.7
1073.7
1074.6
1075.6
1076.5
1077.1
1078.4
1079.4
1079.7
1079.9
1081.3
1081.9
1083.2
1083.8
1084.5
1085.1
1086.1
1087
1087.5
1088.9
1089.8
1090.8
1091.7
1092.7
1093.6
1093.8
1094.1
1095.5
1096
1097.4
1097.9
1098.6
1099.3
1100.3
1101.2
1102.1
1103
1103.9
1104.8
1105.7
1106
1106.2
1107.6
1108.1
1109.4
1110
1110.6
1111.3
1112.2
1112.8
1114.1
1115
1115.8
1116.6
1116.9
1117.1
1118.1
1118.6
1119.5
1120.1
1120.5
1120.9
1121.7
1122.4
1122.9
1124.1
1124.9
1125.8
1126.7
1127.5
1128
1129.3
1130.2
1131.1
1132
1132.2
1132.5
1133.8
1134.3
1135.6
1136.2
1137.5
1138
1139.3
1139.9
1140.5
1141.1
1142
1142.8
1143.7
1144.5
1144.8
1145
1146.3
1146.8
1148.1
1148.7
1149.3
1149.9
1150.7
1151.5
1152.4
1152.7
1152.9
1154
1154.6
1155.7
1156.3
1157.4
1157.9
1159.1
1159.7
1160.2
1160.7
1161.5
1162.2
1163
1163.8
1164.3
1165.6
1166.5
1167.3
1168.2
1169.1
1169.4
1169.6
1170.9
1171.8
1172.3
1173.6
1174.4
1174.9
1176.2
1177
1177.5
1178.7
1179.6
1179.8
1180.1
1181.3
1181.9
1183
1183.6
1184.8
1185.3
1186.5
1187
1187.6
1188.2
1189
1189.8
1190.6
1191.2
1192.4
1192.9
1194.1
1194.9
1195.7
1196.6
1197.1
1198.3
1199.1
1199.9
1200.8
1201.3
1202.4
1203
1204.1
1204.9
1205.4
1206.5
1206.8
1207.3
1208
1208.6
1209.6
1210.4
1211.1
1211.7
1212.6
1213.4
1213.9
1214.9
1215.5
1216.3
1217
1217.8
1218
1218.3
1219.4
1220.2
1220.8
1222
1222.9
1223.5
1224.2
1224.9
1225.8
1226.3
1227.1
1227.8
1228.8
1229.7
1230.6
1231.6
1231.8
1232.1
1233.5
1234
1235.4
1235.9
1237.3
1237.8
1238.5
1239.1
1240
1240.9
1241.8
1242.7
1243.2
1244.5
1245.5
1246
1247.3
1247.8
1249.1
1250
1250.5
1251.9
1252.7
1253.6
1253.9
1254.2
1255.5
1256
1257.3
1257.8
1258.5
1259.2
1260.1
1261
1261.6
1262.9
1263.8
1264.7
1265.3
1266.6
1267.2
1268.5
1269.4
1270
1271.3
1271.6
1271.8
1273.2
1274.1
1274.6
1276
1276.9
1277.5
1278.8
1279.7
1280.2
1281.5
1282.5
1282.7
1283
1284.3
1284.8
1286.1
1286.6
1287.2
1287.8
1288.7
1289.6
1290.5
1291.4
1291.7
1292
1293.4
1294
1295.4
1296
1297.4
1297.9
1299.4
1299.9
1301.2
1301.8
1303.1
1303.6
1304.3
1304.9
1305.9
1306.8
1307.3
1308.6
1309.2
1310.6
1311.5
1312.4
1313.3
1314.3
1314.8
1316.2
1317.1
1317.7
1319
1320
1320.9
1321.2
1321.5
1322.8
1323.3
1324.7
1325.2
1325.9
1326.5
1327.5
1328.4
1328.7
1329
1330.3
1330.8
1332.2
1332.8
1334.1
1334.6
1336
1336.5
1337.9
1338.4
1339.7
1340.3
1341.5
1342.1
1342.7
1343.3
1344.1
1345
1345.7
1346.5
1347.4
1348.2
1349
1349.9
1350.8
1351.7
1352.6
1353.6
1354.5
1355.4
1356.4
1357.4
1358.3
1358.6
1358.9
1360.3
1360.9
1362.2
1362.7
1364
1364.6
1365.3
1365.9
1366.8
1367.3
1368.5
1369.4
1369.9
1371.1
1371.7
1372.9
1373.7
1374.6
1375.5
1376.3
1377.3
1377.5
1377.8
1379.1
1379.7
1381
1381.5
1382.8
1383.4
1384.7
1385.3
1385.9
1386.6
1387.5
1388
1389.2
1389.8
1391
1391.8
1392.6
1393.2
1394.4
1394.9
1396.1
1396.9
1397.5
1398.7
1399.6
1399.9
1400.1
1401.5
1402
1403.3
1403.8
1405.3
1405.8
1406.5
1407.2
1408.2
1408.7
1410.1
1411.1
1411.6
1413
1413.6
1414.9
1415.9
1416.4
1417.8
1418.7
1419.6
1420.1
1421.5
1422
1423.4
1424.3
1425.2
1425.8
1427.1
1427.7
1429.1
1430
1430.5
1431.9
1432.8
1433.8
1434.7
1435.2
1436.6
1437.5
1438.5
1439.4
1440.3
1440.9
1442.2
1442.8
1444.1
1445.1
1445.6
1446.9
1447.8
1448.7
1449.2
1450.5
1451.1
1452.3
1453.2
1453.7
1454.9
1455.4
1456.7
1457.6
1458.5
1458.7
1459
1460.4
1460.9
1462.3
1462.8
1463.5
1464.1
1465
1465.3
1465.6
1466.8
1467.7
1468.3
1469.5
1470.4
1470.9
1472.2
1473.1
1473.6
1474.9
1475.8
1476.1
1476.4
1477.6
1478.1
1479.4
1480
1480.6
1481.2
1482.1
1483
1483.8
1484.8
1485
1485.3
1486.7
1487.2
1488.6
1489.1
1490.5
1491.1
1492.3
1493
1494.2
1494.7
1496
1496.6
1497.2
1497.8
1498.7
1499.6
1500.4
1501.3
1502.2
1503.1
1504.1
1505
1506
1507
1507.9
1508.9
1509.9
1510.8
1511.8
1512.8
1513.7
1514.7
1515.6
1516.6
1516.8
1517.1
1518.5
1519.1
1520.4
1521
1522.3
1522.9
1524.2
1524.8
1525.4
1526.1
1527
1527.5
1528.8
1529.7
1530.5
1530.8
1531.1
1532.3
1532.9
1533.7
1534
1534.6
1535.1
1535.6
1536.4
1536.9
1537.9
1538.6
1539.4
1540.1
1540.8
1541.5
1542.1
1543
1543.8
1544.3
1545.3
1545.9
1546.4
1546.9
1547.7
1548.4
1549
1550
1550.6
1551.7
1552.5
1553.3
1553.9
1555.1
1556
1556.8
1557.4
1558.7
1559.7
1560.7
1561.6
1562.1
1563.6
1564.5
1565.5
1566
1567.4
1568.3
1569.2
1570.1
1571.1
1572
1572.9
1573.7
1574.2
1575.4
1575.9
1577.2
1578
1578.9
1579.4
1580.6
1581.2
1582.5
1583.3
1584.2
1584.7
1586
1586.5
1587.7
1588.5
1589.3
1589.8
1591
1591.8
1592.5
1593.3
1593.9
1595
1595.5
1596.6
1597.4
1598.3
1598.8
1599.9
1600.7
1601.6
1602.4
1603.3
1603.8
1605.2
1605.4
1605.7
1607.1
1608
1608.5
1609.8
1610.8
1611.3
1612.7
1613.7
1614.3
1615
1615.7
1616.2
1617.7
1618.7
1619.2
1620.6
1621.2
1622.6
1623.6
1624.5
1625.5
1626.4
1627.3
1627.8
1629.2
1629.8
1631.1
1632.1
1632.9
1633.8
1634.3
1635.6
1636.1
1637.4
1638.3
1639.1
1640
1640.9
1641.4
1642.7
1643.7
1644.6
1645.5
1646.4
1647.3
1648.2
1649.1
1650.1
1651
1651.9
1652.9
1653.9
1654.8
1655.4
1656.8
1657.7
1658.2
1659.5
1660.5
1661.3
1662.3
1663.2
1664.1
1664.7
1666.1
1667.1
1668.1
1669
1670
1670.5
1672
1672.5
1674
1674.9
1675.5
1676.9
1677.8
1678.8
1679.7
1680.6
1681.2
1682.5
1683.4
1683.9
1685.3
1686.2
1687.1
1688
1688.8
1689.7
1690.6
1691.5
1692.4
1693.3
1694.3
1695.1
1695.7
1697
1697.5
1698.9
1699.8
1700.7
1701.6
1701.9
1702.1
1703.4
1704
1705.3
1705.8
1706.5
1707.1
1708
1709
1709.3
1709.5
1710.9
1711.9
1712.4
1713.8
1714.8
1715.3
1716
1716.7
1717.7
1718.6
1719.6
1720.5
1721.5
1722.5
1723.4
1724.4
1725.4
1726.4
1727.3
1728.3
1729.2
1730.2
1731.1
1732.1
1733
1733.9
1734.9
1735.8
1736.7
1737.7
1738.6
1739.6
1740.5
1741.4
1742.4
1743.3
1744.2
1745.2
1746.1
1747
1748
1748.9
1749.8
1750.8
1751.7
1752.6
1753.6
1754.5
1755.4
1756.3
1757.2
1758.1
1758.7
1760
1760.6
1761.9
1762.9
1763.8
1764.6
1765.5
1766.4
1767.3
1768.1
1769
1769.9
1770.7
1771.7
1772.5
1773.4
1774
1775.3
1776.2
1777.1
1778
1779
1779.9
1780.4
1781.8
1782.8
1783.7
1784.7
1785.6
1786.5
1787.5
1788.5
1789.4
1790.3
1791.3
1792.3
1793.2
1793.7
1795.1
1796
1796.9
1797.8
1798.7
1799.5
1800.4
1801.3
1802.2
1803.1
1804.1
1805
