0.1
0.45278
1.425
2.4278
3.3806
4.3583
5.3444
6.3417
7.3389
8.3667
9.3889
10.389
11.422
12.397
13.389
14.411
15.4
16.392
17.403
18.403
19.403
20.397
21.383
22.356
23.328
24.3
25.281
26.253
27.217
28.222
29.197
30.161
31.172
32.158
33.147
34.153
35.153
36.172
37.211
38.236
39.281
40.319
41.358
42.408
43.436
44.464
45.514
46.517
47.536
48.556
49.553
50.525
51.497
52.461
53.458
54.442
55.422
56.444
57.45
58.469
59.5
60.497
61.531
62.553
63.544
64.556
65.564
66.556
67.536
68.497
69.456
70.45
71.433
72.411
73.428
74.419
75.403
76.419
77.428
78.442
79.467
80.472
81.503
82.542
83.578
84.603
85.639
86.664
87.719
88.744
89.764
90.8
91.833
92.836
93.836
94.858
95.886
96.906
97.919
98.953
99.978
100.99
102.01
103.03
104.06
105.11
106.14
107.18
108.21
109.21
110.21
111.19
112.18
113.17
114.14
115.11
116.12
117.11
118.08
119.07
120.04
121.02
122.01
123
124
125.02
126.02
126.99
127.98
128.96
129.94
130.91
131.87
132.83
133.78
134.7
135.65
136.6
137.55
138.53
139.49
140.46
141.44
142.38
143.33
144.28
145.21
146.12
147.06
147.99
148.95
149.95
150.94
151.94
152.96
153.96
154.94
155.95
156.92
157.89
158.87
159.84
160.79
161.75
162.72
163.69
164.67
165.63
166.59
167.57
168.52
169.46
170.41
171.37
172.33
173.29
174.23
175.17
176.09
177.03
177.94
178.85
179.77
180.69
181.64
182.58
183.54
184.5
185.47
186.42
187.37
188.32
189.28
190.22
191.15
192.13
193.1
194.04
195.01
195.98
196.97
198
198.95
199.94
200.97
201.99
202.99
204.03
205.07
206.11
207.13
208.13
209.17
210.19
211.18
212.19
212.89
213.2
214.19
215.2
216.17
217.14
218.13
219.1
220.06
221.03
221.99
222.95
223.93
224.89
225.86
226.81
227.78
228.73
229.69
230.66
231.64
232.61
233.57
234.55
235.51
236.49
237.47
238.43
239.36
240.31
241.26
241.75
242.2
243.16
244.1
245.05
246.01
246.97
247.96
248.96
249.94
250.95
251.97
252.96
253.93
254.92
255.89
256.85
257.81
258.78
259.75
260.75
261.72
262.69
263.67
264.67
265.68
266.69
267.67
268.69
269.72
270.73
271.77
272.78
273.8
274.83
275.83
276.84
277.86
278.87
279.88
280.89
281.91
282.94
283.97
285
286.06
287.11
288.14
289.17
290.2
291.23
292.23
293.23
294.26
295.26
296.24
297.25
298.24
299.23
300.24
301.23
302.21
303.2
304.2
305.18
306.18
307.19
308.22
309.23
310.23
311.27
312.28
313.3
314.32
315.34
316.37
317.39
318.4
319.43
320.44
321.42
322.43
323.41
324.37
325.37
326.33
327.29
328.27
329.23
330.2
331.2
332.23
333.27
334.29
335.31
336.36
337.39
338.41
339.43
340.45
341.45
342.46
343.46
344.47
345.51
346.51
347.48
348.48
349.45
350.45
351.45
352.44
353.48
354.51
355.53
356.57
357.57
358.61
359.66
360.71
361.73
362.77
363.81
364.82
365.82
366.83
367.86
368.84
369.83
370.85
371.85
372.85
373.87
374.86
375.87
376.88
377.89
378.89
379.89
380.89
381.87
382.85
383.82
384.83
385.82
386.8
387.81
388.78
389.74
390.71
391.68
392.64
393.6
394.52
395.43
396.38
397.29
398.16
399.06
399.92
400.77
401.64
402.5
403.36
404.25
405.14
406.05
406.95
407.85
408.74
409.63
410.53
411.4
412.27
413.16
414.02
414.88
415.76
416.64
417.53
418.44
419.35
420.29
421.25
422.19
423.11
424.05
424.98
425.94
426.9
427.86
428.82
429.79
430.75
431.7
432.65
433.59
434.52
435.47
436.4
437.34
438.31
439.27
440.23
441.2
442.19
443.19
444.21
445.19
446.15
447.14
448.11
449.05
450.02
450.99
451.98
452.96
453.91
454.85
455.82
456.77
457.69
458.65
459.58
460.53
461.5
462.46
463.44
464.44
465.44
466.4
467.39
468.38
469.35
470.33
471.29
472.29
473.28
474.27
475.23
476.22
477.21
478.2
479.15
480.11
481.08
482.01
482.93
483.86
484.77
485.71
486.69
487.64
488.61
489.61
490.59
491.54
492.51
493.46
494.4
495.34
496.28
497.24
498.25
499.24
500.26
501.27
502.29
503.29
504.31
505.32
506.33
507.33
508.31
509.28
510.24
511.21
512.18
513.14
514.08
515.06
516.02
516.98
517.95
518.92
519.9
520.91
521.91
522.89
523.92
524.93
525.87
526.84
527.83
528.82
529.81
530.79
531.78
532.77
533.76
534.73
535.73
536.73
537.75
538.73
539.72
540.74
541.72
542.69
543.67
544.66
545.67
546.67
547.69
548.71
549.74
550.75
551.77
552.78
553.79
554.81
555.81
556.82
557.85
558.87
559.86
560.88
561.86
562.84
563.83
564.83
565.85
566.87
567.88
568.91
569.93
570.94
571.95
572.96
573.98
575
576.02
577.01
578.02
579.02
580.05
581.06
582.07
583.12
584.16
585.21
586.27
587.32
588.39
589.46
590.51
591.58
592.63
593.66
594.71
595.76
596.83
597.87
598.9
599.94
600.94
601.94
602.96
603.95
604.95
605.99
607.02
608.06
609.12
610.17
611.2
612.25
613.3
614.37
615.4
616.44
617.5
618.56
619.59
620.64
621.71
622.77
623.79
624.8
625.85
626.86
627.86
628.88
629.88
630.91
631.94
632.96
634.01
635.05
636.07
637.11
638.13
639.15
640.2
641.22
642.25
643.29
644.31
645.34
646.35
647.35
648.37
649.36
650.37
651.41
652.42
653.42
654.42
655.42
656.44
657.45
658.45
659.46
660.47
661.47
662.48
663.49
664.53
665.57
666.6
667.66
668.7
669.74
670.77
671.8
672.85
673.86
674.9
675.94
676.96
678.01
679.03
680.05
681.09
682.12
683.13
684.11
685.14
686.15
687.11
688.12
689.12
690.12
691.13
692.1
693.11
694.12
695.11
696.11
697.12
698.13
699.16
700.15
701.15
702.17
703.17
704.16
705.15
706.14
707.15
708.15
709.14
710.14
711.13
712.13
713.14
714.14
715.13
716.14
717.14
718.16
719.22
720.26
721.24
722.26
723.28
724.31
725.34
726.32
727.34
728.36
729.36
730.39
731.42
732.46
733.52
734.57
735.57
736.62
737.65
738.66
739.66
740.69
741.74
742.77
743.79
744.87
745.9
746.92
747.96
749
750.06
751.1
752.13
753.14
754.15
755.13
756.12
757.12
758.14
759.16
760.17
761.2
762.21
763.24
764.26
765.26
766.26
767.28
768.27
769.26
770.24
771.19
772.13
773.11
774.08
775.06
776.06
777.05
778.05
779.04
780.03
781
781.97
782.94
783.93
784.91
785.85
786.81
787.78
788.77
789.79
790.8
791.81
792.83
793.82
794.82
795.83
796.84
797.82
798.81
799.79
800.79
801.77
802.74
803.74
804.72
805.71
806.7
807.67
808.68
809.71
810.73
811.75
812.78
813.81
814.8
815.83
816.83
817.85
818.85
819.85
820.88
821.89
822.88
823.89
824.88
825.9
826.91
827.92
828.93
829.96
830.98
831.97
833
834.01
835.04
836.05
837.05
838.09
839.09
840.07
841.07
842.05
843.02
843.99
844.96
845.93
846.92
847.89
848.87
849.84
850.82
851.82
852.8
853.8
854.8
855.77
856.76
857.78
858.8
859.81
860.84
861.85
862.86
863.9
864.93
865.94
866.96
867.96
868.98
870.01
871.03
872.08
873.11
874.12
875.13
876.13
877.14
878.17
879.18
880.21
881.22
882.23
883.24
884.24
885.26
886.32
887.36
888.39
889.45
890.48
891.5
892.53
893.54
894.56
895.54
896.51
897.54
898.54
899.51
900.52
901.52
902.5
903.49
904.48
905.47
906.48
907.48
908.49
909.48
910.49
911.51
912.5
913.47
914.47
915.44
916.42
917.41
918.38
919.36
920.34
921.34
922.33
923.35
924.34
925.33
926.31
927.31
928.34
929.34
930.33
931.35
932.37
933.34
934.35
935.34
936.32
937.33
938.31
939.29
940.27
941.25
942.21
943.19
944.15
945.11
946.05
947.02
948.02
948.99
949.98
950.96
951.92
952.91
953.91
954.91
955.91
956.95
957.96
958.91
959.89
960.85
961.79
962.76
963.68
964.6
965.52
966.5
967.44
968.39
969.34
970.33
971.33
972.35
973.38
974.44
975.48
976.53
977.58
978.64
979.73
980.8
981.89
982.96
984.03
985.06
986.1
987.14
988.21
989.23
990.24
991.31
992.36
993.4
994.44
995.46
996.51
997.56
998.58
999.64
1000.7
1001.7
1002.8
1003.8
1004.9
1005.9
1007
1008
1009.1
1010.1
1011.1
1011.8
1013.1
1013.7
1015.1
1016.2
1017.2
1018.2
1019.2
1020.3
1021.3
1022.4
1023.4
1024.4
1025.4
1026.4
1027.4
1028.4
1029.4
1030.5
1031.5
1032.5
1033.5
1034.5
1035.5
1036.5
1037.5
1038.5
1039.5
1040.4
1041.5
1042.5
1043.4
1044.4
1045.4
1046.4
1047.4
1048.4
1049.4
1050.4
1051.4
1052.4
1053.4
1054.4
1055.4
1056.4
1057.4
1058.4
1059.4
1060.4
1061.4
1062.4
1063.4
1064.4
1065.4
1066.4
1067.5
1068.5
1069.4
1070.4
1071.3
1072.3
1073.3
1074.3
1075.3
1076.3
1077.4
1078.4
1079.4
1080.4
1081.5
1082.5
1083.5
1084.5
1085.5
1086.5
1087.5
1088.5
1089.5
1090.4
1091.4
1092.4
1093.4
1094.4
1095.4
1096.4
1097.5
1098.5
1099.5
1100.5
1101.6
1102.6
1103.6
1104.6
1105.6
1106.6
1107.6
1108.6
1109.7
1110.7
1111.7
1112.7
1113.7
1114.7
1115.7
1116.7
1117.8
1118.8
1119.8
1120.8
1121.8
1122.8
1123.8
1124.8
1125.8
1126.9
1127.9
1128.9
1129.9
1130.9
1131.9
1132.9
1133.9
1134.9
1136
1137
1138
1139.1
1140.1
1141.1
1142.1
1143.2
1144.2
1145.2
1146.3
1147.3
1148.3
1149.4
1150.4
1151.5
1152.5
1153.5
1154.6
1155.6
1156.7
1157.7
1158.8
1159.8
1160.9
1161.9
1163
1164
1165
1166.1
1167.1
1168.1
1169.1
1170.2
1171.2
1172.2
1173.2
1174.3
1175.3
1176.3
1177.4
1178.4
1179.5
1180.5
1181.5
1182.6
1183.6
1184.7
1185.7
1186.8
1187.8
1188.8
1189.9
1190.9
1192
1193
1194.1
1195.1
1196.1
1197.2
1198.2
1199.3
1200.3
1201.3
1202.4
1203.4
1204.5
1205.5
1206.5
1207.6
1208.6
1209.7
1210.7
1211.8
1212.9
1213.9
1215
1216
1217.1
1218.1
1219.2
1220.3
1221.3
1222.4
1223.4
1224.5
1225.5
1226.5
1227.6
1228.6
1229.6
1230.6
1231.6
1232.7
1233.7
1234.7
1235.7
1236.7
1237.7
1238.7
1239.7
1240.7
1241.7
1242.7
1243.7
1244.7
1245.7
1246.7
1247.7
1248.7
1249.7
1250.7
1251.7
1252.6
1253.7
1254.6
1255.6
1256.6
1257.6
1258.7
1259.7
1260.7
1261.8
1262.8
1263.9
1264.9
1265.9
1267
1268
1269.1
1270.1
1271.2
1272.2
1273.2
1274.2
1275.3
1276.3
1277.4
1278.4
1279.5
1280.5
1281.6
1282.6
1283.6
1284.7
1285.7
1286.7
1287.7
1288.7
1289.7
1290.7
1291.7
1292.7
1293.8
1294.8
1295.8
1296.8
1297.9
1298.9
1299.9
1300.9
1302
1303
1304
1305
1306
1307
1308
1309
1310
1311
1312
1313
1314
1314.9
1315.9
1316.9
1317.9
1319
1320
1321
1322.1
1323.1
1324.2
1325.3
1326.3
1327.4
1328.5
1329.6
1330.7
1331.7
1332.8
1333.8
1334.9
1336
1337
1338.1
1339.1
1340.2
1341.2
1342.2
1343.3
1344.3
1345.4
1346.4
1347.5
1348.6
1349.6
1350.6
1351.7
1352.8
1353.8
1354.8
1355.9
1356.9
1358
1359
1360
1361
1362
1363
1364
1365.1
1366.1
1367.2
1368.2
1369.3
1370.3
1371.3
1372.4
1373.4
1374.4
1375.5
1376.5
1377.5
1378.6
1379.6
1380.7
1381.7
1382.7
1383.7
1384.7
1385.7
1386.7
1387.8
1388.8
1389.9
1390.9
1391.9
1393
1394
1395.1
1396.2
1397.2
1398.3
1399.3
1400.4
1401.5
1402.6
1403.6
1404.7
1405.7
1406.8
1407.8
1408.9
1409.9
1411
1412
1413.1
1414.1
1415.2
1416.3
1417.3
1418.4
1419.5
1420.5
1421.5
1422.6
1423.6
1424.7
1425.7
1426.8
1427.8
1428.9
1429.9
1431
1432
1433
1434
1435
1436
1437.1
1438.1
1439.1
1440.1
1441.1
1442.1
1443.2
1444.2
1445.3
1446.3
1447.3
1448.3
1449.3
1450.3
1451.3
1452.3
1453.4
1454.4
1455.5
1456.5
1457.6
1458.6
1459.7
1460.8
1461.8
1462.8
1463.9
1464.9
1465.9
1466.9
1467.9
1468.9
1470
1471
1472
1473
1474
1475
1476
1476.9
1477.8
1478.7
1479.6
1480.5
1481.4
1482.3
1483.3
1484.2
1485.1
1486
1487
1487.9
1488.8
1489.7
1490.7
1491.6
1492.6
1493.5
1494.4
1495.4
1496.4
1497.3
1498.3
1499.3
1500.2
1501.2
1502.1
1503.1
1504.1
1505
1506
1507
1508
1509
1510
1511
1512
1513
1514
1515
1515.9
1516.9
1517.9
1518.9
1519.8
1520.8
1521.8
1522.8
1523.7
1524.7
1525.7
1526.6
1527.6
1528.5
1529.4
1530.3
1531.3
1532.2
1533.1
1534
1534.9
1535.8
1536.7
1537.5
1538.4
1539.3
1540.2
1541
1541.9
1542.8
1543.6
1544.5
1545.3
1545.8
1546.1
1547
1547.8
1548.6
1549.4
1550.3
1551
1551.8
1552.2
1552.6
1553.4
1553.7
1554.1
1554.9
1555.7
1556.4
1557.2
1557.9
1558.7
1559.5
1560.2
1561
1561.5
1561.8
1562.5
1562.7
1563.3
1564.1
1564.9
1565.6
1566.4
1567.2
1568
1568.7
1569.1
1569.5
1570.3
1571
1571.7
1572.5
1573.2
1574
1574.7
1575.5
1576.2
1576.9
1577.7
1578.4
1579.2
1580
1580.7
1581.5
1582.3
1583
1583.8
1584.6
1585.4
1586.2
1587
1587.8
1588.6
1589.4
1590.2
1591
1591.8
1592.6
1593.3
1594.1
1594.9
1595.7
1596.4
1597.2
1598
1598.7
1599.5
1600.2
1601
1601.8
1602.6
1603.3
1604.1
1604.9
1605.7
1606.5
1607.2
1608
1608.8
1609.6
1610.4
1611.1
1611.9
1612.7
1613.5
1614.2
1615
1615.8
1616.5
1617.3
1618
1618.8
1619.5
1620.3
1621
1621.7
1622.4
1623.2
1623.9
1624.6
1625.3
1626.1
1626.8
1627.5
1628.3
1629
1629.8
1630.5
1631.3
1632
1632.8
1633.5
1634.3
1635.1
1635.9
1636.6
1637.4
1638.2
1639
1639.8
1640.6
1641.4
1642.2
1643.1
1643.8
1644.6
1645.4
1646.2
1647
1647.8
1648.6
1649.4
1650.2
1651
1651.9
1652.7
1653.5
1653.6
1654.3
1655.1
1655.9
1656.7
1657.1
1657.6
1658.4
1659.2
1660.1
1660.9
1661.8
1662.6
1663.4
1664.3
1665.1
1666
1666.8
1667.7
1668.6
1669.4
1670.3
1671.1
1672
1672.8
1673.7
1674.5
1675.4
1676.2
1677.1
1678
1678.8
1679.7
1680.6
1681.4
1682.3
1683.2
1684.1
1684.9
1685.8
1686.7
1687.5
1688.4
1689.2
1690.1
1690.9
1691.8
1692.7
1693.5
1694.4
1695.3
1696.1
1696.9
1697.8
1698.6
1699.5
1700.3
1701.1
1702
1702.8
1703.7
1704.5
1705.3
1706.1
1706.9
1707.8
1708.6
1709.4
1710.2
1711.1
1711.9
1712.8
1713.6
1714.5
1715.3
1716.2
1717
1717.9
1718.7
1719.6
1720.4
1721.3
1722.1
1723
1723.8
1724.7
1725.6
1726.5
1727.3
1728.2
1729.1
1729.9
1730.8
1731.7
1732.5
1733.3
1734.2
1735
1735.9
1736.7
1737.6
1738.5
1739.3
1740.2
1741.1
1742
1742.8
1743.7
1744.5
1745.4
1746.3
1746.4
1747.1
1748
1748.4
1748.8
1749.7
1750.6
1751.5
1752.3
1753.2
1754
1754.9
1755.7
1756.5
1757.4
1758.2
1759.1
1759.9
1760.8
1761.6
1762.5
1763.3
1764
1764.9
1765.7
1766.5
1767.3
1768.1
1768.9
1769.7
1770.5
1771.3
1772.1
1772.9
1773.7
1774.5
1775.4
1776.2
1777
1777.9
1778.7
1779.5
1780.4
1781.2
1782
1782.9
1783.8
1784.6
1785.5
1786.3
1787.2
1788
1788.8
1789.7
1790.5
1791.3
1792.1
1793
1793.8
1794.6
1795.4
1796.2
1797
1797.8
1798.7
1799.5
1800.3
1801.1
1802
1802.8
1803.6
1804.4
1805.2
