0.047222
0.25833
0.90556
1.5583
2.2167
2.825
3.4806
4.1333
4.8056
5.4639
6.1333
6.8
7.4778
8.1528
8.8444
9.5417
10.239
10.931
11.617
12.297
13.006
13.703
14.397
15.069
15.772
16.469
17.161
17.825
18.556
19.239
19.9
20.572
21.275
21.956
22.636
23.269
23.939
24.611
25.269
25.922
26.586
27.269
27.939
28.606
29.261
29.961
30.647
31.328
32.022
32.717
33.417
34.111
34.828
35.536
36.236
36.931
37.647
38.347
39.042
39.725
40.428
41.122
41.811
42.514
43.222
43.917
44.611
45.306
46.011
46.719
47.425
48.108
48.811
49.517
50.219
50.928
51.656
52.381
53.089
53.772
54.528
55.233
55.958
56.667
57.394
58.069
58.789
59.5
60.211
60.869
61.547
62.239
62.939
63.617
64.289
64.944
65.65
66.331
67.025
67.711
68.403
69.097
69.792
70.489
71.2
71.886
72.578
73.261
73.958
74.642
75.314
76
76.7
77.383
78.072
78.778
79.483
80.189
80.894
81.606
82.311
83.025
83.736
84.453
85.164
85.839
86.525
87.228
87.925
88.622
89.278
89.961
90.667
91.356
92.053
92.761
93.433
94.131
94.822
95.533
96.197
96.867
97.533
98.225
98.892
99.561
100.21
100.88
101.57
102.24
102.93
103.63
104.32
105
105.69
106.39
107.09
107.79
108.49
109.23
109.95
110.67
111.38
112.11
112.81
113.54
114.24
114.97
115.68
116.4
117.11
117.83
118.54
119.25
119.99
120.71
121.42
122.13
122.87
123.61
124.38
125.12
125.86
126.6
127.32
128.06
128.79
129.5
130.2
130.93
131.64
132.34
133.04
133.77
134.47
135.16
135.85
136.56
137.24
137.94
138.63
139.32
140.01
140.68
141.39
142.09
142.78
143.45
144.12
144.83
145.51
146.19
146.85
147.54
148.19
148.88
149.57
150.26
150.95
151.63
152.32
153.04
153.73
154.43
155.1
155.79
156.47
157.16
157.86
158.56
159.26
159.96
160.67
161.41
162.14
162.88
163.59
164.34
165.07
165.82
166.59
167.32
168.03
168.75
169.49
170.21
170.93
171.62
172.38
173.12
173.86
174.61
175.35
176.07
176.8
177.54
178.28
179.04
179.79
180.57
181.38
182.22
183.08
183.96
184.82
185.72
186.64
187.51
188.35
189.18
189.98
190.76
191.53
192.29
193.06
193.8
194.55
195.29
196.04
196.77
197.51
198.22
198.94
199.66
200.38
201.09
201.78
202.49
203.19
203.89
204.57
205.29
205.97
206.65
207.35
208.05
208.74
209.43
210.11
210.81
211.49
212.2
212.86
213.55
214.23
214.92
215.61
216.31
216.99
217.68
218.36
219.09
219.79
220.5
221.19
221.92
222.64
223.36
224.09
224.81
225.51
226.22
226.95
227.65
228.37
229.06
229.78
230.47
231.17
231.87
232.59
233.27
233.96
234.65
235.37
236.06
236.77
237.44
238.16
238.86
239.56
240.28
241
241.7
242.39
243.11
243.83
244.54
245.24
245.96
246.67
247.39
248.11
248.84
249.56
250.29
251.03
251.78
252.5
253.24
253.97
254.7
255.43
256.14
256.87
257.6
258.32
259.03
259.77
260.51
261.25
261.98
262.73
263.46
264.21
264.97
265.73
266.47
267.21
267.96
268.69
269.42
270.13
270.85
271.56
272.29
273.01
273.74
274.44
275.16
275.86
276.61
277.31
278.02
278.72
279.44
280.14
280.83
281.54
282.23
282.94
283.66
284.42
285.2
286.02
286.82
287.64
288.43
289.23
290.02
290.79
291.54
292.29
293.06
293.82
294.57
295.31
296.08
296.85
297.62
298.4
299.17
299.93
300.68
301.44
302.16
302.91
303.63
304.37
305.11
305.86
306.63
307.4
308.16
308.9
309.69
310.45
311.2
311.92
312.67
313.41
314.14
314.88
315.59
316.31
317.01
317.76
318.46
319.16
319.85
320.56
321.25
321.96
322.64
323.34
324.02
324.71
325.39
326.06
326.73
327.41
328.07
328.75
329.4
330.06
330.74
331.43
332.09
332.76
333.42
334.13
334.82
335.51
336.19
336.9
337.6
338.31
339.03
339.76
340.47
341.19
341.92
342.64
343.38
344.08
344.82
345.56
346.3
347.05
347.79
348.51
349.25
349.99
350.74
351.47
352.19
352.95
353.68
354.39
355.13
355.89
356.61
357.33
358.07
358.82
359.54
360.26
360.98
361.69
362.4
363.12
363.84
364.55
365.26
365.96
366.68
367.38
368.09
368.77
369.47
370.17
370.86
371.54
372.24
372.9
373.58
374.24
374.94
375.58
376.23
376.87
377.55
378.18
378.84
379.47
380.12
380.68
380.79
381.24
381.44
382.08
382.72
383.37
384.01
384.65
385.26
385.9
386.53
387.15
387.76
388.4
389.05
389.69
390.29
390.91
391.56
392.21
392.85
393.45
394.09
394.73
395.38
396.02
396.67
397.32
397.95
398.59
399.25
399.92
400.57
401.23
401.85
402.52
403.18
403.83
404.49
405.17
405.84
406.48
407.15
407.83
408.51
409.18
409.82
410.48
411.16
411.81
412.48
413.16
413.85
414.48
415.17
415.85
416.55
417.22
417.89
418.57
419.26
419.94
420.65
421.34
422.05
422.74
423.42
424.12
424.82
425.5
426.18
426.86
427.56
428.24
428.92
429.63
430.35
431.06
431.76
432.49
433.21
433.95
434.66
435.41
436.12
436.86
437.61
438.36
439.11
439.85
440.62
441.37
442.13
442.86
443.62
444.37
445.13
445.88
446.62
447.35
448.08
448.84
449.58
450.31
451.02
451.76
452.48
453.2
453.94
454.65
455.36
456.07
456.78
457.5
458.2
458.88
459.56
460.24
460.94
461.64
462.35
463.05
463.74
464.47
465.24
466.02
466.8
467.55
468.34
469.11
469.89
470.66
471.44
472.19
472.95
473.74
474.5
475.27
476.03
476.79
477.55
478.32
479.08
479.81
480.56
481.3
482.06
482.79
483.51
484.25
484.98
485.72
486.45
487.2
487.91
488.64
489.38
490.13
490.86
491.58
492.3
493.03
493.75
494.48
495.21
495.92
496.64
497.36
498.1
498.81
499.53
500.21
500.93
501.63
502.34
503.04
503.73
504.42
505.11
505.8
506.52
507.21
507.89
508.59
509.31
510.01
510.71
511.42
512.14
512.84
513.56
514.26
514.98
515.7
516.43
517.14
517.87
518.59
519.32
520.06
520.81
521.55
522.29
523.08
523.84
524.61
525.37
526.17
526.94
527.75
528.57
529.35
530.12
530.9
531.69
532.49
533.25
534.02
534.79
535.58
536.38
537.19
537.97
538.74
539.54
540.32
541.09
541.85
542.62
543.36
544.12
544.89
545.64
546.38
547.11
547.87
548.62
549.38
550.15
550.91
551.69
552.48
553.26
554.04
554.82
555.59
556.36
557.15
557.91
558.67
559.42
560.17
560.95
561.73
562.47
563.21
563.99
564.74
565.5
566.26
567.01
567.76
568.53
569.32
570.08
570.83
571.61
572.39
573.16
573.92
574.69
575.46
576.22
576.97
577.75
578.51
579.27
580.04
580.81
581.61
582.41
583.23
584.03
584.84
585.66
586.44
587.24
588.04
588.82
589.58
590.33
591.1
591.85
592.59
593.36
594.13
594.88
595.63
596.4
597.17
597.94
598.67
599.46
600.22
600.97
601.73
602.49
603.24
603.96
604.73
605.49
606.25
606.96
607.71
608.44
609.18
609.92
610.65
611.38
612.09
612.81
613.53
614.24
614.93
615.62
616.31
617
617.69
618.39
619.08
619.74
620.43
621.13
621.83
622.51
623.16
623.84
624.52
625.19
625.86
626.52
627.2
627.87
628.55
629.24
629.94
630.63
631.34
632.03
632.75
633.46
634.18
634.91
635.63
636.33
637.03
637.76
638.47
639.18
639.87
640.59
641.29
642.01
642.73
643.46
644.18
644.91
645.65
646.39
647.12
647.86
648.61
649.34
650.08
650.81
651.56
652.31
653.08
653.83
654.6
655.37
656.11
656.86
657.61
658.35
659.1
659.87
660.59
661.34
662.09
662.83
663.55
664.27
665
665.72
666.43
667.17
667.9
668.63
669.36
670.07
670.82
671.53
672.26
672.95
673.67
674.39
675.1
675.83
676.57
677.29
678
678.75
679.48
680.2
680.9
681.63
682.34
683.06
683.76
684.47
685.15
685.84
686.52
687.18
687.85
688.52
689.15
689.8
690.44
691.09
691.74
692.41
693.05
693.69
694.34
695.03
695.69
696.36
696.99
697.68
698.35
699.01
699.69
700.38
701.03
701.72
702.39
703.09
703.76
704.44
705.12
705.81
706.5
707.19
707.89
708.6
709.29
710
710.69
711.41
712.11
712.81
713.49
714.21
714.91
715.62
716.33
717.06
717.78
718.49
719.22
719.96
720.69
721.4
722.13
722.85
723.58
724.3
725.02
725.75
726.48
727.19
727.92
728.63
729.36
730.05
730.78
731.5
732.21
732.92
733.66
734.38
735.09
735.83
736.56
737.29
738.03
738.79
739.52
740.26
741.01
741.78
742.52
743.26
744.02
744.79
745.56
746.31
747.07
747.83
748.6
749.37
750.17
750.94
751.71
752.49
753.28
754.06
754.81
755.59
756.34
757.11
757.9
758.67
759.43
760.23
761.08
761.89
762.69
763.49
764.29
765.1
765.89
766.67
767.45
768.22
769.01
769.76
770.52
771.25
772
772.74
773.48
774.23
775
775.76
776.52
777.31
778.08
778.86
779.61
780.38
781.17
781.96
782.74
783.5
784.26
785.02
785.8
786.55
787.29
788.04
788.8
789.56
790.31
791.06
791.79
792.53
793.28
794.04
794.76
795.49
796.25
796.99
797.74
798.49
799.25
799.99
800.76
801.52
802.26
803.02
803.75
804.51
805.24
805.98
806.73
807.52
808.28
809.04
809.82
810.56
811.33
812.06
812.83
813.57
814.3
815.04
815.78
816.51
817.26
818.03
818.77
819.54
820.33
821.13
821.91
822.69
823.5
824.29
825.1
825.9
826.67
827.46
828.21
828.99
829.74
830.47
831.21
831.96
832.7
833.41
834.16
834.9
835.63
836.35
837.09
837.81
838.54
839.27
840.02
840.75
841.47
842.19
842.92
843.64
844.35
845.06
845.79
846.54
847.29
848.06
848.84
849.61
850.38
851.2
851.98
852.78
853.6
854.38
855.18
855.99
856.78
857.55
858.33
859.13
859.91
860.71
861.51
862.32
863.11
863.89
864.71
865.52
866.28
867.06
867.86
868.61
869.36
870.15
870.89
871.62
872.37
873.12
873.84
874.57
875.31
876.04
876.78
877.51
878.25
878.98
879.7
880.43
881.18
881.91
882.62
883.34
884.08
884.82
885.54
886.26
887
887.73
888.47
889.23
889.96
890.69
891.44
892.2
892.92
893.65
894.38
895.1
895.83
896.56
897.31
898.04
898.77
899.5
900.24
900.97
901.69
902.39
903.1
903.81
904.5
905.21
905.92
906.61
907.29
907.99
908.68
909.36
910.04
910.73
911.41
912.07
912.76
913.45
914.13
914.81
915.49
916.2
916.9
917.61
918.31
919.03
919.74
920.46
921.19
921.94
922.67
923.41
924.13
924.88
925.62
926.36
927.1
927.83
928.58
929.33
930.12
930.85
931.59
932.35
933.11
933.85
934.57
935.32
936.04
936.79
937.52
938.27
938.99
939.73
940.45
941.18
941.91
942.64
943.38
944.1
944.84
945.59
946.36
947.11
947.83
948.55
949.3
950.03
950.75
951.48
952.19
952.91
953.65
954.39
955.11
955.86
956.6
957.38
958.13
958.89
959.64
960.4
961.16
961.94
962.71
963.48
964.25
965.02
965.82
966.6
967.36
968.12
968.88
969.62
970.38
971.15
971.91
972.69
973.48
974.25
974.99
975.74
976.47
977.21
977.94
978.67
979.41
980.14
980.87
981.58
982.32
983.03
983.74
984.44
985.16
985.86
986.56
987.27
987.98
988.67
989.38
990.09
990.8
991.51
992.21
992.94
993.66
994.39
995.13
995.89
996.65
997.42
998.22
999.02
999.86
1000.6
1001.4
1002.2
1003
1003.8
1004.6
1005.4
1006.2
1007
1007.8
1008.6
1009.3
1010.1
1010.9
1011.7
1012.4
1013.2
1014
1014.8
1015.6
1016.4
1017.2
1018
1018.8
1019.6
1020.3
1021.1
1021.9
1022.6
1023.4
1024.1
1024.9
1025.6
1026.4
1027.1
1027.9
1028.6
1029.3
1030.1
1030.8
1031.5
1032.2
1032.9
1033.7
1034.4
1035.1
1035.8
1036.5
1037.2
1037.9
1038.5
1039.3
1039.9
1040.6
1041.3
1042
1042.7
1043.4
1044.1
1044.9
1045.6
1046.3
1047
1047.7
1048.4
1049.2
1049.9
1050.6
1051.3
1052.1
1052.8
1053.6
1054.3
1055
1055.8
1056.5
1057.3
1058
1058.7
1059.5
1060.2
1061
1061.7
1062.4
1063.1
1063.9
1064.6
1065.4
1066.1
1066.8
1067.5
1068.3
1069
1069.8
1070.5
1071.3
1072
1072.7
1073.5
1074.2
1075
1075.7
1076.5
1077.2
1078
1078.7
1079.4
1080.2
1080.9
1081.7
1082.4
1083.1
1083.8
1084.5
1085.3
1086
1086.7
1087.4
1088.1
1088.9
1089.6
1090.3
1091
1091.7
1092.4
1093.1
1093.8
1094.5
1095.2
1095.9
1096.6
1097.3
1098.1
1098.7
1099.5
1100.2
1100.9
1101.7
1102.4
1103.2
1103.9
1104.7
1105.5
1106.2
1107
1107.8
1108.5
1109.3
1110.1
1110.9
1111.7
1112.4
1113.2
1114
1114.7
1115.5
1116.3
1117
1117.8
1118.6
1119.4
1120.1
1120.9
1121.7
1122.5
1123.3
1124.1
1125
1125.8
1126.7
1127.4
1128.2
1129
1129.8
1130.6
1131.3
1132
1132.8
1133.5
1134.3
1135
1135.8
1136.5
1137.2
1138
1138.7
1139.5
1140.2
1141
1141.7
1142.5
1143.3
1144.1
1144.9
1145.6
1146.4
1147.2
1147.9
1148.6
1149.4
1150.1
1150.9
1151.6
1152.4
1153.1
1153.9
1154.6
1155.4
1156.1
1156.9
1157.6
1158.4
1159.2
1160
1160.8
1161.6
1162.4
1163.2
1163.9
1164.7
1165.5
1166.3
1167.1
1167.9
1168.7
1169.5
1170.3
1171.1
1171.9
1172.7
1173.4
1174.2
1175
1175.8
1176.6
1177.4
1178.3
1179.1
1179.9
1180.7
1181.5
1182.3
1183.1
1184
1184.8
1185.5
1186.4
1187.2
1188.1
1188.9
1189.7
1190.5
1191.3
1192.1
1192.8
1193.6
1194.4
1195.2
1196
1196.8
1197.5
1198.3
1199.1
1199.9
1200.7
1201.5
1202.2
1203
1203.8
1204.5
1205.2
1206
1206.7
1207.4
1208.2
1208.9
1209.6
1210.3
1211
1211.7
1212.5
1213.2
1213.9
1214.6
1215.3
1216
1216.7
1217.4
1218.2
1218.9
1219.6
1220.3
1221.1
1221.8
1222.6
1223.3
1224.1
1224.8
1225.6
1226.3
1227
1227.8
1228.5
1229.3
1230
1230.8
1231.5
1232.3
1233
1233.8
1234.5
1235.3
1236
1236.8
1237.5
1238.3
1239.1
1239.8
1240.6
1241.4
1242.2
1243
1243.8
1244.6
1245.4
1246.3
1247.1
1247.9
1248.7
1249.5
1250.4
1251.2
1252
1252.8
1253.6
1254.3
1255.1
1255.9
1256.6
1257.4
1258.2
1258.9
1259.7
1260.4
1261.1
1261.9
1262.6
1263.3
1264.1
1264.8
1265.5
1266.2
1267
1267.7
1268.5
1269.2
1269.9
1270.7
1271.4
1272.2
1273
1273.8
1274.5
1275.3
1276
1276.8
1277.5
1278.3
1279
1279.8
1280.5
1281.3
1282
1282.8
1283.5
1284.3
1285.1
1285.9
1286.7
1287.5
1288.2
1288.9
1289.7
1290.5
1291.2
1291.9
1292.7
1293.4
1294.1
1294.8
1295.6
1296.3
1297
1297.7
1298.5
1299.2
1299.9
1300.6
1301.4
1302.1
1302.8
1303.6
1304.3
1305
1305.7
1306.5
1307.2
1307.9
1308.6
1309.4
1310.1
1310.9
1311.6
1312.3
1313
1313.7
1314.5
1315.2
1315.9
1316.6
1317.3
1318.1
1318.8
1319.5
1320.2
1321
1321.7
1322.4
1323.2
1323.9
1324.6
1325.4
1326.1
1326.9
1327.6
1328.3
1329
1329.8
1330.5
1331.2
1332
1332.7
1333.4
1334.2
1334.9
1335.6
1336.3
1337
1337.7
1338.4
1339.2
1339.9
1340.6
1341.3
1342
1342.7
1343.4
1344
1344.7
1345.4
1346.1
1346.8
1347.5
1348.1
1348.8
1349.5
1350.1
1350.8
1351.5
1352.1
1352.8
1353.4
1354.1
1354.8
1355.4
1356.1
1356.7
1357.4
1358.1
1358.7
1359.4
1360
1360.7
1361.3
1362
1362.6
1363.3
1363.9
1364.6
1365.3
1365.9
1366.6
1367.3
1367.9
1368.6
1369.3
1370
1370.7
1371.3
1372.1
1372.8
1373.5
1374.2
1374.9
1375.6
1376.4
1377.1
1377.8
1378.6
1379.3
1380.1
1380.8
1381.5
1382.3
1383
1383.8
1384.5
1385.3
1386
1386.8
1387.5
1388.3
1389.1
1389.8
1390.6
1391.4
1392.1
1392.9
1393.6
1394.4
1395.1
1395.8
1396.6
1397.3
1398
1398.7
1399.5
1400.2
1400.9
1401.6
1402.3
1403.1
1403.8
1404.5
1405.2
1405.9
1406.6
1407.3
1408
1408.7
1409.4
1410.2
1410.9
1411.6
1412.4
1413.1
1413.9
1414.6
1415.4
1416.1
1416.9
1417.6
1418.3
1419
1419.8
1420.5
1421.3
1422
1422.8
1423.5
1424.3
1425.1
1425.8
1426.6
1427.3
1428.1
1428.8
1429.6
1430.3
1431.1
1431.8
1432.6
1433.3
1434.1
1434.8
1435.6
1436.3
1437.1
1437.8
1438.6
1439.3
1440.1
1440.8
1441.6
1442.4
1443.1
1443.9
1444.7
1445.5
1446.3
1447
1447.8
1448.5
1449.3
1450
1450.7
1451.4
1452.1
1452.8
1453.5
1454.2
1454.9
1455.6
1456.3
1457
1457.7
1458.3
1459
1459.7
1460.4
1461.1
1461.8
1462.5
1463.2
1463.9
1464.6
1465.3
1466
1466.7
1467.5
1468.2
1468.9
1469.7
1470.4
1471.2
1471.9
1472.6
1473.4
1474.1
1474.8
1475.6
1476.3
1477.1
1477.8
1478.5
1479.3
1480
1480.8
1481.5
1482.3
1483
1483.8
1484.5
1485.2
1486
1486.7
1487.5
1488.2
1489
1489.7
1490.5
1491.3
1492
1492.8
1493.6
1494.3
1495.1
1495.8
1496.6
1497.3
1498.1
1498.8
1499.5
1500.3
1501
1501.7
1502.5
1503.2
1503.9
1504.6
1505.4
1506.1
1506.8
1507.5
1508.2
1508.9
1509.7
1510.4
1511.1
1511.9
1512.6
1513.3
1514.1
1514.8
1515.5
1516.2
1516.9
1517.6
1518.3
1519.1
1519.8
1520.5
1521.2
1521.9
1522.7
1523.4
1524.1
1524.8
1525.5
1526.2
1526.9
1527.6
1528.3
1529
1529.8
1530.5
1531.2
1532
1532.7
1533.4
1534.2
1535
1535.8
1536.5
1537.3
1538.1
1538.9
1539.7
1540.5
1541.3
1542
1542.8
1543.6
1544.4
1545.2
1545.9
1546.7
1547.5
1548.2
1549
1549.8
1550.6
1551.4
1552.2
1553
1553.8
1554.6
1555.5
1556.3
1557.2
1558
1558.8
1559.6
1560.4
1561.2
1562
1562.8
1563.6
1564.4
1565.2
1566.1
1566.9
1567.7
1568.5
1569.3
1570
1570.8
1571.6
1572.4
1573.1
1573.9
1574.6
1575.3
1576.1
1576.8
1577.5
1578.3
1579
1579.7
1580.5
1581.2
1581.9
1582.6
1583.4
1584.1
1584.8
1585.6
1586.3
1587.1
1587.8
1588.5
1589.2
1590
1590.7
1591.4
1592.1
1592.8
1593.5
1594.3
1595
1595.7
1596.4
1597.1
1597.8
1598.5
1599.2
1599.8
1600.5
1601.2
1601.9
1602.6
1603.2
1603.9
1604.6
1605.3
1606
1606.6
1607.3
1608
1608.7
1609.4
1610.1
1610.8
1611.5
1612.3
1613
1613.7
1614.4
1615.1
1615.8
1616.6
1617.3
1618
1618.7
1619.4
1620.1
1620.8
1621.5
1622.2
1622.9
1623.6
1624.3
1625
1625.7
1626.3
1627
1627.7
1628.4
1629.1
1629.8
1630.5
1631.2
1631.8
1632.5
1633.2
1633.9
1634.6
1635.3
1636
1636.7
1637.4
1638.1
1638.8
1639.5
1640.2
1640.9
1641.6
1642.3
1643
1643.7
1644.4
1645.1
1645.8
1646.5
1647.2
1647.9
1648.6
1649.3
1650
1650.7
1651.4
1652.1
1652.8
1653.5
1654.1
1654.8
1655.5
1656.2
1656.9
1657.6
1658.3
1658.9
1659.6
1660.3
1661
1661.7
1662.4
1663.1
1663.8
1664.5
1665.2
1666
1666.7
1667.4
1668.1
1668.9
1669.6
1670.3
1671
1671.7
1672.4
1673.1
1673.8
1674.6
1675.2
1675.9
1676.7
1677.4
1678.1
1678.8
1679.6
1680.3
1681
1681.7
1682.4
1683.1
1683.8
1684.5
1685.3
1686
1686.8
1687.5
1688.3
1689
1689.8
1690.6
1691.3
1692.1
1692.8
1693.6
1694.3
1695
1695.8
1696.5
1697.2
1698
1698.8
1699.6
1700.5
1701.3
1702.1
1703
1703.7
1704.5
1705.4
1706.1
1706.9
1707.7
1708.5
1709.3
1710.1
1710.9
1711.6
1712.4
1713.1
1713.9
1714.6
1715.4
1716.1
1716.8
1717.6
1718.3
1719.1
1719.8
1720.5
1721.2
1721.9
1722.7
1723.4
1724.1
1724.8
1725.5
1726.3
1727
1727.7
1728.4
1729.1
1729.8
1730.5
1731.2
1731.9
1732.6
1733.3
1734
1734.7
1735.4
1736.1
1736.8
1737.6
1738.3
1739
1739.8
1740.5
1741.3
1742.1
1742.8
1743.6
1744.3
1745
1745.8
1746.5
1747.3
1748
1748.8
1749.5
1750.3
1751
1751.7
1752.4
1753.2
1753.9
1754.6
1755.3
1756
1756.7
1757.4
1758.1
1758.8
1759.5
1760.2
1761
1761.6
1762.3
1763.1
1763.8
1764.5
1765.2
1765.8
1766.6
1767.2
1767.9
1768.6
1769.3
1770
1770.7
1771.4
1772.1
1772.8
1773.5
1774.2
1774.9
1775.6
1776.3
1777
1777.7
1778.4
1779.1
1779.8
1780.5
1781.2
1781.8
1782.5
1783.2
1783.9
1784.6
1785.3
1786
1786.7
1787.4
1788.1
1788.8
1789.5
1790.3
1791
1791.7
1792.4
1793.1
1793.9
1794.6
1795.3
1796
1796.7
1797.4
1798.1
1798.9
1799.6
1800.3
1801
1801.7
1802.4
1803.1
1803.8
1804.6
1805.3
