0.069444
0.19444
1.5278
2.8361
4.1611
5.3472
6.5
7.8361
9.0528
10.186
11.539
12.861
14.086
15.539
16.869
18.083
19.419
20.761
22
23.358
24.7
25.906
27.203
28.536
29.758
31.106
32.447
33.736
35.097
36.428
37.583
38.867
40.106
41.244
42.433
43.669
44.753
45.867
47.078
48.2
49.275
50.539
51.722
52.85
54.144
55.319
56.439
57.65
58.792
59.872
61.114
62.378
63.536
64.783
65.997
67.15
68.381
69.614
70.736
71.983
73.194
74.294
75.333
76.322
77.333
78.333
79.281
80.303
81.358
82.386
83.517
84.844
86.114
87.419
88.703
89.903
91.108
92.381
93.539
94.725
95.961
97.092
98.258
99.658
100.84
101.98
103.38
104.56
105.64
106.65
107.62
108.62
109.67
110.67
111.74
112.85
113.94
115.31
116.69
118.03
119.4
120.61
121.84
123.14
124.31
125.39
126.56
127.8
128.97
130.21
131.48
132.5
133.52
134.54
135.59
137.05
138.35
139.69
141.02
142.26
143.56
144.89
146.07
147.44
148.74
149.89
151.11
152.41
153.6
154.76
156.07
157.13
158.19
159.29
160.45
161.96
163.36
164.63
165.96
167.23
168.44
169.75
170.94
172.04
173.22
174.37
175.47
176.57
177.95
179.27
180.39
181.71
182.98
184.04
185.06
186.08
187.07
188.1
189.52
190.84
192.24
193.55
194.86
196.25
197.48
198.69
200.03
201.29
202.46
203.69
204.84
205.93
207.22
208.36
209.38
210.44
211.47
212.87
214.19
215.49
216.87
218.14
219.4
220.64
221.77
223.05
224.24
225.38
226.55
227.81
228.9
230.01
231.03
232.02
233.06
234.07
235.15
236.51
237.82
239.18
240.53
241.74
242.93
244.22
245.41
246.61
247.86
249.04
250.19
251.51
252.71
253.84
255.08
256.35
257.5
258.87
260.08
261.22
262.47
263.72
264.85
266.11
267.34
268.48
269.74
270.85
271.89
272.92
273.91
274.92
275.9
276.91
277.91
278.92
280.32
281.59
282.89
284.27
285.53
286.86
288.24
289.48
290.73
292
293.17
294.41
295.74
296.96
298.23
299.56
300.79
302.06
303.42
304.61
305.92
307.2
308.37
309.62
310.8
311.81
312.81
313.83
314.82
315.98
317.44
318.78
320.11
321.38
322.66
323.99
325.22
326.44
327.71
328.87
330.14
331.45
332.63
333.91
335.18
336.34
337.66
338.94
340.11
341.31
342.39
343.38
344.41
345.43
346.51
348.01
349.38
350.72
352.09
353.31
354.66
355.96
357.15
358.4
359.68
360.85
361.97
363.22
364.41
365.52
366.71
367.79
368.97
370.23
371.41
372.67
373.93
375.08
376.3
377.43
378.61
379.87
381.03
382.19
383.36
384.37
385.36
386.38
387.38
388.44
389.77
391.09
392.31
393.71
394.97
396.26
397.54
398.69
399.93
401.16
402.29
403.54
404.78
405.84
407.03
408.26
409.37
410.44
411.55
412.52
413.52
414.53
415.54
416.64
417.94
419.19
420.46
421.81
423.01
423.53
424.27
425.38
426.54
427.68
428.88
429.98
431.09
432.29
433.43
434.56
435.75
436.76
437.77
438.79
439.77
440.81
442.05
443.3
444.47
445.69
446.85
448.04
449.07
450.08
451.1
452.06
452.98
453.96
455.04
456.09
457.12
458.23
459.42
460.77
462.04
463.37
464.66
465.89
467.2
468.42
469.59
470.83
471.96
472.99
474
474.96
475.93
476.96
478.11
479.27
480.51
481.76
482.92
484.12
485.27
486.31
487.35
488.33
489.3
490.27
491.23
492.19
493.23
494.54
495.87
497.26
498.57
499.8
501.11
502.52
503.71
505.03
506.39
507.55
508.8
510.07
511.22
512.35
513.39
514.43
515.46
516.49
517.63
519.01
520.34
521.69
522.96
524.2
525.51
526.78
527.98
529.27
530.43
531.61
532.83
533.96
535.14
536.36
537.5
538.59
539.59
540.59
541.59
542.55
543.56
544.68
545.85
547.31
548.64
549.85
550.94
551.99
553
553.98
554.93
555.85
556.83
557.78
558.72
559.7
560.74
561.8
562.9
563.94
565.02
566.19
567.46
568.76
570.15
571.41
572.71
574.08
575.31
576.48
577.69
578.74
579.77
580.81
581.85
583.13
584.64
586.08
587.52
588.83
590.15
591.54
592.77
594.04
595.23
596.39
597.64
598.79
599.81
600.85
601.94
603.16
604.61
605.91
607.29
608.55
609.78
611.11
612.36
613.48
614.56
615.57
616.59
617.66
619.05
620.33
621.67
623.01
624.26
625.5
626.66
627.92
629.2
630.39
631.66
632.91
634.09
635.3
636.49
637.66
638.91
640.07
641.21
642.53
643.67
644.86
646.15
647.3
648.49
649.73
650.94
652.09
653.37
654.59
655.72
656.96
658.2
659.33
660.59
661.84
662.97
664.17
665.4
666.54
667.71
668.78
669.83
670.82
671.8
672.76
673.77
674.82
676.19
677.55
678.91
680.13
681.35
682.68
683.88
685.1
686.41
687.58
688.88
690.24
691.37
692.66
693.96
695.12
696.39
697.75
698.93
700.21
701.43
702.6
703.84
705.04
706.17
707.41
708.63
709.77
711.05
712.31
713.44
714.64
715.94
717.1
718.39
719.61
720.74
722
723.16
724.27
725.47
726.58
727.66
728.84
729.99
731.12
732.34
733.54
734.67
735.96
737.22
738.39
739.71
740.99
742.13
743.38
744.58
745.7
746.92
748.12
749.24
750.46
751.81
752.96
754.19
755.45
756.64
757.76
759.02
760.21
761.19
762.21
763.16
764.1
765.08
766.07
767.4
768.47
769.54
770.64
771.89
773.16
774.34
775.6
776.82
778
779.23
780.51
781.67
783.03
784.4
785.66
787.02
788.34
789.62
790.94
792.23
793.51
794.73
796.04
797.25
798.56
799.86
801.06
802.26
803.54
804.67
805.79
806.87
807.84
808.83
809.8
810.76
811.8
813.28
814.67
816.1
817.42
818.66
819.95
821.2
822.42
823.68
824.88
826.06
827.41
828.61
829.94
831.27
832.52
833.77
835.07
836.25
837.56
838.82
839.96
841.19
842.43
843.54
844.76
845.98
847.13
848.42
849.71
850.92
852.18
853.49
854.66
855.87
857.07
858.21
859.32
860.57
861.85
863.01
864.05
865.04
866.03
867.08
868.31
869.45
870.75
872.07
873.16
874.32
875.48
876.57
877.71
878.89
880
881.26
882.48
883.59
884.88
886.15
887.31
888.56
889.81
890.95
892.24
893.47
894.66
895.92
897.15
898.33
899.7
900.95
902.26
903.56
904.78
905.97
907.35
908.6
909.74
911.07
912.35
913.52
914.78
915.99
917.07
918.27
919.46
920.59
921.86
923.09
924.26
925.56
926.73
927.85
929.08
930.27
931.39
932.66
933.92
935.07
936.38
937.69
938.89
940.17
941.47
942.64
943.95
945.21
946.33
947.54
948.85
950.01
951.15
952.38
953.55
954.68
955.95
957.2
958.31
959.58
960.79
961.9
963.04
964.21
965.28
966.34
967.51
968.69
969.77
971.02
972.29
973.44
974.72
976.01
977.18
978.46
979.77
980.91
982.17
983.44
984.54
985.71
986.95
988.08
989.31
990.62
991.77
992.96
994.19
995.42
996.58
997.86
999.11
1000.3
1001.5
1002.8
1003.9
1005.1
1006.3
1007.4
1008.5
1009.7
1010.9
1012
1013.1
1014.3
1015.4
1016.6
1018
1019.2
1020.4
1021.7
1022.8
1024
1025.3
1026.4
1027.5
1028.7
1029.9
1031
1032.3
1033.5
1034.6
1035.9
1037.1
1038.2
1039.4
1040.6
1041.8
1043.1
1044.4
1045.5
1046.7
1047.9
1048.8
1049.9
1050.8
1051.7
1052.7
1053.6
1054.7
1055.8
1057.2
1058.6
1059.9
1061.3
1062.6
1063.9
1065.3
1066.5
1067.7
1069
1070.1
1071.2
1072.4
1073.5
1074.7
1075.9
1077
1078.3
1079.5
1080.6
1081.9
1083.2
1084.4
1085.8
1087.1
1088.3
1089.6
1090.9
1092
1093.3
1094.6
1095.8
1097.1
1098.3
1099.4
1100.6
1101.8
1102.9
1104.2
1105.4
1106.5
1107.5
1108.5
1109.4
1110.4
1111.5
1112.7
1114.2
1115.5
1116.9
1118.3
1119.5
1120.9
1122.1
1123.3
1124.5
1125.7
1126.8
1128.1
1129.3
1130.4
1131.5
1132.8
1133.9
1135.2
1136.6
1137.8
1139
1140.3
1141.5
1142.7
1143.9
1144.9
1146.1
1147.5
1148.7
1149.9
1151.2
1152.4
1153.6
1154.8
1156
1157.2
1158.5
1159.6
1160.8
1162.1
1163.3
1164.5
1165.8
1166.9
1168
1169.2
1170.4
1171.6
1172.8
1174.1
1175.2
1176.4
1177.6
1178.7
1179.8
1180.9
1182.1
1183.2
1184.4
1185.6
1186.7
1187.9
1189.1
1190.3
1191.4
1192.5
1193.5
1194.4
1195.4
1196.4
1197.6
1199
1200.4
1201.7
1203.1
1204.3
1205.6
1206.8
1207.9
1209.2
1210.5
1211.6
1212.9
1214.1
1215.2
1216.5
1217.7
1218.8
1219.9
1221.1
1222.3
1223.4
1224.7
1226.1
1227.3
1228.6
1229.9
1231.1
1232.4
1233.7
1234.8
1236.1
1237.3
1238.5
1239.7
1240.9
1242
1243.1
1244.4
1245.7
1246.8
1248.1
1249.4
1250.5
1251.8
1253
1254.2
1255.4
1256.7
1257.8
1258.9
1260.3
1261.5
1262.7
1263.9
1265.1
1266.2
1267.4
1268.6
1269.6
1270.8
1272
1273
1274.1
1275.4
1276.5
1277.7
1278.9
1280.2
1281.3
1282.6
1283.9
1285.1
1286.3
1287.7
1288.9
1290.1
1291.5
1292.7
1293.8
1295.1
1296.4
1297.5
1298.8
1300
1301.1
1302.3
1303.5
1304.6
1305.9
1307.1
1308.3
1309.4
1310.6
1311.8
1312.9
1314.1
1315.4
1316.5
1317.7
1318.9
1320
1321.2
1322.4
1323.4
1324.4
1325.4
1326.4
1327.3
1328.3
1329.3
1330.3
1331.2
1332.3
1333.7
1335
1336.3
1337.7
1339
1340.2
1341.6
1343
1344.1
1345.1
1346.2
1347.1
1348.1
1349
1350
1351
1352
1353.2
1354.6
1356
1357.3
1358.8
1360.1
1361.3
1362.7
1363.9
1365.3
1366.6
1367.8
1369.1
1370.4
1371.6
1372.9
1374.1
1375.2
1376.4
1377.6
1378.8
1380.1
1381.3
1382.5
1383.8
1384.9
1386.1
1387.4
1388.7
1389.8
1391.1
1392.4
1393.5
1394.7
1395.8
1396.9
1398.1
1399.4
1400.5
1401.8
1403.1
1404.3
1405.4
1406.4
1407.4
1408.3
1409.3
1410.2
1411.2
1412.7
1414.1
1415.4
1416.8
1418.2
1419.5
1420.8
1422.1
1423.4
1424.6
1425.9
1427.1
1428.2
1429.5
1430.7
1431.8
1433.1
1434.3
1435.5
1436.6
1437.7
1438.8
1439.9
1441
1442.2
1443.4
1444.5
1445.6
1446.7
1447.7
1448.7
1449.7
1450.8
1451.8
1452.8
1453.9
1455
1456
1457
1458.1
1459.1
1460
1461
1462
1463
1463.9
1464.9
1465.9
1466.9
1467.9
1469
1470.1
1471.1
1472.3
1473.6
1474.9
1476.2
1477.5
1478.6
1479.9
1481.1
1482.2
1483.5
1484.8
1486.1
1487.3
1488.4
1489.6
1490.9
1492.3
1493.6
1495
1496.1
1497.1
1498.2
1499.2
1500.3
1501.7
1503
1504.5
1505.9
1507.2
1508.6
1509.9
1511
1512.3
1513.5
1514.6
1515.8
1516.3
1517
1518
1519.1
1520.1
1521.1
1522.1
1523.1
1524.2
1525.2
1526.5
1527.8
1529.1
1530.4
1531.6
1532.8
1534.2
1535.5
1536.6
1537.9
1539.1
1540.2
1541.4
1542.6
1543.8
1545.1
1546.4
1547.5
1548.5
1549.5
1550.5
1551.5
1552.6
1554
1555.4
1556.8
1558.1
1559.5
1560.8
1562.1
1563.3
1564.6
1565.7
1566.9
1568.2
1569.3
1570.4
1571.4
1572.5
1573.4
1574.5
1575.7
1576.8
1578.3
1579.6
1580.9
1582.3
1583.5
1584.7
1586
1587.1
1588.3
1589.5
1590.9
1592.1
1593.4
1594.7
1595.9
1597.2
1598.4
1599.8
1601.2
1602.3
1603.6
1604.8
1605.9
1606.9
1607.9
1608.9
1610
1611.4
1612.7
1614.1
1615.4
1616.6
1617.9
1619.1
1620.3
1621.6
1622.8
1624
1625.3
1626.6
1627.8
1629
1630.2
1631.4
1632.6
1633.8
1634.9
1636.1
1637.3
1638.5
1639.8
1641
1642.2
1643.5
1644.7
1645.9
1647.1
1648.3
1649.3
1650.5
1651.7
1652.8
1654.1
1655.5
1656.6
1657.9
1659.2
1660.4
1661.6
1662.9
1664.1
1665.1
1666.3
1666.8
1667.4
1668.3
1669.2
1670.2
1671.3
1672.9
1674.2
1675.6
1677
1678.3
1679.7
1681
1682.3
1683.5
1684.7
1685.9
1687.1
1688.3
1689.6
1690.7
1692
1693.3
1694.4
1695.6
1696.8
1697.9
1699.1
1700.2
1701.4
1702.6
1703.8
1705
1706.3
1707.5
1708.6
1709.8
1710.9
1712
1713.2
1714.3
1715.3
1716.3
1717.4
1718.3
1719.4
1720.7
1722
1723.4
1724.8
1726
1727.3
1728.6
1729.8
1731
1732.3
1733.5
1734.6
1735.8
1737
1738.1
1739.3
1740.5
1741.6
1742.8
1744
1745.2
1746.4
1747.8
1749
1750.2
1751.5
1752.6
1753.8
1755.1
1756.4
1757.6
1758.9
1760.1
1761.3
1762.5
1763.7
1764.9
1766.1
1767.3
1768.4
1769.6
1770.9
1772
1773.1
1774.3
1775.4
1776.6
1777.7
1778.8
1779.8
1780.8
1781.7
1782.7
1783.6
1784.6
1785.6
1786.7
1787.9
1788.9
1790
1791.1
1792.1
1793.1
1794.3
1795.4
1796.5
1797.5
1798.6
1799.7
1800.7
1801.7
1802.8
1803.7
1804.7
