0.27778
0.675
1.925
3.1083
4.3111
5.525
6.7889
8.0139
9.1861
10.4
11.544
12.761
13.933
15.158
16.328
17.575
18.767
20
21.203
22.422
23.611
24.822
25.989
27.206
28.389
29.614
30.797
31.992
33.2
34.406
35.589
36.767
37.975
39.167
40.356
41.614
42.831
44.069
45.322
46.578
47.778
49.028
50.247
51.494
52.731
53.933
55.192
56.439
57.7
58.95
60.142
61.369
62.589
63.856
65.064
66.383
67.672
68.931
70.144
71.356
72.522
73.722
74.869
76.1
77.367
78.55
79.794
80.942
82.153
83.394
84.583
85.8
86.997
88.208
89.433
90.672
91.903
93.103
94.325
95.547
96.786
97.961
99.136
100.35
101.63
102.87
104.11
105.37
106.58
107.85
109.1
110.33
111.59
112.88
114.13
115.32
116.56
117.72
118.95
120.13
121.33
122.53
123.77
124.93
126.17
127.39
128.61
129.85
131.03
132.24
133.49
134.7
135.91
137.07
138.3
139.47
140.68
141.87
143.07
144.31
145.51
146.74
147.91
149.07
150.29
151.48
152.72
153.87
155.09
156.32
157.53
158.73
159.92
161.16
162.32
163.54
164.71
165.89
167.11
168.3
169.5
170.64
171.86
173.06
174.26
175.43
176.6
177.8
178.95
180.19
181.35
182.53
183.74
184.94
186.15
187.35
188.59
189.78
191.01
192.22
193.4
194.64
195.87
197.07
198.29
199.53
200.74
201.99
203.18
204.38
205.57
206.76
208
209.18
210.41
211.67
212.95
214.17
215.4
216.64
217.84
219.09
220.31
221.58
222.86
224.11
225.34
226.56
227.8
229.01
230.22
231.44
232.64
233.88
235.1
236.34
237.54
238.74
239.96
241.17
242.37
243.57
244.82
246.04
247.28
248.49
249.68
250.89
252.11
253.27
254.47
255.7
256.87
258.12
259.32
260.49
261.69
262.88
264.07
265.19
266.36
267.5
268.71
269.84
271.04
272.23
273.37
274.53
275.65
276.77
277.9
278.98
280.08
281.13
282.18
283.2
284.23
285.26
286.26
286.9
287.26
288.24
289.24
290.21
291.19
292.13
293.06
293.99
294.93
295.85
296.81
297.73
298.69
299.65
300.52
301.59
302.59
303.55
304.14
305.23
306.24
307.2
308.21
309.21
310.23
311
311.31
312.35
313.39
314.39
315.41
316.43
317.46
318.49
319.55
320.59
321.62
322.7
323.75
324.82
325.89
326.96
328.07
329.15
330.33
331.43
332.22
332.51
333.59
334.62
335.71
336.75
337.83
338.56
338.91
339.98
341.05
342.09
343.14
344.23
345.33
346.41
347.51
348.54
349.61
350.66
351.74
352.81
353.85
354.93
355.99
357.05
358.13
359.19
360.24
361.29
362.34
363.41
364.46
365.52
366.64
367.71
368.83
369.88
370.99
372.06
373.2
374.29
375.45
376.56
377.67
378.81
379.92
381.04
382.11
383.21
384.31
385.41
386.51
387.57
388.61
389.72
390.83
391.96
393.06
394.16
395.27
396.35
397.49
398.59
399.75
400.87
402.06
403.2
404.35
405.45
406.64
407.76
408.94
410.04
411.18
412.26
413.39
414.47
415.59
416.69
417.82
419.01
420.13
421.25
422.35
423.45
424.51
425.57
426.65
427.75
428.81
429.91
430.99
432.12
433.22
434.36
435.49
436.6
437.69
438.84
439.96
441.1
442.21
443.31
444.45
445.41
446.71
447.88
449.04
450.19
451.34
452.48
453.6
454.71
455.86
456.95
458.12
459.24
460.42
461.61
462.79
463.96
465.16
466.27
467.46
468.59
469.81
470.93
472.11
473.24
474.41
475.53
476.71
477.83
478.98
480.09
481.22
482.32
483.42
484.52
485.61
486.72
487.78
488.88
489.94
491.02
492.09
493.21
494.33
495.49
496.66
497.79
498.95
500.11
501.29
502.49
503.67
504.82
506.03
507.19
508.42
509.61
510.82
512.01
513.24
514.44
515.66
516.85
518.04
519.2
520.35
521.51
522.73
523.89
525.14
526.33
527.47
528.66
529.77
530.9
531.94
533.02
534.21
535.3
536.44
537.54
538.65
539.72
540.71
541.79
542.83
543.84
544.91
545.92
546.97
548
549
549.29
550.07
551.12
552.13
553.2
554.25
555.22
556.23
557.21
558.23
559.31
560.41
561.5
562.31
562.63
563.74
564.85
565.98
567.1
568.24
569.37
570.51
571.65
572.78
573.93
575.04
576.15
577.26
578.38
579.51
580.62
581.74
582.83
583.98
585.09
586.23
587.32
588.43
589.54
590.63
591.73
592.78
593.89
595.02
596.12
597.24
598.35
599.39
600.52
601.59
602.74
603.8
604.9
606
607.09
608.19
609.26
610.33
611.06
612.45
613.54
614.62
615.38
616.69
617.79
618.92
619.99
621.07
622.13
623.23
624.31
625.43
626.5
627.6
628.69
629.54
629.81
630.94
632.05
633.15
634.24
635.39
636.53
637.64
638.44
638.76
639.89
640.97
642.09
643.14
644.24
645.33
646.44
647.55
648.61
649.7
650.77
651.88
652.98
654.09
655.14
656.27
657.34
658.49
659.57
660.68
661.8
662.92
664.04
665.16
666.27
667.42
668.56
669.71
670.83
671.99
673.15
674.32
675.47
676.61
677.81
679.01
680.2
681.34
682.48
683.65
684.74
685.86
686.89
687.99
689.07
690.14
691.29
692.34
693.46
694.57
695.68
696.81
697.86
698.96
700.02
701.11
702.21
703.27
704.36
705.47
706.62
707.71
708.82
709.88
710.97
712.05
713.17
714.28
715.41
716.52
717.7
718.85
720.01
721.13
722.31
723.41
724.56
725.64
726.77
727.9
729.02
730.16
731.24
732.35
733.46
734.58
735.7
736.82
737.93
739.1
740.18
741.33
742.41
743.52
744.63
745.74
746.88
748.01
749.13
750.26
751.4
752.53
753.67
754.77
755.94
757.06
758.23
759.34
760.46
761.6
762.76
763.94
765.07
766.21
767.35
768.49
769.62
770.74
771.87
773.01
774.13
775.28
776.38
777.5
778.61
779.73
780.82
781.91
783
784.16
785.3
786.44
787.56
788.69
789.86
790.99
792.15
793.26
794.42
795.55
796.71
797.82
799.05
800.25
801.39
802.53
803.67
804.78
805.91
807.03
808.2
809.34
810.45
811.64
812.78
813.98
815.1
816.21
817.33
818.5
819.63
820.8
821.94
822.64
824.23
825.38
826.53
827.72
828.82
829.98
831.07
832.21
833.35
834.48
835.68
836.87
838.06
839.22
840.39
841.52
842.66
843.74
844.86
845.94
847.04
848.15
849.24
850.41
851.51
852.69
853.8
854.94
856.09
857.24
858.4
859.51
860.64
861.8
862.98
864.15
865.27
866.41
867.54
868.72
869.84
871
872.15
873.32
874.49
875.66
876.79
877.96
879.13
880.31
881.49
882.61
883.82
884.97
886.17
887.29
888.49
889.62
890.81
891.94
893.11
894.26
895.41
896.62
897.75
898.89
900.09
901.26
902.43
903.58
904.72
905.93
907.1
908.27
909.43
910.62
911.76
912.95
914.06
915.19
916.34
917.44
918.59
919.69
920.79
921.86
922.99
924.11
925.22
926.28
927.36
928.47
929.66
930.79
931.96
933.1
934.25
935.4
936.55
937.68
938.69
939.95
941.17
942.34
943.58
944.77
945.95
947.12
948.28
949.42
950.58
951.75
952.86
954.02
955.17
956.34
957.49
958.66
959.84
961.03
962.13
963.34
964.46
965.59
966.75
967.95
969.08
970.24
971.38
972.54
973.71
974.89
976.02
977.23
978.38
979.6
980.82
982.01
983.2
984.36
985.54
986.69
987.81
988.98
990.13
991.3
992.48
993.64
994.81
995.99
997.11
997.82
999.31
1000.5
1001.7
1002.8
1004
1005.2
1006.3
1007.5
1008.6
1009.8
1010.9
1012
1013.2
1014.3
1015.4
1016.6
1017.7
1018.9
1020.1
1021.2
1022.4
1023.6
1024.8
1025.9
1027.1
1028.3
1029.5
1030.6
1031.8
1033
1034.1
1035.3
1036.5
1037.6
1038.8
1040
1041.2
1042.3
1043.5
1043.9
1044.2
1045.8
1046.9
1047.7
1049.2
1050.3
1051.2
1052.7
1053.8
1054.5
1055.3
1056.1
1057.3
1058.4
1059.5
1059.8
1060.5
1061.5
1062.5
1063.5
1064.5
1065.5
1066.8
1067
1068
1069.4
1070.5
1071.6
1072.7
1074
1075.1
1076.3
1077.4
1078.6
1079.8
1080.9
1082.1
1083.2
1084.4
1085.6
1086.8
1088.1
1089.3
1090.5
1091.7
1092.8
1094
1095.1
1096.3
1097.5
1098.7
1099.9
1101
1102.2
1103.3
1104.4
1105.6
1106.8
1107.9
1109
1110.2
1111.3
1112.5
1113.6
1114.8
1116
1117.2
1118.4
1119.5
1120.7
1121.9
1123.1
1124.3
1125.5
1126.7
1127.9
1129.1
1130.3
1131.4
1132.6
1133.8
1135
1136.2
1137.4
1138.6
1139.8
1141
1142.2
1143.5
1144.6
1145.9
1147.1
1148.2
1149.4
1150.5
1151.8
1152.9
1154.1
1155.2
1156.4
1157.6
1158.8
1159.9
1161
1162.2
1163.3
1164.4
1165.6
1166.7
1167.8
1169
1170.1
1171.2
1172.3
1173.5
1174.7
1175.9
1177
1178.2
1179.4
1180.6
1181.8
1183
1184.2
1185.4
1186.5
1187.7
1188.9
1190.1
1191.2
1192.4
1193.5
1194.7
1195.8
1197
1198.1
1199.2
1200.4
1201.5
1202.6
1203.7
1204.8
1206
1207.1
1208.3
1209.5
1210.6
1211.8
1213
1214.1
1215.3
1216.4
1217.6
1218.7
1219.5
1220.8
1222
1223.2
1224.4
1225.5
1226.7
1227.9
1229
1230.2
1231.3
1232.5
1233.6
1234.9
1236
1237.2
1238.3
1239.5
1240.6
1241.8
1242.9
1244.1
1245.3
1246.5
1247.6
1248.8
1249.9
1251.1
1252.2
1253.3
1254.4
1255.6
1256.7
1257.8
1259
1260.1
1261.3
1262.4
1263.6
1264.7
1265.9
1267
1268.2
1269.3
1270.5
1271.7
1272.9
1274
1275.2
1276.3
1277.5
1278.7
1279.9
1281.1
1282.3
1283.5
1284.7
1285.8
1287
1288.1
1289.3
1290.5
1291.6
1292.8
1294
1295.2
1296.4
1297.5
1298.7
1299.9
1301
1302.2
1303.4
1304.5
1305.7
1306.8
1307.9
1309.1
1310.2
1311.4
1312.5
1313.6
1314.8
1315.8
1316.9
1318
1319
1319.9
1320.9
1322
1323
1324
1325
1326.1
1327.1
1328.2
1329.2
1330.3
1331.4
1332.5
1333.6
1334.6
1335.7
1336.8
1338
1339.1
1340.3
1341.4
1342.6
1343.7
1344.9
1346
1347.1
1348.1
1349.2
1350.3
1351.4
1352.4
1353.6
1354.6
1355.7
1356.8
1357.9
1359
1360.1
1361.2
1362.3
1363.4
1364.5
1365.6
1366.7
1367.8
1368.9
1369.9
1371
1372.1
1373.2
1374.3
1375.5
1376.6
1377.7
1378.8
1379.9
1381.1
1382.1
1383.2
1384.3
1385.4
1386.5
1387.6
1388.7
1389.7
1390.8
1391.9
1393
1394
1395.1
1396.1
1397.2
1398.2
1399.2
1400.3
1401.4
1402.4
1403.5
1403.9
1404.3
1405.7
1406.7
1407.4
1408.8
1409.8
1410.7
1412
1413.1
1414
1414.6
1415.2
1416.3
1417.3
1418.4
1419.4
1420.5
1421.5
1422.6
1423.7
1424.8
1425.8
1426.9
1428
1429
1430.1
1431.1
1432.2
1433.3
1434.3
1435.3
1436.4
1437.5
1438.5
1439.6
1440.6
1441.7
1442.7
1443.8
1444.8
1445.8
1446.9
1448
1449.1
1450.1
1451.2
1452.2
1453.3
1454.3
1455.4
1456.5
1457.5
1458.6
1459.7
1460.8
1461.8
1462.9
1464
1465
1466
1467
1468.1
1469.2
1470.2
1471.3
1472.4
1473.5
1474.5
1475.6
1476.7
1477.7
1478.8
1479.8
1480.9
1482
1483
1484.1
1485.1
1486.2
1487.3
1488.4
1489.4
1490.4
1491.5
1492.5
1493.5
1494.6
1495.6
1496.6
1497.7
1498.7
1499.7
1500.7
1501.7
1502.7
1503.8
1504.8
1505.7
1506.7
1507.8
1508.7
1509.6
1510.6
1511.6
1512.6
1513.6
1514.6
1515.6
1516.6
1517.6
1518.6
1519.5
1520.6
1521.6
1522.7
1523.7
1524.9
1526
1527.1
1528.2
1529.3
1530.4
1531.6
1532.7
1533.8
1534.9
1536.1
1537.2
1538.3
1539.4
1540.5
1541.6
1542.7
1543.8
1544.9
1546
1547
1548.1
1549.2
1550.3
1551.3
1552.4
1553.4
1554.5
1555.6
1556.6
1557.7
1558.7
1559.8
1560.9
1561.9
1563
1564.1
1565.2
1566.2
1567.3
1568.4
1569.5
1570.2
1571.6
1572.7
1573.9
1574.9
1576
1577.1
1578.2
1579.2
1580.3
1581.4
1582.4
1583.5
1584.5
1585.5
1586.5
1587.5
1588.5
1589.5
1590.6
1591.7
1592.9
1593.9
1595
1596.1
1597.1
1598.2
1599.2
1600.2
1601.3
1602.3
1603.3
1604.3
1605.3
1606.4
1607.4
1608.5
1609.5
1610.5
1611.6
1612.6
1613.6
1614.7
1615.7
1616.8
1617.8
1618.9
1620
1621.1
1622.1
1623.1
1624.1
1625.1
1626.2
1627.2
1628.1
1629.2
1630.2
1631.2
1632.2
1633.2
1634.2
1635.2
1636.3
1637.3
1638.3
1639.4
1640.5
1641.5
1642.6
1643.7
1644.7
1645.8
1646.9
1648
1649
1650
1651.1
1652.1
1653.1
1654.1
1655.1
1656.1
1657.1
1658.1
1659.1
1660
1661
1662
1662.9
1663.9
1664.5
1665.7
1666.7
1667.8
1668.7
1669.7
1670.6
1671.5
1672.5
1673.4
1674.4
1675.3
1676.3
1677.3
1678.3
1679.2
1680.2
1681.2
1682.2
1683.2
1684.2
1685.2
1686.2
1687.2
1688.2
1689.2
1690.1
1691.1
1692.1
1693
1694
1695
1696
1696.9
1697.9
1698.9
1699.8
1700.8
1701.7
1702.6
1703.6
1704.6
1705.5
1706.5
1707.5
1708.4
1709.4
1710.3
1711.3
1712.3
1712.8
1714.1
1715.1
1716.1
1717
1718
1719
1719.9
1720.9
1721.8
1722.8
1723.7
1724.7
1725.7
1726.7
1727.8
1728.8
1729.8
1730.8
1731.8
1732.8
1733.8
1734.8
1735.9
1736.9
1737.9
1738.9
1740
1741
1742
1743
1744
1745.1
1746.2
1747.4
1748.5
1749.7
1750.8
1752
1753.1
1754.2
1755.3
1756.4
1757.5
1758.5
1759.6
1760.8
1761.8
1762.9
1764
1765
1766.1
1767.1
1768.1
1769.2
1770.2
1771.2
1772.2
1773.2
1774.3
1775.3
1776.3
1777.3
1778.4
1779.4
1780.4
1781.5
1782.5
1783.5
1784.5
1785.6
1786.5
1787.6
1788.6
1789.6
1790.7
1791.7
1792.8
1793.8
1794.8
1795.9
1797
1798
1799.1
1800.1
1801.2
1802.2
1803.2
1804.2
1805.2
