0.18611
0.625
1.3528
1.9139
2.6778
3.1861
3.9806
4.4722
5.2278
5.7556
6.475
6.9611
7.7333
8.3028
9.1667
9.6778
10.031
10.383
11.042
11.669
12.267
12.906
13.556
14.261
14.947
15.569
16.169
16.908
17.458
18.186
18.661
19.656
20.167
20.708
21.942
22.428
23.317
23.825
24.239
25.472
26.067
26.972
27.675
28.325
28.989
29.647
30.281
30.922
31.558
32.269
32.936
33.775
34.344
35.336
35.833
36.256
37.561
38.147
39.169
39.889
40.136
40.383
41.397
41.903
42.806
43.319
43.781
44.244
44.986
45.25
45.514
46.375
46.889
47.678
48.161
49.072
49.611
50.553
51.064
51.5
51.936
52.608
52.869
53.133
53.978
54.461
55.319
55.831
56.75
57.336
58.203
58.667
59.417
59.928
60.758
61.269
61.728
62.189
62.906
63.556
64.228
64.853
65.561
66.269
66.939
67.614
68.319
68.956
69.728
70.314
71.186
71.653
72.203
73.297
73.586
73.875
74.772
75.303
76.317
76.811
77.828
78.342
79.331
79.853
80.856
81.419
81.906
82.394
83.044
83.675
83.9
84.128
84.992
85.522
86.467
87.008
87.819
88.314
89.153
89.683
90.553
91.028
91.483
91.942
92.686
93.436
94.189
94.886
95.578
96.278
97.069
97.872
98.697
99.678
99.958
100.24
101.24
101.75
102.76
103.29
104.32
104.97
105.91
106.44
107.32
107.81
108.69
108.92
109.22
109.68
110.53
111.41
111.67
112.16
113.02
113.58
114.34
114.88
115.92
116.47
116.95
117.44
118.17
118.43
118.69
119.53
120.03
120.88
121.45
122.4
122.95
123.8
124.32
125.17
125.68
126.58
127.11
128.01
128.53
129
129.47
130.1
130.36
130.63
131.53
132.07
132.94
133.45
133.91
134.37
135.31
136.16
136.87
137.65
138.43
139.2
139.96
140.72
141.46
142.21
142.95
143.63
144.32
145
145.79
146.62
147.4
148.06
148.72
149.41
150.1
150.8
151.54
152.29
152.97
153.69
154.46
155.13
155.78
156.45
157.14
157.83
158.6
159.38
160.05
160.71
161.38
162.09
162.8
163.55
164.28
165
165.69
166.4
167.12
167.78
168.46
169.12
169.86
170.66
171.41
172.07
172.73
173.4
174.09
174.78
175.5
176.23
176.76
177.39
178.36
178.88
179.52
180.38
180.63
180.87
181.78
182.33
183.3
183.81
184.66
185.13
185.98
186.54
187.42
187.97
188.88
189.42
190.32
190.84
191.77
192.26
193.14
193.76
194.72
195.3
196.16
196.66
197.46
197.95
198.82
199.5
200.31
200.89
201.7
202.24
203.13
203.64
204.44
204.97
205.82
206.34
206.78
207.21
207.93
208.57
209.22
209.77
210.51
211.28
212.04
212.73
213.45
214.17
214.85
215.15
215.46
216.27
216.79
217.71
218.24
219.3
219.81
220.19
220.7
221.27
221.66
222.04
222.71
223.44
223.78
224.13
224.92
225.47
226.28
226.81
227.67
228.18
228.97
229.48
229.9
230.76
231.06
231.59
232
232.41
233.08
233.68
234.31
234.99
235.68
236.38
237
237.63
237.81
238.31
238.84
239.53
240.2
240.82
241.46
242.11
242.61
243.52
244.02
244.82
245.43
246.03
246.67
247.32
248.01
248.75
249.4
250.02
250.63
251.29
251.96
252.61
253.26
253.91
254.62
255.27
255.94
256.62
257.17
257.87
258.42
259.13
259.75
260.61
261.24
261.92
262.55
263.16
263.79
264.43
265.01
265.77
266.43
267.09
267.65
268.44
268.94
269.65
270.25
270.86
271.48
272.18
272.87
273.53
274.06
274.74
275.34
276
276.64
277.31
277.77
278.58
279.25
279.86
280.41
281.15
281.63
282.36
282.94
283.56
284.31
284.98
285.63
286.2
286.77
287.37
287.94
288.55
289.15
289.82
290.37
291.07
291.71
292.36
292.96
293.56
294.06
294.68
295.17
295.91
296.59
297.26
297.88
298.48
299.04
299.63
300.26
300.89
301.48
302.16
302.82
303.46
304.05
304.67
304.87
305.22
305.89
306.49
307.06
307.57
308.33
308.95
309.66
310.28
310.84
311.39
311.96
312.52
313.16
313.48
313.81
314.46
315.01
315.66
316.21
316.93
317.46
317.79
318.11
318.66
319.26
319.84
320.49
321.15
321.48
321.77
322.05
322.33
322.95
323.12
323.43
324.06
324.61
325.34
325.87
326.24
326.61
327.24
327.82
328.36
329.01
329.51
330.23
330.82
331.46
332.05
332.74
333.38
334.04
334.56
335.2
335.77
336.38
336.91
337.63
338.22
339.01
339.19
339.63
340.23
340.82
341.51
342.02
342.75
343.37
343.99
344.66
345.34
345.64
345.94
346.63
347.16
347.84
348.45
349.12
349.79
350.47
351.14
351.78
352.08
352.39
352.99
353.55
354.28
354.81
355.58
356.12
356.52
356.91
357.61
358.28
358.93
359.49
359.81
360.1
360.75
361.35
361.53
362.05
362.73
363.45
364.01
364.68
365.18
365.98
366.64
367.32
367.97
368.62
369.25
369.71
370.61
371.16
371.88
372.53
373.16
373.88
374.68
375.36
376.01
376.62
377.27
377.87
378.53
379.22
379.89
380.59
381.23
381.89
382.57
383.19
383.81
384.43
385.07
385.74
385.92
386.45
387.17
387.76
387.88
388.55
389.18
389.81
390.51
391.12
391.9
392.12
392.34
393.25
393.81
394.57
395.07
395.93
396.5
397.13
397.67
398.99
399.52
399.97
401.13
401.64
402.11
402.57
403.34
404.12
404.89
405.58
406.3
406.54
406.78
407.66
408.16
408.93
409.45
410.31
410.88
411.3
411.72
412.43
413.08
413.69
414.32
415.02
415.69
416.39
417.02
417.7
418.37
419.02
419.71
420.4
421.09
421.79
422.54
423.33
424.06
424.78
425.42
425.94
426.7
427
427.29
428.5
429.05
430
430.58
431.43
431.96
432.84
433.32
434.21
434.77
435.66
436.18
437.01
437.53
438.27
438.77
439.7
440.26
441.14
441.64
442.42
442.93
443.76
444.23
444.68
445.14
445.87
446.44
447
448.28
448.78
449.73
450.44
451.16
451.92
452.69
453.43
454.13
454.78
455.06
455.34
456.17
456.7
457.59
458.1
459.01
459.54
460.42
460.93
461.36
461.79
462.47
463.14
463.89
464.68
465.43
465.69
465.96
466.75
467.29
468.05
468.57
469.47
469.99
470.52
471.47
471.97
472.48
472.99
473.69
474.32
475
475.74
476.48
477.26
477.93
478.73
478.98
479.23
480.16
480.52
480.73
481.76
482.35
483.41
483.96
484.99
485.52
486.53
487.1
487.85
488.05
488.66
489.19
489.72
490.48
491.11
491.76
492.42
493.09
493.82
494.57
495.16
495.9
496.56
497.13
497.94
498.6
499.28
499.58
499.88
500.71
501.25
502.13
502.69
503.5
503.97
504.78
505.35
506.31
506.89
507.31
507.74
508.43
508.67
508.91
509.74
510.29
511.12
511.69
512.56
513.14
514.03
514.54
514.91
515.28
515.94
516.6
517.26
518
518.81
519.4
520.21
520.44
520.66
521.74
522.27
523.24
523.76
524.21
524.66
525.64
526.45
527.25
528
528.71
529.5
530.39
531.21
531.96
532.7
533.44
534.16
534.91
535.7
536.46
537.17
537.9
538.67
539.36
540.05
540.73
541.44
542.16
542.97
543.76
544.45
545.13
545.79
546.54
547.29
548.06
548.73
549.43
550.12
550.8
551.49
552.2
552.89
553.58
554.35
555.19
555.92
556.62
557.29
557.96
558.6
559.33
560.14
560.88
561.61
562.33
562.62
562.91
563.77
564.31
565.17
565.73
566.61
567.19
568.1
568.72
569.47
569.96
570.77
571.36
572.26
572.85
573.65
574.16
574.94
575.45
576.27
576.81
577.46
577.95
578.32
578.92
579.81
580.33
581.14
581.64
582.37
582.89
583.78
584.36
585.29
585.8
586.59
587.11
587.96
588.49
588.68
589.38
590
590.72
591.31
592.23
592.75
593.24
593.66
594.18
594.99
595.56
596.61
597.29
598.12
598.65
599.46
599.94
600.83
601.57
602.25
603.11
603.58
604.07
605
605.26
605.81
606.21
606.42
606.61
607.3
608
608.77
609.07
609.38
609.72
610.23
610.74
611.49
611.98
612.88
613.46
614.38
614.91
615.74
616.27
616.68
616.82
617.08
617.76
618.44
619.08
619.8
620.5
621.25
621.51
621.97
622.65
623.27
623.93
624.58
624.86
625.29
626.06
626.83
627.48
627.67
628.23
628.77
629.67
629.91
630.16
630.61
631.1
631.61
632.27
632.89
633.98
634.52
635.21
635.4
636.04
636.69
637.4
638.16
638.92
639.57
640.22
640.88
641.14
641.41
642.14
642.67
643.51
644.14
644.88
645.49
645.88
646.26
646.91
647.56
648.1
648.76
649.31
650.09
650.67
651.2
652.16
652.72
653.38
654.02
654.71
655.31
656.09
656.62
657.39
658.03
658.67
659.23
659.96
660.49
661.17
661.82
662.54
663.14
663.61
664.53
665.15
665.75
666.26
667
667.56
668.36
669.04
669.66
670.19
670.94
671.59
672.17
672.69
673.43
674.12
674.77
675.36
676.11
676.62
677.36
677.93
678.55
679.13
679.94
680.51
681.28
681.91
682.55
683.05
683.7
684.22
685.01
685.7
686.33
686.94
687.74
688.28
689.01
689.58
690.15
690.7
691.4
691.96
692.81
693.46
694.09
694.67
695.29
695.95
696.57
696.81
697.16
697.84
698.41
699.18
699.68
700.41
701.08
701.68
702.3
702.88
703.51
704.18
704.96
705.64
706.25
706.85
707.46
707.98
708.69
709.01
709.33
710.08
710.65
711.37
711.94
712.32
712.71
713.38
714.03
714.29
714.55
715.26
715.79
716.59
717.23
717.63
718.03
718.66
719.29
719.77
720.52
721.08
721.96
722.72
723.37
723.96
724.66
725.19
725.96
726.5
727.31
727.98
728.67
729.36
730.12
730.67
731.39
731.87
732.67
733.34
734.06
734.82
735.49
736.15
736.77
737.45
738.14
738.82
739.46
740.17
740.89
741.13
741.37
742.26
742.83
743.62
744.19
744.55
744.91
745.55
746.4
746.69
746.99
747.88
748.38
749.2
749.69
750.52
751.09
751.56
752.04
752.13
752.76
753.45
754.18
754.89
755.49
756.13
756.77
757.46
758.12
758.85
759.6
760.25
760.9
761.5
762.16
762.89
763.62
764.35
765.06
765.75
766.39
767.06
767.76
768.42
769.1
769.71
770.52
771.33
772.01
772.75
773.4
774
774.7
775.44
776.2
776.98
777.69
778.37
779.09
779.38
779.67
780.52
781.1
781.89
782.55
782.92
783.29
784.04
784.74
785.38
785.99
786.57
787.31
787.67
788.02
788.79
789.33
790.1
790.61
791.38
791.9
792.74
793.26
793.71
794.16
794.87
795.59
795.91
796.22
796.98
797.49
798.22
798.73
799.54
800.13
800.59
801.05
801.68
802.41
802.9
803.66
804.2
804.64
805.75
806.28
807.11
807.78
808.43
809.08
809.73
810.34
810.98
811.29
811.59
812.34
812.99
813.77
814.29
814.64
814.99
815.61
816.21
816.76
817.52
818.12
818.91
819.54
820.15
820.81
821.46
822.08
822.7
823.32
823.97
824.65
825.33
825.94
826.66
827.19
827.84
828.42
829.07
829.73
830.5
831.19
831.78
832.38
832.98
833.58
834.18
834.84
835.43
836.07
836.69
837.26
838.03
838.64
839.26
839.76
840.38
840.98
841.57
842.18
842.89
843.52
844.12
844.64
845.22
845.82
846.46
847.01
847.67
848.27
848.87
849.46
850.05
850.64
851.25
851.81
852.38
852.92
853.51
854.16
854.84
855.44
856.05
856.59
857.12
857.68
858.21
858.8
859.43
860.07
860.71
861.29
861.86
862.47
863.1
863.66
864.26
864.79
865.37
866
866.59
867.24
867.88
868.46
869.03
869.57
870.11
870.71
871.37
872
872.67
873.25
873.83
874.45
874.99
875.58
876.18
876.74
877.38
877.98
878.6
879.27
879.94
880.53
881.13
881.68
882.23
882.83
883.42
884.08
884.79
885.44
886.06
886.62
887.18
887.8
888.42
889.03
889.66
890.28
890.88
891.5
892.12
892.72
893.34
893.91
894.49
895.05
895.69
895.87
896.33
897.1
897.72
898.31
898.9
899.48
899.96
900.64
901.3
901.95
902.59
903.21
903.83
904.48
905.11
905.71
906.29
906.87
907.47
908.09
908.76
909.41
910.09
910.68
911.29
911.84
912.46
913.15
913.73
914.47
915
915.72
916.35
916.94
917.56
918.23
918.76
919.5
920.13
920.84
921.46
922.23
922.81
923.39
923.89
924.64
925.26
925.93
926.67
927.32
927.9
928.52
929.05
929.82
930.44
931.09
931.73
932.42
932.69
933.11
933.74
934.42
935.08
935.65
936.31
936.58
936.84
937.58
938.2
939.09
939.67
940.05
940.42
941.05
941.69
942.3
942.98
943.72
944.41
945.12
945.38
945.65
946.14
947.11
947.62
948.2
948.41
949.02
949.66
950.34
950.86
951.73
952.32
952.73
953.01
953.6
954.2
954.89
955.61
956.31
957
957.63
958.32
958.59
958.86
959.59
960.12
960.91
961.44
962.23
962.8
963.7
964.23
964.62
965.02
965.53
966.24
966.51
966.54
966.77
967.58
968.15
969
969.53
970.33
970.82
971.59
972.14
972.53
972.93
973.5
974.23
974.52
974.81
975.57
976.13
976.92
977.27
977.46
978.21
978.7
979.51
979.9
980.29
981.06
981.53
981.78
982.39
983.01
983.64
983.88
984.13
984.95
985.56
986.37
986.93
987.78
988.33
988.77
989.21
989.91
990.16
990.42
991.19
991.81
992.68
993.26
994.29
994.79
995.61
996.11
996.54
996.97
997.74
998.52
999.2
999.85
1000.5
1001.1
1001.7
1002.5
1003
1003.4
1004.5
1004.8
1005.1
1005.7
1006
1006.5
1007.2
1007.7
1008.5
1009
1009.8
1010.4
1011.3
1011.8
1012.6
1013.1
1013.9
1014.5
1015.3
1015.8
1016.6
1017.2
1018
1018.5
1019.3
1019.8
1020.6
1021
1022
1022.6
1023.5
1024
1024.8
1025.3
1026
1026.5
1027.4
1028
1028.9
1029.4
1030.3
1030.8
1031.7
1032.2
1033
1033.5
1034.5
1035
1035.9
1036.5
1036.9
1038.1
1038.6
1039.9
1040.5
1041
1041.4
1042.1
1042.8
1043.5
1044.1
1044.9
1045.6
1046.3
1047.1
1047.9
1048.6
1049.3
1049.9
1050.7
1051.4
1052.2
1052.9
1053.7
1054.7
1055
1055.3
1056.4
1056.9
1058.1
1058.7
1059.8
1060.3
1061.4
1062
1062.8
1063.3
1064.4
1065.1
1066
1066.5
1067.3
1067.9
1068.7
1069.3
1070.3
1070.6
1070.9
1071.3
1071.9
1072.3
1072.5
1073
1073.9
1074.5
1075.3
1075.9
1076.8
1077.3
1078.3
1078.8
1079.6
1080.1
1081
1081.6
1082.6
1083.2
1084.1
1084.6
1085.5
1086
1086.9
1087.5
1088.4
1089
1090
1090.6
1091.5
1092
1092.9
1093.5
1094.4
1095.1
1096
1096.6
1097
1098.2
1098.8
1099.8
1100.1
1100.3
1100.9
1101.3
1101.6
1102.3
1102.5
1103
1104.2
1104.8
1105.8
1106.4
1107.4
1108.4
1108.9
1109.9
1110.4
1111.5
1112.1
1113.3
1113.9
1114.8
1115.4
1116.2
1116.8
1117.6
1118.2
1118.7
1119.9
1120.4
1121.3
1121.8
1122.6
1123.1
1124.1
1124.7
1125.2
1125.6
1126.3
1126.5
1126.8
1127.6
1128.1
1129
1129.5
1130.3
1130.8
1131.8
1132.4
1133.3
1133.6
1133.7
1134.2
1134.8
1135.7
1136
1136.5
1137.5
1138.1
1138.9
1139.4
1140.3
1140.8
1141.8
1142.3
1142.8
1143.2
1143.7
1144.6
1145.1
1145.9
1146.5
1147.3
1147.6
1147.9
1148.9
1149.5
1149.9
1151
1151.5
1151.9
1152.3
1153.1
1153.8
1154.6
1155.3
1156
1156.7
1157.4
1158
1158.7
1159.3
1159.7
1161
1161.3
1161.6
1162.7
1163.3
1164
1164.7
1165.1
1165.6
1166.4
1166.7
1167
1167.8
1168.4
1169.2
1169.7
1170.5
1171.1
1172
1172.6
1173.5
1174.1
1174.7
1175.7
1176.2
1177.1
1177.6
1178.6
1179.2
1180.1
1180.6
1181.4
1181.9
1182.9
1183.4
1183.9
1185.1
1185.6
1186.5
1187
1187.9
1188.4
1189.2
1189.7
1190.6
1191.3
1192.1
1192.7
1193.4
1193.9
1194.8
1195.3
1196.3
1196.9
1197.8
1198.3
1198.8
1199.8
1200.4
1201.2
1201.7
1202.5
1203.1
1204
1204.6
1205.4
1206
1206.7
1207.3
1208.3
1208.9
1209.8
1210.3
1211.1
1211.6
1212.4
1213
1213.9
1214.4
1215.3
1215.9
1216.7
1217.2
1218
1218.5
1219.3
1219.8
1220.7
1221.3
1222.2
1222.7
1223.5
1224
1224.8
1225.4
1226.3
1226.9
1227.8
1228.3
1229.1
1229.7
1230.5
1231.1
1231.8
1232.5
1233.4
1234
1234.8
1235.3
1236.1
1236.6
1237.3
1237.4
1238
1238.9
1239.5
1240.3
1240.8
1241.6
1242.2
1243
1243.5
1244.4
1244.9
1245.7
1246.3
1247.1
1247.6
1248.3
1248.9
1249.8
1250.4
1251.3
1251.8
1252.5
1253.1
1253.9
1254.4
1255.2
1255.8
1256.6
1257.2
1258
1258.6
1259.4
1259.8
1260.6
1261.2
1261.9
1262.5
1263.5
1264.1
1264.9
1265.4
1266.3
1266.9
1267.8
1268.3
1268.9
1269.2
1269.8
1270.6
1271.2
1272
1272.6
1273.3
1273.9
1275
1275.6
1276.5
1277
1277.8
1278.3
1278.7
1280
1280.6
1281.1
1281.5
1282.3
1283
1283.7
1284.4
1285
1285.8
1286.4
1287.2
1287.8
1288.3
1289.3
1289.5
1289.8
1290.5
1291.1
1291.9
1292.5
1293.4
1293.9
1294.7
1295.2
1295.9
1296.5
1297.3
1297.9
1298.7
1299.2
1300.1
1300.6
1301.4
1302
1302.7
1303.2
1304
1304.7
1305.6
1306.1
1306.9
1307.4
1308.1
1308.7
1309.6
1310.2
1311
1311.6
1312.4
1312.9
1313.7
1314.2
1315
1315.6
1316.4
1317
1317.8
1318.4
1319.3
1319.8
1320.2
1320.7
1321.4
1322.2
1323
1323.7
1324.3
1325
1325.3
1325.7
1326.5
1327.1
1328
1328.5
1329.3
1329.9
1330.9
1331.4
1332.3
1332.8
1333.3
1334.5
1335.1
1336.1
1336.7
1337.4
1337.9
1338.8
1339.4
1340.2
1340.8
1341.9
1342.5
1343.4
1344
1344.8
1345.3
1346.1
1346.7
1347.6
1348.2
1349
1349.4
1350.3
1350.8
1351.5
1351.7
1352.3
1353.1
1353.7
1354.5
1355
1355.5
1355.9
1356.3
1356.6
1357.2
1357.9
1358.6
1359.4
1360.1
1360.8
1361.1
1361.3
1362
1362.6
1363.5
1364
1364.9
1365.5
1366.3
1366.8
1367.7
1368.3
1369.1
1369.6
1370.5
1371
1371.8
1372.3
1373.2
1373.7
1374.4
1374.9
1375.8
1376.4
1377.3
1377.8
1378.5
1379
1379.8
1380.3
1381.2
1381.7
1382.6
1383.2
1383.6
1384.6
1385.2
1386
1386.5
1387.2
1387.8
1388.7
1389.3
1390.1
1390.6
1391.4
1391.9
1392.6
1393.3
1394.3
1394.8
1395.6
1396.2
1396.9
1397.5
1398.3
1398.8
1399.7
1400.2
1401
1401.7
1402.5
1403
1403.7
1404.2
1405.1
1405.6
1406.5
1407.2
1407.9
1408.4
1409.2
1409.7
1410.2
1411.2
1411.8
1412.6
1413.2
1413.9
1414.4
1415.3
1415.6
1415.9
1416.5
1417.1
1417.8
1418.6
1419.3
1420
1420.6
1421.2
1421.8
1422.4
1422.6
1422.8
1423.8
1424.4
1425.2
1425.7
1426.5
1427
1427.8
1428.4
1429.1
1429.7
1430.5
1431
1431.9
1432.5
1433.2
1433.6
1434.4
1434.9
1435.8
1436.4
1437.2
1437.8
1438.6
1439.1
1439.8
1440.4
1441.2
1441.8
1442.6
1443.2
1444.1
1444.6
1445.4
1445.9
1446.6
1447.2
1448.1
1448.7
1449.6
1450.1
1450.9
1451.4
1452.2
1452.8
1453.6
1454.2
1455
1455.6
1456.4
1456.9
1457.8
1458.3
1459.1
1459.6
1460.5
1461.1
1461.9
1462.5
1463.2
1463.7
1464.4
1465
1465.8
1466.4
1467.3
1467.8
1468.5
1469.1
1469.9
1470.4
1471.2
1471.7
1472.5
1473
1473.9
1474.5
1475.2
1475.7
1476.4
1476.9
1477.8
1478.4
1479.2
1479.8
1480.3
1480.7
1481.1
1481.7
1482.3
1483.1
1483.8
1484.4
1485.1
1485.8
1486.5
1487.2
1487.8
1488.4
1489.1
1489.8
1490.5
1491.3
1491.8
1492.5
1493.1
1493.9
1494.2
1494.5
1495
1495.6
1496.4
1496.8
1497.3
1498.1
1498.8
1499.5
1499.8
1500
1500.8
1501.3
1502.2
1502.8
1503.7
1504.2
1505
1505.5
1506.3
1506.8
1507.2
1507.7
1508.5
1509.3
1510
1510.5
1511.3
1512
1512.8
1513.5
1514.2
1514.5
1514.8
1515.7
1516.3
1517.3
1517.8
1518.3
1518.7
1519.5
1520.3
1521.1
1521.8
1522.5
1523
1523.7
1524.7
1525.3
1525.8
1527.1
1527.6
1528.7
1529.4
1529.9
1530.8
1531.4
1532.4
1533.2
1533.8
1534.6
1535.2
1535.9
1536.5
1537
1538.1
1538.4
1538.7
1539.5
1540.1
1540.9
1541.4
1542.3
1542.9
1543.7
1544.3
1545.3
1545.9
1546.8
1547.3
1548.1
1548.6
1549.6
1550.2
1550.7
1551.2
1551.9
1552.1
1552.3
1553.3
1553.9
1554.7
1555.3
1555.7
1556.2
1556.9
1557.2
1557.5
1558.5
1559.1
1560.1
1560.6
1561.1
1561.6
1562.6
1563.4
1564.2
1564.9
1565.7
1566.4
1567.2
1568
1568.8
1569.5
1570.3
1570.9
1571.9
1572.1
1572.4
1573.4
1574
1575.1
1575.7
1576.7
1577.3
1577.6
1578.9
1579.5
1580.4
1580.8
1581.3
1582
1582.7
1583.3
1584
1584.7
1585.4
1585.7
1586
1586.8
1587.4
1588.3
1588.8
1589.2
1589.6
1590.2
1591
1591.2
1591.5
1592.4
1593
1594.1
1594.6
1595.5
1596.1
1596.6
1597.1
1597.8
1598.6
1599.4
1600.1
1600.8
1601.5
1602.2
1602.8
1603.4
1604.3
1604.6
1605
1606.1
1606.6
1607.6
1608.1
1609.1
1609.8
1610.2
1610.7
1611.4
1612.1
1612.9
1613.5
1614.3
1615
1615.8
1616.5
1617.3
1618.1
1618.7
1619.7
1620.2
1621.3
1621.9
1623.1
1623.8
1624.3
1625.3
1625.9
1626.9
1627.7
1628.5
1629.2
1629.9
1630.4
1631.5
1631.8
1632
1632.9
1633.4
1634.4
1635
1635.4
1635.9
1636.6
1637.3
1637.9
1638.6
1639.4
1640.2
1640.9
1641.5
1642.5
1642.8
1643
1644
1644.5
1645.5
1646.1
1646.7
1647.2
1648
1648.7
1649.3
1650
1650.7
1651.4
1652.2
1652.9
1653.7
1654.3
1655
1655.7
1656.4
1657
1658
1658.3
1658.6
1659.7
1660.2
1661.2
1661.8
1662.2
1662.7
1663.5
1664.4
1665.3
1665.6
1665.9
1666.6
1667.2
1667.9
1668.5
1669.6
1670.2
1670.7
1671.3
1672.1
1672.9
1673.5
1674.2
1674.8
1676
1676.5
1677.6
1678.4
1678.9
1679.4
1680.4
1681.1
1682.1
1683
1683.7
1684.3
1685.2
1685.7
1686.9
1687.5
1688.5
1689.4
1690.2
1690.9
1691.6
1692.1
1693.1
1693.6
1694.8
1695.3
1696.3
1697.1
1697.8
1698.6
1699.4
1700.2
1701
1701.8
1702.5
1703.2
1703.9
1704.6
1705.2
1705.9
1706.7
1707.4
1708.4
1708.9
1709.8
1710.5
1711.2
1712.1
1712.9
1713.4
1714.2
1714.9
1715.7
1716.4
1717
1717.4
1718.4
1719
1719.9
1720.7
1721.3
1721.9
1722.6
1723.4
1724.1
1724.9
1725.5
1726.3
1727
1727.8
1728.5
1729.2
1729.9
1730.8
1731.4
1732.5
1733.1
1734
1734.7
1735.5
1736.2
1737.1
1737.4
1737.7
1738.7
1739.2
1740.2
1740.8
1741.3
1741.8
1742.6
1743.4
1744
1744.9
1745.2
1745.5
1746.3
1746.9
1747.7
1748.3
1749.4
1749.9
1750.8
1751.3
1752.1
1752.6
1753.1
1753.5
1754.3
1755
1755.7
1756.4
1757.1
1757.8
1758.5
1759.2
1760
1760.8
1761.5
1762.1
1763.1
1763.7
1764.7
1765.5
1766.4
1767.3
1768
1768.3
1768.6
1769.4
1770
1771
1771.5
1772.6
1773.2
1773.6
1774.1
1774.9
1775.6
1776.2
1776.9
1777.6
1778.4
1778.7
1779.1
1780
1780.5
1781.4
1781.9
1782.9
1783.5
1784
1784.5
1785.3
1785.6
1786
1786.7
1787.4
1788.1
1788.8
1789.5
1790.2
1791
1791.7
1792
1792.4
1793.1
1793.7
1794.4
1795
1795.9
1796.7
1797.4
1798.1
1798.7
1799.2
1800.2
1801
1801.7
1802.5
1803.2
1803.5
1803.9
1804.6
1805.4
