0.16667
0.44167
1.1528
1.9056
2.5139
3.3028
3.95
4.5028
5.4583
6.2111
6.9306
7.5583
8.2083
8.8806
9.6389
10.55
11.414
12.092
12.753
13.464
13.858
14.5
15.214
15.8
16.442
16.95
17.753
18.433
18.989
19.636
20.342
21.15
21.719
22.419
23.064
23.65
24.075
24.783
25.322
25.969
26.783
27.8
28.519
29.225
29.919
30.675
31.389
31.872
32.778
33.353
34.033
34.594
35.25
35.911
36.728
37.639
38.333
38.947
39.858
40.597
41.294
41.706
42.336
42.972
43.589
44.153
44.864
45.575
46.025
46.703
47.339
47.975
48.403
48.758
49.375
49.883
50.725
51.189
51.892
52.567
52.986
53.611
54.419
55.069
55.694
56.308
57.178
58.075
58.797
59.461
59.892
60.4
61.008
61.933
62.769
63.206
63.65
64.314
65.283
65.717
66.311
67.197
67.767
68.447
69.086
69.772
70.444
71.175
71.825
72.606
73.228
73.917
74.453
75.117
75.714
76.231
76.661
77.439
78.133
78.825
79.492
80.319
80.981
81.786
82.533
83.164
83.808
84.206
84.936
85.5
86.172
86.958
88.111
88.972
89.603
90.081
90.633
91.281
92.158
92.672
93.467
94.15
95.006
95.419
96.178
96.864
97.275
97.836
98.264
98.95
99.781
100.71
101.36
101.9
102.87
103.33
103.72
104.4
105.07
105.76
106.44
107.17
107.96
108.78
109.58
110.51
111.33
111.96
112.8
113.36
114
114.61
115.34
115.82
116.46
117.13
117.82
118.23
118.61
119.51
120.12
120.76
121.16
122.04
123.15
124.03
124.78
125.56
126.13
126.65
127.14
127.74
128.33
129.06
129.87
130.56
131.34
131.94
132.64
133.2
133.88
134.49
135.18
135.88
136.49
137.16
137.66
138.07
139.11
139.81
140.67
141.47
142.36
143.06
143.57
144.2
144.84
145.57
146.29
146.97
147.88
148.47
148.94
149.57
150.24
151.14
151.83
152.46
153.09
153.5
154.22
154.67
155.68
156.24
156.8
157.47
158.2
158.79
159.22
160.37
161.21
161.84
162.35
162.72
163.36
164.12
164.81
165.54
166.24
166.89
167.61
168.3
169.16
169.85
170.54
171.19
171.83
172.43
173.09
173.51
174.17
174.78
175.46
175.96
176.71
177.3
178.01
178.63
179.22
179.69
180.35
180.89
181.49
182.32
183.19
183.88
185.09
185.58
186.22
186.81
187.56
188.26
188.91
189.72
190.47
191.52
192.16
192.99
193.48
194.13
194.92
195.53
195.93
196.31
197.41
198
198.55
199.49
200.14
200.56
201.34
202.02
202.69
203.48
204.24
204.78
205.69
206.89
207.51
208.26
208.89
209.52
210.31
210.95
211.32
211.72
212.32
213.16
213.8
214.8
215.32
215.93
216.52
216.94
217.61
218.04
218.66
219.31
219.96
220.64
221.28
221.89
222.91
223.76
224.56
225.32
226.08
226.88
227.58
228.24
228.94
229.82
230.65
231.41
232.27
232.91
233.76
234.59
235.34
235.91
236.44
237.01
237.72
238.44
238.9
239.5
239.97
240.59
241.29
241.97
242.66
243.18
243.79
244.42
245.01
245.45
246.07
246.46
247.24
247.98
248.6
249.37
250.14
250.94
251.69
252.34
252.91
253.56
254.22
254.87
255.61
256.65
257.2
257.85
258.47
259
259.38
260.01
261
261.53
262.2
262.9
263.54
264.2
264.58
265.56
266.21
267.13
267.97
268.73
269.18
269.78
270.42
271.02
271.68
272.81
273.66
274.23
275.04
275.95
276.7
277.49
278.18
278.93
279.82
280.74
281.46
282
282.65
283.46
284.19
284.79
285.18
285.85
286.64
287.32
287.94
288.55
289.2
289.82
290.55
291.55
292.42
293.02
293.96
294.58
294.95
295.65
296.21
297.07
298.05
299.01
299.93
300.48
301.23
301.91
302.61
303.29
304.06
304.48
305.09
305.94
306.45
307.11
307.73
308.61
309.39
310.09
310.81
311.45
312.34
313
314.19
314.91
315.34
316.04
316.88
317.75
318.57
319.17
319.78
320.54
321.05
321.79
322.39
323.04
323.7
324.18
324.69
325.41
325.85
326.32
327.5
328.17
328.62
329.29
329.8
330.48
331.32
332.02
332.98
334.52
335.2
335.88
336.51
337.32
338.04
338.69
339.45
340.07
340.65
341.24
342.34
343.19
343.88
344.55
345.16
345.84
346.49
346.9
347.63
348.38
349.38
350.03
350.58
351.31
352.13
352.68
353.45
354.05
354.64
355.44
356.06
356.69
357.09
357.76
358.5
359.04
359.79
360.44
361.37
362.24
362.71
363.42
363.86
364.49
365.36
366.09
366.68
367.33
368.22
368.93
369.89
370.63
371.64
372.39
373.23
373.91
374.56
375.25
375.98
376.69
377.41
378.03
378.41
381.75
383.8
384.87
385.28
386.93
388.03
389.6
390.96
391.43
392.89
394.34
395.65
396.91
397.58
398.26
399.51
400.9
402.07
403.11
404.38
405.61
406.8
407.95
409.09
410.25
411.48
412.77
413.96
415.19
416.45
417.81
419.16
420.41
421.63
422.86
424.18
425.41
426.59
427.57
428.48
428.91
430.43
431.08
432.32
434.13
435.41
436.57
437.36
438.54
439.12
440.46
442.45
442.68
444.31
444.51
446.14
446.37
448.03
449.21
449.74
451.03
452.25
453.59
454.97
456.21
457.51
458.77
458.99
459.74
460.77
461.99
462.24
463.82
465.07
466.34
467.56
468.09
469.41
470.64
471.64
472.63
473.83
475.1
476.39
477.26
477.45
477.96
478.43
479.06
479.54
479.91
480.57
481.07
481.57
482.06
482.49
483
483.71
484.23
484.89
485.39
486.04
486.58
487.1
487.63
488.24
489.07
489.6
490.34
491.1
491.82
492.26
492.85
493.36
494.07
494.84
495.28
495.84
496.67
497.29
497.71
498.43
498.93
499.64
500.18
500.78
501.26
501.71
502.11
502.67
503.27
504
504.39
504.81
505.37
506.01
507.2
508.15
509.01
509.41
510.24
510.8
511.19
511.89
512.31
512.78
513.21
514.08
514.81
516.77
517.71
519.73
520.34
522.18
522.73
523.3
523.83
525.18
526.09
526.66
527.79
527.99
529.64
529.84
531.58
531.82
533.52
533.72
535.32
535.52
537.23
537.47
539.14
539.37
540.95
541.14
542.84
543.06
544.83
545.08
546.67
547.8
548.73
549.49
550.99
551.26
552.87
554.05
554.47
554.89
556.47
557.66
558.5
559.95
561.13
562.14
563.48
564.62
565.58
566.91
568.17
569.13
570.47
571.6
572.6
574
575.24
576.2
576.84
577.49
578.66
579.22
580.67
581.85
582.76
583.74
584.96
585.91
586.74
588.24
589.44
590.71
591.64
592.43
593.9
595.08
596.28
597.2
598.04
599.51
600.67
601.86
602.81
603.64
605.19
606.45
607.64
608.09
608.54
610.17
611.38
612.23
613.68
614.83
615.86
617.19
618.35
619.24
619.97
620.7
621.98
623.24
624.46
625.7
626.95
628.25
629.5
630.64
631.8
633.04
634.25
635.16
636.58
637.14
638.38
639.62
640.86
641.33
641.79
643.18
644.41
645.3
646.83
648.01
648.94
650.27
651.52
652.53
653.86
655.02
655.97
656.31
656.66
658.18
659.42
660.55
661.02
661.49
662.94
664.21
665.14
666.53
667.64
668.65
669.98
671.22
672.12
673.47
674.65
675.68
677.03
678.22
679.11
680.53
681.76
682.78
684.05
685.19
686.13
687.49
688.71
689.66
690.88
692.03
692.98
694.31
695.52
696.39
697.82
699.02
699.97
701.43
702.57
703.45
704.88
706.04
707.08
708.38
709.57
710.45
712.04
713.24
714.12
715.51
716.71
717.66
719
720.16
721.02
722.31
723.55
724.47
725.8
726.97
727.82
729.26
730.5
731.38
732.79
733.92
734.84
736.31
737.48
738.36
738.99
739.63
740.18
741.45
742.66
743.61
744.84
745.35
746.66
747.88
749.08
749.99
751.38
752.56
753.45
754.88
755.43
756.64
757.76
758.94
759.9
761.24
761.76
763.02
764.18
765.46
766.36
767.89
769.08
770.96
772.21
773.44
774.26
775.69
776.92
777.47
778.84
780.03
781.21
781.94
783.13
784.42
785.26
785.78
786.79
788
788.57
789.94
791.17
792.36
793.21
794.72
795.99
797.22
798.02
799.54
800.71
801.91
802.94
804.27
805.42
806.62
807.64
808.38
809.81
810.98
812.15
812.63
813.1
814.55
815.72
816.62
817.97
819.18
820.11
821.47
822.65
823.48
824.89
826.14
827.04
828.44
829.6
830.49
832.02
833.25
834.14
835.51
836.68
837.67
839
840.13
841.06
842.31
843.53
844.51
845.79
846.91
847.85
849.28
850.46
851.44
852.76
853.91
854.83
856.27
857.43
858.33
859.59
860.81
861.74
863.1
864.25
865.14
866.43
867.67
868.61
869.97
871.14
872.01
873.39
874.58
875.52
876.75
877.91
878.78
880.21
881.39
882.24
883.66
884.85
885.76
887.27
888.39
889.22
890.63
891.83
892.74
894.1
895.24
896.11
897.52
898.76
899.63
900.99
902.17
903.08
904.47
905.69
906.47
907.81
908.99
909.96
911.24
912.42
913.14
913.89
914.63
915.88
917.09
917.9
919.35
920.56
921.78
922.66
924.15
925.27
926.38
927.31
928.77
929.91
930.99
931.91
933.3
934.53
935.69
936.55
937.96
939.23
940.49
941.28
941.8
942.8
943.99
945.22
946.08
947.63
948.75
949.88
950.79
952.24
953.4
954.57
955.44
956.85
958.08
959.3
960.13
961.54
962.75
963.94
964.87
966.25
967.41
968.56
969.55
971.01
972.2
973.31
974.28
975.67
976.9
977.84
979.06
979.59
980.91
982.15
982.62
983.09
984.47
985.64
986.49
987.95
989.09
990.11
991.22
992.42
993.39
994.06
994.73
995.31
996.51
997.6
998.6
999.89
1001.1
1002
1003.3
1004.5
1005.5
1006
1007.4
1008.5
1009.4
1010.6
1011.7
1012.8
1013.9
1014.4
1014.9
1016
1017.2
1018.2
1019.5
1020.5
1021.6
1022.8
1024
1025.1
1026.3
1027.4
1028.5
1029.8
1031
1032
1033.2
1034.3
1035.4
1036.6
1037.8
1038.8
1039.1
1039.4
1040.7
1042
1043.2
1043.6
1044.1
1045.4
1046.6
1047.5
1048.9
1050.1
1051
1052.2
1053.5
1054.4
1055.8
1056.9
1057.9
1059.1
1060.3
1061.4
1062.5
1063.6
1064.6
1066
1067.1
1068.1
1069.3
1070.5
1071.5
1072.9
1074
1075
1075.3
1075.6
1077
1078.3
1079.4
1079.9
1080.4
1081.7
1082.9
1083.9
1085.2
1086.3
1087.3
1087.9
1088.5
1089
1089.4
1090.4
1091.6
1092
1092.5
1093.8
1095
1096
1097.4
1097.7
1098.6
1098.9
1099.5
1100.1
1100.7
1101.3
1101.8
1102.3
1103.4
1103.6
1104.6
1105.1
1106.3
1106.9
1108
1109.3
1110.3
1111.3
1112.2
1112.8
1113.2
1114.2
1115.3
1116.4
1117.7
1119.7
1121.1
1122.3
1123.5
1124.8
1126.2
1126.7
1128.3
1128.8
1130.3
1132.3
1133.2
1134.1
1135.2
1136.3
1137.7
1138.9
1140.1
1141.2
1142.4
1143.6
1144.8
1145.8
1146.4
1146.8
1147.7
1148.9
1150
1150.6
1152
1153.2
1154.3
1155.4
1156.8
1157.9
1159
1159.5
1160
1160.9
1162.1
1163.2
1164.5
1165
1166.3
1167.5
1168
1168.6
1169.8
1171
1172
1173.3
1174.5
1175.5
1176.7
1177.9
1178.9
1179.3
1179.6
1180
1181.1
1182.2
1183.3
1184.5
1185.6
1187
1187.5
1187.9
1188.8
1190
1191
1192.4
1193.6
1194.1
1195.3
1196.5
1197.6
1198.9
1200.1
1201
1202.4
1203.6
1204.8
1205.4
1206.6
1207.8
1208.8
1210.1
1211.3
1212.5
1213.4
1214.7
1215.3
1215.7
1216.8
1217.9
1219.1
1220
1220.7
1221.2
1222.2
1223.4
1224.6
1225.7
1226.8
1228.1
1228.6
1229.9
1231.1
1232.1
1233.4
1234.6
1235.7
1236.3
1237.6
1238.8
1240
1241
1241.7
1243.1
1244.2
1245.5
1246.5
1247.8
1249
1250
1251.3
1252.6
1253.1
1253.5
1254.5
1255.6
1256.1
1257.5
1258.8
1259.6
1261.1
1262.3
1263.5
1264
1265.4
1266.6
1267.4
1268.9
1270.1
1271.3
1272.2
1273.5
1274.1
1275.4
1276.6
1277.8
1278.7
1279.9
1281.2
1282.1
1283.5
1283.8
1285.3
1286.5
1287.7
1288.7
1290
1290.5
1291.8
1293
1294.3
1294.8
1295.3
1296.5
1297.6
1298.5
1300
1301.1
1302.1
1303.3
1304.4
1305.5
1306.7
1307.9
1308.8
1310.2
1311.4
1312.4
1313.8
1314.9
1315.8
1317.2
1318.4
1319.5
1320.7
1321.9
1322.8
1324.2
1325.4
1326.4
1327.6
1328.8
1329.8
1331
1332.2
1333.1
1334.4
1335.6
1336.7
1338
1339.2
1340.2
1341.6
1342.8
1343.8
1345
1346.2
1347.2
1348.6
1349.7
1350.7
1351.9
1353.1
1354.2
1355.5
1356.6
1357.5
1358.9
1360.2
1361.1
1362.4
1363.5
1364.5
1365.8
1367
1368
1368.6
1369.2
1370.5
1371.8
1373
1374.2
1375.4
1376.5
1377.8
1379
1380.2
1381.3
1382.5
1383.7
1385
1386.1
1387.3
1388.4
1389.7
1390.9
1392.1
1393.3
1394.5
1395.7
1396.9
1398.1
1399.2
1400.4
1401.7
1402.8
1404
1405.1
1406.3
1407.5
1408.7
1409.9
1411
1412.2
1413.3
1414.5
1415.7
1416.8
1417.9
1419.2
1420.4
1421.6
1422.7
1423.8
1425
1426.2
1427.3
1428.4
1429.5
1430.7
1431.9
1433.1
1434.2
1435.4
1436.6
1437.8
1439
1440.1
1441.3
1442.4
1443.7
1444.7
1445.9
1447
1448.1
1449.4
1450.6
1451.2
1451.6
1452.6
1453.8
1454.3
1455.7
1456.8
1457.3
1457.7
1458.7
1459.8
1461
1462.2
1462.7
1464.2
1464.8
1466.1
1466.4
1468.2
1468.7
1470.2
1470.7
1472.1
1472.4
1474.2
1474.7
1476.1
1476.7
1478.1
1478.7
1480.2
1480.4
1482.1
1482.6
1484
1484.6
1486.1
1486.6
1487
1488
1488.6
1489.9
1490.2
1492
1492.5
1494
1494.5
1494.8
1495.9
1496.5
1498
1498.3
1500
1500.5
1501.9
1502.5
1504
1504.5
1505.2
1506.2
1506.7
1508.1
1508.7
1510.3
1510.5
1512.2
1512.7
1514.3
1514.8
1516.4
1516.9
1518.3
1518.6
1520.3
1520.8
1521.2
1522.3
1522.9
1523.2
1524.3
1524.5
1525.1
1526.3
1526.9
1528.5
1530.5
1530.9
1532.5
1532.8
1533.1
1534.6
1535
1536.5
1537.7
1538.9
1539.9
1540.6
1542.1
1544
1544.5
1546
1548
1548.5
1548.9
1549.8
1550.7
1551.8
1552.3
1552.7
1553.7
1554.2
1554.5
1555.5
1556
1557.5
1557.8
1559.5
1560
1560.4
1561.5
1562
1562.4
1563.7
1564.9
1565.5
1566.9
1567.4
1568.9
1569.2
1571
1571.5
1572.9
1573.2
1575
1575.5
1577
1577.2
1578.9
1579.1
1580.8
1581.4
1582.9
1583.1
1584.7
1585
1585.2
1585.6
1586.2
1586.6
1587.7
1588
1588.7
1589.9
1590.4
1591.8
1592.1
1593.9
1594.4
1595.8
1596.5
1596.7
1597.2
1597.6
1598.2
1598.7
1599.2
1599.6
1600.1
1600.9
1601.5
1601.9
1602.5
1603
1603.5
1604.4
1605.2
1605.8
1606.3
1606.8
1607.5
1608.2
1608.7
1609.4
1610.1
1611
1611.5
1612.1
1612.6
1613.1
1613.7
1614.3
1614.9
1615.3
1615.7
1616.1
1616.6
1616.9
1617.4
1618.1
1618.6
1619.8
1620.5
1621
1621.5
1622
1622.8
1623.5
1624.2
1624.9
1625.6
1626.4
1626.9
1627.4
1628.6
1629.4
1630.1
1630.8
1631.6
1632
1632.4
1632.9
1633.4
1634.2
1634.8
1635.5
1636.1
1636.9
1637.4
1638.4
1638.9
1639.6
1640.3
1641
1641.7
1642.4
1642.8
1643.4
1644.2
1644.8
1645.5
1646.3
1647
1647.9
1648.3
1649.1
1649.9
1650.5
1651.2
1651.6
1652.4
1653
1653.8
1654.3
1655.1
1655.7
1656.5
1657.1
1657.9
1658.5
1659.2
1659.9
1660.6
1661.2
1661.8
1662.4
1663.2
1664
1664.7
1665.1
1665.7
1666.2
1667
1667.7
1668.2
1669.1
1669.8
1670.6
1671.4
1672
1672.7
1673.3
1673.9
1674.3
1674.8
1675.4
1676.1
1676.9
1677.5
1678
1678.8
1679.3
1679.9
1680.5
1681.2
1681.9
1682.5
1683.3
1683.9
1684.5
1685.1
1685.7
1686.2
1686.7
1687.3
1687.7
1688.3
1689.1
1689.8
1690.4
1691.3
1691.9
1692.6
1693.2
1694
1694.8
1695.6
1696
1696.7
1697.3
1698.1
1698.9
1699.5
1700.4
1701.1
1702
1702.7
1703.3
1703.9
1704.4
1705
1705.9
1706.3
1707
1707.6
1708.2
1708.7
1709
1709.8
1710.5
1711.1
1711.7
1712.4
1713.1
1713.8
1714.3
1715.1
1715.7
1716.5
1717.1
1717.5
1718.3
1718.9
1719.5
1720.1
1720.7
1721.3
1721.8
1722.4
1722.8
1723.5
1724.3
1724.9
1725.7
1726.1
1726.7
1727.4
1728.2
1728.9
1729.5
1730.1
1730.7
1731.4
1731.8
1732.4
1733.1
1733.7
1734.3
1734.9
1735.6
1736.5
1737.4
1738.1
1738.7
1739.4
1740.1
1740.5
1741.2
1741.7
1742.2
1742.9
1743.6
1744.1
1745.3
1745.9
1746.4
1747
1747.6
1748.1
1749
1749.4
1750.1
1750.8
1751.3
1752
1752.7
1753.4
1753.9
1754.3
1755
1755.8
1756.6
1757.3
1757.7
1758.4
1759.1
1759.7
1760.4
1761.2
1762.2
1763
1763.7
1764.5
1765.3
1765.7
1766.2
1766.9
1767.6
1768.5
1769.2
1770.2
1770.9
1771.4
1771.9
1772.5
1773
1773.7
1774.2
1774.8
1775.4
1776
1776.7
1777.3
1777.8
1778.5
1779.2
1780
1780.6
1781.1
1782.1
1782.8
1783.4
1784.2
1784.7
1785.4
1786
1786.8
1787.3
1790.5
1792.2
1793.9
1794.6
1795.2
1795.9
1796.4
1797.9
1798.1
1799.9
1801.2
1801.7
1803.1
1803.3
1805
