0.50833
0.96667
2.0611
3.2083
4.3778
5.5
6.5694
7.6583
8.7972
9.9694
11.128
12.222
13.331
14.444
15.592
16.708
17.794
18.883
19.975
21.131
22.336
23.503
24.603
25.722
26.881
28.081
28.739
30.278
31.361
32.447
33.578
34.711
35.794
36.886
37.986
39.153
40.344
41.525
42.647
43.767
44.933
46.136
47.286
48.358
49.422
50.539
51.7
52.794
53.889
54.969
56.086
57.25
58.431
59.611
60.719
61.822
63.003
64.192
65.358
66.469
67.583
68.767
69.947
71.086
72.178
73.261
74.383
75.556
76.714
77.861
78.956
80.064
81.236
82.433
83.586
84.692
85.794
87.017
88.203
89.303
90.369
91.436
92.519
93.636
94.739
95.842
96.914
97.994
99.142
100.31
101.46
102.53
103.59
104.72
105.88
107.01
108.12
109.21
110.36
111.54
112.7
113.83
114.91
115.99
117.13
118.28
119.43
120.52
121.61
122.75
123.94
125.08
126.18
127.28
128.41
129.61
130.78
131.91
133.03
134.15
135.3
136.48
137.61
138.71
139.8
140.93
142.13
143.27
144.36
145.44
146.59
147.8
148.99
150.12
151.26
152.43
153.62
154.79
155.9
156.99
158.08
159.22
160.39
161.52
162.59
163.7
164.87
166.08
167.24
168.32
169.44
170.57
171.74
172.9
174.01
175.13
176.26
177.42
178.61
179.73
180.8
181.86
182.99
184.19
185.32
186.39
187.5
188.68
189.87
191.03
192.14
193.24
194.39
195.56
196.72
197.86
198.93
200.04
201.2
202.39
203.54
204.64
205.75
206.97
208.18
209.35
210.47
211.6
212.79
213.96
215.13
216.21
217.27
218.38
219.56
220.73
221.84
222.91
224.01
225.18
226.33
227.45
228.08
229.59
230.73
231.89
233.02
234.13
235.21
236.34
237.52
238.7
239.82
240.92
242.01
243.21
244.38
245.03
246.53
247.59
248.72
249.82
250.92
252.02
253.1
254.21
255.39
256.57
257.71
258.81
259.88
261.02
262.22
263.36
264.46
265.54
266.18
267.77
268.89
269.94
270.99
272.07
273.2
274.34
275.47
276.57
277.66
278.79
279.99
281.16
282.25
283.36
284.51
285.72
286.89
288
289.12
290.25
291.42
292.59
293.71
294.82
295.91
297.08
298.28
299.44
300.54
301.63
302.77
303.94
305.07
306.13
307.19
308.34
309.51
310.64
311.76
312.88
314.02
315.21
316.42
317.59
318.7
319.82
321
322.2
323.35
324.45
325.57
326.76
327.95
329.13
330.27
331.4
332.58
333.79
334.49
336.13
337.24
338.39
339.58
340.77
341.91
343
344.15
345.35
346.52
347.65
348.74
349.86
351.02
352.18
353.34
354.44
355.53
356.68
357.87
359.05
360.14
361.21
362.33
363.51
364.65
365.76
366.84
367.97
369.17
370.36
371.53
372.65
373.76
374.93
376.12
377.28
378.37
379.42
380.56
381.7
382.81
383.88
384.94
386.07
387.27
388.48
389.65
390.81
391.94
393.11
394.29
395.45
396.55
397.63
398.77
399.96
401.11
402.21
402.97
404.13
405.38
406.61
407.79
408.99
410.18
411.38
412.57
413.74
414.82
415.84
416.9
418
419.13
420.23
421.33
422.47
423.69
424.87
425.98
427.08
428.22
429.4
430.58
431.71
432.32
433.89
435.03
436.17
437.29
438.35
439.41
440.52
441.7
442.86
443.96
445.06
446.21
447.39
448.55
449.68
450.77
451.88
453.03
454.21
455.35
456.44
457.52
458.66
459.86
461.04
462.16
463.26
464.44
465.64
466.79
467.89
468.97
470.07
471.2
472.33
473.03
474.48
475.51
476.58
477.66
478.74
479.78
480.8
481.86
483
484.12
485.23
486.29
487.36
488.46
489.6
490.75
491.88
492.96
494.05
495.21
496.4
497.55
498.65
499.75
500.92
502.09
503.2
504.28
505.37
506.5
507.64
508.79
509.91
511
512.1
513.27
514.45
515.61
516.7
517.8
518.99
520.18
521.31
522.41
523.49
524.62
525.75
526.88
527.99
529.05
530.14
531.28
532.46
533.59
534.69
535.76
536.89
538.06
539.18
540.24
541.31
542.42
543.59
544.74
545.85
546.96
548.06
549.2
550.36
551.48
552.57
553.64
554.72
555.85
556.94
557.94
558.93
559.94
561
562.07
563.09
564.07
565.08
566.12
567.25
568.4
569.52
570.62
571.71
572.82
574
575.16
576.24
577.32
578.41
579.52
580.59
581.62
582.62
583.64
584.68
585.72
586.73
587.69
588.63
589.55
590.51
591.48
592.44
593.38
594.28
595.17
596.09
597.05
598.04
599
599.91
600.83
601.76
602.72
603.65
604.57
605.48
606.38
607.04
608.14
609.08
610.02
610.96
611.85
612.71
613.59
614.51
615.46
616.41
617.32
617.95
619.08
620.03
620.97
621.92
622.87
623.53
624.67
625.61
626.55
627.52
628.49
629.19
630.36
631.26
632.18
633.13
634.1
634.84
635.98
636.86
637.76
638.73
639.69
640.62
641.53
642.4
643.27
644.17
645.09
645.77
646.96
647.89
648.76
649.62
650.53
651.46
652.4
653.36
654.26
655.15
656.06
657.03
658
658.94
659.86
660.75
661.65
662.3
663.53
664.48
665.4
666.3
667.16
668.03
668.93
669.05
669.85
670.75
671.64
672.48
673.34
674.23
675.16
676.11
677.02
677.89
678.49
679.6
680.53
681.47
682.39
683.27
684.16
685.04
685.94
686.86
687.83
688.77
689.71
690.64
691.53
692.49
693.49
694.56
695.5
696.44
697.39
698.42
699.47
700.51
701.53
702.54
703.54
704.61
705.68
706.76
707.78
708.82
709.83
710.91
712.02
713.12
714.15
715.18
716.24
717.36
718.48
719.55
720.6
721.65
722.76
723.86
724.96
726.01
727.07
728.14
729.23
730.37
731.44
732.46
733.48
734.54
735.66
736.16
736.55
737.13
738.42
739.43
740.49
741.54
742.58
743.64
744.11
745.32
746.36
746.85
748.14
749.18
749.66
750.85
751.85
752.89
753.59
755.01
756.01
757.02
758.1
758.61
759.92
761.02
761.5
762.76
763.83
764.31
765.12
766.71
767.79
768.83
769.3
770.58
771.73
772.87
773.35
774.59
775.69
776.81
777.94
779.05
779.54
780.82
781.89
783.02
783.53
784.85
785.96
786.43
787.67
788.77
789.88
790.99
792.03
793.04
794.09
795.23
796.35
797.43
798.48
799.55
800.66
801.79
802.29
803.61
804.69
805.76
806.26
807.62
808.73
809.83
810.85
811.89
813.02
814.13
815.22
816.02
816.26
817.28
818.37
819.51
820.6
821.68
822.73
823.78
824.87
825.96
827.08
828.15
829.16
830.21
831.33
832.46
833.51
834.54
835.59
836.67
837.83
838.92
839.99
840.47
841.72
842.83
843.92
845.02
846.08
847.11
848.16
849.28
850.42
851.52
852.56
853.59
854.69
855.81
856.9
857.92
858.98
860.01
861.14
862.27
863.37
864.44
865.5
866.58
867.73
868.87
869.95
871.01
872.11
873.24
874.39
875.49
876.56
877.64
878.75
879.88
880.99
882.08
883.11
884.19
885.29
886.44
887.53
888.57
889.64
890.73
891.89
892.99
894.05
895.12
896.2
897.31
898.45
899.57
900.63
901.71
902.81
903.98
905.12
906.21
907.26
908.36
909.5
910.66
911.76
912.82
913.93
915.07
916.22
917.35
918.41
919.5
920.6
921.73
922.87
923.93
924.98
926.02
927.12
928.25
929.33
930.39
931.44
932.56
933.69
934.81
935.88
936.91
937.99
939.1
940.22
941.33
942.4
943.44
944.53
945.67
946.81
947.9
948.95
950.02
951.22
952.37
953.46
954.52
955.61
956.75
957.9
959.02
960.13
961.2
962.29
963.42
964.57
965.67
966.73
967.81
968.96
970.09
971.18
972.23
973.26
974.32
975.41
976.47
977.53
978.54
979.57
980.62
981.73
982.83
983.91
984.95
985.98
987.12
988.23
989.31
990.34
991.35
992.39
993.48
994.52
995.53
996.56
997.54
998.59
999.71
1000.8
1001.9
1002.9
1004
1005.2
1006.3
1007.4
1008.5
1009.6
1010.8
1011.9
1013.1
1014.2
1015.3
1016.4
1017.6
1018.7
1019.9
1021
1022
1023.2
1024.4
1025.5
1026.6
1027.7
1028.8
1030
1031.2
1032.3
1033.4
1034.5
1035.7
1036.8
1038
1039.1
1040.2
1041.4
1042.6
1043.7
1044.8
1045.9
1047.1
1048.3
1049.5
1050.6
1051.8
1052.9
1054.1
1055.3
1056.4
1057.6
1058.7
1059.9
1061.1
1062.3
1063.4
1064.5
1065.7
1066.9
1068.1
1069.2
1070.4
1071.6
1072.8
1074
1075.1
1076.3
1077.5
1078.7
1079.9
1081
1082.1
1083.3
1084.5
1085.6
1086.7
1087.8
1089
1090.3
1091.4
1092.5
1093.7
1094.9
1096.1
1097.3
1098.4
1099.5
1100.7
1101.9
1103.1
1104.2
1105.3
1106.5
1107.8
1108.9
1110.1
1111.2
1112.4
1113.6
1114.8
1115.9
1117
1118.2
1119.4
1120.6
1121.8
1122.9
1123.4
1124.8
1125.4
1125.8
1126.8
1127.4
1128.7
1129.2
1130.6
1131.2
1132.6
1133.1
1133.5
1134.5
1135
1136.4
1136.9
1137.3
1138.4
1138.9
1139.3
1140.3
1140.8
1142.2
1142.6
1142.8
1143.2
1143.6
1144.1
1144.7
1145.3
1145.9
1146.4
1146.9
1147.3
1147.9
1148.5
1149
1149.5
1150.2
1150.9
1151.4
1152
1152.4
1153
1153.5
1153.9
1154.5
1155.1
1155.7
1156.3
1156.8
1157.5
1157.8
1158.8
1159.9
1160.5
1160.9
1162.1
1162.6
1163
1164.1
1164.6
1165
1166.1
1166.6
1167.1
1168.2
1168.7
1170.1
1170.6
1172
1172.5
1172.9
1174
1174.5
1175
1176
1176.3
1176.5
1176.9
1177.6
1178.2
1178.7
1179.2
1180.1
1180.8
1181.3
1181.9
1182.8
1183.3
1184
1184.5
1185
1185.6
1186.1
1186.6
1187
1187.5
1188
1188.5
1189.1
1190
1190.5
1191.1
1191.7
1192.2
1192.7
1193.2
1193.7
1194.1
1194.7
1195.1
1195.6
1196.1
1196.6
1197.1
1197.6
1198.1
1198.6
1199.1
1199.8
1200.2
1200.7
1201.4
1202
1202.5
1203.2
1203.8
1204.3
1204.8
1205.3
1205.7
1206.1
1206.6
1207.1
1207.5
1208.1
1208.7
1209.2
1209.7
1210.2
1210.7
1211.2
1211.6
1212.1
1212.5
1213
1213.4
1213.9
1214.4
1214.8
1215.3
1215.8
1216.3
1216.8
1217.3
1217.7
1218.4
1218.9
1219.5
1220.1
1220.6
1221.1
1221.6
1222
1222.5
1223
1223.5
1224.1
1224.5
1225
1225.4
1225.9
1226.3
1227
1227.5
1228
1228.6
1229.1
1229.7
1230.3
1230.9
1231.5
1232
1232.7
1233.3
1233.9
1234.5
1235.1
1235.8
1236.2
1236.9
1237.3
1237.7
1238.1
1238.6
1239.1
1239.5
1240
1240.5
1240.9
1241.6
1242
1242.5
1243.1
1243.6
1244.2
1244.9
1245.4
1245.9
1246.7
1247.2
1247.6
1248
1248.5
1248.9
1249.3
1249.8
1250.2
1250.6
1251.1
1251.6
1252
1252.5
1253
1253.4
1253.8
1254.3
1254.7
1255.2
1255.8
1256.3
1256.8
1257.3
1257.8
1258.3
1258.7
1259.1
1259.6
1260
1260.4
1261.1
1262
1262.6
1263.1
1263.5
1264
1264.4
1264.9
1265.3
1265.8
1266.2
1266.6
1267.1
1267.5
1267.9
1268.4
1268.9
1269.4
1270.2
1270.7
1271.6
1272
1272.4
1272.8
1273.2
1273.6
1274.1
1274.9
1275.4
1275.9
1276.3
1276.8
1277.3
1277.9
1278.5
1278.9
1279.3
1280.2
1280.7
1281.1
1281.6
1282
1282.4
1282.9
1283.3
1283.8
1284.2
1284.6
1285
1285.4
1285.9
1286.4
1286.8
1287.2
1287.7
1288.1
1288.6
1289
1289.5
1289.9
1290.3
1290.7
1291.3
1291.7
1292.3
1293.9
1295.3
1295.8
1297.4
1297.9
1298.4
1299.6
1300.1
1301.7
1301.9
1302.1
1302.6
1303.5
1304.1
1304.9
1305.5
1306
1306.5
1307.2
1308.5
1309.2
1309.8
1310.3
1311.2
1311.7
1312.1
1312.9
1313.8
1314.3
1315.1
1315.9
1316.4
1316.9
1317.8
1318.5
1319
1319.4
1319.8
1320.6
1321.2
1321.7
1322.3
1322.9
1323.4
1324
1324.4
1324.9
1325.7
1326.2
1326.6
1327
1327.6
1328.3
1329
1329.5
1330.1
1330.5
1331.2
1331.6
1332.5
1333.1
1333.8
1334.6
1335.4
1336
1336.6
1337.1
1337.7
1338.2
1338.6
1339
1339.6
1340.5
1341.1
1342.2
1342.7
1343.1
1343.7
1344.3
1345
1345.8
1346.5
1347.3
1348
1348.5
1349.2
1349.8
1350.5
1351.1
1351.8
1352.6
1353.4
1354.2
1354.7
1355.5
1356.4
1356.9
1357.5
1358.4
1359
1359.7
1360.2
1361
1361.6
1362.2
1362.9
1363.4
1363.8
1364.7
1365.3
1365.8
1366.5
1367
1367.5
1368.3
1369
1369.7
1370.2
1370.9
1371.7
1372.3
1372.8
1373.3
1373.9
1374.7
1375.8
1376.6
1377.4
1378.2
1378.9
1379.5
1380.3
1381.1
1381.7
1382.6
1383.2
1383.8
1384.3
1385
1385.5
1386.1
1386.7
1387.4
1388
1388.9
1390.1
1391
1391.6
1392.4
1393.2
1393.7
1394.5
1395
1395.6
1396.3
1396.9
1397.6
1398
1398.4
1399.1
1399.7
1400.2
1400.8
1401.9
1402.4
1403.2
1403.7
1404.2
1404.6
1405.2
1405.6
1406.2
1407
1407.9
1408.5
1409.1
1409.8
1410.6
1411.1
1411.8
1412.4
1413.1
1413.8
1414.3
1414.9
1415.8
1416.4
1417.1
1417.5
1418.2
1418.9
1419.4
1420
1420.5
1421.2
1421.8
1422.2
1422.8
1423.4
1423.8
1424.6
1425
1425.7
1426.5
1427.3
1428.1
1428.8
1429.6
1430.2
1430.8
1431.7
1432.5
1433.1
1433.7
1434.5
1435.1
1435.8
1436.4
1437.1
1437.7
1438.6
1439.5
1440.1
1440.5
1441.2
1441.8
1442.4
1443.2
1444
1444.7
1445.3
1445.8
1446.5
1447.1
1448
1448.7
1449.3
1450
1450.7
1451.4
1451.9
1452.6
1453.5
1454.1
1455
1455.6
1456.3
1456.9
1457.3
1457.9
1458.5
1459.1
1459.6
1460.2
1460.8
1461.5
1461.9
1462.5
1462.9
1463.8
1464.5
1465.1
1465.5
1466
1466.6
1467.1
1467.5
1468.2
1468.8
1469.4
1470.1
1470.5
1471
1471.7
1472.6
1473.3
1474.1
1474.8
1475.6
1476.1
1476.7
1477.4
1478.5
1479.4
1480
1480.8
1481.4
1482.2
1482.8
1483.2
1483.7
1484.3
1484.8
1485.6
1486.1
1486.8
1487.7
1488.6
1489.1
1489.6
1490.1
1490.9
1491.6
1492.2
1492.8
1493.5
1494.3
1494.7
1495.3
1495.8
1496.5
1497.2
1498
1498.9
1499.6
1500.1
1500.5
1501.4
1502.2
1503.2
1503.8
1504.7
1505.4
1506.2
1506.7
1507.8
1508.4
1509.1
1509.6
1510.2
1510.8
1511.4
1512
1512.8
1513.5
1513.9
1514.7
1515.4
1516.1
1516.8
1517.5
1518.1
1518.8
1519.6
1520.4
1520.9
1521.7
1522.5
1523
1523.8
1524.3
1525
1525.5
1526.1
1526.9
1527.2
1527.6
1528.2
1528.7
1529.2
1529.7
1530.2
1530.6
1531.1
1531.5
1532
1532.5
1532.9
1533.4
1533.9
1534.3
1534.8
1535.2
1535.7
1536.1
1536.6
1537.1
1537.5
1538
1538.5
1539
1539.4
1539.9
1540.4
1541.1
1541.7
1542.2
1542.6
1543.1
1543.5
1543.9
1544.4
1544.9
1545.3
1545.8
1546.3
1546.8
1547.2
1547.7
1548.1
1548.5
1549
1549.4
1549.8
1550.3
1550.8
1551.2
1551.7
1552.2
1552.6
1553.1
1553.5
1554
1554.4
1554.8
1555.3
1555.7
1556.2
1556.7
1557.1
1557.6
1558
1558.5
1558.9
1559.4
1559.8
1560.3
1560.7
1561.1
1561.6
1562
1562.5
1562.9
1563.3
1563.8
1564.3
1564.7
1565.2
1565.6
1566
1566.4
1566.9
1567.3
1567.7
1568.1
1568.6
1569
1569.5
1570
1570.4
1570.9
1571.3
1571.8
1572.2
1572.6
1573
1573.5
1573.9
1574.3
1574.8
1575.1
1575.4
1576.1
1576.8
1577.4
1578
1578.8
1579.4
1579.9
1580.7
1581.4
1582
1583
1583.7
1584.6
1585.3
1585.9
1586.8
1587.5
1588.3
1589
1589.6
1590
1590.6
1591.2
1592.3
1592.8
1593.5
1594.2
1594.8
1595.4
1596.1
1596.8
1597.5
1598
1598.5
1599.2
1600
1600.7
1601.1
1602
1602.6
1603.1
1603.9
1604.6
1605.3
1606.2
1606.9
1607.7
1608.3
1608.8
1609.5
1610.4
1611.3
1612.1
1612.7
1613.1
1613.9
1614.4
1615
1615.8
1616.5
1617.2
1617.7
1618.1
1618.5
1619
1619.6
1620.2
1620.8
1621.4
1622.4
1623.1
1623.9
1624.7
1625.2
1625.9
1626.3
1626.7
1627.3
1627.9
1628.5
1629.2
1629.7
1630.2
1630.9
1631.4
1632.2
1632.8
1633.5
1634.4
1635.3
1636.2
1637
1637.6
1638.2
1638.8
1639.8
1640.5
1641.1
1641.8
1642.3
1643.2
1643.8
1644.4
1645.1
1646.2
1646.9
1647.6
1648.4
1649.1
1649.6
1650.3
1650.7
1651.3
1652
1652.9
1653.6
1654.1
1655
1655.6
1656.3
1657
1657.5
1657.9
1658.7
1659.5
1660.2
1661
1661.7
1662.3
1663
1663.5
1664.4
1665
1665.6
1666.1
1666.9
1667.7
1668.4
1669
1669.7
1670.7
1671.5
1672.1
1672.8
1673.3
1674.1
1674.7
1675.4
1676.3
1676.8
1677.8
1678.4
1678.9
1679.6
1680.3
1680.6
1681.3
1681.8
1682.5
1683.2
1684
1684.9
1685.5
1686.2
1686.9
1687.4
1687.9
1688.5
1689.4
1689.9
1690.4
1691.2
1691.9
1692.4
1693.1
1693.8
1694.2
1694.9
1695.5
1696.4
1697.5
1698
1698.5
1699.2
1699.9
1700.4
1701.1
1701.9
1702.8
1703.3
1703.9
1704.4
1705
1705.7
1706.1
1707
1707.9
1708.7
1709.5
1710.2
1710.9
1711.8
1712.5
1713.2
1713.8
1714.4
1715.1
1715.9
1716.8
1717.3
1718.1
1718.6
1719.5
1720.4
1720.9
1721.8
1722.5
1723.1
1723.9
1724.5
1725.1
1726
1726.7
1727.5
1728.2
1729
1729.7
1730.2
1730.8
1731.5
1732.2
1732.9
1733.4
1734.4
1734.9
1735.4
1735.8
1736.2
1736.7
1737.3
1737.9
1738.7
1739.4
1740.4
1741
1741.5
1742.1
1742.7
1743.5
1744.1
1744.7
1745.3
1745.9
1746.6
1747.3
1748.2
1748.8
1749.6
1750.5
1751.2
1751.9
1752.4
1753.2
1753.7
1754.1
1754.7
1755.3
1755.7
1756.4
1756.9
1757.3
1757.8
1758.7
1759.3
1760
1761
1761.5
1762.3
1762.9
1763.7
1764.5
1765.1
1766
1767
1767.6
1768.4
1769
1769.3
1770.1
1770.8
1771.3
1771.7
1772.4
1773.2
1774
1774.8
1775.2
1775.8
1776.8
1777.4
1778.2
1779.1
1779.8
1780.4
1781.1
1781.5
1782.3
1782.9
1783.5
1784.1
1784.9
1785.8
1786.4
1787.2
1787.9
1788.4
1788.9
1789.8
1790.3
1790.9
1791.7
1792.5
1793.3
1794.2
1795.3
1795.7
1796.1
1796.8
1797.3
1798.1
1799
1799.6
1800.3
1801
1801.5
1802
1803
1803.7
1804.5
1805.2
