0.038889
0.066667
0.275
1.1972
1.8333
2.3944
2.7833
3.5278
4.1194
4.775
5.2056
5.8389
6.2528
6.5778
6.9944
7.3861
7.7556
8.1472
8.6889
9.2583
9.6222
9.9556
10.317
10.703
11.092
11.767
12.611
13.117
13.497
14.117
14.575
15.094
15.692
16.094
16.75
17.222
17.872
18.642
19.289
20.219
21.075
21.528
21.894
22.65
23.089
23.725
24.656
25.317
25.817
26.2
26.867
27.642
28.244
29.158
30.083
30.781
31.506
32.369
32.939
33.383
34.103
34.794
35.431
36.086
36.661
37.611
38.269
38.931
39.694
40.525
41.072
41.461
42.342
42.875
43.417
44.019
44.25
44.636
45.294
46.108
46.358
46.461
46.828
47.156
47.656
47.983
48.414
49.031
49.483
49.783
50.636
51.206
51.781
52.531
53.1
53.497
53.869
54.839
55.261
55.836
56.375
56.817
57.172
57.525
58.05
58.425
58.772
59.108
59.467
60.294
60.725
61.039
61.5
61.828
62.189
62.539
62.917
63.244
63.567
64.619
64.992
65.669
66.028
66.872
67.294
67.672
68.028
68.681
69.122
69.45
70.281
70.669
71.317
72.225
73.058
73.469
73.861
74.5
74.925
75.603
76.439
77.3
77.7
78.383
79.033
79.547
80.172
80.625
81.503
81.997
82.736
83.506
84.111
84.975
85.397
86.136
86.803
87.717
88.472
88.914
89.564
90.322
90.914
91.625
91.758
92.033
92.414
92.792
93.339
93.789
94.153
94.933
95.242
95.667
96.064
96.453
97.183
97.608
97.953
98.703
99.067
99.422
99.806
100.22
100.82
101.38
101.54
101.88
102.14
102.56
102.96
103.6
103.9
104.28
104.91
105.1
105.26
105.56
105.89
106.36
106.65
107.32
107.97
108.34
108.68
109.09
109.64
110.15
110.5
110.9
111.23
111.83
112.19
113.07
113.42
114.56
114.98
115.72
116.15
117.02
117.88
118.5
119.21
119.59
120.56
120.99
121.35
121.78
122.19
122.84
123.49
123.96
124.33
124.68
125.09
125.42
125.8
126.58
126.97
127.77
128.1
128.71
129.06
129.81
130.16
130.73
131.21
131.52
132.21
133.41
133.88
134.45
135.38
136.28
136.64
137.28
137.66
138.03
138.72
139.22
140.14
140.96
141.82
142.19
142.51
142.86
143.49
144.19
144.94
145.79
147.04
147.69
148.21
149.3
150.37
150.92
151.31
152.07
152.57
153.17
153.95
154.64
155.03
155.49
156.2
156.58
156.95
157.9
158.35
159.08
159.8
160.55
161.35
162.07
162.72
163.38
164.04
164.9
165.64
166.38
166.95
167.82
168.37
168.91
169.35
170.03
170.82
171.37
171.96
172.54
173
173.65
174.41
175.2
175.71
176.51
177.07
177.47
177.81
178.14
178.76
179.47
180.15
180.74
181.5
182.25
182.99
183.46
183.92
184.61
185.25
185.8
186.28
186.69
187.02
187.47
188.27
188.76
189.17
189.95
190.62
191.32
192.08
192.79
193.43
194.13
194.52
195.17
195.9
196.51
197.21
197.61
198.31
198.94
199.79
200.25
200.99
201.44
202.11
202.67
203.26
203.87
204.59
205.07
205.69
206.14
206.71
207.69
208.13
208.76
209.67
210.42
210.97
211.41
211.82
212.53
213.07
213.86
214.3
214.63
215.46
215.92
216.98
217.41
218.21
218.94
219.31
220.24
220.69
221.66
222.42
223.07
223.44
223.82
224.99
225.35
226.07
226.79
227.42
228.14
228.88
229.64
230.48
231.03
231.55
232.46
233.03
233.47
234.15
234.9
235.6
236.41
237.01
237.37
237.76
238.43
239.03
239.7
240.25
241.14
241.92
242.56
243.37
244.08
244.8
245.49
245.93
246.63
247.25
247.88
248.5
249.06
249.42
249.81
250.2
250.54
250.85
251.43
252.17
253.01
253.85
254.52
254.91
255.23
255.88
256.32
257.31
257.74
258.87
259.53
260.18
260.99
261.36
261.8
262.39
262.97
263.86
264.67
265.66
266.15
266.49
267.38
267.82
268.74
268.94
269.13
269.5
269.86
270.32
270.54
271.21
272.03
272.64
273.37
274.16
274.59
274.94
275.31
275.68
276.84
277.24
278.24
278.65
279.01
279.7
280.89
281.35
282.01
282.71
283.47
284.19
285.08
285.7
286.41
286.79
287.53
287.94
288.29
288.94
289.46
290.34
290.84
291.96
292.39
293.29
293.95
294.48
295.17
295.58
296.25
296.87
297.51
298.29
299.04
299.56
299.93
300.57
301.32
301.49
301.71
302.07
302.38
302.74
303
303.08
303.59
303.82
304.24
304.53
304.94
305.33
305.68
305.98
306.43
306.82
307.53
307.8
308.22
308.95
309.36
309.78
310.39
310.76
311.1
311.49
312.25
313.19
313.72
314.61
315.13
315.79
316.17
316.94
317.64
318.34
318.79
319.54
320.27
320.76
321.5
322.25
323.01
323.42
323.85
324.25
325.02
325.77
326.46
327.04
327.41
327.81
328.43
328.83
329.28
329.9
330.66
331.39
332.34
333.11
333.85
334.34
335.02
335.71
336.18
336.86
337.64
338.09
338.46
339.1
339.98
340.36
340.72
341.77
342.21
342.95
343.39
343.77
344.15
344.51
345.18
345.69
346.34
347.26
347.82
348.21
349.26
349.75
350.47
351.11
351.68
352.53
352.93
353.44
353.93
354.58
355.47
356.1
356.9
357.56
357.92
358.29
358.61
358.94
359.62
359.99
360.7
361.81
362.5
363.49
364.18
364.84
365.99
366.75
367.68
368.46
369.36
370.01
370.99
371.8
372.43
373.35
373.96
374.49
375.16
375.81
376.71
377.17
377.46
378.61
379.07
379.66
380.04
380.68
381.18
381.54
381.87
382.49
382.93
383.34
384.01
384.41
384.73
385.48
386.24
386.59
387.32
387.88
388.36
389
389.69
390
390.47
391.36
392.13
392.73
393.01
393.63
393.8
394.51
395.31
395.91
396.66
397.38
397.87
398.47
398.86
399.58
400.34
400.88
401.49
401.94
402.58
403.01
403.67
404.23
404.59
404.93
405.32
405.69
406.02
406.36
406.78
407.66
408.4
409.07
409.71
410.42
410.82
411.14
411.48
412.33
412.69
413.18
413.26
413.65
414.38
414.84
415.48
416.26
417.16
417.73
418.23
418.61
419.33
420.03
420.73
421.68
422.61
423.13
423.7
424.37
425.11
425.9
426.32
426.66
426.95
427.38
428.12
428.52
428.89
429.49
430.18
430.59
431.29
431.91
433
433.6
434.56
435.3
435.97
436.68
437.12
438.11
438.52
439.18
439.88
440.58
441.29
441.69
442.06
442.93
443.36
444.06
445
445.58
446.35
446.75
447.1
447.76
448.17
448.89
449.28
449.69
450.09
450.87
451.48
452.58
453
453.7
454.08
454.71
455.63
456.17
456.86
457.52
458.17
458.71
459.1
459.89
460.32
460.92
461.75
462.59
463.6
464.05
465.06
465.95
466.69
467.09
467.57
468.42
468.96
469.46
469.86
470.25
470.62
470.98
471.69
472.09
472.86
473.34
473.98
474.36
474.7
475.49
475.89
476.77
477.25
477.68
478.23
479.06
479.61
479.99
480.42
480.78
481.2
481.39
482.12
482.53
482.92
483.59
484.29
485.02
485.76
486.19
486.73
487.56
488.13
488.83
489.51
490.14
490.84
491.04
491.75
492.38
492.82
493.54
494.12
494.53
495.21
495.59
495.97
496.66
497.18
497.87
498.27
498.69
499.08
499.46
500.13
500.56
501.02
501.6
502.38
502.88
503.22
503.61
504.24
504.9
505.87
506.28
507.24
508
508.7
509.07
509.46
509.82
510.66
510.81
511.1
511.45
511.8
512.09
512.2
513.05
513.41
514.06
514.81
515.71
516.18
517.02
517.96
518.16
518.58
519.34
519.88
520.62
521.1
521.8
522.65
523.44
524.71
525.8
526.31
527.02
527.44
527.77
528.54
529.42
530.08
530.79
531.39
531.78
532.2
532.89
533.05
533.27
533.61
534.18
535.24
535.89
536.35
536.96
537.48
537.79
538.14
538.57
539.21
539.61
540.01
540.38
540.75
541.31
542.07
542.47
543.2
543.88
544.41
544.98
545.61
545.99
546.35
547.17
547.56
548.22
548.95
549.65
550.03
550.42
550.79
551.46
551.84
552.27
552.83
552.98
553.19
553.29
554.94
555.04
555.61
556.27
556.64
556.99
557.71
558.27
558.84
559.59
560.16
560.65
561.13
561.98
562.53
563.11
563.54
563.93
564.47
565.02
565.62
566.23
566.76
567.23
567.91
568.28
568.78
569.54
570.19
570.88
571.53
572.24
572.67
573.33
573.73
574.35
574.82
575.49
575.95
576.36
577.2
577.6
578.33
579.3
580.02
580.66
581.33
581.97
582.44
582.7
583.16
583.79
584.18
584.94
585.32
585.69
586.18
586.46
586.67
587.02
588.09
588.53
589.43
589.98
590.59
590.98
591.31
592.16
592.58
593.36
593.76
594.14
594.86
595.67
596.42
597.09
597.81
597.95
598.33
599.01
599.67
600.05
600.44
601.19
601.82
602.21
602.77
603.12
603.54
604.1
604.79
605.25
605.43
606.09
606.72
607.17
607.83
608.27
608.89
609.58
609.96
610.72
611.42
612.14
612.81
613.21
613.53
613.94
614.47
615.08
615.52
616.12
616.72
616.87
617.35
618.08
618.84
618.92
619.21
619.54
620.4
620.8
621.38
621.92
622.48
623.16
623.42
623.75
624.29
624.96
625.59
626.76
627.18
628.14
628.82
629.19
629.52
629.96
630.3
631.08
631.61
632.05
632.83
633.2
633.87
634.21
634.88
635.62
636.37
636.78
637.33
637.69
638.39
639.01
639.52
639.81
640.25
640.96
641.2
641.33
641.62
641.97
642.35
642.79
642.98
643.54
644.43
645.01
645.34
645.76
646.66
647.06
647.76
648.41
649.01
649.45
650.11
650.49
650.84
651.21
651.92
652.31
653.08
653.62
654.32
655.01
655.82
656.19
656.55
657.51
658.3
659.05
659.59
660.16
660.82
661.63
662.19
662.57
663.22
664.02
664.67
665.17
665.73
666.48
667.19
667.38
667.57
668.12
668.76
669.13
669.9
670.56
670.92
671.14
671.36
671.88
672.08
672.95
673.97
674.72
675.45
676.14
676.71
677.07
677.42
678.14
678.64
679.51
680.23
680.85
681.5
682.21
682.66
683.49
684.07
684.51
685.15
685.57
686.14
686.73
687.48
687.86
688.64
689.25
689.66
690.07
690.93
691.63
691.97
692.66
693.06
693.71
694.32
694.97
695.44
695.88
696.41
696.81
697.19
697.69
698.13
698.52
699.09
699.43
699.98
700.66
701.2
701.61
701.98
702.64
703.04
703.6
704.15
704.86
705.5
705.88
706.25
706.98
707.9
708.37
709.08
709.8
710.01
710.15
710.46
710.79
711.17
711.37
712.04
712.85
713.32
713.98
714.38
715.1
715.49
716.29
716.71
716.98
717.48
718.1
718.45
719.09
719.45
720.24
720.83
721.39
721.8
722.33
722.87
723.34
723.86
724.57
724.99
725.59
726.02
726.4
727.08
727.94
728.29
728.57
729.06
729.65
730.08
730.27
730.67
731.25
732
732.62
733.31
733.69
734.39
734.94
735.54
736.07
736.51
736.84
737.23
737.73
738.48
739.16
739.8
740.41
741.14
741.3
741.49
741.74
742.09
742.45
742.84
743.12
743.47
744.19
744.49
744.77
745.5
745.92
746.77
747.48
747.83
748.14
748.49
749.11
749.67
750.16
750.77
751.32
751.88
752.21
752.57
753.06
753.81
754.16
754.51
755.16
755.55
756.14
756.98
757.74
757.96
758.11
758.46
758.77
759.1
759.38
759.81
760.29
760.98
761.33
761.98
762.7
763.31
763.86
764.06
764.52
764.88
765.19
765.52
765.94
766.28
767.08
767.45
768.01
768.53
769.13
769.59
770.13
770.7
771.32
771.91
772.3
772.61
772.98
773.61
774.27
774.63
775.02
775.43
775.79
776.19
776.51
777.04
777.52
778.15
778.91
779.55
780.37
780.89
781.58
781.8
781.96
782.28
782.63
783.05
783.24
783.89
784.37
784.74
785.16
785.62
786.3
786.77
787.39
787.82
788.14
788.52
789.19
789.81
790.55
791.28
791.69
792.04
792.54
793.03
793.4
793.76
794.33
794.73
795.3
795.98
796.3
796.67
797.24
797.58
797.93
798.56
799.49
799.86
800.2
800.85
801.32
802.06
802.67
802.96
803.76
804.2
804.75
805.55
805.95
806.61
807.1
807.57
808.47
808.84
809.56
810.41
811
811.49
812.38
812.86
813.21
813.5
813.9
814.66
815.02
815.58
815.91
816.49
816.84
817.23
818.16
818.54
819.23
819.82
820.56
820.97
821.49
822.19
822.69
823.08
823.42
823.77
824.55
824.96
825.26
825.64
826.24
826.82
827.55
828.26
828.92
829.13
829.33
829.67
830
830.68
830.97
831.36
831.83
832.27
832.86
833.67
834.1
834.72
835.45
836.02
836.48
837.1
837.24
837.49
837.85
838.18
838.59
839.29
839.69
839.9
840.09
840.7
841.12
842.13
842.52
843.12
843.71
844.04
844.52
845.07
845.82
846.39
846.78
847.29
847.66
848.28
849.27
849.96
850.76
851.7
852.37
852.65
852.86
853.6
853.97
854.86
855.51
855.82
856.71
857.18
857.82
858.71
859.64
860.66
861.1
861.47
861.82
862.46
863.19
864.03
864.72
865.37
866.16
866.74
867.32
867.71
867.85
868.39
869.15
869.53
869.84
870.22
870.58
871.15
871.93
872.55
872.99
873.35
873.67
874.01
874.52
875.23
875.89
876.33
876.92
877.51
877.85
878.16
878.51
879.11
879.45
880.13
880.76
881.16
881.89
882.57
882.92
883.23
883.33
883.81
884.49
885.02
885.3
885.43
885.65
885.81
886.09
886.69
887.31
887.92
888.33
889.04
889.71
890.05
891.04
891.41
892.28
892.84
893.52
894.14
894.54
894.91
895.29
895.68
896.06
896.87
896.95
897.34
897.88
898.38
898.84
899.32
899.71
900.04
900.76
901.49
901.95
902.32
902.58
902.9
903.25
903.56
903.98
904.11
904.24
904.64
905.48
906.18
906.6
907.14
907.49
907.58
908.21
908.81
909.47
910.11
910.54
910.94
911.56
912.11
912.97
913.65
914.35
914.71
914.79
915.16
915.46
915.51
915.67
915.81
915.92
916.15
916.24
916.62
916.98
917.94
918.59
919.36
920.05
920.59
921.09
921.59
921.95
922.55
922.79
923.17
923.61
923.96
924.29
924.34
924.67
925.08
925.43
925.64
926.01
926.84
927.24
927.58
928.3
929.04
929.79
930.22
930.96
931.67
932.13
932.61
933.31
933.83
934.19
934.83
935.27
935.88
936.59
937.4
938.01
938.76
939.72
940.33
940.89
941.62
942.63
943.31
944.15
944.52
944.88
945.26
945.58
946.18
946.6
947.41
948.36
949.15
949.98
950.78
951.38
952.01
952.44
953.1
953.65
954.49
955.25
955.85
956.24
956.59
956.97
957.6
958.06
958.7
959.69
960.5
961.02
961.85
962.61
963.56
964.16
964.58
964.92
965.28
965.67
966.46
966.89
967.52
967.87
968.65
969.2
969.81
970.45
971.24
971.89
972.74
973.37
973.77
974.07
974.75
975.15
975.74
976.41
977.41
978.25
978.79
979.73
980.59
981.42
981.98
982.74
983.59
984.38
985.08
985.79
986.66
987.42
988.05
988.42
989.27
989.69
990.04
990.79
991.53
992.57
993.76
994.15
995.44
996.08
996.48
996.86
997.78
998.22
999.11
999.81
1000.9
1001.5
1001.9
1002.9
1003.7
1004.6
1005.3
1005.9
1006.6
1007.1
1007.7
1008.4
1008.7
1009.1
1009.5
1010
1010.4
1010.7
1011
1011.6
1012.1
1012.5
1013.2
1013.7
1014.5
1015
1016
1016.4
1017.3
1018
1018.6
1019.5
1020.3
1020.7
1021.1
1021.5
1022.2
1022.7
1023.1
1023.6
1024.5
1024.9
1025.6
1026.3
1027
1027.6
1028.3
1028.9
1029.3
1029.9
1030.3
1031
1031.5
1032.1
1032.7
1033.2
1033.5
1033.8
1034.2
1034.5
1035.5
1036
1036.4
1036.9
1037.9
1038.3
1038.8
1039.2
1039.6
1040.6
1040.9
1042.1
1042.5
1043.2
1043.5
1043.9
1044.6
1045.5
1046.2
1047.1
1047.8
1048.2
1048.8
1049.5
1050.2
1051.2
1051.7
1052
1052.7
1053.3
1054
1054.4
1055.1
1055.8
1056.5
1056.9
1058.1
1058.5
1059.3
1060
1060.6
1061
1061.8
1062.6
1063.5
1064.7
1065.2
1065.5
1066.2
1066.6
1067.5
1067.9
1068.7
1069.6
1070
1070.4
1071
1072.1
1072.5
1073.2
1073.9
1074.7
1074.9
1075.1
1075.5
1075.8
1076.1
1076.2
1076.9
1077.3
1078.2
1078.6
1079.4
1080.3
1081.4
1082.4
1083.2
1083.8
1084.1
1084.5
1085.5
1086
1087
1087.9
1088.9
1089.4
1089.9
1090.3
1091
1091.7
1092.4
1092.8
1093.7
1094.2
1094.8
1095.5
1095.9
1096.4
1097.2
1097.7
1098.5
1099.4
1100.1
1100.5
1100.8
1101.5
1102.3
1102.7
1103
1103.7
1104.6
1105.5
1106.4
1106.9
1107.7
1108.4
1109.2
1110
1110.8
1111.2
1112
1112.6
1113.1
1113.6
1114
1114.5
1115.4
1116.1
1116.8
1117.4
1118.5
1119.4
1119.9
1120.3
1120.7
1121.3
1121.7
1122.1
1122.4
1123.2
1123.9
1124.5
1124.9
1125.7
1125.9
1126.1
1126.4
1126.7
1127
1127.1
1127.7
1128.1
1129.1
1129.5
1130.4
1131.1
1131.4
1131.7
1132.4
1133.2
1134.1
1134.7
1135.2
1135.8
1136.2
1136.5
1136.8
1137.2
1137.5
1138.3
1138.4
1138.6
1139.1
1139.4
1140.2
1140.6
1141.5
1142
1142.6
1143.2
1144.1
1144.8
1145.9
1146.6
1147
1147.9
1148.1
1148.3
1148.6
1149
1149.5
1149.8
1150.2
1151.6
1152
1152.6
1152.8
1153
1153.4
1153.7
1154.1
1154.5
1155
1155.4
1156
1156.5
1156.9
1157.3
1158
1158.4
1158.8
1159.4
1160.2
1160.7
1161.9
1162.3
1162.4
1162.6
1163.3
1163.7
1164.5
1165
1165.7
1166.3
1166.7
1167.4
1167.5
1168
1168.6
1169.5
1170
1170.3
1171.2
1171.9
1172.6
1173.3
1173.7
1174.3
1174.9
1175.8
1176.2
1177
1178
1178.7
1179.4
1179.8
1180.4
1181.2
1182.2
1182.8
1183.4
1183.7
1184.1
1184.5
1185.3
1185.7
1186.6
1187.3
1188
1188.6
1189.2
1189.7
1190
1190.4
1190.8
1191.2
1191.8
1192.5
1193.3
1194
1194.5
1195.4
1196.2
1196.6
1197.5
1198.1
1198.5
1198.8
1199.6
1200
1200.9
1201.7
1202.5
1202.6
1202.8
1203.2
1203.6
1204
1204.2
1204.9
1205.5
1206.1
1206.5
1207.1
1207.8
1208.6
1209.1
1209.7
1210.5
1211.1
1211.8
1212.8
1213.2
1213.6
1214.2
1214.8
1215.2
1215.5
1216
1216.4
1216.7
1217.1
1217.9
1218.3
1218.9
1219.6
1220.1
1220.5
1221.4
1221.8
1222.5
1223.2
1224
1224.7
1225.3
1226.2
1227
1227.8
1228.3
1229.1
1230
1230.9
1231.7
1232.1
1232.5
1233.5
1233.8
1234.3
1234.8
1235.5
1236.7
1237.8
1238.7
1239.5
1240.2
1240.9
1241.7
1242.2
1242.6
1243
1244.1
1244.5
1245.5
1246.1
1247.1
1247.8
1248.2
1249.1
1250
1250.7
1251.4
1252.2
1253
1253.4
1253.8
1254.5
1254.9
1255.7
1256.6
1257.3
1257.7
1258.7
1259.1
1260
1260.7
1261.3
1262.4
1263.5
1264
1264.3
1265
1265.6
1266.2
1266.6
1267.4
1268
1268.7
1269.1
1269.4
1269.8
1269.9
1270.1
1270.4
1270.7
1271.5
1272.1
1272.7
1273.2
1273.5
1273.8
1274.2
1274.6
1275.2
1275.6
1276.2
1276.9
1277.4
1278
1278.5
1279
1279.4
1280.1
1280.8
1281.6
1282.5
1283
1283.4
1283.8
1284.1
1284.5
1285.2
1285.8
1286.2
1286.6
1287.1
1288.3
1288.7
1289.3
1289.9
1290.8
1291.5
1292.2
1292.9
1293.4
1294.3
1294.8
1295.7
1296.6
1297.5
1297.9
1298.4
1299
1299.8
1300.2
1301.1
1302
1302.8
1303.5
1304
1304.3
1305
1305.7
1306.1
1307
1307.4
1307.8
1308.2
1309.1
1309.6
1310.5
1310.9
1311.6
1312.6
1313.3
1314.3
1315.1
1315.7
1316.1
1316.7
1317.7
1318.9
1319.6
1320.4
1321.1
1321.7
1322.8
1323.5
1323.8
1324.7
1325.7
1326.6
1327
1327.3
1328.3
1328.7
1329.6
1330.6
1331.6
1332.4
1333.2
1333.9
1334.6
1335
1335.8
1336.5
1337.3
1338
1338.6
1339
1339.4
1340
1340.6
1341.3
1342
1342.6
1343.1
1343.5
1344.1
1344.9
1345.4
1345.8
1346.2
1346.8
1347.2
1347.8
1348.3
1349.1
1349.7
1350.5
1350.9
1351.8
1352.7
1353.3
1353.9
1354.7
1355.5
1356.4
1356.9
1357.9
1358.4
1359.2
1359.7
1360.2
1360.7
1361.4
1361.9
1362.3
1363.1
1363.6
1364.3
1365
1365.7
1366.6
1367.3
1368.1
1368.7
1369.5
1370.2
1370.9
1371.3
1372
1373.1
1374
1374.6
1375.5
1376.1
1376.9
1377.5
1378.3
1379.1
1379.8
1380.7
1381.3
1381.8
1382.6
1383.2
1383.8
1384.5
1385
1385.7
1386.5
1387.1
1388
1388.5
1389.2
1389.7
1390.2
1390.9
1391.8
1392.6
1393
1393.3
1394
1394.6
1395.1
1395.9
1396.8
1397.4
1398
1398.5
1399.4
1400
1400.9
1401.5
1402
1402.7
1403.2
1403.8
1403.9
1404.3
1404.7
1405.1
1405.7
1406.4
1407
1407.4
1407.8
1408.2
1408.6
1409
1409.3
1409.6
1410.3
1410.7
1411.3
1412
1412.8
1413.2
1413.9
1414
1414.3
1414.6
1414.9
1415.8
1416.2
1416.9
1417.3
1418.1
1418.6
1419
1419.8
1420.2
1420.6
1421.3
1421.7
1422.2
1422.8
1423.2
1423.6
1424.3
1425
1425.8
1426.1
1426.8
1427.3
1427.6
1428.2
1428.9
1429.6
1430.1
1430.3
1430.8
1431.4
1432.2
1433.1
1433.5
1433.8
1434.6
1435.4
1436.3
1436.7
1437.5
1437.9
1438.6
1439.1
1439.7
1440.1
1440.5
1441.2
1441.6
1442.2
1442.8
1443.4
1444.1
1444.5
1445
1445.3
1446
1446.8
1447.5
1448
1448.7
1449.3
1449.7
1450.6
1451
1451.4
1452.1
1452.5
1453.5
1454.2
1454.9
1455.7
1456.6
1457.3
1457.7
1458.6
1459
1459.3
1460
1460.9
1461.4
1462
1462.3
1462.7
1463.4
1464.1
1465.1
1466.2
1466.9
1468
1469
1469.5
1470.2
1471.1
1471.8
1472.2
1472.8
1473.6
1474.3
1474.7
1475.1
1475.4
1476.1
1476.7
1477.7
1478.3
1478.9
1479.4
1479.6
1480.2
1481.1
1481.9
1483.1
1483.9
1484.3
1485.2
1486.1
1486.6
1487.1
1487.4
1487.8
1488.4
1488.6
1489.2
1490
1490.7
1491.6
1492.2
1492.7
1493.5
1493.9
1494.4
1494.8
1495.1
1496
1496.6
1496.8
1497
1497.3
1497.6
1497.8
1498
1498.3
1498.7
1499
1499.5
1500
1500.6
1501.1
1501.5
1501.9
1502.6
1503
1503.5
1504.1
1504.8
1505.6
1506.5
1507.3
1507.7
1508.4
1509.1
1509.9
1510.6
1511.2
1512
1512.6
1513
1513.7
1514.5
1515.3
1516
1516.4
1516.8
1517.1
1517.7
1518.2
1519
1519.5
1519.9
1520.6
1521
1522
1522.5
1523.7
1524.9
1525.4
1526
1526.6
1527
1527.3
1527.8
1528.5
1529.2
1529.8
1530.5
1531.3
1531.8
1532.6
1533.3
1534
1534.7
1535
1535.6
1536
1536.8
1537.5
1538.1
1538.4
1539
1539.4
1540.1
1540.7
1541.3
1542
1542.6
1543.5
1544.3
1545
1545.6
1546.2
1546.8
1547.4
1548.1
1548.7
1549.3
1550
1550.7
1551.1
1551.4
1551.7
1552.3
1552.7
1554
1554.5
1555.5
1556.1
1556.8
1557.5
1557.9
1558.6
1559.2
1559.7
1560.6
1561.5
1562.1
1562.5
1563.2
1563.7
1564.1
1564.9
1565.4
1566.3
1566.7
1567.4
1567.9
1568.9
1569.4
1569.9
1570.5
1571
1571.7
1572.5
1573.4
1573.8
1574.6
1575.1
1576.1
1576.7
1577.1
1577.4
1578.1
1578.8
1579.3
1580.3
1580.8
1581.6
1582.8
1583.7
1584.4
1584.8
1585.5
1586.3
1586.7
1587.2
1588.1
1589.1
1589.6
1590.2
1590.8
1591.6
1592.3
1592.7
1593
1593.8
1594.5
1595.1
1595.5
1596.2
1597
1598.1
1598.5
1598.9
1599.6
1600.3
1601.1
1601.5
1602.2
1602.8
1603.6
1604
1604.6
1605.2
1605.4
1605.6
1605.8
1606.2
1606.5
1606.9
1607.2
1607.5
1607.8
1607.9
1608.3
1608.7
1609.1
1609.4
1609.8
1610.2
1610.8
1611.7
1612.1
1612.5
1613.5
1614.2
1614.6
1615.3
1615.7
1616
1616.6
1617.3
1617.9
1618.8
1619.3
1619.9
1620.3
1620.9
1621.7
1622.6
1623.4
1624
1624.6
1625.1
1626
1626.5
1627.3
1627.8
1628.6
1629.2
1630.3
1630.9
1631.6
1632.4
1633
1633.4
1634.2
1634.9
1635.5
1636.4
1637.1
1638
1638.2
1638.4
1638.7
1639.1
1639.6
1639.7
1640.6
1641.1
1641.8
1642.5
1643.3
1644.1
1644.9
1645.7
1646.3
1646.8
1647.7
1648.3
1648.6
1649.4
1650.1
1650.8
1651.7
1652.5
1653.2
1653.8
1654.6
1655.2
1656
1657
1657.4
1657.8
1658.4
1658.8
1659.4
1660.1
1660.6
1661.3
1661.8
1662.5
1663.3
1664
1664.6
1665
1665.3
1666
1666.4
1667.2
1668.1
1668.5
1669.2
1670
1670.5
1671.1
1671.5
1672.1
1672.7
1673.4
1674.3
1674.7
1675.1
1675.4
1675.8
1676.5
1676.9
1677.2
1677.8
1678.2
1678.9
1679.7
1680.6
1681.5
1682.4
1682.9
1683.4
1683.9
1684.6
1685.1
1685.5
1686
1686.5
1687.4
1688.2
1688.5
1689.1
1689.6
1690.3
1691.1
1691.8
1692.4
1693.2
1694
1695
1695.9
1696.1
1696.3
1696.6
1696.9
1697.3
1697.6
1697.8
1698.5
1699.3
1700
1700.4
1701
1701.8
1702.2
1703
1703.9
1704.7
1705.7
1706.8
1707.6
1708.2
1708.9
1709.7
1710.5
1711
1711.7
1712.4
1713.4
1714.1
1714.9
1715.5
1716.3
1717.2
1718.1
1718.7
1719.4
1719.8
1720.2
1720.8
1721.3
1721.7
1722.3
1722.7
1723
1723.7
1724.8
1725.6
1727
1727.7
1728.5
1728.9
1729.4
1729.7
1730.4
1731
1731.6
1732.2
1732.8
1733.2
1733.5
1733.9
1734.3
1735
1735.4
1736.1
1737
1737.6
1738.5
1739.2
1739.6
1740.5
1741.5
1741.9
1742.8
1743.8
1744.3
1745
1745.5
1746.2
1747.1
1747.9
1748.5
1749.3
1749.7
1750.1
1750.5
1750.8
1751.4
1752.2
1753
1753.6
1754.3
1754.9
1755.5
1756.3
1756.9
1757.3
1757.7
1758.3
1759
1759.7
1760.1
1760.6
1761.3
1761.9
1762.5
1763.4
1764
1764.8
1765.2
1766
1766.6
1767
1767.3
1767.9
1768.7
1769.7
1770.8
1771.5
1772.2
1772.5
1773.2
1773.9
1774.6
1775.4
1776.1
1776.5
1777.4
1777.9
1778.3
1779.3
1779.9
1780.4
1780.7
1781.4
1782
1782.5
1783.3
1784
1784.5
1785.4
1786.3
1787.1
1787.8
1788.5
1788.9
1789.3
1789.6
1790.4
1790.8
1791.4
1791.8
1792.3
1792.8
1793.4
1794.2
1794.6
1795.1
1795.8
1796.2
1796.9
1797.6
1798.4
1799.1
1800.2
1800.8
1801.9
1802.8
1803.4
1804
1804.9
