0.041667
0.63611
1.2944
1.9611
2.6222
3.3
3.9722
4.6417
5.2833
5.9583
6.6472
7.3222
7.9806
8.6472
9.3167
9.9833
10.667
11.344
12.011
12.669
13.35
14.053
14.728
15.397
16.064
16.733
17.406
18.092
18.758
19.419
20.078
20.753
21.414
22.078
22.725
23.389
24.039
24.719
25.389
26.042
26.697
27.364
28.047
28.717
29.375
30.028
30.678
31.331
32
32.686
33.333
33.992
34.653
35.339
36.003
36.675
37.339
38.017
38.681
39.361
40.056
40.731
41.394
42.072
42.761
43.444
44.103
44.772
45.436
46.106
46.786
47.467
48.128
48.783
49.456
50.139
50.814
51.475
52.139
52.803
53.475
54.167
54.828
55.503
56.161
56.844
57.525
58.203
58.867
59.542
60.208
60.908
61.6
62.278
62.942
63.617
64.306
64.981
65.642
66.308
66.972
67.628
68.303
68.986
69.639
70.294
70.961
71.642
72.3
72.964
73.622
74.292
74.956
75.628
76.297
76.958
77.625
78.306
78.997
79.664
80.314
80.972
81.644
82.317
82.986
83.653
84.314
84.986
85.667
86.353
87.031
87.686
88.344
89.006
89.681
90.358
91.025
91.692
92.339
93.008
93.681
94.344
94.994
95.647
96.303
96.975
97.653
98.319
98.983
99.639
100.31
100.98
101.65
102.3
102.95
103.61
104.28
104.95
105.6
106.26
106.91
107.58
108.24
108.9
109.55
110.2
110.85
111.53
112.19
112.85
113.5
114.16
114.82
115.48
116.14
116.78
117.42
118.08
118.73
119.4
120.05
120.71
121.35
122.02
122.69
123.37
124.02
124.69
125.35
126.04
126.72
127.38
128.05
128.72
129.41
130.07
130.74
131.41
132.07
132.73
133.4
134.08
134.74
135.41
136.08
136.78
137.43
138.1
138.76
139.44
140.1
140.78
141.44
142.11
142.76
143.43
144.11
144.78
145.43
146.08
146.75
147.43
148.12
148.79
149.46
150.12
150.78
151.47
152.14
152.79
153.44
154.1
154.76
155.44
156.1
156.77
157.43
158.11
158.79
159.46
160.13
160.8
161.46
162.14
162.81
163.47
164.13
164.79
165.45
166.12
166.77
167.42
168.07
168.73
169.4
170.07
170.73
171.39
172.05
172.74
173.41
174.07
174.72
175.38
176.03
176.7
177.38
178.02
178.67
179.34
180.03
180.69
181.36
182.02
182.68
183.35
184.02
184.7
185.35
186.01
186.66
187.34
188
188.65
189.29
189.94
190.58
191.25
191.92
192.57
193.22
193.88
194.56
195.22
195.89
196.54
197.2
197.84
198.51
199.19
199.84
200.48
201.13
201.8
202.46
203.12
203.77
204.43
205.08
205.74
206.42
207.07
207.73
208.39
209.08
209.74
210.4
211.06
211.73
212.4
213.08
213.77
214.44
215.1
215.77
216.47
217.14
217.81
218.48
219.15
219.82
220.5
221.18
221.85
222.51
223.19
223.88
224.56
225.21
225.89
226.57
227.26
227.95
228.61
229.28
229.95
230.66
231.34
232.01
232.68
233.33
233.99
234.66
235.35
236.01
236.67
237.35
238.04
238.71
239.37
240.04
240.71
241.38
242.05
242.72
243.41
244.06
244.72
245.4
246.07
246.71
247.18
248.03
248.7
249.36
250.03
250.68
251.32
251.99
252.67
253.32
253.96
254.6
255.27
255.94
256.61
257.27
257.92
258.57
259.25
259.93
260.58
261.23
261.87
262.53
263.18
263.84
264.49
265.14
265.78
266.46
267.13
267.79
268.43
269.08
269.73
270.39
271.05
271.7
272.34
272.97
273.62
274.28
274.92
275.55
276.18
276.83
277.46
278.11
278.75
279.38
280.01
280.64
281.29
281.93
282.55
283.17
283.79
284.4
285.02
285.64
286.25
286.86
287.46
288.08
288.72
289.32
289.93
290.54
291.18
291.79
292.42
293.07
293.69
294.32
294.95
295.6
296.24
296.88
297.25
298.12
298.63
298.78
298.97
299.29
299.59
299.94
300.29
300.62
300.94
301.29
301.81
301.88
302.53
303.02
303.2
303.5
303.84
304.14
304.44
304.74
305
305.29
305.61
305.9
306.31
306.38
306.99
307.64
308.26
308.88
309.51
310.17
310.8
311.44
312.07
312.72
313.36
314.02
314.68
315.32
315.97
316.3
317.26
317.92
318.56
319.19
319.83
320.47
321.11
321.76
322.4
323.04
323.66
324.31
324.97
325.62
326.25
326.89
327.56
328.2
328.86
329.51
330.16
330.8
331.46
332.12
332.76
333.39
334.04
334.69
335.34
335.99
336.65
337.3
337.94
338.62
339.3
339.96
340.6
341.26
341.92
342.58
343.24
343.9
344.56
345.2
345.86
346.54
347.19
347.85
348.51
349.17
349.84
350.52
351.2
351.88
352.53
353.21
353.9
354.58
355.25
355.91
356.58
357.26
357.96
358.63
359.3
359.98
360.69
361.36
362.03
362.7
363.19
364.05
364.72
365.39
366.04
366.68
367.34
368.01
368.65
369.3
369.95
370.61
371.26
371.93
372.61
373.27
373.92
374.59
375.28
375.94
376.59
377.24
377.9
378.54
379.21
379.87
380.51
381.15
381.8
382.47
383.12
383.76
384.41
385.06
385.7
386.36
387.02
387.68
388.32
388.97
389.64
390.29
390.94
391.59
392.23
392.88
393.54
394.21
394.85
395.5
396.15
396.83
397.48
398.14
398.78
399.44
400.08
400.75
401.43
402.07
402.72
403.37
404.04
404.7
405.35
405.99
406.64
407.28
407.95
408.61
409.25
409.9
410.55
411.23
411.88
412.52
413.16
413.81
414.46
415.11
415.77
416.41
417.05
417.69
418.35
419
419.65
420.28
420.93
421.57
422.23
422.88
423.52
424.17
424.81
425.46
426.12
426.77
427.4
428.04
428.68
429.32
429.97
430.62
431.26
431.89
432.54
433.21
433.85
434.49
435.13
435.79
436.44
437.09
437.74
438.39
439.02
439.68
440.34
440.98
441.61
442.25
442.89
443.53
444.18
444.83
445.46
446.09
446.73
447.4
448.03
448.67
449.31
449.95
450.59
451.24
451.91
452.53
453.17
453.8
454.46
455.1
455.75
456.38
457.01
457.64
458.29
458.94
459.59
460.23
460.87
461.53
462.18
462.83
463.47
464.11
464.75
465.4
466.06
466.7
467.34
467.97
468.62
469.28
469.93
470.56
471.2
471.86
472.5
473.16
473.81
474.45
475.09
475.74
476.4
477.05
477.67
478.31
478.95
479.59
480.24
480.89
481.52
482.16
482.82
483.49
484.14
484.79
485.43
486.07
486.72
487.38
488.04
488.67
489.31
489.95
490.61
491.25
491.9
492.54
493.19
493.82
494.48
495.14
495.79
496.44
497.08
497.74
498.39
499.04
499.67
500.29
500.93
501.57
502.22
502.85
503.49
504.12
504.77
505.43
506.06
506.69
507.33
507.98
508.62
509.26
509.91
510.55
511.17
511.82
512.48
513.11
513.74
514.39
515.03
515.68
516.33
517
517.64
518.28
518.93
519.59
520.24
520.89
521.52
522.16
522.79
523.44
524.08
524.7
525.32
525.94
526.58
527.21
527.85
528.45
529.07
529.7
530.33
530.96
531.59
532.21
532.82
533.45
534.09
534.71
535.34
535.96
536.58
537.21
537.85
538.5
539.13
539.77
540.41
541.08
541.72
542.37
543.01
543.66
544.29
544.95
545.6
546.24
546.88
547.52
548.17
548.83
549.48
550.11
550.76
551.41
552.08
552.74
553.39
554.05
554.71
555.38
556.04
556.71
557.35
558
558.46
559.31
559.98
560.61
561.26
561.89
562.55
563.2
563.87
564.51
565.15
565.8
566.47
567.14
567.79
568.44
569.09
569.76
570.42
571.08
571.72
572.36
573.01
573.66
574.32
574.96
575.61
576.25
576.91
577.57
578.23
578.87
579.51
580.17
580.83
581.5
582.15
582.81
583.46
584.13
584.8
585.46
586.1
586.74
587.4
588.06
588.73
589.37
590.03
590.67
591.34
592.02
592.68
593.31
593.96
594.62
595.28
595.95
596.59
597.24
597.88
598.54
599.21
599.86
600.49
601.14
601.79
602.44
603.09
603.75
604.4
605.04
605.69
606.37
607.01
607.66
608.29
608.95
609.59
610.25
610.9
611.56
612.21
612.86
613.53
614.18
614.83
615.49
616.16
616.81
617.47
618.13
618.79
619.44
620.1
620.77
621.42
622.06
622.71
623.36
624.01
624.66
625.31
625.96
626.6
627.25
627.93
628.58
629.22
629.84
630.49
631.13
631.78
632.42
633.06
633.68
634.32
634.98
635.62
636.26
636.89
637.52
638.16
638.81
639.47
640.1
640.58
641.38
642.04
642.68
643.33
643.97
644.6
645.23
645.88
646.55
647.18
647.83
648.47
649.14
649.8
650.46
651.1
651.76
652.41
652.78
653.74
654.39
655.04
655.7
656.36
657.01
657.65
658.3
658.95
659.61
660.27
660.95
661.61
662.29
662.96
663.66
664.33
665
665.67
666.34
667
667.67
668.35
669
669.66
670.31
670.99
671.65
672.31
672.97
673.64
674.31
674.98
675.65
676.32
676.97
677.63
678.32
678.98
679.63
680.29
680.96
681.61
682.27
682.94
683.6
684.25
684.92
685.6
686.27
686.92
687.58
688.25
688.92
689.59
690.26
690.92
691.58
692.24
692.92
693.59
694.24
694.9
695.56
696.24
696.92
697.58
698.24
698.9
699.57
700.25
700.92
701.57
702.23
702.88
703.56
704.24
704.91
705.57
706.23
706.91
707.59
708.26
708.91
709.57
710.23
710.9
711.58
712.24
712.9
713.56
714.24
714.91
715.57
716.22
716.88
717.53
718.2
718.88
719.54
720.19
720.85
721.54
722.21
722.88
723.55
724.23
724.89
725.56
726.24
726.91
727.56
728.23
728.92
729.59
730.24
730.9
731.57
732.25
732.93
733.59
734.26
734.91
735.6
736.27
736.94
737.59
738.24
738.89
739.56
740.23
740.89
741.54
742.2
742.88
743.55
744.23
744.89
745.55
746.2
746.88
747.56
748.22
748.88
749.53
750.21
750.87
751.53
752.18
752.84
753.49
754.16
754.83
755.48
756.13
756.79
757.47
758.12
758.77
759.42
760.08
760.74
761.41
762.06
762.73
763.36
764.03
764.7
765.34
765.97
766.62
767.27
767.92
768.58
769.24
769.88
770.51
771.16
771.83
772.47
773.11
773.75
774.4
775.03
775.68
776.33
776.97
777.6
778.23
778.89
779.53
780.18
780.8
781.43
782.06
782.71
783.36
783.99
784.63
785.27
785.92
786.57
787.22
787.84
788.47
789.11
789.75
790.39
791.03
791.67
792.29
792.94
793.6
794.24
794.87
795.51
796.16
796.8
797.44
798.1
798.73
799.36
799.99
800.64
801.27
801.9
802.53
803.15
803.77
804.41
805.05
805.68
806.32
806.94
807.58
808.24
808.88
809.51
810.14
810.79
811.43
812.07
812.71
813.36
813.98
814.62
815.27
815.92
816.55
817.2
817.86
818.51
819.17
819.84
820.49
821.14
821.79
822.35
823.11
823.78
824.42
825.07
825.73
826.38
827.04
827.68
828.34
829
829.68
830.33
831
831.66
832.34
833
833.66
834.34
835
835.65
836.31
836.99
837.66
838.29
838.93
839.59
840.27
840.93
841.59
842.24
842.9
843.59
844.27
844.93
845.56
846.23
846.89
847.57
848.24
848.88
849.55
850.2
850.87
851.53
852.21
852.86
853.52
854.17
854.86
855.54
856.2
856.86
857.53
858.22
858.87
859.54
860.2
860.87
861.52
862.18
862.87
863.53
864.19
864.85
865.55
866.22
866.87
867.52
868.21
868.89
869.56
870.23
870.89
871.56
872.23
872.9
873.56
874.23
874.89
875.56
876.24
876.91
877.58
878.25
878.91
879.6
880.28
880.98
881.64
882.31
882.98
883.68
884.38
885.06
885.73
886.42
887.13
887.82
888.49
889.16
889.85
890.54
891.23
891.91
892.6
893.28
893.98
894.67
895.36
896.05
896.73
896.99
897.4
898.08
898.79
899.46
900.14
900.79
901.5
902.19
902.88
903.55
904.23
904.91
905.59
906.27
906.94
907.61
908.3
909.01
909.69
910.34
911
911.67
912.35
913.02
913.69
914.38
915.03
915.71
916.39
917.06
917.71
918.37
919.04
919.33
919.71
919.83
920.38
921.02
921.69
922.32
922.99
923.65
924.31
924.95
925.59
926.01
926.91
927.09
927.41
927.75
928.23
928.68
928.88
929.53
930.2
930.86
931.54
932.19
932.84
933.49
934.17
934.84
935.5
936.17
936.83
937.52
938.18
938.86
939.53
940.22
940.89
941.56
942.24
942.92
943.58
944.27
944.96
945.63
946.26
946.93
947.61
948.28
948.95
949.6
950.28
950.93
951.61
952.31
952.99
953.65
954.31
954.96
955.64
956.33
956.98
957.63
958.27
958.96
959.62
960.28
960.93
961.58
962.24
962.93
963.61
964.27
964.93
965.59
966.26
966.94
967.62
968.17
968.93
969.58
970.26
970.94
971.59
972.23
972.89
973.58
974.26
974.91
975.57
976.24
976.9
977.58
978.25
978.91
979.55
980.21
980.89
981.55
982.2
982.84
983.5
984.15
984.81
985.48
986.13
986.77
987.43
988.13
988.79
989.44
990.09
990.77
991.42
992.08
992.73
993.39
994.02
994.69
995.36
996.02
996.65
997.3
997.97
998.62
999.28
999.94
1000.6
1001.2
1001.9
1002.6
1003.2
1003.9
1004.5
1005.2
1005.8
1006.5
1007.2
1007.8
1008.5
1009.1
1009.8
1010.5
1011.2
1011.8
1012.5
1013.2
1013.9
1014.5
1015.2
1015.9
1016.6
1017.3
1018
1018.6
1019.3
1020
1020.7
1021.4
1022.1
1022.7
1023.4
1024.1
1024.8
1025.5
1026.2
1026.9
1027.6
1028.3
1028.9
1029.6
1030.3
1031
1031.7
1032.4
1033.1
1033.8
1034.4
1035.1
1035.9
1036.5
1037.2
1037.9
1038.7
1039.3
1040
1040.7
1041.4
1042.1
1042.8
1043.4
1044.1
1044.8
1045.5
1046.2
1046.9
1047.5
1048.2
1048.9
1049.6
1050.3
1051
1051.6
1052.3
1053
1053.7
1054.3
1055
1055.7
1056.4
1057.1
1057.8
1058.5
1059.1
1059.9
1060.5
1061.2
1061.9
1062.6
1063.3
1064
1064.7
1065.4
1066.1
1066.8
1067.5
1068.2
1068.9
1069.6
1070.3
1071
1071.7
1072.4
1073.1
1073.8
1074.5
1075.2
1075.9
1076.5
1077.3
1077.9
1078.7
1079.4
1080.1
1080.7
1081.5
1082.2
1082.9
1083.6
1084.3
1085
1085.7
1086.4
1087.1
1087.8
1088.5
1089.2
1089.9
1090.6
1091.3
1092
1092.7
1093.4
1094.1
1094.8
1095.5
1096.2
1096.9
1097.6
1098.3
1099
1099.7
1100.4
1101.1
1101.8
1102.5
1103.2
1103.9
1104.6
1105.3
1106
1106.6
1107.3
1108.1
1108.8
1109.4
1110.1
1110.9
1111.6
1112.3
1112.9
1113.6
1114.3
1115.1
1115.8
1116.4
1117.1
1117.9
1118.6
1119.3
1120
1120.7
1121.4
1122.1
1122.8
1123.5
1124.2
1124.9
1125.6
1126.3
1127
1127.7
1128.4
1129.1
1129.8
1130.5
1131.2
1132
1132.7
1133.4
1134.1
1134.8
1135.5
1136.2
1136.9
1137.6
1138.3
1139
1139.8
1140.5
1141.2
1141.9
1142.6
1143.3
1144
1144.8
1145.5
1146.2
1146.9
1147.6
1148.3
1149
1149.7
1150.4
1151.1
1151.8
1152.5
1153.2
1153.9
1154.6
1155.3
1156
1156.7
1157.4
1158.1
1158.8
1159.5
1160.3
1161
1161.7
1162.3
1163
1163.7
1164.5
1165.2
1165.9
1166.6
1167.3
1168
1168.8
1169.5
1170.2
1170.9
1171.6
1172.3
1173
1173.7
1174.4
1175.1
1175.8
1176.5
1177.3
1178
1178.7
1179.4
1180.1
1180.8
1181.5
1182.3
1183
1183.7
1184.4
1185.1
1185.8
1186.5
1187.2
1187.9
1188.6
1189.3
1190.1
1190.8
1191.5
1192.2
1192.9
1193.6
1194.3
1195
1195.7
1196.4
1197.2
1197.9
1198.6
1199.3
1200
1200.4
1201.4
1201.9
1202.8
1203.5
1204.2
1204.9
1205.6
1206.3
1207
1207.7
1208.5
1209.2
1209.9
1210.6
1211.3
1212
1212.7
1213.4
1214.2
1214.9
1215.6
1216.3
1217
1217.7
1218.5
1219.2
1219.9
1220.6
1221.3
1222
1222.7
1223.4
1224.2
1224.9
1225.6
1226.3
1227
1227.7
1228.5
1229.2
1229.9
1230.6
1231.3
1232
1232.8
1233.5
1234.2
1234.9
1235.6
1236.3
1237.1
1237.8
1238.5
1239.2
1239.9
1240.6
1241.3
1242
1242.8
1243.5
1244.2
1244.9
1245.6
1246.3
1247.1
1247.8
1248.5
1249.2
1249.9
1250.7
1251.4
1252.1
1252.9
1253.6
1254.3
1255.1
1255.8
1256.5
1257.2
1258
1258.7
1259.4
1260.2
1260.9
1261.7
1262.4
1263.1
1263.8
1264.5
1265.3
1266
1266.8
1267.5
1268.2
1268.9
1269.7
1270.4
1271.1
1271.8
1272.5
1273.3
1274
1274.7
1275.4
1276.2
1276.9
1277.6
1278.4
1279.1
1279.8
1280.6
1281.3
1282
1282.8
1283.5
1284.3
1285
1285.7
1286.5
1287.2
1287.9
1288.7
1289.4
1290.2
1290.9
1291.6
1292.3
1293.1
1293.8
1294.5
1295.2
1295.9
1296.7
1297.4
1298.1
1298.8
1299.6
1300.3
1301.1
1301.8
1302.5
1303.3
1304
1304.7
1305.4
1306.1
1306.9
1307.6
1308.3
1309
1309.8
1310.5
1311.2
1312
1312.7
1313.4
1314.1
1314.8
1315.5
1316.3
1317
1317.7
1318.4
1319.1
1319.8
1320.5
1321.2
1322
1322.7
1323.4
1324.1
1324.8
1325.5
1326.3
1327
1327.7
1328.4
1329.1
1329.8
1330.2
1331.2
1331.9
1332.6
1333.4
1334.1
1334.8
1335.5
1336.2
1336.9
1337.7
1338.4
1339.1
1339.8
1340.5
1341.3
1342
1342.7
1343.1
1344.1
1344.8
1345.5
1346.2
1346.9
1347.7
1348.4
1349.1
1349.8
1350.5
1351.2
1351.9
1352.6
1353.3
1354
1354.8
1355.5
1356.2
1356.9
1357.6
1358.4
1359.1
1359.8
1360.6
1361.3
1362
1362.8
1363.5
1364.2
1364.9
1365.7
1366.4
1367.1
1367.5
1368.5
1369.3
1370
1370.7
1371.4
1372.1
1372.8
1373.6
1374.3
1375
1375.7
1376.5
1377.2
1377.9
1378.6
1379.3
1380
1380.8
1381.5
1382.2
1382.9
1383.7
1384.4
1385.1
1385.8
1386.5
1387.3
1388
1388.7
1389.4
1390.1
1390.9
1391.6
1392.3
1393
1393.7
1394.5
1395.2
1395.9
1396.6
1397.3
1398.1
1398.8
1399.5
1400.3
1401
1401.7
1402.5
1403.2
1404
1404.7
1405.5
1406.2
1406.9
1407.7
1408.4
1409.2
1409.9
1410.7
1411.4
1412.2
1412.9
1413.7
1414.4
1415.1
1415.8
1416.6
1417.3
1418.1
1418.8
1419.5
1420.3
1421
1421.7
1422.5
1423.2
1423.9
1424.6
1425.4
1426.1
1426.8
1427.5
1428.2
1428.9
1429.4
1430.4
1430.8
1431.8
1432.5
1433.3
1434
1434.7
1435.4
1436.1
1436.8
1437.5
1438.3
1439
1439.7
1440.4
1441.2
1441.9
1442.6
1443.3
1444.1
1444.8
1445.6
1446.3
1447
1447.8
1448.5
1449.2
1449.9
1450.7
1451.4
1452.1
1452.9
1453.6
1454.3
1455
1455.8
1456.2
1457.3
1458
1458.8
1459.5
1460.3
1460.5
1460.7
1461.6
1462.1
1462.5
1462.8
1463.1
1463.3
1463.6
1464
1464.2
1464.5
1464.8
1465.2
1465.3
1465.8
1466
1466.6
1467.4
1468
1468.7
1469.3
1470.1
1470.9
1471.6
1472.4
1473.1
1473.6
1473.9
1474.5
1474.7
1475.2
1476.1
1476.5
1476.8
1477.3
1477.6
1478.1
1478.3
1479
1479.7
1480.5
1481.2
1482
1482.7
1483.4
1483.8
1484.9
1485.6
1486.4
1487.1
1487.8
1488.6
1489.3
1490
1490.7
1491.5
1492.2
1492.9
1493.6
1494.4
1495.1
1495.8
1496.5
1497.3
1498
1498.7
1499.4
1500.1
1500.9
1501.6
1502.3
1503.1
1503.8
1504.5
1505.3
1506
1506.8
1507.5
1508.2
1508.9
1509.7
1510.4
1511.1
1511.9
1512.6
1513.3
1514.1
1514.8
1515.5
1516.3
1517
1517.7
1518.5
1519.2
1519.9
1520.7
1521.4
1522.1
1522.8
1523.6
1524.3
1525.1
1525.8
1526.5
1527.3
1528.1
1528.8
1529.5
1530.3
1531
1531.8
1532.5
1533.3
1534
1534.8
1535.5
1536.3
1537
1537.8
1538.5
1539.3
1540
1540.8
1541.5
1542.3
1543
1543.7
1544.4
1545.1
1545.9
1546.6
1547.3
1548
1548.8
1549.5
1550.3
1551
1551.7
1552.5
1553.2
1554
1554.7
1555.4
1556.2
1556.9
1557.7
1558.4
1559.1
1559.8
1560.6
1561.3
1562
1562.7
1563.5
1564.2
1564.9
1565.7
1566.4
1567.1
1567.9
1568.6
1569.3
1570.1
1570.8
1571.6
1572.3
1573
1573.8
1574.5
1575.3
1576
1576.7
1577.5
1578.2
1579
1579.7
1580.5
1581.2
1581.9
1582.7
1583.4
1584.1
1584.9
1585.6
1586.3
1587.1
1587.8
1588.6
1589.3
1590
1590.8
1591.5
1592.3
1593
1593.7
1594.4
1595.2
1595.9
1596.6
1597.4
1598.1
1598.8
1599.6
1600.3
1601.1
1601.8
1602.5
1603.3
1604
1604.8
1605.5
1606.2
1607
1607.7
1608.4
1609.2
1609.9
1610.6
1611.4
1612.1
1612.8
1613.6
1614.3
1615
1615.7
1616.5
1617.2
1617.9
1618.6
1619.4
1620.1
1620.8
1621.6
1622.3
1623
1623.7
1624.5
1625.2
1625.9
1626.7
1627.4
1628.1
1628.9
1629.6
1630.3
1631
1631.8
1632.5
1633.3
1634
1634.7
1635.5
1636.2
1637
1637.7
1638.4
1639.2
1639.9
1640.6
1641.4
1642.1
1642.8
1643.6
1644.3
1645
1645.7
1646.5
1647.2
1648
1648.7
1649.5
1650.2
1650.9
1651.4
1652.4
1653.2
1653.9
1654.6
1655.4
1656.1
1656.8
1657.6
1658.3
1659
1659.8
1660.5
1661.3
1662
1662.8
1663.5
1664.3
1665
1665.7
1666.4
1667.2
1667.9
1668.6
1669.4
1670.1
1670.9
1671.6
1672.4
1673.1
1673.8
1674.6
1675.3
1676.1
1676.8
1677.5
1678.3
1679
1679.7
1680.5
1681.2
1682
1682.3
1683.4
1684.2
1684.6
1685.6
1686.4
1687.1
1687.8
1688.5
1689.2
1689.7
1690.7
1691.4
1692.1
1692.9
1693.6
1694.3
1695
1695.7
1696.5
1697.2
1697.9
1698.7
1699.4
1700.1
1700.9
1701.6
1702.3
1703
1703.8
1704.5
1705.2
1705.9
1706.7
1707.4
1708.2
1708.9
1709.6
1710.3
1711.1
1711.4
1712.5
1713.2
1714
1714.7
1715.4
1716.1
1716.9
1717.6
1718.3
1719.1
1719.8
1720.5
1721.3
1722
1722.7
1723.5
1724.2
1725
1725.7
1726.4
1727.2
1727.9
1728.7
1729.4
1730.1
1730.9
1731.6
1732.4
1733.1
1733.9
1734.6
1735.3
1736.1
1736.8
1737.5
1738.3
1739
1739.8
1740.5
1741.2
1741.9
1742.7
1743.4
1744.2
1744.9
1745.6
1746.3
1747.1
1747.8
1748.5
1749.3
1750
1750.8
1751.5
1752.2
1752.9
1753.7
1754.4
1755.1
1755.9
1756.6
1757.3
1758.1
1758.8
1759.5
1760.3
1761
1761.7
1762.4
1763.2
1763.9
1764.6
1765.4
1766.1
1766.8
1767.5
1768.3
1769
1769.8
1770.5
1771.2
1772
1772.7
1773.4
1774.2
1774.9
1775.6
1776.3
1777.1
1777.8
1778.5
1779.3
1780
1780.7
1781.5
1782.2
1783
1783.7
1784.5
1785.2
1786
1786.7
1787.4
1788.2
1788.9
1789.6
1790.4
1791.1
1791.9
1792.6
1793.4
1794.1
1794.8
1795.6
1796.3
1797.1
1797.8
1798.5
1799.3
1800
1800.8
1801.5
1802.2
1802.9
1803.7
1804.4
1805.2
