0.025
0.13889
0.86667
2.3194
2.9944
4.4111
5.0583
6.5056
7.2028
8.6417
9.325
10.714
11.367
12.881
13.581
15.025
15.689
17.111
17.8
19.275
19.975
21.389
22.047
23.436
24.15
25.597
26.286
27.636
28.322
29.692
30.386
31.806
32.497
33.881
34.544
35.933
36.667
37.078
38.103
38.522
38.797
39.236
39.619
40.039
40.339
40.736
40.803
41.372
41.717
42.05
42.383
42.742
43.108
43.45
43.775
44.183
44.486
44.828
45.172
45.508
45.822
46.142
46.417
46.728
47.044
47.375
47.828
48.183
48.636
48.939
49.25
49.603
49.933
50.367
50.711
50.972
51.1
52.292
52.972
54.386
54.764
54.889
55.1
55.456
55.769
56.064
56.381
56.672
57.003
57.333
57.633
57.919
58.228
58.589
58.842
59.208
59.533
60.022
60.364
60.631
61.436
61.839
62.175
62.536
62.958
63.261
63.564
64.372
65.283
65.961
67.158
68.153
69.072
69.958
70.822
71.186
71.55
72.678
73.331
74.472
75.153
75.711
76.272
77.181
77.886
78.283
79.769
80.458
80.875
81.819
82.908
83.578
84.908
85.642
86.836
87.817
88.733
89.678
90.658
91.625
92.608
93.344
94.433
95.408
96.411
97.433
98.389
99.333
100.29
101.22
102.2
103.19
104.17
105.13
106.06
106.97
107.96
108.98
109.93
110.9
111.84
112.78
113.75
114.72
115.71
116.67
117.59
118.5
119.4
120.37
121.35
122.28
123.21
124.13
125.03
125.96
126.91
127.85
128.58
129.67
130.29
131.41
132.21
132.63
133.39
133.7
134.02
135.19
135.79
137.03
137.66
138.96
139.62
140.9
141.52
142.73
143.34
144.69
145.33
146.63
147.26
148.53
149.14
150.44
151.11
152.41
153.06
154.33
154.93
156.29
156.97
158.26
158.91
160.18
160.81
162.14
162.8
164.14
164.78
166.07
166.68
168.03
168.7
170.05
170.67
171.97
172.6
173.89
174.54
175.9
176.53
177.87
178.47
179.8
180.46
181.82
182.45
183.77
184.38
185.72
186.38
187.75
188.39
189.72
190.34
191.65
192.24
193.7
194.26
195.65
196.29
197.59
198.17
199.63
200.2
201.61
202.2
203.55
204.15
205.61
206.2
207.57
208.18
209.53
210.11
211.59
212.17
213.57
214.12
215.51
216.09
217.58
218.15
219.57
220.14
221.52
222.11
223.58
224.16
225.59
226.14
227.53
228.11
229.56
230.12
231.54
232.1
233.51
234.17
235.57
236.15
237.54
238.09
239.49
240.07
240.39
240.71
241.78
242.14
242.26
242.43
242.79
243.11
243.46
243.76
244.11
244.44
244.78
245.16
245.53
245.88
246.22
246.43
246.63
247.59
247.89
248.11
248.26
248.55
248.96
249.35
249.69
250.01
250.36
250.66
251
251.29
251.65
252.01
252.37
252.68
252.99
253.29
253.65
253.96
254.27
254.63
254.93
255.22
255.54
255.84
256.14
256.45
256.73
257.01
257.3
257.6
257.88
258.2
258.47
258.81
259.16
259.53
259.83
260.19
260.56
260.95
261.45
261.72
262.32
263
264.46
265.46
266.44
267.12
267.5
269.18
269.47
269.59
269.81
270.22
270.51
270.82
271.13
271.47
271.74
272.05
272.37
272.69
272.99
273.27
273.57
273.75
274.03
274.31
274.6
274.85
275.16
275.45
275.77
276.04
276.36
276.66
276.92
277.25
277.52
277.78
278.07
278.37
278.64
278.96
279.29
279.64
280.01
280.43
280.91
281.07
281.73
282.54
283.15
283.74
284.39
285.51
286.36
287.18
288.04
288.91
289.74
290.55
291.35
292.15
292.91
293.71
294.56
295.39
296.19
297
297.77
298.53
299.3
300.09
300.87
301.61
301.96
302.38
303.11
303.85
304.59
305.32
306.07
306.86
307.63
308.38
309.12
309.84
310.44
310.57
311.29
312.07
312.84
313.6
314.33
315.07
315.82
316.56
317.27
318.04
318.81
319.59
320.35
320.75
321.09
321.81
322.52
323.26
324.02
324.79
325.55
326.28
326.99
327.7
328.36
329.02
329.71
330.38
331.12
331.81
332.49
333.18
333.82
334.51
335.21
335.48
335.91
336.67
337.39
338.09
338.3
338.82
339.51
340.25
340.96
341.74
342.54
343.34
344.13
344.89
345.64
345.98
346.4
347.16
347.95
348.73
349.52
350.28
351.04
351.8
352.54
353.28
354.06
354.87
355.65
356.42
357.16
357.9
358.63
359.39
360.2
360.99
361.75
362.51
363.29
364.04
364.76
365.53
366.33
367.13
367.91
368.68
369.42
370.17
370.93
371.7
372.51
373.29
374.07
374.84
375.61
376.37
377.12
377.91
378.73
379.54
380.33
381.09
381.85
382.6
383.38
384.2
385.02
385.81
386.62
387.42
388.19
388.95
389.76
390.57
391.41
392.23
393.02
393.79
394.57
395.37
396.21
397.03
397.84
398.66
399.46
400.25
401.04
401.82
402.67
403.52
404.34
405.14
405.94
406.7
407.52
408.38
409.22
410.04
410.86
411.66
412.45
413.23
414.05
414.88
415.7
416.5
417.29
418.05
418.73
418.82
419.64
420.46
421.12
421.26
422.06
422.84
423.61
424.38
425.14
425.92
426.76
427.57
428.35
429.11
429.88
430.61
431.4
432.22
433.02
433.81
434.6
435.38
436.14
436.88
437.65
438.46
439.27
440.06
440.84
441.59
442.35
443.13
443.82
443.93
444.72
445.51
446.28
447.04
447.43
447.81
448.56
449.29
450.09
450.91
451.69
452.45
453.21
453.96
454.71
455.5
456.29
457.08
457.86
458.65
459.41
460.16
460.88
461.66
462.46
463.26
464.04
464.81
465.56
466.32
467.07
467.85
468.64
469.43
470.18
470.94
471.71
472.44
473.17
473.51
473.96
474.78
475.57
476.32
477.07
477.81
478.55
479.31
480.08
480.87
481.64
482.18
482.43
483.19
483.94
484.67
485.44
486.24
487.04
487.82
488.6
489.35
490.11
490.87
491.65
492.44
493.24
494
494.78
495.56
496.31
497.05
497.86
498.68
499.47
500.24
501
501.75
502.52
503.28
504.08
504.89
505.67
506.47
507.24
507.99
508.72
509.52
510.32
511.13
511.92
512.69
513.45
514.23
514.98
515.76
516.57
517.3
517.38
518.15
518.94
519.05
519.72
520.48
521.23
522.05
522.86
523.66
524.43
525.2
525.97
526.73
527.52
528.34
529.14
529.94
530.75
531.53
532.28
533.04
533.84
534.68
535.51
536.29
537.06
537.85
538.62
539.41
540.23
541.05
541.85
542.66
543.46
544.23
544.99
545.82
546.66
547.48
548.27
549.05
549.84
550.61
551.43
552.27
553.09
553.93
554.74
555.53
556.31
557.09
557.91
558.77
559.59
560.4
561.2
562.01
562.78
563.59
564.43
565.26
566.08
566.89
567.67
568.45
569.23
570.08
570.92
571.73
572.54
573.33
574.13
574.91
575.73
576.54
577.37
578.2
578.99
579.77
580.54
581.32
582.16
583.01
583.83
584.62
585.43
586.23
587.01
587.83
588.67
589.49
590.32
591.12
591.91
592.67
593.5
594.36
595.19
596.01
596.83
597.62
598.42
599.22
600.06
600.9
601.76
602.58
603.37
604.17
604.96
605.81
606.69
607.53
608.36
609.18
610.01
610.8
611.63
612.49
613.34
614.18
615.01
615.83
616.61
617.46
618.33
619.19
620.02
620.86
621.68
622.51
623.32
624.18
625.06
625.92
626.76
627.57
628.39
629.2
630.09
630.96
631.82
632.65
633.48
634.31
635.11
635.96
636.84
637.69
638.54
639.37
640.18
640.99
641.88
642.76
643.6
644.44
645.26
646.1
646.92
647.79
648.67
649.57
650.41
651.24
652.05
652.86
653.73
654.61
655.47
656.3
657.14
657.98
658.78
659.62
660.51
661.37
662.23
663.07
663.89
664.7
665.57
666.45
667.31
668.16
668.99
669.84
670.66
671.52
672.41
673.31
674.17
675.01
675.85
676.67
677.54
678.44
679.32
680.16
681.02
681.88
682.68
683.54
684.44
685.33
686.22
687.06
687.89
688.73
689.61
690.5
691.38
692.24
693.1
693.97
694.79
695.67
696.59
697.5
698.38
699.23
700.08
700.91
701.81
702.73
703.6
704.47
705.37
706.23
707.06
707.97
708.88
709.77
710.65
711.5
712.36
713.23
714.13
715.02
715.91
716.78
717.66
718.5
719.38
720.28
721.21
722.09
722.94
723.8
724.63
725.51
726.43
727.34
728.21
729.11
729.97
730.8
731.69
732.61
733.52
734.42
735.28
736.14
737.02
737.93
738.84
739.73
740.61
741.49
742.36
743.22
744.12
745.05
745.94
746.8
747.67
748.51
749.41
750.34
751.25
752.15
753.05
753.92
754.76
755.66
756.58
757.51
758.4
759.29
760.17
761.07
762.01
762.93
763.85
764.76
765.65
766.52
767.41
768.36
769.31
770.22
771.11
771.99
772.87
773.83
774.77
775.69
776.64
777.54
778.42
779.33
780.29
781.26
782.18
783.1
784.04
784.95
785.92
786.9
787.85
788.81
789.73
790.65
791.59
792.61
793.57
794.51
795.46
796.37
797.32
798.3
799.26
800.23
801.16
802.08
802.99
803.97
804.97
805.93
806.86
807.79
808.72
809.69
810.66
811.62
812.57
813.52
814.44
815.37
816.41
817.38
818.33
819.27
820.21
821.15
822.13
823.11
824.08
825.03
825.96
826.88
827.86
828.86
829.83
830.78
831.71
832.65
833.61
834.59
835.55
836.51
837.46
838.38
839.33
840.35
841.33
842.26
843.2
844.14
845.08
846.06
847.03
848.01
848.97
849.89
850.81
851.79
852.78
853.75
854.69
855.63
856.56
857.51
858.5
859.47
860.44
861.39
862.31
863.25
864.26
865.25
866.19
867.13
868.07
869.01
869.99
870.97
871.97
872.92
873.84
874.76
875.73
876.74
877.7
878.65
879.6
880.52
881.47
882.47
883.43
884.42
885.35
886.27
887.21
888.21
889.19
890.13
891.06
892
892.93
893.91
894.89
895.88
896.83
897.74
898.65
899.61
900.62
901.58
902.52
903.49
904.42
905.36
906.36
907.34
908.32
909.25
910.18
911.13
912.12
913.1
914.06
915.01
915.96
916.89
917.86
918.84
919.83
920.76
921.69
922.59
923.56
924.58
925.53
926.49
927.46
928.38
929.33
930.32
931.31
932.27
933.19
934.13
935.06
936.06
937.04
937.99
938.94
939.89
940.81
941.77
942.78
943.76
944.7
945.63
946.55
947.53
948.56
949.52
950.5
951.46
952.39
953.33
954.33
955.33
956.3
957.26
958.19
959.17
960.17
961.16
962.14
963.1
964.06
964.99
965.98
967
967.98
968.92
969.87
970.8
971.61
972.63
973.61
974.61
975.57
976.5
977.47
978.47
979.49
980.45
981.4
982.35
983.32
984.32
985.3
986.26
987.22
988.16
989.09
990.1
991.12
992.09
993.04
993.98
994.93
995.94
996.94
997.91
998.89
999.84
1000.8
1001.8
1002.8
1003.8
1004.7
1005.7
1006.6
1007.6
1008.6
1009.6
1010.6
1011.6
1012.5
1013.5
1014.5
1015.5
1016.5
1017.4
1018.3
1019.3
1020.3
1021.3
1022.3
1023.2
1024.2
1025.1
1026.1
1027.1
1028.1
1029
1030
1030.9
1031.9
1032.9
1033.8
1034.8
1035.8
1036.7
1037.7
1038.7
1039.7
1040.6
1041.6
1042.5
1043.5
1044.5
1045.4
1046.4
1047.4
1048.3
1049.3
1050.3
1051.3
1052.3
1053.2
1054.2
1055.1
1056.1
1057.1
1058.1
1059.1
1060
1061
1062
1063
1063.9
1064.9
1065.9
1066.8
1067.8
1068.8
1069.8
1070.8
1071.7
1072.6
1073.6
1074.6
1075.6
1076.6
1077.5
1078.5
1079.4
1080.4
1081.4
1082.4
1083.4
1084.3
1085.2
1086.3
1087.3
1088.2
1089.2
1090.1
1091.1
1092.1
1093.1
1094.1
1095
1096
1096.9
1097.9
1099
1099.9
1100.9
1101.9
1102.8
1103.8
1104.8
1105.8
1106.8
1107.7
1108.7
1109.7
1110.7
1111.7
1112.6
1113.6
1114.5
1115.5
1116.5
1117.5
1118.4
1119.4
1120.3
1121.3
1122.3
1123.3
1124.2
1125.2
1126.1
1127.1
1128.1
1129
1130
1131
1131.9
1132.8
1133.8
1134.8
1135.8
1136.8
1137.7
1138.7
1139.6
1140.6
1141.6
1142.6
1143.5
1144.5
1145.4
1146.5
1147.5
1148.4
1149.4
1150.3
1151.3
1152.3
1153.3
1154.3
1155.2
1156.2
1157.1
1158.1
1159.1
1160.1
1161
1162
1162.9
1163.9
1164.9
1165.9
1166.8
1167.8
1168.7
1169.7
1170.7
1171.7
1172.7
1173.6
1174.5
1175.5
1176.5
1177.5
1178.5
1179.4
1180.3
1181.3
1182.3
1183.3
1184.3
1185.2
1186.2
1187.1
1188.1
1189.1
1190.1
1191
1192
1192.9
1193.9
1194.9
1195.9
1196.9
1197.8
1198.8
1199.8
1200.8
1201.8
1202.8
1203.7
1204.7
1205.7
1206.7
1207.7
1208.6
1209.6
1210.5
1211.5
1212.6
1213.6
1214.5
1215.5
1216.4
1217.4
1218.4
1219.4
1220.3
1221.3
1222.2
1223.2
1224.2
1225.2
1226.2
1227.1
1228.1
1229
1230
1231
1232
1233
1233.9
1234.9
1235.9
1236.9
1237.9
1238.8
1239.8
1240.7
1241.7
1242.8
1243.7
1244.7
1245.7
1246.6
1247.6
1248.6
1249.6
1250.6
1251.5
1252.5
1253.5
1254.5
1255.5
1256.5
1257.4
1258.4
1259.3
1260.4
1261.4
1262.3
1263.3
1264.2
1265.2
1266.2
1267.2
1268.2
1269.1
1270.1
1271
1272
1273
1274
1274.9
1275.9
1276.8
1277.8
1278.8
1279.8
1280.8
1281.7
1282.6
1283.6
1284.7
1285.6
1286.6
1287.5
1288.5
1289.4
1290.5
1291.4
1292.4
1293.4
1294.3
1295.3
1296.3
1297.3
1298.3
1299.2
1300.2
1301.2
1302.2
1303.2
1304.2
1305.1
1306.1
1307
1308.1
1309.1
1310.1
1311
1312
1313
1314
1315
1316
1317
1317.9
1318.8
1319.8
1320.9
1321.8
1322.8
1323.8
1324.7
1325.7
1326.7
1327.7
1328.7
1329.6
1330.5
1331.5
1332.5
1333.5
1334.5
1335.4
1336.4
1337.4
1338.4
1339.4
1340.4
1341.3
1342.3
1343.2
1344.3
1345.3
1346.3
1347.2
1348.2
1349.2
1350.2
1351.2
1352.2
1353.1
1354.1
1355.1
1356.1
1357.1
1358.1
1359.1
1360
1361
1362
1363
1364
1365
1365.9
1366.9
1367.9
1368.9
1369.9
1370.9
1371.8
1372.7
1373.7
1374.7
1375.7
1376.7
1377.6
1378.6
1379.6
1380.6
1381.6
1382.5
1383.5
1384.4
1385.4
1386.5
1387.4
1388.4
1389.4
1390.3
1391.3
1392.3
1393.3
1394.3
1395.3
1396.2
1397.2
1398.2
1399.2
1400.2
1401.2
1402.1
1403.1
1404.1
1405.1
1406.1
1407.1
1408.1
1409
1410.1
1411.1
1412.1
1413.1
1414
1415
1416
1417
1418
1419
1420
1420.9
1422
1423
1424
1424.9
1425.9
1426.9
1427.9
1428.9
1429.8
1430.8
1431.8
1432.7
1433.7
1434.8
1435.7
1436.7
1437.7
1438.6
1439.6
1440.6
1441.6
1442.6
1443.6
1444.5
1445.5
1446.5
1447.5
1448.5
1449.4
1450.4
1451.4
1452.4
1453.4
1454.4
1455.4
1456.3
1457.3
1458.3
1459.3
1460.3
1461.3
1462.2
1463.2
1464.2
1465.3
1466.3
1467.2
1468.2
1469.2
1470.2
1471.2
1472.2
1473.1
1474.1
1475
1476
1477
1478
1479
1479.9
1480.9
1481.9
1482.9
1483.9
1484.9
1485.8
1486.8
1487.8
1488.8
1489.8
1490.8
1491.8
1492.7
1493.7
1494.7
1495.7
1496.7
1497.7
1498.6
1499.6
1500.6
1501.6
1502.6
1503.6
1504.5
1505.6
1506.6
1507.6
1508.5
1509.5
1510.5
1511.5
1512.5
1513.5
1514.5
1515.5
1516.4
1517.4
1518.5
1519.5
1520.4
1521.5
1522.4
1523.4
1524.5
1525.5
1526.4
1527.4
1528.4
1529.3
1530.4
1531.4
1532.4
1532.8
1533.1
1534.4
1534.6
1534.8
1535
1536.5
1537.2
1538.5
1539.2
1540.5
1540.8
1540.9
1541.2
1541.6
1542
1542.3
1542.6
1542.9
1543.3
1543.6
1543.9
1544.3
1544.6
1544.9
1545.1
1545.4
1545.8
1546.1
1546.4
1546.7
1547
1547.3
1547.7
1548
1548.3
1548.7
1549
1549.3
1549.6
1550
1550.3
1550.6
1550.9
1551.1
1551.5
1551.7
1552
1552.3
1552.6
1552.9
1553.2
1553.5
1553.9
1554.1
1554.4
1554.7
1555
1555.3
1555.6
1555.9
1556.2
1556.5
1556.8
1557.1
1557.4
1557.7
1558
1558.2
1558.5
1558.8
1559
1559.4
1559.7
1560
1560.4
1560.6
1561
1561.3
1561.5
1561.8
1562.1
1562.4
1562.7
1563
1563.3
1563.5
1563.8
1564.1
1564.3
1564.6
1564.9
1565.2
1565.5
1565.8
1566.1
1566.4
1566.7
1567
1567.2
1567.5
1567.8
1568.1
1568.4
1568.7
1568.9
1569.2
1569.5
1569.8
1570
1570.3
1570.5
1570.8
1571.1
1571.4
1571.6
1571.9
1572.2
1572.5
1572.8
1573.1
1573.4
1573.6
1573.9
1574.2
1574.5
1574.7
1575
1575.3
1575.5
1575.8
1576.1
1576.3
1576.6
1576.9
1577.1
1577.4
1577.7
1578
1578.3
1578.5
1578.8
1579.1
1579.3
1579.6
1579.9
1580.2
1580.5
1580.7
1581
1581.3
1581.5
1581.8
1582
1582.3
1582.5
1582.8
1583.1
1583.4
1583.6
1583.8
1583.9
1584.1
1584.3
1584.6
1584.8
1585.1
1585.3
1585.6
1585.8
1586.1
1586.4
1586.6
1586.9
1587.1
1587.4
1587.7
1587.9
1588.3
1588.6
1588.9
1589.3
1589.7
1589.8
1590.1
1590.4
1590.6
1590.9
1591.2
1591.5
1591.8
1592
1592.3
1592.5
1592.8
1593
1593.3
1593.7
1593.9
1594.1
1594.4
1594.7
1595
1595.2
1595.5
1595.8
1596
1596.3
1596.6
1596.8
1597.1
1597.4
1597.7
1598
1598.2
1598.5
1598.6
1598.9
1599.2
1599.5
1599.9
1600.3
1600.6
1600.9
1601.1
1601.4
1601.8
1602.2
1602.5
1602.9
1603.1
1603.4
1603.7
1603.9
1604.2
1604.4
1604.8
1605
1605.3
1605.5
1605.8
1606.1
1606.3
1606.6
1606.8
1607.2
1607.4
1607.9
1608.2
1608.5
1608.8
1609
1609.3
1609.5
1609.8
1610.1
1610.4
1610.6
1610.9
1611.2
1611.5
1611.8
1612.1
1612.3
1612.6
1612.9
1613.1
1613.4
1613.5
1613.9
1614.1
1614.4
1614.6
1614.9
1615.2
1615.4
1615.7
1616
1616.3
1616.6
1616.9
1617.1
1617.4
1617.6
1617.9
1618.2
1618.4
1618.7
1619
1619.2
1619.5
1619.8
1620
1620.3
1620.5
1620.8
1621.1
1621.4
1621.6
1621.8
1622.2
1622.5
1622.8
1623
1623.3
1623.5
1623.8
1624
1624.2
1624.6
1624.8
1625.2
1625.4
1625.7
1625.9
1626.3
1626.5
1626.8
1627
1627.4
1627.8
1628.1
1628.4
1628.7
1629
1629.2
1629.5
1629.8
1630.1
1630.4
1630.8
1631.2
1631.6
1631.9
1632.2
1632.5
1632.7
1633
1633.3
1633.6
1633.9
1634.2
1634.5
1634.7
1635
1635.4
1635.8
1636.2
1636.6
1636.9
1637.3
1637.6
1637.9
1638.7
1639.3
1640.5
1642.8
1645.3
1646.8
1648
1649.2
1650.4
1651.5
1652.7
1653.8
1654.9
1656.1
1657.2
1658.4
1659.5
1660.6
1661.7
1662.9
1664
1665.1
1666.2
1667.3
1668.5
1669.6
1670.7
1671.8
1672.8
1673.9
1674.9
1676
1677
1677.9
1678.9
1679.9
1680.9
1681.8
1682.8
1683.7
1684.6
1685.5
1686.5
1687.4
1688.3
1689.2
1690
1690.9
1691.8
1692.7
1693.6
1694.4
1695.3
1696.1
1697
1697.9
1698.8
1699.6
1700.5
1701.3
1702.8
1704
1704.9
1706.4
1707.5
1708.4
1709.4
1710.4
1711.3
1712.2
1713.2
1714.1
1715.1
1716
1717
1718
1719
1719.9
1720.9
1722
1723
1724.1
1725.1
1726.1
1727.1
1728.2
1729.2
1730.2
1731.3
1732.2
1733.2
1734.3
1735.3
1736.2
1737.2
1738.1
1739.1
1740
1741
1741.9
1742.8
1743.7
1744.6
1745.5
1746.4
1747.3
1748.2
1748.6
1748.9
1749.8
1750.4
1751.3
1752
1752.5
1753.3
1753.8
1753.9
1754.5
1755
1755.4
1755.9
1756.4
1756.8
1757.3
1757.8
1758.3
1758.8
1759.3
1759.8
1760.3
1760.7
1761.2
1761.7
1762.2
1762.7
1763.2
1763.7
1764.2
1764.7
1765.2
1765.7
1766.2
1766.7
1767.2
1767.7
1768.1
1768.6
1769.2
1769.7
1770.2
1770.7
1771.2
1771.7
1772.2
1772.7
1773.2
1773.6
1774.1
1774.6
1775.1
1775.6
1776.1
1776.6
1777.1
1777.6
1778.1
1778.6
1779.1
1779.6
1780
1780.5
1781
1781.6
1782.1
1782.6
1783.1
1783.6
1784
1784.5
1785
1785.5
1786
1786.5
1787
1787.5
1788
1788.5
1789
1789.5
1790
1790.5
1791
1791.5
1791.9
1792.4
1792.9
1793.4
1793.9
1794.5
1795
1795.5
1796
1796.5
1797
1797.5
1797.9
1798.4
1798.9
1799.5
1800
1800.5
1801
1801.5
1802
1802.5
1803
1803.5
1804
1804.5
1805
