0.025
0.12778
0.58056
1.3417
1.9361
2.3694
3.2806
3.8278
4.3861
5.1667
5.7167
6.2278
7.1056
7.6306
8.1389
8.8917
9.475
10.017
10.794
11.381
11.839
12.681
13.239
13.733
14.433
15.039
15.467
16.386
16.958
17.511
18.006
18.275
18.822
19.281
19.914
20.414
20.964
21.528
22.086
22.481
22.631
23.103
23.7
24.242
24.783
25.242
25.817
26.311
26.803
27.289
27.875
28.425
28.953
29.431
29.975
30.481
30.986
31.456
32.017
32.492
33.022
33.486
34.092
34.642
35.222
35.817
36.194
36.386
36.922
37.461
37.981
38.472
39.017
39.586
40.136
40.608
41.236
41.767
42.272
42.864
43.411
43.975
44.536
45.114
45.617
46.325
46.942
47.467
48.089
48.653
49.208
49.767
50.306
50.85
51.442
52.019
52.583
53.033
53.703
54.272
54.792
55.139
55.331
55.847
56.364
56.814
57.558
58.144
58.622
59.331
59.889
60.356
60.967
61.522
62.053
62.264
62.478
63.161
63.733
64.244
64.953
65.528
66.072
66.672
67.236
67.764
68.231
69.042
69.611
70.086
70.869
71.433
71.872
72.558
73.114
73.617
74.231
74.767
75.328
75.714
76.103
76.756
77.344
77.814
78.65
79.181
79.639
80.453
81.028
81.511
82.161
82.722
83.289
83.861
84.442
84.994
85.447
86.286
86.8
87.331
88.061
88.647
89.1
89.769
90.322
90.886
91.461
92.028
92.547
93.117
93.714
94.322
94.786
95.569
96.142
96.364
96.589
97.281
97.842
98.289
98.978
99.558
100.07
100.38
100.69
101.25
101.8
102.26
102.9
103.44
103.97
104.47
105.03
105.66
106.12
107.04
107.56
108.03
108.85
109.39
109.86
110.53
111.13
111.62
112.53
113.11
113.61
114.54
115.04
115.54
116.4
116.92
117.45
118.25
118.84
119.28
120.13
120.67
121.17
121.97
122.48
122.94
123.72
124.31
124.78
125.63
126.19
126.66
127.38
127.95
128.36
129.14
129.72
130.18
130.96
131.52
131.74
131.97
132.69
133.25
133.69
134.37
134.94
135.42
136.17
136.78
137.26
137.93
138.51
138.76
139.02
139.78
140.32
140.77
141.69
142.23
142.75
143.63
144.17
144.68
145.36
145.95
146.34
147.16
147.75
148
148.26
148.99
149.54
150.01
150.72
151.29
151.76
152.4
153.01
153.54
153.95
154.36
155
155.42
156.29
156.82
157.3
158.14
158.67
159.17
159.87
160.47
160.93
161.75
162.34
162.8
163.55
164.1
164.51
165.29
165.87
166.11
166.34
167.08
167.64
168.11
168.79
169.36
169.89
170.57
171.16
171.63
172.49
173.11
173.56
174.3
174.87
175.32
176.01
176.56
177.08
177.4
177.72
178.31
178.88
179.34
180.15
180.7
181.16
181.8
182.32
182.83
183.38
183.94
184.5
184.97
185.53
186.04
186.58
187.03
187.67
188.19
188.7
189.26
189.84
190.42
190.89
191.61
192.19
192.63
193.38
193.92
194.34
195.08
195.67
196.12
196.89
197.46
197.9
198.64
199.2
199.63
200.35
200.88
201.35
202.1
202.69
203.15
203.82
204.39
204.83
205.53
206.09
206.29
206.5
207.21
207.78
208.25
208.92
209.46
210.02
210.31
210.6
211.14
211.68
212.22
212.75
213.31
213.79
214.56
215.14
215.57
216.3
216.86
217.31
217.96
218.46
219
219.56
220.17
220.74
221.22
222.03
222.57
223.01
223.68
224.23
224.72
225.3
225.86
226.41
226.87
227.48
227.99
228.54
228.99
229.57
230.08
230.57
231.02
231.67
232.24
232.79
233.34
233.87
234.43
234.87
235.59
236.14
236.57
237.22
237.79
238.36
238.93
239.51
240.09
240.53
241.34
241.86
242.29
243.02
243.59
244.07
244.74
245.3
245.8
246.43
247.03
247.57
248.24
248.78
249.22
249.99
250.59
251.04
251.75
252.32
252.78
253.4
253.96
254.53
255.12
255.71
256.29
256.79
257.56
258.13
258.57
259.3
259.84
260.26
260.9
261.47
261.99
262.6
263.15
263.69
264.15
264.88
265.43
265.88
266.53
267.09
267.6
268.26
268.86
269.44
269.89
270.73
271.25
271.7
272.51
273.05
273.55
274.3
274.87
275.09
275.31
275.98
276.56
277.04
277.68
278.23
278.7
279.36
279.96
280.49
281.24
281.81
282.25
282.97
283.55
283.99
284.69
285.24
285.73
286.05
286.37
286.92
287.49
287.94
288.7
289.26
289.69
290.37
290.94
291.48
292.13
292.71
293.27
293.73
294.57
295.11
295.56
296.28
296.82
297.26
297.95
298.54
299.12
299.71
300.31
300.85
301.33
302.12
302.64
303.13
304
304.58
305.04
305.74
306.32
306.78
307.44
308
308.46
309.19
309.8
310.26
311.05
311.62
311.84
312.06
312.77
313.35
313.82
314.45
315.01
315.53
316.24
316.82
317.37
318.04
318.63
319.13
319.45
319.77
320.32
320.9
321.52
322.16
322.76
323.36
323.96
324.56
325.18
325.78
326.23
326.93
327.52
328.07
328.75
329.31
329.86
330.43
330.99
331.54
331.98
332.69
333.29
333.74
334.47
335.03
335.55
336.13
336.66
337.17
337.62
338.21
338.73
339.09
339.27
339.76
340.41
340.95
341.49
341.94
342.59
343.15
343.68
344.23
344.73
345.27
345.75
346.38
346.95
347.5
347.95
348.58
349.11
349.62
350.14
350.67
351.19
351.73
352.26
352.8
353.34
353.78
354.36
354.87
355.39
355.84
356.4
356.92
357.49
357.97
358.64
359.2
359.71
360.23
360.76
361.27
361.77
362.3
362.81
363.33
363.81
364.38
364.92
365.46
365.93
366.49
366.97
367.47
367.95
368.42
368.91
369.41
369.59
369.94
370.46
371.01
371.54
372.12
372.3
372.66
373.18
373.69
374.19
374.69
375.23
375.79
376.03
376.27
376.99
377.58
378.06
378.56
378.74
379.3
379.82
380.53
381.12
381.64
382.04
382.44
383.08
383.51
384.41
384.89
385.69
386.25
386.78
387.26
388.07
388.67
389.18
389.83
390.43
390.98
391.44
392.22
392.67
393.42
394.01
394.61
395.09
395.85
396.32
396.99
397.55
398.1
398.55
399.28
399.9
400.51
400.96
401.81
402.43
402.85
403.67
404.23
404.63
405.4
405.99
406.59
407.07
407.85
408.43
408.94
409.6
410.21
410.76
411.25
412.14
412.74
413.2
414.02
414.63
415.05
415.77
416.3
416.81
417.53
418.14
418.72
419.24
420.2
420.72
421.49
422.11
422.66
423.16
424.07
424.67
425.21
426
426.58
427.01
427.82
428.37
428.82
429.74
430.32
430.84
431.66
432.27
432.74
433.51
434.07
434.48
435.26
435.9
436.36
437.26
437.85
438.27
439.11
439.71
440.13
440.93
441.52
441.98
442.91
443.49
443.98
444.83
445.4
445.83
446.68
447.29
447.76
448.63
449.23
449.67
450.46
451.05
451.48
452.31
452.88
453.34
454.26
454.88
455.35
456.13
456.71
457.15
457.92
458.46
458.92
459.62
460.21
460.79
461.4
462.04
462.61
463.16
464.06
464.57
465.08
466.12
466.69
467.22
468.11
468.66
469.16
470.06
470.56
471.07
472.02
472.58
473.14
474.05
474.6
475.1
475.97
476.5
477
477.9
478.47
478.97
479.87
480.42
480.94
481.84
482.34
482.87
483.72
484.34
484.82
485.61
486.19
486.64
487.51
488.05
488.53
489.44
489.99
490.52
491.38
491.97
492.43
493.24
493.77
494.24
495.14
495.71
496.23
497.15
497.68
498.18
499
499.55
500.01
500.85
501.41
501.93
502.91
503.46
503.95
504.88
505.39
505.88
506.87
507.41
507.93
508.93
509.46
509.96
510.87
511.4
511.87
512.71
513.27
513.81
514.74
515.28
515.76
516.61
517.15
517.61
518.45
519
519.49
520.46
521.04
521.51
522.36
522.89
523.38
524.13
524.68
525.14
526.1
526.66
527.13
528.05
528.61
529.08
529.92
530.43
530.92
531.72
532.35
532.79
533.62
534.19
534.64
535.54
536.08
536.52
537.42
537.98
538.46
539.32
539.88
540.37
541.23
541.76
542.23
543.08
543.66
544.13
544.92
545.5
545.95
546.61
547.17
547.68
548.22
548.72
549.29
549.77
550.71
551.26
551.74
552.66
553.18
553.65
554.42
555
555.46
556.36
556.92
557.41
558.36
558.88
559.33
560.23
560.74
561.23
562.11
562.71
563.18
563.96
564.53
564.97
565.81
566.34
566.8
567.67
568.25
568.75
569.55
570.15
570.58
571.39
571.93
572.38
573.29
573.86
574.36
575.21
575.77
576.24
577.05
577.62
578.07
578.81
579.4
579.88
580.73
581.32
581.76
582.65
583.19
583.69
584.46
585.04
585.5
586.35
586.95
587.43
588.26
588.83
589.28
590.06
590.6
591.05
591.94
592.54
593.02
593.81
594.4
594.86
595.69
596.23
596.67
597.51
598.08
598.61
599.39
599.98
600.41
601.15
601.72
602.17
602.97
603.58
604.03
604.86
605.44
605.88
606.69
607.26
607.68
608.44
609.02
609.5
610.33
610.93
611.36
612.12
612.7
613.12
613.89
614.44
614.89
615.66
616.24
616.71
617.45
618.03
618.49
619.24
619.8
620.24
621.02
621.6
622.08
622.85
623.41
624.09
624.89
625.41
625.85
626.71
627.26
627.76
628.46
629.01
629.54
630.07
630.59
631.09
631.6
632.13
632.62
633.16
633.71
634.3
634.9
635.48
635.96
636.74
637.3
637.75
638.44
639.02
639.52
640.26
640.85
641.37
641.99
642.58
643.16
643.6
644.38
644.95
645.48
646.13
646.72
647.29
647.84
648.4
648.97
649.42
650.13
650.71
651.2
651.97
652.59
653.04
653.89
654.49
654.92
655.65
656.21
656.64
657.35
657.97
658.52
659.29
659.88
660.33
661.23
661.77
662.23
663.03
663.61
664.1
664.88
665.47
665.94
666.7
667.28
667.69
668.46
669.06
669.52
670.34
670.92
671.38
672.09
672.68
673.12
673.88
674.43
674.86
675.7
676.3
676.8
677.58
678.15
678.58
679.38
679.93
680.36
681.2
681.79
682.27
683.05
683.65
684.1
684.88
685.42
685.88
686.61
687.19
687.66
688.42
689.01
689.46
690.18
690.77
691.22
691.95
692.49
692.93
693.68
694.28
694.74
695.61
696.17
696.64
697.4
697.97
698.39
699.14
699.74
700.2
701.03
701.6
702.05
702.91
703.45
703.91
704.66
705.26
705.75
706.61
707.21
707.66
708.46
709.04
709.48
710.27
710.83
711.28
712.14
712.76
713.24
714.12
714.67
715.17
715.93
716.49
716.93
717.86
718.44
718.96
719.8
720.4
720.88
721.64
722.22
722.61
723.46
724.08
724.54
725.39
725.98
726.44
727.22
727.82
728.26
729.04
729.66
730.11
730.96
731.55
732.01
732.83
733.41
733.84
734.66
735.24
735.77
736.71
737.25
737.75
738.56
739.14
739.59
740.41
741.02
741.44
742.38
742.97
743.46
744.3
744.88
745.31
746.14
746.71
747.16
748.03
748.65
749.12
749.92
750.55
751.03
751.83
752.39
752.82
753.67
754.31
754.76
755.64
756.2
756.66
757.54
758.1
758.57
759.43
760.01
760.5
761.37
761.96
762.48
763.26
763.82
764.27
765.05
765.65
766.12
766.93
767.53
767.96
768.84
769.39
769.88
770.65
771.25
771.68
772.55
773.17
773.66
774.46
775.04
775.48
776.26
776.84
777.28
778.19
778.74
779.25
780.15
780.69
781.18
781.95
782.5
782.93
783.74
784.37
784.83
785.72
786.26
786.75
787.62
788.15
788.58
789.39
790.01
790.47
791.28
791.89
792.32
793.11
793.67
794.15
794.94
795.55
796
796.81
797.41
797.84
798.62
799.22
799.63
800.45
800.99
801.5
802.44
803.01
803.48
804.25
804.83
805.25
806.03
806.61
807.04
807.92
808.48
808.99
809.82
810.41
810.86
811.59
812.16
812.57
813.38
813.99
814.46
815.24
815.82
816.25
817.09
817.65
818.14
818.88
819.48
819.94
820.75
821.36
821.79
822.59
823.15
823.63
824.39
824.98
825.44
826.25
826.85
827.3
828.11
828.7
829.14
829.97
830.52
830.97
831.84
832.46
832.91
833.69
834.28
834.73
835.52
836.1
836.53
837.29
837.88
838.36
839.11
839.71
840.16
840.99
841.57
842.01
842.8
843.41
843.88
844.69
845.29
845.72
846.61
847.19
847.64
848.38
848.96
849.42
850.3
850.9
851.4
852.28
852.82
853.32
854.14
854.71
855.15
856
856.63
857.08
857.94
858.56
859.01
859.8
860.36
860.79
861.69
862.3
862.76
863.61
864.2
864.66
865.47
866.06
866.46
867.26
867.87
868.35
869.19
869.79
870.23
870.96
871.54
871.98
872.69
873.33
873.85
874.62
875.23
875.72
876.64
877.22
877.66
878.53
879.1
879.59
880.31
880.89
881.43
881.96
882.5
883.07
883.65
884.21
884.77
885.38
885.81
886.67
887.28
887.73
888.39
888.94
889.46
889.92
890.63
891.24
891.84
892.41
892.99
893.57
894.03
894.67
895.22
895.75
896.23
896.84
897.45
898.11
898.57
898.74
899.47
900.02
900.51
901.02
901.29
901.87
902.33
903.02
903.24
903.61
904.2
904.69
905.04
905.54
905.86
906.14
906.37
906.61
907.33
907.91
908.35
909.11
909.73
910.29
910.65
911
911.59
912.19
912.65
913.45
914.03
914.44
915.23
915.86
916.09
916.32
917.15
917.75
918.26
918.91
919.52
920.09
920.46
920.84
921.51
922.11
922.75
923.6
924.17
924.7
925.61
926.15
926.62
927.48
928.11
928.61
929.41
930.02
930.47
931.04
932.02
932.53
933.25
933.88
934.49
935.05
935.95
936.5
937.23
937.85
938.39
938.95
939.89
940.46
940.99
941.91
942.48
943.21
943.81
944.38
944.84
945.7
946.33
946.8
947.8
948.35
949.12
949.74
950.35
950.81
951.58
952.2
952.71
953.41
953.99
954.57
955.03
955.72
956.28
956.88
957.59
958.26
958.85
959.38
960.32
960.86
961.36
962.3
962.82
963.31
964.14
964.78
965.25
966.11
966.66
967.16
968.08
968.6
969.15
970.1
970.66
971.19
972.14
972.41
972.68
973.42
974.06
974.59
975.37
976.08
976.68
977.49
978.15
978.73
979.13
979.52
980.11
980.56
981.56
982.12
982.72
983.49
984.11
984.69
985.18
986.03
986.56
987.14
988.17
988.73
989.54
990.18
990.81
991.46
992.1
992.61
993.5
994.15
994.63
995.6
996.15
996.66
997.41
997.99
998.45
999.3
999.89
1000.4
1001.3
1001.6
1001.9
1002.6
1003.2
1003.8
1004.5
1005.2
1005.8
1006.6
1007.3
1007.8
1008.6
1009.2
1009.8
1010.1
1010.4
1011
1011.6
1012.1
1012.8
1013.5
1014
1014.9
1015.5
1016
1016.5
1016.9
1017.6
1018.2
1018.7
1019.3
1019.7
1020.3
1021
1021.4
1022.3
1022.8
1023.4
1024.3
1024.9
1025.6
1026.2
1026.8
1027.3
1028.2
1028.7
1029.2
1030.1
1030.7
1031.3
1032
1032.6
1032.9
1033.2
1034
1034.6
1035.1
1036
1036.6
1037.2
1038
1038.7
1039.3
1040
1040.6
1041.2
1041.9
1042.6
1043.2
1043.9
1044.6
1045.1
1046
1046.6
1047.1
1047.5
1047.8
1048
1048.7
1049.3
1049.7
1050.4
1050.8
1051.4
1052
1052.5
1053.3
1053.9
1054.5
1055.3
1055.9
1056.4
1057
1057.6
1058.1
1058.7
1059.4
1060.1
1060.6
1061.6
1062.1
1062.9
1063.5
1064.1
1064.6
1065.4
1066.1
1066.6
1067.5
1068.2
1068.7
1069.6
1070.2
1070.7
1071.2
1071.6
1072.2
1072.9
1073.3
1074.4
1074.7
1075
1075.7
1076.3
1076.9
1077.6
1078.3
1078.9
1079.8
1080.5
1080.9
1081.4
1081.9
1082.5
1083.1
1083.9
1084.5
1085.1
1086
1086.7
1087.2
1088.1
1088.7
1089.2
1089.7
1090.2
1090.9
1091.6
1092.3
1092.9
1093.5
1094.3
1094.9
1095.5
1096.3
1097
1097.6
1098.4
1099.1
1099.6
1100.4
1101
1101.6
1102.4
1103.1
1103.6
1104.5
1105.1
1105.7
1106.4
1107
1107.6
1108.4
1109.1
1109.7
1110.4
1111
1111.6
1112.4
1113
1113.7
1114
1114.4
1115.1
1115.7
1116.2
1117.2
1117.7
1118.4
1118.9
1119.6
1120.3
1121
1121.6
1122.4
1123.1
1123.5
1124
1124.5
1125.2
1125.8
1126.7
1127
1127.3
1128.1
1128.7
1129.3
1130
1130.6
1131.2
1132.1
1132.7
1133.4
1134.1
1134.8
1135.3
1136
1136.7
1137.2
1138
1138.7
1139.3
1140
1140.6
1141.2
1141.9
1142.5
1143.1
1143.7
1144.4
1145
1145.7
1146.4
1147
1147.7
1148.3
1148.8
1149.6
1150.3
1150.8
1151.6
1152.2
1152.7
1153.5
1154.2
1154.7
1155.5
1156.1
1156.7
1157.4
1158.1
1158.6
1159.4
1160
1160.5
1161.3
1162
1162.6
1163.3
1164
1164.5
1165.3
1165.9
1166.4
1167.2
1167.8
1168.4
1168.7
1169.2
1169.8
1170.4
1171.2
1171.8
1172.3
1172.7
1173
1173.6
1174.2
1174.8
1175.5
1176
1176.6
1177.1
1177.6
1178.2
1178.7
1179.2
1179.7
1180.2
1180.8
1181.3
1181.7
1182.2
1182.7
1183.2
1183.6
1184.1
1184.5
1185
1185.5
1186
1186.5
1187
1187.4
1187.9
1188.3
1188.8
1189.3
1189.8
1190.3
1190.8
1191.3
1191.8
1192.4
1193
1193.6
1194.1
1194.4
1194.6
1195.1
1195.6
1196.2
1196.7
1197.2
1197.8
1198.3
1198.9
1199.5
1200
1200.5
1201.1
1201.6
1202.1
1202.4
1202.6
1203.1
1203.7
1204.2
1204.6
1204.8
1205.3
1205.8
1206.4
1206.9
1207.4
1207.9
1208.4
1209
1209.5
1210.1
1210.6
1211.2
1211.7
1212.3
1212.9
1213.4
1214
1214.5
1215.1
1215.7
1216.3
1216.5
1216.9
1217.5
1218
1218.6
1219.1
1219.3
1219.7
1220.3
1220.8
1221.3
1221.9
1222.6
1223.2
1223.6
1224.2
1224.8
1225.3
1225.8
1226.3
1226.9
1227.5
1228.1
1228.7
1229.2
1229.6
1229.9
1230.5
1231
1231.6
1232.2
1232.7
1233.3
1233.9
1234.5
1235.1
1235.6
1236.2
1236.7
1237.3
1237.8
1238.3
1238.9
1239.4
1240
1240.5
1241.1
1241.6
1242.2
1242.7
1243.3
1243.8
1244.3
1244.9
1245.4
1246.3
1246.8
1247.5
1248
1248.6
1249.3
1249.9
1250.4
1251.1
1251.7
1252
1252.3
1253
1253.6
1254.2
1254.9
1255.5
1256
1256.7
1257.4
1257.9
1258.6
1259.2
1259.6
1259.8
1260.1
1260.4
1260.6
1261
1261.5
1261.6
1262.2
1262.7
1263.3
1263.9
1264.5
1265.1
1265.7
1266.3
1266.9
1267.4
1267.9
1268.6
1269.2
1269.7
1270.3
1270.8
1271.1
1273.8
1273.9
1274.4
1275
1275.5
1276.1
1276.7
1277.2
1278
1278.6
1279.2
1279.8
1279.9
1280.3
1280.9
1281.5
1282.1
1282.7
1283.3
1283.9
1284.5
1285.1
1285.7
1286.2
1286.8
1287.4
1288
1288.8
1289.5
1290
1290.8
1291.3
1291.9
1292.5
1293
1293.6
1294.2
1294.7
1295.3
1295.8
1296.4
1296.9
1297.5
1298
1298.5
1299.1
1299.7
1300.4
1301
1301.6
1302.2
1302.8
1303.4
1304
1304.5
1305.1
1305.6
1306.2
1306.8
1307.3
1307.9
1308.4
1309
1309.6
1310.1
1310.8
1311.5
1312
1312.5
1313.5
1314.1
1314.6
1315.2
1315.7
1316.3
1317.1
1317.6
1318.5
1319.2
1319.6
1320.4
1320.9
1321.5
1322.1
1322.6
1323.4
1324
1324.6
1325.2
1325.8
1326.3
1326.8
1327.6
1328.1
1328.7
1329.2
1329.7
1330.3
1330.8
1331.4
1331.9
1332.5
1333.1
1333.7
1334.5
1335
1335.6
1336.2
1336.8
1337.4
1338.1
1338.6
1339.4
1339.9
1340.6
1341.1
1341.7
1342.4
1343
1343.5
1344.3
1344.9
1345.4
1345.9
1346.7
1346.9
1347.2
1347.9
1348.5
1349
1349.8
1350.3
1350.8
1351.5
1352.1
1352.6
1353
1353.4
1354
1354.6
1355.2
1355.8
1356.3
1356.8
1357.3
1357.8
1358.3
1358.8
1359.3
1359.8
1360.4
1360.9
1361.5
1362.1
1362.7
1363.2
1363.8
1364.3
1364.8
1365.3
1365.9
1366.5
1367.1
1367.7
1368.1
1368.9
1369.5
1370
1370.7
1371.2
1371.8
1372.6
1373.2
1373.9
1374.5
1375.1
1375.7
1376.3
1376.8
1377.4
1378.1
1378.6
1379.5
1380.1
1380.8
1381.5
1382
1382.5
1383
1383.4
1383.9
1384.6
1385.2
1385.7
1386.3
1386.9
1387.5
1388.1
1388.6
1388.9
1389
1389.2
1390
1390.6
1391.2
1391.9
1392.5
1393
1393.7
1394.2
1394.8
1395.1
1395.5
1396.1
1396.7
1397.3
1398
1398.5
1399.3
1400
1400.2
1400.5
1401.2
1401.8
1402.4
1403.1
1403.7
1404.3
1404.7
1405.1
1405.7
1406.2
1406.7
1407.6
1408.2
1408.8
1409.4
1409.9
1410.4
1411.1
1411.6
1412.2
1412.7
1413.3
1413.9
1414.4
1415.1
1415.6
1416.2
1416.7
1417.3
1417.9
1418.3
1419
1419.6
1420.2
1421
1421.6
1422.3
1422.8
1423.5
1424
1424.6
1425.2
1425.8
1426.5
1427.1
1427.7
1428.3
1428.9
1429.5
1430.1
1430.6
1431.2
1431.7
1432.5
1432.8
1433.1
1433.9
1434.5
1435.1
1435.7
1436.3
1436.9
1437.2
1437.5
1438.1
1438.7
1439.2
1439.8
1440.4
1441
1441.8
1442.3
1442.9
1443.5
1444.1
1444.7
1445.3
1445.6
1445.9
1446.5
1447.1
1447.7
1448.4
1449
1449.5
1450.2
1450.9
1451.4
1452.2
1452.8
1453.4
1453.8
1454.2
1454.5
1455
1455.6
1456.3
1456.9
1457.6
1458.1
1458.7
1459.3
1459.9
1460.4
1460.9
1461.5
1462.1
1462.6
1463.3
1463.9
1464.4
1465.2
1465.8
1466.2
1467
1467.6
1468.2
1468.8
1469.4
1469.9
1470.5
1471.1
1471.6
1472.3
1472.9
1473.4
1474.1
1474.8
1475.2
1475.9
1476.5
1477
1477.6
1478.2
1478.7
1479.5
1480.1
1480.7
1481.5
1482.1
1482.7
1483.2
1484
1484.5
1485.1
1485.6
1486.2
1486.7
1487.2
1487.8
1488.4
1489
1489.7
1490.2
1491
1491.6
1492.3
1493
1493.6
1494.2
1494.7
1495
1495.3
1495.8
1496.4
1496.9
1497.6
1498.2
1498.5
1498.8
1499.4
1500
1500.6
1501.2
1501.8
1502.3
1502.9
1503.5
1504.1
1504.5
1505.3
1505.9
1506.1
1506.3
1507
1507.6
1508
1508.7
1509.2
1509.8
1510.5
1511.1
1511.6
1512.4
1513
1513.4
1513.8
1514.2
1514.8
1515.3
1515.9
1516.5
1517
1517.7
1518.3
1518.8
1519.4
1520
1520.4
1521
1521.6
1522.1
1522.7
1523.3
1523.8
1524.4
1525
1525.5
1526.1
1526.6
1527.2
1527.8
1528.1
1528.4
1529
1529.5
1530
1530.6
1531.1
1531.6
1532.2
1532.8
1533.3
1533.8
1534.6
1535.2
1535.7
1536.3
1536.8
1537.4
1538
1538.5
1539.1
1539.7
1540.5
1541.1
1541.8
1542.4
1543
1543.5
1544.1
1544.7
1545.5
1546.1
1546.7
1547.3
1547.9
1548.5
1549.1
1549.7
1550.2
1550.7
1551.3
1552
1552.6
1553.1
1553.5
1553.7
1554.3
1554.9
1555.5
1556.1
1556.4
1556.6
1557.3
1558
1558.6
1559.3
1559.9
1560.5
1561.1
1561.8
1562.4
1563
1563.6
1564.2
1565
1565.7
1566.2
1567
1567.6
1568.2
1568.9
1569.6
1570.2
1570.9
1571.6
1572.2
1572.9
1573.6
1574.1
1574.8
1575.5
1576
1576.9
1577.5
1578.1
1578.8
1579.5
1580
1580.7
1581.4
1582
1582.8
1583.5
1584.1
1584.9
1585.5
1586
1586.8
1587.5
1588
1588.8
1589.5
1590.1
1590.8
1591.5
1592
1592.9
1593.5
1594.3
1595
1595.5
1596.3
1597
1597.5
1598.2
1598.9
1599.4
1600.3
1600.9
1601.5
1602.3
1602.9
1603.5
1604
1604.9
1605.5
1606.3
1606.9
1607.5
1608.2
1608.9
1609.4
1610.2
1610.9
1611.4
1611.9
1612.1
1612.4
1613.1
1613.7
1614.2
1614.7
1615.2
1615.8
1616.4
1617.2
1617.9
1618.5
1619.4
1620
1620.5
1621.4
1622
1622.8
1623.4
1624
1624.8
1625.5
1626.1
1626.9
1627.5
1628
1629.1
1629.6
1630.5
1631.1
1631.6
1632.5
1633.1
1633.8
1634.4
1635
1635.7
1636.4
1637
1637.9
1638.5
1639.3
1639.9
1640.4
1640.9
1641.3
1642
1642.6
1643.5
1644.1
1644.6
1645.1
1645.6
1646.3
1646.8
1647.6
1648.3
1648.8
1649.8
1650.1
1650.3
1651.1
1651.7
1652.3
1652.9
1653.5
1654.1
1654.9
1655.6
1656.1
1656.9
1657.6
1658.1
1658.9
1659.5
1660.1
1660.9
1661.6
1662.2
1662.9
1663.6
1664.1
1664.5
1664.8
1665.5
1666.1
1666.7
1667.3
1667.9
1668.6
1669.2
1669.8
1670.4
1671
1671.6
1672.5
1673.1
1673.6
1674.5
1675.1
1675.9
1676.5
1677
1677.9
1678.5
1679.3
1680
1680.4
1681.3
1681.9
1682.6
1683.2
1683.8
1684.5
1685.4
1685.9
1686.8
1687.4
1687.9
1688.9
1689.6
1690.4
1691.1
1691.5
1692
1692.5
1693.3
1693.8
1694.7
1695.3
1696.2
1696.8
1697.3
1698.4
1699
1699.5
1700.4
1701
1701.7
1702.4
1703
1703.8
1704.4
1704.9
1705.4
1705.9
1706.5
1707
1707.9
1708.5
1709.5
1710.1
1710.6
1711.6
1712.1
1713.1
1713.7
1714.4
1715.2
1715.7
1716.6
1717.2
1717.7
1718.2
1718.6
1719.2
1719.8
1720.8
1721.4
1721.8
1722.9
1723.4
1724.3
1724.9
1725.3
1726.3
1726.8
1727.7
1728.3
1728.9
1729.5
1730.3
1730.8
1731.6
1732.3
1732.8
1733.3
1734.3
1734.9
1735.3
1736.3
1736.8
1737.5
1738.2
1738.7
1739.5
1740.2
1740.7
1741.5
1742.1
1742.6
1743.6
1744.2
1745
1745.7
1746.1
1747.1
1747.6
1748.3
1748.9
1749.5
1750.2
1751
1751.6
1752.1
1753.1
1753.7
1754.5
1755.1
1755.6
1756.6
1757.2
1758
1758.6
1759.1
1759.7
1760.5
1761
1761.8
1762.5
1763.1
1763.7
1764.6
1765.1
1765.9
1766.5
1767
1767.6
1768.6
1769.2
1769.9
1770.6
1771.1
1771.7
1772.6
1773.1
1774
1774.6
1775.4
1776
1776.6
1777.4
1778
1778.5
1779.1
1780.1
1780.7
1781.5
1782.1
1782.6
1783.1
1783.5
1784.1
1784.7
1785
1785.3
1786.1
1786.8
1787.4
1788.1
1788.8
1789.4
1790.2
1790.8
1791.3
1792.1
1792.7
1793.4
1794
1794.6
1795.2
1795.9
1796.6
1797.1
1797.6
1798
1798.6
1799.1
1800.1
1800.6
1801.4
1802
1802.5
1803.3
1803.9
1804.7
1805.4
