0.23333
0.525
1.1806
1.8306
2.4694
3.0917
3.7111
4.3139
4.925
5.5528
6.2111
6.8778
7.5139
8.15
8.7889
9.4139
10.05
10.678
11.278
11.922
12.578
13.242
13.914
14.572
15.219
15.836
16.464
17.069
17.708
18.389
19.067
19.736
20.389
21.028
21.672
22.331
22.947
23.589
24.239
24.906
25.564
26.194
26.85
27.514
28.158
28.814
29.442
30.119
30.831
31.533
32.206
32.858
33.517
34.172
34.8
35.436
36.125
36.794
37.464
38.108
38.756
39.406
40.033
40.661
41.244
41.875
42.544
43.2
43.833
44.494
45.128
45.756
46.361
46.972
47.625
48.278
48.936
49.575
50.208
50.839
51.45
52.078
52.703
53.189
53.9
54.553
55.203
55.853
56.483
57.106
57.722
58.322
58.919
59.533
60.183
60.864
61.55
62.189
62.825
63.439
64.067
64.697
65.283
65.917
66.55
67.136
67.825
68.447
69.086
69.711
70.314
70.822
71.489
72.133
72.797
73.453
74.086
74.697
75.322
75.939
76.536
77.117
77.736
78.383
79.031
79.661
80.283
80.919
81.547
82.15
82.733
83.331
83.953
84.603
85.253
85.894
86.539
87.175
87.808
88.428
89.047
89.722
90.403
91.078
91.744
92.389
93.036
93.667
94.222
94.917
95.525
96.169
96.822
97.492
98.144
98.772
99.394
100
100.47
101.13
101.78
102.44
103.1
103.72
104.37
104.98
105.6
106.23
106.84
107.43
108.05
108.69
109.34
109.96
110.59
111.22
111.83
112.44
113.01
113.63
114.28
114.94
115.58
116.2
116.83
117.43
117.92
118.64
119.25
119.92
120.6
121.23
121.91
122.56
123.21
123.84
124.45
125.04
125.66
126.3
126.95
127.6
128.24
128.85
129.46
130.07
130.69
131.3
131.94
132.61
133.24
133.88
134.52
135.16
135.79
136.42
137.01
137.64
138.28
138.94
139.61
140.24
140.88
141.49
142.11
142.74
143.32
143.99
144.67
145.33
145.98
146.61
147.24
147.86
148.36
149.03
149.64
150.26
150.51
150.89
151.52
152.14
152.78
153.41
154.02
154.63
155.21
155.85
156.16
156.52
157.16
157.63
158.29
158.93
159.54
160.14
160.73
161.35
161.99
162.64
163.28
163.92
164.55
165.19
165.8
166.41
167
167.62
168.28
168.94
169.6
170.25
170.88
171.5
172.12
172.76
173.39
174.06
174.74
175.41
176.07
176.73
177.39
178.04
178.69
179.3
179.95
180.61
181.27
181.94
182.58
183.21
183.82
184.43
185.04
185.67
186.33
187.01
187.65
188.28
188.92
189.56
190.19
190.81
191.41
192.04
192.69
193.21
193.93
194.57
195.21
195.82
196.42
197
197.63
198.31
198.99
199.66
200.29
200.94
201.58
202.2
202.84
203.46
204.11
204.77
205.41
206.06
206.7
207.34
207.97
208.58
209.16
209.81
210.46
211.13
211.81
212.45
213.1
213.72
214.34
214.98
215.59
216.24
216.88
217.54
218.18
218.8
219.43
220.04
220.63
221.2
221.8
222.43
223.07
223.7
224.3
224.9
225.49
226.07
226.67
227.24
227.86
228.51
229.14
229.77
230.37
230.97
231.58
232.17
232.76
233.31
233.93
234.56
235.18
235.81
236.42
237.04
237.63
238.19
238.81
239.39
240.04
240.68
241.32
241.92
242.53
243.14
243.73
244.34
244.94
245.54
246.16
246.79
247.41
248.05
248.43
248.67
249.27
249.86
250.45
251.01
251.6
252.2
252.83
253.44
254.03
254.61
255.19
255.76
256.33
256.91
257.45
258.04
258.46
259.13
259.73
260.29
260.51
260.87
261.44
262.01
262.57
263.1
263.66
264.13
264.81
265.41
265.98
266.55
267
267.62
268.17
268.7
269.24
269.8
270.39
270.96
271.53
272.08
272.63
273.19
273.76
274.29
274.83
275.34
275.9
276.48
277.05
277.61
278.17
278.74
279.28
279.83
280.35
280.88
281.41
281.97
282.53
283.1
283.64
284.19
284.72
285.27
285.79
286.33
286.86
287.38
287.92
288.46
289.03
289.6
290.16
290.72
291.26
291.79
292.31
292.85
293.36
293.91
294.48
295.04
295.63
296.16
296.71
297.24
297.77
298.17
298.74
299.27
299.84
300.39
300.95
301.49
302.06
302.59
303.14
303.67
304.21
304.73
305.23
305.61
306.2
306.79
307.38
307.93
308.46
308.99
309.52
310.05
310.57
311.08
311.63
312.19
312.61
313.19
313.76
314.3
314.85
315.4
315.93
316.47
316.98
317.49
318.04
318.61
319.17
319.74
320.29
320.85
321.4
321.94
322.47
323
323.57
324.14
324.73
325.3
325.88
326.44
327.01
327.56
328.03
328.67
329.21
329.77
330.35
330.94
331.53
332.13
332.69
333.27
333.8
334.34
334.9
335.44
336.02
336.6
337.2
337.77
338.32
338.87
339.41
339.59
339.81
340.47
341
341.54
342.08
342.67
343.24
343.81
344.37
344.81
345.46
346
346.54
347.06
347.46
348.06
348.66
349.23
349.8
350.21
350.79
351.35
351.9
352.43
352.96
353.5
354.07
354.64
355.13
355.74
356.3
356.86
357.42
357.79
358.43
358.96
359.47
360.03
360.59
361.18
361.76
362.32
362.76
363.39
363.93
364.46
364.99
365.54
366.1
366.68
367.23
367.79
368.33
368.88
369.32
369.95
370.5
371.02
371.56
372.12
372.69
373.28
373.83
374.41
374.98
375.51
376.05
376.49
377.09
377.64
378.22
378.81
379.38
379.94
380.49
381.03
381.57
382.13
382.66
383.07
383.69
384.25
384.82
385.39
385.8
386.39
386.96
387.52
388.05
388.58
389.08
389.62
390.16
390.76
391.31
391.88
392.39
392.86
393.45
393.99
394.53
394.79
395.05
395.48
396.13
396.72
397.29
397.85
398.41
398.99
399.54
400.05
400.63
401.15
401.71
402.29
402.86
403.46
404.04
404.61
405.17
405.72
406.28
406.84
407.41
408
408.62
409.22
409.82
410.43
411.02
411.45
412.17
412.78
413.34
413.95
414.55
415.18
415.81
416.4
417.01
417.46
418.13
418.73
419.28
419.89
420.52
421.16
421.46
421.58
421.95
422.32
422.68
423.06
423.43
423.8
424.18
424.54
424.91
425.27
425.64
426.02
426.42
426.81
427.21
427.59
427.98
428.35
428.74
428.96
429.57
430.14
430.71
431.25
431.85
432.48
432.93
433.29
433.89
434.5
435.11
435.7
436.31
436.93
437.54
438.17
438.84
439.51
440.16
440.82
441.45
442.01
442.69
443.28
443.93
444.59
445.25
445.92
446.54
447.17
447.79
448.42
449.05
449.67
450.33
450.96
451.65
452.3
452.95
453.61
454.26
454.89
455.5
456.15
456.84
457.53
458.19
458.84
459.49
460.12
460.75
461.37
462.03
462.71
463.38
464.02
464.66
465.32
465.85
466.6
467.21
467.88
468.55
469.21
469.88
470.52
471.16
471.81
472.43
473.04
473.7
474.39
475.07
475.72
476.36
477.01
477.63
478.26
478.9
479.51
480.17
480.83
481.5
482.16
482.81
483.29
484.02
484.67
485.27
485.91
486.58
487.24
487.9
488.54
489.16
489.67
490.4
491.04
491.66
492.29
492.96
493.61
494.24
494.89
495.52
496.16
496.79
497.39
498.05
498.74
499.42
500.08
500.71
501.34
501.96
502.49
503.16
503.79
504.44
505.07
505.71
506.33
506.99
507.46
507.85
508.42
509.17
509.83
510.5
511.15
511.81
512.44
513.07
513.69
514.29
514.89
515.43
516.14
516.81
517.45
518.09
518.66
519.36
520
520.64
521.26
521.76
522.54
523.2
523.88
524.52
525.16
525.78
526.4
527.02
527.63
528.28
528.95
529.62
530.25
530.88
531.51
532.14
532.79
533.41
534.07
534.73
535.4
536.06
536.72
537.37
538.01
538.65
539.24
539.88
540.57
541.25
541.9
542.54
543.18
543.76
544.42
545.04
545.67
546.32
546.98
547.64
548.27
548.91
549.56
550.19
550.8
551.4
552.04
552.64
553.38
554.06
554.72
555.37
555.67
555.78
556.14
556.53
556.96
557.51
557.98
558.37
558.77
559.16
559.56
559.95
560.32
560.71
561.08
561.46
561.84
562.21
562.6
562.98
563.33
563.71
564.09
564.47
564.86
565.26
565.65
566.05
566.43
566.81
567.19
567.56
567.92
568.29
568.64
569
569.34
569.71
570.1
570.49
570.89
571.27
571.66
572.04
572.41
572.78
573.15
573.52
573.89
574.26
574.63
574.99
575.34
575.71
576.1
576.49
576.87
577.27
577.64
578.02
578.39
578.77
579.16
579.53
579.9
580.27
580.64
581
581.35
581.72
582.11
582.51
582.9
583.31
583.83
584.3
584.44
585.03
585.64
586.23
586.84
587.46
588.12
588.8
589.48
590.17
590.87
591.52
592.18
592.81
593.41
593.89
594.68
595.36
596.02
596.64
597.27
597.88
598.49
599.1
599.42
599.53
599.9
600.29
600.68
601.05
601.44
601.83
602.21
602.59
602.98
603.37
603.75
604.13
604.52
604.89
605.25
605.63
606.02
606.41
606.8
607.18
607.57
607.95
608.32
608.71
609.08
609.46
609.83
610.19
610.56
610.92
611.25
611.63
612.01
612.39
612.79
613.18
613.56
613.96
614.31
614.67
615.04
615.4
615.77
616.14
616.5
616.86
617.2
617.56
617.95
618.33
618.71
619.11
619.48
619.87
620.25
620.63
621.03
621.52
621.82
622.06
622.6
623.12
623.68
624.29
624.92
625.6
626.26
626.94
627.65
628.34
629.02
629.7
630.4
631.09
631.78
632.46
633.12
633.75
634.36
634.99
635.59
636.24
636.9
637.38
638.16
638.79
639.41
640.01
640.62
641.22
641.85
642.5
643.13
643.75
644.39
644.99
645.62
646.13
646.82
647.42
648.03
648.68
649.28
649.98
650.59
651.2
651.8
652.27
652.95
653.56
654.22
654.89
655.54
656.17
656.79
657.42
658.04
658.64
659.24
659.86
660.51
661.1
661.8
662.43
663.08
663.68
664.19
664.88
665.48
666.13
666.77
667.31
668.03
668.64
669.28
669.89
670.51
671.11
671.7
672.33
672.94
673.56
674.18
674.8
675.39
675.98
676.58
677.15
677.76
678.38
679.02
679.68
680.3
680.91
681.51
682.13
682.75
683.34
683.97
684.56
685.24
685.88
686.49
687.12
687.74
688.34
688.94
689.52
690.16
690.82
691.47
692.11
692.71
693.33
693.94
694.54
695.13
695.75
696.4
697.04
697.66
698.28
698.91
699.54
700.14
700.75
701.34
701.94
702.61
703.25
703.91
704.54
705.16
705.77
706.36
706.97
707.46
708.19
708.86
709.48
710.11
710.63
711.31
711.93
712.55
713.14
713.6
714.31
714.97
715.64
716.28
716.9
717.52
718.13
718.73
719.32
719.95
720.6
721.26
721.89
722.52
723.14
723.76
724.4
725.02
725.63
726.26
726.93
727.59
728.22
728.86
729.5
730.13
730.68
731.33
731.98
732.65
733.32
733.64
733.78
734.19
734.73
735.2
735.57
735.96
736.32
736.7
737.07
737.42
737.82
738.22
738.61
739.01
739.41
739.8
740.19
740.57
740.96
741.36
741.74
742.11
742.48
742.84
743.19
743.56
743.94
744.32
744.7
745.08
745.48
745.86
746.23
746.61
746.98
747.34
747.71
748.06
748.42
748.77
749.12
749.33
749.92
750.5
751.08
751.63
752.19
752.43
752.75
753.29
753.85
754.4
754.98
755.32
756.08
756.7
757.36
758.02
758.64
759.27
759.87
760.47
761.07
761.64
762.28
762.92
763.54
764.15
764.74
765.32
765.86
766.49
767.06
767.63
768.2
768.8
769.41
770
770.58
771.16
771.75
772.31
772.86
773.4
773.99
774.62
775.22
775.64
776.33
776.92
777.5
778.09
778.53
779.17
779.79
780.45
780.65
781.12
781.77
782.41
783.08
783.68
784.34
784.97
785.58
786.23
786.87
787.52
788.17
788.8
789.43
790.04
790.67
791.27
791.71
792.29
792.6
792.78
793.19
793.59
793.99
794.37
794.75
795.14
795.53
795.9
796.28
796.65
797.01
797.36
797.73
798.1
798.49
798.89
799.29
799.7
800.09
800.46
800.85
801.19
801.55
801.91
802.31
802.5
803.17
803.76
804.36
804.98
805.55
806.16
806.74
807.35
807.98
808.27
808.45
809.17
809.44
809.79
810.45
810.67
811.11
811.32
811.74
812.38
813.02
813.64
814.23
814.87
815.48
816.13
816.79
817.28
818.04
818.69
819.32
819.92
820.54
821.14
821.77
822.41
822.82
823.04
823.68
824.32
824.95
825.56
826.18
826.79
827.38
828.02
828.69
829.36
830.02
830.64
831.28
831.9
832.52
833.15
833.79
834.45
835.11
835.77
836.41
837.06
837.69
838.27
838.96
839.58
840.24
840.93
841.61
842.26
842.91
843.55
844.13
844.85
845.49
846.14
846.81
847.45
847.66
848.09
848.69
849.33
849.98
850.59
851.19
851.81
852.45
853.07
853.74
854.38
855.03
855.64
856.13
856.83
857.43
858.08
858.72
859.36
859.98
860.31
860.58
861.2
861.81
862.23
862.79
863.11
863.24
863.62
864
864.39
864.77
865.15
865.54
865.94
866.33
866.72
867.09
867.48
867.86
868.23
868.76
869.32
869.45
870.07
870.7
871.32
871.93
872.5
873.09
873.66
874.24
874.83
875.39
876
876.61
876.84
877.24
877.86
878.47
879.08
879.68
880.29
880.83
881.44
882.04
882.67
883.29
883.95
884.57
885.18
885.79
886.35
886.99
887.6
888.24
888.87
889.36
890.09
890.71
891.33
891.84
892.53
893.12
893.71
894.33
894.98
895.61
896.23
896.86
897.47
898.07
898.66
899.25
899.84
900.51
901.16
901.77
902.38
902.92
903.57
904.18
904.77
905.33
905.93
906.55
907.15
907.76
908.38
908.96
909.55
910.11
910.7
911.26
911.86
912.49
913.13
913.77
914.39
915
915.61
916.24
916.88
917.47
918.11
918.63
919.39
920.05
920.71
921.34
921.97
922.58
923.18
923.79
924.29
925.09
925.74
926.37
926.98
927.6
928.21
928.81
929.4
930
930.68
931.32
931.95
932.57
933.21
933.83
934.46
935.06
935.67
936.33
936.99
937.65
938.29
938.92
939.55
940.14
940.63
941.31
941.95
942.61
943.25
943.89
944.51
945.14
945.75
946.37
946.99
947.57
948.2
948.84
949.51
950.17
950.8
951.4
952.06
952.68
953.29
953.93
954.44
955.27
955.95
956.61
957.25
957.9
958.57
959.19
959.83
960.5
961.16
961.82
962.39
963.07
963.71
964.32
964.96
965.37
966.13
966.84
967.52
968.03
968.73
969.38
970.03
970.64
971.25
971.91
972.57
973.26
973.92
974.58
975.26
975.81
976.53
977.15
977.79
978.46
979.14
979.81
980.48
981.13
981.78
982.41
983.03
983.66
984.31
984.97
985.61
986.25
986.88
987.48
988.01
988.71
989.31
989.95
990.61
991.29
991.98
992.62
993.28
993.92
994.56
995.19
995.83
996.54
997.25
997.93
998.51
999.23
999.91
1000.6
1001.2
1001.7
1002.4
1003.1
1003.8
1004.4
1005.1
1005.7
1006.3
1007
1007.6
1008.2
1008.9
1009.5
1010.2
1010.8
1011.4
1012.1
1012.7
1013.3
1014
1014.6
1015.3
1016
1016.7
1017.3
1018
1018.6
1019.1
1019.8
1020.5
1021.1
1021.8
1022.4
1023.1
1023.7
1024.3
1024.9
1025.5
1026.2
1026.9
1027.5
1028.2
1028.8
1029.4
1030
1030.7
1031.2
1031.9
1032.5
1033.1
1033.8
1034.4
1035.1
1035.7
1036.3
1036.9
1037.5
1038.1
1038.3
1038.8
1039.4
1040.1
1040.7
1041.3
1041.9
1042.5
1043.1
1043.7
1044.3
1044.9
1045.6
1046.2
1046.8
1047.5
1048.1
1048.7
1049.3
1049.9
1050.6
1051.3
1051.9
1052.5
1053.1
1053.8
1054.4
1054.9
1055.6
1056.2
1056.9
1057.5
1058.2
1058.8
1059.4
1060.1
1060.7
1061.3
1061.9
1062.6
1063.2
1063.9
1064.5
1065.1
1065.7
1066.3
1066.9
1067.5
1068.1
1068.7
1069.4
1070
1070.6
1071.3
1071.9
1072.4
1073
1073.6
1074.3
1074.9
1075.6
1076.2
1076.8
1077.5
1078.1
1078.7
1079.3
1079.9
1080.6
1081.3
1081.9
1082.5
1083.2
1083.8
1084.4
1085
1085.6
1086.2
1086.8
1087.5
1088.1
1088.8
1089.4
1090
1090.6
1091.2
1091.9
1092.6
1093.2
1093.9
1094.5
1095.1
1095.7
1096.4
1097
1097.6
1098.1
1098.8
1099.5
1100.1
1100.7
1101.2
1101.6
1101.9
1102.5
1103.1
1103.7
1104.3
1105
1105.6
1106.2
1106.8
1107.5
1108.1
1108.7
1109.3
1109.9
1110.5
1111.2
1111.8
1112.4
1113.1
1113.7
1114.4
1115
1115.6
1116.2
1116.9
1117.6
1118.2
1118.8
1119.3
1120
1120.7
1121.3
1121.8
1122.5
1123.2
1123.8
1124.5
1125
1125.8
1126.4
1127
1127.6
1128.2
1128.9
1129.5
1130.2
1130.8
1131.4
1132
1132.6
1133.2
1133.9
1134.5
1135.2
1135.8
1136.4
1137.1
1137.7
1138.3
1139
1139.5
1140.2
1140.9
1141.5
1142.2
1142.8
1143.5
1144.1
1144.7
1145.3
1145.9
1146.6
1147.3
1147.9
1148.6
1149.2
1149.8
1150.3
1151
1151.6
1152.3
1152.9
1153.6
1154.2
1154.9
1155.5
1156.1
1156.6
1157.2
1157.9
1158.6
1159.2
1159.9
1160.5
1161.1
1161.7
1162.3
1163
1163.6
1164.2
1164.9
1165.5
1166.2
1166.9
1167.5
1168.1
1168.7
1169.3
1170
1170.6
1171.3
1172
1172.6
1173.2
1173.8
1174.5
1174.9
1175.6
1176.3
1176.9
1177.6
1178.2
1178.9
1179.5
1180.1
1180.8
1181.4
1182
1182.5
1183.3
1183.9
1184.6
1185.2
1185.8
1186.4
1187.1
1187.7
1188.3
1189
1189.7
1190.3
1190.8
1191.6
1192.2
1192.8
1193.4
1194
1194.7
1195.3
1196
1196.6
1197.3
1197.9
1198.5
1199.1
1199.7
1200.4
1201
1201.7
1202.2
1202.8
1203.5
1204.1
1204.8
1205.4
1206
1206.7
1207.3
1208
1208.6
1209.2
1209.9
1210.4
1211.1
1211.7
1212.3
1212.9
1213.7
1214.3
1215
1215.6
1216.2
1216.8
1217.5
1218.1
1218.7
1219.4
1220.1
1220.7
1221.1
1221.3
1222
1222.6
1223.2
1223.8
1224.5
1225
1225.8
1226.4
1227.1
1227.7
1228.3
1228.9
1229.5
1230.1
1230.6
1231.4
1232.1
1232.7
1233.3
1234
1234.6
1235.2
1235.8
1236.4
1237.1
1237.7
1238.3
1239
1239.6
1240.2
1240.8
1241.4
1242
1242.6
1243.3
1243.9
1244.6
1245.2
1245.8
1246.3
1247
1247.6
1248.3
1248.8
1248.9
1249.5
1250.2
1250.8
1251.4
1252
1252.6
1253.2
1253.8
1254.5
1255.1
1255.8
1256.4
1257
1257.6
1258.3
1258.9
1259.5
1260
1260.7
1261.4
1262
1262.6
1263.3
1263.9
1264.5
1265.1
1265.7
1266.3
1267
1267.6
1268.3
1268.9
1269.5
1270.1
1270.8
1271.4
1272
1272.7
1273.3
1273.9
1274.6
1275.2
1275.8
1276.4
1277
1277.6
1278.3
1278.9
1279.6
1280.2
1280.6
1281.3
1281.9
1282.5
1283.1
1283.7
1284.3
1285
1285.6
1286.2
1286.8
1287.5
1288.1
1288.7
1289.3
1290
1290.6
1291.3
1291.8
1292.6
1293.2
1293.9
1294.5
1295.1
1295.7
1296.4
1297
1297.6
1298.3
1298.9
1299.6
1300.2
1300.8
1301.4
1302
1302.7
1303.4
1304
1304.5
1305.3
1305.9
1306.6
1307.2
1307.8
1308.4
1309.1
1309.8
1310.4
1311
1311.7
1312.3
1312.9
1313.5
1314.2
1314.8
1315.5
1316.2
1316.8
1317.4
1318.1
1318.7
1319.3
1320
1320.6
1321.3
1322
1322.6
1323.2
1323.9
1324.5
1325.1
1325.7
1326.4
1327
1327.7
1328.3
1328.9
1329.5
1330.2
1330.8
1331.4
1331.9
1332.7
1333.3
1334
1334.6
1335.3
1335.9
1336.5
1337.1
1337.7
1338.4
1339
1339.7
1340.3
1341
1341.6
1342.2
1342.8
1343.4
1344.1
1344.7
1345.4
1346.1
1346.7
1347.4
1348
1348.6
1349.2
1349.9
1350.6
1351.2
1351.9
1352.5
1353.2
1353.8
1354.4
1355.1
1355.7
1356.3
1357
1357.7
1358.3
1359
1359.6
1360.3
1360.9
1361.5
1362.1
1362.8
1363.5
1364.1
1364.8
1365.4
1366
1366.7
1367.3
1368
1368.6
1369.3
1370
1370.6
1371.2
1371.9
1372.5
1373.1
1373.7
1374.4
1375.1
1375.7
1376.4
1377
1377.6
1378.3
1378.9
1379.5
1380.2
1380.8
1381.5
1382.1
1382.7
1383.4
1384
1384.6
1385.2
1385.8
1386.5
1387.1
1387.8
1388.4
1389.1
1389.7
1390.3
1390.9
1391.5
1392.2
1392.8
1393.5
1394.1
1394.7
1395.3
1396
1396.6
1397.2
1397.8
1398.3
1399
1399.7
1400.4
1401
1401.6
1402.3
1402.9
1403.5
1404.1
1404.8
1405.5
1406.1
1406.6
1407.3
1408
1408.6
1409.2
1409.7
1410.4
1411.1
1411.8
1412.2
1413
1413.6
1414.3
1414.9
1415.5
1416.1
1416.8
1417.5
1418.1
1418.8
1419.4
1420
1420.6
1421.2
1421.9
1422.5
1423.2
1423.8
1424.5
1425.1
1425.7
1426.3
1427
1427.6
1428.2
1428.9
1429.5
1430.2
1430.8
1431.5
1432.1
1432.7
1433.3
1434
1434.6
1435.3
1436
1436.6
1437.2
1437.9
1438.5
1439.1
1439.7
1440.3
1441
1441.7
1442.4
1443
1443.6
1444.3
1444.9
1445.5
1446.1
1446.8
1447.5
1448.2
1448.8
1449.4
1450.1
1450.7
1451.3
1451.9
1452.5
1453.2
1453.9
1454.5
1455.2
1455.8
1456.4
1457
1457.6
1458.3
1458.9
1459.6
1460.2
1460.8
1461.5
1462.1
1462.7
1463.3
1463.9
1464.6
1465.2
1465.9
1466.5
1467.2
1467.8
1468.4
1469
1469.6
1470.3
1470.9
1471.6
1472.2
1472.9
1473.5
1474.1
1474.7
1475.3
1476
1476.6
1477.3
1477.9
1478.6
1479.2
1479.8
1480.5
1481.1
1481.7
1482.3
1483
1483.7
1484.3
1485
1485.6
1486.2
1486.8
1487.4
1488
1488.7
1489.3
1490
1490.6
1491.2
1491.9
1492.5
1493.1
1493.7
1494.3
1495
1495.7
1496.3
1496.9
1497.6
1498.2
1498.8
1499.4
1500.1
1500.7
1501.4
1502.1
1502.6
1503.3
1504
1504.6
1505.2
1505.7
1506.4
1507.1
1507.8
1508.4
1509.1
1509.7
1510.3
1510.9
1511.5
1512.2
1512.8
1513.5
1514.2
1514.8
1515.4
1515.9
1516.6
1517.3
1517.9
1518.6
1519.2
1519.9
1520.5
1521.2
1521.8
1522.5
1523.1
1523.7
1524.4
1525.1
1525.7
1526.4
1526.9
1527.6
1528.3
1528.9
1529.3
1529.9
1530.3
1530.4
1530.8
1531.3
1531.7
1532.1
1532.5
1532.9
1533.1
1533.9
1534.6
1535.2
1535.8
1536.4
1537.1
1537.7
1538.4
1539
1539.6
1540.2
1540.8
1541.4
1542.1
1542.6
1543.4
1544
1544.7
1545.3
1546
1546.6
1547.2
1547.7
1548.5
1549.1
1549.8
1550.5
1551.1
1551.7
1552.3
1552.9
1553.5
1554.2
1554.9
1555.5
1556.1
1556.8
1557.4
1558.1
1558.6
1559.3
1559.9
1560.5
1561.2
1561.9
1562.5
1563.2
1563.8
1564.5
1565.1
1565.7
1566.4
1567.1
1567.8
1568.4
1569
1569.7
1570.2
1570.9
1571.5
1572.2
1572.6
1573.4
1574.1
1574.7
1575.3
1576
1576.6
1577.2
1577.8
1578.4
1579.2
1579.8
1580.5
1581.1
1581.7
1582.3
1583
1583.6
1584.3
1584.9
1585.6
1586.2
1586.9
1587.5
1588.2
1588.8
1589.4
1590
1590.7
1591.3
1592
1592.6
1593.2
1593.9
1594.5
1595.1
1595.7
1596.4
1596.9
1597.7
1598.3
1599
1599.6
1599.9
1600.2
1600.9
1601.4
1602.1
1602.6
1603.4
1604
1604.7
1605.1
1605.7
1606.4
1606.9
1607.5
1608.2
1608.8
1609.4
1610.1
1610.7
1611.3
1611.9
1612.5
1613.1
1613.6
1614.3
1614.9
1615.5
1615.7
1616.2
1616.8
1617.4
1618
1618.5
1619.2
1619.7
1620.4
1621
1621.7
1622.3
1622.9
1623.5
1624.1
1624.7
1625.3
1625.9
1626.5
1627.1
1627.8
1628.4
1629
1629.6
1630.2
1630.8
1631.4
1632
1632.7
1633.3
1634
1634.6
1635.2
1635.9
1636.4
1637.1
1637.7
1638.3
1638.9
1639.5
1640.2
1640.8
1641.3
1642
1642.6
1643.2
1643.8
1644.4
1645
1645.7
1646.3
1646.9
1647.5
1648.1
1648.7
1649.3
1649.9
1650.5
1651.2
1651.8
1652.4
1653.1
1653.7
1654
1654.3
1654.9
1655.4
1656
1656.6
1657.2
1657.8
1658.4
1659
1659.6
1660.2
1660.7
1661.3
1661.5
1661.9
1662.5
1663
1663.7
1664.3
1664.8
1665.4
1666
1666.6
1667.2
1667.7
1668.3
1669
1669.6
1670.2
1670.7
1671.3
1672
1672.6
1673.1
1673.7
1674.3
1675
1675.6
1676.1
1676.8
1677.4
1678
1678.4
1679.1
1679.7
1680.3
1680.9
1681.5
1682.2
1682.8
1683.3
1684
1684.6
1685.2
1685.8
1686.4
1687.1
1687.7
1688.3
1688.9
1689.5
1690.1
1690.5
1690.7
1691.3
1691.9
1692.5
1693.1
1693.6
1694.3
1694.9
1695.6
1696.2
1696.8
1697.4
1697.8
1698
1698.6
1699.1
1699.9
1700.5
1701.1
1701.7
1702.3
1702.9
1703.4
1704
1704.7
1705.3
1705.9
1706.5
1707
1707.7
1708.3
1708.9
1709.4
1710
1710.7
1711.3
1712
1712.6
1713.2
1713.8
1714.3
1714.8
1715.2
1715.3
1715.7
1716.1
1716.5
1716.9
1717.1
1717.5
1717.6
1718.1
1718.5
1719.1
1719.5
1719.9
1720.3
1720.7
1721.1
1721.5
1721.9
1722.3
1722.7
1723.1
1723.3
1724.1
1724.8
1725.4
1726
1726.6
1727.2
1727.7
1728.2
1728.9
1729.6
1730.3
1730.9
1731.5
1732.1
1732.8
1733.3
1734
1734.7
1735.3
1736
1736.7
1737.3
1738
1738.6
1739.2
1739.8
1740.5
1741.2
1741.8
1742.5
1743.2
1743.9
1744.5
1745.2
1745.8
1746.5
1747
1747.8
1748.5
1749.2
1749.8
1750.5
1751.1
1751.8
1752.4
1753.1
1753.8
1754.5
1754.9
1755.3
1755.5
1756
1756.4
1756.8
1757.2
1757.6
1758
1758.2
1759
1759.7
1760.4
1761
1761.6
1762.3
1762.8
1763.5
1764.2
1764.8
1765.5
1766.2
1766.9
1767.5
1768.1
1768.8
1769.4
1770
1770.7
1771.4
1772
1772.7
1773.3
1774
1774.6
1775.2
1775.8
1776.4
1777.2
1777.8
1778.5
1779.2
1779.8
1780.5
1781.1
1781.7
1782.4
1783.1
1783.8
1784.5
1785
1785.8
1786.4
1787.1
1787.7
1788.3
1789
1789.7
1790.2
1790.9
1791.6
1792.2
1792.7
1793.3
1794
1794.7
1795.3
1796
1796.7
1797.3
1798
1798.5
1799.2
1799.9
1800.5
1801.2
1801.9
1802.5
1803.2
1803.9
1804.5
1805.2
