0.036111
0.15833
0.69444
1.3083
1.7361
2.4056
3.0028
3.6056
4.4056
5.05
5.6333
6.2472
6.9667
7.6361
8.2972
9.0167
9.6222
10.206
10.669
11.531
12.169
12.764
13.403
14.233
14.897
15.642
16.189
16.922
17.678
18.142
18.722
19.297
19.964
20.594
21.158
21.783
22.542
23.331
24.081
24.656
25.286
26.153
26.883
27.497
28.464
29.161
29.861
30.422
30.756
31.742
32.417
33.119
33.797
34.378
34.739
35.525
36.156
36.669
37.367
38.119
38.825
39.436
40.136
40.742
41.539
42.178
42.814
43.45
44.094
44.792
45.422
46.128
46.792
47.217
47.942
48.669
49.408
50.15
50.714
51.425
52.075
52.714
53.061
53.764
54.319
54.908
55.65
56.317
56.972
57.478
58.464
59.017
59.567
60.106
60.667
61.342
62.1
62.828
63.544
64.4
65.106
65.808
66.497
67.203
67.864
68.611
69.356
69.978
70.528
70.911
71.794
72.508
73.078
73.65
74.386
75.308
76.014
76.608
77.294
78.053
78.7
79.497
80.239
80.931
81.703
82.392
83.081
83.903
84.578
85.231
85.986
86.528
87.286
87.878
88.656
89.308
89.833
90.422
91.125
91.897
92.606
93.347
94.083
94.806
95.497
96.128
96.667
97.417
97.842
98.258
99.153
99.761
100.46
101.16
101.79
102.47
103.11
103.69
104.47
105.21
105.92
106.58
107.23
107.92
108.52
109.28
109.88
110.66
111.42
112.02
112.6
113.27
114.02
114.72
115.46
116.16
116.8
117.47
118.02
118.56
119.22
119.76
120.4
120.97
121.66
122.59
123.25
123.91
124.3
125.14
125.58
126.42
126.86
127.72
128.43
128.97
129.63
130.13
130.86
131.54
132.18
132.85
133.61
134.17
134.78
135.66
136.36
136.99
137.55
137.99
138.88
139.69
140.44
141.14
141.83
142.56
143.11
143.93
144.68
145.47
146.14
147
147.69
148.39
149.07
149.9
150.68
151.53
152.17
152.77
153.43
154.29
154.99
155.72
156.42
157.22
157.97
158.69
159.36
160
160.7
161.37
162.11
162.7
163.44
164.07
165
165.58
166.33
166.99
167.67
168.24
168.79
169.49
170.2
170.91
171.64
172.28
172.92
173.54
174.19
174.94
175.58
176.32
176.99
177.63
178.38
179.08
179.91
180.53
181.22
182
182.8
183.44
184.17
185.07
185.62
186.33
187.03
187.7
187.88
188.44
189.22
189.89
190.46
191.17
191.89
192.51
193.13
193.75
194.49
195.25
195.93
196.64
197.29
198.01
198.56
198.63
199.24
199.82
200.18
200.65
201.57
202.2
202.82
203.4
204.06
204.76
205.54
206.25
206.86
207.2
207.86
208.53
209.1
209.66
210.17
210.99
211.73
212.36
213.02
213.61
214.31
214.86
215.39
216.1
216.76
217.44
218.11
218.79
219.41
219.91
220.77
221.44
222.1
222.81
223.5
223.85
224.73
225.18
225.51
226.07
226.79
227.43
228.05
228.63
228.86
229.63
230.33
230.92
231.65
232.4
233.1
233.46
234.22
234.79
235.52
236.28
237.01
237.71
238.38
239.1
239.76
240.38
240.95
242.02
242.78
243.55
244.13
244.86
245.17
245.54
246.21
246.82
247.43
248.09
248.88
249.71
250.45
251.02
251.64
252.38
253.11
253.78
254.41
255.1
255.94
256.67
257.11
257.81
258.36
259.05
259.4
260.18
260.89
261.63
262.44
263.07
264.02
264.67
265.49
266.22
266.94
267.77
268.39
268.84
269.7
270.38
271.05
271.76
272.44
273.29
273.79
274.41
275.19
275.88
276.59
277.31
277.88
278.52
279.32
279.8
280.49
281.22
281.82
282.38
283.08
283.72
284.39
285.13
285.88
286.57
287.34
287.92
288.57
289.27
290.07
290.9
291.54
292.19
292.84
293.62
294.3
294.88
295.51
295.91
296.73
297.47
298.09
298.67
299.26
299.94
300.53
300.86
301.81
302.32
302.94
303.61
304.29
304.9
305.56
306.26
306.97
307.68
308.32
309.06
309.81
310.46
311.11
311.85
312.49
313.06
313.76
314.34
314.92
315.59
316.45
317.17
317.76
318.3
318.8
319.61
320.36
321
321.65
322.01
322.85
323.52
324.16
324.74
325.45
326.41
327.11
327.75
328.63
329.28
329.97
330.6
331.29
331.94
332.43
333.27
333.84
334.48
335.42
336.26
336.97
337.66
338.43
339.11
339.9
340.54
341.21
341.86
342.47
343.09
343.94
344.59
345.26
345.91
346.73
347.49
348.08
348.81
349.51
350.34
351.11
351.77
352.46
353.23
353.91
354.57
355.21
355.93
356.72
357.28
357.97
358.36
359.18
359.78
360.43
361.15
361.88
362.64
363.39
364.3
365.28
365.98
366.7
367.43
368.15
368.91
369.57
370.38
371.2
371.91
372.47
373.28
374.01
374.71
375.47
376.11
376.79
377.37
378.03
378.71
379.62
380.29
381.08
381.77
382.44
383.13
383.76
384.48
385.18
385.91
386.9
387.57
388.27
388.97
389.58
390.4
391.19
391.96
392.66
393.47
394.22
394.98
395.51
396.15
396.85
397.51
398.31
399.07
399.82
400.56
401.24
401.86
402.55
403.13
403.93
404.74
405.38
406.09
406.68
407.28
407.88
408.44
409.01
409.92
410.64
411.39
412.04
412.63
413.28
413.93
414.54
415.44
416.19
416.8
417.54
418.26
418.94
419.53
420.13
420.71
420.98
421.16
421.52
422.04
422.38
422.77
423.16
423.58
423.9
424.28
425.17
425.81
426.38
427.1
427.9
428.64
429.31
429.93
430.62
431.66
432.32
433.07
433.77
434.57
435.27
435.93
436.6
437.21
437.8
438.39
438.99
439.74
440.41
441.52
442.25
442.99
443.71
444.26
444.94
445.66
446.45
447.17
447.81
448.55
449.17
449.81
450.46
451.22
451.94
452.34
453.13
453.78
454.43
455.14
455.49
456.17
456.79
457.61
458.38
459.11
459.71
460.26
460.91
461.64
462.41
463.01
463.56
464.24
464.94
465.62
466.37
467.21
467.9
468.57
469.31
470.05
470.69
471.43
472.37
472.84
473.53
473.9
474.6
475.32
476.06
476.64
477.3
478.05
478.77
479.36
480.04
480.67
481.36
482.21
482.9
483.85
484.97
485.67
486.41
487.14
487.79
488.63
489.36
490.01
490.56
490.9
491.56
492.07
492.78
493.62
494.4
495.09
495.81
496.52
497.04
497.98
498.61
499.02
499.82
500.52
501.26
501.89
502.68
503.37
504
504.56
505.18
506
506.81
507.63
508.28
508.88
509.54
510.23
510.96
511.73
512.36
513.11
513.79
514.22
515.16
515.62
516.35
517.18
517.97
518.69
519.37
520
520.57
521.23
521.92
522.58
523.29
524.1
524.76
525.54
526.26
526.88
527.69
528.36
528.97
529.66
530.39
531.13
531.92
532.68
533.43
534.1
534.73
535.5
536.29
536.94
537.63
538.23
538.83
539.16
540.08
540.67
541.47
542.14
542.77
543.49
544.22
544.83
545.37
546.08
546.79
547.51
548.26
548.9
549.53
550.21
550.81
551.21
552.04
552.66
553.35
554.01
554.75
555.39
556.12
556.79
557.48
558.11
558.45
559.13
559.79
560.54
561.21
561.55
562.45
563.05
563.68
564.37
564.99
565.74
566.52
567.18
567.77
568.4
569.09
569.83
570.44
571.05
571.67
572.41
573.11
573.81
574.41
575.08
575.65
576.31
577.19
577.95
578.68
579.44
580.21
580.88
581.5
582.19
582.9
583.81
584.5
585.21
585.97
586.68
587.33
588.28
588.97
589.59
590.28
591.1
592.09
592.96
593.73
594.44
595.06
595.78
596.65
597.38
598.02
598.57
599.21
600.06
600.25
600.45
601.16
601.83
602.18
603
603.59
604.3
605.13
605.68
606.32
606.7
607.05
607.41
608.12
608.78
609.48
609.81
610.75
611.35
611.88
612.35
612.99
613.77
614.55
615.33
616.07
616.65
617.36
617.92
618.51
618.96
619.3
620.16
620.87
621.55
622.29
622.95
623.56
624.26
624.99
625.6
626.33
627.04
627.89
628.66
629.34
630.04
630.77
631.58
632.24
633.17
633.76
634.47
635.19
635.83
636.38
637.03
637.74
638.49
639.17
639.75
640.36
640.9
641.6
642.2
642.73
643.14
643.84
644.49
645.12
645.81
646.35
646.89
647.51
648.2
648.92
649.66
650.32
651.05
651.73
652.4
652.94
653.52
654.17
655.16
655.82
656.69
657.51
658.33
658.97
659.62
660.31
661.01
661.89
662.66
663.36
664.01
664.67
665.32
665.96
666.48
667.14
667.8
668.46
669.26
670.01
670.65
671.29
671.99
672.55
672.89
673.8
674.57
675.41
676.14
676.76
677.32
678.12
678.84
679.44
680.27
680.93
681.49
682.2
682.83
683.33
684.12
684.76
685.51
686.42
687.08
687.97
688.69
689.47
689.92
690.67
691.35
692.26
692.99
693.6
694.4
695.06
695.72
696.41
697.09
697.79
698.61
699.29
700
700.66
701.33
702
702.69
703.36
704.04
704.72
705.34
706.07
706.75
707.36
708.09
708.73
709.6
710.38
711.03
711.61
712.37
713.11
713.73
714.37
715.08
715.73
716.41
717.16
717.79
718.47
719.1
719.77
720.49
721.13
721.71
722.4
723.14
723.82
724.45
725.07
725.77
726.47
727.01
727.63
728.21
728.56
729.27
729.7
730.38
731.11
731.71
732.41
733.17
733.96
734.73
735.42
736.15
736.71
737.36
737.96
738.64
739.59
740.3
740.91
741.61
742.29
743.16
743.88
744.77
745.54
746.14
746.92
747.58
748.35
748.96
749.66
750.34
751.01
751.59
752.27
753.16
753.85
754.5
755.13
755.8
756.45
757.1
757.78
758.42
759.24
759.9
760.25
760.94
761.66
762.39
763.21
763.96
764.62
765.46
766.16
766.78
767.38
768.17
768.88
769.61
770.31
770.89
771.46
771.8
772.17
772.77
773.39
774.1
774.79
775.46
776.09
776.63
777.29
777.83
778.71
779.17
779.86
780.55
781.26
781.94
782.66
783.3
783.95
784.71
785.29
786.01
786.61
787.22
788
788.74
789.55
790.37
791.15
791.86
792.46
793.11
793.8
794.56
795.24
795.99
796.73
797.38
797.79
798.29
798.95
799.59
800.25
800.84
801.43
801.73
802.09
802.57
802.92
803.83
804.46
805.11
805.9
806.64
807.33
807.89
808.72
809.56
810.21
810.88
811.65
812.34
813.28
813.99
814.68
815.33
816.05
816.65
817.39
818.05
818.76
819.58
820.31
821.02
821.66
822.31
823.01
823.79
824.52
825.3
825.93
826.57
827.11
827.51
828.15
828.69
829.43
830.03
830.46
830.92
831.73
832.47
833.22
833.95
834.62
835.32
836.03
836.6
837.3
838.01
838.74
839.44
840.18
840.82
841.41
841.54
841.84
842.08
842.78
843.11
843.42
844.06
844.33
844.95
845.6
846.27
847.04
847.75
848.37
849.12
849.76
850.33
851.08
851.51
852.15
852.84
853.54
854.27
855.04
855.75
856.44
857.03
857.96
858.57
859.26
859.97
860.63
861.34
862.09
862.8
863.53
864
864.72
865.64
866.34
866.98
867.68
868.34
868.98
869.66
870.37
870.99
871.75
872.49
873.29
873.94
874.56
875.28
875.91
876.56
877.34
877.83
878.52
878.88
879.63
880.31
881.03
881.87
882.52
883.21
883.79
884.46
885.06
885.79
886.5
887.19
887.88
888.56
889.27
889.96
890.72
891.52
892.02
892.68
893.48
894.1
894.75
895.61
896.37
896.94
897.67
898.56
899.21
899.89
900.54
901.23
901.83
902.5
903.06
903.92
904.59
905.14
905.84
906.39
907.02
907.64
908.37
909.1
909.73
910.44
911.1
911.74
912.48
913.38
914.12
914.78
915.46
916.06
916.67
917.27
917.83
918.51
919.1
919.73
920.51
921.31
921.95
922.66
923.33
923.92
924.69
925.31
926.13
926.58
927.37
927.98
928.63
929.36
930.05
930.42
931.08
931.74
932.42
933.24
933.93
934.61
935.4
935.96
936.29
937.08
937.79
938.61
939.32
940.1
940.71
941.33
942
942.66
943
944.05
944.82
945.43
945.77
946.61
947.23
947.84
948.47
948.99
949.72
950.46
951.14
951.69
952.36
953.04
953.95
954.56
955.23
955.84
956.51
957.14
957.85
958.58
959.3
959.71
959.96
960.2
960.49
961.07
961.36
962.08
962.56
962.98
963.64
964.34
964.98
965.6
966.13
966.76
967.61
968.18
968.83
969.59
970.19
970.54
971.15
971.51
971.94
972.8
973.27
974.01
974.77
975.44
976.03
976.77
977.52
978.1
978.8
979.44
980.29
980.51
980.95
981.66
982.36
983.01
983.25
983.76
984.43
984.78
984.99
985.46
985.71
986.37
987.24
987.98
988.58
989.27
989.9
990.57
991.24
991.89
992.5
993.32
994.11
994.82
995.52
996.14
996.71
997.37
998.02
998.75
999.46
1000.2
1000.9
1001.3
1002
1002.6
1003.3
1004.3
1005
1005.8
1006.7
1007.2
1007.9
1008.6
1009.4
1010.1
1010.9
1011.6
1012.3
1012.9
1013.6
1014.3
1014.9
1015.7
1016.3
1016.9
1017.1
1017.3
1018.2
1018.6
1019.6
1020
1020.3
1020.7
1021.3
1021.7
1022.4
1022.9
1023.6
1024.4
1024.6
1024.8
1025.7
1026.2
1027
1027.5
1027.8
1028.1
1028.9
1029.5
1030.3
1031
1031.8
1032.3
1033.1
1033.8
1034.6
1035.3
1036
1036.7
1037.4
1038.1
1038.6
1039.3
1040.1
1040.9
1041.6
1042.3
1043.2
1043.9
1044.6
1045.4
1046.2
1046.8
1047.5
1047.9
1048.5
1049.2
1049.8
1050.5
1050.8
1051.5
1052.3
1053.1
1053.8
1054.3
1055
1055.7
1056.3
1057
1057.8
1058.2
1058.9
1059.5
1060.3
1060.9
1061.4
1062.1
1062.8
1063.6
1064.4
1065.2
1065.9
1066.7
1067.4
1068.1
1068.8
1069.3
1070
1070.7
1071.4
1072.3
1073.3
1074
1074.6
1075.3
1076.1
1076.9
1077.6
1078.3
1078.9
1079.7
1080.4
1081.1
1081.5
1082.5
1082.9
1083
1083.4
1084
1084.7
1085
1085.5
1086
1086.4
1086.8
1087.8
1088.3
1089
1089.7
1090.5
1090.8
1091.2
1091.9
1092.6
1093.4
1094.1
1094.5
1095
1095.7
1096.3
1097
1097.7
1098.4
1099.1
1099.7
1100.5
1101.3
1102
1102.6
1102.8
1103.1
1103.7
1104.3
1105
1105.5
1106.4
1106.9
1107.4
1108.3
1108.8
1109.1
1110
1110.7
1111.7
1112.2
1112.6
1113
1114
1114.8
1115.5
1115.9
1116.5
1117.2
1118
1118.8
1119.5
1120.2
1121
1121.6
1122.3
1122.8
1123.5
1124.3
1125
1125.8
1126.5
1127.3
1127.9
1128.5
1129.3
1130.1
1131
1131.6
1132.2
1132.8
1133.4
1134.2
1135
1135.6
1136.2
1137
1137.7
1138.3
1139.1
1139.8
1140.6
1141.3
1142
1142.6
1143
1143.7
1144.5
1145.3
1145.9
1146.7
1147.5
1148.1
1148.7
1149.4
1150.2
1150.9
1151.6
1152.2
1152.9
1153.4
1154.2
1154.9
1155.5
1156.1
1156.9
1157.5
1158.2
1158.5
1159.4
1160.1
1161
1161.6
1162.3
1162.7
1163.6
1164.3
1164.9
1165.5
1166.3
1167
1167.8
1168.5
1169.2
1169.9
1170.6
1171.5
1172.1
1172.9
1173.6
1174.3
1175.2
1175.9
1176.6
1177.4
1178.1
1178.9
1179.5
1180.2
1180.9
1181.6
1182.2
1182.5
1183.4
1183.9
1184.8
1185.7
1186.4
1187.1
1187.8
1188.5
1189.1
1189.6
1190.5
1191.2
1191.9
1192.5
1193.1
1193.7
1194.2
1194.9
1195.7
1196.4
1197.2
1198.1
1198.7
1199.3
1200
1200.6
1201.5
1202.2
1202.9
1203.7
1204.5
1205.1
1205.8
1206.5
1207.3
1208
1208.6
1209.3
1209.9
1210.6
1211.2
1211.9
1212.3
1212.9
1213.6
1214.3
1215
1215.7
1216.4
1217.1
1217.8
1218.5
1219.1
1219.7
1220.5
1221.4
1222.1
1222.7
1223.2
1223.6
1224.4
1225
1225.7
1226.5
1227.1
1227.9
1228.6
1229.2
1229.9
1230.6
1231.3
1231.9
1232.6
1233.3
1234
1234.8
1235.4
1236
1236.5
1237.1
1238.1
1238.6
1239.4
1239.7
1240.4
1241.1
1241.7
1242.3
1243
1243.7
1244.4
1245.1
1245.9
1246.7
1247.4
1248
1248.7
1249.4
1250.2
1251
1251.6
1252.3
1253.4
1254.2
1254.8
1255.4
1256.1
1256.8
1257.6
1258.2
1258.9
1259.5
1260.2
1261
1261.8
1262.5
1263
1263.8
1264.4
1265.2
1265.7
1266
1267
1267.7
1268.7
1269.4
1270
1270.6
1271.2
1271.9
1272.5
1273.2
1273.8
1274.4
1275.1
1275.7
1276.4
1277
1277.5
1278.1
1278.4
1279.3
1279.9
1280.6
1281.4
1282
1282.7
1283.1
1284.1
1284.8
1285.2
1286
1286.7
1287.3
1288.1
1288.8
1289.6
1290.2
1291
1291.9
1292.5
1293.2
1293.9
1294.6
1295.4
1296
1296.6
1297.2
1297.9
1298.5
1299.2
1299.6
1300.3
1301
1301.7
1302.4
1303.2
1304
1304.8
1305.5
1306.2
1306.9
1307.4
1308
1308.6
1309.3
1310
1310.8
1311.7
1312.3
1312.8
1313.4
1314.1
1314.7
1315.3
1316
1316.8
1317.4
1318.1
1318.7
1319.4
1320
1320.7
1321.3
1322
1322.7
1323.4
1323.9
1324.6
1325.3
1325.9
1326.9
1327.6
1328.5
1329.1
1329.8
1330.4
1331.1
1331.7
1332.3
1333
1333.9
1334.4
1335.2
1336.1
1336.9
1337.5
1338.1
1338.7
1339.2
1339.9
1340.7
1341.6
1342
1342.8
1343.3
1344.1
1344.6
1345.3
1345.9
1346.6
1347.2
1348.1
1348.8
1349.5
1350.2
1350.8
1351.6
1352.2
1352.9
1353.5
1354.3
1354.9
1355.5
1356.4
1357
1357.7
1358.3
1359
1359.7
1360.5
1361.2
1361.9
1362.5
1363.1
1363.9
1364.8
1365.7
1366.4
1367.2
1367.8
1368.8
1369.6
1370
1370.9
1371.7
1372.4
1373
1373.7
1374.3
1375
1375.6
1376.4
1377.4
1378.3
1379
1379.6
1380
1380.9
1381.5
1382.2
1382.9
1383.3
1384
1384.6
1385.3
1386
1386.7
1387.3
1387.9
1388.5
1389.2
1389.8
1390.6
1391.3
1392
1392.7
1393.3
1393.9
1394.7
1395.4
1396
1396.6
1397.3
1397.8
1398.4
1399
1399.7
1400.3
1401
1401.7
1402.4
1403.1
1403.9
1404.7
1405.3
1405.9
1406.6
1407.2
1407.9
1408.2
1409.3
1410
1410.6
1411.3
1411.9
1412.6
1413.3
1414.2
1414.9
1415.5
1416.1
1416.7
1417.4
1418.1
1418.9
1419.6
1420.3
1420.9
1421.6
1422.2
1422.7
1423.1
1423.8
1424.5
1425.2
1425.9
1426.7
1427.4
1428.4
1429
1429.8
1430.4
1431.2
1431.8
1432.1
1432.8
1433.4
1434
1434.6
1435.3
1435.9
1436.6
1437.3
1438
1438.7
1439.4
1440.1
1440.8
1441.5
1442.3
1442.8
1443.5
1444.3
1445
1445.7
1446.3
1447
1447.8
1448.5
1449.2
1449.9
1450.5
1451.1
1451.8
1452.5
1453.1
1453.9
1454.6
1455.2
1455.9
1456.8
1457.4
1457.9
1458.8
1459.4
1460.2
1460.9
1461.6
1462.3
1462.9
1463.5
1464.2
1464.9
1465.5
1466.3
1467
1467.7
1468.3
1469
1469.7
1470.3
1471
1471.5
1472.3
1472.9
1473.6
1474.2
1474.9
1475.6
1476.2
1476.8
1477.5
1478.3
1479
1479.8
1480.5
1481.2
1481.8
1482.5
1483.1
1483.8
1484.8
1485.4
1486.1
1486.9
1487.7
1488.4
1489
1489.6
1490.4
1491.1
1491.8
1492.5
1493.3
1493.9
1494.7
1495.3
1496.1
1496.8
1497.4
1498.2
1498.8
1499.5
1500.3
1500.9
1501.5
1502.2
1502.9
1503.6
1504.4
1505
1505.7
1506.3
1506.9
1508
1508.7
1509.4
1510
1510.7
1511.4
1512.4
1513
1513.6
1513.9
1515
1515.7
1516.3
1517
1517.8
1518.7
1519.3
1520.1
1520.9
1521.6
1522.2
1523
1523.7
1524.3
1525.1
1525.6
1526.3
1526.7
1527.5
1528.2
1528.9
1529.5
1529.9
1530.6
1531.2
1532
1532.8
1533.5
1533.9
1534.8
1535.7
1536.4
1537.2
1537.9
1538.4
1539.2
1540
1540.8
1541.4
1542.1
1542.8
1543.7
1544.4
1545.2
1545.9
1546.6
1547.4
1548
1548.8
1549.5
1550.2
1550.8
1551.4
1552.1
1552.9
1553.5
1554.3
1554.9
1555.5
1556.2
1556.9
1557.6
1558.3
1559
1559.5
1560.4
1561.1
1561.7
1562.5
1562.9
1563.8
1564.6
1565.3
1565.9
1566.5
1567.2
1567.9
1568.6
1569.2
1569.9
1570.4
1571
1571.9
1572.3
1573.4
1574.2
1575
1575.6
1576.2
1576.8
1577.4
1577.8
1578.4
1579.2
1580.2
1580.9
1581.7
1582.3
1583
1583.7
1584.4
1585
1585.7
1586.5
1587.2
1587.8
1588.6
1589
1589.7
1590.2
1590.9
1591.4
1592.1
1592.9
1593.6
1594.7
1595.4
1596.2
1596.9
1597.5
1598.2
1599.4
1600.3
1600.9
1601.5
1602.1
1602.9
1603.5
1604.3
1605.1
1605.8
1606.5
1607.2
1607.9
1608.5
1609.1
1609.8
1610.2
1611.1
1611.8
1612.4
1613.1
1613.7
1614.3
1615.1
1615.8
1616.4
1617.2
1617.9
1618.6
1619.1
1619.8
1620.2
1620.9
1621.5
1622.3
1623
1623.7
1624.2
1625.1
1625.7
1626.4
1627.1
1627.7
1628.4
1629.1
1629.8
1630.5
1631.2
1631.9
1632.4
1633.1
1633.6
1634.5
1634.8
1635.8
1636.2
1636.9
1637.7
1638.4
1638.8
1639.3
1640.1
1640.7
1641.4
1642
1642.6
1643.3
1644.1
1644.7
1645.4
1645.9
1646.6
1647.2
1648
1648.8
1649.5
1650.3
1651
1651.7
1652.4
1653.1
1653.8
1654.5
1655.2
1656.3
1657.2
1657.9
1658.1
1658.3
1659
1659.5
1660.4
1660.8
1661.2
1661.7
1662.3
1662.9
1663.2
1663.9
1664.3
1665.1
1665.8
1666.3
1667.3
1668
1668.6
1669.2
1669.9
1670.6
1671.3
1671.9
1672.6
1672.9
1673.7
1674.3
1675
1675.6
1675.9
1676.8
1677.6
1678.3
1679
1679.7
1680.6
1681.2
1681.8
1682.5
1683.2
1683.9
1684.6
1685.3
1686.1
1686.7
1687.3
1687.9
1688.6
1689.4
1690
1690.4
1691.3
1691.8
1692.7
1693.3
1694.3
1695
1695.7
1696.3
1696.9
1697.6
1698.3
1698.9
1699.6
1700.5
1701.2
1701.9
1702.5
1703.2
1703.8
1704.4
1705
1705.7
1706.3
1707.1
1707.8
1708.6
1709.1
1710
1710.6
1711.2
1712
1712.7
1713.4
1714.2
1714.8
1715.4
1716.1
1716.9
1717.6
1718.3
1719.1
1719.8
1720.5
1721.2
1721.7
1722.5
1723.2
1723.9
1724.8
1725.3
1726
1726.7
1727.4
1728
1728.6
1729.2
1730
1730.7
1731.5
1732.2
1732.7
1733.1
1733.8
1734.5
1735.1
1736.1
1736.9
1737.7
1738.3
1739
1739.6
1740.5
1741.1
1741.8
1742.5
1743.2
1743.9
1744.7
1745.4
1745.7
1746.6
1747.6
1748.3
1749
1749.7
1750.5
1751.4
1752
1752.6
1753.3
1754.1
1754.8
1755.4
1756.1
1756.6
1757.5
1757.9
1758.7
1759.1
1760.1
1761.5
1761.9
1762.8
1763.6
1764.1
1764.9
1765.5
1766.2
1766.9
1767.5
1768.2
1769
1769.6
1770.4
1771.1
1771.7
1772.4
1773.2
1773.8
1774.5
1775.2
1776
1776.6
1777.3
1778
1778.6
1779.2
1780
1780.7
1781.3
1782
1782.7
1783.4
1784.1
1784.7
1785.4
1786.2
1787
1787.7
1788.3
1788.9
1789.6
1790
1790.5
1791.2
1791.7
1792.5
1793.2
1793.9
1794.5
1795.2
1795.8
1796.6
1797.2
1797.9
1798.6
1799.1
1799.9
1800.7
1801.3
1802.1
1802.6
1803.4
1804.2
1804.9
1805.5
