0.34722
0.59444
1.2528
1.9333
2.5667
3.2444
4
4.7417
5.425
6.0861
6.6583
7.2333
7.85
8.4694
9.1111
9.8556
10.525
11.194
11.883
12.544
13.206
13.822
14.442
15.106
15.778
16.436
17.114
17.772
18.417
19.039
19.697
20.369
21.028
21.703
22.411
23.142
23.808
24.461
25.136
25.778
26.406
27.058
27.756
28.422
29.106
29.767
30.397
31.031
31.672
32.325
32.967
33.603
34.264
34.928
35.581
36.233
36.878
37.497
38.142
38.811
39.5
40.186
40.908
41.614
42.289
42.939
43.608
44.278
44.936
45.6
46.303
47.014
47.683
48.375
49.058
49.719
50.328
50.961
51.642
52.325
53
53.617
54.211
54.806
55.378
55.972
56.628
57.303
58
58.669
59.342
60.008
60.639
61.244
61.844
62.497
63.225
63.956
64.656
65.336
66.028
66.7
67.375
68.022
68.661
69.353
70.086
70.783
71.461
72.158
72.842
73.481
74.142
74.833
75.522
76.208
76.919
77.608
78.272
78.931
79.583
80.236
80.886
81.531
82.194
82.864
83.556
84.208
84.842
85.481
86.1
86.733
87.403
88.114
88.808
89.453
90.075
90.683
91.303
91.914
92.536
93.181
93.847
94.497
95.169
95.833
96.472
97.106
97.747
98.406
99.05
99.722
100.42
101.12
101.74
102.36
102.97
103.6
104.26
104.9
105.59
106.22
106.83
107.45
108.08
108.69
109.3
109.91
110.58
111.31
112.07
112.83
113.56
114.21
114.83
115.43
116.03
116.68
117.41
118.13
118.87
119.51
120.14
120.78
121.41
122.05
122.77
123.41
124.11
124.8
125.47
126.12
126.74
127.34
127.95
128.61
129.27
129.93
130.59
131.24
131.82
132.43
133.09
133.78
134.45
135.13
135.81
136.47
137.13
137.76
138.36
138.95
139.55
140.19
140.88
141.56
142.24
142.92
143.59
144.23
144.87
145.53
146.14
146.76
147.39
148.05
148.7
149.32
149.96
150.56
151.14
151.73
152.34
152.98
153.62
154.23
154.84
155.45
156.04
156.62
157.18
157.75
158.3
158.86
159.44
160.03
160.65
161.28
161.89
162.47
163.04
163.64
164.26
164.9
165.53
166.14
166.76
167.4
168
168.6
169.19
169.78
170.39
171.01
171.66
172.31
172.96
173.59
174.2
174.81
175.42
176.03
176.66
177.3
177.94
178.6
179.24
179.87
180.49
181.09
181.69
182.27
182.88
183.55
184.22
184.87
185.52
186.15
186.75
187.35
188
188.69
189.38
190.04
190.73
191.42
192.07
192.74
193.43
194.08
194.74
195.43
196.13
196.81
197.5
198.17
198.84
199.47
200.13
200.78
201.44
202.12
202.81
203.48
204.14
204.78
205.4
206.01
206.62
207.26
207.93
208.6
209.28
209.96
210.6
211.24
211.86
212.51
213.18
213.84
214.5
215.18
215.82
216.44
217.07
217.7
218.32
218.95
219.59
220.28
220.96
221.61
222.26
222.88
223.5
224.14
224.77
225.42
226.07
226.71
227.36
227.99
228.61
229.23
229.86
230.51
231.13
231.81
232.52
233.24
233.92
234.54
235.19
235.79
236.39
237.02
237.67
238.33
238.97
239.61
240.26
240.88
241.52
242.15
242.81
243.51
244.19
244.88
245.57
246.23
246.85
247.46
248.07
248.71
249.37
250.04
250.71
251.41
252.06
252.7
253.35
253.99
254.64
255.29
255.96
256.65
257.34
257.98
258.61
259.25
259.89
260.51
261.15
261.81
262.49
263.12
263.76
264.4
265.01
265.62
266.25
266.9
267.55
268.2
268.87
269.53
270.18
270.78
271.38
271.97
272.57
273.19
273.84
274.48
275.16
275.81
276.44
277.06
277.68
278.31
278.92
279.54
280.21
280.88
281.52
282.13
282.74
283.33
283.94
284.54
285.16
285.77
286.39
287.02
287.65
288.25
288.84
289.42
290.04
290.67
291.31
291.95
292.6
293.23
293.82
294.42
295.03
295.63
296.25
296.89
297.53
298.17
298.8
299.45
300.05
300.65
301.27
301.87
302.48
303.1
303.74
304.39
305.03
305.68
306.34
306.98
307.61
308.24
308.9
309.56
310.23
310.93
311.66
312.35
313.02
313.67
314.29
314.91
315.55
316.21
316.87
317.53
318.19
318.85
319.48
320.12
320.78
321.46
322.14
322.81
323.49
324.13
324.75
325.39
326.03
326.7
327.38
328.06
328.73
329.39
330.02
330.64
331.24
331.83
332.43
333.09
333.78
334.47
335.13
335.77
336.41
337.03
337.65
338.25
338.87
339.51
340.15
340.79
341.46
342.1
342.71
343.29
343.93
344.58
345.21
345.87
346.54
347.17
347.8
348.38
348.96
349.54
350.11
350.72
351.37
352.04
352.71
353.35
353.97
354.57
355.16
355.76
356.36
356.99
357.67
358.33
358.99
359.63
360.23
360.84
361.43
362.04
362.67
363.31
363.98
364.65
365.34
366.02
366.69
367.31
367.92
368.55
369.18
369.84
370.51
371.16
371.81
372.43
373.06
373.7
374.36
375.07
375.76
376.42
377.06
377.69
378.31
378.92
379.51
380.1
380.71
381.39
382.09
382.76
383.43
384.09
384.73
385.34
385.96
386.62
387.26
387.91
388.57
389.27
389.93
390.55
391.17
391.81
392.45
393.09
393.78
394.48
395.15
395.83
396.51
397.18
397.82
398.46
399.09
399.75
400.43
401.07
401.7
402.34
402.97
403.6
404.23
404.89
405.61
406.29
406.96
407.63
408.27
408.88
409.49
410.13
410.79
411.45
412.11
412.79
413.45
414.07
414.68
415.25
415.82
416.41
417.02
417.66
418.3
418.91
419.54
420.15
420.74
421.33
421.93
422.52
423.11
423.71
424.34
424.96
425.58
426.17
426.76
427.34
427.91
428.48
429.09
429.76
430.43
431.11
431.75
432.35
432.93
433.5
434.07
434.66
435.23
435.84
436.45
437.09
437.73
438.34
438.95
439.54
440.14
440.77
441.4
442.05
442.69
443.34
443.97
444.56
445.14
445.74
446.34
446.97
447.58
448.21
448.86
449.49
450.11
450.71
451.31
451.92
452.51
453.13
453.77
454.42
455.06
455.65
456.26
456.87
457.46
458.07
458.7
459.35
460.01
460.64
461.28
461.93
462.53
463.13
463.73
464.35
464.99
465.62
466.3
466.98
467.62
468.25
468.87
469.49
470.11
470.74
471.43
472.11
472.77
473.43
474.08
474.69
475.29
475.87
476.46
477.07
477.73
478.46
479.19
479.83
480.43
481.02
481.6
482.19
482.82
483.48
484.16
484.83
485.51
486.2
486.84
487.45
488.06
488.71
489.35
490.02
490.69
491.36
492.04
492.69
493.34
493.98
494.62
495.28
495.93
496.58
497.24
497.88
498.49
499.11
499.77
500.42
501.09
501.79
502.46
503.11
503.74
504.35
504.96
505.54
506.14
506.77
507.41
508.06
508.74
509.43
510.09
510.74
511.32
511.9
512.49
513.07
513.67
514.28
514.91
515.53
516.16
516.83
517.55
518.22
518.91
519.59
520.26
520.93
521.63
522.28
522.93
523.55
524.2
524.93
525.68
526.41
527.13
527.83
528.55
529.23
529.88
530.52
531.17
531.84
532.5
533.18
533.89
534.58
535.26
535.91
536.56
537.22
537.92
538.59
539.24
539.89
540.55
541.24
541.93
542.59
543.24
543.88
544.53
545.17
545.8
546.43
547.08
547.69
548.32
548.98
549.69
550.39
551.08
551.73
552.34
552.93
553.51
554.12
554.74
555.36
555.99
556.65
557.34
558.02
558.66
559.3
559.88
560.46
561.05
561.65
562.27
562.91
563.52
564.14
564.75
565.39
566.04
566.69
567.36
568.02
568.7
569.35
569.98
570.61
571.22
571.82
572.45
573.09
573.78
574.47
575.11
575.74
576.33
576.9
577.49
578.06
578.66
579.29
579.92
580.59
581.26
581.95
582.59
583.21
583.8
584.41
585.04
585.68
586.34
586.99
587.62
588.23
588.81
589.41
590.02
590.63
591.26
591.9
592.57
593.22
593.85
594.47
595.07
595.69
596.34
597.01
597.65
598.3
598.92
599.54
600.14
600.74
601.36
602.01
602.66
603.33
603.98
604.63
605.27
605.92
606.54
607.15
607.76
608.39
609.03
609.69
610.37
611.06
611.71
612.35
612.96
613.58
614.19
614.82
615.5
616.17
616.84
617.5
618.16
618.81
619.44
620.06
620.69
621.39
622.09
622.76
623.42
624.04
624.64
625.26
625.9
626.54
627.19
627.83
628.47
629.12
629.77
630.39
630.99
631.6
632.24
632.88
633.52
634.17
634.82
635.44
636.04
636.62
637.19
637.78
638.42
639.09
639.73
640.38
641.07
641.75
642.4
643.03
643.61
644.2
644.78
645.39
646
646.58
647.16
647.71
648.26
648.82
649.4
650.01
650.61
651.25
651.91
652.56
653.2
653.84
654.47
655.07
655.69
656.35
657.01
657.66
658.33
659
659.65
660.28
660.9
661.51
662.15
662.8
663.46
664.13
664.81
665.49
666.11
666.73
667.36
667.95
668.56
669.17
669.82
670.48
671.11
671.76
672.37
672.98
673.59
674.21
674.84
675.54
676.25
676.93
677.58
678.2
678.8
679.37
679.93
680.5
681.11
681.74
682.41
683.08
683.74
684.39
685.03
685.69
686.36
687.02
687.68
688.32
688.97
689.6
690.21
690.83
691.46
692.06
692.7
693.38
694.06
694.73
695.36
695.96
696.53
697.08
697.64
698.22
698.83
699.56
700.31
700.76
701.03
701.69
702
702.34
702.97
703.59
704.18
704.8
705.46
706.14
706.82
707.52
708.21
708.93
709.63
710.32
711.01
711.69
712.34
713.01
713.68
714.33
714.94
715.6
716.27
716.93
717.6
718.29
718.98
719.64
720.26
720.88
721.48
722.08
722.7
723.37
724.01
724.65
725.29
725.96
726.66
727.3
727.92
728.56
729.23
729.96
730.71
731.42
732.05
732.68
733.3
733.92
734.54
735.14
735.76
736.39
737.02
737.63
738.24
738.83
739.41
739.99
740.61
741.28
741.97
742.63
743.29
743.9
744.49
745.07
745.65
746.26
746.86
747.47
748.08
748.7
749.32
749.95
750.55
751.12
751.71
752.3
752.91
753.54
754.23
754.88
755.54
756.17
756.75
757.32
757.89
758.48
759.06
759.65
760.22
760.8
761.4
761.99
762.64
763.35
764.05
764.71
765.36
766.03
766.7
767.35
767.95
768.56
769.17
769.77
770.39
771.07
771.83
772.57
773.28
773.96
774.59
775.17
775.77
776.37
776.97
777.61
778.29
779.04
779.77
780.45
781.13
781.8
782.46
783.14
783.85
784.55
785.21
785.89
786.56
787.22
787.86
788.51
789.17
789.84
790.53
791.21
791.88
792.49
793.13
793.77
794.41
795.06
795.74
796.38
797.04
797.67
798.32
798.98
799.62
800.24
800.85
801.49
802.13
802.79
803.44
804.1
804.78
805.41
806.03
806.69
807.36
808.02
808.66
809.3
809.93
810.53
811.11
811.69
812.25
812.83
813.41
814.04
814.69
815.31
815.93
816.54
817.13
817.73
818.34
818.97
819.6
820.24
820.9
821.54
822.17
822.81
823.44
824.05
824.66
825.29
825.96
826.62
827.27
827.91
828.55
829.16
829.76
830.41
831.07
831.74
832.38
833.03
833.68
834.31
834.92
835.55
836.16
836.79
837.42
838.08
838.74
839.39
840.01
840.61
841.22
841.82
842.44
843.13
843.84
844.55
845.21
845.84
846.45
847.05
847.65
848.26
848.91
849.62
850.35
851.06
851.75
852.43
853.08
853.72
854.37
855.02
855.69
856.36
857.02
857.69
858.34
859.01
859.64
860.27
860.91
861.58
862.26
862.93
863.59
864.22
864.85
865.48
866.1
866.73
867.39
868.04
868.68
869.33
869.97
870.59
871.2
871.81
872.44
873.08
873.72
874.41
875.11
875.77
876.38
876.97
877.58
878.2
878.82
879.48
880.13
880.83
881.55
882.21
882.88
883.52
884.13
884.74
885.36
886
886.69
887.38
888.01
888.62
889.22
889.86
890.53
891.23
891.95
892.65
893.31
893.96
894.61
895.27
895.94
896.6
896.95
897.28
897.94
898.59
899.23
899.88
900.52
901.14
901.74
902.36
903.04
903.75
904.47
905.14
905.79
906.41
907.02
907.66
908.31
909
909.66
910.37
911.1
911.78
912.44
913.06
913.67
914.29
914.97
915.69
916.4
917.09
917.75
918.39
919.03
919.64
920.24
920.88
921.57
922.27
923
923.71
924.35
924.99
925.63
926.27
926.95
927.61
928.25
928.9
929.55
930.17
930.81
931.46
932.09
932.73
933.39
934.11
934.86
935.55
936.19
936.83
937.44
938.03
938.65
939.27
939.89
940.53
941.19
941.9
942.6
943.27
943.91
944.56
945.21
945.88
946.58
947.28
947.96
948.59
949.18
949.8
950.46
951.14
951.84
952.52
953.22
953.9
954.59
955.25
955.9
956.52
957.13
957.78
958.48
959.17
959.86
960.51
961.17
961.83
962.5
963.2
963.85
964.52
965.17
965.84
966.47
967.08
967.71
968.4
969.13
969.88
970.59
971.29
971.95
972.61
973.23
973.86
974.53
975.26
976.01
976.79
977.49
978.18
978.86
979.54
980.16
980.77
981.43
982.11
982.82
983.5
984.18
984.93
985.68
986.41
987.09
987.77
988.44
989.08
989.74
990.39
991.02
991.71
992.43
993.18
993.89
994.63
995.39
996.1
996.79
997.41
998.03
998.7
999.37
1000
1000.7
1001.4
1002.1
1002.7
1003.4
1004
1004.8
1005.5
1006.2
1006.9
1007.6
1008.3
1008.9
1009.5
1010.2
1010.9
1011.5
1012.2
1012.9
1013.5
1014.2
1014.8
1015.5
1016.1
1016.8
1017.4
1018.1
1018.7
1019.4
1020
1020.5
1021.1
1021.7
1022.3
1023
1023.6
1024.3
1025
1025.6
1026.2
1026.9
1027.4
1028
1028.7
1029.3
1030
1030.7
1031.4
1032
1032.7
1033.3
1034
1034.7
1035.4
1036.1
1036.8
1037.4
1038
1038.6
1039.2
1039.7
1040.3
1041
1041.7
1042.3
1043
1043.7
1044.3
1045
1045.6
1046.2
1046.8
1047.4
1048
1048.7
1049.3
1050
1050.6
1051.3
1051.9
1052.5
1053.2
1053.8
1054.5
1055.2
1055.8
1056.5
1057.1
1057.7
1058.3
1058.9
1059.6
1060.3
1060.9
1061.5
1062.2
1062.8
1063.4
1063.9
1064.6
1065.2
1065.8
1066.5
1067.2
1067.8
1068.5
1069.2
1069.8
1070.4
1071
1071.6
1072.2
1072.8
1073.4
1074
1074.6
1075.3
1075.9
1076.6
1077.2
1077.8
1078.5
1079.2
1079.8
1080.4
1081
1081.7
1082.3
1082.9
1083.5
1084.2
1084.8
1085.5
1086.1
1086.7
1087.4
1088
1088.6
1089.2
1089.9
1090.5
1091.1
1091.7
1092.3
1092.9
1093.5
1094.1
1094.8
1095.4
1096.1
1096.7
1097.4
1098.1
1098.7
1099.4
1100.1
1100.8
1101.5
1102.2
1102.9
1103.7
1104.3
1105
1105.7
1106.3
1107
1107.7
1108.5
1109.2
1109.8
1110.5
1111.2
1111.3
1111.8
1112.4
1113.1
1113.7
1114.4
1115.1
1115.8
1116.3
1116.5
1117.2
1117.8
1118.5
1119.2
1119.8
1120.5
1121.2
1121.8
1122.5
1123.2
1123.8
1124.5
1124.6
1125.1
1125.8
1126.5
1127.1
1127.8
1128.4
1128.8
1129
1129.7
1130.3
1131
1131.7
1132.4
1133.1
1133.8
1134.5
1135.1
1135.8
1136.4
1137
1137.7
1138.3
1139
1139.7
1140.3
1141
1141.6
1142.3
1143
1143.7
1144.4
1145
1145.7
1146.3
1147
1147.6
1148.2
1148.9
1149.5
1150.3
1151
1151.7
1152.3
1153
1153.6
1154.3
1154.9
1155.6
1156.3
1157
1157.7
1158.3
1159
1159.7
1160.3
1161
1161.7
1162.4
1163.1
1163.7
1164.3
1164.9
1165.5
1166.1
1166.7
1167.4
1168
1168.7
1169.4
1170.1
1170.7
1171.4
1172
1172.6
1173.2
1173.9
1174.5
1175.2
1175.8
1176.4
1177.1
1177.7
1178.3
1179
1179.7
1180.4
1181
1181.7
1182.4
1183
1183.6
1184.3
1184.9
1185.5
1186.3
1186.9
1187.6
1188.3
1189
1189.6
1190.3
1190.9
1191.6
1192.3
1193
1193.6
1194.3
1195
1195.7
1196.3
1197
1197.7
1198.4
1199.1
1199.7
1200.3
1200.9
1201.5
1202.2
1202.8
1203.5
1204.2
1204.8
1205.5
1206.2
1206.8
1207.4
1208
1208.7
1209.3
1210
1210.7
1211.4
1212
1212.7
1213.3
1214
1214.7
1215.4
1216.1
1216.8
1217.5
1218.2
1218.9
1219.5
1220.2
1220.8
1221.5
1222.2
1222.9
1223.6
1224.3
1224.9
1225.6
1226.2
1226.9
1227.6
1228.3
1229
1229.7
1230.4
1231
1231.6
1232.3
1233
1233.7
1234.4
1235.1
1235.8
1236.5
1237.1
1237.7
1238.3
1239
1239.6
1240.2
1240.9
1241.5
1242.2
1242.8
1243.4
1244.1
1244.7
1245.3
1246
1246.8
1247.4
1248.1
1248.7
1249.4
1250
1250.7
1251.4
1252
1252.7
1253.4
1254.1
1254.7
1255.4
1256
1256.7
1257.3
1258
1258.7
1259.4
1260
1260.6
1261.3
1261.9
1262.6
1263.2
1263.9
1264.6
1265.3
1266
1266.6
1267.2
1267.9
1268.5
1269.2
1269.9
1270.6
1271.2
1271.9
1272.6
1273.2
1273.8
1274.5
1275.1
1275.8
1276.5
1277.1
1277.8
1278.4
1279.1
1279.7
1280.3
1281
1281.7
1282.3
1283
1283.7
1284.3
1284.9
1285.6
1286.2
1286.8
1287.5
1288.2
1288.9
1289.6
1290.2
1290.9
1291.5
1292.2
1292.8
1293.5
1294.2
1294.9
1295.6
1296.2
1296.9
1297.5
1298.1
1298.8
1299.4
1300.1
1300.8
1301.5
1302.2
1302.9
1303.5
1304.2
1304.8
1305.5
1306.2
1306.9
1307.6
1308.3
1308.9
1309.6
1310.3
1310.9
1311.6
1312.4
1313.1
1313.7
1314.4
1315.1
1315.7
1316.4
1317
1317.7
1318.4
1319.1
1319.8
1320.5
1321.2
1321.8
1322.5
1323.2
1323.9
1324.6
1325.3
1326
1326.6
1327.3
1327.9
1328.6
1329.3
1330
1330.7
1331.4
1332.1
1332.7
1333.3
1334
1334.7
1335.4
1336.1
1336.8
1337.5
1338.1
1338.8
1339.5
1340.2
1340.9
1341.6
1342.3
1343
1343.7
1344.4
1345
1345.7
1346.4
1347
1347.8
1348.6
1349.3
1350
1350.7
1351.4
1352.1
1352.8
1353.5
1354.2
1354.9
1355.7
1356.4
1357
1357.7
1358.4
1359.1
1359.8
1360.5
1361.2
1361.9
1362.6
1363.2
1363.9
1364.6
1365.4
1366.1
1366.9
1367.6
1368.2
1368.9
1369.5
1370.2
1370.8
1371.5
1372.2
1372.9
1373.6
1374.3
1374.9
1375.6
1376.2
1376.8
1377.5
1378.2
1378.8
1379.5
1380.1
1380.8
1381.4
1382
1382.7
1383.4
1384
1384.7
1385.4
1386.1
1386.7
1387.4
1388.1
1388.7
1389.4
1390.1
1390.8
1391.5
1392.2
1392.9
1393.5
1394.2
1394.9
1395.4
1395.6
1395.8
1396.3
1397
1397.7
1398.5
1399.2
1399.9
1400.3
1400.5
1401.2
1401.8
1402.5
1403.1
1403.7
1404.3
1404.9
1405.6
1406.2
1406.8
1407.5
1408.1
1408.8
1409.5
1410.2
1410.8
1411.5
1412.1
1412.7
1413.3
1414
1414.6
1415.2
1415.8
1416.4
1416.9
1417.5
1418.2
1418.9
1419.5
1420.2
1420.9
1421.7
1422.3
1423
1423.6
1424.2
1424.9
1425.5
1426.2
1426.9
1427.6
1428.3
1428.9
1429.6
1430.2
1431
1431.6
1432.4
1433.1
1433.8
1434.4
1435.1
1435.8
1436.4
1437.1
1437.8
1438.6
1439.3
1440
1440.7
1441.4
1442.1
1442.7
1443.4
1444.2
1444.8
1445.5
1446.2
1446.9
1447.5
1448.2
1448.9
1449.6
1450.3
1451.1
1451.8
1452.5
1453.1
1453.8
1454.4
1455.1
1455.7
1456.4
1457.1
1457.7
1458.4
1459.1
1459.7
1460.4
1461.1
1461.8
1462.5
1463.2
1463.9
1464.6
1465.3
1466
1466.8
1467.6
1468.3
1469
1469.7
1470.4
1471.1
1471.7
1472.4
1473.2
1474
1474.7
1475.5
1476.3
1476.9
1477.6
1478.3
1479.1
1480
1481
1481.9
1482.8
1483.5
1484.2
1484.9
1485.6
1486.3
1487
1487.7
1488.4
1489.1
1489.9
1490.6
1491.3
1492.1
1492.8
1493.5
1494.2
1494.9
1495.5
1496.2
1496.8
1497.4
1498.1
1498.8
1499.4
1500.1
1500.7
1501.3
1501.9
1502.5
1503.2
1503.9
1504.6
1505.3
1506
1506.6
1507.2
1507.9
1508.5
1509.1
1509.9
1510.6
1511.2
1511.9
1512.6
1513.2
1513.8
1514.5
1515.1
1515.8
1516.5
1517.2
1517.9
1518.5
1519.2
1519.8
1520.5
1521.2
1521.9
1522.6
1523.3
1523.9
1524.6
1525.3
1526
1526.7
1527.4
1528.1
1528.9
1529.6
1530.3
1530.9
1531.6
1532.2
1532.9
1533.7
1534.4
1535.1
1535.8
1536.4
1537
1537.7
1538.4
1539
1539.7
1540.4
1541.2
1541.9
1542.5
1543.2
1543.9
1544.5
1545.2
1546
1546.7
1547.3
1548
1548.7
1549.4
1550
1550.7
1551.4
1552.1
1552.8
1553.5
1554.2
1554.8
1555.5
1556.1
1556.8
1557.5
1558.2
1558.9
1559.6
1560.2
1560.8
1561.4
1562
1562.7
1563.4
1564
1564.7
1565.5
1566.1
1566.8
1567.5
1568.1
1568.8
1569.5
1570.2
1570.9
1571.6
1572.3
1572.9
1573.6
1574.3
1575
1575.7
1576.4
1577.1
1577.8
1578.6
1579.2
1579.9
1580.6
1581.3
1582
1582.7
1583.4
1584.1
1584.7
1585.4
1586.1
1586.8
1587.5
1588.3
1589
1589.7
1590
1590.4
1591.1
1591.2
1591.7
1592.4
1593.1
1593.8
1594.5
1595.2
1595.9
1596.5
1597.2
1597.9
1598.7
1599.5
1600.2
1600.9
1601.6
1602.2
1602.8
1603.5
1604.1
1604.8
1605.6
1606.4
1606.6
1607.1
1607.8
1608.5
1609.2
1610
1610.8
1611.5
1612.2
1612.9
1613.6
1614.2
1614.6
1614.8
1615.5
1616.2
1616.9
1617.6
1618.4
1619.1
1619.8
1620.5
1621.3
1622
1622.6
1623.3
1624.1
1624.8
1625.5
1626.2
1626.8
1627.5
1628.1
1628.8
1629.5
1630.2
1630.9
1631.6
1632.3
1633
1633.6
1634.3
1635
1635.7
1636.4
1637.1
1637.7
1638.4
1639
1639.7
1640.3
1641
1641.7
1642.4
1643.2
1643.8
1644.4
1645.1
1645.7
1646.4
1647
1647.7
1648.4
1649.2
1650
1650.8
1651.4
1652.1
1652.8
1653.5
1654.2
1654.9
1655.5
1656.2
1656.8
1657.4
1658.1
1658.8
1659.6
1660.3
1661
1661.8
1662.5
1663.2
1663.8
1664.5
1665.2
1665.9
1666.6
1667.4
1668.1
1668.7
1669.4
1670.1
1670.8
1671.5
1672.2
1672.9
1673.6
1674.3
1674.9
1675.6
1676.2
1676.9
1677.6
1678.3
1679
1679.7
1680.4
1681.1
1681.7
1682.4
1683
1683.7
1684.4
1685.1
1685.8
1686.5
1687.2
1687.8
1688.5
1689.2
1689.9
1690.6
1691.3
1692
1692.6
1693.3
1694
1694.7
1695.4
1696.1
1696.9
1697.6
1698.3
1698.9
1699.6
1700.2
1700.9
1701.6
1702.4
1703
1703.7
1704.4
1705.1
1705.7
1706.4
1707.1
1707.8
1708.4
1709.2
1709.9
1710.5
1711.1
1711.8
1712.5
1713.1
1713.8
1714.5
1715.3
1715.9
1716.6
1717.2
1717.9
1718.5
1719.2
1719.9
1720.6
1721.3
1721.9
1722.6
1723.3
1723.9
1724.6
1725.3
1726
1726.7
1727.5
1728.1
1728.8
1729.4
1730.1
1730.7
1731.3
1731.9
1732.6
1733.3
1734
1734.6
1735.3
1735.9
1736.5
1737.2
1737.9
1738.5
1739.2
1739.8
1740.5
1741.1
1741.8
1742.4
1743.1
1743.8
1744.4
1745.1
1745.8
1746.4
1747
1747.6
1748.3
1748.9
1749.6
1750.3
1751
1751.7
1752.3
1753
1753.6
1754.2
1754.8
1755.4
1756
1756.7
1757.4
1758.1
1758.7
1759.4
1760.1
1760.8
1761.5
1762.3
1763
1763.7
1764.3
1765
1765.7
1766.3
1767
1767.7
1768.4
1769.1
1769.8
1770.5
1771.1
1771.7
1772.5
1773.3
1774.1
1774.9
1775.7
1776.4
1777
1777.7
1778.3
1779.1
1779.8
1780.6
1781.4
1782.2
1782.9
1783.6
1784.3
1785
1785.8
1786.5
1787.3
1788
1788.7
1789.4
1790.1
1790.7
1791.4
1792.2
1792.9
1793.6
1794.4
1795.1
1795.7
1796.4
1797.1
1797.8
1798.5
1799.1
1799.8
1800.4
1801
1801.7
1802.4
1803.2
1803.9
1804.6
1805.4
