0.05
0.26389
0.70278
1.3278
1.8694
2.425
2.9889
3.5333
4.0722
4.5972
5.1361
5.6861
6.2111
6.7583
7.3111
7.8667
8.3917
8.9417
9.4667
10.008
10.572
11.131
11.667
12.225
12.756
13.292
13.822
14.367
14.928
15.475
16.031
16.564
17.1
17.631
18.175
18.728
19.281
19.817
20.369
20.894
21.431
21.983
22.519
23.061
23.603
24.164
24.717
25.264
25.789
26.336
26.892
27.45
27.983
28.536
29.061
29.6
30.139
30.672
31.211
31.758
32.322
32.853
33.392
33.928
34.469
35.017
35.578
36.125
36.675
37.197
37.736
38.281
38.828
39.369
39.914
40.467
41.008
41.547
42.072
42.608
43.156
43.711
44.247
44.797
45.333
45.867
46.406
46.958
47.486
48.044
48.608
49.153
49.683
50.222
50.756
51.308
51.864
52.406
52.947
53.481
54.017
54.544
55.094
55.628
56.172
56.717
57.264
57.803
58.344
58.867
59.408
59.975
60.531
61.083
61.622
62.15
62.697
63.133
63.758
64.317
64.861
65.428
65.956
66.489
67.019
67.578
68.128
68.681
69.222
69.767
70.292
70.828
71.378
71.928
72.478
73.022
73.572
74.111
74.669
75.192
75.728
76.281
76.839
77.375
77.917
78.447
78.986
79.525
80.069
80.611
81.156
81.714
82.269
82.814
83.35
83.906
84.461
85.028
85.558
86.119
86.65
87.192
87.739
88.283
88.825
89.381
89.939
90.469
91.011
91.556
92.092
92.633
93.192
93.744
94.292
94.819
95.372
95.917
96.464
97.019
97.564
98.119
98.672
99.222
99.756
100.29
100.84
101.41
101.94
102.5
103.02
103.56
104.1
104.66
105.2
105.75
106.3
106.85
107.39
107.93
108.47
109.03
109.58
110.12
110.67
111.21
111.75
112.28
112.84
113.36
113.91
114.46
115.01
115.54
116.08
116.61
117.16
117.72
118.28
118.83
119.36
119.9
120.45
121
121.53
122.09
122.66
123.21
123.75
124.3
124.83
125.38
125.92
126.47
127.03
127.56
128.12
128.63
129.19
129.72
130.29
130.84
131.38
131.91
132.45
132.99
133.54
134.08
134.64
135.18
135.72
136.26
136.79
137.34
137.86
138.42
138.88
139.53
140.06
140.61
141.15
141.69
142.25
142.8
143.34
143.89
144.43
144.97
145.51
146.04
146.6
147.15
147.7
148.23
148.78
149.31
149.57
149.83
150.39
150.95
151.49
152
152.28
152.56
153.09
153.64
154.18
154.72
155.26
155.83
156.36
156.9
157.43
157.97
158.53
159.08
159.57
160.16
160.69
161.22
161.77
162.29
162.85
163.39
163.96
164.48
165.02
165.56
166.1
166.65
167.13
167.77
168.32
168.84
169.39
169.93
170.47
171.03
171.57
172.13
172.66
173.21
173.74
174.28
174.83
175.39
175.88
176.49
177.02
177.56
178.11
178.64
179.18
179.74
180.29
180.84
181.38
181.91
182.46
183.01
183.57
184.11
184.66
185.18
185.72
186.25
186.79
187.33
187.88
188.43
188.97
189.53
190.06
190.59
191.15
191.72
192.26
192.81
193.34
193.9
194.44
194.98
195.52
196.08
196.63
197.18
197.72
198.25
198.71
199.34
199.9
200.44
201.01
201.54
202.08
202.62
203.17
203.71
204.27
204.82
205.38
205.92
206.47
207.02
207.56
208.12
208.67
209.23
209.76
210.29
210.82
211.39
211.92
212.47
213.02
213.57
214.1
214.65
215.18
215.72
216.3
216.84
217.38
217.93
218.48
219.01
219.56
220.11
220.66
221.2
221.75
222.29
222.83
223.36
223.91
224.45
225.01
225.53
226.09
226.63
227.17
227.72
228.28
228.84
229.39
229.94
230.49
231.03
231.55
232.11
232.66
233.21
233.76
234.31
234.83
235.37
235.93
236.45
237.01
237.57
238.12
238.65
239.2
239.74
240.29
240.85
241.41
241.95
242.5
242.89
243.54
244.12
244.66
245.21
245.74
246.3
246.83
247.36
247.89
248.44
248.99
249.55
250.09
250.64
251.18
251.72
252.28
252.81
253.36
253.92
254.49
255.02
255.56
256.11
256.66
257.2
257.74
258.29
258.76
259.39
259.92
260.47
261.01
261.57
262.12
262.67
263.2
263.76
264.29
264.83
265.38
265.93
266.2
266.47
267.02
267.54
268.08
268.58
268.87
269.17
269.71
270.24
270.81
271.34
271.87
272.41
272.96
273.51
274.06
274.61
275.16
275.69
276.24
276.79
277.29
277.88
278.43
278.99
279.55
280.09
280.62
281.16
281.72
282.27
282.81
283.36
283.85
284.44
284.99
285.53
286.09
286.64
287.2
287.74
288.3
288.82
289.37
289.93
290.51
291.04
291.59
292.13
292.68
293.22
293.75
294.31
294.81
295.42
295.91
296.5
297.06
297.59
298.14
298.7
299.25
299.8
300.33
300.88
301.42
301.96
302.52
303.06
303.62
304.16
304.71
305.24
305.77
306.33
306.89
307.42
307.98
308.51
309.05
309.59
310.08
310.68
311.19
311.81
312.36
312.91
313.46
313.99
314.54
315.1
315.64
316.19
316.72
317.25
317.78
318.32
318.6
318.88
319.43
319.98
320.53
321.08
321.35
321.62
322.15
322.71
323.27
323.82
324.37
324.91
325.44
325.98
326.44
327.07
327.63
328.19
328.73
329.27
329.81
330.34
330.89
331.44
331.99
332.55
333.08
333.62
334.15
334.72
335.18
335.82
336.38
336.94
337.48
338.02
338.56
339.12
339.67
340.22
340.78
341.31
341.85
342.27
342.93
343.47
344.02
344.59
345.14
345.68
346.23
346.76
347.22
347.88
348.44
348.99
349.52
350.07
350.62
351.17
351.71
352.27
352.83
353.37
353.9
354.45
354.98
355.53
356.1
356.66
357.2
357.73
358.28
358.84
359.38
359.78
360.46
361.03
361.57
362.11
362.66
363.19
363.74
364.31
364.86
365.4
365.93
366.48
367.01
367.56
368.11
368.65
369.21
369.76
370.3
370.84
371.38
371.95
372.5
373.04
373.48
374.13
374.69
375.23
375.78
376.32
376.74
377.41
377.96
378.5
379.04
379.58
380.14
380.69
381.24
381.79
382.32
382.86
383.4
383.96
384.49
385.04
385.61
386.16
386.69
387.23
387.77
388.34
388.9
389.44
390
390.53
391.07
391.61
392.17
392.71
393.26
393.82
394.36
394.91
395.47
396
396.55
397.01
397.67
398.23
398.77
399.31
399.86
400.41
400.95
401.5
402.05
402.6
403.15
403.67
404.21
404.76
405.34
405.88
406.43
406.95
407.53
408.06
408.61
409.16
409.73
410.27
410.81
411.35
411.91
412.44
412.99
413.56
414.1
414.67
415.19
415.72
416.27
416.81
417.35
417.89
418.46
419
419.54
420.09
420.64
421.19
421.75
422.31
422.85
423.38
423.93
424.48
425.02
425.55
426.11
426.66
427.2
427.74
428.3
428.83
429.38
429.94
430.5
431.04
431.58
432.14
432.67
433.22
433.76
434.32
434.88
435.43
435.98
436.52
437.04
437.58
438.14
438.7
439.24
439.69
440.31
440.86
441.41
441.93
442.48
443.04
443.54
444.14
444.68
445.23
445.77
446.33
446.88
447.43
447.97
448.5
449.04
449.58
450.11
450.66
451.22
451.77
452.3
452.85
453.39
453.93
454.48
455.05
455.6
456.14
456.68
457.24
457.79
458.32
458.89
459.44
459.99
460.54
461.09
461.61
462.16
462.74
463.28
463.84
464.1
464.36
464.92
465.41
466.01
466.56
466.83
467.11
467.66
468.23
468.77
469.31
469.84
470.38
470.96
471.52
472.07
472.61
473.16
473.69
473.94
474.2
474.79
475.34
475.89
476.44
476.72
477
477.54
478.06
478.63
479.21
479.76
480.31
480.86
481.4
481.67
481.93
482.5
483.04
483.6
484.08
484.39
484.71
485.25
485.79
486.33
486.9
487.46
488.01
488.56
489.09
489.64
490.18
490.44
490.7
491.29
491.75
492.41
492.92
493.22
493.52
494.06
494.59
495.15
495.72
496.27
496.8
497.33
497.88
498.42
498.96
499.5
500.05
500.54
501.16
501.7
502.24
502.79
503.34
503.91
504.45
505.02
505.55
506.08
506.63
507.13
507.73
508.28
508.84
509.37
509.91
510.44
510.99
511.54
512.1
512.6
513.19
513.66
514.27
514.82
515.36
515.9
516.46
517.03
517.57
518.11
518.66
519.19
519.74
520.32
520.85
521.4
521.93
522.47
523.01
523.54
524.1
524.65
525.2
525.74
526.28
526.83
527.37
527.92
528.49
529.04
529.62
530.14
530.69
531.23
531.78
532.32
532.86
533.41
533.97
534.51
535.03
535.58
536.14
536.7
537.23
537.78
538.32
538.86
539.4
539.96
540.49
541.05
541.62
542.17
542.71
543.26
543.81
544.37
544.92
545.46
546.02
546.56
547.1
547.63
548.19
548.73
549.28
549.75
550.4
550.95
551.48
552.03
552.58
553.15
553.62
554.26
554.79
555.33
555.88
556.42
556.96
557.47
558.08
558.62
559.15
559.7
560.24
560.79
561.35
561.89
562.45
562.99
563.52
564.08
564.64
565.18
565.74
566.21
566.84
567.33
567.94
568.49
569.05
569.61
570.14
570.71
571.23
571.77
572.23
572.87
573.41
573.96
574.52
575.08
575.62
576.16
576.71
577.26
577.82
578.37
578.94
579.46
580
580.55
581.1
581.64
582.18
582.75
583.29
583.83
584.36
584.91
585.46
586.02
586.58
587.14
587.67
588.22
588.76
589.31
589.87
590.35
590.98
591.53
592.09
592.61
593.15
593.71
594.28
594.81
595.36
595.89
596.45
596.99
597.53
598.08
598.65
599.22
599.75
600.31
600.86
601.41
601.96
602.51
603.07
603.63
604.17
604.69
605.24
605.78
606.35
606.9
607.46
608
608.57
609.09
609.37
609.64
610.21
610.77
611.31
611.82
612.12
612.42
612.96
613.52
614.05
614.61
615.17
615.72
616.25
616.8
617.33
617.88
618.44
619
619.54
620.09
620.64
621.17
621.72
622.25
622.83
623.37
623.93
624.47
624.73
624.98
625.58
626.07
626.69
627.16
627.49
627.82
628.36
628.89
629.43
630
630.52
631.07
631.63
632.2
632.73
633.27
633.76
634.37
634.95
635.5
636.06
636.49
637.14
637.68
638.25
638.79
639.35
639.9
640.47
641
641.54
642.09
642.6
643.22
643.77
644.19
644.84
645.4
645.93
646.51
647.05
647.6
648.16
648.73
649.19
649.81
650.36
650.92
651.48
652.03
652.59
653.12
653.67
654.21
654.77
655.31
655.86
656.43
656.99
657.53
658.07
658.63
659.19
659.75
660.3
660.86
661.4
661.96
662.51
663.06
663.61
664.19
664.75
665.29
665.84
666.39
666.93
667.48
668.05
668.61
669.15
669.68
670.23
670.79
671.34
671.89
672.45
673.02
673.57
674.12
674.66
675.22
675.78
676.34
676.88
677.45
677.98
678.52
679.08
679.62
680.18
680.73
681.31
681.84
682.39
682.94
683.49
684.04
684.62
685.17
685.72
686.26
686.81
687.37
687.9
688.47
689.02
689.58
690.12
690.67
691.21
691.75
692.33
692.89
693.44
693.99
694.54
695.07
695.63
696.17
696.76
697.31
697.86
698.41
698.97
699.51
700.06
700.63
701.19
701.74
702.27
702.83
703.36
703.92
704.46
705.01
705.56
706.12
706.67
707.21
707.75
708.33
708.9
709.45
710.01
710.55
711.09
711.63
712.19
712.73
713.29
713.86
714.4
714.94
715.49
716.04
716.59
717.15
717.72
718.27
718.8
719.36
719.91
720.46
721.02
721.57
722.15
722.71
723.26
723.8
724.35
724.91
725.48
726.02
726.57
727.11
727.65
728.2
728.75
729.27
729.86
730.44
730.99
731.54
732.09
732.64
733.2
733.78
734.32
734.88
735.42
735.96
736.52
737.06
737.64
738.17
738.74
739.28
739.83
740.36
740.91
741.5
742.06
742.6
743.16
743.73
744.27
744.83
745.38
745.94
746.5
747.06
747.61
748.15
748.69
749.25
749.81
750.37
750.93
751.46
752.01
752.56
753.11
753.65
754.22
754.79
755.34
755.89
756.44
756.98
757.55
758.13
758.67
759.24
759.77
760.33
760.86
761.42
761.97
762.52
763.08
763.64
764.19
764.73
765.27
765.85
766.42
766.96
767.53
768.07
768.62
769.19
769.73
770.29
770.86
771.42
771.96
772.24
772.52
773.06
773.6
774.17
774.73
775.27
775.75
776.07
776.38
776.92
777.48
778.03
778.59
779.14
779.72
780.29
780.83
781.37
781.92
782.5
783.06
783.6
784.15
784.38
784.61
785.24
785.79
786.33
786.9
787.17
787.45
788.01
788.54
789.11
789.64
790.19
790.76
791.33
791.89
792.43
792.97
793.25
793.52
794.1
794.64
795.19
795.66
796.32
796.86
797.4
797.95
798.23
798.51
799.07
799.61
800.17
800.71
801.25
801.79
802.35
802.88
803.44
804.01
804.52
805.12
805.66
806.21
806.76
807.32
807.88
808.45
808.98
809.51
809.96
810.6
811.14
811.7
812.27
812.81
813.35
813.9
814.45
815
815.57
816.13
816.69
817.21
817.76
818.31
818.86
819.39
819.95
820.51
821.01
821.63
822.16
822.71
823.29
823.84
824.38
824.93
825.48
826.04
826.58
827.13
827.69
828.27
828.83
829.38
829.93
830.48
831.04
831.6
832.16
832.71
833.28
833.81
834.34
834.91
835.46
836.01
836.57
837.15
837.71
838.25
838.78
839.36
839.94
840.5
841.04
841.59
842.15
842.69
843.24
843.79
844.37
844.92
845.47
846.03
846.58
847.13
847.68
848.27
848.69
849.36
849.89
850.46
851.02
851.57
852.13
852.69
853.27
853.82
854.37
854.92
855.48
856.03
856.31
856.6
857.16
857.67
858.25
858.79
859.08
859.37
859.91
860.48
861.03
861.6
862.16
862.7
863.24
863.8
864.39
864.96
865.51
866.07
866.63
867.16
867.72
868.27
868.83
869.38
869.94
870.49
871.03
871.56
872.13
872.71
873.27
873.82
874.34
874.9
875.39
876.01
876.57
877.14
877.7
878.26
878.82
879.37
879.91
880.47
881.04
881.59
882.14
882.68
883.24
883.8
884.19
884.55
885.42
886.01
886.55
887.11
887.65
888.21
888.76
889.34
889.88
890.43
890.97
891.53
892.07
892.61
893.17
893.71
894.26
894.81
895.17
895.36
895.85
896.44
896.81
897.02
897.59
898.13
898.68
899.23
899.78
900.33
900.89
901.44
901.94
902.56
903.12
903.66
904.2
904.76
905.32
905.88
906.41
906.99
907.52
908.04
908.63
909.17
909.74
910.29
910.88
911.41
911.97
912.52
913.08
913.64
914.22
914.77
915.32
915.88
916.44
916.99
917.54
918.11
918.66
919.23
919.77
920.32
920.87
921.44
921.89
922.56
923.08
923.68
924.24
924.63
925.31
925.88
926.45
927.01
927.56
928.14
928.67
929.21
929.79
930.35
930.91
931.48
932
932.55
933.12
933.67
934.23
934.78
935.38
935.92
936.48
937.02
937.59
938.16
938.73
939.27
939.82
940.37
940.92
941.49
942.02
942.59
943.16
943.71
944.15
944.81
945.37
945.92
946.5
947.07
947.63
948.17
948.74
949.29
949.85
950.41
950.96
951.53
952.1
952.64
953.18
953.74
954.3
954.87
955.42
955.98
956.51
957.05
957.62
958.16
958.72
959.29
959.86
960.41
960.97
961.52
962.07
962.63
963.21
963.76
964.32
964.86
965.41
965.96
966.5
967.07
967.64
968.19
968.73
969.27
969.81
970.35
970.93
971.51
972.07
972.61
973.16
973.71
974.27
974.83
975.39
975.95
976.5
977.05
977.59
978.12
978.66
979.24
979.78
980.33
980.87
981.42
981.96
982.51
983.05
983.62
984.18
984.73
985.29
985.83
986.37
986.92
987.49
988.04
988.59
989.13
989.67
990.21
990.76
991.3
991.86
992.43
992.98
993.54
994.07
994.61
995.18
995.76
996.3
996.86
997.4
997.94
998.48
999.01
999.56
1000.1
1000.7
1001.1
1001.7
1002.3
1002.8
1003.4
1003.9
1004.5
1005
1005.6
1006.1
1006.6
1007.2
1007.7
1008.3
1008.9
1009.4
1010
1010.5
1011.1
1011.6
1012.2
1012.7
1013.3
1013.8
1014.4
1014.9
1015.5
1016.1
1016.6
1017.2
1017.8
1018.3
1018.9
1019.4
1020
1020.6
1021.1
1021.7
1022.3
1022.8
1023.4
1023.9
1024.5
1025
1025.6
1026.2
1026.7
1027.3
1027.8
1028.4
1029
1029.5
1030.1
1030.7
1031.2
1031.8
1032.3
1032.9
1033.5
1034
1034.6
1035.1
1035.7
1036.3
1036.9
1037.4
1038
1038.5
1039.1
1039.6
1040.2
1040.8
1041.3
1041.9
1042.5
1043
1043.6
1044.1
1044.7
1045
1045.3
1045.9
1046.4
1047
1047.5
1048.1
1048.5
1048.9
1049.2
1049.8
1050.3
1050.9
1051.4
1052
1052.5
1053.1
1053.4
1053.7
1054.1
1054.7
1055.3
1055.7
1055.9
1056.4
1057
1057.6
1058.2
1058.7
1059.3
1059.5
1059.7
1060.4
1060.9
1061.5
1062
1062.2
1062.5
1063.1
1063.6
1064.2
1064.8
1065.3
1065.9
1066.5
1067
1067.6
1068.1
1068.6
1069.3
1069.8
1070.4
1070.9
1071.5
1071.8
1072
1072.6
1073.1
1073.7
1074.3
1074.8
1075.4
1075.9
1076.5
1077
1077.6
1077.9
1078.2
1078.7
1079.3
1079.8
1080.2
1080.6
1081.5
1082
1082.6
1083.2
1083.7
1084.3
1084.8
1085.4
1085.9
1086.5
1087.1
1087.6
1088.1
1088.7
1089.3
1089.8
1090.4
1091
1091.5
1092.1
1092.6
1093.2
1093.8
1094.3
1094.9
1095.4
1096
1096.5
1097.1
1097.6
1098.2
1098.8
1099.3
1099.9
1100.4
1101
1101.5
1102.1
1102.7
1103.3
1103.8
1104.4
1104.9
1105.5
1106
1106.6
1107.2
1107.7
1108.3
1108.8
1109.4
1109.9
1110.5
1111
1111.6
1112.2
1112.7
1113.3
1113.8
1114.4
1114.9
1115.5
1116.1
1116.6
1117.2
1117.7
1118.3
1118.9
1119.4
1120
1120.5
1121.1
1121.7
1122.2
1122.8
1123.3
1123.9
1124.4
1125
1125.5
1126
1126.7
1127.2
1127.8
1128.4
1128.9
1129.5
1130
1130.6
1131.2
1131.7
1132.3
1132.8
1133.4
1133.9
1134.5
1135.1
1135.6
1136.2
1136.7
1137.3
1137.9
1138.4
1139
1139.5
1140.1
1140.7
1141.2
1141.8
1142.3
1142.9
1143.5
1144
1144.6
1145.1
1145.7
1146.3
1146.8
1147.4
1147.9
1148.5
1149.1
1149.6
1150.2
1150.7
1151.3
1151.9
1152.4
1153
1153.5
1154.1
1154.6
1155.2
1155.8
1156.4
1156.9
1157.5
1158
1158.6
1159.2
1159.7
1160.3
1160.8
1161.4
1161.9
1162.5
1162.9
1163.6
1164.2
1164.7
1165.3
1165.9
1166.4
1167
1167.5
1168.1
1168.7
1169.2
1169.8
1170.3
1170.9
1171.4
1172
1172.5
1173.1
1173.7
1174.2
1174.7
1175.3
1175.9
1176.4
1177
1177.6
1178.1
1178.6
1179.2
1179.8
1180.4
1180.9
1181.5
1182
1182.5
1183.1
1183.7
1184.2
1184.8
1185.4
1185.9
1186.5
1187.1
1187.6
1188.2
1188.7
1189.3
1189.9
1190.4
1190.9
1191.5
1192.1
1192.7
1193.3
1193.8
1194.3
1194.9
1195.5
1196
1196.6
1197.2
1197.7
1198.3
1198.8
1199.4
1200
1200.5
1201.1
1201.7
1202.2
1202.8
1203.3
1203.9
1204.5
1205
1205.6
1206.1
1206.7
1207.2
1207.8
1208.4
1209
1209.5
1210.1
1210.6
1211.2
1211.7
1212.3
1212.9
1213.5
1214
1214.6
1215.1
1215.7
1216.3
1216.8
1217.4
1218
1218.5
1219
1219.6
1220.2
1220.7
1221.3
1221.9
1222.4
1223
1223.5
1224.1
1224.7
1225.3
1225.8
1226.4
1226.9
1227.5
1228.1
1228.6
1229.2
1229.8
1230.3
1230.9
1231.4
1232
1232.6
1233.1
1233.7
1234.3
1234.8
1235.4
1235.9
1236.5
1237.1
1237.7
1238.2
1238.8
1239.4
1239.9
1240.5
1241
1241.6
1242.2
1242.7
1243.3
1243.8
1244.4
1245
1245.5
1246.1
1246.7
1247.2
1247.8
1248.3
1248.9
1249.5
1250.1
1250.6
1251.2
1251.8
1252.3
1252.9
1253.4
1254
1254.6
1255.1
1255.7
1256.3
1256.8
1257.4
1258
1258.6
1259.1
1259.7
1260.2
1260.8
1261.4
1261.9
1262.5
1263.1
1263.7
1264.2
1264.8
1265.4
1265.9
1266.5
1267
1267.6
1268.2
1268.7
1269.3
1269.9
1270.4
1271
1271.6
1272.1
1272.7
1273.3
1273.9
1274.4
1275
1275.5
1276.1
1276.7
1277.2
1277.8
1278.3
1278.9
1279.5
1280.1
1280.6
1281.2
1281.8
1282.3
1282.9
1283.5
1284
1284.6
1285.2
1285.7
1286.3
1286.9
1287.5
1288
1288.6
1289.1
1289.7
1290.3
1290.8
1291.4
1292
1292.5
1293.1
1293.7
1294.2
1294.8
1295.4
1295.9
1296.5
1297.1
1297.6
1298.2
1298.8
1299.4
1299.9
1300.5
1301
1301.6
1302.2
1302.7
1303.3
1303.9
1304.5
1305
1305.5
1306.1
1306.7
1307.3
1307.8
1308.4
1309
1309.6
1310.1
1310.7
1311.3
1311.8
1312.4
1313
1313.5
1314.1
1314.6
1315.2
1315.8
1316.3
1316.9
1317.5
1318
1318.6
1319.2
1319.8
1320.3
1320.9
1321.4
1322
1322.6
1323.2
1323.7
1324.3
1324.9
1325.4
1326
1326.5
1327.1
1327.7
1328.2
1328.8
1329.4
1329.9
1330.5
1331.1
1331.7
1332.2
1332.8
1333.3
1333.9
1334.5
1335
1335.6
1336.2
1336.8
1337.3
1337.9
1338.4
1339
1339.6
1340.2
1340.7
1341.2
1341.8
1342.3
1342.9
1343.5
1344.1
1344.7
1345.2
1345.8
1346.3
1346.9
1347.5
1348
1348.6
1349.2
1349.7
1350.3
1350.8
1351.3
1352
1352.5
1353.1
1353.7
1354.2
1354.8
1355.3
1355.9
1356.5
1357
1357.6
1358.2
1358.7
1359.3
1359.9
1360.4
1361
1361.5
1362.1
1362.7
1363.2
1363.8
1364.4
1364.9
1365.5
1366
1366.6
1367.2
1367.7
1368.3
1368.9
1369.4
1370
1370.6
1371.1
1371.7
1372.3
1372.8
1373.4
1373.9
1374.5
1375.1
1375.6
1376.2
1376.7
1377.2
1377.9
1378.4
1379
1379.3
1379.6
1380.1
1380.7
1381.3
1381.8
1382.1
1382.4
1382.9
1383.5
1384.1
1384.6
1385.2
1385.8
1386.3
1386.9
1387.4
1388
1388.3
1388.6
1389.1
1389.6
1390.3
1390.8
1391.1
1391.4
1392
1392.5
1393.1
1393.7
1394.2
1394.8
1395.3
1395.9
1396.5
1397.1
1397.6
1398.2
1398.7
1399.3
1399.8
1400.4
1400.9
1401.6
1402.1
1402.7
1403.2
1403.8
1404.4
1404.9
1405.5
1406.1
1406.6
1407.2
1407.8
1408.3
1408.9
1409.5
1410
1410.6
1411.1
1411.7
1412.3
1412.8
1413.4
1414
1414.5
1415.1
1415.6
1416.2
1416.8
1417.3
1417.9
1418.5
1419.1
1419.6
1420.1
1420.7
1421.3
1421.9
1422.4
1423
1423.5
1424.1
1424.6
1425.2
1425.8
1426.4
1426.9
1427.5
1427.9
1428.6
1429.2
1429.8
1430.3
1430.9
1431.4
1432
1432.6
1433.1
1433.7
1434.3
1434.8
1435.4
1435.9
1436.5
1437
1437.6
1438.2
1438.8
1439.3
1439.7
1440.4
1441
1441.5
1442.1
1442.7
1443.2
1443.8
1444.4
1444.9
1445.5
1446
1446.6
1447.2
1447.7
1448.3
1448.9
1449.4
1450
1450.6
1451.1
1451.7
1452.3
1452.8
1453.4
1454
1454.5
1455.1
1455.7
1456.2
1456.8
1457.3
1457.9
1458.3
1459
1459.6
1460.2
1460.7
1461.3
1461.9
1462.5
1463
1463.6
1464.1
1464.7
1465.3
1465.8
1466.4
1467
1467.5
1468.1
1468.7
1469.2
1469.8
1470.4
1471
1471.5
1472.1
1472.6
1473.2
1473.8
1474.3
1474.9
1475.5
1476
1476.6
1477.2
1477.7
1478.3
1478.9
1479.5
1480
1480.6
1481.2
1481.7
1482.3
1482.9
1483.4
1484
1484.5
1485.1
1485.7
1486.3
1486.8
1487.4
1487.9
1488.5
1488.9
1489.3
1490.2
1490.8
1491.4
1491.9
1492.5
1493
1493.6
1494.2
1494.7
1495.3
1495.9
1496.4
1497
1497.5
1498.1
1498.7
1499.2
1499.8
1500.4
1500.9
1501.5
1502.1
1502.7
1503.2
1503.8
1504.4
1504.9
1505.5
1506
1506.6
1507.2
1507.7
1508.3
1508.9
1509.4
1510
1510.6
1511.1
1511.7
1512.3
1512.8
1513.4
1514
1514.5
1515.1
1515.7
1516.3
1516.8
1517.4
1517.9
1518.5
1519.1
1519.7
1520.2
1520.8
1521.3
1521.9
1522.5
1523
1523.6
1524.2
1524.8
1525.3
1525.9
1526.5
1527.1
1527.6
1528.2
1528.8
1529.3
1529.9
1530.5
1531
1531.6
1532.2
1532.7
1533.3
1533.9
1534.4
1535
1535.6
1536.2
1536.7
1537.3
1537.8
1538.4
1539
1539.6
1540.1
1540.7
1541.3
1541.8
1542.4
1543
1543.6
1544.1
1544.7
1545.2
1545.8
1546.4
1546.9
1547.5
1548.1
1548.7
1549.2
1549.8
1550.3
1550.9
1551.5
1552.1
1552.7
1553.2
1553.8
1554.3
1554.9
1555.5
1556
1556.6
1557.2
1557.7
1558.3
1558.9
1559.5
1560
1560.6
1561.2
1561.7
1562.3
1562.9
1563.4
1564
1564.4
1564.8
1565.4
1566.1
1566.7
1567.2
1567.8
1568.4
1569
1569.5
1570.1
1570.6
1571.2
1571.8
1572.3
1572.9
1573.5
1574
1574.6
1575.2
1575.7
1576.3
1576.9
1577.5
1578
1578.6
1579.1
1579.7
1580.3
1580.8
1581.4
1582
1582.6
1583.1
1583.7
1584.3
1584.8
1585.4
1586
1586.5
1587.1
1587.7
1588.2
1588.8
1589.3
1589.9
1590.5
1591.1
1591.6
1592.2
1592.8
1593.3
1593.9
1594.5
1595
1595.6
1596.2
1596.8
1597.3
1597.9
1598.5
1599
1599.6
1600.2
1600.7
1601.3
1601.9
1602.5
1603
1603.6
1604.1
1604.4
1604.7
1605.3
1605.8
1606.4
1606.9
1607.2
1607.6
1608.1
1608.7
1609.3
1609.9
1610.4
1611
1611.5
1612.1
1612.7
1613.2
1613.8
1614.4
1615
1615.5
1616.1
1616.7
1617.3
1617.8
1618.4
1618.9
1619.5
1620.1
1620.6
1621.2
1621.8
1622.4
1622.9
1623.5
1623.9
1624.3
1625.2
1625.8
1626.3
1626.9
1627.5
1628
1628.6
1629.2
1629.7
1630.3
1630.8
1631.4
1632
1632.5
1633.1
1633.7
1634.3
1634.8
1635.4
1635.9
1636.5
1637.1
1637.6
1638.2
1638.8
1639.4
1639.9
1640.5
1641
1641.6
1642.1
1642.7
1643.3
1643.9
1644.4
1645
1645.6
1646
1646.7
1647.3
1647.8
1648.4
1648.9
1649.5
1650.1
1650.6
1651.2
1651.7
1652.3
1652.9
1653.4
1654
1654.6
1655.1
1655.7
1656.3
1656.8
1657.4
1658
1658.5
1659.1
1659.7
1660.2
1660.8
1661.3
1661.9
1662.5
1663.1
1663.5
1664.2
1664.7
1665.3
1665.9
1666.5
1667
1667.6
1668.1
1668.7
1669.3
1669.8
1670.4
1671
1671.6
1672.1
1672.7
1673.2
1673.8
1674.4
1675
1675.5
1676
1676.6
1677.2
1677.8
1678.3
1678.9
1679.5
1680
1680.6
1681.2
1681.7
1682.3
1682.9
1683.5
1684
1684.6
1685.1
1685.7
1686.3
1686.9
1687.4
1688
1688.6
1689.1
1689.7
1690.3
1690.8
1691.4
1691.9
1692.6
1693.1
1693.7
1694.2
1694.8
1695.4
1696
1696.6
1697.1
1697.6
1698.2
1698.8
1699.4
1699.9
1700.5
1701.1
1701.6
1702.1
1702.7
1703.3
1703.9
1704.5
1705
1705.6
1706.2
1706.8
1707.3
1707.9
1708.5
1709
1709.6
1710.1
1710.7
1711.3
1711.8
1712.4
1713
1713.5
1714.1
1714.7
1715.3
1715.8
1716.4
1717
1717.5
1718.1
1718.6
1719.2
1719.8
1720.4
1720.9
1721.5
1722
1722.6
1723.2
1723.8
1724.3
1724.9
1725.5
1726
1726.6
1727.1
1727.7
1728.3
1728.9
1729.4
1730
1730.5
1731.1
1731.7
1732.3
1732.9
1733.4
1734
1734.5
1735.1
1735.7
1736.2
1736.8
1737.4
1737.9
1738.5
1739.1
1739.7
1740.2
1740.8
1741.3
1741.9
1742.5
1743
1743.6
1744.2
1744.8
1745.3
1745.9
1746.5
1747
1747.6
1748.2
1748.8
1749.3
1749.9
1750.4
1750.9
1751.6
1752.2
1752.7
1753.3
1753.9
1754.4
1755
1755.6
1756.2
1756.7
1757.3
1757.9
1758.4
1759
1759.6
1760.1
1760.7
1761.3
1761.8
1762.4
1763
1763.5
1764.1
1764.7
1765.3
1765.8
1766.4
1766.9
1767.5
1768.1
1768.7
1769.2
1769.8
1770.4
1770.9
1771.5
1772.1
1772.6
1773.2
1773.7
1774.3
1774.9
1775.5
1776
1776.6
1777.2
1777.8
1778.3
1778.9
1779.5
1780
1780.6
1781.2
1781.7
1782.3
1782.9
1783.4
1784
1784.6
1785.2
1785.7
1786.3
1786.8
1787.3
1788
1788.6
1789.1
1789.7
1790.3
1790.8
1791.4
1792
1792.5
1793.1
1793.7
1794.2
1794.8
1795.3
1795.9
1796.5
1797.1
1797.6
1798.2
1798.7
1799.3
1799.9
1800.5
1801
1801.4
1802.1
1802.7
1803.3
1803.8
1804.4
1805
1805.5
