0.052778
0.16111
0.96111
1.8333
2.7083
3.5833
4.4639
5.2917
5.9306
6.8861
7.6583
8.5361
8.9861
10.261
11.033
11.753
12.483
13.242
14.006
14.781
15.661
16.556
17.303
18.025
18.753
19.533
20.35
21.169
21.972
22.806
23.572
24.286
25.033
25.814
26.639
27.5
28.325
29.092
29.864
30.606
31.358
32.142
32.956
33.797
34.622
35.183
36.122
36.869
37.656
38.442
39.25
40.075
40.872
41.647
42.397
43.133
43.95
44.806
45.65
46.475
47.244
47.994
48.725
49.472
50.236
51.083
51.931
52.744
53.528
54.283
55.075
55.881
56.692
57.517
58.369
59.133
59.856
60.581
61.328
62.147
62.997
63.825
64.608
65.372
66.089
66.789
67.533
68.308
69.158
70.169
70.956
71.686
72.444
73.186
73.936
74.722
75.533
76.378
76.719
77.161
77.414
77.875
78.092
78.308
79.369
80.161
80.775
81.197
81.767
82.539
82.8
82.961
83.983
84.661
85.125
86.119
86.919
87.461
87.958
88.456
89.15
89.811
90.464
91.147
91.856
92.578
93.161
94.325
95.05
95.775
96.503
97.281
98.067
98.872
99.658
100.47
101.25
101.99
102.71
103.44
104.23
105.03
105.82
106.56
107.3
107.99
108.68
109.39
110.14
110.93
111.79
112.22
113.37
114.12
114.89
115.68
116.46
117.32
117.74
119.07
119.83
120.58
121.41
122.24
123.09
123.95
124.38
125.59
126.34
127.11
127.49
128.81
129.67
130.52
130.92
132.04
132.79
133.56
134.35
135.16
136.04
136.82
137.52
138.2
138.93
139.47
139.69
140.5
141.34
142.16
142.98
143.37
144.47
145.2
145.94
146.74
147.54
148.09
149.07
149.79
150.52
151.22
151.96
152.75
153.56
154.39
155.19
155.55
156.76
157.56
158.13
159.28
160.11
160.94
161.38
161.79
163.05
163.86
164.68
165.47
166.27
167.02
167.75
168.49
168.97
170.1
170.96
171.84
172.49
173.48
174.22
174.79
175.82
176.61
177.47
178.34
179.14
179.9
180.66
181.47
182.32
183.19
184.1
184.98
185.77
186.53
187.32
187.73
189.06
189.9
190.71
191.49
192.22
192.59
193.69
194.47
195.27
196.07
196.81
197.51
198.2
198.66
199.61
200.33
201.08
201.83
202.57
203.05
203.92
204.57
205.27
205.96
206.69
207.39
208.12
208.82
209.51
210.16
210.82
211.54
212.05
213.21
214.02
214.84
215.6
216.35
217.1
217.73
218.66
219.52
220.35
220.84
221.85
222.56
223.33
224.11
224.52
225.72
226.55
227.31
228.03
228.74
229.15
230.29
231.14
231.95
232.72
233.49
234.24
234.99
235.76
236.58
237.45
238.35
239.17
239.56
240.03
241.45
242.27
242.95
243.09
243.9
244.72
245.49
246.23
246.96
247.76
248.57
249.38
250.17
250.94
251.66
252.38
253.07
253.27
253.46
254.52
255.31
255.73
256.81
257.5
257.87
258.88
259.62
260.03
260.61
261.19
262.04
262.87
263.6
264.34
265.09
265.91
266.78
267.64
268.07
269.37
270.15
270.94
271.42
272.68
273.58
274.45
275.26
275.65
276.85
277.64
278.46
279.29
280.19
281.01
281.78
282.57
283.39
284.22
285.07
285.92
286.78
287.57
288.28
289.02
289.84
290.65
291.49
292.34
293.13
293.93
294.71
295.51
296
296.53
298.07
298.91
299.42
300.45
301.24
301.99
302.76
303.57
304.4
305.16
305.85
306.57
307.32
308.14
309
309.84
310.72
311.55
312.31
312.71
314.03
314.7
315.51
316.88
317.67
318.46
319.31
320.21
320.61
321.93
322.77
323.56
323.95
325.08
325.86
326.71
327.52
328.31
329.1
329.87
330.62
331.4
331.88
333.05
333.91
334.75
335.49
336.24
337.01
337.81
338.64
339.46
340.34
341.18
341.94
342.1
342.32
342.8
343.14
344.38
344.64
345.49
346.31
347.1
347.84
348.07
348.3
349.3
350.07
350.64
351.7
352.5
352.99
353.47
353.96
354.68
355.41
356.13
356.89
357.66
358.19
359.26
359.96
360.32
361.47
362.27
363.08
363.89
364.7
365.48
366.27
367.04
367.83
368.76
369.68
370.56
371.39
372.18
372.57
373.91
374.77
375.74
376.64
377.42
378.17
378.9
379.67
380.45
381.25
382.04
382.87
383.6
384.29
385.01
385.77
386.61
387.48
388.33
389.16
389.98
390.37
391.59
392.44
393.36
393.93
395.14
395.97
396.77
397.59
398.44
399.31
400.22
401.11
401.89
402.27
403.57
404.44
405.32
406.19
407.02
407.82
408.58
409.37
409.92
411.15
412.02
412.85
413.28
414.4
415.19
415.98
416.78
417.68
418.55
419.35
420.14
420.94
421.8
422.68
423.52
424.03
424.41
425.24
425.64
426.78
427.58
428.39
429.25
430.07
430.83
431.56
432.27
432.96
433.43
434.37
435.09
435.86
436.63
437.35
438.04
438.78
439.57
440.38
441.23
442.1
442.96
443.37
444.57
445.4
446.29
446.79
448.03
448.87
449.64
450.38
451.11
451.86
452.43
453.62
454.5
455.35
456.14
456.93
457.77
458.21
459.48
460.39
461.2
461.93
462.66
463.11
464.25
465.11
465.93
466.38
466.76
467.52
468.26
468.72
469.79
470.59
471.42
472.23
472.97
473.68
474.38
475.1
475.81
476.34
477.35
478.16
478.96
479.68
480.05
481.19
481.96
482.77
483.61
484.44
485.25
486.01
486.75
487.56
488.45
489.34
490.19
491.07
491.89
492.71
493.54
494.41
494.88
496.26
496.82
497.86
498.61
499.38
500.16
500.95
501.78
502.25
502.59
503.36
503.74
504.81
505.57
506.36
507.14
507.9
508.68
509.41
510.09
510.76
511.24
512.19
512.96
513.73
514.47
515.18
515.89
516.57
517.3
518.07
518.88
519.74
520.61
521.39
522.13
522.91
523.67
524.45
525.24
526.03
526.81
527.55
528.23
528.67
529.65
530.44
531.22
531.98
532.74
533.19
534.17
534.88
535.62
536.37
537.21
537.71
538.85
539.6
540.34
541.11
541.92
542.16
542.41
543.53
544.41
544.93
545.93
546.65
547.14
548.18
548.96
549.5
550
550.5
551.26
551.95
552.62
553.32
553.81
554.79
555.57
556.32
557.01
557.68
558.15
559.07
559.75
560.49
561.23
562.01
562.55
563.51
564.19
564.58
565.7
566.49
567.29
568.1
568.92
569.66
570.38
571.09
571.86
572.69
573.53
574.31
575.06
575.77
576.46
577.15
577.85
578.59
579.39
580.16
580.86
581.53
582.17
582.84
583.57
584.29
585.02
585.81
586.62
587.36
588.05
588.77
589.52
589.99
591.18
591.96
592.81
593.58
594.31
595.06
595.84
596.67
597.54
598.36
599.14
599.91
600.67
601.43
602.22
603.03
603.86
604.7
605.46
606.18
606.97
607.53
608.58
609.4
610.21
611.02
611.77
612.5
613.27
614.1
614.97
615.79
616.65
617.46
618.25
619.04
619.85
620.73
621.19
622.55
623.37
624.14
624.95
625.77
626.19
627.52
628.43
629.25
629.63
630.82
631.6
632.48
633.33
634.19
635.05
635.83
636.61
637.4
638.24
639.11
640.01
640.86
641.64
642.44
642.83
644.06
644.91
645.72
645.98
646.23
647.37
648.09
648.62
649.63
650.43
650.94
652.06
652.84
653.31
654.33
655.04
655.5
656.05
656.6
657.42
658.22
659
659.72
660.44
661.18
661.91
662.72
663.27
664.49
665.25
666.02
666.78
667.6
668.44
669.29
670.2
671.08
671.88
672.26
673.56
674.47
675.41
676.32
677.23
678.06
678.86
679.69
680.09
681.52
682.39
683.2
683.97
684.73
685.52
686.33
686.78
688.08
688.92
689.7
690.45
691.26
691.73
692.89
693.7
694.52
695.31
696.04
696.76
697.52
698.37
699.21
700.02
700.86
701.64
702.43
702.82
704.03
704.91
705.78
706.24
707.4
708.14
708.89
709.67
710.43
710.83
712.02
712.82
713.54
714.24
714.97
715.72
716.53
717.34
718.15
718.59
719.79
720.54
721.3
722.09
722.93
723.79
724.64
725.42
726.22
726.99
727.77
728.6
729.44
730.31
731.13
731.86
732.6
733.01
734.2
735
735.8
736.61
737.39
738.13
738.87
739.64
740.48
741.36
742.21
743.06
743.84
744.63
745.44
746.25
747.15
748.07
748.94
749.77
750.56
751.42
752.31
753.2
754.11
755.04
755.86
756.66
757.51
758.06
759.38
760.26
761.14
761.96
762.36
763.54
764.36
765.2
766.05
766.85
767.59
768.35
769.11
769.85
770.66
771.48
771.93
773.13
773.86
774.58
775.37
776.15
776.94
777.77
778.59
779.4
779.78
780.93
781.73
782.24
783.46
784.27
785.08
785.86
786.62
787.41
787.8
789.16
790.03
790.88
791.67
792.44
792.91
794.11
794.93
795.85
796.73
797.52
798.31
799.1
799.59
800.88
801.75
802.63
803.46
804.24
805.01
805.82
806.25
807.57
808.41
809.19
809.97
810.71
811.1
812.2
812.98
813.77
814.56
815.3
816.01
816.74
817.51
818.28
819.07
819.89
820.72
821.54
821.92
823.13
823.97
824.84
825.67
826.52
826.99
828.17
828.96
829.76
830.61
831.07
832.39
833.19
833.97
834.75
835.56
836.38
837.21
837.48
837.66
838.25
838.64
839.75
840.01
840.75
841.52
842.33
843.12
843.65
844.71
845.45
846.18
846.88
847.61
848.36
849.17
849.98
850.78
851.55
851.96
852.44
853.73
854.55
855.39
856.26
857.07
857.83
858.37
859.51
860.33
861.21
862.09
862.53
863.83
864.61
865.44
866.32
867.21
868.09
868.96
869.79
870.59
871.41
871.8
873.17
874.03
874.83
875.58
876.33
877.1
877.88
878.37
879.56
880.42
880.92
881.94
882.67
883.42
884.18
884.97
885.76
886.59
887.35
888.06
888.44
889.54
890.34
891.17
891.99
892.81
893.62
894.4
895.21
896.06
896.94
897.88
898.78
899.62
900.08
901.4
902.26
903.18
903.73
905.07
905.88
906.67
907.56
908.42
909.28
910.17
910.57
911.83
912.59
913.36
913.78
915.06
915.87
916.69
917.48
918.23
919.01
919.77
920.53
921.34
922.14
922.91
923.62
924.34
925.06
925.84
926.65
927.08
928.33
929.16
929.92
930.68
931.48
932.04
933.2
934.07
934.91
935.75
936.55
937.35
938.21
939.12
940.08
940.58
941.87
942.73
943.61
944.47
944.98
946.35
947.24
948.04
948.83
949.66
950.51
951.35
952.2
953.04
953.85
954.6
955.37
955.88
957.11
957.96
958.79
959.54
960.27
961.02
961.78
962.56
963.44
964.27
965.06
965.81
966.54
966.95
968.16
968.98
969.83
970.71
971.5
972.24
973.01
973.82
974.71
975.14
976.52
977.39
978.2
978.97
979.8
980.69
981.6
982.51
983.34
983.75
985.01
985.8
986.65
987.06
987.59
989.05
989.81
990.55
991.3
992.06
992.82
993.59
994.37
995.16
995.89
996.59
997.33
998.13
998.94
999.74
1000.6
1001.3
1002.1
1002.9
1003.7
1004.5
1005
1006.3
1007.1
1007.9
1008.7
1009.5
1010.4
1011.2
1012.1
1013
1013.8
1014.6
1015.4
1016.2
1016.7
1018
1018.8
1019.3
1020.4
1021.1
1021.9
1022.7
1023.6
1024
1025.3
1026
1026.8
1027.6
1028.3
1028.9
1030
1030.8
1031.6
1032.3
1033
1033.8
1034.6
1035.4
1036.2
1037
1037.8
1038.5
1039.3
1039.7
1041
1041.9
1042.8
1043.6
1044.4
1045
1046.2
1047.1
1048.1
1049
1049.8
1050.6
1051.5
1052.4
1053.3
1054.3
1055
1056.1
1056.9
1057.7
1058.6
1059.5
1059.9
1061.3
1062
1062.8
1063.5
1064.3
1065.2
1066.1
1066.9
1067.7
1068.5
1069.2
1069.9
1070.7
1071.5
1072.3
1073.1
1073.8
1074.5
1075.2
1076
1076.7
1077.4
1078.1
1078.9
1079.6
1080.2
1080.9
1081.6
1082.3
1083.1
1083.9
1084.7
1085.4
1086.2
1086.8
1087.6
1088.3
1089.1
1089.9
1090.7
1091.5
1092.2
1092.8
1093.7
1094.5
1095.3
1096.2
1097
1097.8
1098.2
1099.4
1100.2
1101.1
1101.9
1102.8
1103.2
1104.4
1105.2
1106
1106.9
1107.7
1108
1108.2
1109.4
1110.2
1110.7
1111.8
1112.6
1113.2
1113.8
1114.3
1115.1
1115.8
1116.6
1117.4
1117.8
1118.9
1119.7
1120.6
1121.4
1122.1
1122.8
1123.6
1124.5
1125
1126.1
1127
1127.8
1128.5
1129.3
1130.2
1130.7
1132
1132.8
1133.7
1134.5
1135.3
1136.1
1137
1137.9
1138.9
1139.7
1140.6
1141.4
1142.3
1143.3
1144.2
1145.1
1145.7
1146.1
1147.5
1148.3
1149.2
1150
1150.9
1151.7
1152.4
1153.2
1153.9
1154.7
1155.5
1156.3
1157
1157.7
1158.5
1158.9
1160
1160.7
1161.6
1162.4
1163.2
1163.6
1164.6
1165.4
1166.2
1167
1167.9
1168.7
1169.4
1170.1
1170.8
1171.5
1172.3
1173.1
1173.9
1174.6
1175.3
1176
1176.7
1177.3
1177.9
1178.7
1179.5
1180.2
1180.9
1181.6
1182.2
1182.9
1183.4
1184.2
1184.9
1185.7
1186.5
1187.2
1187.9
1188.4
1189.3
1190
1190.8
1191.6
1192.4
1193.2
1193.7
1194.8
1195.5
1196.3
1196.8
1198.1
1199
1199.8
1200.6
1201.4
1202
1203.2
1204.1
1204.9
1205.8
1206.5
1207.4
1207.8
1209.1
1210
1210.8
1211.7
1212.5
1213.3
1214.2
1215.1
1216
1216.5
1217.8
1218.6
1219.5
1220.3
1221.3
1222.2
1222.7
1224
1224.8
1225.7
1226.5
1227.4
1228.4
1229.2
1230
1230.9
1231.7
1232.6
1233.2
1234.4
1234.9
1236.1
1236.8
1237.6
1238.4
1239.2
1239.7
1240.9
1241.6
1242.3
1243.1
1243.8
1244.6
1245.4
1246.2
1247
1247.7
1248.4
1249.2
1249.7
1250.7
1251.5
1252.3
1253.2
1253.4
1253.7
1254.7
1255.5
1256
1257.2
1258
1258.5
1259
1259.5
1260.3
1261
1261.7
1262.4
1263
1264
1264.8
1265.5
1266.2
1266.9
1267.4
1267.8
1269
1269.9
1270.1
1270.3
1271.4
1272.1
1272.5
1273.6
1274.3
1274.7
1275.3
1275.9
1276.7
1277.4
1278.1
1278.8
1279.5
1280.2
1281.1
1281.9
1282.7
1283.5
1284.3
1285.1
1285.9
1286.7
1287.6
1288.5
1289.4
1290.2
1291
1291.9
1292.8
1293.7
1294.6
1295.5
1296.3
1297.1
1298
1298.4
1299.7
1300.5
1301.3
1302.1
1302.8
1303.2
1304.4
1305.2
1306
1306.8
1307.6
1308.3
1309.1
1309.8
1310.6
1311.4
1312
1313.1
1313.8
1314.2
1315.2
1315.9
1316.7
1317.4
1318.1
1318.9
1319.7
1320.4
1321.1
1321.9
1322.7
1323.6
1324.5
1325.3
1326.2
1327
1327.9
1328.8
1329.4
1330.7
1331.6
1332.4
1333.3
1334.2
1335.1
1336
1337
1337.9
1338.7
1339.6
1340.6
1341.5
1342.5
1343.4
1344.3
1345.2
1346
1347
1348
1349
1349.8
1350.7
1351.6
1352.4
1353.4
1354.3
1355.2
1356
1356.7
1357.5
1358.3
1358.8
1360
1360.9
1361.6
1362.4
1363.1
1363.9
1364.8
1365.6
1366.5
1367.4
1368.2
1369
1369.9
1370.9
1371.8
1372.8
1373.7
1374.5
1375.4
1376.3
1377.2
1378.2
1379.1
1380
1380.8
1381.2
1382.4
1383.2
1384
1384.9
1385.6
1386.3
1387.1
1387.8
1388.6
1389.4
1390.2
1391
1391.5
1392.5
1393.2
1393.6
1394.7
1395.5
1396.2
1397
1397.7
1398.3
1399
1399.8
1400.5
1401.3
1402.2
1402.7
1403.3
1404.5
1405.3
1406.1
1406.9
1407.7
1408.5
1409.4
1410.2
1411
1411.8
1412.7
1413.6
1414.5
1415.4
1416.2
1417.1
1417.9
1418.7
1419.5
1420.4
1421.3
1422
1422.8
1423.6
1424
1425.2
1426
1426.5
1427.5
1428.2
1428.8
1429.5
1430.2
1431
1431.7
1432.5
1433.3
1434
1434.8
1435.2
1436.3
1437.1
1437.9
1438.7
1439.4
1439.9
1440.9
1441.7
1442.5
1443.3
1444.1
1444.6
1445.7
1446.5
1447
1448.1
1449
1449.9
1450.8
1451.7
1452.2
1453.3
1454.1
1455
1455.9
1456.4
1457.6
1458.3
1459.1
1459.8
1460.7
1461.5
1462.4
1463.2
1463.9
1464.7
1465.5
1466.3
1467.1
1468
1468.8
1469.7
1470.5
1471.3
1472.2
1473.1
1473.9
1474.3
1475.6
1476.4
1477.2
1477.9
1478.8
1479.2
1480.5
1481.3
1482.1
1482.8
1483.6
1484
1485.2
1486.1
1486.9
1487.7
1488.4
1489.1
1489.9
1490.7
1491.5
1492.4
1493.2
1493.9
1494.6
1495.4
1496.2
1497
1497.9
1498.7
1499.5
1500.3
1500.7
1501.9
1502.8
1503.6
1504.5
1505.3
1505.7
1506.8
1507.5
1508.3
1509
1509.8
1510.5
1511.3
1512
1512.7
1513.4
1514.2
1515
1515.8
1516.7
1517.5
1518.3
1518.7
1519.9
1520.8
1521.7
1522.1
1523.4
1524.2
1525
1525.4
1526.6
1527.5
1528
1529.2
1529.9
1530.7
1531.5
1532.3
1533.2
1533.6
1535
1535.8
1536.6
1537.4
1538.3
1539.2
1540.1
1541
1541.9
1542.7
1543.6
1544.5
1545.4
1546.4
1547.2
1548
1548.8
1549.5
1550.3
1551.1
1551.6
1552.8
1553.6
1554.3
1555
1555.8
1556.5
1557.3
1558.1
1558.9
1559.7
1560.4
1561.1
1561.9
1562.7
1563.2
1564.2
1564.9
1565.6
1566.3
1567
1567.5
1568.3
1569.1
1569.9
1570.6
1571.3
1571.7
1572.6
1573.3
1574
1574.7
1575.5
1575.8
1576
1577.2
1577.9
1578.4
1579.4
1580.1
1580.6
1581.2
1581.8
1582.5
1583.3
1584
1584.7
1585.4
1586.1
1586.8
1587.4
1588.4
1589.1
1589.5
1590.6
1591.3
1592.1
1592.9
1593.7
1594.2
1595.3
1596.1
1596.9
1597.7
1598.5
1599.4
1600.3
1601.2
1602
1602.8
1603.7
1604.6
1605.6
1606.5
1607.1
1608.3
1609.2
1609.7
1611
1612
1612.9
1613.7
1614.5
1615.3
1616.1
1616.6
1617.8
1618.7
1619.5
1619.9
1621.1
1621.9
1622.7
1623.5
1624.4
1625.3
1626.1
1626.9
1627.4
1628.6
1629.5
1630.4
1631.2
1632.1
1632.9
1633.7
1634.1
1635.4
1636.3
1637.2
1638
1638.8
1639.6
1640.4
1641.3
1642.2
1642.6
1643.9
1644.7
1645.5
1646.4
1647.2
1648
1648.9
1649.7
1650.5
1651.3
1652
1652.9
1653.8
1654.7
1655.6
1656.3
1657.2
1658
1658.8
1659.7
1660.6
1661.4
1662.1
1662.9
1663.7
1664.5
1665.4
1666.3
1667.1
1667.9
1668.7
1669.5
1670.3
1671.2
1672
1672.8
1673.6
1674.3
1675.1
1675.9
1676.4
1676.9
1678.3
1679.1
1679.9
1680.6
1681.3
1682.1
1682.8
1683.6
1684.4
1685.2
1685.9
1686.5
1687.3
1688
1688.7
1689.4
1690.2
1690.9
1691.6
1692.3
1692.7
1693.6
1694.4
1695.2
1695.9
1696.7
1697.4
1698.1
1698.8
1699.6
1700.3
1701.1
1701.9
1702.7
1703.4
1704.1
1704.8
1705.5
1706.2
1706.7
1707.6
1708.4
1709.1
1709.8
1710.4
1711.1
1711.5
1712.5
1713.3
1714
1714.8
1715.2
1716.2
1716.9
1717.6
1718.3
1719.1
1719.6
1720.8
1721.5
1722.3
1723.1
1723.9
1724.4
1725.6
1726.5
1727.3
1728
1728.8
1729.2
1730.3
1731.1
1732
1732.8
1733.6
1734.4
1734.8
1735.9
1736.7
1737.6
1738.4
1738.9
1740
1740.7
1741.5
1741.9
1743.1
1743.9
1744.7
1745.5
1746.2
1747
1747.7
1748.5
1749.3
1750.1
1750.9
1751.6
1752.4
1753.1
1753.9
1754.7
1755.6
1756.4
1757.3
1758
1758.8
1759.5
1760.3
1761.1
1761.9
1762.7
1763.5
1764.2
1764.9
1765.7
1766.5
1767.3
1768.1
1768.9
1769.7
1770.4
1771.1
1771.9
1772.4
1773.4
1774.2
1775
1775.7
1776.4
1776.9
1777.9
1778.7
1779.4
1780.2
1781
1781.7
1782.1
1783.2
1783.9
1784.8
1785.6
1786.4
1786.9
1788
1788.7
1789.5
1790.2
1791
1791.9
1792.4
1793.4
1794.2
1794.9
1795.6
1796.4
1796.6
1796.9
1797.9
1798.8
1799.3
1800.2
1800.9
1801.4
1801.8
1802.3
1803.1
1803.8
1804.5
1805.3
