0.11389
0.34444
0.86944
1.3972
1.9556
2.5028
3.05
3.5944
4.1139
4.6361
5.15
5.6722
6.1694
6.6861
7.2056
7.7389
8.3056
8.8861
9.4417
10.014
10.525
11.031
11.536
12.053
12.556
13.086
13.639
14.197
14.747
15.286
15.806
16.322
16.858
17.383
17.856
18.419
18.936
19.478
20.044
20.589
21.156
21.711
22.272
22.792
23.306
23.806
24.314
24.85
25.286
25.594
26.525
27.069
27.619
28.153
28.672
29.139
29.497
30.208
30.728
31.261
31.8
32.342
32.894
33.472
34.022
34.544
35.05
35.547
36.044
36.556
37.056
37.592
38.144
38.714
39.272
39.811
40.325
40.833
41.347
41.717
42.394
42.933
43.469
44.019
44.564
45.122
45.658
46.208
46.692
47.236
47.725
48.225
48.728
49.25
49.797
50.361
50.908
51.297
51.989
52.5
53.011
53.508
54.006
54.317
55.044
55.583
56.139
56.672
57.208
57.764
58.322
58.833
59.333
59.825
60.328
60.839
61.383
61.894
62.461
63.019
63.594
64.131
64.661
65.161
65.661
66.172
66.706
67.233
67.794
68.336
68.889
69.464
70.006
70.536
71.042
71.553
72.05
72.431
73.078
73.611
74.181
74.781
75.347
75.911
76.419
76.814
77.128
77.933
78.453
78.969
79.522
80.064
80.614
81.144
81.667
82.194
82.717
83.214
83.717
84.206
84.697
85.208
85.625
86.292
86.853
87.414
87.972
88.492
89
89.489
89.989
90.514
91.064
91.606
92.167
92.708
93.258
93.811
94.333
94.85
95.358
95.878
96.397
96.794
97.453
97.997
98.569
99.175
99.736
100.16
100.78
101.29
101.79
102.3
102.83
103.36
103.92
104.47
105.03
105.57
106.1
106.55
107.14
107.63
108.14
108.64
109.16
109.66
110.21
110.75
111.32
111.88
112.41
112.91
113.41
113.91
114.42
114.95
115.5
116.05
116.61
117.15
117.69
118.22
118.73
119.25
119.76
120.3
120.81
121.35
121.88
122.43
123
123.59
124.13
124.65
125.15
125.65
126.16
126.67
127.2
127.74
128.22
128.87
129.42
129.96
130.47
130.97
131.49
131.99
132.52
133.03
133.56
134.08
134.64
135.18
135.73
136.25
136.77
137.27
137.77
138.26
138.76
139.29
139.86
140.41
140.98
141.52
142.05
142.58
143.09
143.58
144.1
144.63
145.17
145.71
146.27
146.82
147.38
147.94
148.48
148.99
149.5
149.98
150.49
151.01
151.55
152.1
152.64
153.22
153.78
154.31
154.81
155.3
155.8
156.33
156.85
157.38
157.92
158.46
158.99
159.43
160.06
160.59
161.09
161.58
162.06
162.51
163.08
163.61
163.99
164.73
165.28
165.83
166.32
166.83
167.21
167.83
168.32
168.83
169.36
169.91
170.46
171.01
171.54
172.07
172.59
173.09
173.62
174.12
174.63
175.16
175.71
176.24
176.8
177.36
177.94
178.44
178.95
179.2
179.32
179.64
179.96
180.32
180.48
181.01
181.36
182.13
182.67
183.22
183.76
184.3
184.79
185.28
185.78
186.28
186.78
187.19
187.32
187.66
187.85
188.39
188.97
189.56
190.1
190.61
191.11
191.58
192.08
192.58
193.11
193.39
193.65
194.21
194.76
195.2
195.32
195.85
196.35
196.86
197.37
197.86
198.39
198.53
198.74
199.11
199.97
200.55
201.08
201.63
202.18
202.59
203.18
203.66
204.15
204.66
204.89
205.2
205.74
206.28
206.84
207.36
207.89
208.41
208.91
209.43
209.92
210.45
210.95
211.49
212.02
212.56
213.11
213.67
214.19
214.71
215.2
215.69
216.18
216.69
217.2
217.75
218.3
218.86
219.41
219.95
220.45
220.96
221.47
221.98
222.51
223.04
223.56
224.1
224.65
225.17
225.73
226.26
226.78
227.27
227.78
228.28
228.75
229.32
229.89
230.45
231.02
231.56
232.09
232.59
233.08
233.57
234.04
234.61
235.14
235.68
236.24
236.79
237.33
237.88
238.41
238.9
239.4
239.89
240.39
240.89
241.39
241.93
242.47
243.03
243.58
244.12
244.62
245.11
245.6
246.1
246.63
247.16
247.7
248.23
248.78
249.34
249.86
250.37
250.86
251.37
251.86
252.37
252.88
253.4
253.96
254.56
255.12
255.66
256.18
256.68
257.19
257.7
258.18
258.69
259.23
259.79
260.29
260.9
261.44
261.97
262.5
263.04
263.54
264.06
264.55
265.08
265.61
266.18
266.73
267.3
267.86
268.41
268.92
269.43
269.94
270.45
270.99
271.55
272.11
272.68
273.23
273.75
274.28
274.79
275.31
275.83
276.38
276.89
277.44
277.98
278.53
279.1
279.68
280.22
280.74
281.28
281.76
282.28
282.8
283.34
283.89
284.47
285.01
285.41
286.07
286.6
287.13
287.67
288.19
288.72
289.25
289.8
290.35
290.93
291.46
292.02
292.55
293.06
293.54
294.03
294.52
295.03
295.59
296.18
296.76
297.36
297.89
298.41
298.92
299.42
299.93
300.45
301.01
301.56
302.13
302.67
303.23
303.79
304.34
304.84
305.35
305.73
306.09
306.84
307.39
307.92
308.48
309.04
309.59
310.12
310.62
311.11
311.61
312.11
312.64
313.17
313.73
314.27
314.83
315.4
315.93
316.44
316.94
317.45
317.94
318.48
318.99
319.52
320.09
320.67
321.23
321.81
322.32
322.83
323.32
323.82
324.32
324.84
325.4
325.95
326.39
327.06
327.58
328.11
328.63
329.13
329.63
330.14
330.63
331.04
331.67
332.19
332.76
333.31
333.87
334.38
334.88
335.37
335.87
336.39
336.93
337.46
338.02
338.55
339.12
339.67
340.19
340.7
341.21
341.73
342.24
342.78
343.31
343.84
344.4
345.01
345.58
346.13
346.64
347.14
347.64
348.16
348.66
349.2
349.75
350.32
350.88
351.44
351.97
352.48
353
353.51
354.01
354.54
355.05
355.6
356.17
356.71
357.27
357.82
358.36
358.87
359.39
359.89
360.41
360.94
361.51
362.09
362.67
363.23
363.8
364.32
364.83
365.21
365.85
366.38
366.92
367.46
368.01
368.54
369.11
369.67
370.21
370.72
371.23
371.71
372.2
372.73
373.25
373.79
374.33
374.91
375.47
376.03
376.55
377.05
377.56
378.09
378.62
379.16
379.7
380.25
380.79
381.23
381.88
382.41
382.9
383.44
383.93
384.44
384.94
385.48
386.05
386.64
387.19
387.76
388.27
388.78
389.29
389.8
390.32
390.84
391.39
391.94
392.51
393.07
393.62
394.16
394.69
395.2
395.71
396.22
396.74
397.27
397.84
398.38
398.97
399.54
400.1
400.61
401.12
401.61
402.13
402.68
403.23
403.79
404.36
404.92
405.35
406.04
406.54
407.06
407.56
408.09
408.48
409.16
409.69
410.24
410.8
411.42
411.97
412.5
412.98
413.47
413.97
414.49
415.02
415.6
416.2
416.8
417.37
417.93
418.43
418.94
419.47
420
420.55
421.08
421.63
422.18
422.75
423.32
423.89
424.43
424.94
425.43
425.93
426.45
427
427.38
427.75
428.28
428.75
429.31
429.87
430.38
430.89
431.35
431.91
432.45
432.9
433.54
434.1
434.65
435.23
435.81
436.34
436.86
437.36
437.87
438.38
438.91
439.43
440
440.43
441.17
441.71
442.24
442.75
443.26
443.78
444.31
444.84
445.38
445.93
446.48
447.05
447.59
448.13
448.64
449.16
449.65
450.17
450.63
451.2
451.76
452.36
452.92
453.5
454.01
454.51
455.02
455.52
456.04
456.56
457.12
457.66
458.23
458.79
459.34
459.89
460.43
460.93
461.44
461.94
462.46
462.96
463.51
464.04
464.62
465.2
465.77
466.27
466.78
467.28
467.79
468.33
468.87
469.42
469.99
470.55
471.11
471.66
472.17
472.69
473.2
473.71
474.23
474.77
475.29
475.82
476.38
476.97
477.54
478.1
478.6
479.09
479.59
480.1
480.61
481.16
481.53
482.27
482.81
483.37
483.89
484.41
484.92
485.43
485.91
486.44
486.93
487.46
487.99
488.53
489.06
489.61
490.15
490.66
491.16
491.66
492.15
492.66
493.2
493.77
494.33
494.74
495.43
495.96
496.44
496.98
497.48
497.99
498.52
498.92
499.21
500.14
500.6
501.27
501.84
502.37
502.88
503.38
503.88
504.38
504.91
505.43
506
506.56
507.14
507.69
508.18
508.72
509.22
509.73
510.26
510.78
511.32
511.85
512.4
512.96
513.52
514.05
514.56
515.07
515.57
516.09
516.61
517.13
517.67
518.26
518.85
519.43
519.98
520.5
520.99
521.5
521.99
522.54
523.09
523.69
524.24
524.81
525.36
525.91
526.46
526.81
527.49
528.01
528.52
529.04
529.61
530.16
530.74
531.3
531.88
532.39
532.91
533.33
533.68
534.44
535.01
535.56
536.14
536.69
537.26
537.82
538.33
538.83
539.33
539.84
540.35
540.88
541.38
541.91
542.47
543.06
543.61
544.15
544.64
545.13
545.62
546.14
546.63
547.17
547.72
548.3
548.86
549.43
549.97
550.49
551.01
551.51
552.03
552.56
553.08
553.62
554.18
554.72
555.26
555.86
556.4
556.89
557.39
557.88
558.39
558.93
559.49
560.04
560.64
561.17
561.71
562.23
562.63
563.24
563.74
564.27
564.77
565.31
565.84
566.38
566.94
567.52
567.98
568.56
569.04
569.55
570.04
570.57
571.08
571.64
572.21
572.66
572.99
573.87
574.39
574.9
575.41
575.92
576.46
577
577.52
578.07
578.63
579.17
579.74
580.26
580.78
581.28
581.79
582.31
582.82
583.38
583.96
584.52
585.1
585.65
586.18
586.68
587.19
587.67
588.19
588.72
589.28
589.8
590.24
590.88
591.42
591.86
592.51
593.01
593.51
593.99
594.51
595.04
595.58
596.12
596.67
597.25
597.8
598.32
598.81
599.3
599.81
600.33
600.86
601.41
601.95
602.49
603.03
603.6
604.12
604.64
605.15
605.67
606.17
606.7
607.22
607.76
608.27
608.94
609.49
610.04
610.55
611.06
611.56
612.07
612.59
613.13
613.69
614.27
614.84
615.41
615.95
616.36
617
617.51
618.04
618.56
619.09
619.54
620.21
620.74
621.32
621.87
622.4
622.91
623.41
623.9
624.41
624.94
625.51
626.06
626.64
627.18
627.71
628.24
628.74
629.25
629.76
630.31
630.83
631.38
631.93
632.49
633.06
633.65
634.18
634.71
635.21
635.73
636.25
636.8
637.34
637.91
638.5
639.09
639.67
640.21
640.72
641.24
641.76
642.31
642.86
643.4
643.96
644.52
645.09
645.62
646.04
646.69
647.2
647.69
648.18
648.69
649.24
649.83
650.42
650.81
651.56
652.1
652.62
653.14
653.64
654.04
654.7
655.25
655.81
656.37
656.79
657.48
658.04
658.57
659.09
659.59
660.1
660.62
661.16
661.7
662.27
662.85
663.44
663.99
664.51
665.01
665.51
666.05
666.59
667.14
667.71
668.26
668.81
669.38
669.91
670.46
670.98
671.51
672.02
672.54
673.04
673.64
674.23
674.86
675.44
675.99
676.49
676.99
677.51
678.02
678.55
679.09
679.66
680.22
680.42
680.79
681.34
681.88
682.29
682.92
683.41
683.8
683.92
684.42
684.93
685.48
686
686.57
687.13
687.71
688.23
688.73
689.22
689.72
690.25
690.81
691.35
691.92
692.48
693.04
693.6
694.14
694.66
695.18
695.69
696.22
696.75
697.29
697.84
698.4
698.98
699.54
700.1
700.61
701.12
701.62
702.13
702.63
703.17
703.73
704.31
704.87
705.42
705.94
706.46
706.99
707.52
708.04
708.56
709.07
709.61
710.17
710.72
711.29
711.84
712.37
712.86
713.37
713.87
714.39
714.93
715.5
716.05
716.62
717.17
717.72
718.24
718.75
719.24
719.74
720.25
720.78
721.31
721.86
722.39
722.93
723.46
723.82
724.56
725.08
725.56
726.07
726.59
727.13
727.69
728.26
728.85
729.41
729.96
730.48
731
731.51
732.05
732.58
733.13
733.54
734.25
734.8
735.36
735.89
736.42
736.94
737.45
737.97
738.49
739
739.53
740.11
740.69
741.25
741.79
742.29
742.79
743.29
743.68
744.31
744.83
745.39
745.94
746.51
747.06
747.61
748.15
748.68
749.18
749.7
750.21
750.74
751.28
751.84
752.4
752.98
753.57
754.12
754.64
755.14
755.64
756.17
756.73
757.3
757.88
758.43
758.99
759.55
760.11
760.64
761.15
761.67
762.21
762.75
763.29
763.84
764.42
765.03
765.61
766.17
766.67
767.19
767.69
768.21
768.74
769.3
769.89
770.46
771.03
771.57
772.1
772.64
773.17
773.68
774.21
774.72
775.27
775.69
775.83
776.4
776.85
777.52
777.99
778.07
778.57
779.08
779.56
780.04
780.56
781.11
781.67
782.25
782.81
783.35
783.87
784.39
784.89
785.41
785.94
786.47
787
787.56
788.12
788.7
789.3
789.87
790.4
790.91
791.42
791.92
792.47
792.98
793.55
794.14
794.73
795.3
795.85
796.37
796.89
797.42
797.95
798.49
799.02
799.57
800.12
800.7
801.25
801.82
802.36
802.88
803.37
803.88
804.39
804.92
805.5
806.08
806.42
806.64
807.2
807.75
808.27
808.79
809.05
809.27
809.77
810.28
810.83
811.36
811.92
812.45
812.99
813.48
814.11
814.62
815.13
815.61
816.13
816.64
817.19
817.74
818.3
818.88
819.44
819.98
820.5
821.01
821.53
822.06
822.59
823.15
823.71
824.27
824.81
825.37
825.9
826.43
826.94
827.47
827.97
828.49
829
829.54
830.13
830.72
831.29
831.84
832.34
832.85
833.37
833.87
834.38
834.9
835.46
835.91
836.56
837.11
837.64
838.15
838.67
839.17
839.69
840.2
840.72
841.23
841.79
842.33
842.9
843.46
844.03
844.53
845.05
845.54
846.06
846.61
847.19
847.74
848.33
848.88
849.44
849.99
850.51
851.03
851.54
852.08
852.61
853.17
853.71
854.26
854.84
855.44
856
856.54
857.04
857.54
858.05
858.58
859.13
859.69
860.29
860.85
861.41
861.95
862.47
862.99
863.52
863.92
864.58
865.09
865.64
866.2
866.61
866.77
867.31
867.86
868.06
868.38
868.88
869.37
869.86
870.35
870.86
871.41
871.98
872.53
873.11
873.64
874.16
874.67
875.16
875.67
876.2
876.75
877.22
877.86
878.4
878.96
879.54
880.11
880.62
881.13
881.62
882.14
882.66
883.21
883.78
884.34
884.94
885.49
886.04
886.56
886.97
887.6
888.14
888.66
889.24
889.79
890.36
890.94
891.48
892.03
892.55
893.08
893.59
894.12
894.64
895.17
895.74
896.36
896.95
897.53
898.05
898.56
899.05
899.54
900.06
900.4
901.16
901.71
902.28
902.83
903.38
903.94
904.48
904.99
905.5
905.99
906.52
907.07
907.63
908.2
908.77
909.37
909.92
910.46
910.97
911.48
912
912.56
912.99
913.69
914.25
914.81
915.37
915.92
916.45
916.98
917.51
918.02
918.54
919.08
919.63
920.21
920.81
921.38
921.93
922.44
922.66
922.96
923.47
923.97
924.49
925.01
925.45
925.57
926.12
926.67
927.22
927.74
928.25
928.75
929.25
929.76
930.28
930.8
931.33
931.89
932.42
933.01
933.58
934.13
934.65
935.16
935.66
936.17
936.73
937.32
937.89
938.46
939.02
939.58
940.13
940.64
941.17
941.68
942.22
942.74
943.3
943.85
944.41
944.98
945.56
946.1
946.63
947.14
947.65
948.16
948.67
949.21
949.77
950.36
950.92
951.46
951.98
952.48
952.99
953.51
954.03
954.56
955.08
955.62
956.16
956.73
957.26
957.8
958.31
958.83
959.32
959.82
960.31
960.83
961.37
961.96
962.54
962.92
963.64
964.16
964.66
965.17
965.66
966.17
966.68
967.23
967.75
968.31
968.84
969.39
969.94
970.45
970.94
971.35
971.91
972.41
972.92
973.44
973.97
974.52
975.1
975.65
976.16
976.66
977.14
977.65
978.17
978.58
979.24
979.79
980.34
980.88
981.43
981.95
982.48
982.98
983.49
983.98
984.5
985.01
985.55
986.1
986.52
987.28
987.84
988.35
988.86
989.36
989.86
990.38
990.92
991.49
992.06
992.64
993.19
993.72
994.1
994.78
995.28
995.8
996.31
996.83
997.36
997.93
998.48
999.07
999.64
1000.2
1000.7
1001.2
1001.7
1002.2
1002.8
1003.3
1003.9
1004.5
1005
1005.6
1006.1
1006.6
1007.1
1007.7
1008.2
1008.7
1009.2
1009.8
1010.3
1010.9
1011.5
1011.9
1012.3
1013
1013.5
1014
1014.5
1015.1
1015.6
1016.2
1016.8
1017.4
1017.9
1018.4
1018.8
1019.4
1019.9
1020.5
1021
1021.5
1022.1
1022.6
1023.2
1023.8
1024.3
1024.8
1025.3
1025.8
1026.3
1026.9
1027.5
1028
1028.6
1029.2
1029.7
1030.2
1030.7
1031.3
1031.8
1032.3
1032.8
1033.4
1033.9
1034.5
1035.1
1035.5
1036.2
1036.7
1037.2
1037.7
1038.2
1038.7
1039.2
1039.8
1040.4
1040.9
1041.5
1042
1042.5
1043
1043.6
1044.1
1044.6
1045.2
1045.7
1046.3
1046.8
1047.4
1047.9
1048.4
1049
1049.5
1050
1050.5
1051
1051.6
1052.2
1052.7
1053.3
1053.7
1054.4
1054.9
1055.4
1055.9
1056.5
1057
1057.6
1058.2
1058.7
1059.3
1059.8
1060.4
1060.9
1061.4
1061.9
1062.4
1063
1063.5
1064.1
1064.7
1065.3
1065.8
1066.4
1066.8
1067.4
1067.9
1068.5
1069
1069.6
1070.2
1070.8
1071.3
1071.9
1072.4
1072.9
1073.5
1074
1074.5
1075.1
1075.6
1076
1076.8
1077.4
1077.9
1078.5
1079
1079.5
1080
1080.5
1081.1
1081.6
1082.2
1082.7
1083.3
1083.8
1084.3
1084.9
1085.4
1085.9
1086.4
1087
1087.5
1088.1
1088.6
1089.2
1089.8
1090.3
1090.8
1091.4
1091.9
1092.4
1093
1093.6
1094.1
1094.7
1095.3
1095.8
1096.4
1096.9
1097.4
1097.9
1098.5
1099
1099.6
1100.1
1100.7
1101.3
1101.9
1102.4
1102.9
1103.4
1103.9
1104.5
1105
1105.6
1106.1
1106.7
1107.3
1107.9
1108.4
1108.9
1109.4
1110
1110.4
1111.1
1111.6
1112.2
1112.8
1113.3
1113.9
1114.4
1115
1115.5
1116
1116.5
1117
1117.6
1118.3
1118.9
1119.4
1119.8
1120.5
1121
1121.5
1122
1122.6
1123.1
1123.7
1124.3
1124.8
1125.4
1125.8
1126.5
1127
1127.5
1128
1128.5
1129.1
1129.6
1130.2
1130.7
1131.3
1131.9
1132.4
1132.9
1133.4
1133.9
1134.5
1135
1135.6
1136.2
1136.7
1137.3
1137.8
1138.4
1138.9
1139.4
1139.9
1140.5
1141
1141.5
1142.1
1142.7
1143.3
1143.9
1144.4
1144.9
1145.4
1145.9
1146.4
1147
1147.5
1148.1
1148.7
1149.2
1149.8
1150.3
1150.8
1151.3
1151.8
1152.3
1152.9
1153.4
1153.9
1154.5
1155.1
1155.7
1156.2
1156.7
1157.2
1157.7
1158.2
1158.8
1159.3
1159.9
1160.4
1161
1161.5
1162.1
1162.6
1163.1
1163.6
1164.1
1164.7
1165.2
1165.7
1166.3
1166.9
1167.5
1168
1168.5
1169
1169.5
1170.1
1170.6
1171.1
1171.7
1172.3
1172.8
1173.4
1173.9
1174.4
1174.9
1175.4
1175.9
1176.5
1177
1177.5
1178.1
1178.7
1179.2
1179.8
1180.3
1180.8
1181.3
1181.9
1182.4
1182.9
1183.5
1184.1
1184.7
1185.3
1185.8
1186.3
1186.9
1187.3
1187.9
1188.4
1189
1189.5
1190.1
1190.6
1191.2
1191.6
1192.3
1192.8
1193.4
1193.8
1194.4
1194.9
1195.4
1195.9
1196.6
1197.1
1197.7
1198.2
1198.7
1199.2
1199.7
1200.2
1200.8
1201.3
1201.9
1202.4
1203
1203.5
1204.1
1204.6
1205.1
1205.6
1206.1
1206.7
1207.2
1207.7
1208.3
1208.9
1209.4
1210
1210.6
1211.1
1211.6
1212.1
1212.6
1213.2
1213.8
1214.4
1214.9
1215.5
1216.1
1216.6
1217.1
1217.6
1218.2
1218.7
1219.3
1219.8
1220.3
1221
1221.6
1222.1
1222.7
1223.2
1223.7
1224.2
1224.7
1225.3
1225.9
1226.5
1227
1227.6
1228.1
1228.6
1229.1
1229.7
1230.2
1230.7
1231
1231.1
1231.4
1231.8
1232.1
1232.4
1233
1233.6
1234.2
1234.7
1235.2
1235.7
1236.2
1236.8
1237.3
1237.9
1238.5
1239.1
1239.7
1240.2
1240.7
1241.3
1241.8
1242.4
1242.9
1243.4
1244
1244.6
1245.2
1245.7
1246.3
1246.8
1247.3
1247.8
1248.4
1248.8
1249.5
1250.1
1250.7
1251.3
1251.7
1251.8
1252.3
1252.8
1253.3
1253.8
1254.2
1254.4
1254.9
1255.5
1256
1256.5
1256.9
1257.7
1258.2
1258.7
1259.2
1259.7
1260.2
1260.7
1261.3
1261.8
1262.4
1263
1263.5
1264.1
1264.6
1265.1
1265.6
1266.2
1266.7
1267.2
1267.8
1268.4
1268.9
1269.5
1270
1270.6
1271.1
1271.6
1272.1
1272.7
1273.2
1273.8
1274.4
1274.8
1275.5
1276.1
1276.6
1277.1
1277.6
1278
1278.7
1279.2
1279.6
1279.8
1280.3
1280.9
1281.4
1282
1282.3
1282.5
1283
1283.5
1284
1284.5
1285
1285.5
1286.1
1286.7
1287.3
1287.8
1288.3
1288.8
1289.3
1289.9
1290.4
1291
1291.6
1292.1
1292.7
1293.2
1293.8
1294.3
1294.9
1295.4
1295.9
1296.5
1297
1297.6
1298.1
1298.8
1299.3
1299.9
1300.4
1300.9
1301.4
1301.9
1302.5
1303
1303.6
1304.2
1304.6
1304.9
1305.8
1306.4
1306.9
1307.4
1308
1308.5
1309
1309.5
1310.1
1310.6
1311.2
1311.7
1312.2
1312.7
1313.2
1313.7
1314.2
1314.8
1315.3
1315.9
1316.5
1317
1317.6
1318.1
1318.6
1319.2
1319.7
1320.2
1320.7
1321.3
1321.8
1322.4
1323
1323.6
1324.1
1324.6
1325.1
1325.7
1326.2
1326.7
1327.3
1327.8
1328.4
1329
1329.6
1330.1
1330.6
1331.2
1331.7
1332.2
1332.8
1333.3
1333.4
1333.8
1334.4
1335
1335.4
1335.6
1336.1
1336.6
1337.1
1337.6
1338.1
1338.6
1339
1339.8
1340.5
1340.9
1341.5
1342
1342.5
1343
1343.5
1344
1344.5
1345.1
1345.7
1346.3
1346.8
1347.3
1348
1348.5
1349
1349.5
1350
1350.6
1351.1
1351.7
1352.3
1352.8
1353.4
1354
1354.5
1355
1355.5
1356.1
1356.6
1357.2
1357.8
1358.3
1358.9
1359.4
1360
1360.5
1361
1361.5
1362.1
1362.6
1363.1
1363.7
1364.2
1364.8
1365.4
1365.9
1366.5
1367
1367.5
1368
1368.5
1369
1369.6
1370.2
1370.8
1371.3
1371.8
1372.4
1372.9
1373.4
1373.9
1374.5
1375
1375.5
1376.1
1376.7
1377.2
1377.8
1378.3
1378.8
1379.4
1379.9
1380.4
1381
1381.5
1382.1
1382.7
1383.2
1383.8
1384.3
1384.8
1385.3
1385.9
1386.4
1386.9
1387.5
1388
1388.5
1389.1
1389.7
1390.2
1390.7
1391.2
1391.7
1392.2
1392.8
1393.3
1393.9
1394.5
1394.9
1395.6
1396.1
1396.7
1397.2
1397.7
1398.2
1398.8
1399.3
1399.9
1400.4
1401
1401.5
1402.1
1402.6
1403.1
1403.6
1404.1
1404.7
1405.2
1405.8
1406.4
1407
1407.6
1408.1
1408.6
1409.1
1409.6
1410.2
1410.7
1411.3
1411.8
1412.4
1413
1413.5
1414.1
1414.6
1415.1
1415.5
1416.1
1416.6
1417.2
1417.5
1418.3
1418.9
1419.5
1420
1420.5
1421.1
1421.6
1422.1
1422.6
1423.2
1423.7
1424.3
1424.8
1425.3
1425.9
1426.4
1426.9
1427.4
1427.9
1428.4
1428.9
1429.5
1430
1430.6
1431.2
1431.8
1432.3
1432.8
1433.3
1433.8
1434.3
1434.9
1435.4
1435.9
1436.6
1437.2
1437.7
1438.2
1438.8
1439.3
1439.8
1440.3
1440.8
1441.4
1441.9
1442.5
1443
1443.6
1444.1
1444.6
1445.1
1445.6
1446.1
1446.7
1447.3
1447.8
1448.4
1449
1449.5
1450.1
1450.6
1451.1
1451.6
1452.2
1452.7
1453.1
1453.8
1454.4
1455
1455.6
1456.1
1456.7
1457.2
1457.6
1458.2
1458.7
1459.2
1459.8
1460.5
1461
1461.5
1461.8
1462.6
1463.1
1463.7
1464.2
1464.7
1465.2
1465.8
1466.3
1466.9
1467.4
1467.9
1468.5
1468.9
1469.4
1470
1470.4
1471
1471.5
1472.1
1472.7
1473.3
1473.8
1474.2
1474.8
1475.3
1475.8
1476.3
1476.9
1477.3
1478
1478.5
1479.1
1479.6
1480.2
1480.7
1481.1
1481.7
1482.2
1482.7
1483.2
1483.8
1484.3
1484.9
1485.4
1486
1486.5
1487
1487.5
1488.1
1488.6
1489.1
1489.7
1490.2
1490.7
1491.3
1491.8
1492.3
1492.8
1493.3
1493.8
1494.4
1494.9
1495.4
1496
1496.6
1497.2
1497.7
1498.3
1498.7
1499.3
1499.8
1500.3
1500.8
1501.4
1502
1502.4
1502.8
1503.6
1504.2
1504.7
1505.2
1505.7
1506.2
1506.7
1507.3
1507.8
1508.4
1508.9
1509.5
1510.1
1510.6
1511.1
1511.6
1512.1
1512.7
1513.2
1513.8
1514.3
1514.8
1515.4
1515.9
1516.5
1517
1517.5
1518
1518.5
1519
1519.5
1520.1
1520.5
1521.3
1521.8
1522.3
1522.8
1523.3
1523.8
1524.3
1524.9
1525.4
1526
1526.6
1527.1
1527.7
1528.2
1528.7
1529.3
1529.8
1530.3
1530.8
1531.4
1532
1532.5
1533.1
1533.6
1534.2
1534.7
1535.2
1535.7
1536.2
1536.8
1537.3
1537.9
1538.5
1539.1
1539.6
1540.1
1540.6
1541.1
1541.6
1542.1
1542.7
1543.2
1543.8
1544.3
1544.8
1545.4
1546
1546.5
1547
1547.5
1548
1548.5
1549
1549.6
1550.2
1550.7
1551.3
1551.9
1552.4
1552.9
1553.4
1554
1554.5
1555.1
1555.6
1556.2
1556.8
1557.3
1557.9
1558.4
1558.9
1559.5
1559.8
1560.5
1561
1561.6
1562.3
1562.9
1563.5
1564.1
1564.6
1565.1
1565.6
1566.1
1566.7
1567.3
1567.8
1568.4
1568.9
1569.5
1570
1570.6
1571
1571.5
1572
1572.6
1573.1
1573.7
1574.2
1574.6
1575.4
1575.9
1576.5
1577
1577.5
1578
1578.5
1579.1
1579.7
1580.2
1580.8
1581.4
1581.9
1582.5
1583
1583.5
1584
1584.6
1585.1
1585.7
1586.3
1586.9
1587.5
1588
1588.5
1589
1589.6
1590.1
1590.6
1591.2
1591.6
1592
1592.9
1593.5
1594
1594.5
1595.1
1595.6
1596.1
1596.6
1597.2
1597.7
1598.3
1598.9
1599.4
1600
1600.5
1601
1601.5
1602
1602.5
1603.1
1603.6
1604.2
1604.7
1605.3
1605.8
1606.3
1606.8
1607.3
1607.9
1608.4
1609
1609.4
1609.8
1610.6
1611.3
1611.8
1612.4
1612.9
1613.4
1613.9
1614.4
1615
1615.5
1616.1
1616.7
1617.3
1617.8
1618.4
1618.9
1619.4
1620
1620.5
1621
1621.6
1622.2
1622.7
1623.3
1623.9
1624.4
1624.8
1625.5
1626
1626.5
1627
1627.6
1628.2
1628.8
1629.2
1629.9
1630.4
1630.5
1630.9
1631.4
1631.9
1632.4
1632.8
1633
1633.4
1634.1
1634.6
1635.1
1635.7
1636.2
1636.7
1637.1
1637.7
1638.2
1638.8
1639.3
1639.8
1640.4
1641
1641.6
1642.1
1642.6
1643.1
1643.7
1644.2
1644.7
1645.3
1645.9
1646.4
1647
1647.5
1648.1
1648.6
1649.2
1649.7
1650.2
1650.7
1651.2
1651.8
1652.4
1652.6
1653
1653.6
1653.9
1654.6
1655
1655.2
1655.6
1656.1
1656.6
1657.2
1657.7
1658.3
1658.9
1659.4
1659.9
1660.5
1661
1661.5
1662
1662.5
1663.1
1663.6
1664.2
1664.8
1665.3
1665.9
1666.4
1667
1667.5
1668
1668.4
1669.1
1669.7
1670.3
1670.9
1671.5
1672
1672.5
1673
1673.6
1674.1
1674.6
1675.2
1675.8
1676.2
1676.9
1677.5
1678.1
1678.6
1679.1
1679.6
1680.2
1680.6
1680.7
1681.3
1681.7
1682.4
1682.7
1683
1683.5
1684
1684.5
1685
1685.5
1686.1
1686.6
1687.1
1687.7
1688.2
1688.8
1689.3
1689.9
1690.4
1690.9
1691.5
1692
1692.5
1693
1693.6
1694.2
1694.8
1695.3
1695.9
1696.4
1696.9
1697.5
1698
1698.5
1699.1
1699.6
1700.2
1700.8
1701.4
1701.9
1702.5
1703
1703.5
1704
1704.5
1705
1705.6
1706.2
1706.8
1707.4
1707.9
1708.4
1709
1709.5
1709.9
1710.5
1711.1
1711.6
1712.2
1712.8
1713.3
1713.9
1714.4
1714.9
1715.4
1715.9
1716.3
1716.9
1717.4
1718.1
1718.8
1719.3
1719.8
1720.3
1720.8
1721.3
1721.8
1722.4
1722.9
1723.4
1724
1724.6
1725.1
1725.7
1726.2
1726.7
1727.2
1727.7
1728.2
1728.8
1729.3
1729.9
1730.5
1731.1
1731.7
1732.2
1732.7
1733.2
1733.7
1734.3
1734.8
1735.4
1736
1736.6
1737.1
1737.7
1738.2
1738.8
1739.3
1739.8
1740.3
1740.8
1741.4
1741.9
1742.5
1743.1
1743.6
1744.2
1744.7
1745.1
1745.6
1746.1
1746.7
1747.2
1747.7
1748.3
1748.9
1749.4
1749.9
1750.5
1751
1751.5
1752
1752.5
1753.1
1753.6
1754.2
1754.7
1755.3
1755.8
1756.4
1756.9
1757.4
1757.9
1758.5
1759
1759.6
1760.2
1760.8
1761.2
1761.9
1762.4
1762.9
1763.5
1764
1764.5
1765.1
1765.7
1766.2
1766.6
1766.7
1767.3
1767.9
1768.4
1768.9
1769.4
1769.9
1770.3
1770.4
1771
1771.4
1772.1
1772.6
1773.2
1773.7
1774.2
1774.8
1775.3
1775.8
1776.3
1776.8
1777.4
1777.9
1778.5
1779.1
1779.5
1780.2
1780.7
1781.2
1781.7
1782.3
1782.8
1783.3
1783.9
1784.1
1784.7
1785.3
1785.9
1786.4
1786.9
1787.4
1788
1788.5
1789.1
1789.5
1790
1790.9
1791.5
1792.1
1792.6
1793.1
1793.6
1794.2
1794.7
1795.2
1795.8
1796.4
1796.9
1797.5
1797.9
1798.6
1799.1
1799.6
1800.1
1800.7
1801.3
1801.9
1802.5
1803.1
1803.6
1804.2
1804.7
1805.2
