0.28333
0.56944
1.3889
2.2556
3.1417
3.9972
4.8222
5.65
6.4583
7.3028
8.1306
8.9889
9.8472
10.714
11.539
12.322
13.114
13.953
14.828
15.736
16.581
17.392
18.194
19.036
19.867
20.731
21.597
22.444
23.283
24.094
24.881
25.711
26.544
27.453
28.311
29.142
29.939
30.747
31.558
32.425
33.328
34.172
35.008
35.828
36.617
37.456
38.044
38.936
39.8
40.656
41.489
42.283
43.069
43.897
44.789
45.672
46.492
47.328
48.128
48.925
49.786
50.633
51.489
52.353
53.189
54
54.786
55.603
56.453
57.342
58.206
59.039
59.847
60.625
61.478
62.347
63.231
64.086
64.933
65.744
66.55
67.386
68.208
69.072
69.944
70.797
71.619
72.406
73.217
74.047
74.914
75.792
76.642
77.447
78.261
79.086
79.908
80.489
81.381
82.047
82.931
83.761
84.556
85.375
86.169
86.475
86.781
87.711
88.397
89.247
89.9
90.753
91.381
91.828
92.275
93.161
93.978
94.844
95.675
96.481
97.289
98.103
98.942
99.8
100.66
101.49
102.29
103.08
103.89
104.79
105.67
106.5
107.33
108.14
108.95
109.79
110.64
111.52
112.37
113.06
113.9
114.73
115.53
116.39
117.27
118.13
118.98
119.79
120.58
121.41
122.31
123.23
124.08
124.93
125.73
126.54
127.41
128.28
129.14
130.02
130.88
131.7
132.47
133.27
134.11
134.98
135.87
136.72
137.53
138.33
139.17
140.01
140.88
141.74
142.58
143.42
144.24
145.04
145.87
146.73
147.62
148.47
149.29
150.08
150.89
151.71
152.6
153.48
154.32
155.16
155.99
156.78
157.61
158.44
159.32
160.17
160.73
161.59
162.34
163.15
164.02
164.92
165.8
166.63
167.46
168.26
169.07
169.93
170.78
171.63
172.49
173.34
174.14
174.94
175.76
176.61
177.51
178.37
179.2
179.99
180.76
181.56
182.11
183.06
183.91
184.77
185.58
186.38
186.74
187.11
187.81
188.34
188.79
189.25
190.12
190.96
191.78
192.56
193.37
194.19
195.06
195.93
196.78
197.59
198.39
199.22
200.05
200.91
201.76
202.6
203.43
204.26
205.03
205.85
206.65
207.25
208.18
209
209.81
210.33
211.18
212.01
212.92
213.78
214.61
215.44
216.27
217.06
217.89
218.74
219.61
220.47
221.31
222.11
222.92
223.73
224.61
225.5
226.35
227.18
228
228.79
229.63
230.51
231.39
232.24
233.09
233.91
234.74
235.55
236.39
236.96
237.86
238.58
239.43
240.26
241.06
241.92
242.82
243.69
244.54
245.38
246.18
246.99
247.82
248.68
249.55
250.42
251.25
252.06
252.86
253.69
254.55
255.45
256.3
257.14
257.92
258.72
259.26
260.15
260.81
261.71
262.11
262.5
263.3
264.08
264.89
265.63
266.14
266.6
267.07
267.95
268.81
269.61
270.4
271.21
272.05
272.97
273.84
274.67
275.51
276.33
277.15
277.97
278.84
279.71
280.58
281.42
282.23
283.01
283.84
284.76
285.65
286.49
287.31
288.11
288.92
289.77
290.64
291.52
292.37
293.21
293.5
293.79
294.63
295.3
296.18
296.84
297.29
297.75
298.61
299.2
300.08
300.86
301.7
302.59
303.46
304.28
305.12
305.92
306.72
307.53
308.37
309.21
310.09
310.93
311.74
312.52
313.01
313.89
314.6
315.52
316.35
317.18
317.97
318.81
319.64
320.49
321.37
322.22
323.05
323.87
324.67
325.5
326.33
327.21
328.09
328.94
329.74
330.52
331.33
332.19
333.1
333.97
334.77
335.62
336.44
337.26
338.1
338.97
339.83
340.69
341.52
342.31
343.13
343.95
344.86
345.76
346.61
347.43
348.23
349
349.59
350.54
351.37
352.26
353.1
353.92
354.72
355.54
356.38
357.27
358.14
358.99
359.79
360.58
361.39
362.28
363.19
364.05
364.89
365.71
366.51
367.34
368.21
369.09
369.95
370.82
371.63
372.43
373.23
374.08
374.8
375.74
376.46
376.93
377.77
378.56
379.42
380.29
381.19
382.06
382.91
383.72
384.52
385.34
386.2
387.09
387.63
388.54
389.38
390.17
390.97
391.8
392.69
393.7
394.55
395.36
396.17
397.02
397.88
398.76
399.66
400.49
401.34
402.15
402.96
403.77
404.64
405.58
406.43
407.25
408.04
408.84
409.66
409.95
410.24
411.16
411.86
412.74
413.46
414.32
414.99
415.44
415.91
416.37
417.21
418.1
418.96
419.76
420.55
421.36
422.21
423.13
424.01
424.83
425.66
426.45
427.26
428.12
428.99
429.83
430.39
430.66
431.12
431.57
432.15
432.41
433.21
434.04
434.9
435.57
436.44
437.3
437.66
438.01
438.77
439.55
440.43
440.88
441.34
442.18
443.03
443.65
444.5
445.34
446.18
447.05
447.92
448.79
449.61
450.25
451.08
451.91
452.82
453.72
454.39
455.25
456.06
456.89
457.75
458.43
458.86
459.76
460.15
460.54
461.35
462.13
462.96
463.57
464.01
464.45
465.34
466.22
467.06
467.7
468.51
469.36
470.21
470.94
471.87
472.72
473.52
474.35
475.13
475.99
476.4
476.82
477.65
478.52
478.95
479.38
480.18
480.99
481.79
482.67
483.61
484.46
485.28
486.07
486.89
487.73
488.64
489.53
490.37
491.23
492.04
492.85
493.67
494.25
495.19
495.96
496.85
497.66
498.46
499.27
500.15
501.1
501.98
502.83
503.66
504.45
505.3
506.17
507.1
507.96
508.85
509.64
510.44
511.12
512.01
512.91
513.82
514.64
515.5
516.29
517.12
517.97
518.91
519.77
520.63
521.45
522.25
523.08
523.91
524.76
525.66
526.51
527.35
528.14
528.94
529.76
530.63
531.56
532.4
533.22
534.04
534.85
535.69
536.52
537.41
538.26
539.1
539.94
540.73
541.53
542.39
543.3
544.17
545.01
545.79
546.6
547.15
548.04
548.79
549.67
550.51
551.28
552.14
552.96
553.77
554.62
555.5
556.36
557.21
558.01
558.81
559.6
560.51
561.44
562.27
562.89
563.77
564.56
565.39
566.26
567.18
568.03
568.89
569.71
570.51
571.33
572.16
573.03
573.91
574.77
575.59
576.38
577.18
578.06
578.95
579.79
580.64
581.47
582.27
583.1
583.92
584.78
585.66
586.52
587.36
588.18
588.96
589.76
590.64
591.53
592.39
593.23
594.02
594.84
595.66
595.9
596.15
597.06
597.89
598.75
599.42
599.84
600.27
601.08
601.91
602.75
603.69
604.54
605.37
606.15
606.97
607.81
608.68
609.59
610.43
611.25
612.08
612.9
613.74
614.61
615.52
616.37
617.21
618.01
618.82
619.64
620.53
621.52
622.39
623.2
624.01
624.79
625.64
626.54
627.44
628.27
629.13
629.95
630.75
631.57
632.42
633.28
634.16
635.01
635.81
636.6
637.43
638.32
639.24
640.08
640.92
641.73
642.53
643.37
644.21
645.06
645.93
646.79
647.6
648.38
649.18
650.01
650.9
651.79
652.63
653.45
654.25
655.08
655.93
656.78
657.66
658.49
659.31
660.14
660.95
661.77
662.62
663.54
664.38
665.21
666.01
666.81
667.63
668.49
669.4
670.26
671.08
671.91
672.73
673.57
674.41
675.31
676.15
677
677.82
678.61
679.41
680.27
681.17
682.04
682.87
683.67
684.48
685.3
686.15
687.03
687.89
688.72
689.56
690.36
691.18
692
692.87
693.73
694.59
695.42
696.22
696.82
697.68
698.59
699.51
700.28
700.78
701.26
702.08
702.91
703.7
703.97
704.24
705.16
705.83
706.73
707.39
707.82
708.24
709.05
709.64
710.51
711.42
712.28
713.11
713.91
714.71
715.57
716.44
717.31
718.17
719.02
719.83
720.52
721.43
722.26
723.13
724.02
724.69
725.56
726.35
727.11
728
728.92
729.87
730.72
731.39
732.25
733.11
733.96
734.83
735.72
736.37
737.26
738.08
738.89
739.69
740.57
741.3
742.18
743
743.83
744.63
745.09
745.93
746.83
747.72
748.55
748.88
749.21
750.08
750.75
751.61
752.28
753.22
753.91
754.36
754.81
755.62
756.41
757.23
758.09
758.99
759.87
760.71
761.53
762.18
763.02
763.87
764.77
765.61
766.49
767.33
768.12
768.92
769.75
770.59
771.31
772.23
773.06
773.86
774.66
775.52
776.39
777.04
777.95
778.8
779.62
780.42
781.25
782.09
782.97
783.87
784.72
785.38
785.89
786.22
787.04
787.82
788.55
788.75
789.44
790.32
790.69
791.06
791.85
792.58
793.42
794.12
794.86
795.66
796.38
797.11
797.62
798.39
799.15
799.87
800.6
801.35
802.19
802.89
803.57
803.99
804.4
805.2
806.05
806.91
807.27
807.64
808.4
809.08
809.89
810.73
811.48
812.15
812.89
813.58
814.43
815.18
815.94
816.77
817.53
818.36
818.92
819.85
820.27
820.7
821.52
822.31
823.13
823.98
824.86
825.71
826.56
827.4
828.11
828.61
829.49
829.87
830.25
830.95
831.71
832.41
833.25
833.99
834.68
834.94
835.2
836.12
836.77
837.72
838.35
838.79
839.23
840.02
840.88
841.61
842.51
843.26
844.01
844.56
845.4
845.58
846
846.85
847.64
848.21
848.54
848.99
849.44
850.29
851.11
851.85
852.35
853.23
853.6
853.96
854.81
855.56
856.44
857.26
858.09
858.89
859.31
859.74
860.6
861.52
862.37
863.18
863.48
863.77
864.6
865.29
866.21
867.03
867.92
868.6
869.03
869.47
870.29
871.13
871.95
872.83
873.71
874.57
875.41
876.22
877.02
877.87
878.82
879.22
879.61
880.38
881.25
882.02
882.84
883.65
884.4
885.21
886.04
886.92
887.69
888.19
888.97
889.78
890.35
891.26
892.13
892.57
893
893.8
894.58
895.44
896.14
897.1
898
898.77
899.62
900.43
901.28
901.9
902.85
903.68
904.3
905.11
905.93
906.71
907.07
907.44
908.1
908.94
909.73
910.45
911.29
911.98
912.56
913.45
914.16
915.03
915.89
916.72
917.46
917.95
918.38
918.82
919.65
920.47
921.35
922.22
922.77
923.56
924.37
924.73
925.09
925.8
926.64
927.57
928.37
929.14
929.84
930.35
931.21
931.98
932.66
933.38
934.13
934.89
935.54
936.21
936.88
937.73
938.48
939.05
939.87
940.6
941.26
942.07
942.56
943.36
943.89
944.87
945.68
946.38
947.12
947.82
948.24
948.67
949.5
950.36
950.75
951.14
951.92
952.66
953.46
954.17
955
955.74
956.7
957.59
958.34
958.88
959.72
960.52
960.95
961.39
962.26
963.16
963.73
964.18
965.11
965.46
965.81
966.48
967.21
967.96
968.73
969.51
970.34
971.03
971.68
972.08
972.47
973.36
974.22
974.63
975.05
975.76
976.66
977.42
978.15
978.86
979.4
980.28
980.98
981.7
982.42
983.15
983.84
984.49
985.22
985.91
986.69
987.68
988.5
989.31
989.98
990.63
991.3
992.02
992.74
993.55
994.28
994.91
995.54
996.37
997.05
997.56
998.38
998.98
999.97
1000.8
1001.6
1002.3
1002.9
1003.6
1004.3
1005.3
1005.9
1006.7
1007.3
1008.1
1008.8
1009.5
1010.1
1011
1011.8
1012.3
1013.2
1014
1014.6
1015.3
1016
1016.5
1017.4
1018.2
1019
1019.8
1020.6
1021.3
1021.8
1022.3
1023.2
1023.9
1024.3
1024.8
1025.6
1026.4
1027.1
1027.8
1028.2
1029.1
1029.8
1030.2
1030.5
1031.2
1031.7
1032.4
1033.2
1033.9
1034.8
1035.4
1036.3
1036.9
1037.4
1038.3
1039
1039.7
1040.6
1041.1
1042
1042.9
1043.6
1044.4
1045.1
1045.9
1046.6
1047.1
1047.6
1048.4
1049.3
1050
1050.3
1050.7
1051.3
1052
1052.7
1053.6
1054
1054.5
1055.3
1056.1
1057
1057.8
1058.1
1058.4
1059.2
1059.9
1060.8
1061.5
1062.2
1062.9
1063.6
1064.4
1065.2
1065.8
1066.7
1067.6
1068.3
1068.9
1069.8
1070.6
1071.4
1072.3
1073
1073.7
1074.1
1074.5
1075.3
1076.2
1077
1078
1078.8
1079.6
1080.4
1081.2
1082.1
1083
1083.6
1084.5
1085.1
1086
1086.3
1086.6
1087.4
1088.2
1088.6
1089.1
1090
1090.8
1091.2
1091.5
1092.3
1092.7
1093.6
1094.2
1095.1
1096
1096.8
1097.3
1098.1
1098.6
1099
1099.8
1100.7
1101.6
1102.5
1103.3
1104.1
1104.9
1105.8
1106.6
1107.4
1108.3
1109.1
1109.9
1110.7
1111.6
1112.5
1113.5
1114.3
1115.2
1116
1116.8
1117.7
1118.6
1119.5
1120.3
1121.2
1122
1122.8
1123.6
1124.5
1125.4
1126.2
1127.1
1127.9
1128.7
1129.5
1130.4
1131.3
1132.1
1133
1133.8
1134.6
1135.4
1136.2
1137.1
1138
1138.9
1139.7
1140.5
1141.3
1142.1
1143
1143.9
1144.7
1145.5
1146.4
1147.2
1148
1148.9
1149.8
1150.6
1151.5
1152.2
1153
1153.8
1154.8
1155.7
1156.5
1157.3
1158.1
1159
1159.8
1160.7
1161.5
1162.4
1163.2
1164
1164.8
1165.7
1166.5
1167.4
1168.3
1169.1
1169.9
1170.7
1171.6
1172.5
1173.4
1174.3
1175.1
1175.9
1176.7
1177.6
1178.4
1179.3
1180.2
1181
1181.8
1182.6
1183.4
1184.3
1185.2
1186.1
1186.9
1187.7
1188.5
1189.4
1190.2
1191.1
1191.9
1192.8
1193.6
1194.4
1195.3
1196.1
1197
1197.8
1198.6
1199.5
1199.8
1200.2
1200.9
1201.7
1202.5
1203
1203.5
1204.3
1205.2
1206
1206.8
1207.6
1208.5
1209.4
1210.2
1211.1
1211.9
1212.7
1213.5
1214.4
1215.3
1216.2
1217
1217.8
1218.7
1219.5
1220.4
1221.3
1222.2
1223
1223.9
1224.7
1225.5
1226.4
1227.3
1228.2
1229
1229.8
1230.6
1231.5
1232.4
1233.3
1234.2
1235
1235.8
1236.6
1237.4
1238.4
1239.2
1240.1
1241
1241.8
1242.6
1243.4
1244.2
1245
1245.6
1246.5
1247.3
1248.1
1248.9
1249.7
1250.6
1251.5
1252.4
1253.1
1253.9
1254.8
1255.6
1256.5
1257.3
1258.2
1259
1259.8
1260.6
1261.5
1262.3
1263.2
1264.1
1265
1265.7
1266.6
1267.4
1268.3
1269.2
1270
1270.9
1271.7
1272
1272.4
1273.2
1273.7
1274.6
1275.5
1275.9
1276.4
1277.2
1278
1278.8
1279.6
1280.5
1281.5
1282.3
1283.1
1283.9
1284.8
1285.6
1286.4
1287.3
1288.2
1289
1289.8
1290.6
1291.4
1292.3
1293.2
1294.1
1294.9
1295.7
1296.5
1297.3
1298.2
1299.1
1300
1300.8
1301.7
1302.5
1303.3
1304.1
1305
1305.8
1306.7
1307.5
1308.3
1309.1
1310
1310.9
1311.7
1312.6
1313.4
1314.2
1315
1315.9
1316.8
1317.6
1318.5
1319.3
1320.1
1320.9
1321.8
1322.7
1323.6
1324.4
1325.3
1326
1326.9
1327.7
1328.7
1329.6
1330.5
1331.3
1332.1
1332.9
1333.8
1334.6
1335.6
1336.4
1337.3
1338.1
1338.9
1339.7
1340.6
1341.6
1342.4
1343.2
1344
1344.4
1344.8
1345.6
1346.1
1346.6
1347.5
1348.2
1348.8
1349.5
1350.1
1350.8
1351.4
1352
1352.7
1353.5
1354.1
1354.8
1355.4
1356
1356.7
1357.5
1358
1359
1359.7
1360.4
1361.1
1361.9
1362.5
1363.1
1364
1364.8
1365.3
1365.7
1366.6
1367.4
1368.2
1369
1369.9
1370.7
1371.6
1372.5
1373.3
1374.1
1374.9
1375.8
1376.7
1377.5
1378.4
1379.2
1380
1380.8
1381.7
1382.5
1383.4
1384.3
1385.1
1385.9
1386.7
1387.6
1388.5
1389.4
1390.2
1391.1
1391.9
1392.7
1393.6
1394.4
1395.3
1396.2
1397
1397.8
1398.6
1399.4
1399.7
1399.9
1400.9
1401.5
1402.4
1403
1403.5
1403.9
1404.7
1405.5
1406.4
1407.2
1408.1
1408.9
1409.8
1410.6
1411.4
1412.2
1413.1
1414
1414.8
1415.6
1416.4
1417.2
1418.1
1419
1419.8
1420.7
1421.5
1422.3
1423.1
1423.9
1424.8
1425.7
1426.5
1427.4
1428.2
1429
1429.8
1430.7
1431.6
1432.4
1433.3
1434.1
1434.9
1435.7
1436.6
1437.5
1438.3
1439.2
1440
1440.8
1441.6
1442.5
1443.4
1444.3
1445
1445.8
1446.5
1447.4
1448.3
1449.3
1450.2
1451
1451.6
1452.5
1453.3
1454.2
1455.1
1455.9
1456.6
1457.5
1458.3
1459.1
1459.9
1460.6
1461.6
1462.4
1463.3
1464.1
1464.9
1465.5
1466.4
1467.3
1468.2
1469
1469.6
1470.5
1471.3
1472.1
1473
1473.9
1474.6
1475.5
1476.3
1477
1477.9
1478.6
1479.5
1480.4
1481.2
1482
1482.8
1483.5
1484.3
1485.3
1486.1
1487
1487.8
1488.6
1489.4
1490.3
1491.2
1492.1
1492.8
1493.6
1494.4
1495.3
1496.1
1497
1497.7
1498.6
1499.5
1500.3
1501.1
1501.9
1502.6
1503.6
1504.4
1505.3
1506.1
1506.7
1507.6
1508.5
1509.4
1510.2
1511
1511.7
1512.6
1513.4
1514.3
1515.1
1516
1516.7
1517.6
1518.3
1519.2
1520
1520.9
1521.6
1522.5
1523.3
1524.1
1524.9
1525.8
1526.4
1527.3
1528.2
1529
1529.8
1530.6
1531.3
1532.2
1533
1533.9
1534.8
1535.6
1536.2
1537
1537.9
1538.8
1539.7
1540.3
1541.2
1542
1542.8
1543.6
1544.5
1545.4
1546.2
1547.1
1547.9
1548.7
1549.5
1550.4
1551.3
1552.1
1553
1553.8
1554.6
1555.4
1556.3
1557.2
1558.1
1558.9
1559.7
1560.5
1561.3
1562.2
1563.1
1563.9
1564.8
1565.6
1566.4
1567.2
1568.1
1569
1569.9
1570.7
1571.5
1572.3
1573.2
1574
1574.9
1575.8
1576.7
1577.5
1578.3
1579.1
1579.9
1580.8
1581.7
1582.5
1583.4
1584.2
1585
1585.8
1586.7
1587.6
1588.4
1589.3
1590.1
1590.9
1591.7
1592.6
1593.5
1594.4
1595.2
1596
1596.8
1597.7
1598.5
1599.5
1600.3
1601.2
1602
1602.8
1603.6
1604.5
1605.4
1606.3
1607.1
1607.9
1608.7
1609.5
1610.4
1611.4
1612.2
1613.1
1613.9
1614.4
1614.7
1615.5
1616.4
1617.3
1618.1
1619
1619.8
1620.6
1621.4
1622.3
1623.1
1624
1624.9
1625.7
1626.4
1627
1627.9
1628.8
1629.7
1630.5
1631.3
1632.1
1633
1633.8
1634.6
1635.5
1636.4
1637.2
1638
1638.8
1639.6
1640.5
1641.4
1642.2
1643.1
1643.9
1644.7
1645.5
1646.4
1647.3
1648.1
1648.9
1649.8
1650.6
1651.4
1652.2
1653.1
1654
1654.9
1655.7
1656.5
1657.3
1658.1
1659.1
1660
1660.8
1661.6
1662.4
1663.3
1664.1
1665
1665.9
1666.7
1667.5
1668.3
1669.1
1670
1670.9
1671.5
1672.4
1673.1
1673.9
1674.7
1675.5
1676.4
1677.3
1678.2
1679
1679.8
1680.6
1681.5
1682.3
1683.2
1684.1
1684.9
1685.7
1686.5
1687.3
1688.2
1689.1
1690
1690.8
1691.6
1692.4
1693.3
1694.1
1695
1695.9
1696.7
1697.5
1698.3
1699.2
1700
1700.9
1701.8
1702.6
1703.5
1704.3
1705.1
1706
1706.8
1707.7
1708.6
1709.4
1710.2
1711
1711.9
1712.7
1713.7
1714.5
1715.4
1716.2
1717
1717.8
1718.7
1719.7
1720.5
1721.3
1722.1
1723
1723.8
1724.7
1725.6
1726.5
1727.3
1728.1
1728.9
1729.7
1730.6
1731.5
1732.4
1733.2
1734
1734.8
1735.7
1736.5
1737.4
1738.3
1739.1
1739.9
1740.7
1741.5
1742.4
1743.3
1744.1
1745
1745.8
1746.6
1747.4
1748.3
1749.2
1750
1750.9
1751.7
1752.5
1753.3
1754.1
1755
1755.9
1756.8
1757.6
1758.4
1759.2
1760
1760.9
1761.8
1762.7
1763.5
1764.3
1765.1
1766
1766.8
1767.7
1768.5
1769.4
1770.2
1771
1771.8
1772.7
1773.7
1774.5
1775.3
1776.1
1776.9
1777.8
1778.7
1779.6
1780.4
1781.3
1782.1
1782.9
1783.8
1784.6
1785.5
1786.3
1787.2
1788
1788.8
1789.6
1790.5
1791.4
1792.2
1793.1
1793.9
1794.7
1795.5
1796.4
1797.3
1798.1
1799
1799.8
1800.6
1801.4
1802.2
1803.1
1804
1804.8
