0.52222
0.83333
1.7056
2.4639
3.35
3.9361
4.7444
5.3444
6.1306
6.8833
7.5667
8.3639
8.9722
9.6028
10.733
11.881
12.722
13.619
14.458
15.475
16.242
16.831
17.653
18.575
19.772
20.519
21.667
22.811
23.467
24.25
24.972
25.656
26.506
27.45
28.431
29.256
29.975
30.619
31.325
32.064
32.797
33.742
34.3
35.294
36.147
36.986
37.797
38.508
39.281
40.042
40.672
41.561
42.306
43.272
44.014
44.703
45.45
46.158
46.919
47.764
48.525
49.306
49.978
50.806
51.575
52.2
53.256
54.047
55.069
55.639
56.333
57.369
58.181
58.828
59.992
60.669
61.244
61.942
62.631
63.447
64.039
64.867
65.644
66.331
67.306
67.875
68.744
69.486
70.306
70.875
71.753
72.503
73.444
74.033
74.842
75.481
76.319
76.928
77.742
78.625
79.211
79.953
80.794
81.536
82.211
82.897
83.481
84.383
85.208
86.019
86.625
87.369
88.125
88.833
89.681
90.647
91.647
91.997
92.347
93.242
94.022
94.769
95.592
96.25
96.811
97.817
98.478
99.044
99.739
100.69
101.27
101.74
102.22
102.92
103.76
104.61
105.25
106.06
106.68
107.47
108.17
108.99
109.79
110.41
111.17
112.02
112.89
113.87
114.56
115.27
116.47
117.31
117.91
119.15
119.71
120.61
121.37
122.29
122.91
123.71
124.59
125.54
126.27
126.88
127.5
128.14
129.01
129.96
130.87
131.78
132.38
133.22
133.98
134.75
135.51
136.41
137.12
137.72
138.36
139.25
140.31
140.95
141.97
142.68
143.62
144.49
145.27
146.08
147.1
147.99
148.9
149.56
150.28
150.84
151.76
152.53
153.22
153.96
154.78
155.36
156.39
157.16
158.05
158.76
159.44
160.28
160.93
161.61
162.21
162.96
163.76
164.58
165.64
166.29
167.21
167.95
168.75
169.49
170.42
171.33
171.97
172.8
173.44
174.25
175.07
175.53
176.61
177.51
178.14
178.84
179.71
180.53
181.61
182.38
183.23
184.21
184.86
185.65
186.4
187.28
188.08
188.59
189.47
190.13
190.89
191.58
192.26
193.02
193.83
194.63
195.35
196.08
196.98
197.91
198.78
199.49
200.31
201.27
202.04
203.08
203.67
204.54
205.23
205.89
206.67
207.36
208.15
209.09
209.84
210.58
211.41
212.23
213.03
213.68
214.47
215.24
215.83
216.55
217.31
218.01
218.83
219.39
220.46
221.15
221.83
222.74
223.5
224.24
225.07
226.06
227.1
227.83
228.57
229.21
230.01
231
231.58
232.49
233.23
234.11
234.96
235.71
236.32
237.09
237.68
238.58
239.43
240.19
240.81
241.7
242.77
243.52
244.22
245.06
245.85
246.41
247.33
248.09
248.8
249.65
250.53
251.61
252.47
253.42
254.03
254.58
255.17
256.38
257.13
257.71
258.41
259.25
260.03
260.71
261.39
261.96
262.82
263.79
264.59
265.37
266.27
267.06
267.9
269.02
269.63
270.43
271.21
271.99
272.87
273.44
274.31
274.86
275.68
276.49
277.25
277.86
278.85
279.43
280.17
280.81
281.52
282.14
283.19
284.22
284.88
285.65
286.36
287.26
288.02
288.63
289.48
290.08
290.84
291.7
292.37
293.12
293.73
294.52
295.37
296.11
297.18
298.11
298.95
299.77
300.51
301.14
302.54
303.31
303.72
304.71
305.58
306.25
307.26
308.18
309.06
309.92
310.77
311.63
312.38
313.41
314.25
315.12
315.97
316.83
317.64
318.57
319.35
320.28
321.09
322.01
322.81
323.73
324.64
325.33
326.15
326.66
326.95
327.77
328.49
329.26
329.9
330.73
331.56
332.38
333.15
333.8
334.6
335.36
336.02
336.88
337.77
338.47
339.38
340.24
341.14
341.69
342.44
343.4
344.22
344.84
345.66
346.51
347.14
347.98
348.71
349.61
350.27
350.95
351.62
352.24
352.9
353.75
354.53
355.12
355.86
356.61
357.35
358.01
358.78
359.72
360.5
361.3
362.05
362.85
363.77
364.52
365.45
366.27
366.96
367.59
368.41
369.43
370.06
370.97
371.72
372.43
373.07
373.66
374.86
375.48
376.23
377.08
377.66
378.43
379.17
379.82
380.56
381.4
382.24
382.87
383.65
384.38
385.21
385.94
386.63
387.41
388.19
389.03
389.84
390.76
391.32
392.17
393.03
393.74
394.72
395.37
396.11
396.76
397.73
398.44
399.04
399.85
400.62
401.18
402.01
402.63
403.34
404.01
404.68
405.35
406.34
407.21
407.89
408.54
409.21
409.96
410.55
411.3
412.07
413.36
414.09
415.01
415.61
416.31
417.18
417.98
418.68
419.36
420.29
421.04
421.68
422.39
423.02
423.76
424.39
425.14
425.74
426.6
427.4
428.03
428.89
429.63
430.27
430.83
431.65
432.38
433.02
433.78
434.54
435.31
436.12
436.91
437.78
438.62
439.42
440.24
441.09
441.76
442.62
443.44
444.29
445.08
445.89
446.58
447.25
448.02
448.89
449.58
450.43
451.24
452.05
452.94
453.68
454.53
455.81
456.49
457.61
458.51
459.77
460.57
461.47
462.15
462.93
463.79
464.57
465.44
466.24
467.09
467.91
469.05
469.65
470.33
471.07
471.88
472.68
473.47
474.27
475.1
475.9
476.62
477.52
478.37
479.07
480.16
481.02
481.7
482.33
483.32
484.04
484.94
485.59
486.27
487.17
487.97
488.8
489.61
490.33
491.1
492.01
492.59
493.56
494.39
494.99
495.77
496.67
497.51
498.34
499.06
499.94
500.66
501.49
502.32
503.24
503.99
504.82
505.6
506.44
507.08
507.86
508.9
510.55
511.37
512.19
512.99
513.73
514.49
515.26
516.11
517.13
518.08
518.73
519.33
520.14
520.92
521.66
522.38
523.07
523.77
524.33
525.04
525.63
526.31
527.11
527.84
528.78
530.06
530.91
532.12
533.18
533.99
534.84
535.39
536.21
537.01
537.74
538.33
539.3
539.85
540.59
541.4
542.2
542.76
543.78
544.62
545.19
546.14
546.99
547.86
548.71
549.52
550.35
550.96
551.74
552.52
553.24
553.89
554.84
555.8
556.53
557.32
558.13
558.72
559.39
560.29
561.25
562.15
562.98
563.89
564.72
565.51
566.4
567.19
568
568.87
569.66
570.44
571.06
571.7
572.5
573.41
574.04
574.81
575.53
576.17
576.98
577.82
578.61
579.33
579.92
580.62
581.34
582.12
582.89
583.66
584.44
585.06
586.02
586.8
587.58
588.32
589.17
589.94
590.59
591.52
592.34
593.14
593.84
594.56
595.41
596.35
597.1
597.91
598.73
599.45
600.04
600.7
601.45
602.24
602.89
603.51
604.23
604.99
605.66
606.81
607.69
608.68
609.69
610.26
611.24
611.81
612.55
613.37
614.06
614.65
615.36
616.13
616.84
617.61
618.3
619.03
619.65
620.46
621.04
621.82
622.7
623.36
624.19
624.94
625.76
626.34
627.16
627.96
628.58
629.4
630.04
630.77
631.59
632.38
633.24
633.97
634.59
635.35
636.09
636.86
637.42
638.16
638.89
639.56
640.33
640.9
641.87
642.46
643.45
644.46
645.07
645.73
646.5
647.32
648.31
649.36
650.13
650.73
651.57
652.55
653.16
653.95
655.02
656.04
656.81
657.66
658.39
659.03
659.72
660.45
661.08
661.8
662.7
663.48
664.25
665.25
666.02
666.86
667.75
668.62
669.39
670.26
670.98
671.76
672.59
673.48
674.09
674.86
675.64
676.39
677.31
678.09
678.93
679.63
680.34
681.02
681.95
682.84
683.81
684.55
685.43
686.53
687.23
687.84
688.71
689.47
690.04
690.95
691.76
692.72
693.42
694.18
695.12
696.58
697.38
698.13
699.01
699.71
700.35
701.21
701.98
702.6
703.16
704.2
704.79
705.79
706.37
707
707.72
708.45
709.09
709.89
710.6
711.41
712.2
712.89
713.54
714.79
715.58
716.19
717.03
717.78
718.56
719.2
719.99
720.57
721.48
722.15
722.96
723.81
724.42
725.27
725.9
726.84
727.75
728.63
729.36
730.34
731.22
731.8
732.74
733.36
734.23
734.8
735.67
736.55
737.4
737.96
738.83
739.47
740.4
741.71
742.33
743.1
743.76
744.51
745.09
745.69
746.63
747.45
748.31
749.09
749.72
750.43
751.3
752.15
752.7
753.67
754.41
755.08
755.88
756.49
757.34
758.17
758.92
759.66
760.34
761
761.92
762.85
763.56
764.41
765.31
766.23
766.96
767.64
768.64
769.39
770.33
770.87
771.82
772.39
773.16
773.89
774.43
775.12
775.74
776.61
777.35
778.27
779.11
780.2
780.99
781.71
782.42
783.48
784.27
785.15
785.93
786.83
787.78
788.51
789.06
789.95
790.52
791.4
792.21
792.82
793.37
794.11
794.86
795.66
796.27
797.06
797.66
798.95
799.84
800.65
801.32
802.13
803.01
803.76
804.68
805.48
806.27
807
807.63
808.4
809.24
809.88
810.74
811.59
812.53
813.45
814.44
815.17
815.83
816.51
817.29
818.02
818.9
819.81
820.42
821.32
822.06
822.94
823.67
824.36
825.19
825.99
826.65
827.28
828.02
829.45
830.05
831.1
831.65
832.68
833.56
834.93
835.6
836.12
837.04
837.73
838.73
838.9
840.27
841.1
842.07
842.86
843.79
843.95
845.51
846.34
847.19
848.02
848.79
848.91
850.28
851.17
852.08
852.84
853.26
853.67
854.35
855.11
855.84
856.55
857.17
857.92
858.76
859.4
860.18
861.01
861.86
862.78
863.7
864.52
865.14
865.88
866.51
867.26
868.09
868.64
869.33
870.08
870.66
871.52
872.65
873.26
873.95
874.59
875.46
876
876.77
877.55
878.16
878.86
879.54
880.2
881.09
881.63
882.51
883.28
884.06
884.79
885.49
886.37
887.06
887.88
888.7
889.45
890.16
890.8
891.52
892.39
893.62
893.98
894.9
895.01
896.47
897.36
897.49
898.91
899.74
899.91
901.31
902.11
902.22
903.63
904.44
904.58
905.91
906.81
907.26
907.61
908.36
909.12
909.82
910.6
911.19
912.02
912.67
913.55
914.3
914.86
915.63
916.36
917.01
917.92
918.8
919.97
920.35
921.23
921.34
922.74
923.57
923.69
925.09
925.9
926.06
927.45
928.24
928.36
929.73
930.56
930.67
932.06
932.88
933.01
934.4
935.24
935.37
936.72
937.56
937.67
939.03
939.83
939.94
941.34
942.14
942.64
942.96
943.7
945
945.35
946.22
946.34
947.78
948.61
948.73
950.1
950.92
951.05
952.41
953.21
953.33
954.68
955.51
955.66
956.99
957.81
957.96
959.32
960.09
961.2
961.36
962.74
963.56
963.7
965.07
965.9
966.03
967.35
967.51
968.91
969.71
969.85
971.17
972
972.15
973.48
974.29
974.42
975.79
975.96
977.31
978.13
978.26
979.61
980.41
980.54
981.91
982.07
983.4
984.24
984.38
985.7
986.54
986.7
988.01
988.83
988.98
990.26
991.07
991.2
992.51
993.34
993.49
994.83
995.67
995.81
997.11
997.96
998.12
999.48
999.65
1000.9
1001.1
1002.5
1002.6
1003.9
1004.7
1004.9
1006.2
1007
1007.1
1008.4
1008.6
1010
1010.8
1010.9
1012.2
1012.4
1013.7
1013.9
1014.3
1015.3
1015.5
1016.8
1017.6
1017.7
1019
1019.8
1020
1021.3
1022.1
1022.3
1023.6
1023.7
1025.1
1025.3
1026.6
1026.8
1028.1
1028.3
1028.6
1029.6
1029.8
1031.1
1031.9
1032
1033.4
1033.6
1034.9
1035.1
1036.4
1037.2
1037.3
1038.6
1039.4
1040.2
1041
1041.8
1042.7
1043.5
1043.7
1045.1
1045.3
1046.6
1046.8
1048.2
1048.3
1049
1049.2
1049.9
1050.5
1051.2
1051.7
1052.3
1053.1
1053.8
1054.5
1055.3
1055.9
1056.7
1057.3
1058
1058.9
1059.3
1060.2
1061
1061.9
1062.8
1063.6
1064.5
1065.3
1065.5
1066.9
1067.7
1068.6
1069.4
1070.3
1071.1
1072
1072.8
1073.7
1074.5
1074.7
1076
1076.2
1077.6
1077.8
1079.1
1079.9
1080.8
1081.6
1081.8
1083.1
1084
1084.8
1085.4
1086.1
1087.2
1087.3
1088.7
1088.9
1090.2
1090.4
1091.8
1092
1093.3
1093.5
1094.8
1095.6
1096.4
1096.6
1098
1098.8
1098.9
1100.2
1101
1101.2
1102.5
1103.3
1104.2
1104.4
1105.7
1106.5
1106.7
1108
1108.8
1109.7
1110.5
1110.6
1112
1112.2
1113.5
1113.7
1115
1115.2
1115.9
1116.4
1117.2
1118.1
1118.8
1119.5
1120.1
1120.8
1121.5
1122
1122.9
1123.6
1124.6
1125.6
1126.4
1127.1
1127.8
1128.3
1129.1
1129.6
1130.3
1131.2
1131.9
1132.5
1133.4
1133.9
1134.7
1135.4
1136.1
1137
1137.8
1138.6
1139.3
1139.9
1140.8
1141.8
1142.6
1143.5
1144.1
1145
1145.6
1146.5
1147.7
1148
1148.9
1149.8
1150.6
1151.4
1152.3
1153.2
1154.1
1155
1155.9
1156.8
1157.7
1158.5
1159.4
1159.6
1161
1161.2
1162.6
1163.4
1164.3
1165.1
1166
1166.9
1167.7
1167.9
1169.3
1169.5
1170.9
1171.1
1172.4
1172.6
1174
1174.1
1175.4
1176.3
1177.1
1178
1178.1
1179.4
1180.3
1181.1
1182
1182.8
1183.7
1184.5
1184.7
1186.1
1186.3
1187.6
1187.8
1189.1
1189.3
1190.7
1190.9
1191.2
1192.2
1192.4
1193.7
1194.5
1195.3
1196.2
1197
1197.8
1198.7
1199.5
1200.4
1201.3
1201.5
1202.9
1203.1
1204.5
1205.4
1206.2
1207.1
1207.3
1208.6
1209.4
1210.3
1211.1
1211.3
1212.6
1212.8
1214.2
1214.4
1215.7
1215.9
1216
1216.2
1217.2
1217.8
1218.8
1219.3
1219.7
1219.9
1220.6
1221.7
1222.5
1223.2
1223.8
1224.6
1225.4
1226.2
1226.8
1227.6
1228.5
1229.3
1230
1230.7
1231.5
1232.4
1233.2
1233.9
1234.6
1235.5
1236.3
1237.1
1238.1
1238.7
1239.5
1240.1
1240.8
1241.5
1242.4
1243.1
1244.1
1244.9
1245.6
1246.3
1247.2
1248.1
1249
1249.8
1250.4
1251.2
1252
1253.2
1254.2
1254.9
1255.6
1256.2
1256.9
1257.5
1258.5
1259.4
1260.1
1261.1
1262.5
1263.3
1263.9
1264.5
1265.2
1265.8
1266.6
1267.5
1268.2
1268.8
1269.7
1270.5
1271.2
1272.1
1272.8
1273.5
1274.4
1275.1
1275.8
1276.6
1277.5
1278.1
1278.9
1279.7
1280.4
1281.2
1282
1282.7
1283.5
1284.4
1285
1285.7
1286.4
1287.3
1288
1288.6
1289.4
1290.1
1291
1291.9
1292.9
1294
1294.8
1295.5
1296.4
1297.1
1297.7
1298.5
1299.3
1300.1
1301
1301.6
1302.4
1303.2
1304
1305.1
1306
1306.8
1307.6
1308.2
1309.2
1310.2
1311.1
1311.8
1312.7
1313.4
1314.1
1314.8
1315.4
1316.3
1317
1317.6
1318.6
1319.4
1320
1320.8
1321.6
1322.2
1323
1323.8
1324.7
1325.3
1326.3
1327.2
1328
1328.6
1329.4
1330.2
1331.1
1331.8
1332.5
1333.3
1335
1336.1
1336.4
1337.3
1338.1
1338.9
1339.1
1340.4
1341.2
1341.3
1342.7
1343.5
1343.6
1345
1345.8
1346
1347.2
1347.3
1348.3
1348.5
1349.9
1350.8
1350.9
1352.3
1353.1
1353.2
1354.6
1355.4
1355.5
1356.9
1357.8
1357.9
1359.2
1360.1
1360.2
1361.6
1362.4
1362.5
1363.9
1364.7
1364.8
1366.2
1367
1367.1
1368.5
1368.7
1370
1370.9
1371
1372.3
1373.2
1373.3
1374.7
1375.5
1375.6
1376.9
1377.8
1377.9
1379.2
1379.4
1380.7
1381.3
1382.3
1382.9
1383.9
1384
1385.4
1385.6
1387
1387.2
1388.5
1388.7
1390
1390.2
1390.3
1390.6
1391.6
1391.8
1392.1
1393.1
1393.7
1394.3
1394.5
1395.1
1395.8
1396.6
1397.2
1398
1398.8
1399.5
1400.3
1401.2
1402.1
1402.9
1403.7
1404.9
1405.7
1406.3
1407
1407.6
1408.4
1409.2
1410.2
1410.9
1411.6
1412.5
1413.3
1414.1
1414.7
1415.6
1416.4
1417
1417.7
1418.4
1419.1
1420.4
1421.2
1422.1
1422.7
1423.5
1424.3
1425
1425.7
1426.4
1427.2
1428.2
1429.1
1429.7
1430.5
1431.5
1432.4
1433.1
1433.6
1434.6
1435.4
1435.9
1436.8
1437.8
1438.7
1439.7
1440.6
1441.4
1442.2
1442.8
1443.7
1444.7
1445.6
1446.4
1447.2
1447.9
1448.4
1449.4
1450.3
1451
1451.6
1452.5
1453.3
1454.1
1454.9
1455.4
1456.1
1457
1457.7
1458.4
1459.1
1460
1460.6
1461.2
1462.1
1463
1463.9
1465
1465.8
1466.4
1467.2
1468.1
1468.9
1469.6
1470.3
1471.2
1472.1
1472.8
1473.4
1474.2
1474.8
1475.6
1476.3
1477
1477.6
1478.3
1479
1479.9
1480.5
1481.3
1481.9
1482.7
1483.6
1484.4
1485.2
1485.9
1486.5
1487.3
1487.8
1488.8
1489.6
1490.3
1491.1
1491.9
1492.9
1493.7
1494.4
1495.2
1496.1
1496.7
1497.7
1498.5
1499.2
1499.9
1500.8
1501.6
1502.5
1503.1
1504
1504.8
1505.7
1506.7
1507.6
1508.4
1509.1
1510
1511
1511.7
1512.5
1513
1514.1
1515.1
1516.1
1517
1517.7
1518.3
1518.8
1519.6
1520.4
1521
1521.9
1522.8
1523.7
1524.5
1525.5
1526.4
1527.2
1527.9
1528.6
1529.3
1530.4
1531.1
1531.7
1532.6
1533.5
1534.5
1535.2
1536.2
1536.8
1537.9
1538.8
1539.5
1540.1
1540.8
1541.7
1542.2
1543
1543.8
1544.7
1545.9
1546.8
1547.6
1548.3
1549
1549.5
1550.5
1551
1551.9
1552.6
1553.3
1554
1554.7
1555.7
1556.5
1557.3
1558.2
1559.1
1559.8
1560.6
1561.5
1562.1
1562.8
1563.6
1564.8
1565.6
1566.5
1567.5
1568.4
1569.2
1569.8
1570.4
1571
1571.7
1572.4
1573.3
1574.4
1575.3
1576.1
1576.8
1577.5
1578.3
1579.3
1580.2
1581.1
1581.8
1582.5
1583.3
1584
1584.9
1585.8
1586.5
1587.2
1587.9
1588.7
1589.6
1590.5
1591.3
1592.2
1592.9
1593.7
1594.3
1595.2
1595.9
1596.9
1597.9
1598.6
1599.5
1600.3
1601
1601.6
1602.4
1603.6
1604.5
1605.2
1606
1607
1607.8
1608.7
1609.4
1610.1
1610.8
1611.7
1612.6
1613.3
1614.2
1614.9
1615.9
1616.5
1617.5
1618.1
1618.9
1619.7
1620.5
1621.1
1622
1622.9
1623.5
1624.2
1624.9
1625.6
1626.3
1626.9
1627.8
1628.6
1629.5
1630.6
1631.2
1631.9
1632.5
1633.6
1634.2
1635.1
1635.8
1636.5
1637.4
1638.2
1638.8
1639.6
1640.4
1641.3
1642
1642.8
1643.4
1644.3
1645.3
1646.2
1647
1647.9
1648.7
1649.7
1650.5
1651.2
1652
1652.9
1653.9
1654.7
1655.4
1656.3
1657.2
1658.1
1658.8
1659.8
1660.6
1661.3
1661.9
1662.6
1663.4
1664
1664.8
1665.5
1666.3
1666.8
1667.6
1668.8
1669.7
1670.6
1671.4
1672.1
1673
1673.8
1674.5
1675.3
1675.9
1676.8
1677.7
1678.5
1679.4
1680.2
1681.3
1682.1
1682.9
1683.8
1684.4
1685.2
1685.9
1687.2
1688.3
1689.2
1690.1
1690.7
1691.5
1692.8
1693.6
1694.3
1695.1
1696
1696.8
1697.8
1698.5
1699.3
1700.2
1701
1702.1
1702.7
1703.4
1704.2
1705
1705.8
1706.6
1707.4
1708.5
1709.3
1710
1710.6
1711.4
1712.2
1713
1713.9
1714.6
1715.4
1716.1
1717.3
1718
1718.7
1719.5
1720.3
1721.2
1721.9
1722.9
1723.7
1724.3
1725.2
1725.8
1726.6
1727.1
1727.8
1728.6
1729.2
1730
1730.7
1731.5
1732.4
1733.1
1733.9
1734.7
1735.6
1736.4
1737.2
1738.1
1738.7
1739.5
1740.3
1741.1
1742
1742.6
1743.5
1744.4
1745
1746
1746.6
1747.3
1748.1
1748.9
1749.5
1750.1
1751
1751.8
1752.7
1753.5
1754.3
1755.1
1756
1756.8
1757.6
1758.4
1759.2
1760
1760.9
1761.7
1762.3
1763.1
1763.9
1765
1765.9
1766.5
1767.2
1768
1768.8
1769.6
1770.8
1771.7
1772.5
1773.2
1774.3
1775
1775.6
1776.6
1777.2
1778.3
1779.1
1780
1780.8
1781.4
1782.4
1783.3
1784.2
1785
1785.7
1786.7
1787.3
1787.9
1788.8
1789.8
1790.7
1791.5
1792.3
1792.9
1793.8
1794.6
1795.2
1796
1796.8
1797.6
1798.4
1799.7
1800.4
1801.1
1801.9
1802.3
1803.3
1804
1804.8
