0
0.077778
0.86944
1.7
2.5444
3.3694
4.2167
5.0444
5.8917
6.7333
7.5639
8.4056
9.25
10.064
10.903
11.736
12.586
13.422
14.244
15.094
15.947
16.761
17.611
18.439
19.283
20.122
20.933
21.781
22.619
23.444
24.275
25.106
25.953
26.772
27.594
28.439
29.269
30.094
30.942
31.769
32.619
33.444
34.264
35.125
35.967
36.789
37.639
38.464
39.319
40.147
40.983
41.85
42.683
43.497
44.339
45.164
45.978
46.794
47.611
48.453
49.283
49.822
50.8
51.661
52.522
53.378
54.228
55.108
55.964
56.783
57.611
58.464
59.303
60.119
60.958
61.8
62.619
63.453
64.297
65.15
65.997
66.833
67.7
68.55
69.383
70.231
71.078
71.928
72.778
73.625
74.481
75.333
76.178
77.022
77.886
78.731
79.556
80.417
81.261
82.078
82.911
83.733
84.572
85.394
86.197
87.058
87.914
88.733
89.569
90.394
91.233
92.061
92.881
93.719
94.547
95.358
96.186
97.019
97.878
98.728
99.578
100.44
101.3
102.14
102.99
103.86
104.71
105.56
106.42
107.28
108.12
108.98
109.83
110.69
111.53
112.38
113.24
114.08
114.9
115.76
116.6
117.44
118.27
119.1
119.95
120.79
121.62
122.46
123.31
124.16
124.99
125.83
126.69
127.53
128.36
129.19
130.02
130.86
131.68
132.5
133.36
134.19
135.03
135.86
136.71
137.56
138.4
139.25
140.09
140.92
141.75
142.58
143.43
144.27
145.1
145.95
146.8
147.63
148.48
149.34
150.19
151.02
151.84
152.7
153.55
154.37
155.2
156.04
156.89
157.72
158.55
159.41
160.26
161.09
161.93
162.77
163.61
164.44
165.27
166.11
166.93
167.75
168.59
169.45
170.28
171.12
171.99
172.84
173.67
174.5
175.34
176.2
177.02
177.84
178.7
179.54
180.36
181.19
182.03
182.88
183.71
184.55
185.41
186.24
187.06
187.89
188.73
189.57
190.39
191.23
192.08
192.91
193.74
194.58
195.42
196.26
197.09
197.94
198.76
199.58
200.42
201.25
202.09
202.91
203.73
204.6
205.45
206.28
207.12
207.96
208.82
209.66
210.47
211.34
212.19
213.03
213.86
214.71
215.58
216.42
217.26
218.12
218.98
219.81
220.66
221.52
222.36
223.21
224.07
224.95
225.81
226.69
227.55
228.43
229.26
230.09
230.97
231.83
232.68
233.54
234.4
235.28
236.16
237.02
237.91
238.78
239.65
240.54
241.45
242.34
243.24
244.17
245.06
245.92
246.79
247.68
248.56
249.43
250.31
251.18
252.03
252.88
253.73
254.6
255.45
256.31
257.19
258.06
258.92
259.77
260.64
261.51
262.36
263.22
264.09
264.94
265.82
266.69
267.56
268.43
269.31
270.19
271.06
271.94
272.82
273.75
274.65
275.57
276.54
277.45
278.36
279.27
280.18
281.09
281.98
282.9
283.78
284.64
285.52
286.38
287.26
288.12
288.98
289.85
290.7
291.54
292.4
293.27
294.12
294.97
295.87
296.75
297.61
298.47
299.34
300.23
301.08
301.96
302.85
303.72
304.59
305.46
306.32
307.17
308
308.85
309.71
310.52
311.38
312.24
313.1
313.96
314.79
315.64
316.5
317.33
318.16
318.7
319.69
320.56
321.41
322.18
322.6
323.49
324.39
325.22
326.08
326.94
327.78
328.67
329.53
330.39
331.25
332.08
332.93
333.76
334.28
335.29
336.19
337.03
337.87
338.71
339.54
340.38
341.2
342.04
342.87
343.69
344.51
345.35
346.18
346.99
347.83
348.68
349.53
350.39
351.28
352.2
353.09
353.96
354.87
355.74
356.59
357.46
358.34
359.2
360.06
360.94
361.83
362.7
363.57
364.45
365.35
366.24
367.17
368.13
369.05
369.98
370.87
371.79
372.7
373.59
374.49
375.37
376.26
377.15
378.05
378.94
379.81
380.71
381.58
382.43
383.31
384.18
385.04
385.9
386.78
387.66
388.54
389.42
390.28
391.18
392.05
392.92
393.82
394.68
395.54
396.41
397.27
398.13
398.96
399.79
400.65
401.18
402.12
402.99
403.84
404.49
404.7
405.51
406.32
407.15
407.94
408.23
408.51
408.81
409.1
409.54
410.18
410.45
411.26
411.65
411.87
412.29
412.68
413.14
413.29
414.19
415.05
415.36
415.6
415.99
416.38
416.8
417.41
417.62
418.56
418.89
419.06
419.48
419.87
420.75
420.99
421.9
422.8
423.54
424.58
425.49
426.43
427.33
428.19
429.09
429.98
430.86
431.04
431.41
431.81
432.46
433.29
433.54
434.48
435.41
436.34
437.27
438.19
439.12
439.89
440.96
441.88
442.79
443.7
444.57
445.46
446.36
447.23
448.14
449.03
449.92
450.78
451.64
452.51
453.36
454.18
455.04
455.92
456.8
457.68
458.58
459.47
460.36
461.26
462.15
463.06
463.96
464.86
465.75
466.62
467.51
468.38
469.29
470.18
471.06
471.99
472.9
473.82
474.76
475.67
476.58
477.46
478.38
479.27
480.13
481.04
481.98
482.88
483.77
484.7
485.62
486.53
487.43
488.32
489.24
490.14
491.04
491.98
492.87
493.8
494.72
495.65
496.56
497.48
498.43
499.37
500.32
501.25
502.19
503.1
504.02
504.97
505.91
506.85
507.79
508.74
509.64
510.56
511.51
512.43
513.34
514.24
515.17
516.06
516.96
517.9
518.79
519.71
520.62
521.55
522.44
523.35
524.28
525.16
526.02
526.94
527.88
528.81
529.74
530.69
531.63
532.56
533.5
534.44
535.37
536.27
537.21
538.11
539.02
539.93
540.85
541.75
542.65
543.59
544.51
545.42
546.34
547.26
548.18
549.09
550.03
550.94
551.82
552.71
553.65
554.56
555.44
556.11
557.15
558.08
558.96
559.85
560.76
561.65
562.55
563.46
564.36
565.26
566.16
567.07
567.98
568.87
569.8
570.7
571.59
572.51
573.41
574.29
575.16
576.08
576.98
577.88
578.78
579.72
580.66
581.58
582.54
583.48
584.4
585.31
586.24
587.17
588.08
589.01
589.95
590.85
591.77
592.7
593.63
594.55
595.5
596.44
597.35
598.28
599.22
600.13
601.06
602.01
602.93
603.85
604.77
605.7
606.63
607.53
608.47
609.4
610.28
611.18
612.07
612.98
613.84
614.71
615.61
616.49
617.37
618.22
619.13
619.99
620.85
621.74
622.28
623.25
624.09
624.95
625.8
626.37
627.32
628.2
629.05
629.88
630.73
631.61
632.49
633.33
633.85
634.25
635.13
636.03
636.91
637.48
638.52
639.42
640.31
641.21
642.09
642.98
643.88
644.11
644.41
644.82
645.24
645.73
646.21
646.43
647.5
648.41
648.64
648.89
649.29
649.7
650.38
650.64
651.63
652.54
653.48
654.43
655.33
656.27
657.19
658.14
659.1
660.06
661.01
661.95
662.91
663.85
664.8
665.72
666.64
667.57
668.49
669.48
670.42
671.36
672.31
673.28
674.24
675.19
676.16
677.13
678.09
679.04
680.04
681
681.92
682.88
683.83
684.81
685.73
686.68
687.64
688.59
689.54
690.51
691.46
692.41
693.38
694.33
695.29
696.27
697.26
698.21
699.18
700.15
701.09
702.04
703
703.97
704.9
705.86
706.81
707.74
708.68
709.64
710.58
711.51
712.48
713.45
714.41
715.38
716.38
717.33
718.26
719.24
720.18
721.1
722
722.93
723.83
724.73
725.66
726.55
727.46
728.37
729.28
730.19
731.09
732.02
732.93
733.81
734.71
735.64
736.54
737.44
738.38
739.3
740.19
741.07
742.02
742.94
743.86
744.84
745.81
746.74
747.68
748.63
749.58
750.51
751.46
752.36
753.25
754.17
755.11
756.05
757
757.97
758.93
759.86
760.82
761.79
762.73
763.65
764.61
765.54
766.45
767.38
768.32
769.25
770.16
771.11
772.03
772.96
773.88
774.8
775.72
776.63
777.59
778.51
779.42
780.34
781.27
782.19
783.1
784.03
784.97
785.88
786.77
787.69
788.61
789.49
790.39
791.31
792.23
793.14
794.09
795.06
795.98
796.94
797.88
798.77
799.7
800.64
801.56
802.46
803.41
804.37
805.28
806.22
807.17
808.11
809.05
810.01
810.94
811.86
812.76
813.69
814.58
815.44
816.38
817.27
818.16
819.08
820
820.91
821.8
822.35
823.39
824.3
825.19
826.09
827.01
827.93
828.86
829.48
830.51
831.47
832.39
833.3
833.96
834.96
835.89
836.77
837.64
838.52
839.45
840.38
841.26
842.17
843.09
844.01
844.94
845.86
846.51
847.57
848.52
849.44
850.34
851.18
852.16
853.08
853.98
854.5
854.91
855.58
856.57
857.53
858.48
859.44
859.99
861.04
862.04
862.99
863.93
864.89
865.88
866.83
867.76
868.74
869.68
870.61
871.56
872.52
873.48
874.45
875.45
876.43
877.41
878.38
879.34
880.28
881.27
882.24
883.19
884.14
885.11
886.07
886.99
887.97
888.9
889.84
890.78
891.74
892.68
893.62
894.55
895.48
896.4
897.32
898.24
899.14
900.03
900.97
901.87
902.76
903.69
904.66
905.58
906.49
907.43
908.34
909.28
910.19
911.13
912.04
912.64
913.74
914.71
915.64
916.58
917.52
918.43
919.36
920.31
921.27
922.19
923.12
924.09
925.01
925.93
926.49
927.57
928.52
929.45
930.38
931.3
932.21
933.15
934.06
934.94
935.86
936.81
937.73
938.63
939.58
940.52
941.46
942.38
943.35
944.31
945.28
946.26
947.24
948.21
949.21
950.24
951.26
952.31
953.33
954.31
955.32
956.32
957.31
958.25
959.23
960.23
961.17
962.13
963.11
964.04
964.97
965.91
966.85
967.78
968.74
969.73
970.7
971.71
972.74
973.75
974.78
975.83
976.86
977.87
978.91
979.9
980.87
981.85
982.82
983.78
984.74
985.68
986.61
987.55
988.49
989.42
990.35
991.34
992.31
993.27
994.23
995.22
996.19
997.13
998.1
999.03
999.96
1000.9
1001.9
1002.5
1003.6
1004.5
1005.5
1006.4
1007.3
1008.2
1009.1
1010.1
1011
1011.9
1012.9
1013.8
1014.3
1014.8
1015.8
1016.8
1017.7
1018.6
1019.2
1020.3
1021.2
1022.2
1023.1
1024
1025
1025.9
1026.8
1027.8
1028.8
1029.7
1030.7
1031.7
1032.7
1033.7
1034.6
1035.6
1036.6
1037.6
1038.5
1039.5
1040.5
1041.5
1042.5
1043.5
1044.5
1045.4
1046.4
1047.4
1048.3
1049.3
1050.3
1051.2
1052.2
1053.1
1054.1
1055
1055.9
1056.8
1057.8
1058.7
1059.7
1060.6
1061.6
1062.6
1063.5
1064.5
1065.5
1066.4
1067.4
1068.4
1069.4
1070.4
1071.3
1072.3
1073.3
1074.3
1075.3
1076.3
1077.2
1078.2
1079.1
1080
1081
1081.9
1082.8
1083.8
1084.7
1085.7
1086.6
1087.4
1088.4
1089.3
1090.2
1091.1
1091.6
1092
1093
1093.9
1094.9
1095.7
1096.7
1097.6
1098.5
1099
1099.6
1100.7
1101.6
1102.5
1103.1
1103.6
1104.6
1105.6
1106.5
1107.4
1108.4
1109.3
1110.3
1110.8
1111.2
1112.3
1113.2
1114.1
1115.1
1116
1116.9
1117.8
1118.7
1119.7
1120.6
1121.5
1122.4
1123.3
1124.2
1125.1
1126
1126.8
1127.8
1128.7
1129.6
1130.5
1131.4
1132.3
1133.2
1134.2
1135.1
1136
1136.9
1137.9
1138.9
1139.8
1140.8
1141.7
1142.6
1143.6
1144.6
1145.5
1146.5
1147.4
1148.4
1149.3
1150.2
1151.1
1152
1152.9
1153.9
1154.8
1155.7
1156.6
1157.3
1157.8
1158.7
1159.7
1160.7
1161.5
1162.5
1163.4
1164.4
1165.3
1166.2
1167.2
1168.1
1169
1169.9
1170.9
1171.8
1172.7
1173.7
1174.6
1175.6
1176.5
1177.4
1178.3
1179.2
1180.1
1181
1181.9
1182.8
1183.7
1184.7
1185.6
1186.6
1187.5
1188.5
1189.4
1190.4
1191.3
1192.2
1193.1
1194
1194.9
1195.9
1196.8
1197.7
1198.6
1199.6
1200.5
1201.4
1202.4
1203.3
1204.3
1205.2
1206.2
1207.1
1208
1209
1209.9
1210.8
1211.7
1212.6
1213.3
1214.4
1215.3
1216.2
1216.7
1217.8
1218.8
1219.7
1220.6
1221.5
1222.5
1223.4
1224.3
1225.2
1226.1
1226.9
1227.5
1228.5
1229.3
1230.2
1230.8
1231.3
1232.2
1233.1
1234
1234.2
1234.5
1235
1235.3
1235.8
1236.5
1236.8
1237.8
1238.5
1239
1239.9
1241
1241.9
1242.5
1242.9
1243.7
1244.7
1245.6
1246.5
1247.4
1248.3
1249.2
1249.8
1250.3
1251.3
1252.3
1253.2
1254.2
1255.1
1256
1257
1257.9
1258.8
1259.8
1260.7
1261.7
1262.3
1263.4
1264.3
1265.2
1266
1266.9
1267.8
1268.7
1269.6
1270.4
1271.2
1272.1
1272.9
1273.3
1274.3
1275.2
1276.2
1277.1
1278
1278.9
1279.9
1280.8
1281.7
1282.6
1283.5
1284.4
1285.3
1286.2
1287.1
1288
1288.9
1289.8
1290.7
1291.5
1292.4
1293.3
1294.2
1295.1
1296
1296.9
1297.8
1298.6
1299.3
1300.3
1301.2
1302.2
1303
1303.9
1304.8
1305.7
1306.6
1307.5
1308.4
1309.3
1310.2
1311.1
1312
1312.9
1313.8
1314.7
1315.6
1316.6
1317.5
1318.4
1319.4
1320.3
1321.2
1322.1
1323
1324
1324.9
1325.9
1326.8
1327.7
1328.7
1329.6
1330.5
1331.4
1332.3
1333.2
1334.1
1335
1335.9
1336.8
1337.8
1338.7
1339.6
1340.5
1341.5
1342.4
1343.3
1344.3
1345.2
1346.1
1347
1347.9
1348.8
1349.7
1350.6
1351.6
1352.5
1353.4
1354.3
1355.2
1355.7
1356.7
1357.6
1358.5
1359.3
1360.3
1361.2
1362.1
1363
1363.9
1364.8
1365.6
1366.5
1367.5
1368.4
1369.3
1370.2
1371.1
1372
1372.9
1373.8
1374.7
1375.6
1376.5
1377.4
1378.3
1379.2
1380.1
1381
1381.8
1382.7
1383.7
1384.5
1385.4
1386.3
1387.2
1388.1
1389
1389.8
1390.7
1391.5
1392.3
1393.2
1394
1394.9
1395.8
1396.6
1397.5
1398.4
1399.3
1400.2
1401.1
1402
1402.9
1403.8
1404.7
1405.6
1406.5
1407.4
1408.3
1409.2
1410
1410.9
1411.7
1412.6
1413.5
1414.3
1415.2
1416
1416.9
1417.8
1418.7
1419.6
1420.2
1420.6
1421.5
1422.6
1423.5
1424.5
1425.4
1426.3
1427.2
1428.1
1429
1429.9
1430.8
1431.7
1432.6
1433.5
1434.4
1435.3
1436.2
1437.1
1438
1438.8
1439.7
1440.2
1441.2
1441.5
1442.1
1442.9
1443.7
1444.6
1444.9
1445.4
1446.2
1447.1
1447.9
1448.8
1449.6
1450.5
1451.3
1452.2
1453
1453.9
1454.7
1455.5
1456.4
1457.2
1458
1458.8
1459.7
1460.5
1461.4
1462.2
1463.1
1464
1464.9
1465.7
1466.6
1467.5
1468.4
1469.3
1470.2
1471
1471.9
1472.8
1473.6
1474.5
1475.4
1476.3
1477.1
1478
1478.8
1479.7
1480.5
1481.4
1482.2
1483.1
1483.9
1484.7
1485.6
1486.2
1487.2
1488.1
1489
1489.8
1490.7
1491.6
1492.4
1493.3
1494.2
1495.1
1496
1496.8
1497.7
1498.6
1499.5
1500.4
1501.2
1502.1
1503
1503.9
1504.8
1505.7
1506.6
1507.5
1508.3
1509.2
1510.1
1511
1511.8
1512.7
1513.5
1514.4
1515.3
1516.2
1517
1517.9
1518.8
1519.7
1520.5
1521.4
1522.3
1523.1
1524
1524.8
1525.7
1526.6
1527.4
1528.3
1529.2
1530.1
1531
1531.8
1532.7
1533.6
1534.5
1535.3
1536.2
1537
1537.8
1538.7
1539.5
1540
1541
1541.8
1542.6
1543.1
1544.1
1545
1545.8
1546.7
1547.6
1548.5
1549.3
1549.9
1550.4
1551.5
1552.4
1553.3
1554.2
1555.1
1556
1556.9
1557.7
1558.6
1559.4
1560.3
1561.1
1562
1562.9
1563.7
1564.6
1565.5
1566.3
1567.2
1568.1
1569
1569.8
1570.7
1571.6
1572.4
1573.3
1574.2
1575
1575.9
1576.8
1577.7
1578.5
1579.4
1580.3
1581.2
1582
1582.9
1583.8
1584.7
1585.5
1586.4
1587.3
1588.2
1589.1
1590
1590.9
1591.7
1592.6
1593.5
1594.4
1595.3
1596.1
1597
1597.9
1598.7
1599.6
1600.5
1601.4
1602.2
1603.1
1604
1604.8
1605.7
1606.6
1607.4
1608.3
1609.1
1610
1610.9
1611.8
1612.7
1613.5
1614.4
1615.3
1616.2
1617.1
1617.9
1618.8
1619.7
1620.6
1621.5
1622.4
1623.3
1624.2
1625.1
1626
1626.8
1627.7
1628.6
1629.5
1630.3
1631.2
1632.1
1633
1633.8
1634.7
1635.6
1636.5
1637.3
1638.2
1639.1
1639.9
1640.8
1641.7
1642.5
1643.4
1644.3
1645.1
1646
1646.8
1647.7
1648.6
1649.4
1650.3
1651.2
1652
1652.9
1653.7
1654.6
1655.4
1656.3
1657.2
1658
1658.9
1659.8
1660.7
1661.6
1662.5
1663.4
1664.3
1665.1
1666
1666.9
1667.8
1668.5
1669.5
1670.5
1671.3
1672.2
1673.1
1674
1674.8
1675.7
1676.6
1677.5
1678.4
1679.3
1680.1
1681.1
1681.9
1682.8
1683.7
1684.6
1685.5
1686.4
1687.3
1688.2
1689.1
1689.9
1690.8
1691.7
1692.5
1693.4
1694.3
1695.2
1696.1
1696.9
1697.4
1698.5
1699.4
1700.2
1701.1
1702
1702.8
1703.7
1704.5
1705.4
1706.3
1707.2
1708.1
1709
1709.9
1710.7
1711.6
1712.5
1713.4
1714.2
1715.1
1716
1716.9
1717.8
1718.6
1719.5
1720.4
1721.3
1722.3
1723.1
1724
1724.9
1725.8
1726.7
1727.5
1728.4
1729.3
1730.2
1731.1
1732
1732.9
1733.8
1734.7
1735.5
1736.4
1737.3
1738.2
1739
1739.9
1740.8
1741.7
1742.5
1743.4
1744.2
1745.1
1746
1746.9
1747.7
1748.6
1749.5
1750.4
1751.3
1752.1
1753
1754
1754.8
1755.7
1756.6
1757.5
1758.3
1759.2
1760
1760.9
1761.7
1762.6
1763.4
1764.3
1765.2
1766.1
1767
1767.8
1768.4
1769.4
1770.3
1771.2
1772.1
1773
1773.9
1774.8
1775.7
1776.5
1777.4
1778.3
1779.2
1780
1780.9
1781.8
1782.7
1783.6
1784.5
1785.3
1786.2
1786.7
1787.7
1788.7
1789.5
1790.5
1791.4
1792.3
1793.2
1793.7
1794.7
1795.7
1796.6
1797.5
1798.3
1799.2
1800.1
1800.9
1801.8
1802.7
1803.5
1804.4
1805.3
