0.077778
0.61111
1.2278
1.675
2.5667
3.4472
3.9722
5.0111
5.7333
6.5444
7
7.8472
8.5111
9.7917
10.55
11.467
12.469
13.439
14.144
14.875
15.381
16.244
16.942
17.642
18.089
19.108
20.042
20.867
21.358
22.419
23.058
23.739
24.489
25.683
26.428
27.181
28.064
28.817
29.558
30.044
30.903
31.619
32.442
32.922
33.742
34.417
35.394
36.183
36.681
37.489
38.158
38.883
39.567
40.394
41.117
41.575
42.594
43.239
43.983
44.681
45.939
47.017
47.769
48.411
49.117
49.75
50.569
51.289
52.106
52.975
53.517
54.55
55.189
55.964
56.372
57.367
58.086
59.006
59.692
60.433
61.053
61.767
62.219
63.139
63.867
64.797
66.014
66.956
67.667
68.336
69.108
69.992
70.503
71.389
72.078
72.725
73.172
73.944
74.633
75.403
75.864
76.919
77.658
78.292
78.925
79.353
80.717
81.453
82.306
83.189
83.669
84.519
85.167
85.772
86.453
87.631
88.314
89.333
90.097
90.592
91.642
92.389
92.864
93.744
94.475
95.214
95.886
96.325
97.133
97.853
99.083
99.803
100.56
101.09
102.13
102.78
103.45
103.9
105.14
105.83
106.73
107.47
108.17
109.01
109.89
110.33
111.16
111.84
112.52
113.01
113.94
114.84
115.46
116.06
116.53
117.59
118.48
118.96
119.8
120.45
121.08
121.68
122.34
123.16
123.64
124.56
125.31
125.82
126.71
127.4
128.2
128.65
129.54
130.29
130.96
131.66
132.11
132.96
133.7
134.18
134.91
135.69
136.54
137.04
137.85
138.46
139.07
139.52
140.46
141.82
142.71
143.18
144.01
144.81
145.28
146.11
146.86
147.53
148.49
149.25
149.95
150.7
151.72
152.41
153.06
153.55
154.5
155.19
155.95
156.54
157.36
158.04
159.31
160.03
160.67
161.16
162.06
162.7
163.36
163.8
164.61
165.26
166.04
166.77
167.93
168.59
169.27
169.71
170.59
171.45
171.93
173.2
173.99
174.45
175.35
176.01
176.64
177.34
177.81
178.61
179.27
179.91
180.35
181.23
181.86
182.56
183.03
184.13
185.39
186.23
186.69
187.53
188.22
188.99
189.48
190.29
191.62
192.54
193.21
194.45
195.34
196
196.93
197.75
198.22
199.16
200.03
200.81
201.6
202.1
203.08
203.73
204.43
204.9
205.81
207.25
208.04
208.51
209.33
210
210.62
211.24
211.95
212.67
213.22
214.21
214.99
215.77
216.25
216.97
217.56
218.22
218.71
219.6
220.29
221.32
222.06
222.54
223.43
224.04
224.67
225.54
226.03
226.99
227.91
228.36
229.25
229.9
230.52
231.22
231.7
232.62
233.24
234.07
234.89
235.32
236.26
236.94
237.64
238.14
238.98
239.67
240.3
240.75
241.57
242.28
243.25
243.75
244.74
245.38
246.1
246.55
247.69
248.17
249.08
249.79
250.94
251.63
252.27
252.97
253.58
254.17
254.79
255.46
256.25
256.98
257.44
258.26
258.87
259.48
259.98
261.06
261.76
262.44
262.91
263.82
264.45
265.15
265.89
266.55
267.19
267.68
268.65
269.29
270.05
270.85
271.3
272.21
272.86
273.46
274.12
274.64
275.46
276.03
276.83
277.52
278.13
278.62
279.45
280.24
280.73
281.73
282.41
283.05
283.65
284.14
284.98
285.74
286.26
287.09
287.81
288.58
288.81
289.04
289.91
290.69
291.16
292.17
293.08
293.55
294.14
294.72
295.38
295.96
296.58
297.07
297.91
298.58
299.24
299.7
300.5
301.35
301.8
302.61
304.37
305.02
305.71
306.16
306.99
307.57
308.57
309.29
310.1
310.58
311.62
312.39
312.82
313.54
314.19
314.93
315.44
316.26
316.93
317.61
318.39
319.41
320.02
320.68
321.4
322.02
322.66
323.16
323.92
324.54
325.4
326.78
327.63
328.11
329.08
329.74
330.38
331.22
331.86
332.5
332.96
333.95
334.64
335.47
336.36
336.78
337.63
338.34
339.02
339.7
340.47
341.57
342.79
343.43
344.11
345.4
346.07
346.95
348.11
348.96
349.75
350.23
351.2
351.83
352.44
353.11
353.59
354.5
355.67
356.45
356.93
357.96
358.57
359.2
359.93
360.58
361.32
361.96
362.63
363.15
364.17
364.91
365.41
366.32
367.22
367.82
368.44
369.13
369.6
370.45
371.66
372.3
372.89
373.34
374.09
375.35
376.13
376.89
377.38
378.29
378.88
379.51
379.94
380.77
381.45
382.14
382.61
383.53
384.31
384.76
385.59
386.21
387.11
387.74
388.38
388.99
389.88
390.54
391.11
391.6
392.44
393.39
394.25
394.76
395.78
396.42
397.06
397.67
398.13
398.94
399.69
400.36
400.98
401.22
401.46
402.25
402.99
403.46
404.35
405.14
405.64
406.16
406.68
407.31
407.97
408.61
409.18
409.95
410.42
411.36
412
412.64
413.32
413.94
414.6
415.07
415.95
416.67
417.2
418.12
418.92
419.74
420.18
421.11
421.78
422.66
423.15
424.15
424.87
425.38
426.1
426.8
427.42
428.04
428.52
429.42
430.06
430.86
431.57
432.17
432.87
433.71
434.16
435.19
435.93
436.63
437.24
437.74
438.46
439.04
439.68
440.61
441.24
441.95
442.62
443.3
443.94
444.57
445.15
445.76
446.39
446.88
448
448.72
449.36
449.87
450.57
451.18
451.78
452.29
453.13
453.78
454.52
455.34
455.78
456.74
457.42
457.9
458.79
459.58
460.21
460.88
461.36
462.35
463
463.69
464.2
465.13
465.83
466.48
467.44
468.1
468.73
469.19
470.05
470.66
471.31
471.78
472.66
473.4
474.06
474.82
475.94
476.88
477.71
478.2
479.28
479.98
480.63
481.28
482.18
483.01
483.51
484.55
485.36
485.84
486.65
487.28
488.09
488.79
489.7
490.38
491.11
491.76
492.57
493.68
494.46
495
496
496.71
497.37
498.22
498.84
499.52
499.96
500.83
501.57
502.31
502.82
503.76
504.41
505.12
505.98
506.44
507.38
508.21
508.71
509.71
510.9
511.57
512.16
512.88
513.58
514.26
514.98
515.45
516.6
517.33
518.04
518.53
519.35
520.19
520.67
521.74
522.38
522.94
523.52
524.01
524.82
525.49
525.89
526.16
526.63
527.43
528.1
528.8
529.24
529.97
530.76
530.93
531.27
532.28
532.97
533.73
534.18
534.99
535.68
536.6
537.31
538.05
538.57
539.26
539.95
540.79
541.51
542.14
542.76
543.24
544.09
544.74
545.41
545.65
545.89
546.84
547.58
547.86
548.04
548.82
549.65
550.16
550.6
551.04
551.53
551.69
552.24
552.81
553.48
554.01
554.66
555.16
556.2
556.9
557.49
557.96
558.81
559.57
560.02
561.04
561.82
562.51
563.28
563.76
564.51
565.11
565.68
566.19
566.92
567.86
568.64
569.27
569.88
570.35
571.14
571.89
572.34
573.22
574.03
574.72
575.24
576.02
576.63
577.25
577.72
578.83
579.44
580.21
580.68
581.5
582.22
582.69
583.39
584.1
584.74
585.49
586.28
587.14
587.59
588.48
589.15
589.83
590.33
591.02
591.66
592.37
592.86
593.93
594.67
595.13
596.1
596.74
597.67
598.35
599.03
599.67
600.14
600.88
602
602.76
603.24
604.25
604.99
605.69
606.18
606.93
607.56
608.21
608.91
609.51
610.3
610.78
611.74
612.73
613.42
614.13
614.63
615.63
616.34
617.02
617.64
618.12
618.93
619.54
620.16
620.65
621.4
622.36
623.12
623.79
624.41
624.85
625.66
626.49
627.27
627.91
628.71
629.35
630.18
631.42
632.47
633.21
633.9
634.57
635.35
635.92
636.52
637.23
637.8
638.63
639.38
640
640.83
641.46
641.91
642.87
643.46
643.95
644.77
645.5
646.49
647.15
647.81
648.27
649.08
649.7
650.37
650.86
651.91
652.57
653.29
654.35
655.06
655.78
656.25
657.16
657.93
658.44
659.28
660.25
660.97
661.73
662.17
663.09
663.72
664.46
664.93
665.81
666.43
667.09
667.71
668.28
668.95
669.44
670.41
671.19
671.68
672.47
673.08
673.67
674.24
674.76
675.63
676.38
676.93
677.76
678.43
679.05
679.68
680.29
681.03
681.52
682.29
682.95
683.62
684.11
684.96
685.53
686.25
687.05
687.85
688.1
688.35
689.21
689.97
690.42
691.3
692.07
692.56
692.95
693.35
694.05
694.98
695.77
696.23
696.98
697.64
698.26
698.84
699.34
700.36
700.97
701.72
702.26
702.82
703.4
703.63
703.86
704.76
705.57
706.05
706.89
707.64
708.1
708.49
708.88
709.99
710.69
711.43
711.92
712.82
713.59
714.07
714.85
715.44
716.08
716.7
717.37
718.06
718.74
719.23
719.96
720.56
721.26
721.89
722.55
723.04
723.92
724.53
725.22
725.45
725.67
726.46
727.16
727.62
728.52
729.33
729.83
730.29
730.75
731.39
732.09
732.58
733.69
734.35
735.04
735.55
736.36
737.09
737.71
738.35
738.79
739.64
740.28
740.99
741.62
742.25
742.96
743.64
744.19
744.84
745.47
746.41
747.18
747.83
748.31
749.14
749.83
750.46
750.91
751.71
752.28
752.97
753.42
754.42
755.58
756.72
757.38
758.03
758.27
758.51
759.27
759.83
760.56
761.05
761.56
762.07
763.41
764.41
765.45
766.15
766.82
767.51
767.99
768.77
769.41
770.08
770.74
771.38
771.87
772.69
773.57
774.3
774.94
775.59
776.59
777.92
779.29
780.03
780.47
781.34
782.04
782.69
783.68
784.44
784.75
784.95
785.54
785.92
786.53
786.89
787.6
788.23
788.89
789.34
790.43
791.1
792.24
792.85
793.89
794.57
795.22
796
796.84
797.32
798.5
799.35
799.98
800.65
801.38
801.84
803.23
803.92
804.39
805.2
805.88
806.99
807.72
808.41
809.1
809.56
810.38
810.85
811.71
812.84
813.54
814.37
815.18
815.65
817.04
817.71
818.31
818.97
819.44
820.25
820.94
821.58
822.53
823.24
823.71
824.64
825.76
826.69
827.59
828.88
829.87
830.48
831.36
831.93
832.72
833.38
834.01
834.47
835.28
836.03
836.48
837.57
838.25
838.96
839.45
840.23
840.84
841.48
841.76
841.92
842.38
842.86
843.48
843.71
844.76
845.74
846.45
847.08
847.76
848.61
849.08
849.98
850.99
851.65
852.26
852.85
853.3
854.1
854.73
855.48
856.71
857.53
857.98
858.95
859.64
860.25
861.07
861.71
862.45
863.59
864.29
865.06
865.51
866.24
866.87
867.63
868.11
869.04
869.69
870.25
870.75
871.49
872.08
872.73
873.25
874.07
874.79
875.6
876.22
877.12
877.82
878.47
878.94
879.77
880.47
881.31
881.76
882.69
883.27
883.81
884.59
885.25
885.94
886.44
887.32
887.98
888.64
889.29
890.03
890.73
891.52
892.26
892.95
893.41
894.41
895.03
895.75
896.42
897.03
897.67
898.17
899.16
899.94
900.38
901.35
902.06
902.93
903.56
904.19
904.99
905.47
906.26
907.12
907.55
908.72
909.5
910.15
910.77
911.24
912.63
913.98
914.92
915.83
916.55
917.23
917.86
918.46
918.91
919.73
920.47
920.94
922.33
923.05
923.69
924.19
925.21
925.8
926.54
927.25
927.92
928.61
929.09
930.22
930.81
931.44
932.16
932.81
933.62
934.39
935.05
935.71
936.41
937.41
938.22
938.67
939.62
940.29
940.97
941.62
942.06
942.92
943.51
944.18
944.83
945.51
946.26
946.92
947.68
948.14
949.12
949.78
950.85
951.51
952.22
952.7
953.63
954.26
955.08
955.79
956.25
957.01
957.62
958.23
958.75
959.57
960.26
960.92
961.54
962.2
962.81
963.41
964.11
965.19
965.75
966.48
966.72
966.96
968.26
969.08
969.56
970.42
971.17
971.63
972.51
973.27
973.72
974.17
974.62
975.32
975.9
976.73
977.4
978.26
978.85
979.43
979.98
980.57
981.26
982.02
982.81
983.28
984.18
984.81
985.43
985.89
986.86
987.49
988.22
988.84
989.48
990
990.73
991.38
991.99
992.45
993.38
994.49
995.42
996.09
996.69
997.34
997.78
998.52
999.31
999.78
1000.8
1001.5
1002.2
1002.6
1003.5
1004.2
1005.3
1006.1
1006.5
1007.4
1008.3
1008.9
1009.6
1010.1
1010.9
1011.6
1012.2
1013
1013.2
1013.4
1014.3
1015
1015.4
1016.3
1017.2
1017.6
1018.1
1018.6
1019.3
1020.1
1020.5
1021.3
1022
1022.5
1023.3
1023.8
1025
1025.7
1026.5
1026.9
1027.8
1028.4
1029.1
1029.6
1030.6
1031.4
1031.9
1032.9
1033.5
1034.1
1034.8
1035.3
1036.2
1037.1
1037.6
1038.6
1039.3
1040.2
1040.9
1041.7
1042.2
1043.1
1044.1
1044.7
1045.6
1046
1046.8
1047.5
1048.2
1048.7
1048.8
1049.3
1050.1
1051.2
1051.3
1051.8
1052.5
1053
1053.8
1054.5
1055.1
1055.7
1056.5
1057.1
1057.7
1058.2
1059.2
1059.8
1060.5
1061
1061.8
1062.9
1063.6
1064.2
1064.8
1065.3
1066.2
1067.3
1068
1068.7
1069.3
1070
1070.5
1071.4
1072.2
1073
1073.4
1074.4
1075
1075.5
1076.4
1077.5
1078.5
1079.2
1079.8
1080.5
1081
1081.9
1082.5
1083.2
1083.7
1084.7
1085.5
1086.1
1086.6
1087.5
1088.2
1088.9
1089.4
1090.9
1092.2
1093.1
1093.9
1094.6
1095.1
1096.1
1097.4
1098.1
1098.4
1098.5
1099.3
1099.6
1100.4
1101.1
1101.8
1102.4
1103.3
1104.4
1105.2
1105.6
1106.7
1108.1
1108.8
1109.5
1110
1110.9
1111.6
1112.3
1112.8
1113.6
1114.3
1115.6
1116.4
1117
1117.7
1118.5
1119
1119.9
1120.6
1121.2
1121.9
1122.3
1123.2
1124
1124.4
1125.2
1125.9
1126.6
1127.1
1128.1
1128.8
1129.5
1129.9
1131.1
1131.9
1133.1
1134.3
1135
1135.5
1136.3
1136.9
1137.6
1138.1
1139.1
1140
1140.4
1141.4
1142
1142.7
1143.2
1144.2
1144.9
1145.6
1146.1
1147
1147.8
1148.3
1149.7
1150.4
1151.1
1151.9
1152.5
1153.3
1154
1154.3
1154.6
1155.3
1155.7
1155.8
1156.8
1157.3
1158.1
1158.9
1159.5
1160.1
1160.9
1161.7
1162.4
1163.2
1164.1
1164.7
1165.5
1166.6
1167.3
1168
1168.7
1169.2
1170
1170.6
1171.4
1172.2
1172.7
1173.7
1174.4
1175.1
1175.6
1176.5
1177.1
1177.7
1178.4
1178.8
1179.7
1180.5
1181
1181.6
1181.9
1182.6
1183.3
1183.7
1184.7
1185.5
1185.6
1186.3
1187
1187.7
1188.1
1189
1189.8
1190.5
1191.7
1192.6
1193.5
1194.2
1194.8
1195.6
1196.5
1196.9
1197.9
1198.6
1199.3
1199.8
1200.5
1201.1
1202
1202.7
1203.3
1203.8
1205.1
1206.3
1207
1207.6
1208.8
1209.5
1210.2
1211
1211.7
1212.5
1213
1213.9
1214.4
1215.2
1215.8
1216.4
1217
1217.8
1218.5
1219.6
1220.6
1221.4
1221.9
1222.8
1224
1224.6
1225.2
1225.7
1226.4
1227.1
1227.6
1228.5
1229.2
1229.9
1230.4
1231.2
1231.9
1232.8
1233.5
1234.2
1234.9
1235.4
1236.2
1236.9
1237.4
1238.3
1239.4
1240.2
1240.9
1242.1
1242.7
1243.5
1243.9
1245.5
1246.7
1247.5
1247.9
1248.8
1249.7
1250.1
1251
1251.9
1252.6
1253.3
1253.7
1254.6
1255.4
1255.9
1256.8
1257.5
1258.9
1260.2
1260.8
1261.8
1263
1263.7
1264.4
1264.9
1266
1266.7
1267.4
1267.9
1269
1270.3
1271
1271.8
1272.3
1273.4
1274.1
1274.7
1275.7
1276.6
1277.3
1277.7
1278.5
1279.4
1279.9
1280.7
1281.7
1282.4
1283.1
1283.6
1284.4
1285
1285.7
1286.2
1287
1287.9
1288.6
1289.1
1289.9
1290.5
1291.2
1291.7
1292.6
1293.3
1294
1294.8
1295.6
1296.3
1297
1297.9
1299.3
1300.8
1301.5
1302
1303
1303.6
1304.2
1305.5
1306.6
1307.3
1308
1308.5
1309.5
1310.6
1311.2
1311.8
1312.5
1313
1313.9
1314.5
1315.1
1315.8
1316.5
1317.1
1317.8
1318.6
1319.3
1320.2
1320.8
1321.4
1322.2
1323
1324.1
1325.3
1326.1
1326.6
1327.3
1328
1328.9
1329.5
1330.7
1331.5
1332.5
1333.7
1334.4
1335
1335.9
1336.6
1337.5
1338.4
1338.9
1340.2
1340.9
1341.8
1342.6
1343
1344.1
1344.8
1345.6
1346.3
1347
1348.3
1349.6
1350.2
1351.1
1351.7
1352.4
1353.1
1353.8
1354.5
1355.4
1356.6
1357.3
1357.8
1359
1359.7
1360.4
1360.9
1361.7
1362.3
1363.3
1363.9
1364.8
1365.5
1366.2
1367.5
1368.2
1368.7
1369.5
1370.2
1370.9
1371.6
1372.4
1373.1
1373.8
1374.8
1375.7
1376.4
1377.2
1378.1
1378.8
1379.7
1380.1
1381
1381.7
1382.3
1383.2
1384.4
1385.3
1385.7
1386.9
1388.1
1388.9
1389.7
1390.7
1391.5
1392.6
1393.3
1394.5
1396
1396.7
1397.4
1397.9
1398.9
1400
1400.9
1401.8
1402.4
1403.5
1404.1
1404.9
1406.4
1407.1
1407.6
1408.5
1409.5
1410.1
1411.1
1412.1
1412.8
1414
1414.8
1415.5
1416
1417
1417.8
1418.3
1419.1
1419.8
1420.7
1421.2
1422
1422.7
1423.2
1424.1
1424.8
1425.7
1426.4
1427.3
1428.1
1428.7
1429.6
1430
1431.1
1432.4
1433.1
1433.9
1434.8
1435.5
1436.3
1437.8
1438.8
1439.5
1440.2
1440.9
1441.6
1442.3
1443
1443.4
1444.4
1445.1
1445.8
1447.3
1448.2
1448.9
1449.6
1450.1
1451
1451.7
1452.3
1452.9
1453.6
1454.7
1455.7
1456.3
1457.2
1457.9
1458.5
1459.2
1460.3
1461.1
1461.5
1462.7
1464.2
1465.1
1465.7
1466.2
1467.4
1468.2
1468.8
1469.3
1470.1
1470.7
1471.3
1472
1472.6
1473.3
1473.9
1474.4
1475.4
1476.1
1476.9
1477.7
1478.5
1479.4
1480.3
1481.1
1481.8
1482.4
1483.1
1484
1484.8
1485.3
1486.3
1487
1487.5
1489
1489.7
1490.6
1491.3
1492.5
1493.6
1494.5
1495.2
1495.9
1496.8
1497.5
1498.4
1499.2
1499.9
1500.6
1501.3
1502
1502.5
1503.5
1504.2
1505
1505.6
1506.3
1507.4
1508.3
1509.1
1509.9
1510.8
1511.5
1512
1513
1513.9
1514.6
1515.3
1516.2
1517.2
1517.9
1518.5
1519.3
1520.3
1521
1522
1522.9
1523.6
1524.4
1525.1
1525.8
1526.6
1527.3
1528.4
1529.2
1529.7
1531.1
1531.8
1532.2
1533.3
1534.1
1534.9
1535.6
1536.8
1537.5
1538.6
1539.5
1539.9
1540.8
1541.7
1542.4
1543.1
1543.8
1544.6
1545.4
1546.2
1547.1
1547.8
1548.4
1549.3
1549.9
1550.6
1551.5
1552.4
1553.1
1554.2
1555
1555.4
1556.4
1557.2
1557.9
1558.8
1559.6
1560.1
1560.9
1562.1
1562.8
1563.4
1564.3
1565.7
1566.4
1567
1567.5
1568.2
1569
1569.8
1570.7
1571.3
1572.2
1572.9
1573.5
1574.1
1574.6
1575.4
1576.7
1577.9
1578.9
1579.6
1580.2
1580.9
1581.7
1582.4
1583.1
1583.9
1584.8
1585.5
1586.1
1587.3
1588.3
1589.1
1589.8
1590.6
1591.2
1591.6
1592.5
1593.2
1593.9
1594.7
1595.4
1596.5
1597.2
1598
1598.8
1599.5
1600.4
1601.8
1602.7
1603.3
1604
1604.6
1605.2
1605.9
1606.8
1607.5
1608.2
1608.8
1609.5
1610.3
1611
1612
1613.3
1614
1614.6
1615.2
1616.1
1616.8
1617.7
1618.4
1619.1
1619.7
1620.3
1620.9
1621.4
1622.3
1623.2
1624.4
1625.1
1625.6
1626.3
1626.9
1627.5
1628.2
1628.8
1629.3
1630.3
1631
1631.7
1632.4
1633.3
1633.9
1635
1635.8
1636.2
1637.3
1638
1638.8
1639.5
1640.6
1641.4
1641.9
1643
1643.6
1644.2
1644.9
1645.7
1646.7
1647.5
1647.9
1648.9
1649.5
1650.1
1650.8
1651.5
1652.1
1652.8
1654
1654.8
1655.5
1656.2
1656.9
1657.8
1658.6
1659.3
1660.2
1661.1
1661.8
1662.6
1663.2
1663.8
1664.5
1665.2
1666
1666.7
1667.5
1668.1
1668.9
1669.3
1670.2
1670.9
1671.8
1672.5
1673.2
1673.8
1674.5
1675.1
1675.8
1677
1677.7
1678.4
1679.1
1679.8
1680.5
1681.2
1681.8
1682.6
1683.3
1684.2
1684.9
1685.5
1686.2
1686.9
1687.6
1688.2
1689.3
1690
1690.7
1691.3
1692.2
1693
1693.7
1694.1
1695.1
1695.9
1696.6
1697.4
1698.3
1699.5
1700.4
1701.1
1701.9
1702.8
1703.5
1704.1
1704.7
1705.4
1706.6
1707.3
1708.1
1708.9
1709.3
1710.4
1711.5
1712.2
1713.3
1714.6
1715.8
1716.5
1717.1
1718.2
1718.9
1719.3
1720.4
1721.3
1721.9
1722.6
1723.2
1723.7
1724.6
1725.3
1726
1727.2
1727.9
1728.5
1729.7
1730.4
1730.9
1731.8
1732.7
1733.5
1734.3
1734.9
1735.6
1736.4
1737.1
1737.9
1739.3
1740.1
1741
1741.6
1742.8
1743.6
1744.5
1745.2
1745.9
1746.6
1747.3
1748
1748.8
1749.5
1750.4
1751.2
1751.9
1752.7
1753.6
1754.2
1754.9
1755.8
1756.5
1757.4
1758
1758.7
1759.5
1760.3
1761
1762
1763
1763.7
1764.1
1765.3
1766.4
1767.1
1767.8
1768.5
1769.3
1770.7
1771.4
1772.3
1773
1773.7
1774.4
1775.4
1776.5
1777.4
1778
1778.6
1779.4
1780.2
1781
1781.8
1782.5
1783.3
1784.1
1785.2
1786
1786.8
1787.7
1788.5
1789.2
1789.8
1790.4
1791.1
1791.8
1792.5
1793.3
1794
1794.7
1795.4
1796.2
1797.4
1798.1
1798.8
1799.9
1800.8
1801.5
1802.1
1802.7
1803.4
1804.3
1805
