0.047222
0.225
1.0028
1.7944
2.4778
3.3139
4.1167
4.9389
5.7556
6.4861
7.3444
8.1639
8.8639
9.7778
10.642
11.414
12.236
13.028
13.819
14.542
15.475
16.367
17.203
18.008
18.822
19.531
20.364
21.136
21.928
22.778
23.553
24.339
25.119
25.817
26.678
27.544
28.322
29.208
29.95
30.756
31.544
32.336
33.078
34
34.853
35.611
36.456
37.236
37.981
38.781
39.589
40.419
41.294
42.047
42.842
43.633
44.336
45.206
46.031
46.831
47.631
48.372
49.222
49.989
50.708
51.594
52.392
53.206
53.992
54.756
55.558
56.339
57.067
57.994
58.808
59.606
60.378
61.231
61.958
62.736
63.642
64.453
65.208
66.072
66.897
67.633
68.425
69.225
70.05
70.933
71.681
72.572
73.333
74.114
74.961
75.778
76.678
77.483
78.306
79.047
79.911
80.689
81.508
82.4
83.206
83.972
84.844
85.625
86.358
87.217
88.036
88.836
89.653
90.467
91.183
92.019
92.75
93.608
94.428
95.253
96.086
96.939
97.753
98.567
99.447
100.34
101.21
102.06
102.94
103.66
104.54
105.44
106.33
107.23
108.09
108.73
108.95
109.79
110.61
111.5
112.24
112.4
113.26
114
114.89
115.54
115.74
116.51
116.93
117.41
118.26
119.06
119.94
120.74
121.51
122.35
123.16
124
124.89
125.66
126.47
127.31
128.03
128.82
129.67
130.49
131.29
132.08
132.82
133.61
134.38
135.13
136.01
136.77
137.57
138.36
139.13
139.97
140.71
141.55
142.39
143.24
144
144.88
145.65
146.41
147.32
148.14
148.99
149.79
150.66
151.38
152.26
153.08
153.89
154.79
155.6
156.43
157.23
158.06
158.81
159.67
160.53
161.37
162.15
163.01
163.76
164.57
165.41
166.26
167.03
167.91
168.66
169.52
170.26
171.09
171.91
172.76
173.56
174.43
175.21
176
176.86
177.66
178.58
179.44
180.3
181.13
181.98
182.82
183.71
184.51
185.42
186.27
187.02
187.91
188.65
189.5
190.4
191.23
192.05
192.88
193.59
194.46
195.26
196.09
196.99
197.79
198.53
199.39
200.15
200.94
201.79
202.61
203.41
204.29
205.01
205.87
206.65
207.39
208.34
209.26
210.09
210.89
211.65
212.45
213.27
214.12
214.98
215.73
216.63
217.39
218.21
219.09
219.93
220.84
221.61
222.51
223.31
224.07
224.94
225.72
226.66
227.51
228.34
229.06
229.94
230.76
231.63
232.49
233.35
234.07
234.95
235.7
236.53
237.37
238.13
239.06
239.87
240.64
241.51
242.26
243.06
243.96
244.8
245.54
246.43
247.27
248.01
248.86
249.71
250.55
251.42
252.21
252.95
253.82
254.58
255.41
256.24
257.08
257.87
258.61
259.47
260.21
261
261.84
262.63
263.49
264.29
265.06
265.84
266.58
267.42
268.25
269.01
269.88
270.7
271.44
272.3
273.06
273.9
274.75
275.58
276.35
277.16
277.97
278.69
279.6
280.47
281.25
282.06
282.85
283.63
284.42
285.25
286.08
286.99
287.73
288.62
289.42
290.21
291.09
291.94
292.74
293.64
294.48
295.22
296.09
296.92
297.75
298.68
299.43
300.25
301.11
301.85
302.7
303.54
304.31
305.21
306.01
306.81
307.61
308.31
309.19
310.01
310.83
311.66
312.46
313.23
314.02
314.82
315.6
316.53
317.32
318.14
318.94
319.75
320.47
321.42
322.34
323.22
324.11
324.98
325.81
326.61
327.48
328.27
329.22
330.11
330.94
331.76
332.58
333.49
334.38
335.23
335.96
336.84
337.69
338.42
339.3
340.15
340.97
341.85
342.67
343.41
344.26
345.01
345.96
346.76
347.66
348.41
349.27
350.02
350.83
351.68
352.47
353.31
354.1
354.84
355.7
356.44
357.26
358.08
358.89
359.7
360.49
361.22
362.08
362.8
363.65
364.49
365.31
366.04
366.92
367.69
368.4
369.32
370.14
370.9
371.78
372.55
373.29
374.16
374.93
375.76
376.57
377.39
378.21
379
379.82
380.54
381.39
382.23
383.02
383.85
384.64
385.37
386.24
387
387.91
388.69
389.5
390.3
391.09
391.88
392.59
393.52
394.38
395.16
396.04
396.85
397.59
398.42
399.25
400.13
400.91
401.79
402.59
403.38
404.14
405.03
405.84
406.67
407.54
408.32
409.13
409.97
410.73
411.56
412.46
413.3
414.06
414.92
415.7
416.42
417.34
418.13
419.04
419.81
420.63
421.43
422.16
423.08
423.99
424.85
425.7
426.56
427.4
428.26
429.11
429.97
430.86
431.62
432.55
433.45
434.28
435.16
436.06
436.95
437.79
438.6
439.42
440.16
441.05
441.98
442.84
443.69
444.44
445.32
446.05
446.92
447.72
448.66
449.42
450.29
451.05
451.85
452.64
453.42
454.35
455.13
455.91
456.78
457.58
458.41
459.19
460.05
460.85
461.74
462.49
463.41
464.13
465.02
465.81
466.81
467.69
468.48
469.3
470.02
470.94
471.74
472.66
473.48
474.29
475.1
475.96
476.69
477.56
478.42
479.18
480.08
480.83
481.68
482.45
483.21
484.15
484.96
485.72
486.54
487.33
488.04
488.91
489.71
490.53
491.33
492.09
492.9
493.62
494.4
495.19
496.02
496.86
497.67
498.43
499.29
500.03
500.77
501.71
502.51
503.35
504.08
504.97
505.7
506.48
507.34
508.18
508.93
509.81
510.59
511.38
512.16
512.94
513.71
514.63
515.39
516.23
517.01
517.74
518.54
519.38
520.23
521
521.87
522.64
523.42
524.23
524.99
525.9
526.68
527.48
528.3
529.11
529.83
530.7
531.61
531.84
532.48
533.33
533.79
534.85
535.52
536.68
537.22
537.68
538.16
539.26
539.73
540.7
541.16
542.19
542.66
543.65
543.84
544.12
544.68
545.16
545.67
546.19
546.73
547.15
547.71
548.2
549.31
550.43
551.5
552.54
553.57
554.2
554.54
555.41
556.23
557.09
557.83
558.67
559.41
559.87
561.06
562.08
563.05
563.93
564.8
565.52
566.31
567.04
568.41
568.94
570.01
570.46
571.39
571.53
571.85
572.39
572.85
573.68
573.95
574.16
574.5
574.98
575.5
576.14
576.71
577.2
577.71
578.21
578.74
579.2
579.75
580.29
580.8
581.72
582.26
582.7
583.16
583.65
584.27
584.6
585.7
586.86
588.09
589.34
590.35
591.25
592.29
593.13
593.96
594.79
595.61
596.39
597.24
598.03
598.94
599.72
600.59
601.35
602.12
602.98
603.83
604.7
605.48
606.34
607.17
607.9
608.76
609.63
610.4
611.3
611.74
612.82
613.48
614.51
615.26
616.21
616.69
617.76
618.52
618.87
619.33
620.38
620.87
622.02
622.54
623.5
623.96
625.01
625.49
625.75
626.01
626.6
627.05
627.52
627.95
628.34
628.93
629.1
629.49
629.9
630.36
630.84
631.4
631.91
632.37
632.91
633.43
634.13
634.79
635.37
636.21
636.71
637.24
637.78
638.57
638.95
639.7
640.79
641.94
643.09
644.16
645.24
646.32
647.34
647.83
648.21
649.01
649.77
650.51
651.34
652.17
652.96
653.76
654.53
655.24
656.09
656.85
657.67
658.5
659.26
660.06
660.88
661.64
662.39
663.22
664.06
664.86
665.73
666.52
667.29
668.07
668.8
669.66
670.51
671.25
672.11
672.89
673.59
674.24
674.43
674.89
675.98
676.46
677.37
677.84
678.85
679.49
680.44
680.91
681.91
682.38
683.41
684.11
685.15
685.6
686.56
687.05
687.83
688.13
688.95
689.37
690.46
691.31
691.76
692.79
693.49
693.95
695.09
695.58
695.88
696.11
696.78
697.26
697.77
698.25
698.36
698.69
699.58
700.03
700.6
701.09
701.61
702.11
702.58
703.02
703.45
703.94
704.45
705.27
705.53
706.6
707.86
709.14
710.34
711.27
711.51
712.45
712.92
714.05
714.52
715.63
715.84
716.09
716.58
717.11
717.96
718.24
718.72
719.93
720.41
720.85
721.1
721.52
722.06
722.66
722.93
723.43
724.13
724.76
725.29
725.77
726.36
727
727.44
727.99
728.45
728.91
729.45
729.97
730.46
731
731.47
731.95
732.45
732.88
733.38
733.89
734.38
735.24
735.79
736.51
737.14
737.69
738.41
738.74
739.87
740.78
741.13
742.37
742.86
743.97
745.12
746.19
747.26
747.74
748.79
749.81
750.78
751.22
752.1
752.66
753.06
754.05
754.53
754.72
754.92
755.27
755.67
756.17
756.68
757.05
757.46
757.9
758.35
758.84
759.38
759.85
760.3
761.13
762.06
763.15
764.3
765.52
766.72
767.24
768.05
768.49
769.53
770.58
771.07
771.88
772.2
772.7
773.1
773.51
773.87
774.25
774.61
775
775.41
776.16
776.43
777.52
778.59
779.61
780.21
780.51
781.32
782.09
782.88
783.71
784.54
785.34
786.17
786.93
787.71
788.5
789.32
790.18
791.04
791.78
792.67
793.11
794.22
794.69
795.49
796.79
797.31
798.66
799.34
800.16
801.42
801.94
802.26
802.64
803.08
803.65
804.29
804.9
805.39
805.87
806.46
806.98
807.49
808.06
808.56
809.6
810.59
811.56
812.49
813.46
814.21
814.44
815.26
816.06
816.85
817.67
818.41
819.24
820.15
820.96
821.77
822.59
823.4
824.18
825.08
825.96
826.77
827.68
828.14
828.47
828.82
829.24
829.7
829.78
830.2
830.65
831.11
831.56
832.11
832.77
833.34
834.35
835.43
836.45
837.54
838.37
838.61
839.08
840.03
840.56
841.26
842.21
843.19
844.18
844.73
844.99
845.11
845.67
846.14
846.62
846.97
847.61
848.59
849.26
849.54
850.41
851.26
852.01
852.8
853.56
854.3
855.08
855.94
856.76
857.49
858.36
859.13
859.85
860.75
861.22
862.37
862.87
863.29
864.2
864.65
865.26
865.83
866.7
867.16
867.6
867.81
868.31
868.46
868.76
869.24
869.68
870.15
870.96
871.2
872.1
873.28
874.55
875.03
876.3
876.87
877.42
878.58
879.08
879.49
879.78
880.23
880.69
880.85
881.29
881.75
882.16
882.55
882.95
883.69
884.09
884.7
885.29
885.97
886.79
887.2
888.34
889.37
890.35
890.83
891.86
892.86
893.77
894.71
895.36
895.59
896.36
897.21
898
898.81
899.6
900.4
901.14
901.91
902.67
903.44
904.32
904.78
905.87
906.36
907.02
907.9
908.33
908.7
908.99
909.44
909.84
910.24
910.73
910.96
911.95
912.96
913.81
914.69
915.59
916.54
917.4
918.27
919.12
919.94
920.77
921.54
922.01
923.15
924.19
924.64
925.06
925.32
925.77
926.16
926.67
927.09
927.68
928.17
928.66
929.12
929.74
930.14
930.89
931.42
932
932.76
933.27
933.75
934.61
935.2
935.8
936.36
936.74
937.37
938.39
939.44
940.69
941.81
942.87
943.61
943.9
944.9
945.74
946.58
947.36
948.27
949.04
949.83
950.61
951.43
952.23
953.45
954.66
955.68
956.13
957.25
957.52
957.75
958.13
958.5
958.73
959.21
959.7
960.16
960.6
961.05
961.48
961.93
962.42
963.1
963.6
964.04
964.97
966.08
967.22
968.44
968.91
969.38
969.6
970.18
970.69
971.19
971.91
972.85
973.4
973.92
974.51
974.94
975.57
976.13
976.72
977.34
977.8
978.41
978.9
979.48
980.08
980.44
980.71
981.36
981.79
982.31
982.97
983.49
984.09
984.82
985.29
985.86
986.3
986.98
988.19
988.9
989.48
989.99
990.5
990.79
991.59
992.13
992.46
992.83
993.39
994.23
994.96
995.62
996.37
996.93
997.56
998.21
998.93
999.49
1000.1
1000.9
1001.5
1002.1
1002.5
1002.9
1003.3
1003.8
1004.3
1005.1
1005.6
1006.1
1006.6
1007
1007.4
1007.7
1007.9
1008.5
1009
1009.3
1009.9
1010.6
1010.9
1011.4
1012
1012.4
1012.8
1013.2
1013.8
1014.7
1015.2
1015.8
1016.4
1016.9
1017.6
1018.2
1018.9
1019.4
1020.2
1021
1021.6
1022.1
1022.8
1023.3
1023.9
1024.5
1025.1
1025.9
1026.4
1026.8
1027.6
1028
1028.4
1029.2
1029.9
1030.4
1030.8
1031.3
1031.7
1032.1
1032.8
1033.3
1033.8
1034.4
1034.8
1035.2
1035.9
1036.4
1036.5
1037.1
1037.7
1038.2
1038.6
1039
1039.8
1040.4
1041.1
1041.9
1042.5
1042.8
1043.3
1043.8
1044.1
1044.7
1045.2
1045.8
1046.3
1046.7
1047.1
1048.1
1048.8
1049.2
1050
1050.7
1051.3
1051.5
1051.7
1052.2
1052.9
1053.4
1053.9
1054.5
1055.5
1056.2
1056.8
1057.3
1057.8
1058.2
1059
1059.8
1060.3
1060.7
1061.3
1061.8
1062.3
1062.9
1063
1063.5
1064.3
1065
1065.6
1066
1066.4
1067
1067.4
1067.8
1068.5
1069.2
1069.8
1070.2
1070.8
1071.3
1071.7
1072.2
1072.9
1073.4
1074
1074.7
1075.3
1075.8
1076.5
1077.8
1078.4
1079.3
1080.4
1080.9
1082
1082.5
1083.7
1084.2
1085.4
1086.6
1087.6
1088.6
1089.1
1089.8
1090.1
1091.1
1091.8
1092.7
1093.4
1094.2
1095
1095.8
1096.6
1097.5
1098.2
1099
1099.9
1100.6
1101.5
1102.3
1103.1
1103.9
1104.7
1105.4
1106.3
1107
1107.9
1108.7
1109.6
1110.3
1111.1
1111.8
1112.7
1113.5
1114.3
1115.1
1116
1116.7
1117.6
1118.3
1119.2
1119.9
1120.4
1121.6
1122.1
1123.1
1123.8
1124.7
1125.4
1125.9
1127
1127.7
1128.6
1129.4
1130.2
1130.6
1131.7
1132.2
1133.2
1134.1
1134.9
1135.7
1136.5
1137.4
1138.3
1139.1
1139.9
1140.7
1141.5
1142.3
1143
1144.4
1145.5
1145.9
1146.9
1147.8
1148.6
1149.1
1150.2
1150.8
1152
1152.7
1152.9
1153.3
1154.4
1154.9
1155.9
1156.4
1157.4
1157.9
1158.9
1159.5
1160.7
1161.4
1162.7
1163.2
1164.1
1164.6
1165.7
1166.1
1167.1
1167.6
1168.7
1169.1
1170.2
1170.7
1171.6
1172.1
1173.1
1173.6
1174.7
1175.1
1175.8
1177
1178.1
1178.7
1179.1
1180.1
1180.6
1181.5
1182
1183
1183.5
1184.4
1184.9
1185.9
1186.5
1187.5
1188.2
1189.1
1189.6
1190.5
1191
1192
1192.6
1193
1193.9
1194.5
1195.3
1195.9
1196.8
1197.4
1198.3
1198.9
1199.8
1200.4
1201.3
1201.8
1202.8
1203.3
1203.7
1204.7
1205.2
1206.2
1206.6
1207.6
1208.1
1209.1
1209.6
1210.7
1211.2
1212.2
1212.6
1213.6
1214
1215.1
1215.5
1216.6
1217.1
1218.1
1218.5
1219.5
1220
1220.2
1220.3
1221
1221.5
1222.1
1222.6
1223.4
1223.9
1224.3
1225
1225.6
1226
1226.5
1226.9
1227.6
1228
1228.9
1230
1231.1
1232.2
1233.4
1234
1235.1
1235.6
1236.1
1237.3
1237.7
1238.2
1239.4
1239.8
1240.2
1240.6
1241
1241.5
1241.9
1242.3
1242.8
1243.2
1243.6
1244.1
1244.8
1245.5
1246.5
1247.8
1248.8
1249.1
1249.6
1250.1
1251.4
1251.9
1252.6
1253.8
1254.2
1254.9
1256
1256.4
1256.9
1257.2
1257.7
1258.3
1258.8
1259.2
1259.6
1260.3
1260.8
1261.2
1261.7
1262.1
1262.6
1263
1263.2
1263.4
1264.3
1265.4
1266.6
1267.7
1268.8
1269.8
1270.9
1271.4
1272.4
1272.9
1273.3
1273.9
1274.8
1275.7
1276.1
1276.3
1276.8
1277.1
1277.6
1278.1
1278.5
1278.6
1279.2
1279.6
1280.1
1280.4
1280.9
1281.3
1281.5
1282.2
1283.1
1283.3
1284
1284.9
1285.7
1286.1
1286.5
1287.2
1287.8
1288.3
1289
1289.9
1290.8
1291.1
1291.6
1292.4
1293.2
1294
1294.8
1295
1295.2
1295.6
1296
1296.5
1296.9
1297.3
1298.2
1299.2
1300.1
1300.9
1301.3
1301.7
1302
1302.7
1303.4
1303.5
1304
1304.3
1304.7
1305.1
1305.5
1306.3
1307.2
1307.9
1308.7
1309.5
1310.2
1311
1311.4
1312.6
1313.1
1313.8
1314.2
1314.6
1315.6
1316.1
1316.6
1317.6
1318.1
1318.6
1319.7
1320.3
1321.3
1322
1322.3
1323.2
1323.4
1323.9
1324.3
1324.8
1325.3
1325.6
1326.1
1327
1327.8
1328.7
1329.1
1329.3
1329.5
1329.9
1330.4
1331.1
1331.4
1331.7
1331.9
1332.6
1333
1333.4
1333.8
1334.3
1335.3
1336.3
1336.9
1337.2
1338.2
1339.2
1340
1340.4
1340.8
1341.2
1341.3
1341.7
1342.3
1343
1343.5
1344
1344.5
1344.9
1345.3
1345.8
1346
1346.8
1347.7
1348.9
1349.8
1351.1
1352.3
1352.7
1353.9
1354.4
1355.3
1355.7
1356
1356.3
1356.8
1357.3
1357.7
1358.1
1358.9
1359.6
1360.2
1360.6
1361.1
1361.4
1361.5
1362.3
1363.2
1364.2
1364.5
1365.5
1366.7
1367.9
1368.3
1369.4
1369.8
1370.6
1371.1
1371.4
1371.8
1372.3
1372.9
1373.1
1373.3
1373.9
1374.5
1375
1375.5
1376
1376.5
1376.9
1377.3
1377.9
1379
1379.8
1380
1381.2
1382.4
1383.5
1383.9
1384.4
1384.6
1385
1385.4
1385.9
1386.4
1386.8
1387.4
1388
1388.5
1388.9
1389.6
1390.6
1391.9
1393.2
1394.2
1395.1
1396.2
1396.6
1397.8
1398.8
1399.2
1399.6
1399.9
1400.3
1400.8
1401.3
1401.7
1402.4
1403.3
1404.2
1405.1
1405.9
1406.7
1407.6
1408.4
1409.2
1410
1410.5
1411.5
1412.6
1413.1
1413.3
1413.8
1414.2
1414.8
1415.3
1415.8
1416.4
1416.7
1417.3
1418.3
1418.9
1419.4
1420.2
1421
1421.9
1422.7
1423.4
1424.2
1425
1425.9
1426.7
1427.6
1428
1428.7
1430.1
1430.8
1432
1432.5
1433.2
1434.4
1435.4
1435.8
1436.1
1436.4
1436.9
1437.4
1437.7
1438.1
1438.9
1440.1
1441.2
1441.7
1442.4
1443.7
1444.9
1445.2
1445.4
1445.8
1446.3
1446.8
1447.3
1448.4
1448.9
1449.5
1450.6
1451.1
1451.4
1451.6
1452.2
1452.7
1453.1
1453.5
1453.9
1454.5
1454.9
1455.9
1457.2
1458.4
1459.5
1460.1
1460.5
1461.5
1462
1463.1
1463.5
1463.7
1464.2
1464.7
1465.2
1465.8
1466.1
1466.6
1467
1467.7
1468.3
1468.8
1469.9
1470.4
1470.6
1471.1
1471.5
1472
1472.6
1473.3
1474.4
1475.6
1476.7
1477.7
1478.7
1479.7
1480.1
1480.3
1480.5
1481
1481.6
1482
1482.6
1483.1
1483.5
1484
1484.5
1484.8
1485
1485.5
1485.9
1486.9
1487.9
1488.2
1488.3
1488.9
1489.8
1490.6
1491.4
1492.3
1492.9
1493.1
1494.1
1494.8
1495.6
1496.4
1497.2
1497.6
1498
1498.3
1498.5
1498.9
1499.2
1499.8
1500.4
1501
1501.4
1502.1
1502.5
1502.9
1503.4
1503.9
1504.5
1505
1505.5
1506.3
1506.8
1507.4
1507.9
1508.3
1508.6
1509.3
1510.3
1511.3
1512.2
1512.8
1513.2
1513.9
1514.7
1515.5
1516.2
1517
1517.8
1518.5
1519.2
1519.9
1520.7
1521.4
1522.2
1523
1523.8
1524.5
1525.3
1526
1526.8
1527.6
1528.4
1529.2
1529.9
1530.6
1531.5
1532.3
1533
1533.8
1534.7
1535.1
1535.3
1535.8
1536.2
1536.6
1537
1537.5
1538
1538.4
1538.9
1539.4
1539.9
1540.4
1540.9
1541.3
1541.7
1542.1
1542.6
1543
1543.5
1544.1
1544.7
1545.2
1545.8
1546.6
1547.5
1548.6
1549.9
1551.1
1551.9
1552.3
1553.2
1554.2
1554.9
1555.7
1556.4
1557.2
1558
1558.9
1559.7
1560.5
1561.3
1562.1
1562.8
1563.7
1564.5
1565.3
1566.1
1567
1567.8
1568.5
1569.4
1569.8
1570.2
1570.4
1570.9
1571.3
1571.8
1572.2
1572.6
1573
1573.5
1573.9
1574.3
1574.8
1575.2
1575.7
1576.1
1576.6
1577.1
1577.4
1577.6
1578.5
1579.6
1580.9
1582.2
1583.5
1584.2
1584.5
1585.4
1585.8
1586.2
1586.4
1586.9
1587.3
1587.9
1588.3
1589
1590.2
1591.2
1592.2
1593.3
1594.3
1595.1
1595.6
1596
1596.9
1597.8
1598.2
1598.3
1598.5
1598.9
1599.4
1600
1600.5
1601.1
1601.5
1602.1
1602.8
1603.4
1603.9
1604.3
1604.7
1605.4
1606
1606.5
1606.9
1607.3
1607.7
1608
1608.4
1608.8
1609.3
1610
1610.5
1610.9
1611.5
1612.2
1612.7
1613.2
1613.6
1614
1614.5
1615.2
1615.8
1616.3
1616.8
1617.5
1618.3
1619
1619.4
1620.1
1620.6
1621.3
1621.6
1622
1622.5
1623
1623.8
1624.4
1624.7
1625
1625.6
1626.2
1626.9
1627.4
1628.1
1628.6
1629.3
1630.4
1630.9
1631.3
1631.6
1632.2
1632.8
1633.5
1634.3
1635
1635.7
1636.1
1636.8
1637.4
1638.1
1638.7
1639.2
1639.7
1640.2
1640.8
1641.6
1642.2
1642.7
1643.4
1644.1
1645.1
1645.7
1646.2
1646.6
1647.5
1648.1
1648.5
1648.8
1649.2
1649.9
1650.6
1651
1651.5
1652.1
1652.6
1653
1653.5
1653.8
1653.9
1654.6
1655.1
1655.7
1656.3
1656.9
1657.2
1657.6
1658.1
1658.6
1659.1
1659.5
1660
1660.3
1660.8
1661.2
1661.7
1662.5
1662.6
1663.3
1664
1664.4
1665.2
1665.6
1666.3
1666.9
1667.4
1668.2
1669.1
1669.6
1670
1670.8
1671.5
1672.1
1672.9
1673.4
1674.2
1674.8
1675.2
1675.9
1676.3
1677
1677.5
1678.1
1678.9
1679.7
1680.3
1680.8
1681.6
1682
1682.6
1683.2
1683.8
1684.2
1685
1685.5
1686.2
1686.7
1687.3
1687.9
1688.6
1689.1
1689.6
1690.4
1690.9
1691.3
1691.8
1692.4
1693.1
1693.9
1694.4
1694.9
1695.4
1696.1
1696.7
1697.4
1698.2
1698.6
1699.2
1699.8
1700.2
1700.7
1701.4
1702.1
1702.6
1703.4
1704
1704.4
1705
1705.5
1706.1
1706.7
1707.3
1708
1708.5
1709.2
1709.6
1710.1
1710.5
1710.9
1711.4
1712.3
1713.1
1713.9
1714.7
1715.3
1716
1716.5
1716.9
1717.6
1718.1
1718.5
1718.9
1719.6
1720.4
1720.9
1721.5
1722
1722.4
1723
1723.6
1724.1
1724.9
1725.3
1726.1
1726.6
1727.1
1727.5
1728
1728.5
1729.2
1729.9
1730.7
1731.3
1731.9
1732.8
1733.3
1733.9
1734.6
1735
1735.7
1736.5
1737.1
1737.5
1738.2
1738.7
1739.5
1739.9
1740.3
1740.9
1741.5
1742.5
1743.1
1743.8
1744.3
1744.9
1745.6
1746.3
1746.9
1747.5
1748.4
1748.9
1749.3
1749.7
1750.5
1751.1
1751.7
1752.5
1753.3
1753.9
1754.6
1755.1
1755.5
1756.2
1756.8
1757.3
1758.1
1758.7
1759.3
1759.8
1760.5
1761.4
1762
1762.5
1763.2
1763.6
1764.5
1765
1765.6
1766.2
1766.8
1767.5
1768.4
1769
1769.6
1770.1
1770.6
1771.2
1771.7
1772.3
1773.2
1773.7
1774.2
1775
1775.4
1776.1
1776.8
1777.4
1777.9
1778.5
1779.2
1779.8
1780.4
1781.2
1781.7
1782.1
1782.5
1783.1
1783.6
1784.2
1785.2
1785.9
1786.5
1787.1
1787.7
1788.5
1789
1789.6
1790
1790.6
1791.2
1791.6
1792.3
1792.9
1793.2
1794
1794.4
1795.3
1795.7
1796.3
1797.2
1797.6
1798.3
1798.8
1799.2
1800.2
1800.7
1801.4
1802
1802.7
1803.2
1803.7
1804.4
1805.2
