0.26667
0.56667
1.3333
2.1083
2.8722
3.6278
4.3722
5.1528
5.9028
6.6194
7.35
8.0778
8.8194
9.5667
10.306
11.019
11.772
12.539
13.275
13.989
14.722
15.467
16.228
16.964
17.697
18.456
19.219
19.956
20.675
21.408
22.156
22.914
23.583
24.378
25.128
25.892
26.628
27.364
28.106
28.856
29.631
30.392
31.136
31.881
32.667
33.431
34.189
34.953
35.7
36.472
37.228
37.967
38.703
39.483
40.225
40.95
41.692
42.433
43.189
43.953
44.714
45.475
46.289
47.061
47.808
48.581
49.347
50.125
50.878
51.619
52.361
53.122
53.858
54.561
55.292
56.025
56.772
57.519
58.256
58.981
59.744
60.492
61.211
61.808
62.697
63.467
64.022
64.833
65.636
66.453
67.239
68
68.769
69.531
70.314
71.061
71.8
72.561
73.069
74.081
74.814
75.564
76.281
77.036
77.783
78.525
79.278
80.067
80.819
81.558
82.317
83.064
83.833
84.603
85.356
86.097
86.858
87.594
88.286
89.022
89.756
90.494
91.244
91.978
92.697
93.456
94.194
94.917
95.642
96.383
97.139
97.881
98.608
99.328
100.05
100.81
101.55
102.28
103.03
103.77
104.52
105.26
105.97
106.7
107.45
108.18
108.9
109.62
110.35
111.09
111.84
112.56
113.28
114.04
114.81
115.56
116.3
117.05
117.81
118.57
119
119.43
120.6
120.88
121.17
122.35
123.13
123.85
124.66
125.45
126.18
126.92
127.68
128.38
129.16
129.9
130.54
131.38
132.14
132.67
133.59
134.34
134.89
135.84
136.57
137.12
137.58
138.04
138.73
139.35
140.25
140.98
141.76
142.48
143.18
143.91
144.63
145.37
146.11
146.81
147.51
148.26
149
149.7
150.41
151.1
151.88
152.63
153.36
154.04
154.87
155.63
156.37
157.09
157.29
157.83
158.57
159.32
160.01
160.71
161.45
162.18
162.45
162.89
163.59
164.06
164.99
165.72
166.43
167.14
167.87
168.62
169.34
170.05
170.77
171.48
172.21
172.74
173.53
174.29
174.96
175.81
176.54
177.26
178.03
178.78
179.55
180.29
181.01
181.75
182.51
183.22
183.92
184.65
185.39
186
186.78
187.55
188.17
189.06
189.81
190.54
191.3
192.04
192.8
193.54
194.29
195.01
195.77
196.52
197.26
198
198.73
199.48
200.22
200.95
201.67
202.43
203.18
203.93
204.65
205.38
206.14
206.89
207.61
208.33
209.1
209.87
210.61
211.34
212.09
212.83
213.58
214.32
215.05
215.8
216.56
217.29
217.99
218.71
219.41
220.14
220.86
221.6
222.32
223.1
223.85
224.58
225.32
225.93
226.77
227.59
228.34
229.07
229.84
230.58
231.29
231.99
232.71
233.42
234.17
234.88
235.59
236.34
237.08
237.81
238.52
239.27
240.01
240.78
241.5
242.23
242.97
243.72
244.46
245.17
245.9
246.62
247.38
248.09
248.8
249.52
250.28
251
251.69
252.41
253.12
253.87
254.6
255.32
256.03
256.8
257.53
258.23
258.97
259.71
260.46
261.21
261.95
262.67
263.42
264.13
264.84
265.55
266.28
266.99
267.73
268.43
269.13
269.86
270.59
271.32
272.04
272.77
273.5
274.24
274.96
275.68
276.4
277.15
277.88
278.59
279.17
280
280.68
281.46
282.18
282.89
283.63
284.35
285.07
285.8
286.53
287.26
288
288.71
289.42
290.16
290.92
291.64
292.36
293.09
293.8
294.54
295.11
295.9
296.65
297.43
298.19
298.91
299.64
300.36
301.09
301.82
302.53
303.23
303.96
304.7
305.42
306.13
306.85
307.57
308.29
309.02
309.55
310.48
311.26
312
312.71
313.44
314.16
314.9
315.63
316.35
317.07
317.81
318.53
319.24
319.96
320.67
321.4
322.16
322.88
323.6
324.35
325.1
325.83
326.53
327.26
327.96
328.7
329.42
330.14
330.86
331.62
332.34
333.05
333.79
334.52
335.27
336.03
336.76
337.49
338.26
338.98
339.69
340.42
341.15
341.9
342.63
343.36
344.06
344.79
345.52
346.22
346.92
347.64
348.39
349.12
349.85
350.38
351.19
351.98
352.73
353.48
354.23
355
355.76
356.5
357.23
357.99
358.73
359.47
360.2
360.93
361.66
362.41
363.11
363.82
364.55
365.31
366.05
366.77
367.51
368.23
368.96
369.51
370.29
371.14
371.93
372.68
373.41
374.1
374.88
375.64
376.37
377.12
377.86
378.64
379.39
380.12
380.88
381.64
382.44
383.21
383.97
384.7
385.46
386.18
386.89
387.6
388.32
389.06
389.78
390.49
391.19
391.9
392.63
393.34
394.04
394.75
395.44
396.16
396.86
397.56
398.25
398.97
399.67
400.37
401.05
401.75
402.45
403.16
403.86
404.54
405.24
405.98
406.69
407.39
408.09
408.79
409.49
410.21
410.88
411.56
412.26
412.99
413.69
414.38
415.08
415.78
416.49
417.22
417.61
417.92
418.61
419.35
420.07
420.78
421.47
422.19
422.88
423.59
424.28
424.97
425.67
426.41
427.13
427.82
428.52
429.14
429.96
430.68
431.32
432.08
432.8
433.5
434.21
434.88
435.58
436.27
436.94
437.64
438.32
439.01
439.74
440.43
441.12
441.8
442.49
443.19
443.9
444.57
445.23
445.95
446.66
447.35
448.02
448.71
449.38
450.08
450.77
451.46
452.12
452.66
453.49
453.77
454.18
454.78
455.55
456.23
456.92
457.6
458.28
458.95
459.64
460.31
460.98
461.64
462.33
463.01
463.71
464.26
465.06
465.75
466.46
467.14
467.82
468.48
469.06
469.84
470.53
471.07
471.85
472.54
473.24
473.91
474.59
475.26
475.86
476.6
477.31
477.98
478.66
479.3
480.04
480.76
481.44
482.13
482.82
483.5
484.2
484.89
485.48
486.14
486.93
487.63
488.31
488.99
489.7
490.39
491.09
491.79
492.46
493.15
493.86
494.55
495.22
495.9
496.6
497.28
497.99
498.68
499.38
500.07
500.81
501.51
502.19
502.89
503.59
504.31
505.05
505.76
506.46
507.18
507.9
508.61
509.29
509.99
510.68
511.39
512.09
512.69
513.37
514.2
514.93
515.64
516.34
517.04
517.76
518.47
519.15
519.83
520.53
521.24
521.94
522.61
523.31
523.99
524.69
525.41
526.09
526.76
527.48
528.18
528.86
529.55
530.11
530.81
531.6
532.31
533.01
533.68
534.41
535.11
535.78
536.48
537.18
537.89
538.61
539.31
539.98
540.7
541.41
542.09
542.76
543.42
544.08
544.63
545.44
546.13
546.77
547.51
548.19
548.88
549.56
550.24
550.91
551.61
552.28
552.96
553.61
554.31
554.99
555.67
556.33
556.94
557.69
558.41
559.09
559.78
560.46
561.18
561.86
562.54
563.22
563.66
564.59
565.28
565.96
566.63
567.29
567.99
568.65
569.24
569.96
570.65
571.26
571.97
572.65
573.32
573.91
574.65
575.33
575.98
576.63
577.19
577.8
578.27
578.48
579.01
579.72
580.23
580.93
581.48
582.18
582.71
583.38
583.89
584.54
585.08
585.74
586.27
586.9
587.41
588.08
588.61
589.25
589.78
590.38
590.88
591.48
592.01
592.63
593.16
593.73
594.26
594.84
595.39
595.96
596.5
597.06
597.57
598.1
598.63
599.2
599.74
600.32
600.84
601.37
601.92
602.52
603.03
603.56
604.08
604.65
605.17
605.73
606.28
606.81
607.34
607.91
608.44
609.06
609.58
610.15
610.67
611.21
611.74
612.33
612.85
613.42
613.96
614.28
614.45
614.98
615.64
616.16
616.72
617.25
617.78
618.3
618.9
619.42
619.99
620.5
621.08
621.61
622.19
622.71
623.3
623.8
624.36
624.89
625.5
626.01
626.66
627.19
627.77
628.29
628.91
629.44
630.08
630.6
631.19
631.7
632.68
633.11
633.34
633.61
634.14
634.73
635.57
636.3
636.97
637.66
638.17
638.36
639.03
639.72
640.38
641.03
641.68
642.38
643.02
643.66
644.3
644.98
645.64
646.31
646.97
647.63
648.29
648.96
649.64
650.29
650.59
650.94
651.6
652.25
652.94
653.61
654.29
654.94
655.64
656.32
657
657.67
658.34
659.03
659.72
660.4
661.1
661.78
662.51
663.2
663.88
664.58
665.27
665.97
666.59
667.34
668.04
668.73
669.46
670.15
670.84
671.53
672.22
672.91
673.6
674.28
674.94
675.62
676.33
677.01
677.7
678.38
679.08
679.77
680.48
681.16
681.84
682.54
683.25
683.93
684.58
685.26
685.95
686.63
687.3
687.96
688.62
689.29
689.98
690.65
691.31
691.97
692.65
693.33
694.02
694.71
695.39
696.07
696.78
697.47
698.14
698.8
699.49
700.17
700.86
701.34
701.86
702.65
703.44
704.15
704.84
705.52
706.23
706.91
707.61
708.28
708.95
709.64
710.35
711.03
711.71
712.39
713.08
713.78
714.49
715.17
715.84
716.55
717.26
717.94
718.64
719.33
720
720.7
721.39
722.06
722.71
723.4
724.09
724.76
725.41
726.1
726.78
727.48
728.01
728.76
729.25
730.04
730.91
731.58
732.26
732.51
732.77
733.64
734.14
735.01
735.48
736.37
736.87
737.73
738.21
739.04
739.53
740.37
740.86
741.58
742.08
743.04
743.54
744.44
744.92
745.76
746.26
747.11
747.39
747.61
748.2
748.66
749.21
749.5
750
751.03
751.5
752.39
752.88
753.77
754.26
755.12
755.63
756.46
756.81
756.97
757.39
757.81
758.48
759.14
759.81
760.46
761.13
761.79
762.44
763.08
763.75
764.01
764.42
765.08
765.71
766.38
767.05
767.72
768.4
769.06
769.72
770.38
771.08
771.74
772.37
773.02
773.7
774.39
775.06
775.72
776.37
777.06
777.74
778.43
779.09
779.74
780.43
781.11
781.81
782.49
783.16
783.86
784.57
785.26
785.93
786.62
787.3
788
788.72
789.41
790.1
790.67
791.51
792
792.69
793.56
794.24
794.93
795.63
796.31
796.96
797.66
798.37
799.05
799.71
800.4
801.07
801.77
802.46
803.15
803.83
804.54
805.06
805.58
806.36
807.17
807.89
808.6
809.3
809.99
810.68
811.41
812.1
812.77
813.45
814.14
814.84
815.54
816.19
816.87
817.56
818.27
818.96
819.63
820.32
820.99
821.7
822.38
823.08
823.77
824.28
824.83
825.65
826.44
827.2
827.92
828.65
828.86
829.24
830.06
830.69
831.5
832.16
832.89
833.55
834.29
834.96
835.7
836.34
837.06
837.69
838.46
839.07
839.83
840.11
840.51
841.2
841.79
842.59
843.27
843.94
844.48
845.3
846
846.68
847.38
848.07
848.78
849.47
850.18
850.86
851.59
852.28
852.96
853.66
854.36
855.06
855.61
856.4
857.01
857.76
858.46
859.14
859.81
860.49
860.99
861.59
862.45
863.17
863.86
864.53
865.26
865.93
866.61
867.27
867.96
868.64
869.33
870
870.67
871.33
872.04
872.71
873.39
874.05
874.75
875.43
876.12
876.8
877.36
878.11
878.84
879.55
880.23
880.91
881.6
882.32
883
883.69
884.38
884.88
885.66
886.16
886.91
887.74
888.44
889.13
889.85
890.54
891.23
891.92
892.63
893.33
894.01
894.7
895.39
896.11
896.65
897.42
897.92
898.67
899.64
900.33
900.93
901.62
902.41
903.11
903.81
904.47
905.15
905.87
906.55
907.2
907.9
908.57
909.27
909.99
910.68
911.17
911.74
912.63
913.37
914.06
914.76
915.45
916.16
916.88
917.57
918.27
918.99
919.69
920.38
921.05
921.75
922.44
923.13
923.81
924.47
925.17
925.87
926.56
927.22
927.9
928.56
929.13
929.68
929.92
930.41
931.37
931.85
932.8
933.29
934.2
934.68
935.59
936.08
937.02
937.5
938.4
938.89
939.83
940.31
941.19
941.7
942.6
943.08
943.43
943.79
944.57
945.29
946
946.7
947.36
948.03
948.72
949.4
950.08
950.76
951.45
952.12
952.82
953.51
954.2
954.88
955.57
956.26
956.96
957.65
958.36
959.05
959.77
960.4
961.16
961.85
962.54
963.24
963.94
964.63
965.3
966
966.72
967.39
968.07
968.74
969.41
970.12
970.82
971.5
972.18
972.87
973.59
974.27
974.95
975.63
976.3
976.99
977.7
978.27
979.03
979.62
980.43
981.12
981.78
982.46
983.13
983.81
984.5
985.16
985.83
986.5
987.2
987.88
988.51
989.19
989.85
990.54
991.22
991.91
992.57
993.29
994.01
994.7
995.38
996.08
996.79
997.49
998.17
998.86
999.54
1000.3
1001
1001.7
1002.4
1003.1
1003.8
1004.5
1005.2
1005.9
1006.6
1007.3
1008.1
1008.8
1009.5
1010.2
1010.9
1011.4
1011.9
1012.9
1013.2
1013.5
1014.2
1014.8
1015.3
1015.9
1016.3
1017.3
1017.8
1018.5
1019
1020
1020.8
1021.5
1022.2
1022.9
1023.5
1024.3
1025
1025.6
1026.3
1027
1027.7
1028.3
1029
1029.7
1030.4
1031.1
1031.8
1032.5
1033.2
1033.9
1034.6
1035.3
1036
1036.7
1036.9
1037.2
1038.1
1038.7
1039.3
1040.1
1040.8
1041.4
1042.2
1042.8
1043.2
1043.5
1044
1044.7
1045.1
1045.8
1046.2
1046.8
1047.3
1047.9
1048.4
1049
1049.5
1050.1
1050.6
1051.3
1051.7
1052.4
1052.8
1053.5
1054
1054.6
1055.1
1055.7
1056.1
1056.8
1057.3
1058
1058.4
1059.1
1059.5
1060.2
1060.7
1061.4
1061.8
1062.4
1062.9
1063.6
1064
1064.7
1065.2
1065.8
1066.3
1067
1067.4
1068.2
1068.6
1069.3
1069.8
1070.5
1071
1071.7
1072.2
1072.9
1073.4
1074.1
1074.6
1075.3
1075.7
1076.4
1076.9
1077.6
1078.1
1078.9
1079.4
1080.2
1080.6
1081.7
1082.2
1082.7
1083.4
1084.1
1084.8
1085.5
1086.2
1086.8
1087.6
1088.3
1088.9
1089.6
1090.3
1091
1091.7
1092.4
1093.1
1093.7
1094.5
1095
1095.8
1096.5
1097.2
1097.9
1098.6
1099.3
1100
1100.7
1101.4
1102.1
1102.8
1103.5
1104.2
1104.8
1105.6
1106.2
1106.9
1107.6
1108.3
1109
1109.7
1110.4
1111.1
1111.8
1112.5
1113.2
1113.9
1114.6
1115.3
1116
1116.7
1117.4
1118.1
1118.8
1119.5
1120.2
1120.9
1121.7
1122.4
1123
1123.7
1124.4
1124.9
1125.8
1126.3
1127.1
1127.9
1128.6
1129.3
1130
1130.7
1131.4
1132.1
1132.8
1133.5
1134.2
1134.9
1135.6
1136.2
1136.9
1137.6
1138.3
1139.1
1139.7
1140.4
1141.1
1141.8
1142.5
1143.2
1143.9
1144.6
1145.3
1146
1146.7
1147.3
1148
1148.7
1149.4
1150.1
1150.6
1151.4
1151.9
1152.6
1153.4
1154.2
1154.7
1155.5
1156.3
1157
1157.7
1158.4
1159.1
1159.8
1160.5
1161.2
1161.9
1162.6
1163.3
1164
1164.7
1165.4
1166.1
1166.8
1167.4
1168.1
1168.8
1169.5
1170.2
1170.9
1171.5
1172.3
1173
1173.7
1174.4
1175.1
1175.8
1176.5
1177.1
1177.8
1178.5
1179
1179.8
1180.3
1181
1182
1182.7
1183.4
1184.1
1184.7
1185.4
1186.1
1186.8
1187.5
1188.2
1188.9
1189.6
1190.3
1190.9
1191.6
1192.3
1193
1193.7
1194.3
1195.1
1195.8
1196.5
1197.1
1197.9
1198.5
1199.3
1200
1200.7
1201.3
1202.1
1202.8
1203.5
1204.1
1204.8
1205.5
1206.2
1206.9
1207.6
1208.3
1209
1209.7
1210.3
1211
1211.7
1212.4
1213.1
1213.8
1214.5
1215.2
1215.9
1216.6
1217.2
1217.9
1218.6
1219.3
1220.1
1220.7
1221.4
1222.2
1222.9
1223.5
1224.2
1224.9
1225.6
1226.3
1227
1227.7
1228.4
1229.1
1229.8
1230.5
1231.1
1231.8
1232.5
1233.2
1233.9
1234.6
1235.3
1236.1
1236.7
1237.4
1238.1
1238.8
1239.5
1240.2
1240.9
1241.6
1242.3
1243.1
1243.8
1244.4
1245.1
1245.8
1246.5
1247.2
1248
1248.6
1249.4
1250.1
1250.8
1251.4
1252.1
1252.8
1253.5
1254.2
1254.9
1255.5
1256.3
1257
1257.6
1258.3
1259
1259.7
1260.4
1261.1
1261.8
1262.5
1263.3
1263.8
1264.6
1265.3
1266
1266.8
1267.5
1268.2
1268.8
1269.6
1270.3
1271
1271.7
1272.3
1273
1273.7
1274.4
1275.1
1275.8
1276.5
1277.2
1277.8
1278.5
1279.2
1279.9
1280.6
1281.3
1282
1282.7
1283.4
1284.1
1284.8
1285.5
1286.2
1286.9
1287.6
1288.3
1289
1289.7
1290.4
1291.1
1291.6
1292.1
1292.3
1292.8
1293.7
1294.2
1295.2
1295.7
1296.6
1297.1
1298
1298.5
1299.4
1299.9
1300.9
1301.3
1302.2
1302.7
1303.7
1304.1
1305
1305.6
1306.5
1307
1307.9
1308.4
1309.2
1309.8
1310.6
1311.1
1312
1312.5
1313.4
1313.9
1314.8
1315.2
1316.1
1316.6
1317.4
1317.9
1318.9
1319.4
1320.3
1320.8
1321.7
1322.2
1323.1
1323.6
1324.5
1325
1325.9
1326.4
1327.3
1327.7
1328.6
1329.1
1330
1330.5
1331.4
1331.9
1332.8
1333.3
1334.2
1334.7
1335.5
1336
1336.9
1337.4
1338.3
1338.8
1339.7
1340.2
1341.1
1341.6
1342.4
1343
1343.9
1344.4
1345.2
1345.7
1346.4
1347
1347.8
1348.3
1349.2
1349.7
1350.7
1351.2
1352.1
1352.5
1353.4
1354
1354.9
1355.4
1356.3
1356.8
1357.7
1358.2
1359.1
1359.6
1360.5
1361
1361.9
1362.4
1363.3
1363.8
1364.7
1365.2
1366
1366.6
1367.5
1368
1368.9
1369.4
1370.3
1370.8
1371.7
1372.2
1373.1
1373.6
1374.5
1375
1375.9
1376.4
1377.3
1377.8
1378.7
1379.1
1380
1380.5
1381.4
1381.9
1382.7
1383.2
1384.1
1384.6
1385.5
1385.9
1386.8
1387.3
1388.1
1388.6
1389.5
1390
1391
1391.5
1392.3
1392.8
1393.7
1394.2
1395.1
1395.6
1396.5
1397
1397.8
1398.3
1399.2
1399.7
1400.5
1401
1401.9
1402.4
1403.2
1403.7
1404.6
1405.1
1405.9
1406.4
1407.3
1407.8
1408.7
1409.1
1410
1410.5
1411.4
1411.9
1412.7
1413.3
1414.2
1414.7
1415.5
1416
1416.9
1417.4
1418.3
1418.7
1419.6
1420.1
1421
1421.5
1422.4
1422.9
1423.8
1424.3
1425.2
1425.7
1426.6
1427
1428
1428.5
1429.4
1429.9
1430.8
1431.3
1432.2
1432.7
1433.6
1434.1
1435
1435.5
1436.3
1436.8
1437.8
1438.3
1439.1
1439.6
1440.5
1441
1442
1442.2
1442.4
1443.3
1443.8
1444.5
1444.7
1445.2
1446.1
1446.6
1447.5
1448
1448.5
1448.9
1449.6
1450.1
1451
1451.7
1452.3
1453
1453.7
1454.3
1455
1455.7
1456.4
1457
1457.7
1458.4
1459.1
1459.8
1460.4
1461.1
1461.8
1462.5
1463.2
1463.8
1464.5
1465.2
1465.9
1466.6
1467.3
1468
1468.7
1469.3
1470
1470.7
1471.4
1472.1
1472.8
1473.4
1474.1
1474.8
1475.5
1476.2
1476.9
1477.6
1478.3
1479
1479.7
1480.4
1481.1
1481.8
1482.5
1483.2
1483.9
1484.6
1485.3
1486
1486.8
1487.5
1488
1488.8
1489.3
1490
1491
1491.6
1492.4
1493.1
1493.8
1494.5
1495.3
1495.7
1496.5
1497
1497.8
1498.7
1499.4
1500.1
1500.7
1501.4
1502.1
1502.8
1503.4
1504.1
1504.8
1505.5
1506.1
1506.8
1507.4
1508.2
1508.9
1509.5
1510.2
1510.9
1511.6
1512.3
1512.9
1513.6
1514.2
1514.9
1515.4
1516.1
1517
1517.8
1518.3
1519.1
1519.8
1520.4
1521.2
1521.9
1522.6
1523.3
1523.9
1524.6
1525.3
1526
1526.7
1527.4
1528
1528.8
1529.5
1530
1530.8
1531.3
1532
1533.1
1533.6
1534.4
1535.3
1536.1
1536.8
1537.5
1538.2
1538.9
1539.6
1540.3
1541
1541.7
1542.2
1543.1
1543.8
1544.3
1545.2
1545.9
1546.4
1547.3
1547.9
1548.6
1549.5
1550.2
1550.7
1551.1
1551.5
1552
1552.6
1553.1
1553.7
1554.4
1554.8
1555.8
1556.3
1557.3
1558.1
1558.6
1559.6
1560.3
1560.8
1561.7
1562.4
1563
1563.8
1564.5
1565
1565.9
1566.6
1567.1
1567.9
1568.6
1569.1
1569.5
1569.8
1570.6
1571.3
1572
1572.7
1573.4
1574.1
1574.7
1575.4
1576.1
1576.8
1577.4
1578.1
1578.8
1579.5
1580.1
1580.8
1581.4
1582.1
1582.8
1583.5
1584.1
1584.8
1585.5
1586.2
1586.9
1587.6
1588.3
1589
1589.7
1590.4
1591
1591.7
1592.4
1593.1
1593.8
1594.5
1595.2
1595.9
1596.6
1597.4
1598.1
1598.8
1599.5
1600.1
1601
1601.6
1602.5
1603
1603.8
1604.7
1605.5
1606.2
1606.9
1607.6
1608.3
1609
1609.7
1610.4
1611.1
1611.8
1612.5
1613.2
1613.9
1614.6
1615.3
1616
1616.7
1617.4
1618.1
1618.8
1619.5
1620.2
1620.9
1621.6
1622.3
1623
1623.7
1624.3
1625
1625.7
1626.4
1627.1
1627.8
1628.5
1629.2
1629.9
1630.4
1631.2
1631.6
1632.4
1633.3
1634
1634.7
1635.4
1636.1
1636.8
1637.5
1638.1
1638.8
1639.5
1640.2
1640.7
1641.4
1641.9
1642.7
1643.6
1644.2
1644.9
1645.5
1646.3
1647
1647.7
1648.3
1649
1649.7
1650.4
1651.1
1651.6
1652.4
1652.9
1653.6
1654.5
1654.8
1655.1
1655.9
1656.4
1657.1
1657.4
1657.8
1658.8
1659.3
1660.2
1660.7
1661.5
1662
1662.9
1663.4
1664.3
1664.8
1665.7
1666.2
1667.1
1667.6
1668.5
1669
1669.9
1670.4
1671.2
1671.7
1672.6
1673.1
1674
1674.5
1675.4
1675.9
1676.8
1677.3
1678.1
1678.6
1679.5
1680
1680.9
1681.4
1682.2
1682.7
1683.6
1684.1
1684.9
1685.4
1686.3
1686.8
1687.7
1688.2
1689
1689.5
1690.4
1690.9
1691.8
1692.3
1693.2
1693.7
1694.5
1695
1695.9
1696.4
1697.3
1697.8
1698.7
1699.2
1700
1700.5
1701.4
1701.9
1702.8
1703.3
1704.2
1704.7
1705.5
1706.1
1706.9
1707.4
1708.2
1708.7
1709.6
1710.1
1711
1711.5
1712.3
1712.9
1713.7
1714.1
1714.4
1715.1
1715.8
1716.5
1717.2
1717.9
1718.4
1719.2
1720
1720.7
1721.4
1722
1722.5
1723.2
1724.1
1724.8
1725.5
1726.2
1726.9
1727.6
1728.3
1729
1729.7
1730.4
1731.1
1731.8
1732.5
1733.2
1733.9
1734.6
1735.3
1736
1736.7
1737.4
1738.1
1738.8
1739.5
1740.2
1740.9
1741.4
1742.2
1742.7
1743.4
1744.4
1744.9
1745.7
1746.5
1747.2
1747.9
1748.6
1749.2
1749.9
1750.6
1751.3
1752
1752.7
1753.4
1754.1
1754.8
1755.5
1756.2
1756.8
1757.5
1758.1
1758.8
1759.4
1760.1
1761
1761.7
1762.3
1763.1
1763.6
1764.3
1765.2
1765.9
1766.6
1767.3
1768
1768.7
1769.4
1770.1
1770.8
1771.5
1772.1
1772.8
1773.5
1774.2
1774.9
1775.6
1776.3
1777
1777.7
1778.4
1779.1
1779.8
1780.5
1781.2
1781.9
1782.6
1783.3
1784.1
1784.8
1785.5
1786.2
1786.9
1787.6
1788.3
1789
1789.7
1790.4
1791.1
1791.8
1792.4
1793.2
1793.7
1794.5
1795
1795.7
1796.6
1797.2
1798
1798.8
1799.5
1800.2
1800.9
1801.6
1802.3
1803
1803.7
1804.4
1805.1
