0.075
0.44444
1.2028
2.0167
2.9472
3.7944
4.5861
5.375
6.175
6.9417
7.7583
8.5944
9.45
10.261
11.072
11.875
12.617
13.389
13.906
14.183
15.117
15.578
16.064
16.8
16.903
17.2
17.497
18.431
18.953
19.992
20.597
21.736
22.294
23.317
23.839
24.808
25.361
26.4
26.972
28.05
28.628
29.6
30.122
31.108
31.644
32.711
33.311
33.883
34.456
35.314
36.144
36.908
37.706
38.6
39.547
40.467
41.381
42.194
42.958
43.764
43.9
44.031
44.731
44.881
45.303
45.567
45.772
46.731
47.214
47.433
47.536
48.317
49.111
49.989
51.006
51.917
53.125
53.911
54.706
55.286
55.992
57.636
58.672
59.55
59.878
60.303
61.106
61.964
62.853
63.342
63.5
64.678
65.561
66.367
66.878
67.978
68.55
69.75
70.614
71.483
72.281
73.064
73.847
74.686
75.622
76.544
77.472
78.247
79.031
79.822
80.653
81.536
82.383
82.975
84.017
84.814
85.633
86.464
87.311
88.153
88.722
89.8
90.308
91.361
92.169
93
93.278
93.556
94.3
94.769
95.372
96.219
96.447
96.967
98.031
98.611
99.825
100.51
101.66
101.97
102.24
103.29
103.93
105.22
105.96
107.19
107.78
108.81
109.36
110.66
111.41
111.96
112.09
112.69
113.35
113.92
114.49
115.46
116.66
117.8
118.78
119.68
120.53
121.4
122.43
123.52
124.46
125.31
126.16
127.04
127.93
128.89
129.22
129.56
130.74
131.32
132.36
133
133.52
134.04
134.91
135.83
136.72
137.55
138.31
139.1
139.93
140.75
141.65
142.54
143.38
144.13
144.4
144.68
145.78
146.36
147.54
148.11
148.67
149.23
150.03
150.82
151.44
152.6
153.5
154.34
155.21
156.06
156.63
157.63
158.41
159.21
160.02
160.64
161.1
161.64
162.38
163.12
163.69
164.8
165.72
166.64
167.44
168.21
168.74
169.77
170.38
171.63
172.57
173.41
174.18
174.98
175.83
176.87
177.79
178.69
179.54
179.84
180.35
181.18
181.68
182.14
182.96
184.07
185
185.89
186.71
187.58
188.53
189.19
189.53
190.4
191.29
192.11
192.9
193.15
193.49
194.62
195.59
196.53
197.39
198.15
198.92
199.76
200.58
201.32
202.43
203.27
204.05
204.8
205.64
206.53
207.51
208.24
209.3
210.09
210.86
211.68
212.61
213.57
214.47
215.32
216.15
216.7
217.75
218.31
219.45
220.31
221.15
221.68
222.64
223.44
224.23
225.12
226.08
227.02
227.8
228.53
229.07
230.16
230.77
232.01
232.97
233.77
234.52
235.38
236.02
237.23
238.1
238.99
239.77
240.52
241.34
242.19
243.14
244.06
245.07
246.06
246.9
247.75
248.68
249.66
250.62
251.39
252.57
253.43
254.29
255.21
256.21
257.14
258.05
258.86
259.68
260.49
261.35
262.24
263.07
263.88
264.67
265.49
266.1
267.25
268.1
268.91
269.71
270.52
271.32
272.16
273.05
273.88
274.72
275.55
276.36
276.62
276.94
277.96
278.63
279.73
280.61
281.47
282.24
282.88
283.01
283.79
284.64
285.5
286.38
287.18
287.95
288.71
289.51
290.39
291.04
291.28
292.12
292.92
293.48
294.57
295.43
296.26
297.16
298.03
298.57
299.69
300.5
301.34
302.14
303.03
303.92
304.52
305.56
306.08
307.13
307.96
308.17
308.84
309.34
309.51
309.79
310.66
311.48
312.21
312.99
313.9
314.76
315.61
316.44
317.26
317.99
318.75
319.62
320.52
321.39
322.22
322.74
323.06
323.27
323.87
324.64
325.42
326.27
327.12
327.93
328.46
329.59
330.33
331.06
331.84
332.74
333.32
333.59
334.44
335.21
335.95
336.69
337.45
338.29
339.23
340.11
340.93
341.72
342.49
342.77
343.06
344.11
344.73
345.82
346.41
347.44
347.97
348.97
349.52
350.59
351.19
352.36
352.95
353.97
354.49
355.56
356.15
357.62
358.32
359.48
360.03
361.07
361.78
363.41
364.22
365.41
365.94
366.95
367.52
368.78
369.47
370.83
371.45
372.61
373.18
374.33
374.99
376.36
377.03
378.16
378.71
379.79
380.4
381.54
382.26
383.57
384.15
385.18
385.73
386.84
387.43
388.69
389.29
390.33
390.87
391.98
392.57
393.74
394.35
395.51
396.06
397.09
397.69
398.84
399.43
400.54
401.2
402.31
402.86
403.91
404.52
405.64
406.23
407.41
407.98
408.99
409.54
410.67
411.32
412.38
412.99
414.06
414.61
415.64
416.25
417.35
417.93
419.07
419.73
420.84
421.41
422.51
423.13
424.29
424.99
426.14
426.7
427.72
428.32
429.55
430.2
430.77
431.34
432.2
433.04
433.87
434.81
435.8
436.29
437.52
438.38
439.26
440.1
440.99
441.58
442.74
443.26
444.38
445.24
446.08
446.95
447.8
448.4
449.56
450.42
451.24
452.07
452.91
453.5
454.68
455.51
456.31
457.12
457.98
458.86
459.43
460.62
461.44
462.22
463.04
463.9
464.47
465.62
466.49
467.37
468.17
468.99
469.81
470.38
471.49
472.37
473.27
474.06
474.86
475.69
476.6
477.5
478.38
479.23
480.07
480.89
481.78
482.71
483.64
484.54
485.44
485.74
486.04
487.31
487.9
489.15
489.76
490.99
491.58
492.73
493.4
494.73
495.48
496.89
497.52
498.59
499.17
500.53
501.2
502.49
503.1
504.19
504.74
506.04
506.79
508.06
508.7
509.79
510.32
511.44
512.1
513.44
514.04
515.23
515.83
516.92
517.48
518.67
519.36
520.54
521.15
522.24
522.78
523.31
523.84
524.81
525.86
526.79
527.63
528.42
529.21
530.06
531.02
531.99
532.85
533.69
534.23
535.3
535.86
536.96
537.89
538.76
539.59
540.37
541.17
541.67
542.88
543.95
544.89
545.41
546.51
547.11
548.16
549.13
550.2
551.1
551.91
552.72
553.56
554.46
555.1
556.3
557.21
558.04
558.85
559.47
560.5
561.37
562.37
563.34
563.94
564.93
565.74
566.6
567.46
568.41
569.36
570.17
570.93
571.48
572.61
573.17
574.33
575.21
576.01
576.77
577.33
578.4
579.29
580.14
581.06
581.91
582.69
583.48
584.32
585.19
586.03
586.6
587.82
588.36
589.4
590.24
591.16
592.04
592.91
593.73
594.52
595.29
596.12
597.01
597.87
598.69
599.57
600.4
601.19
601.99
602.84
603.72
604.58
605.48
606.33
607.13
607.65
608.8
609.77
610.71
611
611.3
612.39
612.92
614
614.58
615.55
615.82
616.48
617.09
617.69
618.55
619.45
620.38
621.29
622.17
622.75
623.97
624.78
625.62
626.51
627.36
628.25
629.22
630.13
630.91
631.71
632.25
633.44
634.32
635.2
636.04
636.84
637.67
638.58
639.5
640.35
641.2
642.04
642.87
643.71
644.61
645.5
646.35
647.23
648.11
648.98
649.55
650.7
651.26
652.46
653.39
654.21
655.04
655.88
656.81
657.72
658.6
659.44
660.28
661.13
661.96
662.84
663.76
664.64
665.54
666.41
667.01
668.15
669.08
669.95
670.86
671.78
672.61
673.19
674.32
675.29
676.21
676.5
676.8
677.94
678.56
679.69
680.33
681.61
682.24
682.81
683.39
684.23
685.11
686.03
686.91
687.81
688.69
689.54
690.4
691.26
692.15
693
693.96
694.89
695.19
695.48
696.56
697.11
698.24
698.84
700.04
700.62
701.7
702.23
703.36
703.96
705.12
705.72
706.87
707.4
708.46
709.03
710.21
710.88
712
712.61
713.76
714.3
715.36
715.92
716.49
717.05
717.94
718.85
719.66
720.43
721.23
722.12
723.04
723.94
724.79
725.63
726.4
726.97
728.13
729.08
730
730.87
731.77
732.6
733.09
734.29
735.24
736.11
736.98
737.84
738.63
739.45
740.31
741.44
742.03
743.31
744.12
744.92
745.75
746.63
747.71
748.67
749.51
750.33
751.23
752.15
753.09
754.07
755
755.45
756.65
757.52
758.39
759.29
760.29
761.25
762.1
762.91
763.15
763.38
764.65
765.22
766.64
767.23
768.33
768.86
770.08
770.69
772.01
772.66
773.83
774.36
775.49
776.09
777.27
777.87
779.14
779.72
780.78
781.33
782.46
783.03
784.26
784.95
786.06
786.59
787.7
788.35
789.67
790.39
791.61
792.16
793.23
793.82
795.1
795.73
796.92
797.54
798.09
798.63
799.46
800.31
801.23
802.12
803.12
803.76
804.85
805.67
806.54
807.46
808.36
809.29
809.81
810.9
811.7
812.57
813.51
814.4
815.29
816.13
816.95
817.79
818.69
819.56
820.41
821.26
822.13
822.94
823.74
824.58
825.44
826.36
827.24
828.1
828.88
829.69
830.52
831.39
832.29
833.16
833.66
834.81
835.66
836.53
837.39
838.26
839.13
839.97
840.78
841.6
842.48
843.33
844.23
845.16
846.04
846.83
847.67
848.56
849.49
850.45
851.38
852.27
853.1
854.02
855.04
856.03
856.93
857.8
858.28
859.49
860.42
861.42
862.35
863.28
864.29
865.16
866
866.55
867.92
868.84
869.71
870.6
871.46
872.31
873.26
874.26
875.22
876.05
876.92
877.77
878.68
879.66
880.59
881.44
882.24
883.16
884.05
884.95
885.83
886.42
887.56
888.4
889.31
890.17
891.02
891.93
892.88
893.78
894.57
895.45
896.33
897.24
898.18
899.09
899.9
900.68
901.57
902.47
903.39
904.28
905.16
905.97
906.79
907.74
908.64
909.56
910.53
911.51
912.38
913.23
914.22
915.18
916.18
917.24
917.77
918.99
919.9
920.98
922
923.03
923.98
924.83
925.72
926.92
927.91
928.92
929.87
930.74
931.64
932.64
933.71
934.63
935.53
936.41
937.3
938.2
939.19
940.13
941.09
942.01
942.83
943.67
944.54
945.54
946.51
947.4
948.25
948.69
949.94
950.84
951.92
952.8
953.66
954.46
955.29
956.17
957.07
958.01
958.92
959.83
960.68
961.48
962.31
963.19
963.89
965.01
965.86
966.66
967.46
968.34
969.24
970.23
971.07
971.91
972.72
973.54
974.45
975.36
976.35
977.23
978.16
979.02
979.9
980.78
981.72
982.67
983.56
984.45
985.33
986.19
987.12
988.33
989.36
990.17
991
991.87
992.76
993.67
994.71
995.62
996.42
996.99
998.19
999.13
1000
1001
1001.8
1002.7
1003.6
1004.5
1005.4
1006.3
1007.4
1008.2
1008.7
1009.9
1010.9
1011.8
1012.7
1013.7
1014.5
1015
1016.2
1017.2
1018.2
1019.1
1020
1020.9
1021.8
1022.7
1023.7
1024.5
1025.5
1026.4
1027.2
1028.1
1028.4
1028.7
1029.9
1030.5
1031.8
1032.3
1032.9
1033.4
1034.3
1035.4
1036.3
1037.2
1038.1
1038.9
1039.9
1040.5
1041.9
1042.9
1043.8
1044.7
1045.6
1046.7
1047.8
1048.7
1049.6
1050.6
1051.5
1052.5
1053.6
1054.4
1055.5
1056.5
1057.3
1058.2
1059.2
1060.1
1061.1
1062
1062.9
1063.7
1064.7
1065.7
1066.6
1067.5
1068.3
1069.2
1069.8
1071
1071.6
1072.8
1073.7
1074.5
1075.4
1076.3
1077.2
1077.7
1078.9
1079.8
1080.6
1081.5
1082.4
1083.3
1084.3
1085.3
1086.1
1086.9
1087.8
1088.6
1089.6
1090.5
1091.4
1092.2
1093.1
1094
1095
1095.9
1096.9
1097.7
1098.6
1099.5
1100.4
1101.4
1102.4
1103.4
1104.3
1105.1
1106
1106.9
1107.9
1108.9
1109.8
1110.5
1111.5
1112.7
1113.7
1114.7
1115.6
1116.4
1117.3
1117.8
1119.3
1120.4
1121.3
1122.2
1123
1123.9
1124.9
1125.9
1126.8
1127.7
1128.5
1129.4
1130.2
1131.2
1132.2
1133.1
1134
1134.8
1135.6
1136.5
1137.1
1138.4
1139.3
1140.1
1141
1141.9
1142.9
1143.8
1144.5
1145.6
1146.2
1147.3
1148.2
1149.1
1150
1151
1151.9
1152.7
1153.1
1154.4
1155.4
1156.4
1157.3
1158.2
1159
1159.9
1160.9
1161.7
1163
1163.9
1164.8
1165.5
1166.6
1167.6
1168.6
1169.6
1170.5
1171.4
1172.3
1173.3
1174.5
1175.6
1176.5
1177.4
1178.3
1179.3
1180.5
1181.7
1182.6
1183.4
1184.3
1185.3
1186.4
1187.5
1188.4
1189.3
1190.2
1191.2
1192.2
1193.1
1194.1
1194.9
1195.8
1196.8
1197.7
1198.6
1199.6
1200.5
1201.4
1202.2
1203.1
1204
1205
1205.9
1206.7
1207.6
1208.5
1209.1
1209.7
1210.4
1211.3
1212.1
1212.9
1213.8
1214.7
1215.6
1216.4
1217
1218.2
1219.1
1220
1220.8
1221.7
1222.5
1223.1
1224.4
1225.3
1226.1
1226.7
1228.1
1229.1
1230
1230.9
1231.8
1232.1
1232.6
1233.5
1234.2
1235.4
1236.3
1237.2
1238.2
1239.3
1240.2
1241.1
1241.7
1242.7
1243.6
1244.6
1245.5
1246.4
1247
1248.1
1249
1249.9
1250.9
1251.5
1251.8
1252.6
1253.5
1254.3
1255.1
1255.5
1256
1256.9
1257.5
1258.6
1259.5
1260.3
1261.1
1261.9
1262.5
1263.7
1264.3
1265.3
1266.1
1266.8
1267.6
1268.6
1269.5
1270.4
1271.2
1272
1272.7
1273.5
1274.5
1275.3
1276.3
1277.1
1277.9
1278.7
1279.5
1280.3
1281.2
1282.1
1282.9
1283.7
1284.5
1285
1286.1
1287
1288
1289
1289.9
1290.2
1290.4
1291.4
1292.1
1293.5
1294.2
1294.9
1295.5
1296.3
1297
1297.9
1299
1299.9
1300.3
1301.5
1302.4
1303.2
1304.2
1305.4
1306.5
1306.9
1307.3
1308.4
1308.9
1310.1
1311
1311.4
1311.7
1312.5
1313.6
1314.4
1315.2
1316.1
1317
1317.8
1318.4
1319.2
1320.1
1320.9
1321.4
1322.6
1323.6
1324.5
1325.3
1326.2
1327
1327.3
1327.6
1328.7
1329.3
1330.5
1331.1
1331.6
1332.2
1333
1333.9
1334.7
1335.5
1336.4
1337.2
1338.1
1338.9
1339.6
1340.6
1341.5
1342.4
1343.3
1344.1
1344.9
1345.7
1346.6
1347.4
1348.3
1349.1
1349.6
1350.7
1351.6
1352.5
1353.4
1354.2
1355.1
1355.9
1356.8
1357.7
1358.7
1359.6
1360.4
1361.5
1362.4
1363.3
1363.8
1364.2
1365.1
1366
1366.9
1367.9
1368.7
1369.4
1370.6
1371.8
1372.9
1373.8
1374.7
1375.6
1376.6
1377.6
1378.5
1378.8
1379.5
1380.3
1381.1
1382
1383.1
1384.1
1385
1385.8
1386.6
1387.4
1388.4
1389.3
1390.3
1391.1
1391.6
1392.8
1393.6
1394.5
1395.5
1396.4
1397.2
1397.7
1398.9
1399.7
1400.3
1401.5
1402.5
1403.4
1404.2
1404.4
1404.7
1405.7
1406.3
1407.6
1408.3
1409.4
1409.9
1411
1411.5
1412.8
1413.5
1414.6
1415.2
1416.3
1416.8
1418
1418.6
1419.9
1420.5
1421.7
1422.3
1423.4
1424
1425.3
1426
1427.2
1427.9
1429
1429.5
1430.7
1431.4
1433
1433.7
1434.8
1435.4
1436.7
1437.4
1438.9
1439.6
1440.7
1441.3
1442.6
1443.3
1444.7
1445.3
1446.4
1447
1448.2
1448.9
1450.1
1450.8
1452
1452.5
1453.7
1454.3
1455.5
1456.1
1457.2
1457.8
1458.9
1459.5
1460.7
1461.3
1461.9
1462.5
1463.4
1464.2
1465
1465.8
1466.4
1467.5
1468.5
1469.4
1470.2
1470.9
1471.8
1472.8
1473.5
1473.9
1474.5
1475.4
1476.2
1477
1477.8
1478.5
1479.6
1480.5
1481.4
1481.9
1482.6
1483
1483.5
1484.7
1485.6
1486.2
1487.5
1488.3
1489
1490
1491.1
1492
1492.9
1493.8
1494.6
1495.2
1496.4
1497.5
1498.4
1499.1
1499.2
1500.3
1501.1
1502.1
1503
1504
1504.8
1505.5
1506.5
1507.1
1507.5
1508.2
1509.1
1510.1
1511
1511.9
1512.6
1513.5
1514.3
1515.3
1516.2
1517.1
1517.9
1518.5
1518.7
1519.5
1520.4
1521.3
1522.2
1523
1523.8
1524.6
1525.5
1525.8
1526.3
1527.1
1528
1528.9
1529.8
1530.3
1531.4
1532.2
1532.7
1533.9
1534.9
1535.7
1536.5
1537.3
1538
1538.5
1539.9
1540.8
1541.6
1542.4
1543.2
1544.1
1545
1545.9
1546.8
1547.3
1548.5
1549.3
1550.2
1551.2
1552.1
1552.7
1553.9
1554.4
1555.5
1556.4
1557.4
1558.5
1559.3
1560.2
1561
1561.9
1562.8
1563.9
1564.9
1565.7
1566.3
1567.3
1568.3
1569.2
1570.1
1570.8
1571.9
1572.8
1573.6
1574.5
1575.1
1576.3
1577.3
1578.1
1578.9
1579.7
1580.6
1581.5
1582.4
1583.3
1584.1
1584.8
1585.7
1586.6
1587.5
1588.4
1589.3
1590
1590.9
1591.7
1592.7
1593.5
1594.4
1595.3
1596.2
1597
1597.8
1598.6
1599.2
1600.4
1601.3
1602.1
1602.9
1603.8
1604.5
1604.9
1605.2
1606.5
1607.1
1608.3
1608.8
1609.4
1610
1610.9
1611.9
1612.7
1613.7
1613.9
1614.2
1615.3
1615.8
1617.1
1617.7
1618.9
1619.5
1620.6
1621.2
1622.4
1623
1623.7
1624.4
1625.3
1626.1
1626.9
1627.7
1628.3
1629.5
1630.2
1631.3
1632.1
1632.9
1633.8
1634.3
1635.5
1636.4
1637.2
1638.1
1638.9
1639.7
1640.5
1641.2
1642.3
1643.2
1644
1644.5
1645.5
1646.1
1647.3
1648.1
1649
1649.8
1650.6
1651.4
1652
1653.1
1654
1654.8
1655.6
1656.5
1657.3
1658.1
1658.9
1659.5
1660.8
1661.3
1662.4
1663.2
1664
1664.9
1665.5
1666.7
1667.2
1668.3
1669.2
1670.1
1671
1671.7
1672.7
1673.4
1674.5
1675.3
1676.2
1677.1
1677.4
1677.6
1678.9
1679.5
1680.6
1681.2
1681.7
1682.3
1683.3
1684.1
1685.1
1686
1686.8
1687.6
1688.5
1689.4
1690.2
1691.2
1692
1692.8
1693.7
1694.6
1694.9
1695.2
1696.3
1696.9
1698.1
1698.6
1699.8
1700.4
1701.6
1702.1
1703.3
1703.9
1704.5
1705
1705.8
1706.7
1707.6
1708.5
1709.4
1709.9
1711
1711.8
1712.7
1713.7
1714.5
1715.4
1715.9
1717
1717.9
1718.7
1719.6
1720.5
1721.3
1722.2
1723
1723.8
1724.3
1725.5
1726.4
1727.3
1728.2
1729
1729.5
1730.7
1731.7
1732.6
1733.4
1734.3
1735.2
1735.7
1737
1737.9
1738.8
1739.6
1740.5
1741.3
1742.3
1743.2
1744.2
1745.1
1746
1746.8
1747.6
1748.4
1749.3
1750.3
1751.2
1752
1752.8
1753.7
1754.2
1755.5
1756.1
1757.2
1758
1758.9
1759.7
1760.3
1761.4
1762.3
1763.2
1764
1764.8
1765.6
1766.5
1767.3
1768.2
1769.1
1769.9
1770.7
1771.2
1772.4
1773.3
1774.2
1775
1775.6
1776.6
1777.1
1778.3
1779.1
1780
1780.9
1781.7
1782
1782.2
1783.3
1783.8
1785
1785.6
1786.1
1786.7
1787.5
1788.3
1789.2
1790
1790.9
1791.5
1792.7
1793.6
1794.4
1795.2
1796
1797
1797.5
1798.6
1799.6
1800.1
1801.3
1802.2
1803.1
1803.7
1804.9
