0.083333
0.20833
0.96944
1.7111
2.4444
3.1611
3.8889
4.2917
4.6278
5.35
6.1083
6.8528
7.5722
8.2917
9.0083
9.7278
10.453
11.183
11.944
12.694
13.447
14.208
14.964
15.461
15.728
16.461
17.203
17.939
18.7
19.458
20.172
20.9
21.6
22.289
22.981
23.675
24.394
25.144
25.914
26.361
26.661
27.422
28.211
28.992
29.769
30.528
30.967
31.275
32.033
32.792
33.553
34.328
35.119
35.897
36.436
36.689
37.494
38.281
39.044
39.811
40.583
41.322
42.092
42.6
42.872
43.633
44.397
45.192
46.028
46.853
47.675
48.475
49.244
50.019
50.772
51.556
52.361
53.15
53.925
54.694
55.497
56.306
57.111
57.872
58.642
59.431
60.247
61.103
61.947
62.764
63.597
64.444
65.258
66.05
66.828
67.633
68.469
69.294
70.122
70.953
71.739
72.467
73.203
73.95
74.678
75.442
76.242
77.056
77.869
78.694
79.533
80.339
81.142
81.931
82.733
83.561
84.394
85.194
85.975
86.725
87.489
88.303
89.111
89.933
90.753
91.611
92.469
93.286
94.081
94.875
95.664
96.442
97.247
98.081
98.944
99.853
100.72
101.6
102.47
103.29
104.1
104.9
105.71
106.54
107.41
108.27
109.08
109.87
110.66
111.46
112.22
113.01
113.79
114.56
115.1
115.37
116.19
117.05
117.52
117.88
118.74
119.62
120.48
121.3
122.07
122.83
123.57
124.32
125.08
125.82
126.57
127.33
128.09
128.86
129.62
130.41
131.31
131.88
132.22
133.15
134.02
134.85
135.67
136.49
137.3
138.09
138.87
139.64
140.42
141.22
142.02
142.84
143.66
144.46
145.26
146.1
146.92
147.71
148.19
148.49
148.97
149.26
149.78
150.02
150.76
151.52
152.28
153.04
153.54
153.82
154.64
155.45
156.21
156.97
157.7
158.43
159.16
159.91
160.36
160.66
161.21
161.43
162.2
162.95
163.73
164.55
165.09
165.33
166.09
166.79
167.48
168.16
168.82
169.49
170.17
170.84
171.53
172.22
172.93
173.65
174.08
174.35
175.05
175.74
176.41
177.11
177.78
178.47
179.15
179.54
179.81
180.27
180.47
181.12
181.51
181.76
182.42
183.06
183.69
184.29
184.9
185.5
186.15
186.82
187.54
188.07
188.32
188.83
189.1
189.86
190.57
191.28
191.96
192.6
193.24
193.86
194.49
195.14
195.8
196.48
197.21
197.94
198.67
199.39
200.15
200.9
201.61
202.33
203.03
203.73
204.43
205.13
205.85
206.61
207.34
208.06
208.79
209.52
210.26
210.98
211.71
212.44
212.93
213.16
213.86
214.56
215.24
215.91
216.57
217.21
217.86
218.51
219.18
219.85
220.56
221.24
221.94
222.66
223.39
224.09
224.81
225.5
226.19
226.88
227.55
228.22
228.64
228.88
229.52
230.15
230.8
231.49
232.19
232.72
232.91
233.63
234.35
235.03
235.7
236.39
236.8
237.07
237.52
237.74
238.42
239.09
239.82
240.57
241.26
241.74
241.95
242.64
243.33
244.02
244.49
244.7
245.38
246.08
246.76
247.45
248.13
248.86
249.62
250.34
251.07
251.85
252.56
253.26
253.96
254.68
255.14
255.43
256.19
256.91
257.61
258.33
259.04
259.79
260.54
261.26
261.97
262.66
263.4
264.23
265.08
265.94
266.8
267.32
267.62
268.36
268.98
269.1
269.82
270.5
271.02
271.19
271.87
272.54
273.22
273.88
274.55
275.2
275.89
276.59
277.27
277.96
278.64
279.33
280.06
280.79
281.56
282.29
282.98
283.71
284.46
285.24
286.08
287.02
287.91
288.82
289.76
290.73
291.74
292.63
293.47
294.34
295.26
296.24
297.24
298.22
299.19
300.14
301.09
302.01
302.92
303.89
304.87
305.79
306.7
307.64
308.55
309.49
310.46
311.37
312.23
313.18
314.17
315.11
316.06
316.9
317.74
318.64
319.54
320.43
321.37
322.33
323.3
324.25
325.19
326.16
326.77
327.11
327.69
328.01
328.94
329.89
330.9
331.92
332.36
332.88
333.49
333.81
334.78
335.73
336.69
337.66
338.61
339.59
340.57
341.43
342.29
343.17
344.13
345.07
345.95
346.8
347.64
348.52
349.46
350.41
351.3
352.13
352.98
353.86
354.82
355.81
356.31
356.78
357.74
358.62
359.45
359.89
360.23
361.03
361.84
362.71
363.16
363.66
364.63
365.6
366.48
367.36
368.17
368.7
368.98
369.82
370.74
371.66
372.67
373.71
374.7
375.67
376.65
377.58
378.51
379.39
380.3
381.27
382.2
383.13
384.07
385.05
386.03
386.59
387
387.94
388.83
389.68
390.52
391.11
391.39
392.29
393.22
394.16
395.14
396.13
397.07
398
398.96
399.99
401.01
401.95
402.9
403.9
404.85
405.81
406.79
407.78
408.21
408.79
409.72
410.28
410.62
411.51
412.43
412.99
413.41
414.31
414.84
415.2
416.11
417.01
417.65
417.94
418.56
418.83
419.72
420.64
421.11
421.61
422.57
423.46
423.92
424.35
425.26
426.12
427.05
428.04
429.06
430.1
430.99
431.48
431.9
432.81
433.71
434.55
435.07
435.36
436.21
437.11
437.59
438.01
438.94
439.92
440.87
441.82
442.66
443.5
444.35
445.25
446.14
447.04
447.86
448.65
449.43
450.23
451.11
451.63
451.96
452.86
453.79
454.3
454.71
455.2
455.54
456.34
457.13
457.91
458.7
459.54
460.44
460.97
461.36
461.88
462.22
463.11
463.61
463.99
464.5
464.85
465.69
466.55
467.41
468.3
468.69
469.21
470.04
470.6
470.89
471.76
472.68
473.16
473.57
474.42
474.96
475.26
476.13
477.04
477.57
477.97
478.56
478.86
479.76
480.68
481.65
482.6
483.07
483.51
484.41
485.28
485.76
486.11
486.97
487.86
488.79
489.74
490.73
491.74
492.27
492.65
493.16
493.49
494.36
495.26
495.71
496.23
497.18
498.13
499
499.6
499.9
500.76
501.66
502.55
503.49
503.9
504.46
505.34
505.95
506.23
507.13
508.04
509
509.56
509.94
510.89
511.8
512.71
513.63
514.49
515.33
516.11
516.88
517.71
518.58
519.5
520.42
521.38
522.24
523.13
524.05
524.92
525.78
526.66
527.3
527.58
528.49
529.41
530.37
531.24
532.16
533.09
534.05
534.41
535.01
535.92
536.56
536.84
537.78
538.69
539.65
540.18
540.57
541.2
541.48
542.4
543.34
543.98
544.31
545.3
546.21
547.11
548.03
548.96
549.86
550.76
551.67
552.52
553.03
553.38
554.25
555.09
555.96
556.85
557.79
558.65
559.54
560.44
561.3
562.16
563.06
563.48
563.97
564.89
565.76
566.36
566.62
567.47
567.94
568.27
569.05
569.77
570.46
571.15
571.85
572.54
573.21
573.94
574.84
575.81
576.75
577.41
577.74
578.71
579.64
580.56
581.47
582.34
583.21
584.11
584.7
585.04
585.98
586.92
587.84
588.5
588.75
589.66
590.29
590.6
591.5
592.39
593.26
594.08
594.85
595.63
596.46
597.39
598.34
599.31
599.96
600.22
601.11
601.99
602.92
603.87
604.81
605.73
606.65
607.57
608.48
609.4
610.32
611.23
612.15
613.04
613.94
614.42
614.85
615.7
616.26
616.54
617.41
617.96
618.31
619.22
620.08
620.96
621.82
622.71
623.58
624.43
625.31
626.18
627.06
627.63
627.96
628.86
629.75
630.67
631.57
632.5
633.43
633.9
634.34
635.22
636.14
637.05
637.94
638.83
639.42
639.73
640.65
641.22
641.54
642.1
642.36
643.16
643.68
643.96
644.86
645.79
646.68
647.56
648.44
649.33
650.19
651.04
651.91
652.81
653.75
654.68
655.29
655.62
656.56
657.14
657.48
658.35
658.94
659.23
660.13
660.64
661.02
661.89
662.57
662.85
663.8
664.7
665.58
666.5
666.98
667.37
667.91
668.21
669.07
669.94
670.48
670.84
671.74
672.6
673.45
674.32
675.2
676.04
676.87
677.72
678.55
679.36
680.17
681.03
681.89
682.77
683.65
684.51
685.32
686.14
686.97
687.78
688.61
689.14
689.51
690.46
690.98
691.38
691.95
692.27
693.24
694.18
695.11
696.03
696.52
696.9
697.46
697.76
698.67
699.63
700.58
701.55
702.53
703.05
703.44
704.33
705.2
706.05
706.89
707.75
708.3
708.62
709.51
710.41
710.99
711.3
712.16
713.03
713.92
714.79
715.62
716.47
717.35
718.19
719.03
719.91
720.8
721.72
722.58
723.41
724.21
725
725.86
726.78
727.67
728.51
729.38
730.25
731.12
732.01
732.86
733.73
734.56
735.38
736.22
737.08
737.94
738.82
739.61
740.41
741.22
742.01
742.81
743.6
744.4
745.22
746.08
746.93
747.81
748.63
749.47
750.3
751.11
751.93
752.78
753.69
754.29
754.62
755.56
756.51
757.12
757.43
758.29
759.11
759.95
760.8
761.37
761.71
762.64
763.56
764.48
765.02
765.36
766.24
767.11
767.94
768.77
769.63
770.51
771.43
772.33
773.24
774.13
775.03
775.87
776.71
777.59
778.48
779.36
780.24
781.13
782.03
782.91
783.77
784.66
785.58
786.49
787.33
788.17
789.03
789.96
790.85
791.71
792.59
793.48
794.09
794.39
795.29
795.81
796.13
796.94
797.73
798.59
799.46
800.37
801.31
802.18
803.08
804
804.91
805.79
806.66
807.56
808.48
809.37
810.24
811.05
811.82
812.62
813.47
814.36
815.28
816.16
817.05
817.93
818.81
819.72
820.65
821.59
822.47
823.3
824.1
824.96
825.86
826.75
827.58
828.37
829.15
829.93
830.76
831.56
832.36
833.21
834.07
834.95
835.8
836.66
837.53
838.33
839.13
839.95
840.8
841.67
842.54
843.39
844.24
845.07
845.91
846.77
847.6
848.39
849.18
849.98
850.81
851.63
852.49
853.42
854.27
855.11
855.98
856.85
857.69
858.49
859.25
860.01
860.76
861.57
862.44
863.34
864.25
864.79
865.2
866.14
867.08
867.55
867.99
868.51
868.83
869.67
870.52
871.36
872.22
873.13
874.05
874.57
874.99
875.55
875.88
876.77
877.37
877.68
878.48
878.98
879.27
880.08
880.91
881.75
882.63
883.17
883.52
884.38
884.96
885.27
886.17
886.72
887.04
887.55
887.86
888.69
889.21
889.56
890.43
891.3
892.14
892.95
893.73
894.52
895.34
896.14
896.94
897.48
897.78
898.67
899.6
900.51
901.46
902.38
903.31
903.79
904.23
905.1
905.94
906.79
907.64
908.49
909.37
910.21
910.78
911.08
911.94
912.82
913.29
913.69
914.51
915.01
915.31
916.13
916.96
917.83
918.4
918.72
919.58
920.2
920.46
921.36
922.24
923.15
924.08
925.01
925.96
926.9
927.83
928.37
928.73
929.26
929.6
930.08
930.47
931.37
932.29
933.22
934.18
935.11
936
936.84
937.66
938.46
939.3
940.2
941.11
942.02
942.64
942.94
943.88
944.82
945.73
946.32
946.64
947.52
948.4
949.28
950.1
950.87
951.64
952.45
953.28
954.19
955.11
956
956.56
956.89
957.82
958.74
959.33
959.64
960.52
961.36
962.17
962.96
963.72
964.52
965.38
966.29
967.19
968.09
968.95
969.51
969.81
970.69
971.54
972.39
972.92
973.23
974.05
974.84
975.63
976.4
977.12
977.84
978.55
979.28
980.09
980.96
981.77
982.62
983.47
984.3
985.09
985.87
986.65
987.42
988.22
989.04
989.89
990.76
991.63
992.49
993.35
994.21
995.11
996.01
996.85
997.67
998.47
999.24
999.98
1000.7
1001.6
1002.5
1003.3
1004.2
1004.7
1005
1005.9
1006.7
1007.5
1008.3
1009.1
1009.9
1010.3
1010.7
1011.5
1012.3
1013
1013.8
1014.5
1015.2
1016
1016.8
1017.6
1018.4
1019.2
1020
1020.8
1021.6
1022.3
1023.1
1023.9
1024.7
1025.5
1026.3
1026.8
1027.1
1027.8
1028.6
1029.4
1030.2
1031
1031.8
1032.5
1033.3
1034.2
1035.1
1036
1036.5
1036.9
1037.7
1038.2
1038.5
1039.4
1040.2
1040.7
1041
1041.8
1042.6
1043.4
1043.9
1044.2
1045.1
1045.9
1046.8
1047.7
1048.6
1049.4
1050.3
1051.1
1051.8
1052.6
1053.4
1054.3
1055.1
1056
1056.9
1057.8
1058.3
1058.7
1059.1
1059.5
1060.4
1060.9
1061.2
1062.1
1062.7
1063
1063.9
1064.8
1065.4
1065.7
1066.6
1067.4
1068.3
1068.8
1069.1
1069.9
1070.8
1071.6
1072.1
1072.5
1073.1
1073.4
1074.2
1075.1
1076
1076.9
1077.8
1078.4
1078.7
1079.6
1080.2
1080.5
1081.4
1082
1082.3
1083.2
1084.1
1085
1085.9
1086.7
1087.5
1088.2
1089
1089.7
1090.5
1091.3
1092.2
1093
1093.5
1093.8
1094.6
1095.4
1096.1
1096.9
1097.6
1098.3
1099
1099.7
1100.3
1100.8
1101
1101.7
1102.3
1103
1103.7
1104.3
1104.9
1105.6
1106.2
1106.8
1107.4
1108
1108.6
1109.3
1109.9
1110.6
1111.3
1112
1112.7
1113.4
1114.1
1114.8
1115.6
1116.3
1117.1
1117.8
1118.5
1119.2
1119.9
1120.7
1121.3
1122
1122.7
1123.3
1124
1124.7
1125.5
1126.2
1126.9
1127.7
1128.5
1129.2
1130
1130.6
1131.3
1131.9
1132.6
1133.2
1133.8
1134.5
1135.1
1135.8
1136.5
1137
1137.3
1138
1138.8
1139.6
1140.3
1141
1141.8
1142.5
1143.2
1143.9
1144.6
1145.3
1146
1146.8
1147.5
1148.3
1149
1149.7
1150.2
1150.5
1151
1151.2
1151.9
1152.6
1153.3
1153.7
1153.9
1154.6
1155.3
1156
1156.4
1156.7
1157.4
1158.1
1158.5
1158.7
1159.4
1160.2
1160.9
1161.6
1162.3
1163
1163.7
1164.3
1165
1165.7
1166.4
1167.1
1167.8
1168.5
1169
1169.2
1169.9
1170.7
1171.4
1172.1
1172.8
1173.5
1173.9
1174.1
1174.8
1175.5
1176.1
1176.8
1177.4
1178.1
1178.8
1179.5
1180.2
1180.8
1181.5
1182.2
1183
1183.7
1184.5
1185.3
1186
1186.8
1187.6
1188.3
1189.1
1189.9
1190.6
1191.4
1192.2
1192.9
1193.7
1194.4
1195.2
1195.7
1195.9
1196.7
1197.5
1198.2
1199
1199.4
1199.7
1200.4
1201.2
1202
1202.8
1203.5
1204.3
1205.2
1206
1206.7
1207.5
1208.4
1209.2
1210.1
1210.9
1211.8
1212.6
1213.4
1214.2
1215
1215.8
1216.6
1217.5
1218.3
1219.2
1220
1220.9
1221.7
1222.5
1223.4
1224.2
1225.1
1225.9
1226.7
1227.5
1228.3
1229.1
1229.9
1230.6
1231.4
1232.2
1232.9
1233.7
1234.5
1235.4
1236.2
1237
1237.9
1238.7
1239.5
1240.2
1241
1241.8
1242.6
1243.4
1244.2
1245.1
1245.9
1246.8
1247.6
1248.4
1249.2
1250
1250.8
1251.7
1252.5
1253.3
1254.2
1255.1
1256
1256.9
1257.7
1258.6
1259.5
1260.3
1261.1
1261.9
1262.7
1263.5
1264.3
1265
1265.8
1266.5
1267.2
1267.9
1268.6
1269.4
1270.2
1271
1271.8
1272.6
1273.4
1274.2
1274.9
1275.6
1276.3
1277.1
1277.8
1278.6
1279.3
1280.1
1280.8
1281.6
1282.5
1283.3
1284.1
1284.8
1285.6
1286.4
1287.3
1288.1
1288.9
1289.7
1290.5
1291.3
1292.1
1292.8
1293.5
1294.3
1295
1295.8
1296.6
1297.4
1298.3
1299.1
1299.9
1300.8
1301.5
1302.3
1303
1303.8
1304.5
1305.3
1306.1
1306.8
1307.6
1308.4
1309.2
1310
1310.8
1311.7
1312.4
1313.3
1314.1
1314.9
1315.6
1316.4
1317.2
1318
1318.7
1319.5
1320.2
1320.9
1321.7
1322.5
1323.3
1324.1
1324.9
1325.7
1326.5
1327.2
1328
1328.8
1329.6
1330.4
1331.1
1331.9
1332.7
1333.5
1334.2
1335
1335.8
1336.6
1337.4
1338.2
1339
1339.7
1340.5
1341.3
1342
1342.7
1343.5
1344.3
1345.1
1346
1346.8
1347.6
1348.4
1349.2
1350
1350.7
1351.4
1352.2
1352.9
1353.7
1354.4
1355.2
1356
1356.8
1357.5
1358.4
1359.2
1360
1360.7
1361.5
1362.2
1363
1363.7
1364.5
1365.3
1366.1
1366.9
1367.7
1368.5
1369.3
1370
1370.8
1371.6
1372.3
1373.1
1373.9
1374.7
1375.5
1376.3
1377.1
1377.9
1378.7
1379.6
1380.4
1381.2
1381.9
1382.7
1383.4
1384.2
1385
1385.8
1386.6
1387.4
1388.2
1389
1389.9
1390.7
1391.5
1392.3
1393.1
1393.8
1394.6
1395.4
1396.1
1396.8
1397.5
1398.2
1398.9
1399.7
1400.5
1401.2
1402
1402.7
1403.4
1404.2
1404.9
1405.6
1406.3
1407
1407.7
1408.4
1409.1
1409.8
1410.5
1411.2
1411.7
1411.9
1412.6
1413.2
1413.9
1414.5
1415.2
1415.9
1416.6
1417.3
1418
1418.7
1419.4
1420.1
1420.8
1421.2
1421.4
1422.1
1422.8
1423.5
1424.2
1424.7
1424.9
1425.7
1426.4
1427.2
1428
1428.8
1429.6
1430.4
1431.2
1432.1
1432.6
1433
1433.5
1433.8
1434.7
1435.5
1436.3
1437.2
1437.8
1438
1438.7
1439.3
1439.5
1440.3
1441
1441.8
1442.5
1443.2
1444
1444.8
1445.6
1446.4
1447.2
1448
1448.9
1449.7
1450.4
1450.6
1451.5
1452.4
1453.2
1454.1
1455
1455.8
1456.5
1457.3
1457.9
1458.1
1458.9
1459.4
1459.6
1460
1460.1
1460.3
1461.1
1461.8
1462.5
1462.9
1463.1
1463.8
1464.5
1465.2
1465.9
1466.7
1467.4
1468.1
1468.9
1469.7
1470.5
1471.2
1472
1472.7
1473.4
1474.1
1474.8
1475.6
1476.3
1477.1
1477.8
1478.5
1479.3
1480
1480.7
1481.5
1482.3
1483.1
1483.8
1484.5
1485.3
1486
1486.8
1487.5
1488.2
1489
1489.8
1490.6
1491.4
1492.2
1493
1493.8
1494.6
1495.4
1496.2
1496.9
1497.7
1498.4
1499.2
1499.9
1500.3
1500.7
1501.4
1502.1
1502.9
1503.7
1504.5
1505.2
1506
1506.8
1507.6
1508.3
1509.1
1509.8
1510.6
1511.3
1512.2
1513
1513.9
1514.7
1515.5
1516.3
1517
1517.8
1518.5
1519.3
1520.1
1520.9
1521.8
1522.6
1523.4
1524.2
1525
1525.8
1526.5
1527.2
1527.9
1528.6
1529.3
1530.1
1530.9
1531.6
1532.4
1533.2
1533.9
1534.7
1535.5
1536.3
1537
1537.8
1538.6
1539.3
1540.1
1540.8
1541.6
1542.3
1543
1543.8
1544.6
1545.4
1546.1
1546.9
1547.7
1548.5
1549.3
1550.2
1551
1551.8
1552.6
1553.5
1554.3
1555.1
1555.9
1556.8
1557.6
1558.4
1559.3
1560.2
1561
1561.8
1562.3
1562.5
1563.2
1563.8
1564.5
1565.1
1565.8
1566.5
1567.1
1567.9
1568.6
1569.3
1570
1570.7
1571.4
1572.1
1572.8
1573.4
1574.1
1574.8
1575.2
1575.5
1576.2
1576.9
1577.7
1578.5
1579.3
1580.1
1581
1581.7
1582.5
1583.3
1584
1584.8
1585.5
1586.3
1587
1587.7
1588.4
1589.1
1589.9
1590.6
1591.4
1592.1
1592.9
1593.7
1594.5
1595.3
1596
1596.8
1597.5
1598.3
1599
1599.7
1600.4
1601.2
1601.9
1602.6
1603.4
1604.1
1604.8
1605.3
1605.5
1606.2
1606.9
1607.6
1608.3
1609
1609.7
1610.4
1611.2
1611.9
1612.6
1613.3
1614
1614.8
1615.5
1616.2
1616.9
1617.6
1618.3
1619
1619.7
1620.4
1621.1
1621.7
1622.4
1623.1
1623.8
1624.4
1625.1
1625.8
1626.5
1627.2
1627.9
1628.6
1629.3
1630
1630.7
1631.4
1632
1632.7
1633.3
1634
1634.7
1635.4
1636.1
1636.8
1637.5
1638.2
1638.9
1639.5
1640.2
1640.9
1641.4
1641.6
1642.3
1643
1643.7
1644.4
1645.1
1645.8
1646.5
1647.2
1648
1648.7
1649.4
1650.1
1650.9
1651.6
1652.4
1653
1653.2
1654
1654.8
1655.2
1655.5
1656.2
1656.7
1656.9
1657.7
1658.4
1659.1
1659.8
1660.5
1661
1661.3
1662
1662.8
1663.5
1664.2
1664.7
1664.9
1665.6
1666.3
1667
1667.6
1668.2
1668.9
1669.6
1670.2
1670.9
1671.6
1672.2
1672.9
1673.5
1674.2
1674.9
1675.5
1676.3
1677
1677.8
1678.6
1679.5
1680.3
1681.1
1681.9
1682.7
1683.5
1684.3
1685.1
1685.8
1686.6
1687.4
1688.1
1688.9
1689.6
1690.3
1691.1
1691.8
1692.6
1693.4
1694.2
1694.9
1695.6
1696.4
1697.1
1697.7
1698.4
1698.8
1699.1
1699.8
1700.4
1701.1
1701.8
1702.5
1703.2
1703.7
1703.9
1704.6
1705.3
1706
1706.7
1707.4
1708
1708.7
1709.3
1710
1710.7
1711.4
1712
1712.7
1713.4
1714.1
1714.8
1715.6
1716.4
1717.1
1717.9
1718.6
1719.3
1720
1720.7
1721.4
1722.2
1722.9
1723.5
1724.3
1725
1725.7
1726.4
1727.1
1727.9
1728.7
1729.4
1730.2
1730.9
1731.7
1732.4
1733.1
1733.9
1734.6
1735.3
1736
1736.7
1737.4
1738.1
1738.8
1739.5
1740.3
1741
1741.7
1742.5
1743.3
1744
1744.7
1745.5
1746.2
1746.9
1747.6
1748.2
1748.7
1748.9
1749.6
1750.2
1750.9
1751.6
1752.2
1752.9
1753.6
1754.3
1755.1
1755.9
1756.7
1757.5
1758.3
1759.1
1759.8
1760.6
1761.4
1762.2
1763
1763.7
1764.5
1765.3
1765.8
1766
1766.6
1766.8
1767.5
1768.2
1768.9
1769.7
1770.4
1771.1
1771.9
1772.6
1773.3
1774
1774.8
1775.5
1776.2
1776.9
1777.6
1778.4
1779.1
1779.7
1780.4
1781.1
1781.8
1782.6
1783.3
1784.1
1784.9
1785.7
1786.5
1787.3
1788.2
1788.9
1789.7
1790.5
1791.2
1792
1792.7
1793.5
1794.2
1795
1795.8
1796.5
1797.3
1798.1
1798.9
1799.6
1800.3
1801.1
1801.5
1801.7
1802.4
1803.1
1803.7
1804.4
1805
