0.15833
0.5
1.4639
2.3528
3.2389
4.2
5.0917
5.7861
6.8333
7.7472
8.5778
9.5
10.428
11.272
12.183
13.111
13.986
14.939
15.944
16.833
17.819
18.886
19.783
20.778
21.742
22.606
23.55
24.494
25.381
26.381
27.369
28.283
29.272
30.258
31.178
32.172
33.103
33.989
34.969
35.947
36.836
37.828
38.747
39.675
40.628
41.578
42.467
43.439
44.381
45.292
46.253
47.272
48.203
49.186
50.136
51.031
51.986
52.931
53.794
54.781
55.706
56.594
57.583
58.522
59.397
60.364
61.278
62.161
63.128
64.094
64.989
65.964
66.9
67.792
68.803
69.778
70.683
71.694
72.658
73.589
74.558
75.542
76.517
77.428
78.347
79.325
80.244
81.206
82.203
83.128
84.111
85.103
86.042
87.014
88.033
88.942
89.889
90.844
91.742
92.658
93.644
94.517
95.208
96.256
97.156
97.617
97.833
98.853
99.592
100.58
101.32
102.33
103.03
104.01
104.76
105.71
106.38
107.37
108.11
109.07
109.75
110.73
111.38
112.38
113.08
114.05
114.7
115.69
116.37
117.28
117.9
118.86
119.51
120.44
121.1
122.05
122.71
123.68
124.35
125.31
125.95
126.92
127.57
128.49
129.14
130.05
130.69
131.66
132.38
133.36
134.03
134.99
135.65
136.62
137.31
138.28
138.97
139.92
140.6
141.58
142.24
143.22
143.89
144.84
145.32
146.11
147.21
147.71
147.89
148.31
148.96
149.39
150.3
151.22
152.14
153.03
153.96
154.97
155.88
156.89
157.9
158.87
159.91
160.92
161.84
162.79
163.71
164.63
165.57
166.55
167.48
168.49
169.53
170.47
171.52
172.56
173.55
174.59
175.64
176.59
177.61
178.56
179.5
180.57
181.53
182.5
183.49
184.43
185.36
186.38
187.37
188.4
189.44
190.41
191.37
192.34
193.29
194.26
195.23
196.21
197.18
198.15
199.15
200.1
201.07
202.07
203.01
203.98
204.98
205.9
206.91
207.88
208.82
209.81
210.83
211.76
212.76
213.76
214.71
215.7
216.7
217.6
218.56
219.52
220.4
221.35
222.31
223.17
224.09
225.07
225.96
226.88
227.88
228.81
229.69
230.68
231.6
232.48
233.45
234.38
235.24
236.21
237.13
237.99
238.91
239.82
240.68
241.61
242.57
243.47
244.42
245.45
246.43
247.37
248.36
249.31
250.23
251.18
252.11
253.01
253.95
254.96
255.87
256.82
257.82
258.8
259.74
260.74
261.64
262.56
263.52
264.47
265.35
266.35
267.24
268.17
269.13
270.09
270.99
271.99
272.95
273.83
274.79
275.75
276.66
277.59
278.57
279.46
280.4
281.34
282.21
283.21
284.19
285.09
286.07
287.02
287.91
288.88
289.81
290.7
291.7
292.65
293.56
294.56
295.52
296.44
297.46
298.41
299.34
300.33
301.28
302.19
303.17
304.1
305.02
305.98
306.92
307.84
308.81
309.81
310.82
311.72
312.69
313.66
314.58
315.54
316.52
317.41
318.38
319.34
320.24
321.16
322.12
322.97
323.9
324.82
325.7
326.66
327.69
328.55
329.51
330.43
331.16
332.18
333.11
333.56
333.8
334.8
335.52
336.55
337.28
338.31
339
340
340.72
341.74
342.44
343.38
344.11
345.03
345.72
346.66
347.33
348.31
348.99
349.95
350.62
351.59
352.25
353.25
353.92
354.89
355.57
356.55
357.21
358.16
358.87
359.82
360.54
361.51
362.2
363.17
363.86
364.81
365.44
366.44
367.13
368.07
368.71
369.72
370.41
371.42
372.13
373.13
373.86
374.89
375.63
376.63
377.34
378.32
379.01
379.97
380.66
381.61
382.24
383.22
383.91
384.85
385.52
386.49
387.18
388.13
388.84
389.79
390.46
391.42
392.12
393.05
393.73
394.66
395.31
396.25
396.89
397.81
398.45
399.4
400.09
401.05
401.73
402.67
403.38
404.31
404.99
405.98
406.64
407.61
408.25
409.24
409.94
410.96
411.64
412.61
413.33
414.32
414.99
415.97
416.65
417.58
418.27
419.23
419.91
420.86
421.58
422.58
423.27
424.23
424.93
425.93
426.62
427.63
428.28
429.26
429.96
430.94
431.6
432.54
433.21
434.14
434.8
435.75
436.44
437.38
438.07
439.04
439.69
440.64
441.3
442.26
442.88
443.83
444.51
445.46
446.14
447.11
447.77
448.71
449.41
450.37
451
451.96
452.65
453.61
454.27
455.25
455.95
456.92
457.6
458.64
459.32
460.34
461.05
462
462.73
463.73
464.45
465.43
466.1
467.14
467.84
468.84
469.6
470.62
471.32
472.37
473.09
474.11
474.86
475.9
476.57
477.6
478.29
479.25
479.89
480.91
481.59
482.56
483.28
484.25
484.94
485.94
486.66
487.62
488.32
489.31
489.98
490.94
491.59
492.56
493.21
494.22
494.89
495.85
496.52
497.54
498.23
499.19
499.86
500.81
501.52
502.46
503.15
504.11
504.86
505.87
506.54
507.56
508.28
509.29
509.95
510.96
511.67
512.66
513.35
514.35
515.04
516.09
516.76
517.74
518.45
519.47
520.18
521.19
521.91
522.91
523.59
524.6
525.28
526.21
526.89
527.88
528.55
529.55
530.23
531.23
531.93
532.94
533.6
534.56
535.24
536.23
536.9
537.83
538.54
539.52
540.15
541.11
541.77
542.74
543.36
544.33
545.01
545.95
546.6
547.61
548.29
549.3
550
550.97
551.63
552.61
553.31
554.25
554.93
555.88
556.52
557.47
558.11
559.06
559.75
560.77
561.45
562.05
562.41
563.27
564.12
565
566
566.94
567.92
568.96
569.94
570.88
571.91
572.84
573.74
574.65
575.56
576.42
577.36
578.26
579.09
580.01
580.97
581.84
582.78
583.74
584.61
585.55
586.51
587.39
588.32
589.29
590.25
591.17
592.24
593.25
594.23
595.25
596.26
597.28
598.33
599.34
600.29
601.24
602.2
603.14
604.14
605.16
606.12
607.15
608.18
609.19
610.19
611.2
612.13
613.11
614.09
615
615.99
616.96
617.85
618.83
619.83
620.73
621.72
622.66
623.55
624.51
625.44
626.31
627.29
628.26
629.17
630.1
631.07
632
632.91
633.83
634.71
635.56
636.47
637.39
638.31
639.21
640.23
641.2
642.12
643.17
644.24
645.17
646.15
647.14
648.05
649.03
650.03
650.92
651.88
652.86
653.74
654.69
655.66
656.51
657.44
658.41
659.3
660.19
661.1
661.99
662.86
663.79
664.72
665.64
666.54
667.56
668.54
669.46
670.44
671.44
672.35
673.33
674.31
675.24
676.24
677.23
678.13
679.1
680.04
680.94
681.84
682.8
683.72
684.61
685.57
686.53
687.41
688.38
689.32
690.22
691.15
692.1
692.97
693.92
694.86
695.75
696.69
697.66
698.54
699.45
700.39
701.34
702.24
703.24
704.22
705.15
706.09
707.06
707.98
708.93
709.88
710.8
711.74
712.66
713.39
714.45
715.33
716.22
717.13
718.07
718.98
719.98
720.97
721.92
722.88
723.86
724.82
725.76
726.74
727.67
728.57
729.52
730.44
731.31
732.29
733.24
734.09
735.05
736.03
736.96
737.91
738.89
739.84
740.78
741.8
742.78
743.75
744.74
745.69
746.63
747.58
748.51
749.4
750.31
751.22
752.1
753.01
753.9
754.78
755.7
756.64
757.53
758.56
759.54
760.51
761.48
762.45
763.37
764.34
765.24
766.12
767.02
767.96
768.84
769.86
770.86
771.84
772.84
773.86
774.86
775.78
776.75
777.74
778.67
779.62
780.59
781.51
782.44
783.37
784.29
785.2
786.21
787.19
788.14
789.11
790.08
791
791.98
792.92
793.84
794.74
795.69
796.59
797.51
798.45
799.35
799.84
800.04
801.06
801.8
802.77
803.49
804.54
805.26
806.24
806.98
808.01
808.69
809.68
810.38
811.33
811.98
812.93
813.59
814.52
815.23
816.15
816.78
817.73
818.44
819.41
820.06
821.04
821.72
822.66
823.32
824.28
824.94
825.89
826.6
827.54
828.22
829.21
829.92
830.85
831.51
832.49
833.12
834.08
834.72
835.66
836.33
837.27
837.93
838.86
839.55
840.53
841.21
842.16
842.91
843.93
844.63
845.63
846.34
847.32
848
848.99
849.64
850.6
851.28
852.26
852.93
853.88
854.57
855.51
856.19
857.14
857.85
858.82
859.55
860.54
861.2
862.18
862.88
863.89
864.58
865.59
866.28
867.3
867.98
869
869.71
870.72
871.45
872.41
873.07
874.07
874.72
875.66
876.39
877.32
877.98
878.97
879.68
880.65
881.32
882.33
883.03
884.03
884.74
885.73
886.37
887.39
888.09
889.04
889.73
890.74
891.45
892.46
893.16
894.12
894.81
895.81
896.51
897.46
898.18
899.2
899.88
900.91
901.63
902.6
903.33
904.32
904.99
905.95
906.64
907.63
908.32
909.28
909.98
910.94
911.64
912.61
913.27
914.26
914.99
915.96
916.63
917.61
918.3
919.28
919.99
920.99
921.69
922.65
923.34
924.3
924.99
925.98
926.64
927.59
928.27
929.26
929.93
930.88
931.6
932.6
933.26
934.27
934.98
935.95
936.67
937.7
938.38
939.37
940.08
941.1
941.76
942.79
943.51
944.49
945.17
946.15
946.84
947.77
948.47
949.41
950.11
951.08
951.79
952.75
953.48
954.5
955.18
956.15
956.88
957.86
958.52
959.53
960.21
961.17
961.81
962.79
963.49
964.47
965.19
966.16
966.83
967.83
968.54
969.51
970.24
971.2
971.89
972.9
973.57
974.53
975.19
976.19
976.87
977.79
978.43
979.4
980.08
981.04
981.72
982.66
983.35
984.33
984.99
985.94
986.66
987.64
988.28
989.24
989.91
990.86
991.51
992.5
993.18
994.11
994.81
995.8
996.49
997.47
998.22
999.22
999.92
1000.9
1001.7
1002.7
1003.4
1004.4
1005.1
1006
1006.7
1007.7
1008.3
1009.3
1010
1011
1011.6
1012.6
1013.3
1014.3
1015
1016
1016.7
1017.6
1018.3
1019.3
1020
1021
1021.7
1022.6
1023.3
1024.3
1025
1026
1026.7
1027.7
1028.4
1029.4
1030.1
1031.2
1031.9
1032.9
1033.6
1034.6
1035.2
1036.2
1036.9
1037.8
1038.5
1039.5
1040.2
1041.2
1041.9
1042.9
1043.6
1044.2
1044.6
1045.5
1046.3
1047.3
1048.3
1049.1
1050.2
1051.3
1052.3
1053.4
1054.4
1055.4
1056.4
1057.3
1058.3
1059.3
1060.3
1061.2
1062.1
1063.1
1064
1064.9
1065.9
1066.8
1067.8
1068.8
1069.7
1070.7
1071.7
1072.6
1073.6
1074.6
1075.5
1076.5
1077.5
1078.4
1079.3
1080.2
1081.1
1082
1082.9
1083.8
1084.8
1085.8
1086.8
1087.8
1088.8
1089.8
1090.7
1091.7
1092.7
1093.6
1094.6
1095.6
1096.6
1097.6
1098.6
1099.5
1100.5
1101.3
1102.3
1103.2
1104.1
1105.1
1106.1
1107
1108
1109
1110
1110.9
1111.9
1112.8
1113.8
1114.8
1115.7
1116.7
1117.7
1118.7
1119.7
1120.6
1121.5
1122.4
1123.3
1124.3
1125.2
1126.1
1127
1127.9
1128.8
1129.9
1130.8
1131.8
1132.7
1133.7
1134.5
1135.5
1136.5
1137.3
1138.2
1139.1
1140
1140.9
1141.9
1142.9
1143.8
1144.8
1145.8
1146.8
1147.8
1148.7
1149.7
1150.6
1151.6
1152.5
1153.5
1154.5
1155.4
1156.4
1157.3
1158.2
1159.2
1160.2
1161.1
1162
1163
1164
1164.8
1165.8
1166.9
1167.8
1168.9
1170
1170.9
1171.9
1172.8
1173.7
1174.7
1175.7
1176.7
1177.7
1178.7
1179.7
1180.7
1181.6
1182.6
1183.5
1184.4
1185.4
1186.3
1187.2
1188.2
1189.2
1190.2
1191.2
1192.2
1193.1
1194.1
1195.1
1196.1
1197.1
1198.2
1199.2
1200.2
1201.1
1202.1
1203
1203.9
1204.7
1205.2
1205.4
1206.4
1207
1208
1208.7
1209.7
1210.3
1211.3
1212
1213
1213.7
1214.6
1215.3
1216.3
1217
1218
1218.7
1219.7
1220.4
1221.4
1222.1
1223
1223.7
1224.7
1225.4
1226.3
1227
1228
1228.7
1229.7
1230.4
1231.3
1232
1233
1233.6
1234.5
1235.2
1236.2
1236.8
1237.8
1238.5
1239.4
1240.1
1241
1241.7
1242.6
1243.3
1244.3
1245
1245.6
1246.1
1246.9
1247.8
1248.8
1249.8
1250.8
1252
1253.1
1254.1
1255.2
1256.1
1257.1
1258.1
1259
1259.9
1260.8
1261.7
1262.7
1263.7
1264.6
1265.6
1266.6
1267.5
1268.5
1269.5
1270.4
1271.3
1272.2
1273.1
1274
1274.5
1274.7
1275.7
1276.3
1277.3
1278
1278.9
1279.6
1280.6
1281.2
1282.2
1282.9
1283.8
1284.5
1285.5
1286.1
1287.1
1287.8
1288.8
1289.5
1290.5
1291.2
1292.1
1292.8
1293.8
1294.5
1295.5
1296.1
1297.1
1297.7
1298.7
1299.3
1300.3
1301
1302
1302.7
1303.7
1304.4
1305.4
1306.2
1307.2
1307.9
1308.9
1309.6
1310.7
1311.3
1312.3
1313
1314
1314.7
1315.7
1316.3
1317.3
1318
1318.9
1319.6
1320.6
1321.3
1322.2
1322.9
1323.9
1324.6
1325.6
1326.3
1327.2
1327.9
1328.9
1329.6
1330.6
1331.3
1332.3
1333
1334
1334.7
1335.7
1336.5
1337.5
1338.2
1339.1
1339.9
1340.9
1341.5
1342.5
1343.3
1344.2
1344.9
1345.9
1346.6
1347.6
1348.3
1349.3
1350
1350.9
1351.6
1352.6
1353.2
1354.2
1354.8
1355.8
1356.5
1357.4
1358.1
1359.1
1359.8
1360.8
1361.6
1362.6
1363.2
1364.3
1365
1366
1366.7
1367.7
1368.4
1369.4
1370.1
1371.1
1371.8
1372.8
1373.5
1374.5
1375.2
1376.2
1376.8
1377.8
1378.5
1379.4
1380.1
1381.1
1381.8
1382.8
1383.5
1384.5
1385.3
1386.3
1387
1388
1388.7
1389.8
1390.4
1391.4
1392.1
1393.1
1393.7
1394.7
1395.4
1396.4
1397
1398
1398.7
1399.6
1400.3
1401.3
1402
1403
1403.7
1404.7
1405.5
1406.4
1407.2
1408.2
1408.9
1409.6
1409.9
1410.8
1411.7
1412.6
1413.5
1414.5
1415.4
1416.3
1417.3
1418.2
1419.3
1420.2
1421.2
1422.2
1423.2
1424.2
1425.2
1426.1
1427.1
1428.1
1429
1430
1431
1431.9
1432.9
1433.9
1434.8
1435.8
1436.9
1437.8
1438.9
1439.9
1440.9
1441.8
1442.8
1443.8
1444.8
1445.8
1446.8
1447.8
1448.8
1449.7
1450.8
1451.8
1452.8
1453.8
1454.8
1455.8
1456.8
1457.8
1458.7
1459.7
1460.8
1461.8
1462.8
1463.8
1464.8
1465.8
1466.8
1467.7
1468.7
1469.7
1470.7
1471.7
1472.6
1473.6
1474.5
1475.5
1476.3
1477.3
1478.3
1479.1
1480.1
1481.1
1482
1483
1483.9
1484.8
1485.8
1486.8
1487.7
1488.7
1489.7
1490.6
1491.6
1492.5
1493.5
1494.4
1495.5
1496.5
1497.4
1498.5
1499.4
1500.4
1501.5
1502.4
1503.5
1504.6
1505.6
1506.6
1507.6
1508.6
1509.6
1510.6
1511.5
1512.5
1513.5
1514.5
1515.5
1516.6
1517.5
1518.5
1519.5
1520.4
1521.4
1522.4
1523.3
1524.3
1525.2
1526.2
1527.2
1528.3
1529.3
1530.3
1531.4
1532.4
1533.4
1534.4
1535.4
1536.4
1537.4
1538.3
1539.2
1540.2
1541.2
1542.1
1543.1
1544.1
1545
1545.9
1546.8
1547.7
1548.8
1549.7
1550.7
1551.7
1552.7
1553.7
1554.6
1555.5
1556.4
1557.4
1558.3
1559.3
1560.3
1561.2
1562.2
1563.2
1564.2
1565.3
1566.2
1567.2
1568.2
1569.2
1570.1
1571.1
1572
1572.9
1573.8
1574.8
1575.7
1576.7
1577.7
1578.6
1579.7
1580.7
1581.6
1582.6
1583.6
1584.5
1585.5
1586.5
1587.4
1588.3
1589.3
1590.2
1591.1
1592.1
1593
1594
1595
1595.9
1596.9
1597.9
1598.8
1599.8
1600.9
1601.8
1602.8
1603.8
1604.7
1605.6
1606.5
1607.2
1608.3
1609.2
1610
1611
1611.9
1612.8
1613.8
1614.9
1615.8
1616.8
1617.8
1618.7
1619.8
1620.7
1621.6
1622.7
1623.7
1624.5
1625.5
1626.4
1627.3
1628.3
1629.2
1630.1
1631.1
1632.1
1633
1634
1635
1636
1636.9
1637.9
1638.8
1639.8
1640.8
1641.7
1642.7
1643.6
1644.6
1645.5
1646.4
1647.3
1648.3
1649.3
1650.2
1651.2
1652.2
1653.1
1654
1655.1
1656.1
1657
1658.1
1659.1
1660
1661.1
1662.1
1663
1664
1664.9
1665.8
1666.7
1667.7
1668.7
1669.6
1670.6
1671.5
1672.5
1673.5
1674.5
1675.4
1676.4
1677.4
1678.3
1679.3
1680.2
1681.1
1682.1
1683
1683.9
1684.9
1685.8
1686.8
1687.8
1688.7
1689.7
1690.7
1691.7
1692.6
1693.6
1694.5
1695.5
1696.5
1697.4
1698.3
1699.3
1700.3
1701.3
1702.3
1703.2
1704.1
1705.1
1706.1
1707.1
1708.1
1709.2
1710.2
1711.2
1712.2
1713.2
1714.1
1715.1
1716.1
1717
1718
1718.9
1719.9
1720.8
1721.8
1722.7
1723.8
1724.7
1725.7
1726.7
1727.6
1728.6
1729.6
1730.6
1731.5
1732.5
1733.5
1734.4
1735.4
1736.4
1737.3
1738.3
1739.2
1740.2
1741.1
1742
1743
1743.9
1744.9
1745.8
1746.7
1747.7
1748.7
1749.7
1750.7
1751.7
1752.6
1753.6
1754.5
1755.4
1756.4
1757.3
1758
1759
1759.9
1760.8
1761.8
1762.7
1763.6
1764.6
1765.6
1766.6
1767.6
1768.6
1769.6
1770.6
1771.6
1772.6
1773.6
1774.5
1775.4
1776.4
1777.4
1778.3
1779.3
1780.3
1781.3
1782.3
1783.3
1784.3
1785.3
1786.3
1787.3
1788.3
1789.3
1790.2
1791.2
1792.2
1793.1
1794
1794.9
1795.6
1796.7
1797.6
1798.4
1799.4
1800.3
1801.3
1802.3
1803.2
1804.2
1805.2
