0.21111
1.3639
2.0472
2.7778
4.6083
5.2861
5.9889
7.0833
7.8583
8.5167
10.186
10.858
12.531
13.197
14.836
15.511
16.264
18.006
18.669
19.394
20.089
20.814
21.539
22.231
22.931
24.836
27.472
28.597
29.278
29.989
31.839
32.511
33.261
33.992
34.7
35.408
36.119
36.844
37.572
38.311
39.05
39.772
42.547
43.686
44.35
45.069
46.994
47.672
48.394
49.122
51.119
52.478
53.139
53.864
54.586
55.292
56.019
58.689
59.889
60.569
61.294
63.128
63.792
64.528
66.353
67.017
67.733
68.444
70.422
71.269
72.5
74.472
75.136
75.85
76.553
77.281
78.006
78.714
79.419
80.142
80.872
81.594
83.358
83.764
84.047
84.775
85.497
86.928
87.597
88.317
90.033
90.217
90.911
91.647
92.367
93.086
93.803
95.292
95.989
96.736
98.642
99.306
100.06
100.79
102.7
103.36
104.13
106.09
106.77
107.5
108.22
110.19
110.86
111.58
113.54
114.24
114.95
116.86
117.54
118.27
120.14
120.82
121.57
123.45
124.12
124.85
125.55
126.28
126.99
128.87
129.55
130.3
131.04
131.78
132.49
133.21
133.93
134.66
135.39
136.13
138.53
139.91
140.6
141.33
142.04
142.77
144.46
145.17
145.9
147.72
148.43
149.14
151
151.68
152.4
154.31
154.99
155.73
157.63
158.31
159.02
159.74
160.47
161.19
163.72
165.15
165.83
166.55
168.44
169.14
169.88
170.61
171.34
172.06
173.96
174.64
176.37
177.03
178.69
179.37
181.03
181.7
182.42
184.23
184.92
185.63
187.4
188.08
188.81
190.58
191.24
192.89
193.58
194.29
196.07
196.75
197.49
198.21
200.01
200.68
202.4
203.04
203.75
204.46
205.18
206.99
208.92
209.6
210.32
212.19
212.84
213.58
215.45
216.11
216.83
218.69
219.38
220.11
220.8
221.5
222.21
224.14
224.81
225.53
225.93
226.24
226.96
227.7
228.41
229.16
229.88
230.61
231.34
232.08
232.81
233.55
234.29
235
236.6
237.3
238.06
238.78
239.51
242.32
242.97
243.64
244.32
245.06
245.79
246.52
247.21
247.94
248.69
249.42
251.43
252.13
252.87
254.81
255.51
257.25
257.93
258.67
259.4
260.13
261.84
262.54
263.3
265.23
265.9
266.63
267.38
268.12
268.85
269.26
270.83
271.52
273.35
274.04
274.78
275.5
275.66
276.25
276.66
277.98
278.67
279.4
281
281.28
281.97
282.69
283.4
286.06
287.19
287.88
288.62
290.54
291.2
291.93
293.93
295.38
296.06
296.78
297.51
298.25
298.98
299.71
300.45
302.34
303.76
304.43
305.17
305.89
306.63
308.52
309.2
309.94
310.67
311.41
312.15
314.93
316.33
317.01
318.68
319.34
320.07
320.79
321.51
322.22
322.94
323.66
324.41
326.26
326.94
328.69
329.39
330.14
331.95
332.62
333.37
334.07
334.81
335.53
337.38
338.06
338.81
339.52
339.66
339.97
340.26
341.92
342.59
343.31
344.02
344.73
346.34
347.01
347.75
348.45
349.18
349.61
351.15
351.84
352.57
354.51
357.07
358.46
359.15
359.53
359.91
360.64
361.38
362.09
362.82
363.56
366.32
367.6
368.29
369.03
369.74
370.46
372.13
372.82
373.29
373.58
375.47
376.15
376.89
377.64
378.36
379.07
379.44
379.79
382.49
383.21
383.82
384.5
385.23
385.97
386.7
387.43
388.14
388.51
389.64
389.75
390.44
391.19
391.94
392.31
392.67
393.4
394.13
394.88
397.73
398.87
399.57
400.3
401.02
402.94
403.64
404.39
406.2
406.87
407.6
408.34
409.11
409.25
409.83
410.56
411.29
411.76
412.03
412.78
413.52
415.43
416.12
416.85
418.84
419.52
420.26
421.01
421.76
422.49
425.08
426.31
427.01
427.73
429.59
430.3
431.04
431.76
432.49
434.34
435.04
435.79
437.63
438.3
439.04
439.77
440.5
441.22
441.94
443.42
444.12
444.88
445.61
446.33
447.07
449.14
449.81
450.55
451.28
452.01
453.77
454.46
455.19
455.93
456.69
457.43
458.16
459.95
460.63
461.39
462.14
464.86
466.19
466.89
467.61
469.45
470.16
470.92
472.76
473.45
474.2
474.92
476.64
477.31
478.04
478.77
480.79
481.47
482.21
482.96
483.7
484.42
486.37
487.02
487.77
488.5
489.23
489.96
490.67
492.51
493.18
493.88
495.7
496.38
497.12
497.82
498.54
499.24
499.97
500.71
501.43
503.39
504.08
504.79
505.52
506.28
507
507.72
508.45
510.1
510.8
511.53
512.26
512.99
514.8
515.48
516.23
518.2
518.88
520.65
521.36
522.08
522.81
523.56
524.29
525.01
526.53
527.23
527.98
529.86
530.55
532.26
532.95
533.69
534.39
535.12
535.87
536.59
538.07
538.74
539.47
541.32
542.01
542.75
544.71
545.4
546.14
546.86
547.59
549.37
550.09
550.83
551.56
552.29
554.13
554.84
555.57
556.29
557.79
558.47
559.22
559.96
560.67
561.41
563.55
564.23
564.99
565.73
566.48
567.21
569.18
569.86
570.62
572.59
573.29
574.03
574.75
575.49
577.36
578.06
578.81
579.55
581.11
581.77
582.53
583.26
585.18
585.87
586.62
587.33
588.08
588.83
589.57
590.33
591.08
591.83
592.58
594.6
595.3
596.05
596.8
597.58
599.42
600.14
600.92
601.66
603.23
603.92
604.68
605.43
606.19
607.73
608.41
609.17
609.92
610.68
612.58
613.29
614.05
614.81
616.39
617.08
617.84
618.59
619.34
620.09
620.87
622.95
623.67
624.44
626.35
627.05
627.8
629.71
630.39
631.12
633.01
633.7
634.44
635.16
635.91
638.99
640.39
641.11
641.88
642.63
643.37
644.13
644.89
645.64
648.73
650.09
650.79
651.55
653.45
654.14
654.9
655.66
656.39
658.16
658.88
659.65
660.39
661.88
662.58
663.34
664.09
664.84
666.65
667.36
668.13
668.86
669.59
671.37
672.09
672.86
673.61
674.36
675.1
675.85
676.62
677.49
678.5
679.19
679.95
680.67
681.41
682.14
682.87
683.61
684.33
685.11
685.83
686.6
687.28
688.01
688.74
689.46
690.18
690.91
691.4
691.61
692.32
693.05
693.81
694.57
695.3
696.02
696.75
697.5
698.23
698.97
699.73
700.48
701.22
701.58
701.96
702.73
703.49
704.24
704.98
706.62
706.92
707.31
708.89
709.58
710.32
711.06
711.48
711.81
712.54
713.28
715.05
715.72
716.47
717.22
717.95
718.7
719.43
720.18
720.95
721.7
722.45
723.19
723.95
725.75
726.43
727.16
728.94
729.65
730.4
731.12
732.94
733.09
733.61
734.35
735.1
735.83
736.57
737.3
739.11
739.8
740.54
742.27
742.96
744.74
745.43
745.99
746.17
748.01
748.68
749.41
751.25
751.94
752.7
753.41
754.13
756.11
756.78
757.51
758.23
758.95
759.67
760.41
761.16
761.89
763.79
764.49
765.24
767.07
767.77
768.5
769.24
771.39
772.07
772.82
774.63
775.29
776.03
777.86
778.55
779.3
781.18
781.87
782.63
783.37
785.27
785.95
786.7
788.53
789.2
789.92
791.81
792.49
793.23
795.08
795.77
796.52
797.23
797.94
798.67
799.41
800.16
800.9
801.63
802.36
803.12
803.86
804.6
805.37
807.26
807.97
808.74
809.48
810.22
812.08
812.78
813.53
815.56
816.25
817.02
819
819.69
820.45
822.36
823.05
823.79
825.67
826.39
827.14
827.86
830.11
830.8
831.56
833.45
834.13
834.89
836.76
837.45
838.18
838.89
840.7
841.39
842.13
843.99
844.67
845.4
847.36
848.04
848.78
849.52
850.24
852.07
852.76
853.52
854.25
854.98
855.72
856.44
857.19
858.59
859.26
860
861.88
862.58
864.42
865.11
865.87
867.81
868.49
869.23
869.97
870.71
871.44
872.15
874.18
876.9
878.01
878.36
878.73
879.31
880.14
880.47
880.85
881.57
883.5
884.19
884.91
885.63
888.12
889.47
890.17
890.91
891.63
892.36
893.11
893.84
894.58
895.3
896.06
899.21
900.45
901.16
901.92
902.65
903.38
904.11
904.86
906.61
907.28
908.02
909.96
910.67
911.42
912.15
914.84
916.29
916.98
917.72
918.45
919.18
919.92
920.65
922.53
923.23
923.97
925.89
926.57
927.32
928.06
928.79
929.52
931.37
932.08
932.84
933.56
934.29
935.05
935.79
937.42
938.1
938.84
939.58
942.26
943.42
944.12
944.86
946.8
947.48
948.22
948.98
949.73
950.47
951.2
951.94
952.69
956.9
958.17
958.86
959.6
960.33
961.06
961.8
962.56
963.31
966.41
967.66
968.36
969.08
971.04
971.74
972.49
973.23
973.97
974.73
975.49
976.24
976.99
979.17
983.27
984.51
985.21
985.94
986.66
987.41
988.14
988.88
989.63
990.37
991.11
991.83
995.12
996.36
997.05
997.8
999.62
1000.3
1001
1001.8
1002.5
1003.2
1004
1005.7
1006.4
1007.2
1007.9
1008.7
1010.8
1012.2
1012.9
1013.7
1014.4
1015.1
1015.9
1016.6
1019.5
1020.7
1021.4
1022.1
1022.9
1023.6
1024.3
1025.1
1025.8
1028.2
1030.9
1032.2
1032.9
1033.7
1034.4
1035.1
1035.9
1036.6
1038.1
1038.8
1039.5
1041.3
1042
1042.8
1043.5
1045.4
1046.1
1046.9
1047.6
1048.3
1049.1
1049.8
1050.6
1051.3
1057.2
1058.4
1059.1
1059.9
1060.6
1061.4
1062.1
1062.8
1063.6
1064.3
1065.1
1065.8
1066.6
1069.3
1070.8
1071.5
1072.3
1073
1073.8
1074.5
1075.2
1076
1076.7
1078.7
1080.1
1080.8
1081.6
1082.3
1084.3
1085
1085.7
1087.6
1088.3
1089.1
1089.8
1090.6
1091.3
1092
1094.6
1097.3
1098.4
1099.1
1099.9
1100.6
1101.3
1105.7
1106.9
1107.7
1108.4
1109.1
1109.9
1110.6
1111.3
1112.1
1112.8
1113.6
1115.8
1118.6
1119.8
1120.5
1121.2
1122
1122.7
1123.4
1124.1
1124.9
1125.6
1127.5
1128.2
1128.9
1129.7
1130.4
1131.1
1134.6
1136
1136.7
1137.4
1138.1
1138.8
1139.6
1140.3
1141
1141.7
1142.5
1143.2
1144
1146.7
1148.7
1149.4
1150.1
1150.9
1151.6
1152.4
1153.1
1153.8
1155.9
1159.9
1161.1
1161.8
1162.6
1163.3
1164
1164.8
1165.5
1166.3
1167
1167.8
1168.6
1169.3
1172.1
1173.3
1174
1174.8
1175.5
1176.3
1177
1177.8
1178.5
1179.3
1182.3
1183.5
1184.2
1184.9
1185.7
1186.4
1187.2
1187.9
1191.1
1192.4
1193.1
1193.8
1194.6
1195.3
1196.1
1196.8
1197.6
1198.3
1199
1202.2
1203.8
1204.5
1205.3
1206
1206.7
1207.5
1208.2
1209
1209.7
1210.5
1213.5
1215
1215.7
1216.4
1217.2
1217.9
1218.7
1219.4
1220.2
1220.9
1221.7
1222.4
1224.2
1224.9
1225.7
1227.5
1228.2
1229
1229.7
1230.5
1231.2
1232
1232.7
1234.8
1239
1239.8
1240.3
1240.8
1241.3
1242
1242.7
1243.3
1244
1244.7
1246.8
1247.9
1248.6
1249.4
1250.1
1250.8
1256.5
1257.8
1258.5
1259.2
1259.9
1260.6
1261.4
1262.1
1262.9
1263.6
1264.3
1265.1
1267.6
1268.9
1269.5
1270.3
1271
1271.7
1272.5
1273.2
1273.9
1274.7
1275.4
1276.2
1279.3
1281.6
1284.2
1286.7
1288.2
1288.8
1289.6
1290.3
1291
1291.7
1292.4
1293.1
1293.9
1298.2
1299.4
1300.1
1300.8
1301.6
1302.3
1303
1303.7
1304.4
1305.1
1305.9
1306.6
1308.5
1310.1
1310.8
1311.5
1312.2
1312.9
1313.7
1314.4
1318.6
1319.7
1320.4
1321.1
1321.8
1322.5
1323.3
1324
1324.7
1325.4
1326.2
1326.9
1327.6
1328.4
1329.1
1332.6
1333.6
1334.5
1334.7
1335.4
1336.1
1336.9
1337.6
1338.3
1339
1339.7
1340.5
1342.4
1343.6
1343.9
1344.6
1346.4
1347.1
1347.3
1347.9
1349.7
1350.4
1351.2
1351.9
1352.6
1353.4
1354.1
1354.9
1357
1361.1
1362.4
1363.1
1363.8
1364.5
1365.2
1365.9
1366.7
1367.4
1368.2
1368.9
1371.8
1374.3
1376.8
1378.2
1378.9
1379.7
1380.4
1381.1
1381.9
1382.6
1383.3
1384
1384.8
1385.5
1387.4
1390
1391.5
1392.1
1392.9
1393.6
1394.3
1395.1
1395.8
1396.5
1397.2
1398
1398.7
1399.4
1400.2
1400.9
1401.6
1402.4
1404.8
1408.8
1409.9
1410.6
1411.3
1412
1412.8
1413.5
1414.2
1415
1415.7
1416.4
1417.2
1417.9
1423.6
1424.8
1425.5
1426.2
1426.9
1427.6
1428.3
1429.1
1429.8
1430.5
1433.5
1435.8
1438.4
1440.9
1443.4
1444.8
1445.5
1446.2
1446.9
1447.6
1448.3
1449.1
1449.8
1450.5
1451.2
1451.9
1452.6
1454.6
1456
1456.7
1457.4
1458.1
1458.9
1459.6
1460.3
1461
1461.8
1462.5
1463.2
1464
1464.7
1466.8
1468.3
1468.9
1469.7
1470.4
1471.1
1471.8
1472.6
1473.3
1474
1474.7
1475.5
1476.2
1477
1478.7
1479.4
1480.2
1480.9
1481.7
1486
1487.2
1487.9
1488.7
1489.4
1490.2
1490.9
1491.6
1492.4
1493.1
1493.9
1494.6
1497.7
1498.9
1499.6
1500.3
1501.1
1501.8
1502.6
1503.3
1506.1
1507.6
1508.3
1509
1509.8
1510.5
1511.2
1512
1512.7
1513.4
1514.2
1516.3
1519
1520.3
1521
1521.8
1522.5
1523.3
1524
1524.7
1525.5
1526.2
1527
1527.7
1528.5
1529.2
1530
1533.2
1534.4
1535.1
1535.9
1536.6
1537.4
1538.1
1538.8
1539.6
1540.3
1541
1541.8
1544.5
1545.9
1546.6
1547.4
1548.1
1548.9
1549.6
1550.4
1551.1
1551.9
1552.6
1553.4
1554.1
1554.9
1557.9
1559.2
1559.9
1560.6
1561.4
1562.1
1562.9
1563.7
1564.4
1565.2
1565.9
1566.7
1567.4
1569.4
1570.8
1571.5
1572.2
1573
1573.8
1574.5
1575.2
1576
1576.8
1577.6
1578.3
1579.1
1579.9
1580.7
1583.1
1584.7
1585.4
1586.1
1586.9
1587.7
1588.4
1589.2
1592.7
1594.4
1595.1
1595.9
1596.6
1597.4
1598.1
1598.9
1599.7
1600.4
1601.2
1604.3
1605.5
1606.2
1607
1607.7
1608.5
1609.3
1610
1610.8
1611.5
1612.3
1613.1
1613.8
1616.5
1617.6
1618.3
1619
1619.8
1620.5
1621.3
1622.1
1624
1626.8
1628
1628.7
1629.4
1630.1
1630.9
1631.6
1632.3
1634.6
1635.9
1636.6
1637.4
1638.2
1638.9
1639.6
1640.4
1641.1
1641.9
1642.7
1643.5
1645.9
1647.4
1648.1
1648.9
1649.6
1650.4
1651.1
1651.9
1652.6
1653.4
1654.1
1654.9
1655.7
1658.9
1661.6
1663.1
1663.7
1664.5
1665.2
1666
1666.7
1667.4
1668.2
1669
1669.7
1670.4
1671.2
1671.9
1672.7
1675.1
1676.4
1677.1
1677.9
1678.6
1679.4
1680.1
1680.8
1682.7
1685.3
1686.6
1687.3
1688
1688.7
1689.4
1690.1
1690.9
1691.6
1692.3
1693.1
1693.8
1694.5
1696.3
1697
1697.8
1698.5
1699.3
1703.8
1705
1705.7
1706.5
1707.3
1709.3
1711.8
1714.2
1716.6
1718.9
1721.2
1721.9
1722.6
1723.3
1724
1724.7
1725.4
1726.1
1726.9
1727.6
1728.3
1729
1729.7
1730.5
1731.2
1733
1734.4
1735.1
1735.8
1736.5
1737.3
1738
1738.8
1739.5
1740.2
1741
1741.7
1742.4
1743.2
1743.9
1744.7
1745.4
1747.4
1749.9
1751.3
1752
1752.7
1753.5
1754.2
1754.9
1755.6
1756.4
1757.1
1757.9
1759.9
1762.8
1764
1764.8
1765.5
1766.3
1767
1767.7
1768.5
1769.2
1770
1770.7
1771.5
1772.2
1774.8
1776.2
1777
1777.7
1778.5
1779.2
1779.9
1780.7
1781.4
1782.2
1783
1783.7
1786.8
1788.4
1789.1
1789.9
1790.6
1791.4
1792.1
1792.9
1793.6
1794.4
1795.1
1795.9
1797.7
1798.4
1799.1
1799.9
1800.6
1802.3
1803
1803.8
