0.0083333
0.11667
0.88889
1.4194
2.0806
2.6778
3.075
3.8417
4.3722
5.0528
5.6528
6.0361
6.8028
7.4194
8.0111
8.3694
9.1861
9.7806
10.358
10.953
11.556
12.153
12.558
13.322
13.761
14.494
15.108
15.506
16.014
16.789
17.369
17.956
18.556
19.142
19.722
20.306
20.764
21.417
22.014
22.419
23.183
23.769
24.35
24.769
25.528
26.111
26.678
27.258
27.564
27.731
28.397
28.761
29.381
29.578
30.081
30.714
31.3
31.708
32.478
33.006
33.631
34.206
34.617
35.375
35.919
36.542
37.119
37.678
38.172
38.833
39.406
39.811
40.531
41.083
41.664
42.236
42.811
43.328
43.658
44.506
44.914
45.672
46.242
46.808
47.367
47.931
48.325
49.069
49.65
50.211
50.614
51.331
51.906
52.489
53.053
53.619
54.008
54.739
55.306
55.886
56.361
57.014
57.589
57.981
58.722
59.308
59.875
60.45
61.014
61.583
61.956
62.719
63.247
63.864
64.433
64.814
65.561
65.983
66.706
67.275
67.847
68.422
68.978
69.428
70.133
70.703
71.1
71.822
72.361
73
73.578
73.978
74.711
75.286
75.856
76.283
77.022
77.594
78.15
78.372
78.597
79.286
79.875
80.278
80.989
81.436
81.75
82.169
82.592
83.178
83.756
84.325
84.889
85.447
86.019
86.606
87.167
87.728
88.286
88.636
89.406
89.969
90.522
91.086
91.642
92
92.744
93.322
93.878
94.269
94.986
95.539
96.106
96.669
97.231
97.625
98.35
98.903
99.458
100.02
100.59
101.14
101.68
102.06
102.79
103.34
103.89
104.46
105
105.55
106.1
106.66
107.22
107.79
108.34
108.9
109.46
110.01
110.58
110.99
111.71
112.28
112.83
113.41
113.99
114.56
115.12
115.68
116.26
116.83
117.41
118
118.38
119.15
119.65
120.32
120.91
121.3
122.03
122.57
123.2
123.77
123.95
124.14
124.95
125.3
126.09
126.48
127.28
127.74
128.1
128.46
129.03
129.43
130.16
130.59
131.28
131.88
132.09
132.3
133.03
133.56
134.2
134.62
135.35
135.73
136.11
136.49
137.07
137.65
138.1
138.8
139.39
139.58
139.77
140.53
140.89
141.72
142.14
142.88
143.34
143.69
144.06
144.66
144.84
145.03
145.83
146.23
147
147.42
148.19
148.65
149.03
149.91
150.32
150.71
151.09
151.7
152.1
152.87
153.27
154.05
154.66
154.86
155.06
155.83
156.24
157.01
157.43
157.78
158.13
158.74
159.15
159.89
160.43
161.08
161.69
161.88
162.07
162.84
163.25
164.04
164.45
165.22
165.69
166.05
166.41
167
167.4
168.21
168.8
169.14
169.97
170.56
171.14
171.54
172.3
172.88
173.29
174.02
174.63
175.05
175.8
176.19
176.95
177.55
178.11
178.7
179.29
179.87
180.27
181
181.54
182.16
182.74
183.29
183.74
184.43
184.99
185.57
185.92
186.5
187.17
187.75
188.33
188.92
189.49
189.89
190.62
191.06
191.77
192.36
192.77
193.51
193.92
194.66
195.24
195.63
196.42
196.94
197.56
198.15
198.72
199.19
199.88
200.44
201.01
201.52
202.18
202.76
203.16
203.91
204.32
205.02
205.61
206.2
206.8
207.38
207.96
208.54
209.14
209.72
210.29
210.58
211.44
211.91
212.62
213.22
213.42
213.63
214.39
214.78
215.57
215.98
216.38
216.77
217.35
217.93
218.53
219.11
219.7
220.31
220.88
221.37
221.8
222.62
223.22
223.72
224.38
224.95
225.37
226.1
226.7
227.29
227.87
228.37
228.82
229.62
230.2
230.79
231.36
231.94
232.52
233.1
233.69
234.12
234.79
235.4
235.99
236.57
237.14
237.52
238.28
238.86
239.44
240.03
240.63
241.19
241.77
242.15
242.93
243.41
244.11
244.68
245.07
245.82
246.21
247
247.59
248.17
248.75
249.34
249.94
250.52
251.11
251.7
252.29
252.86
253.45
254.06
254.63
255.2
255.6
256.36
256.94
257.54
258.11
258.69
259.15
259.5
260.42
260.88
261.61
262.19
262.77
263.38
263.98
264.38
265.14
265.74
266.11
266.92
267.52
268.12
268.72
269.29
269.69
270.48
271.08
271.66
272.25
272.84
273.24
274.02
274.62
275.22
275.81
276.39
276.98
277.4
278.16
278.75
279.33
279.69
280.52
280.98
281.7
282.29
282.88
283.44
284.08
284.66
285.25
285.85
286.23
287.02
287.63
288.25
288.64
289.43
289.87
290.64
291.25
291.85
292.43
293.01
293.42
294.19
294.79
295.38
295.97
296.55
296.94
297.74
298.33
298.92
299.27
300.09
300.68
301.28
301.7
302.46
303.06
303.64
303.85
304.06
304.85
305.28
306.03
306.43
307.23
307.69
308.07
308.45
309.06
309.67
310.26
310.87
311.24
312.09
312.68
313.27
313.46
313.64
314.47
314.91
315.69
316.04
316.87
317.33
317.7
318.08
318.68
319.27
319.86
320.46
320.86
321.65
322.26
322.85
323.21
324.04
324.67
325.26
325.63
326.41
327
327.59
327.96
328.78
329.38
329.97
330.32
331.15
331.77
332.38
332.77
333.55
334.16
334.76
335.16
335.97
336.58
337.16
337.69
338.38
338.98
339.56
340.08
340.74
341.18
341.61
342.53
343.14
343.73
344.32
344.93
345.34
346.13
346.73
347.34
347.74
348.54
349.17
349.78
350.18
350.98
351.58
352.19
352.8
353.38
353.78
354.56
355.17
355.76
356.18
356.96
357.56
358.14
358.56
359.36
359.97
360.55
360.95
361.72
362.32
362.93
363.32
364.1
364.69
365.29
365.71
366.46
367.04
367.61
367.97
368.78
369.38
369.98
370.38
371.14
371.74
372.35
372.76
373.53
374.12
374.71
375.12
375.9
376.52
377.1
377.47
378.27
378.89
379.5
379.86
380.67
381.26
381.87
382.26
383.05
383.67
384.26
384.61
385.45
386.08
386.67
387.03
387.86
388.46
389.04
389.41
390.24
390.83
391.42
391.8
392.6
393.22
393.81
394.19
394.96
395.56
396.15
396.54
397.34
397.94
398.53
398.94
399.75
400.36
400.95
401.55
402.15
402.62
403.34
403.96
404.55
405.14
405.54
406.34
406.92
407.29
408.15
408.58
409.37
409.94
410.61
411.21
411.58
412.41
412.97
413.63
414.24
414.83
415.38
416.02
416.63
417.13
417.59
418.41
418.84
419.62
420.25
420.85
421.39
422.05
422.66
423.25
423.84
424.27
425.01
425.6
426.19
426.75
427.14
427.95
428.36
429.14
429.72
430.31
430.91
431.5
432.08
432.66
433.26
433.86
434.44
435.01
435.58
436.17
436.75
437.32
437.91
438.48
438.99
439.6
440.19
440.59
441.35
441.91
442.49
443.08
443.67
444.03
444.84
445.44
446
446.59
447.18
447.54
448.34
448.88
449.49
450.07
450.66
451.18
451.81
452.43
453.02
453.62
454.23
454.83
455.23
456
456.49
457.21
457.83
458.43
459.02
459.61
459.97
460.82
461.42
462.02
462.38
463.21
463.82
464.44
464.81
465.66
466.27
466.9
467.27
468.14
468.75
469.34
469.75
470.52
471.14
471.75
472.16
472.92
473.51
474.11
474.52
475.3
475.89
476.48
476.89
477.65
478.25
478.86
479.21
480.02
480.62
481.24
481.64
482.41
483
483.59
483.99
484.76
485.36
485.94
486.34
487.1
487.7
488.31
488.71
489.46
490.06
490.66
491.02
491.84
492.45
492.93
493.44
494.21
494.58
495.42
496.02
496.6
497.19
497.77
498.18
498.95
499.54
500.12
500.52
501.3
501.91
502.5
502.91
503.66
504.27
504.85
505.22
506.05
506.64
507.21
507.63
508.41
508.99
509.58
509.98
510.74
511.32
511.92
512.31
512.69
513.62
514.22
514.83
515.21
516.03
516.62
517.21
517.59
518.39
519
519.6
519.97
520.78
521.39
522
522.36
523.17
523.78
524.38
524.73
525.55
526.17
526.77
527.36
527.95
528.56
528.92
529.74
530.33
530.92
531.29
532.11
532.71
533.3
533.67
534.47
535.09
535.69
536.05
536.87
537.42
538.07
538.67
539.28
539.76
540.47
541.06
541.66
542.16
542.79
543.46
544.04
544.64
545.21
545.82
546.22
546.99
547.58
548.17
548.77
549.37
549.74
550.53
551.12
551.71
552.06
552.89
553.5
554.08
554.48
555.25
555.87
556.46
556.94
557.63
558.2
558.78
559.26
559.95
560.53
561.11
561.62
562.26
562.88
563.46
563.98
564.56
565.22
565.8
566.39
567
567.59
568
568.74
569.32
569.71
570.55
571.15
571.74
572.15
572.93
573.54
574.15
574.51
575.34
575.83
576.58
577.2
577.78
578.24
578.98
579.59
580.19
580.67
581.39
581.99
582.59
583.08
583.79
584.4
584.99
585.47
586.18
586.81
587.42
587.75
587.9
588.48
588.86
589.58
589.81
590.27
591.03
591.64
592.24
592.83
593.42
593.83
594.6
595.2
595.79
596.4
597
597.37
598.17
598.77
599.37
599.73
600.57
601.18
601.77
602.17
602.96
603.59
604.18
604.58
605.34
605.95
606.52
606.93
607.7
608.3
608.88
609.36
610.07
610.67
611.03
611.85
612.46
613.05
613.66
614.25
614.65
615.44
616.03
616.63
617.23
617.82
618.38
618.79
619.24
620.14
620.62
621.34
621.94
622.52
622.97
623.35
624.28
624.89
625.48
626.06
626.64
627.07
627.83
628.39
628.75
629.58
629.78
629.99
630.77
631.19
631.94
632.49
633.13
633.49
633.9
634.31
634.91
635.51
635.87
636.69
637.26
637.89
638.48
639.06
639.65
640.22
640.81
641.41
641.87
642.32
643.13
643.52
644.34
644.8
645.51
646.11
646.48
647.29
647.66
648.52
649.12
649.7
650.3
650.92
651.36
652.1
652.69
653.28
653.73
654.45
655.07
655.65
656.13
656.83
657.44
658.04
658.52
659.22
659.82
660.23
661.01
661.62
662.21
662.82
663.39
663.97
664.57
665.16
665.74
666.31
666.88
667.32
668.04
668.64
669.03
669.8
670.27
670.98
671.59
671.99
672.76
673.35
673.94
674.52
675.11
675.7
676.28
676.74
677.43
678.03
678.22
678.42
679.18
679.57
680.33
680.74
681.51
681.96
682.32
682.68
683.26
683.44
683.61
684.42
684.83
685.6
686
686.76
687.23
687.57
687.91
688.51
688.71
688.91
689.66
690.07
690.74
691.14
691.92
692.45
692.76
693.07
693.66
694.06
694.82
695.36
696.02
696.6
697.18
697.63
698.37
698.98
699.57
700.16
700.74
701.33
701.74
702.5
702.95
703.68
704.27
704.87
705.36
705.8
706.61
707.04
707.78
708.38
708.79
709.56
710.15
710.74
711.33
711.93
712.33
713.09
713.56
714.24
714.84
715.44
715.92
716.11
716.62
717.23
717.82
718.31
719.02
719.63
720.21
720.69
721.39
721.99
722.59
723.06
723.75
724.32
724.72
725.28
725.51
726.08
726.65
727.23
727.81
728.38
728.77
729.56
730.03
730.72
731.3
731.7
732.5
733.09
733.66
734.07
734.83
735.42
736.01
736.49
737.2
737.79
738.17
738.99
739.59
740.19
740.58
741.38
741.98
742.59
743
743.78
744.38
744.98
745.36
746.2
746.81
747.39
747.79
748.57
749.17
749.77
750.18
750.94
751.52
752.11
752.52
753.29
753.89
754.47
755
755.65
756.26
756.67
757.46
758.06
758.65
759.25
759.85
760.45
761.02
761.47
762.19
762.78
763.37
763.83
764.55
765.13
765.48
766.34
766.92
767.52
768.11
768.7
769.29
769.89
770.42
771.07
771.65
772.04
772.84
773.34
774.01
774.58
774.98
775.73
776.32
776.9
777.5
778.08
778.65
779.24
779.85
780.44
781.02
781.6
782.18
782.76
783.34
783.92
784.5
785.07
785.63
786.2
786.79
787.34
787.63
788.49
788.92
789.66
790.25
790.85
791.36
791.83
792.58
793.18
793.77
794.38
794.95
795.34
796.1
796.68
797.25
797.67
798.39
798.96
799.54
800.14
800.71
801.11
801.87
802.45
803.02
803.61
804.21
804.77
805.34
805.91
806.49
807.08
807.48
808.21
808.79
809.36
809.92
810.49
811.08
811.64
811.83
812.03
812.77
813.3
813.95
814.48
814.79
815.09
815.67
816.27
816.8
817.43
818.02
818.37
819.17
819.76
820.36
820.94
821.52
822.09
822.67
823.2
823.83
824.42
824.82
825.59
826.17
826.76
827.37
827.96
828.35
829.12
829.72
830.31
830.73
831.5
832.08
832.66
832.87
833.07
833.83
834.23
835.01
835.44
835.81
836.17
836.76
837.13
837.61
838.54
839.14
839.71
840.12
840.91
841.5
842.08
842.66
843.25
843.6
844.41
845.01
845.58
846.15
846.73
847.31
847.59
847.88
848.49
848.86
849.62
850.1
850.77
851.16
851.96
852.38
852.74
853.1
853.68
853.89
854.09
854.86
855.26
856.01
856.45
856.81
857.17
857.77
858.35
858.83
859.52
860.08
860.28
860.49
861.28
861.69
862.44
862.84
863.6
864.06
864.42
864.77
865.38
865.77
866.53
867.06
867.72
868.31
868.51
868.71
869.47
869.87
870.64
871.06
871.45
871.84
872.44
872.83
873.6
874.14
874.8
875.39
875.59
875.79
876.56
876.96
877.74
878.16
878.94
879.34
879.73
880.11
880.71
881.31
881.79
882.49
883.08
883.66
884.14
884.83
885.41
885.81
886.56
886.95
887.74
888.36
888.94
889.52
890.11
890.48
891.27
891.87
892.47
892.87
893.62
894.21
894.81
895.28
895.97
896.55
897.13
897.61
898.1
898.89
899.38
900.08
900.65
901.23
901.72
902.4
902.98
903.54
904.01
904.68
905.25
905.66
906.39
906.92
907.54
908.12
908.53
909.28
909.73
910.41
911
911.58
912.17
912.75
913.32
913.89
914.46
915.05
915.62
916.2
916.76
917.31
917.88
918.45
919.02
919.43
920.15
920.71
921.28
921.66
922.42
922.82
923.56
924.13
924.69
925.07
925.84
926.25
926.97
927.53
928.1
928.68
929.24
929.6
930.35
930.71
931.48
932.05
932.63
933.2
933.77
934.31
934.89
935.49
936.06
936.63
937.19
937.76
938.17
938.89
939.46
940.03
940.41
941.15
941.72
942.31
942.7
943.44
944
944.57
945.13
945.71
946.27
946.85
947.42
947.98
948.56
948.92
949.71
950.27
950.83
951.39
951.95
952.52
953.08
953.65
954.21
954.76
955.33
955.9
956.46
957.02
957.58
958.13
958.69
959.09
959.83
960.4
960.97
961.52
962.09
962.66
963.23
963.79
964.35
964.91
965.32
966.03
966.43
967.18
967.59
967.89
968.83
969.43
970
970.58
971.15
971.72
972.29
972.88
973.46
974.04
974.61
975.17
975.75
976.35
976.92
977.31
978.05
978.51
979.21
979.8
980.4
980.97
981.37
982.1
982.66
983.29
983.88
984.26
985.01
985.49
985.84
986.73
987.33
987.91
988.3
989.06
989.55
990.24
990.84
991.22
991.98
992.5
993.16
993.76
994.15
994.92
995.31
996.09
996.7
997.29
997.87
998.44
998.63
998.82
999.61
1000
1000.8
1001.2
1001.6
1002
1002.6
1003.2
1003.6
1004.3
1004.9
1005.5
1005.9
1006.7
1007.3
1007.7
1008.4
1008.8
1009.6
1010.2
1010.8
1011.2
1011.9
1012.5
1013.1
1013.5
1014.3
1014.9
1015.4
1015.8
1016.6
1017.2
1017.8
1018.1
1018.9
1019.5
1020.1
1020.7
1021.3
1021.7
1022.4
1023
1023.6
1024.2
1024.8
1025.2
1025.9
1026.3
1027
1027.6
1028.2
1028.8
1029.4
1029.8
1030.5
1031.1
1031.7
1032.1
1032.8
1033.4
1033.8
1034.5
1034.9
1035.7
1036.3
1036.8
1037.3
1038
1038.6
1039.1
1039.6
1040.3
1040.9
1041.4
1041.9
1042.6
1043.1
1043.5
1044.3
1044.9
1045.5
1046
1046.6
1047
1047.8
1048.2
1048.9
1049.5
1049.9
1050.6
1051.1
1051.8
1052.3
1052.7
1053.5
1053.9
1054.6
1055.2
1055.5
1056.3
1056.7
1057.5
1058.1
1058.6
1059.2
1059.8
1060.2
1060.9
1061.5
1062.1
1062.5
1063.2
1063.8
1064.4
1065
1065.6
1065.9
1066.6
1067.2
1067.8
1068.4
1069
1069.4
1070.1
1070.6
1071.3
1071.9
1072.5
1073.1
1073.7
1074.2
1074.8
1075.4
1075.8
1076.5
1077
1077.7
1078.3
1078.8
1079.3
1079.6
1080.6
1081
1081.8
1082.3
1082.9
1083.5
1084.1
1084.5
1085.3
1085.9
1086.4
1086.8
1087.5
1088.1
1088.7
1089.1
1089.9
1090.4
1091.1
1091.5
1092.2
1092.8
1093.4
1093.9
1094.6
1095.2
1095.6
1096.2
1096.8
1097.4
1098
1098.6
1099.1
1099.5
1100.3
1100.9
1101.4
1101.9
1102.6
1103.2
1103.5
1104.4
1105
1105.6
1105.8
1106
1106.7
1107.1
1107.9
1108.3
1108.7
1109
1109.6
1110.2
1110.8
1111.4
1111.8
1112.5
1113.1
1113.7
1114.3
1114.9
1115.5
1116
1116.6
1117.2
1117.6
1118.3
1118.9
1119.5
1120
1120.6
1121
1121.8
1122.3
1122.9
1123.5
1124
1124.6
1125.2
1125.8
1126.3
1126.8
1127.5
1128
1128.7
1129.3
1129.8
1130.4
1130.8
1131.3
1132.1
1132.6
1133.3
1133.8
1134.5
1135
1135.4
1136.2
1136.7
1137.4
1138
1138.5
1139.1
1139.7
1140.3
1140.7
1141.4
1141.9
1142.6
1143.2
1143.8
1144.4
1144.9
1145.4
1146.1
1146.7
1147.3
1147.8
1148.4
1148.8
1149.3
1150.2
1150.6
1151.3
1151.9
1152.5
1153.1
1153.7
1154.2
1154.6
1155.4
1155.9
1156.6
1157.2
1157.7
1158.2
1158.5
1159.4
1159.9
1160.6
1161.2
1161.6
1162.3
1162.9
1163.5
1164.1
1164.5
1165.2
1165.8
1166.2
1167
1167.6
1168.2
1168.7
1169.3
1169.9
1170.3
1171.1
1171.6
1172.3
1172.8
1173
1173.2
1174
1174.5
1175.1
1175.6
1176
1176.3
1176.9
1177.3
1178
1178.6
1179.2
1179.6
1180.4
1181
1181.6
1182
1182.7
1183.3
1183.9
1184.3
1185.1
1185.7
1186.3
1186.7
1187.4
1188
1188.6
1189
1189.8
1190.4
1191
1191.4
1192.2
1192.8
1193.3
1193.7
1194.5
1195
1195.7
1196.3
1196.8
1197.3
1198
1198.6
1199.2
1199.7
1200.3
1200.9
1201.5
1202
1202.6
1203.2
1203.8
1204.3
1204.9
1205.5
1206.1
1206.6
1207.2
1207.8
1208.3
1208.9
1209.3
1210.1
1210.7
1211.2
1211.6
1212.4
1212.8
1213.6
1214.2
1214.8
1215.4
1215.8
1216.5
1217.1
1217.7
1218.1
1218.9
1219.5
1220.1
1220.7
1221.2
1221.6
1222.4
1223
1223.6
1224
1224.8
1225.3
1225.9
1226.3
1227.1
1227.6
1228.3
1228.9
1229.4
1230
1230.4
1231.2
1231.8
1232.4
1232.8
1233.6
1234.2
1234.7
1235.1
1235.9
1236.4
1237.1
1237.7
1238.3
1238.7
1239.3
1240.1
1240.5
1240.9
1241.8
1242.4
1243
1243.6
1244.2
1244.6
1245.4
1246
1246.6
1247
1247.8
1248.4
1249
1249.4
1250.1
1250.8
1251.3
1251.7
1252.5
1253.1
1253.7
1254.3
1254.9
1255.4
1256
1256.6
1257.2
1257.6
1258.4
1259
1259.6
1260
1260.8
1261.4
1262
1262.3
1263.2
1263.8
1264.4
1265
1265.6
1266.2
1266.8
1267.2
1268
1268.6
1269.2
1269.5
1270.4
1271
1271.6
1272
1272.8
1273.4
1274
1274.4
1275.2
1275.8
1276.4
1276.8
1277.6
1278.2
1278.8
1279.2
1280
1280.6
1281.2
1281.6
1282.4
1283
1283.6
1284
1284.8
1285.4
1286
1286.4
1287.2
1287.8
1288.4
1288.8
1289.6
1290.2
1290.8
1291.2
1291.9
1292.5
1293.1
1293.5
1294.3
1294.9
1295.5
1295.9
1296.7
1297.3
1297.9
1298.3
1299.1
1299.7
1300.3
1300.7
1301.5
1302
1302.6
1303
1303.8
1304.4
1305
1305.4
1306.2
1306.8
1307.4
1307.8
1308.5
1309.1
1309.7
1310.1
1310.9
1311.5
1312.1
1312.5
1313.3
1313.9
1314.5
1314.9
1315.6
1316.2
1316.8
1317.3
1318
1318.6
1319.2
1319.7
1320
1321
1321.3
1322.1
1322.7
1323.3
1323.8
1324.5
1325.1
1325.7
1326.1
1326.5
1327.4
1327.9
1328.6
1329.2
1329.7
1330.3
1330.9
1331.3
1332
1332.6
1333.2
1333.8
1334.1
1335
1335.4
1336.1
1336.6
1337.2
1337.8
1338.4
1338.8
1339.5
1340
1340.6
1341.1
1341.5
1342.3
1342.9
1343.4
1344
1344.5
1344.9
1345.7
1346.3
1346.7
1347.4
1347.9
1348.2
1348.3
1348.8
1349.2
1350
1350.2
1350.6
1351.1
1351.9
1352.1
1352.3
1352.9
1353.3
1354
1354.2
1354.6
1355.3
1355.9
1356.5
1357
1357.4
1358.2
1358.8
1359.2
1359.9
1360.5
1361
1361.6
1362.2
1362.8
1363.2
1363.9
1364.5
1365
1365.5
1366.2
1366.8
1367.3
1367.6
1367.7
1368.3
1368.7
1369.3
1369.6
1370.2
1370.8
1371.2
1371.9
1372.4
1373.1
1373.7
1374.3
1374.9
1375.4
1376
1376.6
1377.2
1377.6
1378.3
1378.9
1379.5
1379.9
1380.7
1381.3
1381.9
1382.3
1383
1383.6
1384.2
1384.6
1385.4
1386
1386.5
1386.9
1387.7
1388.3
1388.9
1389.3
1390
1390.6
1391.2
1391.6
1392.4
1393
1393.6
1394
1394.8
1395.4
1396
1396.3
1397.1
1397.7
1398.3
1398.7
1399.5
1400.1
1400.6
1401
1401.8
1402.4
1403
1403.4
1404.2
1404.7
1405.3
1405.8
1406.5
1407.1
1407.7
1408.1
1408.9
1409.5
1410.1
1410.5
1411.2
1411.8
1412.4
1413
1413.5
1414.1
1414.7
1415.3
1415.9
1416.5
1417.1
1417.7
1418.2
1418.8
1419
1419.3
1420
1420.5
1421.2
1421.6
1422.4
1422.9
1423.2
1423.6
1424.2
1424.8
1425.3
1426
1426.6
1427.2
1427.7
1428.4
1429
1429.6
1430
1430.7
1431.3
1431.9
1432.4
1433.1
1433.7
1434.3
1434.8
1435.2
1436.1
1436.5
1437.3
1437.9
1438.5
1438.9
1439.7
1440.3
1440.9
1441.6
1442.2
1442.8
1443.4
1444
1444.6
1445.2
1445.8
1446.2
1447
1447.6
1448.1
1448.5
1449.3
1449.9
1450.5
1451.1
1451.7
1452.1
1452.9
1453.5
1454.1
1454.5
1455.2
1455.8
1456.4
1456.9
1457.3
1458.2
1458.6
1459.4
1459.8
1460.5
1460.9
1461.5
1462.3
1462.9
1463.5
1463.9
1464.7
1465.3
1465.9
1466.5
1467.1
1467.6
1468.3
1468.9
1469.5
1470
1470.6
1471.2
1471.8
1472.3
1473
1473.6
1474.2
1474.7
1475.1
1476
1476.4
1476.9
1477.7
1478.3
1478.7
1479.5
1480
1480.7
1481.2
1481.8
1482.3
1483
1483.6
1484
1484.8
1485.4
1486
1486.3
1487.1
1487.7
1488.3
1488.7
1489.5
1490.1
1490.7
1491.1
1491.9
1492.5
1493.1
1493.4
1494.3
1494.8
1495.4
1495.8
1496.6
1497.2
1497.8
1498.2
1499
1499.6
1500.2
1500.6
1501.3
1501.9
1502.5
1502.9
1503.7
1504.3
1504.9
1505.3
1506
1506.6
1507.2
1507.6
1508.4
1509
1509.6
1510
1510.7
1511.3
1511.9
1512.3
1513.1
1513.7
1514.3
1514.7
1515.4
1516
1516.6
1517
1517.8
1518.4
1519
1519.4
1520.2
1520.8
1521.3
1521.7
1522.5
1523.1
1523.7
1524.1
1524.8
1525.4
1526
1526.2
1526.4
1527.2
1527.6
1528.3
1528.8
1529.1
1529.5
1530.1
1530.7
1531.3
1531.8
1532.4
1533
1533.6
1534
1534.7
1535.3
1535.7
1536.5
1537.1
1537.8
1538.1
1538.9
1539.5
1540.1
1540.5
1541.3
1541.9
1542.5
1542.9
1543.7
1544.3
1544.9
1545.3
1546.1
1546.7
1547.3
1547.7
1548.5
1549.1
1549.7
1550.1
1550.9
1551.5
1552.1
1552.5
1553.3
1553.9
1554.5
1554.8
1555.7
1556.3
1556.9
1557.2
1558
1558.6
1559.3
1559.6
1560.4
1561
1561.6
1562
1562.8
1563.4
1564
1564.4
1565.2
1565.8
1566.4
1566.8
1567.6
1568.2
1568.8
1569.1
1570
1570.6
1571.2
1571.5
1572.3
1572.9
1573.5
1573.9
1574.7
1575.3
1575.9
1576.3
1577.1
1577.7
1578.3
1578.7
1579.4
1580
1580.6
1581
1581.8
1582.4
1582.9
1583.5
1584.1
1584.7
1585.1
1585.9
1586.5
1587.1
1587.5
1588.2
1588.8
1589.4
1589.8
1590.6
1591.2
1591.7
1592.1
1592.9
1593.5
1594.1
1594.4
1595.2
1595.8
1596.4
1596.8
1597.6
1598.2
1598.8
1599.2
1600
1600.6
1601.1
1601.5
1602.3
1602.9
1603.5
1603.9
1604.7
1605.3
1605.8
1606.2
1607
1607.6
1608.2
1608.6
1609.3
1609.9
1610.5
1610.9
1611.7
1612.3
1612.8
1613.2
1614
1614.6
1615.2
1615.5
1616.3
1616.9
1617.5
1617.9
1618.7
1619.3
1619.9
1620.3
1621
1621.6
1622.2
1622.6
1623.4
1624
1624.6
1625
1625.8
1626.4
1626.9
1627.3
1628.1
1628.7
1629.3
1629.7
1630.5
1631.1
1631.7
1632.1
1632.9
1633.5
1634.1
1634.5
1635.3
1635.9
1636.5
1636.9
1637.7
1638.3
1638.8
1639.2
1640
1640.6
1641.2
1641.6
1642.4
1643
1643.6
1644
1644.8
1645.4
1646
1646.4
1647.2
1647.8
1648.4
1648.8
1649.5
1650.1
1650.8
1651.2
1651.6
1652.5
1653
1653.7
1654.1
1654.9
1655.5
1656.1
1656.6
1657.2
1657.9
1658.4
1658.8
1659.6
1660.2
1660.5
1661.4
1662
1662.6
1663
1663.8
1664.4
1665
1665.4
1666.1
1666.7
1667.3
1667.7
1668.5
1669.1
1669.7
1670.1
1670.9
1671.5
1672.1
1672.5
1673.2
1673.9
1674.4
1674.8
1675.6
1676.2
1676.8
1677.2
1678
1678.6
1679.2
1679.6
1680.4
1681
1681.6
1681.9
1682.2
1682.8
1683.3
1684
1684.5
1685.3
1685.7
1686.5
1687
1687.3
1687.6
1688.3
1688.9
1689.5
1690.1
1690.5
1690.9
1691.9
1692.5
1693.1
1693.5
1694.3
1694.8
1695.6
1696.2
1696.8
1697.3
1698
1698.6
1699.1
1699.8
1700.4
1700.8
1701.6
1702
1702.8
1703.4
1703.8
1704.6
1705.2
1705.8
1706.2
1707
1707.6
1708.2
1708.6
1709.4
1709.9
1710.6
1711.2
1711.8
1712.4
1713
1713.4
1714.2
1714.8
1715.4
1715.8
1716.6
1717.2
1717.8
1718.2
1719
1719.6
1720.2
1720.7
1721.4
1722
1722.6
1723
1723.7
1724.3
1724.9
1725.4
1725.8
1726.7
1727.1
1727.9
1728.5
1729.1
1729.7
1730.3
1730.9
1731.5
1732.1
1732.4
1733.3
1733.7
1734.5
1735.1
1735.7
1736.2
1736.9
1737.5
1738.1
1738.6
1739
1739.9
1740.3
1741.1
1741.7
1742.3
1742.8
1743.5
1744
1744.6
1745.2
1745.6
1746.4
1746.8
1747.6
1748.2
1748.8
1749
1749.2
1750
1750.4
1751.2
1751.7
1752
1752.4
1753
1753.6
1753.9
1754.1
1754.5
1755
1755.7
1755.9
1756.4
1757.1
1757.7
1758.3
1758.9
1759.5
1759.9
1760.7
1761.1
1761.9
1762.5
1763.1
1763.6
1764.3
1764.9
1765.5
1766
1766.6
1767.2
1767.8
1768.3
1768.7
1769.6
1770
1770.7
1771.2
1771.9
1772.5
1772.9
1773.7
1774.1
1774.9
1775.5
1775.9
1776.7
1777.3
1777.8
1778.4
1779
1779.6
1780
1780.8
1781.4
1781.9
1782.5
1783.1
1783.7
1784.2
1784.7
1785.4
1786
1786.6
1787
1787.4
1788.3
1788.7
1789.4
1790
1790.2
1790.4
1791.2
1791.6
1792.3
1792.7
1793.5
1793.9
1794.7
1795.1
1795.5
1795.8
1796.5
1797.1
1797.7
1798.2
1798.6
1799.5
1800.1
1800.7
1801.1
1801.8
1802.4
1803
1803.4
1804.2
1804.8
1805.4
