0.14444
0.375
1.0167
1.6833
2.3361
3.0056
3.6861
4.3389
4.9833
5.6722
6.3583
7.0222
7.6639
8.3167
8.9639
9.6194
10.289
10.939
11.572
12.222
12.906
13.556
14.189
14.831
15.478
16.125
16.767
17.419
18.072
18.711
19.372
20.028
20.681
21.322
21.969
22.617
23.278
23.95
24.589
25.233
25.894
26.578
27.236
27.872
28.517
29.175
29.836
30.506
31.142
31.781
32.425
33.097
33.742
34.383
35.022
35.678
36.314
36.972
37.628
38.278
38.914
39.583
40.247
40.897
41.533
42.181
42.819
43.475
44.144
44.778
45.411
46.058
46.742
47.389
48.022
48.661
49.319
49.978
50.639
51.286
51.936
52.575
53.253
53.9
54.547
55.175
55.817
56.444
57.092
57.736
58.372
58.994
59.639
60.292
60.933
61.561
62.2
62.844
63.497
64.158
64.794
65.436
66.069
66.739
67.375
68.014
68.644
69.283
69.908
70.564
71.217
71.853
72.472
73.136
73.8
74.453
75.078
75.719
76.361
77.008
77.678
78.319
78.953
79.594
80.267
80.911
81.547
82.186
82.847
83.489
84.142
84.783
85.431
86.056
86.714
87.367
88.014
88.636
89.275
89.908
90.561
91.214
91.847
92.472
93.108
93.767
94.411
95.044
95.667
96.317
96.956
97.611
98.261
98.9
99.533
100.19
100.85
101.51
102.13
102.77
103.4
104.05
104.71
105.34
105.97
106.63
107.3
107.94
108.58
109.23
109.88
110.53
111.18
111.84
112.48
113.12
113.78
114.45
115.11
115.75
116.39
117.04
117.69
118.37
119.01
119.64
120.28
120.96
121.61
122.24
122.88
123.53
124.17
124.81
125.45
126.09
126.7
127.33
127.99
128.64
129.29
129.94
130.58
131.24
131.91
132.54
133.18
133.84
134.51
135.17
135.81
136.46
137.12
137.79
138.46
139.11
139.75
140.4
141.07
141.73
142.38
143.02
143.68
144.33
144.99
145.64
146.29
146.93
147.61
148.26
148.91
149.55
150.19
150.83
151.48
152.14
152.78
153.41
154.06
154.73
155.37
156
156.64
157.29
157.94
158.61
159.25
159.9
160.54
161.2
161.85
162.49
163.12
163.77
164.4
165.04
165.69
166.34
166.97
167.62
168.29
168.94
169.58
170.22
170.88
171.53
172.2
172.84
173.49
174.15
174.83
175.47
176.11
176.75
177.39
178.04
178.71
179.34
179.98
180.62
181.29
181.94
182.59
183.24
183.89
184.53
185.19
185.85
186.5
187.13
187.78
188.44
189.09
189.72
190.36
190.99
191.64
192.29
192.93
193.56
194.19
194.87
195.51
196.15
196.78
197.44
198.07
198.73
199.38
200.02
200.64
201.29
201.96
202.61
203.23
203.88
204.53
205.19
205.86
206.51
207.16
207.82
208.49
209.14
209.78
210.43
211.07
211.72
212.36
213.01
213.65
214.28
214.94
215.59
216.25
216.88
217.52
218.17
218.84
219.51
220.15
220.78
221.45
222.12
222.77
223.4
224.05
224.7
225.35
226.01
226.66
227.29
227.93
228.59
229.25
229.9
230.55
231.21
231.85
232.51
233.18
233.83
234.46
235.12
235.79
236.44
237.07
237.72
238.36
239.02
239.69
240.33
240.98
241.64
242.33
243
243.65
244.3
244.97
245.64
246.32
246.97
247.63
248.29
248.98
249.64
250.29
250.95
251.61
252.29
252.97
253.63
254.3
254.96
255.66
256.32
256.98
257.64
258.3
258.97
259.64
260.29
260.94
261.6
262.28
262.95
263.6
264.25
264.92
265.58
266.25
266.92
267.57
268.21
268.88
269.54
270.19
270.82
271.46
272.1
272.74
273.38
274.01
274.63
275.27
275.93
276.56
277.19
277.82
278.46
279.11
279.76
280.39
281.02
281.64
282.29
282.94
283.59
284.21
284.83
285.47
286.12
286.79
287.42
288.05
288.7
289.38
290.01
290.65
291.29
291.93
292.57
293.22
293.86
294.5
295.12
295.77
296.41
297.06
297.68
298.32
298.96
299.6
300.26
300.9
301.54
302.18
302.85
303.49
304.13
304.77
305.42
306.06
306.71
307.37
308.01
308.64
309.3
309.97
310.62
311.25
311.9
312.56
313.22
313.89
314.56
315.2
315.87
316.54
317.2
317.84
318.49
319.15
319.82
320.48
321.13
321.77
322.43
323.11
323.76
324.41
325.06
325.72
326.39
327.06
327.72
328.38
329.03
329.71
330.38
331.04
331.68
332.33
332.98
333.64
334.29
334.95
335.59
336.29
336.96
337.62
338.27
338.94
339.59
340.26
340.93
341.58
342.22
342.89
343.56
344.21
344.85
345.51
346.17
346.84
347.52
348.19
348.84
349.52
350.2
350.88
351.53
352.19
352.85
353.54
354.23
354.9
355.56
356.24
356.92
357.59
358.24
358.91
359.56
360.24
360.93
361.59
362.25
362.94
363.63
364.31
364.97
365.65
366.31
367.01
367.69
368.36
369.02
369.71
370.39
371.06
371.72
372.38
373.04
373.71
374.4
375.07
375.71
376.38
377.06
377.71
378.34
378.99
379.63
380.29
380.94
381.59
382.22
382.87
383.54
384.19
384.84
385.49
386.15
386.82
387.48
388.14
388.79
389.44
390.11
390.78
391.44
392.08
392.73
393.37
394.03
394.69
395.33
395.97
396.63
397.3
397.95
398.59
399.24
399.9
400.26
400.57
401.25
401.48
401.91
402.55
403.21
403.89
404.54
405.19
405.84
406.51
407.17
407.84
408.51
408.81
409.17
409.52
409.84
410.54
411.2
411.86
412.51
413.18
413.83
414.5
415.16
415.81
416.45
417.12
417.79
418.45
419.09
419.77
420.42
421.09
421.76
422.43
423.08
423.76
424.44
425.11
425.74
426.4
427.06
427.73
428.41
429.07
429.74
430.43
431.13
431.81
432.48
433.15
433.82
434.51
435.19
435.85
436.51
437.19
437.87
438.54
439.19
439.84
440.49
441.16
441.83
442.48
443.12
443.79
444.47
445.13
445.77
446.43
447.07
447.74
448.42
449.07
449.71
450.38
451.06
451.71
452.35
452.99
453.65
454.31
454.98
455.63
456.27
456.93
457.61
458.27
458.91
459.56
460.23
460.88
461.55
462.19
462.84
463.48
464.15
464.79
465.44
466.08
466.73
467.36
468.02
468.68
469.32
469.95
470.62
471.28
471.93
472.56
473.19
473.83
474.48
475.14
475.77
476.4
477.03
477.7
478.34
478.98
479.61
480.26
480.88
481.54
482.19
482.83
483.46
484.11
484.78
485.43
486.06
486.7
487.34
488
488.65
489.3
489.94
490.57
491.24
491.89
492.53
493.16
493.82
494.46
495.12
495.78
496.43
497.05
497.71
498.38
499.03
499.65
500.29
500.93
501.59
502.25
502.89
503.52
504.17
504.84
505.48
506.12
506.76
507.41
508.05
508.71
509.35
509.99
510.62
511.27
511.92
512.55
513.17
513.81
514.44
515.08
515.74
516.37
516.99
517.64
518.31
518.95
519.58
520.21
520.85
521.49
522.13
522.77
523.39
524.01
524.66
525.31
525.95
526.57
527.2
527.84
528.48
529.14
529.77
530.41
531.06
531.73
532.37
533
533.64
534.28
534.93
535.58
536.21
536.84
537.47
538.12
538.77
539.41
540.04
540.67
541.31
541.96
542.63
543.27
543.89
544.54
545.21
545.86
546.48
547.12
547.76
548.41
549.06
549.7
550.33
550.96
551.63
552.26
552.89
553.53
554.18
554.81
555.46
556.11
556.74
557.36
558
558.66
559.29
559.91
560.54
561.17
561.81
562.45
563.08
563.71
564.34
564.99
565.64
566.29
566.91
567.55
568.18
568.82
569.47
570.09
570.72
571.36
572.01
572.65
573.27
573.9
574.55
575.2
575.87
576.51
577.16
577.82
578.49
579.16
579.82
580.47
581.13
581.78
582.45
583.12
583.77
584.41
585.08
585.75
586.42
587.06
587.72
588.38
589.04
589.73
590.38
591.02
591.68
592.36
593.01
593.64
594.28
594.94
595.59
596.25
596.89
597.54
598.18
598.87
599.52
600.17
600.82
601.49
602.16
602.84
603.5
604.16
604.81
605.49
606.15
606.82
607.47
608.13
608.78
609.45
610.11
610.77
611.41
612.09
612.76
613.42
614.06
614.72
615.37
616.04
616.7
617.35
617.99
618.66
619.33
619.99
620.63
621.28
621.92
622.59
623.26
623.91
624.54
625.21
625.89
626.55
627.19
627.84
628.5
629.17
629.84
630.49
631.14
631.79
632.47
633.13
633.77
634.42
635.08
635.75
636.42
637.07
637.72
638.38
639.06
639.71
640.36
640.99
641.65
642.29
642.95
643.59
644.23
644.85
645.51
646.16
646.81
647.44
648.09
648.72
649.39
650.06
650.71
651.36
652.02
652.7
653.36
653.99
654.65
655.29
655.94
656.6
657.24
657.88
658.51
659.19
659.84
660.48
661.11
661.77
662.42
663.08
663.73
664.38
665.02
665.69
666.36
667.02
667.65
668.29
668.94
669.59
670.26
670.9
671.53
672.19
672.86
673.51
674.15
674.79
675.44
676.1
676.76
677.41
678.05
678.7
679.36
680
680.63
681.26
681.89
682.52
683.17
683.84
684.48
685.11
685.77
686.44
687.1
687.72
688.37
689.02
689.68
690.34
690.98
691.62
692.26
692.94
693.59
694.22
694.88
695.54
696.2
696.86
697.52
698.18
698.83
699.51
700.18
700.84
701.49
702.15
702.81
703.47
704.13
704.78
705.42
706.09
706.76
707.42
708.06
708.71
709.36
710.03
710.71
711.35
712
712.66
713.33
713.99
714.63
715.27
715.91
716.57
717.23
717.87
718.5
719.15
719.82
720.46
721.1
721.75
722.41
723.07
723.73
724.39
725.04
725.69
726.38
727.03
727.68
728.32
728.97
729.62
730.28
730.94
731.59
732.22
732.88
733.55
734.21
734.84
735.48
736.12
736.77
737.44
738.07
738.71
739.36
740.02
740.66
741.29
741.92
742.57
743.23
743.89
744.53
745.17
745.82
746.5
747.14
747.79
748.44
749.08
749.73
750.39
751.04
751.67
752.3
752.95
753.61
754.26
754.89
755.52
756.16
756.81
757.48
758.12
758.76
759.41
760.09
760.74
761.39
762.03
762.7
763.36
764.02
764.67
765.32
765.98
766.66
767.33
767.99
768.64
769.31
769.97
770.65
771.32
771.99
772.64
773.31
773.98
774.65
775.29
775.95
776.6
777.27
777.94
778.6
779.24
779.91
780.58
781.24
781.89
782.54
783.19
783.86
784.53
785.18
785.81
786.48
787.15
787.79
788.43
789.08
789.73
790.38
791.05
791.69
792.33
792.97
793.64
794.29
794.94
795.57
796.23
796.86
797.51
798.16
798.8
799.42
800.07
800.73
801.38
802
802.64
803.28
803.94
804.6
805.24
805.88
806.53
807.21
807.86
808.49
809.13
809.78
810.44
811.1
811.74
812.38
813.01
813.68
814.32
814.97
815.61
816.26
816.9
817.56
818.22
818.87
819.51
820.17
820.84
821.49
822.13
822.79
823.43
824.1
824.77
825.42
826.06
826.73
827.42
828.09
828.73
829.4
830.06
830.75
831.43
832.1
832.75
833.44
834.12
834.79
835.43
836.09
836.74
837.41
838.08
838.74
839.38
840.05
840.73
841.4
842.04
842.7
843.35
844.03
844.71
845.31
845.63
845.9
846.38
846.92
847.4
847.86
848.41
848.95
849.54
850.15
850.74
851.38
852.02
852.57
853.11
853.72
854.37
855.04
855.7
856.35
856.89
857.46
858.09
858.61
859.14
859.71
860.26
860.79
861.27
861.73
862.14
862.57
863.01
863.48
863.99
864.41
864.87
865.33
865.78
866.2
866.62
867.07
867.51
867.94
868.35
868.79
869.24
869.66
870.08
870.47
870.88
871.59
871.88
872.61
873.3
874.01
874.7
875.39
876.06
876.73
877.42
878.11
878.79
879.46
880.13
880.83
881.51
882.17
882.84
883.52
884.19
884.87
885.54
886.2
886.87
887.57
888.24
888.9
889.57
890.25
890.92
891.61
892.27
892.93
893.59
894.28
894.95
895.6
896.24
896.9
897.56
898.23
898.89
899.54
900.19
900.87
901.53
902.19
902.83
903.48
904.13
904.78
905.44
906.09
906.73
907.4
908.07
908.73
909.37
910.02
910.67
911.34
912.01
912.66
913.31
913.98
914.65
915.31
915.96
916.6
917.25
917.92
918.59
919.24
919.87
920.53
921.2
921.85
922.49
923.14
923.79
924.45
925.11
925.77
926.41
927.06
927.74
928.39
929.02
929.67
930.33
930.99
931.64
932.29
932.93
933.58
934.25
934.92
935.57
936.22
936.88
937.54
938.21
938.89
939.55
940.2
940.87
941.55
942.22
942.87
943.52
944.17
944.84
945.52
946.17
946.82
947.49
948.18
948.84
949.49
950.15
950.81
951.48
952.16
952.81
953.45
954.12
954.8
955.46
956.09
956.74
957.39
958.05
958.72
959.37
960.02
960.66
961.34
962
962.64
963.29
963.96
964.61
965.28
965.94
966.6
967.25
967.92
968.59
969.25
969.89
970.56
971.23
971.91
972.58
973.26
973.91
974.61
975.29
975.97
976.63
977.31
977.98
978.67
979.34
980.01
980.66
981.34
982
982.67
983.32
983.98
984.64
985.31
985.98
986.64
987.29
987.98
988.65
989.32
989.97
990.63
991.29
991.96
992.63
993.27
993.92
994.6
995.27
995.94
996.58
997.24
997.89
998.56
999.24
999.89
1000.5
1001.2
1001.9
1002.6
1003.2
1003.9
1004.5
1005.2
1005.9
1006.5
1007.2
1007.8
1008.5
1009.2
1009.8
1010.5
1011.1
1011.8
1012.5
1013.2
1013.8
1014.5
1015.2
1015.8
1016.4
1017.1
1017.7
1018.4
1019.1
1019.7
1020.4
1021
1021.7
1022.3
1023
1023.6
1024.3
1025
1025.6
1026.1
1026.9
1027.6
1028.3
1028.9
1029.5
1030.2
1030.8
1031.5
1032.2
1032.8
1033.5
1034.1
1034.8
1035.5
1036.1
1036.7
1037.4
1038
1038.7
1039.4
1040
1040.6
1041.3
1042
1042.6
1043.2
1043.9
1044.5
1045.2
1045.9
1046.5
1047.1
1047.8
1048.4
1049.1
1049.7
1050.4
1051
1051.6
1052.3
1052.9
1053.6
1054.2
1054.9
1055.6
1056.2
1056.9
1057.5
1058.2
1058.9
1059.5
1060.2
1060.8
1061.5
1062.2
1062.9
1063.5
1064.2
1064.8
1065.5
1066.2
1066.8
1067.5
1068.2
1068.9
1069.5
1070.2
1070.9
1071.5
1072.2
1072.9
1073.5
1074.2
1074.9
1075.6
1076.2
1076.9
1077.5
1078.2
1078.9
1079.6
1080.3
1080.9
1081.6
1082.3
1083
1083.6
1084.3
1084.9
1085.6
1086.3
1087
1087.6
1088.3
1089
1089.6
1090.2
1090.9
1091.5
1092.2
1092.9
1093.5
1094.1
1094.8
1095.5
1096.2
1096.8
1097.5
1098.1
1098.8
1099.5
1100.1
1100.8
1101.5
1102.1
1102.8
1103.5
1104.1
1104.8
1105.5
1106.2
1106.8
1107.5
1108.2
1108.9
1109.5
1110.2
1110.8
1111.5
1112.2
1112.9
1113.5
1114.2
1114.9
1115.5
1116.2
1116.8
1117.5
1118.2
1118.8
1119.5
1120.2
1120.8
1121.5
1122.2
1122.8
1123.5
1124.1
1124.8
1125.5
1126.2
1126.8
1127.5
1128.1
1128.8
1129.5
1130.2
1130.8
1131.5
1132.2
1132.8
1133.5
1134.2
1134.8
1135.5
1136.2
1136.8
1137.5
1138.2
1138.8
1139.5
1140.2
1140.8
1141.5
1142.2
1142.8
1143.5
1144.2
1144.8
1145.5
1146.1
1146.8
1147.5
1148.1
1148.8
1149.4
1150.1
1150.7
1151.4
1152
1152.7
1153.4
1154
1154.6
1155.3
1156
1156.6
1157.3
1157.9
1158.6
1159.2
1159.9
1160.5
1161.2
1161.8
1162.5
1163.2
1163.8
1164.5
1165.2
1165.9
1166.5
1167.2
1167.9
1168.5
1169.2
1169.9
1170.6
1171.2
1171.9
1172.6
1173.3
1173.9
1174.6
1175.3
1175.9
1176.6
1177.3
1177.9
1178.6
1179.3
1180
1180.6
1181.3
1182
1182.7
1183.3
1184
1184.7
1185.3
1186
1186.7
1187.3
1188
1188.7
1189.3
1190
1190.7
1191.3
1192
1192.6
1193.3
1194
1194.6
1195.3
1196
1196.6
1197.3
1197.9
1198.6
1199.3
1200
1200.6
1201.3
1202
1202.7
1203.3
1204
1204.6
1205.3
1206
1206.7
1207.3
1208
1208.7
1209.4
1210
1210.7
1211.4
1212.1
1212.8
1213.5
1214.1
1214.8
1215.5
1216.2
1216.8
1217.5
1218.2
1218.9
1219.6
1220.2
1220.9
1221.5
1222.2
1222.9
1223.6
1224.2
1224.9
1225.6
1226.2
1226.9
1227.6
1228.2
1228.9
1229.6
1230.2
1230.9
1231.5
1232.2
1232.8
1233.5
1234.1
1234.8
1235.5
1236.1
1236.8
1237.4
1238.1
1238.7
1239.4
1240.1
1240.7
1241.4
1242
1242.7
1243.3
1244
1244.6
1245.3
1245.9
1246.6
1247.2
1247.9
1248.5
1249.2
1249.9
1250.5
1251.2
1251.9
1252.5
1253.2
1253.8
1254.5
1255.1
1255.8
1256.5
1257.1
1257.8
1258.5
1259.1
1259.8
1260.5
1261.1
1261.8
1262.4
1263.1
1263.8
1264.4
1265.1
1265.7
1266.4
1267.1
1267.7
1268.4
1269
1269.7
1270.4
1271.1
1271.7
1272.4
1273.1
1273.8
1274.4
1275.1
1275.8
1276.5
1277.1
1277.8
1278.4
1279.1
1279.8
1280.4
1281.1
1281.7
1282.4
1283.1
1283.8
1284.4
1285.1
1285.8
1286.5
1287.2
1287.8
1288.5
1289.2
1289.9
1290.5
1291.2
1291.7
1292.6
1293.2
1293.9
1294.6
1295.2
1295.9
1296.6
1297.2
1297.9
1298.5
1299.2
1299.9
1300.5
1301.2
1301.9
1302.5
1303.2
1303.9
1304.5
1305.2
1305.9
1306.6
1307.2
1307.9
1308.6
1309.3
1309.9
1310.6
1311.3
1311.9
1312.6
1313.3
1314
1314.6
1315.3
1316
1316.6
1317.3
1317.9
1318.6
1319.3
1319.9
1320.6
1321.3
1321.9
1322.6
1323.3
1324
1324.6
1325.3
1325.9
1326.6
1327.3
1327.9
1328.6
1329.3
1329.9
1330.6
1331.3
1331.9
1332.6
1333.3
1334
1334.7
1335.3
1336
1336.7
1337.4
1338.1
1338.8
1339.4
1340.1
1340.8
1341.5
1342.2
1342.9
1343.5
1344.2
1344.9
1345.6
1346.2
1346.9
1347.6
1348.3
1348.9
1349.6
1350.3
1350.9
1351.1
1351.6
1352.3
1352.9
1353.6
1353.9
1354.3
1354.9
1355.6
1356.3
1356.9
1357.6
1358.2
1358.9
1359.6
1360.3
1360.9
1361.6
1362.3
1363
1363.7
1364.3
1365
1365.7
1366.3
1367
1367.7
1368.3
1369
1369.7
1370.4
1371.1
1371.6
1371.7
1372.4
1373.1
1373.8
1374.5
1375.1
1375.8
1376.5
1377.2
1377.8
1378.5
1379.2
1379.9
1380.6
1381.2
1381.9
1382.5
1383.2
1383.9
1384.5
1385.2
1385.8
1386.5
1387.2
1387.8
1388.4
1389
1389.7
1390.3
1391
1391.6
1392.2
1392.9
1393.5
1394.1
1394.8
1395.4
1396
1396.7
1397.3
1397.9
1398.6
1399.2
1399.8
1400.5
1401.1
1401.8
1402.4
1403.1
1403.7
1404.4
1405
1405.6
1406.3
1406.9
1407.6
1408.2
1408.8
1409.4
1410.1
1410.7
1411.3
1411.9
1412.6
1413.2
1413.8
1414.4
1415
1415.7
1416.3
1416.9
1417.6
1418.2
1418.8
1419.4
1420.1
1420.7
1421.3
1421.9
1422.5
1423.2
1423.8
1424.4
1425
1425.6
1426.2
1426.9
1427.5
1428.1
1428.7
1429.4
1430
1430.7
1431.3
1431.9
1432.5
1433.2
1433.8
1434.5
1435.1
1435.7
1436.4
1437
1437.7
1438.3
1439
1439.6
1440.3
1440.9
1441.6
1442.2
1442.9
1443.5
1444.2
1444.8
1445.2
1445.5
1446.1
1446.8
1447.4
1448.1
1448.7
1449.4
1450.1
1450.8
1451.5
1452.1
1452.8
1453.5
1454.2
1454.9
1455.6
1456.3
1457
1457.6
1458.3
1459
1459.6
1460.3
1461
1461.7
1462.3
1463
1463.7
1464.4
1465.1
1465.7
1466.4
1467.1
1467.8
1468.5
1469.1
1469.8
1470.5
1471.2
1471.8
1472.5
1473.2
1473.9
1474.5
1475.2
1475.9
1476.6
1477.2
1477.9
1478.5
1479.2
1479.9
1480.6
1481.2
1481.9
1482.5
1483.2
1483.9
1484.5
1485.2
1485.8
1486.5
1487.1
1487.8
1488.4
1489.1
1489.8
1490.5
1491.1
1491.8
1492.5
1493.1
1493.8
1494.5
1495.2
1495.8
1496.5
1497.2
1497.9
1498.6
1499.2
1499.9
1500.6
1501.3
1502
1502.7
1503.4
1504.1
1504.8
1505.4
1506.1
1506.8
1507.5
1508.1
1508.8
1509.4
1510.1
1510.8
1511.4
1512.1
1512.8
1513.4
1514.1
1514.8
1515.4
1516.1
1516.8
1517.4
1518.1
1518.7
1519.4
1520
1520.7
1521.4
1522
1522.7
1523.4
1524
1524.7
1525.3
1526
1526.7
1527.4
1528
1528.7
1529.4
1530.1
1530.7
1531.4
1532
1532.7
1533.4
1534
1534.7
1535.4
1536
1536.7
1537.4
1538.1
1538.8
1539.4
1540.1
1540.8
1541.5
1542.1
1542.8
1543.5
1544.2
1544.8
1545.5
1546.1
1546.8
1547.5
1548.1
1548.8
1549.5
1550.2
1550.8
1551.5
1552.1
1552.8
1553.5
1554.1
1554.8
1555.4
1556.1
1556.8
1557.4
1558.1
1558.7
1559.4
1560
1560.7
1561.4
1562
1562.7
1563.4
1564
1564.7
1565.3
1566
1566.6
1567.3
1568
1568.6
1569.3
1569.9
1570.6
1571.2
1571.9
1572.5
1573.2
1573.9
1574.5
1575.2
1575.8
1576.5
1577.2
1577.8
1578.5
1579.1
1579.8
1580.4
1581.1
1581.7
1582.4
1583.1
1583.7
1584.4
1585.1
1585.7
1586.4
1587.1
1587.8
1588.4
1589.1
1589.8
1590.4
1591.1
1591.8
1592.4
1593.1
1593.8
1594.4
1595.1
1595.7
1596.4
1597.1
1597.8
1598.4
1599.1
1599.7
1600.4
1601.1
1601.8
1602.4
1603.1
1603.8
1604.5
1605.1
1605.8
1606.4
1607.1
1607.8
1608.5
1609.1
1609.8
1610.5
1611.2
1611.8
1612.5
1613.2
1613.8
1614.5
1615.2
1615.8
1616.5
1617.2
1617.9
1618.5
1619.2
1619.8
1620.5
1621.2
1621.8
1622.5
1623.2
1623.9
1624.5
1625.2
1625.8
1626.5
1627.2
1627.9
1628.5
1629.2
1629.8
1630.5
1631.2
1631.8
1632.5
1633.2
1633.8
1634.5
1635.2
1635.9
1636.5
1637.2
1637.9
1638.6
1639.3
1639.9
1640.6
1641.3
1641.9
1642.6
1643.3
1644
1644.6
1645.3
1646
1646.6
1647.3
1648
1648.7
1649.3
1650
1650.7
1651.3
1652
1652.6
1653.3
1654
1654.6
1655.3
1655.9
1656.6
1657.3
1657.9
1658.6
1659.2
1659.9
1660.6
1661.3
1661.9
1662.6
1663.2
1663.9
1664.6
1665.2
1665.9
1666.5
1667.2
1667.9
1668.6
1669.2
1669.9
1670.6
1671.3
1672
1672.7
1673.3
1674
1674.7
1675.4
1676
1676.7
1677.4
1678.1
1678.7
1679.4
1680.1
1680.8
1681.5
1682.1
1682.8
1683.5
1684.2
1684.8
1685.5
1686.2
1686.9
1687.5
1688.2
1688.9
1689.5
1690.2
1690.9
1691.5
1692.2
1692.9
1693.5
1694.2
1694.9
1695.5
1696.2
1696.9
1697.5
1698.2
1698.8
1699.5
1700.2
1700.8
1701.5
1702.1
1702.8
1703.4
1704.1
1704.7
1705.4
1706.1
1706.7
1707.4
1708
1708.7
1709.3
1709.8
1710.7
1711.3
1712
1712.6
1713.3
1713.9
1714.6
1715.2
1715.9
1716.5
1717.2
1717.9
1718.5
1719.1
1719.8
1720.4
1721.1
1721.8
1722.4
1723.1
1723.7
1724.4
1725
1725.7
1726.3
1727
1727.7
1728.4
1729
1729.7
1730.4
1731.1
1731.7
1732.4
1733
1733.7
1734.4
1735.1
1735.8
1736.4
1737.1
1737.8
1738.5
1739.2
1739.9
1740.6
1741.2
1741.9
1742.6
1743.3
1744
1744.7
1745.3
1746
1746.7
1747.4
1748
1748.7
1749.3
1750
1750.7
1751.3
1752
1752.6
1753.3
1753.9
1754.6
1755.2
1755.9
1756.5
1757.2
1757.8
1758.5
1759.1
1759.8
1760.4
1761.1
1761.7
1762.4
1763
1763.7
1764.4
1765
1765.7
1766.4
1767
1767.7
1768.4
1769.1
1769.8
1770.4
1771.1
1771.8
1772.5
1773.1
1773.8
1774.5
1775.2
1775.8
1776.5
1777.2
1777.9
1778.6
1779.3
1780
1780.7
1781.3
1782
1782.7
1783.4
1784.1
1784.7
1785.4
1786.1
1786.8
1787.4
1788.1
1788.8
1789.4
1790.1
1790.8
1791.5
1792.1
1792.8
1793.5
1794.2
1794.8
1795.5
1796.2
1796.9
1797.5
1798.2
1798.8
1799.5
1800.2
1800.9
1801.5
1802.2
1802.9
1803.6
1804.3
1804.9
