-20.3404
-12.7352
-4.29719
4.65562
13.7114
22.393
30.1965
36.6365
41.2926
43.8525
44.1443
42.1578
38.0479
32.1232
24.8195
16.6621
8.22044
0.063526
-7.28084
-13.354
-17.7762
-20.2343
-20.4432
-18.0867
-12.7441
-3.81859
9.51201
28.3011
53.7753
87.2018
129.683
181.892
243.79
314.362
391.421
471.547
550.175
621.872
680.778
721.183
738.171
728.245
689.859
623.75
533.043
423.068
300.925
174.826
53.2958
-55.6672
-145.381
-211.11
-250.481
-263.623
-253.034
-223.201
-180.023
-130.107
-80.04
-35.699
-1.69272
19.0245
25.3275
17.8822
-1.08788
-28.1885
-59.3411
-90.3066
-117.184
-136.829
-147.157
-147.293
-137.579
-119.437
-95.1184
-67.3832
-39.1395
-13.0978
8.52634
24.2305
33.3455
36.0515
33.2964
26.6338
18.003
9.48188
3.04099
0.325947
2.49093
10.0977
23.0871
40.821
62.1859
85.7418
109.897
133.087
153.939
171.404
184.834
194.024
199.18
200.861
199.866
197.116
193.521
189.863
186.699
184.301
182.629
181.357
179.917
177.584
173.579
167.17
157.776
145.051
128.941
109.705
87.9095
64.3796
40.1295
16.2687
-6.09842
-25.972
-42.5426
-55.2565
-63.8532
-68.3725
-69.1334
-66.6873
-61.7517
-55.1334
-47.6498
-40.0545
-32.9777
-26.8829
-22.0455
-18.5527
-16.3218
-15.1354
-14.6858
-14.6235
-14.6046
-14.3305
-13.5773
-12.2128
-10.2013
-7.59696
-4.53059
-1.18992
2.2013
5.40434
8.1848
10.3296
11.6611
12.0496
11.4229
9.77391
7.16613
3.73454
-0.317491
-4.72718
-9.18741
-13.3676
-16.9391
-19.6037
-21.1211
-21.3338
-20.1852
-17.729
-14.1283
-9.64291
-4.60791
0.597149
5.58318
9.98802
13.51
15.9349
17.1533
17.1667
16.0809
14.0893
11.4467
8.43786
5.34488
2.41629
-0.157484
-2.26055
-3.85787
-4.99157
-5.76824
-6.3393
-6.87732
-7.55135
-8.50435
-9.83512
-11.5864
-13.7401
-16.2188
-18.894
-21.5976
-24.1367
-26.3089
-27.9161
-28.778
-28.7419
-27.6909
-25.5499
-22.2906
-17.9351
-12.5584
-6.29026
0.685579
8.13476
15.7799
23.3128
30.4116
36.7626
42.0847
46.1555
48.8352
50.0851
49.9786
48.7003
46.5328
43.8303
40.9817
38.3665
36.3096
35.0406
34.6634
35.1417
36.3018
37.8526
39.4213
40.5989
40.9903
40.2616
38.1795
34.6379
29.6685
23.4361
16.2181
8.37434
0.310188
-7.5602
-14.8437
-21.1848
-26.2619
-29.761
-31.3248
-30.4836
-26.579
-18.6999
-5.65376
14.0047
41.8671
79.4813
128.087
188.302
259.801
341.052
429.144
519.785
607.487
685.947
748.603
789.312
803.067
786.654
739.16
662.248
560.151
439.356
308.033
175.239
50.0257
-59.4639
-146.791
-207.812
-241.002
-247.479
-230.729
-196.093
-150.068
-99.5271
-50.9519
-9.76234
20.1759
36.8274
40.0272
31.2984
13.4898
-9.71175
-34.3211
-56.5801
-73.4045
-82.7061
-83.5615
-76.2216
-61.9724
-42.8807
-21.4619
-0.320227
18.1922
32.2587
40.791
43.5168
40.959
34.3177
25.2765
15.765
7.70733
2.7908
2.28
6.89499
16.763
31.443
50.0133
71.2079
93.5791
115.667
136.156
153.998
168.499
179.348
186.609
190.659
192.098
191.637
189.979
187.71
185.211
182.609
179.764
176.301
171.681
165.298
156.591
145.153
130.826
113.757
94.4161
73.5732
52.2265
31.5029
12.5372
-3.65152
-16.272
-24.8459
-29.2575
-29.7612
-26.9491
-21.6814
-14.9917
-7.97613
-1.68148
2.99601
5.39048
5.11728
2.0908
-3.49037
-11.1869
-20.3841
-30.3688
-40.4103
-49.8332
-58.0767
-64.7343
-69.5724
-72.527
-73.6844
-73.2478
-71.4974
-68.7501
-65.3227
-61.5032
-57.5323
-53.5959
-49.8257
-46.3085
-43.0989
-40.2333
-37.7431
-35.6633
-34.0368
-32.9122
-32.3363
-32.3422
-32.9343
-34.0744
-35.671
-37.5747
-39.5824
-41.4496
-42.9116
-43.7101
-43.6219
-42.4863
-40.2272
-36.8657
-32.5229
-27.4104
-21.8113
-16.0519
-10.469
-5.37668
-1.03526
2.37258
4.75655
6.123
6.56847
6.264
5.43254
4.32267
3.18171
2.23166
1.65006
1.55766
2.01327
3.01552
4.51015
6.40143
8.56565
10.865
13.1608
15.3241
17.2445
18.8362
20.0412
20.8306
21.2038
21.1869
20.8297
20.2016
19.3882
18.4868
17.6016
16.8393
16.3042
16.0932
16.2911
16.966
18.1655
19.9136
22.2087
25.0219
28.2959
31.9424
35.8385
39.8225
43.6892
47.1879
50.0258
51.8796
52.4172
51.3299
48.3728
43.4091
36.4513
27.6934
17.5239
6.51479
-4.61782
-15.0807
-24.0916
-30.9778
-35.2681
-36.7604
-35.5481
-31.9902
-26.6206
-19.9992
-12.5229
-4.22361
5.40721
17.524
33.9211
56.8854
88.8967
132.194
188.256
257.274
337.717
426.076
516.897
603.109
676.673
729.476
754.345
746.052
702.153
623.513
514.434
382.349
237.108
89.9427
-47.7441
-165.621
-255.527
-312.296
-334.209
-323.03
-283.63
-223.285
-150.722
-75.0778
-4.87285
52.8595
93.2033
113.693
114.334
97.3421
66.6503
27.2753
-15.374
-56.1535
-90.7336
-115.988
-130.194
-133.045
-125.495
-109.474
-87.5338
-62.4591
-36.912
-13.1371
7.24105
23.3174
34.9042
42.4423
46.8475
49.3219
51.1579
53.5619
57.5168
63.6962
72.4326
83.7347
97.343
112.807
129.571
147.049
164.689
182.005
198.591
214.117
228.302
240.888
251.621
260.225
266.411
269.882
270.367
267.647
261.597
252.214
239.64
224.161
206.208
186.323
165.131
143.292
121.455
100.219
80.0874
61.4506
44.5639
29.5485
16.4002
5.00909
-4.81407
-13.3074
-20.7272
-27.3193
-33.2955
-38.8159
-43.9788
-48.8176
-53.3044
-57.3597
-60.8654
-63.6808
-65.6586
-66.6615
-66.5762
-65.3265
-62.8841
-59.2776
-54.5981
-49.0024
-42.7105
-35.999
-29.1872
-22.6179
-16.6326
-11.5438
-7.60602
-4.99009
-3.76302
-3.87711
-5.17021
-7.37797
-10.1575
-13.1204
-15.8711
-18.048
-19.36
-19.6172
-18.7496
-16.813
-13.9816
-10.5268
-6.78587
-3.1239
0.107633
2.61009
4.17083
4.68645
4.17343
2.7652
0.695882
-1.72718
-4.15886
-6.25567
-7.7145
-8.30638
-7.90141
-6.48232
-4.14503
-1.08675
2.41697
6.04317
9.45663
12.3453
14.4521
15.5995
15.7054
14.7884
12.963
10.4253
7.43228
4.27536
1.25304
-1.35613
-3.31691
-4.45566
-4.67198
-3.94359
-2.32445
0.0629055
3.03988
6.38756
9.86445
13.2248
16.2362
18.6955
20.4418
21.3667
21.4205
20.6148
19.0208
16.7653
14.0221
11.0016
7.93738
5.07123
2.63649
0.840049
-0.1563
-0.254512
0.562429
2.21637
4.52548
7.20408
9.87388
12.0889
13.3756
13.2899
11.4873
7.80616
2.35582
-4.39809
-11.5628
-17.7768
-21.2136
-19.6476
-10.5951
8.46224
39.7746
84.9619
144.627
218
302.675
394.508
487.743
575.372
649.747
703.373
729.795
724.457
685.405
613.717
513.58
391.984
258.059
122.139
-5.34049
-114.959
-199.298
-253.68
-276.573
-269.614
-237.263
-186.156
-124.233
-59.7755
-0.462343
47.4318
79.6191
94.1004
91.1748
73.177
43.9978
8.4637
-28.3366
-61.6917
-87.7975
-104.123
-109.583
-104.514
-90.4762
-69.9234
-45.7992
-21.1108
1.45727
19.8474
32.8212
40.026
41.9413
39.7241
34.9827
29.5172
25.0621
23.0642
24.5212
29.8955
39.1078
51.6019
66.4675
82.5989
98.8643
114.264
128.055
139.826
149.519
157.388
163.92
169.71
175.331
181.2
187.481
194.019
200.336
205.672
209.085
209.573
206.229
198.375
185.687
168.265
146.653
121.806
94.999
67.6915
41.3767
17.4213
-3.0755
-19.3868
-31.2165
-38.7035
-42.3758
-43.0608
-41.7674
-39.5549
-37.4066
-36.1239
-36.2512
-38.0401
-41.4524
-46.1993
-51.8076
-57.7021
-63.2922
-68.051
-71.5772
-73.6337
-74.1607
-73.2637
-71.181
-68.2371
-64.7908
-61.1842
-57.7017
-54.5413
-51.8037
-49.4962
-47.5509
-45.8518
-44.2666
-42.6766
-41.0009
-39.2114
-37.3354
-35.4481
-33.6545
-32.0666
-30.7783
-29.8428
-29.257
-28.9546
-28.8102
-28.6517
-28.2817
-27.5029
-26.1444
-24.0865
-21.2788
-17.7523
-13.6209
-9.07459
-4.36341
0.225741
4.39688
7.87446
10.4314
11.9124
12.2498
11.471
9.69523
7.12171
4.00982
0.65359
-2.6464
-5.61076
-8.00564
-9.66138
-10.4836
-10.4561
-9.63669
-8.14637
-6.15449
-3.86161
-1.48138
0.777172
2.72615
4.21336
5.13394
5.43831
5.13535
4.29041
3.01788
1.46886
-0.184999
-1.76969
-3.12707
-4.13101
-4.69955
-4.8017
-4.45813
-3.73603
-2.73873
-1.59176
-0.426952
0.633497
1.49141
2.08426
2.39344
2.44913
2.33219
2.17385
2.15366
2.49602
3.46459
5.35378
8.47575
13.142
19.6392
28.201
38.9782
52.0144
67.2335
84.4466
103.387
123.777
145.42
168.313
192.757
219.434
249.424
284.132
325.1
373.722
430.871
496.497
569.28
646.402
723.527
795.024
854.447
895.217
911.438
898.712
854.836
780.268
678.275
554.734
417.6
276.106
139.803
17.5647
-83.3209
-157.852
-203.734
-221.472
-214.146
-186.904
-146.255
-99.2585
-52.7158
-12.4533
17.2166
33.8124
36.7576
27.2266
7.80102
-18.0032
-46.2679
-73.1943
-95.5526
-111.011
-118.323
-117.352
-108.971
-94.8385
-77.1051
-58.0934
-39.9866
-24.5685
-13.0376
-5.91371
-3.03792
-3.6583
-6.58275
-10.3742
-13.5605
-14.8309
-13.197
-8.0999
0.545552
12.3687
26.6172
42.2729
58.1918
73.2488
86.4688
97.1294
104.824
109.484
111.355
110.937
108.903
105.998
102.934
100.3
98.4871
97.6445
97.6642
98.2024
98.7308
98.6135
97.1986
93.9148
88.3578
80.3564
70.0088
57.6838
43.9866
29.6952
15.6751
2.78419
-8.2188
-16.7515
-22.4615
-25.2511
-25.2728
-22.898
-18.6659
-13.2207
-7.24384
-1.39072
3.76395
7.76795
10.3186
11.2751
10.6567
8.62926
5.48044
1.58781
-2.61963
-6.70316
-10.2568
-12.9469
-14.5459
-14.9554
-14.2163
-12.5048
-10.1123
-7.41283
-4.82027
-2.7416
-1.53081
-1.44979
-2.64066
-5.11287
-8.7462
-13.3088
-18.4876
-23.9264
-29.2672
-34.1886
-38.4379
-41.8523
-44.3681
-46.0178
-46.9157
-47.2369
-47.1901
-46.9907
-46.8362
-46.8864
-47.25
-47.979
-49.0681
-50.4604
-52.0564
-53.7244
-55.3121
-56.6581
-57.6015
-57.9916
-57.6963
-56.6088
-54.6542
-51.7943
-48.0301
-43.4025
-37.9896
-31.9016
-25.2727
-18.2515
-10.9912
-3.64004
3.66573
10.8061
17.6783
24.1941
30.2749
35.8462
40.8304
45.1434
48.6921
51.3768
53.0964
53.7578
53.2882
51.6477
48.8427
44.9367
40.0568
34.3947
28.2017
21.7766
15.4473
9.54812
4.3935
0.250393
-2.68759
-4.32237
-4.6671
-3.85285
-2.12461
0.174467
2.63056
4.79696
6.23994
6.58956
5.59257
3.16476
-0.558795
-5.1769
-9.98013
-13.9166
-15.5724
-13.177
-4.65137
12.2854
39.9311
80.3315
134.935
204.203
287.226
381.424
482.412
584.083
678.973
758.883
815.722
842.457
834.062
788.302
706.24
592.365
454.303
302.132
147.371
1.77714
-123.904
-221.069
-284.13
-311.025
-303.308
-265.817
-205.985
-132.879
-56.1043
15.2888
73.764
114.019
133.392
131.932
112.137
78.4385
36.4843
-7.65072
-48.2406
-80.5714
-101.422
-109.315
-104.537
-88.926
-65.4972
-37.9424
-10.0941
14.5841
33.4179
44.8065
48.3475
44.7984
35.8933
24.0489
12.0047
2.44964
-2.31949
-0.664264
8.23026
24.3057
46.6924
73.867
103.877
134.599
163.994
190.33
212.343
229.325
241.138
248.145
251.099
250.981
248.837
245.616
242.048
238.556
235.223
231.815
227.84
222.645
215.532
205.873
193.217
177.369
158.44
136.85
113.309
88.746
64.2281
40.8547
19.652
1.47482
-13.0717
-23.6839
-30.3781
-33.4754
-33.5553
-31.384
-27.8258
-23.7494
-19.9395
-17.0227
-15.4171
-15.3098
-16.6623
-19.2426
-22.678
-26.5192
-30.3095
-33.6464
-36.2312
-37.8991
-38.6282
-38.5277
-37.8084
-36.7422
-35.6147
-34.6814
-34.1308
-34.0598
-34.4649
-35.2474
-36.2329
-37.1994
-37.9101
-38.1464
-37.7348
-36.5665
-34.6059
-31.8883
-28.5084
-24.603
-20.3294
-15.8451
-11.2902
-6.77549
-2.37687
1.86411
5.93474
9.84207
13.6021
17.229
20.7253
24.0743
27.2356
30.1433
32.7083
34.8231
36.3701
37.2317
37.3029
36.5034
34.7896
32.1655
28.6892
24.4769
19.7008
14.5828
9.38181
4.37743
-0.150294
-3.94254
-6.78266
-8.5141
-9.05311
-8.39459
-6.61044
-3.84045
-0.277262
3.85291
8.31108
12.8653
17.307
21.4626
25.1989
28.4219
31.0718
33.1123
34.5193
35.2673
35.3192
34.6173
33.0808
30.6095
27.0941
22.4338
16.5585
9.45344
1.18111
-8.10198
-18.1389
-28.5777
-38.9904
-48.9029
-57.8338
-65.3359
-71.0339
-74.6504
-76.0131
-75.0351
-71.6659
-65.8132
-57.2435
-45.4784
-29.7097
-8.76383
18.8559
54.8255
100.747
157.8
226.335
305.479
392.82
484.271
574.158
655.588
721.074
763.353
776.306
755.837
700.578
612.307
495.983
359.391
212.416
66.0411
-68.8123
-182.442
-267.382
-319.142
-336.596
-321.97
-280.449
-219.463
-147.76
-74.3741
-7.62935
45.7151
81.0812
96.3963
92.1069
70.9022
37.2017
-3.51436
-45.4431
-83.1698
-112.272
-129.754
-134.268
-126.129
-107.117
-80.1323
-48.7389
-16.6763
12.6097
36.3573
52.7612
61.1058
61.7561
56.0195
45.9074
33.8328
22.2871
13.5349
9.36286
10.9067
18.5711
32.0423
50.3859
72.2085
95.8603
119.65
142.044
161.829
178.217
190.892
199.987
206.005
209.703
211.943
213.545
215.147
217.098
219.398
221.679
223.253
223.194
220.474
214.107
203.308
187.627
167.049
142.042
113.544
82.8941
51.7053
21.7067
-5.43502
-28.2877
-45.7986
-57.3958
-63.0333
-63.1766
-58.7321
-50.9307
-41.1818
-30.9163
-21.4371
-13.7957
-8.70525
-6.49993
-7.14002
-10.2595
-15.2466
-21.3441
-27.7574
-33.7536
-38.7429
-42.3324
-44.3477
-44.8254
-43.9773
-42.1366
-39.6946
-37.0363
-34.4854
-32.2638
-30.4712
-29.0836
-27.9711
-26.9291
-25.7178
-24.1052
-21.9053
-19.0093
-15.4053
-11.1856
-6.54092
-1.74334
2.88053
6.98334
10.2351
12.3618
13.1814
12.6324
10.7911
7.87502
4.22934
0.297635
-3.422
-6.43043
-8.2847
-8.65189
-7.35255
-4.38736
0.0571561
5.62582
11.8335
18.1209
23.9197
28.7187
32.1212
33.8854
33.9432
32.3947
29.4818
25.546
20.9783
16.1698
11.4709
7.16393
3.45194
0.46193
-1.74046
-3.13068
-3.70484
-3.46398
-2.40602
-0.526234
2.17509
5.68091
9.9452
14.8839
20.3713
26.2432
32.3056
38.3461
44.1469
49.4955
54.1919
58.0529
60.9134
62.6267
63.0662
62.1301
59.7486
55.8955
50.6008
43.9629
36.1566
27.4358
18.1268
8.61293
-0.689336
-9.36123
-17.0154
-23.3289
-28.072
-31.1273
-32.4981
-32.3028
-30.7559
-28.1356
-24.7403
-20.8349
-16.5912
-12.0229
-6.92
-0.787731
7.20114
18.2281
33.8074
55.7035
85.7707
125.709
176.749
239.288
312.543
394.276
480.673
566.431
645.085
709.575
752.996
769.439
754.807
707.488
628.764
522.883
396.773
259.401
120.877
-8.60719
-119.853
-205.616
-261.332
-285.515
-279.798
-248.611
-198.56
-137.582
-74.0038
-15.6
31.2151
61.9933
74.5879
69.2017
48.161
15.463
-23.8334
-64.2915
-100.768
-128.993
-146.007
-150.394
-142.326
-123.407
-96.3585
-64.5953
-31.7552
-1.23402
24.2106
42.7464
53.6166
57.1445
54.6025
47.9721
39.6332
32.0261
27.3327
27.2147
32.6375
43.7962
60.1446
80.5158
103.311
126.73
149.004
168.609
184.432
195.865
202.834
205.75
205.409
202.842
199.154
195.355
192.224
190.206
189.364
189.381
189.618
189.216
187.223
182.742
175.058
163.754
148.78
130.476
109.553
87.0151
64.0605
41.9516
21.8829
4.85854
-8.40561
-17.5452
-22.5696
-23.8424
-22.0251
-17.9919
-12.7265
-7.21499
-2.34553
1.17322
2.86845
2.52949
0.204151
-3.83201
-9.12748
-15.1201
-21.2075
-26.8143
-31.4499
-34.7505
-36.504
-36.6556
-35.2971
-32.642
-28.9918
-24.6969
-20.1182
-15.5927
-11.405
-7.76962
-4.82046
-2.61069
-1.11953
-0.265219
0.078023
0.0608327
-0.160798
-0.443748
-0.673175
-0.773785
-0.715852
-0.515273
-0.227523
0.0639244
0.263369
0.280788
0.0493961
-0.459718
-1.22816
-2.18761
-3.22461
-4.19242
-4.92843
-5.27492
-5.10041
-4.31878
-2.90356
-0.895588
1.59714
4.40737
7.32342
10.1092
12.5272
14.3611
15.437
15.638
14.914
13.2833
10.8279
7.68366
4.02703
0.0607445
-4.00019
-7.94082
-11.5568
-14.663
-17.1015
-18.7485
-19.5213
-19.385
-18.3583
-16.5171
-13.9951
-10.9786
-7.6959
-4.39876
-1.33913
1.25827
3.22321
4.46305
4.97765
4.86311
4.30274
3.54567
2.87574
2.57462
2.88442
3.97498
5.92046
8.68864
12.144
16.0644
20.1681
24.1485
27.7103
30.6042
32.6539
33.7736
33.9742
33.357
32.098
30.4225
28.5764
26.7935
25.2667
24.1214
23.3975
23.0402
22.9017
22.7542
22.3157
21.2852
19.3855
16.4081
12.2551
6.96947
0.749692
-6.05649
-12.9801
-19.4783
-24.9939
-29.0189
-31.1466
-31.1015
-28.7337
-23.9709
-16.7296
-6.79744
6.29134
23.354
45.5953
74.5473
111.892
159.166
217.375
286.565
365.439
451.086
538.925
622.899
695.94
750.68
780.319
779.527
745.262
677.351
578.747
455.402
315.757
169.907
28.5515
-98.1346
-201.566
-275.609
-317.142
-326.252
-306.061
-262.219
-202.142
-134.099
-66.2709
-5.88671
41.4625
72.2678
85.2725
81.3719
63.2772
35.0074
1.28072
-33.1086
-63.8575
-87.6006
-102.198
-106.846
-102.011
-89.2279
-70.7792
-49.3293
-27.5466
-7.76799
8.25951
19.5376
25.8656
27.7847
26.4348
23.3506
20.2257
18.6785
20.0483
25.2419
34.6475
48.118
65.0211
84.3437
104.833
125.157
144.056
160.478
173.678
183.272
189.247
191.924
191.893
189.917
186.83
183.428
180.377
178.14
176.936
176.72
177.202
177.894
178.163
177.315
174.669
169.631
161.76
150.813
136.779
119.89
100.608
79.6065
57.7198
35.8896
15.0974
-3.70813
-19.6839
-32.1612
-40.7051
-45.1582
-45.6656
-42.6738
-36.9033
-29.2911
-20.9096
-12.865
-6.18722
-1.7231
-0.0456704
-1.39188
-5.63711
-12.3109
-20.6527
-29.7017
-38.4093
-45.7621
-50.8989
-53.2085
-52.3966
-48.5137
-41.9418
-33.3422
-23.5724
-13.5832
-4.30896
3.43505
9.03601
12.1392
12.6707
10.8262
7.03063
1.87439
-3.96396
-9.79823
-15.0089
-19.1031
-21.7539
-22.8173
-22.3266
-20.4675
-17.5385
-13.9033
-9.94155
-6.00347
-2.373
0.756542
3.29295
5.24121
6.68635
7.76577
8.63515
9.43284
10.248
11.0972
11.9139
12.5514
12.8011
12.4234
11.1878
8.91744
5.5322
1.0827
-4.23025
-10.0562
-15.9179
-21.2552
-25.487
-28.0829
-28.6348
-26.9198
-22.9426
-16.9511
-9.42048
-1.00589
7.53064
15.4109
21.9362
26.5746
29.0283
29.2703
27.5453
24.3351
20.292
16.1504
12.6284
10.333
9.68108
10.8477
13.7463
18.0444
23.2106
28.5867
33.4747
37.2283
39.3347
39.4796
37.5844
33.8129
28.5465
22.3311
15.8034
9.60712
4.30992
0.332758
-2.09911
-2.9776
-2.50364
-1.0516
0.887777
2.77738
4.10672
4.45816
3.558
1.30663
-2.215
-6.762
-11.9611
-17.3589
-22.4729
-26.8362
-30.0233
-31.6503
-31.3422
-28.6707
-23.0711
-13.7581
0.331976
20.5393
48.3916
85.4087
132.805
191.121
259.839
337.064
419.353
501.75
578.083
641.499
685.197
703.264
691.494
648.061
573.956
473.081
351.998
219.342
84.9588
-41.1109
-149.686
-233.401
-287.448
-310.011
-302.363
-268.605
-215.094
-149.654
-80.6497
-16.0546
37.3843
74.7929
93.5619
93.4551
76.4392
46.2737
7.92588
-33.1094
-71.4975
-102.678
-123.34
-131.708
-127.624
-112.43
-88.6714
-59.6886
-29.1298
-0.470007
23.4161
40.5745
50.1534
52.4334
48.7104
41.0578
32.0041
24.1726
19.9322
21.1021
28.744
43.0643
63.4291
88.4845
116.359
144.915
172.02
195.796
214.817
228.24
235.85
238.028
235.646
229.904
222.149
213.688
205.618
198.705
193.315
189.399
186.545
184.062
181.102
176.793
170.36
161.233
149.11
133.996
116.189
96.2456
74.9114
53.0427
31.5209
11.172
-7.30053
-23.3661
-36.6962
-47.1722
-54.8746
-60.0546
-63.0949
-64.462
-64.6571
-64.1693
-63.4356
-62.8104
-62.5472
-62.7931
-63.5938
-64.9097
-66.6377
-68.6357
-70.7472
-72.8201
-74.7196
-76.3321
-77.5627
-78.3258
-78.5353
-78.0951
-76.8951
-74.8145
-71.7323
-67.5441
-62.1828
-55.6388
-47.9757
-39.3387
-29.9531
-20.1129
-10.1595
-0.454665
8.64945
16.8389
23.8617
29.5438
33.7958
36.6107
38.0537
38.2461
37.3473
35.5358
32.9941
29.8972
26.4069
22.6712
18.827
15.0067
11.3441
7.97938
5.06088
2.74202
1.17289
0.486463
0.780929
2.10035
4.41706
7.61919
11.5067
15.7981
20.1479
24.1753
27.4991
29.7761
30.7381
30.2218
28.1884
24.7294
20.0581
14.4887
8.40305
2.21211
-3.68564
-8.94258
-13.2933
-16.5757
-18.7389
-19.8387
-20.0207
-19.4919
-18.4862
-17.2262
-15.8861
-14.561
-13.2477
-11.8385
-10.1326
-7.86302
-4.73813
-0.492186
5.06047
11.9754
20.1394
29.2496
38.8142
48.178
56.5699
63.17
67.1898
67.9577
65.0008
58.1136
47.4064
33.3248
16.637
-1.61249
-20.181
-37.7321
-52.9568
-64.7005
-72.0823
-74.5919
-72.1523
-65.1381
-54.3429
-40.8961
-26.1345
-11.4363
1.96525
13.1736
21.8043
28.1243
33.1315
38.5526
46.7389
60.4477
82.5073
115.387
160.712
218.798
288.275
365.906
446.648
524.005
590.642
639.214
663.276
658.173
621.741
554.735
460.906
346.69
220.575
92.2061
-28.6517
-133.149
-214.27
-267.511
-291.26
-286.826
-258.142
-211.19
-153.226
-91.9116
-34.4579
13.1181
46.5477
63.6211
64.2383
50.2132
24.8747
-7.47242
-42.1487
-74.6883
-101.343
-119.448
-127.624
-125.796
-115.052
-97.3725
-75.282
-51.4632
-28.4004
-8.08662
8.17127
19.835
27.1057
30.8
32.1561
32.6055
33.5437
36.1321
41.1543
48.9431
59.3802
71.9629
85.9196
100.355
114.4
127.339
138.704
148.32
156.298
162.978
168.838
174.381
180.019
185.978
192.228
198.467
204.14
208.51
210.758
210.1
205.905
197.792
185.704
169.929
151.088
130.073
107.96
85.8933
64.9746
46.1535
30.1425
17.3625
7.92127
1.62811
-1.96261
-3.48422
-3.67693
-3.30306
-3.06765
-3.55231
-5.16772
-8.1281
-12.4478
-17.9583
-24.3419
-31.1772
-37.9906
-44.3083
-49.704
-53.8376
-56.4826
-57.5394
-57.0355
-55.1129
-52.005
-48.0071
-43.4426
-38.6309
-33.8587
-29.3583
-25.2948
-21.7625
-18.7896
-16.3499
-14.3793
-12.7931
-11.5038
-10.4337
-9.5246
-8.74043
-8.06573
-7.49947
-7.04669
-6.70968
-6.48067
-6.3375
-6.24317
-6.14927
-6.00272
-5.75436
-5.36778
-4.82666
-4.13903
-3.33759
-2.47599
-1.62147
-0.845261
-0.212141
0.228936
0.451876
0.456979
0.270603
-0.0589078
-0.46826
-0.888086
-1.25225
-1.50623
-1.61324
-1.55751
-1.34403
-0.995415
-0.546295
-0.0365455
0.495425
1.01816
1.51049
1.96225
2.37242
2.74519
3.08487
3.39065
3.65253
3.84928
3.9491
3.91319
3.70197
3.28317
2.64065
1.78265
0.747992
-0.390928
-1.52937
-2.53598
-3.26275
-3.55831
-3.28329
-2.32579
-0.615358
1.86619
5.07855
8.92198
13.2419
17.8389
22.4822
26.9271
30.9334
34.2835
36.799
38.3547
38.888
38.4036
36.9727
34.7273
31.85
28.5603
25.0988
21.7107
18.6296
16.0635
14.1829
13.1118
12.9224
13.632
15.2023
17.5413
20.5059
23.9073
27.5163
31.072
34.2913
36.8809
38.5517
39.0356
38.1039
35.5866
31.3906
25.5169
18.0732
9.2814
-0.520037
-10.8808
-21.2477
-30.976
-39.3389
-45.5307
-48.6589
-47.7271
-41.6132
-29.0573
-8.68108
20.937
61.11
112.805
176.338
251.03
334.905
424.49
514.799
599.559
671.68
723.947
749.851
744.455
705.15
632.199
528.946
401.668
259.049
111.341
-30.6801
-156.841
-258.628
-330.04
-368.15
-373.289
-348.864
-300.826
-236.89
-165.593
-95.3265
-33.4519
14.3996
44.7733
56.5512
50.8331
30.5753
0.05451
-35.7647
-71.873
-103.793
-128.03
-142.353
-145.899
-139.103
-123.482
-101.325
-75.3196
-48.1919
-22.3755
0.234612
18.4346
31.7603
40.4411
45.2749
47.4518
48.355
49.3646
51.691
56.251
63.5969
73.899
86.9741
102.35
119.354
137.206
155.113
172.343
188.282
202.472
214.611
224.551
232.267
237.827
241.351
242.978
242.835
241.019
237.58
232.524
225.811
217.378
207.151
195.075
181.143
165.421
148.07
129.361
109.67
89.4682
69.2827
49.6559
31.0911
14.0001
-1.3396
-14.8108
-26.4591
-36.4711
-45.1289
-52.7501
-59.6216
-65.9392
-71.765
-77.0094
-81.4414
-84.7282
-86.4944
-86.3947
-84.1857
-79.7876
-73.3238
-65.1341
-55.7582
-45.891
-36.3171
-27.8321
-21.1602
-16.8799
-15.3649
-16.7466
-20.9035
-27.4741
-35.8946
-45.4532
-55.3559
-64.7974
-73.0275
-79.4099
-83.467
-84.9078
-83.6389
-79.7585
-73.5352
-65.375
-55.78
-45.3037
-34.5061
-23.914
-13.9877
-5.09893
2.48176
8.5861
13.1405
16.1512
17.686
17.8546
16.7918
14.6455
11.5707
7.73038
3.30032
-1.52327
-6.51753
-11.4308
-15.9874
-19.8999
-22.8891
-24.7092
-25.175
-24.1871
-21.7506
-17.984
-13.1164
-7.47166
-1.44099
4.5524
10.0936
14.8155
18.4334
20.7699
21.7679
21.4905
20.1075
17.8721
15.0896
12.0832
9.16121
6.58847
4.56508
3.21464
2.58167
2.63773
3.29445
4.42098
5.86334
7.46315
9.07365
10.5718
11.8656
12.8965
13.638
14.0902
14.2724
14.215
13.9508
13.5083
12.907
12.1549
11.2493
10.1791
8.93018
7.49067
5.85713
4.03951
2.06447
-0.0237523
-2.16503
-4.28768
-6.31486
-8.17216
-9.79556
-11.1386
-12.1781
-12.9168
-13.3844
-13.6344
-13.7398
-13.7856
-13.8616
-14.0546
-14.4421
-15.0871
-16.0358
-17.3154
-18.9333
-20.8737
-23.0909
-25.4947
-27.9265
-30.1248
-31.6801
-31.9841
-30.1818
-25.1386
-15.4376
0.575673
24.6847
58.6214
103.812
161.066
230.244
309.952
397.332
488.011
576.264
655.404
718.394
758.608
770.657
751.149
699.277
617.119
509.6
384.104
249.757
116.493
-6.00015
-109.3
-187.121
-235.912
-255.125
-247.12
-216.741
-170.614
-116.29
-61.32
-12.41
25.2713
48.5393
56.3674
49.7832
31.5263
5.52921
-23.6986
-51.6956
-74.6046
-89.5968
-95.1225
-90.9741
-78.1726
-58.7084
-35.1843
-10.4171
12.9484
32.7642
47.6058
56.8827
60.8287
60.3862
57.0084
52.4149
48.3362
46.2821
47.3619
52.1736
60.7714
72.7063
87.1276
102.926
118.898
133.903
147.001
157.553
165.267
170.203
172.723
173.408
172.948
172.029
171.215
170.866
171.075
171.654
172.148
171.904
170.151
166.122
159.159
148.828
135
117.895
98.0905
76.4777
54.1774
32.4248
12.4354
-4.73068
-18.2888
-27.8191
-33.3131
-35.1717
-34.1544
-31.2873
-27.7393
-24.6855
-23.1724
-24.004
-27.6605
-34.26
-43.5649
-55.03
-67.8837
-81.2294
-94.152
-105.816
-115.544
-122.865
-127.535
-129.523
-128.977
-126.178
-121.482
-115.272
-107.916
-99.7448
-91.039
-82.0352
-72.9373
-63.9336
-55.2115
-46.9673
-39.4081
-32.7437
-27.172
-22.8583
-19.9134
-18.3735
-18.1862
-19.2044
-21.1905
-23.8308
-26.7588
-29.5846
-31.928
-33.4505
-33.8834
-33.0482
-30.8687
-27.3727
-22.6841
-17.0077
-10.6073
-3.78116
3.16236
9.92783
16.251
21.912
26.7431
30.6311
33.5159
35.3852
36.2682
36.2283
35.356
33.7615
31.5684
28.9079
25.9124
22.7099
19.4185
16.1414
12.9627
9.94459
7.12677
4.52751
2.14724
-0.0260537
-2.01005
-3.82092
-5.46667
-6.94203
-8.22576
-9.28067
-10.0565
-10.4952
-10.5377
-10.1308
-9.23388
-7.82313
-5.89422
-3.46308
-0.565745
2.74128
6.37918
10.2428
14.1954
18.0627
21.6313
24.652
26.8529
27.9633
27.7477
26.0455
22.8128
18.1563
12.3527
5.84629
-0.780798
-6.86363
-11.732
-14.7993
-15.6507
-14.1124
-10.2897
-4.55918
2.49212
10.1799
17.8803
25.214
32.2287
39.5461
48.4338
60.7675
78.8584
105.139
141.732
189.948
249.795
319.599
395.812
473.096
544.708
603.155
641.071
652.168
632.145
579.407
495.472
384.992
255.385
116.102
-22.3715
-149.642
-256.528
-336.022
-383.983
-399.471
-384.706
-344.668
-286.4
-218.116
-148.234
-84.4481
-32.9543
2.09586
18.8621
17.7952
1.35452
-26.4799
-60.8261
-96.5631
-128.955
-154.167
-169.614
-174.13
-167.938
-152.459
-129.992
-103.316
-75.2915
-48.4794
-24.8599
-5.65139
8.74553
18.6887
25.1407
29.4512
33.1121
37.5214
43.788
52.5988
64.1596
78.2123
94.115
110.97
127.776
143.579
157.604
169.344
178.611
185.524
190.465
193.993
196.743
199.317
202.189
205.629
209.659
214.041
218.298
221.765
223.662
223.175
219.543
212.133
200.503
184.445
164.006
139.486
111.42
80.5451
47.7511
14.026
-19.6028
-52.1289
-82.6229
-110.282
-134.472
-154.752
-170.893
-182.879
-190.892
-195.289
-196.571
-195.335
-192.232
-187.923
-183.034
-178.122
-173.652
-169.974
-167.33
-165.847
-165.559
-166.418
-168.311
-171.072
-174.49
-178.305
-182.214
-185.86
-188.839
-190.705
-191.001
-189.283
-185.171
-178.39
-168.811
-156.486
-141.66
-124.767
-106.406
-87.2948
-68.2085
-49.9124
-33.0875
-18.2638
-5.7664
4.31654
12.1402
18.0808
22.6854
26.6008
30.4867
34.9252
40.3373
46.9171
54.594
63.0282
71.6441
79.6979
86.373
90.8915
92.6275
91.2061
86.5746
79.0334
69.222
58.0584
46.639
36.1101
27.5275
21.7223
19.1919
20.0313
23.9152
30.1351
37.686
45.3925
52.0573
56.6124
58.2521
56.5326
51.4233
43.306
32.9228
21.2803
9.52356
-1.20274
-9.89032
-15.7824
-18.4557
-17.8609
-14.3179
-8.46907
-1.19685
6.48182
13.5317
19.0117
22.1702
22.5142
19.8456
14.2632
6.13342
-3.96447
-15.309
-27.1139
-38.6023
-49.0703
-57.9344
-64.7605
-69.2764
-71.3688
-71.0709
-68.5442
-64.0576
-57.9663
-50.6891
-42.6824
-34.4067
-26.2779
-18.6
-11.4766
-4.7041
2.33786
10.7752
22.2738
38.9826
63.3559
97.8424
144.458
204.291
277.021
360.548
450.826
541.981
626.732
697.098
745.307
764.792
751.112
702.676
621.13
511.349
381.018
239.848
98.5336
-32.4133
-143.794
-228.676
-283.047
-306.1
-300.122
-270.039
-222.668
-165.814
-107.316
-54.1676
-11.8241
16.2536
28.7699
26.4934
11.9201
-11.2335
-38.6293
-65.9162
-89.274
-105.832
-113.927
-113.181
-104.408
-89.3815
-70.5004
-50.4042
-31.5968
-16.1213
-5.32799
0.246098
0.876264
-2.45904
-8.27269
-14.8149
-20.3334
-23.3106
-22.649
-17.7828
-8.7073
4.06948
19.6396
36.8498
54.4721
71.3648
86.601
99.5527
109.921
117.717
123.201
126.794
128.982
130.219
130.857
131.093
130.957
130.328
128.966
126.574
122.857
117.577
110.603
101.937
91.7282
80.2611
67.9366
55.2338
42.6686
30.7484
19.9296
10.5809
2.95588
-2.82306
-6.769
-9.02251
-9.83308
-9.5318
-8.49823
-7.12459
-5.7809
-4.7841
-4.37428
-4.69977
-5.81231
-7.67217
-10.162
-13.1075
-16.3019
-19.531
-22.5971
-25.3373
-27.636
-29.4303
-30.7079
-31.4999
-31.8687
-31.8941
-31.6599
-31.2421
-30.7001
-30.0727
-29.3776
-28.6143
-27.7699
-26.8248
-25.7591
-24.5574
-23.2117
-21.7234
-20.1032
-18.3718
-16.56
-14.7092
-12.8717
-11.1112
-9.49979
-8.11373
-7.02558
-6.29426
-5.95431
-6.00632
-6.4108
-7.08722
-7.91909
-8.76503
-9.47441
-9.90542
-9.9428
-9.51245
-8.59081
-7.20739
-5.44024
-3.40511
-1.23992
0.913058
2.92471
4.69397
6.15814
7.29759
8.13481
8.72829
9.16277
9.53729
9.95307
10.5024
11.2604
12.2788
13.5844
15.1785
17.0397
19.1269
21.3829
23.7375
26.1103
28.4128
30.5506
32.4264
33.9432
35.0098
35.5463
35.4907
34.8057
33.4842
31.5523
29.0705
26.1306
22.8496
19.3606
15.8011
12.3005
8.96861
5.8853
3.09436
0.601501
-1.62276
-3.63534
-5.50885
-7.31688
-9.11749
-10.9353
-12.7414
-14.4295
-15.785
-16.4441
-15.8458
-13.1795
-7.34467
3.06028
19.6937
44.3494
78.7447
124.221
181.388
249.75
327.408
410.886
495.171
573.998
640.381
687.35
708.807
700.366
660.072
588.853
490.639
372.098
242.014
110.385
-12.6593
-117.953
-198.283
-249.131
-269.077
-259.831
-225.893
-173.898
-111.753
-47.6685
10.7797
57.4498
88.2046
101.202
96.8884
77.7252
47.6954
11.6776
-25.2298
-58.3451
-83.9268
-99.5313
-104.175
-98.3024
-83.5807
-62.5646
-38.2851
-13.8199
8.09837
25.3931
36.8422
42.1513
41.9043
37.4105
30.4759
23.1357
17.3822
14.9238
16.9987
24.2607
36.7443
53.9034
74.7138
97.8208
121.71
144.881
166.004
184.039
198.316
208.565
214.891
217.725
217.723
215.672
212.372
208.544
204.745
201.32
198.378
195.793
193.237
190.232
186.212
180.6
172.877
162.654
149.722
134.088
115.994
95.9007
74.4593
52.4597
30.7648
10.2382
-8.32718
-24.2735
-37.1275
-46.6316
-52.7536
-55.6759
-55.7643
-53.5231
-49.5409
-44.4331
-38.789
-33.1268
-27.862
-23.2905
-19.5865
-16.8128
-14.9411
-13.8779
-13.4922
-13.6403
-14.1867
-15.0175
-16.0466
-17.2155
-18.4875
-19.838
-21.2446
-22.6765
-24.0881
-25.4145
-26.5729
-27.467
-27.9954
-28.0615
-27.5843
-26.5079
-24.8079
-22.4949
-19.6133
-16.2364
-12.4595
-8.39042
-4.14071
0.182028
4.47956
8.6654
12.6644
16.4102
19.8411
22.8968
25.515
27.6308
29.178
30.0927
30.3181
29.8105
28.5458
26.5254
23.7823
20.3852
16.4427
12.104
7.55757
3.02563
-1.24582
-5.00097
-7.99204
-9.999
-10.8495
-10.4366
-8.73145
-5.79023
-1.75335
3.16286
8.68126
14.4843
20.2376
25.6147
30.3197
34.1074
36.7972
38.2818
38.529
37.5775
35.528
32.5289
28.7611
24.4202
19.7003
14.7793
9.8077
4.90172
0.140191
-4.43363
-8.8067
-12.988
-16.9985
-20.8608
-24.5892
-28.1815
-31.613
-34.8313
-37.7522
-40.2525
-42.1567
-43.2152
-43.0706
-41.2136
-36.9334
-29.2736
-17.0101
1.327
27.3644
62.7135
108.71
166.085
234.607
312.756
397.522
484.37
567.456
640.078
695.337
726.942
730.025
701.856
642.35
554.259
443.034
316.342
183.304
53.5658
-63.7146
-160.795
-232.108
-274.749
-288.642
-276.391
-242.826
-194.336
-138.076
-81.1316
-29.7766
11.1283
38.5159
51.2529
50.0452
37.1396
15.8783
-9.82637
-36.0269
-59.2184
-76.7085
-86.8467
-89.0997
-83.9794
-72.8504
-57.65
-40.5673
-23.7227
-8.88955
2.71209
10.5291
14.6904
15.9285
15.4273
14.6188
14.9624
17.7349
23.8597
33.7949
47.4908
64.4184
83.6602
104.047
124.321
143.298
160.014
173.831
184.494
192.134
197.213
200.43
202.598
204.504
206.783
209.807
213.624
217.935
222.127
225.348
226.624
224.993
219.643
210.043
196.025
177.835
156.12
131.865
106.288
80.6977
56.3491
34.3049
15.3286
-0.178592
-12.1888
-21.0079
-27.1926
-31.4392
-34.463
-36.8871
-39.1572
-41.495
-43.8945
-46.1585
-47.9655
-48.9552
-48.8142
-47.349
-44.5343
-40.5289
-35.659
-30.3727
-25.1746
-20.5514
-16.9012
-14.4779
-13.3581
-13.4363
-14.448
-16.0159
-17.7115
-19.1228
-19.9163
-19.8851
-18.9749
-17.2862
-15.0522
-12.5974
-10.2842
-8.45522
-7.38083
-7.21973
-7.99675
-9.60097
-11.8031
-14.2884
-16.7002
-18.6862
-19.9423
-20.2478
-19.4868
-17.6573
-14.8644
-11.3029
-7.23221
-2.94593
1.25778
5.10352
8.36078
10.8601
12.5028
13.2653
13.198
12.4198
11.1093
9.49227
7.82538
6.37767
5.4091
5.14795
5.76847
7.37055
9.96367
13.4571
17.6578
22.2784
26.9537
31.2676
34.7877
37.1054
37.8795
36.8778
34.0152
29.3806
23.251
16.0859
8.50178
1.22377
-4.98041
-9.38024
-11.3664
-10.529
-6.71885
-0.0837517
8.9284
19.6005
31.01
42.1181
51.8751
59.3289
63.7235
64.5765
61.7251
55.3381
45.8911
34.11
20.8916
7.20869
-5.98589
-17.8488
-27.7179
-35.1619
-40.0017
-42.3051
-42.3549
-40.5948
-37.5587
-33.7901
-29.76
-25.7876
-21.971
-18.1312
-13.7692
-8.04009
0.255697
12.6547
30.9749
57.2033
93.3108
140.984
201.285
274.267
358.617
451.39
547.926
642.008
726.3
793.035
834.888
845.917
822.429
763.635
671.974
553.039
415.106
268.301
123.53
-8.69371
-119.374
-201.952
-252.914
-272.025
-262.156
-228.775
-179.152
-121.418
-63.5963
-12.7212
25.849
48.8604
55.3062
46.2933
24.6758
-5.47598
-39.4906
-72.7122
-101.045
-121.372
-131.807
-131.778
-121.952
-104.022
-80.4048
-53.8908
-27.2907
-3.1177
16.6634
30.8011
38.8262
41.0289
38.3545
32.2376
24.3985
16.6285
10.5871
7.63446
8.71267
14.2858
24.3384
38.4265
55.7692
75.3646
96.1137
116.936
136.863
155.109
171.1
184.484
195.109
202.987
208.25
211.102
211.781
210.525
207.546
203.023
197.096
189.87
181.425
171.823
161.126
149.396
136.707
123.149
108.827
93.8688
78.4248
62.6756
46.8356
31.1583
15.9374
1.50472
-11.7801
-23.5463
-33.4374
-41.1431
-46.4354
-49.2036
-49.4848
-47.4817
-43.5658
-38.2608
-32.2064
-26.1044
-20.6524
-16.4704
-14.031
-13.6005
-15.2011
-18.6008
-23.3334
-28.7501
-34.0961
-38.6052
-41.5989
-42.5776
-41.2899
-37.7698
-32.3362
-25.5521
-18.1507
-10.9379
-4.68518
-0.0287454
2.61184
3.08366
1.51348
-1.71675
-6.02717
-10.7206
-15.0743
-18.4313
-20.2774
-20.2984
-18.4094
-14.7568
-9.69378
-3.73476
2.50517
8.37871
13.2753
16.6838
18.2445
17.7839
15.3324
11.1216
5.56216
-0.795757
-7.31618
-13.3404
-18.2534
-21.5469
-22.8724
-22.0783
-19.2268
-14.5878
-8.61033
-1.87559
4.9647
11.2564
16.4104
19.961
21.6108
21.2549
18.9852
15.0723
9.93053
4.06849
-1.96691
-7.6475
-12.5148
-16.2201
-18.5494
-19.4324
-18.9346
-17.2369
-14.6036
-11.3457
-7.78274
-4.20825
-0.861907
2.08882
4.55653
6.53141
8.06958
9.27476
10.2757
11.203
12.1674
13.2428
14.4559
15.7829
17.153
18.4598
19.5763
20.3726
20.7345
20.5784
19.8625
18.5922
16.8188
14.6326
12.151
9.50399
6.81856
4.20355
1.73792
-0.537119
-2.62056
-4.54767
-6.37887
-8.1802
-9.99411
-11.7992
-13.4584
-14.6564
-14.8322
-13.1141
-8.27519
1.27215
17.4182
42.2131
77.6286
125.228
185.778
258.849
342.493
433.066
525.27
612.465
687.237
742.174
770.756
768.226
732.317
663.708
566.126
446.075
312.204
174.412
42.7836
-73.4733
-166.978
-232.88
-269.237
-277.046
-259.925
-223.518
-174.715
-120.787
-68.5519
-23.6785
9.81451
29.8112
36.1027
30.165
14.7629
-6.55463
-29.9937
-52.0198
-69.7686
-81.3222
-85.8294
-83.4735
-75.3053
-62.9802
-48.444
-33.6161
-20.1146
-9.0568
-0.956556
4.27851
7.25896
8.95769
10.516
13.0446
17.4499
24.3096
33.8126
45.7655
59.6596
74.7809
90.3417
105.611
120.02
133.23
145.151
155.917
165.813
175.188
184.35
193.473
202.531
211.264
219.191
225.655
229.912
231.23
228.998
222.821
212.584
198.493
181.053
161.024
139.33
116.954
94.8238
73.7122
54.1578
36.4268
20.515
6.18962
-6.9355
-19.3044
-31.318
-43.2445
-55.1526
-66.8816
-78.0495
-88.0998
-96.3802
-102.24
-105.134
-104.714
-100.899
-93.9122
-84.277
-72.7764
-60.3783
-48.1369
-37.0827
-28.1145
-21.905
-18.8327
-18.9449
-21.9561
-27.281
-34.0984
-41.4372
-48.2774
-53.6536
-56.7529
-56.9946
-54.0861
-48.0488
-39.2122
-28.1777
-15.7562
-2.88832
9.44546
20.3147
28.9201
34.6596
37.173
36.3652
32.4046
25.7018
16.869
6.66621
-4.06213
-14.455
-23.7017
-31.1039
-36.1273
-38.4396
-37.9315
-34.7192
-29.127
-21.6535
-12.9218
-3.62105
5.55702
13.9787
21.1209
26.6093
30.2396
31.9792
31.9497
30.3955
27.6407
24.0428
19.9487
15.6599
11.4087
7.35081
3.57102
0.100039
-3.06168
-5.91928
-8.46332
-10.6582
-12.4418
-13.7356
-14.4636
-14.5747
-14.0638
-12.9861
-11.461
-9.66351
-7.80374
-6.09795
-4.7351
-3.84497
-3.47323
-3.56794
-3.98004
-4.47838
-4.77758
-4.57535
-3.59462
-1.6255
1.43816
5.5724
10.6108
16.2491
22.0671
27.5669
32.2243
35.5464
37.1297
36.7109
34.204
29.718
23.5541
16.1804
8.18827
0.234008
-7.02743
-13.0098
-17.2564
-19.488
-19.6314
-17.8228
-14.3838
-9.76592
-4.46461
1.09456
6.6892
12.4388
18.9273
27.2831
39.1839
56.7612
82.383
118.317
166.302
227.071
299.919
382.39
470.167
557.238
636.347
699.703
739.88
750.773
728.491
672.03
583.629
468.72
335.48
194.017
55.2911
-70.0773
-172.969
-246.742
-287.888
-296.31
-275.182
-230.421
-169.874
-102.305
-36.3502
20.45
62.4182
86.2257
91.0597
78.4763
51.9822
16.4202
-22.7501
-60.1767
-91.2568
-112.623
-122.428
-120.419
-107.797
-86.9198
-60.8852
-33.0673
-6.663
15.6909
32.1923
42.015
45.3117
43.0951
37.0213
29.1161
21.4833
16.0338
14.2678
17.1309
24.9531
37.4702
53.9136
73.1509
93.8531
114.666
134.361
151.962
166.811
178.606
187.38
193.447
197.319
199.61
200.933
201.814
202.613
203.481
204.34
204.896
204.679
203.104
199.55
193.45
184.367
172.072
156.589
138.222
117.546
95.3707
72.674
50.5166
29.9451
11.8948
-2.89764
-13.9598
-21.1224
-24.5248
-24.5893
-21.9668
-17.4607
-11.9392
-6.24648
-1.12222
2.86154
5.34002
6.16935
5.41477
3.31675
0.241181
-3.37917
-7.10411
-10.5394
-13.3781
-15.4271
-16.6163
-16.9928
-16.7011
-15.9556
-15.0071
-14.1099
-13.493
-13.3366
-13.7573
-14.8014
-16.4456
-18.6049
-21.1443
-23.8946
-26.6689
-29.2795
-31.5527
-33.3429
-34.5419
-35.0861
-34.9591
-34.1907
-32.8518
-31.0458
-28.8973
-26.5392
-24.0994
-21.6887
-19.3911
-17.2592
-15.3121
-13.5398
-11.9104
-10.3798
-8.90259
-7.44249
-5.97999
-4.51694
-3.07712
-1.70292
-0.448835
0.627104
1.47255
2.04933
2.33981
2.35047
2.11196
1.67606
1.10976
0.487648
-0.116503
-0.63763
-1.02582
-1.25038
-1.30113
-1.18677
-0.93072
-0.565185
-0.124454
0.361411
0.871456
1.39653
1.93948
2.5129
3.1351
3.82514
4.59793
5.46037
6.40926
7.43139
8.50552
9.60601
10.7071
11.787
12.831
13.8334
14.7967
15.7298
16.645
17.5539
18.4646
19.3791
20.2928
21.1962
22.0771
22.9247
23.733
24.5031
25.2439
25.97
26.6971
27.436
28.1854
28.9253
29.6125
30.1789
30.5339
30.5702
30.1733
29.2329
27.6547
25.3722
22.3561
18.6208
14.2288
9.29012
3.96051
-1.56535
-7.06263
-12.2884
-16.9959
-20.9499
-23.9434
-25.8118
-26.4456
-25.7975
-23.8825
-20.7674
-16.5468
-11.3026
-5.04494
2.36067
11.2747
22.3567
36.6108
55.3774
80.2493
112.895
154.789
206.869
269.171
340.49
418.161
498.014
574.561
641.414
691.92
719.926
720.581
691.051
631.035
543.001
432.084
305.656
172.611
42.46
-75.6581
-173.911
-246.55
-290.425
-305.2
-293.241
-259.208
-209.425
-151.105
-91.5321
-37.3002
6.30833
35.7488
49.4105
47.5839
32.2246
6.56086
-25.3944
-59.3636
-91.2942
-117.769
-136.299
-145.486
-145.039
-135.682
-118.954
-96.9459
-72.0131
-46.4902
-22.4438
-1.4842
15.3495
27.6274
35.4936
39.5731
40.8359
40.4425
39.5906
39.3813
40.7183
44.2464
50.3292
59.0605
70.3
83.7227
98.8717
115.205
132.136
149.056
165.356
180.436
193.716
204.653
212.759
217.63
218.98
216.672
210.746
201.431
189.142
174.461
158.091
140.801
123.359
106.466
90.6999
76.4709
64.0031
53.3361
44.3506
36.8088
30.4069
24.8278
19.7896
15.0815
10.5842
6.27392
2.21002
-1.48864
-4.67512
-7.2074
-8.97828
-9.93773
-10.1053
-9.57127
-8.48744
-7.0495
-5.47411
-3.97433
-2.73685
-1.90404
-1.56273
-1.74078
-2.41101
-3.50154
-4.91049
-6.52291
-8.22756
-9.93152
-11.5711
-13.1184
-14.5827
-16.0084
-17.4685
-19.0561
-20.8734
-23.0199
-25.5796
-28.6087
-32.1252
-36.1
-40.4516
-45.045
-49.6946
-54.1722
-58.2198
-61.5659
-63.946
-65.1235
-64.9117
-63.1936
-59.9369
-55.2045
-49.1566
-42.0457
-34.2027
-26.0159
-17.9031
-10.2801
-3.52572
2.05015
6.23529
8.93484
10.1802
10.1254
9.02955
7.22939
5.10194
3.02403
1.33224
0.288606
0.0557735
0.684424
2.11404
4.18634
6.66927
9.2881
11.7596
13.8252
15.2788
15.9868
15.8986
15.0457
13.5325
11.518
9.19372
6.7589
4.3968
2.25508
0.431744
-1.03198
-2.15178
-2.99395
-3.66404
-4.29161
-5.01245
-5.94899
-7.18999
-8.77056
-10.6546
-12.7219
-14.7635
-16.4878
-17.5395
-17.532
-16.0921
-12.9123
-7.80414
-0.745401
8.08731
18.3081
29.3372
40.4433
50.8094
59.6148
66.123
69.7651
70.2058
67.3848
61.5269
53.1195
42.8595
31.5782
20.151
9.40561
0.0385228
-7.44899
-12.7887
-15.9528
-17.1315
-16.6849
-15.0771
-12.8019
-10.3099
-7.94589
-5.90226
-4.18814
-2.61221
-0.771707
1.95961
6.44907
13.8265
25.4983
43.135
68.6062
103.839
150.586
210.105
282.783
367.755
462.595
563.158
663.641
756.911
835.086
890.342
915.822
906.559
860.246
777.744
663.24
523.992
369.699
211.542
61.0348
-71.1916
-176.495
-249.095
-286.598
-290.115
-263.977
-215.094
-152.04
-84.0204
-19.8107
33.1655
69.543
86.4265
83.4827
62.7279
28.0618
-15.3759
-61.9301
-106.144
-143.376
-170.248
-184.897
-187.012
-177.674
-159.049
-133.972
-105.508
-76.5306
-49.3878
-25.6734
-6.13714
9.27811
21.2894
31.0515
39.9005
49.1063
59.6705
72.195
86.836
103.338
121.134
139.496
157.684
175.101
191.393
206.505
220.668
234.342
248.108
262.538
278.068
294.885
312.858
331.505
350.024
367.355
382.288
393.586
400.111
400.932
395.414
383.259
364.518
339.568
309.058
273.851
234.952
193.455
150.495
107.217
64.7569
24.225
-13.3098
-46.8483
-75.5013
-98.5427
-115.471
-126.072
-130.466
-129.136
-122.925
-112.989
-100.721
-87.6331
-75.2213
-64.8261
-57.5002
-53.907
-54.2606
-58.3175
-65.4215
-74.5959
-84.6729
-94.4416
-102.798
-108.874
-112.137
-112.436
-110.003
-105.398
-99.4158
-92.9599
-86.9078
-81.9809
-78.6405
-77.0232
-76.9244
-77.8321
-79.0052
-79.5845
-78.7211
-75.704
-70.0685
-61.6714
-50.7237
-37.7752
-23.6558
-9.37983
3.9723
15.3808
24.0048
29.2785
30.9743
29.2252
24.5072
17.5826
9.41301
1.05284
-6.4652
-12.2389
-15.5883
-16.1203
-13.7609
-8.75159
-1.61259
6.92256
15.9925
24.7032
32.2232
37.8662
41.1555
41.8617
40.0133
35.8787
29.9248
22.7579
15.0546
7.49047
0.675543
-4.89824
-8.892
-11.1356
-11.6241
-10.4977
-8.01016
-4.48982
-0.301099
4.19039
8.64471
12.7654
16.3083
19.0841
20.9567
21.841
21.7026
20.5598
18.4881
15.6257
12.1756
8.40293
4.62413
1.18609
-1.56302
-3.30926
-3.80986
-2.92634
-0.648287
2.89649
7.44804
12.6365
18.0183
23.1216
27.4952
30.7546
32.6186
32.9321
31.6726
28.9396
24.9308
19.9086
14.1633
7.97873
1.60417
-4.76262
-10.9816
-16.9661
-22.67
-28.0698
-33.1457
-37.8638
-42.1629
-45.9473
-49.0862
-51.4192
-52.7651
-52.9304
-51.7104
-48.8774
-44.1482
-37.1291
-27.2442
-13.6616
4.75507
29.4368
62.0079
104.072
156.888
220.97
295.675
378.863
466.724
553.848
633.568
698.579
741.761
757.093
740.53
690.694
609.264
500.992
373.313
235.614
98.2293
-28.6783
-136.22
-217.711
-269.319
-290.35
-283.153
-252.676
-205.737
-150.125
-93.6505
-43.2655
-4.35161
19.7421
27.8809
21.0449
1.98604
-25.295
-56.1716
-86.0268
-110.823
-127.543
-134.457
-131.207
-118.709
-98.9094
-74.4371
-48.2094
-23.0413
-1.30945
15.2945
25.8996
30.4751
29.7442
25.0151
17.958
10.3652
3.92213
0.0209678
-0.369047
3.23686
10.8432
22.0356
36.083
52.0632
68.9928
85.9432
102.132
116.979
130.131
141.449
150.967
158.841
165.282
170.494
174.622
177.712
179.7
180.412
179.589
176.931
172.142
164.992
155.36
143.276
128.946
112.752
95.2326
77.0459
58.912
41.5479
25.6003
11.5848
-0.159811
-9.49625
-16.4892
-21.382
-24.5523
-26.4544
-27.5548
-28.2724
-28.9281
-29.7133
-30.6789
-31.7454
-32.7321
-33.3991
-33.497
-32.8152
-31.2224
-28.6951
-25.3288
-21.3322
-17.0058
-12.7076
-8.81152
-5.66374
-3.54262
-2.62701
-2.97656
-4.5259
-7.09309
-10.4006
-14.1064
-17.8404
-21.2438
-24.0044
-25.886
-26.7488
-26.5573
-25.3775
-23.3626
-20.7298
-17.7319
-14.6262
-11.6453
-8.97293
-6.72711
-4.95308
-3.62529
-2.65835
-1.92451
-1.27522
-0.563808
0.333112
1.49776
2.95813
4.68089
6.57077
8.47688
10.2058
11.541
12.2671
12.1966
11.1972
9.21488
6.29
2.56441
-1.72354
-6.25571
-10.6618
-14.555
-17.5731
-19.418
-19.8923
-18.9244
-16.5822
-13.0708
-8.71433
-3.92435
0.843437
5.1389
8.56844
10.8414
11.8058
11.4697
10.0034
7.72262
5.05387
2.48465
0.505665
-0.448913
-0.0552234
1.8587
5.28846
10.0484
15.7865
22.0165
28.164
33.6222
37.8105
40.2321
40.5253
38.5023
34.174
27.7556
19.6533
10.4317
0.76453
-8.62701
-17.0433
-23.875
-28.6645
-31.1542
-31.3146
-29.3488
-25.6721
-20.8647
-15.5993
-10.5458
-6.25604
-3.03319
-0.797216
1.03971
3.66354
8.88523
19.0725
36.9606
65.332
106.579
162.195
232.269
315.077
406.862
501.896
592.837
671.401
729.266
759.086
755.496
715.935
641.163
535.383
405.932
262.576
116.481
-20.9878
-139.495
-230.833
-289.751
-314.423
-306.49
-270.719
-214.303
-145.927
-74.7116
-9.17752
43.654
78.9222
94.2887
89.9797
68.5266
34.2609
-7.35709
-50.4833
-89.6124
-120.195
-139.089
-144.797
-137.494
-118.855
-91.7137
-59.6268
-26.3838
4.45894
29.9774
48.1672
58.0979
59.9299
54.8047
44.6322
31.8106
18.9155
8.39428
2.30085
2.09478
8.5215
21.5797
40.5724
64.2286
90.8779
118.653
145.697
170.353
191.311
207.713
219.187
225.835
228.16
226.965
223.221
217.927
211.99
206.115
200.737
195.983
191.685
187.417
182.574
176.468
168.433
157.939
144.674
128.617
110.062
89.6127
68.1293
46.647
26.2674
8.03992
-7.15426
-18.699
-26.3099
-30.0613
-30.3711
-27.9433
-23.6786
-18.562
-13.5436
-9.4271
-6.78088
-5.8826
-6.70369
-8.9353
-12.0511
-15.3972
-18.2966
-20.1528
-20.5376
-19.2529
-16.3564
-12.15
-7.13331
-1.93008
2.80186
6.46362
8.5986
8.95512
7.52036
4.52211
0.398954
-4.25606
-8.77026
-12.4746
-14.785
-15.2716
-13.7089
-10.1009
-4.68017
2.11946
9.71167
17.4224
24.5626
30.501
34.7287
36.908
36.9018
34.7802
30.8045
25.3912
19.062
12.3843
5.91121
0.126624
-4.59857
-8.03447
-10.1027
-10.8694
-10.5231
-9.34059
-7.64632
-5.7707
-4.01163
-2.6042
-1.70109
-1.36508
-1.57355
-2.23302
-3.20126
-4.31322
-5.40727
-6.34825
-7.04469
-7.45832
-7.60542
-7.55032
-7.39272
-7.251
-7.24416
-7.47509
-8.0175
-8.90778
-10.1425
-11.6808
-13.4507
-15.3567
-17.2877
-19.1235
-20.7386
-22.0042
-22.7895
-22.9628
-22.3952
-20.9683
-18.5868
-15.1954
-10.8
-5.48822
0.552328
7.02474
13.5249
19.5593
24.5785
28.0261
29.3974
28.302
24.5221
18.0581
9.15372
-1.70483
-13.8174
-26.3256
-38.2901
-48.7818
-56.9767
-62.2428
-64.2093
-62.8074
-58.2782
-51.1415
-42.1258
-32.0615
-21.7426
-11.7674
-2.37246
6.7179
16.3997
28.2251
44.3351
67.2677
99.6352
143.687
200.807
271.012
352.556
441.719
532.866
618.82
691.521
742.93
766.032
755.823
710.109
630
519.998
387.663
242.871
96.7818
-39.3805
-155.544
-243.867
-299.529
-321.151
-310.794
-273.556
-216.84
-149.38
-80.1827
-17.496
32.0643
64.1286
76.879
71.0268
49.4893
16.8276
-21.4681
-59.7461
-92.9161
-117.039
-129.726
-130.303
-119.749
-100.428
-75.6686
-49.2459
-24.8601
-5.65773
6.13597
9.44041
4.38236
-7.79611
-24.9601
-44.3962
-63.174
-78.5064
-88.068
-90.2366
-84.237
-70.1789
-48.9925
-22.2773
7.91253
39.3164
69.7211
97.1898
120.244
137.98
150.115
156.957
159.309
158.327
155.344
151.686
148.502
146.631
146.511
148.155
151.173
154.856
158.291
160.5
160.581
157.832
151.84
142.534
130.182
115.351
98.8316
81.5345
64.3836
48.214
33.6898
21.2503
11.0892
3.16647
-2.75227
-7.03597
-10.119
-12.4327
-14.3459
-16.1235
-17.9046
-19.7027
-21.4255
-22.9086
-23.958
-24.3937
-24.0887
-22.9972
-21.1691
-18.7493
-15.9625
-13.0862
-10.4157
-8.22621
-6.73711
-6.08269
-6.29326
-7.28872
-8.88553
-10.8158
-12.7563
-14.3637
-15.3121
-15.3278
-14.2185
-11.8931
-8.37086
-3.77918
1.65878
7.645
13.8331
19.8575
25.3622
30.0262
33.5837
35.8384
36.6692
36.0315
33.9514
30.5179
25.873
20.2027
13.7306
6.71286
-0.563994
-7.7857
-14.6153
-20.7032
-25.7035
-29.2979
-31.2252
-31.3131
-29.509
-25.9043
-20.746
-14.4343
-7.50047
-0.568372
5.70016
10.6696
13.7979
14.6994
13.1942
9.33832
3.4299
-4.0117
-12.2919
-20.6087
-28.1347
-34.1058
-37.9043
-39.1289
-37.6405
-33.5787
-27.3462
-19.5613
-10.9849
-2.42891
5.34063
11.6949
16.2161
18.7438
19.3885
18.5102
16.6647
14.5254
12.7891
12.079
12.8567
15.3545
19.5367
25.0939
31.4721
37.9326
43.6357
47.7381
49.4931
48.3405
43.9771
36.3991
25.9116
13.1045
-1.20129
-16.0319
-30.3524
-43.1637
-53.593
-60.9708
-64.8871
-65.2223
-62.1514
-56.1198
-47.7902
-37.9619
-27.4626
-17.0164
-7.09437
2.23981
11.4693
21.7204
34.7834
53.0261
79.1756
115.967
165.678
229.608
307.577
397.541
495.416
595.183
689.292
769.369
827.115
855.323
848.833
805.315
725.736
614.438
478.813
328.589
174.831
28.7789
-99.327
-201.294
-271.758
-308.62
-313.097
-289.388
-244.029
-185.023
-120.864
-59.5739
-7.87826
29.4105
49.7303
52.82
40.4983
16.224
-15.4923
-49.7388
-81.8327
-107.858
-125.051
-132.012
-128.722
-116.393
-97.1787
-73.8027
-49.1477
-25.8689
-6.0729
8.90407
18.5981
23.3996
24.4268
23.317
21.9668
22.258
25.8039
33.7441
46.6117
64.2817
86.0057
110.521
136.221
161.359
184.264
203.535
218.199
227.808
232.46
232.759
229.709
224.553
218.599
213.032
208.763
206.307
205.736
206.683
208.41
209.92
210.105
207.895
202.393
192.987
179.419
161.801
140.596
116.556
90.6307
63.866
37.3027
11.8837
-11.6155
-32.63
-50.8205
-66.0613
-78.4063
-88.0411
-95.2297
-100.263
-103.417
-104.925
-104.966
-103.666
-101.119
-97.4044
-92.6152
-86.8806
-80.3801
-73.3487
-66.0707
-58.8637
-52.0548
-45.953
-40.8217
-36.8543
-34.1577
-32.7439
-32.5317
-33.3578
-34.9949
-37.1751
-39.6149
-42.0381
-44.1935
-45.867
-46.8848
-47.1114
-46.4432
-44.8016
-42.1281
-38.3854
-33.563
-27.6894
-20.8463
-13.1831
-4.92625
3.61863
12.0759
20.0205
27.0087
32.6164
36.4805
38.3377
38.0556
35.652
31.2991
25.3122
18.1238
10.2449
2.22018
-5.41997
-12.2043
-17.7582
-21.8298
-24.3029
-25.1971
-24.6536
-22.9114
-20.2754
-17.0812
-13.6591
-10.3024
-7.24177
-4.62857
-2.52713
-0.916479
0.300352
1.28119
2.22595
3.35622
4.89454
7.04457
9.97237
13.7894
18.5376
24.1765
30.5743
37.5037
44.6444
51.5945
57.8922
63.0487
66.5896
68.1032
67.2888
63.9998
58.2747
50.3505
40.6548
29.7765
18.417
7.3264
-2.76631
-11.2228
-17.5551
-21.4696
-22.8898
-21.956
-19.0033
-14.5202
-9.09269
-3.33928
2.15823
6.92592
10.6686
13.34
15.2109
16.9309
19.5746
24.6557
34.0894
50.0793
74.9112
110.651
158.766
219.705
292.52
374.595
461.565
547.492
625.304
687.477
726.89
737.733
716.344
661.832
576.406
465.314
336.411
199.385
64.7493
-57.2827
-157.884
-230.529
-271.626
-280.794
-260.759
-216.903
-156.529
-87.9562
-19.5535
41.1655
88.2804
117.963
128.698
121.22
98.1999
63.7461
22.7862
-19.577
-58.6609
-90.6849
-113.092
-124.69
-125.615
-117.143
-101.379
-80.8953
-58.3448
-36.1207
-16.0878
0.582995
13.4691
22.8457
29.548
34.7739
39.8609
46.0674
54.3885
65.4257
79.3228
95.7699
114.068
133.241
152.173
169.761
185.04
197.3
206.143
211.516
213.681
213.166
210.676
207.002
202.918
199.096
196.041
194.045
193.171
193.261
193.963
194.768
195.065
194.193
191.494
186.37
178.333
167.052
152.393
134.451
113.557
90.2787
65.3933
39.8377
14.6439
-9.1409
-30.5384
-48.7199
-63.0739
-73.2543
-79.2031
-81.1455
-79.559
-75.1209
-68.6388
-60.9738
-52.9634
-45.3521
-38.7357
-33.5241
-29.9251
-27.9476
-27.4246
-28.0494
-29.4222
-31.1001
-32.6457
-33.6681
-33.8545
-32.9894
-30.9615
-27.7618
-23.4745
-18.2641
-12.3633
-6.06099
0.308912
6.37922
11.7646
16.0818
18.9766
20.1557
19.4217
16.7065
12.0966
5.84737
-1.62098
-9.74499
-17.8584
-25.2474
-31.2157
-35.153
-36.5986
-35.2947
-31.2222
-24.6142
-15.9465
-5.9016
4.68888
14.9204
23.9029
30.8502
35.1624
36.4903
34.7753
30.2579
23.4536
15.0987
6.07134
-2.7035
-10.3525
-16.1461
-19.5731
-20.3895
-18.6365
-14.6276
-8.90663
-2.18293
4.74867
11.0941
16.1443
19.3491
20.3742
19.1374
15.8186
10.8451
4.85305
-1.37181
-6.96778
-11.0805
-12.9491
-11.9891
-7.86555
-0.54816
9.65741
22.11
35.8685
49.7626
62.4958
72.77
79.4204
81.545
78.6133
70.5398
57.7131
40.9736
21.5424
0.906203
-19.3286
-37.5958
-52.5267
-63.0838
-68.6585
-69.1179
-64.7975
-56.437
-45.0637
-31.8338
-17.8408
-3.91161
9.59132
22.9317
37.0953
53.7867
75.2985
104.24
143.134
193.91
257.381
332.763
417.365
506.522
593.826
671.67
732.05
767.533
772.25
742.764
678.683
582.917
461.521
323.149
178.176
37.6
-88.1194
-190.161
-262.228
-301.128
-306.98
-283.045
-235.208
-171.2
-99.6568
-29.1374
32.783
80.2429
109.578
119.518
111.102
87.3309
52.64
12.2474
-28.521
-64.8549
-92.9617
-110.399
-116.219
-110.913
-96.2064
-74.7124
-49.5253
-23.793
-0.326501
18.7112
32.0072
39.1766
40.7184
37.8657
32.3567
26.1627
21.2101
19.1312
21.0734
27.5866
38.5959
53.4577
71.0865
90.1283
109.157
126.861
142.206
154.535
163.616
169.617
173.033
174.563
174.974
174.96
175.029
175.426
176.109
176.766
176.885
175.85
173.047
167.972
160.316
150.023
137.297
122.585
106.52
89.8368
73.2823
57.5271
43.0916
30.2978
19.2526
9.86186
1.87152
-5.07123
-11.3482
-17.3019
-23.18
-29.0982
-35.0275
-40.8053
-46.167
-50.7927
-54.3601
-56.5969
-57.3239
-56.4834
-54.1505
-50.5254
-45.9097
-40.6709
-35.1998
-29.8671
-24.9858
-20.7813
-17.3755
-14.7839
-12.9248
-11.6415
-10.7302
-9.97286
-9.16942
-8.16554
-6.87288
-5.27989
-3.45201
-1.52181
0.32935
1.89587
2.97562
3.39784
3.04798
1.88726
-0.0354621
-2.58045
-5.52341
-8.57107
-11.3855
-13.6158
-14.9343
-15.0752
-13.8702
-11.2769
-7.39592
-2.47156
3.12448
8.92715
14.4262
19.1234
22.5905
24.5219
24.7716
23.3721
20.5284
16.591
12.0087
7.26936
2.83703
-0.905385
-3.69919
-5.43271
-6.14108
-5.98427
-5.20782
-4.0936
-2.90897
-1.86236
-1.07197
-0.551459
-0.213764
0.10893
0.633154
1.58567
3.16435
5.50387
8.65018
12.5467
17.0335
21.859
26.703
31.2081
35.0155
37.8026
39.3152
39.3941
37.9896
35.1659
31.0919
26.0221
20.269
14.1701
8.0549
2.21272
-3.13238
-7.8385
-11.8523
-15.2042
-17.9919
-20.3535
-22.4312
-24.3255
-26.0414
-27.4284
-28.1153
-27.447
-24.4317
-17.7142
-5.59294
13.8964
42.8145
83.0602
136.03
202.225
280.866
369.587
464.282
559.191
647.248
720.689
771.873
794.212
783.076
736.542
655.853
545.507
412.947
267.863
121.203
-15.9845
-133.733
-224.203
-282.472
-306.958
-299.448
-264.738
-209.94
-143.559
-74.4663
-10.8917
40.4384
74.9266
90.434
87.2961
68.0468
36.9078
-0.878189
-39.7734
-74.6404
-101.324
-117.058
-120.667
-112.557
-94.5056
-69.3187
-40.3829
-11.1968
15.0685
35.9256
49.8101
56.1839
55.5048
49.079
38.8265
26.9956
15.8677
7.48807
3.45205
4.76759
11.8017
24.3079
41.5229
62.31
85.3285
109.202
132.664
154.667
174.447
191.534
205.724
217.022
225.561
231.522
235.066
236.283
235.17
231.636
225.529
216.687
204.992
190.431
173.144
153.452
131.866
109.071
85.8783
63.1674
41.8085
22.5854
6.12347
-7.16692
-17.125
-23.8484
-27.6745
-29.1388
-28.9134
-27.7344
-26.3273
-25.3365
-25.2681
-26.4496
-29.0092
-32.876
-37.7974
-43.3726
-49.0972
-54.415
-58.7719
-61.6691
-62.7104
-61.6421
-58.3801
-53.0246
-45.859
-37.3317
-28.0238
-18.6017
-9.75995
-2.15973
3.63266
7.19924
8.31092
6.95007
3.31253
-2.21158
-9.07607
-16.632
-24.1896
-31.0824
-36.726
-40.6648
-42.6038
-42.4217
-40.1665
-36.0373
-30.354
-23.5234
-16.0025
-8.26478
-0.770704
6.05701
11.8526
16.3225
19.256
20.5337
20.1322
18.1252
14.6811
10.0553
4.57646
-1.37227
-7.37834
-13.0282
-17.9374
-21.7793
-24.3092
-25.381
-24.9548
-23.0941
-19.9536
-15.7584
-10.7775
-5.29546
0.41573
6.1195
11.6309
16.824
21.6298
26.0262
30.0227
33.6416
36.9001
39.7959
42.2986
44.348
45.8588
46.7319
46.8681
46.1844
44.6283
42.1897
38.9072
34.8701
30.2135
25.1099
19.7563
14.3594
9.121
4.22373
-0.179364
-3.97233
-7.0794
-9.46398
-11.124
-12.0843
-12.3867
-12.0777
-11.1947
-9.74631
-7.68748
-4.88404
-1.06642
4.22597
11.7025
22.3668
37.5296
58.7634
87.776
126.19
175.235
235.377
305.947
384.845
468.391
551.399
627.512
689.78
731.435
746.749
731.854
685.399
608.914
506.829
386.113
255.592
125.013
3.99719
-98.9984
-177.555
-227.909
-249.239
-243.593
-215.488
-171.25
-118.182
-63.6785
-14.4007
24.4035
49.3511
59.1198
54.382
37.5103
12.1087
-17.5556
-47.1424
-72.7768
-91.4745
-101.415
-102.039
-93.9873
-78.8874
-59.0459
-37.0841
-15.572
3.29339
17.9307
27.5128
31.9954
32.0423
28.8672
24.0215
19.1589
15.813
15.212
18.1538
24.9492
35.4353
49.0473
64.9346
82.0989
99.5345
116.35
131.858
145.626
157.479
167.468
175.808
182.796
188.723
193.803
198.117
201.579
203.942
204.823
203.753
200.244
193.855
184.266
171.328
155.108
135.907
114.26
90.904
66.739
42.7629
19.9993
-0.580443
-18.1336
-32.016
-41.8385
-47.5043
-49.2242
-47.5038
-43.1049
-36.9799
-30.186
-23.7865
-18.749
-15.8509
-15.6036
-18.2033
-23.5148
-31.0902
-40.2207
-50.0161
-59.5025
-67.7284
-73.8654
-77.2944
-77.6652
-74.9266
-69.3221
-61.3537
-51.721
-41.2413
-30.7628
-21.0797
-12.8595
-6.58813
-2.53761
-0.757403
-1.08754
-3.19015
-6.59442
-10.7495
-15.0798
-19.0381
-22.1517
-24.0589
-24.5341
-23.4987
-21.0201
-17.2969
-12.6343
-7.41053
-2.03863
3.07311
7.55862
11.1257
13.5789
14.8325
14.9111
13.9406
12.1292
9.74149
7.06978
4.40415
2.00601
0.0868124
-1.20587
-1.7941
-1.66727
-0.87272
0.498964
2.33157
4.50135
6.89322
9.41294
11.9942
14.5998
17.2172
19.85
22.5057
25.1827
27.8587
30.4814
32.9638
35.1851
36.9971
38.2355
38.7355
38.3504
36.9699
34.5376
31.0647
26.6375
21.4193
15.6429
9.59621
3.60136
-2.01235
-6.93775
-10.9193
-13.7797
-15.4393
-15.9279
-15.383
-14.0363
-12.1858
-10.1545
-8.23655
-6.63349
-5.38388
-4.2915
-2.85981
-0.242882
4.77356
13.7452
28.4803
50.8763
82.6796
125.178
178.859
243.079
315.811
393.535
471.329
543.184
602.546
643.021
659.167
647.248
605.851
536.242
442.407
330.753
209.487
87.7679
-25.2843
-121.567
-194.854
-241.414
-260.324
-253.438
-225.034
-181.197
-129.018
-75.7266
-27.8684
9.38677
32.7168
40.8647
34.5917
16.3923
-9.97474
-40.0664
-69.3667
-93.8506
-110.436
-117.275
-113.874
-101.019
-80.5682
-55.1132
-27.5907
-0.88315
22.5356
40.8701
53.1629
59.3332
60.1029
56.8286
51.2712
45.3368
40.8266
39.2236
41.5406
48.2424
59.2414
73.963
91.4611
110.567
130.047
148.75
165.726
180.307
192.138
201.168
207.598
211.808
214.256
215.385
215.54
214.896
213.432
210.925
206.991
201.141
192.878
181.787
167.627
150.406
130.428
108.292
84.8654
61.2061
38.4666
17.7737
0.109346
-13.7978
-23.5531
-29.1396
-30.9192
-29.5897
-26.1033
-21.557
-17.069
-13.6542
-12.1171
-12.9712
-16.3957
-22.2316
-30.0166
-39.0527
-48.4959
-57.4582
-65.1072
-70.7545
-73.9225
-74.3841
-72.172
-67.5599
-61.0195
-53.1586
-44.6502
-36.1597
-28.2795
-21.4764
-16.0575
-12.1566
-9.74063
-8.63368
-8.55465
-9.16211
-10.1012
-11.0461
-11.7345
-11.9897
-11.7293
-10.9615
-9.76939
-8.28833
-6.67794
-5.09468
-3.66765
-2.48072
-1.56281
-0.886828
-0.37678
0.0784456
0.606882
1.3335
2.36114
3.75487
5.53163
7.65626
10.0443
12.5707
15.0836
17.4202
19.4248
20.9635
21.9373
22.29
22.0105
21.1307
19.7187
17.8688
15.6905
13.2987
10.8054
8.31594
5.92846
3.73648
1.83338
0.316457
-0.711456
-1.14474
-0.88339
0.153152
2.00812
4.66858
8.04932
11.9835
16.2234
20.4524
24.3093
27.4212
29.442
30.0912
29.1867
26.6686
22.6086
17.2037
10.7567
3.64377
-3.72394
-10.9402
-17.6395
-23.524
-28.3796
-32.0797
-34.5787
-35.8969
-36.1001
-35.2756
-33.5048
-30.8307
-27.2174
-22.4985
-16.3142
-8.04339
3.25537
18.8716
40.4114
69.6794
108.457
158.182
219.552
292.122
373.964
461.479
549.444
631.323
699.849
747.816
768.979
758.928
715.816
640.783
538.043
414.565
279.402
142.742
14.8165
-95.2075
-180.194
-235.743
-260.562
-256.451
-227.934
-181.586
-125.172
-66.6886
-13.4563
28.6431
55.7009
66.0384
60.1783
40.5578
11.042
-23.6873
-58.7802
-89.8218
-113.321
-127.037
-130.117
-123.046
-107.445
-85.7402
-60.7731
-35.3993
-12.1295
7.14639
21.3261
30.1428
34.0998
34.3127
32.2896
29.6833
28.0514
28.6551
32.3188
39.3649
49.6226
62.5064
77.1443
92.5354
107.712
121.883
134.534
145.483
154.871
163.106
170.756
178.423
186.61
195.604
205.389
215.613
225.598
234.409
240.962
244.159
243.036
236.897
225.421
208.729
187.39
162.377
134.977
106.655
78.9081
53.114
30.3987
11.5406
-3.08128
-13.4902
-20.0681
-23.4751
-24.5444
-24.168
-23.1891
-22.3128
-22.045
-22.664
-24.2228
-26.5789
-29.4438
-32.4428
-35.177
-37.2793
-38.4593
-38.5328
-37.4352
-35.2199
-32.0425
-28.1369
-23.7845
-19.2825
-14.9141
-10.9232
-7.49629
-4.75198
-2.73828
-1.43737
-0.776177
-0.641466
-0.897246
-1.40272
-2.02874
-2.671
-3.25861
-3.75687
-4.16396
-4.50154
-4.80065
-5.08473
-5.35292
-5.56709
-5.64592
-5.46879
-4.89019
-3.76351
-1.97072
0.547033
3.76386
7.55407
11.6916
15.8656
19.7122
22.8571
24.9657
25.7919
25.2186
23.2842
20.1891
16.2815
12.0233
7.94032
4.56218
2.36111
1.69532
2.76501
5.58577
9.98281
15.6069
21.9702
28.499
34.5964
39.7089
43.3897
45.349
45.4885
43.9119
40.9126
36.9378
32.5328
28.2741
24.6968
22.2289
21.1381
21.5001
23.1917
25.9089
29.2072
32.5594
35.4205
37.2935
37.7854
36.6492
33.8058
29.3455
23.5104
16.6614
9.23566
1.69879
-5.50095
-11.973
-17.4157
-21.6371
-24.5646
-26.2453
-26.8366
-26.5918
-25.8382
-24.9502
-24.3155
-24.2924
-25.1561
-27.0307
-29.8096
-33.0648
-35.9586
-37.1709
-34.8681
-26.7402
-10.1343
17.6972
59.2334
116.23
189.228
277.107
376.774
483.077
589.011
686.236
765.867
819.463
840.076
823.216
767.583
675.448
552.611
407.918
252.398
98.12
-43.0987
-160.944
-247.679
-298.903
-313.901
-295.559
-249.868
-185.091
-110.714
-36.3181
29.4937
79.9725
110.825
120.48
110.011
82.7627
43.7301
-1.19005
-45.9915
-85.2857
-114.885
-132.18
-136.293
-128.001
-109.464
-83.8163
-54.677
-25.6518
0.110857
20.2622
33.462
39.442
38.9314
33.4682
25.1295
16.2237
8.98313
5.29553
6.50098
13.273
25.5891
42.7864
63.6869
86.7733
110.389
132.934
153.046
169.721
182.398
190.968
195.733
197.316
196.538
194.283
191.365
188.422
185.838
183.711
181.869
179.919
177.325
173.509
167.943
160.239
150.202
137.868
123.493
107.525
90.5496
73.2183
56.1807
40.0187
25.1959
12.0267
0.664798
-8.88824
-16.7581
-23.162
-28.3669
-32.6473
-36.2487
-39.3584
-42.0883
-44.4701
-46.4622
-47.9664
-48.8524
-48.9849
-48.252
-46.5881
-43.9914
-40.5322
-36.3517
-31.6519
-26.6771
-21.6909
-16.9504
-12.6809
-9.05596
-6.18313
-4.09903
-2.77299
-2.11877
-2.01233
-2.31249
-2.88162
-3.60321
-4.39412
-5.21037
-6.04614
-6.92693
-7.89851
-9.0137
-10.3187
-11.8406
-13.5774
-15.4907
-17.5021
-19.4932
-21.3106
-22.7755
-23.6973
-23.893
-23.2071
-21.5336
-18.8354
-15.1591
-10.6415
-5.50776
-0.0579554
5.35587
10.3613
14.6022
17.7765
19.6701
20.1827
19.3422
17.3052
14.3426
10.8127
7.12454
3.69462
0.903803
-0.942019
-1.64228
-1.11981
0.575066
3.27473
6.71689
10.5768
14.505
18.1651
21.2696
23.6065
25.0578
25.6062
25.3317
24.3992
23.0384
21.5208
20.1335
19.1525
18.8181
19.3114
20.7337
23.0898
26.2771
30.0817
34.1835
38.1732
41.5807
43.9148
44.7107
43.5817
40.2686
34.6797
26.9173
17.2828
6.26222
-5.5121
-17.3178
-28.4126
-38.1114
-45.8591
-51.2935
-54.2859
-54.9563
-53.6573
-50.9248
-47.3984
-43.714
-40.3747
-37.6112
-35.2433
-32.5626
-28.2578
-20.4091
-6.5781
15.9895
50.0409
97.8891
160.923
239.119
330.641
431.614
536.154
636.704
724.666
791.295
828.725
831.016
795.044
721.095
613.061
478.19
326.406
169.284
18.8134
-113.882
-219.71
-292.516
-329.608
-331.881
-303.51
-251.294
-183.752
-110.073
-39.0757
21.7048
66.7164
92.8
99.2935
87.8427
61.9704
26.4754
-13.2519
-51.9095
-84.8827
-108.7
-121.309
-122.165
-112.127
-93.2138
-68.2463
-40.4326
-12.9534
11.412
30.5757
43.326
49.3925
49.3953
44.6946
37.1633
28.9183
22.0412
18.3257
19.0768
24.9847
36.0809
51.7786
70.986
92.2732
114.071
134.875
153.424
168.842
180.714
189.102
194.489
197.668
199.595
201.213
203.294
206.293
210.267
214.838
219.23
222.361
222.994
219.904
212.062
198.797
179.916
155.771
127.256
95.7334
62.9087
30.6577
0.833782
-24.9215
-45.3422
-59.6566
-67.6487
-69.6558
-66.5067
-59.4087
-49.8007
-39.19
-28.9931
-20.3972
-14.257
-11.0351
-10.7895
-13.2059
-17.6674
-23.3517
-29.3433
-34.7466
-38.7885
-40.8992
-40.765
-38.3492
-33.8805
-27.814
-20.7694
-13.4552
-6.5863
-0.804131
3.39311
5.70408
6.0559
4.61095
1.74756
-1.98343
-5.92222
-9.37703
-11.7064
-12.3975
-11.132
-7.82987
-2.66775
3.93408
11.3538
18.8361
25.5787
30.8272
33.9669
34.6009
32.6035
28.1431
21.67
13.8717
5.59935
-2.22502
-8.71015
-13.094
-14.8276
-13.6355
-9.54609
-2.88925
5.73686
15.526
25.5432
34.8155
42.4236
47.5866
49.7331
48.5513
44.0172
36.3979
26.2318
14.2876
1.50509
-11.0774
-22.4044
-31.4882
-37.49
-39.793
-38.0589
-32.2652
-22.7172
-10.0339
4.89316
20.967
36.9721
51.6753
63.9324
72.7884
77.5628
77.9097
73.8471
65.7511
54.3167
40.4891
25.3729
10.1295
-4.12785
-16.4302
-26.0324
-32.4684
-35.5796
-35.5141
-32.6995
-27.7915
-21.6045
-15.0281
-8.93451
-4.08068
-1.00811
0.0552735
-0.714743
-2.66591
-4.62693
-4.91053
-1.37818
8.41983
27.0221
56.755
99.3702
155.657
225.082
305.515
393.115
482.428
566.729
638.594
690.672
716.549
711.598
673.69
603.643
505.343
385.48
252.935
117.88
-9.29427
-119.086
-203.882
-258.729
-281.783
-274.378
-240.74
-187.374
-122.225
-53.7234
10.1715
62.8021
99.4391
117.638
117.304
100.482
70.9143
33.4443
-6.65448
-44.3371
-75.3551
-96.6746
-106.71
-105.359
-93.8621
-74.5092
-50.2527
-24.279
0.405653
21.3253
36.7866
46.0099
49.1381
47.1312
41.5717
34.412
27.6998
23.3158
22.7552
26.9744
36.315
50.5088
68.7528
89.8402
112.326
134.705
155.574
173.771
188.468
199.215
205.937
208.89
208.581
205.673
200.885
194.893
188.256
181.362
174.4
167.365
160.086
152.274
143.583
133.682
122.311
109.339
94.7934
78.8768
61.9554
44.5299
27.1902
10.5593
-4.7649
-18.2637
-29.5421
-38.3588
-44.6387
-48.4702
-50.0856
-49.8308
-48.1272
-45.4305
-42.1904
-38.8151
-35.644
-32.9287
-30.825
-29.3937
-28.6105
-28.3817
-28.5645
-28.9891
-29.4799
-29.8744
-30.0375
-29.8713
-29.3193
-28.3653
-27.0288
-25.3564
-23.4121
-21.2662
-18.986
-16.6268
-14.2267
-11.8028
-9.3521
-6.85484
-4.28059
-1.59681
1.22174
4.1837
7.27339
10.4459
13.6257
16.7102
19.5763
22.0914
24.1256
25.5653
26.3247
26.3549
25.6493
24.2452
22.2204
19.6873
16.7843
13.6658
10.492
7.41987
4.59589
2.15004
0.192231
-1.18983
-1.93168
-1.99238
-1.35449
-0.0237839
1.97102
4.57881
7.72695
11.3225
15.2541
19.3943
23.6029
27.7295
31.6181
35.1098
38.0473
40.2783
41.6594
42.0596
41.3651
39.4836
36.3497
31.9313
26.2355
19.315
11.2727
2.26411
-7.5034
-17.7761
-28.2636
-38.6526
-48.6248
-57.8761
-66.1368
-73.189
-78.8815
-83.1385
-85.9622
-87.4284
-87.6767
-86.8948
-85.2994
-83.1156
-80.5559
-77.7984
-74.9636
-72.0865
-69.0804
-65.6899
-61.4345
-55.5497
-46.9405
-34.169
-15.5003
10.9694
47.0903
94.3438
153.465
224.056
304.258
390.577
477.918
559.883
629.33
679.136
703.082
696.722
658.107
588.237
491.164
373.704
244.788
114.533
-6.85492
-110.189
-188.287
-236.706
-254.13
-242.386
-206.091
-151.988
-88.0728
-22.63
36.7075
83.7545
114.344
126.618
121.027
100.059
67.7538
29.0801
-10.7382
-46.8618
-75.3678
-93.6188
-100.442
-96.1142
-82.176
-61.112
-35.9525
-9.8512
14.3067
34.2219
48.393
56.2104
57.9323
54.5618
47.6504
39.0609
30.7235
24.4126
21.5678
23.1717
29.6903
41.0731
56.8046
75.996
97.5017
120.048
142.357
163.261
181.791
197.236
209.175
217.47
222.24
223.797
222.579
219.067
213.713
206.868
198.751
189.429
178.838
166.829
153.234
137.937
120.947
102.447
82.8237
62.6551
42.6735
23.6963
6.53959
-8.0729
-19.5943
-27.7187
-32.4169
-33.9395
-32.7865
-29.649
-25.3308
-20.6597
-16.3999
-13.1764
-11.4179
-11.3258
-12.8696
-15.8089
-19.7373
-24.1411
-28.4666
-32.1864
-34.8578
-36.1676
-35.9581
-34.2349
-31.155
-26.9996
-22.1358
-16.9721
-11.9129
-7.31872
-3.4732
-0.562249
1.33508
2.24392
2.28069
1.63262
0.532538
-0.767832
-2.0234
-3.01765
-3.57936
-3.59336
-3.00509
-1.81976
-0.0971719
2.05649
4.49853
7.06022
9.55757
11.802
13.612
14.8253
15.3131
14.9952
13.8548
11.9515
9.42795
6.5101
3.49564
0.73186
-1.41763
-2.6146
-2.59217
-1.19955
1.56125
5.51307
10.3012
15.4148
20.2318
24.0864
26.3497
26.5176
24.291
19.6383
12.8282
4.42721
-4.74439
-13.6921
-21.3566
-26.7398
-29.031
-27.7168
-22.6588
-14.1279
-2.78808
10.3686
24.1288
37.1931
48.3218
56.4737
60.9192
61.3151
57.7319
50.6319
40.8034
29.2583
17.1106
5.44825
-4.78425
-12.8795
-18.4274
-21.3371
-21.8205
-20.3422
-17.5443
-14.1569
-10.9043
-8.4177
-7.16089
-7.37234
-9.02387
-11.7934
-15.0474
-17.8315
-18.8695
-16.5771
-9.10459
5.57728
29.5293
64.6237
112.254
172.998
246.27
330.035
420.645
512.869
600.154
675.136
730.353
759.092
756.261
719.154
647.989
546.13
419.933
278.221
131.438
-9.41456
-133.928
-233.373
-301.596
-335.604
-335.788
-305.744
-251.755
-181.985
-105.502
-31.2629
32.8356
80.7231
108.662
115.459
102.372
72.7523
31.4861
-15.6941
-62.9251
-104.88
-137.31
-157.416
-164.015
-157.512
-139.691
-113.37
-81.9767
-49.0935
-18.0333
8.50898
28.6987
41.6786
47.5622
47.3153
42.5536
35.2874
27.6491
21.6388
18.9121
20.6336
27.4007
39.2401
55.6673
75.7923
98.4561
122.375
146.281
169.031
189.695
207.596
222.317
233.672
241.654
246.371
247.973
246.605
242.364
235.29
225.383
212.638
197.092
178.875
158.252
135.644
111.625
86.8936
62.2221
38.3878
16.1015
-4.05873
-21.6993
-36.6389
-48.9105
-58.7382
-66.4921
-72.6295
-77.6305
-81.9377
-85.9067
-89.7733
-93.6411
-97.4882
-101.19
-104.555
-107.368
-109.426
-110.581
-110.757
-109.971
-108.325
-105.995
-103.206
-100.207
-97.2308
-94.4712
-92.0552
-90.0286
-88.3496
-86.8934
-85.4653
-83.8212
-81.6937
-78.8201
-74.9707
-69.9761
-63.7478
-56.2942
-47.7264
-38.2551
-28.1782
-17.8583
-7.69491
1.90903
10.5808
18.0103
23.9777
28.3743
31.2134
32.6313
32.8744
32.2746
31.2129
30.0746
29.2014
28.8463
29.1366
30.0531
31.4267
32.9561
34.2451
34.8549
34.3666
32.4452
28.8964
23.7084
17.0721
9.37521
1.17009
-6.88113
-14.0784
-19.763
-23.3941
-24.6126
-23.2834
-19.5116
-13.6297
-6.15914
2.24953
10.8889
19.0706
26.1946
31.8052
35.6258
37.5707
37.7341
36.3578
33.7839
30.399
26.5767
22.6272
18.7597
15.0631
11.5072
7.96339
4.24309
0.146188
-4.4866
-9.72644
-15.5218
-21.6833
-27.891
-33.7256
-38.7189
-42.4175
-44.4479
-44.5729
-42.7256
-39.0109
-33.6702
-27.0048
-19.2684
-10.5368
-0.579101
11.2503
26.0682
45.4441
71.2858
105.62
150.272
206.479
274.477
353.135
439.711
529.802
617.526
695.968
757.842
796.313
805.857
783.053
727.167
640.45
528.072
397.703
258.763
121.46
-4.28847
-109.896
-188.982
-237.976
-256.381
-246.678
-213.888
-164.869
-107.446
-49.4797
2.00173
41.5107
65.5764
72.9472
64.5171
43.0076
12.4633
-22.3627
-56.6489
-86.0929
-107.379
-118.484
-118.792
-109.033
-91.0606
-67.5141
-41.4226
-15.7963
6.73631
24.2096
35.4925
40.3411
39.3383
33.739
25.2512
15.7845
7.20359
1.11303
-1.30087
0.639367
7.08281
17.6948
31.7518
48.2685
66.1371
84.2605
101.665
117.581
131.489
143.126
152.463
159.661
165.001
168.816
171.419
173.046
173.812
173.686
172.494
169.95
165.692
159.354
150.624
139.309
125.389
109.039
90.6357
70.7376
50.0342
29.284
9.24154
-9.41377
-26.1381
-40.5641
-52.5184
-62.0131
-69.2152
-74.3992
-77.8913
-80.0148
-81.0441
-81.1754
-80.5151
-79.0886
-76.8644
-73.79
-69.8324
-65.0167
-59.4555
-53.3651
-47.0649
-40.9592
-35.5029
-31.1555
-28.3278
-27.3285
-28.3172
-31.271
-35.9693
-41.9998
-48.7877
-55.6448
-61.8338
-66.6416
-69.4517
-69.8097
-67.472
-62.4337
-54.932
-45.4253
-34.5513
-23.0677
-11.7844
-1.49211
7.10372
13.4399
17.1383
18.0332
16.1824
11.8627
5.55056
-2.11134
-10.3594
-18.3652
-25.3003
-30.4051
-33.0579
-32.838
-29.5773
-23.3911
-14.6859
-4.13725
7.3613
18.7764
29.0326
37.1206
42.2033
43.7071
41.388
35.3624
26.1002
14.3785
1.2028
-12.2959
-24.9765
-35.8007
-43.9331
-48.8156
-50.2089
-48.1989
-43.1685
-35.7385
-26.6885
-16.866
-7.09593
1.89966
9.56327
15.5399
19.6885
22.0692
22.9084
22.55
21.3982
19.861
18.2997
16.9907
16.103
15.6908
15.7032
16.0053
16.4082
16.7039
16.6985
16.2415
15.2476
13.7081
11.6925
9.34068
6.84719
4.44145
2.36791
0.871267
0.192333
0.57994
2.32251
5.79992
11.5512
20.3467
33.2461
51.6169
77.087
111.407
156.212
212.693
281.213
360.927
449.482
542.868
635.502
720.556
790.53
838.03
856.631
841.741
791.313
706.311
590.844
451.925
298.875
142.433
-6.31687
-137.082
-241.405
-313.497
-350.765
-353.959
-326.95
-276.17
-209.787
-136.736
-65.7158
-4.28588
41.8558
69.3254
77.2106
66.9336
41.8595
6.71648
-33.0871
-72.1596
-105.752
-130.245
-143.455
-144.728
-134.857
-115.816
-90.3948
-61.7653
-33.0578
-6.98474
14.4385
30.0554
39.6037
43.6366
43.35
40.3517
36.4073
33.1991
32.1284
34.1801
39.8592
49.1979
61.8193
77.0431
94.0095
111.803
129.557
146.535
162.164
176.052
187.96
197.768
205.426
210.908
214.183
215.194
213.856
210.075
203.775
194.926
183.581
169.899
154.16
136.763
118.212
99.0904
80.016
61.6016
44.405
28.8874
15.3776
4.04942
-5.08683
-12.1777
-17.5046
-21.4495
-24.4512
-26.9558
-29.3681
-32.006
-35.0654
-38.5961
-42.4946
-46.5132
-50.2876
-53.3796
-55.3337
-55.7399
-54.2974
-50.8691
-45.5206
-38.5351
-30.4019
-21.7769
-13.4186
-6.10755
-0.558424
2.66462
3.21713
1.01968
-3.72747
-10.5626
-18.8116
-27.6624
-36.2544
-43.7728
-49.5352
-53.0607
-54.1131
-52.7134
-49.1231
-43.7995
-37.3322
-30.3679
-23.5348
-17.3749
-12.2915
-8.51839
-6.11039
-4.95639
-4.80953
-5.32949
-6.13009
-6.82562
-7.0706
-6.58941
-5.19455
-2.79381
0.61157
4.93548
10.0197
15.6491
21.5679
27.4968
33.1506
38.2563
42.5711
45.8995
48.1092
49.142
49.0209
47.8497
45.8065
43.1299
40.0998
37.0144
34.1649
31.8122
30.1653
29.3648
29.471
30.459
32.2187
34.5619
37.2354
39.9392
42.3504
44.1498
45.0494
44.8189
43.3067
40.4555
36.3068
30.9979
24.747
17.8315
10.5601
3.24181
-3.84433
-10.4751
-16.5025
-21.8635
-26.5796
-30.7439
-34.4988
-38.0023
-41.3867
-44.7108
-47.906
-50.7206
-52.6615
-52.9414
-50.4355
-43.665
-30.8227
-9.86493
21.3104
64.5917
121.296
191.763
274.963
368.194
466.97
565.137
655.287
729.424
779.835
800.043
785.713
735.368
650.788
537.028
402.023
255.826
109.568
-25.7277
-140.316
-226.746
-280.596
-300.829
-289.754
-252.603
-196.785
-130.941
-63.8995
-3.6927
43.2791
72.8254
83.2439
75.286
51.8387
17.3832
-22.6844
-62.7791
-97.8069
-123.723
-137.912
-139.363
-128.639
-107.657
-79.3394
-47.1727
-14.7454
14.6818
38.5277
55.1316
63.8669
65.1264
60.193
51.0203
39.956
29.4431
21.7342
18.649
21.3992
30.4927
45.7221
66.2324
90.6532
117.276
144.253
169.8
192.368
210.78
224.319
232.752
236.3
235.566
231.412
224.832
216.807
208.183
199.566
191.264
183.273
175.303
166.851
157.299
146.031
132.549
116.568
98.0848
77.4048
55.1214
32.0596
9.18547
-12.5024
-32.0836
-48.814
-62.1978
-72.0244
-78.3683
-81.5524
-82.0839
-80.5727
-77.6452
-73.8671
-69.6835
-65.3848
-61.0999
-56.8152
-52.4141
-47.7298
-42.6018
-36.9283
-30.7049
-24.0471
-17.1901
-10.4688
-4.27968
0.969865
4.91676
7.29481
7.97656
6.99852
4.56602
1.03705
-3.11302
-7.34092
-11.0928
-13.8624
-15.2425
-14.9653
-12.9269
-9.19477
-3.99898
2.29229
9.20842
16.2204
22.7889
28.4123
32.6706
35.2623
36.0306
34.9778
32.265
28.198
23.1993
17.7674
12.4277
7.67847
3.93773
1.49736
0.490053
0.873645
2.43552
4.81702
7.55526
10.1375
12.0616
12.8947
12.3253
10.2006
6.54765
1.57585
-4.33871
-10.685
-16.8616
-22.2304
-26.1754
-28.1602
-27.7828
-24.8196
-19.2568
-11.306
-1.40085
9.82438
21.5755
32.9552
43.0325
50.9214
55.8603
57.2861
54.8952
48.6834
38.9606
26.3363
11.6776
-3.95817
-19.4089
-33.5042
-45.1644
-53.4927
-57.8544
-57.934
-53.7677
-45.7439
-34.573
-21.2216
-6.81471
7.49304
20.6708
31.979
41.1349
48.4538
54.9383
62.2873
72.7963
89.1349
114.002
149.685
197.573
257.704
328.421
406.238
485.95
561.023
624.239
668.513
687.776
677.808
636.885
566.141
469.597
353.824
227.3
99.5228
-19.9912
-122.71
-201.958
-253.552
-276.144
-271.222
-242.8
-196.838
-140.476
-81.1914
-25.9648
19.4323
50.9623
66.609
66.4119
52.2625
27.5059
-3.58994
-36.4247
-66.6409
-90.617
-105.827
-111.036
-106.318
-92.9121
-72.95
-49.0944
-24.1467
-0.674116
19.2959
34.4807
44.4294
49.4901
50.674
49.4434
47.4599
46.33
47.3832
51.5098
59.0739
69.909
83.3866
98.5441
114.248
129.365
142.922
154.227
162.934
169.065
172.966
175.226
176.563
177.701
179.25
181.611
184.908
188.964
193.312
197.243
199.893
200.336
197.697
191.256
180.541
165.395
146.013
122.943
97.0578
69.4905
41.5436
14.5832
-10.0758
-31.2812
-48.1418
-60.1026
-66.9886
-69.0137
-66.7528
-61.0795
-53.0768
-43.9291
-34.8084
-26.7653
-20.637
-16.9818
-16.0443
-17.7556
-21.7639
-27.4938
-34.2223
-41.1652
-47.5618
-52.7491
-56.2189
-57.6526
-56.9319
-54.129
-49.4788
-43.3404
-36.154
-28.3997
-20.5605
-13.0936
-6.40844
-0.850482
3.31131
5.89496
6.81487
6.08959
3.84636
0.32026
-4.1545
-9.16257
-14.2351
-18.8861
-22.6538
-25.1447
-26.0728
-25.2907
-22.8085
-18.7953
-13.5648
-7.54486
-1.23442
4.84706
10.212
14.453
17.2813
18.5525
18.2752
16.6048
13.8214
10.2963
6.45161
2.7163
-0.515421
-2.91951
-4.26827
-4.44509
-3.44726
-1.37752
1.57397
5.15447
9.07725
13.0507
16.8054
20.1153
22.8139
24.8021
26.0482
26.5827
26.4863
25.8748
24.8821
23.643
22.2772
20.8766
19.4952
18.1444
16.7917
15.3647
13.7585
11.8483
9.50457
6.61019
3.07915
-1.12605
-5.97999
-11.3849
-17.168
-23.0877
-28.8471
-34.1166
-38.561
-41.8695
-43.7835
-44.1164
-42.7597
-39.6677
-34.8155
-28.1291
-19.391
-8.13608
6.43834
25.5152
50.6179
83.4598
125.673
178.431
242.025
315.453
396.132
479.811
560.747
632.153
686.902
718.378
721.365
692.84
632.52
543.106
430.139
301.504
166.641
35.5483
-82.2611
-178.751
-248.159
-287.514
-296.824
-278.929
-239.031
-184.004
-121.545
-59.291
-4.00437
39.0845
66.7114
77.7528
73.1393
55.5401
28.8728
-2.28755
-33.3212
-60.1223
-79.5417
-89.6708
-89.9465
-81.0819
-64.8484
-43.7483
-20.6312
1.69727
20.8224
34.9885
43.262
45.5786
42.6817
35.965
27.2495
18.5229
11.6782
8.28244
9.40226
15.5042
26.4382
41.5001
59.5599
79.2346
99.0783
117.764
134.232
147.786
158.134
165.362
169.859
172.204
173.038
172.93
172.279
171.24
169.709
167.345
163.639
158.013
149.928
138.993
125.05
108.226
88.9497
67.9204
46.0424
24.3326
3.81187
3.81187
3.81187
3.81187
3.81187
3.81187
3.81187
3.81187
3.81187
3.81187
3.81187
3.81187
3.81187
3.81187
3.81187
3.81187
3.81187
3.81187
3.81187
3.81187
