-2053.67
-1979.77
-1885.57
-1768.37
-1625.72
-1455.66
-1257
-1029.64
-774.944
-496.085
-198.28
111.102
422.673
725.417
1007.37
1256.52
1461.93
1614.86
1709.8
1745.28
1724.32
1654.33
1546.62
1415.34
1276.09
1144.34
1033.78
954.864
913.767
911.756
945.203
1006.15
1083.36
1163.78
1234.06
1282.19
1298.82
1278.2
1218.74
1122.95
996.94
849.613
691.47
533.405
385.525
256.15
151.113
73.3938
23.1089
-2.18003
-6.90522
3.22879
22.0268
43.5479
62.7319
75.8459
80.7212
76.7752
64.8428
46.8578
25.4425
3.46532
-16.3762
-31.8976
-41.6628
-45.0948
-42.4626
-34.762
-23.5141
-10.5203
2.39385
13.6101
21.8982
26.5289
27.312
24.5619
19.0043
11.6408
3.59299
-4.05132
-10.3715
-14.712
-16.7366
-16.4369
-14.0979
-10.2311
-5.48608
-0.553972
3.92316
7.42532
9.59994
10.272
9.41521
7.0853
3.32195
-1.96715
-9.12241
-18.8281
-32.1682
-50.6271
-76.0246
-110.384
-155.741
-213.898
-286.167
-373.106
-474.304
-588.235
-712.219
-842.503
-974.467
-1102.94
-1222.62
-1328.5
-1416.3
-1482.89
-1526.5
-1546.91
-1545.42
-1524.7
-1488.45
-1441.1
-1387.31
-1331.56
-1277.77
-1228.99
-1187.2
-1153.28
-1126.98
-1107.12
-1091.77
-1078.53
-1064.76
-1047.85
-1025.41
-995.399
-956.276
-907.01
-847.139
-776.782
-696.665
-608.135
-513.177
-414.405
-315.009
-218.641
-129.228
-50.7028
13.3282
59.949
87.2916
94.829
83.5533
55.9962
16.0709
-31.2606
-80.4638
-125.995
-162.884
-187.255
-196.722
-190.605
-169.934
-137.243
-96.1742
-50.9501
-5.78108
35.7065
70.939
98.6921
119.17
133.862
145.196
156.058
169.247
186.968
210.428
239.61
273.238
308.955
343.644
373.873
396.359
408.407
408.247
395.236
369.904
333.855
289.542
239.957
188.288
137.581
90.4522
48.8799
14.0852
-13.4901
-34.1214
-48.6727
-58.4246
-64.8849
-69.6024
-74.0033
-79.2615
-86.2093
-95.2889
-106.542
-119.636
-133.915
-148.479
-162.282
-174.245
-183.368
-188.846
-190.17
-187.199
-180.199
-169.843
-157.16
-143.444
-130.13
-118.641
-110.228
-105.828
-105.938
-110.546
-119.108
-130.587
-143.546
-156.291
-167.05
-174.16
-176.253
-172.41
-162.276
-146.104
-124.74
-99.5367
-72.2167
-44.6892
-18.8525
3.59956
21.3442
33.5495
39.9359
40.7746
36.825
29.2232
19.3348
8.5938
-1.65465
-10.289
-16.5099
-19.8932
-20.3965
-18.3207
-14.2365
-8.88672
-3.07886
2.41855
6.96403
10.1066
11.6193
11.5029
9.96166
7.35871
4.15811
0.862962
-2.0429
-4.14342
-5.12514
-4.79683
-3.09478
-0.0759981
4.09742
9.17911
14.8614
20.7978
26.6239
31.9769
36.5131
39.9266
41.9693
42.4726
41.3692
38.7135
34.6948
29.6393
23.9981
18.3178
13.1957
9.22404
6.9279
6.7076
8.79163
13.2086
19.7826
28.1538
37.8217
48.2064
58.7187
68.8297
78.1295
86.3668
93.4635
99.5025
104.692
109.311
113.647
117.938
122.318
126.795
131.236
135.39
138.922
141.466
142.678
142.286
140.132
136.191
130.567
123.477
115.213
106.1
96.4554
86.5535
76.6091
66.7714
57.1345
47.7577
38.69
29.9936
21.7605
14.1188
7.22705
1.25924
-3.61875
-7.27501
-9.63606
-10.7051
-10.5708
-9.40511
-7.45008
-4.99532
-2.34949
0.190452
2.36827
3.99185
4.94843
5.20995
4.82838
3.92183
2.6536
1.20677
-0.242483
-1.54937
-2.61947
-3.41956
-3.97839
-4.37689
-4.72944
-5.15906
-5.77153
-6.63396
-7.76335
-9.12918
-10.6714
-12.3317
-14.0918
-16.0108
-18.2494
-21.0736
-24.8311
-29.8998
-36.6149
-45.1856
-55.6158
-67.6461
-80.7296
-94.052
-106.596
-117.245
-124.914
-128.69
-127.952
-122.475
-112.473
-98.5982
-81.8796
-63.6169
-45.2353
-28.1199
-13.4479
-2.03445
5.78616
10.2298
12.0649
12.5393
13.229
15.8153
21.8121
32.2705
47.5031
66.8686
88.6615
110.139
127.707
137.253
134.617
116.118
79.1032
22.407
-53.3342
-145.575
-249.996
-360.868
-471.629
-575.577
-666.617
-739.955
-792.641
-823.899
-835.2
-830.068
-813.642
-792.057
-771.722
-758.567
-757.365
-771.195
-801.105
-846.005
-902.797
-966.722
-1031.88
-1091.84
-1140.34
-1171.91
-1182.4
-1169.42
-1132.52
-1073.2
-994.732
-901.778
-799.879
-694.892
-592.406
-497.213
-412.906
-341.631
-284.02
-239.309
-205.599
-180.243
-160.275
-142.843
-125.572
-106.834
-85.8801
-62.8381
-38.5881
-14.5364
7.66952
26.4447
40.5474
49.3023
52.7381
51.6266
47.4202
42.0972
37.9381
37.2587
42.1377
54.1694
74.2754
102.597
138.479
180.553
226.9
275.275
323.371
369.075
410.696
447.133
477.954
503.393
524.252
541.731
557.211
572.022
587.22
603.421
620.701
638.583
656.106
671.964
684.695
692.883
695.347
691.29
680.381
662.769
639.031
610.056
576.909
540.679
502.348
462.7
422.279
381.406
340.235
298.847
257.352
215.984
175.164
135.529
97.9076
63.2557
32.5599
6.71929
-13.5699
-27.9137
-36.2864
-39.0534
-36.9487
-31.0086
-22.4707
-12.6523
-2.82251
5.91505
12.7164
17.0572
18.7545
17.949
15.0534
10.675
5.52403
0.31887
-4.29941
-7.83482
-9.97977
-10.6312
-9.88056
-7.98103
-5.29889
-2.25606
0.727877
3.28719
5.14937
6.1587
6.28284
5.6035
4.29382
2.5869
0.74021
-0.999211
-2.42452
-3.39063
-3.82571
-3.73232
-3.17908
-2.285
-1.19913
-0.078608
0.931893
1.71702
2.20205
2.35781
2.19908
1.77708
1.16726
0.454141
-0.284525
-0.991639
-1.64001
-2.23484
-2.80834
-3.40705
-4.07406
-4.82981
-5.65622
-6.48849
-7.21814
-7.70873
-7.82329
-7.45934
-6.58557
-5.27218
-3.70761
-2.19558
-1.12969
-0.946691
-2.06346
-4.80631
-9.34312
-15.6294
-23.3783
-32.061
-40.9408
-49.1388
-55.7242
-59.8193
-60.7064
-57.9225
-51.3283
-41.143
-27.9385
-12.5914
3.79983
20.0253
34.886
47.3153
56.4833
61.8729
63.3191
61.0071
55.4314
47.3215
37.5438
26.9923
16.4815
6.65376
-2.08667
-9.60765
-16.0468
-21.7753
-27.3352
-33.3606
-40.4957
-49.3246
-60.3224
-73.8359
-90.0933
-109.239
-131.381
-156.637
-185.17
-217.186
-252.906
-292.498
-335.989
-383.154
-433.432
-485.851
-539.008
-591.094
-639.984
-683.366
-718.914
-744.48
-758.285
-759.093
-746.342
-720.227
-681.72
-632.511
-574.898
-511.588
-445.463
-379.29
-315.426
-255.533
-200.357
-149.608
-101.986
-55.3772
-7.22882
44.9298
102.892
167.2
236.706
308.376
377.41
437.698
482.575
505.766
502.394
469.868
408.507
321.787
216.145
100.354
-15.4497
-120.957
-206.927
-266.308
-295.074
-292.678
-262.056
-209.196
-142.338
-70.9129
-4.38137
48.8959
82.602
93.1206
79.8377
45.07
-6.34991
-67.7633
-131.552
-190.066
-236.509
-265.665
-274.411
-261.955
-229.802
-181.458
-121.94
-57.139
6.85985
64.4412
111.021
143.455
160.268
161.679
149.446
126.567
96.8691
64.5486
33.7184
8.00298
-9.7748
-17.7931
-15.3064
-2.60184
19.1448
48.0869
81.9658
118.378
155.019
189.886
221.408
248.518
270.653
287.687
299.837
307.533
311.288
311.589
308.814
303.193
294.81
283.644
269.628
252.735
233.042
210.794
186.425
160.562
133.993
107.605
82.3194
59.006
38.4114
21.0964
7.39382
-2.61014
-9.06962
-12.3506
-12.9841
-11.6076
-8.9006
-5.52305
-2.06071
1.01611
3.37824
4.84646
5.38436
5.0775
4.10266
2.69124
1.09148
-0.466581
-1.79946
-2.78934
-3.39244
-3.63622
-3.60689
-3.42922
-3.24192
-3.17228
-3.31397
-3.71171
-4.35604
-5.18989
-6.12675
-7.07779
-7.98305
-8.84057
-9.7267
-10.8027
-12.3045
-14.5163
-17.7312
-22.2068
-28.1223
-35.548
-44.4335
-54.6198
-65.8753
-77.9509
-90.6445
-103.863
-117.668
-132.292
-148.12
-165.63
-185.302
-207.498
-232.343
-259.611
-288.65
-318.361
-347.238
-373.481
-395.163
-410.444
-417.79
-416.187
-405.294
-385.532
-358.076
-324.757
-287.88
-249.975
-213.518
-180.659
-152.989
-131.385
-115.947
-106.035
-100.405
-97.4184
-95.2871
-92.3318
-87.2078
-79.0723
-67.6725
-53.3486
-36.9537
-19.7091
-3.0173
11.7389
23.3832
31.0949
34.5043
33.7254
29.3273
22.2519
13.6929
4.9514
-2.71241
-8.21599
-10.7658
-9.93331
-5.69108
1.59344
11.2025
22.1457
33.2633
43.3434
51.2444
56.0095
56.9631
53.781
46.526
35.6466
21.9382
6.47054
-9.5125
-24.7107
-37.8923
-48.0128
-54.3162
-56.4077
-54.2886
-48.3512
-39.3303
-28.2181
-16.151
-4.27898
6.36568
14.9862
21.1106
24.6413
25.8587
25.3776
24.0629
22.9144
22.9361
25.0072
29.77
37.5478
48.3026
61.6348
76.8234
92.9005
108.749
123.21
135.193
143.772
148.262
148.271
143.734
134.907
122.357
106.92
89.648
71.742
54.475
39.1026
26.7672
18.3984
14.6157
15.6412
21.2317
30.6429
42.6349
55.5296
67.3221
75.8441
78.9676
74.829
62.0495
39.9234
8.55008
-31.1064
-77.2381
-127.287
-178.099
-226.116
-267.597
-298.873
-316.616
-318.157
-301.826
-267.301
-215.901
-150.753
-76.7645
-0.328451
71.238
130.489
170.777
187.188
177.304
141.695
83.9998
10.6015
-70.1017
-148.713
-216.006
-264.08
-287.33
-283.116
-252.028
-197.73
-126.418
-45.9752
35.0568
108.538
167.696
207.868
226.948
225.488
206.471
174.794
136.55
98.2014
65.7659
44.0995
36.3691
43.761
65.4461
98.7874
139.747
183.433
224.702
258.763
281.689
290.804
284.914
264.346
230.835
187.262
137.289
84.9409
34.1777
-11.4908
-49.3171
-77.5222
-95.3849
-103.213
-102.21
-94.2541
-81.6276
-66.724
-51.769
-38.5862
-28.4317
-21.9102
-18.9784
-19.0261
-21.0201
-23.6888
-25.7188
-25.9417
-23.4869
-17.8856
-9.11837
2.39566
15.86
30.2025
44.2018
56.6229
66.3458
72.4734
74.4077
71.8894
64.996
54.1032
39.8145
22.8689
4.03893
-15.9678
-36.5896
-57.4635
-78.4411
-99.5663
-121.016
-143.013
-165.726
-189.17
-213.114
-237.033
-260.086
-281.142
-298.859
-311.786
-318.508
-317.79
-308.725
-290.856
-264.261
-229.593
-188.053
-141.325
-91.44
-40.62
8.911
55.1133
96.3
131.267
159.372
180.548
195.255
204.372
209.048
210.529
209.977
208.33
206.185
203.75
200.853
197.013
191.55
183.738
172.949
158.793
141.224
120.594
97.6493
73.4786
49.408
26.8647
7.22589
-8.32925
-18.9443
-24.1731
-24.0214
-18.937
-9.75531
2.39447
16.2076
30.3325
43.4943
54.6011
62.8222
67.6328
68.8238
66.4806
60.9354
52.7024
42.4062
30.7099
18.2533
5.6044
-6.77091
-18.522
-29.4101
-39.2924
-48.0984
-55.8019
-62.3951
-67.8677
-72.1925
-75.3206
-77.1842
-77.7075
-76.8232
-74.4916
-70.7215
-65.5891
-59.2529
-51.9625
-44.059
-35.9661
-28.1698
-21.1884
-15.533
-11.6626
-9.9374
-10.5755
-13.6198
-18.9189
-26.1259
-34.7181
-44.0351
-53.3329
-61.8497
-68.874
-73.8104
-76.2337
-75.9262
-72.8943
-67.3618
-59.7409
-50.5853
-40.5295
-30.223
-20.2652
-11.1506
-3.22756
3.32261
8.48721
12.4045
15.3307
17.5976
19.5656
21.5798
23.9331
26.84
30.4226
34.7098
39.646
45.1088
50.9309
56.9237
62.8993
68.6881
74.1508
79.1833
83.7151
87.7023
91.1156
93.9282
96.1042
97.5898
98.3107
98.175
97.0814
94.9321
91.6481
87.1838
81.5389
74.7648
66.9647
58.2858
48.9052
39.0116
28.7851
18.3806
7.9166
-2.52394
-12.8817
-23.0951
-33.0637
-42.6035
-51.4004
-58.9685
-64.6177
-67.4411
-66.3249
-59.9918
-47.0823
-26.2834
3.4952
42.8995
91.8827
149.46
213.515
280.706
346.538
405.607
452.062
480.214
485.248
463.932
415.206
340.554
244.08
132.246
13.2927
-103.584
-209.217
-295.455
-356.053
-387.321
-388.471
-361.605
-311.377
-244.362
-168.236
-90.8687
-19.4565
40.212
84.2676
111.006
120.853
116.082
100.325
77.9724
53.5283
31.0223
13.5375
2.91038
-0.372317
2.91488
10.9903
21.4356
31.6238
39.1399
42.1379
39.588
31.3888
18.337
1.97046
-15.6857
-32.4271
-46.1861
-55.3092
-58.7615
-56.2327
-48.138
-35.5212
-19.8831
-2.96566
13.4696
27.8352
38.8549
45.6298
47.6329
44.6469
36.67
23.8213
6.27382
-15.7638
-42.0083
-72.0136
-105.055
-140.021
-175.34
-208.992
-238.601
-261.635
-275.674
-278.723
-269.523
-247.799
-214.404
-171.335
-121.595
-68.9196
-17.4042
28.9327
66.5834
92.9302
106.521
107.208
96.1297
75.5523
48.5817
18.7934
-10.1746
-35.0178
-53.1024
-62.7087
-63.1593
-54.8228
-39.0026
-17.7311
6.50134
31.0469
53.3942
71.4238
83.601
89.089
87.7776
80.2328
67.579
51.3338
33.2188
14.9673
-1.84821
-15.9532
-26.4638
-32.9307
-35.3381
-34.0662
-29.8297
-23.6051
-16.5576
-9.97483
-5.20891
-3.62345
-6.53826
-15.1636
-30.5172
-53.323
-83.8945
-122.016
-166.835
-216.8
-269.643
-322.454
-371.833
-414.135
-445.782
-463.614
-465.24
-449.345
-415.904
-366.267
-303.112
-230.23
-152.204
-73.9783
-0.394868
64.2635
116.663
154.702
177.645
186.119
181.95
167.891
147.254
123.523
99.9664
79.3094
63.4978
53.5708
49.6504
51.038
56.3975
63.9944
71.957
78.525
82.2564
82.1712
77.8203
69.2795
57.0792
42.0859
25.3584
8.00138
-8.96163
-24.6822
-38.5373
-50.1363
-59.2898
-65.9551
-70.1707
-71.9984
-71.4849
-68.65
-63.5057
-56.0979
-46.5633
-35.1857
-22.4374
-8.99219
4.29699
16.4603
26.5053
33.5327
36.8565
36.1082
31.3098
22.8998
11.7075
-1.12456
-14.2598
-26.3137
-36.0081
-42.313
-44.559
-42.5051
-36.3558
-26.7269
-14.5648
-1.03199
12.6267
25.2206
35.7352
43.4277
47.8862
49.0476
47.1762
42.8077
36.6683
29.5793
22.3601
15.7397
10.287
6.36504
4.11273
3.4533
4.12638
5.73753
7.81816
9.88779
11.5111
12.3431
12.1581
10.8585
8.46456
5.08597
0.880666
-3.99262
-9.41964
-15.3653
-21.8905
-29.1456
-37.3402
-46.6909
-57.3567
-69.3701
-82.5806
-96.6195
-110.899
-124.646
-136.973
-146.978
-153.849
-156.971
-156.006
-150.923
-141.979
-129.633
-114.414
-96.7533
-76.8202
-54.404
-28.8754
0.734799
35.5305
76.4315
123.787
176.991
234.186
292.138
346.341
391.379
421.519
431.46
417.137
376.445
309.77
220.217
113.493
-2.56553
-118.767
-225.541
-313.987
-376.869
-409.398
-409.741
-379.161
-321.803
-244.155
-154.26
-60.7969
27.8622
104.502
163.724
202.351
219.554
216.704
196.995
164.894
125.514
83.9791
44.8657
11.7751
-12.9262
-28.1875
-34.1874
-32.1137
-23.8536
-11.6471
2.24784
15.8357
27.5796
36.5006
42.1814
44.691
44.455
42.1025
38.319
33.7285
28.8221
23.9368
19.2794
14.9823
11.1707
8.0208
5.79252
4.82354
5.48396
8.09815
12.8494
19.6883
28.2677
37.9221
47.7046
56.481
63.0711
66.4176
65.7524
60.7331
51.5226
38.794
23.6576
7.51678
-8.12423
-21.8712
-32.6359
-39.7852
-43.2201
-43.3717
-41.116
-37.6217
-34.1563
-31.8818
-31.672
-33.9793
-38.7699
-45.5352
-53.3752
-61.1384
-67.5956
-71.6212
-72.3558
-69.3277
-62.5188
-52.3681
-39.7155
-25.6965
-11.6025
1.27166
11.7746
19.0215
22.4791
22.006
17.8451
10.573
1.01571
-9.85629
-21.0402
-31.6044
-40.7717
-47.9728
-52.8675
-55.3325
-55.4236
-53.3213
-49.271
-43.5294
-36.326
-27.8454
-18.2315
-7.60998
3.87709
16.0341
28.5806
41.1335
53.2084
64.2416
73.6299
80.7849
85.1942
86.4811
84.4562
79.1524
70.8391
60.0121
47.3602
33.7098
19.9548
6.97758
-4.42829
-13.6267
-20.1891
-23.9205
-24.8582
-23.2437
-19.4708
-14.0204
-7.39005
-0.0320327
7.68984
15.5172
23.285
30.8824
38.1976
45.056
51.1699
56.1108
59.3156
60.1305
57.8902
52.0219
42.1608
28.2564
10.6508
-9.88602
-32.1775
-54.7181
-75.8037
-93.6988
-106.821
-113.918
-114.217
-107.518
-94.229
-75.3304
-52.273
-26.8261
-0.891158
23.6961
45.3502
62.8882
75.6318
83.4507
86.7439
86.3626
83.4863
79.4665
75.6556
73.2424
73.1091
75.7277
81.1055
88.7863
97.9055
107.296
115.629
121.58
123.991
122.018
115.243
103.733
88.0404
69.1495
48.3669
27.1775
7.08021
-10.5754
-24.7309
-34.7243
-40.3453
-41.8378
-39.8502
-35.3409
-29.4544
-23.381
-18.2196
-14.8571
-13.8792
-15.5188
-19.6484
-25.8128
-33.2976
-41.2241
-48.6575
-54.7154
-58.6663
-60.0044
-58.496
-54.193
-47.4144
-38.6993
-28.7385
-18.2953
-8.12172
1.11656
8.90204
14.9058
19.0045
21.2726
21.9533
21.4127
20.0834
18.4058
16.7749
15.4968
14.762
14.6346
15.0592
15.8822
16.883
17.8107
18.4213
18.5099
17.9348
16.6306
14.6099
11.9537
8.79397
5.29297
1.6235
-2.04303
-5.53587
-8.66709
-11.1951
-12.7713
-12.8775
-10.7662
-5.42251
4.42989
20.2593
43.5754
75.6959
117.442
168.8
228.602
294.293
361.86
425.975
480.379
518.497
534.225
522.783
481.509
410.463
312.718
194.279
63.599
-69.2491
-193.653
-299.643
-379.015
-426.244
-439.065
-418.653
-369.379
-298.202
-213.782
-125.441
-42.12
28.5488
80.948
111.888
120.708
109.091
80.6308
40.2451
-6.48792
-53.9835
-97.2216
-132.185
-156.133
-167.711
-166.893
-154.81
-133.477
-105.476
-73.6313
-40.7077
-9.16779
19.0041
42.4003
60.2133
72.1963
78.5762
79.9374
77.0961
70.9812
62.5349
52.6412
42.0833
31.5289
21.5362
12.5724
5.03555
-0.727289
-4.41306
-5.76792
-4.60477
-0.82937
5.53105
14.3032
25.1535
37.5894
50.9775
64.5789
77.5984
89.2413
98.7738
105.578
109.197
109.37
106.042
99.3665
89.6851
77.494
63.401
48.0734
32.1846
16.3617
1.13929
-13.0757
-26.0244
-37.5994
-47.8303
-56.8521
-64.8608
-72.0624
-78.6209
-84.6151
-90.01
-94.6485
-98.2652
-100.522
-101.057
-99.5509
-95.7801
-89.6723
-81.3387
-71.0834
-59.3892
-46.8778
-34.2524
-22.2282
-11.4613
-2.48414
4.34363
8.86356
11.1233
11.3585
9.95462
7.3954
4.20452
0.888113
-2.11481
-4.46886
-5.96233
-6.51017
-6.14103
-4.97163
-3.17295
-0.933012
1.57878
4.24117
7.00107
9.88118
12.9744
16.4254
20.4001
25.0485
30.4632
36.6396
43.4444
50.5974
57.671
64.1103
69.2748
72.4967
73.152
70.7333
64.9173
55.6156
43.0038
27.524
9.8603
-9.10844
-28.3737
-46.8735
-63.5709
-77.5305
-87.9837
-94.3817
-96.4308
-94.1091
-87.664
-77.5922
-64.6019
-49.5618
-33.4383
-17.2277
-1.88544
11.74
22.9645
31.3123
36.5417
38.6516
37.8681
34.6117
29.4504
23.0415
16.0694
9.18445
2.9496
-2.20171
-5.99169
-8.30756
-9.19402
-8.8307
-7.49818
-5.53703
-3.30507
-1.13785
0.68361
1.95472
2.55796
2.46252
1.71506
0.424172
-1.25821
-3.15584
-5.08539
-6.87065
-8.35316
-9.39962
-9.90659
-9.80328
-9.053
-7.65376
-5.63788
-3.07058
-0.0469423
3.31279
6.86971
10.474
13.9731
17.2187
20.0727
22.41
24.121
25.1114
25.3042
24.6433
23.1001
20.6846
17.459
13.5524
9.1729
4.61327
0.244522
-3.50593
-6.19311
-7.4084
-6.84258
-4.34866
0.00631547
5.91142
12.8119
19.9435
26.3991
31.2218
33.5134
32.544
27.8487
19.2987
7.13725
-8.02569
-25.2575
-43.3821
-61.0852
-77.0317
-89.9857
-98.9182
-103.094
-102.132
-96.0275
-85.1457
-70.1813
-52.0919
-32.0111
-11.1532
9.2847
28.2116
44.7161
58.1187
68.0005
74.2073
76.8317
76.176
72.7037
66.982
59.6247
51.2383
42.377
33.511
25.0088
17.1407
10.103
4.06679
-0.752266
-4.00941
-5.14872
-3.34695
2.48762
13.6336
31.3751
56.7239
90.075
130.852
177.22
225.945
272.471
311.241
336.269
341.885
323.573
278.757
207.428
112.469
-0.374187
-122.92
-245.329
-357.147
-448.485
-511.174
-539.731
-532.021
-489.509
-417.078
-322.441
-215.217
-105.821
-4.27901
80.8443
143.31
179.745
189.815
176.033
143.252
97.9163
47.1904
-1.92741
-43.3944
-72.7299
-87.3803
-86.8202
-72.3995
-46.979
-14.4176
21.0123
55.2012
84.7007
107.086
121.15
126.92
125.506
118.822
109.221
99.1042
90.5581
85.0632
83.3162
85.1757
89.7354
95.5044
100.663
103.357
101.979
95.4063
83.1644
65.4845
43.2681
17.956
-8.67364
-34.7496
-58.5611
-78.7867
-94.6692
-106.113
-113.691
-118.558
-122.284
-126.624
-133.251
-143.501
-158.137
-177.196
-199.92
-224.795
-249.692
-272.11
-289.478
-299.485
-300.395
-291.308
-272.317
-244.546
-210.055
-171.625
-132.444
-95.7327
-64.3659
-40.5352
-25.4968
-19.4412
-21.4999
-29.8863
-42.1494
-55.5046
-67.1951
-74.835
-76.6904
-71.8646
-60.3668
-43.0634
-21.5219
2.22362
25.9519
47.5394
65.2116
77.7316
84.5042
85.5873
81.6175
73.6663
63.053
51.1447
39.1736
28.0949
18.5039
10.6176
4.31681
-0.762636
-5.11019
-9.21292
-13.442
-17.97
-22.7314
-27.4286
-31.5819
-34.6113
-35.9385
-35.0899
-31.7856
-26.0021
-17.9976
-8.29824
2.35242
13.074
22.9486
31.1258
36.9208
39.892
39.8913
37.0792
31.9051
25.0547
17.3724
9.76758
3.11565
-1.83464
-4.5379
-4.70509
-2.32791
2.32708
8.75311
16.2619
24.0595
31.3311
37.3249
41.4272
43.2196
42.5149
39.366
34.0506
27.0314
18.8996
10.3072
1.89707
-5.76189
-12.2267
-17.2151
-20.6196
-22.5017
-23.0672
-22.6285
-21.5583
-20.2406
-19.0253
-18.1905
-17.9146
-18.2606
-19.1715
-20.4766
-21.9068
-23.1181
-23.7223
-23.3241
-21.5638
-18.1643
-12.9766
-6.02111
2.48415
12.1149
22.2561
32.1458
40.9443
47.8249
52.0748
53.1953
50.9863
45.6013
37.563
27.7316
17.2253
7.3001
-0.800416
-6.00697
-7.57718
-5.21799
0.841534
9.84102
20.5496
31.3944
40.6441
46.6271
47.9572
43.7348
33.6965
18.2872
-1.35723
-23.5211
-46.0998
-66.8488
-83.6575
-94.8115
-99.2081
-96.4948
-87.1144
-72.2489
-53.6723
-33.5316
-14.0862
2.56102
14.7069
21.2355
21.7297
16.4961
6.5037
-6.75055
-21.4316
-35.584
-47.3522
-55.1767
-57.9459
-55.0903
-46.612
-33.0508
-15.3976
5.03314
26.7526
48.2507
68.1344
85.2393
98.7021
107.994
112.916
113.563
110.264
103.522
93.9405
82.1707
68.8637
54.6398
40.0701
25.6685
11.8896
-0.869387
-12.2671
-22.0152
-29.8738
-35.6436
-39.1477
-40.2043
-38.5863
-33.9733
-25.9047
-13.7487
3.29287
26.1258
55.6348
92.4835
136.858
188.188
244.905
304.29
362.484
414.695
455.608
479.979
483.324
462.63
416.939
347.736
259.035
157.133
50.0598
-53.2465
-143.902
-214.078
-257.898
-272.119
-256.501
-213.832
-149.597
-71.3361
12.2144
92.1053
160.15
209.782
236.698
239.218
218.329
177.435
121.842
58.0594
-6.98691
-66.7363
-115.682
-149.887
-167.284
-167.738
-152.886
-125.783
-90.4209
-51.1881
-12.3307
22.5085
50.6313
70.4737
81.6377
84.7778
81.3724
73.424
63.1324
52.5872
43.5161
37.1131
33.959
34.0298
36.7791
41.2711
46.3374
50.7351
53.2842
52.9754
49.0401
40.9887
28.6196
12.0096
-8.50883
-32.3757
-58.8378
-86.9883
-115.816
-144.268
-171.332
-196.127
-218.013
-236.697
-252.32
-265.522
-277.455
-289.746
-304.399
-323.651
-349.793
-384.971
-430.983
-489.093
-559.841
-642.856
-736.677
-838.579
-944.449
-1048.75
-1144.67
-1224.42
-1279.84
-1303.15
-1287.88
-1229.83
-1127.83
-984.334
-805.531
-601.065
-383.261
-165.984
36.7425
212.193
350.274
444.552
492.864
497.411
464.352
402.96
324.446
240.624
162.576
99.4822
57.7464
40.502
47.537
75.6169
119.142
171.037
223.745
270.211
304.723
323.523
325.141
310.401
282.162
244.804
203.569
163.836
130.424
107.013
95.7349
96.9848
109.443
130.306
155.665
181.003
201.722
213.653
213.49
199.116
169.779
126.129
70.1041
4.71303
-66.2822
-138.725
-208.436
-271.556
-324.837
-365.853
-393.117
-406.119
-405.267
-391.771
-367.477
-334.665
-295.85
-253.583
-210.28
-168.077
-128.729
-93.5402
-63.3394
-38.4886
-18.9214
-4.20809
6.36199
13.687
18.7546
22.5473
25.957
29.7161
34.3481
40.1432
47.1585
55.2423
64.0788
73.2473
82.2878
90.7658
98.3251
104.723
109.842
113.681
116.315
117.853
118.385
117.929
116.402
113.599
109.202
102.803
93.9441
82.1663
67.0653
48.3397
25.834
-0.430848
-30.2403
-63.1805
-98.6431
-135.837
-173.803
-211.439
-247.516
-280.715
-309.66
-332.969
-349.309
-357.472
-356.459
-345.568
-324.488
-293.382
-252.95
-204.464
-149.773
-91.2561
-31.7407
25.6355
77.6038
120.988
152.957
171.284
174.59
162.532
135.909
96.6624
47.7554
-7.05387
-63.5306
-117.336
-164.409
-201.322
-225.563
-235.72
-231.552
-213.944
-184.76
-146.61
-102.563
-55.8542
-9.59107
33.49
71.2083
102.051
125.213
140.562
148.559
150.125
146.496
139.067
129.25
118.35
107.473
97.4666
88.8996
82.0671
77.0248
73.6395
71.6467
70.7049
70.4386
70.4639
70.399
69.865
68.4891
65.9191
61.858
56.1177
48.6821
39.7642
29.8382
19.6267
10.0333
2.01811
-3.57008
-6.18112
-5.73404
-2.73276
1.70751
5.94416
8.00308
5.86485
-2.20172
-17.3171
-39.7434
-68.7686
-102.761
-139.401
-176.073
-210.352
-240.51
-265.947
-287.451
-307.224
-328.635
-355.713
-392.449
-442.008
-505.984
-583.834
-672.609
-767.048
-860.043
-943.435
-1009.02
-1049.61
-1060.06
-1037.98
-984.156
-902.592
-800.056
-685.35
-568.276
-458.497
-364.395
-292.102
-244.802
-222.393
-221.561
-236.236
-258.391
-279.068
-289.513
-282.275
-252.127
-196.71
-116.81
-16.244
98.6099
219.595
337.746
444.328
531.815
594.691
629.982
637.466
619.559
580.894
527.682
466.927
405.603
349.906
304.64
272.82
255.518
251.935
259.695
275.284
294.586
313.428
328.087
335.683
334.437
323.776
304.272
277.466
245.583
211.2
176.912
145.022
117.308
94.874
78.1054
66.7109
59.8473
56.2961
54.6671
53.5987
51.9314
48.8347
43.8766
37.0334
28.6449
19.3261
9.85241
1.03516
-6.39526
-11.8842
-15.1157
-16.0383
-14.8543
-11.9776
-7.9676
-3.451
0.958042
4.7292
7.4703
8.95965
9.15443
8.17639
6.27901
3.80186
1.11921
-1.41013
-3.48573
-4.89667
-5.53814
-5.41305
-4.62008
-3.33101
-1.76135
-0.138615
1.32744
2.46928
3.17805
3.41097
3.18965
2.59049
1.72922
0.742172
-0.233066
-1.07506
-1.69207
-2.03044
-2.07728
-1.85772
-1.42775
-0.863844
-0.251197
0.327927
0.804233
1.12873
1.27672
1.24835
1.06594
0.768789
0.406482
0.031517
-0.307588
-0.571982
-0.73634
-0.790609
-0.739655
-0.601062
-0.401573
-0.172748
0.053512
0.249016
0.392437
0.471264
0.482439
0.431739
0.332113
0.201287
0.0590304
-0.0755481
-0.186335
-0.261921
-0.296534
-0.290172
-0.247984
-0.179082
-0.0949682
-0.00783881
0.0710261
0.132584
0.170928
0.183701
0.17201
0.139924
0.0936433
0.0404967
-0.0121038
-0.057613
-0.0911141
-0.109852
-0.113544
-0.104534
-0.0878393
-0.071158
-0.0648326
-0.0817238
-0.136911
-0.247122
-0.429824
-0.701983
-1.07858
-1.57109
-2.18612
-2.92447
-3.78081
-4.74395
-5.79775
-6.92234
-8.09564
-9.29469
-10.4967
-11.6799
-12.8234
-13.9072
-14.9113
-15.8156
-16.5995
-17.2418
-17.7223
-18.0228
-18.1301
-18.0379
-17.7499
-17.2816
-16.6607
-15.9273
-15.1312
-14.3281
-13.5749
-12.9236
-12.4157
-12.0778
-11.9183
-11.9265
-12.0738
-12.3163
-12.5983
-12.8557
-13.0183
-13.0112
-12.7551
-12.1668
-11.1615
-9.6559
-7.57617
-4.8674
-1.50586
2.48839
7.04064
12.0148
17.2127
22.3816
27.2295
31.4474
34.7371
36.8405
37.5674
36.8169
34.5913
30.9985
26.2439
20.6112
14.4364
8.07639
1.87709
-3.85612
-8.88146
-13.0358
-16.24
-18.4951
-19.8689
-20.4762
-20.4521
-19.9193
-18.9505
-17.5231
-15.4691
-12.4217
-7.76832
-0.624893
10.1491
25.8723
47.8839
77.3041
114.731
159.914
211.476
266.737
321.738
371.473
410.359
432.889
434.388
411.751
364.055
292.919
202.542
99.3922
-8.41777
-112.009
-202.735
-273.174
-317.975
-334.451
-322.84
-286.206
-230.002
-161.364
-88.2336
-18.4244
41.2423
85.6369
111.775
118.985
108.793
84.5531
50.894
13.0592
-23.767
-55.0659
-77.455
-88.9768
-89.1877
-79.0555
-60.6951
-36.9917
-11.1675
13.6473
34.7894
50.3406
59.2848
61.5383
57.8605
49.6708
38.8013
27.2254
16.7956
9.0244
4.92908
4.95389
8.97084
16.3511
26.0908
36.9704
47.7243
57.1992
64.4824
68.9885
70.496
69.1373
65.3455
59.7706
53.1775
46.3405
39.9473
34.5226
30.3794
27.5999
26.046
25.3958
25.1974
24.9345
24.0927
22.2189
18.9682
14.1331
7.65447
-0.385958
-9.78631
-20.2555
-31.4483
-42.9991
-54.5515
-65.7791
-76.3981
-86.1707
-94.9026
-102.436
-108.639
-113.404
-116.637
-118.268
-118.247
-116.562
-113.247
-108.392
-102.152
-94.7508
-86.4725
-77.6522
-68.6556
-59.8542
-51.5977
-44.1868
-37.8492
-32.7228
-28.8465
-26.1615
-24.522
-23.7135
-23.4774
-23.5385
-23.631
-23.5225
-23.0315
-22.039
-20.4917
-18.3995
-15.8273
-12.8823
-9.69978
-6.42822
-3.21498
-0.194347
2.5219
4.85099
6.74246
8.17862
9.17236
9.7626
10.0081
9.9799
9.75323
9.39963
8.9799
8.5387
8.10146
7.67389
7.24412
6.78736
6.27224
5.66802
4.95171
4.11388
3.1624
2.12357
1.04026
-0.0325126
-1.03405
-1.90547
-2.5972
-3.07518
-3.32504
-3.35344
-3.18655
-2.8659
-2.44229
-1.96871
-1.49341
-1.05411
-0.674294
-0.361848
-0.110384
0.0972522
0.283893
0.472289
0.679669
0.913512
1.16922
1.43007
1.66943
1.85499
1.95418
1.94014
1.79713
1.52453
1.13882
0.673122
0.174276
-0.302005
-0.697369
-0.957447
-1.03793
-0.909176
-0.558748
0.00845277
0.772201
1.70054
2.75406
3.88998
5.06518
6.23798
7.36841
8.41751
9.34614
10.1141
10.6799
11.0023
11.0426
10.769
10.161
9.21377
7.94233
6.38315
4.5941
2.65168
0.645762
-1.32766
-3.17511
-4.81469
-6.18455
-7.24959
-8.00567
-8.48039
-8.73044
-8.83548
-8.88928
-8.98918
-9.22494
-9.66859
-10.3663
-11.3334
-12.5526
-13.9764
-15.5323
-17.1302
-18.6714
-20.0577
-21.1993
-22.0213
-22.4673
-22.5009
-22.1039
-21.2727
-20.012
-18.3286
-16.2232
-13.6857
-10.6908
-7.19937
-3.16265
1.4679
6.72738
12.6216
19.111
26.097
33.4122
40.8187
48.0139
54.6453
60.3349
64.7095
67.4357
68.2555
67.0176
63.7013
58.4283
51.4613
43.1874
34.0884
24.7005
15.5672
7.19214
-0.00498253
-5.72229
-9.79706
-12.2117
-13.0834
-12.6392
-11.1759
-9.00857
-6.40775
-3.52853
-0.3347
3.47446
8.5224
15.7809
26.5409
42.3085
64.6111
94.7176
133.297
180.067
233.494
290.638
347.189
397.754
436.376
457.249
455.524
428.091
374.199
295.812
197.615
86.6539
-28.3599
-137.989
-233.132
-306.065
-351.316
-366.262
-351.375
-310.087
-248.31
-173.673
-94.5909
-19.2919
45.0843
93.2023
121.988
130.787
121.23
96.835
62.4308
23.4656
-14.687
-47.3521
-71.0333
-83.7051
-84.8996
-75.5965
-57.9489
-34.8947
-9.71205
14.4208
34.8077
49.5174
57.5429
58.8291
54.1792
45.0641
33.3679
21.1075
10.1648
2.06169
-2.19618
-2.19668
1.88371
9.35735
19.1588
30.0118
40.6061
49.7605
56.5544
60.4134
61.1446
58.9208
54.2217
47.7438
40.293
32.6749
25.5971
19.5935
14.9782
11.8306
10.0106
9.19734
8.94458
8.74338
8.08401
6.51018
3.6611
-0.700952
-6.6778
-14.2357
-23.2169
-33.3585
-44.3176
-55.6985
-67.08
-78.0416
-88.1872
-97.1643
-104.679
-110.508
-114.503
-116.594
-116.791
-115.178
-111.908
-107.195
-101.306
-94.5409
-87.2261
-79.6903
-72.2481
-65.1809
-58.7183
-53.0228
-48.179
-44.1873
-40.9652
-38.3563
-36.1455
-34.082
-31.9057
-29.3769
-26.3031
-22.5619
-18.1171
-13.0234
-7.42266
-1.5287
4.39506
10.0636
15.2002
19.564
22.9735
25.3216
26.5827
26.81
26.1258
24.7039
22.75
20.4791
18.0954
15.775
13.6534
11.8189
10.3115
9.12656
8.2235
7.53609
6.98477
6.48857
5.97569
5.39171
4.70476
3.90742
3.0154
2.0635
1.09941
0.176299
-0.6548
-1.35199
-1.88798
-2.25346
-2.45809
-2.52906
-2.50749
-2.44329
-2.38904
-2.39376
-2.49719
-2.72547
-3.08835
-3.57853
-4.17285
-4.83524
-5.52098
-6.18166
-6.77027
-7.24584
-7.57712
-7.74497
-7.74323
-7.57817
-7.26668
-6.83346
-6.30775
-5.71996
-5.09864
-4.46797
-3.84609
-3.24419
-2.66636
-2.11016
-1.56783
-1.02814
-0.478775
0.0906757
0.685465
1.30233
1.92654
2.52997
3.07081
3.4956
3.74392
3.75585
3.48137
2.89072
1.9839
0.797584
-0.59234
-2.07353
-3.50572
-4.7342
-5.6069
-5.99273
-5.79886
-4.98437
-3.56839
-1.63141
0.690622
3.21875
5.74852
8.07053
9.99139
11.3529
12.0475
12.0278
11.3114
9.9788
8.1662
6.05396
3.8515
1.78008
0.0549476
-1.1319
-1.62675
-1.32598
-0.183413
1.78725
4.5152
7.88018
11.7243
15.867
20.121
24.3081
28.273
31.8925
35.0806
37.7871
39.9925
41.6977
42.9129
43.6463
43.8961
43.6454
42.8639
41.5134
39.5581
36.976
33.7705
29.9793
25.6782
20.9801
16.0268
10.9775
5.99366
1.22242
-3.21689
-7.24301
-10.8164
-13.9354
-16.6236
-18.9084
-20.7899
-22.2013
-22.9613
-22.7227
-20.9231
-16.7496
-9.13396
3.20195
21.6317
47.4305
81.5068
124.088
174.41
230.474
288.947
345.265
393.958
429.203
445.536
438.627
406.005
347.608
266.047
166.535
56.4518
-55.395
-159.73
-247.857
-312.656
-349.388
-356.212
-334.334
-287.797
-222.928
-147.535
-69.9661
1.85197
61.2729
103.585
126.395
129.714
115.748
88.4509
52.902
14.6052
-21.2026
-50.1494
-69.167
-76.7319
-72.897
-59.1292
-37.9901
-12.715
13.2501
36.6915
55.0007
66.4362
70.255
66.7106
56.9297
42.6961
26.1761
9.62394
-4.89445
-15.73
-21.8078
-22.7025
-18.6302
-10.3663
0.893903
13.7108
26.5879
38.1475
47.2772
53.2303
55.6752
54.6914
50.7182
44.4675
36.8125
28.67
20.8891
14.1581
8.94039
5.44103
3.60693
3.15559
3.62731
4.45263
5.0264
4.7799
3.24367
0.095319
-4.81136
-11.4373
-19.5685
-28.8433
-38.793
-48.8899
-58.5993
-67.4287
-74.9699
-80.931
-85.1547
-87.6227
-88.4451
-87.839
-86.0963
-83.5469
-80.5205
-77.3117
-74.1521
-71.1934
-68.5007
-66.0593
-63.7904
-61.5741
-59.2762
-56.7746
-53.9803
-50.8517
-47.3996
-43.6821
-39.7909
-35.8327
-31.9073
-28.0887
-24.4116
-20.8662
-17.4026
-13.9443
-10.4069
-6.72018
-2.84889
1.19233
5.33123
9.43988
13.3457
16.8497
19.7505
21.8685
23.0695
23.2827
22.5111
20.8341
18.4012
15.4168
12.1211
8.76571
5.58981
2.79824
0.544126
-1.08208
-2.05625
-2.41702
-2.25577
-1.70172
-0.904262
-0.0147068
0.830343
1.52215
1.98827
2.19562
2.14836
1.88124
1.44976
0.918637
0.35015
-0.20614
-0.721105
-1.19045
-1.63548
-2.10035
-2.64628
-3.34349
-4.26172
-5.46025
-6.97823
-8.82645
-10.981
-13.3803
-15.9252
-18.4834
-20.8979
-22.9991
-24.6193
-25.6092
-25.8534
-25.2843
-23.8919
-21.7285
-18.9066
-15.5912
-11.9863
-8.31691
-4.80885
-1.66843
0.935767
2.88717
4.12983
4.67068
4.57535
3.95814
2.96758
1.76925
0.528018
-0.608253
-1.52181
-2.13343
-2.40557
-2.34019
-1.97209
-1.3592
-0.57143
0.319893
1.2506
2.16923
3.0392
3.83782
4.55309
5.17916
5.71177
6.14459
6.46717
6.66486
6.72058
6.61798
6.34558
5.9007
5.293
4.5465
3.70014
2.80657
1.92928
1.13865
0.507162
0.104538
-0.00665375
0.225433
0.839543
1.86016
3.2974
5.14777
7.39524
10.0124
12.9614
16.1942
19.6534
23.272
26.974
30.6766
34.2913
37.7281
40.8983
43.7174
46.1079
47.9994
49.3283
50.0364
50.0698
49.3788
47.9204
45.6635
42.5963
38.7361
34.1374
28.8989
23.1661
17.1276
11.0062
5.04374
-0.518478
-5.46066
-9.60491
-12.8316
-15.0892
-16.3958
-16.8297
-16.5099
-15.564
-14.0852
-12.0773
-9.39268
-5.66715
-0.265972
7.74314
19.5668
36.5908
60.1974
91.4973
131
178.269
231.639
288.067
343.179
391.577
427.364
444.879
439.503
408.439
351.32
270.536
171.192
60.6962
-51.9921
-157.358
-246.429
-311.831
-348.647
-354.972
-332.082
-284.209
-217.969
-141.509
-63.5109
7.81914
65.6548
105.231
124.235
122.883
103.683
70.952
30.1505
-12.8597
-52.5417
-84.3058
-104.962
-112.965
-108.435
-92.9797
-69.357
-41.0275
-11.6702
15.2821
37.0312
51.6876
58.4082
57.3947
49.7672
37.3391
22.3322
7.07036
-6.30786
-16.0856
-21.1292
-20.9618
-15.7508
-6.21809
6.50714
21.0678
36.0649
50.2257
62.5351
72.3169
79.2622
83.4065
85.0669
84.751
83.0551
80.5659
77.7788
75.0417
72.5285
70.2412
68.0365
65.6701
62.8479
59.2784
54.7169
48.9984
42.0558
33.9243
24.7334
14.6897
4.05433
-6.88097
-17.8169
-28.4652
-38.5633
-47.8824
-56.2329
-63.4654
-69.4703
-74.1765
-77.551
-79.5976
-80.3566
-79.9042
-78.351
-75.8383
-72.5333
-68.6218
-64.299
-59.7589
-55.1835
-50.7321
-46.5315
-42.6689
-39.1871
-36.0836
-33.3127
-30.7926
-28.4143
-26.0551
-23.5929
-20.9213
-17.9638
-14.6851
-11.0978
-7.26335
-3.28679
0.695248
4.53152
8.0763
11.2098
13.8561
15.9954
17.6686
18.9737
20.0532
21.0743
22.205
23.5892
25.3237
27.4411
29.9022
32.5967
35.3549
37.9674
40.2108
41.8756
42.7931
42.8572
42.0384
40.3883
38.0343
35.1647
32.0072
28.8032
25.7804
23.1291
20.9832
19.4077
18.3961
17.8749
17.7157
17.7533
17.8066
17.7009
17.2882
16.4638
15.1774
13.4376
11.3092
8.90469
6.37036
3.8688
1.56059
-0.413225
-1.94567
-2.97388
-3.48362
-3.50822
-3.12222
-2.43078
-1.5565
-0.625201
0.247474
0.967114
1.46802
1.71642
1.70921
1.4688
1.03508
0.455942
-0.221903
-0.960234
-1.73361
-2.52995
-3.34763
-4.1898
-5.05758
-5.94377
-6.82886
-7.68051
-8.45694
-9.11358
-9.61184
-9.92787
-10.0597
-10.0309
-9.89015
-9.70594
-9.55822
-9.52725
-9.68215
-10.0706
-10.7113
-11.5907
-12.6631
-13.8559
-15.0772
-16.2262
-17.2036
-17.922
-18.3145
-18.3407
-17.9901
-17.2821
-16.2636
-15.0041
-13.5886
-12.1101
-10.6609
-9.32402
-8.16657
-7.23303
-6.54109
-6.07884
-5.80369
-5.64273
-5.49456
-5.23271
-4.71102
-3.77156
-2.25528
-0.0155571
3.06615
7.0636
11.9898
17.7835
24.3007
31.3117
38.5061
45.506
51.8872
57.208
61.044
63.0256
62.8759
60.4434
55.7267
48.8864
40.2428
30.2572
19.4986
8.59795
-1.80595
-11.1221
-18.8596
-24.6702
-28.3756
-29.9782
-29.6509
-27.7114
-24.5781
-20.7155
-16.5687
-12.4911
-8.66766
-5.03891
-1.23154
3.48967
10.2313
20.4206
35.6743
57.5784
87.3843
125.655
171.916
224.38
279.831
333.717
380.499
414.225
429.281
421.208
387.46
327.976
245.45
145.245
34.9335
-76.479
-179.556
-265.512
-327.231
-360.085
-362.443
-335.796
-284.517
-215.267
-136.154
-55.7583
17.8516
77.9858
119.983
141.58
142.964
126.545
96.4716
57.993
16.7408
-21.9622
-53.6933
-75.3529
-85.3879
-83.8052
-71.9964
-52.4145
-28.1567
-2.51536
21.4449
41.235
55.1785
62.523
63.4235
58.8168
50.2118
39.4342
28.3599
18.6728
11.6746
8.16317
8.3887
12.0828
18.5499
26.8025
35.718
44.1958
51.2943
56.3339
58.9554
59.1323
57.1399
53.4893
48.8378
43.889
39.2952
35.5747
33.05
31.816
31.737
32.4731
33.5294
34.3236
34.2604
32.8057
29.5498
24.2532
16.8699
7.54582
-3.40557
-15.5456
-28.3644
-41.338
-53.9809
-65.8876
-76.7583
-86.4082
-94.7596
-101.822
-107.665
-112.384
-116.075
-118.813
-120.637
-121.545
-121.505
-120.463
-118.361
-115.154
-110.829
-105.415
-98.9959
-91.7087
-83.7432
-75.3317
-66.7336
-58.2175
-50.0408
-42.4297
-35.5621
-29.5552
-24.4586
-20.2549
-16.8659
-14.165
-11.9933
-10.1779
-8.55046
-6.9635
-5.30333
-3.49853
-1.52314
0.605276
2.83208
5.07557
7.2393
9.22506
10.9453
12.3333
13.351
13.9918
14.2811
14.272
14.0383
13.6654
13.2404
12.8425
12.5347
12.3585
12.3314
12.4481
12.6847
13.0053
13.3696
13.741
14.093
14.4136
14.7066
14.9898
15.29
15.6362
16.0508
16.5421
17.0975
17.6797
18.2266
18.6548
18.8677
18.7652
18.2557
17.2681
15.7617
13.7326
11.2169
8.28818
5.05207
1.63642
-1.81989
-5.17875
-8.31365
-11.1181
-13.5114
-15.4403
-16.8783
-17.8224
-18.2875
-18.3013
-17.8988
-17.1185
-15.9993
-14.5793
-12.8962
-10.9877
-8.89378
-6.65805
-4.33014
-1.96742
0.363774
2.58806
4.62233
6.37901
7.77111
8.71901
9.15809
9.04655
8.37213
7.15669
5.45778
3.36667
1.00277
-1.49514
-3.97991
-6.30808
-8.35157
-10.0078
-11.207
-11.9161
-12.1387
-11.9116
-11.2986
-10.3819
-9.25285
-8.00249
-6.7136
-5.45425
-4.27375
-3.20114
-2.24601
-1.40144
-0.648307
0.0397336
0.69147
1.33433
1.99219
2.68502
3.43051
4.24704
5.15726
6.1913
7.3886
8.79749
10.4721
12.467
14.8289
17.5883
20.7501
24.2849
28.1225
32.148
36.2006
40.0772
43.5407
46.3332
48.195
48.8867
48.2134
46.0487
42.3544
37.1931
30.7323
23.237
15.0531
6.58059
-1.75907
-9.55816
-16.4567
-22.1714
-26.5152
-29.4069
-30.8661
-30.9951
-29.9444
-27.8623
-24.8294
-20.7824
-15.4356
-8.21635
1.76463
15.6819
34.8826
60.6796
94.0595
135.338
183.82
237.541
293.166
346.107
390.883
421.714
433.262
421.434
384.095
321.59
236.953
135.768
25.663
-84.4786
-185.508
-269.052
-328.473
-359.609
-361.205
-334.99
-285.384
-218.904
-143.342
-66.8362
3.0479
60.1132
100.112
121.06
123.257
109.049
82.3588
48.0814
11.4189
-22.7591
-50.452
-68.9083
-76.8168
-74.3056
-62.7668
-44.5466
-22.5523
0.167674
20.8159
37.1654
47.7746
52.0823
50.3833
43.7011
33.5837
21.8551
10.3598
0.730128
-5.79498
-8.48496
-7.15784
-2.14913
5.77927
15.573
26.0406
36.0104
44.4676
50.6591
54.1558
54.8683
53.0212
49.0916
43.7235
37.6314
31.5061
25.9332
21.3332
17.9292
15.7413
14.6065
14.2177
14.1743
14.0371
13.3789
11.8268
9.09214
4.98789
-0.565788
-7.54489
-15.8315
-25.2279
-35.4722
-46.2554
-57.2391
-68.0728
-78.4123
-87.9373
-96.3681
-103.481
-109.119
-113.201
-115.721
-116.743
-116.395
-114.851
-112.312
-108.991
-105.095
-100.805
-96.2689
-91.5947
-86.8465
-82.0485
-77.1919
-72.2444
-67.163
-61.9069
-56.4504
-50.7945
-44.9748
-39.0664
-33.1834
-27.474
-22.1095
-17.2695
-13.1229
-9.80738
-7.40932
-5.94761
-5.36365
-5.52011
-6.20928
-7.17113
-8.11914
-8.77108
-8.881
-8.26814
-6.83901
-4.59956
-1.65571
1.79801
5.50024
9.15236
12.452
15.1266
16.9627
17.8277
17.6822
16.5817
14.667
12.1467
9.27293
6.31383
3.52587
1.12943
-0.710434
-1.89606
-2.40147
-2.26909
-1.59983
-0.538151
0.745851
2.07517
3.28344
4.22961
4.80839
4.95606
4.65138
3.91227
2.78911
1.35606
-0.298424
-2.08048
-3.89823
-5.66712
-7.31298
-8.77319
-9.99644
-10.9418
-11.5776
-11.8809
-11.8381
-11.445
-10.7093
-9.65186
-8.30856
-6.73082
-4.98526
-3.15175
-1.31983
0.416236
1.96359
3.2373
4.16691
4.70215
4.81742
4.51465
3.82408
2.8032
1.53372
0.116853
-1.33269
-2.69386
-3.84715
-4.68299
-5.11032
-5.06508
-4.51786
-3.48013
-2.00771
-0.200547
1.80242
3.83386
5.71377
7.26919
8.35547
8.87609
8.79791
8.15877
7.06578
5.68368
4.21456
2.87172
1.85145
1.30762
1.333
1.9507
3.11715
4.73569
6.67848
8.81232
11.0239
13.2402
15.4401
17.6558
19.9637
22.4663
25.2673
28.4444
32.0238
35.9607
40.1273
44.3133
48.2364
51.5644
53.9442
55.0376
54.5567
52.2977
48.1674
42.2006
34.5655
25.5565
15.5745
5.09785
-5.35535
-15.2684
-24.1673
-31.6573
-37.4528
-41.3951
-43.4582
-43.7396
-42.436
-39.8022
-36.0947
-31.4991
-26.0482
-19.5382
-11.4598
-0.966009
13.0994
32.0908
57.3559
89.9465
130.276
177.781
230.663
285.777
338.734
384.243
416.666
430.736
422.326
389.16
331.333
251.548
155.013
49.0006
-57.9036
-156.74
-239.196
-298.559
-330.479
-333.441
-308.877
-260.936
-195.924
-121.512
-45.8171
23.5205
80.1586
119.667
139.876
140.94
125.119
96.3303
59.5486
20.125
-16.8728
-47.2274
-67.9853
-77.6788
-76.3489
-65.3832
-47.2066
-24.8766
-1.64151
19.4815
36.0567
46.4743
50.0677
47.102
38.6482
26.3691
12.253
-1.66761
-13.5744
-22.0702
-26.3127
-26.0661
-21.6728
-13.955
-4.0681
6.67439
16.9765
25.7166
32.0661
35.5606
36.1181
34.0081
29.7806
24.1675
17.9718
11.9595
6.76679
2.833
0.362976
-0.678506
-0.543791
0.343989
1.45325
2.21419
2.08883
0.633398
-2.45283
-7.29675
-13.8408
-21.8527
-30.9537
-40.6611
-50.4405
-59.7609
-68.1476
-75.2266
-80.7559
-84.6422
-86.9402
-87.8365
-87.6194
-86.6399
-85.2667
-83.8423
-82.6434
-81.8526
-81.5413
-81.6681
-82.0902
-82.5862
-82.8876
-82.7124
-81.799
-79.9348
-76.9784
-72.8723
-67.6474
-61.4186
-54.3739
-46.7578
-38.8507
-30.9475
-23.3349
-16.2721
-9.97299
-4.5941
-0.226977
3.10354
5.43564
6.862
7.51744
7.56419
7.17638
6.5252
5.76619
5.02968
4.41483
3.98751
3.78143
3.80195
4.03149
4.4356
4.96884
5.57991
6.21573
6.82445
7.35763
7.77192
8.03046
8.1044
7.97443
7.63224
7.08167
6.33904
5.43244
4.39967
3.28498
2.13477
0.992933
-0.103656
-1.12859
-2.06786
-2.9198
-3.69302
-4.4026
-5.06524
-5.69408
-6.29437
-6.86055
-7.37555
-7.81235
-8.13777
-8.31761
-8.32257
-8.13358
-7.74584
-7.17066
-6.43471
-5.57694
-4.64354
-3.6819
-2.73462
-1.83445
-1.00129
-0.241249
0.451796
1.09287
1.70141
2.29648
2.89262
3.49688
4.10738
4.71337
5.29648
5.83274
6.29488
6.65455
6.88427
6.95891
6.85694
6.56141
6.06087
5.35048
4.43309
3.3205
2.03449
0.607647
-0.916506
-2.48412
-4.03259
-5.49314
-6.79433
-7.86639
-8.64601
-9.08127
-9.13629
-8.79497
-8.06348
-6.97103
-5.56865
-3.92612
-2.1271
-0.263035
1.57359
3.296
4.82909
6.11414
7.11162
7.80207
8.18491
8.2755
8.10093
7.69535
7.09579
6.33947
5.4636
4.50806
3.52094
2.56578
1.72884
1.1239
0.892244
1.19574
2.20219
4.06356
6.88926
10.7183
15.4949
21.0524
27.1094
33.2817
39.1095
44.0977
47.767
49.7066
49.6239
47.3828
43.0256
36.7747
29.0132
20.2468
11.0525
2.0182
-6.31612
-13.5116
-19.2698
-23.4553
-26.0979
-27.3749
-27.5737
-27.0364
-26.0887
-24.957
-23.6778
-22.0089
-19.3562
-14.7351
-6.78921
6.10996
25.6681
53.3796
90.17
136.019
189.638
248.273
307.719
362.575
406.748
434.169
439.613
419.516
372.642
300.497
207.391
100.119
-12.7061
-121.585
-217.215
-291.56
-338.783
-355.887
-343.017
-303.36
-242.69
-168.609
-89.6079
-14.0668
50.6812
99.1018
127.951
136.461
126.219
100.777
65.0568
24.6516
-14.9014
-48.7682
-73.3224
-86.4564
-87.6776
-77.9998
-59.6621
-35.7262
-9.61452
15.349
36.3381
51.3207
59.2265
59.9776
54.393
43.992
30.7307
16.7124
3.90981
-6.06767
-12.1362
-13.8179
-11.2368
-5.04014
3.73746
13.8445
23.9923
33.0214
40.0332
44.476
46.1766
45.32
42.3843
38.0434
33.0544
28.1441
23.9122
20.7607
18.857
18.1325
18.3134
18.9749
19.6108
19.7057
18.8008
16.5446
12.7238
7.27345
0.267601
-8.10424
-17.5696
-27.808
-38.4835
-49.2704
-59.8704
-70.0215
-79.4987
-88.1102
-95.6911
-102.098
-107.208
-110.919
-113.158
-113.889
-113.124
-110.931
-107.442
-102.845
-97.3748
-91.3015
-84.9019
-78.4373
-72.1282
-66.1356
-60.5495
-55.3875
-50.6043
-46.1099
-41.7942
-37.5542
-33.3182
-29.0649
-24.8314
-20.7112
-16.8406
-13.3767
-10.4704
-8.23962
-6.74599
-5.9805
-5.85925
-6.23058
-6.89239
-7.61682
-8.17887
-8.38449
-8.09442
-7.24046
-5.83217
-3.95343
-1.74962
0.59252
2.86945
4.88633
6.48024
7.53819
8.00795
7.90082
7.28638
6.28062
5.02909
3.68784
2.40441
1.30152
0.465137
-0.0617952
-0.279647
-0.226896
0.0293995
0.405808
0.815554
1.18058
1.44117
1.56204
1.53447
1.37457
1.11815
0.813271
0.511683
0.260328
0.0941996
0.031401
0.0710077
0.193849
0.365919
0.543728
0.680634
0.733095
0.665825
0.45518
0.0904709
-0.426596
-1.08375
-1.86048
-2.73015
-3.66135
-4.61845
-5.5616
-6.44666
-7.22568
-7.84847
-8.26534
-8.431
-8.3092
-7.87727
-7.12988
-6.08111
-4.76432
-3.22967
-1.53956
0.237159
2.03118
3.77789
5.42089
6.91352
8.21861
9.30694
10.1552
10.7443
11.0587
11.0867
10.8224
10.268
9.43641
8.354
7.06154
5.61402
4.07868
2.53112
1.05022
-0.288044
-1.41682
-2.28411
-2.85715
-3.12488
-3.09824
-2.80796
-2.30032
-1.63123
-0.859287
-0.0387286
0.787075
1.59087
2.36515
3.12398
3.903
4.75768
5.75997
6.9933
8.54604
10.5035
12.9386
15.9018
19.4109
23.442
27.9228
32.7292
37.6866
42.5772
47.151
51.1425
54.2895
56.3532
57.1379
56.5076
54.3999
50.8336
45.9119
39.8187
32.8094
25.1951
17.3222
9.54872
2.2182
-4.36576
-9.96202
-14.4094
-17.6368
-19.6646
-20.5956
-20.5943
-19.854
-18.5512
-16.7875
-14.5231
-11.5073
-7.21774
-0.826103
8.79064
22.972
43.1146
70.4313
105.648
148.677
198.335
252.165
306.437
356.358
396.509
421.464
426.513
408.388
365.87
300.161
214.967
116.235
11.5829
-90.5142
-181.671
-254.544
-303.659
-326.005
-321.321
-292.042
-242.924
-180.415
-111.847
-44.5766
14.8356
61.2882
91.5908
104.656
101.429
84.5857
58.0532
26.4257
-5.64279
-33.9946
-55.4101
-67.8923
-70.7746
-64.6561
-51.1894
-32.7612
-12.1167
8.02147
25.2909
37.9472
45.0174
46.3415
42.5072
34.6979
24.4822
13.5751
3.6072
-4.07376
-8.54436
-9.38007
-6.65958
-0.905841
7.02243
16.0701
25.135
33.2085
39.4893
43.4603
44.9225
43.9849
41.0183
36.5806
31.3266
25.9154
20.9261
16.7929
13.7646
11.8908
11.0346
10.9068
11.1145
11.218
10.7876
9.45279
6.941
3.09996
-2.09501
-8.54879
-16.0661
-24.3791
-33.1786
-42.1445
-50.972
-59.3916
-67.1802
-74.1666
-80.2284
-85.2865
-89.296
-92.2376
-94.1109
-94.9299
-94.7225
-93.5314
-91.4183
-88.4664
-84.7831
-80.4992
-75.7655
-70.745
-65.6035
-60.4974
-55.5626
-50.9039
-46.5881
-42.6408
-39.0475
-35.7594
-32.702
-29.7862
-26.9204
-24.0219
-21.0264
-17.8943
-14.6148
-11.2055
-7.7106
-4.19652
-0.746117
2.54719
5.58553
8.27235
10.518
12.2448
13.3927
13.9238
13.8283
13.1287
11.8831
10.1873
8.17259
6.00063
3.85402
1.92284
0.388225
-0.595553
-0.918399
-0.528764
0.55712
2.25286
4.40726
6.81733
9.24777
11.4548
13.2119
14.3337
14.6964
14.2508
13.0264
11.1271
8.71625
5.99473
3.17385
0.446604
-2.03805
-4.19426
-6.0082
-7.53518
-8.88507
-10.1979
-11.6136
-13.2408
-15.1302
-17.2569
-19.5155
-21.729
-23.6704
-25.0941
-25.7713
-25.5259
-24.2631
-21.9881
-18.811
-14.9382
-10.651
-6.27431
-2.14073
1.44585
4.24243
6.09069
6.93016
6.79947
5.82646
4.20888
2.18867
0.0232355
-2.04262
-3.80107
-5.09941
-5.85045
-6.03481
-5.6955
-4.92632
-3.85586
-2.62941
-1.39102
-0.267667
0.642964
1.28007
1.62247
1.68661
1.52068
1.19589
0.796047
0.406887
0.106221
-0.0441366
-0.00394268
0.242713
0.687522
1.30068
2.03569
2.83569
3.64037
4.39307
5.04722
5.57188
5.95618
6.21253
6.3786
6.51787
6.7182
7.08802
7.74954
8.82875
10.4426
12.6845
15.6092
19.22
23.4594
28.2053
33.274
38.4299
43.4013
47.9004
51.6461
54.386
55.917
56.1012
54.8775
52.2658
48.3668
43.3547
37.4641
30.974
24.1862
17.4031
10.905
4.92903
-0.347924
-4.81973
-8.45339
-11.2813
-13.3819
-14.8481
-15.7425
-16.0421
-15.5745
-13.9532
-10.5238
-4.33783
5.82559
21.3687
43.701
73.9823
112.803
159.846
213.603
271.206
328.455
380.082
420.245
443.216
444.162
419.917
369.604
294.997
200.55
93.0686
-18.957
-126.26
-219.839
-291.987
-337.168
-352.626
-338.651
-298.473
-237.809
-164.12
-85.7102
-10.7532
53.6019
101.955
131.128
140.339
131.091
106.799
72.2201
32.781
-6.114
-39.7111
-64.3968
-78.0061
-79.9282
-71.0164
-53.3325
-29.7733
-3.63486
21.8238
43.7681
60.0823
69.5477
71.8942
67.7346
58.4005
45.7113
31.7097
18.3984
7.50797
0.321027
-2.43495
-0.619356
5.36047
14.6473
26.0741
38.3253
50.099
60.2512
67.9071
72.5291
73.939
72.2959
68.0372
61.7936
54.2918
46.2582
38.3344
31.015
24.6109
19.2404
14.8452
11.2252
8.08597
5.08894
1.8992
-1.77628
-6.16243
-11.4026
-17.5566
-24.6067
-32.469
-41.0057
-50.038
-59.3548
-68.7217
-77.8868
-86.5872
-94.5568
-101.537
-107.287
-111.603
-114.329
-115.375
-114.722
-112.433
-108.644
-103.559
-97.4301
-90.5405
-83.1791
-75.6211
-68.1097
-60.8434
-53.9689
-47.5807
-41.7253
-36.4097
-31.6125
-27.295
-23.4115
-19.9181
-16.7771
-13.9599
-11.446
-9.22094
-7.27267
-5.58818
-4.15071
-2.93823
-1.9232
-1.07346
-0.354103
0.270417
0.834062
1.36741
1.89644
2.44185
3.01908
3.63854
4.30616
5.02376
5.78931
6.59692
7.43675
8.2948
9.153
9.98951
10.7793
11.4951
12.1084
12.5907
12.9145
13.0555
12.9932
12.7133
12.209
11.4829
10.5478
9.42733
8.15581
6.77664
5.34024
3.90097
2.51356
1.22942
0.0930423
-0.860996
-1.61034
-2.14616
-2.47335
-2.60973
-2.58421
-2.43417
-2.20218
-1.93246
-1.66731
-1.44383
-1.29116
-1.22868
-1.26517
-1.39898
-1.61942
-1.90883
-2.24537
-2.60595
-2.96908
-3.31713
-3.63795
-3.92545
-4.17932
-4.40401
-4.60704
-4.79716
-4.98244
-5.16851
-5.35703
-5.54442
-5.72086
-5.86981
-5.96808
-5.98695
-5.89445
-5.65896
-5.25389
-4.66312
-3.88636
-2.9436
-1.87758
-0.753468
0.345043
1.32314
2.08541
2.54823
2.65223
2.37291
1.72752
0.776924
-0.378223
-1.60667
-2.76008
-3.68899
-4.25928
-4.36675
-3.94791
-2.98535
-1.50672
0.422873
2.71429
5.27191
8.0126
10.8828
13.8708
17.0103
20.3755
24.0656
28.1813
32.7957
37.9248
43.5018
49.3607
55.2326
60.7588
65.5189
69.0727
71.0105
71.0053
68.8596
64.5399
58.1925
50.1393
40.852
30.9078
20.9329
11.5402
3.26878
-3.46638
-8.40986
-11.4815
-12.7718
-12.5173
-11.0599
-8.79188
-6.09274
-3.2594
-0.434603
2.4627
5.79821
10.2642
16.8875
26.9864
42.0578
63.5854
92.7715
130.216
175.59
227.366
282.675
337.355
386.228
423.589
443.89
442.492
416.411
364.908
289.829
195.625
89.02
-21.6437
-127.291
-219.131
-289.656
-333.5
-348.028
-333.597
-293.447
-233.255
-160.408
-83.1082
-9.41575
53.6349
100.75
128.843
137.203
127.378
102.796
68.1991
28.963
-9.58921
-42.8091
-67.2034
-80.7277
-82.8775
-74.5822
-57.936
-35.8153
-11.4395
12.0627
32.0297
46.546
54.5973
56.0978
51.7983
43.0993
31.8036
19.844
9.02488
0.806634
-3.84306
-4.52037
-1.37795
4.95176
13.4853
23.0478
32.4394
40.5877
46.6679
50.1796
50.9743
49.2369
45.4264
40.189
34.2559
28.3412
23.0514
18.8168
15.8508
14.1396
13.4611
13.4269
13.5424
13.2758
12.1264
9.68563
5.68289
0.0128698
-7.25828
-15.9065
-25.58
-35.8413
-46.2148
-56.2347
-65.487
-73.6419
-80.4744
-85.8714
-89.8272
-92.4279
-93.8292
-94.2298
-93.8439
-92.8758
-91.4989
-89.841
-87.976
-85.9231
-83.6532
-81.1
-78.1763
-74.7924
-70.8737
-66.3774
-61.3039
-55.7032
-49.6744
-43.3595
-36.931
-30.5766
-24.4813
-18.811
-13.6979
-9.23073
-5.45028
-2.35019
0.116879
2.02911
3.483
4.58002
5.41423
6.06238
6.57763
6.98729
7.29487
7.48556
7.53429
7.41492
7.10913
6.61365
5.94482
5.13971
4.25379
3.35537
2.51772
1.80994
1.28782
0.986113
0.912997
1.0476
1.34056
1.7176
2.08547
2.33988
2.37485
2.093
1.41621
0.296061
-1.27715
-3.26795
-5.59317
-8.12441
-10.696
-13.1185
-15.1961
-16.7466
-17.6213
-17.7223
-17.0144
-15.5303
-13.3688
-10.6843
-7.67146
-4.54468
-1.5164
1.22393
3.52739
5.29815
6.49948
7.15293
7.33069
7.14224
6.71668
6.18302
5.65096
5.19485
4.84329
4.57618
4.32985
4.00992
3.50994
2.73306
1.61326
0.132537
-1.66878
-3.69065
-5.78133
-7.75386
-9.40872
-10.5596
-11.0583
-10.816
-9.81657
-8.12211
-5.86823
-3.25094
-0.506478
2.11311
4.36582
6.04383
6.99358
7.12985
6.44279
4.99747
2.92636
0.415614
-2.31341
-5.02559
-7.49425
-9.52195
-10.9578
-11.7097
-11.7496
-11.1129
-9.89048
-8.21567
-6.2476
-4.15245
-2.08512
-0.173002
1.49649
2.88392
4.00073
4.90747
5.70766
6.53813
7.55654
8.92685
10.8034
13.3141
16.5445
20.5223
25.2056
30.4753
36.1328
41.9063
47.4642
52.4369
56.4451
59.1329
60.2025
59.4461
56.7724
52.2233
45.9777
38.3421
29.728
20.6173
11.5205
2.93103
-4.71722
-11.0866
-15.9607
-19.2551
-21.0133
-21.387
-20.6016
-18.9081
-16.5211
-13.5477
-9.90836
-5.2615
1.05486
10.0423
22.9986
41.3897
66.6279
99.765
141.137
190.017
244.363
300.725
354.382
399.732
430.906
442.539
430.583
393.026
330.396
245.952
145.501
36.8601
-70.9764
-168.854
-248.517
-303.568
-330.19
-327.545
-297.805
-245.803
-178.394
-103.583
-29.569
36.1908
87.765
121.306
135.322
130.647
110.141
78.1715
39.9654
0.909613
-34.0987
-61.1841
-77.85
-83.1341
-77.5627
-62.9281
-41.934
-17.7655
6.35537
27.5725
43.7117
53.478
56.5245
53.3938
45.3562
34.173
21.8232
10.2315
1.03188
-4.6091
-6.09158
-3.40209
2.9413
12.0031
22.5836
33.3884
43.1915
50.9733
56.0204
57.9774
56.8524
52.9787
46.9427
39.4904
31.4254
23.5123
16.3946
10.5365
6.19232
3.40272
2.01625
1.72924
2.13745
2.79126
3.24755
3.1121
2.06934
-0.101968
-3.52578
-8.2356
-14.1872
-21.2729
-29.3346
-38.1728
-47.5525
-57.205
-66.8309
-76.1036
-84.6786
-92.2081
-98.3621
-102.854
-105.468
-106.083
-104.695
-101.421
-96.4994
-90.2698
-83.1465
-75.5795
-68.0115
-60.8372
-54.3667
-48.8009
-44.2192
-40.5827
-37.7498
-35.5042
-33.5889
-31.743
-29.7354
-27.3925
-24.6158
-21.3886
-17.7715
-13.8889
-9.90785
-6.01421
-2.38787
0.818552
3.49576
5.58703
7.0901
8.0524
8.56087
8.72821
8.6775
8.52719
8.37796
8.30269
8.34041
8.49443
8.73479
9.00448
9.2289
9.32763
9.22702
8.87252
8.23893
7.33745
6.21821
4.96779
3.70164
2.5521
1.65336
1.12504
1.05645
1.49356
2.43038
3.80586
5.50709
7.37839
9.23542
10.8828
12.133
12.8247
12.8388
12.1098
10.6331
8.46611
5.72532
2.57763
-0.771486
-4.09318
-7.1523
-9.7255
-11.619
-12.6851
-12.8353
-12.0497
-10.381
-7.95225
-4.94803
-1.59993
1.83291
5.08641
7.91496
10.1133
11.5347
12.1028
11.817
10.7498
9.03699
6.86198
4.43566
1.97452
-0.320718
-2.28372
-3.79642
-4.79698
-5.28112
-5.29722
-4.93592
-4.31585
-3.56717
-2.81509
-2.16533
-1.69296
-1.43601
-1.39425
-1.53297
-1.79094
-2.09142
-2.35437
-2.50835
-2.50051
-2.30336
-1.91777
-1.37185
-0.716216
-0.0164003
0.656394
1.2349
1.66455
1.91026
1.9607
1.82951
1.55378
1.19001
0.808324
0.48592
0.300459
0.324424
0.620912
1.24114
2.22353
3.59389
5.36613
7.54278
10.1149
13.0607
16.3437
19.9091
23.6806
27.557
31.4101
35.0842
38.3988
41.155
43.1461
44.1719
44.057
42.6702
39.9434
35.8866
30.597
24.2602
17.1414
9.56795
1.90431
-5.47804
-12.2322
-18.0651
-22.7613
-26.1983
-28.3514
-29.288
-29.1511
-28.1316
-26.4316
-24.2161
-21.5553
-18.3573
-14.2998
-8.77036
-0.835187
10.7393
27.3885
50.5596
81.4311
120.568
167.571
220.779
277.13
332.221
380.624
416.44
434.037
428.872
398.256
341.949
262.456
164.96
56.8798
-52.8939
-154.998
-240.684
-302.84
-336.823
-340.961
-316.697
-268.329
-202.424
-126.968
-50.3891
19.425
75.9857
114.84
133.918
133.574
116.325
86.3616
48.8928
9.42964
-26.9012
-55.9323
-74.8571
-82.425
-78.9268
-65.9905
-46.234
-22.83
0.951685
22.1675
38.5374
48.6642
52.1188
49.3938
41.7458
30.9556
19.046
7.99692
-0.507028
-5.26609
-5.67542
-1.74875
5.93881
16.3738
28.2712
40.2599
51.0613
59.6388
65.3028
67.7615
67.117
63.8117
58.5372
52.1204
45.4034
39.1332
33.8737
29.9495
27.4248
26.1182
25.6458
25.4875
25.0651
23.8208
21.2897
17.1548
11.2822
3.73184
-5.25481
-15.2874
-25.8745
-36.4806
-46.5839
-55.7298
-63.5727
-69.9031
-74.6575
-77.9118
-79.8591
-80.7769
-80.9872
-80.815
-80.5501
-80.4154
-80.5456
-80.9776
-81.6521
-82.4266
-83.0969
-83.4238
-83.1631
-82.0941
-80.0442
-76.9079
-72.6577
-67.3472
-61.1065
-54.1303
-46.6618
-38.9716
-31.3368
-24.0199
-17.2503
-11.2098
-6.02293
-1.75309
1.59684
4.07843
5.78813
6.85514
7.42791
7.66081
7.70192
7.68295
7.71189
7.86855
8.20296
8.73646
9.4648
10.3628
11.3898
12.4959
13.627
14.7307
15.7597
16.6755
17.4497
18.0655
18.5165
18.8053
18.9408
18.9357
18.8023
18.5503
18.1842
17.7014
17.0919
16.3391
15.4218
14.317
13.004
11.4695
9.71153
7.7441
5.59971
3.33034
1.00628
-1.28756
-3.4573
-5.40752
-7.04958
-8.30994
-9.13748
-9.50912
-9.43274
-8.94739
-8.12028
-7.04117
-5.81453
-4.55033
-3.35443
-2.31946
-1.51725
-0.993359
-0.764371
-0.817967
-1.11582
-1.5988
-2.19395
-2.82235
-3.40711
-3.88064
-4.19042
-4.30297
-4.20536
-3.90454
-3.42443
-2.80125
-2.0778
-1.29727
-0.497842
0.291373
1.05218
1.77668
2.46433
3.11731
3.73502
4.30908
4.81967
5.23429
5.50917
5.59363
5.43653
4.99434
4.23933
3.16694
1.80107
0.196423
-1.56245
-3.36563
-5.08528
-6.58542
-7.73298
-8.40876
-8.51739
-7.99498
-6.81398
-4.98461
-2.55291
0.404308
3.787
7.48117
11.3689
15.3379
19.2901
23.1474
26.855
30.3804
33.7095
36.8381
39.7619
42.4642
44.9056
47.0156
48.6901
49.7941
50.1729
49.6677
48.1376
45.4816
41.6604
36.7124
30.7623
24.019
16.7639
9.32858
2.0661
-4.68246
-10.6206
-15.5249
-19.2661
-21.8193
-23.2628
-23.7652
-23.5607
-22.9131
-22.0692
-21.201
-20.3382
-19.2949
-17.5978
-14.4315
-8.62285
1.31281
17.0387
40.1673
71.9429
112.871
162.355
218.419
277.597
335.055
384.967
421.133
437.765
430.334
396.337
335.861
251.833
149.894
37.9031
-74.8861
-178.856
-265.13
-326.603
-358.752
-360.123
-332.446
-280.344
-210.722
-131.89
-52.5597
19.1515
76.6026
115.278
133.142
130.682
110.64
77.5022
36.8198
-5.54101
-44.1223
-74.4848
-93.6389
-100.261
-94.6861
-78.6997
-55.1721
-27.5964
0.404083
25.5349
45.2026
57.7621
62.6217
60.2073
51.8046
39.3107
24.9375
10.9054
-0.830767
-8.79567
-12.126
-10.6145
-4.66875
4.80046
16.5405
29.1433
41.2308
51.6174
59.4315
64.1863
65.796
64.5414
60.9945
55.9161
50.1405
44.4638
39.548
35.8512
33.5887
32.7275
33.0101
34.003
35.1612
35.8994
35.6619
33.9829
30.5316
25.1391
17.8057
8.69113
-1.91
-13.6031
-25.9332
-38.4252
-50.6202
-62.105
-72.5317
-81.6294
-89.2054
-95.141
-99.3825
-101.93
-102.827
-102.154
-100.02
-96.561
-91.9409
-86.3479
-79.9951
-73.1163
-65.9598
-58.7794
-51.8217
-45.3126
-39.443
-34.3563
-30.139
-26.815
-24.3462
-22.638
-21.5497
-20.9089
-20.5284
-20.2231
-19.8258
-19.1998
-18.2477
-16.9141
-15.1856
-13.0842
-10.6599
-7.97976
-5.11842
-2.14851
0.865808
3.87245
6.83172
9.71359
12.4927
15.1422
17.6285
19.907
21.9214
23.6057
24.8901
25.7095
26.0126
25.7717
24.9905
23.7086
22.002
19.9788
17.7712
15.5237
13.3796
11.4671
9.88708
8.70337
7.93782
7.56954
7.53907
7.75651
8.11278
8.49237
8.7861
8.90238
8.77569
8.37139
7.68658
6.74709
5.60118
4.31106
2.94336
1.5599
0.210184
-1.07366
-2.27872
-3.40991
-4.48576
-5.53211
-6.57493
-7.63326
-8.71355
-9.80615
-10.8846
-11.908
-12.8253
-13.5824
-14.1298
-14.4295
-14.4616
-14.2282
-13.7546
-13.0879
-12.2931
-11.4464
-10.6284
-9.91605
-9.37463
-9.0516
-8.97118
-9.13124
-9.50247
-10.0301
-10.6383
-11.2369
-11.7294
-12.0231
-12.0377
-11.7141
-11.0201
-9.9539
-8.54406
-6.84638
-4.93798
-2.90928
-0.855042
1.13467
2.98249
4.62998
6.04153
7.20593
8.13543
8.86294
9.43768
9.91994
10.3756
10.8709
11.468
12.2218
13.1778
14.3714
15.8283
17.5653
19.5916
21.9102
24.5184
27.4079
30.5642
33.965
37.5779
41.3565
45.2363
49.1297
52.9209
56.4631
59.5774
62.0564
63.673
64.195
63.4046
61.1229
57.2356
51.7169
44.6483
36.2289
26.7729
16.6955
6.48539
-3.33344
-12.2456
-19.7903
-25.6029
-29.4468
-31.2297
-31.0017
-28.9298
-25.2482
-20.1851
-13.8707
-6.23696
3.07152
14.7511
29.8291
49.5639
75.2441
107.892
147.908
194.715
246.482
300.007
350.823
393.561
422.531
432.484
419.412
381.274
318.514
234.271
134.22
26.0594
-81.3088
-178.781
-258.112
-312.875
-339.199
-336.18
-305.924
-253.222
-184.907
-108.995
-33.7242
33.3819
86.3142
121.144
136.307
132.584
112.806
81.3423
43.4431
4.538
-30.4267
-57.5306
-74.2482
-79.6118
-74.1685
-59.7555
-39.1367
-15.5607
7.6976
27.7537
42.4394
50.5054
51.6881
46.6447
36.7771
23.9798
10.3491
-2.1046
-11.705
-17.2924
-18.322
-14.8753
-7.59142
2.46624
13.9827
25.5797
35.9927
44.2166
49.6038
51.9069
51.2669
48.1525
43.2638
37.4161
31.4196
25.9722
21.5759
18.4864
16.6988
15.9673
15.8546
15.8021
15.2105
13.5216
10.2898
5.23729
-1.71459
-10.4388
-20.6209
-31.7986
-43.4159
-54.886
-65.6532
-75.2478
-83.3275
-89.7011
-94.3336
-97.3326
-98.9191
-99.3883
-99.0634
-98.2524
-97.2089
-96.1055
-95.0202
-93.9366
-92.7589
-91.3358
-89.4914
-87.0578
-83.9045
-79.9604
-75.2274
-69.7821
-63.7683
-57.3793
-50.8361
-44.3615
-38.1567
-32.3811
-27.1395
-22.4767
-18.3805
-14.7918
-11.6194
-8.75854
-6.10883
-3.59105
-1.1592
1.19266
3.42981
5.48243
7.25639
8.64802
9.56075
9.92147
9.69444
8.89068
7.57159
5.84615
3.8619
1.79094
-0.187387
-1.90478
-3.22101
-4.03756
-4.30628
-4.03229
-3.2709
-2.11939
-0.704716
0.831141
2.34635
3.71331
4.8301
5.62833
6.07686
6.18128
5.97959
5.53502
4.92674
4.2399
3.55593
2.94414
2.45541
2.11837
1.93832
1.89875
1.96511
2.09036
2.2215
2.30648
2.30047
2.17117
1.90217
1.49444
0.96554
0.346755
-0.321351
-0.994545
-1.6309
-2.19638
-2.66922
-3.04261
-3.32517
-3.53918
-3.71682
-3.89494
-4.10904
-4.38743
-4.74628
-5.1864
-5.69215
-6.23263
-6.76506
-7.23971
-7.60589
-7.81802
-7.8411
-7.65486
-7.2561
-6.65884
-5.89245
-4.99787
-4.02247
-3.01427
-2.01632
-1.06187
-0.170974
0.651078
1.41352
2.13818
2.85622
3.60417
4.41974
5.33816
6.38919
7.59543
8.97169
10.5254
12.2579
14.1661
16.2439
18.4838
20.8772
23.4136
26.0781
28.8476
31.6857
34.5364
37.3187
39.9228
42.2091
44.0129
45.1536
45.4492
44.7357
42.8877
39.8383
35.5955
30.251
23.9812
17.038
9.73082
2.40172
-4.60422
-10.9691
-16.4296
-20.7985
-23.9773
-25.9578
-26.8126
-26.6713
-25.6833
-23.9659
-21.5399
-18.2562
-13.7256
-7.2646
2.11862
15.6775
34.7986
60.7852
94.5629
136.343
185.299
239.335
295.006
347.656
391.798
421.699
432.118
419.086
380.602
317.13
231.801
130.259
20.1727
-89.556
-189.767
-272.077
-329.84
-358.889
-357.986
-328.907
-276.163
-206.413
-127.637
-48.1965
24.1067
82.852
123.61
144.283
145.143
128.599
98.7284
60.6581
19.8742
-18.4423
-49.9809
-71.7084
-82.0832
-81.0706
-69.9779
-51.1486
-27.5662
-2.42708
21.2642
41.0299
55.1516
62.7848
63.9535
59.4412
50.6029
39.13
26.8037
15.2671
5.84244
-0.588426
-3.63525
-3.38229
-0.314372
4.79824
11.0364
17.4704
23.282
27.8565
30.8365
32.1337
31.9029
30.4858
28.3339
25.9252
23.6852
21.923
20.7906
20.2676
20.1713
20.1905
19.9335
18.985
16.9632
13.5692
8.62358
2.08676
-5.9381
-15.2184
-25.4187
-36.1357
-46.9386
-57.4073
-67.1675
-75.9173
-83.4443
-89.6322
-94.458
-97.9802
-100.321
-101.643
-102.128
-101.953
-101.273
-100.202
-98.8094
-97.113
-95.0845
-92.6586
-89.7476
-86.2594
-82.1174
-77.2788
-71.7507
-65.5994
-58.9535
-51.9985
-44.9638
-38.1035
-31.6723
-25.9015
-20.9753
-17.0128
-14.0562
-12.0678
-10.9353
-10.4844
-10.4982
-10.7393
-10.9735
-10.9914
-10.6264
-9.76666
-8.36042
-6.41526
-3.99107
-1.18885
1.86314
5.02376
8.15218
11.1186
13.8112
16.1404
18.0386
19.4592
20.3731
20.7658
20.6355
19.9921
18.8581
17.2702
15.2818
12.9655
10.4131
7.73499
5.05625
2.51085
0.233393
-1.65025
-3.03269
-3.83394
-4.00848
-3.5497
-2.4913
-0.905488
1.10178
3.39798
5.83311
8.24976
10.4936
12.4232
13.9189
14.8893
15.2763
15.0571
14.2441
12.8817
11.0426
8.82127
6.32788
3.68149
1.00412
-1.58456
-3.97195
-6.05659
-7.75211
-8.99122
-9.72964
-9.9498
-9.66377
-8.91464
-7.77583
-6.34766
-4.75121
-3.11947
-1.58687
-0.277813
0.704066
1.28504
1.42749
1.13261
0.439384
-0.579941
-1.82711
-3.18696
-4.53721
-5.75791
-6.73964
-7.38976
-7.63643
-7.43025
-6.74408
-5.57133
-3.92349
-1.82759
0.676113
3.53577
6.68905
10.0636
13.5775
17.1388
20.6466
23.9916
27.0578
29.726
31.8779
33.4016
34.1984
34.1898
33.324
31.582
28.9811
25.5774
21.4644
16.7695
11.6474
6.27105
0.820967
-4.52718
-9.61463
-14.311
-18.5232
-22.201
-25.336
-27.9529
-30.0895
-31.7627
-32.9203
-33.3793
-32.7576
-30.4124
-25.4048
-16.5154
-2.33489
18.5554
47.3142
84.5089
129.773
181.525
236.82
291.411
340.041
376.971
396.676
394.632
368.057
316.485
242.069
149.552
45.8757
-60.52
-160.627
-245.898
-309.234
-345.806
-353.582
-333.513
-289.347
-227.106
-154.313
-79.0701
-9.10387
49.0775
90.8388
113.801
117.928
105.325
79.7955
46.2344
9.93758
-24.0714
-51.6203
-69.808
-77.228
-73.9851
-61.5239
-42.3069
-19.3986
3.98559
24.9032
41.0328
50.9088
54.0244
50.8038
42.4586
30.7576
17.7491
5.47285
-4.29897
-10.2632
-11.7089
-8.55509
-1.30509
9.06757
21.2814
33.9321
45.6746
55.3795
62.2466
65.865
66.2186
63.6408
58.7311
52.2479
44.9941
37.7113
30.9952
25.2406
20.6193
17.0889
14.4281
12.2884
10.2554
7.90819
4.87183
0.856918
-4.31548
-10.7039
-18.2493
-26.7894
-36.0785
-45.8139
-55.6618
-65.2844
-74.3631
-82.6195
-89.8305
-95.8392
-100.559
-103.975
-106.135
-107.141
-107.134
-106.279
-104.748
-102.699
-100.27
-97.5648
-94.6469
-91.5434
-88.2489
-84.7354
-80.965
-76.9027
-72.5281
-67.8445
-62.8832
-57.7038
-52.3885
-47.0351
-41.7453
-36.6154
-31.7261
-27.1367
-22.882
-18.973
-15.4011
-12.1437
-9.1716
-6.45584
-3.97298
-1.70853
0.342189
2.17544
3.78232
5.15302
6.28126
7.16802
7.824
8.27036
8.53796
8.6652
8.6952
8.6726
8.6406
8.63823
8.69797
8.84347
9.08732
9.42892
9.85265
10.327
10.8051
11.227
11.5246
11.6282
11.475
11.0178
10.2329
9.12672
7.73802
6.13732
4.42153
2.7051
1.10836
-0.255516
-1.29335
-1.94305
-2.18149
-2.02827
-1.54472
-0.828315
-0.00300746
0.793303
1.42281
1.76178
1.71297
1.21545
0.251026
-1.15304
-2.92503
-4.95317
-7.09314
-9.17835
-11.0326
-12.4847
-13.3842
-13.6171
-13.12
-11.8913
-9.99639
-7.56721
-4.7941
-1.91085
0.825948
3.16104
4.86556
5.75992
5.73205
4.74864
2.85828
0.18631
-3.07771
-6.69792
-10.4131
-13.9578
-17.0824
-19.5687
-21.2427
-21.9831
-21.7252
-20.4634
-18.2504
-15.1939
-11.4526
-7.22833
-2.75596
1.70973
5.91067
9.60441
12.5843
14.6989
15.8685
16.0962
15.4706
14.1596
12.3947
10.4453
8.58864
7.07595
6.10176
5.77944
6.12731
7.06718
8.4359
10.0084
11.529
12.7469
13.4497
13.4922
12.8134
11.4415
9.4855
7.11404
4.52635
1.91874
-0.547438
-2.77168
-4.72996
-6.4774
-8.13707
-9.8749
-11.8623
-14.2286
-17.0051
-20.0656
-23.0663
-25.3946
-26.1361
-24.0775
-17.7607
-5.60557
13.891
41.8851
78.8715
124.371
176.682
232.77
288.344
338.158
376.535
398.038
398.231
374.389
326.039
255.253
166.6
66.764
-36.1351
-133.44
-216.94
-279.812
-317.398
-327.698
-311.537
-272.387
-215.867
-149.014
-79.415
-14.319
40.1536
79.6185
101.784
106.532
95.7348
72.8448
42.3369
9.07364
-22.3152
-47.9655
-65.1673
-72.5723
-70.2143
-59.3571
-42.205
-21.5267
-0.247433
18.9372
33.8788
43.1937
46.3623
43.7107
36.2883
25.6671
13.6957
2.24216
-7.04049
-12.9008
-14.6082
-11.9982
-5.44387
4.23416
15.9042
28.2844
40.1068
50.2643
57.9251
62.6019
64.1736
62.8585
59.1491
53.7173
47.3063
40.6246
34.2541
28.5849
23.7839
19.7962
16.379
13.1594
9.70608
5.6043
0.523221
-5.73289
-13.1954
-21.7265
-31.0374
-40.7263
-50.3286
-59.3734
-67.4379
-74.1927
-79.4341
-83.0992
-85.2632
-86.1212
-85.9571
-85.104
-83.9026
-82.6608
-81.6218
-80.941
-80.6763
-80.7891
-81.1569
-81.5926
-81.8686
-81.7416
-80.9761
-79.3652
-76.7473
-73.0191
-68.1449
-62.1625
-55.1848
-47.3971
-39.05
-30.4466
-21.9246
-13.8345
-6.51426
-0.263286
4.68217
8.1695
10.144
10.655
9.85276
7.97671
5.33496
2.27792
-0.831889
-3.65086
-5.88292
-7.30318
-7.77427
-7.25402
-5.79403
-3.52959
-0.662332
2.56229
5.88016
9.03368
11.7945
13.9816
15.4734
16.2129
16.2066
15.5168
14.2497
12.541
10.5405
8.39767
6.24951
4.21227
2.37619
0.803997
-0.467917
-1.42641
-2.07756
-2.44251
-2.55368
-2.45172
-2.18292
-1.79707
-1.34526
-0.87758
-0.440432
-0.0737527
0.191718
0.3367
0.354762
0.252522
0.0484438
-0.229734
-0.54869
-0.873882
-1.17399
-1.4248
-1.61197
-1.73224
-1.79299
-1.81008
-1.80447
-1.79801
-1.80919
-1.84939
-1.92027
-2.01271
-2.10749
-2.17748
-2.19113
-2.1166
-1.9259
-1.59832
-1.12262
-0.497727
0.268374
1.16099
2.16183
3.25184
4.41256
5.62503
6.86596
8.10119
9.27822
10.3197
11.1205
11.5513
11.4684
10.7326
9.23183
6.90666
3.77294
-0.0626535
-4.39819
-8.94516
-13.3505
-17.23
-20.2083
-21.9615
-22.2554
-20.9742
-18.1364
-13.8949
-8.52139
-2.37764
4.12284
10.5577
16.5377
21.7421
25.9447
29.0262
30.9743
31.8705
31.8683
31.1651
29.972
28.4862
26.8695
25.2334
23.6342
22.0758
20.5201
18.9015
17.144
15.1775
12.951
10.4427
7.66325
4.65526
1.4876
-1.75354
-4.97554
-8.09045
-11.0244
-13.7231
-16.1501
-18.2763
-20.0565
-21.3919
-22.0789
-21.7497
-19.8134
-15.4155
-7.43797
5.43925
24.5956
51.2425
86.1255
129.197
179.316
234.057
289.68
341.332
383.47
410.49
417.468
400.921
359.444
294.131
208.672
109.115
3.28625
-100.045
-192.151
-265.351
-313.885
-334.56
-327.072
-293.963
-240.251
-172.762
-99.2879
-27.6604
35.1221
83.6188
114.44
126.461
120.762
100.299
69.3946
33.102
-3.45629
-35.6985
-60.0705
-74.3626
-77.8333
-71.1425
-56.1227
-35.4299
-12.1303
10.7203
30.4525
45.072
53.4354
55.3018
51.2683
42.6077
31.0402
18.473
6.74448
-2.59707
-8.45585
-10.2784
-8.06768
-2.32745
6.04873
15.9244
26.0814
35.3736
42.8566
47.8777
50.123
49.6168
46.6819
41.8672
35.8569
29.3732
23.0852
17.5347
13.0846
9.89432
7.92142
6.94457
6.60371
6.45003
5.99983
4.78686
2.40898
-1.43374
-6.91174
-14.0505
-22.728
-32.6841
-43.5424
-54.8419
-66.0755
-76.7334
-86.3456
-94.5209
-100.977
-105.56
-108.251
-109.157
-108.493
-106.55
-103.656
-100.144
-96.3067
-92.3724
-88.485
-84.6967
-80.975
-77.221
-73.2959
-69.0534
-64.371
-59.1776
-53.4723
-47.3326
-40.9104
-34.4166
-28.0981
-22.2079
-16.9755
-12.5799
-9.12967
-6.65193
-5.09187
-4.32202
-4.15958
-4.38927
-4.78813
-5.14932
-5.30189
-5.12461
-4.55278
-3.57799
-2.24179
-0.624686
1.16761
3.01861
4.81463
6.45587
7.86441
8.9887
9.80473
10.3142
10.5405
10.523
10.3098
9.95126
9.49257
8.96837
8.39894
7.78874
7.12786
6.39603
5.56888
4.62558
3.55648
2.36955
1.09414
-0.218796
-1.50048
-2.67171
-3.65277
-4.37422
-4.78683
-4.8688
-4.62928
-4.10739
-3.36721
-2.48931
-1.56039
-0.662519
0.13646
0.790014
1.27663
1.59983
1.78468
1.87159
1.90826
1.94129
2.00847
2.13294
2.31997
2.55669
2.81473
3.05518
3.23508
3.31443
3.26254
3.06288
2.71571
2.23804
1.66115
1.02606
0.377677
-0.241302
-0.795805
-1.26233
-1.63083
-1.90436
-2.09675
-2.2288
-2.32394
-2.40418
-2.48745
-2.58655
-2.71024
-2.86568
-3.06171
-3.31161
-3.63453
-4.05449
-4.59683
-5.28229
-6.11957
-7.0978
-8.1806
-9.30333
-10.3749
-11.2843
-11.9124
-12.146
-11.8943
-11.103
-9.76633
-7.93237
-5.70281
-3.22573
-0.682222
1.7316
3.82583
5.43905
6.45965
6.84386
6.62839
5.93539
4.96842
3.99838
3.33999
3.3203
4.24196
6.34482
9.77007
14.5312
20.4961
27.3837
34.7768
42.1531
48.93
54.5217
58.3996
60.1521
59.5323
56.4914
51.1884
43.9791
35.3808
26.0203
16.5693
7.67524
-0.103044
-6.34938
-10.8265
-13.4918
-14.4909
-14.1304
-12.8316
-11.0693
-9.29711
-7.86505
-6.93116
-6.37502
-5.72279
-4.09955
-0.229125
7.49617
20.8579
41.56
70.8962
109.377
156.378
209.883
266.406
321.141
368.369
402.086
416.778
408.246
374.328
315.406
234.605
137.614
32.1622
-72.8129
-168.179
-245.674
-298.87
-323.92
-319.965
-289.174
-236.42
-168.621
-93.8704
-20.4591
44.0772
93.7697
124.791
135.737
127.603
103.469
67.9671
26.5994
-14.9861
-51.6789
-79.4627
-95.7896
-99.7421
-91.9821
-74.5128
-50.3002
-22.8134
4.45043
28.3976
46.676
57.8882
61.6636
58.597
50.0723
38.0072
24.5561
11.8147
1.56112
-4.93577
-7.02599
-4.6987
1.4795
10.4926
21.0466
31.7591
41.3409
48.7474
53.2856
54.6654
52.9961
48.7333
42.5874
35.4092
28.0686
21.341
15.8156
11.8336
9.46197
8.50315
8.53704
8.98825
9.20923
8.56821
6.53102
2.72717
-3.00738
-10.6148
-19.8279
-30.2086
-41.2044
-52.217
-62.6721
-72.0823
-80.0943
-86.5167
-91.3241
-94.6401
-96.7017
-97.8127
-98.2922
-98.4268
-98.4317
-98.4272
-98.4311
-98.3673
-98.0884
-97.4067
-96.1294
-94.091
-91.18
-87.3558
-82.6537
-77.1806
-71.1004
-64.6151
-57.9424
-51.2942
-44.8587
-38.7877
-33.1899
-28.1292
-23.6296
-19.6814
-16.2512
-13.2911
-10.7474
-8.56733
-6.70366
-5.11711
-3.77661
-2.65819
-1.74288
-1.01434
-0.456612
-0.0523139
0.2184
0.378153
0.451901
0.465878
0.446098
0.416653
0.398023
0.405653
0.448969
0.531005
0.64872
0.794044
0.955576
1.12077
1.2783
1.42018
1.5432
1.64922
1.74422
1.83595
1.93081
2.03042
2.12885
2.21127
2.25458
2.2304
2.10993
1.87007
1.49962
1.00435
0.409805
-0.238779
-0.879878
-1.44187
-1.85133
-2.04215
-1.96428
-1.59072
-0.921792
0.0138044
1.16145
2.44606
3.77983
5.07116
6.23373
7.19438
7.89912
8.31667
8.43933
8.28136
7.87548
7.26799
6.51331
5.66851
4.78846
3.92178
3.10791
2.37534
1.74078
1.20938
0.775601
0.424768
0.135081
-0.12003
-0.369342
-0.641228
-0.961228
-1.35001
-1.82194
-2.38445
-3.03802
-3.77672
-4.5886
-5.45569
-6.35311
-7.24735
-8.09422
-8.83721
-9.40733
-9.7254
-9.70736
-9.27248
-8.35391
-6.91005
-4.93494
-2.4657
0.414889
3.58199
6.87926
10.1358
13.1879
15.9029
18.2013
20.0737
21.5881
22.8866
24.1695
25.6684
27.6119
30.1871
33.5043
37.5672
42.257
47.3306
52.4363
57.145
60.995
63.5429
64.4179
63.3683
60.2975
55.2824
48.5719
40.5657
31.7755
22.7732
14.1325
6.37129
-0.0985455
-5.0086
-8.25376
-9.89346
-10.1344
-9.29712
-7.769
-5.94791
-4.1784
-2.68317
-1.49229
-0.37455
1.22102
4.19997
9.81512
19.5963
35.1998
58.1703
89.6282
129.918
178.276
232.59
289.324
343.669
389.932
422.151
434.854
423.872
387.06
324.812
240.266
139.152
29.2727
-80.3144
-180.308
-262.232
-319.421
-347.773
-346.193
-316.654
-263.885
-194.745
-117.354
-40.1258
29.1967
84.3598
121.197
137.938
135.21
115.762
83.9506
45.0917
4.74362
-31.966
-60.9015
-79.3068
-85.9902
-81.3007
-66.9211
-45.5199
-20.3189
5.36099
28.5194
46.8113
58.7657
63.8723
62.5388
55.938
45.7738
34.0063
22.5722
13.138
6.91339
4.54292
6.08047
11.0427
18.5256
27.3638
36.3065
44.1878
50.0686
53.3352
53.7478
51.4349
46.8432
40.6502
33.657
26.6739
20.416
15.4175
11.976
10.1293
9.66544
10.1623
11.0507
11.6914
11.4569
9.80757
6.35431
0.900161
-6.5418
-15.7557
-26.3529
-37.82
-49.5782
-61.0463
-71.6987
-81.1127
-88.999
-95.2131
-99.749
-102.716
-104.305
-104.75
-104.29
-103.133
-101.44
-99.3087
-96.7749
-93.826
-90.4174
-86.493
-82.0065
-76.9377
-71.304
-65.1656
-58.624
-51.8161
-44.9036
-38.0607
-31.4611
-25.2655
-19.6114
-14.6045
-10.3142
-6.77079
-3.96678
-1.85962
-0.377251
0.575044
1.10654
1.33241
1.36503
1.30584
1.23849
1.22375
1.2966
1.46592
1.71662
2.01411
2.31068
2.55305
2.69045
2.68233
2.50482
2.15524
1.65412
1.04435
0.387439
-0.242668
-0.76788
-1.11532
-1.22682
-1.06755
-0.632512
0.0496682
0.916645
1.87613
2.81372
3.60425
4.12596
4.27588
3.98459
3.2284
2.03681
0.493936
-1.26698
-3.07553
-4.74152
-6.07562
-6.91083
-7.12197
-6.64082
-5.46485
-3.65877
-1.34833
1.29236
4.05884
6.73707
9.12475
11.0505
12.3889
13.0696
13.0802
12.4621
11.301
9.71384
7.8328
5.79118
3.71082
1.69368
-0.182319
-1.86324
-3.316
-4.52332
-5.4784
-6.18036
-6.63156
-6.8368
-6.80444
-6.54842
-6.09039
-5.46075
-4.69813
-3.84684
-2.95281
-2.05844
-1.19754
-0.391219
0.354566
1.04921
1.71552
2.38578
3.09661
3.88333
4.77483
5.78984
6.93556
8.20923
9.60295
11.1114
12.741
14.5194
16.5019
18.7729
21.4406
24.6238
28.431
32.9344
38.1418
43.9706
50.2299
56.6147
62.7163
68.0502
72.0995
74.3711
74.4551
72.0829
67.1709
59.8472
50.4519
39.5139
27.7028
15.7636
4.44217
-5.59101
-13.8067
-19.8666
-23.6497
-25.2521
-24.9596
-23.1929
-20.4297
-17.1064
-13.5078
-9.65553
-5.20983
0.591717
8.93589
21.3509
39.5235
65.0158
98.9058
141.4
191.492
246.738
303.243
355.879
398.761
425.93
432.156
413.742
369.204
299.693
209.104
103.802
-7.98168
-117.03
-214.172
-291.334
-342.451
-364.147
-356.07
-320.86
-263.758
-191.923
-113.543
-36.8775
30.6673
83.3012
117.375
131.618
127.078
106.792
75.25
37.7352
-0.373902
-34.2467
-60.1174
-75.6238
-79.9436
-73.7296
-58.8721
-38.1343
-14.7167
8.18719
27.789
42.0133
49.6856
50.5887
45.395
35.4935
22.7458
9.20631
-3.154
-12.6861
-18.2386
-19.2546
-15.7855
-8.42851
1.79718
13.6137
25.6634
36.6794
45.6276
51.8051
54.8881
54.9273
52.2981
47.6155
41.6295
35.1152
28.773
23.1502
18.5918
15.2221
12.9564
11.5367
10.5834
9.653
8.29536
6.10222
2.74396
-2.00699
-8.26524
-16.0319
-25.2013
-35.5727
-46.8646
-58.7299
-70.7729
-82.5665
-93.6709
-103.654
-112.114
-118.702
-123.145
-125.268
-125.01
-122.431
-117.722
-111.185
-103.223
-94.3077
-84.9449
-75.634
-66.8285
-58.899
-52.1049
-46.5758
-42.3071
-39.1691
-36.929
-35.2832
-33.8968
-32.4446
-30.6487
-28.3096
-25.3257
-21.7005
-17.5365
-13.018
-8.38499
-3.90204
0.173716
3.62183
6.28164
8.0671
8.97231
9.06771
8.48802
7.41381
6.049
4.59705
3.23837
2.11152
1.3004
0.828596
0.661642
0.716812
0.879002
1.02057
1.02235
0.792924
0.283469
-0.503889
-1.51525
-2.6517
-3.78265
-4.76367
-5.45645
-5.74798
-5.56643
-4.89161
-3.75882
-2.2556
-0.512146
1.31349
3.05329
4.5481
5.66509
6.3117
6.44458
6.07259
5.25363
4.08594
2.69519
1.21908
-0.208605
-1.47242
-2.48647
-3.20127
-3.60556
-3.72326
-3.60633
-3.32482
-2.95569
-2.57199
-2.23391
-1.98252
-1.83688
-1.7944
-1.83397
-1.92117
-2.01443
-2.07122
-2.0534
-1.93101
-1.68428
-1.30361
-0.787831
-0.140859
0.632813
1.53333
2.5708
3.77
5.17323
6.84059
8.84642
11.2718
14.1929
17.667
21.7167
26.3154
31.3758
36.7441
42.2002
47.4667
52.2251
56.1382
58.8779
60.1539
59.742
57.5074
53.4203
47.5644
40.1342
31.4241
21.81
11.724
1.62616
-8.02576
-16.8059
-24.3473
-30.364
-34.6679
-37.1755
-37.906
-36.9647
-34.5111
-30.7106
-25.6695
-19.3599
-11.5477
-1.73925
10.8268
27.1218
48.1871
74.9097
107.737
146.369
189.502
234.677
278.307
315.918
342.589
353.568
344.963
314.411
261.607
188.6
99.7787
1.54135
-98.3283
-191.501
-270.045
-327.343
-358.859
-362.659
-339.601
-293.196
-229.147
-154.645
-77.5102
-5.30207
55.5009
100.146
126.013
132.739
122.079
97.5234
63.744
25.9504
-10.7627
-41.995
-64.4832
-76.366
-77.2554
-68.1245
-51.0421
-28.8024
-4.50556
18.8551
38.7486
53.3669
61.7681
63.8967
60.4916
52.9045
42.8612
32.2014
22.6313
15.5196
11.7566
11.6888
15.1284
21.4298
29.6152
38.5302
47.0056
54.0048
58.7405
60.7476
59.9098
56.4394
50.8185
43.7127
35.8707
28.0234
20.7957
14.64
9.7975
6.28977
3.93725
2.40077
1.23776
-0.0348463
-1.87932
-4.68413
-8.72422
-14.1371
-20.9153
-28.9132
-37.867
-47.422
-57.1659
-66.6635
-75.4904
-83.2634
-89.666
-94.4677
-97.5364
-98.8434
-98.4612
-96.5529
-93.3568
-89.1641
-84.2938
-79.0656
-73.7732
-68.6613
-63.9072
-59.61
-55.7885
-52.3877
-49.2937
-46.3544
-43.4043
-40.2896
-36.8899
-33.135
-29.0134
-24.5725
-19.9105
-15.1615
-10.4766
-6.00391
-1.86931
1.83735
5.07069
7.83108
10.1594
12.1264
13.819
15.3248
16.7186
18.0508
19.3406
20.5729
21.7006
22.6506
23.3338
23.6569
23.5351
22.9056
21.7381
20.0436
17.8781
15.3425
12.5773
9.75195
7.05148
4.65977
2.74231
1.4299
0.805025
0.892459
1.65507
2.9954
4.76281
6.76565
8.78717
10.6038
12.0038
12.8057
12.873
12.127
10.553
8.20352
5.19454
1.69718
-2.07554
-5.88564
-9.48965
-12.6586
-15.1973
-16.9602
-17.8633
-17.8906
-17.0941
-15.5876
-13.5359
-11.1384
-8.61085
-6.16613
-3.99527
-2.25154
-1.03792
-0.399246
-0.319299
-0.722915
-1.48281
-2.43055
-3.37081
-4.098
-4.41401
-4.14599
-3.16283
-1.38919
1.18409
4.49416
8.40573
12.7163
17.1675
17.1675
17.1675
17.1675
17.1675
17.1675
17.1675
17.1675
17.1675
17.1675
17.1675
17.1675
17.1675
17.1675
17.1675
17.1675
17.1675
17.1675
17.1675
