-121.085
-104.129
-85.9184
-67.2447
-48.9886
-32.0223
-17.1046
-4.78618
4.6592
11.2679
15.378
17.5806
18.6385
19.3826
20.6033
22.9496
26.8507
32.4689
39.6902
48.1488
57.284
66.418
74.8438
81.9122
87.1063
90.0955
90.7635
89.2091
85.7215
80.7353
74.7724
68.3791
62.0654
56.2547
51.2488
47.2096
44.1599
41.9996
40.5344
39.5119
38.6595
37.7191
36.4761
34.7783
32.5461
29.7724
26.5159
22.8879
19.0363
15.1283
11.3328
7.80606
4.67925
2.04987
-0.0231433
-1.5208
-2.46204
-2.89895
-2.90975
-2.59037
-2.04534
-1.37875
-0.686191
-0.0480488
0.475136
0.84514
1.04624
1.08336
0.978435
0.765718
0.486399
0.183264
-0.104132
-0.343353
-0.511737
-0.597695
-0.600648
-0.529785
-0.401861
-0.238411
-0.0627221
0.103064
0.240409
0.336153
0.383481
0.382049
0.337324
0.259321
0.160921
0.05603
-0.0421976
-0.122853
-0.178344
-0.204955
-0.202874
-0.175743
-0.129843
-0.0730388
-0.0136405
0.0406602
0.0836693
0.111288
0.12179
0.115771
0.0958235
0.0659938
0.031118
-0.00386623
-0.034548
-0.0575372
-0.0707779
-0.0736612
-0.0669452
-0.0525119
-0.0330104
-0.0114413
0.00925764
0.0265735
0.0386888
0.0446349
0.044323
0.0384611
0.02838
0.0157989
0.00256832
-0.00957707
-0.0192241
-0.0254244
-0.0277647
-0.026361
-0.0217884
-0.0149594
-0.00697328
0.00104189
0.00807442
0.0133438
0.0163744
0.0170226
0.0154601
0.0121183
0.00760656
0.00261689
-0.00217223
-0.00617956
-0.00898396
-0.0103604
-0.0102873
-0.00892772
-0.00658941
-0.0036704
-0.000599554
0.00222069
0.00446217
0.00590436
0.0064507
0.00612758
0.00506794
0.003483
0.00162534
-0.00025775
-0.00199451
-0.00361824
-0.00561549
-0.00935827
-0.0177534
-0.0360658
-0.0727686
-0.140175
-0.25455
-0.435424
-0.703934
-1.08021
-1.58009
-2.21155
-2.97164
-3.84438
-4.80023
-5.79747
-6.78547
-7.70965
-8.51737
-9.16436
-9.62042
-9.87385
-9.93372
-9.82961
-9.60853
-9.32945
-9.0558
-8.84696
-8.74973
-8.79093
-8.9722
-9.26762
-9.62482
-9.96927
-10.2113
-10.2551
-10.0081
-9.39041
-8.34185
-6.82748
-4.8403
-2.40192
0.438231
3.60453
6.99697
10.4931
13.9505
17.2106
20.1053
22.4658
24.1348
24.9818
24.9177
23.9088
21.9868
19.2523
15.8716
12.0655
8.09063
4.21677
0.700919
-2.23739
-4.43708
-5.8102
-6.34844
-6.12099
-5.26411
-3.96376
-2.43373
-0.891694
0.463839
1.4731
2.02921
2.08553
1.6559
0.80817
-0.347612
-1.67469
-3.02663
-4.2638
-5.26774
-5.95187
-6.26786
-6.20755
-5.80059
-5.10859
-4.21669
-3.22374
-2.23218
-1.33856
-0.625751
-0.157252
0.0259773
-0.0938588
-0.513085
-1.21013
-2.1504
-3.29178
-4.5901
-6.00393
-7.49824
-9.04652
-10.6314
-12.2437
-13.8804
-15.5422
-17.2306
-18.946
-20.6862
-22.4449
-24.211
-25.9669
-27.6848
-29.323
-30.8198
-32.0886
-33.0137
-33.45
-33.2282
-32.1652
-30.0821
-26.8265
-22.2971
-16.4673
-9.40389
-1.27593
7.64658
17.0075
26.3905
35.3543
43.473
50.3759
55.7824
59.5279
61.5761
62.0177
61.0554
58.9774
56.1229
52.8441
49.4697
46.2731
43.4496
41.104
39.2494
37.8162
36.6698
35.6331
34.5132
33.1259
31.3182
28.9846
26.0775
22.6099
18.6507
14.3154
9.75155
5.12187
0.587824
-3.70564
-7.6418
-11.1395
-14.1559
-16.6839
-18.7469
-20.3895
-21.6676
-22.6385
-23.3522
-23.845
-24.1366
-24.2301
-24.1141
-23.7682
-23.1685
-22.2938
-21.1305
-19.677
-17.9449
-15.9584
-13.7505
-11.3543
-8.78863
-6.03465
-3.00316
0.508164
4.86371
10.6374
18.6461
29.954
45.8305
67.6509
96.7339
134.125
180.347
235.148
297.299
364.471
433.245
499.275
557.597
603.085
630.99
637.502
620.261
578.741
514.445
430.871
333.245
228.043
122.353
23.1714
-63.3081
-132.299
-180.866
-208.14
-215.314
-205.384
-182.725
-152.517
-120.123
-90.4856
-67.614
-54.2114
-51.4855
-59.1449
-75.5719
-98.1365
-123.604
-148.581
-169.944
-185.201
-192.75
-192.007
-183.409
-168.286
-148.641
-126.857
-105.383
-86.4223
-71.6773
-62.1644
-58.1244
-59.0313
-63.6928
-70.4258
-77.2788
-82.2743
-83.6393
-79.9971
-70.5021
-54.9049
-33.5458
-7.28295
22.6308
54.705
87.3809
119.194
148.91
175.625
198.821
218.369
234.498
247.721
258.742
268.354
277.328
286.328
295.841
306.131
317.235
328.973
340.991
352.816
363.924
373.799
381.987
388.134
392.002
393.471
392.515
389.181
383.545
375.681
365.637
353.416
338.976
322.244
303.143
281.629
257.736
231.613
203.564
174.063
143.761
113.46
84.0684
56.5399
31.79
10.6129
-6.40095
-18.9314
-26.9726
-30.8447
-31.1728
-28.8311
-24.8584
-20.3558
-16.3753
-13.8152
-13.3341
-15.2927
-19.731
-26.3827
-34.7224
-44.0408
-53.5353
-62.4068
-69.9482
-75.6171
-79.0835
-80.2502
-79.2442
-76.3847
-72.1314
-67.0226
-61.6109
-56.404
-51.8169
-48.1407
-45.528
-43.9972
-43.4499
-43.7005
-44.5111
-45.628
-46.814
-47.8745
-48.6739
-49.1421
-49.2711
-49.1039
-48.7174
-48.2031
-47.6471
-47.1135
-46.6314
-46.1879
-45.7273
-45.1565
-44.3549
-43.1898
-41.5336
-39.2827
-36.3743
-32.8003
-28.6153
-23.9379
-18.9441
-13.8536
-8.91044
-4.35943
-0.422117
2.72557
4.97091
6.27511
6.67607
6.28286
5.26276
3.82255
2.18633
0.572503
-0.827438
-1.86598
-2.45082
-2.5493
-2.18597
-1.43414
-0.402846
0.778831
1.97789
3.07208
3.9616
4.57666
4.88082
4.87021
4.56943
4.02523
3.29915
2.46016
1.5782
0.719306
-0.057476
-0.701255
-1.16873
-1.4221
-1.42597
-1.14364
-0.533665
0.45318
1.87653
3.81014
6.34899
9.62316
13.8215
19.2265
26.2589
35.5251
47.8553
64.3146
86.1663
114.768
151.389
196.952
251.722
314.988
384.803
457.847
529.49
594.068
645.401
677.476
685.224
665.282
616.591
540.751
442.043
327.108
204.301
82.8135
-28.331
-121.262
-190.113
-231.609
-245.348
-233.716
-201.485
-155.15
-102.091
-49.6861
-4.47632
28.508
46.1966
47.6602
34.0223
8.13416
-25.9294
-63.4753
-99.818
-130.846
-153.466
-165.883
-167.691
-159.792
-144.152
-123.459
-100.711
-78.8171
-60.2286
-46.675
-39.0044
-37.1511
-40.22
-46.6682
-54.5528
-61.8082
-66.5167
-67.1387
-62.6775
-52.7639
-37.656
-18.1616
4.50029
28.8789
53.4839
76.9674
98.2735
116.739
132.139
144.67
154.89
163.61
171.777
180.336
190.123
201.77
215.652
231.869
250.263
270.464
291.95
314.117
336.341
358.031
378.657
397.769
414.984
429.967
442.403
451.966
458.3
461.008
459.663
453.835
443.131
427.249
406.034
379.537
348.052
312.149
272.672
230.717
187.572
144.639
103.332
64.9629
30.6324
1.13758
-23.0943
-42.0339
-56.0361
-65.7847
-72.204
-76.3462
-79.2695
-81.9231
-85.051
-89.1264
-94.3227
-100.523
-107.361
-114.292
-120.679
-125.877
-129.318
-130.58
-129.422
-125.81
-119.905
-112.036
-102.658
-92.2934
-81.4856
-70.7436
-60.5045
-51.1058
-42.7718
-35.613
-29.6362
-24.7622
-20.8482
-17.7107
-15.1476
-12.9557
-10.9452
-8.94842
-6.82578
-4.4683
-1.79888
1.22707
4.62089
8.35967
12.3854
16.6049
20.8915
25.0887
29.0175
32.486
35.3026
37.2896
38.2992
38.227
37.0232
34.6982
31.3228
27.0203
21.9533
16.3045
10.257
3.97404
-2.41483
-8.82167
-15.1985
-21.527
-27.8007
-34.0027
-40.083
-45.9398
-51.4077
-56.2583
-60.2118
-62.9621
-64.21
-63.7031
-61.2748
-56.8774
-50.6041
-42.6952
-33.5271
-23.5849
-13.4208
-3.6037
5.33352
12.9438
18.905
23.0457
25.3526
25.9618
25.1338
23.2171
20.605
17.6909
14.8276
12.2948
10.278
8.85991
8.02507
7.67471
7.65029
7.76157
7.81574
7.64396
7.12258
6.18679
4.83572
3.12877
1.17409
-0.889219
-2.91257
-4.76057
-6.33189
-7.57591
-8.50318
-9.18838
-9.7654
-10.4146
-11.3436
-12.7621
-14.8545
-17.7507
-21.5
-26.0498
-31.2341
-36.7732
-42.2883
-47.33
-51.4204
-54.1034
-54.998
-53.8478
-50.5572
-45.2101
-38.0632
-29.5145
-20.0454
-10.1408
-0.194732
9.58968
19.292
29.3444
40.5624
54.1211
71.4626
94.1287
123.521
160.61
205.624
257.773
315.064
374.265
431.049
480.352
516.888
535.793
533.289
507.278
457.763
387.025
299.507
201.422
100.116
3.28275
-81.8843
-149.467
-195.444
-218.071
-217.983
-198.007
-162.733
-117.899
-69.6774
-23.9596
14.2753
41.4382
55.6053
56.5751
45.7169
25.6492
-0.19941
-28.0817
-54.411
-76.171
-91.2132
-98.4174
-97.7104
-89.9554
-76.7395
-60.0981
-42.2155
-25.1422
-10.5616
0.370223
7.10109
9.67546
8.65401
4.97888
-0.192124
-5.65821
-10.3325
-13.3656
-14.2241
-12.7191
-8.98712
-3.43
3.37393
10.774
18.1516
25.0121
31.0519
36.1956
40.5987
44.6183
48.7576
53.5932
59.6946
67.5485
77.4957
89.6892
104.076
120.406
138.258
157.087
176.276
195.192
213.234
229.862
244.624
257.15
267.148
274.378
278.629
279.703
277.401
271.529
261.924
248.485
231.223
210.314
186.137
159.303
130.653
101.226
72.1978
44.7924
20.1748
-0.660333
-16.9907
-28.4454
-35.0492
-37.224
-35.7464
-31.6646
-26.1858
-20.5454
-15.8764
-13.0926
-12.801
-15.2522
-20.3328
-27.6003
-36.3526
-45.7239
-54.7934
-62.6932
-68.7036
-72.3255
-73.3227
-71.7319
-67.8416
-62.1459
-55.2783
-47.9372
-40.81
-34.5059
-29.5026
-26.1111
-24.4625
-24.5128
-26.0658
-28.8083
-32.3524
-36.2795
-40.1822
-43.6977
-46.5337
-48.4824
-49.4256
-49.3303
-48.2382
-46.2506
-43.5107
-40.187
-36.4569
-32.4934
-28.4545
-24.4761
-20.6677
-17.1111
-13.861
-10.9475
-8.3793
-6.14736
-4.22855
-2.58888
-1.18645
0.0257981
1.0973
2.07694
3.00992
3.93454
4.8791
5.85938
6.87687
7.91803
8.95481
9.94634
10.8417
11.5837
12.1131
12.374
12.3177
11.9081
11.1252
9.96783
8.45576
6.62958
4.54955
2.2927
-0.0514764
-2.38645
-4.61489
-6.64507
-8.39688
-9.80685
-10.8317
-11.4502
-11.663
-11.4905
-10.9701
-10.151
-9.09014
-7.8464
-6.47659
-5.03173
-3.55466
-2.07914
-0.630326
0.773651
2.11914
3.39421
4.58601
5.67886
6.65338
7.48665
8.15351
8.62854
8.8885
8.91466
8.69479
8.22452
7.50798
6.55771
5.39386
4.04305
2.53688
0.910497
-0.798624
-2.5514
-4.30732
-6.02403
-7.65655
-9.1566
-10.4724
-11.5499
-12.335
-12.7782
-12.8398
-12.4963
-11.7457
-10.6124
-9.14856
-7.43255
-5.56462
-3.65885
-1.83334
-0.199198
1.15001
2.14709
2.7573
2.98077
2.85125
2.4311
1.80352
1.06282
0.304003
-0.387041
-0.941686
-1.3142
-1.4844
-1.45715
-1.25916
-0.933423
-0.532271
-0.109929
0.284553
0.613045
0.852148
0.994706
1.04901
1.03612
0.98589
0.93259
0.910944
0.953144
1.0872
1.3366
1.72091
2.25706
2.96069
3.84758
4.93475
6.24137
7.78908
9.60148
11.7023
14.1116
16.8404
19.883
23.2091
26.7563
30.4251
34.0781
37.5465
40.645
43.1987
45.0841
46.2825
46.9465
47.47
48.5513
51.2341
56.905
67.2304
84.0178
108.997
143.532
188.299
242.967
305.955
374.312
443.782
509.075
564.325
603.717
622.173
616.034
583.612
525.542
444.856
346.772
238.203
127.058
21.4121
-71.3428
-145.257
-196.403
-223.204
-226.484
-209.242
-176.188
-133.114
-86.1837
-41.2267
-3.1297
24.6169
40.1702
43.372
35.5843
19.3603
-1.99409
-24.9058
-46.0036
-62.5152
-72.5505
-75.2469
-70.7739
-60.2077
-45.3066
-28.2227
-11.1931
3.74953
15.0132
21.6059
23.2043
20.1345
13.2727
3.88918
-6.54277
-16.5435
-24.8059
-30.3346
-32.5328
-31.2298
-26.6516
-19.3431
-10.0569
0.374341
11.1623
21.6697
31.4852
40.4607
48.7089
56.5656
64.525
73.1588
83.0315
94.6227
108.266
124.11
142.103
161.999
183.388
205.733
228.421
250.807
272.264
292.217
310.167
325.713
338.545
348.443
355.256
358.889
359.278
356.379
350.156
340.58
327.638
311.349
291.79
269.121
243.618
215.697
185.926
155.03
123.868
93.3913
64.5858
38.3952
15.6401
-3.06143
-17.3582
-27.208
-32.8884
-34.975
-34.2858
-31.799
-28.5532
-25.5399
-23.6029
-23.3546
-25.1209
-28.9184
-34.4679
-41.2413
-48.5342
-55.557
-61.5314
-65.7815
-67.8087
-67.3433
-64.3672
-59.1072
-52.0009
-43.6414
-34.7082
-25.8925
-17.8264
-11.0231
-5.83385
-2.42596
-0.78149
-0.716338
-1.91535
-3.97855
-6.47244
-8.98016
-11.145
-12.703
-13.5018
-13.5044
-12.78
-11.4821
-9.81976
-8.02434
-6.31705
-4.88104
-3.84099
-3.25223
-3.10004
-3.30824
-3.75539
-4.29559
-4.781
-5.08268
-5.10735
-4.80792
-4.187
-3.29347
-2.21307
-1.05471
0.0652624
1.03867
1.77889
2.23055
2.37446
2.22768
1.83919
1.28214
0.644277
0.0178366
-0.509629
-0.862599
-0.982621
-0.830981
-0.389325
0.341296
1.3424
2.58058
4.01013
5.57554
7.2137
8.85583
10.4292
11.8591
13.0707
13.9922
14.5581
14.7135
14.4193
13.6567
12.4321
10.7805
8.76646
6.48428
4.05404
1.61596
-0.677892
-2.67338
-4.22494
-5.20579
-5.51684
-5.09334
-3.90876
-1.97579
0.654968
3.89815
7.63754
11.7302
16.0102
20.2923
24.3764
28.052
31.1061
33.3315
34.5389
34.5686
33.3032
30.6785
26.6921
21.408
14.9583
7.54035
-0.587812
-9.11482
-17.6824
-25.8893
-33.2903
-39.3863
-43.6069
-45.2832
-43.6185
-37.6646
-26.3176
-8.35108
17.4997
52.3898
97.1548
152.056
216.514
288.883
366.314
444.776
519.242
584.082
633.591
662.634
667.292
645.426
597.075
524.608
432.595
327.418
216.644
108.253
9.80793
-72.3199
-133.58
-171.648
-186.562
-180.588
-157.834
-123.678
-84.0816
-44.8887
-11.1796
13.2301
26.1055
26.8947
16.6219
-2.39808
-26.9755
-53.5294
-78.5736
-99.1455
-113.13
-119.446
-118.088
-110.029
-97.0024
-81.2175
-65.0284
-50.6163
-39.7184
-33.4312
-32.1095
-35.3645
-42.1533
-50.943
-59.9231
-67.2366
-71.2036
-70.5079
-64.3313
-52.4213
-35.0909
-13.1543
12.1891
39.5057
67.2954
94.1543
118.917
140.763
159.276
174.455
186.682
196.643
205.222
213.383
222.047
231.979
243.708
257.47
273.195
290.523
308.862
327.453
345.462
362.065
376.524
388.245
396.812
401.994
403.728
402.083
397.215
389.312
378.553
365.077
348.968
330.261
308.972
285.138
258.866
230.384
200.08
168.526
136.471
104.817
74.5579
46.7051
22.1952
1.80012
-13.9548
-24.8491
-30.9963
-32.8367
-31.0956
-26.7104
-20.7356
-14.2372
-8.18927
-3.38382
-0.365591
0.603062
-0.455976
-3.26634
-7.35309
-12.1167
-16.9149
-21.1431
-24.3027
-26.0512
-26.2302
-24.8682
-22.1611
-18.4358
-14.1003
-9.59062
-5.31903
-1.63067
1.22729
3.12194
4.03616
4.05695
3.35382
2.15081
0.696473
-0.764673
-2.01614
-2.88686
-3.26104
-3.08058
-2.341
-1.08258
0.621041
2.67478
4.97247
7.40441
9.86154
12.2367
14.4236
16.3163
17.8084
18.7963
19.1843
18.8929
17.8686
16.0939
13.595
10.446
6.76782
2.72182
-1.50195
-5.70034
-9.67495
-13.25
-16.2882
-18.7023
-20.4614
-21.5914
-22.1685
-22.3084
-22.151
-21.8428
-21.5204
-21.2946
-21.2394
-21.3854
-21.7183
-22.1823
-22.6878
-23.1228
-23.3651
-23.2959
-22.8124
-21.8379
-20.3285
-18.2762
-15.7067
-12.675
-9.25694
-5.54057
-1.61747
2.42393
6.50243
10.5453
14.4872
18.2674
21.8268
25.1058
28.0442
30.5828
32.6676
34.2548
35.3161
35.8433
35.8493
35.3679
34.4485
33.1504
31.5341
29.6533
27.5486
25.2432
22.7417
20.0326
17.0924
13.8924
10.406
6.61639
2.5225
-1.85538
-6.47259
-11.259
-16.1201
-20.9409
-25.591
-29.9326
-33.8283
-37.1509
-39.791
-41.6643
-42.7153
-42.9182
-42.2722
-40.7928
-38.4964
-35.3784
-31.3856
-26.3827
-20.1143
-12.1673
-1.93644
11.399
28.8776
51.7254
81.2805
118.86
165.57
222.056
288.237
363.041
444.21
528.228
610.408
685.183
746.567
788.767
806.864
797.462
759.223
693.182
602.793
493.692
373.18
249.5
130.994
25.2566
-61.627
-125.645
-165.171
-180.999
-176.092
-155.112
-123.778
-88.1603
-53.9765
-25.9967
-7.60413
-0.557342
-4.96542
-19.4587
-41.5173
-67.9032
-95.1323
-119.927
-139.596
-152.301
-157.191
-154.405
-144.946
-130.472
-113.019
-94.7137
-77.5022
-62.9281
-51.9853
-45.0517
-41.9066
-41.8192
-43.6926
-46.2386
-48.1599
-48.3161
-45.8551
-40.2963
-31.5594
-19.9407
-6.04334
9.32463
25.2707
40.9389
55.6168
68.816
80.3187
90.1867
98.734
106.47
114.022
122.047
131.141
141.768
154.198
168.475
184.413
201.611
219.497
237.385
254.535
270.225
283.798
294.713
302.568
307.11
308.224
305.92
300.298
291.52
279.785
265.311
248.324
229.065
207.806
184.866
160.638
135.601
110.329
85.4753
61.7494
39.872
20.5203
4.26906
-8.46538
-17.4704
-22.7641
-24.6001
-23.4487
-19.9561
-14.8851
-9.04544
-3.22076
1.89998
5.77839
8.06492
8.61566
7.48717
4.91077
1.25043
-3.05034
-7.52597
-11.7441
-15.353
-18.1153
-19.9273
-20.8199
-20.9448
-20.5466
-19.927
-19.4035
-19.2699
-19.762
-21.0322
-23.1363
-26.0313
-29.5863
-33.6016
-37.8354
-42.0323
-45.9527
-49.397
-52.2249
-54.3653
-55.8182
-56.6477
-56.9683
-56.9256
-56.6743
-56.3567
-56.083
-55.9156
-55.8594
-55.8577
-55.7948
-55.5048
-54.7858
-53.4191
-51.1914
-47.9188
-43.4693
-37.7836
-30.8885
-22.9043
-14.0418
-4.59046
5.10236
14.6595
23.7058
31.9006
38.9676
44.717
49.0594
52.0081
53.67
54.2258
53.9032
52.9448
51.5755
49.9748
48.2549
46.4495
44.5137
42.3337
39.7466
36.5658
32.6095
27.7289
21.8317
14.899
6.99385
-1.73996
-11.0879
-20.7818
-30.5217
-40.0004
-48.9266
-57.0451
-64.1525
-70.1056
-74.8235
-78.2835
-80.5114
-81.5686
-81.5371
-80.506
-78.5602
-75.7735
-72.2069
-67.9122
-62.9397
-57.348
-51.2147
-44.6456
-37.7791
-30.7864
-23.865
-17.2274
-11.0844
-5.6274
-1.00932
2.67049
5.37702
7.14343
8.0676
8.30154
8.03516
7.47626
6.82948
6.27647
5.95956
5.9703
6.34379
7.05868
8.04254
9.18147
10.3329
11.3406
12.0497
12.3218
12.048
11.1589
9.63222
7.4963
4.82999
1.75977
-1.54651
-4.8885
-8.04487
-10.787
-12.8947
-14.1724
-14.4664
-13.6792
-11.7824
-8.8246
-4.9333
-0.311182
4.77501
10.0117
15.061
19.5869
23.282
25.8938
27.2464
27.2556
25.9362
23.4006
19.8481
15.5464
10.808
5.96271
1.33053
-2.80396
-6.21219
-8.73641
-10.2977
-10.8974
-10.6117
-9.57988
-7.98613
-6.03199
-3.89907
-1.69915
0.588301
3.18822
6.6041
11.6812
19.6409
32.0642
50.8056
77.8209
114.909
163.381
223.702
295.146
375.554
461.238
547.107
627.01
694.294
742.523
766.24
761.699
727.428
664.551
576.796
470.196
352.497
232.357
118.438
18.4995
-61.3794
-117.373
-148.198
-155.111
-141.609
-112.906
-75.2426
-35.1381
1.34155
29.1992
44.9529
46.8708
34.9879
10.9218
-22.4727
-61.5534
-102.382
-141.199
-174.819
-200.925
-218.218
-226.439
-226.263
-219.09
-206.787
-191.393
-174.849
-158.77
-144.288
-131.981
-121.881
-113.549
-106.213
-98.9286
-90.7447
-80.8554
-68.7126
-54.0934
-37.114
-18.1958
2.00841
22.7147
43.1185
62.4995
80.3063
96.2127
110.138
122.234
132.842
142.428
151.507
160.571
170.022
180.128
190.997
202.572
214.657
226.944
239.063
250.623
261.256
270.65
278.565
284.843
289.395
292.188
293.218
292.486
289.979
285.651
279.423
271.185
260.817
248.208
233.289
216.065
196.647
175.273
152.323
128.322
103.916
79.8432
56.8804
35.7826
17.2163
1.69632
-10.4661
-19.1961
-24.6649
-27.2729
-27.6085
-26.3869
-24.3761
-22.319
-20.8608
-20.4902
-21.5002
-23.9739
-27.7929
-32.6694
-38.1937
-43.8931
-49.2925
-53.9707
-57.6056
-60.0036
-61.1119
-61.0122
-59.8997
-58.0503
-55.7803
-53.4061
-51.2062
-49.3919
-48.0882
-47.3274
-47.0541
-47.1409
-47.4113
-47.667
-47.7156
-47.3947
-46.591
-45.2506
-43.3817
-41.0484
-38.3583
-35.4453
-32.4503
-29.5032
-26.7072
-24.1286
-21.7925
-19.6846
-17.7583
-15.9454
-14.1697
-12.3594
-10.4578
-8.43137
-6.27249
-3.9991
-1.65057
0.718516
3.04546
5.26615
7.3203
9.15473
10.7247
11.9937
12.9324
13.5178
13.733
13.5685
13.0243
12.1129
10.8623
9.31841
7.54544
5.62414
3.64784
1.71624
-0.0723633
-1.62927
-2.88319
-3.78638
-4.3185
-4.48757
-4.32797
-3.89581
-3.26247
-2.50695
-1.70827
-0.93852
-0.257578
0.290438
0.67862
0.896914
0.950297
0.85598
0.640137
0.334621
-0.0260308
-0.407126
-0.775852
-1.1029
-1.36377
-1.53981
-1.61907
-1.59678
-1.47538
-1.26403
-0.977389
-0.633838
-0.253188
0.145772
0.547584
0.941902
1.32444
1.69689
2.06575
2.4402
2.8293
3.23894
3.66898
4.11103
4.54722
4.95029
5.28497
5.51072
5.58544
5.47003
5.13306
4.55517
3.73267
2.6798
1.42949
0.032417
-1.44536
-2.92589
-4.3236
-5.54974
-6.51683
-7.14285
-7.35516
-7.09411
-6.31674
-5.00024
-3.14548
-0.780165
2.03859
5.22294
8.65469
12.1879
15.6544
18.8716
21.6531
23.8214
25.2208
25.7306
25.276
23.8365
21.449
18.2071
14.2549
9.77576
4.97854
0.0808386
-4.70741
-9.19899
-13.2412
-16.7236
-19.5801
-21.7869
-23.3562
-24.3259
-24.7488
-24.6804
-24.1688
-23.2458
-21.9212
-20.1809
-17.9887
-15.2926
-12.0349
-8.16541
-3.65614
1.48377
7.19624
13.3669
19.8244
26.3471
32.6775
38.5419
43.6748
47.8436
50.871
52.6516
53.1611
52.4564
50.6658
47.9729
44.5928
40.7484
36.6451
32.4513
28.2845
24.2049
20.2175
16.2809
12.321
8.24856
3.97679
-0.562359
-5.40456
-10.5436
-15.926
-21.4504
-26.9709
-32.3044
-37.2413
-41.5597
-45.0412
-47.4887
-48.7438
-48.7025
-47.3284
-44.6599
-40.8124
-35.9729
-30.3887
-24.3498
-18.1673
-12.1502
-6.58196
-1.70039
2.3183
5.36899
7.42056
8.51214
8.74352
8.26112
7.24124
5.87246
4.339
2.80645
1.41103
0.252892
-0.606344
-1.14235
-1.36377
-1.30586
-1.02305
-0.581482
-0.0522969
0.493886
0.990939
1.37975
1.60959
1.63918
1.43855
0.993852
0.317578
-0.53318
-1.42808
-2.12393
-2.21604
-1.08611
2.14365
8.63636
19.8295
37.3702
62.9824
98.2611
144.401
201.884
270.172
347.455
430.523
514.815
594.666
663.767
715.789
745.1
747.48
720.728
665.07
583.288
480.55
363.949
241.801
122.793
15.0901
-74.4869
-141.12
-182.403
-198.465
-191.807
-166.882
-129.481
-86.0168
-42.7808
-5.28049
22.2863
37.3603
39.1348
28.4583
7.55557
-20.3812
-51.6728
-82.6398
-110.037
-131.392
-145.207
-151.03
-149.386
-141.59
-129.495
-115.181
-100.668
-87.6536
-77.325
-70.2617
-66.4257
-65.2388
-65.7257
-66.6973
-66.9478
-65.4344
-61.419
-54.5558
-44.9155
-32.9508
-19.4119
-5.22641
8.6359
21.2956
32.0769
40.588
46.7619
50.8553
53.4083
55.1726
57.0177
59.8284
64.405
71.3764
81.1358
93.8047
109.226
126.986
146.461
166.883
187.414
207.222
225.555
241.793
255.493
266.398
274.433
279.682
282.335
282.645
280.868
277.218
271.83
264.744
255.904
245.186
232.429
217.49
200.297
180.897
159.501
136.501
112.469
88.1304
64.3072
41.8498
21.5509
4.06284
-10.1753
-20.9879
-28.483
-33.0406
-35.267
-35.9235
-35.838
-35.8104
-36.5246
-38.4783
-41.9385
-46.9262
-53.2321
-60.4579
-68.0767
-75.5033
-82.1643
-87.5598
-91.309
-93.1774
-93.0826
-91.0829
-87.3511
-82.1398
-75.7441
-68.4669
-60.5911
-52.3611
-43.9749
-35.5847
-27.3054
-19.2267
-11.4259
-3.9791
3.03215
9.51919
15.3897
20.5549
24.9394
28.4902
31.1846
33.0333
34.0801
34.3962
34.0717
33.2055
31.8944
30.2244
28.2659
26.0711
23.677
21.1101
18.393
15.552
12.6221
9.65044
6.69634
3.82805
1.11706
-1.36905
-3.5741
-5.45951
-7.00836
-8.22641
-9.13988
-9.79053
-10.2286
-10.5052
-10.6644
-10.7379
-10.7411
-10.6727
-10.5163
-10.2448
-9.82539
-9.2262
-8.4211
-7.39423
-6.14275
-4.67785
-3.02445
-1.21968
0.68919
2.64718
4.594
6.46637
8.20033
9.7336
11.008
11.9723
12.5848
12.8161
12.6512
12.0911
11.1532
9.86992
8.28689
6.45868
4.44441
2.30259
0.0863187
-2.1606
-4.4062
-6.63114
-8.82773
-10.9975
-13.148
-15.2883
-17.4257
-19.5616
-21.6885
-23.7868
-25.8213
-27.7395
-29.469
-30.9188
-31.9817
-32.5425
-32.4886
-31.7243
-30.1863
-27.8581
-24.7805
-21.056
-16.8461
-12.3602
-7.83811
-3.52765
0.339456
3.57023
6.02864
7.64701
8.4293
8.44623
7.82301
6.72183
5.32149
3.79706
2.30195
0.954715
-0.168303
-1.03408
-1.64824
-2.04589
-2.27988
-2.40835
-2.48368
-2.54416
-2.60943
-2.67987
-2.73934
-2.76026
-2.70964
-2.55445
-2.26512
-1.81659
-1.18655
-0.35168
0.717104
2.05907
3.72624
5.78306
8.30258
11.3591
15.0177
19.3232
24.2879
29.8838
36.0383
42.6386
49.5452
56.6179
63.7542
70.9406
78.314
86.2267
95.3051
106.486
121.015
140.381
166.179
199.899
242.634
294.757
355.612
423.267
494.416
564.461
627.818
678.421
710.378
718.71
700.038
653.147
579.306
482.303
368.16
244.577
120.146
3.46146
-97.7844
-177.583
-232.188
-260.42
-263.66
-245.558
-211.495
-167.875
-121.353
-78.0774
-43.0545
-19.6913
-9.56175
-12.4067
-26.348
-48.2743
-74.337
-100.489
-122.995
-138.864
-146.142
-144.066
-133.052
-114.544
-90.7572
-64.3474
-38.0566
-14.3824
4.69463
17.8973
24.736
25.4919
21.1088
13.0167
2.91413
-7.45943
-16.5332
-23.0725
-26.2871
-25.8738
-21.9937
-15.1924
-6.28089
3.80745
14.1606
24.0162
32.858
40.4719
46.9557
52.6871
58.2538
64.3603
71.7219
80.9625
92.5271
106.621
123.179
141.874
162.145
183.266
204.42
224.781
243.592
260.227
274.237
285.36
293.514
298.763
301.268
301.23
298.831
294.194
287.35
278.238
266.723
252.638
235.84
216.28
194.057
169.473
143.049
115.527
87.822
60.9555
35.9595
13.7692
-4.88107
-19.545
-30.1195
-36.8597
-40.3492
-41.4296
-41.0976
-40.3843
-40.2317
-41.3856
-44.3154
-49.1737
-55.7965
-63.7445
-72.3765
-80.943
-88.6885
-94.9463
-99.2153
-101.21
-100.879
-98.3916
-94.1017
-88.4858
-82.0768
-75.3952
-68.8896
-62.8925
-57.5952
-53.0431
-49.1504
-45.7293
-42.5283
-39.2761
-35.7223
-31.6724
-27.013
-21.7248
-15.8828
-9.64562
-3.2348
3.09213
9.0714
14.4623
19.0722
22.7755
25.5238
27.3467
28.3444
28.6721
28.5184
28.0815
27.5443
27.0528
26.6992
26.5122
26.4555
26.4348
26.312
25.9252
25.112
23.7329
21.6923
18.9531
15.5455
11.5653
7.16591
2.54198
-2.09095
-6.51911
-10.552
-14.0404
-16.8878
-19.0559
-20.5621
-21.4708
-21.8796
-21.9037
-21.6589
-21.2467
-20.743
-20.1912
-19.6002
-18.9474
-18.1853
-17.2503
-16.0739
-14.5917
-12.753
-10.5261
-7.90232
-4.89563
-1.54096
2.10981
5.99216
10.033
14.1535
18.2699
22.2932
26.1275
29.6683
32.8024
35.4097
37.368
38.5611
38.8886
38.2781
36.695
34.1514
30.7105
26.4856
21.6342
16.3467
10.832
5.30066
-0.0525138
-5.06296
-9.60803
-13.6138
-17.0565
-19.9589
-22.382
-24.4138
-26.155
-27.7058
-29.1522
-30.5566
-31.9499
-33.33
-34.6628
-35.8882
-36.9289
-37.7009
-38.1242
-38.1325
-37.6807
-36.7483
-35.3405
-33.4853
-31.2299
-28.6349
-25.7699
-22.7095
-19.5305
-16.3106
-13.1279
-10.0598
-7.18194
-4.566
-2.27626
-0.365471
1.12958
2.19213
2.82824
3.06765
2.96233
2.5826
2.01115
1.33569
0.641036
0.00172954
-0.52399
-0.898132
-1.10446
-1.14752
-1.04949
-0.845392
-0.577416
-0.28903
-0.019695
0.199321
0.347622
0.416716
0.409467
0.338212
0.221954
0.0830653
-0.0560145
-0.175678
-0.261339
-0.304709
-0.30412
-0.263962
-0.193404
-0.104659
-0.0110437
0.0748683
0.142801
0.185858
0.201051
0.189274
0.154783
0.104334
0.0461432
-0.0111196
-0.0591016
-0.0901715
-0.0973977
-0.0741588
-0.013552
0.0921629
0.251833
0.475195
0.772091
1.15118
1.61839
2.17535
2.81825
3.53745
4.31794
5.14103
5.98712
6.8402
7.69454
8.56505
9.50327
10.6209
12.1231
14.3504
17.8279
23.3132
31.8322
44.685
63.4035
89.6426
124.993
170.719
227.447
294.832
371.289
453.821
538.033
618.356
688.484
741.998
773.098
777.343
752.301
697.987
617.036
514.549
397.648
274.765
154.771
46.0495
-44.3626
-111.468
-152.749
-168.303
-160.685
-134.473
-95.6299
-50.7538
-6.30836
32.0721
60.1236
75.2896
76.8282
65.6992
44.2617
15.838
-15.7917
-46.8956
-74.2369
-95.4108
-109.043
-114.841
-113.5
-106.506
-95.846
-83.7003
-72.1316
-62.827
-56.9129
-54.861
-56.4875
-61.0373
-67.3337
-73.9683
-79.5032
-82.6598
-82.4697
-78.3736
-70.2609
-58.4479
-43.6051
-26.6466
-8.59765
9.53943
26.905
42.8733
57.1066
69.5681
80.4962
90.3468
99.7132
109.236
119.514
131.03
144.093
158.809
175.073
192.594
210.926
229.525
247.803
265.182
281.147
295.273
307.253
316.897
324.124
328.935
331.38
331.519
329.39
324.976
318.195
308.894
296.877
281.935
263.906
242.734
218.524
191.598
162.517
132.078
101.282
71.2593
43.1794
18.1369
-2.9607
-19.4927
-31.1973
-38.2052
-41.0297
-40.512
-37.7304
-33.8814
-30.1508
-27.5879
-27.0003
-28.8796
-33.3665
-40.2582
-49.0538
-59.032
-69.3475
-79.1361
-87.6135
-94.1572
-98.3641
-100.077
-99.3798
-96.5685
-92.0957
-86.5057
-80.3647
-74.1951
-68.4229
-63.3428
-59.1029
-55.7089
-53.0456
-50.9103
-49.0527
-47.2147
-45.166
-42.7308
-39.8033
-36.3522
-32.4141
-28.08
-23.4752
-18.7383
-14.0005
-9.36868
-4.91206
-0.655894
3.41975
7.37533
11.3022
15.3091
19.5067
23.9909
28.8278
34.0412
39.6045
45.4366
51.4041
57.3269
62.9887
68.1493
72.56
75.9792
78.1884
79.0071
78.3067
76.0216
72.1575
66.7958
60.0924
52.2728
43.6197
34.4574
25.1306
15.9815
7.32497
-0.572755
-7.51321
-13.3778
-18.133
-21.8273
-24.5808
-26.5686
-27.9996
-29.0931
-30.0571
-31.069
-32.2612
-33.7134
-35.4505
-37.4469
-39.6351
-41.9165
-44.1746
-46.2868
-48.1348
-49.6128
-50.6326
-51.1264
-51.0463
-50.3613
-49.0528
-47.1087
-44.5172
-41.262
-37.3198
-32.6611
-27.2546
-21.0753
-14.1144
-6.39123
2.03828
11.076
20.5844
30.3993
40.3562
50.3302
60.2914
70.3709
80.9322
92.6356
106.479
123.796
146.188
175.37
212.94
260.054
317.078
383.246
456.404
532.913
607.763
674.927
727.924
760.559
767.704
746.049
694.661
615.296
512.368
392.59
264.319
136.678
18.5855
-82.1883
-159.82
-210.98
-235.082
-234.189
-212.636
-176.399
-132.324
-87.3059
-47.5193
-17.8007
-1.23166
1.03477
-10.2914
-32.9146
-63.3899
-97.6504
-131.554
-161.383
-184.24
-198.299
-202.91
-198.541
-186.594
-169.126
-148.524
-127.172
-107.155
-90.0416
-76.743
-67.4837
-61.8552
-58.9472
-57.5277
-56.2452
-53.8244
-49.2304
-41.786
-31.2288
-17.71
-1.73884
15.9142
34.3395
52.618
69.9423
85.7134
99.6051
111.589
121.921
131.091
139.751
148.618
158.381
169.61
182.682
197.733
214.64
233.029
252.316
271.768
290.573
307.918
323.064
335.397
344.474
350.037
352.003
350.447
345.558
337.601
326.87
313.654
298.21
280.754
261.464
240.498
218.02
194.233
169.405
143.892
118.14
92.668
68.0424
44.8228
23.509
4.48577
-12.0224
-25.9775
-37.5317
-47.0052
-54.8428
-61.5527
-67.6393
-73.5366
-79.5545
-85.8432
-92.3816
-98.9902
-105.365
-111.13
-115.894
-119.312
-121.133
-121.242
-119.672
-116.601
-112.334
-107.263
-101.816
-96.4162
-91.4259
-87.1167
-83.6432
-81.0363
-79.2106
-77.9865
-77.1205
-76.3419
-75.3879
-74.0345
-72.1179
-69.5434
-66.2831
-62.361
-57.8308
-52.7502
-47.1571
-41.0522
-34.3937
-27.1037
-19.0867
-10.2574
-0.572005
9.94155
21.1611
32.8592
44.7064
56.289
67.1396
76.7762
84.7464
90.6697
94.2747
95.426
94.1383
90.576
85.0399
77.94
69.7598
61.0148
52.209
43.7944
36.1372
29.493
23.9947
19.6516
16.3616
13.9322
12.1098
10.6121
9.16097
7.51196
5.47752
2.94205
-0.132386
-3.70925
-7.68879
-11.9252
-16.2472
-20.4798
-24.464
-28.0735
-31.225
-33.8839
-36.0625
-37.8134
-39.2181
-40.3726
-41.3721
-42.2961
-43.1952
-44.0797
-44.9093
-45.58
-45.9056
-45.5898
-44.1874
-41.0571
-35.3133
-25.7915
-11.0459
10.5976
40.9155
81.5757
133.847
198.258
274.249
359.889
451.725
544.823
633.045
709.556
767.505
800.821
804.99
777.716
719.343
632.982
524.297
400.98
271.968
146.519
33.245
-60.764
-130.612
-174.002
-191.325
-185.439
-161.184
-124.695
-82.6321
-41.3934
-6.43524
18.2443
30.404
29.624
17.1485
-4.45351
-31.7514
-60.9726
-88.5088
-111.35
-127.399
-135.64
-136.153
-129.99
-118.942
-105.225
-91.1484
-78.7931
-69.7499
-64.9394
-64.5334
-67.9789
-74.113
-81.3481
-87.8986
-92.0163
-92.2047
-87.3864
-77.0061
-61.0611
-40.0624
-14.936
13.1181
42.7853
72.7953
102.057
129.756
155.408
178.854
200.23
219.882
238.281
255.921
273.233
290.517
307.9
325.325
342.566
359.268
374.995
389.292
401.737
411.984
419.792
425.034
427.687
427.811
425.509
420.898
414.068
405.061
393.855
380.371
364.486
346.062
324.992
301.234
274.859
246.083
215.287
183.02
149.986
117.003
84.954
54.7231
27.1256
2.84578
-17.6168
-33.9825
-46.2059
-54.467
-59.1417
-60.7538
-59.9174
-57.2736
-53.4316
-48.9195
-44.1497
-39.402
-34.8242
-30.4493
-26.2237
-22.0434
-17.7915
-13.3727
-8.74003
-3.91148
1.0249
5.9172
10.5654
14.7439
18.228
20.8199
22.3721
22.8047
22.1146
20.3774
17.7392
14.4028
10.6076
6.60742
2.64761
-1.05468
-4.32621
-7.04724
-9.15463
-10.6389
-11.5361
-11.9163
-11.8709
-11.4994
-10.8989
-10.156
-9.34214
-8.51201
-7.70484
-6.94733
-6.25748
-5.64837
-5.13127
-4.71775
-4.42048
-4.25307
-4.22902
-4.36004
-4.65424
-5.1142
-5.73527
-6.50415
-7.39798
-8.38408
-9.42032
-10.4563
-11.4356
-12.2981
-12.9838
-13.4366
-13.6088
-13.4647
-12.9849
-12.1686
-11.0348
-9.62161
-7.9831
-6.18503
-4.29892
-2.39593
-0.541261
1.2101
2.81571
4.24579
5.48143
6.51132
7.32784
7.92334
8.28749
8.40626
8.26278
7.84004
7.12503
6.11369
4.81578
3.25886
1.49071
-0.420521
-2.38858
-4.31383
-6.09009
-7.61285
-8.78819
-9.54122
-9.8232
-9.6164
-8.93617
-7.82991
-6.37322
-4.66352
-2.81208
-0.935243
0.854233
2.45489
3.78276
4.77566
5.39545
5.62848
5.48429
4.99324
4.20315
3.17552
1.98161
0.698335
-0.595663
-1.82396
-2.9161
-3.81103
-4.45973
-4.8265
-4.88839
-4.63245
-4.05113
-3.13658
-1.87524
-0.244079
1.79
4.26685
7.22579
10.6949
14.6786
19.1446
24.0142
29.1556
34.3838
39.4669
44.1395
48.1218
51.1433
52.9674
53.4158
52.388
49.8741
45.9587
40.8161
34.6952
27.8983
20.7538
13.5877
6.69717
0.327395
-5.34347
-10.2119
-14.2482
-17.4878
-20.0174
-21.9567
-23.4399
-24.5976
-25.5422
-26.3581
-27.0964
-27.7748
-28.3828
-28.8887
-29.2492
-29.4188
-29.3576
-29.0374
-28.4441
-27.5771
-26.4462
-25.0665
-23.4524
-21.6115
-19.5413
-17.2267
-14.6412
-11.751
-8.52104
-4.9225
-0.940883
3.41703
8.1181
13.1004
18.2738
23.5231
28.7138
33.6991
38.3281
42.454
45.9423
48.6784
50.5738
51.572
51.6527
50.8345
49.1752
46.7702
43.7483
40.2643
36.4897
32.6017
28.7707
25.1489
21.8598
18.9914
16.5913
14.6666
13.1874
12.0921
11.296
10.7001
10.2003
9.69537
9.09449
8.32224
7.32237
6.05963
4.51995
2.70899
0.649661
-1.62121
-4.05604
-6.59901
-9.18717
-11.7499
-14.2072
-16.4665
-18.4215
-19.9512
-20.923
-21.1996
-20.6498
-19.163
-16.6657
-13.1383
-8.62859
-3.26138
2.76022
9.16165
15.613
21.7533
27.2204
31.6837
34.8757
36.6184
36.8411
35.5872
33.0095
29.3541
24.935
20.1026
15.2097
10.5789
6.47499
3.0846
0.50513
-1.25664
-2.27679
-2.69887
-2.713
-2.53203
-2.36754
-2.40805
-2.80146
-3.64326
-4.97115
-6.7661
-8.95907
-11.4422
-14.0829
-16.7388
-19.272
-21.5614
-23.5116
-25.0575
-26.1659
-26.8331
-27.08
-26.9446
-26.4753
-25.7229
-24.7347
-23.5495
-22.1956
-20.6901
-19.0409
-17.2501
-15.3182
-13.2492
-11.0546
-8.75732
-6.3926
-4.00839
-1.66311
0.578119
2.64826
4.48385
6.03027
7.24633
8.10754
8.60784
8.75941
8.5909
8.14403
7.46908
6.61989
5.64872
4.60186
3.5162
2.41716
1.31805
0.220397
-0.884762
-2.01525
-3.19587
-4.4562
-5.82808
-7.34216
-9.02341
-10.8851
-12.9209
-15.0946
-17.3264
-19.4734
-21.3039
-22.4623
-22.4269
-20.4641
-15.5885
-6.54441
8.17277
30.2332
61.3132
102.855
155.76
220.056
294.58
376.774
462.62
546.797
623.06
684.824
725.886
741.198
727.571
684.208
612.97
518.324
406.964
287.15
167.845
57.761
-35.5658
-106.541
-152.039
-171.624
-167.449
-143.86
-106.771
-62.8951
-18.9304
19.184
46.8719
61.3114
61.5872
48.6029
24.7876
-6.35273
-40.7673
-74.4043
-103.7
-125.956
-139.574
-144.134
-140.312
-129.684
-114.436
-97.0284
-79.8654
-65.006
-53.9464
-47.4959
-45.7487
-48.1489
-53.6278
-60.7914
-68.1286
-74.2117
-77.8648
-78.2806
-75.0779
-68.2951
-58.331
-45.8424
-31.6201
-16.4608
-1.05307
14.1076
28.7662
42.9149
56.7622
70.6713
85.0803
100.416
117.017
135.066
154.561
175.302
196.91
218.872
240.599
261.488
280.99
298.656
314.178
327.405
338.333
347.087
353.872
358.931
362.483
364.675
365.547
365.001
362.81
358.633
352.055
342.649
330.04
313.963
294.331
271.263
245.107
216.434
185.999
154.693
123.468
93.2621
64.9207
39.1302
16.3695
-3.11616
-19.3153
-32.4267
-42.8148
-50.952
-57.3535
-62.5148
-66.8569
-70.6866
-74.1737
-77.3481
-80.1137
-82.2777
-83.5888
-83.781
-82.6161
-79.9211
-75.6164
-69.7321
-62.4125
-53.9067
-44.5495
-34.7332
-24.8731
-15.3731
-6.59146
1.18686
7.76963
13.0667
17.0884
19.9337
21.7698
22.8067
23.2696
23.3719
23.2937
23.1669
23.0677
23.0181
22.9944
22.9401
22.7823
22.4476
21.8758
21.0292
19.8963
18.4902
16.8428
14.9949
12.9859
10.8438
8.57747
6.17347
3.59572
0.78982
-2.31012
-5.77278
-9.66045
-14.0205
-18.8781
-24.2313
-30.0473
-36.2623
-42.7823
-49.4869
-56.2346
-62.8705
-69.2349
-75.1731
-80.5446
-85.2313
-89.1424
-92.2162
-94.416
-95.7227
-96.1222
-95.5929
-94.0926
-91.551
-87.8684
-82.9246
-76.5958
-68.7804
-59.4273
-48.5645
-36.3211
-22.9391
-8.77044
5.73979
20.0841
33.7334
46.1825
56.9949
65.8407
72.5239
76.9942
79.3447
79.7938
78.6567
76.3075
73.1398
69.5277
65.7932
62.1827
58.8535
55.8724
53.2239
50.8273
48.5578
46.2706
43.8234
41.0947
37.9968
34.4822
30.5436
26.2081
21.529
16.5738
11.4143
6.11761
0.73993
-4.67536
-10.0967
-15.5006
-20.8655
-26.1663
-31.3685
-36.425
-41.2748
-45.8447
-50.0535
-53.8174
-57.0571
-59.7042
-61.707
-63.0344
-63.6777
-63.651
-62.9886
-61.7419
-59.9745
-57.7576
-55.1645
-52.2655
-49.1227
-45.7856
-42.2861
-38.6352
-34.8212
-30.8103
-26.5504
-21.9791
-17.0343
-11.6675
-5.85709
0.379932
6.97982
13.8297
20.7713
27.6111
34.1353
40.1285
45.3931
49.7676
53.1405
55.4598
56.7342
57.0299
56.4592
55.1661
53.3084
51.0403
48.496
45.7774
42.9476
40.0288
37.0066
33.8386
30.4665
26.8294
22.8769
18.5806
13.9421
8.9975
3.81723
-1.4977
-6.82315
-12.0217
-16.9539
-21.4898
-25.5192
-28.9606
-31.7666
-33.9274
-35.47
-36.4551
-36.9713
-37.1273
-37.0436
-36.8427
-36.6407
-36.5389
-36.6166
-36.9262
-37.4883
-38.29
-39.2843
-40.3905
-41.4972
-42.4656
-43.1356
-43.3326
-42.8773
-41.5971
-39.3401
-35.9903
-31.483
-25.8176
-19.0682
-11.3871
-3.00254
5.79183
14.6543
23.2187
31.1216
38.031
43.6725
47.8518
50.4689
51.5245
51.1164
49.4276
46.7066
43.2424
39.3373
35.2794
31.3194
27.6519
24.4046
21.6348
19.3339
17.4387
15.8475
14.4383
13.088
11.6885
10.1597
8.45639
6.57099
4.53005
2.38745
0.214727
-1.90962
-3.91056
-5.72541
-7.31055
-8.64537
-9.73356
-10.6018
-11.2963
-11.8774
-12.4136
-12.9737
-13.6204
-14.4034
-15.3535
-16.4789
-17.7624
-19.1613
-20.6084
-22.0152
-23.276
-24.2732
-24.8832
-24.983
-24.4562
-23.2008
-21.1352
-18.2049
-14.387
-9.69245
-4.16362
2.13482
9.13478
16.7952
25.1453
34.3397
44.72
56.8749
71.6829
90.3202
114.212
144.909
183.881
232.234
290.375
357.677
432.212
510.611
588.124
658.907
716.529
754.664
767.859
752.302
706.438
631.353
530.848
411.169
280.435
147.81
22.546
-86.993
-174.194
-234.838
-267.455
-273.339
-256.255
-221.87
-177.002
-128.784
-83.8497
-47.6412
-23.9065
-14.441
-19.0799
-35.9212
-61.7335
-92.4823
-123.898
-152.017
-173.627
-186.579
-189.938
-183.969
-169.984
-150.069
-126.757
-102.672
-80.2045
-61.2423
-46.9992
-37.9392
-33.8017
-33.7143
-36.3679
-40.2289
-43.7558
-45.5944
-44.7296
-40.5789
-33.0229
-22.3747
-9.29898
5.30437
20.4342
35.121
48.5424
60.1091
69.5131
76.7369
82.026
85.8332
88.7437
91.3921
94.3837
98.2279
103.29
109.769
117.69
126.929
137.239
148.297
159.745
171.233
182.449
193.141
203.124
212.279
220.532
227.838
234.151
239.402
243.472
246.183
247.289
246.487
243.434
237.78
229.21
217.495
202.54
184.431
163.463
140.162
115.264
89.6876
64.4634
40.6575
19.2752
1.16485
-13.0682
-23.1274
-29.0603
-31.2588
-30.421
-27.4803
-23.5076
-19.5984
-16.7594
-15.8064
-17.2867
-21.4341
-28.1607
-37.0849
-47.5908
-58.9097
-70.2133
-80.7057
-89.7047
-96.7024
-101.4
-103.714
-103.76
-101.809
-98.2364
-93.459
-87.8815
-81.8486
-75.6141
-69.328
-63.0412
-56.7254
-50.3032
-43.6824
-36.7892
-29.5952
-22.134
-14.5059
-6.87122
0.565937
7.58103
13.9548
19.4981
24.0726
27.604
30.0884
31.5892
32.2277
32.1674
31.5952
30.7013
29.6603
28.6142
27.6609
26.8469
26.1652
25.5593
24.9313
24.1537
23.0841
21.5803
19.5153
16.7897
13.3409
9.14819
4.23243
-1.34777
-7.50363
-14.1253
-21.0906
-28.2721
-35.5404
-42.764
-49.8053
-56.5152
-62.7274
-68.256
-72.8978
-76.4403
-78.6773
-79.4287
-78.5632
-76.0211
-71.8317
-66.1235
-59.1246
-51.1513
-42.586
-33.8471
-25.3529
-17.4848
-10.5538
-4.77453
-0.249277
3.03491
5.19728
6.44312
7.0351
7.2601
7.39531
7.67797
8.28178
9.30263
10.7544
12.575
14.6402
16.7844
18.8233
20.5774
21.8921
22.6525
22.7926
22.2966
21.195
19.5555
17.4707
15.045
12.3822
9.5763
6.70397
3.8222
0.968278
-1.83736
-4.58665
-7.2788
-9.91527
-12.4952
-15.012
-17.4505
-19.7854
-21.98
-23.9869
-25.7489
-27.2013
-28.276
-28.9059
-29.0313
-28.6062
-27.6047
-26.0269
-23.9028
-21.2929
-18.286
-14.9924
-11.5331
-8.02667
-4.57458
-1.24852
1.91898
4.93801
7.8579
10.7571
13.7273
16.8546
20.2003
23.7842
27.5746
31.4846
35.3785
39.0849
42.4172
45.1974
47.2822
48.5866
49.1072
48.9428
48.3155
47.5948
47.3251
48.2568
51.3725
57.8979
69.2797
87.1107
112.989
148.299
193.938
249.997
315.473
388.055
464.053
538.531
605.64
659.157
693.165
702.781
684.836
638.401
565.062
468.907
356.194
234.756
113.193
-0.0234122
-97.4345
-173.351
-224.385
-249.703
-250.977
-232.044
-198.345
-156.208
-112.076
-71.7798
-39.9395
-19.5509
-11.8027
-16.1218
-30.4251
-51.5303
-75.6608
-98.9774
-118.067
-130.335
-134.26
-129.492
-116.8
-97.8792
-75.067
-51.0001
-28.265
-9.08488
4.92269
12.8926
14.7552
11.1779
3.42295
-6.855
-17.8406
-27.7887
-35.2254
-39.0991
-38.8663
-34.5081
-26.4819
-15.6189
-2.98495
10.2761
23.0953
34.61
44.2593
51.8341
57.4787
61.6485
65.0308
68.4426
72.7199
78.6121
86.6951
97.312
110.545
126.218
143.931
163.112
183.078
203.111
222.513
240.663
257.051
271.294
283.141
292.453
299.182
303.338
304.955
304.065
300.673
294.755
286.251
275.092
261.217
244.611
225.342
203.597
179.708
154.169
127.627
100.865
74.748
50.1603
27.9295
8.74399
-6.92021
-18.8557
-27.1533
-32.1994
-34.6397
-35.313
-35.162
-35.1326
-36.073
-38.6461
-43.2647
-50.0565
-58.8627
-69.2687
-80.6614
-92.3059
-103.43
-113.308
-121.334
-127.073
-130.295
-130.976
-129.281
-125.528
-120.137
-113.576
-106.306
-98.7384
-91.1994
-83.9154
-77.0094
-70.512
-64.3829
-58.5374
-52.8747
-47.3037
-41.7618
-36.2265
-30.7179
-25.2924
-20.0303
-15.0193
-10.3354
-6.02575
-2.09567
1.4991
4.8522
8.09906
11.4021
14.9306
18.8384
23.2412
28.1979
33.6979
39.6565
45.9187
52.2713
58.4611
64.2172
69.2742
73.3933
76.3791
78.091
78.4475
77.4253
75.0528
71.4016
66.5763
60.7058
53.9364
46.4282
38.3534
29.8965
21.2538
12.6327
4.24653
-3.69279
-10.9854
-17.4567
-22.971
-27.4438
-30.8511
-33.233
-34.6925
-35.387
-35.5148
-35.297
-34.9574
-34.7023
-34.7027
-35.0806
-35.901
-37.1697
-38.8378
-40.8103
-42.9593
-45.1384
-47.1978
-48.9976
-50.4179
-51.3663
-51.78
-51.6254
-50.8941
-49.5969
-47.7573
-45.405
-42.5717
-39.2883
-35.5849
-31.4932
-27.0501
-22.3028
-17.3125
-12.1573
-6.9329
-1.75006
3.27007
8.00292
12.3286
16.1403
19.3514
21.9009
23.7565
24.9141
25.3958
25.2449
24.5199
23.2885
21.6215
19.5879
17.2519
14.6719
11.9005
8.98682
5.97887
2.92652
-0.116259
-3.09029
-5.93152
-8.57304
-10.9485
-12.9964
-14.6654
-15.9185
-16.737
-17.1229
-17.0998
-16.7113
-16.0184
-15.0951
-14.0231
-12.8857
-11.7621
-10.7212
-9.81736
-9.08594
-8.5408
-8.17174
-7.94064
-7.77296
-7.5401
-7.02823
-5.89108
-3.58932
0.674065
8.0044
19.8273
37.8353
63.8459
99.5641
146.26
204.402
273.298
350.838
433.38
515.873
592.202
655.761
700.179
720.107
711.953
674.448
608.954
519.459
412.245
295.266
177.32
67.1137
-27.6565
-101.085
-149.616
-172.31
-170.801
-148.959
-112.317
-67.3463
-20.6705
21.6775
54.8729
75.724
82.8711
76.7516
59.3572
33.8295
3.95739
-26.3529
-53.5689
-74.9273
-88.6944
-94.2729
-92.1563
-83.7527
-71.1111
-56.5944
-42.5454
-30.9862
-23.3874
-20.5275
-22.4523
-28.5305
-37.5876
-48.096
-58.3915
-66.8854
-72.248
-73.5421
-70.2952
-62.5066
-50.5972
-35.3114
-17.5915
1.55809
21.199
40.5618
59.1164
76.6019
93.0197
108.592
123.699
138.797
154.345
170.725
188.194
206.842
226.582
247.157
268.169
289.115
309.437
328.57
345.988
361.239
373.971
383.939
391.004
395.116
396.29
394.576
390.038
382.731
372.692
359.941
344.489
326.361
305.617
282.381
256.866
229.387
200.374
170.364
139.981
109.897
80.7932
53.301
27.9573
5.1615
-14.8514
-32.0189
-46.4407
-58.3516
-68.0805
-76.0043
-82.5009
-87.9081
-92.4934
-96.4371
-99.828
-102.672
-104.91
-106.44
-107.142
-106.901
-105.625
-103.264
-99.8101
-95.3079
-89.8485
-83.5652
-76.6248
-69.2165
-61.5411
-53.7988
-46.1781
-38.8459
-31.9395
-25.5607
-19.7732
-14.6026
-10.0388
-6.04149
-2.54676
0.524724
3.25935
5.74237
8.05063
10.2465
12.3733
14.4524
16.4819
18.4369
20.2706
21.9181
23.2996
24.3261
24.9051
24.9476
24.3744
23.1229
21.152
18.446
15.0169
10.9037
6.17096
0.905769
-4.78615
-10.784
-16.955
-23.157
-29.2396
-35.0462
-40.4155
-45.1833
-49.1868
-52.2694
-54.2874
-55.1182
-54.6699
-52.8908
-49.779
-45.3899
-39.8412
-33.3129
-26.0431
-18.3177
-10.4547
-2.78444
4.37299
10.7308
16.0565
20.1885
23.0469
24.636
25.04
24.4107
22.9501
20.889
18.4652
15.9017
13.3898
11.0762
9.05614
7.37227
6.01899
4.95068
4.0928
3.35406
2.63834
1.85523
0.928051
-0.200758
-1.56742
-3.18723
-5.057
-7.15854
-9.4618
-11.9266
-14.5021
-17.1244
-19.7126
-22.1653
-24.3598
-26.1541
-27.3948
-27.9285
-27.6183
-26.3609
-24.1038
-20.8591
-16.7116
-11.8196
-6.40762
-0.750855
4.84671
10.0789
14.6653
18.3783
21.0654
22.6652
23.2171
22.8644
21.8556
20.545
19.4005
19.0184
20.1467
23.7121
30.8403
42.855
61.2346
87.511
123.097
169.042
225.742
292.633
367.934
448.503
529.859
606.414
671.916
720.063
745.236
743.222
711.848
651.412
564.823
457.446
336.624
210.959
89.4257
-19.565
-109.032
-174.112
-212.493
-224.536
-213.098
-183.063
-140.689
-92.8187
-46.0903
-6.22287
22.5352
37.7417
38.8578
27.1129
5.17472
-23.319
-54.2992
-83.801
-108.434
-125.734
-134.368
-134.178
-126.079
-111.832
-93.7368
-74.288
-55.8412
-40.3284
-29.0564
-22.6025
-20.8135
-22.8967
-27.5829
-33.333
-38.5573
-41.819
-41.9972
-38.3931
-30.7733
-19.3507
-4.71242
12.289
30.6648
49.4206
67.6724
84.7362
100.184
113.861
125.877
136.559
146.393
155.957
165.844
176.602
188.679
202.388
217.883
235.15
254.013
274.147
295.101
316.322
337.181
357.002
375.088
390.744
403.301
412.139
416.709
416.558
411.349
400.884
385.127
364.216
338.48
308.444
274.83
238.538
200.621
162.239
124.599
88.8829
56.1649
27.333
3.02018
-16.4449
-31.0598
-41.139
-47.2742
-50.266
-51.038
-50.5405
-49.6571
-49.1242
-49.4714
-50.9899
-53.7296
-57.5233
-62.0337
-66.815
-71.3805
-75.2681
-78.0956
-79.5988
-79.6518
-78.2657
-75.5703
-71.7822
-67.1645
-61.9866
-56.4878
-50.8525
-45.1972
-39.5722
-33.9746
-28.3708
-22.7219
-17.0092
-11.2542
-5.52902
0.041551
5.28959
10.021
14.038
17.1639
19.2655
20.2709
20.1804
19.0687
17.0789
14.4095
11.2957
7.9878
4.72921
1.73606
-0.819234
-2.81923
-4.20678
-4.98427
-5.20735
-4.97425
-4.41202
-3.66137
-2.8617
-2.13777
-1.58912
-1.28298
-1.25097
-1.48957
-1.9638
-2.61352
-3.36131
-4.12103
-4.80607
-5.33624
-5.64264
-5.67004
-5.37641
-4.73018
-3.70571
-2.27828
-0.419919
1.90269
4.7272
8.09111
12.0241
16.5384
21.6179
27.209
33.2135
39.4855
45.8334
52.0266
57.8071
62.9052
67.0571
70.0246
71.6138
71.6909
70.1944
67.142
62.6305
56.8297
49.9706
42.3276
34.1986
25.8829
17.6604
9.77324
2.41198
-4.2931
-10.2748
-15.526
-20.0926
-24.0614
-27.547
-30.6765
-33.5751
-36.3516
-39.0871
-41.8254
-44.5677
-47.271
-49.8513
-52.191
-54.1515
-55.587
-56.3618
-56.3656
-55.528
-53.8281
-51.2995
-48.0288
-44.1488
-39.8257
-35.2424
-30.5796
-25.9972
-21.6181
-17.5159
-13.71
-10.1674
-6.81219
-3.54067
-0.241435
3.1838
6.80083
10.6281
14.6287
18.7094
22.7282
26.5077
29.8525
32.5696
34.4871
35.4714
35.4393
34.3652
32.2827
29.2807
25.4955
21.0984
16.2827
11.2484
6.18844
1.27678
-3.34158
-7.55663
-11.296
-14.524
-17.2379
-19.4609
-21.2348
-22.6111
-23.643
-24.3786
-24.8563
-25.102
-25.1294
-24.9409
-24.5311
-23.8905
-23.0088
-21.878
-20.4939
-18.8565
-16.9695
-14.8377
-12.4657
-9.85519
-7.00336
-3.90254
-0.540628
3.09682
7.02317
11.246
15.7617
20.5495
25.567
30.7461
35.9924
41.1869
46.1906
50.8515
55.0135
58.5252
61.2483
63.0641
63.8785
63.6242
62.2622
59.7817
56.2003
51.5655
45.9556
39.4819
32.2902
24.5601
16.5036
8.3605
0.394136
-7.11071
-13.844
-19.4568
-23.5347
-25.5586
-24.8576
-20.5631
-11.5817
3.39435
25.8153
57.1271
98.5426
150.747
213.573
285.697
364.438
445.706
524.172
593.651
647.703
680.36
686.899
664.537
612.944
534.472
434.061
318.822
197.328
78.7236
-28.2539
-116.191
-179.754
-216.186
-225.482
-210.25
-175.273
-126.842
-71.9668
-17.553
30.3461
67.1174
89.9594
98.0075
92.22
75.0588
50.0219
21.0995
-7.77376
-33.2005
-52.6846
-64.8418
-69.4471
-67.3276
-60.1308
-50.008
-39.264
-30.0186
-23.9249
-21.9746
-24.408
-30.7325
-39.8372
-50.1819
-60.0285
-67.6838
-71.719
-71.1409
-65.4959
-54.898
-39.9839
-21.8053
-1.67801
18.9898
38.868
56.8522
72.1727
84.4562
93.7369
100.421
105.212
109.011
112.803
117.544
124.06
132.969
144.627
159.107
176.202
195.462
216.243
237.775
259.23
279.799
298.745
315.455
329.465
340.466
348.291
352.888
354.28
352.53
347.705
339.852
328.994
315.133
298.277
278.473
255.846
230.637
203.238
174.205
144.254
114.238
85.0975
57.7959
33.2391
12.1959
-4.7759
-17.3863
-25.6448
-29.8611
-30.6148
-28.696
-25.024
-20.553
-16.1762
-12.6407
-10.4803
-9.97613
-11.1472
-13.7713
-17.4315
-21.5828
-25.6283
-28.9967
-31.2104
-31.9384
-31.027
-28.5081
-24.584
-19.5939
-13.9669
-8.16816
-2.64531
2.21783
6.13636
8.94438
10.5994
11.1716
10.8222
9.77241
8.27001
6.55696
4.84167
3.27939
1.96192
0.916809
0.115093
-0.514723
-1.06889
-1.64982
-2.34919
-3.2349
-4.34305
-5.67561
-7.20313
-8.87184
-10.6134
-12.3558
-14.0337
-15.5972
-17.0175
-18.2899
-19.4323
-20.4815
-21.4852
-22.4922
-23.5403
-24.6431
-25.7787
-26.8801
-27.8305
-28.466
-28.5843
-27.9622
-26.3789
-23.643
-19.6211
-14.2618
-7.61316
0.169818
8.83045
18.0275
27.363
36.4174
44.7878
52.1243
58.1595
62.7291
65.7787
67.3585
67.6064
66.7219
64.9347
62.473
59.5353
56.2686
52.7569
49.0195
45.0197
40.6806
35.9062
30.6042
24.7067
18.187
11.0692
3.43104
-4.60011
-12.8574
-21.148
-29.2688
-37.0209
-44.2227
-50.7195
-56.3887
-61.1422
-64.9252
-67.7131
-69.5065
-70.3259
-70.2065
-69.1928
-67.3333
-64.6768
-61.2682
-57.1477
-52.3503
-46.9089
-40.8596
-34.2493
-27.1441
-19.6371
-11.8538
-3.95414
3.87168
11.4124
18.4504
24.7797
30.2254
34.6622
38.0281
40.3348
41.6714
42.2074
42.1948
41.9765
42.0037
42.8624
45.3079
50.296
58.9976
72.7769
93.1141
121.457
159
206.402
263.482
328.945
400.195
473.311
543.217
604.058
649.774
674.783
674.701
646.988
591.411
510.25
408.208
292.009
169.746
50.0508
-58.8107
-149.79
-217.761
-259.983
-276.278
-268.91
-242.188
-201.865
-154.401
-106.204
-62.9314
-28.9316
-6.88524
2.32494
-0.478707
-13.0571
-32.1859
-54.1657
-75.3411
-92.5639
-103.549
-107.089
-103.105
-92.5601
-77.2318
-59.4092
-41.5424
-25.9004
-14.278
-7.78599
-6.74529
-10.6897
-18.4704
-28.4404
-38.6911
-47.3065
-52.6036
-53.3286
-48.7888
-38.9081
-24.2036
-5.69306
15.2531
37.0931
58.305
77.5652
93.8937
106.751
116.081
122.289
126.179
128.838
131.498
135.39
141.604
150.971
163.979
180.73
200.939
223.972
248.917
274.672
300.045
323.855
345.016
362.607
375.914
384.45
387.957
386.382
379.849
368.622
353.072
333.643
310.834
285.178
257.244
227.631
196.973
165.942
135.241
105.591
77.7075
52.2604
29.8317
10.8649
-4.37821
-15.8516
-23.7391
-28.4467
-30.57
-30.8407
-30.0565
-29.0029
-28.3774
-28.7236
-30.3855
-33.4843
-37.922
-43.4088
-49.5108
-55.7096
-61.4679
-66.2909
-69.7784
-71.6611
-71.8193
-70.2829
-67.215
-62.8829
-57.6213
-51.7923
-45.7481
-39.7988
-34.1894
-29.0872
-24.579
-20.6772
-17.3337
-14.4579
-11.937
-9.65524
-7.5107
-5.42701
-3.36
-1.29867
0.738629
2.71173
4.56812
6.25286
7.71743
8.92634
9.86105
10.5209
10.9214
11.0908
11.0655
10.8852
10.5888
10.2111
9.78179
9.32493
8.86027
8.40503
7.97587
7.59042
7.26778
7.02778
6.88892
6.86518
6.96216
7.17321
7.47621
7.8317
8.18287
8.45759
8.57265
8.4396
7.97188
7.09228
5.74001
3.87655
1.48955
-1.40539
-4.76544
-8.52336
-12.5922
-16.871
-21.2512
-25.6225
-29.8784
-33.9194
-37.6562
-41.0096
-43.9104
-46.2983
-48.1194
-49.3258
-49.8741
-49.7266
-48.8523
-47.2294
-44.8484
-41.7146
-37.8499
-33.2949
-28.1082
-22.3668
-16.1644
-9.61054
-2.82864
4.04589
10.8683
17.4882
23.7546
29.5218
34.6578
39.0514
42.6209
45.3203
47.1437
48.126
48.3407
47.8928
46.9087
45.5239
43.8683
42.0532
40.1585
38.225
36.2497
34.1874
31.9573
29.4547
26.5656
23.1845
19.2309
14.6632
9.48914
3.76942
-2.38438
-8.8179
-15.3465
-21.7705
-27.8905
-33.5214
-38.5031
-42.7072
-46.0399
-48.4407
-49.88
-50.3534
-49.8771
-48.482
-46.2096
-43.1067
-39.2202
-34.5883
-29.2271
-23.1092
-16.1315
-8.07287
1.4575
13.0728
27.6516
46.3525
70.5814
101.89
141.793
191.506
251.625
321.785
400.373
484.35
569.256
649.431
718.468
769.856
797.727
797.628
767.177
706.519
618.481
508.415
383.715
253.08
125.609
9.84704
-87.0902
-160.215
-207.094
-227.973
-225.579
-204.654
-171.285
-132.124
-93.5919
-61.1826
-38.9205
-29.0424
-31.9167
-46.192
-69.1389
-97.1248
-126.155
-152.404
-172.681
-184.768
-187.61
-181.342
-167.168
-147.114
-123.711
-99.6276
-77.3347
-58.8124
-45.3487
-37.4404
-34.8008
-36.4635
-40.9611
-46.5503
-51.4506
-54.0673
-53.1713
-48.0198
-38.4065
-24.6439
-7.48466
12.0023
32.5817
53.0081
72.1684
89.197
103.551
115.04
123.818
130.332
135.244
139.339
143.426
148.247
154.399
162.282
172.068
183.699
196.909
211.261
226.199
241.112
255.387
268.465
279.878
289.268
296.399
301.132
303.412
303.223
300.561
295.405
287.703
277.37
264.313
248.461
229.81
208.472
184.714
158.99
131.937
104.364
77.1919
51.3844
27.8558
7.37495
-9.52202
-22.5974
-31.9448
-37.9838
-41.4136
-43.1331
-44.1353
-45.3904
-47.7335
-51.7706
-57.8147
-65.8602
-75.5971
-86.4617
-97.7171
-108.551
-118.178
-125.936
-131.357
-134.216
-134.548
-132.626
-128.917
-124.018
-118.577
-113.22
-108.48
-104.749
-102.245
-101.004
-100.888
-101.618
-102.799
-103.973
-104.651
-104.358
-102.667
-99.2255
-93.7799
-86.1931
-76.4553
-64.6886
-51.145
-36.1956
-20.3114
-4.03626
12.0483
27.3628
41.3723
53.6259
63.7911
71.6787
77.2534
80.6318
82.0652
81.9094
80.5859
78.5372
76.1824
73.8759
71.8766
70.3274
69.2495
68.5496
68.0402
67.469
66.5549
65.0245
62.6465
59.2594
54.789
49.2564
42.7736
35.5307
27.7748
19.7845
11.8437
4.21661
-2.873
-9.25649
-14.8281
-19.5459
-23.426
-26.5321
-28.961
-30.8267
-32.2443
-33.3156
-34.1189
-34.7022
-35.0814
-35.2443
-35.1574
-34.7765
-34.0582
-32.9706
-31.5024
-29.6684
-27.5108
-25.0968
-22.5118
-19.8521
-17.2143
-14.687
-12.3434
-10.2355
-8.39284
-6.82184
-5.50907
-4.42527
-3.5306
-2.78031
-2.13007
-1.54082
-0.982786
-0.438309
0.0964531
0.611272
1.08304
1.47845
1.75806
1.88147
1.81316
1.52836
1.01841
0.294576
-0.610004
-1.641
-2.72622
-3.78159
-4.71905
-5.4557
-5.92284
-6.07372
-5.88878
-5.37742
-4.57596
-3.54179
-2.34485
-1.05735
0.256167
1.5472
2.78843
3.97501
5.12173
6.25662
7.41215
8.61556
9.87997
11.1979
12.5385
13.8484
15.0572
16.0855
16.8549
17.2984
17.3689
17.0451
16.3336
15.2671
13.8996
12.2983
10.5355
8.67958
6.78809
4.90302
3.0487
1.2325
-0.55197
-2.32005
-4.0901
-5.87749
-7.68913
-9.51917
-11.3464
-13.1334
-14.8277
-16.3643
-17.6693
-18.6641
-19.2694
-19.4082
-19.0092
-18.0091
-16.3551
-14.0084
-10.9484
-7.17833
-2.7305
2.32832
7.89375
13.8237
19.9423
26.0489
31.9313
37.3835
42.2283
46.3441
49.6973
52.3824
54.6688
57.0544
60.318
65.5605
74.2175
88.0212
108.893
138.753
179.238
231.365
295.165
369.354
451.123
536.101
618.546
691.778
748.822
783.188
789.693
765.193
709.13
623.784
514.189
387.706
253.313
120.674
-0.870654
-103.27
-180.574
-229.477
-249.551
-243.134
-214.913
-171.27
-119.465
-66.7874
-19.7538
16.5314
38.808
45.8377
38.3339
18.669
-9.58329
-42.2015
-74.891
-103.807
-125.969
-139.526
-143.852
-139.49
-127.945
-111.388
-92.3084
-73.1625
-56.0657
-42.5617
-33.4906
-28.96
-28.4153
-30.786
-34.6852
-38.6268
-41.2344
-41.4127
-38.4628
-32.1335
-22.6054
-10.4179
3.64606
18.6984
33.8852
48.5085
62.1155
74.5438
85.9228
96.632
107.227
118.343
130.594
144.478
160.296
178.106
197.703
218.634
240.246
261.748
282.3
301.093
317.433
330.799
340.884
347.603
351.075
351.574
349.472
345.159
338.977
331.16
321.798
310.829
298.056
283.198
265.952
246.076
223.468
198.234
170.728
141.566
111.599
81.853
53.4359
27.4298
4.77886
-13.811
-27.9457
-37.5813
-43.0192
-44.8627
-43.9373
-41.1898
-37.5768
-33.9591
-31.0151
-29.1815
-28.6298
-29.2761
-30.8235
-32.8273
-34.774
-36.1629
-36.5791
-35.7503
-33.5807
-30.1589
-25.7417
-20.717
-15.5506
-10.7277
-6.69228
-3.79673
-2.26303
-2.16244
-3.41355
-5.79821
-8.9923
-12.6065
-16.2318
-19.4837
-22.0409
-23.6728
-24.2552
-23.7728
-22.3089
-20.0255
-17.1361
-13.8768
-10.4764
-7.13228
-3.99215
-1.1438
1.38619
3.62603
5.64611
7.54218
9.41699
11.3628
13.4468
15.7011
18.118
20.6499
23.215
25.7049
27.9953
29.9569
31.4656
32.4114
32.7055
32.2856
31.1191
29.2055
26.5767
23.2972
19.4625
15.1957
10.6436
5.96929
1.34429
-3.06127
-7.08924
-10.6036
-13.4996
-15.7101
-17.2097
-18.0148
-18.1799
-17.7915
-16.9588
-15.8034
-14.4488
-13.01
-11.5859
-10.2529
-9.06274
-8.04176
-7.19339
-6.50229
-5.93956
-5.46834
-5.04904
-4.64378
-4.21971
-3.75116
-3.22076
-2.61981
-1.94811
-1.21349
-0.431167
0.377057
1.18385
1.95774
2.66495
3.27166
3.74675
4.0647
4.20852
4.17235
3.96341
3.60301
3.12646
2.58162
2.02618
1.5237
1.13879
0.931665
0.952673
1.23729
1.80212
2.64227
3.73059
5.01871
6.44001
7.91416
9.35289
10.6665
11.7705
12.5919
13.0742
13.1821
12.903
12.2483
11.252
9.9674
8.46341
6.81855
5.11515
3.43311
1.84405
0.406402
-0.838428
-1.86842
-2.68177
-3.29624
-3.74714
-4.08411
-4.36707
-4.66155
-5.03374
-5.5455
-6.24971
-7.18613
-8.37809
-9.83039
-11.5283
-13.438
-15.5083
-17.6732
-19.8557
-21.9712
-23.932
-25.6505
-27.0428
-28.0314
-28.5489
-28.5408
-27.9696
-26.819
-25.0984
-22.846
-20.1311
-17.0539
-13.7417
-10.3426
-7.01528
-3.91724
-1.19189
1.04408
2.71113
3.77395
4.24429
4.17916
3.67454
2.85527
1.86242
0.839421
-0.0814248
-0.790559
-1.20961
-1.29585
-1.04228
-0.47363
0.36092
1.39718
2.56596
3.80234
5.05279
6.27943
7.46091
8.59026
9.67021
10.7071
11.7044
12.6573
13.5488
14.3484
15.0128
15.4898
15.7233
15.6594
15.2536
14.477
13.3211
11.8019
9.96116
7.86575
5.60457
3.28358
1.01887
-1.0715
-2.87654
-4.30133
-5.27532
-5.75915
-5.74916
-5.2792
-4.41917
-3.27046
-1.95868
-0.624141
0.588877
1.5436
2.12279
2.24216
1.86711
1.03524
-0.112325
-1.28959
-2.01513
-1.55799
1.10881
7.33025
18.7455
37.1966
64.5537
102.453
151.967
213.241
285.159
365.122
448.985
531.234
605.4
664.685
702.746
714.51
696.912
649.432
574.343
476.609
363.444
243.569
126.282
20.4422
-66.4807
-129.182
-165.022
-174.193
-159.551
-126.145
-80.5121
-29.8476
18.851
59.5513
87.7837
101.005
98.7073
82.2723
54.6194
19.7001
-18.08
-54.4382
-85.7184
-109.267
-123.648
-128.687
-125.353
-115.514
-101.601
-86.2389
-71.8904
-60.5536
-53.5501
-51.4177
-53.9126
-60.1097
-68.5774
-77.6006
-85.4175
-90.4407
-91.4377
-87.6523
-78.8577
-65.3409
-47.8264
-27.3534
-5.12512
17.6498
39.903
60.8228
79.9301
97.1057
112.571
126.828
140.562
154.537
169.478
185.969
204.372
224.777
246.988
270.541
294.756
318.806
341.806
362.9
381.34
396.547
408.152
416.008
420.168
420.852
418.389
413.147
405.475
395.646
383.82
370.028
354.185
336.12
315.628
292.537
266.775
238.44
207.844
175.538
142.31
109.142
77.1448
47.4624
21.1705
-0.829638
-17.9007
-29.7351
-36.3854
-38.2581
-36.0691
-30.7683
-23.4415
-15.2025
-7.08739
0.0367395
5.53864
9.0598
10.5186
10.0838
8.12265
5.13182
1.66083
-1.76236
-4.69463
-6.82324
-7.98972
-8.19124
-7.56149
-6.33582
-4.80658
-3.27557
-2.01015
-1.20842
-0.977192
-1.32441
-2.16572
-3.34291
-4.651
-5.86941
-6.79328
-7.26061
-7.17241
-6.50373
-5.30491
-3.69359
-1.83892
0.0595433
1.79566
3.18007
4.06071
4.33807
3.97403
2.99344
1.47891
-0.440184
-2.60298
-4.83456
-6.96357
-8.83801
-10.3377
-11.3825
-11.9351
-11.9999
-11.6169
-10.8533
-9.79295
-8.52578
-7.13793
-5.70418
-4.28279
-2.91311
-1.61559
-0.393394
0.765079
1.88356
2.99551
4.14188
5.36852
6.7227
8.24823
9.9791
11.9321
14.0996
16.4432
18.8912
21.3381
23.6507
25.6766
27.2566
28.2396
28.4968
27.9344
26.5032
24.2041
21.0885
17.2543
12.8372
8.00025
2.92092
-2.22173
-7.25836
-12.0382
-16.4348
-20.3478
-23.7019
-26.4436
-28.5362
-29.9555
-30.687
-30.7253
-30.0755
-28.7573
-26.81
-24.2971
-21.3093
-17.9652
-14.4078
-10.7974
-7.30139
-4.08144
-1.27977
0.99348
2.67053
3.73216
4.20907
4.178
3.75301
3.07282
2.28571
1.53354
0.936945
0.583089
0.517438
0.740384
1.209
1.84367
2.53881
3.17639
3.64081
3.83347
3.68539
3.16701
2.29464
1.13463
-0.192418
-1.50393
-2.54005
-2.93775
-2.19392
0.378736
5.69309
14.9112
29.4297
50.8074
80.618
120.225
170.491
231.456
302.041
379.828
461.009
540.509
612.346
670.176
707.975
720.785
705.387
660.832
588.713
493.149
380.45
258.518
136.041
21.5903
-77.2614
-154.7
-207.205
-233.807
-236.039
-217.615
-183.86
-141.014
-95.4591
-53.0046
-18.2895
5.62276
17.4268
17.5297
7.80351
-8.81667
-28.8249
-48.657
-65.1588
-75.9538
-79.6756
-76.0475
-65.8156
-50.5558
-32.3942
-13.6819
3.32866
16.7655
25.3452
28.4886
26.3366
19.6751
9.7847
-1.75692
-13.2928
-23.2947
-30.536
-34.2116
-33.9935
-30.0211
-22.8329
-13.2515
-2.24325
9.23077
20.3504
30.5432
39.551
47.4489
54.6199
61.6883
69.4249
78.6365
90.0542
104.235
121.488
141.829
164.971
190.354
217.192
244.551
271.434
296.87
319.989
340.084
356.653
369.406
378.254
383.275
384.663
382.678
377.59
369.636
358.993
345.768
330.005
311.71
290.886
267.584
241.942
214.232
184.884
154.501
123.835
93.7545
65.1802
39.0066
16.0192
-3.18412
-18.2546
-29.1283
-36.0301
-39.4441
-40.0556
-38.6703
-36.1242
-33.1939
-30.5201
-28.5533
-27.5265
-27.4577
-28.1795
-29.3887
-30.7093
-31.7582
-32.2055
-31.8212
-30.5033
-28.2856
-25.3257
-21.8763
-18.2462
-14.7558
-11.695
-9.28786
-7.66914
-6.87349
-6.83885
-7.42155
-8.42043
-9.60605
-10.7509
-11.6568
-12.1764
-12.2268
-11.7941
-10.9295
-9.73797
-8.36074
-6.95529
-5.67416
-4.64576
-3.95915
-3.6544
-3.71944
-4.09367
-4.67742
-5.346
-5.96622
-6.41309
-6.58437
-6.41123
-5.86364
-4.95046
-3.7146
-2.22475
-0.565163
1.17445
2.90772
4.5579
6.06137
7.36858
8.44295
9.25885
9.79924
10.0538
10.0181
9.69291
9.08548
8.20973
7.08727
5.74776
4.22875
2.57517
0.838347
-0.925178
-2.65501
-4.28848
-5.76242
-7.01535
-7.98991
-8.63547
-8.91046
-8.78401
-8.23632
-7.25753
-5.84519
-4.00085
-1.72684
0.975851
4.10745
7.66642
11.6438
16.015
20.7313
25.7107
30.8323
35.9328
40.8097
45.2281
48.9338
51.6708
53.201
53.3255
51.9033
48.8677
44.2351
38.108
30.6694
22.1706
12.912
3.22043
-6.57487
-16.1634
-25.2681
-33.6484
-41.0892
-47.3699
-52.2161
-55.2352
-55.8435
-53.2016
-46.1743
-33.3403
-13.0735
16.2902
56.1971
107.551
170.359
243.412
324.062
408.18
490.326
564.152
623.021
660.754
672.416
655.032
608.104
533.848
437.111
324.943
205.905
89.1623
-16.4896
-103.554
-166.6
-202.769
-211.971
-196.751
-161.858
-113.589
-58.9916
-5.031
42.1663
77.9188
99.3756
105.656
97.7438
78.1707
50.5458
19.0026
-12.3621
-39.9861
-61.2219
-74.5628
-79.7026
-77.4362
-69.4314
-57.9115
-45.2975
-33.8603
-25.4239
-21.1543
-21.4511
-25.9486
-33.6153
-42.9312
-52.1147
-59.3656
-63.0937
-62.1048
-55.725
-43.8521
-26.935
-5.88799
18.0437
43.4468
68.9101
93.1791
115.28
134.597
150.906
164.354
175.404
184.747
193.196
201.585
210.672
221.057
233.134
247.064
262.773
279.971
298.199
316.869
335.326
352.895
368.927
382.837
394.12
402.367
407.254
408.539
406.044
399.645
389.26
374.854
356.452
334.153
308.168
278.842
246.686
212.386
176.803
140.942
105.904
72.814
42.7356
16.5809
-4.97197
-21.5426
-33.0855
-39.8926
-42.5621
-41.9349
-39.0069
-34.827
-30.3936
-26.5604
-23.9627
-22.971
-23.6765
-25.9078
-29.2761
-33.2402
-37.1859
-40.506
-42.6742
-43.3044
-42.1889
-39.3122
-34.843
-29.1038
-22.5265
-15.5978
-8.80399
-2.57959
2.733
6.90998
9.85664
11.6021
12.2807
12.1029
11.3204
10.1911
8.94573
7.76226
6.74958
5.94113
5.29912
4.72738
4.09071
3.23756
2.02304
0.329203
-1.91969
-4.74824
-8.12789
-11.9811
-16.1903
-20.6105
-25.0819
-29.4434
-33.5423
-37.2429
-40.4309
-43.0155
-44.9293
-46.1261
-46.5785
-46.2741
-45.2134
-43.4069
-40.8753
-37.6501
-33.7764
-29.3159
-24.3513
-18.9884
-13.3568
-7.60788
-1.90885
3.56566
8.64488
13.1741
17.0269
20.1152
22.3963
23.876
24.6068
24.6813
24.2222
23.369
22.2632
21.0338
19.7847
18.5851
17.464
16.4099
15.3752
14.2844
13.046
11.565
9.75553
7.55143
4.91383
1.83476
-1.66286
-5.52835
-9.68833
-14.0524
-18.5183
-22.9758
-27.3089
-31.3974
-35.1173
-38.3425
-40.947
-42.8099
-43.8214
-43.8911
-42.9563
-40.9896
-38.0044
-34.056
-29.2392
-23.6813
-17.5318
-10.9504
-4.09532
2.88662
9.86621
16.7341
23.3989
29.7818
35.8095
41.4062
46.4876
50.9565
54.7037
57.6122
59.5675
60.4736
60.2747
58.9853
56.7269
53.7732
50.6008
47.941
46.824
48.6003
54.9232
67.67
88.7876
120.054
162.769
217.398
283.239
358.157
438.48
519.097
593.791
655.799
698.532
716.376
705.45
664.219
593.845
498.224
383.692
258.414
131.546
12.2723
-91.1612
-172.295
-227.075
-254.182
-255.03
-233.46
-195.175
-146.99
-96.0224
-48.8892
-11.0362
13.7507
23.6032
18.5856
0.488929
-27.5522
-61.5584
-97.2501
-130.568
-158.11
-177.447
-187.284
-187.473
-178.891
-163.208
-142.601
-119.433
-95.9631
-74.1056
-55.2602
-40.2329
-29.2382
-21.9726
-17.7396
-15.6045
-14.553
-13.6354
-12.0791
-9.36062
-5.2331
0.28744
6.97043
14.443
22.2738
30.0571
37.484
44.3948
50.8046
56.9019
63.0205
69.5905
77.0758
85.9062
96.4138
108.782
123.011
138.908
156.1
174.061
192.163
209.734
226.111
240.7
253.01
262.686
269.511
273.399
274.369
272.517
267.976
260.887
251.376
239.547
225.484
209.273
191.034
170.952
149.312
126.524
103.124
79.7661
57.1834
36.1345
17.337
1.39712
-11.2542
-20.4093
-26.1082
-28.6353
-28.4874
-26.3188
-22.8673
-18.8742
-15.0057
-11.7874
-9.558
-8.44897
-8.39014
-9.13956
-10.3326
-11.5427
-12.3458
-12.3797
-11.3917
-9.2695
-6.05256
-1.92405
2.8141
7.77906
12.5524
16.7274
19.9521
21.965
22.6185
21.8891
19.8747
16.7784
12.8831
8.51966
4.03152
-0.259007
-4.08006
-7.23217
-9.60098
-11.16
-11.9641
-12.1344
-11.8384
-11.266
-10.6059
-10.0243
-9.64898
-9.55888
-9.78162
-10.2977
-11.051
-11.9632
-12.9504
-13.9391
-14.8789
-15.7515
-16.5728
-17.3902
-18.2752
-19.3126
-20.5872
-22.1711
-24.111
-26.4165
-29.0503
-31.9214
-34.8802
-37.7199
-40.1826
-41.9739
-42.784
-42.3155
-40.3157
-36.6084
-31.1226
-23.9119
-15.1627
-5.1881
5.59274
16.6874
27.5718
37.7366
46.7307
54.1996
59.9112
63.7692
65.8107
66.1901
65.1529
63.0011
60.0571
56.6288
52.9814
49.3175
45.767
42.3878
39.1753
36.078
33.0181
29.9129
26.6941
23.3235
19.8032
16.1782
12.5329
8.98122
5.65229
2.67302
0.150788
-1.84212
-3.27994
-4.18932
-4.649
-4.7833
-4.75047
-4.72745
-4.89307
-5.41169
-6.41928
-8.01315
-10.2462
-13.1258
-16.6163
-20.6449
-25.1095
-29.8863
-34.8381
-39.8211
-44.6901
-49.3031
-53.525
-57.2304
-60.3067
-62.6574
-64.2046
-64.8922
-64.6878
-63.5843
-61.5997
-58.7767
-55.1813
-50.901
-46.0432
-40.7331
-35.1118
-29.3335
-23.561
-17.9599
-12.6908
-7.89953
-3.70742
-0.201102
2.5753
4.62492
5.99871
6.79118
7.13173
7.17218
7.07216
6.98396
7.03877
7.3358
7.93547
8.85716
10.0813
11.5554
13.2024
14.9309
16.6451
18.2538
19.6781
20.8557
21.7442
22.3207
22.5804
22.5336
22.2012
21.6111
20.7932
19.7757
18.5824
17.2305
15.7296
14.0824
12.2855
10.3323
8.21482
5.92743
3.46887
0.844724
-1.93106
-4.83544
-7.8361
-10.892
-13.9539
-16.9657
-19.865
-22.5842
-25.0515
-27.1921
-28.9288
-30.1844
-30.883
-30.9527
-30.3274
-28.9502
-26.7755
-23.772
-19.9254
-15.2401
-9.7422
-3.48088
3.47035
11.0135
19.0279
27.375
35.9071
44.4832
52.9923
61.3869
69.7269
78.2321
87.3394
97.754
110.483
126.832
148.349
176.69
213.414
259.702
316.033
381.86
455.357
533.29
611.072
683.042
742.948
784.591
802.568
792.984
754.049
686.445
593.417
480.54
355.21
225.896
101.266
-10.7097
-103.56
-172.926
-216.905
-236.108
-233.426
-213.553
-182.333
-146.032
-110.608
-81.0888
-61.1037
-52.6245
-55.9236
-69.7366
-91.5909
-118.245
-146.173
-172.036
-193.076
-207.393
-214.089
-213.266
-205.893
-193.581
-178.293
-162.04
-146.602
-133.307
-122.892
-115.457
-110.513
-107.104
-103.981
-99.8128
-93.3799
-83.7518
-70.4069
-53.2927
-32.8194
-9.79262
14.7011
39.4388
63.2133
84.9754
103.946
119.687
132.129
141.549
148.513
153.786
158.233
162.71
167.973
174.603
182.96
193.159
205.084
218.418
232.688
247.327
261.729
275.312
287.554
298.03
306.425
312.534
316.25
317.538
316.407
312.885
306.991
298.719
288.037
274.896
259.249
241.088
220.477
197.6
172.783
146.521
119.47
92.4255
66.275
41.9313
20.2553
1.97578
-12.3819
-22.5492
-28.5423
-30.6601
-29.4526
-25.6632
-20.1516
-13.8072
-7.46356
-1.82295
2.59962
5.50819
6.8309
6.69932
5.4064
3.34964
0.967305
-1.32385
-3.18193
-4.37835
-4.81796
-4.53966
-3.69917
-2.53767
-1.34134
-0.397908
0.04397
-0.192428
-1.19057
-2.93272
-5.30539
-8.11661
-11.1218
-14.0547
-16.6584
-18.714
-20.0618
-20.614
-20.359
-19.3552
-17.7184
-15.604
-13.1869
-10.642
-8.12746
-5.77309
-3.67388
-1.88914
-0.446379
0.651373
1.41655
1.86791
2.0227
1.89117
1.47383
0.761537
-0.261978
-1.61562
-3.31502
-5.36569
-7.7555
-10.4472
-13.3711
-16.4194
-19.4429
-22.2516
-24.6202
-26.3004
-27.0389
-26.6008
-24.796
-21.5059
-16.7059
-10.4803
-3.02706
5.34995
14.2605
23.2586
31.8794
39.6804
46.2794
51.3874
54.8309
56.5621
56.6566
55.2985
52.7556
49.3479
45.414
41.2783
37.2225
33.4658
30.1526
27.3505
25.0561
23.2073
21.7003
20.408
19.1974
17.945
16.5481
14.931
13.0479
10.8814
8.43842
5.74456
2.83742
-0.239788
-3.44414
-6.7378
-10.0915
-13.4865
-16.9145
-20.3765
-23.8784
-27.427
-31.0229
-34.6548
-38.2933
-41.8866
-45.3585
-48.6097
-51.5223
-53.9669
-55.8136
-56.9429
-57.2572
-56.6915
-55.2193
-52.8566
-49.6594
-45.7184
-41.1496
-36.0835
-30.6542
-24.99
-19.2064
-13.4036
-7.66531
-2.06188
3.34638
8.50515
13.3631
17.8706
21.9797
25.6468
28.835
31.5181
33.6831
35.3321
36.4826
37.1664
37.4261
37.3112
36.8725
36.1568
35.2014
34.0295
32.6478
31.0449
29.1932
27.0523
24.5754
21.7165
18.4387
14.7221
10.5703
6.01395
1.1119
-4.05178
-9.37322
-14.7364
-20.022
-25.115
-29.9118
-34.3239
-38.2796
-41.7226
-44.6097
-46.9073
-48.5879
-49.6275
-50.0043
-49.6972
-48.6856
-46.9489
-44.4655
-41.2138
-37.1719
-32.3213
-26.651
-20.1646
-12.8896
-4.88577
3.74615
12.86
22.2638
31.7247
40.9802
49.7532
57.7712
64.7847
70.5853
75.019
77.9938
79.4818
79.5144
78.1739
75.5802
71.8781
67.2237
61.7738
55.6788
49.0788
42.1032
34.8729
27.5041
20.1122
12.814
5.7288
-1.02474
-7.33348
-13.0977
-18.2399
-22.714
-26.5117
-29.6658
-32.2482
-34.3624
-36.1296
-37.6692
-39.0731
-40.375
-41.512
-42.2803
-42.2853
-40.89
-37.1697
-29.887
-17.5044
1.74532
29.7138
68.11
118.199
180.461
254.249
337.538
426.796
517.074
602.31
675.859
731.186
762.638
766.187
740.023
684.909
604.231
503.727
390.914
274.304
162.494
63.2553
-17.257
-75.0861
-108.777
-119.379
-110.154
-86.0576
-53.0516
-17.357
15.2658
40.1211
54.0047
55.4157
44.5466
23.0729
-6.21326
-39.8657
-74.2772
-106.138
-132.808
-152.56
-164.69
-169.47
-168.003
-161.964
-153.32
-144.025
-135.762
-129.744
-126.596
-126.334
-128.41
-131.844
-135.379
-137.674
-137.474
-133.769
-125.896
-113.601
-97.0401
-76.7335
-53.4865
-28.2803
-2.15572
23.8983
49.0402
72.6444
94.3404
114.019
131.807
148.026
163.121
177.593
191.928
206.527
221.663
237.446
253.815
270.547
287.283
303.572
318.921
332.84
344.895
354.737
362.127
366.942
369.167
368.867
366.164
361.195
354.082
344.903
333.681
320.378
304.914
287.193
267.148
244.778
220.204
193.697
165.706
136.857
107.933
79.8287
53.4838
29.8068
9.59088
-6.56205
-18.3026
-25.5709
-28.6049
-27.9176
-24.2475
-18.4859
-11.5911
-4.49929
1.95829
7.12237
10.5507
12.0375
11.6058
9.47746
6.02376
1.70525
-2.99191
-7.61555
-11.7964
-15.2814
-17.9502
-19.8121
-20.9894
-21.6864
-22.1532
-22.6464
-23.3935
-24.5646
-26.254
-28.4742
-31.1603
-34.1847
-37.3781
-40.5542
-43.5344
-46.1684
-48.3496
-50.0228
-51.1843
-51.8747
-52.1667
-52.1489
-51.9084
-51.5156
-51.0116
-50.4007
-49.6484
-48.6852
-47.4158
-45.7317
-43.5256
-40.7073
-37.2169
-33.0352
-28.1897
-22.7559
-16.8525
-10.633
-4.2736
2.0407
8.13047
13.8343
19.0187
23.5841
27.4665
30.6353
33.0883
34.8437
35.9329
36.3922
36.2579
35.5631
34.3374
32.6092
30.4092
27.7753
24.7563
21.4145
17.8253
14.0752
10.2564
6.46055
2.77045
-0.746583
-4.04465
-7.10235
-9.92277
-12.5303
-14.9643
-17.2712
-19.4951
-21.669
-23.8068
-25.8984
-27.9074
-29.7718
-31.4078
-32.7164
-33.5912
-33.9265
-33.6256
-32.6068
-30.8083
-28.1911
-24.7407
-20.4688
-15.4144
-9.64567
-3.26201
3.60559
10.796
18.1234
25.3886
32.3977
38.9899
45.0766
50.6921
56.0532
61.6238
68.1718
76.8043
88.9596
106.337
130.744
163.866
206.954
260.482
323.81
394.935
470.378
545.288
613.754
669.348
705.817
717.848
701.801
656.29
582.521
484.323
367.865
241.068
112.802
-8.03526
-113.447
-197.142
-255.124
-286.01
-291.02
-273.685
-239.306
-194.24
-145.123
-98.1214
-58.2998
-29.1751
-12.4944
-8.24546
-14.8756
-29.6735
-49.2492
-70.0447
-88.8053
-102.959
-110.867
-111.921
-106.503
-95.8164
-81.6304
-65.9802
-50.8623
-37.9689
-28.4897
-23.0013
-21.4481
-23.2099
-27.2366
-32.2279
-36.8272
-39.8063
-40.215
-37.4811
-31.4531
-22.3843
-10.8676
2.26808
16.0824
29.6529
42.1928
53.1446
62.2398
69.5218
75.3297
80.2504
85.0453
90.5613
97.6379
107.019
119.277
134.761
153.556
175.48
200.094
226.728
254.531
282.526
309.672
334.925
357.298
375.919
390.069
399.219
403.047
401.445
394.512
382.53
365.937
345.289
321.22
294.406
265.536
235.289
204.322
173.268
142.733
113.295
85.4955
59.822
36.6855
16.3899
-0.896943
-15.166
-26.5771
-35.4523
-42.2504
-47.5232
-51.8602
-55.8247
-59.8925
-64.3991
-69.5041
-75.1759
-81.2006
-87.2145
-92.754
-97.319
-100.441
-101.746
-101.006
-98.1729
-93.386
-86.9617
-79.3578
-71.1235
-62.8384
-55.0509
-48.2218
-42.6803
-38.598
-35.9819
-34.6873
-34.4465
-34.9103
-35.6944
-36.4262
-36.7855
-36.5353
-35.5393
-33.7656
-31.278
-28.2163
-24.7699
-21.147
-17.5453
-14.1261
-10.9949
-8.1912
-5.68709
-3.39565
-1.18699
1.08992
3.58264
6.41119
9.64775
13.3028
17.3194
21.5771
25.9033
30.0921
33.9271
37.2045
39.755
41.4601
42.2621
42.166
41.2351
39.5793
37.3403
34.6742
31.7354
28.6614
25.5626
22.5157
19.5621
16.7099
13.9404
11.2164
8.49174
5.72179
2.87206
-0.0747146
-3.11427
-6.21967
-9.34304
-12.42
-15.3755
-18.1308
-20.6089
-22.7401
-24.464
-25.7305
-26.4984
-26.7343
-26.4105
-25.5047
-24.0016
-21.8955
-19.1955
-15.9295
-12.1493
-7.93254
-3.3823
1.37615
6.2019
10.9471
15.467
19.6292
23.3226
26.4624
28.9931
30.8875
32.1437
32.7787
32.8228
32.3124
31.2851
29.7762
27.8165
25.4324
22.6469
19.481
15.9557
12.0925
7.91513
3.44988
-1.27332
-6.21968
-11.348
-16.6087
-21.9426
-27.2791
-32.5369
-37.625
-42.4463
-46.9018
-50.8972
-54.3486
-57.1888
-59.371
-60.8706
-61.6839
-61.8235
-61.3118
-60.1728
-58.4244
-56.0724
-53.1086
-49.5127
-45.2593
-40.3284
-34.7191
-28.4617
-21.6288
-14.3404
-6.76319
0.897428
8.41104
15.5405
22.0621
27.7847
32.5655
36.3205
39.0276
40.7244
41.4983
41.473
40.7925
39.6033
38.0395
36.2089
34.1849
32.0018
29.6555
27.1083
24.2972
21.1452
17.5733
13.512
8.91263
3.75609
-1.94092
-8.12174
-14.6883
-21.5021
-28.3868
-35.1338
-41.5099
-47.2673
-52.1562
-55.9388
-58.4058
-59.392
-58.7918
-56.5713
-52.7777
-47.542
-41.0764
-33.6646
-25.6456
-17.3921
-9.28432
-1.68313
5.09679
10.8099
15.2965
18.4917
20.4254
21.2124
21.0362
20.1256
18.729
17.0895
15.4219
13.8959
12.626
11.6689
11.0264
10.6552
10.4795
10.4046
10.3312
10.1671
9.83611
9.28365
8.47883
7.41342
6.09842
4.55901
2.82885
0.944357
-1.05996
-3.1544
-5.31438
-7.51724
-9.73463
-11.9194
-13.9861
-15.7844
-17.0651
-17.4418
-16.3491
-13.0057
-6.39018
4.75899
21.9032
46.6111
80.4026
124.527
179.693
245.767
321.507
404.372
490.468
574.682
651.028
713.166
755.074
771.766
759.966
718.628
649.224
555.738
444.353
322.869
199.911
84.0425
-17.1166
-97.6528
-153.906
-184.743
-191.538
-177.859
-148.939
-110.974
-70.3742
-33.0331
-3.72369
14.3314
19.67
12.5761
-5.13997
-30.5206
-59.9402
-89.6173
-116.093
-136.624
-149.442
-153.876
-150.317
-140.062
-125.055
-107.583
-89.9471
-74.1747
-61.7911
-53.6761
-50.0161
-50.3482
-53.6818
-58.6738
-63.8327
-67.72
-69.1264
-67.2019
-61.5278
-52.1285
-39.4262
-24.151
-7.22149
10.3863
27.764
44.1751
59.1281
72.4121
84.0956
94.4909
104.093
113.5
123.332
134.149
146.381
160.283
175.905
193.089
211.491
230.616
249.871
268.624
286.26
302.234
316.108
327.579
336.476
342.753
346.456
347.686
346.553
343.137
337.453
329.44
318.961
305.831
289.857
270.891
248.898
224.005
196.55
167.1
136.444
105.553
75.5094
47.4217
22.319
1.05232
-15.7912
-27.9467
-35.4959
-38.8523
-38.7102
-35.9625
-31.5993
-26.5991
-21.8268
-17.9507
-15.3875
-14.2813
-14.5168
-15.7633
-17.5413
-19.3032
-20.5153
-20.7316
-19.6512
-17.1516
-13.2979
-8.32612
-2.60732
3.40335
9.22403
14.4027
18.5657
21.4538
22.9413
23.0385
21.8788
19.6923
16.7714
13.4329
9.98106
6.67599
3.7107
1.19847
-0.828842
-2.41249
-3.65043
-4.67559
-5.63191
-6.65138
-7.83482
-9.23858
-10.8683
-12.68
-14.5876
-16.4761
-18.2172
-19.6862
-20.7773
-21.4155
-21.5646
-21.2289
-20.451
-19.3049
-17.8858
-16.2993
-14.6494
-13.0294
-11.514
-10.1551
-8.98027
-7.99461
-7.18428
-6.52218
-5.97417
-5.50542
-5.08593
-4.69481
-4.32276
-3.97261
-3.65781
-3.39921
-3.2203
-3.14187
-3.17655
-3.32416
-3.56845
-3.87569
-4.19528
-4.46221
-4.60108
-4.53138
-4.17356
-3.45539
-2.31828
-0.723109
1.34492
3.87265
6.81703
10.105
13.6355
17.2832
20.9051
24.3474
27.4552
30.0821
32.0999
33.4082
33.9419
33.677
32.6334
30.8738
28.5008
25.6493
22.4772
19.1544
15.8513
12.7274
9.92155
7.54464
5.67449
4.35375
3.59022
3.35948
3.60907
4.26378
5.2314
6.40846
7.68558
8.95215
10.1004
11.0284
11.6435
11.864
11.6223
10.8668
9.5651
7.70633
5.30344
2.39483
-0.955534
-4.65971
-8.60952
-12.6823
-16.7488
-20.6816
-24.3641
-27.6987
-30.6127
-33.0612
-35.0269
-36.5165
-37.5542
-38.1736
-38.4089
-38.2871
-37.822
-37.0123
-35.842
-34.2865
-32.3198
-29.925
-27.1041
-23.8867
-20.3344
-16.5409
-12.6265
-8.72773
-4.98309
-1.51793
1.57019
4.22267
6.42586
8.21105
9.64823
10.8346
11.8798
12.8894
13.9499
15.1168
16.4065
17.7955
19.2234
20.6021
21.8276
22.7946
23.4096
23.6033
23.3386
22.6148
21.4675
19.9634
18.1922
16.2566
14.2605
12.299
10.4489
8.76362
7.26977
5.96852
4.83912
3.84498
2.94087
2.08028
1.22192
0.334458
-0.600747
-1.58922
-2.6249
-3.69306
-4.7741
-5.84721
-6.89344
-7.89761
-8.84889
-9.73989
-10.5648
-11.3168
-11.9852
-12.5533
-12.9966
-13.2824
-13.3708
-13.2168
-12.7735
-11.9964
-10.8477
-9.30097
-7.34543
-4.98916
-2.26116
0.788331
4.08927
7.55516
11.088
14.5845
17.9427
21.0686
23.8811
26.3158
28.3262
29.8827
30.9697
31.5814
31.7183
31.3831
30.58
29.3151
27.5995
25.4536
22.9121
20.0282
16.8753
13.5467
10.1509
6.80402
3.62079
0.703302
-1.86884
-4.04666
-5.81663
-7.2017
-8.25826
-9.0695
-9.73622
-10.366
-11.0623
-11.9142
-12.9886
-14.3245
-15.9309
-17.7863
-19.8425
-22.0287
-24.2575
-26.4315
-28.4498
-30.2134
-31.6306
-32.6207
-33.1169
-33.0684
-32.4418
-31.2218
-29.4112
-27.0313
-24.1207
-20.7339
-16.939
-12.8144
-8.44463
-3.91646
0.686017
5.28504
9.81206
14.2093
18.4299
22.4367
26.2001
29.6957
32.9022
35.8
38.3705
40.5969
42.4653
43.9664
45.0972
45.8611
46.2684
46.3344
46.0779
45.5186
44.6746
43.5609
42.1886
40.5647
38.6937
36.5785
34.2234
31.635
28.8244
25.8082
22.609
19.2558
15.7838
12.2334
8.6495
5.07893
1.56859
-1.83768
-5.10201
-8.19503
-11.0974
-13.7998
-16.3009
-18.6038
-20.7108
-22.6184
-24.3125
-25.7653
-26.9357
-27.7717
-28.2162
-28.2146
-28.2146
-28.2146
-28.2146
-28.2146
-28.2146
-28.2146
-28.2146
-28.2146
-28.2146
-28.2146
-28.2146
-28.2146
-28.2146
-28.2146
-28.2146
-28.2146
-28.2146
-28.2146
-28.2146
