98.4105
119.726
143.093
167.513
191.743
214.394
234.058
249.435
259.47
263.454
261.097
252.561
238.439
219.693
197.558
173.421
148.691
124.671
102.459
82.8664
66.3813
53.164
43.0783
35.7496
30.6409
27.1369
24.6252
22.5649
20.5383
18.2788
15.6772
12.7661
9.68835
6.65577
3.90298
1.64464
0.0403943
-0.828374
-0.968262
-0.47001
0.50698
1.7586
3.06451
4.21682
5.04526
5.43564
5.33981
4.77646
3.82333
2.60258
1.26169
-0.0474814
-1.18863
-2.05767
-2.59421
-2.78675
-2.67129
-2.32373
-1.84739
-1.35734
-0.963884
-0.757249
-0.79563
-1.09808
-1.64299
-2.37224
-3.20006
-4.02529
-4.74512
-5.26837
-5.52654
-5.48126
-5.12736
-4.49156
-3.62713
-2.60581
-1.50809
-0.413561
0.60768
1.50126
2.23207
2.78492
3.16262
3.38214
3.46967
3.45535
3.36854
3.23406
3.06993
2.88651
2.68706
2.46926
2.22733
1.95426
1.64372
1.29152
0.89625
0.459319
-0.0155798
-0.523396
-1.05876
-1.61695
-2.1946
-2.78994
-3.4027
-4.03344
-4.68265
-5.34961
-6.03127
-6.72117
-7.40875
-8.07901
-8.71262
-9.28668
-9.77608
-10.1553
-10.4008
-10.4931
-10.4194
-10.175
-9.76448
-9.20132
-8.50706
-7.70896
-6.83714
-5.9211
-4.98631
-4.05107
-3.12416
-2.20332
-1.27495
-0.314951
0.7092
1.83502
3.10042
4.53804
6.16911
7.99718
10.0026
12.1383
14.3274
16.4626
18.4084
20.0052
21.0757
21.4331
20.8925
19.2829
16.4611
12.3266
6.83489
0.00907777
-8.05298
-17.1769
-27.1166
-37.5663
-48.1784
-58.5853
-68.4226
-77.3481
-85.0526
-91.2577
-95.6962
-98.0754
-98.0278
-95.0567
-88.4925
-77.4761
-60.9872
-37.9295
-7.27745
31.7238
79.3268
135.053
197.508
264.285
331.995
396.435
452.916
496.698
523.507
530.06
514.52
476.82
418.796
344.104
257.918
166.438
76.2776
-6.20983
-75.5686
-127.773
-160.589
-173.722
-168.748
-148.834
-118.304
-82.0943
-45.181
-12.0443
13.7715
29.9548
35.5571
30.956
17.6682
-1.95215
-25.0825
-48.819
-70.5323
-88.1532
-100.359
-106.646
-107.295
-103.24
-95.8663
-86.7747
-77.5395
-69.4972
-63.5851
-60.2502
-59.4308
-60.6079
-62.9132
-65.2748
-66.5773
-65.8161
-62.2244
-55.3593
-45.1394
-31.8326
-16.0001
1.59328
20.0861
38.6312
56.4934
73.1249
88.2069
101.659
113.613
124.365
134.306
143.847
153.354
163.086
173.162
183.547
194.063
204.412
214.225
223.1
230.655
236.564
240.586
242.579
242.498
240.385
236.348
230.537
223.118
214.258
204.106
192.795
180.443
167.168
153.098
138.386
123.226
107.846
92.5137
77.514
63.134
49.6373
37.241
26.0975
16.2836
7.79895
0.574516
-5.51082
-10.6086
-14.8774
-18.4607
-21.4701
-23.9752
-26.0011
-27.5338
-28.5315
-28.94
-28.7102
-27.8138
-26.2565
-24.0859
-21.3933
-18.3097
-14.9961
-11.6299
-8.3892
-5.43617
-2.90333
-0.882704
0.579946
1.48558
1.87728
1.83135
1.44561
0.826489
0.0767008
-0.714991
-1.48077
-2.17697
-2.78348
-3.2999
-3.73953
-4.12229
-4.4679
-4.7904
-5.09479
-5.37596
-5.62009
-5.80764
-5.91752
-5.93128
-5.83665
-5.62991
-5.31655
-4.9106
-4.4326
-3.9069
-3.35856
-2.8106
-2.28178
-1.78523
-1.32808
-0.911928
-0.534053
-0.189106
0.129124
0.426104
0.705407
0.968161
1.21314
1.43738
1.63718
1.80907
1.95063
2.06081
2.13965
2.18741
2.20336
2.18459
2.12501
2.01528
1.84347
1.59687
1.26458
0.840444
0.325988
-0.267286
-0.91674
-1.58884
-2.24093
-2.82434
-3.28846
-3.58514
-3.67284
-3.51958
-3.10443
-2.41697
-1.45469
-0.218839
1.29068
3.08027
5.16636
7.57677
10.3492
13.5267
17.1498
21.2482
25.8307
30.8779
36.3364
42.1185
48.1053
54.1553
60.1156
65.836
71.1817
76.045
80.3518
84.0633
87.1715
89.6907
91.644
93.05
93.9103
94.2003
93.8666
92.83
90.9962
88.2706
84.577
79.8758
74.1801
67.5645
60.1684
52.1882
43.8632
35.453
27.2116
19.3598
12.0609
5.4032
-0.607371
-6.03974
-11.0138
-15.6577
-20.0479
-24.1358
-27.6704
-30.131
-30.6856
-28.196
-21.2812
-8.45035
11.7012
40.2465
77.6634
123.593
176.665
234.429
293.432
349.445
397.832
434.026
454.058
455.056
435.664
396.289
339.165
268.185
188.542
106.202
27.2867
-42.5653
-98.7738
-138.263
-159.723
-163.664
-152.261
-129.021
-98.317
-64.8556
-33.1411
-7.00469
10.7541
18.5774
16.1989
4.5405
-14.5175
-38.4549
-64.471
-89.8388
-112.212
-129.854
-141.766
-147.717
-148.174
-144.157
-137.047
-128.37
-119.583
-111.9
-106.166
-102.786
-101.721
-102.541
-104.521
-106.762
-108.329
-108.375
-106.246
-101.556
-94.2199
-84.4495
-72.715
-59.6804
-46.12
-32.8279
-20.5288
-9.80025
-1.01084
5.71808
10.5252
13.7951
16.1168
18.2206
20.8964
24.9035
30.8792
39.2581
50.2095
63.6014
78.9955
95.6739
112.696
128.98
143.399
154.879
162.503
165.581
163.716
156.83
145.162
129.244
109.849
87.9187
64.4879
40.6005
17.2336
-4.76782
-24.7394
-42.2257
-56.9879
-68.9901
-78.3691
-85.3905
-90.3978
-93.7591
-95.82
-96.864
-97.0877
-96.5902
-95.3786
-93.3868
-90.5051
-86.6162
-81.6329
-75.5312
-68.3757
-60.3327
-51.669
-42.7365
-33.9442
-25.7209
-18.4729
-12.5428
-8.17366
-5.48284
-4.4501
-4.91966
-6.61698
-9.17766
-12.1851
-15.2122
-17.8629
-19.8075
-20.8101
-20.7434
-19.5913
-17.4393
-14.4532
-10.8515
-6.8716
-2.73589
1.38104
5.37956
9.25456
13.105
17.1319
21.6241
26.9322
33.4321
41.4802
51.3658
63.2641
77.1947
92.993
110.296
128.549
147.027
164.881
181.195
195.05
205.605
212.16
214.222
211.556
204.21
192.529
177.134
158.884
138.812
118.044
97.7156
78.874
62.4
48.9384
38.8536
32.2122
28.7932
28.1251
29.5451
32.2718
35.4853
38.405
40.3573
40.8291
39.5011
36.2607
31.1944
24.5631
16.7631
8.27826
-0.370327
-8.67365
-16.1771
-22.5129
-27.421
-30.7568
-32.4878
-32.6801
-31.4783
-29.0816
-25.7195
-21.6301
-17.043
-12.1687
-7.19377
-2.28203
2.41984
6.7742
10.6437
13.8842
16.3404
17.8467
18.2319
17.3295
14.9915
11.1049
5.60946
-1.48528
-10.0856
-20.0035
-30.9523
-42.5512
-54.3374
-65.7892
-76.3575
-85.5048
-92.7483
-97.7039
-100.125
-99.9343
-97.2403
-92.3409
-85.706
-77.9405
-69.7251
-61.7357
-54.5437
-48.5022
-43.6289
-39.5014
-35.1875
-29.2359
-19.753
-4.58172
18.414
50.9813
94.0724
147.466
209.493
276.944
345.199
408.601
461.039
496.672
510.687
499.975
463.624
403.144
322.378
227.125
124.504
22.1696
-72.5304
-153.336
-215.697
-257.162
-277.502
-278.566
-263.898
-238.19
-206.644
-174.332
-145.621
-123.756
-110.6
-106.583
-110.822
-121.398
-135.723
-150.956
-164.406
-173.869
-177.87
-175.782
-167.829
-154.972
-138.719
-120.877
-103.293
-87.6112
-75.0869
-66.4569
-61.895
-61.0403
-63.09
-66.9387
-71.3436
-75.0901
-77.1402
-76.7451
-73.5137
-67.4313
-58.8329
-48.3369
-36.7521
-24.97
-13.856
-4.15274
3.59736
9.10207
12.3401
13.5531
13.2112
11.9581
10.5421
9.7393
10.2777
12.7678
17.6459
25.1346
35.2231
47.6682
62.0147
77.633
93.7696
109.606
124.319
137.14
147.408
154.609
158.403
158.644
155.374
148.814
139.342
127.457
113.75
98.858
83.4301
68.0882
53.3958
39.831
27.767
17.4597
9.04377
2.53595
-2.15384
-5.2054
-6.86625
-7.42652
-7.19268
-6.46225
-5.50133
-4.52677
-3.69415
-3.09237
-2.74496
-2.61737
-2.62926
-2.66991
-2.61518
-2.34383
-1.75179
-0.763121
0.663043
2.52945
4.80115
7.40852
10.2519
13.2074
16.1327
18.8745
21.276
23.1858
24.4684
25.015
24.7553
23.6665
21.7804
19.1854
16.0227
12.477
8.76132
5.09729
1.69433
-1.27106
-3.67241
-5.44484
-6.58952
-7.17045
-7.3042
-7.14423
-6.86189
-6.62698
-6.59018
-6.86981
-7.54424
-8.65058
-10.1894
-12.1341
-14.4432
-17.0722
-19.9847
-23.1581
-26.5854
-30.2709
-34.2225
-38.441
-42.909
-47.5817
-52.3815
-57.1967
-61.8864
-66.289
-70.2357
-73.5644
-76.1349
-77.8418
-78.6239
-78.4695
-77.4166
-75.5477
-72.9815
-69.86
-66.3354
-62.5556
-58.6521
-54.7294
-50.859
-47.0767
-43.3846
-39.756
-36.1447
-32.4936
-28.7455
-24.8498
-20.7687
-16.4782
-11.9671
-7.23429
-2.28485
2.87196
8.22302
13.7487
19.4178
25.1815
30.9661
36.6689
42.1561
47.2653
51.8126
55.6038
58.4496
60.1818
60.6698
59.8351
57.6619
54.2024
49.5764
43.9645
37.5961
30.7323
23.6471
16.6068
9.85038
3.57361
-2.08396
-7.04622
-11.3024
-14.903
-17.949
-20.5737
-22.9155
-25.0796
-27.087
-28.8112
-29.9052
-29.7309
-27.3048
-21.2848
-10.0223
8.2972
35.4194
72.7006
120.741
179.032
245.689
317.347
389.276
455.726
510.502
547.675
562.356
551.402
513.946
451.661
368.703
271.34
167.294
64.9038
-27.7983
-103.964
-158.652
-189.298
-195.898
-180.873
-148.661
-105.091
-56.6332
-9.62906
30.4154
59.3786
74.8665
76.3234
64.9145
43.2149
14.76
-16.4765
-46.6056
-72.2837
-91.0605
-101.583
-103.643
-98.0819
-86.5715
-71.3181
-54.7274
-39.0789
-26.2473
-17.5021
-13.4016
-13.786
-17.8611
-24.3539
-31.7138
-38.3304
-42.7399
-43.7946
-40.7798
-33.4663
-22.0995
-7.332
9.88818
28.4548
47.2474
65.2644
81.7287
96.156
108.381
118.537
127.007
134.339
141.148
148.026
155.451
163.722
172.93
182.944
193.434
203.92
213.825
222.544
229.504
234.22
236.33
235.622
232.035
225.651
216.681
205.434
192.292
177.683
162.056
145.86
129.527
113.453
97.9921
83.4382
70.0219
57.9027
47.1684
37.8379
29.8686
23.168
17.6087
13.0436
9.32194
6.30199
3.86118
1.90134
0.349482
-0.845431
-1.71903
-2.2999
-2.61842
-2.71433
-2.64204
-2.4725
-2.29149
-2.19433
-2.27797
-2.63156
-3.32689
-4.41013
-5.89614
-7.766
-9.96819
-12.4232
-15.0311
-17.6805
-20.2595
-22.6649
-24.8116
-26.639
-28.1155
-29.2398
-30.0391
-30.5653
-30.8887
-31.0902
-31.2527
-31.453
-31.7543
-32.2003
-32.8117
-33.5849
-34.4933
-35.4909
-36.5176
-37.5052
-38.3843
-39.09
-39.5679
-39.7769
-39.6913
-39.3014
-38.6113
-37.6363
-36.399
-34.9255
-33.2409
-31.3672
-29.3208
-27.1133
-24.7531
-22.2481
-19.6097
-16.8559
-14.0133
-11.1177
-8.21262
-5.34494
-2.56047
0.10176
2.61438
4.96497
7.15702
9.20826
11.1465
13.0037
14.8094
16.5839
18.3342
20.0508
21.7082
23.2672
24.68
25.8963
26.87
27.5658
27.9647
28.0696
27.9086
27.5383
27.0455
26.5468
26.1864
26.1296
26.5539
27.6343
29.5269
32.3498
36.1645
40.9604
46.6437
53.0344
59.871
66.824
73.5171
79.5534
84.5445
88.1398
90.0514
90.075
88.102
84.1247
78.233
70.6047
61.4897
51.1914
40.0448
28.3957
16.5798
4.90367
-6.37046
-17.0376
-26.9581
-36.0615
-44.3442
-51.8606
-58.7048
-64.981
-70.76
-76.0206
-80.5773
-84.0003
-85.5429
-84.094
-78.1833
-66.0648
-45.8945
-16.006
24.7382
76.5681
138.467
207.952
281.04
352.455
416.068
465.544
495.113
500.35
478.844
430.662
358.497
267.499
164.778
58.6543
-42.259
-129.999
-198.119
-242.353
-261.006
-255.029
-227.775
-184.494
-131.629
-76.0147
-24.0922
18.7826
48.8444
64.1976
64.8516
52.526
30.2718
1.96786
-28.2316
-56.4275
-79.42
-95.0204
-102.204
-101.101
-92.846
-79.312
-62.7861
-45.6243
-29.9363
-17.3375
-8.79105
-4.55162
-4.20712
-6.80209
-11.0185
-15.3844
-18.4815
-19.1247
-16.4937
-10.2068
-0.331299
12.6625
27.9927
44.6865
61.7134
78.1125
93.0999
106.145
117.01
125.751
132.683
138.321
143.293
148.257
153.813
160.428
168.388
177.763
188.406
199.973
211.959
223.748
234.672
244.065
251.311
255.887
257.395
255.573
250.311
241.643
229.742
214.9
197.518
178.082
157.141
135.292
113.155
91.3516
70.4849
51.1102
33.7112
18.6733
6.261
-3.40017
-10.3326
-14.7058
-16.823
-17.0977
-16.0191
-14.1116
-11.8907
-9.82096
-8.27832
-7.52249
-7.68033
-8.74234
-10.5721
-12.9276
-15.4912
-17.9068
-19.8177
-20.9045
-20.9174
-19.7005
-17.2072
-13.5049
-8.76881
-3.26646
2.66583
8.65239
14.3106
19.2838
23.2708
26.0506
27.4993
27.5967
26.4248
24.1551
21.0289
17.3315
13.3635
9.41314
5.73119
2.51235
-0.115918
-2.09649
-3.43784
-4.20298
-4.49397
-4.43459
-4.15325
-3.76854
-3.37864
-3.05543
-2.84327
-2.76183
-2.81166
-2.98123
-3.25404
-3.6145
-4.05193
-4.56231
-5.14793
-5.81536
-6.57275
-7.42693
-8.38134
-9.43514
-10.5836
-11.82
-13.1374
-14.5319
-16.0033
-17.5564
-19.1991
-20.9395
-22.7816
-24.7206
-26.7376
-28.7964
-30.8419
-32.8004
-34.5836
-36.094
-37.2324
-37.9057
-38.035
-37.5616
-36.4523
-34.7001
-32.3236
-29.361
-25.8632
-21.8833
-17.4676
-12.6483
-7.44119
-1.84859
4.13097
10.4889
17.1905
24.1597
31.2698
38.3404
45.1446
51.4249
56.9167
61.376
64.6071
66.4867
66.9808
66.1509
64.1501
61.2082
57.6087
53.6593
49.6616
45.8815
42.5253
39.7225
37.5175
35.8694
34.6604
33.7094
32.792
31.6661
30.1036
27.9317
25.0856
21.6734
18.0498
14.8895
13.2439
14.5575
20.617
33.4135
54.9046
86.689
129.629
183.477
246.586
315.771
386.39
452.663
508.224
546.83
563.158
553.549
516.599
453.49
368.014
266.255
155.98
45.8105
-55.7151
-141.069
-204.527
-242.732
-254.967
-243.103
-211.255
-165.199
-111.624
-57.3342
-8.49293
30.0036
54.9537
65.0448
60.8111
44.3787
19.0487
-11.2165
-42.3325
-70.5896
-93.0506
-107.811
-114.106
-112.263
-103.529
-89.8001
-73.3035
-56.2754
-40.6723
-27.9527
-18.9455
-13.8145
-12.1118
-12.9043
-14.9501
-16.8961
-17.4709
-15.648
-10.7619
-2.56671
8.76485
22.6959
38.4216
54.9914
71.4383
86.8997
100.713
112.478
122.084
129.691
135.686
140.609
145.07
149.662
154.879
161.055
168.327
176.618
185.652
194.98
204.032
212.175
218.767
223.223
225.052
223.903
219.582
212.062
201.479
188.116
172.376
154.755
135.804
116.097
96.2014
76.6462
57.9057
40.3826
24.3991
10.1937
-2.07972
-12.3476
-20.6123
-26.9442
-31.4737
-34.3806
-35.8831
-36.2249
-35.6612
-34.4453
-32.8147
-30.9799
-29.1153
-27.3529
-25.7808
-24.4443
-23.3506
-22.4764
-21.776
-21.1908
-20.6577
-20.1167
-19.5161
-18.816
-17.9899
-17.0245
-15.9176
-14.6754
-13.3098
-11.8349
-10.264
-8.6075
-6.87119
-5.05591
-3.15792
-1.1704
0.914183
3.10128
5.39115
7.77606
10.2381
12.748
15.2654
17.7403
20.1164
22.3346
24.3372
26.0719
27.4944
28.5693
29.2699
29.5766
29.475
28.9545
28.0088
26.6372
24.8494
22.67
20.144
17.3411
14.3566
11.3093
8.3347
5.57369
3.15845
1.19655
-0.244174
-1.14754
-1.55566
-1.56868
-1.33711
-1.04731
-0.90163
-1.09568
-1.79571
-3.1188
-5.11872
-7.77891
-11.0136
-14.6769
-18.5781
-22.5019
-26.2306
-29.5661
-32.3484
-34.4701
-35.8833
-36.6004
-36.6867
-36.247
-35.4075
-34.2944
-33.0136
-31.6328
-30.1698
-28.5884
-26.8025
-24.6897
-22.1104
-18.9317
-15.0509
-10.4174
-5.0475
0.968598
7.46836
14.2277
20.9791
27.4342
33.3092
38.3497
42.3518
45.1785
46.7684
47.1376
46.3747
44.6289
42.0938
38.9889
35.5396
31.9592
28.4331
25.1071
22.0802
19.4021
17.0743
15.0538
13.2587
11.5741
9.85834
7.95133
5.68686
2.91339
-0.472609
-4.47718
-8.94263
-13.4694
-17.3381
-19.4534
-18.3347
-12.1844
0.946627
22.8911
55.0137
97.8222
150.612
211.22
275.971
339.854
396.946
441.05
466.456
468.722
445.356
396.274
323.965
233.33
131.185
25.5301
-75.3541
-163.833
-233.758
-281.102
-304.325
-304.424
-284.67
-250.1
-206.816
-161.21
-119.206
-85.6118
-63.6621
-54.7803
-58.586
-73.1187
-95.2355
-121.118
-146.819
-168.771
-184.206
-191.435
-189.967
-180.468
-164.575
-144.605
-123.198
-102.958
-86.1128
-74.2572
-68.1924
-67.8746
-72.4751
-80.5322
-90.1719
-99.3648
-106.185
-109.038
-106.838
-99.109
-86.0052
-68.2606
-47.0677
-23.9119
-0.381017
22.0242
42.0581
58.8561
72.0086
81.575
88.0424
92.2342
95.1854
97.9991
101.703
107.125
114.796
124.896
137.244
151.332
166.389
181.478
195.598
207.788
217.221
223.267
225.535
223.887
218.42
209.436
197.386
182.824
166.349
148.56
130.023
111.245
92.6643
74.647
57.4903
41.4303
26.6488
13.28
1.41409
-8.90085
-17.6581
-24.8923
-30.6782
-35.1286
-38.3895
-40.6334
-42.0514
-42.8433
-43.2074
-43.3303
-43.3775
-43.4845
-43.7509
-44.2359
-44.957
-45.8921
-46.9847
-48.1518
-49.2947
-50.3108
-51.1058
-51.6044
-51.7589
-51.5545
-51.0101
-50.1755
-49.1246
-47.9455
-46.7294
-45.559
-44.4974
-43.58
-42.8085
-42.1493
-41.5342
-40.8664
-40.0281
-38.8917
-37.3323
-35.242
-32.5429
-29.1994
-25.2261
-20.6932
-15.7246
-10.4919
-5.20273
-0.0844338
4.63414
8.74182
12.0626
14.4696
15.894
16.3277
15.8203
14.4703
12.4127
9.80475
6.81227
3.59895
0.319496
-2.88246
-5.87275
-8.52277
-10.7056
-12.2945
-13.1654
-13.2049
-12.3233
-10.4715
-7.6577
-3.96283
0.451996
5.34693
10.4164
15.3131
19.6821
23.1994
25.6118
26.7722
26.6648
25.4168
23.2947
20.6836
18.0529
15.9105
14.7507
15.0024
16.9811
20.8537
26.6165
34.0919
42.9432
52.7051
62.8283
72.7308
81.8523
89.704
95.9087
100.228
102.574
103.004
101.698
98.932
95.0331
90.3393
85.1575
79.7282
74.1989
68.6101
62.8941
56.8873
50.356
43.0316
34.6538
25.0145
14.0007
1.62856
-11.9319
-26.3435
-41.0971
-55.5111
-68.731
-79.7264
-87.2889
-90.0405
-86.4698
-75.0167
-54.2213
-22.9436
19.3621
72.3519
134.536
203.126
274.044
342.144
401.634
446.676
472.088
474.038
450.63
402.286
331.844
244.35
146.572
46.2805
-48.599
-130.847
-194.718
-236.521
-254.927
-251.003
-227.949
-190.61
-144.819
-96.678
-51.8476
-14.9562
10.8283
24.0121
24.7726
14.7547
-3.28933
-25.958
-49.69
-71.2216
-87.9579
-98.2189
-101.344
-97.6527
-88.291
-74.9798
-59.7249
-44.5181
-31.0746
-20.6348
-13.8488
-10.7518
-10.8202
-13.0973
-16.3602
-19.3064
-20.7307
-19.6732
-15.5206
-8.0541
2.55889
15.8208
30.9978
47.2348
63.6759
79.572
94.3655
107.739
119.628
130.195
139.78
148.818
157.762
167.003
176.802
187.251
198.255
209.542
220.704
231.24
240.62
248.343
253.986
257.241
257.927
255.995
251.508
244.614
235.517
224.443
211.621
197.269
181.594
164.798
147.096
128.732
109.998
91.2342
72.8357
55.2329
38.8688
24.1661
11.4897
1.11221
-6.81554
-12.2815
-15.4162
-16.4813
-15.8442
-13.9418
-11.2385
-8.18185
-5.16369
-2.48898
-0.357193
1.14273
2.02414
2.38293
2.36988
2.15914
1.91747
1.77816
1.82292
2.07369
2.49469
3.00374
3.4904
3.83791
3.94517
3.74547
3.21917
2.39856
1.36427
0.234038
-0.854423
-1.76364
-2.37665
-2.6143
-2.44708
-1.90017
-1.05093
-0.0196967
1.0449
1.98393
2.64723
2.91105
2.69232
1.95788
0.727816
-0.927349
-2.89495
-5.03281
-7.18447
-9.19529
-10.9275
-12.2725
-13.1598
-13.5613
-13.491
-13.0011
-12.1742
-11.1136
-9.93272
-8.74396
-7.64954
-6.73364
-6.05721
-5.65554
-5.53836
-5.69233
-6.08536
-6.67204
-7.39956
-8.21349
-9.06271
-9.90323
-10.7005
-11.4302
-12.0775
-12.6354
-13.1017
-13.4762
-13.7573
-13.9399
-14.0131
-13.9602
-13.7579
-13.3781
-12.7882
-11.9528
-10.8339
-9.39094
-7.58197
-5.36416
-2.6968
0.453859
4.10741
8.26018
12.8753
17.8731
23.125
28.4507
33.6226
38.3768
42.4309
45.5072
47.3592
47.7987
46.7181
44.1076
40.0621
34.7778
28.5375
21.6867
14.6027
7.65976
1.19554
-4.51922
-9.30327
-13.0783
-15.872
-17.8105
-19.1002
-19.9999
-20.782
-21.6829
-22.8414
-24.2278
-25.5668
-26.264
-25.3538
-21.4868
-12.9835
2.02929
25.388
58.5801
102.382
156.506
219.319
287.72
357.217
422.235
476.654
514.494
530.686
521.789
486.556
426.25
344.652
247.745
143.106
39.0962
-56.058
-135.165
-192.834
-226.005
-234.201
-219.454
-185.949
-139.433
-86.4776
-33.6905
13.022
49.0552
71.5081
79.3517
73.3632
55.8525
30.2318
0.49501
-29.3235
-55.6411
-75.7163
-87.8968
-91.7093
-87.7959
-77.7184
-63.6698
-48.1343
-33.5446
-21.9784
-14.9258
-13.1504
-16.6519
-24.7253
-36.1003
-49.1383
-62.0573
-73.1569
-81.0159
-84.6429
-83.5638
-77.8439
-68.0431
-55.1169
-40.2764
-24.8274
-10.0087
3.15064
13.9384
22.02
27.4473
30.6187
32.1968
32.9986
33.8722
35.5784
38.6905
43.5246
50.1074
58.1821
67.2502
76.6396
85.5907
93.3455
99.2317
102.729
103.513
101.474
96.7114
89.5029
80.2657
69.5044
57.7596
45.562
33.3945
21.6664
10.6993
0.723321
-8.11766
-15.7554
-22.1832
-27.4406
-31.5994
-34.7506
-36.9944
-38.4317
-39.1587
-39.2616
-38.8147
-37.8785
-36.499
-34.7081
-32.5258
-29.9628
-27.0243
-23.7153
-20.0456
-16.0355
-11.7193
-7.14854
-2.39237
2.46466
7.32669
12.0929
16.6649
20.9548
24.8923
28.4301
31.5472
34.2486
36.5628
38.5354
40.2221
41.6794
42.9559
44.0851
45.0803
45.932
46.6093
47.0636
47.2357
47.0634
46.4902
45.4738
43.9921
42.0481
39.6703
36.9125
33.8486
30.5668
27.1613
23.7232
20.3321
17.0472
13.9014
10.8956
7.99607
5.13332
2.20326
-0.929124
-4.42337
-8.45395
-13.1973
-18.8155
-25.4376
-33.1401
-41.9289
-51.7253
-62.3586
-73.5677
-85.012
-96.2924
-106.98
-116.648
-124.909
-131.446
-136.038
-138.572
-139.055
-137.596
-134.396
-129.711
-123.824
-117.011
-109.512
-101.511
-93.126
-84.4153
-75.3898
-66.0366
-56.3434
-46.3233
-36.0331
-25.5827
-15.1342
-4.89115
4.92055
14.0768
22.3803
29.6825
35.899
41.0158
45.0846
48.2095
50.5254
52.1733
53.2753
53.9161
54.1311
53.9064
53.1882
51.9008
49.9701
47.3475
44.0296
40.0718
35.5914
30.7608
25.7918
20.9119
16.3389
12.2543
8.78286
5.97975
3.83093
2.26941
1.21061
0.608257
0.529465
1.24272
3.30636
7.63779
15.538
28.6439
48.7871
77.7493
116.927
166.948
227.291
296.011
369.613
443.176
510.711
565.759
602.156
614.838
600.593
558.617
490.781
401.563
297.643
187.197
79.0066
-18.5174
-98.2546
-155.124
-186.568
-192.726
-176.279
-142.014
-96.1696
-45.659
2.7225
43.0132
70.6433
82.7847
78.4726
58.5063
25.1689
-18.1834
-67.5972
-119
-168.626
-213.349
-250.896
-279.936
-300.055
-311.637
-315.677
-313.564
-306.856
-297.085
-285.598
-273.451
-261.361
-249.704
-238.555
-227.756
-217.001
-205.916
-194.133
-181.354
-167.385
-152.156
-135.722
-118.249
-99.9917
-81.2608
-62.3947
-43.7297
-25.5732
-8.18339
8.24619
23.5951
37.8183
50.942
63.0538
74.2874
84.8036
94.7684
104.33
113.598
122.62
131.372
139.745
147.544
154.496
160.263
164.463
166.702
166.601
163.837
158.173
149.489
137.808
123.309
106.329
87.3497
66.9782
45.9066
24.8688
4.59009
-14.2627
-31.126
-45.5753
-57.3472
-66.3475
-72.6434
-76.4427
-78.0626
-77.8918
-76.3506
-73.8537
-70.7785
-67.4419
-64.0871
-60.8795
-57.9112
-55.2119
-52.7636
-50.5161
-48.4028
-46.3532
-44.3016
-42.193
-39.9852
-37.6481
-35.1622
-32.516
-29.7049
-26.7299
-23.5989
-20.3282
-16.9451
-13.4901
-10.0197
-6.60582
-3.33541
-0.306408
2.37767
4.61505
6.31403
7.40154
7.83093
7.58809
6.6953
5.21217
3.23365
0.885099
-1.68514
-4.31508
-6.83966
-9.10175
-10.9629
-12.3129
-13.0775
-13.2239
-12.7626
-11.7469
-10.2677
-8.44651
-6.42436
-4.35032
-2.36858
-0.606472
0.835732
1.89216
2.5351
2.77495
2.65634
2.25112
1.64913
0.947766
0.241791
-0.385612
-0.869461
-1.16677
-1.25729
-1.1416
-0.836961
-0.372025
0.218956
0.901552
1.64573
2.42925
3.23986
4.07617
4.94746
5.87234
6.87656
7.98986
9.24229
10.6601
12.2619
14.0553
16.0345
18.18
20.4593
22.8301
25.2447
27.6547
30.0161
32.2938
34.4633
36.5115
38.4341
40.2315
41.9029
43.4408
44.8254
46.0216
46.9789
47.6338
47.9158
47.7554
47.0934
45.8895
44.1293
41.829
39.0357
35.8241
32.29
28.5406
24.683
20.8128
17.0028
13.2954
9.69968
6.19763
2.76327
-0.600483
-3.80366
-6.59034
-8.44608
-8.50847
-5.50678
2.23675
16.7122
40.013
74.0144
119.967
178.066
247.078
324.115
404.619
482.626
551.281
603.576
633.204
635.41
607.716
550.388
466.58
362.117
244.922
124.188
9.37387
-90.8261
-169.408
-221.772
-246.125
-243.552
-217.737
-174.41
-120.574
-63.6502
-10.6162
32.7301
62.3174
76.1014
74.1028
58.1994
31.719
-1.10172
-35.7126
-67.8251
-93.8967
-111.476
-119.38
-117.695
-107.63
-91.238
-71.0689
-49.799
-29.8807
-13.2594
-1.18371
5.87893
8.21903
6.77047
2.92736
-1.67774
-5.40269
-6.80283
-4.79302
1.25088
11.4572
25.4881
42.6234
61.8826
82.1668
102.4
121.653
139.233
154.734
168.046
179.322
188.91
197.272
204.892
212.192
219.461
226.816
234.18
241.304
247.792
253.162
256.902
258.532
257.654
253.99
247.401
237.895
225.606
210.783
193.751
174.894
154.629
133.388
111.614
89.7537
68.2569
47.574
28.1469
10.3958
-5.30138
-18.6329
-29.3791
-37.435
-42.8256
-45.711
-46.379
-45.2247
-42.7181
-39.365
-35.6627
-32.0583
-28.9121
-26.4723
-24.8621
-24.0805
-24.0168
-24.4758
-25.2096
-25.9537
-26.4602
-26.5277
-26.0213
-24.8833
-23.1341
-20.8627
-18.2098
-15.3461
-12.4491
-9.68097
-7.17002
-4.99884
-3.199
-1.75289
-0.601805
0.341306
1.1765
2.00113
2.89584
3.91392
5.0753
6.36538
7.73869
9.12644
10.4466
11.6154
12.5576
13.2161
13.5579
13.5763
13.291
12.7433
11.99
11.0958
10.125
9.13439
8.16767
7.25236
6.39894
5.60249
4.84606
4.10533
3.35363
2.56667
1.7264
0.823464
-0.14176
-1.15964
-2.21291
-3.27912
-4.33346
-5.35152
-6.3117
-7.19695
-7.99579
-8.70257
-9.31708
-9.84352
-10.2892
-10.6629
-10.9731
-11.2257
-11.423
-11.561
-11.6284
-11.6052
-11.462
-11.1593
-10.6475
-9.86754
-8.75164
-7.22512
-5.20888
-2.62315
0.607778
4.54953
9.25079
14.736
20.998
27.992
35.631
43.7833
52.2744
60.8901
69.3843
77.488
84.9212
91.4045
96.6725
100.486
102.646
103.004
101.477
98.0596
92.8284
85.9507
77.6814
68.3547
58.3672
48.1542
38.1593
28.8019
20.4444
13.3629
7.72614
3.58246
0.858787
-0.629402
-1.1563
-1.05208
-0.656411
-0.257583
-0.0161339
0.125788
0.542418
2.01451
5.78695
13.5623
27.3983
49.4884
81.824
125.77
181.613
248.17
322.549
400.141
474.895
539.864
587.979
612.939
610.087
577.146
514.672
426.165
317.804
197.825
75.6304
-39.2451
-138.188
-214.431
-263.732
-284.74
-279.002
-250.624
-205.665
-151.319
-95.0352
-43.6591
-2.71114
24.1208
35.2317
31.0807
13.9295
-12.6125
-44.1612
-76.1705
-104.505
-125.905
-138.303
-140.951
-134.383
-120.213
-100.818
-78.9581
-57.3842
-38.4808
-23.9934
-14.8602
-11.1632
-12.1931
-16.6095
-22.6677
-28.4774
-32.2585
-32.5607
-28.4236
-19.4609
-5.86593
11.6575
32.0222
53.9225
76.0124
97.0725
116.145
132.623
146.285
157.271
166.025
173.188
179.486
185.617
192.15
199.457
207.677
216.717
226.282
235.928
245.129
253.343
260.066
264.878
267.462
267.611
265.217
260.258
252.772
242.848
230.608
216.211
199.856
181.792
162.326
141.832
120.747
99.5598
78.7921
58.9648
40.5637
24.0027
9.58931
-2.49952
-12.231
-19.7152
-25.1903
-28.9948
-31.5303
-33.2206
-34.4694
-35.6235
-36.9442
-38.5902
-40.6116
-42.958
-45.4947
-48.0283
-50.3353
-52.1922
-53.4027
-53.8193
-53.3578
-52.0035
-49.8092
-46.8858
-43.3873
-39.493
-35.388
-31.2462
-27.2158
-23.4095
-19.9002
-16.722
-13.8755
-11.3356
-9.06246
-7.01063
-5.13825
-3.41302
-1.81539
-0.338709
1.01331
2.23076
3.3026
4.2213
4.98644
5.60657
6.09904
6.48818
6.80196
7.06814
7.31037
7.54493
7.77878
8.00886
8.22285
8.40103
8.51894
8.55032
8.47001
8.25635
7.89301
7.37006
6.68431
5.83916
4.844
3.71335
2.4659
1.12336
-0.290671
-1.75192
-3.2367
-4.72305
-6.19167
-7.62649
-9.01467
-10.3458
-11.6105
-12.7977
-13.8917
-14.868
-15.6892
-16.3008
-16.6279
-16.5736
-16.0208
-14.8375
-12.8865
-10.0393
-6.1926
-1.28679
4.67718
11.624
19.3958
27.7517
36.3753
44.891
52.8879
59.95
65.6892
69.7786
71.9823
72.1785
70.3724
66.6984
61.4091
54.8549
47.4524
39.6493
31.8855
24.5574
17.9871
12.4009
7.9173
4.54652
2.19962
0.705852
-0.16481
-0.677132
-1.10709
-1.7215
-2.76126
-4.42683
-6.86209
-10.1315
-14.1845
-18.8046
-23.5422
-27.6421
-29.9805
-29.0397
-22.9479
-9.61271
13.0396
46.7265
92.4089
149.891
217.503
291.937
368.325
440.567
501.905
545.693
566.235
559.595
524.232
461.366
374.994
271.558
159.288
47.3088
-55.3689
-140.84
-203.156
-238.914
-247.542
-231.225
-194.516
-143.693
-85.947
-28.5108
22.1501
61.0044
84.8993
92.7492
85.4639
65.647
37.1207
4.34915
-28.1598
-56.4008
-77.3015
-88.9985
-90.9377
-83.8049
-69.3122
-49.8806
-28.2677
-7.19268
10.9962
24.5739
32.5895
34.9057
32.1359
25.495
16.5927
7.1996
-0.981958
-6.51553
-8.3754
-6.02676
0.562007
10.9695
24.4216
39.9242
56.4094
72.874
88.4944
102.704
115.228
126.071
135.471
143.815
151.555
159.108
166.777
174.699
182.815
190.878
198.488
205.147
210.328
213.543
214.401
212.652
208.203
201.119
191.597
179.934
166.482
151.611
135.676
118.999
101.858
84.4932
67.1219
49.9528
33.2047
17.1178
1.95965
-11.9795
-24.3993
-35.0103
-43.5587
-49.8535
-53.791
-55.373
-54.7167
-52.0531
-47.7153
-42.1154
-35.7135
-28.982
-22.3682
-16.2597
-10.9563
-6.65071
-3.4212
-1.23477
0.0384803
0.602568
0.707432
0.618774
0.589667
0.837073
1.52561
2.75966
4.58363
6.98896
9.92519
13.3124
17.0514
21.0303
25.1255
29.1981
33.088
36.6083
39.5418
41.6452
42.6587
42.3238
40.4068
36.7251
31.1735
23.7462
14.5513
3.81424
-8.12988
-20.8568
-33.8835
-46.7058
-58.8392
-69.8585
-79.4312
-87.3416
-93.5018
-97.9506
-100.838
-102.401
-102.931
-102.735
-102.104
-101.281
-100.44
-99.6738
-98.99
-98.3235
-97.552
-96.5198
-95.0639
-93.0398
-90.3435
-86.9269
-82.8057
-78.0588
-72.8194
-67.26
-61.5728
-55.9484
-50.5553
-45.5227
-40.9282
-36.7915
-33.0749
-29.69
-26.51
-23.385
-20.16
-16.6919
-12.8641
-8.59781
-3.85821
1.34434
6.95778
12.8954
19.0456
25.2826
31.4767
37.5035
43.2505
48.6208
53.5344
57.9266
61.7449
64.946
67.4924
69.3509
70.4934
70.8991
70.559
69.48
67.6904
65.2422
62.2123
58.7005
54.8236
50.7081
46.4792
42.2498
38.1088
34.1119
30.2764
26.5832
22.9884
19.4497
15.9681
12.6473
9.76616
7.85437
7.75586
10.6559
18.0469
31.6106
53.0062
83.575
123.993
173.93
231.782
294.553
357.935
416.616
464.795
496.853
508.077
495.349
457.668
396.434
315.432
220.508
118.975
18.8251
-72.1509
-147.213
-201.391
-231.972
-238.712
-223.746
-191.228
-146.747
-96.6213
-47.1353
-3.8484
28.9708
48.712
54.5666
47.4467
29.7078
4.72417
-23.6166
-51.433
-75.317
-92.6977
-102.066
-103.046
-96.3209
-83.4317
-66.4957
-47.8777
-29.8657
-14.3892
-2.81077
4.19035
6.63644
5.18
0.960013
-4.5886
-9.94368
-13.6946
-14.707
-12.237
-5.98426
3.91415
16.9437
32.3119
49.0698
66.2392
82.9271
98.4155
112.218
124.101
134.071
142.332
149.23
155.183
160.614
165.894
171.3
176.988
182.988
189.208
195.456
201.467
206.928
211.504
214.861
216.682
216.682
214.612
210.273
203.524
194.293
182.591
168.529
152.32
134.297
114.902
94.6742
74.2309
54.2274
35.3155
18.0963
3.07387
-9.38522
-19.0803
-25.9904
-30.2713
-32.2355
-32.3178
-31.0302
-28.9116
-26.4772
-24.1744
-22.3487
-21.2222
-20.8878
-21.3169
-22.3793
-23.8711
-25.5481
-27.1588
-28.4742
-29.3108
-29.546
-29.1238
-28.0524
-26.3947
-24.2549
-21.7615
-19.0515
-16.2561
-13.4895
-10.8423
-8.3788
-6.1373
-4.13375
-2.36651
-0.821761
0.521426
1.68691
2.69849
3.57799
4.34429
5.01292
5.59597
6.10197
6.53587
6.89885
7.18838
7.39845
7.52028
7.54351
7.45795
7.25556
6.93255
6.49118
5.94093
5.29886
4.58884
3.83994
3.08391
2.35209
1.67222
1.06553
0.544443
0.111404
-0.241192
-0.529783
-0.777368
-1.01044
-1.25555
-1.53586
-1.86819
-2.26089
-2.71276
-3.21329
-3.74409
-4.28127
-4.79865
-5.271
-5.67704
-6.00167
-6.23701
-6.38209
-6.44117
-6.4208
-6.32595
-6.15563
-5.89862
-5.52979
-5.00779
-4.27452
-3.25709
-1.87253
-0.035205
2.33324
5.29233
8.87093
13.0567
17.7885
22.9538
28.3913
33.8988
39.2476
44.1987
48.5217
52.0128
54.5106
55.9076
56.1567
55.2729
53.3291
50.4482
46.7912
42.5441
37.9032
33.0616
28.1967
23.4604
18.9709
14.8077
11.0093
7.57372
4.46359
1.61732
-1.03027
-3.51453
-5.79206
-7.67642
-8.76385
-8.36154
-5.43862
1.37458
13.713
33.3105
61.7392
100.074
148.528
206.129
270.509
337.872
403.19
460.634
504.19
528.401
529.107
504.092
453.506
380.016
288.623
186.187
80.6973
-19.5983
-107.099
-175.671
-221.276
-242.331
-239.774
-216.823
-178.483
-130.878
-80.4876
-33.3953
5.35722
32.2476
45.5313
45.2686
33.1348
12.0571
-14.2655
-41.8867
-67.1178
-86.9497
-99.3511
-103.415
-99.3557
-88.3621
-72.3505
-53.649
-34.6619
-17.5602
-4.02984
4.8928
8.88867
8.32734
4.15521
-2.27709
-9.42054
-15.7378
-19.891
-20.8864
-18.1623
-11.6155
-1.57017
11.3025
26.0967
41.8013
57.4268
72.1168
85.2306
96.3902
105.491
112.677
118.29
122.796
126.71
130.516
134.607
139.231
144.477
150.261
156.354
162.407
168.001
172.693
176.055
177.72
177.405
174.926
170.206
163.267
154.222
143.258
130.618
116.589
101.489
85.6553
69.4369
53.1896
37.2675
22.0151
7.75616
-5.21875
-16.6662
-26.4037
-34.3206
-40.3853
-44.6461
-47.2264
-48.312
-48.1345
-46.9501
-45.0176
-42.5781
-39.8375
-36.9555
-34.0402
-31.1494
-28.2979
-25.4681
-22.6242
-19.7261
-16.7418
-13.6573
-10.4822
-7.25132
-4.02196
-0.867793
2.12927
4.88846
7.33897
9.42743
11.1228
12.4186
13.3319
13.8996
14.1732
14.2118
14.0747
13.8154
13.4762
13.0852
12.6551
12.1844
11.6603
11.063
10.3706
9.56452
8.63315
7.5756
6.403
5.1384
3.81499
2.47295
1.15541
-0.0960402
-1.24549
-2.26623
-3.14301
-3.8729
-4.46461
-4.93651
-5.31356
-5.62375
-5.89432
-6.14858
-6.40339
-6.66789
-6.9434
-7.22458
-7.50158
-7.76284
-7.99813
-8.20122
-8.37176
-8.51606
-8.64653
-8.77983
-8.93397
-9.12479
-9.36227
-9.64736
-9.96967
-10.3066
-10.6237
-10.8771
-11.0165
-10.9892
-10.7441
-10.2356
-9.42575
-8.28569
-6.79572
-4.94447
-2.72784
-0.148277
2.78524
6.05632
9.63958
13.4986
17.5843
21.8338
26.1705
30.5063
34.7443
38.784
42.5265
45.8805
48.7676
51.1276
52.9209
54.1307
54.7626
54.8425
54.414
53.5339
52.2677
50.6848
48.8542
46.8399
44.6982
42.4751
40.2045
37.9083
35.5968
33.2698
30.9186
28.528
26.078
23.5465
20.9144
18.1755
15.3566
12.5518
9.97329
8.01839
7.34309
8.92534
14.0923
24.4826
41.9176
68.1708
104.644
151.99
209.739
276.013
347.406
419.078
485.104
539.05
574.711
586.912
572.26
529.713
460.886
370.022
263.627
149.81
37.4099
-64.9734
-149.914
-211.939
-248.065
-258.007
-244.083
-210.797
-164.206
-111.134
-58.3556
-11.8442
23.8307
45.8878
53.4755
47.5727
30.6793
6.35538
-21.3234
-48.3188
-71.1225
-87.1349
-94.8925
-94.1315
-85.6953
-71.3132
-53.2885
-34.1466
-16.289
-1.69748
8.28018
13.0431
12.7449
8.20598
0.750209
-8.00535
-16.3766
-22.8252
-26.1315
-25.5128
-20.6748
-11.7992
0.525587
15.4152
31.8247
48.6882
65.0458
80.1438
93.4983
104.921
114.502
122.571
129.619
136.224
142.965
150.342
158.721
168.288
179.029
190.733
203.008
215.32
227.03
237.452
245.901
251.745
254.451
253.628
249.055
240.698
228.72
213.471
195.466
175.354
153.872
131.797
109.897
88.8829
69.3679
51.8368
36.6274
23.9246
13.7656
6.05558
0.59032
-2.91545
-4.79832
-5.41692
-5.12532
-4.25101
-3.07818
-1.83696
-0.698429
0.225114
0.875501
1.24071
1.34475
1.23655
0.978978
0.638829
0.278521
-0.0500919
-0.309619
-0.478815
-0.552352
-0.539139
-0.459683
-0.34301
-0.223517
-0.138033
-0.123216
-0.213332
-0.438382
-0.82257
-1.38306
-2.12907
-3.06129
-4.17172
-5.44396
-6.85395
-8.37122
-9.96057
-11.584
-13.203
-14.7805
-16.2829
-17.682
-18.9558
-20.0895
-21.0753
-21.912
-22.6038
-23.1588
-23.5873
-23.9
-24.1065
-24.2137
-24.2257
-24.1431
-23.9641
-23.685
-23.302
-22.8125
-22.2167
-21.5184
-20.7259
-19.8515
-18.9112
-17.9233
-16.9064
-15.8784
-14.854
-13.8436
-12.853
-11.8826
-10.9282
-9.98252
-9.03605
-8.07938
-7.10463
-6.10692
-5.08532
-4.04327
-2.98833
-1.93147
-0.885916
0.134164
1.11505
2.0446
2.9132
3.71419
4.44416
5.10292
5.69344
6.22212
6.69951
7.14179
7.57311
8.02846
8.55659
9.2221
10.1056
11.301
12.9095
15.0302
17.7474
21.1178
25.157
29.8289
35.0387
40.6311
46.3939
52.067
57.3573
61.9579
65.5704
67.9298
68.8285
68.1388
65.8288
61.9722
56.7475
50.4272
43.3573
35.9269
28.5327
21.5397
15.2437
9.83864
5.39457
1.84697
-0.997855
-3.44092
-5.85093
-8.60638
-12.0196
-16.2445
-21.1724
-26.327
-30.7734
-33.0675
-31.2719
-23.068
-5.98143
22.2792
63.3963
117.986
185.186
262.385
345.161
427.498
502.281
562.033
599.803
610.081
589.606
537.933
457.66
354.283
235.671
111.231
-9.11944
-116.043
-201.797
-261.031
-291.283
-293.117
-269.896
-227.243
-172.271
-112.679
-55.8536
-8.06273
26.1506
44.3256
46.1638
33.3469
9.13581
-22.1812
-55.9102
-87.5613
-113.373
-130.694
-138.191
-135.872
-124.937
-107.504
-86.2434
-63.9768
-43.3079
-26.3113
-14.3238
-7.85
-6.58341
-9.52958
-15.2043
-21.8746
-27.8079
-31.4954
-31.8252
-28.1866
-20.4989
-9.16993
5.00494
20.9837
37.636
53.8965
68.8954
82.0492
93.1063
102.145
109.528
115.825
121.716
127.889
134.942
143.307
153.205
164.616
177.296
190.808
204.57
217.923
230.189
240.735
249.011
254.587
257.167
256.594
252.833
245.962
236.15
223.637
208.723
191.752
173.112
153.229
132.568
111.625
90.9193
70.9817
52.3293
35.4406
20.7249
8.49323
-1.06691
-7.9091
-12.1342
-13.9843
-13.8239
-12.1099
-9.3532
-6.07616
-2.77018
0.142113
2.33634
3.60471
3.862
3.13944
1.56787
-0.647014
-3.25417
-5.98796
-8.59679
-10.867
-12.6399
-13.8215
-14.3839
-14.3601
-13.8331
-12.9211
-11.7615
-10.494
-9.24637
-8.12295
-7.19723
-6.50854
-6.06292
-5.83751
-5.78761
-5.8552
-5.97797
-6.09769
-6.167
-6.15412
-6.04507
-5.84335
-5.56757
-5.24717
-4.91729
-4.61317
-4.36485
-4.19293
-4.10551
-4.09697
-4.14853
-4.23053
-4.3062
-4.33652
-4.28537
-4.1245
-3.83756
-3.42256
-2.89262
-2.27461
-1.60596
-0.930035
-0.290447
0.274662
0.737769
1.08567
1.32118
1.46243
1.53996
1.59176
1.65722
1.77069
1.95569
2.22057
2.55629
2.9366
3.32059
3.65744
3.8927
3.97555
3.86637
3.54369
3.00972
2.29382
1.4529
0.5687
-0.258273
-0.917525
-1.29913
-1.30465
-0.856792
0.0936078
1.56443
3.54334
5.99261
8.85678
12.0712
15.5704
19.2933
23.1868
27.2046
31.3037
35.4389
39.5574
43.5928
47.4632
51.0709
54.3056
57.05
59.1876
60.6106
61.2279
60.9722
59.8059
57.7253
54.7632
50.9894
46.5102
41.4639
36.0156
30.3484
24.6521
19.1104
13.8859
9.10542
4.84423
1.1141
-2.14434
-5.05985
-7.81491
-10.6107
-13.6085
-16.8454
-20.1294
-22.9267
-24.2615
-22.6626
-16.1885
-2.56451
20.5558
55.211
102.677
163.009
234.662
314.296
396.824
475.753
543.792
593.668
619.04
615.377
580.661
515.805
424.709
313.937
192.049
68.6795
-46.5232
-144.948
-219.931
-267.413
-286.266
-278.264
-247.717
-200.827
-144.868
-87.2935
-34.8894
6.92845
34.5999
46.6454
43.6243
27.855
2.95076
-26.756
-56.8198
-83.2426
-102.923
-113.949
-115.715
-108.859
-95.0549
-76.6879
-56.4762
-37.0822
-20.7695
-9.14093
-2.9848
-2.23742
-6.05677
-12.9877
-21.1903
-28.6987
-33.6753
-34.6308
-30.5864
-21.163
-6.59257
12.344
34.4399
58.2268
82.159
104.794
124.946
141.803
154.986
164.556
170.969
174.986
177.554
179.675
182.279
186.113
191.662
199.104
208.308
218.861
230.133
241.346
251.667
260.287
266.492
269.716
269.576
265.885
258.647
248.04
234.388
218.125
199.769
179.884
159.05
137.845
116.816
96.4717
77.2608
59.5674
43.7001
29.886
18.2661
8.89337
1.73335
-3.33143
-6.49313
-8.00623
-8.17145
-7.31667
-5.77625
-3.8702
-1.88502
-0.0577608
1.43518
2.48377
3.04409
3.13244
2.81466
2.19197
1.38493
0.517398
-0.298046
-0.971667
-1.44422
-1.69018
-1.7166
-1.55816
-1.2693
-0.914757
-0.559699
-0.260868
-0.0597047
0.0218064
-0.0177465
-0.160992
-0.375991
-0.6221
-0.856577
-1.04097
-1.14649
-1.15767
-1.07405
-0.90976
-0.691154
-0.453127
-0.234522
-0.0733729
-0.00258877
-0.0465375
-0.218861
-0.521621
-0.945717
-1.47234
-2.07517
-2.72297
-3.38221
-4.01953
-4.60379
-5.10762
-5.50857
-5.78977
-5.94029
-5.95531
-5.83608
-5.58975
-5.22912
-4.77211
-4.24096
-3.66114
-3.05981
-2.46408
-1.89907
-1.38616
-0.941559
-0.575588
-0.292731
-0.0925157
0.0289177
0.0768566
0.0560815
-0.0305674
-0.182644
-0.401186
-0.686259
-1.03302
-1.4267
-1.83717
-2.21396
-2.48283
-2.54469
-2.27802
-1.54495
-0.201348
1.88972
4.84234
8.7313
13.5771
19.3338
25.8827
33.0314
40.5213
48.0414
55.2489
61.7953
67.354
71.6491
74.4796
75.7387
75.4243
73.6396
70.5835
66.5319
61.8108
56.7662
51.7315
46.9982
42.7922
39.2571
36.4481
34.3329
32.8025
31.6855
30.7672
29.8089
28.5693
26.8267
24.4085
21.2304
17.3499
13.0354
8.84493
5.69859
4.92322
8.23799
17.6531
35.2629
62.9349
101.923
152.46
213.41
282.054
354.095
423.908
485.044
530.94
555.728
555.048
526.72
471.172
391.55
293.477
184.495
73.2475
-31.4742
-121.703
-191.151
-235.854
-254.505
-248.476
-221.512
-179.168
-128.066
-75.0739
-26.5144
12.5034
38.5555
50.1357
47.6403
33.1274
9.89879
-18.0275
-46.48
-71.6601
-90.5693
-101.296
-103.136
-96.56
-83.0256
-64.698
-44.1049
-23.783
-5.95957
7.69495
16.2198
19.4127
17.7791
12.3993
4.738
-3.57329
-10.9505
-16.0421
-17.8648
-15.8785
-9.99876
-0.552395
11.8116
26.2387
41.7954
57.589
72.867
87.0858
99.9449
111.386
121.563
130.786
139.453
147.978
156.726
165.952
175.771
186.137
196.85
207.571
217.863
227.226
235.141
241.116
244.712
245.58
243.471
238.252
229.904
218.526
204.326
187.615
168.802
148.381
126.918
105.034
83.3807
62.6096
43.3376
26.1071
11.3487
-0.652833
-9.78145
-16.0997
-19.842
-21.3917
-21.2423
-19.948
-18.0691
-16.1172
-14.5089
-13.5311
-13.3233
-13.878
-15.0571
-16.6238
-18.2827
-19.7251
-20.671
-20.9057
-20.3048
-18.8457
-16.6066
-13.7518
-10.5085
-7.13633
-3.89571
-1.01798
1.31879
3.00589
4.01051
4.37279
4.19444
3.62109
2.82107
1.9636
1.19897
0.643204
0.368304
0.398935
0.715062
1.25959
1.9494
2.68811
3.37861
3.93408
4.28625
4.39038
4.22695
3.80019
3.13444
2.26884
1.2515
0.133863
-1.03426
-2.20834
-3.35163
-4.43639
-5.44417
-6.36531
-7.19805
-7.94724
-8.62294
-9.23876
-9.81003
-10.3518
-10.8766
-11.3922
-11.8992
-12.3895
-12.845
-13.2375
-13.5302
-13.68
-13.6418
-13.3731
-12.8397
-12.0203
-10.9112
-9.52779
-7.90507
-6.09507
-4.16222
-2.17699
-0.208749
1.68131
3.44609
5.05671
6.5041
7.79809
8.96408
10.0379
11.0595
12.0668
13.09
14.1472
15.2422
16.3642
17.4891
18.5825
19.6034
20.5083
21.2553
21.8075
22.1359
22.2207
22.0525
21.6319
20.9688
20.0808
18.9908
17.7249
16.3096
14.7694
13.1246
11.3898
9.57316
7.67676
5.69746
3.62906
1.4651
-0.796721
-3.14724
-5.55274
-7.93233
-10.1221
-11.8245
-12.5468
-11.5385
-7.7484
0.174217
13.8083
34.7998
64.6103
104.195
153.659
211.955
276.696
344.145
409.423
466.932
510.951
536.338
539.226
517.607
471.721
404.164
319.698
224.792
126.924
33.7709
-47.633
-111.648
-154.598
-175.089
-174.051
-154.502
-121.088
-79.4507
-35.5325
5.11672
37.9274
59.7397
69.0316
65.9335
52.0465
30.1028
3.52344
-24.0632
-49.2797
-69.3805
-82.5172
-87.8665
-85.6186
-76.8427
-63.2587
-46.952
-30.0738
-14.5656
-1.93837
6.87016
11.5519
12.3993
10.2037
6.10098
1.39032
-2.64956
-4.92197
-4.63371
-1.36483
4.91732
13.8959
24.9848
37.4359
50.4572
63.325
75.4744
86.5586
96.4705
105.327
113.423
121.158
128.96
137.2
146.133
155.849
166.253
177.079
187.912
198.243
207.519
215.2
220.805
223.947
224.354
221.877
216.479
208.23
197.284
183.876
168.302
150.92
132.15
112.463
92.3855
72.4802
53.328
35.4973
19.508
5.79204
-5.34333
-13.7445
-19.4283
-22.5828
-23.5514
-22.8012
-20.8781
-18.3554
-15.78
-13.6233
-12.2413
-11.8495
-12.5121
-14.1488
-16.5548
-19.4329
-22.4327
-25.1918
-27.3757
-28.7113
-29.0117
-28.1901
-26.2624
-23.3386
-19.6064
-15.3071
-10.7087
-6.07889
-1.66062
2.34773
5.80488
8.63211
10.8113
12.3765
13.4011
13.982
14.2238
14.2237
14.0606
13.7882
13.4324
12.9941
12.4547
11.7851
10.9543
9.93876
8.72887
7.33321
5.77935
4.11151
2.38565
0.662656
-0.999008
-2.55026
-3.95682
-5.20241
-6.28937
-7.23656
-8.07526
-8.84334
-9.57903
-10.3148
-11.0727
-11.861
-12.6734
-13.4899
-14.2799
-15.0063
-15.6299
-16.1142
-16.4293
-16.5544
-16.4789
-16.2025
-15.7335
-15.0868
-14.2809
-13.3356
-12.2686
-11.0945
-9.82201
-8.45314
-6.98197
-5.39393
-3.66537
-1.76369
0.351896
2.72875
5.41812
8.4712
11.934
15.841
20.2084
25.0271
30.2561
35.8181
41.5971
47.4387
53.1549
58.5316
63.3407
67.3545
70.3623
72.1877
72.7045
71.8503
69.635
66.144
61.5346
56.0255
49.8809
43.3897
36.8422
30.5064
24.6077
19.311
14.7099
10.822
7.59024
4.89305
2.56222
0.412181
-1.71706
-3.90047
-6.05201
-7.83725
-8.58772
-7.23857
-2.31878
7.97657
25.6094
52.4136
89.7234
137.967
196.3
262.359
332.218
400.591
461.286
507.874
534.481
536.599
511.774
460.079
384.269
289.598
183.308
73.8542
-30.0253
-120.28
-190.421
-236.192
-255.957
-250.764
-224.092
-181.325
-129.032
-74.1572
-23.2137
18.4076
46.9504
60.5723
59.3749
45.2034
21.2566
-8.42847
-39.5451
-68.0636
-90.693
-105.208
-110.613
-107.141
-96.0967
-79.5831
-60.1572
-40.4584
-22.8638
-9.20933
-0.6053
2.63925
0.984406
-4.46635
-12.1607
-20.3299
-27.2263
-31.3362
-31.5429
-27.2262
-18.2916
-5.13264
11.4611
30.4343
50.6134
70.8525
90.1588
107.786
123.287
136.522
147.633
156.984
165.077
172.472
179.694
187.17
195.168
203.777
212.899
222.269
231.489
240.076
247.511
253.291
256.967
258.179
256.677
252.327
245.108
235.107
222.503
207.558
190.596
172.006
152.221
131.72
111.013
90.6312
71.1024
52.9313
36.5688
22.3832
10.6323
1.44286
-5.20165
-9.46004
-11.6201
-12.0729
-11.277
-9.71734
-7.86144
-6.11979
-4.81314
-4.15069
-4.22104
-4.99613
-6.34722
-8.07028
-9.91743
-11.6305
-12.9725
-13.7543
-13.8532
-13.2214
-11.8864
-9.94121
-7.52875
-4.82153
-2.00034
0.765625
3.33485
5.60398
7.51214
9.03899
10.1977
11.024
11.5643
11.8628
11.9521
11.8466
11.5401
11.0073
10.2102
9.10539
7.65394
5.83053
3.63108
1.07778
-1.77919
-4.86362
-8.07855
-11.3143
-14.4581
-17.4046
-20.065
-22.3747
-24.2974
-25.826
-26.9796
-27.7974
-28.3303
-28.6319
-28.7503
-28.7214
-28.5657
-28.2877
-27.8789
-27.323
-26.6022
-25.7037
-24.6256
-23.3797
-21.9924
-20.5032
-18.9606
-17.4165
-15.9203
-14.5131
-13.2223
-12.0586
-11.0134
-10.0581
-9.14418
-8.20384
-7.15128
-5.88462
-4.28884
-2.24028
0.386828
3.7118
7.83692
12.8357
18.7406
25.533
33.1344
41.4036
50.1381
59.0814
67.936
76.3805
84.0895
90.7544
96.1027
99.9146
102.035
102.382
100.948
97.8004
93.0763
86.9738
79.743
71.6737
63.0816
54.2928
45.6275
37.383
29.817
23.1329
17.4677
12.8829
9.36097
6.80608
5.05127
3.87417
3.02377
2.26242
1.42608
0.503596
-0.26975
-0.317026
1.35576
6.18653
16.0046
32.874
58.8235
95.479
143.643
202.886
271.249
345.114
419.334
487.622
543.182
579.51
591.246
574.955
529.71
457.37
362.516
252.031
134.381
18.6906
-86.2584
-172.973
-236.024
-272.551
-282.447
-268.21
-234.505
-187.496
-134.058
-80.9566
-34.1133
1.97614
24.602
32.9598
28.0347
12.2861
-10.8108
-37.2977
-63.2674
-85.3357
-100.999
-108.843
-108.6
-101.048
-87.8017
-71.0078
-53.0154
-36.0492
-21.9345
-11.8995
-6.47499
-5.49117
-8.1646
-13.2541
-19.2596
-24.6348
-27.9862
-28.2345
-24.7217
-17.2571
-6.09843
8.11988
24.5014
42.0252
59.6872
76.6278
92.2292
106.174
118.456
129.355
139.364
149.099
159.195
170.198
182.483
196.185
211.174
227.059
243.224
258.896
273.218
285.341
294.503
300.099
301.728
299.22
292.639
282.26
268.53
252.018
233.362
213.212
192.187
170.84
149.639
128.965
109.113
90.3156
72.7526
56.5756
41.9189
28.9056
17.6464
8.23068
0.712761
-4.90317
-8.67647
-10.7384
-11.2927
-10.6082
-9.00262
-6.81984
-4.40303
-2.06704
-0.0732253
1.39005
2.21908
2.39728
1.98843
1.1218
-0.0288203
-1.26947
-2.41064
-3.28946
-3.78688
-3.83836
-3.43725
-2.63105
-1.51173
-0.201678
1.16268
2.44727
3.53503
4.33722
4.80042
4.90877
4.68169
4.16773
3.43559
2.56352
1.62866
0.697415
-0.182082
-0.984557
-1.70911
-2.3776
-3.03045
-3.72037
-4.50513
-5.43995
-6.57059
-7.92773
-9.52311
-11.3478
-13.3728
-15.5511
-17.8222
-20.117
-22.3644
-24.4966
-26.455
-28.1946
-29.687
-30.9222
-31.9076
-32.6672
-33.2374
-33.6636
-33.9951
-34.2811
-34.5655
-34.8842
-35.2619
-35.7105
-36.2288
-36.8026
-37.4063
-38.0049
-38.5565
-39.0149
-39.3328
-39.4643
-39.3675
-39.0057
-38.3483
-37.3693
-36.0452
-34.3499
-32.2502
-29.7009
-26.6429
-23.0044
-18.7074
-13.6791
-7.86676
-1.25495
6.11899
14.1532
22.6765
31.4519
40.1886
48.5618
56.237
62.8968
68.2649
72.1262
74.3398
74.8443
73.6562
70.8627
66.6107
61.0946
54.5436
47.2109
39.3633
31.2731
23.2104
15.4357
8.19215
1.69805
-3.86128
-8.34085
-11.6427
-13.7213
-14.5882
-14.3146
-13.034
-10.9406
-8.28301
-5.34782
-2.42607
0.242392
2.55079
4.63099
6.97048
10.5175
16.7402
27.602
45.4182
72.5786
111.146
162.375
226.236
301.026
383.177
467.334
546.731
613.849
661.282
682.688
673.696
632.609
560.804
462.744
345.602
218.521
91.6291
-25.0779
-122.828
-195.006
-237.799
-250.506
-235.456
-197.587
-143.738
-81.7704
-19.6203
35.5819
78.2353
104.754
113.776
106.094
84.3336
52.4581
15.151
-22.8145
-57.1531
-84.5223
-102.811
-111.248
-110.326
-101.584
-87.2817
-70.0177
-52.3552
-36.4914
-24.0142
-15.7656
-11.8173
-11.5502
-13.8156
-17.1478
-19.9967
-20.9454
-18.888
-13.1485
-3.53013
9.70108
25.8914
44.1155
63.3151
82.4391
100.568
117.008
131.349
143.481
153.569
162.005
169.328
176.144
183.037
190.493
198.846
208.236
218.601
229.681
241.054
252.177
262.435
271.2
277.882
281.967
283.053
280.871
275.29
266.319
254.097
238.88
221.024
200.966
179.21
156.31
132.856
109.455
86.7152
65.2265
45.5333
28.1096
13.3317
1.45352
-7.4132
-13.3092
-16.4273
-17.1
-15.7744
-12.9771
-9.27195
-5.21438
-1.30809
2.0325
4.50952
5.95614
6.33727
5.73696
4.33458
2.37325
0.124433
-2.14678
-4.21205
-5.90241
-7.12154
-7.84871
-8.13229
-8.0755
-7.81697
-7.50895
-7.29631
-7.29867
-7.59769
-8.23046
-9.18919
-10.4264
-11.8647
-13.4086
-14.9574
-16.4173
-17.7105
-18.7816
-19.5996
-20.1573
-20.4671
-20.5551
-20.4547
-20.1996
-19.8188
-19.3326
-18.7512
-18.0746
-17.2952
-16.4005
-15.3776
-14.2172
-12.9173
-11.4854
-9.93986
-8.3096
-6.63172
-4.9485
-3.30327
-1.73614
-0.280132
1.04182
2.2185
3.2506
4.14937
4.93409
5.62862
6.2577
6.84344
7.40252
7.94456
8.47182
8.98017
9.46114
9.90458
10.3015
10.6467
10.94
11.1877
11.4018
11.5992
11.8009
12.0302
12.3127
12.6759
13.1498
13.7685
14.5706
15.599
16.9001
18.5204
20.502
22.876
25.6558
28.8286
32.3479
36.1266
40.0317
43.8834
47.4582
50.4985
52.7287
53.878
53.707
52.0369
48.7759
43.9394
37.661
30.19
21.8763
13.1434
4.45064
-3.74796
-11.046
-17.1217
-21.7661
-24.9
-26.578
-26.9799
-26.3919
-25.1748
-23.723
-22.4097
-21.5189
-21.1625
-21.187
-21.079
-19.8881
-16.1943
-8.14916
6.38177
29.5636
63.2332
108.478
165.218
231.872
305.205
380.4
451.406
511.525
554.188
573.798
566.528
530.935
468.304
382.649
280.354
169.518
59.0666
-42.2341
-126.74
-188.74
-225.014
-235.08
-221.105
-187.511
-140.344
-86.4794
-32.7997
14.5819
50.9409
73.3499
80.8393
74.3126
56.2463
30.2294
0.414124
-29.0477
-54.5122
-73.2374
-83.6262
-85.3018
-79.0243
-66.4723
-49.9317
-31.939
-14.9288
-0.928722
8.66242
13.1958
12.7851
8.22091
0.805833
-7.8594
-16.1081
-22.4256
-25.6269
-24.9749
-20.2298
-11.6296
0.187605
14.3063
29.6791
45.2756
60.2139
73.8602
85.8851
96.273
105.288
113.402
121.201
129.279
138.143
148.124
159.334
171.634
184.658
197.847
210.514
221.923
231.361
238.213
242.004
242.443
239.424
233.016
223.444
211.046
196.239
179.48
161.241
141.986
122.156
102.173
82.4316
63.3061
45.1481
28.2829
13.001
-0.454731
-11.9039
-21.2432
-28.4573
-33.6247
-36.9146
-38.576
-38.9182
-38.2857
-37.0286
-35.4743
-33.9011
-32.519
-31.4579
-30.7659
-30.4159
-30.3205
-30.352
-30.3649
-30.2188
-29.797
-29.0215
-27.86
-26.3273
-24.48
-22.4064
-20.2134
-18.0128
-15.9077
-13.9822
-12.2943
-10.8727
-9.71779
-8.80535
-8.09316
-7.52837
-7.05513
-6.62138
-6.18415
-5.71293
-5.19112
-4.61566
-3.99521
-3.34734
-2.69514
-2.06386
-1.47775
-0.957496
-0.518436
-0.16952
0.0869419
0.254862
0.343437
0.36585
0.337785
0.2759
0.196393
0.113756
0.0398076
-0.0169504
-0.0516056
-0.0627313
-0.0519137
-0.0229486
0.019218
0.0696996
0.124886
0.183511
0.247416
0.321893
0.41555
0.539721
0.707515
0.932659
1.22832
1.60606
2.07513
2.64207
3.31078
4.08286
4.95825
5.93602
7.01498
8.1943
9.47365
10.8531
12.3326
13.9113
15.5866
17.3533
19.2031
21.1241
23.1011
25.1168
27.1528
29.1905
31.2118
33.1983
35.1281
36.972
38.687
40.2107
41.4566
42.3122
42.6424
42.2975
41.1264
38.9946
35.8029
31.506
26.1274
19.767
12.602
4.87886
-3.10322
-11.0141
-18.519
-25.3068
-31.116
-35.7584
-39.137
-41.2556
-42.2195
-42.2217
-41.5135
-40.3547
-38.9418
-37.317
-35.2666
-32.2248
-27.2088
-18.8134
-5.29558
15.2349
44.518
83.7672
133.268
192.028
257.555
325.844
391.607
448.751
491.052
512.948
510.32
481.148
425.934
347.808
252.301
146.792
39.7203
-60.351
-145.683
-210.198
-250.107
-264.236
-254.041
-223.31
-177.605
-123.527
-67.9155
-17.0617
23.9451
51.6847
64.6369
63.1684
49.2987
26.2895
-1.87464
-31.0427
-57.4194
-77.9925
-90.8213
-95.1648
-91.4486
-81.0888
-66.2094
-49.2977
-32.8453
-19.0224
-9.42151
-4.89838
-5.51985
-10.6175
-18.9301
-28.8106
-38.4639
-46.1847
-50.5637
-50.6393
-45.9798
-36.693
-23.3668
-6.95609
11.3654
30.366
48.9085
66.0746
81.2504
94.1641
104.878
113.739
121.303
128.234
135.207
142.816
151.497
161.481
172.769
185.136
198.157
211.253
223.742
234.9
244.016
250.45
253.669
253.28
249.059
240.955
229.096
213.784
195.478
174.774
152.374
129.046
105.589
82.7773
61.3205
41.8169
24.7186
10.3065
-1.32071
-10.2422
-16.6958
-21.0462
-23.743
-25.2747
-26.1212
-26.712
-27.3926
-28.402
-29.8637
-31.7889
-34.0914
-36.6113
-39.1438
-41.4696
-43.3843
-44.7215
-45.3703
-45.2831
-44.4759
-43.0204
-41.0305
-38.6448
-36.0072
-33.2499
-30.4778
-27.7598
-25.1243
-22.562
-20.0341
-17.4844
-14.8537
-12.0939
-9.1806
-6.12056
-2.9551
0.242632
3.37494
6.33074
8.99857
11.2796
13.099
14.4137
15.2161
15.5336
15.4236
14.9658
14.2522
13.3769
12.4266
11.4727
10.5663
9.73584
8.98711
8.30649
7.66534
7.02577
6.34684
5.59049
4.72671
3.73747
2.61922
1.38369
0.0572732
-1.32123
-2.70399
-4.0384
-5.27196
-6.35711
-7.2557
-7.94258
-8.40792
-8.65803
-8.7144
-8.61129
-8.3918
-8.10308
-7.79111
-7.49568
-7.24614
-7.05841
-6.9337
-6.85886
-6.8086
-6.74897
-6.64182
-6.44956
-6.1395
-5.68729
-5.07884
-4.31049
-3.3873
-2.31965
-1.11864
0.208983
1.66543
3.26516
5.03594
7.01729
9.2561
11.8
14.6889
17.9463
21.5714
25.5321
29.7623
34.1613
38.5969
42.9125
46.9357
50.4895
53.4036
55.5256
56.7313
56.9326
56.0837
54.1847
51.2829
47.471
42.8832
37.6882
32.0797
26.2653
20.4533
14.8392
9.59163
4.84002
0.663154
-2.91915
-5.95046
-8.53605
-10.8324
-13.0244
-15.2871
-17.7288
-20.3154
-22.7804
-24.5317
-24.574
-21.4736
-13.3957
1.7592
26.1072
61.4295
108.756
167.945
237.348
313.641
391.881
465.849
528.626
573.383
594.242
587.102
550.301
484.989
395.156
287.291
169.726
51.7226
-57.5476
-150.008
-219.535
-262.559
-278.346
-268.922
-238.688
-193.769
-141.205
-88.0867
-40.7514
-4.12919
18.6898
26.6315
20.5577
2.96059
-22.5102
-51.6152
-80.1089
-104.266
-121.291
-129.572
-128.762
-119.694
-104.158
-84.5774
-63.6405
-43.9295
-27.6004
-16.1442
-10.2529
-9.79724
-13.9077
-21.1417
-29.7064
-37.7079
-43.3918
-45.3481
-42.6585
-34.972
-22.5074
-5.98612
13.4888
34.5899
55.9357
76.2542
94.519
110.045
122.535
132.079
139.1
144.275
148.428
152.407
156.986
162.761
170.097
179.086
189.554
201.085
213.073
224.795
235.477
244.367
250.799
254.236
254.306
250.812
243.735
233.218
219.546
203.118
184.416
163.98
142.374
120.171
97.9238
76.1545
55.3363
35.8828
18.1377
2.36725
-11.2455
-22.603
-31.6924
-38.5809
-43.4076
-46.3714
-47.7157
-47.7123
-46.6435
-44.7852
-42.3925
-39.6875
-36.8517
-34.0216
-31.2899
-28.7085
-26.2957
-24.0445
-21.932
-19.9282
-18.0037
-16.1359
-14.312
-12.5309
-10.8025
-9.14473
-7.58045
-6.13337
-4.8241
-3.66708
-2.66841
-1.8251
-1.12564
-0.551681
-0.0807139
0.310885
0.644726
0.937702
1.20003
1.43431
1.63562
1.79272
1.89006
1.91047
1.83803
1.66089
1.37358
0.978678
0.487394
-0.0807025
-0.698953
-1.33561
-1.95631
-2.52683
-3.01568
-3.39646
-3.64974
-3.76426
-3.7376
-3.57607
-3.29407
-2.91289
-2.45907
-1.96234
-1.45351
-0.96224
-0.514916
-0.132913
0.168757
0.38222
0.506877
0.548932
0.520328
0.437241
0.318277
0.182568
0.0479586
-0.0705309
-0.161834
-0.219462
-0.241603
-0.23072
-0.192737
-0.135943
-0.0697506
-0.00347597
0.0547397
0.098745
0.124871
0.132073
0.121752
0.0972916
0.0634247
0.0255051
-0.011178
-0.0419235
-0.0628338
-0.0705847
-0.0616467
-0.0309491
0.029865
0.13425
0.302134
0.56031
0.9414
1.48124
2.21492
3.17202
4.3721
5.82134
7.51146
9.42145
11.5222
13.7832
16.1801
18.7014
21.3519
24.1531
27.1376
30.3399
33.7835
37.4671
41.3521
45.3538
49.3387
53.1293
56.5162
59.2765
61.1973
62.1005
61.8663
60.451
57.8984
54.3409
49.9903
45.12
40.0396
35.0647
30.4867
26.5444
23.402
21.1345
19.722
19.053
18.9357
19.1192
19.323
19.2791
18.788
17.7897
16.4488
15.2452
15.0573
17.2125
23.479
35.9692
56.9347
88.4526
132.026
188.149
255.918
332.766
414.407
495.04
567.821
625.57
661.619
670.689
649.664
598.132
518.608
416.396
299.087
175.768
56.0361
-51.044
-137.914
-199.292
-232.658
-238.395
-219.588
-181.52
-130.944
-75.2266
-21.4858
24.1796
57.282
75.2983
77.7625
66.1082
43.3012
13.3259
-19.399
-50.5974
-76.6371
-94.9011
-103.996
-103.79
-95.2904
-80.3988
-61.5752
-41.4737
-22.5912
-6.97206
3.99901
9.7006
10.2722
6.51702
-0.267031
-8.50085
-16.5492
-22.9288
-26.475
-26.4505
-22.5896
-15.0784
-4.48242
8.36548
22.4967
36.941
50.8449
63.5629
74.7123
84.1887
92.1446
98.9376
105.056
111.036
117.377
124.471
132.547
141.645
151.613
162.122
172.715
182.85
191.963
199.519
205.054
208.209
208.742
206.526
201.543
193.864
183.633
171.055
156.39
139.952
122.117
103.326
84.0873
64.9666
46.5671
29.4977
14.3316
1.55985
-8.45382
-15.5105
-19.5997
-20.9059
-19.7945
-16.7798
-12.4772
-7.54515
-2.62449
1.71956
5.04474
7.06438
7.66204
6.88732
4.93464
2.10813
-1.22241
-4.66881
-7.86979
-10.529
-12.4422
-13.5116
-13.7467
-13.2519
-12.2057
-10.8321
-9.36972
-8.04245
-7.03458
-6.47285
-6.41711
-6.85962
-7.73225
-8.91994
-10.2782
-11.6522
-12.8949
-13.883
-14.528
-14.7831
-14.6437
-14.1447
-13.3527
-12.3563
-11.2546
-10.1461
-9.11821
-8.23943
-7.55349
-7.07684
-6.79898
-6.68548
-6.68328
-6.72776
-6.75063
-6.6881
-6.48823
-6.11684
-5.56127
-4.83168
-3.95959
-2.9941
-1.99607
-1.03112
-0.162236
0.5572
1.08901
1.41401
1.5336
1.46893
1.25802
0.951067
0.604598
0.275211
0.0135822
-0.140553
-0.161925
-0.041432
0.214082
0.583862
1.03677
1.53581
2.04311
2.52472
2.9546
3.31746
3.61009
3.84107
4.02912
4.20026
4.38432
4.61123
4.90767
5.29437
5.78467
6.38416
7.09175
7.90173
8.80672
9.80107
10.8843
12.0641
13.3586
14.7974
16.4203
18.2752
20.4126
22.8798
25.712
28.9238
32.5003
36.389
40.4945
44.6756
48.7474
52.4874
55.6469
57.9665
59.1947
59.1081
57.532
54.3578
49.5571
43.1901
35.4065
26.4399
16.5943
6.22529
-4.28371
-14.5468
-24.2003
-32.9254
-40.4655
-46.6388
-51.3458
-54.5706
-56.3788
-56.91
-56.3663
-54.9936
-53.0544
-50.7881
-48.3553
-45.7666
-42.7993
-38.9137
-33.1899
-24.3104
-10.6188
9.72392
38.4789
76.9799
125.742
184.094
249.915
319.559
388.007
449.276
497.041
525.408
529.714
507.24
457.718
383.547
289.665
183.095
72.2112
-34.1773
-127.794
-201.797
-251.494
-274.787
-272.29
-247.131
-204.466
-150.785
-93.1008
-38.1418
8.37514
42.2886
61.3129
65.1101
55.1252
34.2275
6.21644
-24.732
-54.6076
-80.0296
-98.5831
-108.999
-111.172
-106.027
-95.2765
-81.0971
-65.7862
-51.4404
-39.6944
-31.549
-27.3007
-26.5724
-28.4308
-31.5671
-34.5112
-35.8481
-34.4093
-29.4143
-20.5515
-7.99009
7.67055
25.5027
44.3871
63.1635
80.7753
96.3911
109.488
119.89
127.764
133.563
137.952
141.703
145.588
150.277
156.265
163.813
172.93
183.383
194.731
206.383
217.659
227.861
236.332
242.505
245.932
246.307
243.468
237.386
228.157
215.981
201.148
184.026
165.045
144.694
123.504
102.036
80.8657
60.5593
41.6471
24.5955
9.77873
-2.54539
-12.2529
-19.3614
-24.0267
-26.5275
-27.24
-26.6043
-25.0851
-23.1324
-21.145
-19.4402
-18.2344
-17.6336
-17.6363
-18.1472
-18.9991
-19.9807
-20.8671
-21.4483
-21.5543
-21.0729
-19.9597
-18.2391
-15.9976
-13.37
-10.5219
-7.62922
-4.85932
-2.35393
-0.21713
1.49145
2.75764
3.6085
4.10385
4.32514
4.36315
4.30631
4.2309
4.19406
4.23017
4.35053
4.54599
4.79156
5.05233
5.28952
5.46602
5.55062
5.52081
5.36393
5.07698
4.66533
4.14084
3.51977
2.82088
2.06387
1.26849
0.454013
-0.360792
-1.15761
-1.91858
-2.62657
-3.2658
-3.82287
-4.28791
-4.6557
-4.92656
-5.10651
-5.20678
-5.24249
-5.23062
-5.1875
-5.12628
-5.05461
-4.97314
-4.87496
-4.74624
-4.56794
-4.31842
-3.97636
-3.52344
-2.94631
-2.2373
-1.39365
-0.41557
0.696806
1.9468
3.34437
4.90844
6.66787
8.66065
10.9313
13.5262
16.4883
19.8495
23.6242
27.8023
32.3441
37.1761
42.1902
47.2444
52.1667
56.7615
60.8184
64.1231
66.4703
67.678
67.6017
66.1488
63.2909
59.0717
53.6115
47.1038
39.8072
32.029
24.1041
16.37
9.14029
2.67916
-2.81978
-7.24878
-10.5932
-12.9303
-14.4178
-15.2745
-15.749
-16.0782
-16.4335
-16.8532
-17.1664
-16.9129
-15.2764
-11.0495
-2.65867
11.7289
33.9994
65.7926
108.134
161.054
223.265
291.976
362.909
430.563
488.709
531.083
552.17
547.982
516.692
459.03
378.364
280.446
172.836
64.0976
-37.1447
-123.158
-187.933
-227.793
-241.713
-231.311
-200.531
-155.062
-101.6
-47.0201
2.39871
41.6334
67.3707
78.2243
74.703
58.9576
34.3545
4.94433
-25.0994
-51.9998
-72.7941
-85.6082
-89.7667
-85.743
-74.9708
-59.5548
-41.9272
-24.4988
-9.34977
2.0059
8.75782
10.8328
8.82934
3.87272
-2.58412
-8.98146
-13.8655
-16.066
-14.8191
-9.82549
-1.24263
10.3812
24.2165
39.2872
54.6109
69.3243
82.7814
94.6124
104.74
113.356
120.862
127.789
134.704
142.12
150.419
159.799
170.244
181.529
193.247
204.856
215.74
225.269
232.862
238.028
240.401
239.754
235.996
229.165
219.404
206.945
192.088
175.189
156.648
136.908
116.45
95.7858
75.4515
55.987
37.9132
21.7013
7.74069
-3.69234
-12.4592
-18.5734
-22.2017
-23.6511
-23.342
-21.7704
-19.4636
-16.9332
-14.6319
-12.9185
-12.0335
-12.0888
-13.0714
-14.859
-17.2454
-19.9723
-22.7626
-25.352
-27.5147
-29.0825
-29.9543
-30.0972
-29.5407
-28.364
-26.6806
-24.6217
-22.3199
-19.8967
-17.4523
-15.0615
-12.7726
-10.6109
-8.58476
-6.69291
-4.93274
-3.3071
-1.8294
-0.526085
0.563672
1.39121
1.9041
2.05371
1.80382
1.13912
0.072367
-1.351
-3.05185
-4.92052
-6.82421
-8.61804
-10.1587
-11.3187
-12.0001
-12.1452
-11.7431
-10.8308
-9.4899
-7.83716
-6.01205
-4.16187
-2.42645
-0.924487
0.257242
1.07038
1.50686
1.59615
1.39853
0.9955
0.478698
-0.0611775
-0.544065
-0.907712
-1.11158
-1.13728
-0.98585
-0.672711
-0.221416
0.342511
0.996548
1.72423
2.51605
3.36857
4.28238
5.26002
6.3046
7.41986
8.61202
9.89284
11.2836
12.8185
14.5468
16.5325
18.8503
21.5788
24.7901
28.5378
32.8437
37.6863
42.9911
48.6256
54.3991
60.068
65.3472
69.9273
73.496
75.7636
76.4894
75.5072
72.7469
68.2488
62.1687
54.7725
46.4194
37.5359
28.5819
20.0137
12.2464
5.62096
0.377379
-3.3634
-5.60806
-6.48966
-6.2559
-5.24491
-3.84597
-2.44123
-1.32614
-0.609297
-0.0992268
0.805413
3.19646
8.67514
19.2763
37.2746
64.8677
103.762
154.712
217.102
288.647
365.316
441.517
510.568
565.404
599.439
607.451
586.365
535.794
458.261
359.042
245.656
127.06
12.6588
-88.737
-169.871
-225.793
-254.307
-256.09
-234.456
-194.827
-143.988
-89.2336
-37.5053
5.35713
35.1834
49.7958
49.0704
34.7506
10.055
-20.8531
-53.4608
-83.4847
-107.367
-122.633
-128.088
-123.83
-111.111
-92.0665
-69.3639
-45.8235
-24.0542
-6.15359
6.49935
13.3432
14.6217
11.2738
4.74817
-3.22618
-10.881
-16.6304
-19.2467
-17.9734
-12.5679
-3.27499
9.25789
24.1068
40.219
56.5613
72.25
86.6485
99.4225
110.55
120.287
129.104
137.591
146.359
155.941
166.715
178.839
192.231
206.57
221.326
235.817
249.277
260.928
270.05
276.041
278.456
277.032
271.694
262.544
249.841
233.971
215.418
194.736
172.523
149.398
125.988
102.91
80.7552
60.0721
41.3494
24.9935
11.3085
0.477032
-7.45277
-12.5732
-15.1125
-15.4198
-13.9395
-11.1775
-7.66261
-3.90603
-0.364697
2.58907
4.68814
5.77996
5.82458
4.8825
3.09456
0.656912
-2.20587
-5.2663
-8.31569
-11.1803
-13.731
-15.8867
-17.6118
-18.9095
-19.8124
-20.3714
-20.6459
-20.6944
-20.5682
-20.3071
-19.9378
-19.4752
-18.9243
-18.284
-17.5511
-16.7239
-15.8054
-14.8051
-13.7402
-12.6349
-11.5193
-10.4267
-9.39125
-8.44454
-7.61304
-6.91547
-6.36101
-5.94841
-5.66599
-5.4927
-5.40011
-5.35503
-5.32268
-5.26993
-5.16836
-4.99667
-4.74243
-4.40275
-3.98402
-3.50073
-2.97356
-2.42699
-1.88673
-1.37723
-0.919498
-0.529532
-0.217258
0.0137614
0.166039
0.24734
0.269513
0.247198
0.196625
0.134706
0.0785456
0.045371
0.0527762
0.119103
0.263765
0.507376
0.871614
1.37884
2.05149
2.91137
3.97869
5.27101
6.80209
8.58066
10.6093
12.8837
15.3922
18.1155
21.0273
24.0945
27.2781
30.5336
33.8121
37.0608
40.2233
43.24
46.0478
48.5799
50.7661
52.5332
53.8077
54.519
54.6047
54.0176
52.7316
50.7488
48.1038
44.8655
41.1363
37.0467
32.7474
28.3986
24.1581
20.1685
16.5461
13.3703
10.6766
8.4525
6.63657
5.1248
3.78489
2.48372
1.13195
-0.251049
-1.4528
-1.97177
-0.92692
3.00051
11.56
26.8276
50.9837
85.9754
133.093
192.524
262.969
341.415
423.132
501.952
570.824
622.578
650.818
650.796
620.143
559.339
471.825
363.751
243.367
120.14
3.72214
-97.1097
-175.386
-226.65
-249.336
-244.805
-217.028
-171.985
-116.867
-59.1858
-5.91624
37.243
66.3936
79.7085
77.4333
61.6422
35.7983
4.18985
-28.6776
-58.6534
-82.412
-97.7723
-103.841
-100.982
-90.6247
-74.9696
-56.6146
-38.1785
-21.9579
-9.66063
-2.24358
0.137983
-1.92807
-7.25882
-14.2863
-21.2965
-26.6636
-29.0501
-27.5508
-21.7683
-11.8161
1.74204
18.0039
35.872
54.2068
71.9703
88.3412
102.792
115.121
125.437
134.111
141.693
148.816
156.101
164.067
173.06
183.217
194.446
206.445
218.739
230.728
241.756
251.167
258.362
262.841
264.236
262.325
257.036
248.438
236.73
222.22
205.307
186.462
166.205
145.089
123.681
102.54
82.2028
63.1609
45.8408
30.586
17.6392
7.13043
-0.929829
-6.6498
-10.247
-12.0309
-12.3774
-11.6993
-10.4131
-8.90713
-7.51324
-6.48556
-5.98741
-6.08814
-6.7692
-7.93856
-9.45106
-11.1322
-12.8024
-14.2989
-15.493
-16.3018
-16.6928
-16.6819
-16.3264
-15.7138
-14.9485
-14.1375
-13.3791
-12.7523
-12.3115
-12.0835
-12.0689
-12.246
-12.5761
-13.0101
-13.4947
-13.9776
-14.4115
-14.7563
-14.9802
-15.0598
-14.9791
-14.7288
-14.3053
-13.7101
-12.9497
-12.0355
-10.9843
-9.81815
-8.56471
-7.25678
-5.93143
-4.6285
-3.38858
-2.25054
-1.24882
-0.410873
0.245087
0.711605
0.992638
1.10319
1.0679
0.918805
0.692367
0.426209
0.15585
-0.0882027
-0.28269
-0.412965
-0.473342
-0.466423
-0.401486
-0.292118
-0.153352
0.00136766
0.163061
0.329662
0.507837
0.714104
0.975268
1.32822
1.81907
2.50164
3.4349
4.67953
6.29325
8.3253
10.8105
13.7636
17.1746
21.0067
25.1962
29.6552
34.278
38.9477
43.5441
47.951
52.0614
55.7793
59.0198
61.7061
63.7658
65.128
65.7221
65.4809
64.347
62.2827
59.2822
55.3829
50.6741
45.3006
39.4593
33.3887
27.3515
21.613
16.4164
11.9598
8.37716
5.72486
3.9768
3.02717
2.70108
2.77168
2.98307
3.07889
2.83761
2.11665
0.907495
-0.598124
-1.93538
-2.29828
-0.495652
5.04315
16.1862
34.9205
63.0744
101.959
151.979
212.278
280.502
352.751
423.772
487.394
537.178
567.193
572.813
551.411
502.836
429.596
336.701
231.179
121.338
15.8531
-77.1897
-151.163
-201.582
-226.51
-226.652
-205.133
-167.003
-118.551
-66.5093
-17.2732
23.7903
52.8546
67.9211
68.8664
57.2627
36.0121
8.85729
-20.1609
-47.2273
-69.1953
-83.9011
-90.3244
-88.5891
-79.8215
-65.8978
-49.1223
-31.8852
-16.3443
-4.16769
3.6355
6.78415
5.69438
1.36273
-4.81397
-11.2534
-16.4065
-18.9521
-17.9447
-12.901
-3.81965
8.86185
24.3623
41.6863
59.7685
77.6133
94.4103
109.615
122.983
134.565
144.654
153.711
162.266
170.828
179.793
189.388
199.635
210.35
221.171
231.606
241.095
249.076
255.044
258.592
259.443
257.456
252.618
245.029
234.871
222.387
207.855
191.575
173.858
155.03
135.432
115.424
95.3894
75.7232
56.8197
39.048
22.7248
8.08785
-4.72617
-15.6922
-24.8954
-32.5156
-38.8009
-44.0325
-48.4871
-52.4019
-55.9467
-59.2077
-62.1841
-64.7979
-66.9156
-68.3772
-69.0283
-68.7516
-67.4915
-65.2706
-62.1934
-58.4396
-54.2462
-49.8825
-45.6205
-41.7059
-38.3331
-35.6265
-33.6319
-32.3173
-31.5826
-31.2772
-31.2217
-31.2316
-31.1394
-30.8121
-30.1635
-29.1587
-27.8121
-26.1795
-24.3451
-22.4074
-20.4637
-18.5973
-16.8677
-15.3052
-13.9107
-12.6591
-11.5073
-10.4031
-9.29579
-8.14547
-6.93016
-5.64981
-4.32678
-3.00281
-1.73319
-0.578896
0.401839
1.16161
1.67023
1.91879
1.92084
1.7107
1.33934
0.868384
0.363345
-0.113062
-0.506442
-0.774376
-0.887727
-0.829552
-0.592028
-0.172153
0.432753
1.22871
2.22711
3.4446
4.90078
6.61416
8.59674
10.8483
13.3511
16.0662
18.9316
21.8635
24.76
27.507
29.9863
32.083
33.6935
34.7316
35.1325
34.8554
33.884
32.2261
29.9125
26.9971
23.5556
19.6862
15.5092
11.1653
6.81268
2.62089
-1.23808
-4.60234
-7.33521
-9.34217
-10.5876
-11.1085
-11.0224
-10.5247
-9.87229
-9.34932
-9.21245
-9.61621
-10.522
-11.6009
-12.1475
-11.0268
-6.68195
2.77303
19.3615
44.9549
80.9119
127.695
184.531
249.193
317.971
385.859
446.988
495.24
524.991
531.855
513.337
469.278
402.021
316.258
218.585
116.796
19.0328
-67.1127
-135.418
-181.672
-204.062
-203.26
-182.225
-145.736
-99.747
-50.6432
-4.49804
33.5818
59.947
72.6868
71.6823
58.4447
35.7752
7.30355
-23.0281
-51.4687
-74.8892
-91.0948
-98.9925
-98.606
-90.9524
-77.8093
-61.4107
-44.1177
-28.1074
-15.1155
-6.26089
-1.96436
-1.96266
-5.40583
-11.0172
-17.2898
-22.691
-25.8494
-25.704
-21.6007
-13.3313
-1.11669
14.4585
32.5447
52.1463
72.2434
91.902
110.363
127.099
141.84
154.565
165.467
174.892
183.275
191.063
198.65
206.321
214.218
222.321
230.454
238.309
245.477
251.498
255.902
258.26
258.211
255.5
249.984
241.648
230.595
217.044
201.308
183.786
164.937
145.262
125.283
105.519
86.4634
68.563
52.1946
37.6484
25.1147
14.6762
6.30836
-0.112577
-4.79406
-8.0053
-10.051
-11.2438
-11.8773
-12.2035
-12.4168
-12.6444
-12.9464
-13.322
-13.7226
-14.0692
-14.2703
-14.2397
-13.9113
-13.2487
-12.2498
-10.946
-9.39661
-7.6799
-5.88208
-4.08658
-2.36449
-0.76773
0.67439
1.95512
3.08697
4.09602
5.01487
5.87536
6.7022
7.50837
8.29278
9.04053
9.72526
10.3133
10.7688
11.0586
11.1566
11.0461
10.7215
10.1867
9.45335
8.53819
7.45981
6.23644
4.88449
3.41826
1.8506
0.194281
-1.53641
-3.32433
-5.1487
-6.98525
-8.80711
-10.5863
-12.2956
-13.91
-15.4076
-16.7704
-17.9839
-19.0357
-19.9154
-20.6125
-21.1163
-21.4158
-21.5
-21.3598
-20.9902
-20.3919
-19.5739
-18.5542
-17.3601
-16.0261
-14.5916
-13.0961
-11.5747
-10.0529
-8.54311
-7.04151
-5.52783
-3.9668
-2.31178
-0.50995
1.49167
3.73996
6.26984
9.09909
12.2237
15.6135
19.2086
22.9161
26.608
30.1228
33.2701
35.8409
37.623
38.4209
38.078
36.4995
33.6706
29.6688
24.6664
18.9234
12.7689
6.57516
0.724982
-4.42204
-8.5615
-11.4704
-13.0246
-13.2072
-12.1051
-9.8964
-6.82548
-3.16732
0.82291
4.97545
9.28649
14.0077
19.7308
27.4461
38.5461
54.7454
77.8983
109.711
151.372
203.154
264.064
331.609
401.781
469.266
527.921
571.441
594.154
591.809
562.25
505.852
425.652
327.133
217.694
105.857
0.335936
-90.9234
-161.6
-207.643
-227.63
-222.803
-196.79
-155.06
-104.2
-51.1048
-2.1811
37.3226
63.8058
75.5705
72.8297
57.4912
32.7597
2.62297
-28.706
-57.3187
-80.0504
-94.785
-100.6
-97.7502
-87.508
-71.8951
-53.3485
-34.3699
-17.2041
-3.58209
5.4447
9.56798
9.18688
5.28718
-0.740819
-7.31711
-12.8894
-16.1262
-16.0631
-12.1898
-4.47143
6.69213
20.5571
36.1618
52.4677
68.4968
83.4474
96.7757
108.236
117.878
126.003
133.094
139.727
146.472
153.812
162.072
171.379
181.648
192.595
203.777
214.637
224.571
232.98
239.32
243.143
244.116
242.032
236.813
228.493
217.216
203.216
186.814
168.405
148.454
127.489
106.088
84.8652
64.4425
45.4226
28.351
13.6791
1.72941
-7.33115
-13.5069
-16.9737
-18.0638
-17.2353
-15.0296
-12.0215
-8.76613
-5.75098
-3.35536
-1.82386
-1.2551
-1.60667
-2.71485
-4.32605
-6.13566
-7.82939
-9.12203
-9.7894
-9.6903
-8.77665
-7.0919
-4.75906
-1.96105
1.08346
4.14515
7.00722
9.48419
11.4351
12.7707
13.4543
13.4986
12.9584
11.9205
10.4933
8.79581
6.94754
5.0599
3.22951
1.53352
0.0272502
-1.25611
-2.30395
-3.12126
-3.72668
-4.14815
-4.41865
-4.57248
-4.64233
-4.65733
-4.64199
-4.61598
-4.59443
-4.58859
-4.60659
-4.65411
-4.73493
-4.85126
-5.00393
-5.1924
-5.41475
-5.66773
-5.94685
-6.24664
-6.56094
-6.88339
-7.20786
-7.5288
-7.84153
-8.14221
-8.42765
-8.69494
-8.94084
-9.16121
-9.3505
-9.50133
-9.60451
-9.64922
-9.62363
-9.51579
-9.31464
-9.01106
-8.59882
-8.07516
-7.44117
-6.70177
-5.8654
-4.9435
-3.94989
-2.90014
-1.81074
-0.698292
0.421729
1.53673
2.63939
3.73063
4.82283
5.94271
7.13308
8.45264
9.97333
11.7748
13.9363
16.527
19.5954
23.1596
27.1998
31.6546
36.4206
41.3574
46.2954
51.0469
55.4195
59.2289
62.3114
64.5342
65.8032
66.0675
65.3207
63.5998
60.9806
57.5725
53.5114
48.9516
44.0576
38.9959
33.9268
28.9963
24.3298
20.026
16.1522
12.7422
9.79535
7.2776
5.12501
3.24927
1.54666
-0.0876747
-1.73702
-3.42792
-5.07928
-6.43477
-6.98376
-5.88378
-1.90717
6.55861
21.4262
44.7168
78.2583
123.298
180.08
247.473
322.728
401.443
477.801
545.067
596.305
625.231
627.072
599.299
542.12
458.634
354.624
238
117.961
3.98562
-95.2045
-172.589
-223.564
-246.36
-242.105
-214.543
-169.474
-113.971
-55.5038
-1.08246
43.4934
74.1785
88.9767
87.9698
73.0958
47.7279
16.1198
-17.201
-48.0131
-72.8859
-89.5171
-96.8957
-95.2872
-86.0592
-71.3868
-53.8838
-36.2165
-20.7471
-9.25138
-2.7377
-1.38135
-4.57206
-11.0588
-19.165
-27.0415
-32.922
-35.3478
-33.3379
-26.4846
-14.9703
0.491852
18.7802
38.5297
58.3166
76.8376
93.0626
106.342
116.462
123.637
128.456
131.777
134.604
137.939
142.661
149.405
158.493
169.903
183.272
197.951
213.077
227.674
240.755
251.412
258.897
262.677
262.455
258.179
250.014
238.309
223.551
206.314
187.218
166.888
145.931
124.91
104.337
84.6664
66.2911
49.5403
34.6778
21.897
11.3163
2.97372
-3.17632
-7.26331
-9.49581
-10.151
-9.55844
-8.07894
-6.08
-3.9103
-1.87579
-0.219743
0.89099
1.37216
1.22031
0.50338
-0.654887
-2.09477
-3.64219
-5.12961
-6.41402
-7.39011
-7.99771
-8.22305
-8.0943
-7.67264
-7.04027
-6.28719
-5.4987
-4.74493
-4.07376
-3.5077
-3.04472
-2.66261
-2.32598
-1.99455
-1.63164
-1.21135
-0.723602
-0.176404
0.404948
0.981369
1.50557
1.92876
2.20748
2.30939
2.21734
1.93119
1.46734
0.856312
0.139073
-0.637071
-1.42235
-2.16759
-2.82618
-3.35517
-3.71562
-3.87283
-3.79683
-3.4636
-2.85713
-1.97238
-0.81859
0.577483
2.16923
3.88954
5.6524
7.35706
8.89468
10.157
11.046
11.4841
11.422
10.8459
9.77951
8.28394
6.45249
4.40266
2.26541
0.173081
-1.75268
-3.41159
-4.73286
-5.68003
-6.25189
-6.47976
-6.42141
-6.15257
-5.757
-5.31649
-4.9018
-4.56564
-4.33825
-4.22612
-4.21359
-4.26698
-4.34061
-4.38364
-4.34705
-4.1896
-3.88231
-3.41083
-2.77556
-1.98943
-1.0738
-0.0528292
1.05284
2.23227
3.48943
4.84666
6.34586
8.04705
10.0242
12.3587
15.1299
18.4055
22.23
26.6153
31.5319
36.904
42.609
48.4803
54.316
59.8905
64.9694
69.3268
72.7605
75.1077
76.2558
76.1499
74.7945
72.252
68.6346
64.0952
58.8141
52.9861
46.8071
40.4629
34.1194
27.9153
21.9578
16.32
11.0402
6.12205
1.53615
-2.77759
-6.90447
-10.9447
-14.9941
-19.1129
-23.2771
-27.3121
-30.8124
-33.0543
-32.9248
-28.8902
-19.0374
-1.21608
26.7045
66.4729
119.025
184.058
259.683
342.269
426.518
505.831
572.936
620.704
643.056
635.819
597.395
529.138
435.364
322.982
200.793
78.5345
-34.1817
-128.922
-199.317
-241.687
-255.33
-242.44
-207.706
-157.628
-99.6752
-41.3811
10.5012
50.6864
75.8173
84.6576
78.0162
58.4353
29.7003
-3.75196
-37.444
-67.4098
-90.6257
-105.276
-110.84
-108.002
-98.4153
-84.3744
-68.4288
-53.0115
-40.1205
-31.0918
-26.4847
-26.0839
-29.0069
-33.8923
-39.1363
-43.1414
-44.5417
-42.3777
-36.1999
-26.0945
-12.6335
3.23777
20.3544
37.5046
53.5949
67.7871
79.5902
88.8986
95.975
101.386
105.901
110.372
115.612
122.288
130.836
141.419
153.915
167.94
182.9
198.063
212.638
225.848
236.998
245.521
251.012
253.229
252.096
247.674
240.14
229.759
216.854
201.789
184.951
166.749
147.603
127.948
108.23
88.9007
70.4065
53.1746
37.5923
23.9849
12.5942
3.55962
-3.09393
-7.45962
-9.74283
-10.2455
-9.34191
-7.44852
-4.9905
-2.36885
0.068779
2.05075
3.39553
4.01625
3.91602
3.1751
1.93192
0.360468
-1.35318
-3.03279
-4.53011
-5.73771
-6.59594
-7.09367
-7.26371
-7.17393
-6.91553
-6.59005
-6.2967
-6.12135
-6.12807
-6.35399
-6.80756
-7.47014
-8.30026
-9.2399
-10.222
-11.1778
-12.0445
-12.77
-13.3178
-13.6679
-13.8177
-13.7789
-13.5749
-13.2363
-12.7965
-12.2871
-11.7351
-11.1595
-10.5711
-9.97197
-9.35703
-8.71631
-8.03787
-7.31099
-6.52925
-5.6929
-4.8105
-3.89919
-2.98389
-2.09525
-1.2667
-0.53097
0.0834723
0.555645
0.874445
1.03997
1.06355
0.966556
0.778115
0.532009
0.263218
0.00447312
-0.216745
-0.38043
-0.475248
-0.498634
-0.45579
-0.357781
-0.218987
-0.0542351
0.124015
0.308117
0.497011
0.697136
0.922348
1.19284
1.53315
1.96943
2.52629
3.2235
4.07294
5.07622
6.22317
7.49156
8.84802
10.2503
11.6503
12.9982
14.2463
15.3534
16.2878
17.0301
17.5745
17.9293
18.1159
18.1671
18.1248
18.037
17.9549
17.9299
18.0113
18.2433
18.6627
19.2963
20.1586
21.2495
22.5527
24.0348
25.6452
27.3173
28.9709
30.5143
31.8484
32.87
33.4763
33.5684
33.0568
31.8667
29.9443
27.2631
23.8306
19.6935
14.9399
9.69953
4.13897
-1.54654
-7.14476
-12.4406
-17.2318
-21.3448
-24.6502
-27.0757
-28.6163
-29.3387
-29.377
-28.917
-28.1649
-27.2961
-26.3841
-25.3121
-23.676
-20.6978
-15.1743
-5.4911
10.269
34.1074
67.7858
112.429
168.113
233.521
305.752
380.343
451.556
512.914
557.924
580.907
577.789
546.756
488.636
406.962
307.684
198.566
88.3406
-14.2503
-101.424
-167.184
-207.927
-222.729
-213.324
-183.757
-139.79
-88.1472
-35.6898
11.3602
48.0662
71.2189
79.5383
73.6307
55.7251
29.2409
-1.74482
-33.0577
-60.9419
-82.4727
-95.8252
-100.379
-96.6625
-86.1615
-71.0247
-53.7189
-36.6787
-21.9968
-11.19
-5.06233
-3.67476
-6.41228
-12.1323
-19.3658
-26.5414
-32.1993
-35.1696
-34.6932
-30.4756
-22.6707
-11.8043
1.34686
15.9004
31.0131
46.0056
60.4492
74.2042
87.4085
100.419
113.719
127.809
143.096
159.796
177.875
197.023
216.675
236.06
254.293
270.466
283.745
293.457
299.145
300.6
297.85
291.138
280.859
267.509
251.611
233.675
214.151
193.421
171.8
149.552
126.926
104.18
81.6118
59.5696
38.455
18.7049
0.762668
-14.9612
-28.1314
-38.5265
-46.0684
-50.8371
-53.0682
-53.1334
-51.5058
-48.7143
-45.2929
-41.7316
-38.4333
-35.6841
-33.6372
-32.3133
-31.6166
-31.3613
-31.3079
-31.2012
-30.8068
-29.9421
-28.497
-26.4439
-23.8366
-20.798
-17.5012
-14.145
-10.9285
-8.02755
-5.57633
-3.6555
-2.28794
-1.44185
-1.04022
-0.974799
-1.12235
-1.36099
-1.58445
-1.71279
-1.69847
-1.52757
-1.21649
-0.805104
-0.347695
0.0969715
0.474926
0.744519
0.881362
0.880329
0.754664
0.532655
0.252566
-0.0432908
-0.314463
-0.527462
-0.659459
-0.700234
-0.652295
-0.529333
-0.353382
-0.151186
0.0496817
0.22442
0.353891
0.426494
0.438895
0.395629
0.307744
0.190756
0.0622444
-0.0605664
-0.162937
-0.234209
-0.268723
-0.26601
-0.230318
-0.16958
-0.0940393
-0.0147214
0.0580346
0.1158
0.152916
0.166911
0.158477
0.131048
0.0900798
0.0421525
-0.00597721
-0.0482409
-0.0799409
-0.0981735
-0.101947
-0.0919848
-0.0702511
-0.0392498
-0.00119791
0.0428413
0.0937892
0.15531
0.234496
0.342488
0.495028
0.712873
1.02195
1.4532
2.04209
2.82806
3.85402
5.16632
6.81485
8.85305
11.3368
14.3215
17.8561
21.975
26.6862
31.9593
37.7137
43.8094
50.0432
56.153
61.8295
66.7377
70.5454
72.9569
73.7469
72.7913
70.089
65.7726
60.1037
53.4535
46.2708
39.0395
32.2312
26.2597
21.4405
17.962
15.8708
15.0728
15.3477
16.3775
17.7837
19.1709
20.1749
20.5135
20.0398
18.7988
17.0825
15.4805
14.9125
16.6283
22.1555
33.1782
51.3388
77.9696
113.782
158.558
210.909
268.162
326.416
380.811
425.978
456.642
468.288
457.792
423.932
367.681
292.235
202.759
105.879
8.98794
-80.5566
-156.222
-212.985
-247.832
-259.996
-250.939
-224.069
-184.248
-137.164
-88.6513
-44.0375
-7.60326
17.7935
30.8957
32.0223
22.8605
6.11641
-14.9202
-36.8373
-56.5295
-71.5451
-80.3171
-82.2621
-77.7465
-67.9385
-54.5745
-39.6778
-25.2682
-13.1004
-4.46006
-0.0387259
0.105361
-3.49722
-9.84177
-17.6138
-25.3783
-31.7681
-35.6481
-36.238
-33.18
-26.5498
-16.8121
-4.73153
8.7473
22.6323
36.0124
48.1657
58.6354
67.2661
74.1991
79.8291
84.7314
89.5689
94.9928
101.548
109.599
119.276
130.456
142.774
155.66
168.399
180.202
190.279
197.912
202.508
203.646
201.1
194.846
185.055
172.077
156.405
138.649
119.492
99.6506
79.8358
60.7154
42.8784
26.8067
12.853
1.22738
-8.00624
-14.9233
-19.7222
-22.6988
-24.2149
-24.6624
-24.4273
-23.8569
-23.2324
-22.751
-22.5169
-22.5444
-22.7695
-23.0704
-23.2923
-23.2756
-22.8807
-22.0096
-20.6205
-18.733
-16.426
-13.827
-11.0957
-8.40411
-5.91583
-3.76768
-2.05543
-0.825528
-0.0734773
0.251466
0.236344
-0.00898405
-0.366805
-0.725939
-0.993763
-1.10458
-1.02367
-0.746998
-0.297097
0.283847
0.942524
1.62329
2.27608
2.86244
3.35919
3.75946
4.0713
4.31431
4.51508
4.70208
4.90087
5.13023
5.39965
5.70854
6.0469
6.39759
6.73945
7.05103
7.31397
7.51569
7.65069
7.72031
7.73105
7.69179
7.61053
7.49145
7.33289
7.12676
6.8596
6.51516
6.07798
5.53743
4.89134
4.14865
3.33037
2.46883
1.60499
0.784432
0.0523452
-0.551567
-0.997699
-1.26995
-1.36749
-1.30469
-1.10926
-0.818871
-0.476704
-0.126646
0.19141
0.445493
0.614322
0.688629
0.670948
0.573889
0.416952
0.221917
0.00681986
-0.221393
-0.47519
-0.795029
-1.25701
-1.97805
-3.11686
-4.86897
-7.45476
-11.0998
-16.0086
-22.3331
-30.1406
-39.3837
-49.8788
-61.2974
-73.1734
-84.9284
-95.9154
-105.475
-113
-118.004
-120.172
-119.408
-115.853
-109.879
-102.058
-93.1111
-83.8354
-75.0291
-67.4118
-61.5559
-57.8335
-56.3864
-57.1205
-59.7255
-63.7167
-68.494
-73.411
-77.8447
-81.2613
-83.2677
-83.6459
-82.3667
-79.5816
-75.5956
-70.8218
-65.7221
-60.7372
-56.2086
-52.2955
-48.8945
-45.5682
-41.4991
-35.4844
-25.9932
-11.3003
10.2972
40.1918
79.1379
126.935
182.188
242.199
303.046
359.871
407.349
440.295
454.33
446.5
415.756
363.217
292.163
207.756
116.513
25.6111
-57.8946
-127.834
-179.566
-210.424
-219.92
-209.683
-183.16
-145.12
-101.04
-56.4513
-16.3295
15.4046
36.2184
45.1116
42.5687
30.3445
11.1219
-11.9032
-35.453
-56.562
-72.8902
-82.9258
-86.0655
-82.5752
-73.4496
-60.1996
-44.6027
-28.4499
-13.3236
-0.429157
9.50462
16.251
20.0434
21.4783
21.3821
20.6642
20.1756
20.5916
22.3333
25.5319
30.04
35.4812
41.3315
47.0157
52.0072
55.9153
58.5498
59.9541
60.4028
60.3672
60.4516
61.3112
63.5636
67.7031
74.0326
82.6182
93.2742
105.578
118.909
132.515
145.582
157.307
166.968
173.974
177.901
178.503
175.71
169.616
160.449
148.554
134.361
118.369
101.125
83.2075
65.2079
47.7124
31.2774
16.4032
3.50653
-7.10606
-15.2589
-20.92
-24.2012
-25.3469
-24.7088
-22.711
-19.8083
-16.4427
-13.0037
-9.7959
-7.01893
-4.76117
-3.00707
-1.65695
-0.555905
0.472553
1.5927
2.92739
4.53708
6.40965
8.46182
10.5513
12.4979
14.109
15.2077
15.6575
15.3816
14.3743
12.7023
10.4979
7.94358
5.2507
2.63623
0.298973
-1.60075
-2.95627
-3.72293
-3.91912
-3.62044
-2.94814
-2.05359
-1.10075
-0.248869
0.362953
0.627683
0.477966
-0.110992
-1.12308
-2.50683
-4.18397
-6.05962
-8.03315
-10.0083
-11.9021
-13.6505
-15.2131
-16.573
-17.736
-18.7268
-19.5838
-20.3536
-21.0856
-21.8265
-22.617
-23.4884
-24.4621
-25.5485
-26.748
-28.0516
-29.4418
-30.8933
-32.3732
-33.8415
-35.2511
-36.5481
-37.6737
-38.5657
-39.1622
-39.4048
-39.2439
-38.6419
-37.5778
-36.049
-34.0732
-31.6879
-28.9486
-25.9267
-22.7054
-19.3761
-16.0339
-12.7729
-9.68189
-6.83845
-4.30425
-2.11952
-0.298207
1.17603
2.35223
3.31236
4.16888
5.05915
6.13672
7.55962
9.47635
12.0107
15.2467
19.2158
23.8878
29.1669
34.8937
40.8545
46.7946
52.4366
57.5012
61.7277
64.8933
66.8289
67.4317
66.6715
64.5927
61.311
57.0044
51.9009
46.2618
40.3632
34.476
28.8466
23.6792
19.1217
15.256
12.0934
9.57708
7.59009
5.97134
4.5396
3.12691
1.62258
0.0273269
-1.48562
-2.51026
-2.36216
-0.0657545
5.60517
16.0176
32.4944
56.0661
87.1894
125.482
169.532
216.831
263.885
306.492
340.186
360.779
364.931
350.656
317.683
267.611
203.822
131.164
55.4299
-17.2746
-81.2177
-131.67
-165.401
-180.991
-178.908
-161.369
-131.994
-95.3249
-56.255
-19.4638
11.09
32.5521
43.3982
43.488
33.9516
16.9396
-4.72516
-27.9414
-49.7199
-67.5234
-79.5198
-84.7285
-83.0505
-75.1917
-62.4978
-46.7304
-29.8163
-13.6022
0.354982
10.9423
17.5757
20.2133
19.3028
15.6758
10.4087
4.66906
-0.431276
-3.96012
-5.25317
-3.9602
-0.0485462
6.2315
14.4107
23.8828
33.9928
44.1195
53.7432
62.4922
70.1654
76.7291
82.294
87.0761
91.3485
95.3914
99.4479
103.689
108.192
112.934
117.799
122.594
127.072
130.964
133.997
135.923
136.531
135.659
133.195
129.082
123.312
115.935
107.05
96.8178
85.4579
73.2531
60.5457
47.7282
35.2265
23.4752
12.8883
3.82588
-3.43664
-8.7344
-12.0298
-13.4172
-13.1148
-11.4438
-8.79741
-5.60333
-2.28334
0.784448
3.29697
5.04775
5.93654
5.96663
5.23078
3.88826
2.13632
0.180041
-1.79517
-3.64497
-5.27865
-6.66157
-7.80769
-8.76426
-9.59147
-10.341
-11.0374
-11.6656
-12.1668
-12.4443
-12.3776
-11.8431
-10.7387
-9.00668
-6.65257
-3.75526
-0.467167
2.99644
6.37772
9.40356
11.816
13.4022
14.0187
13.6089
12.2091
9.94436
7.01411
3.66964
0.18667
-3.16381
-6.14262
-8.5646
-10.3135
-11.3486
-11.7021
-11.4701
-10.7957
-9.85024
-8.81196
-7.8464
-7.08998
-6.63843
-6.54088
-6.79982
-7.3763
-8.19939
-9.17833
-10.2156
-11.2197
-12.1151
-12.85
-13.3995
-13.7651
-13.9709
-14.0566
-14.0692
-14.0541
-14.0469
-14.0676
-14.1166
-14.1747
-14.2054
-14.1602
-13.9852
-13.6295
-13.0526
-12.2304
-11.1603
-9.86318
-8.38223
-6.77997
-5.13252
-3.52239
-2.03063
-0.729043
0.326523
1.10105
1.583
1.78438
1.7385
1.49558
1.11711
0.669605
0.218772
-0.175322
-0.461398
-0.598272
-0.554377
-0.305861
0.166143
0.878322
1.84732
3.09056
4.62532
6.46612
8.62067
11.085
13.8389
16.842
20.0317
23.3239
26.6152
29.7887
32.7206
35.2887
37.3815
38.9059
39.7948
40.0113
39.5513
38.4426
36.7413
34.5264
31.8919
28.939
25.768
22.4714
19.1291
15.8045
12.5442
9.37832
6.32289
3.3841
0.565252
-2.12154
-4.63641
-6.883
-8.66932
-9.66088
-9.33389
-6.94195
-1.51416
8.09681
23.1023
44.5978
73.3287
109.433
152.208
199.954
249.945
298.561
341.586
374.649
393.747
395.792
379.072
343.584
291.148
225.3
150.963
73.9347
0.257876
-64.4345
-115.526
-149.89
-166.177
-164.882
-148.201
-119.687
-83.7821
-45.2613
-8.68792
22.0743
44.2281
56.2564
57.9686
50.3887
35.5108
15.9641
-5.36478
-25.7021
-42.7064
-54.7026
-60.8109
-60.9657
-55.8319
-46.6411
-34.9748
-22.5268
-10.8772
-1.30392
5.34755
8.72713
8.97366
6.6476
2.61768
-2.07937
-6.38506
-9.35229
-10.2497
-8.62768
-4.34123
2.4667
11.4156
21.9602
33.4737
45.3295
56.9711
67.9632
78.0205
87.0122
94.948
101.947
108.199
113.921
119.319
124.557
129.735
134.877
139.938
144.806
149.322
153.3
156.538
158.838
160.02
159.922
158.416
155.404
150.82
144.637
136.869
127.575
116.866
104.911
91.9387
78.24
64.1579
50.0756
36.3955
23.5143
11.7948
1.53856
-7.03731
-13.816
-18.7877
-22.0459
-23.7733
-24.22
-23.6757
-22.4406
-20.7965
-18.9841
-17.1859
-15.518
-14.0301
-12.7128
-11.5109
-10.3406
-9.10698
-7.72166
-6.11677
-4.25507
-2.13517
0.208061
2.70758
5.27156
7.7932
10.1615
12.2717
14.035
15.3855
16.2849
16.7247
16.7251
16.3315
15.609
14.6355
13.4941
12.2652
11.0195
9.81274
8.68237
7.6461
6.70303
5.83653
5.01851
4.21451
3.38902
2.51039
1.55483
0.509253
-0.627421
-1.84448
-3.12109
-4.42927
-5.73764
-7.01561
-8.23737
-9.38515
-10.4514
-11.4394
-12.3627
-13.2426
-14.1053
-14.9781
-15.8855
-16.8465
-17.8716
-18.9627
-20.1131
-21.309
-22.5319
-23.7609
-24.9745
-26.1517
-27.2714
-28.3114
-29.2459
-30.043
-30.662
-31.0533
-31.1584
-30.9135
-30.2541
-29.123
-27.4779
-25.2999
-22.6009
-19.4276
-15.8634
-12.0249
-8.0554
-4.11437
-0.364567
3.04174
5.97585
8.34353
10.0923
11.2142
11.7443
11.7538
11.3411
10.6192
9.70352
8.69958
7.69358
6.74578
5.88773
5.12327
4.43288
3.78053
3.12197
2.4133
1.61872
0.716591
-0.296812
-1.40589
-2.57673
-3.76001
-4.89528
-5.91601
-6.75447
-7.34598
-7.63189
-7.56112
-7.09052
-6.18445
-4.81454
-2.96022
-0.611015
2.22947
5.5379
9.26474
13.3284
17.6115
21.9604
26.1901
30.094
33.4579
36.0787
37.7838
38.449
38.014
36.4914
33.9681
30.5994
26.5955
22.2013
17.6736
13.2561
9.15726
5.53175
2.46847
-0.0146371
-1.96856
-3.50495
-4.78259
-5.98945
-7.32087
-8.95327
-11.012
-13.5319
-16.4091
-19.3474
-21.8027
-22.9405
-21.6204
-16.4307
-5.78882
11.8811
37.8989
73.0327
117.2
169.224
226.706
286.062
342.75
391.689
427.809
446.683
445.132
421.718
377.038
313.779
236.496
151.156
64.5037
-16.6778
-86.3022
-139.62
-173.686
-187.597
-182.482
-161.263
-128.212
-88.3915
-47.0333
-8.9506
21.9581
43.057
53.143
52.4334
42.3883
25.4033
4.42295
-17.4715
-37.4475
-53.2351
-63.3391
-67.1327
-64.8352
-57.3872
-46.2509
-33.1672
-19.9052
-8.03479
1.24979
7.24133
9.75717
9.10692
6.00155
1.4214
-3.53591
-7.80676
-10.493
-10.9593
-8.88794
-4.28808
2.53693
11.0564
20.6017
30.4659
39.9997
48.6923
56.2286
62.5162
67.6813
72.035
76.0167
80.1215
84.8234
90.5038
97.3934
105.537
114.784
124.803
135.118
145.168
154.366
162.163
168.1
171.848
173.223
172.185
168.821
163.309
155.883
146.802
136.32
124.672
112.076
98.7413
84.8855
70.7528
56.6283
42.8419
29.761
17.7706
7.24293
-1.4981
-8.21328
-12.7788
-15.2061
-15.6481
-14.3887
-11.8178
-8.39458
-4.60228
-0.901726
2.31176
4.74262
6.21672
6.68841
6.2328
5.02511
3.31019
1.36667
-0.529738
-2.13913
-3.283
-3.85998
-3.85055
-3.31134
-2.36051
-1.15697
0.12352
1.3119
2.26618
2.88615
3.12111
2.97013
2.47554
1.71117
0.76748
-0.263855
-1.30372
-2.29573
-3.21165
-4.05168
-4.84011
-5.61743
-6.43039
-7.3219
-8.32218
-9.44256
-10.6727
-11.9811
-13.3195
-14.6288
-15.8473
-16.9184
-17.7977
-18.4585
-18.8942
-19.1185
-19.1631
-19.073
-18.9006
-18.6994
-18.5172
-18.3915
-18.3455
-18.3864
-18.5062
-18.6835
-18.8878
-19.084
-19.2369
-19.3162
-19.2991
-19.1725
-18.9335
-18.5881
-18.1492
-17.6335
-17.058
-16.4378
-15.7827
-15.0965
-14.3761
-13.6125
-12.7926
-11.9019
-10.9276
-9.86201
-8.70578
-7.46984
-6.17646
-4.85875
-3.55854
-2.32296
-1.20003
-0.233732
0.540656
1.10048
1.43831
1.56296
1.49877
1.28341
0.964714
0.596898
0.237038
-0.0579487
-0.233467
-0.23864
-0.0271965
0.441722
1.20245
2.28109
3.69318
5.44094
7.51054
9.86999
12.4683
15.2363
18.0897
20.9337
23.6697
26.2026
28.4486
30.3421
31.8408
32.9294
33.6198
33.9497
33.9783
33.7809
33.4415
33.0463
32.6757
32.3995
32.2712
32.3263
32.58
33.0284
33.6488
34.4016
35.2314
36.0686
36.8302
37.4214
37.738
37.6711
37.1128
35.9652
34.15
31.6196
28.3658
24.4277
19.8937
14.8997
9.62107
4.25913
-0.976624
-5.88945
-10.3171
-14.1515
-17.3537
-19.9596
-22.0725
-23.8391
-25.4057
-26.8534
-28.1164
-28.894
-28.5695
-26.1616
-20.3316
-9.46901
8.12979
33.9944
69.1506
113.775
166.899
226.231
288.157
347.951
400.204
439.414
460.674
460.358
436.689
390.101
323.335
241.233
150.259
57.8053
-28.6257
-102.254
-157.757
-191.816
-203.413
-193.839
-166.432
-126.09
-78.6274
-30.0645
14.06
49.2665
72.5452
82.5588
79.6318
65.5443
43.172
16.0325
-12.2013
-38.1557
-59.1271
-73.3317
-80.015
-79.4233
-72.6528
-61.4103
-47.7234
-33.6429
-20.9753
-11.0766
-4.72757
-2.09582
-2.783
-5.93981
-10.4281
-15.0036
-18.4942
-19.9509
-18.7546
-14.6696
-7.84236
1.2496
11.8878
23.2262
34.4124
44.7001
53.5393
60.6347
65.9671
69.7781
72.5212
74.7895
77.2297
80.4539
84.9612
91.0778
98.921
108.39
119.185
130.843
142.79
154.406
165.076
174.249
181.47
186.405
188.849
188.72
186.044
180.935
173.57
164.175
153.004
140.334
126.457
111.688
96.3563
80.8169
65.4421
50.6167
36.7236
24.1252
13.1401
4.01921
-3.07621
-8.09099
-11.0841
-12.2266
-11.7888
-10.1184
-7.60987
-4.67085
-1.68728
1.00796
3.15975
4.60633
5.28452
5.22451
4.53539
3.38387
1.96871
0.494404
-0.85307
-1.92585
-2.62732
-2.91797
-2.81398
-2.37952
-1.71418
-0.937577
-0.173154
0.466823
0.89344
1.04936
0.912492
0.495226
-0.160338
-0.990125
-1.91762
-2.86394
-3.75719
-4.54014
-5.17548
-5.64828
-5.96567
-6.15404
-6.25436
-6.31622
-6.39148
-6.52829
-6.76606
-7.13191
-7.6389
-8.28585
-9.05861
-9.93234
-10.8742
-11.8457
-12.8056
-13.7109
-14.5184
-15.1857
-15.6725
-15.9417
-15.9613
-15.7073
-15.1658
-14.3359
-13.232
-11.8846
-10.3399
-8.65867
-6.91181
-5.17625
-3.52888
-2.0405
-0.77011
0.239939
0.96714
1.41017
1.58816
1.53802
1.31008
0.962716
0.556367
0.147823
-0.214764
-0.495577
-0.673239
-0.741226
-0.706658
-0.587755
-0.410348
-0.203934
0.002239
0.182609
0.317912
0.396751
0.416045
0.380437
0.300823
0.192299
0.0718182
-0.0441143
-0.141435
-0.209994
-0.244379
-0.244061
-0.212913
-0.158221
-0.0893481
-0.0162318
0.0521154
0.108939
0.150792
0.178218
0.196031
0.213209
0.242445
0.299446
0.402084
0.569486
0.821213
1.17665
1.65476
2.27432
3.05468
4.01696
5.1854
6.58848
8.25926
10.2344
12.5515
15.2447
18.339
21.8429
25.7419
29.9928
34.5205
39.2185
43.9526
48.5689
52.9051
56.8028
60.1209
62.7455
64.5983
65.639
65.8633
65.297
63.9869
61.9916
59.373
56.1909
52.5018
48.3604
43.8255
38.9655
33.8646
28.6259
23.371
18.2344
13.3535
8.85372
4.83129
1.33576
-1.64391
-4.18519
-6.42462
-8.53233
-10.6651
-12.897
-15.133
-17.0151
-17.841
-16.5175
-11.5774
-1.28173
16.1808
42.4045
78.4168
124.322
179.008
239.978
303.386
364.276
417.043
456.058
476.372
474.395
448.459
399.15
329.375
244.123
149.972
54.3738
-35.155
-111.855
-170.437
-207.609
-222.345
-215.881
-191.453
-153.807
-108.575
-61.5861
-18.2014
17.2372
41.7989
54.1558
54.5685
44.6858
27.1992
5.40604
-17.255
-37.6401
-53.2563
-62.5027
-64.7791
-60.4621
-50.7641
-37.5036
-22.8225
-8.89087
2.3671
9.49184
11.6333
8.61001
0.884588
-10.5352
-24.2499
-38.654
-52.1295
-63.2238
-70.7933
-74.0998
-72.8521
-67.1948
-57.6493
-45.0192
-30.2741
-14.4264
1.58357
16.9832
31.2339
44.0652
55.4738
65.6923
75.1325
84.3116
93.7706
103.994
115.339
127.982
141.887
156.797
172.251
187.624
202.179
215.138
225.752
233.369
237.491
237.818
234.269
226.987
216.319
202.783
187.022
169.748
151.688
133.534
115.897
99.2761
84.0445
70.4385
58.5658
48.4208
39.9053
32.8551
27.0654
22.3156
18.3912
15.0998
12.2823
9.81889
7.62932
5.66933
3.92377
2.39776
1.1072
0.0697651
-0.702665
-1.20948
-1.46429
-1.49538
-1.34385
-1.05994
-0.698346
-0.31291
0.0482314
0.34672
0.556702
0.666011
0.675776
0.598623
0.455798
0.273636
0.0798462
-0.0999453
-0.245007
-0.341415
-0.382938
-0.370888
-0.313079
-0.222116
-0.113283
-0.00234471
0.0964643
0.172039
0.217438
0.230282
0.21255
0.169844
0.110292
0.043249
-0.0220094
-0.0774473
-0.11716
-0.137949
-0.139613
-0.125071
-0.100503
-0.0756649
-0.0644918
-0.0859345
-0.164817
-0.332349
-0.625855
-1.08732
-1.76056
-2.68693
-3.90008
-5.42022
-7.24884
-9.36471
-11.7221
-14.2514
-16.8632
-19.4542
-21.9162
-24.1451
-26.0506
-27.5647
-28.6478
-29.2924
-29.523
-29.3934
-28.9807
-28.3775
-27.6828
-26.992
-26.3888
-25.9374
-25.678
-25.6242
-25.7639
-26.0616
-26.4637
-26.9052
-27.3167
-27.6316
-27.7925
-27.7564
-27.4979
-27.0101
-26.3036
-25.4039
-24.3465
-23.172
-21.9204
-20.6259
-19.313
-17.9945
-16.6706
-15.3317
-13.9615
-12.5425
-11.0618
-9.51564
-7.91402
-6.28197
-4.65893
-3.09543
-1.64762
-0.370224
0.690973
1.50609
2.06661
2.38836
2.51162
2.49815
2.42549
2.3792
2.44412
2.69564
3.19215
3.96952
5.03819
6.38315
7.96667
9.73351
11.6178
13.5511
15.4698
17.3227
19.0758
20.715
22.2466
23.6942
25.0939
26.4868
27.9114
29.3955
30.9494
32.5615
34.1958
35.7939
37.2789
38.5624
39.5533
40.1677
40.3374
40.0177
39.1922
37.8746
36.1068
33.9542
31.4985
28.8293
26.0346
23.193
20.3656
17.5909
14.8796
12.2137
9.54695
6.81198
3.9352
0.863844
-2.39188
-5.70028
-8.73627
-10.9053
-11.2797
-8.56975
-1.15634
12.7921
35.1075
67.321
110.305
163.912
226.682
295.689
366.594
433.915
491.535
533.373
554.131
550.03
519.399
463.027
384.23
288.583
183.377
76.8423
-22.741
-107.941
-172.959
-214.203
-230.592
-223.549
-196.708
-155.381
-105.859
-54.6517
-7.74416
30.0185
55.3715
66.8469
64.761
50.9927
28.5972
1.31805
-26.9349
-52.5737
-72.7308
-85.5274
-90.1926
-87.0323
-77.2692
-62.7862
-45.8152
-28.6164
-13.1891
-1.04656
6.92364
10.5048
10.1068
6.64709
1.37992
-4.29845
-9.042
-11.7199
-11.5364
-8.09607
-1.41067
8.14502
19.9186
33.091
46.7963
60.2355
72.769
83.9803
93.7043
102.021
109.217
115.726
122.048
128.674
136.01
144.319
153.683
163.989
174.944
186.102
196.911
206.771
215.088
221.324
225.038
225.907
223.744
218.493
210.218
199.09
185.372
169.4
151.578
132.369
112.287
91.8922
71.7732
52.529
34.7384
18.924
5.51251
-5.20345
-13.0971
-18.2265
-20.8379
-21.3496
-20.3182
-18.3887
-16.2342
-14.4915
-13.7002
-14.2519
-16.355
-20.0201
-25.0646
-31.1386
-37.7651
-44.3926
-50.4525
-55.4158
-58.8433
-60.425
-60.0052
-57.592
-53.35
-47.5793
-40.6828
-33.1246
-25.3863
-17.9227
-11.1242
-5.28661
-0.592979
2.8926
5.21861
6.52891
7.03709
6.99567
6.664
6.27841
6.02793
6.03783
6.36254
6.98775
7.84097
8.80843
9.75572
10.5493
11.0759
11.2579
11.062
10.5019
9.63348
8.54507
7.34304
6.13607
5.01974
4.06372
3.30323
2.73586
2.32376
2.00086
1.68383
1.28501
0.725672
-0.0525066
-1.07912
-2.35097
-3.83271
-5.46192
-7.15773
-8.83166
-10.399
-11.7892
-12.9536
-13.8701
-14.5434
-15.0016
-15.2901
-15.4627
-15.5723
-15.6628
-15.7613
-15.8752
-15.9905
-16.0744
-16.0806
-15.9562
-15.6492
-15.1167
-14.331
-13.2844
-11.9917
-10.4896
-8.83434
-7.09675
-5.35607
-3.69278
-2.18155
-0.884715
0.152827
0.906874
1.37512
1.57618
1.54664
1.33655
1.00389
0.608666
0.207197
-0.152678
-0.435103
-0.618039
-0.693316
-0.66494
-0.545948
-0.354225
-0.107867
0.179257
0.501143
0.861918
1.27638
1.76866
2.36906
3.10954
4.01832
5.11451
6.40364
7.87483
9.50055
11.2392
13.0412
14.8568
16.6473
18.3944
20.1095
21.8378
23.658
25.675
28.0065
30.7655
34.0393
37.8692
42.2337
47.0375
52.1095
57.2094
62.0437
66.2891
69.6215
71.7462
72.428
71.5164
68.9627
64.8293
59.2873
52.6041
45.1213
37.2256
29.3149
21.7643
14.8939
8.94337
4.05475
0.265104
-2.49014
-4.36447
-5.57941
-6.39718
-7.08798
-7.89194
-8.97453
-10.374
-11.9399
-13.2656
-13.6231
-11.9155
-6.67087
3.89903
21.7516
48.7698
86.4339
135.443
195.351
264.286
338.834
414.14
484.255
542.703
583.219
600.535
591.129
553.791
489.927
403.55
300.924
189.931
79.2259
-22.7087
-108.476
-172.538
-211.744
-225.569
-216.031
-187.315
-145.174
-96.1757
-46.9135
-3.26631
30.198
50.6187
57.0029
50.1524
32.3834
7.09189
-21.7696
-50.2321
-74.7998
-92.8328
-102.787
-104.292
-98.0797
-85.7707
-69.5797
-51.9665
-35.2912
-21.5147
-11.9779
-7.28068
-7.26754
-11.1101
-17.4689
-24.7049
-31.112
-35.1372
-35.5643
-31.641
-23.1392
-10.3465
6.00275
24.8455
44.9371
65.0096
83.9204
100.775
115.015
126.455
135.277
141.985
147.314
152.126
157.289
163.564
171.511
181.42
193.278
206.778
221.35
236.232
250.553
263.421
274.002
281.597
285.681
285.933
282.238
274.665
263.447
248.935
231.573
211.856
190.313
167.481
143.9
120.095
96.5773
73.8313
52.3048
32.3961
14.4383
-1.31611
-14.709
-25.6856
-34.2969
-40.6951
-45.1201
-47.8798
-49.3242
-49.8175
-49.7099
-49.3124
-48.8769
-48.5833
-48.5351
-48.7627
-49.2335
-49.8673
-50.5553
-51.1798
-51.6316
-51.8255
-51.7101
-51.2726
-50.5382
-49.5646
-48.4329
-47.2358
-46.0655
-45.0019
-44.1031
-43.3989
-42.8876
-42.5372
-42.2885
-42.0623
-41.7671
-41.3076
-40.5924
-39.5415
-38.0912
-36.1995
-33.8487
-31.0485
-27.8373
-24.2821
-20.4772
-16.5406
-12.6074
-8.82162
-5.32612
-2.25095
0.297423
2.24576
3.56076
4.25222
4.37186
4.0081
3.2772
2.3118
1.24827
0.214282
-0.681949
-1.35972
-1.7703
-1.89776
-1.75609
-1.38365
-0.835609
-0.175568
0.532482
1.23103
1.87407
2.42989
2.88164
3.22606
3.4706
3.62987
3.72173
3.76383
3.7708
3.75253
3.71338
3.65249
3.56487
3.44297
3.27862
3.0648
2.7973
2.47585
2.10475
1.69293
1.25339
0.802338
0.357806
-0.0617757
-0.43912
-0.75951
-1.01201
-1.19033
-1.29331
-1.32489
-1.29363
-1.21187
-1.0945
-0.957657
-0.817359
-0.688304
-0.582951
-0.510965
-0.479075
-0.49129
-0.549399
-0.653579
-0.802961
-0.995972
-1.23033
-1.50256
-1.80712
-2.13505
-2.47257
-2.7997
-3.08948
-3.30795
-3.41515
-3.36707
-3.11839
-2.62549
-1.84937
-0.757929
0.672536
2.45673
4.60056
7.10169
9.95024
13.1289
16.6125
20.3662
24.3434
28.4827
32.7049
36.9113
40.9829
44.782
48.1562
50.9448
52.9876
54.1354
54.2618
53.2759
51.1336
47.8469
43.4902
38.2011
32.1756
25.6572
18.9204
12.2495
5.91615
0.155515
-4.85338
-9.00325
-12.267
-14.698
-16.4211
-17.6129
-18.4703
-19.1651
-19.784
-20.2545
-20.2623
-19.1712
-15.9639
-9.22929
2.77775
21.9831
50.2387
88.9809
138.844
199.29
268.335
342.447
416.671
484.999
540.965
578.394
592.203
579.128
538.271
471.371
382.743
278.89
167.836
58.2602
-41.4476
-124.087
-184.39
-219.515
-229.242
-215.853
-183.73
-138.736
-87.4621
-36.4447
8.54928
43.0944
64.4719
71.8042
65.9606
49.266
25.0662
-2.78512
-30.447
-54.5559
-72.5823
-83.0471
-85.584
-80.8578
-70.3614
-56.1316
-40.4251
-25.4017
-12.8528
-4.00393
0.589231
1.04956
-1.90052
-7.0867
-13.0736
-18.3704
-21.6246
-21.7799
-18.1834
-10.6323
0.638599
15.0223
31.6446
49.4915
67.5426
84.8913
100.84
114.959
127.108
137.413
146.219
154.012
161.336
168.702
176.521
185.043
194.335
204.275
214.577
224.829
234.551
243.245
250.448
255.771
258.92
259.708
258.043
253.908
247.345
238.429
227.255
213.931
198.585
181.379
162.531
142.337
121.183
99.5545
78.0223
57.22
37.8014
20.389
5.51886
-6.41242
-15.1892
-20.802
-23.4513
-23.5295
-21.5825
-18.2554
-14.2288
-10.1536
-6.59172
-3.96883
-2.54526
-2.40599
-3.47051
-5.51987
-8.23654
-11.2514
-14.1924
-16.7278
-18.6015
-19.6552
-19.8366
-19.195
-17.8651
-16.0414
-13.9498
-11.8172
-9.84462
-8.18607
-6.9357
-6.12307
-5.71694
-5.6361
-5.76516
-5.97301
-6.13146
-6.13175
-5.89717
-5.39059
-4.61642
-3.61722
-2.46589
-1.25458
-0.0820809
0.958604
1.7911
2.36349
2.65251
2.66377
2.42828
1.99619
1.42852
0.788466
0.133309
-0.491839
-1.05773
-1.55174
-1.97584
-2.34227
-2.66795
-2.96851
-3.25327
-3.52179
-3.76283
-3.95563
-4.07336
-4.08802
-3.97589
-3.72266
-3.3272
-2.80343
-2.18
-1.49773
-0.805237
-0.153419
0.41041
0.847939
1.13408
1.25945
1.23091
1.07006
0.810058
0.491303
0.156409
-0.154684
-0.408959
-0.583437
-0.666854
-0.65982
-0.573552
-0.427471
-0.246039
-0.0553037
0.120405
0.261244
0.353793
0.392015
0.377211
0.317082
0.224121
0.113606
0.0015224
-0.0972896
-0.170511
-0.209097
-0.207355
-0.162437
-0.0733915
0.0599715
0.238208
0.463163
0.738621
1.07067
1.46793
1.94173
2.50661
3.18114
3.98934
4.96234
6.14021
7.57297
9.32031
11.449
14.0276
17.1185
20.767
24.9894
29.7611
35.0065
40.5921
46.3256
51.9615
57.213
61.7713
65.3295
67.6103
68.394
67.5436
65.024
60.9132
55.4019
48.7822
41.4254
33.751
26.1899
19.1457
12.9594
7.88027
4.04656
1.47835
0.0824472
-0.331714
-0.0274829
0.688947
1.50068
2.11186
2.27801
1.83567
0.733848
-0.929561
-2.86407
-4.53699
-5.12481
-3.48006
1.86557
12.6374
30.6726
57.6851
94.9515
142.954
201.04
267.172
337.834
408.167
472.328
524.068
557.465
567.691
551.725
508.872
441.019
352.562
250.012
141.326
35.0463
-60.6373
-138.772
-194.367
-224.867
-230.326
-213.26
-178.23
-131.202
-78.7928
-27.4822
17.0916
50.6877
70.8058
76.7955
69.7372
52.1278
27.4295
-0.453548
-27.6979
-51.0192
-68.0159
-77.3679
-78.8781
-73.37
-62.4658
-48.2883
-33.1286
-19.1273
-8.00719
-0.886585
1.8111
0.348789
-4.42099
-11.2205
-18.5515
-24.9103
-28.9845
-29.8074
-26.8537
-20.0685
-9.83237
3.1287
17.8712
33.3792
48.7049
63.0868
76.0301
87.3413
97.1174
105.694
113.567
121.291
129.39
138.269
148.157
159.079
170.853
183.123
195.404
207.142
217.778
226.792
233.753
238.334
240.325
239.62
236.208
230.149
221.56
210.599
197.463
182.385
165.644
147.569
128.544
109.004
89.4288
70.3204
52.1766
35.4592
20.5602
7.7725
-2.73313
-10.9196
-16.8827
-20.8379
-23.0955
-24.0282
-24.0345
-23.5009
-22.7704
-22.1159
-21.7251
-21.6951
-22.0362
-22.6855
-23.5248
-24.4025
-25.1551
-25.627
-25.6861
-25.2342
-24.2133
-22.6064
-20.4342
-17.7496
-14.6303
-11.17
-7.47045
-3.63414
0.241471
4.0681
7.76874
11.2781
14.5413
17.512
20.15
22.4184
24.2829
25.711
26.6734
27.1466
27.116
26.5805
25.5553
24.0747
22.1932
19.9835
17.5334
14.9399
12.3026
9.71537
7.25988
4.99886
2.97216
1.1949
-0.341694
-1.66704
-2.8259
-3.87179
-4.85977
-5.83963
-6.85012
-7.91483
-9.04025
-10.2158
-11.4159
-12.6038
-13.7356
-14.7659
-15.6519
-16.3576
-16.8563
-17.1323
-17.181
-17.0082
-16.6284
-16.0628
-15.3371
-14.4797
-13.5196
-12.4858
-11.4053
-10.3034
-9.20242
-8.12176
-7.07758
-6.08266
-5.1464
-4.27507
-3.47225
-2.73939
-2.07662
-1.48354
-0.95992
-0.50617
-0.123608
0.185678
0.419251
0.575045
0.652287
0.652486
0.580342
0.444398
0.257268
0.0353264
-0.20218
-0.434541
-0.641368
-0.804543
-0.910056
-0.94948
-0.920866
-0.828917
-0.684395
-0.502814
-0.30252
-0.102303
0.081331
0.23709
0.361851
0.463375
0.562434
0.69391
0.906414
1.26009
1.82245
2.66236
3.84268
5.41213
7.39736
9.79618
12.5727
15.6551
18.9371
22.2815
25.5289
28.5067
31.0418
32.9733
34.1647
34.5157
33.9705
32.5245
30.2253
27.1714
23.5058
19.4065
15.0742
10.7185
6.54486
2.7414
-0.530715
-3.14512
-5.0151
-6.09627
-6.38745
-5.92983
-4.80369
-3.12043
-1.00646
1.42595
4.12504
7.16524
10.8283
15.6878
22.6772
33.1105
48.6279
71.0405
102.068
142.985
194.231
255.04
323.187
394.918
465.123
527.754
576.465
605.38
609.895
587.378
537.652
463.195
368.986
262.04
150.666
43.5595
-51.1573
-126.812
-178.872
-205.363
-206.966
-186.807
-149.96
-102.758
-52.0011
-4.16004
35.3238
62.5617
75.5176
74.065
59.8131
35.7434
5.71695
-26.0772
-55.6587
-79.7155
-95.9357
-103.185
-101.523
-92.0684
-76.7504
-57.9849
-38.3221
-20.1155
-5.24874
5.05035
10.2951
10.7238
7.19478
1.01562
-6.26605
-13.0794
-18.0277
-20.0423
-18.4806
-13.1592
-4.32683
7.41442
21.2244
36.1579
51.296
65.8613
79.3003
91.3281
101.932
111.338
119.943
128.237
136.71
145.768
155.669
166.48
178.061
190.082
202.059
213.41
223.517
231.794
237.736
240.969
241.266
238.558
232.918
224.539
213.706
200.756
186.055
169.973
152.869
135.091
116.973
98.8465
81.0446
63.906
47.7719
32.975
19.8224
8.57219
-0.590081
-7.5731
-12.3946
-15.1867
-16.1895
-15.7334
-14.2114
-12.0448
-9.64573
-7.38157
-5.54497
-4.33287
-3.83665
-4.04422
-4.85288
-6.09121
-7.54662
-8.99504
-10.229
-11.0812
-11.4402
-11.2586
-10.5518
-9.38959
-7.88168
-6.16034
-4.36199
-2.61068
-1.00515
0.389082
1.54239
2.45869
3.16906
3.72283
4.17778
4.59077
5.01021
5.47104
5.99232
6.57738
7.21581
7.8866
8.56149
9.20809
9.79218
10.2793
10.6359
10.8299
10.8321
10.6174
10.1673
9.47219
8.5339
7.36763
6.00274
4.48207
2.8595
1.19598
-0.445765
-2.00698
-3.43858
-4.70578
-5.79115
-6.69556
-7.43695
-8.04692
-8.56586
-9.03712
-9.5011
-9.99005
-10.5243
-11.1104
-11.741
-12.3972
-13.0518
-13.674
-14.2333
-14.7045
-15.0699
-15.3215
-15.461
-15.4982
-15.4489
-15.3318
-15.1648
-14.9627
-14.7344
-14.4823
-14.2021
-13.8841
-13.5153
-13.0818
-12.5713
-11.9754
-11.2915
-10.5228
-9.67883
-8.77438
-7.828
-6.86044
-5.89314
-4.94675
-4.04024
-3.19019
-2.4105
-1.71226
-1.10378
-0.590565
-0.175288
0.142308
0.365507
0.500661
0.557108
0.546911
0.48439
0.385475
0.266915
0.145427
0.0368737
-0.044441
-0.0862828
-0.0787496
-0.0142611
0.112721
0.306222
0.56951
0.906036
1.32054
1.82031
2.4164
3.12492
3.96803
4.9746
6.1804
7.6276
9.36342
11.4379
13.9001
16.7936
20.1505
23.9845
28.2848
33.0098
38.0841
43.3972
48.8066
54.1443
59.2264
63.8649
67.8812
71.1177
73.4489
74.7876
75.089
74.35
72.6065
69.9279
66.4113
62.1755
57.3553
52.0961
46.5497
40.8683
35.1996
29.6786
24.419
19.5027
14.9685
10.8032
6.93701
3.24783
-0.420359
-4.22121
-8.24789
-12.4532
-16.5532
-19.9266
-21.5324
-19.871
-13.0236
1.20778
25.0436
60.3666
108.294
168.747
240.109
319.041
400.542
478.284
545.197
594.261
619.386
616.259
583.018
520.648
433.031
326.616
209.761
91.8241
-17.867
-111.043
-181.37
-225.08
-241.27
-231.853
-201.186
-155.425
-101.712
-47.3035
1.25626
38.8097
62.047
69.7086
62.5266
42.9361
14.6092
-18.114
-50.8197
-79.5643
-101.306
-114.184
-117.621
-112.261
-99.7584
-82.4652
-63.0624
-44.1864
-28.0993
-16.4384
-10.0694
-9.05171
-12.7079
-19.7808
-28.6475
-37.5594
-44.8746
-49.2544
-49.8023
-46.1326
-38.3675
-27.0682
-13.1154
2.44116
18.5418
34.2627
48.9299
62.189
74.0237
84.7249
94.8177
104.958
115.815
127.959
141.765
157.346
174.527
192.855
211.649
230.069
247.215
262.214
274.309
282.922
287.696
288.511
285.463
278.836
269.05
256.612
242.059
225.916
208.668
190.738
172.487
154.215
136.177
118.593
101.664
85.5811
70.5255
56.6688
44.1642
33.1367
23.6703
15.7981
9.49384
4.66881
1.17338
-1.19536
-2.68089
-3.55004
-4.07296
-4.50208
-5.05222
-5.8841
-7.09299
-8.7039
-10.6739
-12.9013
-15.2403
-17.5202
-19.5649
-21.2135
-22.3357
-22.8443
-22.7009
-21.9159
-20.5438
-18.6734
-16.4164
-13.8946
-11.2275
-8.52284
-5.86887
-3.33089
-0.950388
1.25267
3.27559
5.12734
6.82275
8.37716
9.80228
11.1036
12.2795
13.322
14.2187
14.9553
15.5187
15.8993
16.0931
16.1027
15.9368
15.6095
15.1383
14.5423
13.8396
13.0463
12.1744
11.2325
10.226
9.15878
8.03454
6.85922
5.64226
4.39746
3.14284
1.8994
0.688982
-0.468552
-1.5584
-2.57358
-3.51697
-4.40206
-5.25221
-6.09833
-6.97507
-7.91598
-8.94817
-10.0873
-11.3332
-12.6681
-14.0553
-15.4421
-16.7634
-17.9478
-18.9245
-19.6311
-20.02
-20.0635
-19.7574
-19.1217
-18.1983
-17.0472
-15.7399
-14.3525
-12.9578
-11.6183
-10.3812
-9.27455
-8.30642
-7.46672
-6.73087
-6.06528
-5.43361
-4.80306
-4.14971
-3.46231
-2.74413
-2.01257
-1.29679
-0.633658
-0.0626714
0.379559
0.664491
0.775887
0.712575
0.48941
0.1363
-0.304579
-0.783051
-1.24616
-1.64364
-1.93304
-2.08363
-2.07882
-1.91666
-1.60838
-1.17529
-0.644291
-0.0428262
0.606253
1.28905
2.00368
2.76147
3.58624
4.51148
5.57598
6.81825
8.27062
9.9538
11.8726
14.0138
16.3461
18.8227
21.3868
23.9781
26.5407
29.0305
31.4208
33.7062
35.9022
38.0425
40.1713
42.3349
44.5695
46.8892
49.2754
51.6685
53.9639
56.0148
57.6411
58.6447
58.8302
58.0287
56.1209
53.0574
48.872
43.6868
37.7063
31.2018
24.4879
17.8923
11.724
6.24348
1.63675
-2.00211
-4.67976
-6.50251
-7.66522
-8.43
-9.09399
-9.94498
-11.203
-12.9473
-15.0299
-16.9834
-17.9366
-16.561
-11.0745
0.666735
20.9684
51.9864
95.3249
151.594
220.005
298.084
381.599
464.74
540.58
601.784
641.465
654.089
636.278
587.392
509.784
408.687
291.722
168.111
47.6661
-60.282
-147.892
-209.626
-242.764
-247.576
-227.133
-186.8
-133.492
-74.8007
-18.0936
30.2879
65.6519
85.333
88.7996
77.4989
54.4815
23.8696
-9.75112
-41.936
-68.9082
-87.9507
-97.6284
-97.8294
-89.6379
-75.0704
-56.7221
-37.3749
-19.6213
-5.54874
3.48061
6.93726
5.11499
-0.982125
-9.83207
-19.6346
-28.5635
-34.9976
-37.7048
-35.9592
-29.584
-18.9216
-4.74246
11.8905
29.7805
47.7555
64.8087
80.2039
93.5371
104.75
114.1
122.091
129.382
136.68
144.637
153.759
164.343
176.437
189.842
204.132
218.704
232.848
245.816
256.891
265.454
271.022
273.279
272.085
267.465
259.59
248.75
235.314
219.708
202.38
183.782
164.357
144.525
124.687
105.218
86.4677
68.7648
52.4077
37.6603
24.7421
13.8161
4.97668
-1.76059
-6.46514
-9.29183
-10.4743
-10.3112
-9.14537
-7.33918
-5.24692
-3.18818
-1.42479
-0.143813
0.551554
0.642453
0.186344
-0.698233
-1.8521
-3.09853
-4.26609
-5.20886
-5.82159
-6.04858
-5.88579
-5.37626
-4.60029
-3.66185
-2.67332
-1.74066
-0.950771
-0.362504
-0.00211787
0.136652
0.0883237
-0.0918738
-0.33752
-0.581082
-0.763168
-0.839799
-0.786917
-0.601763
-0.301233
0.082343
0.50719
0.92892
1.3072
1.61136
1.82425
1.94392
1.98297
1.96589
1.92484
1.89445
1.9066
1.98567
2.14509
2.38534
2.69381
3.04623
3.40954
3.74581
4.0165
4.18684
4.22957
4.12778
3.87641
3.48246
2.96371
2.34634
1.66153
0.941761
0.217021
-0.488435
-1.15844
-1.78613
-2.37384
-2.93187
-3.47613
-4.02517
-4.59687
-5.20525
-5.85776
-6.55345
-7.28217
-8.02509
-8.75627
-9.44545
-10.0614
-10.5759
-10.9671
-11.223
-11.3429
-11.3384
-11.2324
-11.0565
-10.8475
-10.643
-10.4766
-10.3736
-10.3474
-10.3973
-10.5079
-10.6497
-10.7822
-10.8576
-10.8261
-10.6412
-10.2656
-9.67597
-8.86692
-7.85272
-6.66739
-5.36236
-4.00219
-2.65873
-1.40427
-0.304538
0.587605
1.23716
1.62998
1.77353
1.69533
1.43943
1.06137
0.62226
0.182861
-0.201888
-0.48717
-0.641162
-0.646336
-0.499209
-0.208761
0.20621
0.720465
1.30611
1.93648
2.58992
3.25323
3.92483
4.61746
5.36054
6.20195
7.20887
8.46734
10.0796
12.159
14.8212
18.1729
22.297
27.2378
32.9859
39.4658
46.5291
53.9538
61.45
68.6746
75.2517
80.7988
84.9561
87.417
87.9566
86.4552
82.9145
77.4646
70.3594
61.9612
52.7148
43.1126
33.6548
24.8086
16.9694
10.4296
5.35773
1.79004
-0.364896
-1.30905
-1.32798
-0.757033
0.0562918
0.791804
1.19774
1.13526
0.629096
-0.0743223
-0.443505
0.397068
3.704
11.1055
24.5183
45.9711
77.3272
119.926
174.189
239.251
312.713
390.574
467.406
536.78
591.915
626.477
635.4
615.628
566.647
490.718
392.768
279.937
160.846
44.6676
-59.8691
-145.409
-206.728
-241.212
-249.025
-232.935
-197.853
-150.154
-96.8653
-44.834
0.0158652
33.2663
52.3628
56.7215
47.5947
27.7319
0.892857
-28.7114
-56.9783
-80.4037
-96.4498
-103.757
-102.19
-92.7257
-77.2158
-58.0643
-37.8676
-19.0673
-3.65678
7.02581
12.402
12.6511
8.61366
1.62088
-6.71925
-14.7492
-20.9712
-24.215
-23.7464
-19.3093
-11.1036
0.291511
14.034
29.1551
44.6961
59.8285
73.9436
86.7035
98.0499
108.175
117.459
126.389
135.47
145.135
155.68
167.214
179.641
192.673
205.865
218.67
230.497
240.78
249.027
254.858
258.021
258.397
255.981
250.856
243.166
233.09
220.821
206.556
190.501
172.876
153.93
133.961
113.323
92.4374
71.7818
51.8774
33.2595
16.4422
1.87774
-10.0831
-19.2244
-25.4879
-28.982
-29.9739
-28.8668
-26.1635
-22.4205
-18.1982
-14.0121
-10.2912
-7.34679
-5.35583
-4.35909
-4.27363
-4.91735
-6.04189
-7.36938
-8.62873
-9.58708
-10.0734
-9.99228
-9.32666
-8.13141
-6.5183
-4.63589
-2.64703
-0.70713
1.05422
2.54633
3.72416
4.58853
5.18053
5.57142
5.84982
6.10802
6.42934
6.87773
7.49096
8.27751
9.21728
10.2656
11.3594
12.4253
13.3875
14.1758
14.7312
15.0111
14.991
14.6654
14.0458
13.1583
12.0396
10.7334
9.28566
7.74173
6.14301
4.5248
2.91465
1.33155
-0.214344
-1.72121
-3.19452
-4.64529
-6.08787
-7.53715
-9.00568
-10.5006
-12.0212
-13.5566
-15.0851
-16.5741
-17.982
-19.2613
-20.3624
-21.2391
-21.8535
-22.181
-22.214
-21.964
-21.4615
-20.7544
-19.9031
-18.9757
-18.0407
-17.1602
-16.3845
-15.7461
-15.258
-14.9123
-14.6819
-14.5247
-14.3879
-14.2152
-13.9523
-13.5528
-12.9837
-12.2276
-11.2849
-10.1731
-8.92483
-7.58481
-6.20542
-4.84213
-3.54886
-2.37373
-1.35548
-0.521013
0.116021
0.555438
0.809657
0.901976
0.864313
0.734744
0.55522
0.369706
0.222856
0.159192
0.222575
0.455693
0.899244
1.59055
2.56145
3.83557
5.42512
7.32767
9.52349
11.974
14.6216
17.3919
20.1972
22.9428
25.5333
27.881
29.9131
31.5779
32.8496
33.7302
34.2485
34.4567
34.4241
34.2295
33.9522
33.6634
33.4184
33.251
33.1702
33.1594
33.1792
33.1716
33.0677
32.7946
32.284
31.4799
30.3442
28.8606
27.0362
24.8999
22.4986
19.8919
17.1449
14.3209
11.4757
8.65237
5.87855
3.16627
0.5137
-2.09133
-4.6668
-7.23143
-9.7988
-12.3699
-14.9215
-17.3874
-19.6281
-21.3874
-22.236
-21.5096
-18.2555
-11.2091
1.17422
20.6077
48.7702
87.0145
136.018
195.43
263.576
337.318
412.099
482.236
541.435
583.479
603.008
596.269
561.715
500.373
415.885
314.227
203.123
91.2284
-12.8065
-101.276
-168.233
-210.078
-225.863
-217.267
-188.27
-144.578
-92.8795
-40.0373
7.68747
45.2814
69.4293
78.7298
73.6669
56.3631
30.1614
-0.897257
-32.6285
-61.2201
-83.65
-97.9658
-103.404
-100.35
-90.166
-74.9097
-57.002
-38.8831
-22.7034
-10.0843
-1.97085
1.41398
0.51869
-3.66705
-9.79762
-16.382
-21.9899
-25.4281
-25.8663
-22.9033
-16.5701
-7.27669
4.28412
17.2594
30.766
44.0103
56.3831
67.5197
77.3212
85.9374
93.7167
101.133
108.701
116.89
126.049
136.358
147.794
160.132
172.979
185.809
198.036
209.069
218.376
225.532
230.246
232.374
231.909
228.956
223.697
216.358
207.169
196.343
184.063
170.483
155.74
139.978
123.367
106.132
88.5611
71.0117
53.8975
37.6658
22.7639
9.59962
-1.49789
-10.3122
-16.7633
-20.9179
-22.9835
-23.2892
-22.2524
-20.3381
-18.014
-15.7072
-13.7679
-12.4428
-11.8612
-12.0353
-12.8724
-14.1977
-15.7843
-17.3856
-18.7676
-19.7354
-20.1538
-19.9578
-19.1546
-17.8162
-16.0656
-14.058
-11.96
-9.92952
-8.09869
-6.56113
-5.3653
-4.51359
-3.96687
-3.65352
-3.48127
-3.35031
-3.16605
-2.84997
-2.34765
-1.63327
-0.710363
0.390839
1.61894
2.90884
4.1901
5.39507
6.46587
7.35931
8.04939
8.52714
8.79801
8.87755
8.78589
8.54218
8.1598
7.64313
6.98639
6.17472
5.18739
4.0026
2.60333
0.983147
-0.848526
-2.86279
-5.00972
-7.21939
-9.40544
-11.4711
-13.3168
-14.8489
-15.9882
-16.677
-16.8845
-16.6091
-15.8784
-14.7456
-13.2844
-11.5822
-9.73321
-7.83111
-5.96354
-4.20743
-2.62606
-1.2674
-0.163572
0.668964
1.22869
1.52801
1.59182
1.45577
1.16393
0.766051
0.314202
-0.140812
-0.553138
-0.885244
-1.11062
-1.21549
-1.19931
-1.07391
-0.861479
-0.591445
-0.296758
-0.00989316
0.240941
0.434954
0.56093
0.618136
0.615887
0.57184
0.509247
0.453579
0.428957
0.454924
0.543989
0.700291
0.919567
1.19036
1.49628
1.81879
2.1402
2.44601
2.72642
2.97659
3.19561
3.38451
3.54372
3.67059
3.75769
3.79246
3.75869
3.64008
3.42568
3.1167
2.73359
2.32215
1.95695
1.74073
1.79888
2.26875
3.28469
4.96038
7.37094
10.5374
14.416
18.8943
23.795
28.8876
33.9063
38.5728
42.6199
45.8148
47.9779
48.9959
48.828
47.5052
45.1232
41.8307
37.8145
33.2832
28.4514
23.5249
18.689
14.0985
9.87123
6.08347
2.76761
-0.0887882
-2.54206
-4.68862
-6.65613
-8.58649
-10.6067
-12.7838
-15.0632
-17.1905
-18.628
-18.4793
-15.4465
-7.84872
6.27415
28.954
61.987
106.553
162.817
229.58
304.07
381.935
457.481
524.161
575.266
604.735
607.965
582.5
528.492
448.842
349.005
236.461
119.931
8.43234
-89.7045
-167.715
-221.081
-247.928
-249.094
-227.88
-189.532
-140.525
-87.7517
-37.7226
4.12732
33.9517
49.7746
51.5266
40.8519
20.7297
-5.02845
-32.331
-57.339
-76.9128
-88.9294
-92.4415
-87.6752
-75.8823
-59.0792
-39.7157
-20.3226
-3.18323
9.93221
17.9414
20.5219
18.0802
11.6332
2.62454
-7.29428
-16.486
-23.5259
-27.3524
-27.3574
-23.4099
-15.8176
-5.23816
7.4431
21.2506
35.2509
48.6639
60.9416
71.807
81.253
89.5065
96.9643
104.114
111.451
119.401
128.262
138.161
149.045
160.688
172.721
184.675
196.033
206.274
214.924
221.583
225.949
227.821
227.105
223.795
217.966
209.755
199.347
186.968
172.876
157.356
140.724
123.323
105.525
87.7235
70.3279
53.745
38.3624
24.5244
12.5085
2.5033
-5.40799
-11.2571
-15.1898
-17.4555
-18.3861
-18.3671
-17.8033
-17.0823
-16.5399
-16.4308
-16.9078
-18.0126
-19.6775
-21.7402
-23.9682
-26.0902
-27.8315
-28.9483
-29.2575
-28.6575
-27.1394
-24.7861
-21.7614
-18.2888
-14.6258
-11.0346
-7.75386
-4.97534
-2.82651
-1.36215
-0.564482
-0.351562
-0.592288
-1.12583
-1.78286
-2.40598
-2.86704
-3.07945
-3.00451
-2.65135
-2.071
-1.34571
-0.575249
0.138066
0.703527
1.05376
1.1527
0.998955
0.624512
0.0890791
-0.528957
-1.14364
-1.6731
-2.05009
-2.23026
-2.19687
-1.96175
-1.56229
-1.05527
-0.508313
0.00957123
0.437147
0.728535
0.858285
0.823414
0.64233
0.350991
-0.00298408
-0.367324
-0.692212
-0.936536
-1.07253
-1.08834
-0.988282
-0.791023
-0.526081
-0.229192
0.0627067
0.316217
0.50536
0.61418
0.637837
0.582223
0.462242
0.29914
0.117282
-0.0591469
-0.209107
-0.316983
-0.373964
-0.378438
-0.335449
-0.255356
-0.151939
-0.0401993
0.0658494
0.15514
0.221009
0.261972
0.281701
0.288202
0.292314
0.305717
0.338745
0.398328
0.48637
0.598861
0.725884
0.852603
0.961108
1.03287
1.05142
1.00484
0.887617
0.701688
0.456474
0.168079
-0.142186
-0.449674
-0.728422
-0.95311
-1.10084
-1.15264
-1.09472
-0.919369
-0.625564
-0.219167
0.287277
0.875241
1.52141
2.19935
2.88152
3.54148
4.15605
4.70716
5.18337
5.58076
5.90337
6.16316
6.37979
6.58032
6.79919
7.07824
7.46695
8.02209
8.8066
9.88679
11.3277
13.186
15.502
18.2894
21.5262
25.1466
29.0363
33.0323
36.9282
40.4849
43.4479
45.568
46.6255
46.4539
44.9603
42.1411
38.0883
32.9873
27.1039
20.7622
14.3166
8.11857
2.4847
-2.33265
-6.16754
-8.95416
-10.7308
-11.6345
-11.8879
-11.7783
-11.6304
-11.7718
-12.4898
-13.9757
-16.2573
-19.1184
-22.0141
-23.9954
-23.6642
-19.1885
-8.40228
10.9882
41.0928
83.4427
138.564
205.594
282.022
363.634
444.708
518.48
577.832
616.121
628.049
610.42
562.689
487.187
389.002
275.497
155.545
38.5662
-66.4998
-152.151
-213.091
-246.72
-253.287
-235.705
-199.069
-149.944
-95.5331
-42.8231
2.17679
35.0255
53.2066
56.2287
45.477
23.856
-4.71594
-35.8849
-65.4361
-89.7956
-106.403
-113.923
-112.286
-102.563
-86.7175
-67.2633
-46.8915
-28.1095
-12.9384
-2.70087
2.08281
1.68771
-2.92245
-10.2791
-18.6399
-26.2337
-31.4879
-33.2118
-30.7162
-23.861
-13.0296
0.958884
16.9857
33.7943
50.1577
65.0293
77.6605
87.6729
95.0798
100.257
103.872
106.775
109.886
114.064
120
128.138
138.618
151.27
165.638
181.036
196.627
211.512
224.817
235.774
243.773
248.402
249.452
246.905
240.907
231.725
219.706
205.231
188.69
170.457
150.881
130.29
109.001
87.336
65.634
44.2614
23.6125
4.0993
-13.8667
-29.9018
-43.681
-54.9684
-63.6429
-69.7152
-73.3318
-74.7671
-74.4011
-72.6879
-70.1155
-67.1644
-64.267
-61.7737
-59.9293
-58.8608
-58.5781
-58.9873
-59.9124
-61.1252
-62.3765
-63.428
-64.0784
-64.1834
-63.667
-62.5223
-60.8048
-58.6173
-56.0899
-53.3587
-50.5441
-47.7341
-44.9737
-42.2618
-39.5564
-36.7863
-33.8684
-30.7275
-27.3137
-23.6183
-19.6811
-15.5922
-11.4847
-7.52134
-3.87633
-0.714655
1.82761
3.65971
4.74704
5.11508
4.84609
4.06931
2.94592
1.65106
0.355139
-0.793277
-1.68097
-2.23863
-2.44378
-2.31809
-1.9199
-1.33323
-0.654831
0.0188659
0.60345
1.03549
1.27797
1.32195
1.18452
0.903759
0.531704
0.126227
-0.256865
-0.570647
-0.782042
-0.87451
-0.848371
-0.718961
-0.513082
-0.264356
-0.0081803
0.223051
0.403873
0.518389
0.561388
0.537915
0.461511
0.351463
0.229579
0.116974
0.0313179
-0.0151209
-0.016491
0.0265514
0.107527
0.215355
0.335864
0.453379
0.552257
0.618291
0.639984
0.609638
0.524231
0.385983
0.202487
-0.0136701
-0.245867
-0.474935
-0.681063
-0.845904
-0.954622
-0.997613
-0.971649
-0.880287
-0.733453
-0.54624
-0.337042
-0.125236
0.0713057
0.238556
0.36822
0.458882
0.516222
0.552244
0.583583
0.62912
0.707242
0.833176
1.0168
1.26128
1.56285
1.91163
2.2935
2.69275
3.09498
3.48981
3.87312
4.24821
4.62584
5.02312
5.46129
5.9628
6.54816
7.23292
8.02553
8.92621
9.92716
11.0142
12.1696
13.3752
14.616
15.8831
17.1748
18.4967
19.8589
21.2724
22.7435
24.2677
25.8244
27.3725
28.8481
30.1649
31.2175
31.8871
32.0494
31.585
30.3898
28.3867
25.5354
21.8406
17.3567
12.1885
6.48776
0.444826
-5.72289
-11.7853
-17.5155
-22.7058
-27.1826
-30.8206
-33.5521
-35.3722
-36.3365
-36.5459
-36.1179
-35.1372
-33.5883
-31.2718
-27.7159
-22.1021
-13.23
0.45079
20.7174
49.3475
87.8001
136.839
196.154
264.067
337.384
411.468
480.556
538.307
578.519
595.92
586.919
550.193
487.019
401.277
299.129
188.4
77.7364
-24.3362
-110.336
-174.611
-213.894
-227.552
-217.526
-187.966
-144.637
-94.1664
-43.2463
2.11716
37.2163
59.0531
66.5158
60.3172
42.7239
17.1255
-12.4873
-42.0659
-68.0003
-87.5115
-98.9034
-101.657
-96.3679
-84.558
-68.3845
-50.3039
-32.7311
-17.7369
-6.81998
-0.771578
0.356398
-2.81223
-9.12054
-17.0743
-25.0611
-31.5626
-35.3341
-35.532
-31.7781
-24.1588
-13.1669
0.402194
15.581
31.368
46.8553
61.3298
74.3387
85.7137
95.5543
104.178
112.048
119.681
127.568
136.095
145.488
155.788
166.844
178.338
189.828
200.801
210.73
219.133
225.606
229.858
231.714
231.11
228.074
222.701
215.126
205.508
194.013
180.82
166.126
150.159
133.193
115.562
97.6589
79.928
62.8453
46.8882
32.4995
20.0491
9.7996
1.87998
-3.72792
-7.18854
-8.79656
-8.94745
-8.09804
-6.72158
-5.26262
-4.09684
-3.50019
-3.63035
-4.52208
-6.096
-8.17892
-10.5327
-12.8873
-14.9747
-16.5591
-17.4605
-17.5707
-16.8592
-15.3709
-13.2158
-10.5527
-7.56991
-4.46411
-1.42144
1.39908
3.87714
5.93761
7.5515
8.73203
9.52667
10.0064
10.2537
10.351
10.3702
10.3657
10.3693
10.3902
10.417
10.4227
10.3714
10.2248
9.94962
9.5221
8.93191
8.18327
7.29421
6.29409
5.21995
4.1122
3.01051
1.95023
0.960025
0.0606747
-0.734839
-1.42024
-1.99428
-2.45887
-2.81759
-3.07464
-3.23466
-3.30308
-3.28701
-3.19617
-3.04356
-2.84554
-2.62114
-2.39059
-2.17334
-1.9858
-1.83936
-1.7391
-1.68339
-1.66459
-1.67067
-1.68752
-1.70146
-1.70162
-1.68159
-1.64032
-1.58195
-1.51484
-1.44992
-1.3988
-1.37196
-1.37722
-1.41887
-1.49731
-1.60923
-1.74821
-1.90544
-2.07045
-2.23173
-2.37714
-2.49426
-2.57075
-2.59486
-2.55628
-2.44721
-2.26373
-2.00711
-1.68493
-1.31163
-0.908199
-0.500902
-0.119025
0.208202
0.455102
0.603021
0.643248
0.578967
0.425908
0.211569
-0.0269149
-0.245968
-0.399382
-0.442122
-0.333524
-0.0393107
0.467865
1.20938
2.20274
3.46418
5.01093
6.86234
9.03934
11.5619
14.4448
17.6925
21.2938
25.2173
29.4095
33.7946
38.2777
42.75
47.096
51.2005
54.9567
58.271
61.0676
63.2888
64.8948
65.8602
66.1704
65.8176
64.7987
63.1146
60.7722
57.7892
54.1995
50.0594
45.4517
40.4876
35.3038
30.0562
24.9089
20.02
15.526
11.5259
8.06782
5.13826
2.65891
0.491679
-1.54344
-3.6346
-5.92541
-8.44301
-11.011
-13.1583
-14.0415
-12.4069
-6.6171
5.23171
25.0929
54.6589
94.9903
146.139
206.836
274.32
344.37
411.568
469.795
512.903
535.484
533.61
505.455
451.664
375.434
282.261
179.39
75.0371
-22.5175
-105.841
-169.144
-208.871
-223.995
-216.016
-188.649
-147.279
-98.244
-48.0573
-2.6581
33.2094
56.4301
65.7219
61.6041
46.1536
22.5965
-5.20081
-33.2688
-58.0325
-76.7118
-87.5841
-90.0899
-84.7842
-73.153
-57.3323
-39.772
-22.8941
-8.78606
1.03404
5.7592
5.33254
0.388816
-7.88538
-17.9476
-28.1217
-36.8167
-42.7139
-44.9031
-42.9536
