-6.00177
-5.6043
-5.19036
-4.79657
-4.46358
-4.23169
-4.13577
-4.20007
-4.43354
-4.82648
-5.34913
-5.95259
-6.57218
-7.13304
-7.55749
-7.77298
-7.7199
-7.35775
-6.66889
-5.65898
-4.35393
-2.79371
-1.02392
0.91357
2.98912
5.19161
7.53115
10.0375
12.7544
15.7304
19.0081
22.613
26.544
30.7679
35.2181
39.7983
44.3903
48.8656
53.0973
56.9727
60.4014
63.3209
65.6961
67.5148
68.7793
69.4946
69.658
69.249
68.225
66.5214
64.0594
60.7593
56.5581
51.4292
45.3997
38.5629
31.0829
23.1891
15.1611
7.30563
-0.0725113
-6.70095
-12.3678
-16.9433
-20.3921
-22.7743
-24.2352
-24.985
-25.2707
-25.3441
-25.4277
-25.6806
-26.1661
-26.8191
-27.415
-27.5397
-26.5681
-23.6576
-17.77
-7.73419
7.63994
29.3947
58.2122
94.1789
136.559
183.624
232.575
279.603
320.112
349.098
361.662
353.612
322.059
265.955
186.443
86.9984
-26.7233
-147.303
-266.222
-374.696
-464.58
-529.224
-564.185
-567.694
-540.819
-487.316
-413.171
-325.917
-233.793
-144.867
-66.213
-3.25154
40.6897
64.5504
69.446
58.3385
35.5277
6.03407
-25.0425
-53.1114
-74.5627
-87.0754
-89.7412
-83.0077
-68.4642
-48.5136
-25.9795
-3.70529
15.808
30.6824
39.839
43.0567
40.9217
34.6818
26.0357
16.8877
9.10049
4.27706
3.59249
7.69253
16.6632
30.0681
47.0427
66.4285
86.9269
107.254
126.277
143.119
157.221
168.365
176.644
182.412
186.195
188.597
190.204
191.498
192.791
194.186
195.569
196.626
196.889
195.803
192.797
187.362
179.127
167.908
153.752
136.947
118.009
97.6508
76.7229
56.1446
36.8256
19.5883
5.09809
-6.19143
-14.0728
-18.5953
-20.052
-18.9439
-15.9269
-11.7455
-7.16274
-2.89055
0.470016
2.47459
2.86289
1.56604
-1.30564
-5.49176
-10.6237
-16.2734
-22.0036
-27.414
-32.1779
-36.0669
-38.9629
-40.8552
-41.8267
-42.0317
-41.6678
-40.947
-40.0686
-39.1976
-38.4497
-37.8841
-37.5043
-37.2651
-37.0849
-36.8615
-36.4882
-35.8689
-34.9312
-33.6348
-31.9758
-29.986
-27.7284
-25.2893
-22.7675
-20.2639
-17.8706
-15.6622
-13.6896
-11.9768
-10.5216
-9.29832
-8.26373
-7.36423
-6.54335
-5.74879
-4.93804
-4.08189
-3.16555
-2.18751
-1.1565
-0.0871196
1.00502
2.10789
3.21681
4.33678
5.48346
6.68269
7.96906
9.38382
10.9725
12.7826
14.8613
17.2533
19.9986
23.1295
26.6681
30.623
34.9866
39.7322
44.813
50.1624
55.6951
61.3118
66.903
72.3555
77.5578
82.4047
86.8015
90.6654
93.9255
96.5209
98.3979
99.5059
99.7938
99.2079
97.6913
95.1874
91.6457
87.0323
81.341
74.6062
66.9128
58.4028
49.2732
39.7661
30.1465
20.6716
11.5508
2.90254
-5.28824
-13.2062
-21.2296
-29.9379
-40.0993
-52.6356
-68.5646
-88.9209
-114.659
-146.544
-185.036
-230.179
-281.504
-337.947
-397.807
-458.748
-517.848
-571.721
-616.71
-649.145
-665.675
-663.637
-641.447
-598.945
-537.663
-460.958
-373.949
-283.253
-196.5
-121.664
-66.2613
-36.5148
-36.5764
-67.9195
-128.995
-215.213
-319.281
-431.866
-542.527
-640.789
-717.258
-764.614
-778.378
-757.346
-703.651
-622.452
-521.283
-409.166
-295.597
-189.518
-98.4225
-27.6672
19.9256
44.153
47.2141
33.238
7.63125
-23.6616
-54.8921
-81.1481
-98.8338
-105.945
-102.126
-88.5245
-67.4766
-42.0776
-15.7047
8.44955
27.7739
40.5249
45.9775
44.4336
37.101
25.8706
13.0275
0.939442
-8.23889
-12.8089
-11.6954
-4.52499
8.38543
26.1198
47.3145
70.3463
93.5319
115.313
134.41
149.922
161.382
168.749
172.356
172.821
170.937
167.557
163.482
159.375
155.701
152.699
150.384
148.576
146.955
145.111
142.616
139.073
134.161
127.669
119.506
109.704
98.4043
85.8366
72.2966
58.1172
43.6439
29.2122
15.1297
1.6627
-10.9722
-22.6131
-33.1537
-42.5415
-50.7737
-57.8916
-63.9725
-69.1219
-73.4636
-77.1299
-80.2513
-82.9468
-85.3146
-87.425
-89.3154
-90.9889
-92.4155
-93.538
-94.2801
-94.5573
-94.2889
-93.4089
-91.8756
-89.6773
-86.8353
-83.4014
-79.4531
-75.0864
-70.4065
-65.5194
-60.5244
-55.508
-50.5411
-45.6775
-40.9554
-36.3999
-32.0262
-27.8442
-23.8622
-20.0892
-16.5376
-13.2219
-10.1569
-7.35257
-4.80772
-2.50297
-0.395015
1.58649
3.53769
5.57444
7.82135
10.3973
13.3993
16.8873
20.8723
25.3104
30.1031
35.1056
40.1406
45.017
49.5505
53.5838
57.0028
59.7485
61.8214
63.2793
64.2291
64.8131
65.1924
65.5292
65.9701
66.6311
67.5871
68.8643
70.4383
72.2361
74.1424
76.01
77.6728
78.9607
79.715
79.8031
79.1303
77.6488
75.3618
72.3222
68.6261
64.4013
59.7908
54.9342
49.9481
44.9072
39.8305
34.6731
29.3256
23.6217
17.3546
10.3004
2.24716
-6.97131
-17.4416
-29.1393
-41.9055
-55.4352
-69.283
-82.8866
-95.6097
-106.801
-115.86
-122.306
-125.84
-126.38
-124.086
-119.344
-112.731
-104.953
-96.7697
-88.9062
-81.9707
-76.3763
-72.2751
-69.5076
-67.5683
-65.591
-62.3613
-56.3645
-45.8822
-29.1499
-4.58096
28.9472
71.7689
123.111
180.837
241.331
299.572
349.45
384.312
397.714
384.269
340.494
265.513
161.495
33.7502
-109.583
-258.215
-400.706
-525.645
-622.887
-684.663
-706.444
-687.43
-630.613
-542.403
-431.876
-309.733
-187.118
-74.4301
19.7185
89.2913
131.274
145.752
135.634
106.072
63.6853
15.6708
-31.0598
-70.6354
-98.7832
-113.145
-113.335
-100.757
-78.2312
-49.4818
-18.579
10.6081
34.8751
52.0148
60.9939
61.9662
56.139
45.5217
32.6015
19.9909
10.0935
4.82719
5.43185
12.3774
25.3728
43.4658
65.2105
88.878
112.678
134.966
154.409
170.098
181.597
188.932
192.522
193.078
191.47
188.599
185.272
182.111
179.489
177.509
176.009
174.615
172.799
169.964
165.524
158.989
150.025
138.503
124.531
108.443
90.7884
72.2771
53.7236
35.9705
19.8118
5.91892
-5.22117
-13.3498
-18.4566
-20.7749
-20.7509
-18.9928
-16.2039
-13.108
-10.3758
-8.56098
-8.05103
-9.03969
-11.5216
-15.3092
-20.068
-25.3662
-30.7301
-35.701
-39.8843
-42.9885
-44.8476
-45.4287
-44.8228
-43.2226
-40.8907
-38.1232
-35.2126
-32.4156
-29.9281
-27.8704
-26.2826
-25.1315
-24.3237
-23.7264
-23.1893
-22.5672
-21.7388
-20.6203
-19.1735
-17.4069
-15.3707
-13.1481
-10.843
-8.56634
-6.42349
-4.50303
-2.86861
-1.55415
-0.562567
0.132306
0.581183
0.852838
1.02654
1.18422
1.403
1.74891
2.27217
3.00434
3.95778
5.1271
6.49274
8.02608
9.69571
11.4741
13.3437
15.3019
17.3636
19.5607
21.9392
24.5524
27.4526
30.6813
34.2594
38.1798
42.4026
46.8536
51.4273
55.9936
60.406
64.5129
68.1674
71.2373
73.6113
75.2034
75.9528
75.8209
74.7857
72.8351
69.9597
66.1491
61.3907
55.674
48.9993
41.3894
32.9045
23.6536
13.804
3.58228
-6.73211
-16.8226
-26.3584
-35.023
-42.5439
-48.7199
-53.4423
-56.7072
-58.6159
-59.3645
-59.2231
-58.5069
-57.5419
-56.6302
-56.0149
-55.8491
-56.1666
-56.8554
-57.6318
-58.0155
-57.3082
-54.5819
-48.6869
-38.296
-21.9985
1.54021
33.351
73.8751
122.653
178.041
237.021
295.175
346.885
385.771
405.362
399.917
365.306
299.793
204.608
84.1743
-54.0632
-200.226
-342.949
-470.57
-572.422
-640.04
-668.132
-655.188
-603.635
-519.534
-411.853
-291.428
-169.733
-57.6279
35.7626
103.921
143.458
154.245
139.167
103.551
54.3607
-0.732557
-54.2749
-99.8508
-132.706
-150.118
-151.492
-138.198
-113.196
-80.5007
-44.5883
-9.80291
20.1567
42.6182
56.1524
60.6166
57.0376
47.3657
34.1429
20.1354
7.9778
-0.128144
-2.63169
1.25026
11.5197
27.4773
47.8744
71.1122
95.4565
119.243
141.049
159.813
174.903
186.12
193.65
197.987
199.817
199.906
198.987
197.667
196.368
195.285
194.39
193.451
192.085
189.82
186.161
180.661
172.984
162.944
150.54
135.963
119.583
101.929
83.6382
65.412
47.9555
31.9209
17.8547
6.15395
-2.96517
-9.48136
-13.5654
-15.5592
-15.9387
-15.2652
-14.1279
-13.0871
-12.6198
-13.0777
-14.6585
-17.3953
-21.164
-25.7069
-30.6699
-35.6482
-40.2344
-44.065
-46.8579
-48.4391
-48.7553
-47.8717
-45.9567
-43.2563
-40.0612
-36.6718
-33.3649
-30.3664
-27.8318
-25.8375
-24.3816
-23.3944
-22.7561
-22.3177
-21.9245
-21.4371
-20.7476
-19.7908
-18.548
-17.0442
-15.3404
-13.5215
-11.6828
-9.91681
-8.3017
-6.89321
-5.72046
-4.7857
-4.06753
-3.52688
-3.11454
-2.77895
-2.4735
-2.16206
-1.82245
-1.44744
-1.04356
-0.627823
-0.223241
0.146312
0.461088
0.709609
0.891436
1.01822
1.11294
1.20749
1.33899
1.54547
1.86151
2.31461
2.9228
3.69377
4.62579
5.71001
6.93389
8.28497
9.75454
11.3403
13.0477
14.8894
16.8835
19.0499
21.4059
23.9618
26.717
29.657
32.7522
35.9585
39.2194
42.4703
45.6434
48.6739
51.5057
54.097
56.424
58.4824
60.2861
61.8633
63.248
64.47
65.5426
66.4501
67.1377
67.5052
67.4071
66.6612
65.0643
62.4159
58.5458
53.3425
46.7786
38.9276
29.9705
20.189
9.9461
-0.345158
-10.2593
-19.3998
-27.4376
-34.1424
-39.4035
-43.2366
-45.7764
-47.2563
-47.9783
-48.2758
-48.4743
-48.8549
-49.6222
-50.8799
-52.6125
-54.6718
-56.7647
-58.4394
-59.069
-57.836
-53.7244
-45.5358
-31.9448
-11.6143
16.6176
53.4793
98.9589
151.992
210.208
269.815
325.684
371.673
401.21
408.06
387.202
335.678
253.28
142.94
10.7413
-134.484
-281.943
-419.966
-537.253
-624.121
-673.59
-682.16
-650.189
-581.827
-484.505
-368.071
-243.679
-122.566
-14.8784
71.3216
130.76
161.299
163.916
142.331
102.359
51.0871
-4.02856
-56.0143
-99.1008
-129.234
-144.337
-144.316
-130.837
-106.917
-76.4072
-43.4247
-11.8252
15.2396
35.6273
48.3522
53.575
52.4498
46.8653
39.1216
31.5896
26.3989
25.1885
28.9468
37.9514
51.8056
69.5578
89.8783
111.266
132.256
151.592
168.363
182.068
192.62
200.301
205.658
209.384
212.184
214.661
217.217
220.009
222.929
225.638
227.626
228.29
227.032
223.336
216.84
207.38
195.011
179.995
162.774
143.924
124.103
104.001
84.2829
65.5577
48.3415
33.0392
19.9331
9.17923
0.809363
-5.26132
-9.22265
-11.3537
-12.0031
-11.5656
-10.4559
-9.08043
-7.81024
-6.95562
-6.74601
-7.31677
-8.70412
-10.849
-13.6095
-16.7797
-20.1145
-23.3553
-26.2566
-28.6085
-30.2544
-31.1023
-31.1291
-30.377
-28.9451
-26.9752
-24.6352
-22.1012
-19.5402
-17.096
-14.8782
-12.9556
-11.3551
-10.0645
-9.03976
-8.2145
-7.5117
-6.85496
-6.17879
-5.43654
-4.6052
-3.68692
-2.70711
-1.70976
-0.750659
0.110445
0.817748
1.32634
1.60738
1.65095
1.46645
1.08056
0.533426
-0.126496
-0.847969
-1.58221
-2.2871
-2.92991
-3.48824
-3.94931
-4.30793
-4.56377
-4.71858
-4.77399
-4.73042
-4.58711
-4.34327
-4.00001
-3.56229
-3.04055
-2.45138
-1.81691
-1.16301
-0.516591
0.0976183
0.66
1.15827
1.58849
1.9548
2.26792
2.54288
2.79637
3.04452
3.3013
3.57812
3.88453
4.22998
4.62624
5.09012
5.64595
6.32754
7.17909
8.25473
9.61643
11.33
13.4592
16.0585
19.1646
22.7887
26.9095
31.469
36.3719
41.4886
46.663
51.723
56.4947
60.8168
64.5555
67.6161
69.9511
71.5626
72.4994
72.8476
72.7156
72.2163
71.4473
70.4724
69.3064
67.9071
66.1738
63.9565
61.0724
57.3306
52.5602
46.6409
39.5287
31.2755
22.0379
12.0735
1.72506
-8.60721
-18.5006
-27.549
-35.4015
-41.7948
-46.577
-49.7202
-51.3191
-51.5783
-50.7886
-49.2947
-47.4583
-45.6181
-44.0485
-42.9195
-42.2548
-41.892
-41.4433
-40.2627
-37.4258
-31.7362
-21.7719
-5.98942
17.1026
48.6967
89.3819
138.813
195.413
256.167
316.598
370.963
412.7
435.11
432.201
399.585
335.286
240.332
118.999
-21.344
-170.818
-317.974
-450.994
-558.984
-633.203
-668.053
-661.705
-616.274
-537.53
-434.182
-316.849
-196.831
-84.8683
9.98031
81.196
125.313
142.04
134.009
106.205
65.1644
18.0743
-28.1258
-67.5215
-95.8009
-110.578
-111.449
-99.8014
-78.4206
-50.9723
-21.4279
6.4817
29.721
46.2653
55.2502
56.9552
52.6401
44.2712
34.1855
24.7413
18.0042
15.5033
18.0853
25.8725
38.3224
54.3695
72.6212
91.5782
109.844
126.299
140.218
151.317
159.737
165.968
170.729
174.828
179.016
183.867
189.688
196.468
203.887
211.352
218.08
223.192
225.825
225.228
220.846
212.383
199.833
183.48
163.878
141.799
118.174
94.0113
70.3171
48.0173
27.8854
10.4871
-3.85536
-15.0767
-23.3569
-29.0881
-32.8214
-35.2015
-36.895
-38.521
-40.5908
-43.4633
-47.3205
-52.1635
-57.8294
-64.0255
-70.3746
-76.4669
-81.9104
-86.3749
-89.6244
-91.5357
-92.1004
-91.4143
-89.6535
-87.0437
-83.8267
-80.2282
-76.4326
-72.5659
-68.6901
-64.8078
-60.8756
-56.8237
-52.5779
-48.0813
-43.3113
-38.2904
-33.0898
-27.8246
-22.6433
-17.7112
-13.1918
-9.22938
-5.93211
-3.36146
-1.52638
-0.383879
0.154543
0.21187
-0.0686392
-0.538891
-1.06076
-1.5186
-1.82811
-1.94097
-1.84483
-1.55928
-1.12842
-0.611396
-0.0720387
0.430877
0.851742
1.16367
1.36108
1.45927
1.4913
1.50293
1.54632
1.67329
1.9291
2.34712
2.94491
3.72207
4.65969
5.72152
6.85652
8.00256
9.09095
10.0514
10.8174
11.3307
11.5465
11.4362
10.9907
10.2209
9.15717
7.84696
6.35107
4.73829
3.07959
1.44213
-0.115919
-1.54915
-2.82669
-3.93181
-4.85946
-5.61223
-6.19549
-6.61251
-6.86044
-6.92773
-6.7935
-6.4288
-5.79967
-4.87157
-3.6144
-2.00766
-0.0448269
2.26342
4.88766
7.78005
10.8765
14.1006
17.3688
20.5967
23.7048
26.625
29.3053
31.7131
33.8375
35.6892
37.2985
38.7116
39.9853
41.1798
42.3508
43.5407
44.7695
46.0276
47.2692
48.4094
49.3247
49.8584
49.8306
49.0538
47.3516
44.5801
40.6491
35.5398
29.317
22.1323
14.2184
5.87312
-2.56469
-10.745
-18.3385
-25.0676
-30.7312
-35.2211
-38.5292
-40.7419
-42.0251
-42.6013
-42.7209
-42.6316
-42.5503
-42.6378
-42.9784
-43.564
-44.2774
-44.8736
-44.9545
-43.9374
-41.0226
-35.1714
-25.1151
-9.41728
13.3896
44.5791
84.9271
134.358
191.602
253.937
317.105
375.456
422.366
450.916
454.745
428.985
371.131
281.681
164.457
26.4951
-122.488
-271.017
-407.05
-519.298
-598.485
-638.397
-636.575
-594.556
-517.658
-414.32
-295.106
-171.496
-54.6274
45.8667
122.783
171.941
192.396
186.266
158.224
114.742
63.1932
10.9269
-35.5621
-71.2886
-93.1893
-100.267
-93.4764
-75.3878
-49.694
-20.6345
7.58471
31.3043
47.8034
55.5349
54.1933
44.6248
28.6093
8.554
-12.8525
-32.981
-49.555
-60.8686
-65.9101
-64.39
-56.6805
-43.6859
-26.669
-7.05983
13.7269
34.4442
54.1206
72.1157
88.1239
102.133
114.353
125.118
134.8
143.719
152.083
159.955
167.248
173.746
179.147
183.115
185.336
185.559
183.633
179.521
173.294
165.121
155.239
143.927
131.478
118.18
104.301
90.0852
75.7534
61.5081
47.5411
34.0383
21.1825
9.15211
-1.88496
-11.7797
-20.4127
-27.7044
-33.624
-38.1935
-41.4886
-43.6332
-44.7902
-45.1476
-44.9031
-44.248
-43.352
-42.3522
-41.3456
-40.387
-39.4917
-38.6423
-37.7992
-36.9116
-35.9293
-34.8126
-33.5393
-32.1086
-30.541
-28.8753
-27.1632
-25.4618
-23.8266
-22.3044
-20.9279
-19.7127
-18.6561
-17.7382
-16.9249
-16.1722
-15.4315
-14.6545
-13.7989
-12.8319
-11.734
-10.5009
-9.14419
-7.69106
-6.1821
-4.66828
-3.20682
-1.8563
-0.671511
0.301644
1.03053
1.4991
1.70973
1.68316
1.45671
1.08072
0.613652
0.116385
-0.353591
-0.747517
-1.02957
-1.17948
-1.19341
-1.08285
-0.872091
-0.594297
-0.286981
0.0126737
0.272059
0.466492
0.581361
0.612946
0.567923
0.461787
0.316467
0.157522
0.0112856
-0.0977107
-0.148815
-0.126688
-0.0220703
0.168102
0.441136
0.78949
1.202
1.66531
2.16529
2.68834
3.22232
3.75713
4.2847
4.79852
5.29274
5.76105
6.19556
6.58597
6.91931
7.18026
7.35227
7.41926
7.36761
7.18823
6.87823
6.44186
5.89066
5.24262
4.52096
3.75279
2.96853
2.20229
1.49349
0.889263
0.446783
0.234517
0.33141
0.823266
1.79618
3.32748
5.47524
8.26783
11.6953
15.7043
20.1969
25.0359
30.0536
35.0652
39.884
44.336
48.2712
51.57
54.1419
55.9169
56.8294
56.7985
55.7078
53.3899
49.6209
44.129
36.6185
26.809
14.4861
-0.443296
-17.8994
-37.5908
-58.9968
-81.3774
-103.812
-125.267
-144.683
-161.076
-173.631
-181.796
-185.335
-184.355
-179.303
-170.912
-160.13
-148.016
-135.637
-123.96
-113.762
-105.566
-99.5975
-95.7822
-93.7583
-92.9104
-92.4107
-91.2591
-88.3178
-82.3426
-72.0172
-56.0065
-33.0456
-2.08085
37.5313
85.776
141.714
203.247
266.979
328.24
381.317
419.918
437.829
429.714
391.928
323.24
225.318
102.891
-36.4719
-182.971
-325.5
-452.796
-554.65
-623.033
-652.991
-643.177
-595.978
-517.201
-415.375
-300.764
-184.214
-75.9907
15.2708
83.3637
124.99
139.876
130.542
101.769
59.8556
11.7689
-35.7083
-76.7217
-106.912
-123.747
-126.609
-116.637
-96.3903
-69.3664
-39.4651
-10.4611
14.4494
32.9822
43.9478
47.2808
43.9255
35.6108
24.5522
13.1267
3.56375
-2.31129
-3.25618
1.30071
11.2643
25.9569
44.264
64.8142
86.1694
106.998
126.215
143.067
157.174
168.506
177.328
184.111
189.423
193.834
197.82
201.702
205.613
209.489
213.094
216.061
217.949
218.303
216.706
212.825
206.442
197.467
185.946
172.053
156.077
138.41
119.526
99.9669
80.3168
61.1805
43.1523
26.783
12.5442
0.793165
-8.25735
-14.56
-18.2408
-19.5908
-19.0423
-17.1303
-14.4426
-11.5652
-9.02868
-7.26077
-6.5525
-7.03967
-8.70214
-11.38
-14.8035
-18.6335
-22.5051
-26.0709
-29.0385
-31.1974
-32.4342
-32.7345
-32.1739
-30.8986
-29.1
-26.9876
-24.7626
-22.5959
-20.6128
-18.885
-17.4306
-16.2203
-15.1885
-14.2474
-13.3022
-12.2641
-11.0615
-9.6478
-8.00418
-6.13988
-4.08877
-1.90383
0.349568
2.60085
4.78089
6.82776
8.69116
10.3353
11.7405
12.9032
13.8352
14.5613
15.1168
15.5433
15.8849
16.1841
16.4771
16.7902
17.1371
17.5168
17.9133
18.297
18.6271
18.8554
18.9316
18.8078
18.4444
17.8139
16.9045
15.722
14.2889
12.6437
10.8367
8.92614
6.97278
5.03513
3.16463
1.40185
-0.226097
-1.70684
-3.04256
-4.2485
-5.3501
-6.37933
-7.37029
-8.35466
-9.3573
-10.3927
-11.4623
-12.5538
-13.6417
-14.6895
-15.6543
-16.4909
-17.158
-17.6227
-17.8654
-17.8817
-17.6833
-17.2964
-16.7576
-16.1096
-15.3947
-14.65
-13.9021
-13.1648
-12.4377
-11.7077
-10.9523
-10.1441
-9.25614
-8.26723
-7.16616
-5.9546
-4.64793
-3.27398
-1.8698
-0.476842
0.864573
2.12098
3.27069
4.30731
5.24145
6.10035
6.92551
7.76864
8.68625
9.73356
10.9583
12.3952
14.0614
15.954
18.0493
20.3049
22.6626
25.0546
27.409
29.6568
31.7371
33.6014
35.2145
36.5542
37.6071
38.3636
38.8108
38.9266
38.6736
37.9963
36.8202
35.0553
32.6016
29.3588
25.2377
20.173
14.1363
7.14781
-0.714403
-9.30966
-18.4348
-27.8304
-37.194
-46.1982
-54.5146
-61.8399
-67.9214
-72.5811
-75.7317
-77.3864
-77.6569
-76.7425
-74.9091
-72.4613
-69.7096
-66.9361
-64.3616
-62.1152
-60.2074
-58.5065
-56.7165
-54.3571
-50.7474
-44.998
-36.0204
-22.5669
-3.31595
22.9858
57.3163
100.116
150.995
208.46
269.71
330.589
385.733
428.948
453.818
454.484
426.486
367.568
278.281
162.301
26.3442
-120.302
-266.638
-401.065
-512.648
-592.337
-633.991
-635.082
-596.959
-524.665
-426.318
-312.147
-193.318
-80.6926
16.3223
90.6928
138.352
158.415
153.006
126.758
86.0609
38.1595
-9.75633
-51.3802
-81.9332
-98.5645
-100.484
-88.8316
-66.3346
-36.7995
-4.53199
26.2461
51.9082
69.8082
78.5041
77.8102
68.6887
53.0118
33.2363
12.0434
-8.01035
-24.7852
-36.7646
-43.1588
-43.9029
-39.5637
-31.1768
-20.0437
-7.52218
5.16331
17.0658
27.6014
36.5715
44.1253
50.6749
56.7812
63.0296
69.913
77.7409
86.5819
96.2463
106.308
116.157
125.075
132.325
137.234
139.275
138.115
133.657
126.043
115.635
102.982
88.76
73.7152
58.5943
44.0841
30.758
19.0356
9.15893
1.18628
-4.99608
-9.64601
-13.1248
-15.8484
-18.2366
-20.6647
-23.4243
-26.6965
-30.5398
-34.8936
-39.5953
-44.4088
-49.0585
-53.2666
-56.7862
-59.4287
-61.0811
-61.7132
-61.3742
-60.1797
-58.2933
-55.9043
-53.2045
-50.3688
-47.5394
-44.817
-42.2579
-39.877
-37.6558
-35.5535
-33.5187
-31.5011
-29.4607
-27.374
-25.2366
-23.0627
-20.8807
-18.7287
-16.647
-14.6727
-12.8342
-11.1483
-9.61872
-8.23711
-6.9856
-5.84038
-4.77578
-3.76818
-2.79914
-1.85736
-0.939507
-0.0497062
0.801826
1.60084
2.33135
2.97779
3.52684
3.96859
4.2972
4.51092
4.61183
4.6053
4.49957
4.3054
4.03581
3.70592
3.33265
2.93429
2.52961
2.13674
1.7716
1.44627
1.16736
0.934719
0.740898
0.571441
0.406333
0.222475
-0.00301232
-0.289098
-0.64731
-1.07901
-1.57396
-2.11066
-2.65842
-3.18096
-3.6412
-4.00625
-4.25196
-4.36625
-4.35058
-4.21942
-3.99768
-3.71665
-3.40916
-3.10475
-2.82566
-2.5843
-2.38254
-2.21272
-2.06025
-1.90717
-1.73603
-1.53342
-1.29267
-1.01518
-0.71036
-0.394171
-0.0865416
0.191882
0.423139
0.594956
0.702867
0.751116
0.752201
0.725138
0.692764
0.678534
0.703367
0.783073
0.926783
1.13658
1.40837
1.73372
2.10242
2.50518
2.93622
3.39537
3.8895
4.43342
5.05023
5.77139
6.63667
7.69375
8.99733
10.6074
12.5864
14.9943
17.8835
21.2912
25.2323
29.6929
34.625
39.9443
45.5307
51.2332
56.8779
62.2785
67.2493
71.617
75.2326
77.9798
79.78
80.5931
80.4136
79.2639
77.1853
74.2278
70.4431
65.8789
60.5793
54.588
47.9567
40.7537
33.0742
25.0467
16.8348
8.63422
0.662787
-6.85495
-13.7063
-19.7102
-24.7358
-28.7154
-31.6524
-33.6193
-34.7491
-35.2167
-35.2141
-34.9183
-34.4538
-33.8493
-32.9909
-31.5743
-29.0603
-24.6439
-17.2501
-5.57419
11.8174
36.3107
68.9923
110.338
159.879
215.907
275.29
333.462
384.65
422.354
440.042
431.994
394.18
325.033
225.98
101.635
-40.4168
-190.234
-336.478
-467.598
-573.09
-644.666
-677.177
-669.173
-623.028
-544.617
-442.602
-327.408
-210.052
-100.943
-8.82024
60.0526
102.366
117.87
109.115
80.9066
39.5341
-8.09421
-55.3067
-96.4107
-127.241
-145.466
-150.637
-144.001
-128.124
-106.387
-82.4442
-59.6964
-40.8657
-27.7013
-20.8467
-19.8662
-23.4114
-29.4907
-35.7959
-40.0395
-40.2572
-35.0407
-23.6803
-6.20595
16.6664
43.6676
73.1628
103.365
132.546
159.217
182.265
201.026
215.301
225.313
231.621
235.008
236.353
236.513
236.222
236.016
236.195
236.819
237.723
238.572
238.914
238.249
236.091
232.024
225.74
217.066
205.968
192.553
177.041
159.746
141.045
121.343
101.047
80.5447
60.1802
40.2475
20.9826
2.56404
-14.8833
-31.281
-46.5876
-60.7893
-73.8898
-85.901
-96.8348
-106.696
-115.478
-123.157
-129.694
-135.034
-139.116
-141.871
-143.243
-143.196
-141.724
-138.868
-134.722
-129.436
-123.217
-116.32
-109.032
-101.659
-94.5007
-87.8253
-81.8516
-76.7288
-72.5239
-69.2164
-66.7006
-64.7949
-63.2592
-61.8166
-60.1804
-58.082
-55.2983
-51.6757
-47.1481
-41.7472
-35.6022
-28.9303
-22.0172
-15.1898
-8.78446
-3.11355
1.56538
5.07454
7.33204
8.35755
8.26707
7.25756
5.58373
3.52979
1.37959
-0.611239
-2.23823
-3.36372
-3.92382
-3.92662
-3.44222
-2.58642
-1.50048
-0.329633
0.797001
1.7825
2.57267
3.16008
3.58141
3.90918
4.23925
4.67604
5.31774
6.24343
7.5038
9.11639
11.0657
13.3076
15.7778
18.4013
21.1033
23.8186
26.4984
29.1143
31.6589
34.1425
36.5879
39.0234
41.4757
43.9638
46.4941
49.0585
51.6345
54.1885
56.6792
59.0638
61.3027
63.3639
65.2256
66.8766
68.3153
69.5463
70.5762
71.4091
72.0428
72.466
72.6565
72.5804
72.1928
71.438
70.2507
68.5575
66.2815
63.3486
59.6969
55.2892
50.1266
44.2602
37.7998
30.9167
23.8381
16.834
10.1965
4.21391
-0.857253
-4.81838
-7.55003
-9.02499
-9.31148
-8.56578
-7.01544
-4.93487
-2.61669
-0.342126
1.64594
3.16422
4.1024
4.42753
4.17937
3.45749
2.4016
1.16667
-0.105091
-1.31339
-2.42761
-3.51052
-4.7353
-6.39351
-8.89255
-12.7415
-18.5253
-26.869
-38.3931
-53.6638
-73.1414
-97.1323
-125.748
-158.874
-196.159
-237.016
-280.645
-326.067
-372.183
-417.826
-461.834
-503.101
-540.633
-573.572
-601.207
-622.952
-638.313
-646.831
-648.038
-641.431
-626.502
-602.818
-570.189
-528.895
-479.946
-425.327
-368.162
-312.726
-264.251
-228.5
-211.139
-216.954
-249.043
-308.098
-391.92
-495.275
-610.155
-726.442
-832.913
-918.474
-973.439
-990.706
-966.637
-901.543
-799.691
-668.837
-519.354
-363.068
-211.96
-76.8954
33.4605
113.424
160.687
176.309
164.322
131.037
84.1424
31.7331
-18.6279
-60.6898
-90.0685
-104.528
-103.979
-90.2288
-66.5305
-37.0102
-6.05435
22.2665
44.6702
58.9872
64.3128
60.99
50.4447
34.9109
17.0924
-0.190963
-14.3289
-23.1832
-25.2663
-19.8246
-6.83225
13.0936
38.8347
68.9468
101.844
135.967
169.928
202.601
233.173
261.147
286.298
308.606
328.168
345.103
359.468
371.191
380.029
385.554
387.167
384.143
375.692
361.039
339.507
310.601
274.086
230.041
178.905
121.495
58.9912
-7.08759
-74.9474
-142.596
-207.941
-268.895
-323.49
-369.987
-406.981
-433.481
-448.979
-453.478
-447.498
-432.039
-408.513
-378.646
-344.358
-307.622
-270.327
-234.148
-200.438
-170.155
-143.827
-121.565
-103.111
-87.9269
-75.3027
-64.4709
-54.7182
-45.4743
-36.3711
-27.2658
-18.2253
-9.47913
-1.34693
5.8461
11.8526
16.572
20.0954
22.7176
24.9172
27.3059
30.5549
35.3108
42.1109
51.3112
63.0371
77.1619
93.3176
110.934
129.303
147.653
165.239
181.411
195.682
207.767
217.597
225.311
231.221
235.759
239.422
242.704
246.044
249.776
254.103
259.084
264.644
270.594
276.665
282.549
287.935
292.548
296.176
298.683
300.011
300.168
299.205
297.183
294.134
290.026
284.735
278.03
269.584
259.002
245.876
229.857
210.733
188.51
163.462
136.161
107.471
78.4892
50.463
24.673
2.30595
-15.6701
-28.6089
-36.2558
-38.7736
-36.7223
-30.9944
-22.7157
-13.123
-3.43561
5.26552
12.1357
16.6322
18.5423
17.9712
15.2967
11.0962
6.05774
0.886257
-3.78409
-7.46186
-9.84826
-10.861
-10.6318
-9.47865
-7.85932
-6.30988
-5.37765
-5.55513
-7.22259
-10.6053
-15.7495
-22.5198
-30.6165
-39.6118
-48.9982
-58.2456
-66.8579
-74.425
-80.6632
-85.4401
-88.7827
-90.8666
-91.9891
-92.5287
-92.8952
-93.475
-94.5781
-96.3914
-98.9442
-102.091
-105.514
-108.747
-111.222
-112.331
-111.501
-108.266
-102.337
-93.6522
-82.404
-69.0339
-54.2014
-38.7252
-23.5039
-9.42792
2.70891
12.2864
18.9158
22.4718
23.0969
21.1778
17.2983
12.1763
6.58931
1.3007
-3.00839
-5.79365
-6.68469
-5.50233
-2.25631
2.87425
9.57394
17.4333
25.9955
34.8052
43.4554
51.6352
59.175
66.0942
72.6461
79.3588
87.0615
96.8824
110.201
128.536
153.358
185.826
226.467
274.837
329.23
386.502
442.069
490.155
524.268
537.906
525.391
482.737
408.406
303.837
173.634
25.3605
-131.062
-284.29
-422.728
-535.77
-614.973
-654.986
-654.128
-614.545
-541.913
-444.746
-333.399
-218.896
-111.725
-20.7605
47.5737
89.8149
105.597
97.4218
70.1251
30.1095
-15.5338
-59.9075
-97.0873
-122.714
-134.343
-131.532
-115.678
-89.6552
-57.3034
-22.8556
9.62633
36.7368
56.0843
66.4881
68.0081
61.8196
49.9639
35.0166
19.7217
6.6387
-2.15565
-5.28096
-2.16347
6.96025
21.1373
38.8699
58.337
77.6349
95.0069
109.035
118.772
123.814
124.291
120.804
114.307
105.968
97.0024
88.5352
81.4747
76.4312
73.6769
73.1488
74.4905
77.121
80.3216
83.328
85.4174
85.9831
84.5899
81.0084
75.2265
67.4402
58.0255
47.496
36.4504
25.5158
15.2904
6.29271
-1.07957
-6.57791
-10.1155
-11.7642
-11.7369
-10.3579
-8.02447
-5.16476
-2.19621
0.511587
2.6659
4.06959
4.62874
4.34936
3.32462
1.71496
-0.276117
-2.42776
-4.52597
-6.38424
-7.85868
-8.85693
-9.34067
-9.32224
-8.85665
-8.03028
-6.94811
-5.7208
-4.45306
-3.2343
-2.13212
-1.18903
-0.422056
0.174949
0.627101
0.972957
1.25837
1.53035
1.83131
2.19422
2.63885
3.16943
3.77392
4.42492
5.08236
5.69753
6.21832
6.59502
6.78597
6.76256
6.5129
6.04358
5.37961
4.56217
3.64478
2.68807
1.75394
0.899613
0.172279
-0.395279
-0.787721
-1.00873
-1.08107
-1.04523
-0.956685
-0.881927
-0.893462
-1.06403
-1.4604
-2.13727
-3.13174
-4.45914
-6.11049
-8.05226
-10.2284
-12.5645
-14.9738
-17.3644
-19.6461
-21.7382
-23.5743
-25.1071
-26.3104
-27.1794
-27.7295
-27.9934
-28.0179
-27.8602
-27.5832
-27.2528
-26.9341
-26.689
-26.5732
-26.6339
-26.9067
-27.4122
-28.1533
-29.1111
-30.2426
-31.4793
-32.728
-33.8739
-34.7866
-35.3283
-35.3643
-34.7739
-33.4608
-31.3624
-28.455
-24.7565
-20.3252
-15.2545
-9.66607
-3.70132
2.48765
8.74613
14.9239
20.881
26.492
31.65
36.2699
40.2908
43.6782
46.4243
48.5463
50.0815
51.0787
51.5863
51.6388
51.2427
50.3654
48.9295
46.8158
43.8743
39.9452
34.8862
28.6032
21.0795
12.3993
2.76087
-7.52376
-18.0427
-28.3126
-37.8182
-46.0599
-52.6034
-57.1264
-59.4562
-59.5937
-57.7203
-54.1864
-49.4811
-44.1878
-38.9266
-34.2896
-30.7736
-28.7136
-28.2213
-29.1314
-30.9614
-32.8889
-33.7553
-32.1078
-26.2901
-14.5932
4.52812
32.1813
68.726
113.47
164.426
218.199
270.059
314.234
344.434
354.565
339.542
296.104
223.494
123.879
2.44236
-132.922
-272.279
-404.627
-519.055
-605.941
-658.033
-671.268
-645.225
-583.16
-491.617
-379.659
-257.849
-137.081
-27.4311
62.8536
128.099
165.618
175.763
161.631
128.484
82.9698
32.2578
-16.8134
-58.4651
-88.518
-104.69
-106.644
-95.8014
-74.9651
-47.8233
-18.3972
9.48927
32.6571
48.8923
57.1116
57.3704
50.729
39.0082
24.4771
9.51818
-3.68539
-13.4033
-18.5277
-18.6447
-14.0106
-5.44263
5.85005
18.4706
31.0424
42.3928
51.6926
58.534
62.9438
65.3347
66.4057
67.0101
68.01
70.1386
73.8875
79.4326
86.6065
94.9172
103.61
111.762
118.394
122.596
123.628
121.015
114.602
104.575
91.441
75.9798
59.1614
42.0467
25.6796
10.9819
-1.3362
-10.8423
-17.4163
-21.25
-22.8123
-22.784
-21.9708
-21.2046
-21.2457
-22.697
-25.9406
-31.1035
-38.0557
-46.4383
-55.719
-65.2633
-74.4152
-82.5736
-89.2578
-94.1527
-97.1308
-98.2494
-97.7258
-95.8953
-93.1584
-89.9263
-86.5696
-83.3788
-80.539
-78.1207
-76.0869
-74.3134
-72.6184
-70.7956
-68.6483
-66.0174
-62.803
-58.9754
-54.5767
-49.7138
-44.5435
-39.253
-34.0393
-29.0881
-24.5565
-20.5598
-17.1638
-14.3835
-12.1863
-10.5005
-9.22694
-8.25164
-7.45991
-6.74835
-6.03474
-5.2645
-4.41337
-3.48624
-2.51266
-1.53978
-0.623698
0.179435
0.821627
1.26951
1.50845
1.5439
1.4002
1.11697
0.743916
0.334693
-0.0592586
-0.394175
-0.638116
-0.773375
-0.797024
-0.719672
-0.562758
-0.354823
-0.127324
0.0894787
0.27005
0.396173
0.458375
0.456126
0.396936
0.294541
0.166531
0.0317497
-0.0921847
-0.190934
-0.254873
-0.279778
-0.266769
-0.221596
-0.153417
-0.0732851
0.0074371
0.078538
0.132112
0.163305
0.170595
0.155626
0.122666
0.077785
0.0279044
-0.0201656
-0.0605646
-0.0889778
-0.102809
-0.100536
-0.0794168
-0.0300536
0.07424
0.295477
0.75786
1.68306
3.43076
6.53842
11.7514
20.0338
32.55
50.6106
75.5786
108.74
151.144
203.434
265.678
337.235
416.662
501.693
589.3
675.835
757.25
829.381
888.273
930.509
953.515
955.807
937.153
898.623
842.526
772.236
691.913
606.159
519.634
436.679
360.971
295.261
241.205
199.311
169.001
148.769
136.427
129.398
125.026
120.874
114.963
105.959
93.263
77.0328
58.1198
37.9545
18.3916
1.53552
-10.4405
-15.4751
-11.8017
1.8626
26.1179
60.6779
104.182
154.06
206.498
256.552
298.452
326.092
333.688
316.532
271.724
198.797
100.088
-19.2081
-151.344
-286.684
-414.642
-524.801
-608.054
-657.622
-669.829
-644.503
-584.981
-497.706
-391.469
-276.41
-162.895
-60.4126
23.3708
83.3053
117.123
125.453
111.509
80.511
38.9131
-6.43146
-49.0878
-83.7308
-106.645
-115.985
-111.793
-95.792
-70.9893
-41.1784
-10.3885
17.6351
39.862
54.2767
60.0237
57.397
47.6936
32.9628
15.6962
-1.49978
-16.2049
-26.4292
-30.7768
-28.5228
-19.6054
-4.54549
15.683
39.8122
66.443
94.1929
121.813
148.269
172.773
194.792
214.013
230.296
243.617
254.013
261.534
266.222
268.091
267.14
263.362
256.775
247.438
235.473
221.069
204.492
186.076
166.214
145.348
123.962
102.561
81.6647
61.7849
43.4081
26.9661
12.8051
1.14998
-7.92954
-14.5465
-19.0112
-21.8264
-23.661
-25.2999
-27.5754
-31.2877
-37.1223
-45.5777
-56.9118
-71.1152
-87.9154
-106.81
-127.127
-148.097
-168.935
-188.917
-207.443
-224.075
-238.561
-250.828
-260.956
-269.144
-275.66
-280.795
-284.819
-287.952
-290.34
-292.05
-293.077
-293.357
-292.79
-291.268
-288.693
-284.999
-280.164
-274.206
-267.175
-259.147
-250.195
-240.381
-229.736
-218.258
-205.911
-192.638
-178.378
-163.094
-146.804
-129.6
-111.674
-93.3233
-74.9477
-57.028
-40.0934
-24.677
-11.267
-0.257872
8.09154
13.6868
16.6107
17.1177
15.6098
12.5981
8.65295
4.35041
0.219241
-3.30383
-5.907
-7.42095
-7.82011
-7.2085
-5.79304
-3.84811
-1.67625
0.430191
2.22212
3.51816
4.21854
4.3077
3.84662
2.95675
1.79839
0.546707
-0.631438
-1.59712
-2.25341
-2.55271
-2.49724
-2.13329
-1.54057
-0.818678
-0.0724286
0.601978
1.12869
1.46131
1.58976
1.546
1.4098
1.31524
1.4572
2.09582
3.5556
6.21586
10.49
16.7927
25.4975
36.8873
51.1049
68.1092
87.6443
109.226
132.154
155.54
178.372
199.584
218.146
233.153
243.911
250.002
251.328
248.117
240.902
230.465
217.754
203.778
189.502
175.735
163.037
151.658
141.499
132.126
122.82
112.672
100.706
86.0185
67.9198
46.0523
20.4748
-8.30379
-39.3437
-71.3469
-102.774
-131.989
-157.422
-177.719
-191.876
-199.333
-200.026
-194.381
-183.273
-167.926
-149.797
-130.419
-111.252
-93.5287
-78.1145
-65.3973
-55.2086
-46.7913
-38.8207
-29.4913
-16.6758
1.84065
28.0554
63.392
108.329
162.065
222.285
285.099
345.194
396.245
431.553
444.85
431.186
387.756
314.529
214.588
94.0779
-38.2448
-171.827
-295.407
-398.244
-471.317
-508.362
-506.581
-466.958
-394.131
-295.836
-182.012
-63.6726
48.3115
144.363
217.152
262.252
278.422
267.521
234.066
184.529
126.452
67.5203
14.682
-26.5608
-52.6386
-62.129
-55.6991
-35.8082
-6.22578
28.5575
63.946
95.8036
120.902
137.212
144.009
141.814
132.173
117.338
99.8894
82.3601
66.903
55.0483
47.5692
44.4638
45.0433
48.1063
52.1657
55.6933
57.3482
56.1599
51.6447
43.8468
33.3058
20.9597
8.00257
-4.28131
-14.6854
-22.2289
-26.2697
-26.5696
-23.3081
-17.0462
-8.6459
0.841041
10.3017
18.6909
25.1454
29.0711
30.1928
28.5651
24.543
18.7207
11.8453
4.72045
-1.89059
-7.34869
-11.2017
-13.2201
-13.4027
-11.9562
-9.25041
-5.75951
-1.99584
1.55429
4.48543
6.51266
7.49276
7.42607
6.44084
4.76359
2.68055
0.495571
-1.51025
-3.11297
-4.17127
-4.64151
-4.58219
-4.14852
-3.57869
-3.17343
-3.27071
-4.21728
-6.33888
-9.91094
-15.1318
-22.1004
-30.8012
-41.0974
-52.7351
-65.3573
-78.5287
-91.7679
-104.585
-116.521
-127.179
-136.256
-143.557
-149.001
-152.608
-154.483
-154.786
-153.697
-151.388
-147.99
-143.585
-138.195
-131.794
-124.332
-115.766
-106.091
-95.3726
-83.7724
-71.5531
-59.0749
-46.7729
-35.1211
-24.5882
-15.5899
-8.44505
-3.3398
-0.307072
0.778316
0.186947
-1.69351
-4.39881
-7.43587
-10.3322
-12.681
-14.1769
-14.6392
-14.0189
-12.3911
-9.93385
-6.89659
-3.56284
-0.211895
2.91581
5.64553
7.88436
9.62493
10.9366
11.946
12.8091
13.68
14.6801
15.8728
17.2472
18.7131
20.1078
21.2145
21.7873
21.5829
20.3911
18.0643
14.5408
9.86017
4.17092
-2.27282
-9.12444
-15.9683
-22.3522
-27.8266
-31.9874
-34.5172
-35.22
-34.0458
-31.099
-26.6307
-21.0131
-14.7
-8.17696
-1.90788
3.71489
8.41114
12.0385
14.6005
16.2366
17.1954
17.7962
18.3814
19.2686
20.7055
22.8337
25.6659
29.0782
32.819
36.5332
39.8
42.1796
43.2639
42.7271
40.3688
36.1463
30.1916
22.8097
14.459
5.7131
-2.79128
-10.4157
-16.5839
-20.8412
-22.9021
-22.68
-20.296
-16.0656
-10.463
-4.06981
2.4908
8.6246
13.8391
17.8131
20.4606
21.9864
22.9315
24.202
27.0739
33.1612
44.3329
62.5629
89.7046
127.191
175.682
234.694
302.283
374.846
447.123
512.451
563.295
592.023
591.855
557.848
487.783
382.795
247.626
90.4339
-77.8618
-244.622
-396.801
-522.363
-611.618
-658.29
-660.2
-619.455
-542.143
-437.566
-317.131
-193.039
-76.9411
21.2771
94.4369
138.641
153.436
141.559
108.352
60.9111
7.11003
-45.3766
-89.9399
-121.693
-137.863
-137.886
-123.237
-97.0257
-63.4381
-27.105
7.5196
36.6957
57.7909
69.4984
71.8687
66.1685
54.6034
39.9491
25.1485
12.9255
5.46497
4.18992
9.65574
21.5629
38.8749
60.016
83.1163
106.268
127.76
146.262
160.942
171.506
178.167
181.549
182.553
182.193
181.438
181.076
181.609
183.198
185.652
188.474
190.931
192.166
191.308
187.593
180.463
169.641
155.175
137.446
117.136
95.1693
72.6287
50.6525
30.3316
12.6112
-1.79001
-12.4362
-19.2008
-22.2613
-22.0643
-19.2668
-14.6589
-9.07958
-3.3334
1.88268
6.03519
8.78811
10.0128
9.77514
8.30265
5.93788
3.084
0.149871
-2.49901
-4.57861
-5.91008
-6.42795
-6.17337
-5.2752
-3.92248
-2.33306
-0.72263
0.721827
1.86132
2.61533
2.96337
2.93849
2.61488
2.0919
1.47721
0.871268
0.355182
-0.017077
-0.221661
-0.263326
-0.170313
0.0131059
0.234965
0.443424
0.592908
0.647851
0.583795
0.38616
0.0474042
-0.436415
-1.06861
-1.85341
-2.79557
-3.89787
-5.15681
-6.55758
-8.06921
-9.64128
-11.2033
-12.6673
-13.9346
-14.9046
-15.4864
-15.611
-15.2414
-14.3809
-13.0765
-11.4174
-9.52841
-7.55884
-5.66835
-4.01109
-2.72031
-1.89506
-1.59057
-1.81311
-2.51989
-3.62383
-5.00245
-6.50995
-7.99122
-9.29642
-10.2947
-10.8861
-11.0103
-10.6515
-9.8388
-8.64273
-7.16656
-5.53475
-3.87869
-2.32172
-0.964859
0.124622
0.920678
1.44075
1.74263
1.91629
2.07189
2.32558
2.78504
3.53666
4.63574
6.10071
7.91182
10.0137
12.3215
14.7291
17.1189
19.3722
21.3783
23.0429
24.2948
25.0893
25.4105
25.2685
24.696
23.7408
22.4575
20.8982
19.1046
17.1022
14.8968
12.4765
9.81616
6.88544
3.65831
0.122685
-3.71168
-7.80829
-12.1028
-16.5059
-20.9092
-25.194
-29.2405
-32.9374
-36.1905
-38.9285
-41.1079
-42.7152
-43.7664
-44.3052
-44.3982
-44.1291
-43.5903
-42.8727
-42.0539
-41.1833
-40.2629
-39.2229
-37.8894
-35.946
-32.8896
-27.9917
-20.2745
-8.52156
8.65798
32.6935
64.8368
105.871
155.776
213.393
276.171
340.059
399.613
448.362
479.424
486.313
463.849
409.029
321.718
205.043
65.3874
-88.0291
-243.978
-390.347
-515.431
-609.227
-664.559
-677.873
-649.629
-584.199
-489.331
-375.219
-253.329
-135.116
-30.8014
51.6433
107.203
134.139
133.912
110.739
70.877
21.7176
-29.1652
-74.9053
-110.069
-131.139
-136.729
-127.514
-105.929
-75.6763
-41.138
-6.7614
23.4988
46.6194
60.7883
65.5048
61.5084
50.5619
35.1301
18.0073
1.94265
-10.6871
-18.1235
-19.3673
-14.2094
-3.15988
12.7042
31.9429
52.9768
74.2982
94.6433
113.109
129.201
142.826
154.219
163.844
172.268
180.04
187.583
195.122
202.646
209.903
216.44
221.658
224.893
225.501
222.934
216.811
206.966
193.474
176.655
157.056
135.412
112.59
89.5301
67.1735
46.3951
27.9423
12.3833
0.0700678
-8.88144
-14.5927
-17.4044
-17.8403
-16.5558
-14.2755
-11.7247
-9.56341
-8.32618
-8.37694
-9.88134
-12.8003
-16.9047
-21.8103
-27.0272
-32.0199
-36.2701
-39.335
-40.8953
-40.7876
-39.0175
-35.7538
-31.3048
-26.0796
-20.5417
-15.1578
-10.3507
-6.45881
-3.70759
-2.195
-1.89107
-2.65085
-4.23838
-6.35827
-8.69084
-10.9269
-12.7986
-14.1022
-14.7133
-14.5902
-13.7696
-12.3528
-10.4876
-8.34667
-6.10676
-3.93019
-1.95096
-0.266321
1.06608
2.02626
2.62619
2.90197
2.9051
2.6943
2.32861
1.86238
1.34213
0.805423
0.281133
-0.209073
-0.648632
-1.02373
-1.32108
-1.52623
-1.62243
-1.59051
-1.40951
-1.05814
-0.516914
0.229501
1.18992
2.3648
3.74511
5.31244
7.04016
8.89591
10.8451
12.8549
14.8993
16.963
19.0453
21.1627
23.3495
25.6567
28.1476
30.8918
33.9564
37.3961
41.2434
45.4997
50.129
55.0557
60.1659
65.3133
70.3279
75.0267
79.2245
82.744
85.4236
87.1221
87.7221
87.1306
85.2803
82.1309
77.6724
71.9299
64.9697
56.905
47.9001
38.1709
27.9801
17.6272
7.43342
-2.27882
-11.2073
-19.0922
-25.7355
-31.0152
-34.8934
-37.4169
-38.7093
-38.9578
-38.3934
-37.2684
-35.8333
-34.3133
-32.8869
-31.6663
-30.6775
-29.8371
-28.9267
-27.5604
-25.1519
-20.8881
-13.7232
-2.41037
14.4081
38.0395
69.5043
109.239
156.779
210.466
267.271
322.779
371.407
406.86
422.803
413.69
375.615
307.069
209.469
87.3518
-51.8333
-198.323
-340.983
-468.468
-570.472
-638.876
-668.666
-658.49
-610.779
-531.429
-429.093
-314.16
-197.589
-89.7149
0.811346
67.8337
108.168
121.706
111.17
81.5524
39.3487
-8.31808
-54.5685
-93.5274
-120.895
-134.276
-133.255
-119.22
-94.9999
-64.3594
-31.4338
-0.182068
26.0844
45.0428
55.544
57.6344
52.4286
41.8659
28.39
14.6026
2.93296
-4.63508
-6.75346
-2.80265
7.11305
22.256
41.4103
63.0753
85.6686
107.714
127.992
145.639
160.192
171.579
180.055
186.117
190.391
193.52
196.063
198.418
200.774
203.095
205.137
206.492
206.649
205.067
201.249
194.804
185.505
173.317
158.416
141.176
122.15
102.029
81.5864
61.6266
42.9202
26.1501
11.8616
0.42585
-7.98308
-13.3942
-16.0295
-16.2781
-14.6579
-11.7678
-8.23518
-4.66307
-1.58185
0.590369
1.57551
1.24925
-0.359919
-3.08567
-6.65061
-10.7018
-14.8508
-18.7149
-21.9537
-24.2997
-25.579
-25.7206
-24.7555
-22.8045
-20.0591
-16.7561
-13.1508
-9.49037
-5.99105
-2.82139
-0.0919928
2.14716
3.90265
5.2279
6.2095
6.9516
7.56023
8.12928
8.7296
9.40191
10.154
10.9622
11.7758
12.5253
13.131
13.5134
13.6019
13.3428
12.7044
11.6798
10.2859
8.56091
6.55869
4.34205
1.97562
-0.48078
-2.97754
-5.47861
-7.96263
-10.4219
-12.8596
-15.2855
-17.7112
-20.1461
-22.5931
-25.0465
-27.4913
-29.9031
-32.2507
-34.4988
-36.6112
-38.5549
-40.3022
-41.8322
-43.1313
-44.1907
-45.003
-45.5579
-45.8365
-45.8068
-45.4208
-44.6133
-43.3042
-41.4035
-38.8194
-35.4682
-31.2849
-26.2338
-20.3183
-13.5876
-6.13982
1.87794
10.2749
18.826
27.2846
35.3989
42.9292
49.6649
55.4405
60.1467
63.7384
66.2358
67.7205
68.3247
68.2166
67.5807
66.5972
65.4196
64.1561
62.8543
61.4937
59.9861
58.1859
55.9094
52.9596
49.1567
44.3669
38.5277
31.6652
23.901
15.4474
6.59167
-2.32953
-10.9615
-18.9655
-26.0516
-32.0045
-36.7027
-40.125
-42.3464
-43.5226
-43.865
-43.6085
-42.9742
-42.1293
-41.1456
-39.9582
-38.3256
-35.7938
-31.6713
-25.0231
-14.6954
0.613393
22.2226
51.2743
88.4769
133.811
186.234
243.456
301.825
356.421
401.356
430.316
437.285
417.368
367.607
287.642
180.112
50.7005
-92.2175
-238.302
-376.272
-495.107
-585.259
-639.73
-654.855
-630.71
-571.067
-482.925
-375.682
-260.048
-146.85
-45.8761
35.1024
91.0274
119.895
122.726
103.191
66.9666
20.9066
-27.8429
-72.6874
-108.283
-131.02
-139.258
-133.3
-115.142
-88.0402
-55.9773
-23.0938
6.83867
30.8442
47.0269
54.6936
54.3162
47.3556
35.9829
22.7426
10.2047
0.649673
-4.18008
-3.23771
3.77005
16.4216
33.7014
54.1792
76.2221
98.2074
118.713
136.662
151.411
162.772
170.975
176.581
180.358
183.139
185.688
188.583
192.13
196.33
200.88
205.228
208.656
210.381
209.671
205.939
198.83
188.26
174.433
157.819
139.103
119.11
98.73
78.8317
60.1929
43.4443
29.0336
17.2109
8.03422
1.39057
-2.97007
-5.39449
-6.28367
-6.05275
-5.09648
-3.76264
-2.33429
-1.02103
0.0416558
0.786388
1.20298
1.32465
1.21311
0.94427
0.59571
0.236834
-0.0778991
-0.312669
-0.451212
-0.495511
-0.46289
-0.382124
-0.289102
-0.222429
-0.219236
-0.311356
-0.522001
-0.863041
-1.33307
-1.91649
-2.58376
-3.29322
-3.99433
-4.63236
-5.15415
-5.51427
-5.68075
-5.63963
-5.39749
-4.98137
-4.43613
-3.81937
-3.1946
-2.62366
-2.15945
-1.84
-1.68469
-1.69315
-1.84674
-2.11251
-2.44873
-2.81125
-3.15957
-3.4618
-3.69779
-3.8601
-3.95286
-3.9889
-3.98582
-3.96178
-3.9318
-3.90516
-3.88426
-3.86492
-3.83796
-3.79163
-3.71432
-3.59702
-3.43515
-3.22941
-2.98568
-2.71391
-2.4265
-2.13631
-1.85479
-1.59032
-1.34707
-1.12433
-0.9163
-0.712309
-0.497321
-0.252797
0.0422163
0.40978
0.871622
1.44768
2.1548
3.00573
4.00874
5.1679
6.48438
7.95874
9.59419
11.4005
13.3977
15.6194
18.1131
20.9386
24.1627
27.8497
32.0501
36.7868
42.0416
47.7445
53.7655
59.9131
65.9382
71.5451
76.4082
80.1947
82.5903
83.327
82.21
79.1413
74.1368
67.3342
58.991
49.4707
39.2179
28.7253
18.4943
8.9935
0.62075
-6.32903
-11.6853
-15.411
-17.5984
-18.4519
-18.2615
-17.3681
-16.126
-14.8671
-13.8682
-13.3261
-13.3395
-13.8972
-14.8693
-15.9976
-16.8825
-16.9641
-15.5019
-11.5607
-4.01588
8.40417
27.0206
53.0391
87.3152
130.065
180.559
236.849
295.611
352.151
400.647
434.635
447.702
434.336
390.795
315.862
211.369
82.3562
-63.1691
-214.89
-361.179
-490.317
-591.786
-657.457
-682.516
-666.009
-610.93
-523.85
-414.141
-292.881
-171.616
-61.1054
29.7815
94.8956
131.279
139.241
122.055
85.3439
36.2331
-17.5859
-68.7836
-111.192
-140.393
-154.043
-151.927
-135.745
-108.699
-74.94
-38.9561
-4.98625
23.4779
44.0454
55.6081
58.3465
53.5752
43.4628
30.6747
17.9889
7.93544
2.50276
2.94066
9.67519
22.3356
39.8787
60.7858
83.2989
105.662
126.339
144.173
158.488
169.112
176.327
180.774
183.314
184.876
186.313
188.28
191.155
195
199.569
204.357
208.678
211.757
212.832
211.247
206.528
198.434
186.977
172.42
155.246
136.108
115.766
95.0214
74.6475
55.3319
37.6284
21.9252
8.43056
-2.82332
-11.9615
-19.2336
-24.9734
-29.5535
-33.3426
-36.6676
-39.7857
-42.8679
-45.9949
-49.1643
-52.3072
-55.3108
-58.0442
-60.3829
-62.2294
-63.5279
-64.2711
-64.4991
-64.2905
-63.748
-62.9794
-62.0771
-61.1002
-60.0602
-58.9152
-57.5721
-55.8978
-53.7384
-50.9428
-47.3888
-43.0064
-37.7964
-31.8398
-25.2986
-18.4054
-11.4446
-4.72676
1.44083
6.78363
11.0861
14.2116
16.1137
16.8378
16.5136
15.3383
13.5546
11.4242
9.20136
7.10814
5.31518
3.92879
2.98591
2.45693
2.2555
2.25396
2.30233
2.24868
1.95861
1.33211
0.316148
-1.08799
-2.82325
-4.78137
-6.81296
-8.74243
-10.3864
-11.5737
-12.1655
-12.0727
-11.2686
-9.79588
-7.76597
-5.35052
-2.76626
-0.254107
1.94489
3.61424
4.58438
4.75031
4.08237
2.62935
0.513468
-2.08157
-4.92806
-7.77487
-10.3687
-12.4735
-13.8863
-14.4483
-14.0506
-12.635
-10.1918
-6.75462
-2.39409
2.78811
8.66502
15.0893
21.898
28.9173
35.9678
42.8715
49.4596
55.5814
61.1138
65.9698
70.1059
73.5253
76.2778
78.4541
80.1745
81.5726
82.7751
83.8798
84.9353
85.9237
86.7523
87.2544
87.2013
86.3258
84.3538
81.0419
76.2141
69.7947
61.8303
52.4983
42.0996
31.0365
19.7768
8.80991
-1.39982
-10.4577
-18.0745
-24.0902
-28.4829
-31.362
-32.9478
-33.5401
-33.4803
-33.111
-32.7388
-32.6029
-32.8518
-33.5277
-34.5571
-35.7431
-36.7555
-37.1144
-36.1671
-33.0612
-26.7264
-15.8792
0.922856
25.159
25.159
25.159
25.159
25.159
25.159
25.159
25.159
25.159
25.159
25.159
25.159
25.159
25.159
25.159
25.159
25.159
25.159
25.159
25.159
25.159
25.159
25.159
25.159
25.159
25.159
25.159
25.159
25.159
25.159
25.159
