-350.34
-291.12
-225.879
-157.014
-87.434
-20.2984
41.3035
94.6756
137.802
169.559
189.828
199.485
200.281
194.624
185.29
175.109
166.656
161.982
162.431
168.54
180.038
195.941
214.715
234.494
253.304
269.298
280.935
287.123
287.293
281.409
269.925
253.691
233.833
211.62
188.33
165.137
143.016
122.692
104.609
88.9424
75.6315
64.4335
54.9888
46.8883
39.7356
33.1972
27.0366
21.1298
15.4634
10.1167
5.23298
0.983999
-2.4658
-4.99135
-6.53075
-7.09844
-6.78681
-5.75683
-4.21996
-2.4141
-0.577325
1.07708
2.38127
3.22685
3.57087
3.43388
2.89073
2.05597
1.06595
0.0601778
-0.835779
-1.52397
-1.94293
-2.07121
-1.9256
-1.55493
-1.03052
-0.434912
0.149542
0.650922
1.01553
1.21262
1.23573
1.10087
0.84211
0.505361
0.141355
-0.201227
-0.481629
-0.671287
-0.756098
-0.736643
-0.626543
-0.449349
-0.234528
-0.013126
0.1863
0.341007
0.436295
0.46649
0.434638
0.351061
0.230983
0.0915379
-0.0514962
-0.186836
-0.310305
-0.426558
-0.549623
-0.702128
-0.913215
-1.21535
-1.6404
-2.2154
-2.95888
-3.87811
-4.96818
-6.21339
-7.59119
-9.0789
-10.6627
-12.3485
-14.1726
-16.2117
-18.5884
-21.4723
-25.0725
-29.623
-35.3596
-42.4905
-51.163
-61.4308
-73.2263
-86.3425
-100.428
-115
-129.469
-143.186
-155.491
-165.776
-173.537
-178.425
-180.275
-179.125
-175.205
-168.913
-160.77
-151.362
-141.277
-131.038
-121.034
-111.452
-102.22
-92.9554
-82.927
-71.0515
-55.9255
-35.9146
-9.30415
25.488
69.6485
123.683
187.148
258.441
334.706
411.887
484.954
548.298
596.267
623.78
626.949
603.611
553.707
479.429
385.115
276.885
162.067
48.4659
-56.4121
-146.112
-215.844
-262.901
-286.832
-289.355
-274.035
-245.781
-210.219
-173.032
-139.344
-113.214
-97.3003
-92.7024
-99.0058
-114.49
-136.469
-161.707
-186.857
-208.867
-225.306
-234.583
-236.045
-229.946
-217.319
-199.765
-179.195
-157.567
-136.652
-117.842
-102.033
-89.5869
-80.356
-73.7766
-68.9985
-65.0355
-60.9137
-55.7981
-49.0852
-40.4514
-29.8593
-17.524
-3.84959
10.6505
25.4387
40.0291
54.0458
67.2564
79.579
91.0647
101.861
112.163
122.163
132.003
141.742
151.33
160.614
169.339
177.182
183.775
188.746
191.753
192.509
190.809
186.544
179.711
170.408
158.835
145.281
130.109
113.74
96.6345
79.2709
62.1236
45.6416
30.2278
16.2202
3.87698
-6.63378
-15.2382
-21.9548
-26.8852
-30.2004
-32.1208
-32.8953
-32.7788
-32.0117
-30.8035
-29.3212
-27.6845
-25.966
-24.1982
-22.383
-20.5045
-18.5417
-16.4804
-14.3214
-12.0857
-9.81592
-7.57349
-5.43281
-3.47362
-1.77232
-0.393561
0.616727
1.23637
1.46938
1.34576
0.918797
0.260269
-0.545915
-1.41097
-2.24869
-2.98242
-3.55093
-3.91261
-4.04773
-3.95846
-3.66682
-3.21066
-2.63823
-2.00196
-1.35192
-0.729842
-0.164254
0.332819
0.767186
1.1618
1.55411
1.99191
2.52814
3.21551
4.10164
5.22556
6.616
8.29174
10.2637
12.538
15.1193
18.0134
21.2275
24.7688
28.641
32.8384
37.3407
42.1074
47.0748
52.1554
57.2409
62.2078
66.9259
71.2677
75.1178
78.3808
80.9873
82.8958
84.0922
84.5857
84.4019
83.5756
82.1417
80.1285
77.5522
74.4149
70.7058
66.4057
61.4939
55.9568
49.7965
43.0385
35.7363
27.9736
19.8626
11.5397
3.15925
-5.11359
-13.1073
-20.6441
-27.5305
-33.5353
-38.3518
-41.5458
-42.4937
-40.3268
-33.8974
-21.7907
-2.40054
25.9168
64.614
114.665
176.251
248.475
329.146
414.703
500.305
580.12
647.793
697.063
722.449
719.932
687.523
625.645
537.252
427.656
304.085
174.997
49.249
-64.7877
-160.053
-231.467
-276.366
-294.654
-288.672
-262.796
-222.845
-175.356
-126.835
-83.0687
-48.5662
-26.2002
-17.0606
-20.529
-34.5432
-56.004
-81.2629
-106.624
-128.796
-145.251
-154.444
-155.889
-150.099
-138.396
-122.655
-104.994
-87.4731
-71.8353
-59.317
-50.5441
-45.5206
-43.6992
-44.1165
-45.5666
-46.789
-46.6412
-44.2381
-39.0415
-30.8953
-20.0067
-6.88259
7.7648
23.1286
38.4165
52.9455
66.2106
77.9215
88.0071
96.5885
103.931
110.379
116.293
121.985
127.669
133.436
139.236
144.89
150.113
154.545
157.793
159.474
159.246
156.842
152.09
144.927
135.401
123.666
109.978
94.6732
78.1605
60.8953
43.3608
26.0446
9.41483
-6.10386
-20.1524
-32.4567
-42.8408
-51.2343
-57.6703
-62.2757
-65.2518
-66.8507
-67.3458
-67.0035
-66.0576
-64.6897
-63.0187
-61.0997
-58.9321
-56.4753
-53.669
-50.4557
-46.8007
-42.7076
-38.2275
-33.4595
-28.5446
-23.6524
-18.9638
-14.6525
-10.8663
-7.71263
-5.24869
-3.47769
-2.35145
-1.77847
-1.63636
-1.78673
-2.0906
-2.42242
-2.68123
-2.79759
-2.73614
-2.49365
-2.0934
-1.57681
-0.993836
-0.393262
0.185706
0.719716
1.20475
1.65664
2.10872
2.60721
3.20504
3.95498
4.90308
6.08326
7.51388
9.1966
11.1179
13.253
15.5719
18.0461
20.6562
23.3979
26.2863
29.3566
32.662
36.2672
40.2399
44.6389
49.5018
54.8324
60.5907
66.6843
72.9664
79.2363
85.2482
90.7235
95.3692
98.8994
101.059
101.644
100.526
97.658
93.0886
86.9551
79.4754
70.9303
61.6407
51.9432
42.1646
32.5996
23.4935
15.031
7.33119
0.449429
-5.61616
-10.9139
-15.5255
-19.5505
-23.089
-26.2183
-28.963
-31.253
-32.8679
-33.3683
-32.0208
-27.7307
-19.003
-3.96219
19.543
53.7265
100.54
161.255
236.011
323.393
420.149
521.121
619.463
707.163
775.822
817.627
826.357
798.29
732.868
632.99
504.893
357.603
202.032
49.8279
-87.8696
-201.605
-284.569
-333.229
-347.56
-330.858
-289.188
-230.535
-163.796
-97.7341
-40.0169
3.53219
29.414
36.6194
26.4886
2.30771
-31.2865
-69.0043
-105.608
-136.541
-158.406
-169.257
-168.679
-157.673
-138.378
-113.681
-86.7774
-60.7351
-38.129
-20.7709
-9.5678
-4.50771
-4.76415
-8.89088
-15.0735
-21.3995
-26.1104
-27.8067
-25.5847
-19.0965
-8.53346
5.45518
21.891
39.6211
57.4769
74.4157
89.6309
102.619
113.205
121.514
127.926
132.984
137.308
141.497
146.052
151.311
157.416
164.297
171.692
179.177
186.215
192.213
196.578
198.772
198.358
195.031
188.648
179.23
166.968
152.209
135.431
117.22
98.2339
79.161
60.6811
43.4242
27.9318
14.6248
3.77867
-4.48965
-10.2237
-13.6164
-14.987
-14.7482
-13.3674
-11.3236
-9.06725
-6.98412
-5.36871
-4.40804
-4.17752
-4.6483
-5.70458
-7.16809
-8.82657
-10.4628
-11.8806
-12.926
-13.5002
-13.566
-13.145
-12.3094
-11.168
-9.85031
-8.48953
-7.20726
-6.10129
-5.23758
-4.64665
-4.32447
-4.23701
-4.32754
-4.52549
-4.75575
-4.94737
-5.04074
-4.9928
-4.77984
-4.39784
-3.86057
-3.19584
-2.44034
-1.63393
-0.813817
-0.00954685
0.760897
1.49332
2.19774
2.89711
3.62448
4.41932
5.32359
6.37841
7.62187
9.0884
10.8095
12.8152
15.1356
17.8016
20.8435
24.2879
28.1529
32.4414
37.1354
42.1902
47.531
53.0531
58.6244
64.0919
69.2895
74.0487
78.2085
81.6241
84.1741
85.7641
86.3268
85.8199
84.2215
81.5261
77.7411
72.8871
67.0007
60.1402
52.394
43.8871
34.7866
25.302
15.6797
6.19164
-2.88164
-11.272
-18.7451
-25.1191
-30.2763
-34.1632
-36.7752
-38.1202
-38.1611
-36.7369
-33.4675
-27.6572
-18.2169
-3.63357
17.9804
48.7309
90.6652
145.384
213.583
294.594
386.021
483.557
581.075
671.018
745.092
795.174
814.336
797.821
743.828
653.974
533.335
390.061
234.59
78.5578
-66.445
-190.112
-284.497
-344.797
-369.738
-361.545
-325.505
-269.203
-201.535
-131.634
-67.8457
-16.8656
16.855
31.3983
27.3441
7.4438
-23.9336
-61.4962
-99.7676
-133.776
-159.616
-174.82
-178.523
-171.407
-155.462
-133.604
-109.213
-85.6572
-65.8595
-51.9626
-45.1201
-45.4323
-52.02
-63.216
-76.8388
-90.5071
-101.953
-109.291
-111.223
-107.138
-97.1388
-81.9554
-62.8071
-41.2088
-18.7629
3.03811
22.9749
40.2129
54.3528
65.4214
73.8087
80.1656
85.2799
89.9482
94.8608
100.513
107.15
114.752
123.053
131.588
139.761
146.922
152.441
155.777
156.523
154.439
149.463
141.709
131.443
119.061
105.055
89.9757
74.4064
58.9259
44.0825
30.3686
18.1979
7.88795
-0.354198
-6.43944
-10.3978
-12.3721
-12.6035
-11.4107
-9.16257
-6.24872
-3.04834
0.0978132
2.91051
5.18772
6.81169
7.74711
8.0312
7.75747
7.05557
6.06985
4.93943
3.78185
2.68196
1.68674
0.805864
0.0172061
-0.724144
-1.47509
-2.29365
-3.22948
-4.31688
-5.571
-6.98708
-8.54255
-10.2012
-11.9186
-13.6474
-15.3425
-16.9645
-18.4822
-19.8734
-21.1237
-22.2256
-23.1758
-23.9734
-24.6177
-25.1067
-25.4365
-25.6006
-25.5904
-25.3963
-25.0079
-24.4158
-23.6119
-22.5899
-21.3456
-19.8749
-18.1731
-16.2319
-14.037
-11.5663
-8.7892
-5.6674
-2.1584
1.77909
6.17793
11.0543
16.3994
22.1728
28.2974
34.6581
41.1034
47.4519
53.5011
59.0391
63.8583
67.7693
70.6132
72.2727
72.6797
71.8192
69.7292
66.4973
62.253
57.1585
51.3968
45.1607
38.6412
32.0186
25.4552
19.0906
13.0396
7.39236
2.21585
-2.44289
-6.55262
-10.0925
-13.0445
-15.3815
-17.0493
-17.9384
-17.844
-16.4143
-13.0904
-7.05026
2.82587
17.9453
39.9217
70.4038
110.81
161.985
223.823
294.933
372.405
451.786
527.29
592.266
639.891
664.009
659.977
625.412
560.696
469.151
356.843
232.02
104.257
-16.5802
-121.417
-202.958
-256.437
-280.066
-275.104
-245.567
-197.637
-138.838
-77.1112
-19.8979
26.6507
58.2556
72.8254
70.4877
53.3569
25.0875
-9.71298
-46.1292
-79.5556
-106.216
-123.528
-130.291
-126.678
-114.072
-94.759
-71.5572
-47.408
-25.0028
-6.47906
6.78309
14.2479
16.1973
13.6065
7.94643
0.948304
-5.63862
-10.2634
-11.7407
-9.35317
-2.8842
7.41562
20.9161
36.732
53.8641
71.3381
88.3214
104.208
118.664
131.626
143.27
153.948
164.102
174.18
184.556
195.461
206.945
218.854
230.843
242.402
252.9
261.646
267.947
271.164
270.772
266.398
257.857
245.173
228.582
208.527
185.633
160.673
134.522
108.1
82.3142
58.0033
35.8835
16.5076
0.236638
-12.7721
-22.5607
-29.3503
-33.5076
-35.5017
-35.8554
-35.0964
-33.7124
-32.1143
-30.6106
-29.394
-28.5412
-28.0243
-27.7314
-27.4953
-27.1235
-26.4302
-25.2635
-23.5271
-21.1934
-18.3082
-14.9847
-11.3899
-7.72533
-4.2027
-1.02029
1.65886
3.7235
5.12375
5.87282
6.04099
5.74297
5.1207
4.32389
3.49112
2.7339
2.12552
1.69586
1.43246
1.2872
1.18737
1.04932
0.792694
0.3534
-0.30642
-1.19239
-2.2764
-3.49945
-4.77805
-6.01297
-7.09892
-7.93369
-8.42545
-8.49758
-8.09092
-7.16378
-5.69076
-3.66126
-1.07861
2.0398
5.66095
9.73376
14.1861
18.9217
23.8186
28.7285
33.4788
37.8778
41.7226
44.8109
46.9551
47.9977
47.8271
46.3915
43.7088
39.8703
35.0379
29.4344
23.3256
16.9979
10.7334
4.78436
-0.648313
-5.43105
-9.50494
-12.8844
-15.6471
-17.917
-19.8424
-21.5728
-23.236
-24.9194
-26.6574
-28.4234
-30.1291
-31.6247
-32.6995
-33.0751
-32.3876
-30.1564
-25.7406
-18.2929
-6.72819
10.2718
34.1892
66.5171
108.517
160.899
223.469
294.806
372.043
450.834
525.548
589.722
636.718
660.527
656.599
622.567
558.747
468.321
357.156
233.274
106.027
-14.9075
-120.581
-203.739
-259.569
-286.143
-284.512
-258.434
-213.814
-157.917
-98.4648
-42.7496
3.14627
34.9279
50.4101
49.5648
34.3106
8.09026
-24.6931
-59.3005
-91.2616
-116.886
-133.631
-140.287
-136.988
-125.053
-106.693
-84.6446
-61.7709
-40.6842
-23.4398
-11.327
-4.77594
-3.3807
-6.02581
-11.0908
-16.7007
-20.9877
-22.3293
-19.5368
-11.9727
0.410873
17.1112
37.1806
59.3793
82.3523
104.805
125.656
144.147
159.904
172.938
183.596
192.476
200.306
207.829
215.681
224.305
233.888
244.343
255.317
266.243
276.405
285.018
291.318
294.628
294.428
290.395
282.423
270.627
255.327
237.017
216.321
193.948
170.644
147.142
124.121
102.178
81.7998
63.354
47.0846
33.1164
21.4652
12.0523
4.72088
-0.745992
-4.6072
-7.1456
-8.65054
-9.40146
-9.65304
-9.62281
-9.48193
-9.34998
-9.29418
-9.33308
-9.4444
-9.57595
-9.65861
-9.61961
-9.39494
-8.93927
-8.23272
-7.28379
-6.12853
-4.82642
-3.45372
-2.09535
-0.836331
0.246292
1.09004
1.65176
1.91009
1.8658
1.5401
0.971379
0.21088
-0.682235
-1.6459
-2.61982
-3.54958
-4.38983
-5.10648
-5.678
-6.09559
-6.36254
-6.49271
-6.50839
-6.4376
-6.31097
-6.15847
-6.00615
-5.87316
-5.76915
-5.69245
-5.62881
-5.55106
-5.41917
-5.18093
-4.77297
-4.12212
-3.14758
-1.7641
0.113381
2.56329
5.64933
9.41119
13.8551
18.9453
24.5985
30.6817
37.0147
43.3787
49.5281
55.2076
60.1707
64.1981
67.1157
68.8071
69.2225
68.3805
66.3645
63.3128
59.4041
54.8403
49.8278
44.5603
39.2044
33.8894
28.7034
23.6938
18.8744
14.2349
9.75341
5.4087
1.19055
-2.89256
-6.80919
-10.5025
-13.8872
-16.8402
-19.1809
-20.6357
-20.7834
-18.9867
-14.3185
-5.50375
9.09554
31.4204
63.5532
107.441
164.513
235.241
318.695
412.215
511.258
609.521
699.358
772.493
820.932
837.975
819.168
763.049
671.568
550.084
406.939
252.646
98.7902
-43.21
-163.32
-253.932
-310.598
-332.379
-321.77
-284.237
-227.433
-160.215
-91.5773
-29.6592
19.0832
50.4371
62.6857
56.5472
34.8345
1.90121
-37.0388
-76.6262
-112.014
-139.396
-156.355
-162.007
-156.94
-142.987
-122.863
-99.7361
-76.7846
-56.7979
-41.8681
-33.1982
-31.0408
-34.7617
-43.0073
-53.9452
-65.5399
-75.8245
-83.1357
-86.2852
-84.6526
-78.1966
-67.3916
-53.1076
-36.4531
-18.608
-0.668475
16.4777
32.2311
46.312
58.7437
69.7956
79.8982
89.5454
99.1967
109.194
119.7
130.673
141.857
152.816
162.982
171.715
178.373
182.382
183.29
180.813
174.863
165.553
153.194
138.268
121.395
103.283
84.6893
66.3611
48.9937
33.1864
19.4097
7.98187
-0.942137
-7.3701
-11.4593
-13.4931
-13.8487
-12.9594
-11.2756
-9.2263
-7.18592
-5.44935
-4.21607
-3.58506
-3.55991
-4.06271
-4.95473
-6.06093
-7.1955
-8.18553
-8.89048
-9.21564
-9.11883
-8.6101
-7.74541
-6.61541
-5.33141
-4.01032
-2.76056
-1.67048
-0.800526
-0.179651
0.194068
0.34905
0.333119
0.204877
0.0248284
-0.152582
-0.28508
-0.346274
-0.326758
-0.232804
-0.0830946
0.0958017
0.274477
0.425502
0.527423
0.567523
0.543155
0.461664
0.339085
0.197938
0.0644746
-0.0342059
-0.0728368
-0.0301474
0.1097
0.356555
0.714696
1.18429
1.76383
2.45345
3.25869
4.19421
5.28665
6.57607
8.11517
9.96623
12.1959
14.8687
18.0396
21.7478
26.0113
30.8239
36.1542
41.9461
48.1206
54.5782
61.2008
67.854
74.3887
80.6432
86.4465
91.6229
95.9987
99.4105
101.716
102.802
102.597
101.072
98.2488
94.1938
89.0135
82.8443
75.8419
68.1692
59.9865
51.4444
42.6804
33.8184
24.972
16.2489
7.75577
-0.397569
-8.09584
-15.2178
-21.6366
-27.2197
-31.8233
-35.2789
-37.3646
-37.7597
-35.9803
-31.3034
-22.6956
-8.76781
12.2097
42.2025
83.1947
136.855
204.116
284.718
376.804
476.673
578.754
675.893
759.925
822.52
856.172
855.207
816.65
740.816
631.509
495.791
343.335
185.44
33.8307
-100.588
-208.879
-284.965
-326.162
-333.306
-310.464
-264.289
-203.121
-135.942
-71.3422
-16.6007
23.0031
44.5893
47.7603
34.385
8.13517
-26.1476
-63.1615
-97.8377
-125.935
-144.469
-151.948
-148.392
-135.171
-114.684
-89.9455
-64.1417
-40.2047
-20.4674
-6.42905
1.34833
3.21328
0.284111
-5.77592
-13.0302
-19.5472
-23.6492
-24.1025
-20.2293
-11.9369
0.333235
15.7196
33.097
51.2502
69.039
85.5351
100.114
112.498
122.743
131.189
138.368
144.906
151.413
158.39
166.161
174.825
184.251
194.094
203.839
212.861
220.493
226.097
229.125
229.165
225.978
219.512
209.896
197.428
182.54
165.763
147.69
128.927
110.066
91.6483
74.1473
57.9516
43.3589
30.5757
19.7203
10.8294
3.86654
-1.26883
-4.73166
-6.72089
-7.46851
-7.22774
-6.26057
-4.8249
-3.16176
-1.48364
0.0353735
1.26662
2.13043
2.59581
2.67623
2.42207
1.91038
1.2332
0.485644
-0.24504
-0.888273
-1.39612
-1.74601
-1.94018
-2.00241
-1.97247
-1.89948
-1.83482
-1.82574
-1.9101
-2.113
-2.44523
-2.90376
-3.47372
-4.13174
-4.84985
-5.59968
-6.35629
-7.10135
-7.82526
-8.52816
-9.21953
-9.91671
-10.6422
-11.42
-12.2721
-13.2138
-14.2508
-15.3761
-16.5684
-17.7929
-19.0024
-20.1409
-21.1484
-21.9657
-22.5404
-22.8317
-22.8142
-22.4802
-21.8401
-20.9204
-19.7599
-18.4048
-16.9025
-15.2949
-13.6132
-11.8729
-10.0717
-8.18897
-6.18859
-4.02294
-1.63902
1.01494
3.98311
7.29682
10.9711
15.0033
19.3739
24.0486
28.9816
34.119
39.4009
44.7634
50.1374
55.448
60.6113
65.5322
70.1027
74.2016
77.6966
80.449
82.3211
83.1853
82.9352
81.4967
78.8392
74.9836
70.0083
64.0493
57.2964
49.9839
42.3759
34.7485
27.37
20.4806
14.2744
8.88547
4.38013
0.756625
-2.0466
-4.13316
-5.62055
-6.60022
-7.08451
-6.94002
-5.80946
-3.02934
2.4424
12.0663
27.7008
51.491
85.6464
132.104
192.099
265.703
351.406
445.841
543.742
638.195
721.194
784.458
820.419
823.23
789.649
719.658
616.692
487.449
341.274
189.198
42.7648
-87.222
-191.842
-264.967
-303.814
-309.091
-284.732
-237.273
-174.956
-106.706
-41.09
14.5993
55.0393
77.2838
80.8553
67.5386
40.9268
5.79677
-32.5933
-69.1931
-99.7517
-121.25
-132.137
-132.357
-123.191
-106.948
-86.555
-65.1181
-45.503
-29.9915
-20.0478
-16.2136
-18.1318
-24.6819
-34.2006
-44.7478
-54.3816
-61.4052
-64.5581
-63.1318
-57.004
-46.596
-32.7643
-16.6501
0.492719
17.4651
33.2666
47.1985
58.9174
68.4379
76.0874
82.4236
88.1291
93.8971
100.324
107.824
116.569
126.465
137.167
148.116
158.605
167.864
175.134
179.752
181.212
179.211
173.672
164.745
152.784
138.316
121.992
104.533
86.6813
69.1464
52.5663
37.4727
24.2688
13.2166
4.43511
-2.09232
-6.50302
-9.03312
-9.99133
-9.73012
-8.61637
-7.00368
-5.20814
-3.48924
-2.03723
-0.967429
-0.321687
-0.0763191
-0.155343
-0.447395
-0.824368
-1.15979
-1.34505
-1.30197
-0.990556
-0.41163
0.395799
1.36156
2.39472
3.39583
4.26956
4.93597
5.33939
5.45369
5.28369
4.86253
4.24571
3.50257
2.70646
1.925
1.21153
0.599155
0.0976984
-0.305752
-0.643129
-0.959018
-1.30263
-1.71932
-2.24288
-2.88978
-3.65606
-4.51748
-5.4326
-6.3486
-7.2086
-7.95961
-8.55973
-8.98357
-9.22509
-9.29733
-9.22936
-9.06074
-8.83463
-8.59053
-8.35793
-8.15173
-7.97034
-7.79648
-7.60086
-7.34772
-7.00179
-6.5351
-5.93292
-5.19753
-4.34945
-3.42564
-2.47511
-1.55236
-0.70983
0.00974075
0.579771
0.99431
1.2699
1.44467
1.57478
1.72893
1.98156
2.40566
3.06617
4.01458
5.28511
6.89274
8.83278
11.0816
13.5979
16.3242
19.1883
22.1034
24.9696
27.6736
30.0903
32.0849
33.5163
34.243
34.13
33.0563
30.923
27.6604
23.2323
17.6398
10.9219
3.15536
-5.54595
-15.0323
-25.1184
-35.584
-46.1741
-56.6008
-66.5474
-75.6756
-83.6367
-90.0863
-94.7015
-97.1966
-97.3336
-94.9219
-89.8023
-81.8119
-70.7299
-56.212
-37.7264
-14.5134
14.4056
50.1436
93.7734
146.062
207.14
276.162
351.026
428.228
502.926
569.248
620.837
651.577
656.406
632.094
577.855
495.686
390.36
269.056
140.672
14.8871
-98.8809
-192.499
-259.985
-298.102
-306.616
-288.196
-247.968
-192.817
-130.511
-68.7809
-14.4647
27.1804
52.9283
61.7575
54.7482
34.7381
5.79872
-27.3874
-60.1648
-88.4761
-109.303
-120.933
-123.036
-116.551
-103.434
-86.2852
-67.9387
-51.0568
-37.7859
-29.5126
-26.7419
-29.1018
-35.4643
-44.1553
-53.2189
-60.6972
-64.8872
-64.5439
-59.0071
-48.2428
-32.8006
-13.7002
7.73132
30.0472
51.8668
72.0362
89.7456
104.592
116.583
126.093
133.767
140.407
146.84
153.801
161.826
171.188
181.865
193.546
205.674
217.509
228.215
236.946
242.927
245.526
244.305
239.047
229.763
216.683
200.222
180.947
159.529
136.698
113.193
89.7324
66.9716
45.4832
25.7377
8.0928
-7.21067
-20.0469
-30.3987
-38.3461
-44.0517
-47.7428
-49.6914
-50.1933
-49.548
-48.04
-45.9233
-43.4096
-40.6617
-37.7912
-34.8616
-31.8945
-28.8799
-25.7875
-22.5783
-19.2161
-15.6755
-11.9489
-8.04899
-4.00949
0.117329
4.26452
8.35551
12.3094
16.0463
19.4913
22.5781
25.2518
27.4696
29.2024
30.4338
31.1605
31.3906
31.1429
30.4451
29.3322
27.8449
26.0274
23.9259
21.5868
19.0553
16.3744
13.5845
10.7231
7.82524
4.92394
2.0507
-0.764195
-3.49173
-6.1046
-8.57798
-10.8906
-13.0259
-14.9725
-16.7251
-18.284
-19.6549
-20.8472
-21.8732
-22.7464
-23.4803
-24.087
-24.5768
-24.9576
-25.2345
-25.4095
-25.4808
-25.4407
-25.2744
-24.9564
-24.4489
-23.6998
-22.6429
-21.2001
-19.2865
-16.8167
-13.7142
-9.91968
-5.39986
-0.153768
5.78291
12.3365
19.3965
26.819
34.4316
42.0388
49.4283
56.3771
62.6588
68.0509
72.3447
75.3553
76.9346
76.9825
75.4584
72.3892
67.8725
62.0744
55.2209
47.5841
39.4639
31.1675
22.989
15.1917
7.99328
1.55747
-4.00976
-8.65786
-12.3843
-15.2222
-17.2234
-18.4356
-18.8723
-18.4755
-17.0679
-14.2991
-9.58892
-2.08129
9.37524
26.1974
49.9656
82.2349
124.259
176.648
239.009
309.634
385.319
461.383
531.927
590.342
630.033
645.235
631.851
588.13
515.106
416.692
299.411
171.776
43.4023
-76.0328
-177.844
-255.27
-304.161
-323.338
-314.6
-282.366
-233.046
-174.199
-113.616
-58.4348
-14.3952
14.687
27.1757
23.5918
6.33666
-20.7837
-53.1582
-86.0105
-114.996
-136.686
-148.897
-150.826
-143.006
-127.104
-105.587
-81.337
-57.2372
-35.8108
-18.9353
-7.6676
-2.18996
-1.87148
-5.42629
-11.1395
-17.1257
-21.5849
-23.0227
-20.4121
-13.2798
-1.71474
13.696
31.9883
51.9791
72.4364
92.24
110.51
126.692
140.59
152.346
162.376
171.275
179.701
188.264
197.427
207.434
218.274
229.68
241.16
252.059
261.628
269.113
273.826
275.212
272.898
266.715
256.71
243.131
226.396
207.064
185.783
163.251
140.172
117.219
95.002
74.0473
54.7813
37.5228
22.4807
9.75737
-0.643988
-8.80909
-14.8994
-19.137
-21.7884
-23.1472
-23.516
-23.1901
-22.4408
-21.5029
-20.5633
-19.7552
-19.1553
-18.7863
-18.6235
-18.6047
-18.6423
-18.6379
-18.4951
-18.1315
-17.4886
-16.5371
-15.2792
-13.747
-11.9972
-10.1044
-8.15214
-6.22403
-4.39617
-2.73084
-1.27274
-0.0476086
0.936828
1.68799
2.2244
2.57113
2.75552
2.80384
2.73912
2.58044
2.34339
2.04146
1.68767
1.29608
0.882513
0.464448
0.0598064
-0.314984
-0.647288
-0.930371
-1.16475
-1.35838
-1.52548
-1.68393
-1.85179
-2.04319
-2.2645
-2.51141
-2.7674
-3.00419
-3.1841
-3.26403
-3.20059
-2.95534
-2.49917
-1.81507
-0.898359
0.245617
1.60631
3.17451
4.94961
6.94625
9.19885
11.7629
14.712
18.1309
22.104
26.7017
31.9657
37.8953
44.4374
51.4808
58.858
66.3524
73.7122
80.6691
86.9584
92.3407
96.6191
99.654
101.37
101.756
100.862
98.7856
95.6595
91.6344
86.8635
81.4898
75.6364
69.4021
62.8623
56.0743
49.0857
41.9448
34.7114
27.464
20.3047
13.3585
6.76881
0.690024
-4.71982
-9.30172
-12.8885
-15.2819
-16.21
-15.2639
-11.8196
-4.95817
6.59033
24.4508
50.5203
86.7734
134.951
196.149
270.369
356.102
450.046
547.056
640.371
722.154
784.282
819.317
821.493
787.592
717.552
614.711
485.619
339.448
187.054
39.8277
-91.5338
-198.153
-273.87
-315.798
-324.481
-303.642
-259.586
-200.333
-134.615
-70.856
-16.2741
23.8141
46.4014
50.8942
38.9235
13.9119
-19.5287
-56.2811
-91.3952
-120.671
-141.089
-151.046
-150.397
-140.305
-122.952
-101.142
-77.8819
-55.9715
-37.6699
-24.4648
-16.965
-14.9169
-17.3285
-22.6751
-29.1498
-34.9231
-38.377
-38.2871
-33.935
-25.1445
-12.2461
4.01736
22.6262
42.4372
62.3337
81.3545
98.7859
114.21
127.511
138.835
148.527
157.043
164.861
172.401
179.957
187.66
195.468
203.174
210.442
216.856
221.97
225.363
226.681
225.673
222.207
216.275
207.991
197.571
185.314
171.582
156.771
141.292
125.553
109.941
94.8047
80.4496
67.1234
55.0122
44.2368
34.8537
26.8586
20.1944
14.7611
10.4282
7.04789
4.46699
2.53827
1.12849
0.123811
-0.568052
-1.0184
-1.28042
-1.39344
-1.38785
-1.28969
-1.12438
-0.919173
-0.704038
-0.511178
-0.373459
-0.322192
-0.384798
-0.582797
-0.9305
-1.43459
-2.09463
-2.90428
-3.85306
-4.92826
-6.11661
-7.40547
-8.78348
-10.2404
-11.7668
-13.3525
-14.9866
-16.656
-18.3455
-20.0378
-21.7143
-23.3558
-24.9437
-26.4607
-27.8914
-29.2224
-30.442
-31.5391
-32.5021
-33.3177
-33.97
-34.4399
-34.705
-34.7405
-34.5208
-34.0213
-33.2211
-32.1048
-30.6648
-28.9023
-26.8277
-24.4589
-21.8203
-18.9388
-15.8408
-12.5482
-9.07523
-5.42497
-1.58793
2.45861
6.74928
11.3272
16.2384
21.5244
27.2137
33.3124
39.7962
46.604
53.6345
60.7467
67.7644
74.4845
80.6892
86.1602
90.6939
94.1166
96.2968
97.1557
96.6719
94.8821
91.8759
87.7858
82.773
77.0107
70.6669
63.8891
56.7931
49.4578
41.9266
34.2153
26.3253
18.2601
10.0419
1.72577
-6.5908
-14.7642
-22.6073
-29.8957
-36.3755
-41.7655
-45.7484
-47.9463
-47.8754
-44.8837
-38.0817
-26.2852
-7.99798
18.5329
55.1626
103.58
164.936
239.413
325.8
421.178
520.79
618.188
705.684
775.069
818.553
829.765
804.697
742.412
645.411
519.58
373.704
218.595
65.9609
-72.856
-188.091
-272.57
-322.401
-337.254
-320.224
-277.297
-216.517
-146.953
-77.628
-16.522
30.2271
58.8396
68.0906
59.1875
35.37
1.30565
-37.6264
-76.0647
-109.318
-133.865
-147.661
-150.22
-142.501
-126.62
-105.446
-82.1491
-59.7516
-40.7514
-26.8501
-18.8133
-16.4674
-18.8201
-24.2754
-30.908
-36.7538
-40.0772
-39.5834
-34.5508
-24.8764
-11.0338
6.04073
25.113
44.8394
63.953
81.4202
96.5522
109.058
119.037
126.918
133.363
139.136
144.977
151.489
159.046
167.746
177.397
187.546
197.538
206.599
213.924
218.767
220.521
218.772
213.338
204.273
191.859
176.567
159.014
139.904
119.974
99.9402
80.4548
62.0703
45.2194
30.205
17.2012
6.26282
-2.65827
-9.69299
-15.0325
-18.9055
-21.5564
-23.2266
-24.1383
-24.4826
-24.4128
-24.041
-23.4401
-22.6488
-21.6799
-20.5297
-19.1882
-17.6477
-15.9097
-13.989
-11.9145
-9.72764
-7.47802
-5.21853
-2.99982
-0.865898
1.14867
3.01938
4.73039
6.27136
7.63337
8.80492
9.76883
10.501
10.9713
11.1467
10.9964
10.4977
9.64217
8.44049
6.92536
5.15182
3.19458
1.1427
-0.907871
-2.86288
-4.63848
-6.16889
-7.41197
-8.35201
-8.9994
-9.38715
-9.56487
-9.59089
-9.52375
-9.41398
-9.29748
-9.19112
-9.09111
-8.97413
-8.80079
-8.52051
-8.07668
-7.41117
-6.46723
-5.19065
-3.52932
-1.43203
1.15258
4.27583
7.98686
12.3281
17.3283
22.9947
29.3037
36.1929
43.5556
51.2378
59.0402
66.7239
74.0205
80.646
86.3167
90.7668
93.7666
95.139
94.774
92.6396
88.7864
83.3474
76.5305
68.6042
59.8789
50.6845
41.3469
32.1656
23.3961
15.2366
7.82223
1.22573
-4.53562
-9.48794
-13.6853
-17.1924
-20.066
-22.3351
-23.9778
-24.8913
-24.8522
-23.4638
-20.0954
-13.8212
-3.38066
12.8163
36.6071
69.896
114.365
171.098
240.156
320.187
408.159
499.285
587.232
664.6
723.666
757.285
759.845
728.112
661.847
564.065
440.906
301.094
155.057
13.8279
-112.151
-214.139
-286.001
-324.785
-330.908
-307.944
-262.059
-201.171
-133.955
-68.8354
-13.067
27.9688
51.1959
55.9672
43.8908
18.4053
-15.8211
-53.5804
-89.8082
-120.179
-141.55
-152.208
-151.92
-141.787
-123.959
-101.239
-76.6616
-53.078
-32.8215
-17.4708
-7.73823
-3.48186
-3.82587
-7.36211
-12.3976
-17.2111
-20.2841
-20.4789
-17.1469
-10.1592
0.134498
13.0076
27.4969
42.5606
57.2291
70.7308
82.5763
92.5949
100.922
107.942
114.205
120.318
126.843
134.205
142.622
152.075
162.298
172.815
182.992
192.107
199.431
204.299
206.172
204.688
199.682
191.193
179.45
164.838
147.866
129.119
109.221
88.7919
68.4228
48.6502
29.9424
12.6901
-2.79763
-16.2944
-27.6551
-36.8134
-43.7779
-48.6268
-51.501
-52.595
-52.1464
-50.4226
-47.7071
-44.2844
-40.4257
-36.3758
-32.3424
-28.4887
-24.9292
-21.73
-18.9122
-16.4581
-14.3202
-12.4304
-10.7106
-9.08129
-7.46961
-5.81576
-4.07728
-2.23171
-0.27772
1.76516
3.85805
5.94525
7.95794
9.81888
11.4481
12.7695
13.7173
14.2428
14.3196
13.9475
13.153
11.9884
10.5266
8.85453
7.0644
5.24451
3.47092
1.80088
0.268897
-1.11391
-2.35757
-3.4885
-4.54311
-5.56078
-6.57694
-7.61676
-8.68945
-9.78321
-10.8605
-11.8546
-12.6668
-13.1678
-13.2018
-12.597
-11.1799
-8.7957
-5.32948
-0.728018
4.98279
11.6872
19.1784
27.1674
35.3027
43.1976
50.4633
56.7426
61.7411
65.2511
67.166
67.4835
66.2976
63.7802
60.1564
55.6766
50.5878
45.111
39.4238
33.6524
27.8719
22.1146
16.3826
10.6638
4.94737
-0.764989
-6.45115
-12.0668
-17.5483
-22.8177
-27.7886
-32.3681
-36.451
-39.9039
-42.5337
-44.0401
-43.954
-41.5675
-35.87
-25.5122
-8.82272
16.0923
51.1502
97.9869
157.571
229.783
313.044
404.062
497.807
587.74
666.328
725.808
759.093
760.716
727.656
659.914
560.742
436.471
295.941
149.606
8.42483
-117.312
-219.076
-290.966
-330.243
-337.486
-316.343
-272.95
-215.09
-151.213
-89.448
-36.7235
1.89784
23.6145
27.9783
16.7001
-6.78307
-37.9058
-71.649
-103.202
-128.53
-144.793
-150.566
-145.873
-132.021
-111.307
-86.6219
-61.0207
-37.3197
-17.7624
-3.79373
4.04254
6.08104
3.40337
-2.37409
-9.35768
-15.6415
-19.5456
-19.7998
-15.657
-6.92836
6.05313
22.5286
41.4494
61.6311
81.9046
101.247
118.877
134.309
147.365
158.149
166.983
174.335
180.727
186.653
192.509
198.534
204.788
211.142
217.297
222.819
227.186
229.845
230.269
228.009
222.736
214.279
202.637
187.99
170.689
151.234
130.243
108.414
86.4786
65.1539
45.0992
26.8727
10.9
-2.54849
-13.3669
-21.6095
-27.4745
-31.2766
-33.4108
-34.3136
-34.4216
-34.1351
-33.7872
-33.6221
-33.7839
-34.3159
-35.1696
-36.2225
-37.3014
-38.2087
-38.7495
-38.7562
-38.1077
-36.7433
-34.6682
-31.9516
-28.7182
-25.1339
-21.3876
-17.6719
-14.1641
-11.0105
-8.31513
-6.13352
-4.47255
-3.29547
-2.53109
-2.08589
-1.85713
-1.74552
-1.66583
-1.55455
-1.37399
-1.11268
-0.78252
-0.413391
-0.0460498
0.275547
0.511584
0.632548
0.623612
0.486946
0.241912
-0.0765801
-0.421124
-0.735637
-0.959269
-1.02977
-0.885794
-0.468043
0.280789
1.41671
2.99526
5.07182
7.7009
10.9343
14.8182
19.3887
24.6683
30.6604
37.3449
44.6745
52.5699
60.9172
69.5658
78.3274
86.9782
95.2637
102.907
109.621
115.125
119.165
121.529
122.074
120.734
117.533
112.59
106.107
98.3569
89.6592
80.3557
70.7803
61.2341
51.9653
43.1572
34.9243
27.3183
20.3402
13.958
8.12602
2.80413
-2.02444
-6.33715
-10.0549
-13.0196
-14.9618
-15.4548
-13.857
-9.251
-0.395719
14.2811
36.6214
68.5802
111.96
168.047
237.189
318.386
408.968
504.47
598.756
684.43
753.52
798.354
812.533
791.831
734.91
643.708
523.441
382.193
230.137
78.4858
-61.6969
-180.663
-270.983
-328.263
-351.485
-342.949
-307.837
-253.469
-188.359
-121.195
-59.8721
-10.6911
22.1941
37.0296
34.4115
16.9626
-11.2014
-45.1314
-79.7403
-110.442
-133.665
-147.185
-150.252
-143.526
-128.834
-108.807
-86.4574
-64.7403
-46.1811
-32.588
-24.8902
-23.1039
-26.4205
-33.3905
-42.1721
-50.8037
-57.4654
-60.6957
-59.5406
-53.6245
-43.1392
-28.764
-11.531
7.33928
26.6096
45.1807
62.212
77.1943
89.9711
100.709
109.828
117.9
125.544
133.312
141.602
150.6
160.249
170.257
180.137
189.266
196.96
202.554
205.47
205.284
201.758
194.862
184.773
171.849
156.598
139.625
121.59
103.154
84.9397
67.496
51.2758
36.6228
23.7688
12.8382
3.8585
-3.22579
-8.53763
-12.2515
-14.5784
-15.7513
-16.0128
-15.603
-14.749
-13.6552
-12.4956
-11.4069
-10.4844
-9.78063
-9.30639
-9.0353
-8.91102
-8.85683
-8.78672
-8.61694
-8.2768
-7.71768
-6.91923
-5.89203
-4.67653
-3.33834
-1.96054
-0.633838
0.554093
1.52877
2.23733
2.65408
2.78252
2.65357
2.32025
1.84967
1.31328
0.776808
0.291214
-0.114138
-0.435155
-0.693091
-0.931038
-1.20739
-1.58726
-2.13303
-2.89538
-3.90586
-5.1718
-6.67397
-8.36695
-10.1816
-12.0295
-13.8073
-15.4026
-16.6985
-17.5778
-17.9269
-17.64
-16.6221
-14.7943
-12.0974
-8.49698
-3.98725
1.40611
7.625
14.5801
22.1538
30.2053
38.5755
47.0927
55.5772
63.8442
71.7062
78.9744
85.4601
90.9783
95.3526
98.4238
100.06
100.17
98.7129
95.7102
91.2493
85.4834
78.6242
70.9286
62.6807
54.1708
45.6751
37.4373
29.6552
22.4734
15.9814
10.2186
5.18285
0.842418
-2.85109
-5.95001
-8.49847
-10.5196
-11.9997
-12.8644
-12.9428
-11.9153
-9.24786
-4.11881
4.64245
18.5798
39.5655
69.6574
110.84
164.655
231.763
311.491
401.478
497.487
593.489
682.05
755.002
804.346
823.262
807.071
754.009
665.676
547.08
406.242
253.416
100.016
-42.6076
-164.387
-257.586
-317.554
-343.097
-336.432
-302.754
-249.472
-185.243
-118.925
-58.5732
-10.6166
20.716
33.6596
28.8647
9.06489
-21.4711
-57.6195
-94.1162
-126.217
-150.223
-163.826
-166.244
-158.147
-141.413
-118.759
-93.301
-68.1133
-45.8401
-28.4041
-16.8385
-11.2529
-10.9204
-14.4651
-20.1129
-25.9674
-30.272
-31.6259
-29.1307
-22.4542
-11.8142
2.11027
18.3185
35.6567
52.9881
69.3435
84.0308
96.6957
107.326
116.209
123.846
130.845
137.811
145.239
153.433
162.464
172.159
182.124
191.8
200.537
207.674
212.614
214.889
214.203
210.452
203.717
194.247
182.418
168.691
153.567
137.546
121.099
104.651
88.5645
73.1488
58.6591
45.3067
33.2646
22.671
13.6282
6.19846
0.396759
-3.81545
-6.53487
-7.9165
-8.16823
-7.53959
-6.30529
-4.74506
-3.12212
-1.66278
-0.539587
0.139895
0.337309
0.0804473
-0.546679
-1.41924
-2.3905
-3.31182
-4.05154
-4.51027
-4.63136
-4.40518
-3.86731
-3.09114
-2.17614
-1.23349
-0.371197
0.319477
0.774533
0.963517
0.890991
0.5933
0.131376
-0.419189
-0.979264
-1.47688
-1.85606
-2.08276
-2.14715
-2.06245
-1.86056
-1.58547
-1.28562
-1.00637
-0.783672
-0.639864
-0.581824
-0.601678
-0.679567
-0.787856
-0.895954
-0.974909
-1.00109
-0.958462
-0.839263
-0.643133
-0.375029
-0.0423608
0.348185
0.79378
1.29835
1.87513
2.54897
3.35802
4.3549
5.60642
7.19182
9.19855
11.7158
14.8257
18.5929
23.0536
28.2056
34.001
40.3422
47.083
54.035
60.978
67.6747
73.8873
79.3937
84.0031
87.5672
89.9869
91.2144
91.2496
90.1329
87.9346
84.7443
80.6596
75.7787
70.1944
63.9929
57.2556
50.0637
42.5039
34.6741
26.6874
18.6739
10.7786
3.15618
-4.03661
-10.6505
-16.5524
-21.6325
-25.8052
-29.0028
-31.1569
-32.1652
-31.84
-29.8403
-25.5915
-18.2083
-6.44057
11.3274
36.9941
72.5503
119.774
179.829
252.82
337.377
430.367
526.822
620.142
702.6
766.112
803.181
807.887
776.782
709.528
609.185
482.08
337.254
185.56
38.511
-92.9479
-199.611
-274.957
-315.763
-322.316
-298.211
-249.776
-185.219
-113.6
-43.7796
16.5356
61.544
87.8181
94.4588
82.9413
56.6984
20.5122
-20.1922
-60.0597
-94.4354
-119.845
-134.282
-137.281
-129.805
-113.954
-92.5835
-68.8543
-45.807
-25.9922
-11.2049
-2.34321
0.604845
-1.54225
-7.35308
-15.0332
-22.6935
-28.6006
-31.3809
-30.1552
-24.5973
-14.9153
-1.76764
13.8685
30.8544
48.0495
64.4537
79.3145
92.1907
102.968
111.828
119.188
125.602
131.667
137.925
144.779
152.434
160.875
169.862
178.965
187.61
195.149
200.923
204.339
204.922
202.358
196.53
187.516
175.586
161.175
144.843
127.23
109.012
90.8437
73.3244
56.9595
42.1384
29.122
18.0416
8.90807
1.62824
-3.97241
-8.12436
-11.0879
-13.1285
-14.4955
-15.4052
-16.0296
-16.4896
-16.8548
-17.1471
-17.3486
-17.4124
-17.2756
-16.8712
-16.1412
-15.046
-13.5717
-11.7339
-9.57769
-7.17469
-4.61667
-2.00758
0.545571
2.94183
5.09442
6.93703
8.42766
9.54981
10.3109
10.7385
10.8745
10.7685
10.4711
10.0276
9.4738
8.83289
8.11518
7.31954
6.4366
5.45314
4.35686
3.1409
1.80728
0.368986
-1.14978
-2.71511
-4.28632
-5.81995
-7.27413
-8.61267
-9.80836
-10.8449
-11.7173
-12.4308
-12.9986
-13.4383
-13.7686
-14.0056
-14.1605
-14.2372
-14.2323
-14.1357
-13.932
-13.6033
-13.1314
-12.5011
-11.7016
-10.728
-9.58086
-8.26481
-6.78523
-5.14405
-3.33477
-1.3376
0.884184
3.38547
6.23708
9.51929
13.311
17.675
22.6412
28.1899
34.2374
40.6281
47.1342
53.4648
59.2851
64.2436
68.0044
70.2809
70.867
69.6601
66.6736
62.0364
55.9795
48.8111
40.8841
32.5606
24.1778
16.0209
8.30484
1.1673
-5.32751
-11.176
-16.4157
-21.1028
-25.2879
-28.9926
-32.1857
-34.7585
-36.4964
-37.0433
-35.8605
-32.1793
-24.9605
-12.8735
5.67988
32.4725
69.2689
117.546
178.136
250.827
334.011
424.436
517.168
605.811
683.004
741.153
773.333
774.211
740.865
673.359
574.966
451.993
313.216
168.982
30.1122
-93.2667
-192.798
-262.744
-300.505
-306.753
-285.177
-241.896
-184.622
-121.688
-61.083
-9.58941
27.8605
48.5602
52.1076
40.204
16.2216
-15.3856
-49.741
-82.1865
-108.829
-126.932
-135.123
-133.406
-123.005
-106.064
-85.2663
-63.435
-43.1464
-26.4257
-14.5429
-7.92739
-6.19969
-8.30379
-12.7134
-17.6779
-21.4738
-22.6281
-20.0894
-13.3288
-2.36545
12.28
29.6917
48.7056
68.0748
86.6311
103.422
117.809
129.514
138.62
145.522
150.839
155.309
159.674
164.57
170.443
177.492
185.647
194.582
203.758
212.486
220.008
225.579
228.542
228.389
224.803
217.684
207.142
193.479
177.155
158.742
138.879
118.22
97.3996
76.9988
57.5237
39.393
22.9334
8.37986
-4.12019
-14.5012
-22.7736
-29.0172
-33.3742
-36.041
-37.258
-37.2965
-36.4434
-34.9841
-33.1849
-31.2761
-29.4386
-27.7947
-26.4048
-25.2704
-24.3431
-23.5381
-22.7509
-21.8755
-20.8201
-19.5212
-17.9519
-16.125
-14.0908
-11.9303
-9.74382
-7.63881
-5.7167
-4.06152
-2.73123
-1.75281
-1.12136
-0.803031
-0.741132
-0.86431
-1.09569
-1.36172
-1.59958
-1.7626
-1.82301
-1.77216
-1.61841
-1.38334
-1.09685
-0.792039
-0.500344
-0.247713
-0.0519171
0.0787841
0.14577
0.159213
0.136599
0.100912
0.0787733
0.0986557
0.18928
0.378158
0.690246
1.14665
1.76339
2.55015
3.50927
4.63493
5.9129
7.3209
8.82987
10.4062
12.0151
13.6242
15.2087
16.7552
18.2664
19.7638
21.2895
22.9054
24.691
26.7378
29.1413
31.9911
35.3596
39.2902
43.7865
48.8051
54.251
59.9792
65.8002
71.492
76.814
81.525
85.4005
88.2486
89.923
90.3309
89.4353
87.253
83.847
79.3166
73.7854
67.3905
60.2739
52.5763
44.4353
35.9867
27.3673
18.7188
10.1898
1.93611
-5.88295
-13.1112
-19.6042
-25.2378
-29.9134
-33.5554
-36.0968
-37.4498
-37.4561
-35.8208
-32.0324
-25.2836
-14.4113
2.11529
26.1307
59.6066
104.374
161.743
232.071
314.336
405.822
501.986
596.604
682.194
750.733
794.558
807.354
785.069
726.619
634.25
513.503
372.749
222.358
73.6125
-62.5139
-176.524
-261.383
-313.19
-331.462
-319.014
-281.454
-226.393
-162.465
-98.2989
-41.5614
1.80806
28.1033
36.0508
26.7063
3.08741
-30.39
-68.586
-106.327
-139.032
-163.197
-176.697
-178.895
-170.549
-153.558
-130.603
-104.725
-78.9062
-55.7095
-37.0087
-23.8378
-16.3628
-13.9667
-15.4236
-19.1293
-23.3532
-26.4761
-27.1857
-24.6095
-18.376
-8.60469
4.16623
19.0961
35.1833
51.4105
66.8739
80.8824
93.0177
103.151
111.419
118.171
123.886
129.092
134.275
139.811
145.912
152.605
159.723
166.936
173.785
179.74
184.249
186.797
186.953
184.405
178.982
170.667
159.595
146.038
130.386
113.118
94.7709
75.9105
57.0981
38.8632
21.6789
5.94269
-8.03853
-20.0569
-30.0067
-37.8823
-43.7695
-47.8332
-50.2998
-51.4368
-51.5304
-50.8625
-49.6905
-48.2296
-46.6412
-45.0271
-43.431
-41.8462
-40.2281
-38.5109
-36.6243
-34.5101
-32.1344
-29.4967
-26.6317
-23.6078
-20.5186
-17.4732
-14.5827
-11.9483
-9.65008
-7.73921
-6.23364
-5.11826
-4.34872
-3.8585
-3.56802
-3.39448
-3.2613
-3.10585
-2.88477
-2.5764
-2.18037
-1.71455
-1.21014
-0.705629
-0.240536
0.150295
0.44116
0.618305
0.68089
0.640205
0.517402
0.34023
0.13929
-0.0556191
-0.218578
-0.32971
-0.376234
-0.352438
-0.258729
-0.100055
0.115946
0.380778
0.686599
1.0273
1.39907
1.80058
2.2329
2.69952
3.20665
3.76408
4.38679
5.09712
5.92722
6.92123
8.13642
9.64277
11.5202
13.8537
16.7261
20.2095
24.3558
29.1881
34.693
40.8153
47.4561
54.4735
61.688
68.8893
75.8472
82.3233
88.0837
92.9117
96.62
99.0609
100.135
99.7962
98.0553
94.9774
90.6778
85.3128
79.0687
72.1484
64.7582
57.0954
49.3384
41.6403
34.1263
26.8944
20.0194
13.5589
7.55926
2.06217
-2.88997
-7.24966
-10.9593
-13.9434
-16.0932
-17.2395
-17.1085
-15.2602
-11.0143
-3.37835
8.99962
27.8201
55.0333
92.6265
142.296
205.029
280.647
367.405
461.74
558.248
649.966
728.946
787.091
817.142
813.665
773.908
698.365
590.952
458.756
311.373
159.911
15.8003
-110.442
-210.326
-278.244
-311.964
-312.709
-284.831
-235.147
-172.019
-104.322
-40.4211
12.7087
50.1362
69.3281
70.1921
54.8272
27.0381
-8.30636
-45.9778
-81.0629
-109.529
-128.623
-137.063
-135.036
-124.004
-106.373
-85.0795
-63.151
-43.3064
-27.6346
-17.3905
-12.9192
-13.7071
-18.5376
-25.7227
-33.3722
-39.66
-43.0565
-42.4971
-37.4746
-28.0494
-14.7857
1.37007
19.2478
37.6236
55.3791
71.6286
85.8024
97.6797
107.371
115.256
121.9
127.941
133.991
140.54
147.897
156.149
165.157
174.587
183.953
192.681
200.173
205.87
209.3
210.116
208.113
203.235
195.568
185.321
172.809
158.429
142.639
125.936
108.837
91.8558
75.4839
60.1701
46.2983
34.1683
23.9803
15.8236
9.67454
5.40134
2.77895
1.51109
1.25819
1.66824
2.40718
3.18569
3.77964
4.04227
3.90728
3.38314
2.53997
1.49104
0.371657
-0.68203
-1.55166
-2.15083
-2.43359
-2.39674
-2.07642
-1.54
-0.874757
-0.175219
0.469144
0.984199
1.31833
1.4458
1.36632
1.10112
0.686544
0.166076
-0.417797
-1.03095
-1.65323
-2.28165
-2.93101
-3.63175
-4.42571
-5.36009
-6.48051
-7.82398
-9.4126
-11.2486
-13.3112
-15.5564
-17.9182
-20.3133
-22.6468
-24.8205
-26.7409
-28.3271
-29.5179
-30.2765
-30.5931
-30.4841
-29.9894
-29.1669
-28.086
-26.8204
-25.4412
-24.0112
-22.5807
-21.1857
-19.8477
-18.5755
-17.3683
-16.2194
-15.119
-14.0571
-13.0246
-12.0126
-11.0106
-10.0027
-8.96365
-7.85462
-6.61938
-5.18274
-3.45174
-1.32033
1.3218
4.57705
8.52502
13.2068
18.6108
24.6615
31.2144
38.0572
44.9199
51.4904
57.4375
62.437
66.1986
68.4917
69.1654
68.1616
65.5194
61.3694
55.9196
49.4334
42.2031
34.5225
26.661
18.8435
11.2368
3.94636
-2.98044
-9.54228
-15.7676
-21.6962
-27.3608
-32.7725
-37.9108
-42.7186
-47.1014
-50.9259
-54.0143
-56.1262
-56.923
-55.914
-52.387
-45.3379
-33.422
-14.956
11.9964
49.4327
99.1054
162.122
238.504
326.772
423.672
524.1
621.324
707.485
774.385
814.425
821.612
792.444
726.557
627.005
500.123
354.976
202.44
54.0639
-79.174
-188.023
-265.906
-309.52
-319.049
-297.954
-252.401
-190.41
-120.843
-52.3667
7.48578
53.0447
80.9561
90.3214
82.5356
60.8684
29.8622
-5.36093
-39.792
-69.1398
-90.2832
-101.528
-102.659
-94.7953
-80.096
-61.3612
-41.5936
-23.5789
-9.5368
-0.880082
1.89837
-0.790823
-7.76516
-17.2891
-27.3446
-35.9133
-41.2355
-42.0135
-37.5402
-27.7431
-13.1455
5.243
26.086
47.9069
69.2761
88.9753
106.121
120.234
131.255
139.498
145.569
150.251
154.371
158.681
163.753
169.909
177.181
185.324
193.851
202.104
209.338
214.813
217.879
218.043
215.016
208.733
199.348
187.203
172.787
156.679
139.487
121.803
104.152
86.9709
70.588
55.2291
41.0287
28.0505
16.311
5.80215
-3.49145
-11.5818
-18.4743
-24.1717
-28.682
-32.0291
-34.2628
-35.4654
-35.7533
-35.2736
-34.1945
-32.6925
-30.9365
-29.073
-27.2134
-25.4258
-23.7328
-22.1149
-20.5195
-18.8742
-17.102
-15.1361
-12.9335
-10.4834
-7.81195
-4.98095
-2.08171
0.774792
3.47022
5.89196
7.94514
9.56223
10.7092
11.3873
11.6314
11.5038
11.0859
10.4683
9.73965
8.97802
8.24254
7.56888
6.96738
6.42458
5.90745
5.36993
4.76088
4.03241
3.14759
2.08662
0.850556
-0.537661
-2.03529
-3.58446
-5.11889
-6.57165
-7.88294
-9.00672
-9.91527
-10.6012
-11.0765
-11.369
-11.5166
-11.5605
-11.5379
-11.4749
-11.3816
-11.2474
-11.0391
-10.6999
-10.1507
-9.29219
-8.00916
-6.17624
-3.66593
-0.358547
3.84602
9.01561
15.1732
22.2861
30.2585
38.9293
48.0745
57.4173
66.6421
75.4138
83.3994
90.2896
95.8199
99.7873
102.063
102.599
101.426
98.653
94.4479
89.0281
82.6394
75.5376
67.9711
60.1656
52.314
44.5707
37.051
29.8347
22.9737
16.5006
10.4381
4.80792
-0.362845
-5.03684
-9.16272
-12.6702
-15.4603
-17.386
-18.2191
-17.6012
-14.9805
-9.54454
-0.165234
14.6172
36.5436
67.4912
109.222
163.035
229.352
307.313
394.46
486.592
577.868
661.196
728.879
773.467
788.696
770.379
717.109
630.659
515.999
380.915
235.254
89.9132
-44.3217
-157.922
-243.608
-297.056
-317.247
-306.427
-269.679
-214.212
-148.427
-80.9183
-19.5196
29.497
61.9723
76.1221
72.4989
53.6827
23.7603
-12.3223
-49.4475
-82.9627
-109.195
-125.79
-131.854
-127.897
-115.605
-97.4902
-76.4756
-55.4649
-36.9672
-22.808
-13.9605
-10.5032
-11.6987
-16.1696
-22.141
-27.7103
-31.1089
-30.9226
-26.2469
-16.7649
-2.74403
15.0394
35.4321
57.0707
78.5603
98.6412
116.325
130.988
142.405
150.744
156.499
160.397
163.281
165.986
169.228
173.508
179.063
185.835
193.491
201.466
209.036
215.402
219.777
221.471
219.959
214.931
206.316
194.28
179.212
161.673
142.352
121.998
101.364
81.1483
61.9531
44.2525
28.377
14.5116
2.70749
-7.09736
-15.0514
-21.3597
-26.2549
-29.9709
-32.7214
-34.6852
-35.9971
-36.7455
-36.9755
-36.697
-35.8956
-34.5453
-32.622
-30.1153
-27.0389
-23.4366
-19.3855
-14.9947
-10.3994
-5.75276
-1.214
3.06362
6.94523
10.3247
13.1318
15.3356
16.9426
17.9908
18.5407
18.6633
18.4289
17.8971
17.1098
16.0888
14.8375
13.3466
11.6031
9.59992
7.346
4.87374
2.24322
-0.457806
-3.11854
-5.61373
-7.81541
-9.60605
-10.8916
-11.6125
-11.7513
-11.3354
-10.4352
-9.15716
-7.63315
-6.00661
-4.4183
-2.99261
-1.82633
-0.981166
-0.480585
-0.311032
-0.426953
-0.758503
-1.22055
-1.72147
-2.17029
-2.48134
-2.57574
-2.38021
-1.82375
-0.833922
0.666022
2.75728
5.52199
9.03548
13.3547
18.5045
24.4624
31.1466
38.4072
46.0238
53.7109
61.1312
67.9164
73.6939
78.1166
80.8932
81.815
80.7759
77.7829
72.9557
66.5148
58.7607
50.0458
40.743
31.2163
21.7938
12.7491
4.28999
-3.44461
-10.3796
-16.4937
-21.8046
-26.3531
-30.185
-33.3324
-35.7915
-37.4946
-38.2719
-37.8021
-35.5515
-30.7091
-22.1353
-8.34428
12.4483
42.1873
82.7336
135.519
201.131
278.899
366.551
460.043
553.632
640.229
712.036
761.388
781.714
768.453
719.808
637.189
525.28
391.682
246.194
99.7917
-36.5449
-153.006
-241.98
-298.806
-322.161
-314.046
-279.389
-225.331
-160.295
-92.9756
-31.3526
18.1247
51.1193
65.6903
62.2709
43.3701
13.0561
-23.6946
-61.6907
-96.1735
-123.343
-140.711
-147.255
-143.372
-130.667
-111.61
-89.1238
-66.1635
-45.3321
-28.587
-17.0592
-10.9964
-9.82683
-12.3221
-16.8285
-21.5303
-24.7084
-24.9615
-21.364
-13.5483
-1.70582
13.4842
30.9834
49.5579
67.9544
85.0627
100.047
112.428
122.117
129.388
134.809
139.136
143.194
147.746
153.392
160.482
169.072
178.919
189.508
200.113
209.882
217.928
223.422
225.675
224.2
218.754
209.357
196.272
179.985
161.152
140.54
118.969
97.2484
76.1268
56.2471
38.1188
22.1025
8.4074
-2.89932
-11.8752
-18.6787
-23.5431
-26.7492
-28.6008
-29.4019
-29.4387
-28.9657
-28.1961
-27.2958
-26.382
-25.5249
-24.7517
-24.0542
-23.3974
-22.7292
-21.9913
-21.1286
-20.0977
-18.8732
-17.4512
-15.8499
-14.1078
-12.2784
-10.4246
-8.61129
-6.89887
-5.33736
-3.96257
-2.79417
-1.8359
-1.07759
-0.498424
-0.0707856
0.23599
0.452466
0.606935
0.724284
0.825754
0.929259
1.04986
1.20002
1.38935
1.62378
1.90428
2.22547
2.57445
2.9304
3.26516
3.54508
3.73392
3.79662
3.70329
3.43305
2.97711
2.34099
1.54579
0.628902
-0.355662
-1.33715
-2.22823
-2.92589
-3.31366
-3.26564
-2.6528
-1.35133
0.747368
3.72604
7.63158
12.4669
18.186
24.6925
31.8426
39.4513
47.3023
55.1589
62.7766
69.9142
76.3449
81.8653
86.3023
89.5188
91.4181
91.946
91.0926
88.8922
85.4209
80.7922
75.1502
68.6611
61.5028
53.8554
45.8926
37.775
29.6472
21.6364
13.8549
6.40236
-0.630624
-7.16056
-13.1106
-18.4115
-23.0041
-26.8392
-29.8729
-32.0525
-33.2869
-33.3993
-32.0597
-28.704
-22.4504
-12.0372
4.18983
28.2062
62.1279
107.908
166.933
239.555
324.655
419.324
518.744
616.372
704.413
774.58
819.046
831.452
807.833
747.302
652.385
528.935
385.631
233.103
82.8115
-54.1782
-168.368
-252.798
-303.694
-320.724
-306.851
-267.809
-211.29
-145.965
-80.4538
-22.3774
22.3913
50.215
59.8724
52.4379
30.9012
-0.403552
-36.4704
-72.3058
-103.537
-126.878
-140.41
-143.661
-137.49
-123.823
-105.273
-84.724
-64.9166
-48.1055
-35.8151
-28.7187
-26.6435
-28.6878
-33.4225
-39.1423
-44.1275
-46.8808
-46.3088
-41.8311
-33.4082
-21.4928
-6.91907
9.24875
25.8843
41.9578
56.6657
69.515
80.3561
89.3638
96.9741
103.79
110.469
117.617
125.689
134.924
145.311
156.584
168.26
179.689
190.131
198.832
205.097
208.358
208.216
204.474
197.139
186.417
172.688
156.469
138.376
119.083
99.2795
79.634
60.7629
43.2033
27.3927
13.6545
2.18978
-6.92438
-13.7303
-18.3782
-21.109
-22.2318
-22.0975
-21.0713
-19.5048
-17.7113
-15.9464
-14.3945
-13.163
-12.2849
-11.7278
-11.4084
-11.2114
-11.0094
-10.6816
-10.1304
-9.29273
-8.14629
-6.7105
-5.04201
-3.2263
-1.3666
0.428426
2.05659
3.43258
4.49576
5.21484
5.58915
5.64676
5.43986
5.03793
4.5197
3.96455
3.44423
3.01566
2.71541
2.55631
2.5266
2.59149
2.69717
2.77675
2.75753
2.5689
2.14998
1.45619
0.464013
-0.826559
-2.39206
-4.18801
-6.15337
-8.21632
-10.3005
-12.3312
-14.2397
-15.9671
-17.4654
-18.6969
-19.6322
-20.2469
-20.5175
-20.4182
-19.918
-18.9798
-17.5611
-15.6175
-13.108
-10.0016
-6.28529
-1.97165
2.89493
8.2338
13.9265
19.8185
25.724
31.434
36.7263
41.3777
45.176
47.9331
49.4954
49.7539
48.65
46.1794
42.3917
37.3862
31.3061
24.3285
16.6544
8.49794
0.0755991
-8.4026
-16.7405
-24.761
-32.3083
-39.248
-45.4642
-50.8547
-55.3239
-58.7719
-61.0805
-62.0897
-61.5641
-59.1437
-54.2824
-46.179
-33.7181
-15.4442
10.3986
45.7333
92.404
151.82
224.526
309.759
405.087
506.222
607.088
700.199
777.32
830.369
852.429
838.727
787.422
700.075
581.701
440.391
286.524
131.685
-12.5805
-136.008
-230.687
-291.836
-318.188
-311.951
-278.363
-224.925
-160.417
-93.8197
-33.3077
14.6017
45.6289
58.0022
52.408
31.6536
0.107678
-36.9931
-74.2748
-106.902
-131.121
-144.611
-146.629
-137.936
-120.548
-97.3534
-71.6538
-46.7061
-25.3108
-9.5018
-0.363196
2.015
-1.54929
-9.52252
-19.919
-30.595
-39.5334
-45.083
-46.1283
-42.1741
-33.3438
-20.2999
-4.10593
13.9481
32.5298
50.4339
66.7167
80.7822
92.4142
101.754
109.233
115.477
121.185
127.021
133.511
140.968
149.456
158.784
168.534
178.112
186.824
193.944
198.796
200.808
199.564
194.83
186.562
174.902
160.158
142.78
123.322
102.413
80.7228
58.93
37.6896
17.6057
-0.794826
-17.0853
-30.9575
-42.234
-50.873
-56.9645
-60.7178
-62.4411
-62.5134
-61.3531
-59.3836
-57.0014
-54.5473
-52.2855
-50.3898
-48.9402
-47.9276
-47.2671
-46.817
-46.4025
-45.8399
-44.9603
-43.63
-41.7654
-39.3415
-36.3933
-33.0107
-29.3266
-25.5016
-21.7056
-18.099
-14.8167
-11.9551
-9.56464
-7.64878
-6.16788
-5.04877
-4.19753
-3.51395
-2.90562
-2.29977
-1.65134
-0.946539
-0.201499
0.5433
1.23195
1.80386
2.20469
2.396
2.36222
2.11418
1.68881
1.14533
0.558654
0.0111686
-0.415711
-0.648893
-0.628683
-0.310916
0.333991
1.32457
2.67347
4.39293
6.49937
9.01591
11.9723
15.4022
19.3381
23.8047
28.8118
34.3481
40.3758
46.8277
53.6054
60.5807
67.5975
74.4759
81.0173
87.0115
92.2445
96.5083
99.6119
101.393
101.729
100.548
97.8318
93.6236
88.0226
81.179
73.2827
64.5511
55.2152
45.507
35.6486
25.845
16.2796
7.11212
-1.52156
-9.5085
-16.7578
-23.1994
-28.7818
-33.4671
-37.2217
-39.999
-41.7128
-42.1989
-41.1667
-38.1432
-32.418
-23.0047
-8.63591
12.1848
41.0544
79.4542
128.452
188.352
258.34
336.209
418.217
499.171
572.754
632.088
670.497
682.349
663.881
613.844
533.892
428.609
305.164
172.63
41.0405
-79.6908
-180.836
-255.783
-300.693
-314.826
-300.486
-262.619
-208.123
-144.964
-81.2296
-24.2197
20.2971
48.5987
59.2432
53.0153
32.6154
2.14986
-33.4991
-69.3365
-100.867
-124.586
-138.303
-141.268
-134.113
-118.623
-97.3912
-73.4049
-49.6289
-28.629
-12.2867
-1.62694
3.22735
2.98262
-0.996531
-6.92575
-12.8698
-17.0053
-17.8441
-14.3939
-6.24093
6.44808
22.9969
42.3484
63.2292
84.3262
104.451
122.673
138.408
151.449
161.952
170.37
177.356
183.647
189.948
196.829
204.644
213.491
223.197
233.344
243.321
252.39
259.768
264.705
266.554
264.83
259.241
249.716
236.396
219.622
199.901
177.869
154.243
129.773
105.199
81.2083
58.4019
37.2704
18.1775
1.35394
-13.1001
-25.204
-35.0798
-42.9298
-49.0113
-53.6107
-57.0186
-59.5079
-61.3161
-62.6335
-63.5975
-64.2916
-64.7516
-64.974
-64.929
-64.5733
-63.8637
-62.7681
-61.2745
-59.395
-57.1677
-54.6536
-51.9309
-49.0879
-46.2144
-43.3935
-40.6948
-38.1694
-35.8479
-33.7402
-31.8375
-30.117
-28.5462
-27.0884
-25.7072
-24.3703
-23.0512
-21.7304
-20.3941
-19.033
-17.6408
-16.2125
-14.744
-13.2326
-11.6788
-10.0878
-8.47217
-6.85309
-5.26049
-3.7317
-2.30802
-1.02944
0.0721007
0.980366
1.70225
2.27414
2.76613
3.2833
3.96362
4.97198
6.49056
8.70572
11.792
15.8946
21.1107
27.4735
34.938
43.3732
52.5605
62.2001
71.9247
81.3217
89.96
97.4215
103.333
107.395
109.408
109.288
107.073
102.92
97.0872
89.914
81.7877
73.1112
64.2709
55.6083
47.3988
39.8398
33.0473
27.0616
21.8596
17.3716
13.5013
10.1476
7.22702
4.70006
2.60223
1.08376
0.458909
1.26335
4.31212
10.7435
22.0274
39.9115
66.2829
102.929
151.205
211.644
283.561
364.737
451.272
537.66
617.151
682.359
726.08
742.194
726.542
677.613
596.944
489.155
361.581
223.565
85.4778
-42.397
-150.967
-233.281
-285.213
-305.79
-297.146
-264.116
-213.54
-153.372
-91.7267
-35.9643
8.0609
36.5202
47.8498
42.704
23.6513
-5.32614
-39.4543
-73.8209
-103.981
-126.446
-139
-140.84
-132.516
-115.723
-92.9667
-67.1675
-41.2592
-17.8248
1.18236
14.6101
22.1598
24.3272
22.2502
17.4938
11.8042
6.86905
4.11094
4.53805
8.66379
16.4981
27.6033
41.2005
56.3073
71.8847
86.9748
100.811
112.888
122.994
131.19
137.765
143.154
147.857
152.342
156.978
161.974
167.348
172.929
178.367
183.181
186.806
188.656
188.178
184.911
178.528
168.871
155.964
140.02
121.427
100.723
78.5599
55.659
32.7643
10.5937
-10.2045
-29.087
-45.6421
-59.6031
-70.8497
-79.3987
-85.3849
-89.0348
-90.6378
-90.5161
-88.9968
-86.3893
-82.9686
-78.9649
-74.5607
-69.8933
-65.0623
-60.1396
-55.1807
-50.2344
-45.3514
-40.5878
-36.0067
-31.6748
-27.6567
-24.0083
-20.7688
-17.9555
-15.5601
-13.5484
-11.8631
-10.4301
-9.16563
-7.98527
-6.8123
-5.58485
-4.26122
-2.82302
-1.27616
0.3502
2.00627
3.62554
5.12958
6.43351
7.45183
8.10439
8.32225
8.05333
7.26754
5.96114
4.16028
1.92309
-0.659935
-3.46778
-6.35347
-9.15167
-11.6892
-13.7983
-15.3305
-16.1717
-16.2535
-15.5619
-14.1398
-12.0825
-9.52796
-6.64119
-3.59559
-0.55402
2.34818
5.0155
7.39844
9.49287
11.3329
12.9785
14.5004
15.9639
17.4148
18.8687
20.3066
21.6751
22.8932
23.8628
24.4824
24.6614
24.3329
23.4635
22.0592
20.1661
17.8666
15.2727
12.5151
9.73298
7.0625
4.62839
2.5382
0.881866
-0.261903
-0.809968
-0.647773
0.410347
2.67271
6.62918
13.0075
22.8117
37.3212
58.03
86.5056
124.164
171.97
230.102
297.63
372.282
450.365
526.891
595.925
651.148
686.56
697.24
680.047
634.155
561.331
465.903
354.403
234.935
116.334
7.23098
-84.8488
-154.259
-197.764
-214.78
-207.299
-179.531
-137.302
-87.3146
-36.3472
9.4883
45.3601
68.1313
76.5431
71.1636
54.1287
28.7241
-1.12645
-31.3966
-58.4495
-79.4315
-92.5297
-97.0747
-93.4941
-83.1361
-67.9991
-50.4114
-32.7045
-16.9222
-4.59764
3.38307
6.82072
6.15404
2.33668
-3.33642
-9.42633
-14.544
-17.5174
-17.5136
-14.1055
-7.28086
2.60137
14.8966
28.7861
43.3969
57.9144
71.6731
84.2156
95.3167
104.972
113.357
120.767
127.544
134.009
140.399
146.824
153.246
159.476
165.196
169.992
173.395
174.939
174.2
170.844
164.658
155.575
143.683
129.229
112.603
94.3182
74.9818
55.2566
35.8202
17.3211
0.337935
-14.6568
-27.3245
-37.4772
-45.0812
-50.2485
-53.215
-54.3105
-53.9212
-52.4513
-50.2854
-47.7579
-45.1301
-42.5773
-40.1882
-37.9717
-35.8743
-33.8009
-31.6389
-29.282
-26.6494
-23.7005
-20.4419
-16.9272
-13.2503
-9.53255
-5.90722
-2.50259
0.573497
3.24564
5.47806
7.27623
8.68309
9.77069
10.6287
11.3516
12.0257
12.7189
13.4728
14.2991
15.1797
16.0707
16.909
17.621
18.1314
18.3722
18.2901
17.8522
17.0485
15.8928
14.4205
12.6849
10.7514
8.69066
6.57228
4.45846
2.39943
0.43076
-1.42688
-3.16567
-4.78652
-6.2936
-7.68841
-8.96414
-10.1014
-11.0659
-11.8077
-12.2641
-12.3637
-12.0328
-11.2033
-9.82078
-7.85335
-5.29831
-2.1881
1.40632
5.37429
9.56713
13.8025
17.8716
21.5499
24.6097
26.8359
28.0426
28.0901
26.8991
24.4624
20.85
16.2075
10.7473
4.73239
-1.54495
-7.78843
-13.7231
-19.1186
-23.8059
-27.6877
-30.7371
-32.9866
-34.5052
-35.3632
-35.5871
-35.1046
-33.6837
-30.8744
-25.9638
-17.9599
-5.62281
12.4396
37.6029
70.9877
113.173
163.901
221.834
284.414
347.893
407.545
458.074
494.182
511.206
505.764
476.276
423.307
349.643
260.091
161.023
59.7157
-36.4321
-120.688
-187.689
-233.971
-258.255
-261.472
-246.53
-217.864
-180.84
-141.089
-103.859
-73.4677
-52.8986
-43.5973
-45.4606
-57.0124
-75.7233
-98.4256
-121.762
-142.614
-158.455
-167.595
-169.307
-163.808
-152.142
-135.965
-117.277
-98.1486
-80.4552
-65.6731
-54.7409
-48.0031
-45.2324
-45.7187
-48.4073
-52.0643
-55.4434
-57.4362
-57.1873
-54.1648
-48.1836
-39.3834
-28.1706
-15.1363
-0.962811
13.6668
28.1462
42.0012
54.9203
66.758
77.5159
87.3055
96.301
104.689
112.623
120.187
127.372
134.072
140.085
145.139
148.916
151.087
151.349
149.453
145.24
138.652
129.753
118.729
105.879
91.604
76.382
60.7386
45.2145
30.3317
16.56
4.28953
-6.19202
-14.7122
-21.2181
-25.7708
-28.531
-29.7379
-29.6836
-28.6846
-27.0554
-25.0838
-23.0125
-21.0259
-19.2441
-17.7235
-16.4621
-15.4107
-14.4857
-13.5844
-12.599
-11.4306
-9.99881
-8.24922
-6.15621
-3.72238
-0.974599
2.04201
5.27129
8.65314
12.1294
15.648
19.1637
22.6381
26.0352
29.317
32.438
35.3403
37.9499
40.1769
41.9185
43.0655
43.5134
43.1746
41.9919
39.951
37.0888
33.4976
29.3222
24.7508
20.0001
15.2962
10.8536
6.85448
3.43226
0.659726
-1.4554
-2.96769
-3.98426
-4.6497
-5.12743
-5.58015
-6.15161
-6.95176
-8.04691
-9.45554
-11.15
-13.0632
-15.0995
-17.1477
-19.0945
-20.8374
-22.2949
-23.413
-24.1692
-24.5708
-24.6512
-24.4632
-24.0692
-23.5321
-22.9058
-22.2269
-21.5099
-20.7447
-19.8989
-18.9222
-17.7552
-16.3385
-14.623
-12.5786
-10.2003
-7.51165
-4.56398
-1.43207
1.79273
5.01121
8.12551
11.0473
13.7045
16.0446
18.0365
19.6685
20.9451
21.8828
22.5047
22.8365
22.9032
22.7273
22.3285
21.7238
20.9293
19.9613
18.8375
17.5775
16.2023
14.7332
13.1904
11.5916
9.95116
8.27901
6.5817
4.86329
3.12713
1.37765
-0.37803
-2.12926
-3.86178
-5.55869
-7.20208
-8.77511
-10.264
-11.6595
-12.9574
-14.1579
-15.2645
-16.2815
-17.2118
-18.0556
-18.8085
-19.4617
-20.0017
-20.4108
-20.6672
-20.7446
-20.6126
-20.2365
-19.5785
-18.599
-17.26
-15.5284
-13.3794
-10.8006
-7.79434
-4.37901
-0.5897
3.52257
7.89185
12.4383
17.0688
21.6768
26.1417
30.3284
34.0879
37.2595
39.6761
41.1723
41.5962
40.8233
38.7705
35.4102
30.7799
24.9877
18.2106
10.6865
2.69904
-5.44134
-13.4203
-20.9421
-27.7496
-33.6398
-38.4724
-42.1708
-44.715
-46.1258
-46.4407
-45.6807
-43.8084
-40.6786
-35.984
-29.2044
-19.5699
-6.05532
12.5758
37.6598
70.4462
111.841
162.108
220.57
285.381
353.419
420.368
481.002
529.673
560.939
570.268
554.688
513.305
447.58
361.325
260.389
152.092
44.4494
-54.6806
-138.44
-201.677
-241.442
-257.199
-250.766
-225.966
-188.081
-143.166
-97.3218
-56.0199
-23.5523
-2.66622
5.58738
1.7931
-12.0774
-33.0538
-57.6352
-82.2741
-103.816
-119.843
-128.896
-130.553
-125.374
-114.728
-100.543
-85.005
-70.2608
-58.1462
-49.9808
-46.4419
-47.5287
-52.6112
-60.5528
-69.8841
-79.004
-86.3812
-90.7314
-91.1518
-87.1991
-78.9072
-66.7465
-51.5341
-34.3114
-16.2047
1.71149
18.5333
33.6145
46.6155
57.5098
66.5532
74.2203
81.1193
87.8976
95.1485
103.331
112.71
123.324
134.98
147.275
159.64
171.401
181.845
190.287
196.132
198.923
198.369
194.364
186.98
176.45
163.143
147.529
130.144
111.561
92.359
73.1032
54.3257
36.5118
20.0885
5.41261
-7.23934
-17.6813
-25.8256
-31.6874
-35.3836
-37.1259
-37.2058
-35.9732
-33.8096
-31.0981
-28.1934
-25.3945
-22.9236
-20.9137
-19.4049
-18.3515
-17.6365
-17.0945
-16.5364
-15.7761
-14.6538
-13.0552
-10.9224
-8.25878
-5.12504
-1.62977
2.08508
5.86102
9.54031
12.9814
16.071
18.7324
20.9283
22.6594
23.9593
24.8859
25.5112
25.9104
26.1509
26.284
26.3381
26.316
26.1951
25.9322
25.4704
24.7485
23.7119
22.322
20.5647
18.4551
16.0389
13.3893
10.6012
7.78122
5.03715
2.46666
0.147592
-1.86948
-3.56516
-4.95141
-6.06809
-6.9764
-7.75021
-8.46653
-9.19638
-9.99706
-10.9068
-11.9418
-13.0963
-14.3445
-15.644
-16.9407
-18.1733
-19.2779
-20.1928
-20.8611
-21.2345
-21.2754
-20.959
-20.2753
-19.2298
-17.8444
-16.157
-14.2206
-12.1007
-9.8719
-7.61426
-5.40803
-3.32893
-1.44346
0.19505
1.54932
2.59963
3.34378
3.79578
3.98311
3.94317
3.71924
3.3563
2.89726
2.37988
1.8347
1.28395
0.741587
0.214237
-0.297154
-0.795215
-1.28388
-1.76629
-2.24301
-2.71096
-3.16302
-3.58829
-3.97316
-4.30271
-4.5624
-4.73972
-4.82557
-4.81513
-4.70835
-4.50978
-4.2281
-3.87537
-3.46616
-3.01663
-2.54371
-2.06421
-1.59382
-1.14566
-0.728209
-0.342309
0.0225514
0.3924
0.812567
1.35008
2.09357
3.14981
4.63631
6.67024
9.35449
12.7624
16.9235
21.8116
27.3389
33.3551
39.6545
45.9888
52.0852
57.6677
62.4789
66.3005
68.9701
70.3926
70.5456
69.4774
67.3005
64.1782
60.3085
55.9066
51.1864
46.3448
41.5491
36.928
32.5688
28.5182
24.7875
21.3612
18.2065
15.2842
12.558
10.0044
7.62178
5.44417
3.55993
2.14139
1.48601
2.0688
4.59916
10.0698
19.7777
35.2941
58.3595
90.6876
133.681
188.075
253.57
328.504
409.658
492.261
570.234
636.695
684.663
707.898
701.738
663.824
594.581
497.379
378.318
245.677
109.074
-21.5484
-136.982
-229.714
-294.674
-329.681
-335.54
-315.784
-276.131
-223.706
-166.16
-110.792
-63.7709
-29.5586
-10.5742
-7.12964
-17.6186
-38.9125
-66.8991
-97.0836
-125.174
-147.582
-161.782
-166.504
-161.754
-148.671
-129.258
-106.041
-81.695
-58.6908
-39.0109
-23.9531
-14.0429
-9.05172
-8.10855
-9.87952
-12.7868
-15.2347
-15.8146
-13.4645
-7.56982
2.00224
14.9313
30.5253
47.8396
65.8153
83.4168
99.754
114.172
126.305
136.084
143.714
149.612
154.324
158.443
162.521
166.996
172.143
178.05
184.617
191.578
198.54
205.031
210.551
214.616
216.803
216.768
214.273
209.186
201.481
191.232
178.601
163.83
147.23
129.176
110.092
90.4507
70.7568
51.5317
33.2941
16.5341
1.686
-10.8994
-20.979
-28.4351
-33.2841
-35.6735
-35.8684
-34.2273
-31.1707
-27.1452
-22.5871
-17.8899
-13.3786
-9.29239
-5.77834
-2.8944
-0.621169
1.11998
2.44515
3.48544
4.36621
5.19034
6.0267
6.90463
7.81414
8.7113
9.52739
10.1806
10.5881
10.6782
10.3994
9.72744
8.66855
7.25892
5.56103
3.65718
1.64084
-0.392848
-2.35654
-4.17904
-5.8115
-7.23095
-8.44067
-9.46754
-10.3566
-11.164
-11.9481
-12.7619
-13.6453
-14.6202
-15.6879
-16.829
-18.0063
-19.1694
-20.2617
-21.2261
-22.0123
-22.5814
-22.9094
-22.9887
-22.8267
-22.4429
-21.8648
-21.1228
-20.2449
-19.2525
-18.1574
-16.9601
-15.6506
-14.2104
-12.6163
-10.8451
-8.87909
-6.71067
-4.34666
-1.81073
0.855874
3.59587
6.33924
9.00826
11.5234
13.8092
15.8002
17.4448
18.7079
19.5712
20.0326
20.1023
19.8002
19.1515
18.1832
16.9221
15.3936
13.6221
11.6318
9.44978
7.10736
4.64247
2.10063
-0.464902
-2.99402
-5.4216
-7.67999
-9.70197
-11.4237
-12.7879
-13.7459
-14.2602
-14.3054
-13.8688
-12.9507
-11.5631
-9.72912
-7.48101
-4.85858
-1.90695
1.32598
4.79248
8.44809
12.2546
16.1824
20.2111
24.3287
28.5286
32.8042
37.1424
41.5166
45.8792
50.1577
54.2515
58.0341
61.3585
64.0662
65.9997
67.016
67.0007
65.8798
63.6298
60.2822
55.9243
50.6953
44.7774
38.3841
31.7459
25.0953
18.6523
12.6112
7.13079
2.32684
-1.73035
-5.01463
-7.53676
-9.32997
-10.4258
-10.8176
-10.4092
-8.94972
-5.95763
-0.646275
8.1323
21.8997
42.4923
71.9063
112.036
164.314
229.294
306.237
392.785
484.816
576.543
660.892
730.15
776.816
794.543
779.032
728.748
645.326
533.599
401.221
257.929
114.529
-18.26
-130.948
-216.269
-269.884
-290.743
-281.03
-245.76
-192.054
-128.222
-62.7662
-3.4341
43.5747
74.1546
86.5519
81.3254
61.0388
29.7465
-7.64765
-46.0675
-80.8934
-108.469
-126.437
-133.88
-131.267
-120.232
-103.236
-83.1556
-62.8656
-44.8689
-31.0111
-22.3105
-18.9124
-20.1618
-24.771
-31.0543
-37.1897
-41.4744
-42.5394
-39.501
-32.0358
-20.3753
-5.2296
12.3453
31.1124
49.8289
67.4064
83.0365
96.269
107.035
115.618
122.576
128.635
134.57
141.076
148.674
157.634
167.939
179.29
191.146
202.794
213.43
222.258
228.571
231.827
231.694
228.075
221.104
211.116
198.605
184.161
168.416
151.983
135.41
119.148
103.535
88.7986
75.0624
62.3743
50.7307
40.1039
30.4649
21.798
14.1087
7.42064
1.76792
-2.81908
-6.32844
-8.78023
-10.2361
-10.803
-10.6304
-9.90113
-8.81748
-7.58383
-6.38877
-5.38865
-4.69485
-4.36611
-4.40691
-4.77172
-5.37447
-6.10195
-6.82917
-7.43498
-7.81604
-7.89758
-7.64013
-7.04156
-6.1348
-4.9818
-3.66478
-2.27607
-0.907776
0.357458
1.4538
2.33697
2.98624
3.40375
3.61154
3.64689
3.55675
3.3918
3.20088
3.02634
2.90045
2.84326
2.86175
2.95017
3.0915
3.2596
3.42195
3.5428
3.58633
3.51982
3.31648
2.95782
2.43534
1.75133
0.918844
-0.0392615
-1.09215
-2.20349
-3.33438
-4.44645
-5.50481
-6.48056
-7.35261
-8.10861
-8.74498
-9.2661
-9.68263
-10.0093
-10.2622
-10.4556
-10.5989
-10.6939
-10.733
-10.6977
-10.56
-10.284
-9.83057
-9.16183
-8.2469
-7.06703
-5.61966
-3.92055
-2.00355
0.0820117
2.27622
4.51499
6.73723
8.89173
10.9431
12.8755
14.6947
16.4269
18.1162
19.8188
21.597
23.5115
25.6141
27.9403
30.5037
33.2916
36.2628
39.3484
42.4544
45.4672
48.2608
50.706
52.6788
54.069
54.7858
54.762
53.953
52.3341
49.8943
46.629
42.5326
37.594
31.7951
25.1145
17.5359
9.06086
-0.276297
-10.393
-21.1457
-32.3215
-43.6366
-54.7421
-65.237
-74.6875
-82.6468
-88.6727
-92.3327
-93.1925
-90.7828
-84.545
-73.7657
-57.517
-34.6309
-3.73759
36.6044
87.6722
150.246
224.219
308.217
399.311
492.919
582.948
662.228
723.195
758.76
763.252
733.27
668.332
571.191
447.747
306.562
158.018
13.2318
-117.139
-224.034
-300.929
-344.465
-354.683
-334.86
-290.976
-230.893
-163.365
-97.0093
-39.3579
3.88759
29.3334
36.0604
25.4841
0.951674
-32.8554
-70.6217
-107.108
-137.783
-159.303
-169.802
-168.967
-157.91
-138.878
-114.848
-89.0684
-64.6132
-44.0034
-28.9342
-20.1364
-17.3744
-19.5703
-25.0238
-31.6937
-37.4955
-40.5787
-39.5476
-33.6025
-22.5914
-6.97276
12.2972
33.9301
56.4981
78.6248
99.1502
117.251
132.503
144.89
154.754
162.705
169.511
175.973
182.807
190.557
199.525
209.748
220.999
232.823
244.598
255.598
265.069
272.298
276.668
277.705
275.104
268.744
258.687
245.171
228.582
209.434
188.333
165.943
142.948
120.019
97.7796
76.7788
57.47
40.1958
25.1805
12.5309
2.24179
-5.79084
-11.7537
-15.8965
-18.5103
-19.9065
-20.3961
-20.2715
-19.7913
-19.1691
-18.5661
-18.0895
-17.7934
-17.6856
-17.7358
-17.8878
-18.0709
-18.2126
-18.2489
-18.1327
-17.8394
-17.3682
-16.741
-15.9982
-15.192
-14.3788
-13.6114
-12.9317
-12.3658
-11.9199
-11.5806
-11.3164
-11.0818
-10.8239
-10.4884
-10.0275
-9.40553
-8.60397
-7.62401
-6.48689
-5.23185
-3.9119
-2.58824
-1.32372
-0.176425
0.80598
1.59043
2.16069
2.51758
2.6772
2.66758
2.5243
2.28571
1.9884
1.66345
1.33386
1.01356
0.70773
0.414531
0.127685
-0.160468
-0.455992
-0.760889
-1.07153
-1.3782
-1.66576
-1.91533
-2.10666
-2.22064
-2.24143
-2.15746
-1.96075
-1.64442
-1.19841
-0.604205
0.170324
1.17455
2.47593
4.15712
6.30903
9.02046
12.3654
16.3898
21.1001
26.4553
32.3634
38.6844
45.2388
51.8205
58.214
64.2111
69.6279
74.3172
78.1762
81.1487
83.2213
84.4151
84.7752
84.3582
83.2213
81.4139
78.9731
75.9233
72.2796
68.0549
63.2683
57.9544
52.1708
46.0036
39.5684
33.0085
26.4876
20.18
14.2579
8.8789
4.17348
0.238205
-2.86448
-5.09497
-6.41019
-6.71949
-5.82211
-3.33011
1.41315
9.40165
21.9979
40.8988
68.0097
105.213
154.032
215.227
288.378
371.528
460.988
551.371
635.894
706.963
756.976
779.253
768.949
723.834
644.784
535.909
404.286
259.299
111.685
-27.6045
-148.574
-243.235
-306.404
-336.162
-333.916
-304.075
-253.397
-190.104
-122.883
-59.8953
-7.92469
28.25
46.1998
45.8854
29.4139
0.566402
-35.8264
-74.5698
-110.764
-140.355
-160.528
-169.904
-168.54
-157.749
-139.794
-117.485
-93.7659
-71.3206
-52.2641
-37.9372
-28.8243
-24.5902
-24.2194
-26.2274
-28.9107
-30.5985
-29.8751
-25.7455
-17.7301
-5.88336
9.26013
26.7968
45.6041
64.5063
82.433
98.5518
112.358
123.715
132.841
140.25
146.656
152.852
159.592
167.475
176.859
187.809
200.082
213.149
226.251
238.48
248.866
256.477
260.501
260.321
255.56
246.111
232.14
214.067
192.533
168.352
142.456
115.834
89.4752
64.3091
41.1563
20.6844
3.37617
-10.4905
-20.8485
-27.8332
-31.7599
-33.0893
-32.3828
-30.2522
-27.3078
-24.1095
-21.1255
-18.702
-17.0465
-16.2262
-16.1797
-16.7414
-17.6742
-18.7067
-19.5712
-20.0371
-19.937
-19.183
-17.7723
-15.7808
-13.3497
-10.6631
-7.92376
-5.32807
-3.04357
-1.19226
0.159415
1.00292
1.38286
1.38617
1.12722
0.730965
0.316443
-0.0173341
-0.201554
-0.202896
-0.0237328
0.302305
0.718392
1.15479
1.53981
1.80999
1.91821
1.8389
1.57003
1.13181
0.56272
-0.0864486
-0.759424
-1.40128
-1.9643
-2.41219
-2.72241
-2.88637
-2.90789
-2.80023
-2.58221
-2.27405
-1.89339
-1.45188
-0.952516
-0.38775
0.261803
1.02818
1.95653
3.10513
4.54469
6.35652
8.62895
11.4517
14.9077
19.0637
23.9582
29.5908
35.9117
42.8151
50.1353
57.6495
65.0847
72.1305
78.4566
83.7342
87.6583
89.9719
90.4866
89.1004
85.8095
80.7131
74.0099
65.9873
57.0028
47.46
37.7802
28.3726
19.6066
11.7868
5.1351
-0.219951
-4.24411
-6.98961
-8.57791
-9.1738
-8.95104
-8.04962
-6.52435
-4.285
-1.03029
3.81845
11.1723
22.3007
38.8045
62.5139
95.2907
138.735
193.816
260.469
337.24
421.045
507.145
589.36
660.573
713.451
741.326
739.093
704.003
636.211
538.984
418.519
283.387
143.653
9.80724
-108.371
-202.858
-268.205
-302.039
-305.188
-281.423
-236.878
-179.22
-116.702
-57.1975
-7.36216
28.0104
46.3559
47.4169
33.0405
6.74573
-26.8685
-62.7869
-96.2274
-123.196
-140.891
-147.92
-144.318
-131.392
-111.422
-87.2715
-61.9662
-38.2987
-18.5024
-4.03111
4.54089
7.49685
5.85124
1.14533
-4.80068
-10.1431
-13.2451
-12.8558
-8.22149
0.875752
14.1502
30.9011
50.141
70.7429
91.5859
111.683
130.273
146.878
161.317
173.677
184.255
193.488
201.855
209.805
217.674
225.639
233.691
241.628
249.075
255.527
260.398
263.082
263.013
259.723
252.89
242.368
228.213
210.677
190.205
167.401
142.994
117.791
92.621
68.2889
45.522
24.929
6.96774
-8.0745
-20.0876
-29.1313
-35.4166
-39.2761
-41.1286
-41.4396
-40.682
-39.3002
-37.6799
-36.1259
-34.8487
-33.9605
-33.4799
-33.344
-33.4268
-33.5615
-33.5647
-33.2602
-32.5002
-31.1825
-29.2615
-26.753
-23.7317
-20.3229
-16.6889
-13.0114
-9.47357
-6.2412
-3.44775
-1.18294
0.513208
1.65061
2.28397
2.50306
2.41994
2.15466
1.82136
1.5162
1.30852
1.2359
1.30345
1.48709
1.74003
2.00159
2.20705
2.29734
2.22745
1.97264
1.53182
0.927871
0.204971
-0.576444
-1.34644
-2.03301
-2.56906
-2.89805
-2.97729
-2.7785
-2.28537
-1.48856
-0.379073
1.05882
2.85334
5.0481
7.7009
10.8777
14.6421
19.0414
24.0905
29.7579
35.9533
42.5219
49.2459
55.8529
62.033
67.4619
71.8273
74.8565
76.3421
76.161
74.2866
70.7903
65.8354
59.661
52.5607
44.8583
36.8818
28.9409
21.3077
14.2041
7.79457
2.18517
-2.57201
-6.47063
-9.53913
-11.8278
-13.3943
-14.2867
-14.5215
-14.0527
-12.7298
-10.2425
-6.05573
0.654599
11.0459
26.609
49.0946
80.3441
122.016
175.226
240.133
315.566
398.74
485.184
568.912
642.871
699.643
732.311
735.372
705.566
642.486
548.85
430.399
295.398
153.811
16.2477
-107.178
-207.924
-279.907
-320.071
-328.594
-308.71
-266.184
-208.526
-144.047
-80.889
-26.1392
14.8616
38.9547
45.3051
35.2591
11.9583
-20.222
-56.3254
-91.4694
-121.424
-143.051
-154.56
-155.574
-147.012
-130.824
-109.619
-86.2627
-63.4727
-43.4843
-27.8116
-17.128
-11.2685
-9.34141
-9.92563
-11.3171
-11.7898
-9.8346
-4.34804
5.25024
18.979
36.3343
56.3945
77.9704
99.7794
120.617
139.508
155.808
169.269
180.03
188.574
195.631
202.057
208.708
216.312
225.364
236.063
248.273
261.54
275.136
288.137
299.523
308.275
313.482
314.421
310.62
301.893
288.35
270.376
248.591
223.802
196.932
168.96
140.861
113.544
87.8156
64.3417
43.625
25.9938
11.5994
0.424223
-7.70326
-13.085
-16.1245
-17.2931
-17.0945
-16.0286
-14.5583
-13.0812
-11.9081
-11.2505
-11.2165
-11.8164
-12.9759
-14.5552
-16.3725
-18.2278
-19.9265
-21.2991
-22.2159
-22.5969
-22.4141
-21.6895
-20.4881
-18.9068
-17.0629
-15.0804
-13.0787
-11.1626
-9.41463
-7.891
-6.62015
-5.60417
-4.82257
-4.23777
-3.80164
-3.46237
-3.17095
-2.88675
-2.58155
-2.2417
-1.86836
-1.47562
-1.08705
-0.730926
-0.434903
-0.220792
-0.100153
-0.0713111
-0.118167
-0.210905
-0.308328
-0.361245
-0.316094
-0.117985
0.28745
0.953606
1.93358
3.28135
5.05262
7.30453
10.0938
13.4729
17.4844
22.1547
27.4859
33.4495
39.9806
46.9746
54.2866
61.7349
69.1068
76.1691
82.6795
88.4005
93.1139
96.6341
98.8195
99.5813
98.888
96.7656
93.294
88.5988
82.8419
76.2094
68.9016
61.123
53.0753
44.9522
36.9358
29.1949
21.8824
15.1332
9.06048
3.75297
-0.72704
-4.34055
-7.05969
-8.84143
-9.58259
-9.05429
-6.81909
-2.14172
6.0865
19.3812
39.6233
68.9134
109.304
162.422
229.011
308.477
398.514
494.919
591.671
681.314
755.639
806.583
827.247
812.866
761.587
674.926
557.814
418.218
266.36
113.654
-28.5219
-150.043
-243.092
-302.923
-328.242
-321.173
-286.835
-232.587
-167.076
-99.1853
-37.0402
12.8205
46.0231
60.6326
57.1161
38.0264
7.47105
-29.5509
-67.8479
-102.684
-130.298
-148.251
-155.563
-152.662
-141.156
-123.483
-102.506
-81.0847
-61.7125
-46.2327
-35.6765
-30.2238
-29.2808
-31.6497
-35.7596
-39.9208
-42.5659
-42.4485
-38.7756
-31.2648
-20.1263
-5.97951
10.2762
27.6145
45.0343
61.6907
76.9886
90.6289
102.608
113.172
122.743
131.826
140.909
150.381
160.469
171.198
182.387
193.671
204.538
214.386
222.587
228.542
231.738
231.782
228.438
221.636
211.479
198.232
182.309
164.246
144.673
124.276
103.76
83.814
65.0665
48.0562
33.202
20.7826
10.9265
3.61248
-1.3193
-4.14537
-5.22977
-4.98918
-3.8563
-2.24458
-0.517692
1.03366
2.20588
2.8869
3.0511
2.74634
2.07489
1.17122
0.179086
-0.769327
-1.5701
-2.1587
-2.51478
-2.66085
-2.65551
-2.58266
-2.53852
-2.61796
-2.90226
-3.44935
-4.28774
-5.41453
-6.79743
-8.38024
-10.0908
-11.8501
-13.5819
-15.2202
-16.7156
-18.0386
-19.1793
-20.146
-20.9597
-21.649
-22.243
-22.7657
-23.231
-23.639
-23.9756
-24.2132
-24.3139
-24.234
-23.9294
-23.3616
-22.5026
-21.3383
-19.8714
-18.1202
-16.1164
-13.9002
-11.513
-8.99007
-6.35259
-3.60075
-0.709309
2.37374
5.72471
9.43758
13.6135
18.347
23.7102
29.7368
36.407
43.6364
51.2699
59.082
66.7857
74.0477
80.5115
85.825
89.6704
91.7937
92.0288
90.3155
86.7059
81.3602
74.5319
66.5432
57.7545
48.5331
39.2219
30.1158
21.444
13.363
5.95674
-0.755175
-6.8043
-12.2575
-17.1998
-21.7165
-25.8742
-29.6988
-33.1461
-36.062
-38.1306
-38.8084
-37.2544
-32.2686
-22.2626
-5.29166
20.8231
58.2614
108.859
173.675
252.537
343.631
443.256
545.801
644.031
729.672
794.254
830.114
831.42
795.053
721.213
613.629
479.342
328.053
171.128
20.3842
-113.178
-220.544
-295.586
-335.617
-341.507
-317.394
-270.022
-207.824
-139.866
-74.7903
-19.8944
19.5635
40.7597
43.3787
29.3846
2.54263
-32.2277
-69.5746
-104.416
-132.534
-151.009
-158.439
-154.951
-142.025
-122.157
-98.4333
-74.0743
-52.0059
-34.512
-23.0038
-17.923
-18.7773
-24.291
-32.6416
-41.7411
-49.5264
-54.2175
-54.5172
-49.73
-39.796
-25.2398
-7.05216
13.477
34.9468
56.0309
75.6349
93.0095
107.808
120.085
130.241
138.928
146.924
154.999
163.798
173.736
184.939
197.216
210.084
222.812
234.513
244.23
251.047
254.176
253.039
247.32
236.991
222.315
203.818
182.244
158.491
133.55
108.423
84.0643
61.3126
40.8489
23.1605
8.52466
-2.99248
-11.5209
-17.3584
-20.9319
-22.7514
-23.3617
-23.2951
-23.0297
-22.9562
-23.3564
-24.3929
-26.1115
-28.4541
-31.28
-34.3921
-37.5659
-40.5763
-43.2214
-45.3394
-46.8196
-47.6056
-47.6935
-47.1239
-45.972
-44.336
-42.3259
-40.053
-37.6229
-35.1297
-32.6526
-30.2554
-27.9856
-25.876
-23.9452
-22.1991
-20.6315
-19.2256
-17.9544
-16.7831
-15.671
-14.5751
-13.4536
-12.2711
-11.0024
-9.6369
-8.1808
-6.6579
-5.10822
-3.58444
-2.14659
-0.855593
0.233663
1.07863
1.65415
1.95547
1.99893
1.82024
1.4705
1.01071
0.505298
0.0156345
-0.405746
-0.719438
-0.901542
-0.943896
-0.852245
-0.642652
-0.336641
0.0443647
0.484736
0.979874
1.54047
2.19531
2.9922
3.99687
5.2895
6.95918
9.09618
11.7827
15.0823
19.0297
23.6213
28.8084
34.4944
40.5362
46.7519
52.9325
58.858
64.3159
69.1191
73.1225
76.2346
78.4245
79.7206
80.2052
80.0013
79.2568
78.1258
76.751
75.2467
73.6868
72.0969
70.4524
68.6824
66.6795
64.3133
61.448
57.961
53.7607
48.8015
43.0943
36.7115
29.7856
22.501
15.0824
7.77957
0.852975
-5.43551
-10.8224
-15.0273
-17.7182
-18.4563
-16.6241
-11.349
-1.44111
14.6253
38.6567
72.5839
118.192
176.746
248.558
332.558
425.966
524.16
620.805
708.281
778.402
823.331
836.584
813.967
754.299
659.799
536.059
391.582
236.949
83.7152
-56.8343
-174.881
-263.089
-317.31
-336.886
-324.548
-285.922
-228.724
-161.771
-93.9255
-33.1137
14.4714
44.9005
56.7277
50.8981
30.3817
-0.397762
-36.2524
-71.9418
-102.819
-125.337
-137.368
-138.313
-129.011
-111.477
-88.5203
-63.3027
-38.8951
-17.8945
-2.13833
7.45491
10.9122
9.10896
3.57357
-3.77288
-10.9016
-15.9474
-17.4337
-14.4256
-6.59962
5.7718
21.9113
40.6836
60.775
80.8783
99.859
116.882
131.486
143.602
153.513
161.775
169.1
176.236
183.845
192.4
202.122
212.943
224.518
236.265
247.43
257.173
264.656
269.126
269.985
266.84
259.534
248.151
232.999
214.587
193.575
170.727
146.86
122.792
99.2986
77.0736
56.6987
38.6231
23.1504
10.4352
0.487352
-6.81595
-11.7115
-14.5261
-15.6481
-15.4977
-14.4965
-13.0398
-11.4725
-10.071
-9.0325
-8.47071
-8.41971
-8.84347
-9.65051
-10.7117
-11.8793
-13.0052
-13.9569
-14.6305
-14.9587
-14.9147
-14.5114
-13.7968
-12.8463
-11.7526
-10.6147
-9.52733
-8.57085
-7.80386
-7.25828
-6.93764
-6.81859
-6.85542
-6.98689
-7.1447
-7.26226
-7.28303
-7.16705
-6.8951
-6.46988
-5.91422
-5.26661
-4.57496
-3.88932
-3.25494
-2.70651
-2.26435
-1.93298
-1.70217
-1.55
-1.44731
-1.36292
-1.26856
-1.14297
-0.974551
-0.762311
-0.51508
-0.249236
0.014582
0.255188
0.454346
0.599472
0.685151
0.713297
0.692069
0.633873
0.552937
0.46301
0.375669
0.299555
0.240638
0.203378
0.192421
0.21435
0.278976
0.399747
0.593018
0.876179
1.26491
1.76999
2.39438
3.13102
3.96208
4.85986
5.78925
6.71176
7.59029
8.39412
9.10339
9.71234
10.2309
10.6845
11.1118
11.5618
12.0895
12.7519
13.6044
14.6988
16.0807
17.7891
19.8546
22.2988
25.1314
28.3479
31.9256
35.8197
39.9592
44.2448
48.5473
52.7088
56.5477
59.8646
62.4528
64.1096
64.6492
63.9156
61.7939
58.2194
53.1839
46.7378
38.9891
30.0994
20.2766
9.7663
-1.1592
-12.2117
-23.0985
-33.5331
-43.2441
-51.9835
-59.5323
-65.7045
-70.3493
-73.3492
-74.6134
-74.0606
-71.5889
-67.0285
-60.0777
-50.2288
-36.6989
-18.3882
6.10524
38.3861
80.0586
132.421
196.083
270.567
353.963
442.728
531.715
614.451
683.702
732.24
753.737
743.652
699.969
623.667
518.839
392.412
253.506
112.501
-20.0688
-134.639
-223.627
-282.184
-308.627
-304.469
-274.098
-224.123
-162.514
-97.6312
-37.2746
12.1299
46.1238
62.5321
61.4854
45.169
17.3532
-17.2203
-53.509
-86.809
-113.289
-130.366
-136.883
-133.099
-120.503
-101.488
-78.9594
-55.9069
-35.0198
-18.3772
-7.24914
-2.02077
-2.23667
-6.74754
-13.9296
-21.9414
-28.9814
-33.5129
-34.4319
-31.1606
-23.664
-12.3943
1.8212
17.9284
34.8078
51.4256
66.9564
80.8632
92.9293
103.242
112.137
120.11
127.721
135.491
143.817
152.912
162.771
173.172
183.706
193.827
202.914
210.341
215.539
218.047
217.547
213.879
207.04
197.174
184.542
169.504
152.482
133.944
114.381
94.2921
74.1754
54.5138
35.7642
18.3434
2.61141
-11.1458
-22.7336
-32.0618
-39.1523
-44.139
-47.2582
-48.8297
-49.2295
-48.8576
-48.1021
-47.3052
-46.7323
-46.7323
-46.7323
-46.7323
-46.7323
-46.7323
-46.7323
-46.7323
-46.7323
-46.7323
-46.7323
-46.7323
-46.7323
-46.7323
-46.7323
-46.7323
-46.7323
-46.7323
-46.7323
-46.7323
