-1384.61
-1270.22
-1137.38
-988.494
-827.304
-658.686
-488.249
-321.839
-164.967
-22.2366
103.155
209.791
298.214
370.901
431.999
486.874
541.486
601.684
672.476
757.378
857.903
973.271
1100.36
1233.92
1367.06
1491.87
1600.25
1684.7
1739.11
1759.39
1743.92
1693.66
1612.12
1504.96
1379.41
1243.61
1105.78
973.484
852.958
748.648
662.913
595.979
546.11
509.974
483.144
460.687
437.757
410.13
374.633
329.415
274.05
209.464
137.721
61.6892
-15.3507
-90.1105
-159.664
-221.732
-274.865
-318.491
-352.844
-378.776
-397.487
-410.208
-417.885
-420.91
-418.941
-410.854
-394.837
-368.627
-329.877
-276.594
-207.601
-122.949
-24.2198
85.347
200.929
316.407
424.853
519.15
592.705
640.141
657.905
644.703
601.703
532.488
442.736
339.689
231.446
126.178
31.3461
-46.9814
-104.643
-139.678
-152.368
-145.042
-121.677
-87.349
-47.6047
-7.84042
27.2511
54.1015
70.5185
75.7541
70.3977
56.123
35.3342
10.7663
-14.9084
-39.415
-61.119
-79.1537
-93.4291
-104.533
-113.553
-121.841
-130.773
-141.523
-154.89
-171.184
-190.2
-211.253
-233.283
-254.997
-275.038
-292.153
-305.335
-313.939
-317.737
-316.936
-312.131
-304.227
-294.324
-283.584
-273.105
-263.809
-256.353
-251.09
-248.054
-247.002
-247.466
-248.847
-250.498
-251.818
-252.316
-251.66
-249.68
-246.347
-241.708
-235.795
-228.522
-219.575
-208.327
-193.798
-174.674
-149.399
-116.344
-74.0382
-21.4323
41.8263
115.165
196.938
284.392
373.773
460.577
539.916
606.974
657.483
688.178
697.141
684.022
650.075
598.026
531.789
456.051
375.803
295.868
220.468
152.903
95.3456
48.7845
13.0969
-12.7676
-30.5241
-42.254
-50.1062
-56.0375
-61.6139
-67.8924
-75.3841
-84.0944
-93.6237
-103.309
-112.382
-120.121
-125.978
-129.664
-131.189
-130.847
-129.174
-126.857
-124.643
-123.24
-123.225
-124.979
-128.647
-134.132
-141.112
-149.085
-157.432
-165.489
-172.614
-178.249
-181.961
-183.467
-182.63
-179.444
-174.003
-166.468
-157.032
-145.903
-133.289
-119.409
-104.501
-88.8476
-72.7836
-56.7095
-41.0831
-26.3992
-13.1555
-1.80958
7.26746
13.8333
17.8056
19.2775
18.514
15.9312
12.061
7.51335
2.94467
-0.95318
-3.43703
-3.6702
-0.665769
6.76271
20.0147
40.6533
70.2739
110.289
161.646
224.513
297.995
379.921
466.786
553.851
635.443
705.423
757.769
787.224
789.903
763.79
709.061
628.171
525.691
407.922
282.316
156.77
38.8928
-64.69
-148.907
-210.628
-248.836
-264.576
-260.684
-241.37
-211.674
-176.887
-142.004
-111.248
-87.7346
-73.2871
-68.4101
-72.4125
-83.647
-99.825
-118.365
-136.725
-152.69
-164.578
-171.36
-172.681
-168.803
-160.487
-148.825
-135.073
-120.477
-106.138
-92.9085
-81.3409
-71.6753
-63.8669
-57.6416
-52.5663
-48.1254
-43.7914
-39.0833
-33.6102
-27.0986
-19.4053
-10.5177
-0.54494
10.2983
21.7155
33.3565
44.851
55.8447
66.0357
75.2074
83.2541
90.1956
96.1769
101.453
106.358
111.261
116.521
122.43
129.173
136.794
145.174
154.038
162.965
171.427
178.829
184.558
188.029
188.729
186.249
180.308
170.768
157.645
141.116
121.529
99.4162
75.5068
50.7382
26.2587
3.41485
-16.2853
-31.2368
-39.8346
-40.6001
-32.33
-14.2538
13.8193
51.3832
97.1704
149.156
204.637
260.397
312.93
358.723
394.551
417.773
426.576
420.158
398.818
363.942
317.889
263.789
205.266
146.117
89.9875
40.0656
-1.1716
-32.1308
-52.1839
-61.653
-61.7028
-54.1594
-41.2762
-25.4762
-9.09912
5.82026
17.7208
25.6176
29.132
28.4541
24.246
17.5045
9.40192
1.12493
-6.26869
-11.9616
-15.4467
-16.5519
-15.4212
-12.46
-8.25459
-3.4789
1.19927
5.20039
8.09516
9.64053
9.78793
8.66519
6.53701
3.75071
0.67567
-2.35533
-5.09526
-7.41662
-9.32622
-10.9599
-12.5588
-14.4298
-16.8974
-20.2509
-24.6961
-30.3168
-37.0509
-44.6872
-52.8817
-61.1942
-69.1404
-76.2537
-82.1489
-86.5785
-89.4732
-90.9613
-91.3614
-91.1493
-90.9032
-91.2321
-92.6992
-95.7492
-100.648
-107.448
-115.974
-125.843
-136.503
-147.299
-157.542
-166.582
-173.878
-179.044
-181.877
-182.365
-180.656
-177.028
-171.824
-165.4
-158.068
-150.058
-141.5
-132.417
-122.756
-112.421
-101.321
-89.4173
-76.7636
-63.5326
-50.021
-36.6346
-23.8545
-12.1886
-2.1155
5.97107
11.8093
15.3019
16.5292
15.7419
13.3336
9.79839
5.67797
1.50543
-2.24697
-5.21055
-7.14866
-7.96849
-7.71589
-6.5552
-4.73741
-2.56157
-0.334438
1.66674
3.22439
4.20151
4.55295
4.32891
3.6734
2.82102
2.09369
1.8972
2.71489
5.09415
9.62109
16.88
27.3971
41.571
59.5981
81.4004
106.57
134.34
163.588
192.886
220.581
244.918
264.183
276.855
281.758
278.178
265.962
245.548
217.96
184.731
147.788
109.294
71.4658
36.3894
5.8526
-18.7909
-36.7097
-47.6261
-51.7902
-49.9009
-42.9866
-32.2616
-18.9777
-4.29125
10.8386
25.7094
39.8893
53.1879
65.5985
77.226
88.2213
98.7398
108.936
119.001
129.225
140.085
152.31
166.904
185.102
208.234
237.514
273.754
317.077
366.644
420.492
475.508
527.587
571.969
603.732
618.382
612.462
584.079
533.28
462.205
374.979
277.354
176.148
78.524
-8.76164
-80.0776
-131.495
-161.16
-169.422
-158.705
-133.145
-98.0569
-59.2875
-22.5435
7.22252
26.3038
32.5558
25.5127
6.30318
-22.6093
-57.8186
-95.4432
-131.609
-162.886
-186.637
-201.242
-206.179
-201.976
-190.04
-172.414
-151.469
-129.612
-109.007
-91.3653
-77.8133
-68.8417
-64.3393
-63.6937
-65.9395
-69.9309
-74.5142
-78.6796
-81.6754
-83.0738
-82.7868
-81.0326
-78.2632
-75.0641
-72.0429
-69.7206
-68.4419
-68.3154
-69.1921
-70.6843
-72.2209
-73.1315
-72.7432
-70.475
-65.9124
-58.8481
-49.2808
-37.3744
-23.383
-7.56055
9.92842
29.077
50.0683
73.2648
99.1524
128.249
160.989
197.602
238.006
281.729
327.871
375.12
421.813
466.041
505.793
539.117
564.282
579.939
585.247
579.969
564.518
539.951
507.915
470.534
430.264
389.705
351.406
317.66
290.324
270.658
259.229
255.854
259.625
268.982
281.859
295.87
308.531
317.491
320.753
316.864
305.049
285.28
258.267
225.377
188.484
149.775
111.523
75.8703
44.6219
19.0964
0.0310051
-12.4447
-18.7678
-19.8439
-16.908
-11.3615
-4.60882
2.0888
7.72721
11.6303
13.4753
13.2737
11.3167
8.09428
4.20217
0.248747
-3.22673
-5.81599
-7.27862
-7.55262
-6.74063
-5.07667
-2.87996
-0.503331
1.7166
3.50135
4.66009
5.10459
4.84922
3.99779
2.72036
1.22416
-0.277072
-1.59121
-2.57009
-3.12373
-3.22572
-2.90981
-2.25929
-1.3912
-0.437888
0.47137
1.2264
1.7481
1.9951
1.96509
1.69092
1.2328
0.667766
0.0782281
-0.459017
-0.881858
-1.14915
-1.24368
-1.17181
-0.960168
-0.650157
-0.291186
0.066404
0.377778
0.608661
0.738537
0.761771
0.686742
0.533301
0.329062
0.105098
-0.108329
-0.285491
-0.407953
-0.466115
-0.459482
-0.395764
-0.289032
-0.157274
-0.0197203
0.105714
0.204539
0.267147
0.289506
0.273061
0.223915
0.151363
0.0658325
-0.0238357
-0.113818
-0.209486
-0.330145
-0.513842
-0.821445
-1.33899
-2.1772
-3.46738
-5.35343
-7.98032
-11.4805
-15.9596
-21.484
-28.0714
-35.6855
-44.2361
-53.5837
-63.5481
-73.9196
-84.4722
-94.9763
-105.212
-114.983
-124.124
-132.516
-140.089
-146.832
-152.78
-158.014
-162.64
-166.759
-170.452
-173.745
-176.599
-178.905
-180.5
-181.199
-180.841
-179.337
-176.717
-173.162
-169.005
-164.705
-160.796
-157.802
-156.147
-156.066
-157.529
-160.205
-163.464
-166.431
-168.076
-167.344
-163.299
-155.257
-142.904
-126.361
-106.208
-83.4353
-59.3537
-35.4547
-13.2516
5.88517
20.8739
31.0319
36.1372
36.4352
32.5919
25.6016
16.6629
7.03916
-2.07811
-9.68796
-15.068
-17.8244
-17.9024
-15.5593
-11.3064
-5.82973
0.101683
5.72889
10.3892
13.5893
15.0618
14.807
13.122
10.6204
8.24186
7.24648
9.18309
15.8169
29.003
50.4987
81.7188
123.454
175.591
236.874
304.777
375.521
444.266
505.495
553.54
583.21
590.433
572.813
530.026
463.988
378.752
280.139
175.153
71.2443
-24.4833
-106.01
-169.001
-211.183
-232.471
-234.826
-221.88
-198.388
-169.584
-140.53
-115.543
-97.7638
-88.9092
-89.2351
-97.6848
-112.194
-130.094
-148.552
-164.977
-177.351
-184.433
-185.833
-181.952
-173.82
-162.864
-150.65
-138.646
-128.032
-119.579
-113.608
-110.017
-108.357
-107.953
-108.019
-107.773
-106.535
-103.786
-99.2088
-92.6963
-84.3389
-74.3989
-63.2729
-51.4489
-39.4625
-27.8526
-17.1216
-7.69966
0.0840078
6.02109
10.0348
12.1797
12.6314
11.6657
9.63112
6.91494
3.90826
0.972083
-1.59167
-3.56158
-4.80881
-5.29911
-5.08505
-4.29011
-3.0869
-1.67227
-0.242371
1.02951
2.0102
2.61746
2.82366
2.65275
2.17145
1.47633
0.678744
-0.110318
-0.79374
-1.29856
-1.58215
-1.63405
-1.47353
-1.14389
-0.704381
-0.221176
0.241505
0.629006
0.90184
1.03885
1.03779
0.913616
0.694721
0.418038
0.12352
-0.151148
-0.374986
-0.526848
-0.596955
-0.586835
-0.507837
-0.37855
-0.221579
-0.0601328
0.0851094
0.19847
0.270851
0.300435
0.292811
0.261076
0.226474
0.219896
0.28398
0.474969
0.862969
1.5293
2.56019
4.03722
6.02622
8.56737
11.6697
15.3118
19.4508
24.0355
29.023
34.3913
40.1441
46.3038
52.8917
59.8984
67.251
74.7834
82.2204
89.1813
95.2054
99.7991
102.497
102.931
100.886
96.3475
89.5213
80.8222
70.8403
60.2855
49.9185
40.4802
32.6261
26.8743
23.57
22.8702
24.7452
28.9972
35.2898
43.1842
52.178
61.7413
71.3471
80.4935
88.718
95.6038
100.782
103.933
104.786
103.132
98.8261
91.812
82.1349
69.9602
55.5842
39.4377
22.0773
4.16523
-13.5645
-30.349
-45.4473
-58.1936
-68.0472
-74.6358
-77.7856
-77.5376
-74.1478
-68.072
-59.9372
-50.5023
-40.6109
-31.1404
-22.9476
-16.8157
-13.4039
-13.2016
-16.4926
-23.3308
-33.5328
-46.6888
-62.1936
-79.2947
-97.1554
-114.925
-131.808
-147.128
-160.374
-171.225
-179.557
-185.428
-189.038
-190.689
-190.729
-189.503
-187.307
-184.361
-180.783
-176.589
-171.698
-165.954
-159.153
-151.073
-141.513
-130.326
-117.449
-102.921
-86.9037
-69.673
-51.6138
-33.1938
-14.9302
2.65094
19.0567
33.8673
46.7665
57.5605
66.1825
72.6823
77.206
79.9673
81.2186
81.2237
80.2381
78.4977
76.2161
73.5885
70.8012
68.0408
65.5017
63.3885
61.9112
61.2736
61.6562
63.1955
65.9645
69.9551
75.0682
81.1096
87.7933
94.7509
101.546
107.69
112.669
115.965
117.097
115.651
111.332
103.998
93.7033
80.7175
65.5311
48.8352
31.476
14.3869
-1.49777
-15.335
-26.4622
-34.4702
-39.2508
-41.0102
-40.2474
-37.6973
-34.2468
-30.8324
-28.3338
-27.4755
-28.7505
-32.3743
-38.2739
-46.1114
-55.3338
-65.2372
-75.0299
-83.8781
-90.9237
-95.2683
-95.9313
-91.7976
-81.5807
-63.8295
-37.0034
0.368479
49.4473
110.785
184.008
267.537
358.413
452.276
543.538
625.773
692.278
736.769
754.12
741.037
696.58
622.44
522.922
404.619
275.809
145.652
23.2621
-83.1956
-167.311
-225.013
-254.884
-258.17
-238.494
-201.327
-153.286
-101.352
-52.1064
-11.0641
17.812
32.3866
32.3952
19.2736
-4.18851
-34.312
-67.0448
-98.4658
-125.217
-144.822
-155.866
-158.034
-152.012
-139.293
-121.907
-102.127
-82.1881
-64.0371
-49.1604
-38.4774
-32.3149
-30.4477
-32.194
-36.5444
-42.3078
-48.2548
-53.2448
-56.3282
-56.8161
-54.319
-48.7529
-40.3196
-29.464
-16.8149
-3.1146
10.8574
24.3605
36.7641
47.6089
56.6513
63.8892
69.5639
74.1368
78.2424
82.6198
88.0295
95.1632
104.555
116.508
131.037
147.844
166.327
185.613
204.628
222.188
237.093
248.242
254.726
255.912
251.509
241.595
226.628
207.409
185.03
160.784
136.063
112.24
90.5522
71.9926
57.2251
46.5328
39.8051
36.5673
36.0496
37.2879
39.2431
40.9241
41.5002
40.3874
37.3006
32.2642
25.5847
17.7883
9.53612
1.52836
-5.587
-11.2906
-15.2435
-17.3106
-17.5569
-16.2191
-13.6633
-10.3328
-6.69757
-3.20856
-0.262615
1.82133
2.81454
2.58096
1.07209
-1.68334
-5.59278
-10.5148
-16.2743
-22.6775
-29.5255
-36.6271
-43.8084
-50.9208
-57.845
-64.4922
-70.8018
-76.7366
-82.2759
-87.4084
-92.125
-96.4138
-100.256
-103.625
-106.488
-108.809
-110.556
-111.706
-112.248
-112.194
-111.575
-110.444
-108.872
-106.944
-104.749
-102.372
-99.8863
-97.3468
-94.783
-92.1957
-89.5556
-86.8037
-83.855
-80.6045
-76.9369
-72.7384
-67.9107
-62.3852
-56.1349
-49.181
-41.5932
-33.4817
-24.9815
-16.2313
-7.34911
1.59026
10.5745
19.6648
28.9988
38.7825
49.2747
60.7628
73.5337
87.8432
103.885
121.762
141.47
162.878
185.73
209.651
234.16
258.702
282.678
305.483
326.548
345.376
361.576
374.888
385.2
392.548
397.111
399.183
399.152
397.458
394.554
390.871
386.785
382.586
378.467
374.506
370.669
366.808
362.672
357.917
352.127
344.833
335.547
323.794
309.161
291.341
270.183
245.736
218.283
188.358
156.738
124.408
92.5008
62.2164
34.7202
11.0419
-8.01988
-21.974
-30.6839
-34.3796
-33.6327
-29.297
-22.4217
-14.1477
-5.59832
2.22271
8.51571
12.7435
14.6593
14.3022
11.9642
8.13279
3.41829
-1.52604
-6.08128
-9.72962
-12.104
-13.0168
-12.4655
-10.6171
-7.77459
-4.3307
-0.714732
2.65999
5.44281
7.38126
8.3421
8.31642
7.40935
5.81654
3.79117
1.60604
-0.484209
-2.27633
-3.64345
-4.54969
-5.05366
-5.30168
-5.51245
-5.95546
-6.92583
-8.71787
-11.5997
-15.7906
-21.4427
-28.6269
-37.3251
-47.4278
-58.7374
-70.9781
-83.811
-96.8543
-109.707
-121.975
-133.292
-143.348
-151.903
-158.801
-163.986
-167.498
-169.472
-170.125
-169.724
-168.543
-166.799
-164.575
-161.725
-157.785
-151.9
-142.785
-128.753
-107.819
-77.8936
-37.0726
16.0162
81.8323
159.575
246.934
339.995
433.368
520.536
594.427
648.153
675.822
673.318
638.937
573.774
481.793
369.556
245.623
119.701
1.64307
-99.5818
-176.816
-225.424
-243.713
-233.002
-197.374
-143.119
-77.9776
-10.2682
51.9955
101.892
134.21
145.839
135.907
105.683
58.2606
-1.91954
-69.6343
-139.475
-206.4
-266.202
-315.825
-353.542
-378.962
-392.902
-397.134
-394.068
-386.392
-376.73
-367.347
-359.921
-355.424
-354.085
-355.455
-358.544
-362.012
-364.384
-364.269
-360.547
-352.512
-339.954
-323.177
-302.953
-280.417
-256.927
-233.903
-212.66
-194.257
-179.391
-168.319
-160.847
-156.365
-153.927
-152.374
-150.479
-147.088
-141.263
-132.386
-120.233
-104.99
-87.2339
-67.8549
-47.9566
-28.7275
-11.3091
3.32633
14.4743
21.7623
25.1739
25.0321
21.9459
16.7288
10.2999
3.58122
-2.59806
-7.57867
-10.9233
-12.4394
-12.1728
-10.3752
-7.45187
-3.89731
-0.226817
3.08704
5.66663
7.26482
7.7814
7.2601
5.8685
3.86492
1.55746
-0.738937
-2.742
-4.23371
-5.08079
-5.24265
-4.76711
-3.77537
-2.4392
-0.953388
0.492811
1.74228
2.69166
3.30595
3.62438
3.75703
3.87213
4.17551
4.8843
6.19818
8.27181
11.1923
14.9646
19.508
24.6624
30.206
35.8796
41.4159
46.5676
51.1332
54.9743
58.0245
60.2887
61.8327
62.7664
63.2225
63.3336
63.2106
62.926
62.5023
61.9095
61.069
59.8661
58.1684
55.8476
52.8022
48.9774
44.3801
39.0853
33.2346
27.0252
20.6934
14.4928
8.67252
3.45624
-0.97399
-4.48905
-7.01851
-8.55144
-9.13327
-8.85967
-7.86829
-6.32877
-4.43138
-2.37454
-0.351657
1.46189
2.92044
3.91725
4.38997
4.32178
3.73797
2.69868
1.28901
-0.39198
-2.24155
-4.16157
-6.0639
-7.87264
-9.52405
-10.9648
-12.1503
-13.0439
-13.6181
-13.858
-13.7663
-13.3695
-12.7223
-11.9111
-11.0531
-10.2918
-9.78853
-9.71068
-10.2182
-11.4496
-13.5087
-16.4527
-20.2832
-24.9389
-30.2907
-36.1404
-42.2233
-48.2151
-53.7469
-58.4263
-61.8664
-63.72
-63.7168
-61.6976
-57.6424
-51.6862
-44.1191
-35.3698
-25.9723
-16.5188
-7.60565
0.224199
6.53243
11.026
13.5816
14.2512
13.249
10.9207
7.70073
4.06173
0.46305
-2.69561
-5.11047
-6.5961
-7.09218
-6.65496
-5.43555
-3.6489
-1.5379
0.662285
2.75534
4.60673
6.15616
7.41879
8.47573
9.45563
10.5104
11.7888
13.411
15.4494
17.9152
20.7562
23.8629
27.0822
30.2374
33.1503
35.6619
37.6492
39.036
39.7962
39.9497
39.5529
38.6848
37.4315
35.8716
34.0644
32.0426
29.8106
27.3487
24.6222
21.5949
18.244
14.5752
10.6346
6.51513
2.35676
-1.66166
-5.33756
-8.46552
-10.8614
-12.3862
-12.9671
-12.6117
-11.4147
-9.55528
-7.28388
-4.8978
-2.70423
-0.968534
0.15328
0.696487
0.977904
1.68189
3.92271
9.25908
19.6363
37.2374
64.2375
102.475
153.069
216.045
290.022
372.033
457.539
540.664
614.655
672.53
707.849
715.498
692.393
637.995
554.543
446.978
322.542
190.089
59.2044
-60.7775
-161.72
-237.494
-284.549
-302.176
-292.457
-259.899
-210.82
-152.567
-92.67
-38.0299
5.76457
34.9198
47.6792
44.3141
26.885
-1.17814
-35.6127
-71.9014
-105.821
-133.896
-153.719
-164.106
-165.093
-157.781
-144.08
-126.377
-107.188
-88.8391
-73.1981
-61.5029
-54.2826
-51.3765
-52.0362
-55.0891
-59.1363
-62.755
-64.6814
-63.9519
-59.989
-52.6284
-42.0887
-28.896
-13.7782
2.45489
19.0247
35.2793
50.7571
65.2169
78.6314
91.151
103.047
114.641
126.24
138.072
150.252
162.756
175.429
188.007
200.154
211.505
221.719
230.51
237.684
243.145
246.901
249.047
249.742
249.181
247.564
245.07
241.832
237.93
233.38
228.148
222.155
215.299
207.476
198.596
188.603
177.484
165.275
152.063
137.987
123.228
108.007
92.5778
77.2217
62.2365
47.9264
34.5875
22.4919
11.8691
2.88994
-4.34884
-9.83329
-13.6352
-15.9072
-16.8703
-16.7952
-15.9791
-14.7203
-13.2945
-11.9338
-10.8121
-10.0372
-9.65055
-9.6344
-9.92402
-10.4241
-11.0261
-11.6247
-12.131
-12.481
-12.6398
-12.6
-12.3763
-11.9978
-11.4988
-10.9102
-10.2528
-9.53324
-8.74335
-7.86233
-6.86152
-5.71074
-4.38519
-2.87163
-1.17319
0.688175
2.67171
4.72032
6.76517
8.73161
10.5458
12.1412
13.4639
14.4768
15.1618
15.5204
15.572
15.3512
14.9041
14.2835
13.5441
12.7385
11.9131
11.1052
10.3422
9.6403
9.00614
8.438
7.92819
7.46527
7.03613
6.62745
6.22671
5.82274
5.40604
4.96902
4.50633
4.01541
3.49701
2.95572
2.40028
1.84341
1.30115
0.791661
0.333613
-0.0557567
-0.362556
-0.577912
-0.699158
-0.730346
-0.681996
-0.570114
-0.414591
-0.23718
-0.059318
0.0999428
0.22566
0.308181
0.343665
0.333933
0.285697
0.209301
0.117166
0.0221378
-0.0640564
-0.132066
-0.17577
-0.192666
-0.183771
-0.153127
-0.106978
-0.0527747
0.00186931
0.0501279
0.0867164
0.108377
0.11406
0.104818
0.0834459
0.0539449
0.020896
-0.0111743
-0.0383523
-0.0577602
-0.0678043
-0.068238
-0.0600573
-0.0452752
-0.0266562
-0.00751845
0.00827189
0.0159971
0.00940898
-0.0203047
-0.0857606
-0.204545
-0.399908
-0.700559
-1.13917
-1.74942
-2.56169
-3.59781
-4.86576
-6.35509
-8.03435
-9.85109
-11.735
-13.6042
-15.3732
-16.9632
-18.3105
-19.3748
-20.1436
-20.6339
-20.8891
-20.9747
-20.97
-20.9602
-21.0275
-21.2445
-21.6686
-22.3384
-23.2719
-24.4663
-25.8987
-27.5271
-29.292
-31.1185
-32.9183
-34.5936
-36.0414
-37.1593
-37.8529
-38.043
-37.6738
-36.7189
-35.1852
-33.1137
-30.5742
-27.6543
-24.4401
-20.987
-17.2802
-13.1838
-8.38378
-2.32988
5.81
17.1678
33.1475
55.3347
85.3343
124.538
173.841
233.332
302.021
377.645
456.61
534.11
604.446
661.524
699.48
713.378
699.865
657.694
588.041
494.541
383.039
261.064
137.099
19.7301
-83.2282
-165.501
-222.945
-253.88
-259.144
-241.855
-206.947
-160.52
-109.115
-58.9873
-15.4678
17.513
37.7055
44.6014
39.2893
24.139
2.36935
-22.4392
-46.8225
-67.8437
-83.3948
-92.3617
-94.6471
-91.0631
-83.1184
-72.7409
-61.9734
-52.6866
-46.3412
-43.8269
-45.3889
-50.645
-58.6817
-68.2102
-77.7585
-85.8707
-91.2902
-93.1047
-90.8383
-84.4845
-74.48
-61.6267
-46.9769
-31.695
-16.9177
-3.62535
7.45756
15.9263
21.7176
25.0915
26.5765
26.89
26.8426
27.2395
28.7912
32.0407
37.3166
44.7128
54.0963
65.1374
77.3589
90.1943
103.049
115.354
126.617
136.447
144.578
150.867
155.286
157.907
158.876
158.391
156.677
153.965
150.478
146.411
141.918
137.105
132.019
126.645
120.908
114.681
107.807
100.118
91.4724
81.7814
71.0416
59.3538
46.9323
34.0984
21.2605
8.87983
-2.57124
-12.6554
-21.0141
-27.403
-31.7159
-33.9927
-34.4124
-33.2714
-30.9501
-27.8738
-24.4697
-21.1283
-18.1701
-15.8219
-14.2044
-13.3306
-13.1142
-13.3881
-13.9276
-14.4793
-14.7904
-14.6371
-13.8481
-12.3227
-10.0395
-7.05705
-3.50517
0.431973
4.53803
8.58987
12.3827
15.7516
18.5876
20.8449
22.5397
23.7411
24.555
25.1031
25.5023
25.845
26.185
26.53
26.842
27.0453
27.0399
26.7196
25.9895
24.7835
23.0755
20.887
18.2869
15.3857
12.3244
9.26013
6.35032
3.73696
1.53351
-0.184597
-1.38498
-2.07847
-2.31477
-2.17445
-1.75842
-1.17616
-0.534263
0.0736501
0.574591
0.920821
1.09123
1.08956
0.939911
0.68011
0.353611
0.000863779
-0.349052
-0.685527
-1.02135
-1.39462
-1.86716
-2.51911
-3.44023
-4.7186
-6.42809
-8.61616
-11.2938
-14.4291
-17.9454
-21.7253
-25.6193
-29.4589
-33.0724
-36.3002
-39.0089
-41.0997
-42.5127
-43.2235
-43.2356
-42.569
-41.2467
-39.2842
-36.6819
-33.4229
-29.4787
-24.8191
-19.4281
-13.3204
-6.55816
0.738192
8.3846
16.1375
23.7067
30.7762
37.0307
42.1846
46.0097
48.3581
49.1768
48.5128
46.5078
43.3823
39.4132
34.905
30.1614
25.4575
21.0177
17.0004
13.4914
10.5056
7.9957
5.86773
3.9997
2.26198
0.536636
-1.26615
-3.19629
-5.25758
-7.40752
-9.56276
-11.6095
-13.4173
-14.8549
-15.8063
-16.1841
-15.9409
-15.0751
-13.6322
-11.7016
-9.40803
-6.90142
-4.34408
-1.89837
0.284687
2.07464
3.36833
4.09404
4.21323
3.72018
2.63985
1.02436
-1.05193
-3.49829
-6.21438
-9.09742
-12.0492
-14.9824
-17.8251
-20.5233
-23.041
-25.357
-27.4606
-29.3445
-30.9984
-32.4024
-33.5224
-34.3062
-34.6806
-34.5459
-33.765
-32.1416
-29.3871
-25.0742
-18.5859
-9.07015
4.58098
23.709
49.8059
84.3596
128.631
183.378
248.56
323.072
404.55
489.31
572.459
648.192
710.268
752.631
770.092
759.005
717.822
647.443
551.312
435.204
306.737
174.654
47.9573
-64.9985
-157.334
-224.304
-263.697
-275.952
-263.961
-232.623
-188.189
-137.497
-87.1985
-43.0566
-9.40354
11.1949
18.0422
12.1879
-3.88799
-26.7284
-52.4246
-77.1425
-97.5875
-111.355
-117.138
-114.774
-105.149
-89.9795
-71.5101
-52.1783
-34.2885
-19.7365
-9.81424
-5.1121
-5.52099
-10.3235
-18.3523
-28.1879
-38.3643
-47.5543
-54.7126
-59.1632
-60.6268
-59.1949
-55.26
-49.4212
-42.3775
-34.8281
-27.3885
-20.5298
-14.5461
-9.54617
-5.46872
-2.11395
0.812989
3.65376
6.74905
10.3964
14.8178
20.1389
26.3822
33.4728
41.2556
49.5212
58.0354
66.5701
74.9295
82.9701
90.6108
97.8337
104.676
111.212
117.535
123.737
129.881
135.99
142.035
147.923
153.501
158.561
162.848
166.079
167.956
168.19
166.528
162.767
156.786
148.557
138.163
125.802
111.787
96.5335
80.5412
64.3665
48.5883
33.7709
20.4259
8.97788
-0.26413
-7.12552
-11.5743
-13.7178
-13.7883
-12.1199
-9.11891
-5.23086
-0.907094
3.42606
7.3937
10.6925
13.104
14.5001
14.842
14.1725
12.6028
10.2959
7.44722
4.26499
0.951761
-2.31145
-5.37702
-8.13797
-10.5304
-12.5313
-14.1529
-15.4342
-16.4315
-17.2082
-17.8267
-18.3411
-18.7931
-19.2095
-19.6026
-19.9718
-20.3069
-20.5914
-20.806
-20.9315
-20.9513
-20.8528
-20.6281
-20.2742
-19.7932
-19.191
-18.4776
-17.6659
-16.7713
-15.8111
-14.8036
-13.7673
-12.7201
-11.6785
-10.6568
-9.66667
-8.71649
-7.81143
-6.95357
-6.14239
-5.37546
-4.64939
-3.9609
-3.30773
-2.68959
-2.1086
-1.56953
-1.07947
-0.647119
-0.281648
0.00868434
0.218003
0.344158
0.389704
0.362347
0.274744
0.143651
-0.0114823
-0.170266
-0.313153
-0.422903
-0.485362
-0.489288
-0.42518
-0.283335
-0.0516938
0.285769
0.749297
1.36162
2.14404
3.11051
4.26073
5.57321
6.99995
8.46399
9.86089
11.0647
11.938
12.3456
12.1699
11.3263
9.77693
7.54042
4.6966
1.38506
-2.20279
-5.83774
-9.27184
-12.2608
-14.5872
-16.0827
-16.645
-16.25
-14.9543
-12.8908
-10.255
-7.28533
-4.23855
-1.36419
1.12004
3.0486
4.32212
4.91383
4.86804
4.29118
3.3369
2.1873
1.03253
0.0513489
-0.605295
-0.825955
-0.544737
0.25845
1.56288
3.31605
5.44525
7.8699
10.5131
13.3107
16.2169
19.2053
22.2657
25.3958
28.5908
31.8306
35.0687
38.2244
41.18
43.7851
45.8678
47.2515
47.7757
47.3169
45.8081
43.2523
39.7288
35.3904
30.4528
25.1757
19.8399
14.7211
10.0655
6.06896
2.86189
0.501955
-1.02549
-1.79978
-1.95144
-1.64482
-1.05921
-0.370195
0.267443
0.73576
0.970427
0.981746
0.883759
0.934152
1.58428
3.53329
7.7739
15.6117
28.6365
48.6262
77.3708
116.417
166.754
228.472
300.46
380.188
463.651
545.515
619.477
678.828
717.169
729.186
711.377
662.632
584.561
481.512
360.26
229.38
98.402
-23.181
-126.898
-206.175
-256.979
-278.159
-271.455
-241.173
-193.586
-136.136
-76.5606
-22.0257
21.6074
50.3188
62.2115
57.5279
38.4159
8.49554
-27.7071
-65.3791
-100.014
-127.909
-146.523
-154.646
-152.406
-141.106
-122.933
-100.598
-76.9499
-54.6077
-35.6721
-21.5277
-12.7577
-9.16908
-9.91158
-13.6659
-18.8692
-23.9463
-27.5145
-28.5417
-26.4409
-21.0974
-12.8322
-2.31419
9.56378
21.8243
33.542
43.9604
52.5771
59.1879
63.8905
67.0477
69.2203
71.0785
73.3049
76.5023
81.1154
87.3773
95.2841
104.6
114.887
125.564
135.968
145.432
153.35
159.235
162.757
163.761
162.264
158.433
152.549
144.96
136.039
126.142
115.579
104.597
93.3786
82.0545
70.7229
59.473
48.4059
37.6488
27.3584
17.7136
8.89758
1.07474
-5.63499
-11.178
-15.5812
-18.9557
-21.4878
-23.4199
-25.0216
-26.5562
-28.2471
-30.2483
-32.6229
-35.3333
-38.2441
-41.137
-43.7372
-45.7465
-46.88
-46.9026
-45.6587
-43.0951
-39.271
-34.3566
-28.6193
-22.3998
-16.0805
-10.05
-4.66806
-0.233689
3.0394
5.03884
5.75955
5.29967
3.84759
1.6615
-0.956044
-3.68628
-6.22232
-8.29493
-9.69376
-10.2825
-10.0069
-8.89537
-7.05259
-4.64664
-1.89167
0.972437
3.70138
6.06675
7.87359
8.974
9.27596
8.74731
7.41538
5.36302
2.72192
-0.335978
-3.60859
-6.87492
-9.90753
-12.4859
-14.4107
-15.5179
-15.6933
-14.8842
-13.1092
-10.4636
-7.11935
-3.31874
0.638547
4.41545
7.66387
10.056
11.3182
11.264
9.82179
7.05271
3.15494
-1.5481
-6.63575
-11.6319
-16.0559
-19.4761
-21.5598
-22.1108
-21.0924
-18.63
-14.9945
-10.5685
-5.80072
-1.15278
2.9522
6.17467
8.29136
9.21245
8.98203
7.76291
5.80872
3.42751
0.942041
-1.34839
-3.19989
-4.44662
-5.01205
-4.90859
-4.22676
-3.11602
-1.76062
-0.353646
0.927231
1.93965
2.59003
2.83971
2.70362
2.24269
1.5512
0.741576
-0.0715632
-0.785842
-1.32252
-1.63371
-1.70501
-1.55364
-1.22285
-0.773731
-0.275582
0.20362
0.605617
0.888129
1.02844
1.02416
0.891327
0.660444
0.371137
0.0663296
-0.213201
-0.43312
-0.568163
-0.60288
-0.530677
-0.351634
-0.0698106
0.309196
0.779805
1.33673
1.97391
2.68237
3.44755
4.2469
5.04857
5.81206
6.49152
7.04197
7.42784
7.63299
7.66998
7.58672
7.46788
7.42967
7.6072
8.13533
9.12508
10.6392
12.6714
15.1325
17.8485
20.5703
22.997
24.8082
25.7036
25.443
23.8812
20.9942
16.8907
11.8088
6.0956
0.173869
-5.50194
-10.4946
-14.4325
-17.0512
-18.2237
-17.9753
-16.48
-14.04
-11.0476
-7.93655
-5.12636
-2.96825
-1.6992
-1.41039
-2.0339
-3.34825
-4.99982
-6.53381
-7.42597
-7.10631
-4.96752
-0.355788
7.45209
19.2745
36.0367
58.7498
88.4396
126.015
172.081
226.708
289.196
357.87
429.961
501.61
568.03
623.842
663.546
682.107
675.572
641.635
580.069
492.95
384.627
261.423
131.087
2.071
-117.299
-219.645
-299.255
-352.608
-378.649
-378.776
-356.566
-317.269
-267.144
-212.732
-160.146
-114.463
-79.2878
-56.519
-46.3343
-47.3771
-57.1036
-72.2361
-89.2576
-104.884
-116.459
-122.229
-121.475
-114.501
-102.489
-87.2569
-70.9476
-55.7103
-43.4012
-35.3466
-32.1941
-33.8624
-39.5899
-48.0701
-57.6485
-66.5532
-73.1272
-76.0334
-74.4062
-67.9374
-56.8855
-42.0146
-24.474
-5.63577
13.0851
30.4056
45.3222
57.2141
65.8913
71.5855
74.8883
76.6486
77.8448
79.451
82.3152
87.0637
94.0426
103.3
114.605
127.503
141.388
155.585
169.429
182.331
193.826
203.586
211.425
217.269
221.122
223.025
223.02
221.12
217.307
211.53
203.733
193.882
182.005
168.22
152.755
135.961
118.294
100.296
82.5511
65.639
50.0886
36.3327
24.6754
15.2731
8.13009
3.11078
-0.0363501
-1.64504
-2.09299
-1.76346
-1.01095
-0.134195
0.641495
1.17173
1.39092
1.30209
0.960819
0.456092
-0.109394
-0.637024
-1.04636
-1.2844
-1.32958
-1.1909
-0.902854
-0.517604
-0.0957178
0.303109
0.628094
0.843274
0.93076
0.89123
0.741907
0.512592
0.240477
-0.0354482
-0.279623
-0.464149
-0.57158
-0.596078
-0.542961
-0.426864
-0.26891
-0.0933507
0.0758419
0.217985
0.317962
0.367556
0.365766
0.318181
0.235576
0.132017
0.0227328
-0.0779247
-0.158198
-0.210134
-0.230183
-0.219185
-0.181797
-0.125507
-0.0593901
0.00719992
0.0658394
0.109995
0.135647
0.141528
0.128992
0.101567
0.0642786
0.0228614
-0.0170382
-0.0505637
-0.0741747
-0.0859533
-0.0856734
-0.0746492
-0.0554072
-0.0312392
-0.00570751
0.0178321
0.0366304
0.0488264
0.0535868
0.0511022
0.0424537
0.0293804
0.013977
-0.00166046
-0.0158615
-0.0279495
-0.0390626
-0.053339
-0.079513
-0.132855
-0.237245
-0.427075
-0.748627
-1.26058
-2.03337
-3.14705
-4.68747
-6.74062
-9.38503
-12.6828
-16.6698
-21.3463
-26.6695
-32.549
-38.8472
-45.3841
-51.9484
-58.3113
-64.2456
-69.5436
-74.0357
-77.6052
-80.1984
-81.8287
-82.5743
-82.5702
-81.9946
-81.0521
-79.9546
-78.9024
-78.0674
-77.5789
-77.5137
-77.8921
-78.6777
-79.7833
-81.0802
-82.4115
-83.6072
-84.5001
-84.9399
-84.8047
-84.0084
-82.502
-80.2694
-77.3183
-73.6684
-69.3383
-64.3345
-58.6453
-52.2409
-45.08
-37.1235
-28.3514
-18.7815
-8.48532
2.40112
13.6755
25.0762
36.2993
47.0222
56.9331
65.7597
73.2965
79.4237
84.1185
87.4544
89.5915
90.7563
91.2162
91.2497
91.1169
91.0333
91.1496
91.5389
92.1922
93.0225
93.8752
94.5447
94.7929
94.3703
93.0371
90.5833
86.8475
81.7348
75.2299
67.4073
58.4351
48.5706
38.1482
27.5584
17.2191
7.54262
-1.09995
-8.41128
-14.1944
-18.3697
-20.98
-22.1837
-22.2358
-21.4617
-20.2247
-18.8949
-17.8215
-17.3122
-17.6219
-18.9488
-21.4358
-25.1708
-30.1805
-36.4102
-43.6868
-51.6627
-59.7471
-67.0353
-72.2542
-73.7447
-69.5046
-57.3068
-34.9027
-0.30051
47.903
110.178
185.755
272.407
366.382
462.51
554.52
635.531
698.703
737.955
748.682
728.356
676.936
597.017
493.681
374.062
246.668
120.54
4.34302
-94.4846
-170.438
-220.42
-243.93
-242.96
-221.622
-185.563
-141.238
-95.1582
-53.1771
-19.9171
1.61812
10.2095
6.36569
-7.93051
-29.6252
-55.0841
-80.6046
-102.884
-119.395
-128.622
-130.158
-124.649
-113.61
-99.1489
-83.6469
-69.4205
-58.4277
-52.0401
-50.9077
-54.9237
-63.2878
-74.6489
-87.3069
-99.4413
-109.339
-115.59
-117.239
-113.866
-105.604
-93.09
-77.3654
-59.7357
-41.6143
-24.3659
-9.16913
3.08946
11.8806
17.0524
18.8087
17.6503
14.2911
9.55942
4.29906
-0.719488
-4.8669
-7.69629
-8.95577
-8.57472
-6.62969
-3.29873
1.18633
6.58085
12.6548
19.2035
26.0415
32.9841
39.8222
46.2994
52.0972
56.8355
60.0915
61.4345
60.4747
56.9172
50.6134
41.6013
30.1275
16.6463
1.79557
-13.6477
-28.8278
-42.879
-54.9959
-64.4976
-70.8819
-73.8627
-73.3904
-69.6521
-63.053
-54.1803
-43.7521
-32.557
-21.3888
-10.9821
-1.95529
5.23405
10.3177
13.2263
14.0802
13.1622
10.8772
7.70258
4.13455
0.638059
-2.39648
-4.68449
-6.0644
-6.50001
-6.06901
-4.94013
-3.34274
-1.53283
0.240189
1.7622
2.87577
3.49232
3.59482
3.23153
2.50259
1.54177
0.496224
-0.493181
-1.30859
-1.86717
-2.12748
-2.09006
-1.79264
-1.30139
-0.699503
-0.0749142
0.491217
0.933935
1.21086
1.30507
1.22445
0.998008
0.669988
0.292638
-0.081207
-0.404827
-0.642835
-0.774412
-0.794364
-0.712099
-0.548889
-0.333919
-0.0997743
0.12202
0.304857
0.429864
0.487461
0.477568
0.408609
0.295543
0.157289
0.0139255
-0.115964
-0.217465
-0.280822
-0.302113
-0.283129
-0.230535
-0.154519
-0.0671315
0.019424
0.0943465
0.149445
0.179893
0.184477
0.165366
0.127481
0.0775805
0.023218
-0.0282941
-0.0707784
-0.0998488
-0.113273
-0.111022
-0.0950452
-0.0688082
-0.0367011
-0.00338598
0.0268182
0.0504424
0.0652133
0.070213
0.0658498
0.0536666
0.0360262
0.015727
-0.00439547
-0.0218287
-0.0346652
-0.0417785
-0.0428813
-0.0384731
-0.0296935
-0.0181109
-0.00547987
0.00649943
0.0163894
0.0231677
0.0263122
0.0258131
0.02212
0.0160366
0.00858187
0.000839107
-0.00618716
-0.0116892
-0.0151367
-0.0163142
-0.0153146
-0.0124947
-0.00840251
-0.00368781
0.000991258
0.00505817
0.00811162
0.0100604
0.0113836
0.0136453
0.0204093
0.0386439
0.0805729
0.165722
0.322689
0.590005
1.01543
1.65317
2.55891
3.78279
5.36131
7.30911
9.61203
12.2228
15.0601
18.0125
20.9454
23.7122
26.1677
28.1825
29.657
30.5334
30.8049
30.5203
29.7833
28.7468
27.601
26.5572
25.8285
25.608
26.0487
27.2448
29.2189
31.9141
35.1947
38.8537
42.628
46.2199
49.3228
51.6485
52.9549
53.0685
51.9021
49.4634
45.8547
41.2625
35.939
30.1767
24.279
18.5309
13.1719
8.3754
4.23587
0.764997
-2.10274
-4.4971
-6.59379
-8.59398
-10.7049
-13.1242
-16.0312
-19.5842
-23.9265
-29.1966
-35.5422
-43.1319
-52.1602
-62.8423
-75.393
-89.9913
-106.732
-125.568
-146.259
-168.319
-190.992
-213.237
-233.747
-250.985
-263.246
-268.735
-265.659
-252.333
-227.305
-189.492
-138.338
-73.9833
2.56893
89.3152
183.17
279.981
374.676
461.544
534.669
588.463
618.256
620.869
595.078
541.911
464.698
368.873
261.522
150.72
44.741
-48.763
-123.528
-175.281
-202.113
-204.588
-185.572
-149.819
-103.362
-52.8024
-4.56874
35.7518
63.9499
77.5373
75.8739
60.0789
32.7527
-2.44313
-41.2891
-79.5281
-113.343
-139.742
-156.808
-163.811
-161.169
-150.281
-133.269
-112.662
-91.0634
-70.8531
-53.9392
-41.5969
-34.3979
-32.2303
-34.3971
-39.7722
-46.9895
-54.6379
-61.4386
-66.3835
-68.8246
-68.5064
-65.5455
-60.3647
-53.5953
-45.9623
-38.1701
-30.8019
-24.2455
-18.6539
-13.9417
-9.81699
-5.84159
-1.50959
3.6671
10.0784
17.9514
27.3101
37.9631
49.5206
61.4373
73.0745
83.7728
92.9261
100.047
104.818
107.114
107.015
104.776
100.797
95.562
89.5819
83.3339
77.2091
71.4755
66.2561
61.5279
57.1371
52.8297
48.2917
43.1942
37.2383
30.1944
21.9323
12.4388
1.82263
-9.69394
-21.7955
-34.1024
-46.2055
-57.7028
-68.2327
-77.5028
-85.3088
-91.544
-96.1968
-99.3393
-101.107
-101.672
-101.218
-99.9118
-97.8809
-95.2004
-91.8873
-87.9068
-83.1887
-77.6521
-71.2349
-63.9233
-55.7769
-46.944
-37.6645
-28.2593
-19.1052
-10.6008
-3.12549
3.00186
7.55877
10.4453
11.6962
11.4783
10.0717
7.83976
5.18962
2.52905
0.225441
-1.42878
-2.24008
-2.12481
-1.10671
0.697844
3.10383
5.88691
8.8134
11.6668
14.2675
16.4834
18.232
19.4738
20.2014
20.4252
20.1607
19.4189
18.2023
16.5075
14.3323
11.6874
8.60944
5.17257
1.49554
-2.25716
-5.88183
-9.14959
-11.8265
-13.6977
-14.5922
-14.405
-13.1139
-10.7872
-7.58247
-3.73395
0.467864
4.70422
8.65926
12.051
14.6585
16.3413
17.0506
16.8285
15.7987
14.1473
12.0991
9.89007
7.74125
5.83638
4.30587
3.21846
2.58114
2.34624
2.42431
2.70017
3.0499
3.35609
3.51973
3.46749
3.15411
2.56053
1.68873
0.554896
-0.817856
-2.40574
-4.18897
-6.15437
-8.29613
-10.6149
-13.1158
-15.8054
-18.6876
-21.7598
-25.0072
-28.3979
-31.877
-35.3634
-38.7468
-41.8901
-44.6337
-46.806
-48.2367
-48.7729
-48.2973
-46.7439
-44.1112
-40.4695
-35.9612
-30.7931
-25.2223
-19.5352
-14.0235
-8.95898
-4.56988
-1.02202
1.59405
3.26821
4.06816
4.12938
3.63896
2.81494
1.88348
1.05607
0.509178
0.368515
0.699479
1.50493
2.73041
4.27613
6.01412
7.80825
9.53442
11.0981
12.4466
13.5746
14.5221
15.3637
16.1935
17.105
18.1708
19.4247
20.8495
22.3725
23.8692
25.1758
26.1085
26.4865
26.1563
25.0127
23.0144
20.1904
16.6387
12.5151
8.01725
3.36466
-1.21962
-5.52309
-9.35085
-12.5247
-14.8759
-16.2349
-16.4232
-15.2515
-12.5294
-8.08727
-1.80949
6.32464
16.2003
27.535
39.864
52.5508
64.8286
75.8732
84.9042
91.3047
94.7482
95.3133
93.568
90.6069
88.0255
87.8245
92.2426
103.529
123.67
154.097
195.412
247.149
307.635
373.953
442.052
506.999
563.384
605.818
629.504
630.802
607.711
560.209
490.384
402.343
301.877
195.927
91.9103
-3.01751
-82.6759
-142.458
-179.747
-194.107
-187.221
-162.608
-125.148
-80.4836
-34.3742
7.91733
42.1404
65.4187
76.429
75.3891
63.8721
44.4829
20.4469
-4.83252
-28.1935
-47.063
-59.6996
-65.3104
-64.0426
-56.862
-45.3444
-31.4152
-17.0725
-4.13165
5.98232
12.371
14.72
13.2777
8.76595
2.24207
-5.06776
-11.9386
-17.3005
-20.3588
-20.6695
-18.1669
-13.1426
-6.18452
1.91436
10.2651
17.9966
24.3621
28.8276
31.1343
31.3307
29.7702
27.076
24.0762
21.714
20.9438
22.6208
27.3981
35.6404
47.3656
62.222
79.5028
98.2001
117.091
134.852
150.178
161.916
169.168
171.383
168.404
160.482
148.242
132.618
114.75
95.8715
77.1858
59.748
44.3704
31.5556
21.4659
13.9325
8.5004
4.50603
1.17577
-2.26572
-6.49073
-11.98
-18.9612
-27.3821
-36.9201
-47.0287
-57.0123
-66.1202
-73.6482
-79.0327
-81.9269
-82.2474
-80.1864
-76.1873
-70.8875
-65.0367
-59.4012
-54.668
-51.3614
-49.7822
-49.9777
-51.7442
-54.662
-58.1544
-61.5654
-64.2417
-65.6118
-65.2498
-62.9188
-58.5884
-52.4269
-44.7701
-36.073
-26.8514
-17.622
-8.8487
-0.901133
5.97038
11.6421
16.108
19.4578
21.8469
23.4633
24.4969
25.1143
25.4425
25.5622
25.5093
25.2846
24.8672
24.2306
23.3567
22.2476
20.9324
19.4685
17.9375
16.4377
15.0723
13.9379
13.1117
12.6427
12.5446
12.7939
13.3313
14.0678
14.8933
15.688
16.3337
16.7254
16.7811
16.4491
15.7118
14.587
13.1247
11.4019
9.51448
7.56814
5.66852
3.91213
2.37846
1.12426
0.180163
-0.449824
-0.786424
-0.870872
-0.759092
-0.514936
-0.203257
0.116432
0.395119
0.597808
0.705167
0.713325
0.631996
0.481343
0.288048
0.0811231
-0.112015
-0.268797
-0.373755
-0.419649
-0.407436
-0.345251
-0.246629
-0.128298
-0.00786676
0.0983114
0.176891
0.218782
0.219863
0.181153
0.108475
0.0116403
-0.096799
-0.203124
-0.294207
-0.359219
-0.391039
-0.387124
-0.349662
-0.284994
-0.202396
-0.112462
-0.0254047
0.0504347
0.10961
0.149991
0.172567
0.180695
0.178952
0.171702
0.161557
0.147836
0.125175
0.0824534
0.00222254
-0.139184
-0.370693
-0.724609
-1.23382
-1.92825
-2.8308
-3.95324
-5.29241
-6.82738
-8.51789
-10.3046
-12.1109
-13.8473
-15.4162
-16.7186
-17.6609
-18.1608
-18.1534
-17.5953
-16.469
-14.7855
-12.5886
-9.95788
-7.01255
-3.91273
-0.857849
1.92005
4.16915
5.63683
6.09334
5.35777
3.32251
-0.0272321
-4.60257
-10.2107
-16.5665
-23.3141
-30.0571
-36.3932
-41.9482
-46.4074
-49.5392
-51.2101
-51.3899
-50.148
-47.6411
-44.0955
-39.7856
-35.0116
-30.0772
-25.2709
-20.8496
-17.0268
-13.963
-11.7573
-10.4353
-9.93061
-10.0561
-10.4633
-10.5941
-9.63342
-6.47724
0.265778
12.2209
31.1287
58.6575
96.1558
144.367
203.147
271.222
346.052
423.823
499.619
567.766
622.335
657.758
669.478
654.551
612.116
543.651
452.972
345.961
230.034
113.426
4.36447
-89.7674
-163.166
-212.164
-235.53
-234.498
-212.516
-174.756
-127.463
-77.2091
-30.1679
8.52954
35.2684
48.2176
47.3707
34.3724
12.1655
-15.4842
-44.521
-71.1221
-92.1487
-105.477
-110.179
-106.544
-95.9454
-80.5894
-63.1769
-46.5306
-33.2331
-25.3208
-24.0638
-29.852
-42.1923
-59.8068
-80.8135
-102.963
-123.897
-141.408
-153.662
-159.371
-157.904
-149.314
-134.312
-114.157
-90.5126
-65.2625
-40.3188
-17.4359
1.94748
16.8262
26.6951
31.561
31.902
28.5818
22.7302
15.6061
8.45797
2.39824
-1.69541
-3.24331
-1.98708
2.02566
8.48892
16.9086
26.6838
37.1857
47.8255
58.1016
67.6236
76.113
83.3849
89.3162
93.8095
96.7597
98.0302
97.4451
94.7984
89.881
82.5228
72.6427
60.3003
45.7384
29.4093
11.9768
-5.70963
-22.6697
-37.8708
-50.3246
-59.1885
-63.8616
-64.0612
-59.8686
-51.7378
-40.463
-27.1077
-12.9022
0.877945
13.039
22.5869
28.8209
31.3948
30.3367
26.0292
19.1517
10.5949
1.35788
-7.55861
-15.2515
-20.9956
-24.2992
-24.93
-22.9132
-18.5045
-12.1443
-4.40046
4.09225
12.6901
20.7891
27.8623
33.4839
37.3407
39.2343
39.0747
36.8708
32.7184
26.788
19.3137
10.5834
0.929991
-9.27709
-19.6396
-29.7393
-39.1485
-47.4426
-54.2161
-59.103
-61.8005
-62.0954
-59.8901
-55.2262
-48.2987
-39.4597
-29.2062
-18.1517
-6.98244
3.5989
12.9364
20.4833
25.8563
28.8751
29.5803
28.2283
25.2623
21.2639
16.8895
12.8008
9.59666
7.75451
7.58793
9.22355
12.5992
17.482
23.5024
30.1997
37.0734
43.6336
49.4461
54.1678
57.5692
59.5432
60.1005
59.3542
57.4948
54.7613
51.4113
47.6928
43.8226
39.9706
36.2529
32.7317
29.4227
26.3061
23.341
20.4803
17.6838
14.9282
12.2136
9.56489
7.02918
4.66923
2.55471
0.752215
-0.684358
-1.72175
-2.35264
-2.59755
-2.50343
-2.13901
-1.58773
-0.939234
-0.280466
0.312481
0.780885
1.08758
1.21848
1.18148
1.00298
0.722736
0.387702
0.045687
-0.260399
-0.497106
-0.643381
-0.691705
-0.647474
-0.526885
-0.353733
-0.155639
0.0397853
0.208355
0.331927
0.39999
0.410134
0.367459
0.283123
0.172283
0.0517684
-0.0622105
-0.156023
-0.220056
-0.249523
-0.244673
-0.210566
-0.156712
-0.0969289
-0.0497345
-0.0394563
-0.0979972
-0.266962
-0.599652
-1.16237
-2.03446
-3.30681
-5.07841
-7.45123
-10.5234
-14.3818
-19.094
-24.7012
-31.2134
-38.6062
-46.8197
-55.7593
-65.2971
-75.2729
-85.495
-95.7412
-105.759
-115.27
-123.974
-131.56
-137.721
-142.167
-144.648
-144.971
-143.023
-138.785
-132.342
-123.891
-113.735
-102.271
-89.9694
-77.3439
-64.9217
-53.2093
-42.6619
-33.6602
-26.4936
-21.3528
-18.3271
-17.4022
-18.4535
-21.2275
-25.3086
-30.0724
-34.6312
-37.7854
-38.0014
-33.4349
-22.0229
-1.65426
29.5803
73.0752
129.37
197.831
276.416
361.578
448.354
530.664
601.817
655.162
684.838
686.5
657.939
599.485
514.136
407.381
286.711
160.895
39.0881
-70.1029
-159.497
-224.038
-261.242
-271.348
-257.147
-223.55
-176.931
-124.346
-72.7312
-28.1619
4.72813
23.1253
26.1733
14.8759
-8.20539
-39.4056
-74.4951
-109.231
-139.855
-163.483
-178.345
-183.875
-180.636
-170.12
-154.458
-136.083
-117.391
-100.45
-86.7807
-77.2329
-71.9614
-70.4942
-71.8731
-74.8406
-78.0447
-80.2324
-80.4083
-77.9426
-72.6197
-64.6287
-54.5027
-43.0217
-31.0939
-19.6339
-9.45236
-1.17035
4.83531
8.45103
9.81238
9.2621
7.28836
4.45302
1.3195
-1.61101
-3.94833
-5.44312
-5.9962
-5.64894
-4.55793
-2.95899
-1.12616
0.668733
2.19106
3.26925
3.8095
3.79873
3.297
2.42136
1.32439
0.170639
-0.88579
-1.71985
-2.24833
-2.43593
-2.29459
-1.87684
-1.2648
-0.556533
0.148083
0.760217
1.21216
1.46363
1.50399
1.35038
1.04265
0.63588
0.191832
-0.229574
-0.577612
-0.816177
-0.926784
-0.909028
-0.778723
-0.564184
-0.301334
-0.0283764
0.219261
0.413091
0.534421
0.575663
0.540113
0.440384
0.295826
0.129379
-0.035695
-0.178775
-0.284192
-0.342681
-0.351861
-0.315809
-0.243857
-0.148867
-0.0452307
0.0530971
0.134311
0.190013
0.215902
0.211886
0.181645
0.131766
0.0706079
0.00706007
-0.05063
-0.0958276
-0.124174
-0.133891
-0.125736
-0.102631
-0.0690692
-0.0303826
0.00801876
0.0413372
0.065935
0.0797024
0.0822596
0.0750545
0.0614548
0.0469347
0.0394094
0.0496905
0.0919417
0.18394
0.346928
0.604896
0.983239
1.5069
2.19826
3.07506
4.14879
5.42373
6.8968
8.55812
10.3921
12.3787
14.4945
16.7132
19.0061
21.341
23.682
25.9885
28.2146
30.3102
32.2223
33.8976
35.2864
36.3458
37.0439
37.3623
37.2973
36.8606
36.077
34.9818
33.6166
32.0259
30.2526
28.3357
26.3087
24.1988
22.0289
19.8187
17.5877
15.357
13.1518
11.0019
8.94118
7.00672
5.23574
3.66254
2.31493
1.21096
0.356386
-0.256739
-0.650157
-0.857976
-0.923866
-0.897108
-0.827923
-0.762668
-0.739554
-0.785498
-0.914601
-1.12851
-1.41865
-1.77012
-2.16655
-2.59522
-3.05137
-3.54051
-4.07798
-4.68518
-5.38263
-6.18088
-7.0707
-8.01459
-8.94165
-9.74737
-10.2997
-10.4516
-10.0588
-9.00242
-7.21093
-4.68072
-1.48926
2.20118
6.1515
10.0656
13.6203
16.5012
18.4402
19.2497
18.8469
17.2669
14.6602
11.2762
7.43483
3.48878
-0.21789
-3.38958
-5.81278
-7.3791
-8.09475
-8.07542
-7.52697
-6.71457
-5.9241
-5.42107
-5.4125
-6.01703
-7.24787
-9.01125
-11.1215
-13.331
-15.3725
-17.006
-18.0663
-18.501
-18.3935
-17.9673
-17.5673
-17.6224
-18.5917
-20.9044
-24.8999
-30.7785
-38.5698
-48.1219
-59.1153
-71.0962
-83.5261
-95.8398
-107.502
-118.06
-127.177
-134.652
-140.426
-144.557
-147.198
-148.556
-148.853
-148.286
-146.997
-145.047
-142.403
-138.928
-134.375
-128.377
-120.44
-109.929
-96.0552
-77.8867
-54.3727
-24.4129
13.0311
58.7769
113.228
176.164
246.549
322.384
400.663
477.436
548.024
607.37
650.506
673.091
671.947
645.526
594.229
520.526
428.841
325.204
216.709
110.83
14.6847
-65.6665
-125.799
-163.314
-177.998
-171.731
-148.177
-112.285
-69.689
-26.0579
13.5
44.9327
65.5782
74.3145
71.5206
58.8701
38.9964
15.0795
-9.58881
-32.0073
-49.7915
-61.391
-66.1833
-64.4453
-57.2182
-46.0936
-32.9546
-19.7093
-8.04962
0.736957
5.88449
7.18783
4.96702
-0.030694
-6.77224
-14.1011
-20.8977
-26.2177
-29.3934
-30.0875
-28.3002
-24.3304
-18.7034
-12.0753
-5.13039
1.51665
7.40134
12.2646
16.0782
19.0385
21.5331
24.0831
27.2704
31.6589
37.7178
45.7576
55.884
67.9777
81.6995
96.5216
111.779
126.739
140.668
152.909
162.932
170.38
175.085
177.067
176.503
173.695
169.013
162.848
155.561
147.449
138.721
129.494
119.799
109.606
98.8506
87.4667
75.4164
62.7137
49.4391
35.7431
21.839
7.98647
-5.53194
-18.4378
-30.4836
-41.4759
-51.2925
-59.8899
-67.3033
-73.6357
-79.0408
-83.7
-87.7977
-91.4969
-94.9193
-98.1311
-101.137
-103.885
-106.27
-108.16
-109.409
-109.883
-109.478
-108.139
-105.864
-102.715
-98.8045
-94.2891
-89.3523
-84.1859
-78.9711
-73.8623
-68.9748
-64.3771
-60.0896
-56.0883
-52.3135
-48.6813
-45.0975
-41.4713
-37.7284
-33.8214
-29.7375
-25.5013
-21.1751
-16.853
-12.653
-8.70527
-5.1394
-2.07093
0.410638
2.25128
3.43827
4.00173
4.01168
3.57104
2.80547
1.85114
0.841985
-0.102213
-0.885545
-1.44253
-1.74088
-1.78036
-1.58811
-1.2112
-0.707617
-0.136924
0.448082
1.00763
1.51844
1.97409
2.38247
2.76101
3.13053
3.50892
3.90567
4.31821
4.73064
5.11517
5.43607
5.65564
5.74152
5.67438
5.4549
5.10918
4.69165
4.28492
3.99637
3.95146
4.28448
5.12764
6.59966
8.79534
11.7772
15.5699
20.1579
25.4862
31.4623
37.96
44.823
51.8681
58.8876
65.6526
71.9166
77.4229
81.9143
85.1471
86.9088
87.0371
85.4381
82.1019
77.1117
70.6455
62.9688
54.4191
45.3824
36.266
27.4678
19.3471
12.1999
6.23956
1.58538
-1.7394
-3.80181
-4.7457
-4.77254
-4.11881
-3.03232
-1.74977
-0.477806
0.621157
1.43715
1.91484
2.05003
1.88145
1.47926
0.931831
0.332375
-0.233013
-0.694824
-1.00636
-1.14641
-1.11865
-0.948257
-0.67681
-0.356406
-0.0440006
0.203333
0.331947
0.294049
0.0494633
-0.432758
-1.1724
-2.17568
-3.43251
-4.91401
-6.57097
-8.33383
-10.115
-11.8135
-13.3215
-14.533
-15.3523
-15.7028
-15.5337
-14.8248
-13.5889
-11.8723
-9.75377
-7.34383
-4.78381
-2.24592
0.0669524
1.92303
3.06668
3.22861
2.14211
-0.434763
-4.69268
-10.7433
-18.594
-28.1295
-39.1037
-51.1447
-63.7726
-76.4315
-88.5294
-99.4856
-108.778
-115.985
-120.824
-123.173
-123.083
-120.773
-116.612
-111.089
-104.771
-98.2495
-92.0908
-86.7747
-82.6419
-79.8409
-78.2809
-77.5898
-77.082
-75.7401
-72.2215
-64.8989
-51.9471
-31.4849
-1.77321
38.539
90.139
152.78
225.052
304.255
386.393
466.35
538.235
595.895
633.535
646.385
631.327
587.374
515.95
420.897
308.2
185.457
61.1434
-56.2339
-158.994
-241.042
-298.438
-329.716
-335.91
-320.304
-287.941
-244.955
-197.833
-152.681
-114.587
-87.1572
-72.2557
-69.9754
-78.8157
-96.0338
-118.112
-141.274
-161.984
-177.369
-185.521
-185.651
-178.091
-164.157
-145.899
-125.783
-106.345
-89.8598
-78.0721
-72.0056
-71.8753
-77.1043
-86.4345
-98.1138
-110.132
-120.474
-127.362
-129.458
-126.001
-116.875
-102.598
-84.2345
-63.2574
-41.3633
-20.2773
-1.56445
13.5296
24.1912
30.096
31.4068
28.7173
22.9525
15.239
6.76483
-1.35546
-8.19526
-13.0977
-15.7185
-16.0292
-14.2825
-10.9495
-6.63763
-2.00164
2.34139
5.88284
8.27238
9.34307
9.11112
7.75333
5.56712
2.92017
0.196827
-2.25164
-4.14722
-5.31191
-5.67893
-5.28905
-4.27368
-2.82857
-1.18229
0.436021
1.8255
2.83571
3.38013
3.44014
3.0601
2.33498
1.39305
0.376361
-0.577928
-1.35246
-1.85799
-2.03313
-1.83459
-1.21902
-0.119597
1.57738
4.04938
7.54183
12.3553
18.8143
27.2207
37.7977
50.634
65.6382
82.5114
100.746
119.652
138.409
156.137
171.983
185.199
195.22
201.715
204.618
204.124
200.662
194.842
187.38
179.026
170.478
162.312
154.932
148.534
143.097
138.407
134.087
129.66
124.62
118.496
110.928
101.713
90.8441
78.5191
65.1257
51.2042
37.3915
24.355
12.7227
3.0209
-4.37597
-9.27603
-11.6804
-11.7728
-9.89281
-6.49538
-2.10419
2.73722
7.51129
11.7658
15.1438
17.4036
18.4267
18.2157
16.8824
14.6273
11.7139
8.4394
5.10461
1.98638
-0.685994
-2.74776
-4.10826
-4.75238
-4.73453
-4.1661
-3.19831
-2.00246
-0.750089
0.405095
1.34145
1.97875
2.28201
2.25985
1.95817
1.45029
0.825033
0.174349
-0.41802
-0.885618
-1.18528
-1.29964
-1.23627
-1.02389
-0.706388
-0.335694
0.0355467
0.360585
0.603716
0.743485
0.773783
0.702906
0.550931
0.345909
0.119483
-0.0974761
-0.278649
-0.40508
-0.466754
-0.462887
-0.401027
-0.295208
-0.163485
-0.0252346
0.101426
0.201779
0.265994
0.289838
0.274581
0.226177
0.153796
0.0678172
-0.022667
-0.112849
-0.205764
-0.316394
-0.476083
-0.736647
-1.17314
-1.88392
-2.98666
-4.60925
-6.87524
-9.88456
-13.6913
-18.2817
-23.5554
-29.3153
-35.2672
-41.0335
-46.1794
-50.2518
-52.8247
-53.5483
-52.1941
-48.691
-43.1462
-35.8485
-27.2522
-17.9431
-8.59045
0.111429
7.50331
13.0186
16.2315
16.8909
14.938
10.5055
3.89874
-4.43775
-13.9656
-24.1051
-34.2889
-44.0127
-52.8758
-60.6107
-67.0959
-72.3538
-76.5333
-79.8793
-82.6951
-85.2989
-87.9835
-90.9796
-94.4294
-98.3711
-102.736
-107.356
-111.981
-116.297
-119.942
-122.52
-123.59
-122.653
-119.122
-112.284
-101.283
-85.121
-62.7041
-32.9469
5.06581
51.8668
107.365
170.615
239.641
311.362
381.668
445.661
498.054
533.714
548.262
538.673
503.765
444.514
364.129
267.849
162.497
55.8192
-44.3056
-130.679
-197.526
-241.073
-259.883
-254.928
-229.381
-188.168
-137.352
-83.4186
-32.5578
9.9681
40.3093
56.3147
57.6026
45.4237
22.3517
-8.14865
-42.2114
-76.0552
-106.405
-130.808
-147.812
-157.005
-158.922
-154.845
-146.536
-135.945
-124.929
-115.014
-107.239
-102.076
-99.4391
-98.7657
-99.1575
-99.5491
-98.8843
-96.2748
-91.1223
-83.1922
-72.6329
-59.9438
-45.8997
-31.4451
-17.5737
-5.20925
4.89742
12.2447
16.622
18.1163
17.0852
14.1033
9.89152
5.23775
0.919239
-2.36673
-4.05789
-3.76497
-1.29139
3.36459
10.0235
18.3509
27.8937
38.1213
48.4694
58.382
67.3488
74.9356
80.8057
84.7323
86.6017
86.4076
84.2387
80.2614
74.699
67.8101
59.8678
51.1409
41.8795
32.3045
22.6018
12.9218
3.38274
-5.92315
-14.9208
-23.5436
-31.7249
-39.3922
-46.4641
-52.8508
-58.4578
-63.193
-66.9742
-69.7381
-71.4472
-72.0937
-71.7007
-70.3191
-68.0218
-64.8968
-61.04
-56.5499
-51.5256
-46.0671
-40.2792
-34.276
-28.1844
-22.1451
-16.3094
-10.829
-5.84218
-1.45485
2.2781
5.36855
7.9037
10.0447
12.014
14.0721
16.4865
19.497
23.2823
27.9338
33.4387
39.6782
46.4374
53.429
60.3252
66.7943
72.5368
77.3166
80.9825
83.4792
84.8462
85.2046
84.7367
83.6588
82.1928
80.5397
78.858
77.2485
75.7481
74.3303
72.9138
71.3751
69.5655
67.3296
64.5242
61.0363
56.7989
51.8035
46.108
39.8388
33.1866
26.395
19.7429
13.522
8.01018
3.44594
0.00382928
-2.224
-3.23867
-3.1361
-2.09848
-0.376383
1.73653
3.93351
5.92579
7.47115
8.39651
8.61213
8.11585
6.98732
5.3732
3.46562
1.47684
-0.386755
-1.94803
-3.07733
-3.70365
-3.81805
-3.46933
-2.75332
-1.79742
-0.742801
0.273445
1.13398
1.75309
2.08353
2.11816
1.88647
1.44692
0.876425
0.258111
-0.331036
-0.831477
-1.2102
-1.46665
-1.63468
-1.78027
-1.99476
-2.38425
-3.05612
-4.1043
-5.59503
-7.55534
-9.96569
-12.7583
-15.8213
-19.009
-22.156
-25.0946
-27.6721
-29.7668
-31.2986
-32.2355
-32.5923
-32.4238
-31.8131
-30.8559
-29.6445
-28.253
-26.7262
-25.0731
-23.2669
-21.2497
-18.9426
-16.2589
-13.1202
-9.47269
-5.30309
-0.652743
4.37247
9.59764
14.7817
19.6285
23.8068
26.9769
28.8231
29.0867
27.5976
24.298
19.2565
12.6689
4.84673
-3.80821
-12.8375
-21.7666
-30.1455
-37.5867
-43.7946
-48.5842
-51.8877
-53.749
-54.3073
-53.7723
-52.3938
-50.4271
-48.0972
-45.5604
-42.8654
-39.9136
-36.4194
-31.8757
-25.5312
-16.3884
-3.23498
15.282
40.5315
73.7254
115.704
166.705
226.136
292.409
362.846
433.729
500.487
558.037
601.254
625.529
627.327
604.691
557.602
488.128
400.348
300.025
194.072
89.8772
-5.44434
-85.7655
-146.547
-185.253
-201.524
-197.116
-175.592
-141.837
-101.455
-60.1161
-22.9457
5.977
23.9674
29.8933
24.1426
8.41869
-14.5966
-41.6613
-69.4151
-94.7899
-115.342
-129.475
-136.537
-136.788
-131.265
-121.565
-109.577
-97.217
-86.1771
-77.7408
-72.663
-71.1327
-72.81
-76.926
-82.4255
-88.1308
-92.9015
-95.7737
-96.0614
-93.4135
-87.8244
-79.6033
-69.3108
-57.6741
-45.4933
-33.5512
-22.533
-12.9656
-5.17813
0.71557
4.81261
7.39832
8.90824
9.87891
10.8918
12.515
15.2474
19.47
25.4086
33.1119
42.4455
53.1045
64.6415
76.5077
88.1026
98.8267
108.132
115.566
120.799
123.649
124.075
122.172
118.143
112.271
104.88
96.3027
86.8526
76.7996
66.3606
55.698
44.9273
34.1315
23.3781
12.7359
2.2881
-7.86045
-17.5835
-26.7402
-35.188
-42.7984
-49.4734
-55.1586
-59.8518
-63.6044
-66.5145
-68.7148
-70.3541
-71.5777
-72.508
-73.23
-73.7823
-74.1561
-74.3021
-74.1436
-73.594
-72.5759
-71.038
-68.9683
-66.4
-63.4102
-60.1111
-56.6355
-53.1178
-49.6753
-46.3908
-43.3016
-40.3951
-37.6129
-34.863
-32.0372
-29.0327
-25.7728
-22.2244
-18.4092
-14.4063
-10.3461
-6.3964
-2.74224
0.437376
2.99245
4.82157
5.88532
6.21161
5.89252
5.07301
3.93325
2.66711
1.45972
0.467215
-0.19865
-0.479227
-0.37002
0.085601
0.808715
1.70102
2.66223
3.60598
4.47202
5.23301
5.89541
6.49464
7.08582
7.73175
8.49008
9.40164
10.4814
11.7132
13.0484
14.4088
15.6933
16.7868
17.5717
17.9395
17.8024
17.1033
15.8231
13.9852
11.6555
8.93837
5.96911
2.90269
-0.0994373
-2.88332
-5.31557
-7.29404
-8.75482
-9.67468
-10.0689
-9.98505
-9.49329
-8.6756
-7.61459
-6.38401
-5.04185
-3.62677
-2.1579
-0.637772
0.942635
2.59752
4.33972
6.17486
8.09701
10.0862
12.1078
14.1146
16.0494
17.8501
19.4551
20.8085
21.8655
22.597
22.9923
23.0602
22.8287
22.3425
21.6586
20.8408
19.9535
19.0544
18.1888
17.384
16.646
15.959
15.2879
14.5832
13.789
12.8515
11.7278
10.3929
8.84369
7.09964
5.1994
3.1944
1.14042
-0.911417
-2.92247
-4.87195
-6.75882
-8.59991
-10.4247
-12.2678
-14.1603
-16.1228
-18.16
-20.2596
-22.3947
-24.5308
-26.6343
-28.6825
-30.673
-32.6294
-34.6045
-36.6774
-38.9471
-41.5214
-44.5026
-47.9723
-51.9757
-56.5085
-61.5078
-66.8483
-72.3458
-77.7678
-82.8511
-87.3251
-90.9387
-93.4866
-94.833
-94.9273
-93.8117
-91.6163
-88.5436
-84.8419
-80.7706
-76.5572
-72.3483
-68.1539
-63.7881
-58.8084
-52.4652
-43.6731
-31.0233
-12.8543
12.6051
47.0193
91.666
147.122
212.96
287.51
367.738
449.298
526.769
594.093
645.163
674.5
677.939
653.218
600.38
521.929
422.698
309.433
190.147
73.3147
-32.9905
-121.907
-188.446
-229.929
-246.149
-239.251
-213.363
-174.017
-127.462
-79.9442
-37.0346
-3.09922
19.0558
28.3271
25.2487
11.7444
-9.25551
-34.2758
-59.7732
-82.5695
-100.195
-111.11
-114.786
-111.657
-102.962
-90.4929
-76.311
-62.4531
-50.6704
-42.2289
-37.7895
-37.3753
-40.4218
-45.8968
-52.4677
-58.6928
-63.2104
-64.9023
-63.0155
-57.229
-47.6644
-34.8415
-19.5905
-2.93283
14.0514
30.3529
45.1448
57.8624
68.2455
76.3391
82.4568
87.1124
90.9325
94.5614
98.5714
103.389
109.248
116.169
123.968
132.297
140.692
148.646
155.671
161.357
165.419
167.715
168.255
167.184
164.747
161.25
157.015
152.335
147.439
142.464
137.451
132.341
126.995
121.215
114.783
107.488
99.1598
89.6934
79.0663
67.3445
54.6792
41.2955
27.474
13.5279
-0.221794
-13.4693
-25.9449
-37.4301
-47.7671
-56.8611
-64.6774
-71.2325
-76.5832
-80.8134
-84.0221
-86.313
-87.7883
-88.5442
-88.6715
-88.2571
-87.3866
-86.148
-84.6325
-82.9339
-81.1464
-79.3587
-77.6486
-76.0761
-74.678
-73.465
-72.4212
-71.5068
-70.6641
-69.8249
-68.9188
-67.8811
-66.6585
-65.2123
-63.518
-61.5635
-59.3434
-56.8549
-54.0922
-51.0448
-47.6978
-44.0354
-40.0487
-35.7436
-31.1499
-26.3284
-21.3742
-16.4149
-11.6043
-7.1103
-3.09964
0.279084
2.91177
4.73216
5.73029
5.95483
5.50889
4.5397
3.22364
1.7483
0.293963
-0.983368
-1.96544
-2.58032
-2.8053
-2.66419
-2.21974
-1.56229
-0.796407
-0.027097
0.652834
1.17304
1.49277
1.60461
1.53484
1.34098
1.10685
0.935937
0.943543
1.24835
1.96384
3.19007
5.00603
7.46306
10.5795
14.337
18.6786
23.5093
28.6993
34.0896
39.5013
44.7465
49.6416
54.0208
57.7492
60.7336
62.9293
64.3425
65.027
65.0766
64.613
63.7715
62.6863
61.4774
60.2399
59.038
57.9028
56.8351
55.8106
54.7881
53.7181
52.5517
51.2475
49.7772
48.1281
46.3043
44.3242
42.2175
40.0206
37.7703
35.4991
33.23
30.9736
28.7265
26.4731
24.189
21.8471
19.4243
16.9089
14.3059
11.6407
8.95932
6.32589
3.81632
1.51059
-0.516376
-2.20334
-3.50988
-4.4209
-4.94803
-5.12775
-5.0166
-4.6843
-4.20571
-3.65293
-3.08829
-2.55944
-2.09679
-1.71367
-1.40908
-1.17259
-0.99101
-0.856104
-0.773199
-0.770279
-0.90726
-1.28467
-2.05036
-3.40219
-5.58442
-8.87573
-13.5679
-19.9354
-28.1991
-38.4869
-50.7981
-64.9753
-80.6906
-97.4484
-114.606
-131.413
-147.06
-160.745
-171.737
-179.433
-183.418
-183.493
-179.698
-172.304
-161.783
-148.762
-133.946
-118.034
-101.618
-85.0787
-68.4863
-51.5205
-33.4265
-13.0231
11.2208
41.0325
78.1056
123.81
178.868
243.049
314.92
391.725
469.422
542.912
606.458
654.254
681.092
683.024
657.938
605.956
529.58
433.557
324.477
210.129
98.7121
-2.00934
-85.4976
-147.083
-184.381
-197.434
-188.578
-162.062
-123.464
-79.0034
-34.8222
3.6676
32.3061
48.52
51.4468
41.8509
21.8605
-5.42856
-36.4212
-67.5022
-95.466
-117.852
-133.156
-140.897
-141.562
-136.431
-127.33
-116.341
-105.513
-96.6123
-90.9216
-89.129
-91.2915
-96.8792
-104.883
-113.969
-122.659
-129.512
-133.289
-133.084
-128.416
-119.259
-106.032
-89.5367
-70.8604
-51.2524
-31.9928
-14.2638
0.961076
12.9995
21.5086
26.4956
28.2939
27.5081
24.9389
21.4948
18.1026
15.6226
14.7776
16.0986
19.8901
26.2172
34.911
45.5934
57.7152
70.6061
83.5291
95.7371
106.524
115.271
121.475
124.776
124.958
121.949
115.807
106.702
94.8931
80.7098
64.5357
46.7954
27.9473
8.47822
-11.1001
-30.2575
-48.4542
-65.1565
-79.857
-92.1002
-101.511
-107.825
-110.911
-110.795
-107.664
-101.865
-93.8914
-84.3465
-73.9075
-63.2746
-53.1185
-44.0296
-36.4732
-30.7566
-27.0096
-25.1818
-25.056
-26.2766
-28.3892
-30.8876
-33.2647
-35.06
-35.9017
-35.5383
-33.8571
-30.8884
-26.796
-21.854
-16.4139
-10.8657
-5.59626
-0.95082
2.79978
5.48173
7.02952
7.48502
6.98525
5.74087
4.00834
2.05944
0.151652
-1.49735
-2.72846
-3.45167
-3.64787
-3.3625
-2.69256
-1.76909
-0.737622
0.260917
1.1067
1.71336
2.03541
2.07069
1.85892
1.47743
1.03605
0.672351
0.547952
0.845458
1.76472
3.51644
6.31122
10.3429
15.7667
22.6732
31.0626
40.8237
51.7205
63.3936
75.376
87.1241
98.0631
107.639
115.376
120.923
124.092
124.884
123.485
120.249
115.662
110.288
104.72
99.5143
95.1415
91.9482
90.1291
89.7185
90.5958
92.5052
95.0839
97.8976
100.478
102.359
103.11
102.367
99.8519
95.393
88.9309
80.5213
70.3283
58.6094
45.6938
31.955
17.7794
3.5353
-10.4539
-23.9307
-36.7139
-48.6995
-59.851
-70.1824
-79.7367
-88.5639
-96.7012
-104.16
-110.919
-116.928
-122.114
-126.397
-129.703
-131.982
-133.219
-133.439
-132.71
-131.137
-128.856
-126.011
-122.744
-119.176
-115.39
-111.421
-107.25
-102.801
-97.9516
-92.5413
-86.3896
-79.316
-71.161
-61.808
-51.2026
-39.3684
-26.418
-12.5577
1.9164
16.6291
31.1462
45.0008
57.7259
68.8889
78.1256
85.1706
89.8797
92.2426
92.3835
90.5504
87.0927
82.4303
77.0175
71.3041
65.7001
60.5445
56.0841
52.4613
49.7137
47.7836
46.5351
45.7781
45.2935
44.8587
44.268
43.3482
41.9652
40.0243
37.4633
34.2423
30.3338
25.7164
20.3769
14.324
7.61576
0.401507
-7.02338
-14.1557
-20.2247
-24.1468
-24.5133
-19.6262
-7.60014
13.4624
45.224
88.8102
144.485
211.349
287.126
368.074
449.093
524.033
586.205
629.055
646.918
635.766
593.821
521.968
423.848
305.644
175.533
42.89
-82.679
-192.337
-278.933
-337.722
-366.786
-367.133
-342.447
-298.555
-242.663
-182.494
-125.4
-77.5985
-43.5747
-25.7417
-24.3619
-37.7261
-62.5462
-94.4971
-128.83
-160.979
-187.083
-204.373
-211.393
-208.034
-195.404
-175.558
-151.15
-125.036
-99.9025
-77.9501
-60.675
-48.7592
-42.0754
-39.7924
-40.5578
-42.7267
-44.6029
-44.6622
-41.7315
-35.1072
-24.6043
-10.5377
6.35473
25.0335
44.3032
62.9644
79.9529
94.4509
105.962
114.34
119.78
122.769
124.007
124.31
124.509
125.354
127.431
131.105
136.487
143.435
151.576
160.36
169.125
177.171
183.842
188.59
191.03
190.975
188.441
183.633
176.91
168.725
159.566
149.892
140.076
130.362
120.854
111.516
102.204
92.7134
82.8357
72.4184
61.4125
49.9051
38.1279
26.4422
15.3019
5.19946
-3.39521
-10.0959
-14.6513
-16.9793
-17.1798
-15.5255
-12.4312
-8.40657
-4.00011
0.26003
3.91955
6.64016
8.22578
8.63055
7.94909
6.3914
4.2466
1.84083
-0.505126
-2.51346
-3.97803
-4.78155
-4.90022
-4.39663
-3.40281
-2.09658
-0.674771
0.673072
1.7873
2.55469
2.91747
2.87441
2.47463
1.80551
0.976547
0.101553
-0.718707
-1.41115
-1.94061
-2.31442
-2.58061
-2.81972
-3.13113
-3.61528
-4.35431
-5.39371
-6.72799
-8.29282
-9.96545
-11.5739
-12.9141
-13.7736
-13.9575
-13.3155
-11.7643
-9.30359
-6.02308
-2.09983
2.21508
6.61838
10.7832
14.3913
17.1651
18.8964
19.4677
18.8647
17.1764
14.586
11.3502
7.77179
4.16797
0.837902
-1.96628
-4.06217
-5.35106
-5.82191
-5.54562
-4.66066
-3.35233
-1.82853
-0.294958
1.06718
2.11872
2.77365
3.00296
2.83163
2.32956
1.59822
0.75493
-0.0829869
-0.812429
-1.35544
-1.66595
-1.73191
-1.57318
-1.23608
-0.785785
-0.29819
0.14735
0.473255
0.606362
0.478108
0.0231531
-0.822186
-2.12012
-3.92898
-6.29763
-9.25723
-12.8113
-16.9266
-21.5254
-26.4831
-31.6296
-36.7567
-41.6288
-45.9975
-49.6167
-52.2579
-53.7249
-53.8661
-52.5866
-49.8579
-45.7276
-40.3259
-33.8698
-26.6616
-19.0805
-11.5644
-4.58394
1.39303
5.94147
8.72059
9.51113
8.2435
5.01223
0.0739405
-6.172
-13.2186
-20.4987
-27.4391
-33.5154
-38.3016
-41.5076
-43.0017
-42.8156
-41.131
-38.2515
-34.5622
-30.4831
-26.4224
-22.7339
-19.6846
-17.435
-16.0336
-15.4247
-15.4676
-15.9632
-16.6845
-17.4062
-17.9297
-18.1023
-17.8277
-17.069
-15.8451
-14.2212
-12.2963
-10.1892
-8.02497
-5.9223
-3.98424
-2.29121
-0.897241
0.171045
0.913285
1.35293
1.53463
1.52304
1.4045
1.29381
1.34762
1.78591
2.92205
5.19928
9.22877
15.8196
25.9874
40.9251
61.9209
90.2146
126.792
172.138
225.97
287.009
352.829
419.831
483.386
538.147
578.532
599.317
596.287
566.838
510.463
429.017
326.724
209.898
86.3945
-35.1352
-146.106
-238.871
-307.489
-348.304
-360.256
-344.905
-306.164
-249.79
-182.696
-112.181
-45.1634
12.4886
56.4641
84.3058
95.4786
91.2222
74.224
48.1644
17.2007
-14.5473
-43.4498
-66.7139
-82.5941
-90.4576
-90.7118
-84.6171
-74.019
-61.0405
-47.7742
-36.0141
-27.0514
-21.5564
-19.548
-20.4485
-23.2064
-26.4656
-28.7563
-28.6826
-25.0842
-17.1567
-4.52158
12.7566
34.2012
58.9928
86.0646
114.211
142.197
168.853
193.16
214.303
231.706
245.042
254.218
259.352
260.732
258.765
253.937
246.757
237.726
227.299
215.863
203.725
191.108
178.149
164.917
151.415
137.597
123.38
108.655
93.2988
77.185
60.1932
42.221
23.1944
3.07786
-18.1173
-40.3274
-63.4329
-87.2589
-111.578
-136.117
-160.561
-184.562
-207.747
-229.721
-250.078
-268.4
-284.271
-297.282
-307.051
-313.237
-315.563
-313.835
-307.961
-297.961
-283.971
-266.243
-245.126
-221.043
-194.459
-165.837
-135.589
-104.034
-71.3566
-37.5915
-2.61641
33.8234
72.0717
112.499
155.427
201.053
249.381
300.165
352.882
406.728
460.649
513.395
563.604
609.891
650.952
685.656
713.124
732.795
744.449
748.219
744.562
734.213
718.121
697.367
673.084
646.382
618.279
589.653
561.209
533.466
506.768
481.296
457.103
434.143
412.303
391.429
371.346
351.865
332.793
313.927
295.058
275.968
256.444
236.289
215.345
193.523
170.834
147.411
123.531
99.6124
76.1995
53.9264
33.4649
15.4613
0.469461
-11.1105
-19.0808
-23.4734
-24.5543
-22.8014
-18.8598
-13.4801
-7.44608
-1.50087
3.71897
7.73543
10.2609
11.2079
10.6761
8.92071
6.30667
3.25451
0.185828
-2.52597
-4.5942
-5.84311
-6.21652
-5.77117
-4.65728
-3.0899
-1.31548
0.421762
1.90963
2.99054
3.57495
3.64503
3.249
2.48792
1.49736
0.426738
-0.580802
-1.4056
-1.9639
-2.21444
-2.15903
-1.83767
-1.31947
-0.69078
-0.0425812
0.541487
0.994815
1.27437
1.36356
1.27153
1.02922
0.683177
0.288008
-0.101314
-0.436423
-0.680946
-0.813849
-0.830576
-0.74214
-0.572572
-0.355262
-0.128778
0.0673472
0.196469
0.228073
0.140277
-0.0784382
-0.428278
-0.897951
-1.46524
-2.09831
-2.75777
-3.3993
-3.97675
-4.44545
-4.76545
-4.90443
-4.84017
-4.56237
-4.0739
-3.3914
-2.54553
-1.58061
-0.553969
0.465317
1.39817
2.15796
2.65375
2.79413
2.49173
1.6678
0.256519
-1.79155
-4.50736
-7.90274
-11.9709
-16.6874
-22.0114
-27.8852
-34.233
-40.9589
-47.9431
-55.0406
-62.0796
-68.8645
-75.181
-80.8057
-85.5193
-89.122
-91.451
-92.3971
-91.9196
-90.0566
-86.9294
-82.7402
-77.761
-72.3133
-66.7373
-61.349
-56.3859
-51.9419
-47.8967
-43.847
-39.0542
-32.423
-22.5304
-7.71873
13.7372
43.3947
82.3565
130.968
188.548
253.194
321.737
389.847
452.336
503.62
538.304
551.819
541.024
504.681
443.744
361.39
262.792
154.652
44.5444
-59.8501
-151.518
-224.809
-275.961
-303.405
-307.817
-291.915
-260.048
-217.631
-170.495
-124.25
-83.7165
-52.497
-32.7231
-24.9912
-28.4773
-41.2004
-60.3891
-82.8974
-105.616
-125.83
-141.485
-151.347
-155.029
-152.925
-146.045
-135.797
-123.743
-111.379
-99.9393
-90.2721
-82.7833
-77.4463
-73.8721
-71.421
-69.3361
-66.8761
-63.4309
-58.6058
-52.2653
-44.5366
-35.7753
-26.5035
-17.3292
-8.86178
-1.6325
3.96938
7.73972
9.67873
9.98694
9.04032
7.34894
5.50422
4.12016
3.77414
4.95214
8.00334
13.1078
20.2598
29.2695
39.7807
51.305
63.2677
75.0603
86.0953
95.8554
103.934
110.061
114.112
116.105
116.174
114.545
111.492
107.303
102.246
96.5444
90.3628
83.8056
76.9242
69.7334
62.2309
54.4173
46.3136
37.9722
29.4817
20.963
12.5611
4.43068
-3.27871
-10.4379
-16.9504
-22.7595
-27.8512
-32.2508
-36.015
-39.2203
-41.9509
-44.2858
-46.2889
-48.0022
-49.4431
-50.6061
-51.4674
-51.9922
-52.1427
-51.8862
-51.2016
-50.0835
-48.5443
-46.6135
-44.3352
-41.7643
-38.9622
-35.993
-32.92
-29.8037
-26.7002
-23.6613
-20.7341
-17.9614
-15.3811
-13.0256
-10.9201
-9.0812
-7.51479
-6.21511
-5.16434
-4.33357
-3.68511
-3.17584
-2.76134
-2.40029
-2.05847
-1.71182
-1.34823
-0.967609
-0.580534
-0.205433
0.135082
0.418254
0.625005
0.743015
0.76868
0.707736
0.574546
0.390227
0.179944
-0.0302095
-0.216294
-0.359174
-0.446412
-0.473198
-0.442294
-0.363048
-0.249677
-0.119116
0.0112904
0.125942
0.212746
0.264371
0.278984
0.260588
0.219165
0.170781
0.137713
0.148491
0.237586
0.444384
0.811133
1.37965
2.18692
3.2598
4.60964
6.22743
8.08041
10.111
12.2382
14.3626
16.3735
18.1582
19.6132
20.6542
21.2254
21.3061
20.9133
20.1013
18.956
17.5873
16.1175
14.6699
13.356
12.2662
11.4607
10.9666
10.7764
10.8518
11.1307
11.5358
11.9851
12.4023
12.7254
12.9133
12.9488
12.8383
12.6084
12.2992
11.957
11.6252
11.3376
11.1117
10.9461
10.8196
10.6944
10.5213
10.247
9.82219
9.20947
8.39003
7.36783
6.17084
4.84925
3.47062
2.11269
0.85465
-0.232171
-1.09338
-1.69949
-2.05221
-2.18812
-2.17925
-2.12985
-2.16879
-2.43799
-3.07735
-4.20768
-5.91382
-8.23017
-11.1311
-14.5279
-18.2738
-22.1759
-26.0134
-29.5591
-32.6015
-34.9645
-36.5216
-37.2037
-36.9997
-35.9504
-34.1376
-31.6704
-28.6705
-25.2599
-21.551
-17.6416
-13.6143
-9.54054
-5.48691
-1.52357
2.26812
5.79035
8.92764
11.5505
13.5238
14.7198
15.0323
14.3918
12.7775
10.2249
6.8272
2.72987
-1.88068
-6.79359
-11.7923
-16.6731
-21.2616
-25.4233
-29.0689
-32.1532
-34.6679
-36.6304
-38.0716
-39.0227
-39.505
-39.5214
-39.0494
-38.0334
-36.3701
-33.8855
-30.3004
-25.1868
-17.9235
-7.66377
6.66618
26.3209
52.6266
86.804
129.732
181.673
242.008
309.009
379.736
450.069
514.923
568.651
605.587
620.691
610.195
572.178
506.958
417.263
308.109
186.418
60.391
-61.2737
-170.238
-259.344
-323.3
-359.159
-366.532
-347.522
-306.4
-249.06
-182.342
-113.285
-48.4233
6.82472
48.5925
74.8034
85.1937
81.1397
65.3224
41.2845
12.9391
-15.9098
-41.9798
-62.8162
-76.9667
-84.0174
-84.5012
-79.7034
-71.3982
-61.5558
-52.0588
-44.4626
-39.8234
-38.6093
-40.6966
-45.4428
-51.8207
-58.5886
-64.4738
-68.343
-69.3403
-66.9782
-61.1729
-52.2257
-40.7568
-27.603
-13.6966
0.0589841
12.9003
24.2883
33.9574
41.9257
48.4666
54.0498
59.2598
64.7049
70.9288
78.3357
87.1375
97.3287
108.689
120.813
133.159
145.112
156.051
165.412
172.736
177.714
180.192
180.181
177.83
173.397
167.213
159.635
151.018
141.682
131.893
121.862
111.743
101.651
91.6692
81.8713
72.3304
63.1281
54.3564
46.114
38.4985
31.5961
25.4713
20.1588
15.6584
11.9344
8.91875
6.51881
4.62615
3.12739
1.91437
0.892854
-0.0110282
-0.847247
-1.64118
-2.39561
-3.09478
-3.71009
-4.20644
-4.54878
-4.70819
-4.66685
-4.42182
-3.98694
-3.39306
-2.6864
-1.92513
-1.17453
-0.501196
0.0331876
0.377686
0.496903
0.374035
0.0117794
-0.56908
-1.33322
-2.23595
-3.22927
-4.26794
-5.31457
-6.34306
-7.34
-8.30358
-9.24063
-10.1621
-11.0776
-11.991
-12.8956
-13.7729
-14.592
-15.3118
-15.8854
-16.2652
-16.4081
-16.2815
-15.8665
-15.1603
-14.1762
-12.9418
-11.4958
-9.88358
-8.1527
-6.34885
-4.51227
-2.67528
-0.860894
0.917408
2.65485
4.35334
6.01845
7.65539
9.26441
10.8362
12.3481
13.7613
15.0209
16.0581
16.7952
17.1528
17.059
16.4584
15.3206
13.6469
11.4732
8.87009
5.93809
2.80035
-0.40785
-3.55076
-6.50397
-9.16491
-11.4608
-13.3534
-14.8392
-15.9466
-16.7288
-17.255
-17.5995
-17.8315
-18.0069
-18.1616
-18.3094
-18.4421
-18.5343
-18.5489
-18.4451
-18.1856
-17.7427
-17.1024
-16.2653
-15.2459
-14.0685
-12.7626
-11.3578
-9.87947
-8.3457
-6.76667
-5.14596
-3.48376
-1.78123
-0.0452269
1.70773
3.44892
5.13704
6.72016
8.13977
9.33665
10.2574
10.861
11.1244
11.0459
10.6465
9.96873
9.07269
8.03051
6.9193
5.81382
4.77956
3.86715
3.10867
2.51622
2.08289
1.78577
1.59082
1.45866
1.35091
1.23612
1.09454
0.921431
0.72814
0.54107
0.398573
0.346269
0.431572
0.698411
1.18313
1.91237
2.9031
4.16453
5.70075
7.51249
9.59659
11.9417
14.5205
17.2787
20.1237
22.9164
25.4682
27.5466
28.8901
29.2318
28.3285
25.9928
22.1215
16.7175
9.90015
1.9033
-6.94064
-16.2274
-25.5159
-34.3662
-42.377
-49.2164
-54.6452
-58.5282
-60.8356
-61.634
-61.0703
-59.35
-56.7144
-53.4179
-49.7087
-45.8145
-41.932
-38.2216
-34.8042
-31.7562
-29.0997
-26.7837
-24.6519
-22.3992
-19.5196
-15.2572
-8.57449
1.84227
17.5241
40.0934
71.0687
111.612
162.247
222.577
291.07
364.94
440.172
511.731
573.931
620.968
647.54
649.499
624.426
572.069
494.541
396.263
283.62
164.381
46.9361
-60.5531
-150.98
-219.001
-261.536
-278.003
-270.267
-242.319
-199.733
-148.975
-96.6537
-48.8094
-10.3108
15.5647
27.338
25.3129
11.3573
-11.4753
-39.4255
-68.5433
-95.1729
-116.353
-130.09
-135.489
-132.733
-122.936
-107.897
-89.7994
-70.8951
-53.2171
-38.3526
-27.299
-20.4096
-17.4285
-17.5966
-19.8095
-22.7999
-25.318
-26.288
-24.9233
-20.7909
-13.8234
-4.28464
7.30173
20.2453
33.7898
47.208
59.8788
71.341
81.3191
89.7229
96.6254
102.224
106.793
110.635
114.04
117.245
120.416
123.637
126.91
130.173
133.312
136.183
138.641
140.552
141.809
142.341
142.114
141.123
139.384
136.916
133.726
129.793
125.059
119.425
112.758
104.901
95.6956
85.0078
72.7511
58.9121
43.5689
26.9021
9.19642
-9.16711
-27.7298
-45.9823
-63.398
-79.4713
-93.7556
-105.898
-115.666
-122.967
-127.852
-130.508
-131.236
-130.424
-128.503
-125.91
-123.047
-120.249
-117.757
-115.711
-114.145
-113
-112.146
-111.407
-110.59
-109.508
-108.005
-105.969
-103.339
-100.103
-96.2946
-91.9763
-87.2299
-82.1404
-76.7848
-71.2241
-65.4999
-59.6376
-53.652
-47.558
-41.381
-35.1668
-28.9877
-22.9449
-17.1649
-11.7902
-6.96719
-2.83056
0.512255
2.99449
4.59963
5.36562
5.38301
4.78724
3.74603
2.44335
1.06211
-0.232495
-1.30702
-2.06965
-2.47505
-2.52389
-2.25747
-1.74841
-1.08879
-0.377286
0.293136
0.845495
1.22615
1.40856
1.39348
1.20574
0.888566
0.496276
0.0864269
-0.287495
-0.582013
-0.767645
-0.830688
-0.772912
-0.609535
-0.366005
-0.0741824
0.231558
0.517909
0.755638
0.921888
1.00174
0.98904
0.886537
0.705326
0.463656
0.185139
-0.103557
-0.37535
-0.605499
-0.774152
-0.868385
-0.883454
-0.823084
-0.698751
-0.528057
-0.33243
-0.134447
0.0448357
0.188226
0.284121
0.327431
0.319645
0.268083
0.184497
0.0832377
-0.0207247
-0.113692
-0.184789
-0.227022
-0.237755
-0.21859
-0.174743
-0.114019
-0.0455704
0.0213865
0.0787367
0.120374
0.142764
0.145127
0.129254
0.0990247
0.0597029
0.0171398
-0.0230196
-0.056019
-0.0784841
-0.0886666
-0.0863931
-0.0726841
-0.0490213
-0.0162779
0.026599
0.0839726
0.16469
0.282718
0.456961
0.710084
1.06641
1.54916
2.17757
2.96452
3.91554
5.02996
6.3047
7.74087
9.35247
11.1757
13.2763
15.7531
18.7344
22.3666
26.7951
32.1378
38.457
45.7305
53.8296
62.5057
71.3907
80.0119
87.8225
94.2448
98.7246
100.788
100.098
96.4988
90.0502
81.0348
69.9468
57.4573
44.359
31.4968
19.6905
9.65795
1.94721
-3.11598
-5.45792
-5.2612
-2.9422
0.89586
5.52932
10.1924
14.1589
16.8177
17.7337
16.6886
13.6962
8.99341
3.00869
-3.68403
-10.4173
-16.4766
-21.131
-23.6405
-23.2403
-19.1081
-10.3305
4.10916
25.2997
54.3076
92.013
138.886
194.732
258.446
327.837
399.572
469.275
531.809
581.722
613.813
623.757
608.691
567.684
502.002
415.135
312.544
201.177
88.7849
-16.8562
-108.741
-181.331
-231.081
-256.722
-259.289
-241.878
-209.198
-166.958
-121.184
-77.5497
-40.7939
-14.2906
0.188157
2.50462
-6.00337
-22.8386
-44.7659
-68.2791
-90.0531
-107.329
-118.189
-121.706
-117.948
-107.867
-93.0878
-75.634
-57.6329
-41.0393
-27.4089
-17.745
-12.4313
-11.2492
-13.4703
-18.0027
-23.5688
-28.8866
-32.8321
-34.5631
-33.5922
-29.8059
-23.4329
-14.9714
-5.09131
5.47486
16.034
26.0159
35.0293
42.8849
49.589
55.3104
60.3313
64.9912
69.634
74.5667
80.0341
86.2089
93.1965
101.047
109.77
119.342
129.709
140.777
152.399
164.35
176.318
187.89
198.56
207.752
214.852
219.266
220.471
218.08
211.888
201.909
188.395
171.824
152.871
132.361
111.193
90.2751
70.4422
52.3911
36.6281
23.4365
12.8686
4.76147
-1.22647
-5.56177
-8.77325
-11.3873
-13.8691
-16.5762
-19.7294
-23.4025
-27.5311
-31.9378
-36.3689
-40.5371
-44.1642
-47.0187
-48.9431
-49.8697
-49.8229
-48.9092
-47.2981
-45.1958
-42.8167
-40.3561
-37.968
-35.7493
-33.7327
-31.8887
-30.1347
-28.3503
-26.3961
-24.1341
-21.4465
-18.2516
-14.5146
-10.2528
-5.53522
-0.476568
4.77279
10.0395
15.1411
19.899
24.1501
27.7554
30.6068
32.6309
33.7914
34.0913
33.5746
32.3287
30.4859
28.2242
25.7646
23.3652
21.3085
19.8838
19.3631
19.9736
21.8682
25.0978
29.5899
35.1363
41.3948
47.9059
54.125
59.469
63.3714
65.3419
65.022
62.2299
56.9884
49.532
40.291
29.854
18.9129
8.19682
-1.59826
-9.87438
-16.1854
-20.2726
-22.0796
-21.7445
-19.5732
-15.9953
-11.5115
-6.63736
-1.85095
2.44985
5.97605
8.56062
10.156
10.8182
10.6818
9.92937
8.76082
7.36562
5.90181
4.48293
3.17326
1.99075
0.915802
-0.0964083
-1.10234
-2.15753
-3.30676
-4.5779
-5.97967
-7.5027
-9.12282
-10.8051
-12.5074
-14.1819
-15.776
-17.2312
-18.482
-19.4569
-20.0813
-20.2844
-20.009
-19.223
-17.9316
-16.1861
-14.088
-11.7854
-9.46219
-7.31921
-5.55042
-4.3174
-3.72599
-3.8091
-4.51896
-5.73066
-7.25677
-8.87142
-10.3403
-11.4526
-12.0491
-12.0444
-11.4378
-10.313
-8.82588
-7.18275
-5.61177
-4.33157
-3.52127
-3.29582
-3.68959
-4.65034
-6.04374
-7.66781
-9.27497
-10.5989
-11.3826
-11.4047
-10.5014
-8.58124
-5.63266
-1.72406
3.00344
8.34864
14.0668
19.888
25.5362
30.7473
35.2846
38.9529
41.6085
43.167
43.6065
42.9684
41.3531
38.9126
35.8394
32.3527
28.6821
25.0519
21.6654
18.6919
16.2574
14.4392
13.2646
12.7151
12.7314
13.2222
14.0719
15.1477
16.3049
17.3911
18.2489
18.7198
18.6496
17.8967
16.3428
13.907
10.5614
6.34867
1.39968
-4.04654
-9.62128
-14.8017
-18.8844
-20.961
-19.9032
-14.3692
-2.84566
16.2598
44.4668
83.0125
132.596
193.108
263.389
341.059
422.478
502.865
576.595
637.67
680.309
699.605
692.158
656.588
593.854
507.32
402.532
286.738
168.181
55.2716
-44.2738
-124.211
-180.374
-211.026
-216.936
-201.159
-168.573
-125.234
-77.6357
-31.9671
6.5425
34.118
48.7245
50.1275
39.7353
20.2612
-4.73971
-31.3922
-56.0133
-75.5536
-87.9195
-92.1485
-88.4269
-77.9625
-62.7407
-45.2029
-27.8952
-13.1332
-2.72304
2.22966
1.40836
-4.73234
-15.0787
-28.0424
-41.7869
-54.4652
-64.4369
-70.4395
-71.6988
-67.9691
-59.5076
-46.9927
-31.4031
-13.8777
4.42473
22.4484
39.3346
54.4781
67.5473
78.4697
87.3916
94.6214
100.566
105.672
110.367
115.028
119.948
125.324
131.257
137.752
144.732
152.051
159.505
166.851
173.815
180.107
185.427
189.478
191.974
192.65
191.274
187.664
181.706
173.372
162.739
150.005
135.492
119.643
103.006
86.1968
69.8623
54.6261
41.0369
29.52
20.3385
13.5707
9.10571
6.65862
5.80437
6.0256
6.76952
7.50678
7.78561
7.27487
5.79146
3.30947
-0.0490984
-4.04001
-8.33476
-12.5656
-16.3715
-19.4398
-21.539
-22.5384
-22.4162
-21.2525
-19.2131
-16.5247
-13.4464
-10.2406
-7.14734
-4.36398
-2.03177
-0.230213
1.02169
1.75819
2.05535
2.01726
1.76168
1.40681
1.06031
0.81129
0.725553
0.843901
1.18311
1.73887
2.48999
3.40309
4.43717
5.54756
6.68894
7.81756
8.89252
9.8767
10.7374
11.447
11.9838
12.3325
12.4853
12.4422
12.2106
11.8047
11.2437
10.55
9.74693
8.85696
7.9001
6.8936
5.85244
4.79088
3.72463
2.67304
1.66074
0.718107
-0.120139
-0.817987
-1.34273
-1.67027
-1.79017
-1.70946
-1.45434
-1.06942
-0.614314
-0.158216
0.227008
0.474117
0.527358
0.347992
-0.0821063
-0.759159
-1.6586
-2.73839
-3.94423
-5.21588
-6.49429
-7.72845
-8.8816
-9.93614
-10.8966
-11.7907
-12.6675
-13.5931
-14.6448
-15.9013
-17.4338
-19.2946
-21.5078
-24.0608
-26.8993
-29.9263
-33.0054
-35.9692
-38.6321
-40.8061
-42.3188
-43.031
-42.8518
-41.7497
-39.7577
-36.9717
-33.5431
-29.6643
-25.5512
-21.423
-17.4823
-13.898
-10.7922
-8.23384
-6.23728
-4.768
-3.75242
-3.09135
-2.67469
-2.3956
-2.16251
-1.90762
-1.59126
-1.20213
-0.753667
-0.277711
0.183585
0.58618
0.891814
1.07395
1.12141
1.03945
0.848531
0.581155
0.277499
-0.0194033
-0.268271
-0.433418
-0.48747
-0.412801
-0.201711
0.144499
0.617276
1.20305
1.88568
2.64869
3.4773
4.35989
5.28911
6.26241
7.28229
8.3562
9.49616
10.7184
12.0427
13.492
15.0912
16.8657
18.8389
21.0287
23.442
26.0697
28.88
31.8143
34.7841
37.6725
40.3387
42.6273
44.3814
45.4568
45.7381
45.1514
43.6749
41.3432
38.2463
34.5233
30.35
25.9241
21.4484
17.1135
13.0834
9.4829
6.38977
3.83086
1.78279
0.177209
-1.08993
-2.14556
-3.12426
-4.15197
-5.33013
-6.72183
-8.34091
-10.144
-12.0234
-13.7984
-15.2001
-15.8456
-15.2036
-12.5529
-6.94801
2.79408
18.0639
40.3711
71.1862
111.716
162.631
223.774
293.906
370.535
449.877
527.006
596.177
651.341
686.775
697.771
681.279
636.403
564.689
470.114
358.801
238.449
117.573
4.63254
-92.8421
-169.004
-220.245
-245.481
-246.141
-225.876
-190.031
-144.955
-97.2384
-52.9847
-17.1818
6.74253
17.1508
14.1978
-0.376673
-23.6214
-51.8549
-81.1859
-108.006
-129.4
-143.425
-149.246
-147.121
-138.245
-124.501
-108.148
-91.4899
-76.58
-64.9799
-57.6083
-54.6856
-55.7715
-59.8833
-65.6708
-71.6219
-76.2687
-78.3706
-77.0518
-71.8828
-62.8996
-50.565
-35.6811
-19.2698
-2.4358
13.7676
28.4559
41.0005
51.0787
58.6838
64.0963
67.8248
70.5236
72.9001
75.6235
79.2446
84.137
90.4637
98.1723
107.016
116.598
126.43
135.993
144.802
152.451
158.648
163.223
166.119
167.365
167.041
165.232
162.001
157.358
151.26
143.622
134.351
123.379
110.713
96.4723
80.9111
64.4257
47.5374
30.8557
15.0233
0.653708
-11.734
-21.7709
-29.2782
-34.286
-37.0274
-37.9086
-37.4597
-36.2715
-34.9273
-33.9373
-33.6845
-34.3884
-36.0895
-38.6569
-41.8158
-45.1913
-48.3623
-50.917
-52.5049
-52.8771
-51.9122
-49.6251
-46.1592
-41.7639
-36.7624
-31.5131
-26.3719
-21.6577
-17.6263
-14.4538
-12.2316
-10.9692
-10.606
-11.0264
-12.0761
-13.5775
-15.3416
-17.1771
-18.897
-20.3237
-21.2947
-21.6693
-21.3373
-20.2288
-18.3235
-15.6586
-12.3321
-8.50112
-4.37308
-0.191104
3.78624
7.30807
10.1548
12.159
13.2213
13.3191
12.507
10.9091
8.70544
6.11238
3.36142
0.678059
-1.73677
-3.72092
-5.15984
-5.98986
-6.19623
-5.80727
-4.88566
-3.51852
-1.80764
0.139387
2.21622
4.32305
6.37009
8.2798
9.98819
11.4458
12.6186
13.4888
14.0556
14.3354
14.3612
14.3612
14.3612
14.3612
14.3612
14.3612
14.3612
14.3612
14.3612
14.3612
14.3612
14.3612
14.3612
14.3612
14.3612
14.3612
14.3612
14.3612
14.3612
14.3612
