-293.267
-278.163
-260.856
-241.736
-221.344
-200.313
-179.302
-158.92
-139.655
-121.82
-105.526
-90.6813
-77.0238
-64.1761
-51.7156
-39.2486
-26.4769
-13.2465
0.427667
14.3628
28.234
41.6188
54.0518
65.0833
74.3317
81.5255
86.5294
89.3542
90.1501
89.1863
86.8203
83.4614
79.5327
75.4346
71.5144
68.0428
65.1988
63.0629
61.6187
60.7609
60.3099
60.0296
59.6487
58.8822
57.453
55.1099
51.6438
46.8995
40.7849
33.2762
24.4209
14.3378
3.21302
-8.70632
-21.1234
-33.7056
-46.1017
-57.9598
-68.945
-78.7551
-87.1321
-93.8701
-98.8187
-101.883
-103.02
-102.238
-99.582
-95.1311
-88.9756
-81.1936
-71.8172
-60.7929
-47.9422
-32.9344
-15.2822
5.62694
30.457
59.8072
94.0625
133.23
176.788
223.573
271.738
318.802
361.793
397.493
422.754
434.842
431.791
412.688
377.859
328.934
268.751
201.123
130.493
61.4999
-1.47376
-54.7251
-95.5762
-122.598
-135.693
-136.023
-125.814
-108.04
-86.0618
-63.2346
-42.5526
-26.3624
-16.1732
-12.5805
-15.3011
-23.3067
-35.0305
-48.6144
-62.1646
-73.9829
-82.7474
-87.6275
-88.3246
-85.0423
-78.3982
-69.2934
-58.7633
-47.8284
-37.3663
-28.0176
-20.1345
-13.7735
-8.72925
-4.59809
-0.862717
3.0174
7.52102
12.9961
19.6142
27.3515
35.9978
45.1886
54.4562
63.2906
71.2028
77.782
82.7405
85.94
87.3979
87.274
85.8374
83.4217
80.3715
76.9914
73.5027
70.0163
66.5253
62.9193
59.0169
54.6112
49.5208
43.6365
36.9576
29.6093
21.8407
14.0023
6.50641
-0.222775
-5.80268
-9.94152
-12.4763
-13.3942
-12.835
-11.0736
-8.48666
-5.50604
-2.56715
-0.0578484
1.72521
2.60753
2.55141
1.65285
0.121543
-1.75328
-3.64664
-5.2455
-6.2942
-6.63188
-6.21669
-5.13393
-3.58671
-1.8704
-0.334057
0.666316
0.816607
-0.110657
-2.22168
-5.4816
-9.71244
-14.6097
-19.7758
-24.7664
-29.144
-32.5319
-34.6613
-35.4052
-34.7936
-33.0081
-30.3565
-27.2302
-24.0509
-21.2144
-19.0394
-17.728
-17.3445
-17.8129
-18.9346
-20.4213
-21.9394
-23.1567
-23.7877
-23.6293
-22.5832
-20.6634
-17.9883
-14.7597
-11.2323
-7.67762
-4.34846
-1.44673
0.90012
2.65169
3.8546
4.62968
5.14812
5.60004
6.16008
6.95542
8.0411
9.38669
10.8765
12.3232
13.4934
14.1401
14.0397
13.0264
11.0198
8.04413
4.23403
-0.171689
-4.8485
-9.41433
-13.4643
-16.6084
-18.5069
-18.9005
-17.6295
-14.6406
-9.97622
-3.74772
3.90741
12.8799
23.1464
34.8196
48.1774
63.6597
81.8233
103.254
128.439
157.623
190.65
226.848
264.944
303.071
338.847
369.552
392.377
404.725
404.53
390.542
362.544
321.463
269.357
209.261
144.919
80.4277
19.833
-33.2716
-76.091
-106.882
-125.083
-131.31
-127.224
-115.288
-98.4567
-79.8279
-62.3074
-48.3203
-39.6
-37.0715
-40.8362
-50.2502
-64.0793
-80.7069
-98.3636
-115.35
-130.229
-141.96
-149.971
-154.167
-154.866
-152.695
-148.448
-142.936
-136.843
-130.614
-124.39
-117.986
-110.93
-102.548
-92.0771
-78.8003
-62.1684
-41.9037
-18.0606
8.9604
38.45
69.47
100.965
131.887
161.316
188.555
213.193
235.119
254.497
271.704
287.235
301.605
315.254
328.465
341.311
353.634
365.061
375.035
382.887
387.905
389.423
386.894
379.959
368.493
352.626
332.746
309.464
283.566
255.957
227.579
199.35
172.097
146.509
123.101
102.206
83.9747
68.3939
55.3189
44.508
35.661
28.4552
22.5764
17.7423
13.7186
10.3251
7.4364
4.97467
2.89981
1.19654
-0.138398
-1.10774
-1.72263
-2.00818
-2.00557
-1.77072
-1.37037
-0.876352
-0.359011
0.119106
0.508529
0.77639
0.907803
0.904902
0.783645
0.568738
0.287361
-0.0373617
-0.392062
-0.776945
-1.20694
-1.70982
-2.32156
-3.07955
-4.01496
-5.14547
-6.4697
-7.96423
-9.58383
-11.2647
-12.9303
-14.4989
-15.891
-17.0372
-17.8833
-18.394
-18.5538
-18.3652
-17.8458
-17.023
-15.9286
-14.5936
-13.0433
-11.2948
-9.35671
-7.23286
-4.92922
-2.46432
0.118273
2.7374
5.26399
7.51538
9.25635
10.208
10.0651
8.52066
5.29624
0.174969
-6.96669
-16.1322
-27.1869
-39.8524
-53.7133
-68.2389
-82.8163
-96.7937
-109.53
-120.446
-129.073
-135.092
-138.355
-138.899
-136.917
-132.729
-126.708
-119.21
-110.482
-100.582
-89.3239
-76.2513
-60.6633
-41.6943
-18.4446
9.84682
43.6102
82.7582
126.537
173.444
221.238
267.053
307.615
339.554
359.755
365.74
355.99
330.197
289.378
235.851
173.048
105.21
36.9705
-27.0982
-82.9348
-127.375
-158.43
-175.429
-179.006
-170.951
-153.938
-131.172
-106.004
-81.5548
-60.3941
-44.3141
-34.2088
-30.0724
-31.1047
-35.903
-42.7087
-49.6734
-55.1106
-57.7006
-56.629
-51.6461
-43.0464
-31.5783
-18.3012
-4.41205
8.93191
20.7725
30.4705
37.7738
42.8288
46.1362
48.4629
50.7235
53.8498
58.6652
65.7811
75.5253
87.9096
102.637
119.148
136.686
154.39
171.386
186.866
200.159
210.769
218.39
222.893
224.293
222.699
218.268
211.155
201.479
189.311
174.673
157.565
137.993
116.019
91.7949
65.6055
37.8818
9.20531
-19.7111
-48.0606
-74.9957
-99.6911
-121.41
-139.566
-153.773
-163.878
-169.976
-172.393
-171.659
-168.454
-163.545
-157.717
-151.704
-146.13
-141.464
-137.992
-135.809
-134.832
-134.823
-135.431
-136.236
-136.801
-136.713
-135.627
-133.296
-129.586
-124.485
-118.099
-110.628
-102.346
-93.5714
-84.6276
-75.817
-67.3924
-59.5381
-52.3606
-45.8888
-40.084
-34.8569
-30.0903
-25.6624
-21.4687
-17.4398
-13.5505
-9.8232
-6.32115
-3.13684
-0.375136
1.86519
3.50872
4.51727
4.89824
4.70662
4.04061
3.03155
1.8299
0.589203
-0.549786
-1.47281
-2.102
-2.40104
-2.37515
-2.06636
-1.54487
-0.897845
-0.216981
0.413779
0.92934
1.29245
1.49985
1.58475
1.61483
1.68503
1.90456
2.37887
3.18809
4.36494
5.87638
7.61316
9.39122
10.9669
12.0658
12.4215
11.819
10.1353
7.3701
3.65943
-0.729376
-5.42334
-9.98609
-13.971
-16.9776
-18.7026
-18.9788
-17.7961
-15.3017
-11.78
-7.61433
-3.23573
0.938374
4.56972
7.46639
9.64779
11.4031
13.3355
16.3827
21.7988
31.0855
45.8618
67.6717
97.741
136.709
184.378
239.514
299.771
361.74
421.17
473.331
513.498
537.492
542.2
526.017
489.119
433.545
363.049
282.748
198.604
116.802
43.1038
-17.7355
-62.4286
-89.4317
-99.0125
-93.11
-75.0118
-48.8982
-19.3153
9.35575
33.3694
49.9746
57.6273
56.044
46.102
29.6128
9.00675
-13.025
-33.8832
-51.3666
-63.8981
-70.6507
-71.5693
-67.2934
-59.0025
-48.2086
-36.5286
-25.4641
-16.2166
-9.55659
-5.75666
-4.59163
-5.40061
-7.19855
-8.82122
-9.0842
-6.93655
-1.59136
7.38118
20.0071
35.9113
54.368
74.3876
94.8318
114.536
132.431
147.636
159.533
167.788
172.348
173.397
171.284
166.452
159.361
150.425
139.984
128.289
115.524
101.841
87.4001
72.4173
57.1897
42.1076
27.6418
14.3104
2.62911
-6.94618
-14.0755
-18.581
-20.4746
-19.9642
-17.4359
-13.4149
-8.51055
-3.35316
1.47043
5.47331
8.31104
9.80564
9.94927
8.88833
6.89141
4.30587
1.50936
-1.13764
-3.3327
-4.86129
-5.61317
-5.58456
-4.86718
-3.62689
-2.07545
-0.439628
1.06826
2.27495
3.06346
3.38147
3.24087
2.70937
1.89607
0.933427
-0.0417766
-0.905956
-1.56276
-1.95217
-2.05417
-1.88688
-1.50028
-0.96649
-0.368385
0.211973
0.703532
1.05399
1.23437
1.24011
1.089
0.816305
0.468086
0.0934781
-0.262993
-0.568161
-0.805228
-0.976438
-1.1031
-1.22295
-1.38526
-1.64419
-2.05138
-2.64857
-3.46125
-4.49395
-5.72779
-7.12049
-8.60874
-10.1128
-11.5428
-12.8056
-13.8123
-14.4851
-14.7626
-14.6039
-13.9911
-12.9309
-11.4566
-9.63019
-7.54535
-5.33097
-3.15305
-1.21349
0.256014
1.00637
0.789523
-0.618427
-3.3919
-7.63179
-13.3462
-20.4386
-28.7064
-37.8491
-47.4876
-57.1908
-66.5083
-75.0054
-82.2972
-88.0783
-92.1465
-94.4178
-94.9326
-93.8509
-91.4387
-88.0443
-84.0657
-79.9116
-75.9553
-72.4857
-69.6569
-67.44
-65.5809
-63.5692
-60.6245
-55.7079
-47.5679
-34.8289
-16.1282
9.70113
43.4141
85.1273
134.119
188.693
246.151
302.894
354.671
396.952
425.405
436.403
427.507
397.844
348.328
281.68
202.233
115.541
27.8316
-54.6268
-126.168
-182.299
-220.133
-238.632
-238.631
-222.653
-194.546
-158.988
-120.926
-85.0319
-55.2157
-34.2721
-23.6775
-23.555
-32.7976
-49.3191
-70.394
-93.0365
-114.37
-131.945
-143.972
-149.448
-148.176
-140.687
-128.079
-111.81
-93.474
-74.5809
-56.385
-39.7595
-25.1374
-12.5148
-1.50969
8.53676
18.4342
29.0095
40.9822
54.8644
70.8934
89.0023
108.83
129.762
151.007
171.674
190.872
207.795
221.8
232.454
239.569
243.199
243.622
241.29
236.775
230.696
223.65
216.148
208.563
201.09
193.734
186.311
178.476
169.775
159.698
147.757
133.553
116.843
97.5878
75.9789
52.4399
27.6016
2.25219
-22.7312
-46.4617
-68.1244
-87.0495
-102.77
-115.057
-123.928
-129.631
-132.601
-133.405
-132.673
-131.025
-129.01
-127.053
-125.425
-124.226
-123.398
-122.749
-121.997
-120.816
-118.888
-115.952
-111.835
-106.478
-99.9415
-92.3972
-84.1061
-75.3875
-66.5837
-58.0242
-49.9937
-42.7091
-36.3042
-30.8269
-26.2442
-22.4567
-19.3173
-16.6538
-14.2902
-12.0666
-9.85362
-7.56193
-5.14544
-2.59938
0.045893
2.73379
5.39128
7.9382
10.2949
12.3877
14.1527
15.5376
16.5034
17.0265
17.1014
16.7434
15.9922
14.9134
13.5976
12.1573
10.719
9.41309
8.36158
7.66524
7.39221
7.56956
8.17916
9.15863
10.4075
11.7976
13.1872
14.4362
15.4214
16.0488
16.2632
16.0522
15.4451
14.5077
13.3319
12.0231
10.6867
9.41456
8.27359
7.29773
6.48322
5.78765
5.13226
4.40672
3.47605
2.18902
0.387963
-2.08021
-5.35168
-9.53258
-14.6856
-20.8172
-27.8674
-35.7035
-44.1184
-52.8365
-61.5256
-69.8156
-77.322
-83.6731
-88.5367
-91.6462
-92.8205
-91.9793
-89.1487
-84.4593
-78.135
-70.4735
-61.8183
-52.5228
-42.905
-33.194
-23.4697
-13.6009
-3.19343
8.43764
22.2549
39.4285
61.202
88.696
122.67
163.27
209.815
260.652
313.137
363.766
408.444
442.895
463.147
466.037
449.668
413.73
359.657
290.567
211.003
126.486
42.9545
-33.8535
-98.986
-148.765
-181.111
-195.68
-193.793
-178.183
-152.607
-121.357
-88.7644
-58.7305
-34.3514
-17.6685
-9.56234
-9.79048
-17.1496
-29.7312
-45.2319
-61.2739
-75.6981
-86.7966
-93.462
-95.2448
-92.3212
-85.3843
-75.481
-63.8205
-51.5827
-39.7517
-28.9943
-19.596
-11.459
-4.15475
2.97956
10.7187
19.8212
30.9119
44.3911
60.3784
78.6954
98.8857
120.267
142.003
163.195
182.965
200.537
215.305
226.871
235.066
239.947
241.763
240.916
237.907
233.268
227.513
221.082
214.305
207.378
200.357
193.164
185.615
177.446
168.358
158.058
146.299
132.924
117.887
101.281
83.3443
64.4542
45.109
25.8956
7.44672
-9.60876
-24.6977
-37.3511
-47.2435
-54.2193
-58.303
-59.692
-58.7334
-55.8869
-51.6795
-46.6562
-41.332
-36.1516
-31.4591
-27.4806
-24.3212
-21.9739
-20.34
-19.2556
-18.5229
-17.9399
-17.3267
-16.5458
-15.5137
-14.2038
-12.6418
-10.8941
-9.0516
-7.21229
-5.46435
-3.87268
-2.47052
-1.2572
-0.202148
0.745744
1.64492
2.54632
3.47916
4.43994
5.38627
6.23734
6.88149
7.19088
7.04197
6.33967
5.04187
3.1803
0.873507
-1.67194
-4.17435
-6.30436
-7.72468
-8.13739
-7.33196
-5.2261
-1.89237
2.43532
7.37758
12.447
17.1028
20.8153
23.1317
23.7342
22.4824
19.4351
14.8477
9.14731
2.88773
-3.30923
-8.81926
-13.0801
-15.6481
-16.2402
-14.7588
-11.295
-6.1134
0.381423
7.69138
15.2787
22.6209
29.2616
34.8496
39.1653
42.1297
43.7975
44.3355
43.9906
43.0503
41.8028
40.4993
39.3241
38.3741
37.6501
37.0606
36.4361
35.5544
34.1718
32.0587
29.034
24.9964
19.9454
13.9932
7.36214
0.369144
-6.60116
-13.1329
-18.8195
-23.3047
-26.3165
-27.6914
-27.3824
-25.4472
-22.017
-17.2433
-11.2303
-3.95972
4.77786
15.4291
28.684
45.4265
66.6222
93.1441
125.553
163.858
207.305
254.228
302.012
347.199
385.745
413.415
426.273
421.208
396.415
351.756
288.946
211.503
124.483
34.0009
-53.3878
-131.378
-194.578
-239.068
-262.78
-265.658
-249.58
-218.065
-175.812
-128.126
-80.3129
-37.1187
-2.26938
21.8354
34.2533
35.4533
27.1121
11.7922
-7.45029
-27.4746
-45.4309
-59.06
-66.8893
-68.3121
-63.551
-53.5234
-39.6356
-23.5373
-6.87345
8.93588
22.8621
34.3642
43.4102
50.4254
56.1845
61.6633
67.8746
75.7108
85.8134
98.4842
113.647
130.861
149.382
168.259
186.451
202.953
216.904
227.681
234.948
238.678
239.128
236.782
232.273
226.289
219.472
212.333
205.193
198.144
191.054
183.597
175.321
165.734
154.393
140.996
125.452
107.926
88.8502
68.8933
48.9027
29.8179
12.57
-2.02039
-13.333
-21.0153
-25.0183
-25.5974
-23.2782
-18.7938
-13.0011
-6.78692
-0.975898
3.74871
6.90375
8.23818
7.73675
5.59737
2.18705
-2.01637
-6.48845
-10.7201
-14.2705
-16.8055
-18.1194
-18.1394
-16.9152
-14.5968
-11.4054
-7.60334
-3.46452
0.74816
4.79947
8.49124
11.666
14.2065
16.0336
17.1036
17.4058
16.9616
15.8233
14.072
11.8149
9.17913
6.30515
3.33739
0.415224
-2.33545
-4.80879
-6.92308
-8.62205
-9.87422
-10.6709
-11.0238
-10.9641
-10.5416
-9.8252
-8.90382
-7.88559
-6.89541
-6.06946
-5.54667
-5.45748
-5.91106
-6.98244
-8.70136
-11.0445
-13.9327
-17.2328
-20.7664
-24.3222
-27.6723
-30.5907
-32.8711
-34.343
-34.8843
-34.4288
-32.9687
-30.5526
-27.2784
-23.2838
-18.7348
-13.8138
-8.70937
-3.60753
1.31465
5.89303
9.97926
13.4431
16.1754
18.0914
19.1361
19.2882
18.5648
17.0235
14.7621
11.9139
8.6406
5.12159
1.54087
-1.9265
-5.12745
-7.94209
-10.2916
-12.1427
-13.5072
-14.4384
-15.0234
-15.3722
-15.6053
-15.8401
-16.1755
-16.6772
-17.3606
-18.1716
-18.9635
-19.4695
-19.273
-17.78
-14.2028
-7.56693
3.24438
19.4003
41.9816
71.7968
109.174
153.76
204.357
258.841
314.196
366.665
412.043
446.069
464.892
465.543
446.359
407.28
349.989
277.845
195.62
109.054
24.2901
-52.7495
-116.968
-164.601
-193.569
-203.626
-196.31
-174.684
-142.925
-105.809
-68.1592
-34.3252
-7.75185
9.31681
15.9741
12.6239
0.805987
-17.0927
-38.1981
-59.5305
-78.3607
-92.5005
-100.499
-101.732
-96.38
-85.3139
-69.9099
-51.821
-32.7414
-14.1911
2.65294
17.0629
28.7976
38.0732
45.4781
51.8502
58.1352
65.2481
73.9531
84.776
97.9561
113.437
130.897
149.797
169.458
189.135
208.087
225.634
241.205
254.356
264.779
272.293
276.826
278.395
277.084
273.023
266.378
257.342
246.134
232.997
218.201
202.038
184.824
166.885
148.551
130.145
111.968
94.2925
77.3491
61.3235
46.3533
32.5284
19.8942
8.45551
-1.81831
-10.9892
-19.1466
-26.4034
-32.8913
-38.7531
-44.131
-49.1508
-53.9037
-58.4271
-62.6908
-66.5899
-69.9494
-72.5409
-74.1107
-74.4155
-73.2603
-70.5337
-66.2332
-60.476
-53.494
-45.6122
-37.2138
-28.6973
-20.4333
-12.7258
-5.78593
0.280034
5.46725
9.85515
13.5807
16.807
19.6932
22.3687
24.9173
27.3699
29.7082
31.8755
33.7934
35.38
36.5676
37.3163
37.6223
37.5197
37.076
36.3828
35.5423
34.652
33.7896
33.0001
32.287
31.6088
30.8827
29.9942
28.8133
27.2147
25.0991
22.4139
19.168
15.4395
11.3729
7.16624
3.04843
-0.750714
-4.03324
-6.66413
-8.59519
-9.8777
-10.6607
-11.1743
-11.7
-12.5308
-13.9284
-16.0807
-19.0691
-22.8475
-27.2384
-31.947
-36.5928
-40.7547
-44.0265
-46.0728
-46.681
-45.8006
-43.5636
-40.2843
-36.4355
-32.6044
-29.4319
-27.5416
-27.467
-29.5843
-34.0597
-40.8167
-49.5284
-59.6369
-70.398
-80.9471
-90.38
-97.839
-102.597
-104.128
-102.159
-96.6963
-88.0242
-76.6721
-63.3597
-48.9196
-34.2068
-20.0019
-6.918
4.68531
14.7705
23.6691
32.099
41.143
52.1788
66.7541
86.4025
112.41
145.555
185.85
232.345
283.024
334.844
383.933
425.938
456.491
471.739
468.848
446.424
404.774
345.964
273.669
192.825
109.128
28.4485
-43.7669
-103.034
-146.248
-171.932
-180.299
-173.13
-153.483
-125.29
-92.8813
-60.5098
-31.9113
-9.96556
3.52096
7.89296
3.58813
-8.03754
-24.9691
-44.8376
-65.2294
-83.9626
-99.3012
-110.088
-115.793
-116.473
-112.675
-105.281
-95.3447
-83.9211
-71.9257
-60.0314
-48.6134
-37.7428
-27.2243
-16.6674
-5.57809
6.54371
20.1152
35.4006
52.4686
71.1801
91.2059
112.069
133.205
154.031
174.012
192.718
209.864
225.321
239.114
251.384
262.345
272.217
281.172
289.276
296.448
302.447
306.881
309.235
308.932
305.401
298.158
286.88
271.467
252.088
229.196
203.514
175.994
147.743
119.942
93.7423
70.1708
50.0435
33.8984
21.9569
14.1165
9.97513
8.8854
10.0306
12.5151
15.4578
18.0788
19.7691
20.1369
19.0267
16.5099
12.8511
8.45428
3.79857
-0.629888
-4.40015
-7.18648
-8.80085
-9.20556
-8.50605
-6.92652
-4.77279
-2.38841
-0.10994
1.77233
3.04384
3.58224
3.36011
2.43507
0.930211
-0.991272
-3.15288
-5.38913
-7.56428
-9.58381
-11.398
-12.9987
-14.4104
-15.6786
-16.8569
-17.9957
-19.133
-20.2888
-21.4631
-22.6369
-23.7752
-24.8322
-25.7566
-26.4973
-27.0088
-27.2567
-27.2214
-26.9022
-26.3199
-25.5169
-24.5564
-23.5179
-22.4905
-21.5635
-20.8144
-20.2978
-20.0334
-19.9983
-20.1225
-20.2911
-20.3518
-20.1286
-19.4408
-18.1238
-16.0508
-13.1514
-9.42477
-4.94503
0.141552
5.62842
11.2677
16.7942
21.9511
26.5147
30.3138
33.2429
35.2663
36.4129
36.7637
36.4315
35.5384
34.1927
32.47
30.4015
27.9728
25.1328
21.8135
17.9546
13.5318
8.57996
3.20973
-2.38905
-7.95641
-13.184
-17.7463
-21.3356
-23.6959
-24.649
-24.107
-22.0682
-18.5938
-13.767
-7.63609
-0.151687
8.89449
19.9127
33.5255
50.5304
71.8055
98.1586
130.131
167.783
210.496
256.827
304.47
350.331
390.744
421.809
439.825
441.75
425.64
390.99
338.928
272.212
195.042
112.674
30.9103
-44.4967
-108.434
-156.951
-187.64
-199.843
-194.653
-174.719
-143.888
-106.73
-68.0096
-32.1634
-2.85469
17.3582
27.2026
26.7131
17.1037
0.51696
-20.3103
-42.4186
-62.987
-79.6429
-90.6889
-95.2262
-93.1706
-85.1688
-72.4355
-56.5372
-39.1562
-21.8636
-5.93008
7.80605
19.0033
27.8109
34.7994
40.8423
46.9675
54.2002
63.4174
75.2324
89.9214
107.397
127.23
148.71
170.933
192.913
213.68
232.381
248.348
261.147
270.582
276.692
279.698
279.957
277.888
273.909
268.375
261.534
253.503
244.265
233.694
221.596
207.767
192.052
174.406
154.937
133.931
111.845
89.283
66.9421
45.544
25.7619
8.14949
-6.91532
-19.2648
-28.95
-36.222
-41.4899
-45.2614
-48.0748
-50.4313
-52.7374
-55.263
-58.1208
-61.2683
-64.5305
-67.6381
-70.2773
-72.1411
-72.9772
-72.6255
-71.0405
-68.2981
-64.5849
-60.1746
-55.3939
-50.584
-46.0625
-42.0905
-38.8483
-36.4231
-34.8073
-33.9089
-33.5695
-33.5887
-33.7501
-33.8459
-33.6981
-33.1726
-32.1874
-30.7125
-28.7659
-26.4035
-23.708
-20.7772
-17.7133
-14.6137
-11.5657
-8.64154
-5.89755
-3.37315
-1.09205
0.935823
2.71127
4.24185
5.53719
6.60435
7.44391
8.04776
8.39967
8.47875
8.2659
7.7522
6.94767
5.8883
4.63953
3.2951
1.97117
0.797048
-0.0955894
-0.582677
-0.555463
0.0748635
1.37531
3.39092
6.14492
9.63786
13.845
18.7117
24.1475
30.0199
36.1508
42.3163
48.2519
53.6653
58.2546
61.7322
63.851
64.4301
63.3765
60.6988
56.5125
51.0336
44.5622
37.457
30.1032
22.878
16.117
10.0862
4.96217
0.824916
-2.33709
-4.60821
-6.11576
-6.99181
-7.33076
-7.14675
-6.33521
-4.64229
-1.64616
3.24546
10.7762
21.7949
37.1764
57.7079
83.9426
116.032
153.557
195.389
239.613
283.547
323.874
356.901
378.912
386.595
377.469
350.268
305.199
244.052
170.115
87.9153
2.792
-79.6261
-153.988
-215.759
-261.656
-289.94
-300.53
-294.916
-275.923
-247.32
-213.359
-178.295
-145.93
-119.255
-100.207
-89.565
-86.9956
-91.213
-100.238
-111.711
-123.217
-132.584
-138.119
-138.758
-134.13
-124.517
-110.744
-94.0093
-75.6852
-57.1208
-39.467
-23.548
-9.78822
1.80092
11.5789
20.1906
28.4519
37.2234
47.2898
59.2579
73.4844
90.0384
108.701
128.998
150.257
171.688
192.461
211.793
229.012
243.609
255.26
263.833
269.365
272.025
272.077
269.827
265.585
259.636
252.216
243.506
233.634
222.68
210.689
197.685
183.688
168.725
152.844
136.132
118.723
100.81
82.6515
64.5676
46.9336
30.1579
14.6536
0.802142
-11.0859
-20.8063
-28.2882
-33.6074
-36.9815
-38.7481
-39.3264
-39.1685
-38.7056
-38.2978
-38.1936
-38.5048
-39.2014
-40.1248
-41.0185
-41.5719
-41.47
-40.4426
-38.3068
-34.9968
-30.578
-25.2442
-19.2978
-13.1182
-7.11981
-1.70865
2.76021
6.0172
7.90217
8.37539
7.51538
5.50524
2.61013
-0.85054
-4.53255
-8.09497
-11.2245
-13.655
-15.1825
-15.6753
-15.0804
-13.4272
-10.8273
-7.47043
-3.61505
0.426411
4.30926
7.68401
10.2283
11.6799
11.8683
10.7384
8.36483
4.95241
0.822008
-3.61752
-7.90848
-11.5903
-14.2466
-15.5482
-15.2857
-13.3892
-9.93118
-5.11376
0.75788
7.31268
14.1561
20.9122
27.261
32.9655
37.8874
41.9883
45.3181
47.9925
50.1628
51.9817
53.5715
54.9973
56.2502
57.2424
57.8158
57.7623
56.8541
54.8793
51.6779
47.173
41.3924
34.4773
26.6765
18.3271
9.82391
1.58134
-6.0067
-12.6041
-17.9625
-21.9387
-24.4989
-25.7063
-25.6922
-24.6134
-22.5972
-19.679
-15.743
-10.4729
-3.32686
6.45255
19.7855
37.6546
60.9629
90.3595
126.054
167.645
213.981
263.108
312.292
358.163
396.968
424.92
438.6
435.384
413.814
373.873
317.116
246.616
166.741
82.7622
0.353869
-74.9719
-138.413
-186.346
-216.664
-228.937
-224.384
-205.665
-176.521
-141.323
-104.565
-70.3839
-42.1494
-22.1705
-11.5425
-10.1438
-16.7713
-29.388
-45.4442
-62.2295
-77.2105
-88.3153
-94.1353
-94.0267
-88.1085
-77.1654
-62.4766
-45.5979
-28.1291
-11.4969
3.21964
15.4027
24.9381
32.1878
37.8992
43.0701
48.7874
56.0647
65.6973
78.1547
93.5202
111.484
131.387
152.307
173.173
192.897
210.495
225.195
236.509
244.269
248.615
249.95
248.861
246.017
242.068
237.549
232.811
227.977
222.94
217.394
210.896
202.947
193.084
180.965
166.436
149.581
130.731
110.447
89.4717
68.6596
48.8911
30.9858
15.6219
3.27236
-5.83553
-11.7326
-14.6927
-15.1915
-13.8467
-11.3456
-8.37019
-5.52814
-3.297
-1.98769
-1.72973
-2.47887
-4.04436
-6.13156
-8.39328
-10.4834
-12.1056
-13.0517
-13.2257
-12.6504
-11.4583
-9.867
-8.14469
-6.56921
-5.38744
-4.78008
-4.83661
-5.54398
-6.79041
-8.38362
-10.0808
-11.6259
-12.7876
-13.3943
-13.3586
-12.6888
-11.4866
-9.93019
-8.24653
-6.67686
-5.44065
-4.70314
-4.55103
-4.97953
-5.89232
-7.11415
-8.41416
-9.53675
-10.2357
-10.3072
-9.61787
-8.12378
-5.87859
-3.02968
0.19767
3.52631
6.66085
9.3253
11.3003
12.4554
12.7728
12.3574
11.4337
10.3267
9.42988
9.16355
9.92732
12.053
15.7624
21.1357
28.0919
36.3854
45.6177
55.2637
64.7101
73.3041
80.4067
85.4477
87.977
87.7073
84.5442
78.5984
70.1804
59.7753
48.0001
35.5488
23.1282
11.3941
0.892745
-7.98593
-15.0367
-20.2482
-23.7903
-25.9827
-27.2483
-28.0568
-28.8632
-30.0492
-31.8694
-34.4055
-37.5315
-40.8886
-43.8722
-45.6335
-45.0994
-41.0191
-32.0426
-16.8389
5.74675
36.5042
75.655
122.664
176.096
233.563
291.775
346.729
394.022
429.261
448.546
448.934
428.853
388.377
329.342
255.247
170.973
82.323
-4.54084
-83.7175
-150.152
-200.123
-231.573
-244.247
-239.624
-220.669
-191.426
-156.514
-120.599
-87.8846
-61.6981
-44.2
-36.2516
-37.4404
-46.2513
-60.3513
-76.9468
-93.1636
-106.404
-114.639
-116.606
-111.895
-100.927
-84.8244
-65.2153
-43.9856
-23.0211
-3.97081
11.9431
24.0473
32.2619
37.0674
39.4046
40.5227
41.8003
44.5612
49.9102
58.6062
70.9863
86.9464
105.976
127.241
149.693
172.205
193.689
213.212
230.066
243.815
254.292
261.57
265.905
267.665
267.259
265.064
261.385
256.419
250.253
242.882
234.231
224.2
212.699
199.682
185.176
169.29
152.224
134.262
115.761
97.1263
78.799
61.225
44.8329
30.0091
17.0752
6.2685
-2.27325
-8.5207
-12.5547
-14.5603
-14.8125
-13.6554
-11.4755
-8.67219
-5.62815
-2.68166
-0.104557
1.91294
3.26903
3.94857
4.01329
3.58537
2.82622
1.91284
1.01408
0.269181
-0.228836
-0.443208
-0.395254
-0.157531
0.161032
0.436105
0.551922
0.424331
0.0188996
-0.63943
-1.46731
-2.33498
-3.08773
-3.57356
-3.67254
-3.32296
-2.53987
-1.42268
-0.150567
1.03369
1.84872
2.00465
1.23376
-0.682117
-3.89037
-8.45417
-14.3469
-21.4542
-29.5815
-38.4668
-47.7955
-57.2182
-66.3684
-74.8811
-82.411
-88.6507
-93.3487
-96.3241
-97.4806
-96.814
-94.4155
-90.4672
-85.2305
-79.0271
-72.2137
-65.153
-58.1818
-51.5814
-45.5519
-40.1946
-35.5048
-31.377
-27.6216
-23.9929
-20.2249
-16.0697
-11.3353
-5.91651
0.183881
6.84755
13.847
20.8656
27.5285
33.4412
38.2313
41.5871
43.2916
43.2451
41.4759
38.1386
33.4993
27.9112
21.782
15.5385
9.58967
4.29307
-0.0723525
-3.32543
-5.3909
-6.29536
-6.15019
-5.12173
-3.39062
-1.10291
1.68305
5.04919
9.26403
14.8153
22.4194
32.9977
47.6088
67.3314
93.0995
125.501
164.564
209.57
258.926
310.135
359.905
404.381
439.507
461.468
467.159
454.618
423.347
374.48
310.76
236.314
156.262
76.192
1.58411
-62.7577
-113.186
-147.548
-165.34
-167.665
-157.015
-136.891
-111.345
-84.4817
-59.991
-40.7754
-28.6997
-24.4909
-27.7856
-37.3043
-51.1202
-66.9768
-82.6111
-96.0399
-105.777
-110.96
-111.386
-107.455
-100.036
-90.2967
-79.498
-68.807
-59.1324
-51.0107
-44.5501
-39.435
-34.9862
-30.2665
-24.215
-15.7938
-4.12808
11.3777
30.9598
54.4597
81.3358
110.718
141.495
172.427
202.261
229.844
254.213
274.666
290.788
302.459
309.824
313.238
313.203
310.282
305.033
297.929
289.321
279.401
268.21
255.663
241.602
225.858
208.325
189.021
168.134
146.042
123.301
100.602
78.6996
58.329
40.1108
24.4717
11.5848
1.34471
-6.62094
-12.9008
-18.2193
-23.3362
-28.9412
-35.5591
-43.4776
-52.7103
-62.9964
-73.8388
-84.574
-94.4625
-102.787
-108.947
-112.532
-113.374
-111.56
-107.42
-101.48
-94.3991
-86.8867
-79.6252
-73.197
-68.0285
-64.3555
-62.2125
-61.4459
-61.7462
-62.6952
-63.8217
-64.658
-64.7916
-63.9078
-61.8182
-58.4755
-53.9719
-48.5243
-42.4478
-36.1185
-29.933
-24.2639
-19.421
-15.6178
-12.9513
-11.3941
-10.8035
-10.9424
-11.5128
-12.1951
-12.6886
-12.7482
-12.2122
-11.0179
-9.20407
-6.8996
-4.30158
-1.64513
0.830243
2.91381
4.45216
5.36988
5.68003
5.48343
4.95695
4.33238
3.8684
3.81884
4.40099
5.76779
7.98731
11.0325
14.7825
19.0356
23.5318
27.9806
32.0913
35.5988
38.2841
39.9858
40.6029
40.0908
38.4523
35.7272
31.9837
27.3136
21.8327
15.6859
9.05374
2.15945
-4.72922
-11.3048
-17.2336
-22.1767
-25.8162
-27.8816
-28.1687
-26.5472
-22.9502
-17.3477
-9.70582
0.056427
12.1021
26.6876
44.1397
64.7905
88.8735
116.391
146.976
179.772
213.367
245.804
274.692
297.407
311.379
314.42
305.05
282.765
248.201
203.16
150.484
93.793
37.1158
-15.5329
-60.5757
-95.2388
-117.816
-127.801
-125.879
-113.781
-94.0329
-69.6268
-43.6703
-19.046
1.87319
17.4265
26.7676
29.8654
27.4102
20.6481
11.1675
0.669995
-9.24616
-17.2658
-22.4811
-24.4517
-23.2004
-19.1519
-13.0276
-5.71573
1.86601
8.8966
14.7525
19.0732
21.7869
23.0969
23.4345
23.3854
23.6029
24.7162
27.2476
31.546
37.7444
45.7448
55.2302
65.701
76.5299
87.0269
96.5074
104.354
110.07
113.308
113.898
111.837
107.283
100.524
91.9467
82.0001
71.1614
59.9048
48.6749
37.8668
27.8108
18.7611
10.8891
4.27963
-1.06861
-5.23864
-8.38598
-10.7244
-12.5074
-14.0054
-15.4821
-17.1696
-19.2469
-21.8214
-24.9171
-28.4701
-32.3324
-36.2845
-40.0552
-43.3491
-45.8768
-47.3862
-47.6906
-46.6905
-44.386
-40.8791
-36.3647
-31.112
-25.4383
-19.6793
-14.1576
-9.15484
-4.88899
-1.49881
0.96286
2.52762
3.30241
3.45397
3.18843
2.72793
2.28613
2.04514
2.13597
2.62481
3.50676
4.70787
6.09552
7.49588
8.71646
9.57101
9.90371
9.60972
8.64958
7.05591
4.93155
2.43971
-0.212688
-2.7963
-5.08271
-6.86709
-7.98754
-8.33906
-7.88069
-6.63522
-4.68172
-2.14211
0.836508
4.10119
7.51159
10.9548
14.3549
17.6749
20.9122
24.0863
27.2218
30.3277
33.3773
36.2917
38.9309
41.0948
42.5357
42.9819
42.1699
39.8806
35.9759
30.4282
23.34
14.948
5.61116
-4.21854
-14.0384
-23.3461
-31.6926
-38.7289
-44.2412
-48.168
-50.5974
-51.7452
-51.9163
-51.4556
-50.6936
-49.8939
-49.2077
-48.6381
-48.0167
-46.9922
-45.0321
-41.439
-35.3821
-25.9525
-12.2421
6.54827
30.9745
61.1988
96.8405
136.853
179.46
222.172
261.914
295.254
318.733
329.245
324.436
303.046
265.155
212.283
147.323
74.3034
-1.982
-76.4489
-144.228
-201.145
-244.118
-271.424
-282.803
-279.404
-263.577
-238.55
-208.027
-175.773
-145.215
-119.121
-99.3826
-86.9061
-81.636
-82.6786
-88.5101
-97.234
-106.853
-115.521
-121.745
-124.523
-123.401
-118.456
-110.215
-99.5227
-87.3943
-74.854
-62.7994
-51.8959
-42.5148
-34.7166
-28.2773
-22.7473
-17.5335
-11.9904
-5.50755
2.41458
12.1093
23.7113
37.1471
52.1483
68.2807
84.9881
101.642
117.594
132.228
145.001
155.48
163.365
168.5
170.873
170.605
167.931
163.176
156.724
148.989
140.386
131.303
122.082
112.998
104.254
95.9722
88.1967
80.8982
73.9844
67.3126
60.7067
53.9751
46.932
39.4187
31.3254
22.6105
13.3169
3.58226
-6.35932
-16.186
-25.5082
-33.901
-40.9458
-46.2788
-49.6404
-50.9188
-50.1805
-47.6819
-43.8581
-39.2866
-34.629
-30.5561
-27.6661
-26.4042
-26.9979
-29.4154
-33.3547
-38.2682
-43.4196
-47.9696
-51.0791
-52.0194
-50.2735
-45.6169
-38.1641
-28.3749
-17.0159
-5.08112
6.31861
16.0853
23.2653
27.1653
27.4389
24.1305
17.6734
8.84065
-1.3445
-11.7252
-21.1416
-28.5583
-33.1733
-34.4971
-32.3934
-27.0805
-19.0938
-9.21868
1.59951
12.3559
22.0872
29.9649
35.3708
37.9518
37.6484
34.6955
29.5971
23.0739
15.9917
9.27214
3.79796
0.318163
-0.63436
1.19553
5.75255
12.6721
21.3163
30.8411
40.2876
48.6867
55.1645
59.0357
59.8746
57.5547
52.2539
44.4238
34.7301
23.9702
12.9806
2.54569
-6.6811
-14.2335
-19.8609
-23.5278
-25.386
-25.7268
-24.9208
-23.3559
-21.3805
-19.2608
-17.1543
-15.1007
-13.0257
-10.7504
-7.9993
-4.39751
0.541285
7.43227
17.0269
30.1914
47.8375
70.7958
99.6355
134.453
174.666
218.869
264.779
309.32
348.858
379.548
397.786
400.672
386.443
354.78
306.965
245.842
175.575
101.253
28.3599
-37.7956
-92.6411
-132.81
-156.47
-163.467
-155.277
-134.779
-105.868
-72.9768
-40.5513
-12.5578
7.93299
19.032
20.1619
12.0246
-3.57999
-24.0549
-46.3803
-67.5119
-84.7526
-96.0535
-100.213
-96.9574
-86.899
-71.3931
-52.313
-31.7812
-11.893
5.53438
19.156
28.2213
32.6131
32.8078
29.769
24.7926
19.3272
14.7933
12.4215
13.1286
17.4387
25.4573
36.8926
51.1181
67.2651
84.3312
101.291
117.198
131.264
142.918
151.828
157.899
161.246
162.147
160.98
158.166
154.108
149.146
143.528
137.39
130.768
123.612
115.817
107.261
97.843
87.5144
76.309
64.3556
51.8804
39.1955
26.677
14.734
3.77398
-5.83232
-13.7826
-19.8689
-23.9949
-26.1847
-26.5825
-25.443
-23.1135
-20.0089
-16.5806
-13.2811
-10.5264
-8.65957
-7.91881
-8.41313
-10.1092
-12.8315
-16.2774
-20.0459
-23.6784
-26.7073
-28.7074
-29.3442
-28.4134
-25.8661
-21.8171
-16.5346
-10.413
-3.9309
2.39892
8.08302
12.6972
15.9274
17.5976
17.6815
16.298
13.6924
10.2042
6.2283
2.17206
-1.58555
-4.72951
-7.03504
-8.38274
-8.76177
-8.26138
-7.05275
-5.36332
-3.44707
-1.55387
0.0985371
1.34723
2.09885
2.33505
2.10804
1.52673
0.735487
-0.111663
-0.87752
-1.46463
-1.83067
-1.99331
-2.02309
-2.02498
-2.11128
-2.37033
-2.83665
-3.46799
-4.13424
-4.62109
-4.64926
-3.90739
-2.09477
1.03198
5.61466
11.6584
19.0113
27.362
36.2583
45.1426
53.4039
60.4373
65.7054
68.794
69.4551
67.6314
63.4608
57.2594
49.4857
40.6905
31.4589
22.351
13.8489
6.31466
-0.0348793
-5.13568
-9.06616
-12.0214
-14.2755
-16.1384
-17.9105
-19.8417
-22.0983
-24.7381
-27.6949
-30.7714
-33.6354
-35.8215
-36.7348
-35.6611
-31.7869
-24.2354
-12.1252
5.34476
28.7822
58.4677
94.2116
135.225
180.03
226.439
271.622
312.286
344.947
366.279
373.504
364.761
339.412
298.221
243.378
178.363
107.637
36.2135
-30.8414
-88.9317
-134.395
-164.863
-179.468
-178.882
-165.177
-141.542
-111.884
-80.3693
-50.9627
-27.0145
-10.9444
-4.04977
-6.45339
-17.1858
-34.383
-55.5676
-77.9744
-98.8806
-115.903
-127.234
-131.789
-129.267
-120.119
-105.432
-86.7566
-65.9003
-44.7041
-24.8379
-7.63021
6.05256
15.8655
21.9835
25.0424
26.0336
26.1659
26.7131
28.8624
33.582
41.5178
52.931
67.679
85.239
104.771
125.209
145.372
164.082
180.271
193.079
201.919
206.518
206.921
203.465
196.728
187.455
176.479
164.63
152.659
141.171
130.58
121.083
112.667
105.127
98.1146
91.1959
83.9146
75.8574
66.7114
56.3075
44.6454
31.8988
18.3998
4.60485
-8.95273
-21.7189
-33.1758
-42.8942
-50.5746
-56.0737
-59.4128
-60.7692
-60.4518
-58.8641
-56.4598
-53.6964
-50.9917
-48.6868
-47.02
-46.1123
-45.9639
-46.4627
-47.4002
-48.4953
-49.4226
-49.8439
-49.4404
-47.9448
-45.1698
-41.0322
-35.5685
-28.942
-21.4379
-13.447
-5.43783
2.08107
8.60595
13.6858
16.969
18.2442
17.4699
14.7902
10.5314
5.18038
-0.656547
-6.30967
-11.1132
-14.4762
-15.9494
-15.2805
-12.4507
-7.68662
-1.4466
5.62032
12.7379
19.0833
23.8757
26.4634
26.4003
23.5014
17.871
9.8999
0.230408
-10.3078
-20.7843
-30.2673
-37.9251
-43.1161
-45.4576
-44.8642
-41.5505
-35.9986
-28.8939
-21.0381
-13.2516
-6.27615
-0.693029
3.13616
5.09736
5.3195
4.13944
2.0426
-0.411634
-2.66935
-4.25574
-4.83393
-4.24243
-2.50783
0.167227
3.4378
6.86662
9.9836
12.3474
13.602
13.5229
12.0462
9.28064
5.49856
1.1084
-3.38866
-7.45322
-10.5671
-12.2907
-12.3121
-10.4811
-6.82585
-1.54935
4.99311
12.3318
19.9313
27.2434
33.7593
39.0539
42.8183
44.879
45.2007
43.8761
41.1038
37.1581
32.3552
27.0201
21.4568
15.9259
10.6305
5.7109
1.24879
-2.72226
-6.20105
-9.2011
-11.7339
-13.7956
-15.3592
-16.3726
-16.7639
-16.4505
-15.3511
-13.3957
-10.5305
-6.71128
-1.88455
4.04506
11.2557
20.0485
30.8716
44.3136
61.0502
81.7384
106.862
136.551
170.396
207.316
245.5
282.457
315.196
340.503
355.316
357.11
344.268
316.362
274.304
220.334
157.852
91.0938
24.7073
-36.7274
-89.1701
-129.525
-155.931
-167.903
-166.316
-153.235
-131.621
-104.954
-76.8261
-50.5427
-28.796
-13.4277
-5.3113
-4.35555
-9.61856
-19.5101
-32.0496
-45.1452
-56.8564
-65.6125
-70.3632
-70.6495
-66.5952
-58.8257
-48.3337
-36.3119
-23.9782
-12.4153
-2.44376
5.45827
11.1841
14.9767
17.3646
19.0669
20.8833
23.5837
27.8124
34.0157
42.4018
52.9319
65.3431
79.1951
93.9318
108.951
123.668
137.572
150.263
161.467
171.033
178.916
185.141
189.77
192.858
194.43
194.46
192.866
189.527
184.303
177.071
167.763
156.402
143.124
128.192
111.997
95.0328
77.8707
61.1113
45.3369
31.0614
18.6841
8.4542
0.448876
-5.43091
-9.44492
-11.9795
-13.498
-14.481
-15.3654
-16.4893
-18.0519
-20.0939
-22.5018
-25.0348
-27.3709
-29.1644
-30.1067
-29.9802
-28.6992
-26.3294
-23.0854
-19.3069
-15.4144
-11.8548
-9.04106
-7.29512
-6.8026
-7.5838
-9.48598
-12.198
-15.2856
-18.2443
-20.5614
-21.7823
-21.5702
-19.7532
-16.3518
-11.5829
-5.84058
0.346292
6.37223
11.6237
15.549
17.7206
17.8836
15.9832
12.1695
6.77873
0.294439
-6.70718
-13.6198
-19.8705
-24.9769
-28.591
-30.5267
-30.7673
-29.4549
-26.8625
-23.3551
-19.3434
-15.2369
-11.4016
-8.12698
-5.60413
-3.91819
-3.05286
-2.90603
-3.31327
-4.07538
-4.98638
-5.85845
-6.54113
-6.93326
-6.98697
-6.70426
-6.1277
-5.32701
-4.38394
-3.37758
-2.37201
-1.4076
-0.496919
0.374516
1.24291
2.15697
3.16593
4.30649
5.59038
6.99439
8.45448
9.86517
11.085
11.9482
12.2812
11.9245
10.7551
8.70934
5.80099
2.13245
-2.10412
-6.63703
-11.1367
-15.2468
-18.6215
-20.9637
-22.0597
-21.8046
-20.2159
-17.4319
-13.6965
-9.33126
-4.69999
-0.168568
3.93343
7.3458
9.9019
11.5421
12.3158
12.3735
11.9496
11.3389
10.8695
10.8725
11.6509
13.4486
16.4215
20.6105
25.9224
32.1192
38.8219
45.53
51.6595
56.5954
59.7574
60.6693
59.024
54.7349
47.9663
39.1345
28.8801
18.0105
7.41991
-2.00502
-9.48236
-14.4225
-16.4948
-15.6644
-12.193
-6.60258
0.394471
7.99286
15.4083
21.9962
27.3604
31.4406
34.5637
37.4503
41.1689
47.0355
56.4614
70.7607
90.9338
117.452
150.074
187.717
228.427
269.449
307.416
338.648
359.535
366.953
358.676
333.713
292.53
237.109
170.827
98.1685
24.2918
-45.4915
-106.266
-154.021
-186.05
-201.207
-199.972
-184.344
-157.554
-123.67
-87.1137
-52.1722
-22.551
-1.02008
10.8108
12.5711
5.06436
-9.92351
-29.9104
-52.0575
-73.5189
-91.7605
-104.814
-111.442
-111.206
-104.439
-92.1256
-75.7317
-56.9857
-37.6578
-19.3543
-3.35109
9.51915
18.918
24.9917
28.308
29.7514
30.3928
31.3512
33.6624
38.1685
45.4381
55.7214
68.9417
84.7197
102.426
121.251
140.288
158.613
175.364
189.803
201.362
209.673
214.573
216.094
214.442
209.958
203.08
194.292
184.087
172.929
161.218
149.28
137.349
125.574
114.031
102.735
91.6679
80.8002
70.1116
59.6087
49.3356
39.3766
29.8505
20.8992
12.6713
5.30333
-1.09754
-6.4677
-10.7957
-14.1245
-16.5469
-18.1948
-19.2255
-19.804
-20.0875
-20.2113
-20.2786
-20.3557
-20.4713
-20.6203
-20.7703
-20.8701
-20.8592
-20.6759
-20.2655
-19.5861
-18.6126
-17.3394
-15.7805
-13.9684
-11.9513
-9.78976
-7.55167
-5.30772
-3.12639
-1.06961
0.810695
2.47484
3.89608
5.05996
5.96233
6.60658
7.0006
7.15406
7.07652
6.77678
6.26344
5.5466
4.64021
3.56444
2.34738
1.02566
-0.356726
-1.75107
-3.10828
-4.38401
-5.54406
-6.56887
-7.45639
-8.22242
-8.8982
-9.52524
-10.1481
-10.8058
-11.5239
-12.3076
-13.1376
-13.9697
-14.7379
-15.3612
-15.7528
-15.8312
-15.5305
-14.8096
-13.6584
-12.0999
-10.1893
-8.0083
-5.65765
-3.24768
-0.888718
1.31757
3.28499
4.94733
6.26046
7.20219
7.77053
7.9808
7.86217
7.4541
6.80297
5.95904
4.97387
3.89834
2.78139
1.66958
0.607407
-0.361682
-1.19406
-1.84486
-2.26774
-2.41575
-2.24365
-1.7116
-0.789776
0.536737
2.26349
4.3636
6.78667
9.46011
12.2929
15.1817
18.0181
20.6979
23.1285
25.2372
26.9764
28.3266
29.2967
29.921
30.254
30.3628
30.3181
30.1855
30.017
29.8439
29.6732
29.4863
29.2414
28.8785
28.328
27.5194
26.3913
24.8997
23.0239
20.7698
18.1689
15.2737
12.1506
8.87101
5.50233
2.10006
-1.29678
-4.66677
-8.00316
-11.3075
-14.5806
-17.8133
-20.977
-24.0178
-26.8525
-29.3694
-31.4297
-32.8708
-33.5059
-33.1203
-31.4612
-28.2216
-23.0232
-15.4039
-4.82018
9.32537
27.6233
50.5589
78.3819
110.958
147.628
187.099
227.411
265.994
299.831
325.724
340.637
342.073
328.433
299.301
255.608
199.644
134.898
65.7557
-2.92796
-66.3166
-120.087
-160.865
-186.552
-196.501
-191.527
-173.759
-146.349
-113.086
-77.9602
-44.7388
-16.5896
4.19502
16.3556
19.6954
14.9896
3.79607
-11.7996
-29.4696
-46.9231
-62.1471
-73.5876
-80.2554
-81.7551
-78.2439
-70.3328
-58.9507
-45.1914
-30.1641
-14.8641
-0.0774698
13.6756
26.155
37.3783
47.5691
57.0854
66.3413
75.731
85.5668
96.0353
107.178
118.893
130.962
143.086
154.934
166.192
176.602
185.994
194.297
201.533
207.798
213.225
217.94
222.02
225.448
228.09
229.677
229.822
228.047
223.844
216.737
206.367
192.558
175.381
155.183
132.588
108.465
83.8585
59.897
37.6856
18.1971
2.17434
-9.94286
-18.0584
-22.422
-23.593
-22.371
-19.7005
-16.5635
-13.8714
-12.3692
-12.5636
-14.6802
-18.6556
-24.1617
-30.6581
-37.4663
-43.8557
-49.1311
-52.7139
-54.2064
-53.4339
-50.461
-45.5799
-39.2735
-32.1587
-24.9153
-18.2102
-12.6258
-8.59936
-6.38122
-6.01506
-7.34206
-10.0271
-13.6034
-17.5284
-21.2452
-24.2414
-26.098
-26.5261
-25.3855
-22.6867
-18.5777
-13.3176
-7.24273
-0.727987
5.84971
12.1443
17.8655
22.7956
26.7954
29.8026
31.8225
32.9128
33.167
32.6963
31.6141
30.0245
28.0157
25.6597
23.0163
20.1416
17.0977
13.9623
10.8357
7.84211
5.12684
2.8467
1.15588
0.188532
0.0405325
0.75296
2.30006
4.58378
7.43628
10.6306
13.8992
16.9574
19.5304
21.3805
22.3298
22.2779
21.2109
19.2011
16.398
13.0107
9.28539
5.47958
1.83606
-1.43987
-4.19829
-6.35552
-7.89759
-8.87605
-9.39732
-9.60716
-9.67224
-9.76127
-10.0276
-10.5956
-11.5511
-12.9381
-14.7601
-16.9855
-19.5575
-22.4038
-25.4472
-28.6121
-31.8271
-35.0206
-38.1095
-40.9827
-43.4834
-45.3948
-46.4356
-46.2694
-44.5316
-40.8727
-35.0141
-26.8102
-16.306
-3.78101
10.2319
24.9591
39.434
52.5783
63.3076
70.6506
73.8649
72.5345
66.6326
56.5415
43.0241
27.1498
10.1833
-6.54867
-21.7976
-34.5205
-43.9802
-49.807
-52.0139
-50.9677
-47.3193
-41.9046
-35.6285
-29.345
-23.7463
-19.2691
-16.0268
-13.7698
-11.8789
-9.39273
-5.07348
2.48677
14.7185
32.89
57.8966
90.0464
128.872
173.005
220.146
267.161
310.309
345.587
369.169
377.862
369.545
343.498
300.583
243.245
175.31
101.626
27.5645
-41.5276
-100.878
-146.759
-176.831
-190.317
-188.001
-172.056
-145.731
-112.943
-77.8254
-44.2866
-15.629
5.7372
18.458
22.2711
17.9199
6.96565
-8.4703
-26.0001
-43.2608
-58.1706
-69.1255
-75.1187
-75.7785
-71.3302
-62.493
-50.334
-36.1001
-21.049
-6.30158
7.2726
19.1251
29.0527
37.1779
43.8936
49.7823
55.5226
61.793
69.1864
78.1408
88.8935
101.46
115.64
131.041
147.126
163.265
178.797
193.086
205.574
215.815
223.502
228.471
230.698
230.271
227.364
222.202
215.023
206.051
195.478
183.458
170.11
155.539
139.856
123.206
105.786
87.8566
69.7461
51.8338
34.5273
18.2301
3.30524
-9.95924
-21.3773
-30.8813
-38.5252
-44.4728
-48.9751
-52.3376
-54.8838
-56.9186
-58.6968
-60.4008
-62.1278
-63.8896
-65.6224
-67.2054
-68.4841
-69.2962
-69.4956
-68.9721
-67.6638
-65.563
-62.7137
-59.2028
-55.1474
-50.6795
-45.9308
-41.0214
-36.0522
-31.1031
-26.2374
-21.5095
-16.9763
-12.7069
-8.78975
-5.33374
-2.46173
-0.297173
1.05499
1.52989
1.1228
-0.0963753
-1.97766
-4.29662
-6.77141
-9.08979
-10.9426
-12.0595
-12.2424
-11.3906
-9.51621
-6.74554
-3.30702
0.493005
4.30383
7.76905
10.5654
12.4372
13.222
12.8652
11.4228
9.05181
5.9919
2.53944
-0.98179
-4.25066
-6.9766
-8.92291
-9.92399
-9.89528
-8.83553
-6.82181
-3.99812
-0.558919
3.27042
7.25444
11.1677
14.8121
18.0304
20.7152
22.8115
24.3158
25.2699
25.7516
25.864
25.7235
25.4492
25.1535
24.9353
24.8758
25.0369
25.4615
26.175
27.1866
28.4896
30.0599
31.8525
33.7953
35.7832
37.6723
39.2783
40.3801
40.7302
40.0742
38.1757
34.847
29.9791
23.5693
15.7398
6.74462
-3.03716
-13.1233
-22.9627
-31.9794
-39.6213
-45.4065
-48.9629
-50.0548
-48.591
-44.6154
-38.2764
-29.7808
-19.3371
-7.09689
6.89504
22.7283
40.6226
60.8839
83.8186
109.614
138.197
169.098
201.347
233.42
263.279
288.499
306.493
314.798
311.411
295.102
265.665
224.068
172.459
114.016
52.6709
-7.28432
-61.6456
-106.742
-139.825
-159.344
-165.087
-158.153
-140.785
-116.068
-87.5521
-58.8381
-33.1795
-13.1525
-0.423531
4.36031
1.55523
-7.61097
-21.2615
-37.1506
-52.9626
-66.5922
-76.3753
-81.2443
-80.7984
-75.2856
-65.5085
-52.6704
-38.1857
-23.481
-9.81168
1.8869
11.0954
17.7477
22.2086
25.1973
27.671
30.6862
35.2542
42.2118
52.1203
65.204
81.3322
100.044
120.608
142.109
163.553
183.962
202.469
218.388
231.257
240.848
247.157
250.361
250.768
248.755
244.71
238.986
231.865
223.537
214.104
203.587
191.954
179.148
165.124
149.877
133.476
116.075
97.924
79.3583
60.7822
42.6389
25.3754
9.40475
-4.92853
-17.3767
-27.8071
-36.2077
-42.6812
-47.4272
-50.7162
-52.8582
-54.1706
-54.9491
-55.4433
-55.8415
-56.2625
-56.7561
-57.3107
-57.8655
-58.3263
-58.5835
-58.5284
-58.0689
-57.1414
-55.7189
-53.8149
-51.4826
-48.8093
-45.9081
-42.9064
-39.9333
-37.1067
-34.5225
-32.2457
-30.3052
-28.6923
-27.3625
-26.2401
-25.2254
-24.2025
-23.0479
-21.6399
-19.8671
-17.6377
-14.888
-11.5911
-7.76437
-3.47558
1.15324
5.94588
10.6766
15.0808
18.8712
21.76
23.485
23.8379
22.6915
20.0221
15.9245
10.6155
4.42415
-2.2301
-8.87225
-15.0141
-20.2005
-24.054
-26.312
-26.8519
-25.7012
-23.0316
-19.1375
-14.4021
-9.25545
-4.12967
0.583995
4.57077
7.61769
9.62651
10.614
10.701
10.0924
9.05191
7.8749
6.86138
6.29239
6.4098
7.40013
9.38168
12.3945
16.3929
21.2415
26.7153
32.5063
38.2376
43.4863
47.8151
50.8108
52.1256
51.5188
48.8906
44.3051
37.9968
30.358
21.9069
13.2388
4.96592
-2.34855
-8.2514
-12.4494
-14.84
-15.5189
-14.7614
-12.9806
-10.6645
-8.29955
-6.28633
-4.85693
-4.00089
-3.40883
-2.44254
-0.141247
4.72637
13.557
27.752
48.5076
76.5753
112.022
154.033
200.798
249.525
296.598
337.883
369.155
386.595
387.296
369.692
333.859
281.619
216.442
143.131
67.3421
-5.01648
-68.4148
-118.295
-151.544
-166.797
-164.525
-146.917
-117.559
-80.9779
-42.0912
-5.64088
24.3178
44.8195
54.2409
52.3806
40.3699
20.4355
-4.44676
-30.9576
-55.8472
-76.3048
-90.2456
-96.4863
-94.7988
-85.8454
-71.0143
-52.183
-31.4466
-10.8452
7.87533
23.4431
35.1648
42.9485
47.2513
48.964
49.2555
49.3993
50.6053
53.8779
59.9125
69.0401
81.2183
96.0652
112.926
130.962
149.245
166.851
182.946
196.843
208.047
216.274
221.447
223.672
223.207
220.42
215.731
209.574
202.345
194.369
185.87
176.965
167.661
157.872
147.455
136.247
124.108
110.973
96.8788
81.9952
66.6258
51.1957
36.2194
22.2536
9.84107
-0.546923
-8.56296
-14.0229
-16.9279
-17.4661
-15.9937
-12.9982
-9.049
-4.73977
-0.631592
2.79823
5.19541
6.35233
6.21412
4.86781
2.51692
-0.554036
-4.02003
-7.55516
-10.8668
-13.7203
-15.9529
-17.4758
-18.2675
-18.3601
-17.8227
-16.745
-15.2244
-13.3579
-11.2383
-8.95588
-6.60166
-4.2716
-2.06904
-0.104108
1.51079
2.66905
3.28071
3.28416
2.65686
1.42309
-0.342933
-2.51947
-4.94529
-7.43266
-9.78399
-11.81
-13.3477
-14.2751
-14.5225
-14.0773
-12.9828
-11.3323
-9.25687
-6.91092
-4.45655
-2.04811
0.180599
2.12562
3.71771
4.92284
5.73876
6.18859
6.31279
6.16096
5.78496
5.23486
4.55856
3.80545
3.03338
2.31727
1.75725
1.48345
1.65526
2.45329
4.06359
6.65487
10.3511
15.2033
21.1637
28.0691
35.6353
43.4658
51.0765
57.9329
63.4982
67.2848
68.9041
68.1087
64.82
59.1398
51.342
41.8476
31.1849
19.9405
8.70674
-1.96767
-11.6184
-19.8944
-26.5727
-31.5593
-34.8779
-36.6502
-37.0702
-36.3774
-34.8303
-32.6834
-30.1672
-27.4709
-24.7249
-21.9816
-19.1925
-16.1811
-12.6173
-7.99918
-1.65476
7.2259
19.517
36.0392
57.4037
83.8366
115.012
149.928
186.857
223.405
256.674
283.534
300.965
306.433
298.236
275.779
239.72
191.974
135.563
74.3304
12.554
-45.4856
-95.9359
-135.746
-162.939
-176.763
-177.696
-167.328
-148.121
-123.103
-95.5168
-68.4701
-44.6343
-26.0097
-13.7849
-8.29613
-9.08254
-15.0229
-24.5308
-35.7812
-46.9402
-56.3705
-62.7932
-65.3915
-63.8483
-58.3232
-49.3736
-37.8378
-24.6961
-10.9299
2.60274
15.2621
26.6814
36.7789
45.7298
53.9064
61.7963
69.914
78.7167
88.5367
99.5378
111.7
124.832
138.61
152.628
166.461
179.72
192.101
203.405
213.55
222.547
230.468
237.396
243.374
248.356
252.178
254.54
255.03
253.155
248.411
240.355
228.691
213.339
194.483
172.595
148.413
122.898
97.1461
72.2899
49.3925
29.345
12.7845
0.0420316
-8.87522
-14.2653
-16.6798
-16.8477
-15.5843
-13.6967
-11.8986
-10.7432
-10.5803
-11.5419
-13.5558
-16.3815
-19.6642
-22.9971
-25.9834
-28.2918
-29.697
-30.1028
-29.5455
-28.1796
-26.2479
-24.0424
-21.8616
-19.9686
-18.5578
-17.7315
-17.4906
-17.7376
-18.2931
-18.9209
-19.3601
-19.3598
-18.7124
-17.2828
-15.0284
-12.0096
-8.38702
-4.40711
-0.375967
3.37494
6.52805
8.81896
10.0711
10.2215
9.33314
7.59352
5.29653
2.8107
0.536012
-1.14554
-1.91966
-1.5833
-0.0759793
2.50574
5.91327
9.77047
13.6151
16.9525
19.3153
20.3211
19.7225
17.4416
13.5855
8.43951
2.44025
-3.87051
-9.90399
-15.0882
-18.9296
-21.0652
-21.2989
-19.6185
-16.1913
-11.3407
-5.5058
0.808774
7.08817
12.8599
17.7385
21.458
23.8884
25.0371
25.0353
24.1117
22.5599
20.6997
18.8412
17.2519
16.1309
15.5925
15.659
16.2626
17.2555
18.4264
19.5205
20.261
20.3706
19.5899
17.694
14.5066
9.91102
3.86189
-3.60625
-12.3711
-22.2182
-32.8419
-43.8529
-54.795
-65.1698
-74.4704
-82.2186
-88.0027
-91.5086
-92.5388
-91.0121
-86.9438
-80.4057
-71.4743
-60.1761
-46.4467
-30.1175
-10.9415
11.3356
36.8645
65.5556
96.9398
130.058
163.407
194.966
222.32
242.871
254.122
253.999
241.164
215.267
177.102
128.625
72.8286
13.4851
-45.2207
-99.1179
-144.482
-178.42
-199.154
-206.179
-200.273
-183.357
-158.236
-128.259
-96.9256
-67.5084
-42.7218
-24.4767
-13.7447
-10.5376
-13.9984
-22.5829
-34.3036
-47.0025
-58.6188
-67.4195
-72.1704
-72.2313
-67.5724
-58.7145
-46.6089
-32.4732
-17.6086
-3.22053
9.73526
20.6628
29.3818
36.1239
41.4748
46.2706
51.4651
57.9874
66.6075
77.829
91.8195
108.389
127.014
146.906
167.107
186.606
204.457
219.883
232.347
241.602
247.687
250.899
251.721
250.745
248.567
245.704
242.512
239.136
235.495
231.288
226.042
219.183
210.124
198.364
183.576
165.684
144.912
121.791
97.138
71.9876
47.5014
24.8532
5.10911
-10.8821
-22.5774
-29.7937
-32.7224
-31.9022
-28.1543
-22.4891
-15.9943
-9.71997
-4.57316
-1.23346
-0.0992281
-1.26839
-4.55416
-9.53165
-15.6078
-22.1048
-28.3464
-33.7365
-37.8216
-40.3314
-41.1937
-40.5249
-38.5998
-35.8042
-32.5813
-29.3748
-26.5796
-24.5021
-23.3355
-23.1491
-23.8907
-25.4012
-27.4352
-29.6886
-31.8268
-33.5155
-34.4487
-34.3769
-33.1299
-30.6366
-26.936
-22.1799
-16.6248
-10.6109
-4.53115
1.20901
6.2365
10.2537
13.0745
14.6469
15.0584
14.5227
13.3488
11.8972
10.5291
9.55751
9.20638
9.58413
10.6753
12.35
14.3892
16.5205
18.4577
19.9393
20.7588
20.7844
19.9679
18.3415
16.0074
13.1223
9.87977
6.49419
3.18619
0.171523
-2.34786
-4.19108
-5.20496
-5.2708
-4.31169
-2.30044
0.732466
4.6917
9.41184
14.6554
20.1152
25.4229
30.1645
33.9029
36.2079
36.6927
35.052
31.1001
24.8036
16.3026
5.91811
-5.85874
-18.3958
-30.9665
-42.8102
-53.2002
-61.5128
-67.2894
-70.283
-70.4841
-68.1183
-63.616
-57.5519
-50.5603
-43.2325
-36.0088
-29.0784
-22.3029
-15.1789
-6.85239
3.80625
18.0647
37.1357
61.9458
92.8916
129.622
170.882
214.465
257.291
295.632
325.472
342.958
344.897
329.226
295.374
244.474
179.358
104.348
24.8474
-53.2213
-124.045
-182.55
-224.942
-249.091
-254.711
-243.32
-217.986
-182.911
-142.889
-102.742
-66.7719
-38.323
-19.4804
-10.9437
-12.075
-21.1017
-35.4392
-52.0852
-68.0299
-80.6324
-87.9185
-88.7683
-82.9806
-71.2146
-54.8263
-35.6295
-15.6182
3.31278
19.6115
32.2496
40.821
45.5538
47.239
47.0917
46.5685
47.1651
50.2233
56.7673
67.3901
82.1979
100.816
122.45
145.991
170.153
193.616
215.163
233.799
248.83
259.905
267.01
270.427
270.662
268.349
264.154
258.68
252.395
245.59
238.361
230.628
222.175
212.707
201.917
189.55
175.456
159.63
142.235
123.595
104.181
84.573
65.4125
47.349
30.9839
16.8204
5.2219
-3.61559
-9.67572
-13.117
-14.2526
-13.5161
-11.4186
-8.50032
-5.28287
-2.22618
0.305192
2.06391
2.92834
2.89763
2.07503
0.641887
-1.1741
-3.13265
-5.01275
-6.63931
-7.90193
-8.76414
-9.26283
-9.49848
-9.61801
-9.79261
-10.1935
-10.9684
-12.2219
-14.0007
-16.2868
-18.9976
-21.9929
-25.0892
-28.0768
-30.7393
-32.8738
-34.3067
-34.908
-34.5995
-33.3595
-31.2243
-28.2858
-24.6882
-20.6217
-16.3136
-12.0171
-7.99607
-4.50614
-1.77386
0.0253433
0.787532
0.495981
-0.770569
-2.83961
-5.45792
-8.31602
-11.0822
-13.4424
-15.1418
-16.02
-16.0366
-15.2797
-13.9557
-12.3601
-10.8329
-9.70502
-9.24293
-9.60203
-10.7951
-12.6823
-14.984
-17.3155
-19.2385
-20.321
-20.1977
-18.6216
-15.4996
-10.9075
-5.08291
1.60346
8.69188
15.6885
22.1224
27.5981
31.8362
34.698
36.1911
36.4564
35.7384
34.3443
32.5977
30.7931
29.1579
27.8257
26.8258
26.0867
25.4549
24.724
23.6696
22.0856
19.8173
16.7851
12.9984
8.55677
3.63883
-1.5189
-6.65042
-11.491
-15.8053
-19.4075
-22.1681
-24.0057
-24.8635
-24.6725
-23.3092
-20.5533
-16.0549
-9.31707
0.29898
13.5405
31.1976
54.0039
82.5047
116.902
156.896
201.543
249.167
297.355
343.057
382.796
412.987
430.32
432.171
416.978
384.513
336.028
274.222
203.034
127.287
52.2113
-17.0731
-76.0764
-121.377
-150.937
-164.255
-162.347
-147.56
-123.251
-93.3666
-61.989
-32.8876
-9.13903
7.15004
14.9899
14.516
6.86715
-6.0447
-21.8356
-37.9822
-52.1424
-62.4262
-67.5879
-67.1227
-61.2625
-50.8813
-37.3286
-22.2172
-7.19605
6.26307
17.0405
24.4866
28.4743
29.384
28.0299
25.5397
23.2056
22.3251
24.0504
29.2607
38.4709
51.7833
68.8841
89.0838
111.394
134.629
157.527
178.867
197.578
212.83
224.089
231.144
234.103
233.347
229.47
223.196
215.288
206.463
197.311
188.241
179.448
170.911
162.414
153.604
144.058
133.365
121.21
107.445
92.1329
75.5688
58.2673
40.9162
24.3063
9.24491
-3.536
-13.4635
-20.1891
-23.6278
-23.9652
-21.6337
-17.2607
-11.5969
-5.43321
0.481718
5.51523
9.20607
11.2969
11.7417
10.6884
8.44189
5.41223
2.05583
-1.18277
-3.92208
-5.88222
-6.90751
-6.97213
-6.16961
-4.68908
-2.78245
-0.727325
1.20946
2.80327
3.89464
4.40185
4.32231
3.72388
2.72777
1.48617
0.157786
-1.11548
-2.22766
-3.12158
-3.79406
-4.29328
-4.7091
-5.15789
-5.76417
-6.64159
-7.8757
-9.51072
-11.5419
-13.9145
-16.5287
-19.2513
-21.9304
-24.4128
-26.5616
-28.2709
-29.4772
-30.1646
-30.3645
-30.1504
-29.627
-28.9167
-28.145
-27.4261
-26.8512
-26.4797
-26.3356
-26.407
-26.65
-26.9956
-27.3585
-27.6466
-27.7705
-27.6513
-27.2276
-26.459
-25.3276
-23.8378
-22.013
-19.8914
-17.5208
-14.9522
-12.2349
-9.4112
-6.5132
-3.56055
-0.560635
2.48965
5.60018
8.78243
12.0432
15.3779
18.7646
22.1594
25.4937
28.6742
31.5869
34.1029
36.0877
37.4113
37.9601
37.6465
36.4182
34.263
31.2115
27.3352
22.7422
17.5715
11.9852
6.16149
0.288288
-5.44247
-10.8394
-15.7158
-19.8934
-23.2057
-25.5012
-26.6444
-26.5137
-24.9942
-21.9638
-17.2717
-10.7121
-1.99716
9.26209
23.557
41.4521
63.5169
90.2161
121.762
157.951
198.003
240.454
283.116
323.156
357.282
382.051
394.258
391.348
371.813
335.493
283.728
219.342
146.429
69.9808
-4.61313
-72.1265
-128.043
-169.022
-193.227
-200.465
-192.152
-171.073
-141.019
-106.313
-71.3099
-39.9227
-15.2316
0.782851
7.36008
4.92976
-5.05289
-20.3761
-38.4045
-56.4295
-71.9961
-83.1657
-88.6921
-88.096
-81.6378
-70.2043
-55.1286
-37.9738
-20.3104
-3.51478
11.3863
23.8131
33.6631
41.2788
47.3613
52.8456
58.7555
66.0589
75.539
87.6974
102.698
120.356
140.168
161.378
183.07
204.269
224.042
241.585
256.289
267.77
275.879
280.676
282.383
281.329
277.883
272.398
265.159
256.357
246.079
234.321
221.015
206.071
189.422
171.071
151.119
129.796
107.455
84.5663
61.685
39.4149
18.3614
-0.915159
-17.9414
-32.3657
-43.9807
-52.7342
-58.7269
-62.1987
-63.5055
-63.0885
-61.439
-59.062
-56.4406
-54.0041
-52.1017
-50.9834
-50.7888
-51.5437
-53.1651
-55.4742
-58.2159
-61.0837
-63.7482
-65.888
-67.2184
-67.5174
-66.6457
-64.5585
-61.3086
-57.0395
-51.9703
-46.3732
-40.5459
-34.7826
-29.3458
-24.4429
-20.2088
-16.6967
-13.8777
-11.6491
-9.84926
-8.27865
-6.72353
-4.98099
-2.88274
-0.315392
2.76437
6.32164
10.243
14.345
18.3898
22.1087
25.229
27.5025
28.7327
28.7964
27.6583
25.3761
22.0958
18.0377
13.4752
8.70831
4.03612
-0.269945
-3.98784
-6.96023
-9.10206
-10.4004
-10.9077
-10.7311
-10.0188
-8.94683
-7.70674
-6.49414
-5.49851
-4.8928
-4.82223
-5.39216
-6.65562
-8.60179
-11.1478
-14.1357
-17.3375
-20.4683
-23.2085
-25.2324
-26.2414
-25.9975
-24.3521
-21.2674
-16.8252
-11.2239
-4.76108
2.19459
9.23981
15.9764
22.0499
27.1818
31.1926
34.0123
35.6782
36.3211
36.1409
35.3776
34.2786
33.0687
31.9258
30.9643
30.2279
29.6927
29.2779
28.8638
28.3132
27.4929
26.2943
24.6479
22.5332
19.9807
17.0677
13.9079
10.6387
7.40607
4.3521
1.60682
-0.713811
-2.50253
-3.64781
-4.01422
-3.4175
-1.59707
1.81015
7.28893
15.45
27.0104
42.7412
63.3757
89.4795
121.29
158.548
200.35
245.05
290.262
332.957
369.693
396.935
411.451
410.72
393.3
359.093
309.468
247.213
176.305
101.543
28.0654
-39.1736
-95.9095
-138.988
-166.652
-178.665
-176.26
-161.92
-139.039
-111.49
-83.1788
-57.6124
-37.5533
-24.7819
-19.9922
-22.8199
-31.9914
-45.5644
-61.2237
-76.5935
-89.5263
-98.3376
-101.962
-100.021
-92.8025
-81.162
-66.3649
-49.8955
-33.2557
-17.7791
-4.48006
6.04831
13.6788
18.7372
21.9369
24.2708
26.8768
30.8925
37.3157
46.8877
60.0099
76.7016
96.6022
119.014
142.981
167.388
191.075
212.944
232.062
247.725
259.507
267.264
271.114
271.39
268.569
263.204
255.842
246.965
236.941
225.997
214.222
201.582
187.965
173.232
157.273
140.057
121.67
102.335
82.4111
62.3725
42.7717
24.1917
7.19413
-7.73099
-20.2074
-30.0031
-37.0467
-41.4298
-43.3954
-43.3169
-41.6667
-38.9817
-35.8231
-32.7375
-30.2167
-28.6621
-28.3533
-29.4254
-31.8578
-35.4759
-39.9674
-44.9138
-49.833
-54.231
-57.6557
-59.7473
-60.2793
-59.1837
-56.5582
-52.6521
-47.8337
-42.5422
-37.2306
-32.3076
-28.0864
-24.7481
-22.3241
-20.7009
-19.6443
-18.841
-17.9504
-16.6586
-14.7271
-12.0302
-8.57491
-4.50261
-0.0718548
4.37416
8.45068
11.779
14.0321
14.9732
14.4825
12.5702
9.37438
5.14646
0.224784
-4.99871
-10.1158
-14.7391
-18.5354
-21.2521
-22.7354
-22.9379
-21.9163
-19.8195
-16.87
-13.3383
-9.51639
-5.69005
-2.11448
1.00533
3.52794
5.38156
6.56317
7.13116
7.19291
6.88901
6.37605
5.80986
5.33105
5.05406
5.06075
5.39859
6.08352
7.10629
8.44138
10.0568
11.9231
14.0206
16.343
18.898
21.7035
24.782
28.1521
31.8205
35.7738
39.9728
44.3492
48.8046
53.2127
57.424
61.271
64.5759
67.1569
68.8353
69.4433
68.8307
66.8749
63.4904
58.6402
52.347
44.7029
35.8752
26.1073
15.7127
5.06107
-5.4425
-15.3842
-24.372
-32.066
-38.2063
-42.6334
-45.2992
-46.2654
-45.6872
-43.7826
-40.7872
-36.8967
-32.2026
-26.6296
-19.8863
-11.4431
-0.550957
13.6867
32.187
55.7111
84.6589
118.863
157.424
198.621
239.933
278.192
309.858
331.4
339.732
332.648
309.184
269.852
216.7
153.178
83.8188
13.7753
-51.7313
-107.974
-151.222
-179.121
-190.894
-187.364
-170.776
-144.474
-112.462
-78.9167
-47.7155
-22.0314
-4.04094
5.22889
5.90581
-0.857663
-13.1231
-28.4759
-44.3617
-58.408
-68.6908
-73.9226
-73.5421
-67.7071
-57.1981
-43.2536
-27.3633
-11.0489
4.33932
17.7851
28.7121
37.0232
43.0737
47.5871
51.5283
55.9533
61.8569
70.0379
80.9972
94.8804
111.469
130.215
150.318
170.823
190.733
209.116
225.194
238.412
248.465
255.305
259.107
260.216
259.083
256.189
251.977
246.795
240.858
234.227
226.815
218.413
208.732
197.456
184.309
169.103
151.795
132.514
111.574
89.464
66.813
44.3426
22.805
2.91609
-14.7069
-29.5984
-41.4807
-50.2808
-56.1256
-59.3174
-60.2927
-59.5705
-57.6947
-55.1804
-52.4661
-49.8807
-47.6254
-45.7717
-44.2757
-43.0037
-41.7661
-40.3538
-38.5731
-36.2741
-33.3711
-29.8523
-25.7802
-21.2829
-16.5396
-11.7622
-7.17623
-3.00253
0.55847
3.34
5.22001
6.1307
6.06673
5.09166
3.34149
1.02359
-1.5908
-4.18149
-6.40204
-7.90924
-8.39717
-7.63244
-5.48635
-1.95941
2.8061
8.52855
14.8057
21.1491
27.0303
31.9347
35.4162
37.1449
36.944
34.8083
30.9041
25.5497
19.1791
12.294
5.40958
-0.998295
-6.5397
-10.9447
-14.0823
-15.9627
-16.7243
-16.6068
-15.9166
-14.9875
-14.1422
-13.6593
-13.7471
-14.5278
-16.0301
-18.1913
-20.8664
-23.8428
-26.8592
-29.6264
-31.8495
-33.2494
-33.5826
-32.6587
-30.3538
-26.6199
-21.4889
-15.0718
-7.55204
0.824171
9.76238
18.9354
27.9999
36.6118
44.4411
51.1846
56.5775
60.404
62.507
62.7968
61.2582
57.9558
53.0348
46.7187
39.3005
31.1299
22.5947
14.0991
6.03855
-1.22464
-7.38499
-12.2131
-15.5695
-17.4111
-17.7898
-16.8428
-14.774
-11.8278
-8.25508
-4.2723
-0.0164019
4.50235
9.44402
15.1723
22.2688
31.5171
43.8489
60.2446
81.5905
108.502
141.137
179.018
220.92
264.826
308
347.172
378.827
399.579
406.57
397.851
372.688
331.739
277.075
212.04
140.944
68.6458
0.0612647
-60.3339
-108.948
-143.41
-162.756
-167.46
-159.291
-141.051
-116.199
-88.4432
-61.3261
-37.8686
-20.3004
-9.90369
-6.97703
-10.9135
-20.3717
-33.5119
-48.262
-62.5806
-74.6847
-83.2219
-87.3705
-86.8649
-81.9513
-73.2871
-61.8022
-48.5433
-34.5231
-20.5902
-7.33643
4.95245
16.2994
26.9961
37.529
48.4841
60.4429
73.886
89.1148
106.201
124.968
145.007
165.72
186.385
206.236
224.538
240.663
254.137
264.676
272.187
276.751
278.585
277.991
275.302
270.831
264.834
257.484
248.867
238.989
227.803
215.237
201.228
185.751
168.849
150.641
131.333
111.212
90.6321
70.0008
49.7538
30.3331
12.1645
-4.36451
-18.9226
-31.2505
-41.1724
-48.604
-53.5574
-56.1415
-56.5602
-55.1058
-52.1488
-48.1233
-43.5067
-38.7943
-34.4696
-30.9707
-28.6562
-27.7739
-28.4356
-30.6033
-34.0877
-38.5633
-43.5975
-48.6921
-53.3334
-57.0439
-59.4307
-60.224
-59.3021
-56.6994
-52.5969
-47.2977
-41.1896
-34.7002
-28.2505
-22.2113
-16.8678
-12.3962
-8.85322
-6.18021
-4.21943
-2.74068
-1.47437
-0.14722
1.48387
3.60349
6.31801
9.64606
13.5199
17.796
22.2736
26.7174
30.8816
34.533
37.4696
39.5364
40.6343
40.726
39.8375
38.0568
35.5291
32.4492
29.0502
25.5875
22.3196
19.4856
17.2816
15.8386
15.2051
15.3375
16.0996
17.2736
18.5805
19.7093
20.3511
20.235
19.1595
17.0178
13.8125
9.65791
4.77054
-0.55223
-5.96165
-11.0925
-15.5991
-19.1883
-21.6461
-22.8547
-22.799
-21.5615
-19.3074
-16.2618
-12.683
-8.83413
-4.95765
-1.25614
2.1198
5.07461
7.56294
9.57802
11.1361
12.2595
12.9615
13.2349
13.0475
12.3434
11.0516
9.0992
6.42816
3.01144
-1.13289
-5.93283
-11.2603
-16.9365
-22.7434
-28.4417
-33.7907
-38.5694
-42.595
-45.7369
-47.9245
-49.1475
-49.4479
-48.9046
-47.608
-45.6275
-42.9701
-39.5343
-35.064
-29.1122
-21.026
-9.96864
5.01078
24.852
50.3092
81.7444
118.92
160.833
205.626
250.621
292.483
327.511
352.039
362.877
357.755
335.676
297.144
244.212
180.341
110.081
38.609
-28.8162
-87.412
-133.374
-164.257
-179.196
-178.936
-165.673
-142.739
-114.168
-84.2071
-56.8202
-35.2656
-21.7737
-17.3664
-21.8299
-33.8316
-51.1615
-71.0595
-90.5854
-106.986
-118.012
-122.159
-118.796
-108.19
-91.4106
-70.157
-46.5127
-22.675
-0.68798
17.7901
31.6576
40.4647
44.425
44.3501
41.5169
37.4907
33.9252
32.3655
34.0747
39.9038
50.2151
64.8644
83.2404
104.352
126.952
149.679
171.204
190.359
206.245
218.294
226.299
230.392
230.997
228.743
224.369
218.62
212.156
205.475
198.868
192.403
185.939
179.175
171.708
163.116
153.026
141.192
127.536
112.176
95.4284
77.7775
59.8283
42.2439
25.6765
10.7017
-2.23644
-12.8627
-21.088
-27.0042
-30.8597
-33.0195
-33.915
-33.9901
-33.6503
-33.2204
-32.9149
-32.825
-32.922
-33.078
-33.0994
-32.7694
-31.8942
-30.3441
-28.0866
-25.2028
-21.8881
-18.4334
-15.1914
-12.5313
-10.7894
-10.221
-10.9615
-13.0018
-16.1809
-20.1984
-24.6429
-29.0359
-32.8821
-35.7234
-37.1873
-37.0264
-35.1432
-31.5989
-26.6056
-20.5032
-13.7236
-6.74778
-0.059127
5.90089
10.771
14.2984
16.3545
16.9376
16.1631
14.2433
11.4586
8.12556
4.56393
1.06709
-2.12174
-4.82551
-6.94054
-8.4354
-9.3422
-9.74242
-9.74919
-9.48858
-9.08195
-8.63139
-8.20956
-7.85478
-7.5714
-7.33497
-7.10104
-6.8161
-6.429
-5.90107
-5.21376
-4.37271
-3.40782
-2.36976
-1.32315
-0.337849
0.520807
1.20129
1.67362
1.93451
2.00927
1.95001
1.83051
1.73804
1.7634
1.99026
2.48532
3.29047
4.4182
5.85072
7.54308
9.42986
11.4345
13.4802
15.5004
17.4481
19.3023
21.0704
22.787
24.5075
26.2984
28.2246
30.334
32.6431
35.124
37.6958
40.2223
42.5177
44.3598
45.5106
45.7414
44.8601
42.7377
39.3285
34.6841
28.9559
22.388
15.2997
8.05926
1.05316
-5.34725
-10.8168
-15.1027
-18.042
-19.5704
-19.7197
-18.6051
-16.404
-13.3263
-9.57864
-5.32388
-0.63676
4.5405
10.4385
17.4889
26.3301
37.7795
52.7619
72.1909
96.8059
126.982
162.538
202.573
245.381
288.453
328.611
362.263
385.758
395.811
389.941
366.855
326.726
271.305
203.853
128.878
51.7096
-22.0406
-87.0651
-138.921
-174.494
-192.301
-192.605
-177.326
-149.767
-114.186
-75.2879
-37.6847
-5.39986
18.5282
32.3033
35.4663
28.8287
14.2637
-5.60776
-27.7915
-49.3041
-67.5192
-80.4391
-86.8643
-86.4511
-79.6595
-67.6103
-51.8746
-34.2304
-16.4184
0.074067
14.1749
25.3214
33.4807
39.1004
43.0021
46.2344
49.9089
55.0395
62.4059
72.4558
85.2563
100.496
117.537
135.501
153.383
170.173
184.969
197.074
206.056
211.774
214.371
214.225
211.882
207.966
203.091
197.773
192.362
187.002
181.617
175.935
169.535
161.927
152.632
141.279
127.674
111.861
94.1369
75.0479
55.3371
35.872
17.5524
1.21247
-12.4699
-23.0443
-30.3314
-34.4343
-35.7167
-34.7528
-32.255
-28.9912
-25.6996
-23.0134
-21.4024
-21.1376
-22.2814
-24.7019
-28.1087
-32.1038
-36.2397
-40.0782
-43.2425
-45.4564
-46.5683
-46.5572
-45.5226
-43.6608
-41.2312
-38.5188
-35.7961
-33.2912
-31.1635
-29.4905
-28.2662
-27.4102
-26.7867
-26.2285
-25.5652
-24.6504
-23.3843
-21.7294
-19.7165
-17.4404
-15.0455
-12.7033
-10.5863
-8.84148
-7.56739
-6.79976
-6.50623
-6.59179
-6.91336
-7.30123
-7.58378
-7.61169
-7.27834
-6.53342
-5.38831
-3.9129
-2.22469
-0.472093
1.18539
2.59757
3.64184
4.23718
4.3527
4.01009
3.28024
2.27478
1.13373
0.0105579
-0.944015
-1.5979
-1.85173
-1.64941
-0.9837
0.104434
1.53276
3.1904
4.9543
6.70708
8.35334
9.83199
11.1227
12.2453
13.253
14.2204
15.2274
16.3436
17.6136
19.0471
20.614
22.2466
23.8469
25.2995
26.4872
27.3071
27.6858
27.5913
27.0406
26.1019
24.8927
23.571
22.3235
21.3484
20.8363
20.949
21.798
23.4246
25.7834
28.7314
32.0246
35.3255
38.2218
40.2575
40.9742
39.9601
36.9005
31.6245
24.1404
14.6553
3.57378
-8.52423
-20.9269
-32.8496
-43.5049
-52.1749
-58.2784
-61.4247
-61.4474
-58.4133
-52.6027
-44.4611
-34.5242
-23.3226
-11.2757
1.40904
14.815
29.3512
45.728
64.8602
87.7008
115.019
147.151
183.774
223.741
265.022
304.79
339.641
365.95
380.301
379.945
363.211
329.809
280.979
219.445
149.198
75.1078
2.42999
-63.7374
-118.977
-159.994
-184.915
-193.428
-186.739
-167.361
-138.772
-104.989
-70.1028
-37.8469
-11.2301
7.7152
18.0565
19.9494
14.5037
3.55393
-10.6309
-25.658
-39.3031
-49.7531
-55.7715
-56.7781
-52.8383
-44.5745
-33.0176
-19.4227
-5.0769
8.87625
21.5734
32.516
41.5958
49.0642
55.4546
61.4728
67.8729
75.3375
84.3772
95.2619
107.99
122.297
137.699
153.564
169.192
183.911
197.148
208.493
217.729
224.836
229.964
233.379
235.403
236.336
236.392
235.65
234.025
231.268
227
220.763
212.095
200.611
186.084
168.507
148.136
125.503
101.392
76.7806
52.7636
30.4478
10.8479
-5.21263
-17.1819
-24.8315
-28.2742
-27.9449
-24.5492
-18.9851
-12.2469
-5.32391
0.895192
5.70248
8.62666
9.4602
8.25626
5.29775
1.04376
-3.93903
-9.0512
-13.7329
-17.5254
-20.1167
-21.3655
-21.3057
-20.1291
-18.1525
-15.7735
-13.4201
-11.4999
-10.3552
-10.2265
-11.2275
-13.3338
-16.3845
-20.0967
-24.0915
-27.9305
-31.159
-33.3541
-34.1716
-33.3882
-30.9315
-26.8952
-21.5342
-15.241
-8.50307
-1.84751
4.22004
9.27466
13.0201
15.3192
16.2015
15.8481
14.5565
12.6909
10.627
8.69881
7.15659
6.14096
5.67616
5.68238
6.00353
6.44507
6.8148
6.95963
6.79237
6.30439
5.56279
4.69312
3.85129
3.18989
2.82499
2.8094
3.11699
3.6412
4.20836
4.60397
4.60836
4.03592
2.77184
0.799918
-1.78392
-4.77559
-7.88523
-10.7758
-13.1126
-14.6168
-15.1134
-14.5672
-13.0982
-10.9753
-8.58681
-6.39217
-4.86204
-4.4146
-5.35732
-7.84205
-11.8393
-17.1349
-23.349
-29.975
-36.4337
-42.1344
-46.5384
-49.2146
-49.8834
-48.4417
-44.9687
-39.7106
-33.0474
-25.4448
-17.3985
-9.37705
-1.76908
5.15597
11.2707
16.5912
21.2579
25.4961
29.5646
33.6965
38.0436
42.6323
47.3378
51.882
55.8568
58.7707
60.1117
59.4211
56.3651
50.7962
42.7954
32.6884
21.0332
8.57848
-3.803
-15.1995
-24.7556
-31.7658
-35.7567
-36.5451
-34.2661
-29.364
-22.5462
-14.7016
-6.79123
0.280514
5.80145
9.37964
11.0491
11.3372
11.2798
12.3697
16.4333
25.4346
41.2163
65.2041
98.1078
139.663
188.46
241.907
296.341
347.307
389.974
419.66
432.379
425.365
397.471
349.41
283.769
204.818
118.098
29.8661
-53.5509
-126.407
-184.112
-223.666
-243.895
-245.479
-230.763
-203.406
-167.891
-128.991
-91.2344
-58.4505
-33.4237
-17.7029
-11.5661
-14.1326
-23.5958
-37.538
-53.2821
-68.234
-80.1769
-87.4873
-89.2536
-85.2955
-76.0922
-62.6385
-46.2559
-28.385
-10.3901
6.60452
21.8277
34.9167
45.915
55.2195
63.4895
71.5345
80.1945
90.2278
102.218
116.508
133.16
151.956
172.413
193.841
215.402
236.196
255.337
272.03
285.642
295.745
302.14
304.864
304.162
300.449
294.252
286.143
276.676
266.318
255.408
244.121
232.463
220.278
207.288
193.137
177.459
159.945
140.403
118.815
95.3704
70.4777
44.7511
18.9698
-5.98389
-29.2033
-49.8423
-67.1985
-80.7833
-90.3708
-96.0208
-98.0706
-97.1
-93.8706
-89.2493
-84.1236
-79.3174
-75.5171
-73.2137
-72.666
-73.8869
-76.6522
-80.5307
-84.9308
-89.1608
-92.496
-94.2477
-93.8289
-90.8098
-84.9602
-76.2729
-64.9685
-51.4784
-36.4096
-20.493
-4.52023
10.7247
24.5333
36.3322
45.7302
52.5467
56.8183
58.7843
58.8503
57.5355
55.4092
53.025
50.8594
49.2647
48.4401
48.4255
49.1168
50.3002
51.6989
53.0242
54.0236
54.5171
54.4187
53.7398
52.5752
51.0775
49.4228
47.7765
46.2625
44.943
43.8087
42.7832
41.7366
40.5095
38.9391
36.8874
34.2639
31.042
27.2662
23.0497
18.5628
14.0143
9.62861
5.62082
2.17407
-0.579127
-2.56909
-3.79361
-4.3149
-4.24962
-3.75351
-3.00259
-2.17343
-1.42467
-0.881892
-0.627272
-0.694916
-1.07192
-1.70462
-2.50876
-3.38218
-4.21824
-4.9184
-5.40263
-5.6167
-5.53618
-5.167
-4.5434
-3.72363
-2.78405
-1.81217
-0.898818
-0.130281
0.418956
0.691563
0.649761
0.274006
-0.442008
-1.49908
-2.90121
-4.66295
-6.81347
-9.39542
-12.4584
-16.0475
-20.1883
-24.8711
-30.0369
-35.5675
-41.2823
-46.9423
-52.2623
-56.9295
-60.6248
-63.0443
-63.9147
-62.9979
-60.0831
-54.9641
-47.4077
-37.1202
-23.7265
-6.77519
14.2159
39.6673
69.8018
104.48
143.037
184.155
225.809
265.323
299.535
325.09
338.806
338.088
321.314
288.147
239.706
178.564
108.571
34.5061
-38.396
-104.983
-160.721
-202.162
-227.278
-235.628
-228.343
-207.927
-177.913
-142.427
-105.7
-71.6092
-43.2875
-22.8508
-11.2634
-8.34761
-12.9267
-23.07
-36.4041
-50.4449
-62.9093
-71.969
-76.4216
-75.7645
-70.1711
-60.3834
-47.5408
-32.9743
-17.9968
-3.71835
9.0919
20.0807
29.3187
37.2448
44.5617
52.1005
60.6765
70.9586
83.3695
98.0283
114.74
133.03
152.211
171.478
190.004
207.038
221.977
234.417
244.176
251.283
255.947
258.507
259.37
258.952
257.619
255.645
253.181
250.238
246.69
242.283
236.67
229.438
220.165
208.464
194.041
176.742
156.594
133.829
108.891
82.4151
55.1906
28.1043
2.06923
-22.0525
-43.5226
-61.7891
-76.5296
-87.6714
-95.3858
-100.058
-102.239
-102.579
-101.761
-100.434
-99.1539
-98.3467
-98.2805
-99.0634
-100.655
-102.895
-105.533
-108.268
-110.784
-112.777
-113.982
-114.18
-113.214
-110.989
-107.473
-102.7
-96.7643
-89.8204
-82.0764
-73.7854
-65.2322
-56.7164
-48.5313
-40.9424
-34.1659
-28.3514
-23.5696
-19.8091
-16.9806
-14.9303
-13.4591
-12.346
-11.3727
-10.3449
-9.10969
-7.56577
-5.66751
-3.42253
-0.884658
1.85587
4.68351
7.46836
10.0761
12.3771
14.2539
15.6087
16.3701
16.4987
15.9928
14.8915
13.2757
11.2657
9.0152
6.70133
4.51163
2.62859
1.21339
0.390477
0.234625
0.762201
1.92771
3.62642
5.70335
7.96792
10.2134
12.2392
13.8736
14.9938
15.5415
15.5307
15.0464
14.2348
13.2849
12.4032
11.7864
11.5931
11.9196
12.783
14.1133
15.7566
17.4879
19.0347
20.106
20.4267
19.7706
17.9915
15.0461
11.0072
6.06521
0.51652
-5.25982
-10.8358
-15.7752
-19.6766
-22.2155
-23.1797
-22.4947
-20.2357
-16.6249
-12.0139
-6.8527
-1.64922
3.07635
6.83739
9.22156
9.92251
8.75982
5.68638
0.783899
-5.75154
-13.6311
-22.4991
-31.96
-41.6048
-51.0351
-59.8828
-67.8262
-74.6028
-80.0168
-83.9436
-86.3298
-87.1881
-86.5865
-84.6302
-81.4349
-77.0903
-71.617
-64.9178
-56.7331
-46.6105
-33.9018
-17.8012
2.56714
28.0098
59.0829
95.89
137.891
183.763
231.344
277.703
319.334
352.477
373.537
379.527
368.506
339.903
294.711
235.481
166.129
91.5685
17.2066
-51.6138
-110.172
-154.844
-183.444
-195.392
-191.693
-174.741
-147.976
-115.454
-81.368
-49.5964
-23.3162
-4.72974
5.07835
6.1458
-0.488585
-13.0073
-29.1023
-46.2903
-62.2148
-74.9035
-82.9526
-85.6267
-82.8681
-75.2249
-63.7138
-49.6389
-34.3942
-19.2743
-5.3153
6.81605
16.8771
25.0448
31.8582
38.1185
44.7624
52.725
62.8105
75.5842
91.2975
109.854
130.815
153.45
176.812
199.841
221.471
240.736
256.863
269.337
277.932
282.715
284.009
282.337
278.342
272.696
266.02
258.804
251.363
243.811
236.063
227.871
218.875
208.673
196.89
183.249
167.622
150.07
130.855
110.426
89.3874
68.4435
48.3376
29.7807
13.3864
-0.383745
-11.2586
-19.1756
-24.2767
-26.8845
-27.4612
-26.5562
-24.7483
-22.5906
-20.561
-19.0272
-18.2254
-18.2556
-19.092
-20.6055
-22.5941
-24.8174
-27.0298
-29.0088
-30.576
-31.6093
-32.0453
-31.8747
-31.1316
-29.8797
-28.198
-26.1685
-23.8667
-21.3562
-18.687
-15.8977
-13.0184
-10.0756
-7.09559
-4.10754
-1.14403
1.7596
4.56747
7.24597
9.76671
12.1089
14.2604
16.2185
17.988
19.5794
21.006
22.2804
23.4111
24.4004
25.2424
25.923
26.4208
26.7106
26.766
26.5646
26.0918
25.3444
24.3327
23.0808
21.6256
20.0133
18.2953
16.523
14.7432
12.9938
11.3013
9.6799
8.13187
6.6497
5.21924
3.82327
2.44518
1.07211
-0.302698
-1.67881
-3.04857
-4.39807
-5.70894
-6.96035
-8.13097
-9.20063
-10.1513
-10.9676
-11.6368
-12.1485
-12.4942
-12.6675
-12.6641
-12.4828
-12.1265
-11.6035
-10.928
-10.1203
-9.20602
-8.21356
-7.17121
-6.10338
-5.02691
-3.9482
-2.86193
-1.75222
-0.596508
0.627677
1.93371
3.31577
4.73921
6.13339
7.38863
8.35875
8.86994
8.73565
7.7762
5.84104
2.83066
-1.28481
-6.45309
-12.5354
-19.3108
-26.4894
-33.7316
-40.6721
-46.9448
-52.2056
-56.1511
-58.5306
-59.1517
-57.8783
-54.6223
-49.3287
-41.9563
-32.4545
-20.7402
-6.67967
9.91968
29.2984
51.7098
77.3549
106.289
138.308
172.828
208.787
244.59
278.127
306.879
328.122
339.21
337.908
322.731
293.23
250.181
195.628
132.774
65.7082
-0.990063
-62.7193
-115.344
-155.629
-181.571
-192.578
-189.484
-174.403
-150.437
-121.289
-90.8338
-62.6848
-39.8319
-24.3668
-17.3342
-18.7115
-27.5113
-41.9829
-59.8825
-78.7729
-96.3166
-110.526
-119.95
-123.772
-121.83
-114.555
-102.841
-87.8833
-70.9948
-53.4276
-36.2262
-20.1227
-5.48328
7.69123
19.716
31.1357
42.6157
54.8263
68.3376
83.5366
100.576
119.361
139.563
160.673
182.064
203.069
223.054
241.48
257.948
272.216
284.193
293.914
301.497
307.087
310.813
312.737
312.833
310.982
306.982
300.586
291.548
279.682
264.909
247.301
227.109
204.757
180.83
156.027
131.111
106.848
83.9456
63.004
44.473
28.6308
15.5771
5.24318
-2.58542
-8.23537
-12.1069
-14.6335
-16.2439
-17.3297
-18.2199
-19.1649
-20.3283
-21.7876
-23.5415
-25.5228
-27.6152
-29.6714
-31.5322
-33.0443
-34.0752
-34.5255
-34.3367
-33.4954
-32.0326
-30.0206
-27.5655
-24.7984
-21.8651
-18.9146
-16.0898
-13.5181
-11.3049
-9.52971
-8.24398
-7.47109
-7.20765
-7.42502
-8.07086
-9.07024
-10.3268
-11.7242
-13.1298
-14.3992
-15.3847
-15.9456
-15.9602
-15.3386
-14.034
-12.0513
-9.4515
-6.35002
-2.91024
0.66909
4.17019
7.37522
10.0855
12.1387
13.4226
13.8833
13.5273
12.4176
10.6648
8.41353
5.82715
3.07189
0.30284
-2.34689
-4.77276
-6.90097
-8.68653
-10.1084
-11.163
-11.8575
-12.2037
-12.2146
-11.902
-11.2768
-10.3503
-9.13678
-7.65513
-5.93066
-3.99502
-1.88488
0.361008
2.70611
5.12135
7.59074
10.1165
12.723
15.458
18.3914
21.6093
25.2048
29.2652
33.8556
39.0028
44.6785
50.7864
57.1542
63.5322
69.6009
74.9881
79.2944
82.1267
83.1364
82.0579
78.7443
73.1935
65.5622
56.1641
45.4511
33.9789
22.3596
11.2078
1.08424
-7.55482
-14.3968
-19.2962
-22.2799
-23.532
-23.3624
-22.159
-20.3308
-18.2424
-16.1485
-14.1299
-12.0402
-9.46752
-5.72287
0.138087
9.24897
22.818
41.9647
67.5188
99.8018
138.424
182.134
228.764
275.292
318.047
353.037
376.372
384.73
375.805
348.668
303.983
244.054
172.673
94.7958
16.0714
-57.7193
-121.247
-170.178
-201.607
-214.334
-208.96
-187.768
-154.44
-113.608
-70.3269
-29.5092
4.59818
28.8395
41.4301
42.0644
31.8465
13.0616
-11.1757
-37.3467
-61.971
-82.0122
-95.2002
-100.238
-96.8722
-85.8402
-68.6926
-47.5376
-24.7351
-2.58357
16.9618
32.5071
43.3532
49.5314
51.7465
51.2382
49.585
48.4779
49.4945
53.9016
62.5081
75.5844
92.8522
113.542
136.507
160.374
183.707
205.175
223.686
238.482
249.191
255.826
258.73
258.496
255.85
251.538
246.207
240.326
234.119
227.556
220.372
212.127
202.296
190.369
175.957
158.883
139.244
117.438
94.1526
70.3103
46.9789
25.2617
6.17742
-9.45294
-21.0969
-28.5688
-32.0467
-32.0481
-29.3658
-24.9754
-19.9234
-15.2125
-11.697
-9.99908
-10.4569
-13.1068
-17.7013
-23.7571
-30.6263
-37.5819
-43.9045
-48.9629
-52.2774
-53.5621
-52.7408
-49.9395
-45.4558
-39.7125
-33.2025
-26.4306
-19.8612
-13.8761
-8.74717
-4.62442
-1.54
0.574917
1.86407
2.51511
2.72837
2.68935
2.54788
2.40571
2.31294
2.27247
2.25066
2.19179
2.03368
1.72201
1.22145
0.522281
-0.357846
-1.37661
-2.47335
-3.57753
-4.61803
-5.53164
-6.26978
-6.8026
-7.12001
-7.22995
-7.15421
-6.92251
-6.56588
-6.11019
-5.57051
-4.94715
-4.22336
-3.36515
-2.32295
-1.03509
0.567026
2.55242
4.98301
7.90565
11.3444
15.2941
19.7153
24.5325
29.6343
34.8778
40.0949
45.1008
49.7044
53.7188
56.9713
59.3121
60.621
60.8112
59.8314
57.6647
54.3273
49.8658
44.3552
37.8985
30.6278
22.706
14.3303
5.7335
-2.81661
-11.0229
-18.5695
-25.1389
-30.4329
-34.1969
-36.2441
-36.4736
-34.8809
-31.552
-26.6408
-20.325
-12.7447
-3.93184
6.25876
18.196
32.4803
49.8957
71.2991
97.4498
128.797
165.257
206.017
249.411
292.912
333.255
366.707
389.457
398.085
390.044
364.084
320.549
261.484
190.536
112.643
33.5422
-40.8265
-104.967
-154.418
-186.227
-199.239
-194.172
-173.479
-141.002
-101.499
-60.0719
-21.5971
9.79212
31.1036
40.729
38.5121
25.648
4.43633
-22.0687
-50.4649
-77.4106
-99.9906
-115.999
-124.115
-123.965
-116.063
-101.67
-82.5662
-60.7958
-38.4008
-17.1802
1.50072
16.8324
28.6061
37.1822
43.3906
48.3816
53.4472
59.8376
68.5965
80.4333
95.6472
114.108
135.291
158.361
182.286
205.964
228.348
248.548
265.908
280.032
290.788
298.265
302.716
304.481
303.912
301.312
296.891
290.744
282.86
273.152
261.502
247.816
232.073
214.364
194.918
174.103
152.412
130.423
108.76
88.0332
68.7952
51.4933
36.4394
23.7933
13.5619
5.61382
-0.294537
-4.48452
-7.31713
-9.15598
-10.3352
-11.1351
-11.7678
-12.3721
-13.0182
-13.7186
-14.4441
-15.1413
-15.7495
-16.2142
-16.4965
-16.5781
-16.4607
-16.1628
-15.7128
-15.143
-14.4827
-13.7542
-12.9703
-12.1355
-11.2478
-10.3026
-9.29716
-8.23345
-7.12102
-5.97744
-4.8274
-3.70039
-2.62755
-1.63843
-0.758327
-0.00675064
0.602625
1.06058
1.35998
1.49324
1.45071
1.22113
0.794793
0.169453
-0.641806
-1.6025
-2.64658
-3.67642
-4.56659
-5.17416
-5.35504
-4.98438
-3.97846
-2.31412
-0.042538
2.70607
5.72847
8.76559
11.5292
13.735
15.1378
15.5635
14.9336
13.2791
10.7407
7.55571
4.03392
0.524438
-2.62134
-5.08644
-6.62015
-7.06126
-6.3504
-4.53027
-1.73493
1.82995
5.91232
10.2406
14.5489
18.597
22.1845
25.1573
27.4092
28.8775
29.5372
29.3943
28.48
26.8473
24.5693
21.74
18.4747
14.91
11.2019
7.51971
4.03702
0.91836
-1.69594
-3.70535
-5.06225
-5.77993
-5.93307
-5.64956
-5.09347
-4.44071
-3.85006
-3.43266
-3.22287
-3.15226
-3.02676
-2.50637
-1.08678
1.91472
7.36268
16.2846
29.8151
49.0892
75.0795
108.384
148.988
196.049
247.738
301.207
352.706
397.865
432.116
451.226
451.843
431.994
391.45
331.888
256.828
171.334
81.517
-6.09085
-85.2273
-150.549
-198.171
-226.021
-233.982
-223.806
-198.817
-163.463
-122.764
-81.7321
-44.8414
-15.5976
3.7475
12.3141
10.5473
0.024219
-16.8473
-37.1942
-58.0573
-76.7404
-91.09
-99.681
-101.897
-97.9082
-88.5537
-75.1642
-59.34
-42.7222
-26.7821
-12.6529
-1.01829
7.93254
14.4858
19.3259
23.4154
27.8482
33.6957
41.8655
52.9864
67.334
84.8016
104.918
126.908
149.784
172.46
193.87
213.075
229.347
242.231
251.557
257.426
260.161
260.232
258.174
254.505
249.65
243.899
237.381
230.073
221.834
212.459
201.734
189.506
175.721
160.463
143.955
126.551
108.697
90.8832
73.5977
57.2711
42.2394
28.7187
16.7986
6.45264
-2.43778
-10.0488
-16.5766
-22.2031
-27.0681
-31.254
-34.7824
-37.6237
-39.7152
-40.9856
-41.3802
-40.8838
-39.5355
-37.4363
-34.7457
-31.6701
-28.4435
-25.3045
-22.4722
-20.1241
-18.3789
-17.2862
-16.8237
-16.9018
-17.3747
-18.057
-18.7431
-18.7431
-18.7431
-18.7431
-18.7431
-18.7431
-18.7431
-18.7431
-18.7431
-18.7431
-18.7431
-18.7431
-18.7431
-18.7431
-18.7431
-18.7431
-18.7431
-18.7431
-18.7431
-18.7431
