71.0315
68.0635
65.203
62.6174
60.4542
58.8201
57.7647
57.2707
57.2526
57.5646
58.0151
58.3871
58.4613
58.037
56.9497
55.0821
52.3683
48.7896
44.3656
39.141
33.1708
26.5084
19.197
11.2677
2.74463
-6.34495
-15.9557
-26.0091
-36.3808
-46.8933
-57.3174
-67.3811
-76.7873
-85.2365
-92.4528
-98.2079
-102.341
-104.774
-105.509
-104.631
-102.288
-98.6769
-94.0169
-88.5313
-82.4279
-75.8865
-69.0529
-62.0395
-54.9316
-47.7967
-40.6953
-33.6904
-26.854
-20.2681
-14.0226
-8.20653
-2.89768
1.8516
6.0292
9.67884
12.9154
15.939
19.0459
22.6317
27.18
33.2301
41.3154
51.8707
65.1091
80.8826
98.5434
116.835
133.841
147.016
153.323
149.475
132.277
99.0331
47.973
-21.3523
-107.777
-208.379
-318.529
-432.155
-542.197
-641.222
-722.132
-778.871
-807.066
-804.503
-771.389
-710.36
-626.237
-525.55
-415.901
-305.218
-201.005
-109.671
-35.9918
17.2221
49.2383
61.2917
56.2789
38.3037
12.1374
-17.3421
-45.6657
-69.1922
-85.3925
-92.9802
-91.8902
-83.1239
-68.4919
-50.2955
-30.9898
-12.8697
2.18846
12.9036
18.676
19.5801
16.2768
9.86461
1.69306
-6.83307
-14.4351
-20.106
-23.2067
-23.5053
-21.1622
-16.6669
-10.7409
-4.22164
2.0563
7.36633
11.171
13.1709
13.3179
11.7966
8.97708
5.35082
1.45706
-2.18768
-5.14896
-7.11513
-7.91564
-7.51667
-5.99743
-3.51312
-0.252898
3.59919
7.89282
12.5248
17.4355
22.5901
27.9487
33.4332
38.8983
44.1137
48.7649
52.4719
54.8277
55.4494
54.0352
50.4179
44.6064
36.8071
27.4222
17.0227
6.30065
-3.99432
-13.1263
-20.4423
-25.4319
-27.7702
-27.3407
-24.2356
-18.7368
-11.2791
-2.40235
7.30282
17.2485
26.8986
35.8081
43.6511
50.2338
55.4959
59.4982
62.4013
64.4369
65.8761
66.9975
68.0593
69.2769
70.8082
72.7468
75.1227
77.9089
81.0325
84.3867
87.8435
91.2638
94.5049
97.4237
99.8774
101.722
102.81
102.988
102.102
100.002
96.5513
91.6448
85.2227
77.2884
67.9212
57.284
45.6239
33.264
20.5881
8.01873
-4.00849
-15.0725
-24.7931
-32.8541
-39.0228
-43.1629
-45.2419
-45.332
-43.6048
-40.3193
-35.8043
-30.437
-24.618
-18.7461
-13.1949
-8.29354
-4.31292
-1.45884
0.129359
0.375543
-0.738306
-3.17625
-6.84876
-11.6073
-17.2325
-23.4161
-29.7416
-35.6657
-40.5112
-43.4766
-43.6738
-40.1988
-32.2413
-19.2271
-0.983774
22.0922
48.8949
77.527
105.307
128.885
144.486
148.254
136.692
107.13
58.1801
-9.8992
-94.9818
-193.051
-298.393
-404.015
-502.235
-585.406
-646.674
-680.691
-684.195
-656.381
-599.021
-516.31
-414.463
-301.105
-184.524
-72.8745
26.5756
108.08
167.862
204.336
218.088
211.638
189.015
155.213
115.587
75.273
38.6804
9.11821
-11.4198
-22.3012
-24.1431
-18.5706
-7.88852
5.28771
18.3929
29.2233
36.1668
38.3321
35.5757
28.4312
17.9638
5.57548
-7.2106
-18.9559
-28.4794
-34.9792
-38.0936
-37.9013
-34.8665
-29.7419
-23.4459
-16.9327
-11.0703
-6.54272
-3.7834
-2.94736
-3.91944
-6.355
-9.7446
-13.4922
-16.9961
-19.7222
-21.2619
-21.3676
-19.9657
-17.1456
-13.1297
-8.23049
-2.80106
2.81372
8.31812
13.4946
18.2178
22.4542
26.2476
29.6965
32.9256
36.058
39.1909
42.3789
45.6243
48.8771
52.0402
54.9801
57.5401
59.5543
60.8616
61.3178
60.8067
59.2503
56.6163
52.9243
48.2487
42.7181
36.509
29.8353
22.932
16.0357
9.36452
3.09878
-2.63287
-7.76116
-12.2756
-16.2161
-19.6574
-22.6898
-25.3972
-27.8384
-30.0314
-31.9451
-33.4995
-34.573
-35.0171
-34.6752
-33.4042
-31.0948
-27.6887
-23.1911
-17.6763
-11.288
-4.23295
3.22896
10.7988
18.1537
24.9614
30.8944
35.6414
38.9168
40.4689
40.0876
37.6123
32.9419
26.0445
16.9688
5.85395
-7.06298
-21.4444
-36.8558
-52.7776
-68.6261
-83.7835
-97.6354
-109.614
-119.245
-126.186
-130.262
-131.487
-130.068
-126.387
-120.973
-114.45
-107.477
-100.692
-94.6429
-89.745
-86.2434
-84.1987
-83.4911
-83.8429
-84.8547
-86.0501
-86.9224
-86.9771
-85.7653
-82.9043
-78.0838
-71.0615
-61.6519
-49.7174
-35.1721
-18.0064
1.6613
23.5056
46.8971
70.8036
93.7121
113.6
127.978
134.024
128.812
109.622
74.3065
21.6725
-48.1886
-133.662
-231.523
-337.026
-444.194
-546.272
-636.317
-707.858
-755.542
-775.695
-766.725
-729.316
-666.382
-582.791
-484.887
-379.863
-275.06
-177.277
-92.1595
-23.7384
25.8347
56.3411
69.3393
67.8314
55.8018
37.689
17.8567
0.12406
-12.5944
-18.5081
-17.0159
-8.62416
5.25718
22.6049
41.1143
58.5286
72.9253
82.9291
87.8323
87.6189
82.8965
74.7573
64.5901
53.8739
43.9783
35.9985
30.6387
28.1563
28.3681
30.7112
34.3475
38.2942
41.5625
43.2868
42.8285
39.8456
34.3216
26.5537
17.1062
6.73721
-3.69126
-13.3069
-21.315
-27.071
-30.132
-30.2836
-27.5425
-22.1368
-14.4678
-5.06135
5.48782
16.5697
27.6071
38.0927
47.6133
55.8611
62.6318
67.8137
71.3704
73.3209
73.7217
72.6525
70.2081
66.4957
61.6375
55.7761
49.0801
41.7477
34.0062
26.1059
18.3096
10.877
4.04763
-1.97742
-7.05068
-11.0894
-14.0808
-16.0797
-17.2004
-17.6019
-17.4686
-16.9903
-16.3409
-15.6611
-15.0452
-14.5347
-14.1182
-13.738
-13.3029
-12.7039
-11.8329
-10.5995
-8.94592
-6.85707
-4.36481
-1.54634
1.48326
4.58291
7.60041
10.3883
12.8184
14.7937
16.2559
17.1866
17.6046
17.557
17.1069
16.3192
15.2455
13.9104
12.3012
10.362
7.99568
5.07291
1.44974
-3.00724
-8.39093
-14.7228
-21.9256
-29.8062
-38.0515
-46.2422
-53.884
-60.4535
-65.4548
-68.478
-69.2532
-67.69
-63.8989
-58.189
-51.0425
-43.0691
-34.9454
-27.3476
-20.8842
-16.0385
-13.125
-12.2662
-13.3892
-16.2431
-20.4328
-25.4649
-30.7998
-35.9028
-40.2896
-43.5581
-45.4048
-45.622
-44.0781
-40.6847
-35.3614
-28.01
-18.5133
-6.77166
7.21372
23.2129
40.6072
58.2263
74.2206
86.0158
90.3903
83.704
62.2782
22.8993
-36.6159
-116.876
-216.485
-331.823
-457.084
-584.619
-705.554
-810.626
-891.145
-939.951
-952.258
-926.254
-863.385
-768.278
-648.307
-512.854
-372.344
-237.191
-116.761
-18.4813
52.7971
95.1324
109.486
99.3973
70.4041
29.2802
-16.7959
-61.0447
-97.7702
-122.855
-134.026
-130.889
-114.742
-88.2178
-54.8238
-18.4267
17.2351
48.9668
74.417
92.2416
102.128
104.695
101.289
93.7288
84.0116
74.0455
65.4203
59.2472
56.0776
55.901
58.2142
62.1446
66.6078
70.4757
72.7331
72.6066
69.6504
63.7846
55.2848
44.7291
32.9138
20.7489
9.15089
-1.05659
-9.22126
-14.9129
-17.9426
-18.3518
-16.3753
-12.3866
-6.83552
-0.186305
7.13338
14.7678
22.449
29.9942
37.2871
44.2492
50.8082
56.8691
62.2954
66.902
70.4637
72.7351
73.4822
72.5167
69.7317
65.1288
58.8364
51.1119
42.3296
32.9542
23.5018
14.4947
6.41365
-0.3452
-5.50541
-8.93179
-10.6371
-10.7732
-9.6082
-7.49255
-4.81893
-1.98009
0.670153
2.84862
4.36425
5.12764
5.14858
4.52285
3.41082
2.01097
0.531937
-0.833466
-1.92954
-2.65216
-2.95549
-2.85103
-2.39996
-1.70059
-0.873093
-0.0438964
0.668302
1.16307
1.36428
1.22123
0.704958
-0.199227
-1.50169
-3.21896
-5.38272
-8.04543
-11.2808
-15.178
-19.8297
-25.3134
-31.6695
-38.8773
-46.8339
-55.3396
-64.0927
-72.698
-80.689
-87.5623
-92.8231
-96.0347
-96.8684
-95.145
-90.8639
-84.2148
-75.5691
-65.4513
-54.4939
-43.379
-32.7751
-23.2748
-15.3415
-9.27011
-5.16797
-2.9551
-2.38564
-3.08593
-4.60454
-6.46714
-8.22847
-9.51354
-10.0415
-9.6278
-8.16461
-5.58291
-1.80623
3.2908
9.90302
18.2785
28.6541
41.1389
55.5539
71.25
86.9397
100.588
109.406
109.99
98.6121
71.6647
26.1973
-39.5132
-125.457
-229.54
-347.469
-472.917
-597.971
-713.837
-811.705
-883.691
-923.705
-928.155
-896.385
-830.78
-736.538
-621.128
-493.509
-363.207
-239.362
-129.861
-40.646
24.7279
65.2438
82.2957
79.3083
61.1694
33.5551
2.23223
-27.5771
-51.7039
-67.3647
-73.2983
-69.7092
-58.0457
-40.6557
-20.375
-0.105215
17.567
30.6666
38.0156
39.2977
35.0053
26.2911
14.7508
2.17315
-9.70741
-19.4256
-25.9431
-28.7354
-27.805
-23.6259
-17.035
-9.08863
-0.906127
6.47744
12.2331
15.821
17.0278
15.96
12.9967
8.71379
3.79095
-1.08451
-5.30455
-8.40834
-10.1244
-10.3845
-9.31091
-7.18035
-4.37313
-1.31417
1.58517
3.97756
5.61694
6.37944
6.2673
5.39716
3.97615
2.26994
0.56771
-0.851426
-1.74673
-1.93607
-1.30674
0.183153
2.51162
5.60574
9.35816
13.6443
18.3379
23.3232
28.5031
33.8021
39.1656
44.5554
49.9427
55.3
60.5919
65.7671
70.751
75.4404
79.701
83.3685
86.2532
88.1507
88.8562
88.184
85.9898
82.1936
76.8012
69.9195
61.764
52.6555
43.0046
33.2855
23.9996
15.6331
8.61321
3.26713
-0.210111
-1.77621
-1.54706
0.213722
3.12013
6.70152
10.4486
13.8628
16.5029
18.0255
18.2125
16.9857
14.4045
10.6504
5.99876
0.783213
-4.64254
-9.94111
-14.8215
-19.0599
-22.5103
-25.1039
-26.8393
-27.7667
-27.9672
-27.5331
-26.5502
-25.086
-23.1849
-20.8718
-18.1616
-15.076
-11.6632
-8.0167
-4.29198
-0.713896
2.42657
4.78937
6.01632
5.77359
3.80096
-0.039027
-5.71975
-13.0247
-21.5433
-30.69
-39.7482
-47.9307
-54.451
-58.5937
-59.7751
-57.5863
-51.8174
-42.4678
-29.7493
-14.0961
3.80881
22.9878
42.1052
59.4056
72.6788
79.2838
76.2644
60.5719
29.3981
-19.4104
-86.9065
-172.634
-274.336
-387.843
-507.202
-625.046
-733.204
-823.463
-888.425
-922.316
-921.67
-885.77
-816.8
-719.669
-601.541
-471.122
-337.784
-210.653
-97.7467
-5.27195
62.8505
105.191
122.742
118.595
97.4291
64.8726
26.8269
-11.1704
-44.4749
-69.7082
-84.9471
-89.7276
-84.8827
-72.2523
-54.3121
-33.7764
-13.2252
5.20277
20.0192
30.4847
36.5954
38.9739
38.6872
37.026
35.2767
34.5181
35.469
38.4018
43.1302
49.0654
55.3294
60.9054
64.8001
66.197
64.5774
59.7947
52.0947
42.0799
30.6277
18.7742
7.58116
-1.99456
-9.21264
-13.6281
-15.1292
-13.9308
-10.5293
-5.62367
-0.0186794
5.47919
10.1579
13.4772
15.1188
15.0056
13.2889
10.3099
6.53988
2.51048
-1.25807
-4.32066
-6.35636
-7.19789
-6.83954
-5.42463
-3.21585
-0.553822
2.18998
4.65938
6.55308
7.65312
7.83962
7.09104
5.47167
3.10916
0.166884
-3.18434
-6.7906
-10.5319
-14.33
-18.147
-21.9754
-25.8233
-29.6972
-33.5857
-37.4478
-41.2071
-44.7532
-47.9503
-50.6505
-52.7112
-54.0128
-54.4738
-54.0631
-52.8047
-50.7771
-48.1059
-44.9511
-41.4914
-37.9069
-34.3628
-30.9967
-27.9094
-25.1622
-22.778
-20.7476
-19.0378
-17.6004
-16.38
-15.3186
-14.3573
-13.4343
-12.4822
-11.4247
-10.1761
-8.64347
-6.73363
-4.36359
-1.47303
1.96266
5.92134
10.3269
15.0475
19.9005
24.6633
29.09
32.932
35.9599
37.9854
38.8784
38.5806
37.1107
34.5636
31.1018
26.9416
22.3346
17.5472
12.8403
8.45038
4.57491
1.36206
-1.09373
-2.75046
-3.61177
-3.71509
-3.11548
-1.86592
0.0049677
2.51623
5.75598
9.89641
15.1957
21.979
30.5896
41.3045
54.2132
69.0668
85.1159
100.967
114.497
122.865
122.66
110.189
81.9144
34.9762
-32.2524
-119.671
-225.108
-344.2
-470.551
-596.166
-712.144
-809.537
-880.288
-918.128
-919.297
-883.021
-811.655
-710.481
-587.18
-451.043
-312.026
-179.747
-62.5695
33.1518
103.557
147.472
166.297
163.621
144.625
115.367
82.0265
50.2164
24.4194
7.61607
1.12571
4.65957
16.5606
34.1828
54.3503
73.8333
89.781
100.061
103.475
99.83
89.8812
75.1507
57.6698
39.677
23.3161
10.3726
2.07741
-1.00268
1.01711
7.40805
16.9656
28.1926
39.5021
49.4109
56.7045
60.553
60.5723
56.8265
49.7789
40.202
29.0612
17.3892
6.16643
-3.77934
-11.844
-17.684
-21.2184
-22.6007
-22.1653
-20.361
-17.6782
-14.581
-11.4516
-8.5525
-6.00939
-3.81501
-1.85168
0.0718498
2.17483
4.65676
7.65357
11.2037
15.2284
19.5295
23.805
27.681
30.7575
32.6603
33.0944
31.8894
29.0324
24.6807
19.1531
12.8996
6.45236
0.364649
-4.85448
-8.80092
-11.223
-12.0489
-11.3903
-9.52204
-6.83925
-3.80084
-0.865285
1.57062
3.22181
3.94683
3.75755
2.80643
1.35396
-0.277727
-1.75772
-2.79763
-3.19408
-2.85716
-1.82197
-0.24335
1.62393
3.45552
4.89347
5.58321
5.20734
3.51376
0.336297
-4.39221
-10.6343
-18.2492
-26.9991
-36.5627
-46.5513
-56.5317
-66.0517
-74.6692
-81.983
-87.6622
-91.4733
-93.2999
-93.1543
-91.1771
-87.6252
-82.8479
-77.2532
-71.2693
-65.3032
-59.7042
-54.7342
-50.5501
-47.1982
-44.6219
-42.6809
-41.1779
-39.8895
-38.5966
-37.1112
-35.2954
-33.072
-30.4264
-27.3998
-24.0768
-20.5688
-16.9963
-13.4705
-10.0767
-6.85809
-3.79977
-0.812336
2.28603
5.78701
10.1052
15.7803
23.4579
33.8409
47.5999
65.2429
86.9463
112.365
140.452
169.318
196.186
217.467
228.993
226.404
205.659
163.627
98.6715
11.1317
-96.3709
-218.885
-349.366
-479.202
-598.975
-699.374
-772.16
-811.046
-812.399
-775.661
-703.443
-601.277
-477.053
-340.225
-200.863
-68.6744
47.8935
142.383
210.802
251.822
266.676
258.805
233.297
196.203
153.814
111.978
75.5404
47.946
31.0371
25.054
28.8123
40.0218
55.6959
72.5954
87.6524
98.3285
102.872
100.454
91.179
75.9856
56.4493
34.5308
12.2978
-8.34228
-25.8674
-39.301
-48.2915
-53.1078
-54.5562
-53.8333
-52.3375
-51.4651
-52.4177
-56.0457
-62.7475
-72.4329
-84.5556
-98.2036
-112.235
-125.437
-136.685
-145.076
-150.028
-151.321
-149.084
-143.738
-135.898
-126.265
-115.512
-104.194
-92.688
-81.171
-69.6338
-57.9288
-45.8379
-33.1492
-19.7284
-5.57517
9.14633
24.104
38.8226
52.7308
65.2235
75.7304
83.7799
89.0521
91.4134
90.9307
87.8629
82.6353
75.7966
67.9686
59.7901
51.8642
44.7113
38.7328
34.1873
31.1801
29.6667
29.4681
30.2959
31.786
33.5354
35.1418
36.2405
36.5365
35.8288
34.0255
31.148
27.3238
22.77
17.7688
12.6368
7.69352
3.23017
-0.516529
-3.38366
-5.29263
-6.25013
-6.34006
-5.70773
-4.5387
-3.03524
-1.39373
0.214006
1.65295
2.82947
3.68839
4.20394
4.36709
4.17232
3.60679
2.64408
1.24377
-0.643466
-3.06675
-6.06428
-9.65389
-13.8271
-18.5481
-23.7572
-29.3772
-35.3211
-41.4966
-47.8076
-54.1493
-60.3992
-66.405
-71.973
-76.8621
-80.7865
-83.4302
-84.4738
-83.6322
-80.6973
-75.5801
-68.3439
-59.2224
-48.6154
-37.0616
-25.188
-13.6401
-3.00097
6.29057
14.0131
20.2152
25.2379
29.7017
34.4506
40.4555
48.6759
59.89
74.503
92.3541
112.545
133.323
152.049
165.286
169.021
159.034
131.385
82.9707
12.0929
-81.0623
-194.106
-322.359
-459.046
-595.752
-723.137
-831.799
-913.217
-960.647
-969.85
-939.589
-871.791
-771.392
-645.852
-504.414
-357.199
-214.226
-84.4881
24.8203
108.855
165.391
194.806
199.796
184.874
155.723
118.495
79.1209
42.7276
13.1988
-7.07532
-17.2549
-17.9266
-10.8316
1.50632
16.2003
30.4132
41.7154
48.3525
49.3986
44.79
35.2478
22.109
7.09687
-7.93405
-21.2462
-31.4286
-37.5465
-39.2173
-36.612
-30.3869
-21.5625
-11.3685
-1.0782
8.14747
15.3869
20.0436
21.8844
21.0292
17.9005
13.1399
7.50874
1.78366
-3.33732
-7.30838
-9.78167
-10.6222
-9.89251
-7.81341
-4.70683
-0.932468
3.17291
7.34417
11.4181
15.3424
19.1626
22.9924
26.9706
31.2147
35.7781
40.6175
45.5765
50.3897
54.7044
58.1197
60.2367
60.7124
59.3103
55.9397
50.6788
43.7771
35.6375
26.7792
17.7865
9.24982
1.70656
-4.41176
-8.81916
-11.3976
-12.2001
-11.4352
-9.43493
-6.61151
-3.40824
-0.250423
2.49765
4.56541
5.79522
6.14719
5.69006
4.58063
3.03507
1.29628
-0.398704
-1.84768
-2.9061
-3.50252
-3.64657
-3.43019
-3.02341
-2.66575
-2.65365
-3.32399
-5.03337
-8.13265
-12.9369
-19.6925
-28.5425
-39.4962
-52.405
-66.9503
-82.6478
-98.8694
-114.884
-129.916
-143.212
-154.113
-162.127
-166.981
-168.657
-167.402
-163.703
-158.242
-151.822
-145.284
-139.41
-134.846
-132.027
-131.139
-132.097
-134.564
-137.987
-141.665
-144.823
-146.696
-146.609
-144.041
-138.679
-130.433
-119.442
-106.042
-90.7211
-74.0592
-56.6564
-39.0645
-21.7238
-4.913
11.2837
26.9891
42.5235
58.3702
75.1177
93.3737
113.654
136.246
161.056
187.45
214.119
238.991
259.232
271.36
271.511
255.826
220.959
164.635
86.1718
-13.1062
-129.66
-257.789
-389.964
-517.434
-631.036
-722.111
-783.421
-809.936
-799.396
-752.574
-673.197
-567.56
-443.857
-311.338
-179.387
-56.6216
49.8601
135.036
196.249
233.228
247.849
243.692
225.462
198.348
167.409
137.038
110.586
90.1427
76.5027
69.2907
67.2131
68.3907
70.7202
72.2154
71.2868
66.9306
58.8124
47.2454
33.078
17.5145
1.89965
-12.4996
-24.6849
-34.0656
-40.5291
-44.4378
-46.558
-47.9317
-49.7146
-53.002
-58.6687
-67.2427
-78.8307
-93.1007
-109.324
-126.463
-143.303
-158.584
-171.145
-180.037
-184.608
-184.547
-179.885
-170.968
-158.391
-142.933
-125.466
-106.891
-88.0617
-69.7418
-52.5642
-37.0115
-23.4071
-11.9175
-2.56382
4.75839
10.2511
14.1797
16.8333
18.4842
19.3493
19.5588
19.138
18.0049
15.9872
12.8582
8.38854
2.4085
-5.12902
-14.0936
-24.1409
-34.7024
-45.0048
-54.1188
-61.0342
-64.7525
-64.3885
-59.2693
-49.0205
-33.63
-13.4814
10.6475
37.6215
66.0193
94.2321
120.583
143.454
161.416
173.338
178.482
176.554
167.724
152.6
132.16
107.657
80.4951
52.1046
23.8182
-3.23002
-28.1754
-50.4561
-69.8078
-86.2222
-99.8783
-111.057
-120.055
-127.106
-132.326
-135.694
-137.056
-136.168
-132.756
-126.598
-117.592
-105.823
-91.6018
-75.4679
-58.1666
-40.5897
-23.6953
-8.41323
4.44908
14.2889
20.7678
23.8407
23.7523
21.0009
16.2755
10.3756
4.1238
-1.71481
-6.49374
-9.71449
-11.0156
-10.1187
-6.73906
-0.474854
9.29924
23.5066
43.3844
70.4199
106.204
152.212
209.537
278.625
359.055
449.397
547.204
649.119
751.108
848.774
937.706
1013.81
1073.57
1114.2
1133.72
1130.92
1105.29
1056.92
986.533
895.468
785.812
660.533
523.6
380.032
235.826
97.7246
-27.1753
-131.952
-210.463
-257.965
-271.644
-251.004
-198.036
-117.141
-14.8017
100.953
221.253
337.168
440.477
524.358
583.907
616.461
621.68
601.409
559.342
500.545
430.888
356.458
283.011
215.517
157.824
112.46
80.5881
62.0772
55.6897
59.3374
70.3821
85.9446
103.195
119.6
133.109
142.276
146.307
145.039
138.864
128.607
115.374
100.4
84.8926
69.9103
56.2724
44.5101
34.8588
27.2883
21.5593
17.2979
14.0739
11.4725
9.15177
6.8789
4.54427
2.15437
-0.192265
-2.34018
-4.11652
-5.36846
-5.99327
-5.95737
-5.30267
-4.14072
-2.63663
-0.985935
0.611379
1.97609
2.97052
3.51251
3.58121
3.21465
2.49995
1.5583
0.526885
-0.459568
-1.28533
-1.86658
-2.1599
-2.16634
-1.93186
-1.54513
-1.1333
-0.855645
-0.894311
-1.44057
-2.67546
-4.7444
-7.72703
-11.6056
-16.2374
-21.3374
-26.4783
-31.1129
-34.6204
-36.3752
-35.8302
-32.6044
-26.5604
-17.857
-6.9674
5.34633
18.1002
30.1911
40.5218
48.1309
52.311
52.6959
49.3067
42.5498
33.1671
22.1458
10.601
-0.353945
-9.73147
-16.7739
-21.0245
-22.3593
-20.9771
-17.3528
-12.1609
-6.18163
-0.202085
5.07549
9.10698
11.5544
12.3052
11.4618
9.30772
6.25384
2.77551
-0.652153
-3.61225
-5.79101
-7.00572
-7.21414
-6.50678
-5.08555
-3.23333
-1.27978
0.432138
1.57555
1.8632
1.06474
-0.98149
-4.36077
-9.07756
-15.0538
-22.1303
-30.0736
-38.5875
-47.3335
-55.9571
-64.1197
-71.5321
-77.985
-83.3716
-87.697
-91.0731
-93.6944
-95.8
-97.6219
-99.328
-100.967
-102.423
-103.401
-103.433
-101.945
-98.3681
-92.3022
-83.7238
-73.207
-62.1173
-52.7268
-48.1961
-52.3844
-69.4724
-103.422
-157.332
-232.787
-329.307
-443.997
-571.497
-704.256
-833.132
-948.259
-1040.07
-1100.36
-1123.25
-1105.89
-1048.83
-956.086
-834.666
-693.91
-544.489
-397.312
-262.437
-148.113
-60.0634
-1.08132
29.0327
33.2074
16.5578
-14.3537
-52.3565
-90.5055
-122.817
-144.827
-153.93
-149.465
-132.578
-105.879
-72.9702
-37.9023
-4.63012
23.4602
43.9088
55.3898
57.7602
51.9587
39.7829
23.5831
5.92099
-10.7642
-24.4389
-33.6793
-37.7795
-36.7595
-31.2825
-22.502
-11.864
-0.894152
9.00192
16.7023
21.4793
23.0484
21.5572
17.5208
11.7184
5.0671
-1.50733
-7.18768
-11.3562
-13.6509
-13.9836
-12.5222
-9.64184
-5.85597
-1.73694
2.16271
5.37876
7.58671
8.63181
8.53643
7.48563
5.79432
3.86017
2.10819
0.93295
0.644784
1.42573
3.30024
6.12434
9.5951
13.2806
16.6681
19.2254
20.4699
20.0349
17.7265
13.5604
7.77387
0.809109
-6.73146
-14.152
-20.7442
-25.8716
-29.0457
-29.9839
-28.6411
-25.2122
-20.1049
-13.8867
-7.21553
-0.760811
4.87227
9.2078
11.9455
12.9845
12.4237
10.5404
7.75252
4.56865
1.53416
-0.822326
-2.03589
-1.74239
0.296941
4.18417
9.88589
17.2453
26.0024
35.8195
46.3089
57.0602
67.6651
77.7379
86.9318
94.9495
101.548
106.541
109.795
111.227
110.803
108.533
104.476
98.7405
91.4912
82.9503
73.3989
63.1721
52.6472
42.226
32.3105
23.275
15.4375
9.03368
4.19682
0.946947
-0.809715
-1.27015
-0.71393
0.524981
2.0908
3.63895
4.8657
5.53126
5.47404
4.6151
2.95367
0.555479
-2.46267
-5.94857
-9.72655
-13.6027
-17.3611
-20.752
-23.4735
-25.1536
-25.3404
-23.5114
-19.1122
-11.6329
-0.726186
13.6409
31.0149
50.2929
69.6052
86.2833
96.9509
97.7594
84.7687
54.4437
4.21121
-67.0006
-158.328
-266.722
-386.952
-511.879
-633.005
-741.228
-827.745
-884.966
-907.344
-892.014
-839.14
-751.95
-636.431
-500.735
-354.367
-207.247
-68.7714
53.0423
152.21
225.194
271.03
291.18
289.15
269.921
239.287
203.167
166.984
135.151
110.741
95.3265
89.0204
90.6666
98.1608
108.842
119.904
128.777
133.437
132.609
125.862
113.585
96.8602
77.2679
56.6439
36.8294
19.4431
5.70115
-3.69637
-8.60673
-9.41361
-6.93538
-2.2892
3.26849
8.50345
12.3475
14.0092
13.0412
9.36093
3.22743
-4.81925
-14.0435
-23.6125
-32.6944
-40.5448
-46.5732
-50.3855
-51.7981
-50.8298
-47.6717
-42.6449
-36.1504
-28.6198
-20.4716
-12.0763
-3.73488
4.33134
11.9786
19.1287
25.7493
31.8298
37.3557
42.2864
46.5396
49.9856
52.4543
53.7543
53.7012
52.1525
49.042
44.4068
38.404
31.3103
23.5055
15.4398
7.59006
0.410319
-5.71594
-10.5157
-13.8525
-15.736
-16.3135
-15.8455
-14.6692
-13.1545
-11.6593
-10.4894
-9.86692
-9.91221
-10.6385
-11.9607
-13.7146
-15.6848
-17.6361
-19.345
-20.6273
-21.3583
-21.4853
-21.0299
-20.0809
-18.7812
-17.3074
-15.8489
-14.5856
-13.6695
-13.2102
-13.2672
-13.8477
-14.9115
-16.3799
-18.149
-20.105
-22.1383
-24.1568
-26.0942
-27.9135
-29.6047
-31.176
-32.6413
-34.0036
-35.2393
-36.284
-37.0235
-37.2923
-36.8812
-35.5531
-33.0678
-29.2115
-23.8274
-16.8444
-8.29682
1.66516
12.7794
24.6878
36.964
49.1485
60.7865
71.4651
80.8448
88.6835
94.8504
99.3313
102.226
103.737
104.159
103.864
103.289
102.923
103.301
104.991
108.578
114.637
123.681
136.091
152.013
171.24
193.076
216.218
238.676
257.766
270.198
272.29
260.307
230.89
181.554
111.171
20.3693
-88.2187
-209.93
-338.282
-465.432
-582.832
-682.033
-755.517
-797.487
-804.497
-775.851
-713.714
-622.928
-510.543
-385.13
-255.95
-132.08
-21.5973
69.0997
135.755
176.478
191.703
183.933
157.281
116.914
68.4296
17.2754
-31.7589
-74.9119
-109.665
-134.795
-150.274
-157.05
-156.749
-151.336
-142.794
-132.844
-122.754
-113.238
-104.452
-96.0847
-87.5041
-77.9481
-66.7142
-53.3259
-37.6512
-19.9574
-0.899786
18.5511
37.2293
53.9207
67.5161
77.1473
82.2901
82.8211
79.0224
71.5385
61.2911
49.3675
36.8967
24.9311
14.3466
5.77274
-0.441372
-4.2247
-5.74893
-5.36767
-3.54001
-0.749187
2.57273
6.10487
9.6753
13.2725
17.0303
21.1897
26.044
31.8754
38.8933
47.1829
56.6715
67.1164
78.1169
89.1476
99.6075
108.88
116.394
121.68
124.411
124.432
121.764
116.595
109.247
100.145
89.7674
78.6091
67.1416
55.7871
44.9009
34.7634
25.5786
17.4774
10.5219
4.70892
-0.0273012
-3.81323
-6.83237
-9.31769
-11.5381
-13.7781
-16.3114
-19.3701
-23.1156
-27.6121
-32.8109
-38.546
-44.5453
-50.4544
-55.8728
-60.3969
-63.665
-65.3969
-65.4237
-63.7014
-60.3074
-55.4197
-49.2821
-42.1623
-34.3095
-25.9196
-17.1153
-7.94447
1.60248
11.5564
21.9215
32.6224
43.4548
54.0496
63.8571
72.1583
78.1042
80.7837
79.3136
72.9441
61.1666
43.8133
21.1312
-6.17769
-36.9629
-69.681
-102.5
-133.448
-160.583
-182.179
-196.899
-203.927
-203.064
-194.743
-179.99
-160.316
-137.553
-113.667
-90.5494
-69.8285
-52.7075
-39.8561
-31.3593
-26.7285
-24.9709
-24.7097
-24.3443
-22.2365
-16.9115
-7.25901
7.27673
26.5336
49.5114
74.3155
98.1837
117.617
128.628
127.094
109.215
72.0101
13.8174
-65.291
-163.233
-275.843
-397.039
-519.227
-633.924
-732.527
-807.166
-851.515
-861.487
-835.714
-775.743
-685.933
-573.047
-445.593
-312.984
-184.62
-68.9887
27.093
99.0424
144.801
164.84
161.9
140.506
106.323
65.4579
23.7659
-13.7347
-43.2974
-62.6879
-71.2233
-69.6274
-59.7393
-44.1275
-25.6686
-7.14655
9.07895
21.303
28.5878
30.7597
28.3057
22.2006
13.6959
4.10696
-5.37203
-13.8044
-20.5863
-25.4613
-28.482
-29.9329
-30.2344
-29.8432
-29.167
-28.502
-28.0015
-27.6734
-27.4043
-27.0015
-26.2447
-24.9372
-22.9485
-20.2428
-16.8894
-13.0557
-8.98515
-4.96383
-1.28228
1.80206
4.09655
5.49527
5.989
5.66297
4.68358
3.27651
1.69979
0.215031
-0.939536
-1.57145
-1.5497
-0.812491
0.633271
2.71999
5.3335
8.33099
11.5604
14.8781
18.1639
21.33
24.3244
27.1288
29.7514
32.2162
34.5515
36.778
38.8996
40.8964
42.7222
44.3046
45.5485
46.3427
46.5683
46.1084
44.859
42.7402
39.7071
35.7598
30.9516
25.3952
19.2644
12.7936
6.27101
0.0293135
-5.56866
-10.147
-13.3361
-14.7933
-14.2243
-11.4025
-6.18829
1.4564
11.4566
23.6193
37.6346
53.0848
69.4615
86.189
102.654
118.237
132.344
144.436
154.057
160.842
164.543
165.022
162.261
156.358
147.519
136.052
122.359
106.92
90.274
73.0022
55.6972
38.9352
23.2432
9.06753
-3.25405
-13.5136
-21.6448
-27.7231
-31.9541
-34.6508
-36.2012
-37.0304
-37.5606
-38.1721
-39.1706
-40.7625
-43.0395
-45.976
-49.4346
-53.1826
-56.9134
-60.2698
-62.8661
-64.3031
-64.1749
-62.0683
-57.5583
-50.2092
-39.5893
-25.3114
-7.10397
15.0833
40.9475
69.6879
99.8751
129.365
155.293
174.175
182.143
175.301
150.19
104.298
36.569
-52.196
-159.097
-279.125
-405.411
-529.727
-643.2
-737.167
-804.048
-838.163
-836.362
-798.392
-726.968
-627.512
-507.622
-376.302
-243.076
-117.069
-6.16577
83.6569
148.767
188.041
202.752
196.216
173.255
139.547
100.94
62.8284
29.6359
4.46788
-11.0513
-16.7532
-13.7368
-4.05641
9.66385
24.6352
38.278
48.5235
54.0153
54.1976
49.292
40.1799
28.2129
14.9865
2.10603
-9.02256
-17.3547
-22.3063
-23.7836
-22.1482
-18.1269
-12.6842
-6.87599
-1.70522
2.00415
3.69981
3.15272
0.464693
-3.96531
-9.50864
-15.3974
-20.8249
-25.0439
-27.4508
-27.6467
-25.4716
-21.0082
-14.5593
-6.60202
2.27355
11.4323
20.2618
28.2309
34.9338
40.1157
43.6784
45.6677
46.2448
45.6487
44.1536
42.0286
39.5053
36.7555
33.8824
30.9249
27.8718
24.6828
21.3135
17.7374
13.9641
10.0495
6.09694
2.25038
-1.32017
-4.43757
-6.93857
-8.69362
-9.62296
-9.7071
-8.9905
-7.57845
-5.62785
-3.33319
-0.909486
1.42597
3.4713
5.05565
6.05147
6.38267
6.02813
5.0206
3.44118
1.41003
-0.925753
-3.40598
-5.87176
-8.17929
-10.2121
-11.8913
-13.1835
-14.1066
-14.733
-15.1901
-15.6579
-16.3606
-17.5546
-19.5095
-22.4843
-26.7006
-32.3146
-39.3917
-47.8874
-57.6366
-68.3543
-79.6474
-91.0372
-101.991
-111.956
-120.403
-126.856
-130.932
-132.363
-131.015
-126.899
-120.173
-111.127
-100.168
-87.795
-74.5603
-61.0344
-47.764
-35.234
-23.8333
-13.8296
-5.3539
1.60179
7.17493
11.6113
15.2352
18.4135
21.52
24.9016
28.8533
33.6038
39.3141
46.0903
54.0085
63.1486
73.6313
85.649
99.482
115.489
134.061
155.542
180.102
207.581
237.323
268.017
297.575
323.103
340.971
347.031
336.969
306.782
253.332
174.903
71.6971
-53.8473
-196.948
-350.649
-506.272
-654.099
-784.241
-887.577
-956.662
-986.493
-975.04
-923.472
-836.064
-719.777
-583.574
-437.549
-291.968
-156.331
-38.5505
55.6604
123.143
163.365
178.222
171.607
148.808
115.831
78.696
42.8242
12.5441
-9.22308
-21.0862
-23.1224
-16.655
-3.91686
12.3516
29.313
44.4034
55.6226
61.7191
62.2573
57.5751
48.647
36.883
23.8936
11.2556
0.308057
-8.00031
-13.1976
-15.3053
-14.7911
-12.4678
-9.35844
-6.54589
-5.02708
-5.58919
-8.72069
-14.5646
-22.9162
-33.2605
-44.844
-56.7667
-68.0851
-77.912
-85.5033
-90.3233
-92.0831
-90.7512
-86.537
-79.8526
-71.2575
-61.396
-50.9314
-40.4864
-30.5932
-21.6579
-13.9396
-7.54649
-2.44448
1.52134
4.59822
7.0934
9.34237
11.6812
14.4254
17.8554
22.2095
27.6798
34.4104
42.4951
51.9706
62.8077
74.8975
88.0387
101.925
116.144
130.177
143.426
155.238
164.955
171.964
175.751
175.949
172.378
165.07
154.27
140.421
124.136
106.145
87.2428
68.2313
49.8605
32.7833
17.5194
4.43613
-6.25664
-14.4966
-20.3482
-23.974
-25.6036
-25.5029
-23.9495
-21.2142
-17.5519
-13.2006
-8.38715
-3.33706
1.71442
6.51422
10.7891
14.2512
16.6131
17.6106
17.0308
14.7425
10.7231
5.07704
-1.95691
-10.0136
-18.6253
-27.2596
-35.3695
-42.4489
-48.0887
-52.0234
-54.1634
-54.6048
-53.6158
-51.5982
-49.0309
-46.4015
-44.1392
-42.5566
-41.8134
-41.906
-42.6862
-43.9057
-45.2793
-46.5558
-47.5821
-48.3495
-49.0111
-49.8642
-51.3005
-53.7285
-57.4808
-62.7208
-69.3628
-77.0196
-84.9881
-92.2783
-97.6898
-99.933
-97.7901
-90.3041
-76.9828
-57.995
-34.336
-7.93017
18.3583
40.8345
55.2199
57.035
42.0971
7.08336
-49.9083
-128.882
-227.63
-341.651
-464.334
-587.416
-701.685
-797.845
-867.454
-903.827
-902.787
-863.164
-786.982
-679.305
-547.748
-401.717
-251.466
-107.084
22.4691
130.171
211.495
264.67
290.626
292.648
275.79
246.152
210.084
173.444
140.978
115.893
99.6565
92.0312
91.3244
94.7981
99.1786
101.191
98.0493
87.8391
69.7586
44.1905
12.6141
-22.6221
-58.6266
-92.3432
-120.93
-142.092
-154.329
-157.08
-150.744
-136.597
-116.605
-93.1805
-68.8993
-46.2199
-27.235
-13.4791
-5.80948
-4.36704
-8.61518
-17.4454
-29.3339
-42.528
-55.2412
-65.8364
-72.9779
-75.7417
-73.6736
-66.7965
-55.5673
-40.7963
-23.5369
-4.96369
13.7506
31.5435
47.5488
61.1518
72.012
80.0536
85.4291
88.4621
89.5789
89.2375
87.863
85.7965
83.2614
80.3503
77.0312
73.1699
68.5651
62.99
56.2356
48.1505
38.6712
27.8426
15.8242
2.88246
-10.628
-24.2944
-37.681
-50.3665
-61.9795
-72.227
-80.9134
-87.9489
-93.3449
-97.1981
-99.665
-100.93
-101.17
-100.523
-99.0631
-96.7898
-93.6319
-89.4685
-84.1615
-77.597
-69.7246
-60.5868
-50.3307
-39.1966
-27.4847
-15.5045
-3.51855
8.30722
19.9329
31.4452
43.0242
54.8819
67.1804
79.9474
93.0041
105.925
118.037
128.469
136.241
140.388
140.099
134.847
124.497
109.368
90.2413
68.3125
45.0914
22.2633
1.52889
-15.5553
-27.7183
-34.0811
-34.2177
-28.1676
-16.4032
0.24204
20.6707
43.6318
67.8325
92.0379
115.153
136.282
154.759
170.161
182.291
191.16
196.943
199.943
200.547
199.194
196.339
192.437
187.922
183.202
178.652
174.609
171.359
169.116
167.979
167.876
168.482
169.13
168.719
165.652
157.82
142.679
117.429
79.3113
26.0034
-43.9288
-130.585
-232.37
-345.793
-465.486
-584.484
-694.749
-787.905
-856.091
-892.849
-893.896
-857.706
-785.8
-682.691
-555.505
-413.3
-266.179
-124.29
3.14455
108.681
187.28
236.647
257.266
252.127
226.219
185.831
137.787
88.6758
44.1877
8.60939
-15.471
-27.2357
-27.4989
-18.3945
-2.9438
15.4315
33.3892
48.0793
57.4488
60.4111
56.8741
47.6395
34.1985
18.4618
2.464
-11.9171
-23.1927
-30.4223
-33.2867
-32.0749
-27.5931
-21.0164
-13.7062
-7.01967
-2.13564
0.0814638
-0.832356
-4.91173
-11.7877
-20.7596
-30.899
-41.1698
-50.5461
-58.1147
-63.1496
-65.1536
-63.8658
-59.241
-51.4075
-40.6171
-27.1953
-11.5031
6.08536
25.1864
45.3949
66.2613
87.267
107.805
127.176
144.602
159.264
170.359
177.174
179.158
176.004
167.698
154.557
137.227
116.65
93.9988
70.5822
47.739
26.7219
8.59245
-5.86654
-16.2094
-22.3522
-24.5617
-23.4117
-19.7109
-14.4137
-8.52091
-2.98189
1.39312
4.0027
4.5005
2.81456
-0.861019
-6.10033
-12.3015
-18.758
-24.7376
-29.5608
-32.67
-33.6837
-32.4295
-28.9535
-23.5073
-16.5138
-8.518
-0.128417
8.0427
15.4345
21.5809
26.1389
28.8986
29.7772
28.7988
26.0664
21.7306
15.9626
8.9357
0.81702
-8.22826
-18.0239
-28.3643
-38.997
-49.611
-59.8366
-69.2595
-77.4482
-83.9937
-88.5545
-90.9004
-90.9471
-88.7749
-84.6274
-78.8882
-72.0398
-64.6095
-57.1101
-49.9854
-43.5669
-38.0482
-33.4807
-29.7886
-26.8017
-24.2987
-22.055
-19.8878
-17.6902
-15.4516
-13.2593
-11.2834
-9.74353
-8.86469
-8.82387
-9.69461
-11.3946
-13.6424
-15.9315
-17.5284
-17.504
-14.8078
-8.38844
2.63798
18.7811
39.9513
65.2499
92.8171
119.785
142.38
156.189
156.604
139.389
101.32
40.79
-41.7004
-143.28
-258.716
-380.741
-500.654
-609.166
-697.357
-757.653
-784.674
-775.866
-731.81
-656.182
-555.373
-437.798
-313.008
-190.691
-79.7002
12.7852
81.876
125.303
143.439
139.036
116.717
82.305
42.0827
2.0621
-32.6408
-58.2698
-72.6904
-75.4364
-67.5597
-51.3176
-29.7529
-6.22642
16.0354
34.3257
46.7343
52.2947
50.9968
43.6774
31.8169
17.2784
2.02847
-12.1218
-23.7247
-31.8311
-36.0453
-36.5007
-33.7702
-28.7314
-22.4101
-15.8244
-9.85238
-5.13451
-2.02126
-0.564839
-0.550626
-1.55846
-3.042
-4.41369
-5.12423
-4.72755
-2.92559
0.409899
5.238
11.369
18.4995
26.2564
34.2439
42.0876
49.4699
56.1559
62.0055
66.9732
71.0972
74.4803
77.2654
79.6108
81.6671
83.5571
85.3624
87.1137
88.7858
90.2971
91.5118
92.2469
92.2837
91.3852
89.3193
85.8859
80.9475
74.4571
66.4819
57.2159
46.9803
36.2087
25.4174
15.1632
5.99217
-1.61395
-7.28881
-10.8227
-12.1891
-11.5519
-9.25281
-5.77831
-1.71069
2.33239
5.76242
8.0816
8.93428
8.14256
5.72218
1.87727
-3.0251
-8.49714
-13.9841
-18.9237
-22.8034
-25.2111
-25.8725
-24.6732
-21.663
-17.0443
-11.1465
-4.38923
2.75888
9.82299
16.3611
21.9961
26.4388
29.5012
31.1
31.2527
30.0658
27.7199
24.4494
20.5214
16.2115
11.779
7.44265
3.35691
-0.406648
-3.8713
-7.15706
-10.4701
-14.0792
-18.2792
-23.3464
-29.4896
-36.8051
-45.2429
-54.5903
-64.4782
-74.4101
-83.8122
-92.0967
-98.731
-103.301
-105.558
-105.446
-103.097
-98.7992
-92.9427
-85.9434
-78.1621
-69.8269
-60.973
-51.4113
-40.7379
-28.3903
-13.7524
3.69496
24.1919
47.5048
72.7474
98.2536
121.537
139.368
147.996
143.501
122.271
81.5376
19.9058
-62.2027
-162.275
-275.665
-395.813
-514.73
-623.705
-714.147
-778.487
-810.998
-808.449
-770.507
-699.821
-601.79
-484.033
-355.632
-226.227
-105.083
-0.223052
82.28
138.771
168.211
172.093
154.097
119.547
74.731
26.1769
-20.042
-58.8891
-86.7849
-101.83
-103.822
-94.0873
-75.1538
-50.3296
-23.2336
2.65739
24.397
39.8535
47.8689
48.2855
41.853
30.0384
14.7716
-1.83454
-17.7564
-31.2894
-41.2148
-46.8886
-48.2518
-45.767
-40.2987
-32.9562
-24.9246
-17.3041
-10.9786
-6.52778
-4.18745
-3.86093
-5.17261
-7.55316
-10.3416
-12.8885
-14.6472
-15.241
-14.5006
-12.4692
-9.37838
-5.60015
-1.58468
2.20731
5.36792
7.59386
8.7218
8.74523
7.81335
6.21444
4.34726
2.68424
1.73035
1.9809
3.88094
7.78842
13.9427
22.4395
33.2134
46.0279
60.4755
75.9869
91.8517
107.251
121.303
133.119
141.866
146.841
147.534
143.685
135.33
122.812
106.777
88.1309
67.9725
47.5074
27.9451
10.3962
-4.22135
-15.2559
-22.3657
-25.5287
-25.0168
-21.3387
-15.1598
-7.2097
1.8082
11.2924
20.7939
30.0344
38.892
47.3577
55.4722
63.2563
70.6475
77.4547
83.3408
87.8351
90.3751
90.3698
87.2747
80.6657
70.3006
56.1584
38.4524
17.6157
-5.73754
-30.8655
-56.9608
-83.21
-108.843
-133.17
-155.598
-175.634
-192.881
-207.015
-217.774
-224.942
-228.347
-227.86
-223.412
-215.011
-202.766
-186.902
-167.782
-145.906
-121.907
-96.5205
-70.5541
-44.8319
-20.1388
2.83896
23.5666
41.7027
57.1239
69.9308
80.4346
89.127
96.6381
103.689
111.044
119.468
129.693
142.392
158.15
177.439
200.566
227.612
258.338
292.069
327.578
362.984
395.705
422.5
439.631
443.157
429.352
395.212
338.987
260.653
162.251
48.0029
-75.8272
-201.347
-319.7
-421.905
-499.783
-546.845
-559.036
-535.229
-477.404
-390.478
-281.811
-160.447
-36.1763
81.4491
184.048
265.167
320.794
349.567
352.697
333.603
297.355
249.985
197.758
146.503
101.055
64.8834
39.9012
26.4803
23.6315
29.3156
40.8303
55.2197
69.6546
81.743
89.7448
92.6755
90.3048
83.0646
71.8903
58.0258
42.8219
27.5538
13.2778
0.7402
-9.6597
-17.8551
-24.0556
-28.6642
-32.1814
-35.1115
-37.8841
-40.7975
-43.9912
-47.444
-50.9979
-54.3982
-57.3447
-59.5438
-60.7553
-60.8271
-59.7148
-57.4857
-54.306
-50.4169
-46.1019
-41.6514
-37.3289
-33.3424
-29.8257
-26.829
-24.3218
-22.2049
-20.3315
-18.534
-16.653
-14.5652
-12.2076
-9.59247
-6.81405
-4.04264
-1.50867
0.522861
1.78433
2.03998
1.11887
-1.05807
-4.46017
-8.94083
-14.2438
-20.0211
-25.8616
-31.3257
-35.9846
-39.459
-41.4539
-41.7866
-40.4044
-37.3906
-32.9575
-27.4275
-21.2033
-14.7304
-8.45643
-2.79015
1.93406
5.48361
7.74374
8.72098
8.53408
7.39398
5.57552
3.38441
1.12355
-0.937762
-2.58829
-3.69089
-4.18885
-4.1028
-3.51917
-2.57245
-1.42375
-0.238598
0.833526
1.67546
2.21302
2.41924
2.3123
1.948
1.40833
0.787892
0.180226
-0.334235
-0.697177
-0.877489
-0.872138
-0.703079
-0.410896
-0.0461795
0.340238
0.707075
1.03147
1.3162
1.59467
1.93337
2.43143
3.21705
4.44055
6.26415
8.84864
12.3379
16.8425
22.4239
29.0822
36.7486
45.2845
54.4896
64.1175
73.9002
83.5777
92.9324
101.823
110.215
118.208
126.044
134.115
142.945
153.158
165.428
180.402
198.6
220.291
245.346
273.084
302.126
330.291
354.571
371.222
375.992
364.505
332.77
277.758
197.994
94.0447
-31.1682
-172.31
-321.875
-470.721
-608.86
-726.425
-814.68
-866.965
-879.446
-851.563
-786.125
-689.034
-568.666
-435.002
-298.592
-169.504
-56.3654
34.3984
99.0365
136.633
148.946
139.975
115.315
81.3964
44.7088
11.0898
-14.8351
-30.0171
-33.1292
-24.4981
-5.85404
20.0521
49.9048
80.29
108.115
130.938
147.18
156.198
158.247
154.325
145.955
134.917
122.994
111.735
102.288
95.2921
90.8586
88.6174
87.8244
87.5076
86.6294
84.2431
79.6225
72.3515
62.3654
49.9418
35.6492
20.2607
4.64913
-10.3214
-23.8942
-35.4959
-44.7822
-51.6507
-56.2213
-58.7912
-59.7723
-59.6217
-58.7755
-57.5949
-56.3326
-55.1207
-53.982
-52.8598
-51.6609
-50.3033
-48.7585
-47.0835
-45.4326
-44.0491
-43.2364
-43.312
-44.5517
-47.1339
-51.091
-56.2782
-62.3657
-68.8558
-75.1253
-80.488
-84.2688
-85.8808
-84.8946
-81.0899
-74.4835
-65.3297
-54.0912
-41.3861
-27.9156
-14.3822
-1.40936
10.5281
21.1517
30.4005
38.4207
45.5272
52.1394
58.7034
65.6088
73.1137
81.288
89.9838
98.8386
107.311
114.745
120.453
123.812
124.349
121.816
116.232
107.898
97.3729
85.4171
72.9128
60.7702
49.8309
40.7822
34.091
29.9657
28.349
28.9402
31.2432
34.6331
38.4311
41.9793
44.7058
46.1748
46.115
44.4271
41.1691
36.5254
30.7638
24.1868
17.0849
9.69778
2.18677
-5.37756
-13.0133
-20.8118
-28.9121
-37.4693
-46.6214
-56.4594
-67.003
-78.1867
-89.8564
-101.777
-113.649
-125.135
-135.889
-145.585
-153.942
-160.749
-165.874
-169.26
-170.915
-170.889
-169.235
-165.978
-161.084
-154.451
-145.922
-135.346
-122.665
-108.053
-92.0629
-75.7725
-60.892
-49.7885
-45.3996
-51.0149
-69.9276
-104.986
-158.101
-229.776
-318.749
-421.81
-533.848
-648.151
-756.933
-852.055
-925.834
-971.86
-985.706
-965.45
-911.927
-828.685
-721.651
-598.539
-468.082
-339.171
-220.004
-117.354
-36.0054
21.553
55.1867
66.9158
60.5057
40.9064
13.6153
-15.9578
-43.0531
-63.9918
-76.4404
-79.4944
-73.5884
-60.2639
-41.8345
-21.0015
-0.469534
17.3915
30.8026
38.7288
40.9224
37.8633
30.6166
20.6322
9.52047
-1.16863
-10.1333
-16.456
-19.6759
-19.7947
-17.2227
-12.6778
-7.05527
-1.2889
3.77785
7.49487
9.47161
9.6016
8.04657
5.18646
1.54553
-2.2931
-5.77193
-8.43147
-9.96201
-10.2298
-9.27675
-7.29548
-4.58628
-1.50254
1.60629
4.44628
6.81846
8.64173
9.95763
10.9181
11.7599
12.7697
14.2474
16.4699
19.6613
23.9712
29.4618
36.1041
43.7809
52.2963
61.3895
70.7512
80.0418
88.911
97.0178
104.05
109.742
113.896
116.392
117.196
116.371
114.067
110.518
106.022
100.921
95.5789
90.354
85.5739
81.5144
78.3828
76.3063
75.3274
75.4033
76.4107
78.1531
80.3715
82.7569
84.966
86.6404
87.4283
87.0098
85.1234
81.5923
76.3471
69.4421
61.0608
51.511
41.2045
30.6256
20.288
10.684
2.23197
-4.77328
-10.2009
-14.1091
-16.7496
-18.5506
-20.0757
-21.9628
-24.8494
-29.2906
-35.6825
-44.1983
-54.7483
-66.9691
-80.2462
-93.7672
-106.602
-117.8
-126.495
-132.004
-133.91
-132.113
-126.857
-118.706
-108.498
-97.2537
-86.0716
-76.0097
-67.9677
-62.5872
-60.1791
-60.6872
-63.6954
-68.4738
-74.0622
-79.3777
-83.3345
-84.9599
-83.4914
-78.4428
-69.6306
-57.1582
-41.3624
-22.7335
-1.82747
20.8094
44.6812
69.3297
94.2616
118.82
142.023
162.409
177.935
185.98
183.495
167.307
134.555
83.2145
12.62
-76.1094
-179.828
-293.374
-409.861
-521.233
-619.035
-695.283
-743.353
-758.739
-739.6
-687.022
-604.937
-499.748
-379.664
-253.863
-131.563
-21.1235
70.7275
139.451
182.989
201.778
198.482
177.512
144.393
105.059
65.1638
29.5014
1.56743
-16.6736
-24.8204
-23.8763
-15.9387
-3.78922
9.55444
21.2662
29.0662
31.4663
27.886
18.6379
4.79773
-12.0122
-29.8902
-46.9327
-61.4869
-72.3474
-78.878
-81.0499
-79.3989
-74.914
-68.8776
-62.6807
-57.637
-54.8202
-54.9398
-58.2698
-64.6332
-73.4404
-83.7739
-94.5055
-104.432
-112.41
-117.479
-118.956
-116.5
-110.128
-100.202
-87.3814
-72.541
-56.6823
-40.8326
-25.9508
-12.8458
-2.11577
5.8876
11.0688
13.5722
13.7445
12.0808
9.1617
5.58852
1.92341
-1.35962
-3.9087
-5.51105
-6.09263
-5.70225
-4.48318
-2.63636
-0.379843
2.09075
4.63608
7.19743
9.80837
12.5926
15.7483
19.5203
24.1656
29.9151
36.9381
45.3144
55.018
65.9149
77.7748
90.2952
103.134
115.944
128.407
140.262
151.318
161.466
170.666
178.936
186.331
192.918
198.757
203.88
208.281
211.908
214.674
216.453
217.102
216.471
214.416
210.817
205.588
198.687
190.125
179.965
168.326
155.372
141.304
126.347
110.728
94.664
78.3428
61.9144
45.4862
29.1274
12.879
-3.22972
-19.1619
-34.8542
-50.2007
-65.0426
-79.1665
-92.3111
-104.184
-114.484
-122.93
-129.294
-133.424
-135.271
-134.9
-132.491
-128.328
-122.779
-116.255
-109.176
-101.921
-94.784
-87.9382
-81.4047
-75.0394
-68.5355
-61.4418
-53.1982
-43.1833
-30.773
-15.4061
3.34424
25.6927
51.5598
80.485
111.539
143.246
173.527
199.698
218.527
226.403
219.597
194.643
148.783
80.4541
-10.2671
-121.332
-248.569
-385.761
-524.996
-657.249
-773.169
-863.982
-922.394
-943.398
-924.864
-867.845
-776.539
-657.917
-521.052
-376.223
-233.908
-103.778
6.19254
90.401
146.008
173.016
174.044
153.838
118.587
75.1477
30.2544
-10.1792
-41.6038
-61.1712
-67.8446
-62.2903
-46.586
-23.7962
2.51947
28.8009
51.9247
69.537
80.2533
83.7153
80.5133
71.9981
60.0203
46.6346
33.8126
23.1981
15.9315
12.5576
13.0197
16.7308
22.7056
29.7281
36.5321
41.9688
45.1431
45.5042
42.8848
37.4891
29.8371
20.6764
10.8761
1.31687
-7.20849
-14.0737
-18.8699
-21.4256
-21.7974
-20.2356
-17.1319
-12.9574
-8.20042
-3.31071
1.34169
5.49093
8.9813
11.7568
13.8388
15.2971
16.2203
16.6916
16.7724
16.4959
15.8703
14.89
13.5497
11.8599
9.85854
7.61784
5.24337
2.86684
0.633128
-1.31604
-2.85908
-3.90948
-4.42647
-4.41982
-3.94826
-3.11183
-2.03931
-0.872736
0.249055
1.20556
1.90668
2.30038
2.37527
2.15817
1.70735
1.10257
0.433511
-0.211981
-0.758253
-1.14975
-1.35569
-1.37124
-1.21546
-0.92649
-0.555087
-0.157375
0.211963
0.505167
0.684787
0.7245
0.607141
0.320018
-0.152133
-0.835793
-1.77773
-3.05285
-4.76897
-7.06658
-10.112
-14.0832
-19.1489
-25.4417
-33.0298
-41.8894
-51.8841
-62.7536
-74.1159
-85.4841
-96.2967
-105.961
-113.904
-119.624
-122.744
-123.051
-120.522
-115.335
-107.856
-98.6114
-88.2384
-77.4296
-66.869
-57.1712
-48.8286
-42.1731
-37.3555
-34.3455
-32.9496
-32.8449
-33.6235
-34.8408
-36.0604
-36.8908
-37.0073
-36.159
-34.16
-30.8689
-26.1621
-19.9091
-11.9567
-2.13355
9.72092
23.6957
39.716
57.4246
76.0486
94.2758
110.167
121.141
124.067
115.477
91.9148
50.3931
-11.093
-93.0599
-194.124
-310.768
-437.346
-566.368
-689.06
-796.147
-878.781
-929.505
-943.122
-917.351
-853.187
-754.897
-629.656
-486.846
-337.121
-191.337
-59.4804
50.279
132.303
183.895
205.368
199.787
172.427
130.028
79.9532
29.3456
-15.6138
-50.2719
-71.8412
-79.4924
-74.2124
-58.4675
-35.7307
-9.94204
15.0264
35.8383
50.0441
56.2858
54.3453
45.0487
30.0516
11.5459
-8.06889
-26.5053
-41.8598
-52.8074
-58.7025
-59.5827
-56.0832
-49.2843
-40.5169
-31.1565
-22.4351
-15.2916
-10.2774
-7.52379
-6.76695
-7.4218
-8.68951
-9.68061
-9.53629
-7.53269
-3.15759
3.84619
13.471
25.4641
39.3702
54.5883
70.434
86.2013
101.215
114.874
126.678
136.247
143.32
147.755
149.512
148.639
145.256
139.537
131.699
121.979
110.632
97.911
84.0577
69.2949
53.8196
37.8011
21.3856
4.70478
-12.1109
-28.9178
-45.5448
-61.7837
-77.3851
-92.0631
-105.506
-117.398
-127.438
-135.369
-140.998
-144.212
-144.989
-143.397
-139.577
-133.733
-126.098
-116.91
-106.386
-94.7001
-81.968
-68.2477
-53.5452
-37.8344
-21.0838
-3.29066
15.484
35.0831
55.2292
75.5124
95.3942
114.229
131.305
145.897
157.328
165.045
168.675
168.078
163.385
154.998
143.582
130.015
115.326
100.605
86.9191
75.21
66.2152
60.3995
57.9127
58.5765
61.9025
67.1405
73.3528
79.5084
84.5874
87.6849
88.1032
85.4229
79.5425
70.6841
59.3638
46.3304
32.4797
18.756
6.05149
-4.88499
-13.5188
-19.5734
-23.0433
-24.176
-23.4253
-21.3826
-18.6951
-15.977
-13.7262
-12.2516
-11.6203
-11.6279
-11.7982
-11.415
-9.58826
-5.35572
2.17916
13.6783
29.3777
48.8907
71.0323
93.6984
113.839
127.566
130.411
117.749
85.3541
30.0275
-49.7765
-153.426
-277.785
-417.158
-563.547
-707.23
-837.599
-944.195
-1017.79
-1051.42
-1041.18
-986.759
-891.569
-762.446
-609.005
-442.679
-275.566
-119.22
16.4617
124.148
199.664
242.209
254.206
240.794
209.066
167.135
123.16
84.4417
56.6907
43.5356
46.316
64.1559
94.2889
132.573
174.119
213.95
247.606
271.639
283.934
283.851
272.171
250.883
222.843
191.361
159.769
131.027
107.41
90.3008
80.1122
76.3305
77.6643
82.2717
88.0315
92.8221
94.7748
92.4745
85.0901
72.4254
54.8943
33.4288
9.33848
-15.8581
-40.6087
-63.4881
-83.3278
-99.3043
-110.979
-118.294
-121.524
-121.202
-118.029
-112.776
-106.198
-98.9665
-91.6266
-84.5789
-78.0881
-72.3108
-67.3356
-63.2252
-60.0537
-57.9307
-57.0074
-57.465
-59.486
-63.2152
-68.7159
-75.931
-84.6553
-94.524
-105.023
-115.517
-125.297
-133.638
-139.862
-143.397
-143.833
-140.952
-134.754
-125.454
-113.463
-99.3587
-83.8379
-67.6633
-51.6074
-36.3978
-22.6675
-10.9145
-1.47449
5.49397
10.0082
12.247
12.5235
11.2486
8.88912
5.92367
2.80143
-0.0930007
-2.46557
-4.1278
-5.00013
-5.10415
-4.54548
-3.48948
-2.13287
-0.674428
0.712357
1.90147
2.82934
3.50091
3.98624
4.40834
4.92372
5.6982
6.8812
8.58167
10.8488
13.6598
16.9166
20.4508
24.038
27.4176
30.3173
32.4786
33.6817
33.7672
32.6524
30.3427
26.9359
22.621
17.6696
12.4225
7.26999
2.62826
-1.08868
-3.49838
-4.27957
-3.1989
-0.132094
4.92346
11.8468
20.4039
30.27
41.0632
52.3861
63.8712
75.2268
86.2777
96.9965
107.522
118.16
129.357
141.652
155.586
171.587
189.818
210.012
231.311
252.142
270.166
282.331
285.062
274.576
247.332
200.535
132.66
43.897
-63.5451
-185.352
-315.261
-445.471
-567.271
-671.827
-751.037
-798.349
-809.453
-782.755
-719.565
-624.003
-502.593
-363.637
-216.401
-70.2381
66.2656
186.028
284.012
357.52
406.224
431.949
438.242
429.806
411.858
389.505
367.206
348.37
335.122
328.26
327.37
331.074
337.372
344.006
348.819
350.047
346.527
337.803
324.123
306.351
285.807
264.064
242.738
223.286
206.84
194.103
185.288
180.131
177.952
177.749
178.335
178.467
176.985
172.929
165.622
154.735
140.302
122.706
102.634
81.0048
58.88
37.3634
17.5053
0.214152
-13.8137
-24.1415
-30.6134
-33.3492
-32.7146
-29.2722
-23.7182
-16.8133
-9.31473
-1.91579
4.80203
10.4008
14.6013
17.2815
18.4612
18.2756
16.9407
14.7145
11.8572
8.5951
5.09007
1.41965
-2.43077
-6.56175
-11.14
-16.3668
-22.4387
-29.505
-37.6283
-46.7526
-56.6854
-67.0955
-77.5289
-87.4413
-96.2439
-103.359
-108.277
-110.607
-110.123
-106.784
-100.743
-92.3306
-82.0237
-70.3977
-58.0708
-45.6455
-33.6552
-22.5195
-12.5141
-3.75714
3.78639
10.2845
16.0038
21.2664
26.4017
31.7007
37.375
43.527
50.1317
57.0329
63.9514
70.5068
76.2485
80.6949
83.3779
83.89
81.9292
77.3386
70.1358
60.5291
48.9164
35.8656
22.0777
8.33422
-4.56628
-15.876
-24.9632
-31.3682
-34.8431
-35.372
-33.1689
-28.6535
-22.4087
-15.1245
-7.53405
-0.349119
5.79829
10.4035
13.1213
13.7815
12.3868
9.09581
4.19371
-1.94417
-8.89139
-16.2066
-23.4622
-30.2636
-36.2558
-41.1189
-44.555
-46.2672
-45.9385
-43.2145
-37.6973
-28.9603
-16.5878
-0.248049
20.2027
44.5884
72.2693
102.009
131.881
159.251
180.865
193.061
192.102
174.626
138.139
81.5123
5.39332
-87.5423
-192.556
-303.067
-411.131
-508.134
-585.639
-636.282
-654.605
-637.718
-585.701
-501.686
-391.597
-263.591
-127.239
7.42781
130.908
235.142
314.229
364.89
386.624
381.554
354.007
309.876
255.866
198.711
144.455
97.8793
62.1286
38.5643
26.8418
25.182
30.7848
40.3203
50.4297
58.1711
61.3609
58.7786
50.2225
36.4243
18.849
-0.584284
-19.8151
-36.9446
-50.4906
-59.5644
-63.9536
-64.1082
-61.0388
-56.1485
-51.0239
-47.2173
-46.0475
-48.4435
-54.8486
-65.1897
-78.9127
-95.0699
-112.445
-129.693
-145.474
-158.563
-167.923
-172.74
-172.415
-166.539
-154.851
-137.199
-113.535
-83.9193
-48.5682
-7.92132
37.2837
85.9437
136.552
187.21
235.691
279.58
316.448
344.086
360.73
365.275
357.437
337.836
307.983
270.172
227.282
182.505
139.045
99.8057
67.1233
42.5568
26.7752
19.545
19.8196
25.9142
35.7437
47.0889
57.8602
66.3234
71.2662
72.086
68.7968
61.9589
52.5484
41.7867
30.9559
21.2236
13.5
8.34084
5.90574
5.9713
7.99288
11.2025
14.7272
17.7111
19.4243
19.3475
17.2221
13.0631
7.13639
-0.0933477
-8.0348
-16.0515
-23.5412
-30.0033
-35.0872
-38.6181
-40.5979
-41.1861
-40.6628
-39.3814
-37.7174
-36.0186
-34.5626
-33.5253
-32.9626
-32.8061
-32.8723
-32.8844
-32.5041
-31.3699
-29.14
-25.5362
-20.3839
-13.6473
-5.45459
3.88994
13.9081
23.9677
33.3195
41.1507
46.6497
49.0784
47.8423
42.5515
33.0647
19.5106
2.28334
-17.9863
-40.4808
-64.2597
-88.3293
-111.709
-133.485
-152.849
-169.114
-181.716
-190.196
-194.192
-193.43
-187.744
-177.125
-161.811
-142.399
-119.985
-96.2854
-73.7122
-55.3667
-44.9129
-46.3141
-63.4367
-99.5528
-156.801
-235.682
-334.677
-450.068
-576.007
-704.872
-827.867
-935.829
-1020.13
-1073.59
-1091.22
-1070.84
-1013.27
-922.343
-804.471
-668.034
-522.535
-377.677
-242.463
-124.408
-28.9456
40.9079
84.6242
103.973
102.613
85.5252
58.3687
26.8265
-3.97582
-29.9287
-48.2331
-57.5163
-57.7755
-50.1738
-36.7304
-19.9501
-2.44517
13.4076
25.7365
33.3493
35.8019
33.3669
26.9161
17.7442
7.36053
-2.72041
-11.1638
-16.9535
-19.4739
-18.5295
-14.3083
-7.2991
1.81977
12.3021
23.4472
34.6903
45.6584
56.1883
66.3079
76.1883
86.0774
96.2288
106.837
117.991
129.651
141.654
153.743
165.611
176.958
187.543
197.224
205.982
213.916
221.22
228.141
234.923
241.75
248.696
255.694
262.518
268.799
274.054
277.744
279.329
278.338
274.427
267.418
257.321
244.336
228.825
211.273
192.235
172.283
151.962
131.752
112.055
93.1865
75.392
58.86
43.7428
30.1716
18.2638
8.12114
-0.181512
-6.6121
-11.1996
-14.0491
-15.3492
-15.3696
-14.4475
-12.9636
-11.3101
-9.85553
-8.91023
-8.69716
-9.33233
-10.8168
-13.0417
-15.8045
-18.8366
-21.836
-24.5041
-26.581
-27.8771
-28.2966
-27.8525
-26.6705
-24.9822
-23.1072
-21.4271
-20.3519
-20.2823
-21.5714
-24.4887
-29.1905
-35.6995
-43.8953
-53.5192
-64.1898
-75.4318
-86.7117
-97.48
-107.212
-115.448
-121.821
-126.078
-128.083
-127.818
-125.356
-120.842
-114.455
-106.382
-96.7827
-85.7656
-73.373
-59.5737
-44.2681
-27.3054
-8.5121
12.2708
35.1451
60.1124
87.0376
115.624
145.409
175.776
205.993
235.275
262.856
288.075
310.458
329.779
346.09
359.701
371.096
380.799
389.189
396.288
401.568
403.801
401.013
390.555
369.326
334.139
282.192
211.593
121.87
14.3624
-107.563
-238.54
-371.498
-498.206
-610.02
-698.743
-757.495
-781.485
-768.58
-719.601
-638.31
-531.084
-406.315
-273.62
-142.939
-23.6436
76.2615
150.755
196.175
211.34
197.415
157.567
96.4572
19.6605
-66.9376
-157.686
-247.611
-332.72
-410.159
-478.225
-536.265
-584.483
-623.699
-655.096
-679.99
-699.633
-715.082
-727.116
-736.212
-742.56
-746.102
-746.584
-743.61
-736.685
-725.25
-708.704
-686.423
-657.784
-622.19
-579.11
-528.129
-469.006
-401.728
-326.553
-244.04
-155.04
-60.6576
37.8154
139.001
241.541
344.205
445.973
546.081
644.021
739.489
832.284
922.178
1008.78
1091.4
1168.99
1240.1
1302.91
1355.39
1395.43
1421.09
1430.81
1423.66
1399.46
1358.94
1303.68
1236.09
1159.23
1076.53
991.576
907.751
828.008
754.631
689.091
631.988
583.072
541.362
505.312
473.026
442.491
411.795
379.318
343.882
304.837
262.101
216.136
167.875
118.614
69.8732
23.2379
-19.7916
-57.9444
-90.2957
-116.35
-136.081
-149.934
-158.779
-163.827
-166.521
-168.403
-170.969
-175.533
-183.105
-194.291
-209.23
-227.579
-248.531
-270.889
-293.177
-313.784
-331.133
-343.845
-350.904
-351.78
-346.511
-335.729
-320.614
-302.786
-284.146
-266.668
-252.185
-242.164
-237.537
-238.567
-244.8
-255.095
-267.733
-280.595
-291.393
-297.914
-298.269
-291.106
-275.76
-252.337
-221.713
-185.45
-145.636
-104.682
-65.0719
-29.1251
1.23501
24.6611
40.5056
48.8744
50.6078
47.1933
40.6182
33.1802
27.273
25.1685
28.8186
39.6948
58.6798
86.0215
121.345
163.717
211.742
263.673
317.507
371.064
422.018
467.899
506.079
533.764
548.027
545.917
524.653
481.919
416.222
327.282
216.376
86.5892
-57.1153
-208.032
-358.083
-498.394
-620.041
-714.868
-776.301
-800.033
-784.522
-731.207
-644.43
-531.061
-399.861
-260.673
-123.507
2.35871
109.182
191.37
245.847
272.164
272.327
250.401
211.935
163.28
110.893
60.6921
17.5343
-15.1405
-35.4722
-43.1548
-39.2451
-25.8481
-5.72804
18.0976
42.7318
65.7001
85.1539
99.965
109.717
114.61
115.307
112.746
107.96
101.911
95.3809
88.8997
82.7365
76.9302
71.354
65.7952
60.036
53.922
47.4067
40.5703
33.6103
26.8102
20.4921
14.965
10.475
7.16724
5.06248
4.04983
3.8928
4.24372
4.66097
4.62538
3.55447
0.816649
-4.25007
-12.3099
-23.9872
-39.8102
-60.1411
-85.1001
-114.489
-147.728
-183.807
-221.266
-258.213
-292.367
-321.162
-341.873
-351.804
-348.498
-329.975
-294.984
-243.224
-175.531
-93.9895
-1.9438
96.1098
194.76
288.045
369.922
434.805
478.106
496.731
489.448
457.089
402.532
330.476
246.998
158.973
73.395
-3.3086
-65.8848
-110.726
-136.142
-142.418
-131.649
-107.39
-74.1679
-36.9173
-0.420047
31.1948
54.8301
68.6449
72.1096
65.9011
51.6654
31.6918
8.54863
-15.2695
-37.6377
-57.0088
-72.5178
-83.9799
-91.7995
-96.8104
-100.083
-102.723
-105.702
-109.726
-115.161
-122.028
-130.037
-138.678
-147.315
-155.305
-162.096
-167.296
-170.722
-172.406
-172.57
-171.578
-169.874
-167.91
-166.082
-164.68
-163.849
-163.573
-163.684
-163.875
-163.74
-162.818
-160.645
-156.809
-150.999
-143.048
-132.961
-120.93
-107.316
-92.6217
-77.4371
-62.364
-47.9331
-34.5178
-22.2586
-11.0137
-0.350039
10.4136
22.1026
35.5243
51.2591
69.4308
89.4918
110.07
128.922
143.033
148.883
142.864
121.829
83.6705
27.8693
-44.1163
-128.692
-220.268
-311.701
-395.017
-462.299
-506.644
-523.028
-508.958
-464.804
-393.769
-301.484
-195.305
-83.396
26.2534
126.756
213.068
282.467
334.701
371.823
397.755
417.639
437.097
461.484
495.238
541.398
601.338
674.724
759.679
853.118
951.184
1049.72
1144.74
1232.76
1311.1
1378.03
1432.74
1475.25
1506.28
1527.04
1538.96
1543.59
1542.37
1536.56
1527.17
1514.9
1500.16
1483.04
1463.36
1440.6
1414.02
1382.6
1345.21
1300.61
1247.62
1185.27
1112.9
1030.37
938.13
837.321
729.771
617.964
504.91
393.972
288.632
192.234
107.716
37.37
-17.346
-55.9322
-78.879
-87.6102
-84.3406
-71.8621
-53.283
-31.7477
-10.1673
9.01211
23.9799
33.6559
37.7051
36.4748
30.8688
22.1751
11.8718
1.43384
-7.83803
-14.9485
-19.2885
-20.6617
-19.2588
-15.5888
-10.3801
-4.46575
1.33074
6.29546
9.89977
11.8442
12.0685
10.7296
8.15227
4.76148
1.00494
-2.72293
-6.14613
-9.15269
-11.8149
-14.3809
-17.2395
-20.8612
-25.7255
-32.2427
-40.6821
-51.1169
-63.3934
-77.1294
-91.7421
-106.502
-120.607
-133.264
-143.77
-151.586
-156.378
-158.046
-156.714
-152.698
-146.448
-138.476
-129.289
-119.321
-108.88
-98.1328
-87.1014
-75.6968
-63.7696
-51.1749
-37.8392
-23.8196
-9.34375
5.17496
19.1518
31.8743
42.5691
50.4865
54.9895
55.6384
52.258
44.9799
34.2528
20.818
5.6529
-10.1125
-25.2972
-38.7763
-49.5823
-56.9884
-60.5632
-60.1933
-56.0695
-48.6407
-38.5432
-26.5143
-13.3015
0.420224
14.1151
27.4321
40.2273
52.5657
64.7045
77.0625
90.1731
104.62
120.947
139.542
160.486
183.389
207.222
230.193
249.694
262.381
264.395
251.739
220.792
168.882
94.8556
-0.467478
-114.03
-240.538
-372.758
-502.079
-619.311
-715.599
-783.355
-817.091
-814.036
-774.467
-701.707
-601.795
-482.864
-354.307
-225.832
-106.517
-3.97509
76.2897
131.257
160.486
165.92
151.469
122.4
84.6517
44.1348
6.11174
-25.2885
-47.3746
-59.0005
-60.4845
-53.3693
-40.0679
-23.4505
-6.42773
8.41888
19.1204
24.4926
24.1888
18.6411
8.91001
-3.52643
-17.011
-29.9384
-40.9507
-49.0759
-53.7988
-55.0632
-53.2148
-48.8994
-42.9365
-36.1889
-29.4456
-23.333
-18.2618
-14.412
-11.7517
-10.0833
-9.10531
-8.47899
-7.89002
-7.09646
-5.9583
-4.44683
-2.63523
-0.674316
1.2411
2.90911
4.15492
4.85781
4.9675
4.50879
3.57484
2.31131
0.894281
-0.494183
-1.68928
-2.5624
-3.03358
-3.07659
-2.71673
-2.02273
-1.09457
-0.0492226
0.993422
1.92315
2.64933
3.10778
3.26437
3.11572
2.68722
2.02892
1.20956
0.309667
-0.585673
-1.39296
-2.03412
-2.43669
-2.52986
-2.23667
-1.46423
-0.0943963
2.0217
5.06239
9.22508
14.7057
21.6685
30.2088
40.3119
51.8152
64.3778
77.4671
90.366
102.207
112.03
118.871
121.855
120.307
113.848
102.468
86.5667
66.9555
44.8064
21.5644
-1.17615
-21.8132
-38.8816
-51.1821
-57.8808
-58.5677
-53.2698
-42.4189
-26.7836
-7.37527
14.6566
38.1238
61.8816
84.8831
106.203
125.032
140.654
152.418
159.715
161.986
158.752
149.683
134.682
113.983
88.2293
58.5249
26.4315
-6.09421
-36.8235
-63.4303
-83.6979
-95.7331
-98.161
-90.2757
-72.1302
-44.5547
-9.10267
32.0678
76.3651
120.971
163.065
200.051
229.77
250.674
261.968
263.681
256.67
242.538
223.453
201.881
180.236
160.478
143.716
129.862
117.419
103.459
83.8289
53.6017
7.73253
-58.1499
-146.926
-259.27
-393.149
-543.649
-703.17
-861.995
-1009.18
-1133.67
-1225.47
-1276.77
-1282.85
-1242.62
-1158.81
-1037.7
-888.465
-722.256
-551.045
-386.458
-238.683
-115.58
-22.0888
40.0186
72.0354
77.8977
63.5104
35.9128
2.38962
-30.3688
-56.9634
-73.7706
-79.1729
-73.5268
-58.8925
-38.5747
-16.5464
3.16519
17.049
22.5695
18.4627
4.84417
-16.8719
-44.217
-74.0331
-102.9
-127.567
-145.329
-154.312
-153.625
-143.397
-124.675
-99.2411
-69.3581
-37.5003
-6.09077
22.7178
47.2018
66.1577
78.9273
85.3663
85.7711
80.7808
71.2697
58.2447
42.7574
25.838
8.45137
-8.52475
-24.3069
-38.2032
-49.6095
-58.0097
-62.986
-64.2392
-61.6164
-55.1417
-45.0395
-31.7437
-15.8832
1.75689
20.2998
38.8581
56.6218
72.9394
87.3794
99.7624
110.157
118.84
126.233
132.811
139.016
145.175
151.44
157.76
163.88
169.381
173.738
176.391
176.834
174.679
169.722
161.983
151.716
139.404
125.722
111.488
97.5955
84.9328
74.3075
66.3691
61.5433
59.9833
61.5411
65.7661
71.9302
79.0812
86.1208
91.9021
95.3385
95.5149
91.7891
83.8741
71.8907
56.3814
38.2832
18.8557
-0.429095
-18.0285
-32.4876
-42.5982
-47.5388
-46.9773
-41.1214
-30.7068
-16.9242
-1.28942
14.5244
28.874
40.3279
47.8187
50.7484
49.0341
43.0894
33.7486
22.1459
9.56703
-2.70497
-13.5308
-22.027
-27.6376
-30.1613
-29.7359
-26.7869
-21.9513
-15.9894
-9.69694
-3.82892
0.957696
4.13663
5.31961
4.24092
0.725163
-5.35304
-14.107
-25.6637
-40.1678
-57.7594
-78.5237
-102.417
-129.178
-158.241
-188.668
-219.124
-247.909
-273.066
-292.574
-304.612
-307.884
-301.954
-287.558
-266.814
-243.271
-221.762
-208.014
-208.056
-227.449
-270.461
-339.281
-433.417
-549.375
-680.699
-818.406
-951.777
-1069.42
-1160.49
-1215.9
-1229.37
-1198.2
-1123.61
-1010.67
-867.78
-705.766
-536.738
-372.815
-224.901
-101.637
-8.66605
51.7343
80.6159
81.9564
61.9586
28.1595
-11.5312
-49.7407
-80.3902
-99.2226
-104.062
-94.8014
-73.1513
-42.2033
-5.88291
31.6289
66.4344
95.3563
116.232
128.05
130.924
125.939
114.896
100.008
83.5848
67.7634
54.2958
44.4282
38.8665
37.8206
41.1054
48.2741
58.7525
71.9524
87.3442
104.482
122.981
142.462
162.47
182.407
201.473
218.662
232.798
242.621
246.918
244.677
235.241
218.44
194.674
164.943
130.795
94.2111
57.4366
22.7674
-7.66884
-32.1196
-49.374
-58.8692
-60.726
-55.7106
-45.1288
-30.6685
-14.2105
2.37008
17.3874
29.4943
37.785
41.841
41.7229
37.9109
31.2084
22.6199
13.2209
4.0344
-4.07431
-10.4741
-14.8122
-17.0244
-17.3167
-16.1222
-14.043
-11.7843
-10.0868
-9.66338
-11.1432
-15.0246
-21.6371
-31.1151
-43.3808
-58.14
-74.8909
-92.9462
-111.468
-129.518
-146.112
-160.29
-171.179
-178.059
-180.419
-178.002
-170.827
-159.198
-143.688
-125.098
-104.411
-82.7076
-61.0964
-40.6232
-22.1948
-6.5113
5.98102
15.1148
21.0003
23.9991
24.6756
23.7318
21.9323
20.0277
18.6834
18.4226
19.5879
22.3237
26.5821
32.1477
38.6771
45.7478
52.9076
59.7195
65.7951
70.8125
74.5189
76.718
77.2464
75.9461
72.6397
67.1158
59.1301
48.4241
34.7612
17.9764
-1.96879
-24.9327
-50.5503
-78.2073
-107.036
-135.937
-163.62
-188.674
-209.644
-225.121
-233.833
-234.732
-227.079
-210.513
-185.122
-151.508
-110.848
-64.9611
-16.3476
31.7907
75.5995
110.71
132.496
136.452
118.683
76.4544
8.72517
-83.4194
-196.526
-324.791
-460.376
-594.007
-715.804
-816.255
-887.198
-922.705
-919.74
-878.501
-802.419
-697.787
-573.092
-438.115
-302.926
-176.878
-67.7311
19.0087
80.4691
116.485
129.372
123.46
104.431
78.5847
52.0939
30.3448
17.4306
15.8369
26.3351
48.0758
78.8498
115.47
154.22
191.307
223.278
247.352
261.632
265.214
258.17
241.433
216.619
185.801
151.274
115.332
80.0799
47.2956
18.339
-5.88444
-24.9155
-38.6971
-47.5059
-51.8697
-52.4828
-50.1252
-45.5931
-39.6426
-32.9489
-26.0792
-19.4797
-13.4725
-8.26219
-3.94748
-0.537964
2.02794
3.86456
5.12165
5.96914
6.58429
7.14158
7.80505
8.72268
10.022
11.8066
14.1521
17.1018
20.662
24.7959
29.419
34.3951
39.5357
44.603
49.3185
53.3783
56.4735
58.3155
58.6636
57.3513
54.307
49.5671
43.2781
35.6884
27.1302
17.9947
8.70384
-0.318125
-8.67034
-15.9963
-21.9995
-26.4538
-29.2096
-30.1985
-29.4366
-27.0285
-23.1716
-18.1587
-12.3764
-6.29519
-0.449188
4.59726
8.29446
10.1606
9.83715
7.13961
2.09415
-5.04547
-13.8063
-23.5309
-33.4361
-42.689
-50.4915
-56.1619
-59.2046
-59.3571
-56.6105
-51.1994
-43.566
-34.3016
-24.0762
-13.5647
-3.38098
5.97196
14.1295
20.8691
26.0912
29.7838
31.9791
32.7116
31.986
29.7622
25.9589
20.4751
13.2245
4.17502
-6.61438
-18.9672
-32.5795
-47.0278
-61.795
-76.3106
-89.9986
-102.326
-112.849
-121.241
-127.314
-131.02
-132.439
-131.756
-129.232
-125.173
-119.897
-113.718
-106.917
-99.733
-92.3472
-84.8677
-77.3115
-69.5837
-61.4561
-52.5541
-42.3595
-30.2399
-15.5152
2.43577
24.0278
49.2928
77.6929
107.954
137.956
164.718
184.511
193.12
186.245
160.019
111.581
39.6337
-55.1086
-169.652
-298.705
-434.944
-569.54
-692.928
-795.704
-869.583
-908.268
-908.148
-868.726
-792.72
-685.829
-556.178
-413.521
-268.278
-130.533
-9.0922
89.2845
160.409
202.889
218.054
209.592
182.969
144.705
101.59
59.9435
24.9928
0.428448
-11.8255
-11.6198
-0.385316
19.2213
43.777
69.592
93.1867
111.692
123.132
126.574
122.123
110.807
94.3456
74.8659
54.596
35.5769
19.4282
7.19171
-0.736707
-4.586
-5.11227
-3.44424
-0.897607
1.21513
1.75458
-0.115135
-4.84785
-12.4931
-22.7267
-34.925
-48.2678
-61.8544
-74.8158
-86.4094
-96.0848
-103.517
-108.606
-111.444
-112.269
-111.394
-109.151
-105.828
-101.631
-96.6627
-90.9198
-84.3126
-76.6975
-67.9195
-57.8571
-46.4633
-33.7971
-20.0412
-5.50227
9.40409
24.1845
38.309
51.2587
62.5729
71.8912
78.9846
83.774
86.3326
86.8741
85.7274
83.301
80.0425
76.3951
72.7573
69.4494
66.6889
64.5777
63.1016
62.1409
61.4913
60.8915
60.0548
58.7023
56.5924
53.5475
49.4718
44.3627
38.3114
31.4958
24.1643
16.614
9.16397
2.12777
-4.21276
-9.62948
-13.9634
-17.1321
-19.1297
-20.0177
-19.9116
-18.9618
-17.3341
-15.1904
-12.6735
-9.89654
-6.93956
-3.85378
-0.67272
2.57031
5.82107
8.98277
11.898
14.338
16.0043
16.5429
15.5739
12.733
7.72041
0.351255
-9.40084
-21.3743
-35.2106
-50.3677
-66.1584
-81.8077
-96.5238
-109.574
-120.356
-128.456
-133.686
-136.093
-135.949
-133.709
-129.959
-125.343
-120.497
-115.979
-112.222
-109.493
-107.875
-107.27
-107.407
-107.87
-108.119
-107.521
-105.373
-100.933
-93.4489
-82.2066
-66.593
-46.1862
-20.8718
9.02082
42.5772
78.1765
113.423
145.165
169.628
182.681
180.237
158.74
115.703
50.2111
-36.6826
-141.754
-259.643
-383.156
-503.819
-612.644
-701.006
-761.54
-788.949
-780.608
-736.896
-661.203
-559.615
-440.299
-312.68
-186.489
-70.8098
26.7868
100.901
148.711
170.078
167.364
144.991
108.808
65.3579
21.118
-18.1816
-48.1003
-65.8364
-70.3591
-62.3283
-43.8291
-17.9702
11.5952
41.162
67.4193
87.8035
100.723
105.644
103.038
94.2089
81.0461
65.7209
50.3872
36.9136
26.6804
20.459
18.3807
19.9904
24.3681
30.2986
36.4597
41.6069
44.7286
45.157
42.6257
37.2719
29.5889
20.3424
10.4636
0.936307
-7.30752
-13.4728
-16.9598
-17.3949
-14.6351
-8.75325
-0.00918346
11.1846
24.2982
38.7157
53.7622
68.7269
82.8843
95.5172
105.943
113.545
117.813
118.374
115.037
107.817
96.949
82.889
66.2925
47.9756
28.8594
9.90437
-7.9611
-23.9099
-37.2776
-47.6103
-54.6944
-58.567
-59.5053
-57.9972
-54.6946
-50.3548
-45.7739
-41.7181
-38.8584
-37.712
-38.5958
-41.5935
-46.5383
-53.0149
-60.3788
-67.7969
-74.306
-78.8899
-80.569
-78.4968
-72.0553
-60.9391
-45.2175
-25.3658
-2.25783
22.8835
48.5755
73.1984
95.1399
112.944
125.452
131.91
132.041
126.067
114.679
98.96
80.2733
60.1271
40.0299
21.3559
5.23143
-7.54587
-16.5497
-21.7276
-23.3659
-22.0258
-18.4568
-13.5013
-8.00029
-2.70864
1.76954
5.02263
6.84714
7.23869
6.36162
4.50304
2.01764
-0.729629
-3.41642
-5.80605
-7.77653
-9.33345
-10.6064
-11.8308
-13.3173
-15.4146
-18.4677
-22.7778
-28.5662
-35.9453
-44.8981
-55.2669
-66.7508
-78.9119
-91.1868
-102.905
-113.314
-121.607
-126.966
-128.611
-125.873
-118.282
-105.673
-88.3097
-67.004
-43.2151
-19.1013
2.50557
18.2288
24.3926
17.3803
-5.9208
-47.6383
-108.464
-187.307
-281.122
-384.955
-492.244
-595.336
-686.195
-757.206
-801.988
-816.096
-797.544
-747.063
-668.056
-566.278
-449.245
-325.483
-203.673
-91.8207
3.47635
77.5688
128.066
154.886
160.062
147.336
121.616
88.3427
52.8754
19.9364
-6.81153
-25.0272
-33.7761
-33.4473
-25.5297
-12.2871
3.61768
19.5014
32.9965
42.3096
46.3802
44.9329
38.4283
27.9307
14.9184
1.0665
-11.9685
-22.7365
-30.1346
-33.4909
-32.5875
-27.6306
-19.1767
-8.03239
4.85879
18.5252
32.0614
44.7001
55.8564
65.1474
72.3872
77.5646
80.8089
82.3494
82.4736
81.489
79.6894
77.3286
74.6021
71.6366
68.4876
65.1452
61.5471
57.5966
53.185
48.2145
42.6206
36.3894
29.5688
22.2727
14.6751
6.99755
-0.511891
-7.60369
-14.0539
-19.6892
-24.4066
-28.1842
-31.0821
-33.232
-34.8177
-36.0487
-37.1314
-38.2413
-39.5021
-40.973
-42.6474
-44.4627
-46.319
-48.1047
-49.7232
-51.1178
-52.2901
-53.3093
-54.3105
-55.4814
-57.0397
-59.202
-62.1474
-65.9811
-70.6982
-76.1546
-82.047
-87.9055
-93.103
-96.8832
-98.4085
-96.8277
-91.3595
-81.3852
-66.5424
-46.807
-22.5531
5.42124
35.9091
67.3553
97.9609
125.825
149.111
166.218
175.948
177.632
171.217
157.289
137.025
112.095
84.4968
56.3628
29.7485
6.43064
-12.2628
-25.5722
-33.3598
-36.0935
-34.7618
-30.7328
-25.5747
-20.8601
-17.9796
-17.9855
-21.4846
-28.5897
-38.9332
-51.7376
-65.9309
-80.291
-93.6004
-104.792
-113.073
-118.008
-119.562
-118.094
-114.306
-109.151
-103.719
-99.0998
-96.2507
-95.8681
-98.2873
-103.412
-110.684
-119.098
-127.262
-133.508
-136.054
-133.205
-123.591
-106.427
-81.763
-50.6926
-15.4824
20.4246
52.565
75.7883
84.7581
74.5797
41.4839
-16.5275
-99.1713
-203.599
-324.4
-453.912
-582.831
-701.043
-798.603
-866.739
-898.768
-890.818
-842.269
-755.861
-637.454
-495.478
-340.112
-182.305
-32.739
99.1606
206.047
283.233
328.978
344.453
333.415
301.626
256.113
204.347
153.438
109.439
76.8314
58.2191
54.2677
63.8589
84.4294
112.435
143.873
174.799
201.773
222.199
234.515
238.244
233.91
222.839
206.897
188.187
168.769
150.416
134.442
121.608
112.118
105.678
101.611
99.0089
96.8854
94.3224
90.5843
85.193
77.9608
68.98
58.5806
47.2638
35.6243
24.2731
13.7705
4.57499
-2.98773
-8.73649
-12.629
-14.7438
-15.2535
-14.3967
-12.4494
-9.70222
-6.44158
-2.93773
0.563498
3.84558
6.72492
9.05414
10.7258
11.6762
11.8885
11.3942
10.2719
8.64173
6.65714
4.49189
2.32539
0.326792
-1.36
-2.62873
-3.4192
-3.72053
-3.56922
-3.04219
-2.24583
-1.30256
-0.336504
0.539843
1.23639
1.69234
1.87848
1.79455
1.46247
0.916462
0.192081
-0.684084
-1.70191
-2.87106
-4.21942
-5.78672
-7.61432
-9.73294
-12.1502
-14.8402
-17.7373
-20.7348
-23.6895
-26.4329
-28.7863
-30.5788
-31.6665
-31.9494
-31.384
-29.99
-27.8508
-25.1068
-21.9452
-18.586
-15.2688
-12.2419
-9.7535
-8.04678
-7.35554
-7.89918
-9.87424
-13.4414
-18.7075
-25.7047
-34.3684
-44.5189
-55.8501
-67.9272
-80.1978
-92.0143
-102.669
-111.439
-117.634
-120.656
-120.048
-115.538
-107.084
-94.8838
-79.387
-61.2729
-41.4146
-20.8244
-0.585479
18.2237
34.6067
47.7196
56.9307
61.8634
62.4203
58.7867
51.4161
41.0001
28.4257
14.7257
1.02371
-11.5226
-21.782
-28.7147
-31.4464
-29.3539
-22.163
-10.0572
6.21385
25.2411
44.9005
62.3618
74.1872
76.5379
65.4953
37.4794
-10.2686
-79.1988
-169.028
-277.448
-400.034
-530.389
-660.53
-781.506
-884.174
-960.065
-1002.24
-1006.01
-969.493
-893.871
-783.348
-644.816
-487.249
-320.9
-156.381
-3.7422
128.381
233.441
307.428
349.051
359.658
342.901
304.212
250.148
187.682
123.512
63.4723
12.0834
-27.7193
-54.6619
-69.0303
-72.4158
-67.3524
-56.8969
-44.2045
-32.147
-23.0139
-18.3196
-18.7279
-24.0889
-33.5705
-45.858
-59.3887
-72.5886
-84.0811
-92.8452
-98.3068
-100.361
-99.3295
-95.864
-90.82
-85.1154
-79.5988
-74.9436
-71.5786
-69.661
-69.0902
-69.5554
-70.605
-71.7269
-72.4247
-72.2815
-71.0036
-68.4419
-64.5914
-59.5736
-53.6069
-46.971
-39.9712
-32.9054
-26.0369
-19.5727
-13.6475
-8.31301
-3.53254
0.818147
4.94225
9.10471
13.6061
18.749
24.7999
31.9507
40.2855
49.7568
60.1761
71.22
82.4525
93.3608
103.401
112.047
118.841
123.427
125.59
125.262
122.522
117.584
110.767
102.459
93.0804
83.0493
72.7523
62.5258
52.6487
43.3461
34.8013
27.1722
20.6086
15.2634
11.2971
8.87137
8.13258
9.18819
12.0791
16.7533
23.0462
30.6711
39.2242
48.2034
57.04
65.1412
71.9359
76.921
79.6999
80.011
77.7414
72.9255
65.7299
56.4257
45.3549
32.8936
19.4191
5.28378
-9.19908
-23.7575
-38.1515
-52.1558
-65.5391
-78.0455
-89.3846
-99.2327
-107.249
-113.107
-116.529
-117.338
-115.496
-111.133
-104.568
-96.2992
-86.9765
-77.3517
-68.2143
-60.3181
-54.3092
-50.6639
-49.6435
-51.2726
-55.3418
-61.4347
-68.9739
-77.2803
-85.6369
-93.3489
-99.7908
-104.436
-106.865
-106.752
-103.834
-97.8724
-88.614
-75.7716
-59.0282
-38.0831
-12.7437
16.9367
50.4849
86.8209
124.091
159.565
189.645
210.02
215.986
202.927
166.906
105.3
17.3887
-95.2093
-228.329
-375.35
-527.596
-675.03
-807.16
-914.073
-987.456
-1021.49
-1013.48
-964.208
-877.86
-761.621
-624.953
-478.63
-333.665
-200.23
-86.7086
1.03387
60.082
90.5711
95.4619
80.0318
51.1514
16.4406
-16.5983
-41.3729
-52.8376
-47.9162
-25.6789
12.7257
64.3587
124.95
189.461
252.69
309.838
356.981
391.418
411.842
418.351
412.313
396.091
372.706
345.445
317.49
291.593
269.83
253.453
242.852
237.61
236.644
238.4
241.087
242.904
242.253
237.904
229.103
215.624
197.746
176.196
152.035
126.527
101.006
76.7331
54.7939
36.0089
20.8859
9.60678
2.04569
-2.18413
-3.66422
-3.09364
-1.20951
1.28629
3.78744
5.82529
7.09007
7.43068
6.83517
5.39662
3.27067
0.632072
-2.36263
-5.60049
-9.02229
-12.617
-16.4026
-20.3992
-24.5987
-28.9398
-33.2918
-37.4517
-41.1554
-44.1017
-45.9847
-46.5311
-45.5354
-42.8889
-38.5974
-32.7865
-25.6916
-17.6364
-9.00044
-0.18247
8.43765
16.5312
23.8432
30.2024
35.5177
39.7626
42.9525
45.1201
46.2945
46.4884
45.6971
43.9073
41.1142
37.3425
32.6642
27.2091
21.1633
14.7546
8.22643
1.80451
-4.33741
-10.105
-15.4984
-20.6107
-25.6089
-30.7008
-36.0919
-41.9414
-48.3225
-55.1967
-62.4036
-69.6702
-76.6374
-82.8995
-88.0506
-91.7319
-93.6713
-93.7122
-91.8265
-88.111
-82.7697
-76.0841
-68.3768
-59.9746
-51.1747
-42.2207
-33.2904
-24.497
-15.9053
-7.55819
0.487144
8.12256
15.1565
21.2944
26.1377
29.2062
29.9829
27.9794
22.813
14.2865
2.45954
-12.299
-29.2856
-47.4684
-65.5284
-81.934
-95.0482
-103.264
-105.163
-99.6905
-86.3396
-65.3235
-37.7247
-5.58992
28.0568
59.3107
83.6158
96.1319
92.2253
68.0412
21.0926
-49.2161
-141.218
-250.841
-371.745
-495.748
-613.516
-715.448
-792.644
-837.849
-846.254
-816.041
-748.621
-648.523
-522.956
-381.102
-233.21
-89.6269
40.1624
148.353
229.438
280.556
301.566
294.845
264.858
217.555
159.68
98.0628
38.9663
-12.4395
-52.4417
-78.9631
-91.5543
-91.2215
-80.1251
-61.1959
-37.7205
-12.9421
10.2779
29.7116
43.9084
52.2323
54.7985
52.3338
45.9844
37.1039
27.0489
17.0061
7.87045
0.17937
-5.89299
-10.4917
-13.9986
-16.9286
-19.8205
-23.1393
-27.2
-32.1222
-37.8169
-44.004
-50.2557
-56.056
-60.8692
-64.2073
-65.6878
-65.0777
-62.3183
-57.5294
-50.9961
-43.137
-34.4622
-25.5232
-16.8624
-8.96609
-2.22609
3.08664
6.83462
9.01231
9.73177
9.1977
7.67563
5.45716
2.82686
0.0348108
-2.72152
-5.30428
-7.63041
-9.65633
-11.3548
-12.6882
-13.5826
-13.9096
-13.4783
-12.0439
-9.33238
-5.08146
0.907492
8.71312
18.2427
29.1954
41.0496
53.0796
64.4038
74.0615
81.1091
84.7248
84.3065
79.5501
70.4965
57.5403
41.3978
23.0406
3.60024
-15.7404
-33.8574
-49.7824
-62.7764
-72.3719
-78.3831
-80.8859
-80.1734
-76.6983
-71.0089
-63.6883
-55.3038
-46.3701
-37.3262
-28.5268
-20.2441
-12.6771
-5.96422
-0.196783
4.56961
8.30704
11.0117
12.705
13.4394
13.3076
12.4541
11.0869
9.48544
8.00376
7.06428
7.1415
8.73475
12.3318
18.367
27.1786
38.9722
53.7957
71.5291
91.8926
114.47
138.745
164.146
190.087
216.011
241.419
265.895
289.112
310.839
330.937
349.35
366.104
381.302
395.127
407.849
419.838
431.57
443.639
456.757
471.735
489.438
510.718
536.287
566.565
601.48
640.266
681.261
721.777
758.065
785.435
798.553
791.907
760.433
700.203
609.119
487.474
338.315
167.508
-16.5236
-203.372
-381.502
-539.275
-666.045
-753.188
-794.954
-789.027
-736.76
-643.034
-515.778
-365.201
-202.84
-40.503
110.755
241.537
344.8
416.285
454.661
461.377
440.273
396.99
338.279
271.257
202.719
138.548
83.2878
39.8961
9.68853
-7.54261
-13.2691
-9.87005
-0.227535
12.6743
26.1047
37.8618
46.4487
51.1427
51.9655
49.5695
45.0655
39.8169
35.2296
32.5582
32.7504
36.3405
43.3993
53.5388
65.9683
79.5893
93.1175
105.218
114.639
120.331
121.546
117.899
109.399
96.4413
79.765
60.3807
39.4765
18.3095
-1.90352
-20.0891
-35.4022
-47.2862
-55.5035
-60.1337
-61.542
-60.321
-57.216
-53.0393
-48.5861
-44.5602
-41.5174
-39.8312
-39.6847
-41.0858
-43.9029
-47.9126
-52.8532
-58.4743
-64.5751
-71.0273
-77.7803
-84.8487
-92.286
-100.15
-108.469
-117.205
-126.238
-135.353
-144.246
-152.546
-159.839
-165.704
-169.748
-171.632
-171.1
-167.997
-162.274
-153.999
-143.347
-130.601
-116.138
-100.418
-83.9618
-67.333
-51.1084
-35.8477
-22.0608
-10.175
-0.505583
6.76647
11.6074
14.1316
14.5901
13.3468
10.8454
7.57035
4.00709
0.606333
-2.2418
-4.22129
-5.09023
-4.66924
-2.82279
0.560463
5.58194
12.3365
20.9023
31.3165
43.5421
57.4301
72.6878
88.8592
105.326
121.332
136.029
148.546
158.067
163.909
165.596
162.916
155.944
145.05
130.861
114.214
96.0716
77.4422
59.2853
42.4329
27.5242
14.9647
4.91145
-2.71354
-8.18488
-11.9157
-14.3872
-16.0732
-17.3698
-18.5351
-19.6464
-20.5771
-20.9946
-20.3807
-18.0716
-13.3192
-5.37338
6.41447
22.4632
42.8126
66.9596
93.6978
120.991
145.916
164.722
173.034
166.215
139.882
90.5216
16.1238
-83.2426
-205.034
-344.093
-492.829
-641.728
-780.168
-897.449
-983.918
-1032.05
-1037.34
-998.896
-919.61
-805.933
-667.228
-514.804
-360.747
-216.678
-92.6076
4.00331
68.8549
101.048
102.939
79.6411
38.2644
-13.0155
-65.9323
-113.036
-148.433
-168.28
-171.014
-157.281
-129.638
-92.049
-49.2726
-6.21737
32.6553
63.8137
84.9784
95.2611
95.1222
86.1708
70.8472
52.04
32.6915
15.4412
2.34809
-5.2833
-6.96305
-2.96831
5.79311
17.98
32.0434
46.4482
59.8626
71.2955
80.1703
86.3329
90.0022
91.6769
92.0157
91.7118
91.3791
91.4642
92.1936
93.5605
95.3461
97.1717
98.568
99.0533
98.206
95.7237
91.4627
85.4521
77.8862
69.0963
59.5093
49.5978
39.8317
30.6342
22.3479
15.2144
9.36572
4.82862
1.53847
-0.640366
-1.89063
-2.418
-2.42924
-2.11442
-1.63438
-1.1137
-0.638685
-0.2597
0.0034707
0.154365
0.211961
0.20317
0.156452
0.0970471
0.0439809
0.00878834
-0.0043124
0.00282458
0.0241477
0.051471
0.0763237
0.0912543
0.0903581
0.0689191
0.0222049
-0.0564085
-0.177681
-0.35875
-0.624969
-1.01101
-1.56097
-2.3274
-3.36929
-4.74943
-6.5313
-8.7763
-11.5416
-14.8791
-18.8356
-23.4543
-28.7769
-34.8472
-41.7138
-49.4321
-58.0655
-67.6823
-78.3497
-90.1228
-103.029
-117.05
-132.103
-148.024
-164.557
-181.353
-197.978
-213.938
-228.707
-241.77
-252.665
-261.03
-266.636
-269.413
-269.456
-267.019
-262.483
-256.313
-249.001
-241.003
-232.676
-224.23
-215.689
-206.882
-197.456
-186.92
-174.709
-160.268
-143.142
-123.063
-100.011
-74.2612
-46.3779
-17.1823
12.3248
41.066
68.0088
92.2869
113.304
130.801
144.876
155.938
164.597
171.491
177.064
181.335
183.684
182.71
176.223
161.376
134.978
93.9572
35.9155
-40.293
-134.066
-242.73
-361.465
-483.528
-600.76
-704.344
-785.724
-837.562
-854.622
-834.445
-777.736
-688.388
-573.152
-440.967
-302.057
-166.883
-45.0911
55.4272
129.247
173.825
189.58
179.644
149.335
105.42
55.2781
6.05849
-36.0653
-66.4648
-82.399
-83.1061
-69.6562
-44.602
-11.4892
25.7016
63.1051
97.444
126.371
148.65
164.161
173.759
179
181.794
184.049
187.328
192.593
200.051
209.124
218.534
226.487
230.936
229.865
221.581
204.954
179.59
145.909
105.13
59.1534
10.3781
-38.5452
-84.9741
-126.526
-161.287
-187.957
-205.92
-215.22
-216.476
-210.735
-199.281
-183.452
-164.468
-143.302
-120.607
-96.7183
-71.6975
-45.439
-17.7947
11.2956
41.6933
72.9899
104.487
135.229
164.091
189.894
211.545
228.172
239.23
244.574
244.478
239.601
230.906
219.546
206.729
193.58
181.029
169.723
159.982
151.808
144.923
138.85
133.006
126.801
119.734
111.453
101.801
90.8247
78.7512
65.9499
52.8725
39.9918
27.7436
16.4811
6.44611
-2.24008
-9.56659
-15.6074
-20.4843
-24.3255
-27.2241
-29.2045
-30.2006
-30.0497
-28.505
-25.2655
-20.0209
-12.5082
-2.57109
9.78304
24.3377
40.6389
57.9898
75.4719
91.9929
106.36
117.375
123.941
125.169
120.485
109.701
93.0692
71.2826
45.4443
16.9857
-12.4493
-41.1473
-67.4827
-90.0709
-107.904
-120.447
-127.695
-130.16
-128.818
-124.984
-120.159
-115.844
-113.356
-113.658
-117.234
-124.02
-133.41
-144.317
-155.315
-164.806
-171.224
-173.226
-169.851
-160.631
-145.631
-125.416
-100.955
-73.472
-44.2721
-14.5697
14.6446
42.6755
69.1102
93.715
116.252
136.246
152.746
164.15
168.134
161.746
141.687
104.735
48.3069
-28.9728
-126.752
-242.603
-371.902
-508.007
-642.699
-766.891
-871.489
-948.326
-991.041
-995.804
-961.774
-891.248
-789.476
-664.153
-524.653
-381.105
-243.404
-120.278
-120.278
-120.278
-120.278
-120.278
-120.278
-120.278
-120.278
-120.278
-120.278
-120.278
-120.278
-120.278
-120.278
-120.278
-120.278
-120.278
-120.278
-120.278
-120.278
-120.278
-120.278
