24.7885
16.6615
8.20689
-0.132608
-7.86564
-14.497
-19.5771
-22.7505
-23.7966
-22.6586
-19.4563
-14.4802
-8.1695
-1.07246
6.20339
13.0485
18.9093
23.341
26.0494
26.9184
26.0185
23.596
20.045
15.8633
11.599
7.79244
4.92027
3.34697
3.28951
4.79783
7.75296
11.8826
16.7917
22.0053
27.0178
31.3441
34.5674
36.3788
36.6034
35.2136
32.3259
28.1832
23.1254
17.5512
11.8752
6.48643
1.71119
-2.21469
-5.1621
-7.112
-8.14621
-8.42763
-8.1728
-7.6205
-7.00064
-6.50694
-6.27674
-6.37983
-6.81738
-7.53031
-8.41563
-9.34784
-10.202
-10.875
-11.3012
-11.4605
-11.3781
-11.1153
-10.7545
-10.3806
-10.0624
-9.83666
-9.69912
-9.60169
-9.45823
-9.15687
-8.57721
-7.60963
-6.17355
-4.2321
-1.80116
1.04774
4.19033
7.45677
10.6416
13.5144
15.8313
17.3448
17.8143
17.0153
14.749
10.8518
5.2056
-2.25244
-11.5203
-22.5235
-35.1111
-49.0579
-64.0735
-79.8198
-95.9374
-112.076
-127.932
-143.273
-157.972
-172.004
-185.441
-198.403
-210.992
-223.195
-234.777
-245.179
-253.446
-258.207
-257.733
-250.077
-233.3
-205.76
-166.44
-115.252
-53.2839
17.0733
92.1547
167.224
236.846
295.398
337.662
359.424
358.003
332.634
284.645
217.404
136.025
46.876
-43.0666
-126.923
-198.604
-253.401
-288.412
-302.748
-297.517
-275.582
-241.145
-199.207
-154.975
-113.289
-78.1385
-52.304
-37.1708
-32.7144
-37.6485
-49.7047
-66.0018
-83.453
-99.1602
-110.75
-116.619
-116.059
-109.27
-97.2572
-81.6365
-64.3877
-47.5772
-33.0944
-22.4286
-16.5118
-15.6398
-19.4757
-27.1285
-37.2929
-48.4279
-58.9515
-67.4273
-72.7219
-74.1167
-71.3654
-64.693
-54.7418
-42.4732
-29.0404
-15.6485
-3.41921
6.72624
14.1518
18.5541
19.9689
18.7408
15.4608
10.8834
5.8331
1.11095
-2.58718
-4.73437
-5.01248
-3.3262
0.207744
5.2928
11.5007
18.3291
25.2608
31.8191
37.6126
42.366
45.9345
48.3023
49.566
49.908
49.5625
48.7803
47.7965
46.8036
45.9348
45.254
44.7562
44.3735
43.9852
43.4324
42.5324
41.0946
38.9363
35.8978
31.8568
26.7424
20.5466
13.3339
5.24671
-3.4942
-12.5956
-21.7058
-30.4357
-38.3876
-45.1879
-50.5215
-54.1633
-56.0031
-56.0599
-54.4836
-51.5422
-47.5969
-43.0669
-38.3872
-33.9663
-30.147
-27.1755
-25.1824
-24.1772
-24.0559
-24.6211
-25.6099
-26.7281
-27.6834
-28.2169
-28.1265
-27.2827
-25.6346
-23.2069
-20.0903
-16.4259
-12.3888
-8.17084
-3.96572
0.0422038
3.68595
6.82034
9.32421
11.1014
12.0821
12.225
11.5216
10.0018
7.74117
4.8674
1.56537
-1.92179
-5.29756
-8.22428
-10.3436
-11.3046
-10.7974
-8.58849
-4.55494
1.29007
8.78247
17.6081
27.3203
37.3732
47.1692
56.1141
63.6743
69.4294
73.1136
74.6395
74.104
71.7724
68.0451
63.4112
58.3927
53.4894
49.1286
45.6256
43.1609
41.7733
41.3694
41.7487
42.6366
43.7243
44.7075
45.3207
45.3623
44.7105
43.326
41.2463
38.5703
35.4389
32.0132
28.4539
24.905
21.4821
18.2667
15.3064
12.6191
10.2003
8.03229
6.09217
4.3592
2.81953
1.46846
0.310116
-0.644949
-1.3836
-1.89465
-2.17333
-2.22498
-2.06747
-1.73203
-1.2624
-0.71245
-0.142466
0.385357
0.811745
1.08485
1.16383
1.02101
0.642336
0.0261507
-0.819238
-1.87858
-3.13236
-4.55832
-6.13126
-7.8208
-9.58761
-11.3788
-13.1238
-14.7323
-16.0953
-17.0914
-17.5966
-17.4996
-16.7178
-15.215
-13.0145
-10.2077
-6.95331
-3.46881
-0.0116107
3.14631
5.74806
7.58135
8.50355
8.45806
7.47934
5.68559
3.2603
0.426006
-2.58534
-5.56004
-8.32391
-10.7538
-12.7785
-14.3697
-15.5271
-16.2594
-16.5696
-16.4441
-15.8515
-14.7499
-13.1011
-10.8895
-8.14067
-4.93617
-1.42038
2.20248
5.68152
8.74135
11.1102
12.5499
12.8841
12.0192
9.95694
6.79485
2.71623
-2.03013
-7.15718
-12.3702
-17.3963
-22.0098
-26.0481
-29.417
-32.0824
-34.0486
-35.3222
-35.8658
-35.5447
-34.0746
-30.9811
-25.5802
-16.9927
-4.19937
13.8586
38.1383
69.3229
107.639
152.685
203.306
257.538
312.644
365.258
411.637
447.999
470.91
477.683
466.729
437.81
392.162
332.449
262.558
187.248
111.693
40.9819
-20.3854
-68.9193
-102.45
-120.284
-123.188
-113.228
-93.4609
-67.5515
-39.3395
-12.426
10.1826
26.334
34.8711
35.648
29.4315
17.7091
2.43486
-14.2502
-30.2886
-43.9367
-53.9319
-59.5834
-60.7848
-57.9552
-51.9241
-43.7799
-34.7046
-25.8164
-18.0374
-12.0009
-8.00398
-6.00612
-5.66998
-6.43359
-7.60287
-8.45103
-8.31274
-6.6625
-3.17008
2.27119
9.54333
18.3273
28.1454
38.4166
48.5164
57.8354
65.8303
72.0642
76.2345
78.1865
77.9159
75.5602
71.3822
65.7474
59.0973
51.9206
44.7226
37.9959
32.1915
27.6921
24.7896
23.6664
24.3828
26.8707
30.9346
36.2592
42.424
48.9247
55.2
60.6636
64.7401
66.9028
66.7119
63.849
58.1465
49.6075
38.4138
24.9203
9.63352
-6.82212
-23.7513
-40.4412
-56.2177
-70.4981
-82.8342
-92.9426
-100.718
-106.227
-109.69
-111.447
-111.912
-111.528
-110.724
-109.875
-109.276
-109.119
-109.491
-110.377
-111.669
-113.186
-114.695
-115.937
-116.646
-116.578
-115.529
-113.352
-109.97
-105.385
-99.6815
-93.0179
-85.6183
-77.7533
-69.7171
-61.8009
-54.2662
-47.3206
-41.0992
-35.655
-30.9577
-26.9042
-23.3363
-20.066
-16.9033
-13.6835
-10.2905
-6.67313
-2.85227
1.08102
4.97624
8.6409
11.8623
14.4308
16.1624
16.9193
16.6266
15.2863
12.9864
9.90546
6.31111
2.54974
-0.972834
-3.82115
-5.56948
-5.8482
-4.39282
-1.08972
3.98844
10.5646
18.1625
26.1383
33.7388
40.1812
44.7452
46.8659
46.2146
42.753
36.7536
28.7804
19.6314
10.2494
1.61268
-5.37989
-10.0143
-11.8435
-10.7367
-6.8884
-0.788753
6.84022
15.134
23.1874
30.1564
35.348
38.287
38.7553
36.8006
32.7161
26.9959
20.2732
13.2496
6.62231
1.01791
-3.06269
-5.28345
-5.49477
-3.73715
-0.228043
4.66558
10.4659
16.6304
22.6015
27.855
31.9448
34.5385
35.4418
34.6098
32.1437
28.2738
23.3307
17.7085
11.8225
6.06893
0.788568
-3.76019
-7.41687
-10.1219
-11.9078
-12.8808
-13.1956
-13.028
-12.5491
-11.9032
-11.1937
-10.4765
-9.76097
-9.01879
-8.19601
-7.228
-6.05375
-4.62772
-2.92779
-0.958842
1.24765
3.63693
6.13583
8.65788
11.1079
13.3858
15.3902
17.022
18.189
18.8114
18.8278
18.2006
16.9201
15.0053
12.5014
9.47349
5.9976
2.14997
-2.00275
-6.41083
-11.0444
-15.8911
-20.9492
-26.2154
-31.6724
-37.2753
-42.9423
-48.5507
-53.9404
-58.9246
-63.3083
-66.9107
-69.59
-71.2653
-71.9333
-71.6751
-70.6533
-69.0972
-67.2792
-65.4841
-63.9759
-62.9648
-62.5798
-62.8492
-63.6914
-64.9183
-66.2508
-67.3456
-67.8313
-67.3507
-65.6037
-62.3883
-57.6329
-51.4176
-43.9792
-35.7
-27.0758
-18.6659
-11.0233
-4.6093
0.305004
3.74061
6.10522
8.26302
11.5589
17.7755
29.0039
47.423
74.9928
113.094
162.16
221.369
288.455
359.698
430.13
493.948
545.105
578.007
588.217
573.078
532.143
467.362
382.972
285.113
181.204
79.1552
-13.4608
-90.2067
-146.422
-179.648
-189.783
-178.97
-151.231
-111.911
-67.0089
-22.4808
16.4053
45.5838
62.5301
66.3953
57.9394
39.2871
13.5517
-15.6195
-44.5153
-69.7937
-88.8285
-99.9407
-102.497
-96.8806
-84.3438
-66.7825
-46.4548
-25.6892
-6.6146
9.05881
20.187
26.2592
27.3842
24.2073
17.7735
9.36048
0.303096
-8.16823
-15.0581
-19.6935
-21.7629
-21.3075
-18.6715
-14.4229
-9.25566
-3.88941
1.02306
4.96934
7.62579
8.87751
8.81046
7.6795
5.85839
3.77977
1.87326
0.509733
-0.0416588
0.360723
1.72445
3.93499
6.78314
10.0029
13.3135
16.4605
19.2483
21.5626
23.3788
24.7575
25.8273
26.7597
27.7382
28.9278
30.4474
32.3495
34.609
37.1221
39.7155
42.1636
44.2126
45.6061
46.1121
45.5451
43.7834
40.7786
36.5574
31.2162
24.9096
17.8352
10.2163
2.28525
-5.73012
-13.6167
-21.1809
-28.248
-34.6582
-40.2595
-44.9008
-48.4282
-50.6856
-51.5236
-50.816
-48.4823
-44.5148
-39.004
-32.1572
-24.305
-15.8915
-7.44575
0.462702
7.28134
12.5365
15.8913
17.1914
16.4899
14.0484
10.3118
5.86132
1.34949
-2.57219
-5.32527
-6.46613
-5.7304
-3.05505
1.42348
7.39373
14.4119
21.9566
29.4885
36.5068
42.5978
47.4688
50.966
53.0757
53.9096
53.6776
52.6526
51.131
49.3955
47.6819
46.1552
44.8962
43.8992
43.0803
42.2946
41.3589
40.0777
38.2682
35.7826
32.5252
28.4631
23.6304
18.1262
12.107
5.77472
-0.638493
-6.88756
-12.7326
-17.9562
-22.3795
-25.8746
-28.3735
-29.8723
-30.4306
-30.1663
-29.2458
-27.871
-26.264
-24.6508
-23.2449
-22.2327
-21.7613
-21.9298
-22.7843
-24.3179
-26.4736
-29.1519
-32.2201
-35.5244
-38.9013
-42.1902
-45.2427
-47.9314
-50.155
-51.8412
-52.9466
-53.4547
-53.3729
-52.727
-51.5574
-49.9132
-47.8488
-45.4195
-42.6794
-39.6792
-36.4663
-33.0847
-29.5773
-25.9875
-22.3623
-18.7537
-15.2208
-11.829
-8.64815
-5.74914
-3.19873
-1.05372
0.645054
1.87789
2.64999
2.99321
2.96555
2.64833
2.1414
1.55656
1.00967
0.611793
0.459816
0.627144
1.15538
2.04793
3.26668
4.73259
6.33077
7.92002
9.34617
10.4578
11.123
11.2445
10.772
9.71001
8.11968
6.1149
3.85275
1.51947
-0.686773
-2.57418
-3.97499
-4.76045
-4.85178
-4.22575
-2.9147
-1.00092
1.39378
4.12203
7.02693
9.95818
12.7869
15.417
17.7935
19.9042
21.7788
23.482
25.1036
26.7473
28.5176
30.507
32.785
35.388
38.3119
41.5067
44.8746
48.2713
51.5104
54.3731
56.621
58.0139
58.33
57.3887
55.0724
51.3455
46.2669
39.9944
32.7789
24.9479
16.8798
8.97066
1.59867
-4.91168
-10.3196
-14.4898
-17.4027
-19.1524
-19.9309
-19.9996
-19.6464
-19.1294
-18.6065
-18.0534
-17.1786
-15.3459
-11.5261
-4.30046
8.06209
27.438
55.5947
93.8684
142.817
201.903
269.277
341.709
414.718
482.893
540.401
581.607
601.735
597.487
567.519
512.708
436.171
343.02
239.877
134.216
33.6041
-55.0677
-126.257
-176.285
-203.623
-208.938
-194.888
-165.715
-126.686
-83.4599
-41.4563
-5.3008
21.5958
37.2857
41.3449
34.7557
19.6408
-1.10661
-24.2441
-46.5971
-65.424
-78.692
-85.2387
-84.8143
-78.0104
-66.0969
-50.7963
-34.0279
-17.6579
-3.28255
7.93204
15.3405
18.8364
18.8034
16.013
11.486
6.34065
1.64469
-1.70919
-3.09312
-2.19168
0.993469
6.17786
12.8588
20.3997
28.1208
35.3863
41.6768
46.6393
50.1132
52.1286
52.8826
52.6963
51.9608
51.0792
50.4116
50.2304
50.689
51.8086
53.4814
55.4895
57.5359
59.2831
60.3937
60.5693
59.5825
57.3012
53.7008
48.8667
42.9856
36.3286
29.2257
22.038
15.1258
8.81917
3.39205
-0.95842
-4.12437
-6.09141
-6.93439
-6.80578
-5.91833
-4.52422
-2.89324
-1.29194
0.0343915
0.87599
1.0686
0.499393
-0.890854
-3.10853
-6.11038
-9.80854
-14.0769
-18.7587
-23.6751
-28.6346
-33.4426
-37.9124
-41.8747
-45.1873
-47.7432
-49.4766
-50.367
-50.4396
-49.763
-48.4439
-46.6187
-44.4428
-42.0786
-39.6827
-37.3944
-35.3253
-33.5524
-32.1146
-31.0124
-30.2123
-29.6532
-29.2555
-28.9314
-28.5943
-28.1672
-27.589
-26.8181
-25.8325
-24.6281
-23.2149
-21.6116
-19.8407
-17.9231
-15.8749
-13.7046
-11.4125
-8.99121
-6.42798
-3.70718
-0.813984
2.26181
5.52163
8.95375
12.5287
16.1947
19.8729
23.4537
26.794
29.7179
32.0213
33.482
33.8771
33.0064
30.7212
26.9559
21.7572
15.3063
7.92984
0.0927496
-7.62659
-14.5814
-20.1174
-23.6446
-24.7105
-23.0664
-18.7156
-11.9366
-3.27492
6.49742
16.4517
25.5943
32.9703
37.7665
39.4006
37.587
32.3699
24.1208
13.5002
1.38811
-11.2071
-23.2523
-33.7929
-42.0442
-47.4619
-49.7842
-49.0429
-45.5441
-39.8224
-32.5751
-24.5852
-16.6418
-9.46616
-3.65038
0.387691
2.43021
2.4658
0.677853
-2.5829
-6.83877
-11.5348
-16.0935
-19.9709
-22.7089
-23.9787
-23.613
-21.621
-18.1865
-13.6469
-8.45552
-3.13
1.80606
5.88291
8.7376
10.1535
10.0816
8.6409
6.09803
2.82981
-0.726592
-4.12855
-6.98088
-8.97998
-9.9442
-9.82723
-8.71403
-6.8009
-4.36348
-1.71736
0.822989
2.98181
4.55188
5.4134
5.54063
4.99645
3.9167
2.487
0.915805
-0.59275
-1.86255
-2.76299
-3.21832
-3.20819
-2.75978
-1.9333
-0.803409
0.560221
2.10983
3.83115
5.74769
7.9169
10.4189
13.3392
16.7483
20.6811
25.1188
29.9772
35.1018
40.2734
45.2208
49.6429
53.2353
55.7198
56.8723
56.5465
54.6905
51.354
46.6853
40.9188
34.3542
27.3302
20.1955
13.2799
6.86941
1.18668
-3.62164
-7.48909
-10.4256
-12.5049
-13.8423
-14.5621
-14.7513
-14.4023
-13.345
-11.1778
-7.21164
-0.446711
10.396
26.7698
50.115
81.5983
121.806
170.442
226.086
286.081
346.59
402.861
449.668
481.901
495.218
486.659
455.14
401.732
329.674
244.118
151.615
59.4243
-25.2796
-96.1844
-148.512
-179.498
-188.616
-177.539
-149.846
-110.515
-65.289
-19.9859
20.1498
50.9872
69.8772
75.8188
69.4187
52.6653
28.5591
0.65584
-27.4142
-52.3916
-71.7453
-83.9087
-88.3733
-85.6444
-77.0737
-64.6037
-50.461
-36.8432
-25.6378
-18.2055
-15.2493
-16.7778
-22.1586
-30.2491
-39.5796
-48.5646
-55.7115
-59.8039
-60.0376
-56.0976
-48.171
-36.8994
-23.2807
-8.53592
6.04136
19.2334
30.0284
37.7189
41.9584
42.776
40.5472
35.9318
29.7853
23.0583
16.6941
11.5366
8.25666
7.30168
8.87272
12.9271
19.2042
27.2698
36.5721
46.5029
56.4581
65.8909
74.3532
81.5235
87.2183
91.3893
94.1068
95.5342
95.8953
95.4407
94.4159
93.0336
91.4541
89.7731
88.018
86.1509
84.0787
81.6684
78.7651
75.2137
70.8816
65.6801
59.5831
52.6412
44.988
36.8374
28.4719
20.2215
12.436
5.45237
-0.437262
-5.01491
-8.15851
-9.85381
-10.1949
-9.37333
-7.6566
-5.35992
-2.81347
-0.329745
1.82547
3.45527
4.44494
4.7653
4.46644
3.66335
2.51558
1.20393
-0.0929698
-1.21934
-2.05817
-2.54082
-2.64983
-2.41532
-1.90606
-1.21677
-0.453669
0.279858
0.895644
1.32996
1.54874
1.54849
1.35344
1.00944
0.575785
0.116135
-0.310349
-0.656683
-0.89374
-1.01341
-1.02897
-0.97272
-0.891091
-0.837861
-0.866241
-1.02082
-1.33047
-1.80317
-2.4237
-3.1545
-3.93976
-4.71234
-5.40242
-5.94681
-6.29751
-6.42836
-6.33888
-6.05462
-5.62425
-5.11351
-4.59725
-4.1503
-3.83871
-3.71236
-3.79985
-4.1063
-4.6142
-5.28687
-6.07407
-6.91876
-7.76398
-8.55888
-9.26325
-9.84985
-10.3047
-10.6255
-10.8187
-10.8953
-10.868
-10.7472
-10.5391
-10.245
-9.86066
-9.37785
-8.78555
-8.07167
-7.22459
-6.23476
-5.0964
-3.80995
-2.38543
-0.846968
0.76214
2.37484
3.89785
5.21326
6.18544
6.67414
6.55267
5.72917
4.16744
1.90344
-0.946313
-4.18719
-7.56075
-10.77
-13.5125
-15.5173
-16.58
-16.5907
-15.5509
-13.576
-10.8825
-7.76228
-4.54611
-1.56253
0.902525
2.63983
3.53992
3.60236
2.93039
1.71218
0.192022
-1.3643
-2.70496
-3.62342
-3.9818
-3.72345
-2.87374
-1.5297
0.159436
2.01765
3.86949
5.56574
7.00378
8.14031
8.9951
9.64566
10.2144
10.8501
11.7074
12.9263
14.6156
16.8401
19.6156
22.9074
26.635
30.6793
34.8913
39.1002
43.1213
46.7613
49.8235
52.1114
53.434
53.6126
52.4906
49.945
45.9009
40.3446
33.3348
25.0098
15.5866
5.35394
-5.34405
-16.1295
-26.6171
-36.4416
-45.2828
-52.8855
-59.0722
-63.748
-66.8953
-68.559
-68.8202
-67.7543
-65.3754
-61.567
-56.0084
-48.111
-36.9871
-21.4724
-0.222183
28.1106
64.6272
109.891
163.642
224.562
290.166
356.838
420.054
474.766
515.923
539.056
540.855
519.645
475.7
411.33
330.73
239.592
144.547
52.4757
-30.196
-98.1481
-147.676
-177.005
-186.37
-177.874
-155.136
-122.796
-85.9327
-49.4799
-17.6965
6.23615
20.4607
24.5144
19.2301
6.49413
-11.0956
-30.6232
-49.2452
-64.5333
-74.7313
-78.9052
-76.9786
-69.6613
-58.2908
-44.6135
-30.5381
-17.8926
-8.21285
-2.5833
-1.54387
-5.06638
-12.5968
-23.1525
-35.4589
-48.1066
-59.711
-69.0566
-75.2124
-77.6091
-76.0725
-70.8145
-62.3848
-51.5927
-39.4079
-26.8527
-14.8979
-4.37095
4.11346
10.1962
13.7866
15.0479
14.3563
12.2436
9.3279
6.24234
3.57046
1.79402
1.25891
2.16092
4.55068
8.35443
13.4052
19.4783
26.3252
33.7006
41.3803
49.1676
56.8912
64.395
71.5263
78.1239
84.0112
88.9965
92.881
95.4741
96.6145
96.1923
94.1701
90.5988
85.6244
79.4845
72.4949
65.0257
57.4707
50.2127
43.5898
37.8648
33.2036
29.6629
27.1901
25.6335
24.7629
24.2964
23.93
23.3665
22.3411
20.6404
18.1147
14.684
10.3384
5.13441
-0.811531
-7.33082
-14.2118
-21.2101
-28.0601
-34.4891
-40.2331
-45.055
-48.7636
-51.2329
-52.4176
-52.3639
-51.2132
-49.1959
-46.6155
-43.8238
-41.1877
-39.0527
-37.7054
-37.3404
-38.0355
-39.7395
-42.2743
-45.351
-48.6003
-51.6121
-53.9807
-55.3497
-55.4509
-54.1341
-51.382
-47.3103
-42.1538
-36.2385
-29.9457
-23.671
-17.7842
-12.5933
-8.3189
-5.07829
-2.88325
-1.64911
-1.21391
-1.36447
-1.86565
-2.48921
-3.03868
-3.3679
-3.39131
-3.08584
-2.48495
-1.66635
-0.735636
0.191633
1.00709
1.62377
1.98601
2.07407
1.90366
1.52085
0.993464
0.400619
-0.178289
-0.673507
-1.03268
-1.22563
-1.24592
-1.10922
-0.849082
-0.510905
-0.144954
0.200564
0.485585
0.682787
0.78029
0.782322
0.707907
0.587897
0.460798
0.367935
0.348577
0.435582
0.65205
1.00939
1.50702
2.13374
2.87071
3.69555
4.58717
5.53065
6.52147
7.56841
8.69464
9.93673
11.3414
12.9603
14.8439
17.0343
19.5582
22.4213
25.6025
29.0495
32.6761
36.3592
39.9393
43.2234
45.9925
48.0137
49.0586
48.926
47.467
44.6097
40.3795
34.9107
28.4474
21.331
13.975
6.82944
0.338709
-5.10275
-9.19031
-11.7403
-12.7085
-12.1925
-10.4203
-7.72299
-4.49874
-1.16966
1.86159
4.2512
5.74514
6.19865
5.58301
3.97966
1.56363
-1.42093
-4.68942
-7.9459
-10.909
-13.3322
-15.0164
-15.8148
-15.6321
-14.4188
-12.1643
-8.89137
-4.65367
0.462924
6.33537
12.7964
19.6278
26.5561
33.2544
39.352
44.4523
48.1611
50.12
50.0445
47.7597
43.2296
36.5747
28.0733
18.1464
7.32486
-3.79721
-14.6185
-24.5899
-33.2696
-40.3675
-45.7712
-49.5476
-51.9159
-53.1896
-53.6893
-53.6323
-53.0124
-51.4877
-48.3005
-42.2557
-31.778
-15.0633
9.67887
43.9109
88.4209
142.997
206.187
275.198
345.975
413.488
472.19
516.612
542.014
545.006
524.033
479.673
414.671
333.724
243.015
149.571
60.52
-17.6582
-79.7913
-122.509
-144.514
-146.605
-131.463
-103.235
-66.9711
-28.0057
8.65868
38.8764
59.7444
69.8102
69.0909
58.9175
41.6375
20.2238
-2.15347
-22.5383
-38.533
-48.5419
-51.892
-48.8299
-40.4061
-28.2725
-14.426
-0.93561
10.3131
17.8266
20.6445
18.4042
11.328
0.143219
-14.0486
-29.932
-46.1464
-61.4411
-74.8008
-85.5301
-93.2911
-98.0954
-100.256
-100.308
-98.9167
-96.7725
-94.5019
-92.5907
-91.3343
-90.8157
-90.9117
-91.3244
-91.6305
-91.3436
-89.978
-87.109
-82.4218
-75.7447
-67.0659
-56.5319
-44.4312
-31.1654
-17.2126
-3.08606
10.7066
23.7014
35.5094
45.8402
54.5169
61.4799
66.782
70.5736
73.0795
74.5696
75.3248
75.6034
75.6097
75.47
75.2191
74.7984
74.0665
72.8215
70.8317
67.8703
63.7513
58.3599
51.6756
43.7843
34.8784
25.2448
15.2428
5.27398
-4.25215
-12.9536
-20.509
-26.685
-31.3557
-34.5132
-36.2671
-36.8329
-36.512
-35.6625
-34.6649
-33.8859
-33.6428
-34.1735
-35.6136
-37.985
-41.1948
-45.0473
-49.2657
-53.5216
-57.47
-60.7843
-63.1886
-64.4832
-64.5618
-63.4173
-61.1377
-57.8921
-53.9093
-49.4515
-44.7865
-40.1605
-35.776
-31.7758
-28.2346
-25.1601
-22.5016
-20.1657
-18.0359
-15.994
-13.9401
-11.808
-9.57504
-7.26441
-4.94053
-2.6984
-0.648676
1.09907
2.45257
3.35024
3.76997
3.73244
3.29864
2.56241
1.639
0.651615
-0.282448
-1.06412
-1.62197
-1.9177
-1.94738
-1.73847
-1.34351
-0.831354
-0.277281
0.246636
0.679885
0.979605
1.12393
1.11241
0.96379
0.711677
0.398783
0.0707
-0.230053
-0.468967
-0.62297
-0.682066
-0.649178
-0.538401
-0.372043
-0.176961
0.0192803
0.191938
0.321881
0.397385
0.414815
0.37821
0.297959
0.188821
0.0676054
-0.0491593
-0.147266
-0.21636
-0.250806
-0.249841
-0.217037
-0.159221
-0.0850389
-0.00341904
0.0777869
0.152779
0.218247
0.27324
0.318545
0.355742
0.386166
0.410038
0.425967
0.43096
0.420935
0.391644
0.339757
0.263907
0.165433
0.0487098
-0.078998
-0.20812
-0.327686
-0.426416
-0.493825
-0.521196
-0.502279
-0.433638
-0.314618
-0.146941
0.0659687
0.319837
0.610415
0.934245
1.28917
1.67451
2.09075
2.53896
3.0198
3.53251
4.07392
4.63784
5.21478
5.79221
6.3553
6.88802
7.37454
7.80071
8.15566
8.43316
8.63293
8.76171
8.83417
8.87357
8.91202
8.99019
9.15616
9.46321
9.96639
10.718
11.7622
13.1295
14.8317
16.8581
19.1738
21.7195
24.414
27.1568
29.8313
32.3072
34.4418
36.0812
37.0617
37.215
36.3751
34.3911
31.143
26.559
20.6335
13.4401
5.13939
-4.02237
-13.7228
-23.5816
-33.1841
-42.1069
-49.9416
-56.3118
-60.8801
-63.3417
-63.4034
-60.7495
-54.9979
-45.6553
-32.0843
-13.4978
11.0024
42.3303
81.26
128.217
183.043
244.77
311.454
380.114
446.821
506.945
555.558
587.951
600.205
589.731
555.697
499.276
423.663
333.846
236.152
137.628
45.3125
-34.4776
-96.7889
-138.501
-158.579
-158.085
-139.949
-108.549
-69.1427
-27.2445
11.9905
44.2936
66.6695
77.6049
77.0904
66.466
48.1242
25.1187
0.732788
-21.9363
-40.3297
-52.6786
-58.135
-56.7777
-49.5045
-37.8356
-23.6615
-8.97086
4.40381
14.995
21.8409
24.5478
23.2747
18.6504
11.6404
3.38558
-4.9629
-12.3925
-18.1436
-21.7796
-23.207
-22.6504
-20.588
-17.6617
-14.5733
-11.9833
-10.4229
-10.2298
-11.5129
-14.1502
-17.814
-22.0222
-26.2047
-29.7774
-32.2125
-33.0993
-32.1864
-29.4025
-24.855
-18.8079
-11.6424
-3.80776
4.23323
12.0555
19.3145
25.7763
31.3307
35.9883
39.8607
43.128
45.9985
48.6642
51.2607
53.8359
56.3327
58.5892
60.3559
61.3283
61.1905
59.663
56.5474
51.7628
45.3663
37.5559
28.6547
19.0775
9.28582
-0.264211
-9.17246
-17.1377
-23.9861
-29.6817
-34.3167
-38.0838
-41.2337
-44.0258
-46.6794
-49.3328
-52.0191
-54.661
-57.0873
-59.0674
-60.3587
-60.7593
-60.1547
-58.5532
-56.1007
-53.0738
-49.8507
-46.8636
-44.5402
-43.2418
-43.2081
-44.5156
-47.0562
-50.5391
-54.5167
-58.4312
-61.677
-63.6705
-63.9198
-62.0846
-58.0199
-51.7971
-43.7015
-34.2045
-23.9166
-13.5244
-3.72138
4.86134
11.7153
16.5006
19.0728
19.4887
17.9923
14.9825
10.9675
6.51075
2.17509
-1.53012
-4.19314
-5.53178
-5.41047
-3.84191
-0.974017
2.93553
7.55355
12.5104
17.4394
22.0119
25.9655
29.1219
31.3939
32.782
33.3613
33.2622
32.6469
31.686
30.5372
29.3292
28.1514
27.0507
26.0347
25.0792
24.1395
23.1629
22.0998
20.9129
19.5829
18.1101
16.5114
14.8141
13.0456
11.22
9.32449
7.30495
5.05693
2.42269
-0.801969
-4.84977
-9.95353
-16.3094
-24.0359
-33.1346
-43.4587
-54.6954
-66.3679
-77.8594
-88.4589
-97.4262
-104.068
-107.816
-108.3
-105.397
-99.2601
-90.3158
-79.2251
-66.8226
-54.0321
-41.7732
-30.8683
-21.9632
-15.4681
-11.5287
-10.0263
-10.6087
-12.7451
-15.7978
-19.101
-22.0371
-24.1012
-24.9475
-24.4132
-22.5181
-19.4432
-15.4916
-11.0387
-6.47845
-2.17257
1.59036
4.62278
6.85018
8.30783
9.1245
9.49706
9.66049
9.85778
10.3132
11.2116
12.6844
14.8021
17.5728
20.9445
24.8102
29.0154
33.3661
37.6392
41.5953
44.9921
47.6025
49.2329
49.743
49.0638
47.2129
44.303
40.5416
36.2217
31.6996
27.3639
23.5954
20.723
18.981
18.4731
19.1487
20.7958
23.053
25.4394
27.4022
28.3764
27.8546
25.4614
21.0301
14.6774
6.87066
-1.5208
-9.20395
-14.4871
-15.3687
-9.70194
4.56495
29.0873
64.7966
111.597
168.139
231.732
298.428
363.294
420.859
465.683
492.982
499.224
482.607
443.35
383.754
308.015
221.809
131.712
44.509
-33.5031
-97.148
-142.852
-168.93
-175.65
-165.078
-140.726
-107.072
-69.0056
-31.2622
2.06657
27.9159
44.4757
51.2544
48.9837
39.3887
24.8634
8.09774
-8.29428
-22.1005
-31.7543
-36.4738
-36.2863
-31.9464
-24.7638
-16.3716
-8.46705
-2.56228
0.224634
-0.688244
-5.28644
-12.9848
-22.7313
-33.1723
-42.8522
-50.421
-54.8193
-55.4176
-52.0919
-45.229
-35.6618
-24.5476
-13.2058
-2.9403
5.13146
10.2196
11.9554
10.4276
6.15803
0.0233923
-6.8664
-13.3142
-18.1868
-20.5523
-19.785
-15.6292
-8.21265
1.9855
14.2078
27.5188
40.9195
53.4589
64.3313
72.948
78.9785
82.3595
83.2752
82.1142
79.4113
75.7811
71.8515
68.2023
65.3131
63.5233
63.0069
63.7621
65.6172
68.2516
71.2313
74.0557
76.2112
77.2267
76.7248
74.4625
70.3567
64.492
57.1086
48.5729
39.3353
29.8791
20.6689
12.1037
4.48108
-2.02457
-7.36625
-11.6129
-14.9236
-17.5125
-19.6081
-21.4155
-23.0839
-24.6867
-26.2156
-27.5896
-28.6784
-29.334
-29.4269
-28.879
-27.6882
-25.9392
-23.7988
-21.4959
-19.2886
-17.425
-16.102
-15.4309
-15.414
-15.9369
-16.7779
-17.6337
-18.1586
-18.0107
-16.9017
-14.6403
-11.1666
-6.57049
-1.09236
4.895
10.9221
16.4725
21.0412
24.1956
25.6294
25.2052
22.9767
19.1882
14.2503
8.69385
3.10804
-1.93007
-5.92439
-8.51879
-9.53826
-9.00691
-7.14117
-4.31921
-1.03126
2.18256
4.79869
6.3725
6.58901
5.29644
2.51895
-1.5516
-6.58306
-12.1452
-17.7611
-22.9609
-27.332
-30.5598
-32.4553
-32.9668
-32.1759
-30.2794
-27.5597
-24.3485
-20.9879
-17.7937
-15.0243
-12.8588
-11.3852
-10.5995
-10.4149
-10.6792
-11.1978
-11.7595
-12.1625
-12.2369
-11.8627
-10.9801
-9.59301
-7.76398
-5.60349
-3.2535
-0.868486
1.40375
3.43902
5.14934
6.48964
7.45798
8.08961
8.44601
8.60084
8.62494
8.57279
8.47251
8.32087
8.08412
7.70459
7.11217
6.2389
5.03459
3.48097
1.602
-0.53156
-2.80429
-5.06518
-7.14257
-8.86313
-10.0724
-10.6538
-10.5444
-9.7435
-8.31495
-6.38106
-4.10991
-1.69729
0.654272
2.75671
4.45527
5.64275
6.26773
6.33607
5.90603
5.07805
3.98076
2.75532
1.53995
0.456437
-0.399898
-0.966056
-1.21279
-1.142
-0.780817
-0.173768
0.625934
1.56451
2.59416
3.6772
4.78753
5.90929
7.03331
8.15181
9.25233
10.3118
11.2918
12.135
12.7652
13.0889
13.0004
12.3892
11.1496
9.19054
6.44677
2.88752
-1.47607
-6.58681
-12.3404
-18.5874
-25.1382
-31.7686
-38.2266
-44.2375
-49.5046
-53.7055
-56.4799
-57.4093
-55.9904
-51.6062
-43.5048
-30.798
-12.4951
12.4172
44.8386
85.3705
134.098
190.372
252.631
318.312
383.891
445.066
497.104
535.298
555.512
554.707
531.405
485.985
420.786
339.969
249.158
154.895
63.9769
-17.2415
-83.4909
-131.1
-158.313
-165.382
-154.431
-129.114
-94.1231
-54.6106
-15.5995
18.5464
44.5357
60.4035
65.5899
60.849
48.0117
29.6448
8.6577
-12.0921
-30.1452
-43.701
-51.7682
-54.1987
-51.611
-45.2248
-36.6368
-27.5708
-19.6381
-14.1349
-11.8997
-13.2414
-17.9397
-25.3104
-34.3203
-43.735
-52.2778
-58.7824
-62.3208
-62.2977
-58.5012
-51.1101
-40.659
-27.9692
-14.0532
-0.00610704
13.1056
24.3454
32.989
38.581
40.9612
40.2601
36.8676
31.3784
24.5233
17.0945
9.87345
3.56879
-1.22955
-4.07876
-4.69374
-2.94329
1.16367
7.49698
15.8248
25.8307
37.128
49.2707
61.7642
74.0777
85.6607
95.9655
104.476
110.739
114.399
115.232
113.164
108.292
100.881
91.3474
80.2362
68.175
55.8269
43.8364
32.7791
23.1174
15.1687
9.08849
4.86978
2.35865
1.28286
1.29004
1.98996
2.99567
3.9584
4.59252
4.68852
4.11404
2.80514
0.751208
-2.0219
-5.46645
-9.52189
-14.1169
-19.1651
-24.5567
-30.1493
-35.7624
-41.1771
-46.1458
-50.4084
-53.7163
-55.8598
-56.6951
-56.1662
-54.319
-51.3044
-47.3687
-42.8334
-38.0645
-33.4365
-29.2938
-25.9153
-23.4848
-22.0733
-21.633
-22.0055
-22.9428
-24.1381
-25.2632
-26.0078
-26.1146
-25.4086
-23.8138
-21.3594
-18.1719
-14.457
-10.4729
-6.49896
-2.80323
0.386142
2.90381
4.6613
5.65166
5.9446
5.67354
5.01644
4.17318
3.34213
2.69868
2.37793
2.46309
2.98041
3.90067
5.14644
6.60391
8.13746
9.60523
10.8738
11.8305
12.3925
12.5113
12.1735
11.3977
10.2281
8.72641
6.96282
5.00714
2.92141
0.754377
-1.46148
-3.71026
-5.99001
-8.30741
-10.67
-13.0769
-15.5085
-17.9183
-20.226
-22.3165
-24.0438
-25.2409
-25.7355
-25.3705
-24.025
-21.6348
-18.2085
-13.8361
-8.68815
-3.00555
2.92001
8.77229
14.24
19.0458
22.9706
25.8711
27.6867
28.4379
28.2152
27.1618
25.4531
23.2751
20.8063
18.2032
15.5922
13.0671
10.6914
8.50409
6.52693
4.77111
3.24188
1.94001
0.860438
-0.0115977
-0.705249
-1.26812
-1.76808
-2.29153
-2.93784
-3.8098
-5.00144
-6.58444
-8.59539
-11.0255
-13.8146
-16.851
-19.9765
-22.9976
-25.7013
-27.8727
-29.3152
-29.8677
-29.4201
-27.9229
-25.3916
-21.9052
-17.5987
-12.6505
-7.26755
-1.66707
3.94038
9.36696
14.4599
19.1093
23.2512
26.8643
29.9628
32.5858
34.7844
36.6091
38.0997
39.2775
40.1426
40.6742
40.8363
40.5848
39.877
38.6805
36.9811
34.7883
32.1369
29.0853
25.7106
22.1001
18.3422
14.5172
10.69
6.90682
3.19749
-0.41433
-3.89203
-7.15666
-10.048
-12.2783
-13.385
-12.6912
-9.28502
-2.03451
10.3517
29.2071
55.7343
90.7866
134.629
186.712
245.506
308.428
371.908
431.599
482.731
520.585
541.013
540.962
518.905
475.129
411.815
332.902
243.739
150.559
59.8491
-22.3134
-90.8654
-142.236
-174.635
-188.135
-184.531
-167.017
-139.733
-107.233
-73.9606
-43.775
-19.6004
-3.21349
4.80969
5.00027
-1.21877
-11.8303
-24.5574
-37.1896
-47.8597
-55.2417
-58.6546
-58.0676
-54.0189
-47.4681
-39.6099
-31.6784
-24.7693
-19.7015
-16.9326
-16.5329
-18.216
-21.4142
-25.3847
-29.3284
-32.505
-34.3284
-34.4325
-32.7009
-29.2624
-24.4533
-18.7579
-12.7346
-6.94006
-1.85976
2.14634
4.8787
6.31115
6.58275
5.97171
4.85601
3.66671
2.83956
2.77047
3.77891
6.08207
9.781
14.8587
21.1887
28.5522
36.6613
45.1854
53.7786
62.1057
69.8652
76.8077
82.7493
87.5788
91.26
93.8271
95.3755
96.0483
96.019
95.473
94.5876
93.5153
92.3684
91.209
90.0451
88.8314
87.4765
85.8548
83.8214
81.2296
77.9478
73.8758
68.9578
63.1918
56.6334
49.3946
41.6365
33.5575
25.3769
17.3173
9.5853
2.3547
-4.24747
-10.1499
-15.3408
-19.8651
-23.8174
-27.3295
-30.5546
-33.6495
-36.7552
-39.9781
-43.3715
-46.9218
-50.5384
-54.052
-57.2223
-59.7564
-61.339
-61.6703
-60.5094
-57.7165
-53.2869
-47.3715
-40.2785
-32.4542
-24.4439
-16.8369
-10.2026
-5.02516
-1.64584
-0.221112
-0.701746
-2.83609
-6.19725
-10.2307
-14.3164
-17.8372
-20.2464
-21.1246
-20.2208
-17.4736
-13.0097
-7.12183
-0.230825
7.16494
14.5441
21.4156
27.3645
32.0862
35.406
37.2843
37.806
37.16
35.6092
33.4564
31.0107
28.557
26.3319
24.5078
23.1859
22.3969
22.1091
22.2417
22.6805
23.2949
23.9525
24.5327
24.9347
25.0831
24.9286
24.4466
23.6332
22.5008
21.0733
19.3833
17.4696
15.3771
13.1565
10.865
8.56582
6.32749
4.22068
2.31442
0.670941
-0.65972
-1.64477
-2.27249
-2.55418
-2.52406
-2.23693
-1.76404
-1.18774
-0.595517
-0.0740495
0.296271
0.446034
0.320643
-0.116661
-0.882509
-1.97175
-3.35647
-4.98583
-6.787
-8.66745
-10.5189
-12.2232
-13.6593
-14.7132
-15.2872
-15.3113
-14.7528
-13.6253
-11.9942
-9.97836
-7.74641
-5.50789
-3.49835
-1.95984
-1.11795
-1.15771
-2.20092
-4.28788
-7.36614
-11.2883
-15.8198
-20.6567
-25.452
-29.8473
-33.5071
-36.1516
-37.5838
-37.7084
-36.5392
-34.1952
-30.8862
-26.8875
-22.5105
-18.0693
-13.8487
-10.0779
-6.91041
-4.41382
-2.56909
-1.27917
-0.385272
0.311653
1.02684
1.96803
3.31448
5.20017
7.70194
10.8324
14.537
18.6954
23.1256
27.5928
31.8218
35.5135
38.3656
40.0963
40.4691
39.3165
36.5601
32.2241
26.4396
19.4397
11.5443
3.13543
-5.37276
-13.5681
-21.0733
-27.5744
-32.8412
-36.7367
-39.2142
-40.2999
-40.0613
-38.5613
-35.7992
-31.6444
-25.771
-17.6072
-6.31688
9.16782
30.0487
57.4915
92.3937
135.115
185.214
241.243
300.654
359.859
414.46
459.652
490.734
503.693
495.753
465.815
414.723
345.294
262.108
171.075
78.8378
-7.92918
-83.2133
-142.278
-182.115
-201.686
-201.93
-185.544
-156.579
-119.908
-80.6351
-43.5266
-12.5241
9.60273
21.4386
22.9299
15.2337
0.440242
-18.7852
-39.5897
-59.3012
-75.7334
-87.3991
-93.6127
-94.483
-90.8063
-83.8839
-75.2944
-66.6528
-59.3887
-54.569
-52.7849
-54.1096
-58.128
-64.027
-70.73
-77.0549
-81.8742
-84.2565
-83.5741
-79.5657
-72.3503
-62.3945
-50.4403
-37.4046
-24.2651
-11.9469
-1.22204
7.36464
13.5395
17.3089
18.9351
18.8862
17.7659
16.2358
14.9395
14.4368
15.1566
17.3715
21.1939
26.5926
33.4224
41.462
50.4516
60.1257
70.2361
80.5642
90.9221
101.146
111.085
120.589
129.498
137.637
144.822
150.862
155.575
158.803
160.428
160.385
158.672
155.352
150.549
144.443
137.249
129.208
120.565
111.553
102.383
93.2328
84.2438
75.5208
67.135
59.1296
51.5267
44.3342
37.5518
31.1755
25.2003
19.6201
14.4275
9.61179
5.15735
1.0434
-2.75561
-6.26816
-9.52292
-12.5457
-15.3564
-17.9662
-20.3754
-22.5704
-24.5217
-26.1818
-27.4836
-28.3418
-28.6573
-28.3257
-27.252
-25.369
-22.6593
-19.1759
-15.0591
-10.5437
-5.95333
-1.67874
1.85812
4.25265
5.17195
4.40722
1.91595
-2.15388
-7.46258
-13.5026
-19.6453
-25.2064
-29.5205
-32.0175
-32.2902
-30.1444
-25.6265
-19.0232
-10.8351
-1.72527
7.54969
16.2192
23.5785
29.0601
32.2886
33.1133
31.6154
28.0896
23.0044
16.9441
10.5434
4.41891
-0.892406
-4.98173
-7.59978
-8.6682
-8.27129
-6.63069
-4.06723
-0.955595
2.3223
5.41967
8.05836
10.0504
11.3063
11.8306
11.7064
11.0727
10.0969
8.94848
7.77558
6.68775
5.74677
4.9655
4.31403
3.73156
3.14148
2.4672
1.64629
0.640939
-0.556557
-1.92345
-3.41109
-4.9531
-6.47566
-7.90802
-9.19178
-10.2874
-11.1775
-11.8659
-12.3748
-12.7377
-12.9929
-13.1761
-13.3146
-13.4235
-13.5044
-13.5467
-13.5307
-13.4319
-13.2263
-12.8944
-12.4249
-11.8161
-11.0765
-10.2233
-9.28035
-8.27505
-7.23573
-6.18906
-5.15811
-4.16109
-3.2106
-2.31344
-1.47062
-0.677563
0.0755143
0.803148
1.52385
2.25897
3.03122
3.86288
4.774
5.7809
6.89522
8.12388
9.46963
10.9323
12.5099
14.1999
15.9992
17.9042
19.9088
22.0038
24.1745
26.3998
28.6512
30.892
33.0754
35.142
37.0156
38.5987
39.7686
40.3766
40.2523
39.2145
37.0891
33.733
29.0616
23.0758
15.8829
7.70864
-1.10537
-10.118
-18.8202
-26.6768
-33.1737
-37.8625
-40.3932
-40.5281
-38.1294
-33.1193
-25.4161
-14.8582
-1.13454
16.2564
37.9934
64.8495
97.5325
136.464
181.53
231.845
285.595
340.006
391.463
435.807
468.763
486.464
485.984
465.805
426.13
368.995
298.144
218.686
136.566
57.9253
-11.5635
-67.3004
-106.223
-127.075
-130.456
-118.646
-95.249
-64.6994
-31.7059
-0.702369
24.6261
41.6917
49.1937
47.139
36.7066
19.9849
-0.373481
-21.5314
-40.8301
-56.0942
-65.8466
-69.4167
-66.9388
-59.2533
-47.7322
-34.0581
-19.9888
-7.13824
3.20248
10.1856
13.4607
13.1625
9.8415
4.35151
-2.2877
-9.03306
-14.9483
-19.3068
-21.6578
-21.8509
-20.0202
-16.5351
-11.9256
-6.79586
-1.73671
2.75054
6.31098
8.76795
10.1281
10.5619
10.3638
9.90041
9.55362
9.66718
10.5037
12.2165
14.8387
18.289
22.3924
26.9099
31.574
36.1231
40.3314
44.0306
47.1211
49.5741
51.4234
52.752
53.674
54.3166
54.8028
55.2379
55.7003
56.2351
56.8512
57.5207
58.1787
58.7252
59.0275
58.9252
58.2368
56.7707
54.338
50.7682
45.9273
39.7348
32.1803
23.3361
13.3635
2.5125
-8.88781
-20.4468
-31.7379
-42.3295
-51.818
-59.86
-66.1992
-70.6864
-73.2899
-74.0961
-73.3018
-71.1987
-68.1528
-64.5798
-60.9184
-57.6016
-55.0286
-53.5366
-53.3756
-54.6869
-57.4884
-61.6676
-66.9851
-73.088
-79.5354
-85.8323
-91.4717
-95.9795
-98.9583
-100.126
-99.3418
-96.6214
-92.1333
-86.181
-79.1715
-71.5725
-63.8647
-56.4935
-49.8258
-44.1162
-39.4869
-35.9234
-33.2861
-31.3364
-29.7749
-28.2842
-26.5737
-24.4184
-21.6874
-18.3592
-14.5211
-10.355
-6.10968
-2.06685
1.49731
4.3475
6.31834
7.33322
7.4112
6.66198
5.27039
3.47327
1.532
-0.295921
-1.78321
-2.75497
-3.10498
-2.80513
-1.9072
-0.536685
1.12123
2.84281
4.39213
5.54988
6.14115
6.05839
5.27619
3.8557
1.93762
-0.275217
-2.54345
-4.6213
-6.2872
-7.37059
-7.77155
-7.47079
-6.52906
-5.07658
-3.29419
-1.38929
0.430225
1.9805
3.12172
3.77139
3.90963
3.57653
2.86236
1.89257
0.809818
-0.244513
-1.14669
-1.80314
-2.1576
-2.19245
-1.92458
-1.39682
-0.66669
0.205703
1.16862
2.18715
3.2482
4.36189
5.55955
6.88893
8.40721
10.1724
12.2338
14.6218
17.338
20.3472
23.5714
26.8883
30.1342
33.1126
35.6089
37.4083
38.3173
38.185
36.9224
34.5159
31.0342
26.6276
21.5182
15.9839
10.3362
4.89585
-0.0328177
-4.18557
-7.35765
-9.41761
-10.3143
-10.0768
-8.8072
-6.66792
-3.86443
-0.625425
2.81746
6.24848
9.48354
12.3814
14.8499
16.8469
18.3771
19.4843
20.2426
20.7449
21.0922
21.3819
21.6972
22.095
22.5947
23.1659
23.7182
24.0938
24.066
23.3465
21.6029
18.4874
13.6742
6.90226
-1.98167
-12.9864
-25.9516
-40.54
-56.2485
-72.4394
-88.3885
-103.346
-116.601
-127.545
-135.718
-140.828
-142.745
-141.447
-136.943
-129.163
-117.863
-102.539
-82.4113
-56.4794
-23.6705
16.9326
65.8115
122.726
186.481
254.793
324.316
390.825
449.563
495.718
524.961
533.982
520.938
485.763
430.275
358.067
274.191
184.673
95.9125
14.0416
-55.6717
-109.315
-144.658
-161.282
-160.506
-145.126
-119.017
-86.6359
-52.5043
-20.7247
5.41538
23.7116
33.1636
33.9475
27.2551
15.0333
-0.337362
-16.3814
-30.8405
-41.9257
-48.4852
-50.0751
-46.9359
-39.887
-30.1601
-19.1994
-8.45655
0.793951
7.59774
11.4085
12.1152
10.0118
5.71803
0.0669741
-6.02426
-11.6817
-16.1837
-19.0394
-20.0276
-19.1949
-16.8159
-13.3233
-9.2209
-4.99319
-1.02519
2.45544
5.40661
7.96734
10.423
13.1469
16.529
20.9021
26.4784
33.3053
41.2456
49.9866
59.0734
67.9637
76.0941
82.9505
88.1322
91.4017
92.7149
92.2274
90.277
87.3447
83.9997
80.8342
78.3971
77.133
77.3334
79.1057
82.3624
86.8309
92.0827
97.5776
102.719
106.914
109.628
110.439
109.072
105.425
99.5716
91.7528
82.3497
71.8457
60.7812
49.7048
39.1273
29.4822
21.0957
14.1697
8.77791
4.87355
2.30818
0.857023
0.247883
0.189839
0.398669
0.616846
0.627052
0.25924
-0.607876
-2.04944
-4.09955
-6.75742
-9.9933
-13.7539
-17.9665
-22.5436
-27.3856
-32.3864
-37.4371
-42.4326
-47.2773
-51.8912
-56.2144
-60.2099
-63.8631
-67.1791
-70.1762
-72.8779
-75.3031
-77.4576
-79.3271
-80.8742
-82.0389
-82.7445
-82.9065
-82.445
-81.2977
-79.432
-76.8542
-73.6138
-69.8024
-65.5479
-61.0021
-56.3271
-51.6784
-47.1904
-42.9638
-39.0582
-35.4901
-32.2364
-29.2429
-26.4363
-23.7381
-21.0779
-18.4051
-15.6971
-12.9625
-10.2405
-7.59538
-5.10783
-2.86395
-0.94385
0.588982
1.69601
2.36876
2.63018
2.53225
2.15025
1.57469
0.901699
0.223475
-0.380404
-0.849608
-1.14702
-1.25968
-1.19663
-0.984092
-0.658577
-0.258861
0.181919
0.642858
1.11938
1.62396
2.18316
2.8311
3.60034
4.51147
5.5632
6.72483
7.93295
9.09355
10.0902
10.7976
11.0995
10.9076
10.1795
8.93153
7.2447
5.2616
3.17429
1.20419
-0.42363
-1.50851
-1.90066
-1.52261
-0.382566
1.42222
3.71266
6.24483
8.73476
10.8883
12.4324
13.145
12.8794
11.5818
9.29921
6.17741
2.44908
-1.58706
-5.59384
-9.22739
-12.1697
-14.1588
-15.0135
-14.6498
-13.0883
-10.4503
-6.94613
-2.85334
1.50894
5.80926
9.73235
13.0046
15.4135
16.8206
17.1659
16.4645
14.797
12.2945
9.12036
5.45263
1.46772
-2.67055
-6.81596
-10.8379
-14.6134
-18.0147
-20.8965
-23.0854
-24.3765
-24.5397
-23.3364
-20.547
-16.0058
-9.63885
-1.49897
8.20786
19.1107
30.6806
42.2572
53.0962
62.432
69.5519
73.8723
75.0091
72.832
67.4962
59.4439
49.3729
38.1753
26.8485
16.3915
7.69552
1.44547
-1.95666
-2.43489
-0.243001
4.07206
9.74273
15.8803
21.5891
26.0831
28.792
29.451
28.1661
25.4558
22.2649
19.9484
20.2183
25.0433
36.4944
56.5323
86.7436
128.048
180.414
242.625
312.155
385.19
456.823
521.429
573.192
606.727
617.725
603.533
563.575
499.563
415.438
317.047
211.584
106.857
10.4858
-70.8854
-132.252
-170.711
-185.668
-178.777
-153.631
-115.241
-69.4019
-22.003
21.612
57.1715
81.8323
94.3377
94.9765
85.3648
68.0968
46.3162
23.272
1.91084
-15.4454
-27.3082
-33.1034
-33.1284
-28.4053
-20.4597
-11.0604
-1.95885
5.34016
9.7503
10.7023
8.165
2.59444
-5.17479
-14.0758
-22.9707
-30.8047
-36.734
-40.2139
-41.0404
-39.3437
-35.5399
-30.2518
-24.2099
-18.1509
-12.7241
-8.4195
-5.52286
-4.10153
-4.01984
-4.97898
-6.57375
-8.35721
-9.90385
-10.8633
-10.9984
-10.2044
-8.50827
-6.05076
-3.05504
0.212699
3.48468
6.52944
9.18167
11.3609
13.0778
14.4277
15.5743
16.7246
18.0991
19.9005
22.2838
25.3294
29.0245
33.2518
37.7898
42.3252
46.4778
49.8358
51.9998
52.6297
51.4891
48.4808
43.6676
37.2756
29.6773
21.3567
12.8601
4.73853
-2.51042
-8.49472
-12.967
-15.8462
-17.2196
-17.3249
-16.5165
-15.2186
-13.8741
-12.8927
-12.6068
-13.2399
-14.8888
-17.5233
-21.0008
-25.0923
-29.5176
-33.9816
-38.2085
-41.9694
-45.0989
-47.5017
-49.1471
-50.0567
-50.2863
-49.9063
-48.9851
-47.5774
-45.7184
-43.4253
-40.7042
-37.5601
-34.0085
-30.0851
-25.8521
-21.3999
-16.8437
-12.3156
-7.95326
-3.88745
-0.229766
2.93748
5.56767
7.65213
9.21778
10.3209
11.0381
11.4555
11.658
11.7199
11.6979
11.6269
11.5197
11.3689
11.1524
10.8396
10.3986
9.80352
9.03946
8.10667
7.0217
5.81639
4.53457
3.22714
1.94635
0.740241
-0.351668
-1.30064
-2.08846
-2.70467
-3.14184
-3.39003
-3.43186
-3.23977
-2.77685
-2.00194
-0.878867
0.611629
2.45925
4.61358
6.97821
9.41136
11.734
13.7452
15.2421
16.0436
16.0121
15.073
13.2263
10.551
7.19985
3.38587
-0.637722
-4.60227
-8.2497
-11.357
-13.7563
-15.3487
-16.1105
-16.0907
-15.4018
-14.2041
-12.6855
-11.0399
-9.44639
-8.05073
-6.95265
-6.19877
-5.78245
-5.64995
-5.71187
-5.85813
-5.97414
-5.9562
-5.72383
-5.22785
-4.45344
-3.41859
-2.16877
-0.769377
0.702477
2.16553
3.54024
4.75266
5.73638
6.43316
6.79299
6.77447
6.34612
5.48911
4.20127
2.50187
0.436331
-1.92045
-4.46319
-7.05886
-9.55317
-11.781
-13.5796
-14.8038
-15.3409
-15.1229
-14.1358
-12.4225
-10.0808
-7.25459
-4.12096
-0.873318
2.29649
5.21546
7.74402
9.78664
11.2972
12.2795
12.7828
12.8935
12.7248
12.4051
12.0667
11.8358
11.8242
12.1244
12.8054
13.9122
15.4653
17.463
19.8839
22.6903
25.8325
29.2537
32.8946
36.6976
40.6088
44.5781
48.5551
52.4828
56.2879
59.8708
63.0963
65.7894
67.7359
68.6923
68.4029
66.6266
63.1679
57.9115
50.8546
42.1317
32.0285
20.9796
9.5485
-1.60853
-11.7929
-20.3202
-26.5739
-30.0456
-30.3497
-27.2084
-20.4059
-9.72283
5.12907
24.5478
49.0311
79.099
115.145
157.236
204.884
256.859
311.067
364.555
413.667
454.33
482.476
494.513
487.808
461.086
414.701
350.719
272.806
185.91
95.7897
8.44792
-70.4754
-136.258
-185.538
-216.596
-229.445
-225.717
-208.39
-181.369
-149.004
-115.584
-84.889
-59.8325
-42.2391
-32.7705
-30.9953
-35.582
-44.5797
-55.7448
-66.8694
-76.0692
-82.0009
-83.9865
-82.0381
-76.7878
-69.3399
-61.0706
-53.4051
-47.6037
-44.5836
-44.799
-48.1905
-54.2083
-61.8996
-70.0476
-77.3395
-82.5414
-84.6565
-83.0475
-77.5099
-68.2887
-56.0406
-41.7471
-26.5942
-11.8319
1.36621
12.0302
19.4917
23.444
23.9612
21.4729
16.7036
10.5812
4.12894
-1.64814
-5.86936
-7.86572
-7.23987
-3.8929
1.98356
9.948
19.3764
29.5473
39.7326
49.2828
57.6941
64.6502
70.0341
73.9099
76.4807
78.0316
78.8679
79.2596
79.4015
79.394
79.2457
78.8958
78.2484
77.2116
75.731
73.8115
71.5229
68.9876
66.3548
63.766
61.3201
59.0453
56.8829
54.6879
52.245
49.2987
45.5913
40.9038
35.0919
28.1135
20.042
11.0661
1.47468
-8.36787
-18.0549
-27.1733
-35.3382
-42.2237
-47.5874
-51.2856
-53.2812
-53.6413
-52.5279
-50.1811
-46.8973
-43.0039
-38.8334
-34.6983
-30.8704
-27.5651
-24.9321
-23.0521
-21.9388
-21.5443
-21.7659
-22.455
-23.4259
-24.4662
-25.3492
-25.848
-25.7524
-24.8872
-23.1306
-20.4303
-16.8152
-12.4004
-7.38361
-2.03309
3.33369
8.37736
12.768
16.2168
18.5039
19.4995
19.1763
17.6102
14.9718
11.5081
7.51862
3.327
-0.746742
-4.41212
-7.42913
-9.62312
-10.8928
-11.2113
-10.6218
-9.22746
-7.17839
-4.65658
-1.86026
1.01079
3.76812
6.24477
8.30246
9.83574
10.7734
11.0774
10.7405
9.78233
8.24515
6.18975
3.69174
0.838701
-2.27158
-5.53207
-8.82674
-12.0309
-15.012
-17.632
-19.7516
-21.2365
-21.9663
-21.8448
-20.8112
-18.8498
-15.9981
-12.3504
-8.05627
-3.31319
1.6453
6.56586
11.1932
15.2875
18.6395
21.0819
22.4975
22.8236
22.0545
20.2426
17.4989
13.9908
9.93833
5.60561
1.28709
-2.71135
-6.09614
-8.61224
-10.0689
-10.3613
-9.4852
-7.54114
-4.7276
-1.32305
2.34146
5.91594
9.06748
11.5142
13.0532
13.5793
13.0927
11.6944
9.57089
6.97018
4.17164
1.45364
-0.937662
-2.81492
-4.06895
-4.67885
-4.71179
-4.3127
-3.68486
-3.06343
-2.68488
-2.75555
-3.42323
-4.75505
-6.72492
-9.21204
-12.0114
-14.8552
-17.4422
-19.4728
-20.6837
-20.8793
-19.955
-17.9107
-14.8517
-10.9783
-6.56445
-1.9299
2.59269
6.69027
10.0987
12.6252
14.163
14.6949
14.2887
13.0839
11.2711
9.06966
6.70254
4.37403
2.25099
0.44956
-0.971944
-2.01402
-2.73157
-3.22507
-3.62791
-4.09025
-4.75825
-5.74705
-7.10551
-8.77168
-10.5206
-11.9098
-12.2342
-10.504
-5.46441
4.32654
20.3543
43.9386
75.9777
116.679
165.319
220.091
278.079
335.388
387.45
429.462
456.929
466.219
455.071
422.961
371.276
303.265
223.748
138.65
54.3739
-22.8619
-87.676
-136.059
-165.744
-176.358
-169.368
-147.807
-115.849
-78.2856
-39.9601
-5.2469
22.3799
40.6381
48.5686
46.5047
35.896
19.0216
-1.36295
-22.3978
-41.4639
-56.4631
-66.0064
-69.498
-67.1164
-59.7045
-48.5937
-35.3886
-21.7442
-9.16229
1.16944
8.48053
12.4579
13.2246
11.2671
7.32669
2.27286
-3.02236
-7.79279
-11.4567
-13.6588
-14.2752
-13.3847
-11.2167
-8.08661
-4.32934
-0.243722
3.94671
8.11139
12.2095
16.2692
20.3556
24.5345
28.8395
33.2491
37.6754
41.9691
45.9366
49.3666
52.0628
53.8756
54.7277
54.632
53.6965
52.1173
50.161
48.1379
46.3706
45.1618
44.7644
45.3567
47.0254
49.7565
53.4342
57.8471
62.7009
67.6362
72.2502
76.123
78.8463
80.0547
79.4571
76.8657
72.2196
65.5993
57.2297
47.4686
36.7817
25.705
14.7983
4.5949
-4.44721
-11.9865
-17.8267
-21.9297
-24.4114
-25.5214
-25.6086
-25.0794
-24.3509
-23.8075
-23.765
-24.4444
-25.9593
-28.315
-31.4187
-35.0974
-39.1202
-43.2228
-47.1306
-50.58
-53.336
-55.206
-56.0505
-55.7891
-54.4042
-51.9403
-48.4998
-44.2357
-39.3412
-34.0361
-28.5523
-23.1186
-17.9457
-13.2138
-9.06252
-5.58479
-2.82441
-0.777868
0.60044
1.39011
1.69473
1.63104
1.31822
0.868289
0.378331
-0.074926
-0.437983
-0.680904
-0.795418
-0.791255
-0.691327
-0.526392
-0.329831
-0.133061
0.0380214
0.165329
0.239563
0.259956
0.23303
0.17066
0.08781
0.000275705
-0.0772665
-0.1327
-0.157267
-0.145707
-0.0958138
-0.0075923
0.117698
0.278307
0.472278
0.697074
0.948557
1.21952
1.49815
1.76691
2.00228
2.17586
2.25684
2.21578
2.02934
1.68503
1.18528
0.549869
-0.183877
-0.963475
-1.72602
-2.40461
-2.93549
-3.26457
-3.3523
-3.17627
-2.7313
-2.02767
-1.08845
0.0529789
1.35434
2.76437
4.22145
5.65177
6.96837
8.07216
8.85645
9.21526
9.05525
8.31
6.95442
5.01659
2.58437
-0.195263
-3.12517
-5.97476
-8.5028
-10.4833
-11.7314
-12.1247
-11.6193
-10.2553
-8.15414
-5.50603
-2.54974
0.45257
3.24285
5.5936
7.3304
8.34809
8.61899
8.19257
7.18698
5.77365
4.1571
2.55245
1.16327
0.162254
-0.323218
-0.219361
0.492523
1.78109
3.57548
5.77971
8.28865
11.0034
13.8436
16.7562
19.7174
22.731
25.8207
29.0204
32.361
35.8571
39.4938
43.2151
46.914
50.4287
53.5439
56.0016
57.5198
57.8211
56.6665
53.8922
49.4434
43.399
35.983
27.5587
18.6041
9.67097
1.33167
-5.88006
-11.5258
-15.3082
-17.0985
-16.938
-15.0115
-11.5913
-6.95519
-1.28832
5.41947
13.4609
23.4621
36.3751
53.3956
75.7987
104.702
140.782
183.993
233.327
286.696
340.952
392.084
435.581
466.924
482.133
478.31
454.081
409.869
347.962
272.344
188.326
101.996
19.592
-53.1546
-111.599
-152.63
-174.924
-178.992
-167.019
-142.514
-109.85
-73.7244
-38.6286
-8.38385
14.2098
27.5758
31.4045
26.5459
14.7775
-1.51174
-19.6776
-37.169
-51.8276
-62.1076
-67.1973
-67.037
-62.2426
-53.9543
-43.6352
-32.8528
-23.0694
-15.469
-10.8359
-9.49705
-11.3255
-15.7988
-22.0984
-29.2317
-36.1606
-41.92
-45.7141
-46.9831
-45.437
-41.0592
-34.0822
-24.9446
-14.2347
-2.62928
9.16755
20.4799
30.7074
39.363
46.0991
50.7235
53.205
53.668
52.3792
49.7244
46.1788
42.2704
38.5406
35.5025
33.602
33.1824
34.4582
37.498
42.2201
48.4
55.6905
63.6518
71.7896
79.5972
86.598
92.3836
96.6443
99.189
99.9517
98.9865
96.4501
92.5753
87.6395
81.9304
75.7148
69.2131
62.5829
55.9137
49.2325
42.5194
35.7305
28.8235
21.7824
14.6365
7.47032
0.42269
-6.32453
-12.5672
-18.105
-22.7693
-26.4477
-29.1012
-30.7724
-31.5817
-31.7146
-31.3991
-30.8801
-30.3918
-30.133
-30.2488
-30.8195
-31.858
-33.3154
-35.0924
-37.0546
-39.0492
-40.9205
-42.5233
-43.7314
-44.4431
-44.5818
-44.0949
-42.9491
-41.1257
-38.6158
-35.4169
-31.5314
-26.9685
-21.7497
-15.9176
-9.54746
-2.75881
4.27473
11.3216
18.0962
24.2734
29.5124
33.4893
35.9341
36.6677
35.6327
32.9143
28.7454
23.4958
17.6446
11.7384
6.33967
1.97125
-0.937725
-2.09775
-1.39194
1.10784
5.14377
10.2941
16.0132
21.6852
26.6876
30.4574
32.5531
32.7054
30.8503
27.1397
21.9277
15.733
9.18122
2.93374
-2.38913
-6.28059
-8.40691
-8.64655
-7.10382
-4.09555
-0.11225
4.24129
8.31871
11.5093
13.3106
13.3872
11.6098
8.06983
3.0678
-2.92273
-9.311
-15.4585
-20.7537
-24.6828
-26.8892
-27.2127
-25.7064
-22.6269
-18.4008
-13.571
-8.73061
-4.45164
-1.21837
0.626883
0.919073
-0.317052
-2.87785
-6.41288
-10.4732
-14.5689
-18.229
-21.0548
-22.7623
-23.2081
-22.3966
-20.4702
-17.6835
-14.3661
-10.8795
-7.57278
-4.74367
-2.60731
-1.2774
-0.760269
-0.961711
-1.70505
-2.7574
-3.86047
-4.76211
-5.24474
-5.14787
-4.38261
-2.93744
-0.875373
1.67619
4.54123
7.51431
10.381
12.9374
15.0072
16.4553
17.1965
17.2007
16.4936
15.1542
13.3095
11.1272
8.80541
6.56214
4.62183
3.20169
2.49726
2.66836
3.82637
6.02385
9.24774
13.4167
18.3831
23.941
29.8368
35.7861
41.4917
46.6631
51.0358
54.3882
56.5544
57.4323
56.9856
55.241
52.2809
48.2331
43.2596
37.5449
31.2868
24.6872
17.9463
11.2575
4.80454
-1.23963
-6.71137
-11.4498
-15.2833
-18.0054
-19.3402
-18.8979
-16.1267
-10.2737
-0.370236
14.7405
36.3173
65.5683
103.436
150.34
205.915
268.79
336.462
405.311
470.788
527.769
571.055
595.961
598.904
577.924
533.035
466.366
382.045
285.841
184.606
85.5744
-4.37926
-79.4375
-135.406
-170.078
-183.368
-177.196
-155.153
-122.003
-83.0814
-43.6741
-8.45007
18.9892
36.3978
42.9902
39.3657
27.2771
9.28581
-11.6439
-32.5568
-50.8728
-64.6677
-72.841
-75.1617
-72.1992
-65.1584
-55.6495
-45.4298
-36.1515
-29.1489
-25.2876
-24.891
-27.7441
-33.1698
-40.1582
-47.5294
-54.1042
-58.8603
-61.0544
-60.2986
-56.5836
-50.2525
-41.9312
-32.4301
-22.6307
-13.3738
-5.36164
0.913884
5.21189
7.54964
8.17868
7.53576
6.1767
4.7025
3.68683
3.61291
4.82614
7.50607
11.6591
17.1309
23.6353
30.7953
38.1902
45.4043
52.0701
57.9034
62.7265
66.4778
69.2086
71.0682
72.2793
73.1075
73.8279
74.6909
75.8912
77.5416
79.6539
82.1291
84.7585
87.2368
89.1872
90.1968
89.8605
87.8283
83.8503
77.8143
69.7705
59.9387
48.6969
36.5511
24.0896
11.9273
0.64555
-9.26419
-17.4472
-23.7166
-28.0661
-30.6624
-31.8197
-31.959
-31.5578
-31.096
-31.0046
-31.6217
-33.1605
-35.6906
-39.1355
-43.2834
-47.8114
-52.3202
-56.3771
-59.5619
-61.5137
-61.9724
-60.8112
-58.0545
-53.8802
-48.6031
-42.6417
-36.4717
-30.5723
-25.3709
-21.1954
-18.2391
-16.5423
-15.994
-16.3514
-17.2755
-18.3767
-19.2637
-19.5915
-19.0998
-17.6395
-15.183
-11.8187
-7.73034
-3.16452
1.60729
6.32746
10.7845
14.8335
18.4019
21.4793
24.0937
26.2811
28.0527
29.3696
30.13
30.1725
29.2973
27.3015
24.0239
19.39
13.4509
6.40636
-1.392
-9.4608
-17.2259
-24.0803
-29.4507
-32.8638
-34.004
-32.7531
-29.2077
-23.6714
-16.624
-8.66968
-0.473427
7.30832
14.0931
19.4267
23.0207
24.7691
24.7441
23.1725
20.3986
16.8372
12.9264
9.08314
5.66873
2.96472
1.16092
0.353553
0.551425
1.68704
3.63025
6.20263
9.19145
12.3633
15.4775
18.3002
20.6187
22.2573
23.092
23.0641
22.1901
20.5663
18.3658
15.827
13.2336
10.8855
9.06524
8.00019
7.82773
8.56704
10.1032
12.1872
14.4554
16.466
17.7511
17.8787
16.5145
13.477
8.77563
2.62688
-4.55733
-12.2072
-19.6555
-26.214
-31.255
-34.2888
-35.0257
-33.4142
-29.6513
-24.1623
-17.5525
-10.5392
-3.86873
1.76725
5.80897
7.88873
7.86799
5.84748
2.15021
-2.71976
-8.137
-13.4254
-17.9313
-21.0916
-22.4888
-21.8887
-19.2584
-14.7622
-8.74028
-1.67025
5.88088
13.3111
20.0379
25.5489
29.4429
31.4601
31.4976
29.61
25.9957
20.9707
14.9333
8.3234
1.58057
-4.89386
-10.7681
-15.8014
-19.8536
-22.8842
-24.9404
-26.1386
-26.6411
-26.6337
-26.3056
-25.8352
-25.3821
-25.0818
-25.0396
-25.3159
-25.8977
-26.6519
-27.2622
-27.1608
-25.4726
-20.996
-12.2468
2.41652
24.5815
55.4983
95.7605
145.004
201.688
263.01
325.014
382.878
431.393
465.549
481.168
475.488
447.596
398.659
331.894
252.283
166.062
80.0504
0.910759
-65.5679
-115.07
-145.166
-155.488
-147.663
-125.016
-92.0933
-54.0769
-16.1637
17.0106
41.8378
56.0451
58.821
50.7587
33.6395
10.0984
-16.7789
-43.8696
-68.388
-88.1779
-101.896
-109.073
-110.062
-105.888
-98.0253
-88.1568
-77.9213
-68.7065
-61.4977
-56.7997
-54.6343
-54.6033
-56.0042
-57.9732
-59.6365
-60.2446
-59.2757
-56.495
-51.9666
-46.0221
-39.1926
-32.1189
-25.4523
-19.7626
-15.4623
-12.7584
-11.6328
-11.8541
-13.0139
-14.5831
-15.9781
-16.6303
-16.0484
-13.8695
-9.89318
-4.09762
3.36331
12.1791
21.9151
32.0552
42.0488
51.3593
59.5091
66.1177
70.9293
73.8293
74.8469
74.1449
71.9984
68.7638
64.8419
60.6385
56.5272
52.8168
49.7268
47.3743
45.7705
44.8295
44.3855
44.2177
44.0783
43.7212
42.928
41.528
39.4112
36.5332
32.9121
28.6193
23.7648
18.4817
12.9093
7.17909
1.40412
-4.32848
-9.9608
-15.4649
-20.8419
-26.1192
-31.3465
-36.5899
-41.922
-47.408
-53.0866
-58.9489
-64.9153
-70.8178
-76.3898
-81.2713
-85.0295
-87.1993
-87.3382
-85.0918
-80.261
-72.8598
-63.1531
-51.6662
-39.1595
-26.5679
-14.9103
-5.179
1.77802
5.36445
5.31792
1.75432
-4.8337
-13.6251
-23.5605
-33.4624
-42.1705
-48.6741
-52.2246
-52.4153
-49.2172
-42.9698
-34.3279
-24.1738
-13.5065
-3.32296
5.4935
12.2653
16.5825
18.3291
17.6734
15.0255
10.9697
6.18151
1.34141
-2.94509
-6.21095
-8.16875
-8.72609
-7.97593
-6.16518
-3.64769
-0.82868
1.89147
4.16746
5.74781
6.49855
6.41082
5.59284
4.2489
2.64873
1.09169
-0.130272
-0.766774
-0.637195
0.349615
2.18556
4.76409
7.89109
11.3048
14.7021
17.7694
20.2142
21.7938
22.3403
21.7763
20.1231
17.4977
14.1022
10.2035
6.10824
2.13434
-1.41775
-4.29116
-6.29368
-7.31239
-7.32064
-6.3775
-4.62016
-2.25028
0.484128
3.30982
5.95061
8.14906
9.68611
10.397
10.1824
9.0144
6.93665
4.05879
0.546407
-3.39296
-7.52627
-11.6124
-15.4191
-18.7384
-21.3987
-23.2743
-24.2904
-24.4244
-23.7036
-22.1994
-20.0194
-17.2971
-14.1808
-10.8234
-7.37161
-3.95866
-0.697909
2.32035
5.02988
7.38731
9.36956
10.9704
12.197
13.0672
13.6073
13.8516
13.8419
13.6284
13.2696
12.8324
12.3907
12.0232
11.81
11.8285
12.1494
12.8333
13.9275
15.4636
17.4545
19.8914
22.7385
25.9284
29.3557
32.8741
36.2962
39.3983
41.9326
43.6456
44.3007
43.7052
41.7346
38.3541
33.6314
27.7392
20.9472
13.6027
6.10239
-1.13974
-7.7262
-13.3039
-17.5816
-20.3306
-21.3649
-20.5003
-17.4961
-11.991
-3.45051
8.8534
25.8093
48.3662
77.3651
113.317
156.16
205.038
258.159
312.764
365.252
411.455
447.05
468.045
471.299
454.966
418.831
364.449
295.075
215.396
131.063
48.121
-27.6198
-91.1799
-138.898
-168.754
-180.498
-175.568
-156.829
-128.16
-93.9635
-58.6513
-26.1739
0.355975
18.9087
28.6334
29.809
23.6691
12.1357
-2.497
-17.885
-31.9232
-42.969
-49.9821
-52.5714
-50.9568
-45.8586
-38.3395
-29.6226
-20.9135
-13.246
-7.3707
-3.69329
-2.26538
-2.82279
-4.86028
-7.7292
-10.7425
-13.273
-14.8325
-15.1239
-14.0624
-11.7661
-8.52053
-4.72417
-0.824277
2.74837
5.63683
7.60106
8.54236
8.50785
7.67609
6.32743
4.80426
3.46723
2.65353
2.64264
3.63297
5.73134
8.9545
13.2406
18.4669
24.4699
31.0644
38.0583
45.2618
52.492
59.5721
66.3285
72.588
78.1771
82.9245
86.6682
89.2667
90.6118
90.6421
89.3544
86.8103
83.1363
78.5182
73.1875
67.4033
61.4309
55.5189
49.8781
44.6655
39.9725
35.8229
32.1765
28.9418
25.9933
23.1923
20.4077
17.5355
14.5119
11.321
7.99491
4.6077
1.26326
-1.91977
-4.8243
-7.34985
-9.42435
-11.0114
-12.1122
-12.7625
-13.0255
-12.9814
-12.7166
-12.3131
-11.8401
-11.348
-10.8674
-10.4099
-9.97281
-9.54529
-9.11451
-8.67137
-8.21416
-7.74969
-7.29183
-6.85791
-6.46367
-6.11801
-5.8185
-5.54889
-5.27898
-4.96746
-4.56706
-4.0316
-3.32375
-2.42228
-1.32772
-0.0651746
1.31606
2.74651
4.14368
5.42149
6.50079
7.31942
7.84046
8.0572
7.99432
7.7047
7.26246
6.75296
6.26128
5.86066
5.60265
5.51038
5.57569
5.76083
6.00402
6.22836
6.35252
6.30172
6.01755
5.46524
4.63766
3.55565
2.26487
0.829942
-0.673318
-2.16643
-3.57643
-4.84291
-5.92311
-6.7949
-7.45734
-7.92915
-8.24536
-8.45259
-8.60364
-8.75177
-8.94512
-9.22179
-9.60562
-10.1029
-10.7006
-11.3654
-12.0453
-12.6721
-13.1663
-13.4434
-13.4213
-13.0287
-12.2123
-10.9436
-9.22297
-7.08087
-4.57668
-1.79434
1.16362
4.1832
7.14593
9.93517
12.441
14.564
16.217
17.3273
17.8376
17.7079
16.9184
15.473
13.4034
10.7737
7.68239
4.26315
0.680998
-2.87536
-6.20559
-9.11333
-11.4239
-13.0021
-13.7677
-13.7061
-12.8735
-11.3934
-9.44629
-7.25214
-5.04798
-3.06315
-1.49508
-0.488585
-0.121093
-0.39576
-1.24304
-2.53055
-4.07985
-5.68808
-7.15175
-8.28986
-8.96349
-9.08988
-8.64919
-7.6835
-6.28829
-4.59775
-2.76591
-0.946142
0.728054
2.15858
3.29257
4.12542
4.697
5.082
5.37617
5.68061
6.08662
6.66299
7.44744
8.4428
9.61816
10.9143
12.252
13.543
14.7001
15.6479
16.3306
16.7183
16.8098
16.6337
16.2462
15.728
15.1802
14.722
14.4925
14.6594
15.4389
17.1277
20.1436
25.068
32.6766
43.9393
59.9722
81.9279
110.821
147.299
191.399
242.313
298.241
356.349
412.894
463.5
503.579
528.844
535.844
522.446
488.184
434.425
364.319
282.522
194.749
107.186
25.8514
-44.0079
-98.4323
-135.096
-153.459
-154.716
-141.549
-117.738
-87.669
-55.8141
-26.2458
-2.23333
14.0313
21.5601
20.5451
12.2004
-1.49842
-18.1376
-35.2064
-50.4131
-61.9416
-68.6236
-70.0126
-66.3634
-58.5275
-47.786
-35.6474
-23.6385
-13.1138
-5.1061
-0.231661
1.34412
-0.117923
-4.00508
-9.46281
-15.5234
-21.2352
-25.7775
-28.547
-29.2092
-27.7117
-24.2615
-19.2729
-13.2957
-6.93361
-0.76548
4.72259
9.18637
12.45
14.509
15.5125
15.7283
15.4988
15.1925
15.1591
15.6932
17.0093
19.2305
22.3905
26.4456
31.2944
36.8007
42.8151
49.192
55.7996
62.5212
69.2504
75.8806
82.2926
88.3454
93.8708
98.6766
102.557
105.31
106.76
106.782
105.323
102.412
98.169
92.7932
86.5454
79.7196
72.6106
65.4822
58.5414
51.9227
45.6843
39.8167
34.2603
28.9295
23.7377
18.6192
13.5448
8.52866
3.62715
-1.06967
-5.45076
-9.3985
-12.8022
-15.5693
-17.6338
-18.9617
-19.5548
-19.4529
-18.7344
-17.5149
-15.9434
-14.1943
-12.4554
-10.9132
-9.7342
-9.04677
-8.92503
-9.37718
-10.341
-11.6875
-13.2325
-14.7565
-16.0282
-16.8312
-16.9885
-16.383
-14.9698
-12.781
-9.92049
-6.55111
-2.87574
0.88467
4.51313
7.8157
10.6355
12.8599
14.421
15.2901
15.4677
14.9728
13.8341
12.0865
9.77482
6.9646
3.75762
0.307728
-3.16821
-6.38987
-9.02681
-10.727
-11.1577
-10.0545
-7.26917
-2.80953
3.13718
10.2035
17.8654
25.4889
32.3952
37.9351
41.5639
42.9061
41.8011
38.3234
32.7752
25.6527
17.5886
9.2819
1.42042
-5.39124
-10.6918
-14.2037
-15.8502
-15.7486
-14.1818
-11.5523
-8.32633
-4.97488
-1.91874
0.515739
2.12576
2.84349
2.72934
1.94882
0.736704
-0.646457
-1.95923
-3.01933
-3.73295
-4.10925
-4.25742
-4.36684
-4.67277
-5.41285
-6.78103
-8.88622
-11.7226
-15.1568
-18.9346
-22.7067
-26.0707
-28.6229
-30.0131
-29.9944
-28.4603
-25.4648
-21.2217
-16.0842
-10.5059
-4.99072
-0.0362986
3.92019
6.54834
7.65699
7.20972
5.32256
2.24519
-1.67092
-6.01262
-10.3478
-14.2657
-17.4095
-19.4997
-20.3464
-19.8514
-18.004
-14.873
-10.5978
-5.38027
0.521634
6.80129
13.113
19.0866
24.3491
28.5525
31.4058
32.7081
32.3782
30.4735
27.1974
22.8893
17.999
13.0471
8.5757
5.09537
3.03507
2.70089
4.24802
7.66834
12.7941
19.316
26.8133
34.7917
42.7255
50.1007
56.4544
61.4082
64.6938
66.1665
65.809
63.7225
60.1076
55.2352
49.4117
42.9407
36.0867
29.0451
21.9246
14.7439
7.44777
-0.0589897
-7.85925
-15.9568
-24.2002
-32.2056
-39.2893
-44.425
-46.2403
-43.0712
-33.0838
-14.4699
14.294
54.1481
105.15
166.225
235.024
307.927
380.226
446.488
501.071
538.731
555.247
547.975
516.25
461.568
387.52
299.473
204.032
108.357
19.4162
-56.7384
-115.564
-154.439
-172.836
-172.25
-155.895
-128.227
-94.3416
-59.3502
-27.7913
-3.15972
12.4013
18.2168
15.0051
4.63478
-10.2422
-26.6253
-41.6068
-52.761
-58.4359
-57.917
-51.4505
-40.1362
-25.7123
-10.271
4.05374
15.3815
22.3277
24.1628
20.8759
13.1386
2.18233
-10.3904
-22.8318
-33.4812
-40.9731
-44.3961
-43.3863
-38.1451
-29.3865
-18.2218
-6.00123
5.86504
16.0845
23.6353
27.8778
28.6129
26.0844
20.9263
14.0669
6.60241
-0.341876
-5.74543
-8.80585
-9.01906
-6.21928
-0.576512
7.44497
17.1594
27.7528
38.3837
48.2798
56.8182
63.5818
68.387
71.281
72.5119
72.4766
71.655
70.5386
69.5642
69.0579
69.1979
69.998
71.3129
72.8632
74.2756
75.1329
75.028
73.6155
70.6548
66.0417
59.8243
52.2023
43.5104
34.1871
24.7332
15.6636
7.45906
0.521429
-4.86149
-8.53866
-10.5038
-10.8883
-9.9404
-7.99378
-5.42909
-2.63362
0.03662
2.2883
3.91258
4.79587
4.91934
4.34852
3.21517
1.6945
-0.019256
-1.73593
-3.28875
-4.54843
-5.43112
-5.90046
-5.96431
-5.6675
-5.0819
-4.29538
-3.40081
-2.48627
-1.62715
-0.880714
-0.283255
0.150104
0.423321
0.55548
0.575585
0.516798
0.410837
0.28324
0.150044
0.0163028
-0.123457
-0.282993
-0.480782
-0.73578
-1.06328
-1.47156
-1.95988
-2.51807
-3.12782
-3.76524
-4.40423
-5.02001
-5.59207
-6.10597
-6.55372
-6.93264
-7.24317
-7.48595
-7.65903
-7.75586
-7.76444
-7.66804
-7.44748
-7.08467
-6.56686
-5.89095
-5.06708
-4.12073
-3.09278
-2.03738
-1.01744
-0.0983772
0.659157
1.20672
1.51444
1.5754
1.4072
1.05033
0.563402
0.015817
-0.521117
-0.983336
-1.32206
-1.50951
-1.54145
-1.43619
-1.23024
-0.971418
-0.71032
-0.491617
-0.34634
-0.286308
-0.301448
-0.360359
-0.41398
-0.401828
-0.25994
0.0705049
0.634904
1.45826
2.54022
3.85271
5.3404
6.92396
8.50597
9.9789
11.2345
12.1734
12.7149
12.8044
12.4185
11.5682
10.2968
8.67613
6.79938
4.77194
2.70188
0.690636
-1.17456
-2.82603
-4.21821
-5.32743
-6.14941
-6.69508
-6.98574
-7.04825
-6.9112
-6.60238
-6.14776
-5.57185
-4.89892
-4.15452
-3.3668
-2.56694
-1.78848
-1.06558
-0.430193
0.0911961
0.480955
0.733217
0.855849
0.871105
0.8147
0.733237
0.680143
0.710487
0.875307
1.2162
1.76095
2.52102
3.49117
4.65167
5.97243
7.41858
8.95606
10.5561
12.197
13.8636
15.5426
17.2162
18.8552
20.4124
21.8185
22.982
23.7942
24.1374
23.8977
22.9795
21.3197
18.8999
15.7546
11.9731
7.69575
3.1054
-1.58416
-6.13736
-10.2984
-13.7801
-16.2358
-17.2169
-16.1219
-12.1535
-4.30248
8.61912
27.8774
54.6438
89.7589
133.464
185.144
243.136
304.662
365.912
422.31
468.928
501.024
514.618
507.033
477.316
426.473
357.475
275.022
185.094
94.3401
9.38598
-63.851
-120.759
-158.465
-176.057
-174.575
-156.782
-126.76
-89.3736
-49.6903
-12.4169
18.5759
40.5946
52.2975
53.6985
46.0132
31.3798
12.5016
-7.74026
-26.6538
-42.0403
-52.4052
-57.061
-56.1196
-50.3866
-41.1829
-30.1196
-18.8625
-8.91414
-1.4391
2.84943
3.7349
1.47522
-3.27691
-9.59553
-16.425
-22.7259
-27.6039
-30.4079
-30.7879
-28.7092
-24.4259
-18.4211
-11.3245
-3.8208
3.43948
9.91499
15.227
19.1866
21.7951
23.2205
23.7562
23.7682
23.6401
23.7219
24.2897
25.5199
27.4789
30.1286
33.3444
36.9424
40.71
44.4366
47.9395
51.0836
53.7914
56.0452
57.8818
59.3816
60.6543
61.8241
63.0146
64.336
65.8744
67.6833
69.7766
72.124
74.6477
77.2208
79.6693
81.7755
83.2869
83.9282
83.4183
81.49
77.9134
72.5195
65.2225
56.0397
45.1045
32.6717
19.112
4.89617
-9.43237
-23.2945
-36.1186
-47.3863
-56.6754
-63.696
-68.3147
-70.564
-70.6361
-68.8611
-65.6729
-61.5654
-57.0451
-52.5854
-48.5863
-45.3444
-43.0354
-41.7101
-41.3031
-41.6522
-42.5258
-43.6538
-44.7598
-45.5891
-45.932
-45.6389
-44.6279
-42.8837
-40.4512
-37.4228
-33.924
-30.0982
-26.0919
-22.0435
-18.0738
-14.2814
-10.7405
-7.50139
-4.593
-2.02695
0.198503
2.09445
3.67797
4.96973
5.99243
6.77
7.32731
7.68995
7.88386
7.93452
7.86595
7.69944
7.45268
7.13929
6.76927
6.35026
5.88942
5.3956
4.88121
4.36342
3.86414
3.40881
3.024
2.7344
2.55986
2.51316
2.59898
2.81413
3.14863
3.58671
4.10713
4.68197
5.27427
5.83506
6.30135
6.59673
6.63576
6.33312
5.61654
4.44213
2.80923
0.77168
-1.55742
-4.0097
-6.37506
-8.42388
-9.93554
-10.7292
-10.6926
-9.80378
-8.14258
-5.88885
-3.30745
-0.721072
1.52574
3.10704
3.75537
3.29595
1.67091
-1.04959
-4.67092
-8.89172
-13.334
-17.5818
-21.2249
-23.9009
-25.3334
-25.3604
-23.9509
-21.2075
-17.3559
-12.7217
-7.69735
-2.70354
1.85192
5.61234
8.30443
9.76114
9.93312
8.88816
6.79917
3.92254
0.569793
-2.92418
-6.23273
-9.06562
-11.1914
-12.4522
-12.7715
-12.1529
-10.6743
-8.47449
-5.73693
-2.66989
0.514617
3.62153
6.49115
9.01335
11.1361
12.867
14.2684
15.4455
16.5301
17.6606
18.9623
20.5273
22.3986
24.5577
26.9166
29.3169
31.534
33.2894
34.2706
34.1583
32.6601
29.5491
24.7018
18.1324
10.0163
0.699238
-9.31357
-19.3902
-28.825
-36.9086
-43.0053
-46.6286
-47.4993
-45.5766
-41.0483
-34.2773
-25.7055
-15.7256
-4.54249
7.94961
22.2419
39.2104
60.0216
85.9412
118.065
157.006
202.596
253.659
307.904
361.99
411.77
452.69
480.311
490.872
481.822
452.23
403.02
336.977
258.525
173.294
87.5389
7.47523
-61.3736
-114.742
-150.027
-166.492
-165.249
-149.025
-121.77
-88.1403
-52.9428
-20.6003
5.29557
22.3002
29.2735
26.374
14.9043
-2.96039
-24.5172
-46.9068
-67.4649
-84.013
-95.061
-99.9069
-98.6306
-91.9951
-81.2757
-68.0465
-53.9541
-40.5088
-28.9178
-19.9756
-14.022
-10.9631
-10.3476
-11.481
-13.5573
-15.7896
-17.5198
-18.2943
-17.9
-16.3584
-13.8851
-10.8236
-7.56778
-4.48542
-1.85456
0.178572
1.61614
2.5999
3.38072
4.27332
5.6042
7.66111
10.651
14.672
19.7013
25.6004
32.1343
39.0024
45.8747
52.4297
58.3883
63.5399
67.7588
71.0084
73.3353
74.8538
75.7247
76.13
76.2498
76.2409
76.2227
76.2687
76.4049
76.6132
76.8387
76.9987
76.9923
76.7081
76.0321
74.8525
73.0634
70.5675
67.2773
63.1171
58.0258
51.9623
44.9135
36.9044
28.0101
18.3675
8.18415
-2.25889
-12.6112
-22.4678
-31.3947
-38.9643
-44.7986
-48.6147
-50.2671
-49.7793
-47.3593
-43.3925
-38.412
-33.0468
-27.9542
-23.7432
-20.9013
-19.7336
-20.3237
-22.5232
-25.9705
-30.1379
-34.3988
-38.1073
-40.6787
-41.6595
-40.7795
-37.9788
-33.4085
-27.4045
-20.4419
-13.0736
-5.86444
0.672649
6.13021
10.2439
12.9112
14.1901
14.2799
13.4874
12.1835
10.7561
9.5645
8.90023
8.95878
9.82349
11.4634
13.744
16.4484
19.3073
22.0321
24.3485
26.0268
26.9052
26.9038
26.0301
24.3728
22.0887
19.3827
16.4836
13.6197
10.9956
8.77427
7.0638
5.91165
5.30546
5.17999
5.42872
5.91866
6.50637
7.05353
7.44063
7.57755
7.41039
6.92417
6.14149
5.11745
3.93172
2.67853
1.45577
0.354356
-0.551028
-1.20886
-1.59482
-1.71257
-1.59146
-1.28167
-0.847511
-0.359974
0.110544
0.500384
0.757006
0.841286
0.727746
0.403104
-0.13623
-0.886949
-1.8412
-2.98786
-4.31251
-5.79593
-7.41178
-9.12368
-10.8829
-12.6272
-14.2814
-15.7605
-16.9747
-17.8364
-18.2682
-18.2115
-17.6342
-16.5358
-14.9513
-12.9507
-10.6357
-8.1327
-5.5839
-3.13582
-0.927728
0.919511
2.31287
3.19387
3.54206
3.37486
2.74414
1.72989
0.431914
-1.03953
-2.57313
-4.06497
-5.42541
-6.58372
-7.49054
-8.11801
-8.45809
-8.51947
-8.32354
-7.90014
-7.28335
-6.50771
-5.60526
-4.60337
-3.52389
-2.38357
-1.19585
0.0261338
1.2661
2.50157
3.70265
4.83372
5.85891
6.75106
7.50309
8.13942
8.72453
9.36578
10.2078
11.4176
13.1602
15.5678
18.7059
22.5423
26.9238
31.5677
36.0706
39.9371
42.6267
43.6148
42.4602
38.8697
32.7515
24.248
13.7442
1.84904
-10.6449
-22.8158
-33.6694
-42.187
-47.3554
-48.1774
-43.6686
-32.8565
-14.8034
11.3293
46.1588
89.9064
142.187
201.801
266.577
333.317
397.883
455.448
500.905
529.394
536.882
520.725
480.104
416.289
332.653
234.441
128.295
21.5988
-78.2747
-164.725
-232.592
-278.646
-301.846
-303.336
-286.187
-254.938
-214.984
-171.914
-130.869
-96.0106
-70.1484
-54.5663
-49.0527
-52.1114
-61.3134
-73.7285
-86.3758
-96.6316
-102.546
-103.036
-97.9395
-87.9409
-74.3857
-59.0235
-43.7197
-30.1788
-19.7153
-13.101
-10.5018
-11.5052
-15.2262
-20.4709
-25.9302
-30.3743
-32.8207
-32.6559
-29.6963
-24.1847
-16.7269
-8.18194
0.477482
8.31117
14.545
18.6734
20.5186
20.2407
18.301
15.3849
12.2987
9.85534
8.76478
9.54463
12.4607
17.5043
24.4063
32.6849
41.717
50.8232
59.3551
66.7713
72.6957
76.9503
79.5609
80.7375
80.8336
80.2911
79.5786
79.1311
79.2985
80.3067
82.2366
85.0203
88.4542
92.2253
95.9473
99.2015
101.577
102.71
102.31
100.186
96.2566
90.5566
83.2298
74.52
64.7527
54.3144
43.6272
33.122
23.2111
14.2615
6.57222
0.35468
-4.27883
-7.32007
-8.86109
-9.08251
-8.23463
-6.61325
-4.5325
-2.29746
-0.179305
1.60467
2.90415
3.64116
3.80753
3.45531
2.6818
1.61144
0.376856
-0.898491
-2.11412
-3.20159
-4.12815
-4.89529
-5.53309
-6.09137
-6.62945
-7.2057
-7.8682
-8.64756
-9.55249
-10.5683
-11.6586
-12.769
-13.8332
-14.7802
-15.5409
-16.0558
-16.2803
-16.1895
-15.7814
-15.0784
-14.1275
-12.9979
-11.7775
-10.5653
-9.46211
-8.55762
-7.91705
-7.568
-7.49072
-7.61406
-7.81908
-7.95086
-7.83781
-7.31605
-6.25547
-4.58335
-2.30179
0.504319
3.67036
6.96635
10.1209
12.8516
14.8984
16.0543
16.1904
15.272
13.3627
10.618
7.26776
3.59221
-0.107777
-3.54055
-6.45117
-8.64349
-9.99481
-10.4622
-10.0805
-8.95334
-7.2385
-5.13002
-2.83939
-0.577803
1.45877
3.10068
4.21168
4.69253
4.48235
3.5592
1.94116
-0.311731
-3.09491
-6.2577
-9.60453
-12.9011
-15.8871
-18.2952
-19.8764
-20.4282
-19.8224
-18.0283
-15.1277
-11.3171
-6.8981
-2.25339
2.18781
5.99209
8.76707
10.2044
10.1152
8.45439
5.32962
0.994754
-4.17248
-9.70604
-15.0966
-19.8408
-23.4906
-25.6951
-26.2328
-25.0301
-22.1627
-17.8436
-12.3953
-6.21393
0.273141
6.64835
12.5401
17.6492
21.7634
24.7602
26.5987
27.3048
26.9517
25.6427
23.4957
20.6353
17.1904
13.2979
9.11007
4.80302
0.581752
-3.31991
-6.6475
-9.14239
-10.5655
-10.7254
-9.50662
-6.89416
-2.98868
1.99001
7.71404
13.7735
19.7158
25.0945
29.5229
32.723
34.5649
35.087
34.493
33.1248
31.4133
29.8135
28.7343
28.4739
29.1706
30.7774
33.0644
35.6489
38.0485
39.7492
40.2777
39.2683
36.5149
32.0002
25.8998
18.5609
10.4605
2.14941
-5.80574
-12.872
-18.5791
-22.5184
-24.3091
-23.5348
-19.6653
-11.985
0.443076
18.7491
44.1443
77.7202
120.176
171.513
230.758
295.771
363.211
428.68
487.074
533.083
561.812
569.4
553.572
514.022
452.568
373.053
280.996
183.037
86.2532
-2.57034
-77.6249
-134.631
-171.201
-186.977
-183.535
-164.085
-133.009
-95.3077
-56.0199
-19.6875
10.0758
30.8726
41.6444
42.6314
35.1875
21.4886
4.17655
-14.0102
-30.5767
-43.5432
-51.6248
-54.3071
-51.8192
-45.0204
-35.2219
-23.9737
-12.8453
-3.22855
3.81606
7.65589
8.11926
5.46895
0.32582
-6.44187
-13.8459
-20.9047
-26.7539
-30.7303
-32.4228
-31.6898
-28.6459
-23.6244
-17.1226
-9.73825
-2.10514
5.16766
11.5479
16.6216
20.1223
21.9491
22.172
21.0256
18.8915
16.2682
13.7303
11.8782
11.2817
12.4219
15.638
21.0836
28.7005
38.2119
49.1398
60.8445
72.5839
83.5867
93.1311
100.62
105.646
108.029
107.835
105.362
101.097
95.6558
89.6999
83.8597
78.6574
74.4491
71.3897
69.426
68.3162
67.6735
67.0257
65.883
63.805
60.4563
55.6473
49.3529
41.7103
32.9973
23.5946
13.9384
4.47063
-4.40896
-12.3812
-19.2339
-24.8736
-29.3221
-32.6988
-35.1939
-37.0336
-38.4452
-39.6252
-40.7147
-41.7859
-42.8407
-43.8206
-44.6271
-45.1474
-45.2823
-44.97
-44.2026
-43.0299
-41.5521
-39.9009
-38.2128
-36.6015
-35.1326
-33.8081
-32.5627
-31.2735
-29.7813
-27.9209
-25.5538
-22.5991
-19.0561
-15.015
-10.6534
-6.21833
-1.99733
1.71846
4.6729
6.67968
7.64824
7.59725
6.65348
5.03666
3.03232
0.956506
-0.882835
-2.22265
-2.87512
-2.74779
-1.85134
-0.294433
1.73324
3.98705
6.19907
8.11102
9.5045
10.2248
10.196
9.42558
7.99966
6.06875
3.82768
1.49164
-0.728071
-2.64601
-4.11986
-5.06141
-5.44072
-5.28364
-4.66344
-3.68824
-2.48555
-1.18604
0.0917963
1.25429
2.24095
3.0275
3.62322
4.06283
4.39459
4.66625
4.91147
5.13883
5.32567
5.41762
5.3344
4.98109
4.2634
3.10461
1.4618
-0.661275
-3.20655
-6.06084
-9.06218
-12.0127
-14.6969
-16.9029
-18.4439
-19.1785
-19.0248
-17.9699
-16.0709
-13.4494
-10.2789
-6.76876
-3.14474
0.370148
3.57258
6.29221
8.40009
9.81236
10.4898
10.4344
9.68544
8.31415
6.4204
4.12903
1.58646
-1.04393
-3.58829
-5.87136
-7.72792
-9.01575
-9.62885
-9.50906
-8.65432
-7.12221
-5.02773
-2.53521
0.154934
2.82338
5.25097
7.23767
8.61964
9.28275
9.172
8.29645
6.72987
4.60727
2.11755
-0.507411
-3.00734
-5.11103
-6.55623
-7.11068
-6.59267
-4.88949
-1.9717
2.09849
7.16598
12.9895
19.2561
25.6026
31.6427
36.9959
41.3182
44.3285
45.8305
45.7264
44.0223
40.8241
36.3257
30.7913
24.5331
17.8885
11.1978
4.78316
-1.068
-6.11853
-10.194
-13.1935
-15.097
-15.9679
-15.9461
-15.2277
-14.0264
-12.5153
-10.7515
-8.59172
-5.61554
-1.07539
6.10295
17.2509
33.8088
57.1038
88.0763
126.995
173.213
225.01
279.584
333.194
381.478
419.892
444.245
451.226
438.871
406.887
356.784
291.786
216.533
136.613
57.965
-13.7385
-73.6863
-118.401
-146.047
-156.54
-151.45
-133.724
-107.266
-76.4419
-45.5589
-18.397
2.1622
14.3721
17.7034
12.7767
1.16596
-14.8937
-32.8477
-50.1689
-64.6665
-74.7234
-79.4394
-78.6715
-72.9778
-63.4789
-51.6639
-39.169
-27.5586
-18.1364
-11.8071
-8.99977
-9.65804
-13.2914
-19.0751
-25.9825
-32.929
-38.9099
-43.1151
-45.0078
-44.3627
-41.2617
-36.0525
-29.2792
-21.596
-13.6775
-6.13515
0.547954
6.05999
10.2767
13.2524
15.1897
16.3937
17.2186
18.0148
19.0827
20.6396
22.8038
25.5949
28.9515
32.7587
36.8834
41.2067
45.6506
50.1906
54.8547
59.7068
64.8188
70.2367
75.9467
81.8498
87.7487
93.3526
98.2997
102.195
104.661
105.388
104.185
101.014
96.0117
89.4798
81.8622
73.6954
65.5449
57.9362
51.287
45.8535
41.6965
38.6746
36.4652
34.611
32.5861
29.8714
26.0299
20.7709
13.9935
5.80644
-3.48132
-13.3941
-23.3442
-32.7001
-40.8582
-47.3117
-51.7062
-53.8783
-53.871
-51.9265
-48.4561
-43.992
-39.1263
-34.4438
-30.4581
-27.5557
-25.9576
-25.7004
-26.64
-28.4772
-30.8023
-33.152
-35.0721
-36.1781
-36.2048
-35.04
-32.7354
-29.4958
-25.6458
-21.5801
-17.7046
-14.3755
-11.8474
-10.2359
-9.50174
-9.45745
-9.79692
-10.1423
-10.1023
-9.3329
-7.59248
-4.78247
-0.968635
3.62053
8.61828
13.5639
17.961
21.3428
23.335
23.7091
22.4177
19.6084
15.6126
10.9119
6.085
1.74273
-1.54158
-3.29729
-3.20947
-1.15373
2.79111
8.35338
15.1
22.4845
29.9057
36.7691
42.5447
46.8141
49.3024
49.894
48.6298
45.6902
41.3664
36.0247
30.0687
23.9025
17.9
12.3797
7.58765
3.68776
0.758449
-1.20487
-2.28272
-2.62051
-2.41428
-1.89374
-1.30325
-0.881559
-0.841494
-1.35082
-2.51594
-4.37009
-6.86727
-9.88327
-13.2244
-16.644
-19.8664
-22.617
-24.6551
-25.807
-25.9949
-25.2553
-23.7456
-21.7337
-19.5711
-17.6515
-16.3596
-16.0152
-16.8231
-18.8342
-21.9255
-25.8032
-30.0284
-34.0645
-37.3392
-39.3144
-39.5541
-37.7815
-33.9183
-28.1005
-20.6694
-12.1373
-3.13478
5.65631
13.5738
20.0435
24.6351
27.1019
27.3987
25.6782
22.2674
17.6283
12.3078
6.88305
1.90934
-2.12602
-4.83871
-5.96978
-5.39472
-3.12059
0.726723
5.92208
12.1645
19.1015
26.3528
33.5311
40.2604
46.1902
51.0075
54.446
56.2939
56.4011
54.6861
51.1436
45.8515
38.9774
30.7807
21.6104
11.895
2.12197
-7.19142
-15.5364
-22.4564
-27.5901
-30.7087
-31.7381
-30.7584
-27.9763
-23.6658
-18.082
-11.3571
-3.39531
6.21096
18.2194
33.7076
53.9605
80.2736
113.689
154.699
202.959
257.08
314.54
371.755
424.338
467.509
496.634
507.8
498.363
467.376
415.826
346.643
264.471
175.213
85.4315
1.64949
-70.3284
-126.009
-162.638
-179.413
-177.472
-159.65
-130.075
-93.6237
-55.342
-19.8837
8.96242
28.6071
37.829
36.7709
26.7782
10.1131
-10.41
-31.8172
-51.3474
-66.7606
-76.5519
-80.0553
-77.4352
-69.5777
-57.9054
-44.1458
-30.0859
-17.3445
-7.18984
-0.418974
2.69032
2.35741
-0.78454
-5.81607
-11.6824
-17.3453
-21.9169
-24.7577
-25.5313
-24.2119
-21.0499
-16.5036
-11.1506
-5.59419
-0.376339
4.09056
7.56606
9.99552
11.4967
12.3238
12.8165
13.3424
14.242
15.7834
18.1324
21.3401
25.349
30.0134
35.1298
40.4721
45.8256
51.0133
55.9145
60.4708
64.6816
68.5908
72.2671
75.7826
79.192
82.516
85.7316
88.7686
91.5142
93.8234
95.5336
96.4821
96.5236
95.5464
93.4841
90.3232
86.1056
80.925
74.9199
68.2622
61.1446
53.7664
46.3209
38.9826
31.8986
25.181
18.903
13.0978
7.75955
2.84765
-1.70761
-5.99679
-10.1215
-14.1836
-18.2726
-22.4547
-26.7606
-31.1762
-35.6367
-40.0251
-44.1769
-47.8916
-50.9505
-53.1399
-54.2768
-54.2336
-52.9595
-50.4941
-46.9716
-42.6152
-37.7199
-32.6285
-27.7005
-23.2795
-19.6615
-17.0671
-15.621
-15.3394
-16.1271
-17.7846
-20.0246
-22.4977
-24.8239
-26.6305
-27.589
-27.4511
-26.0769
-23.4536
-19.7009
-15.0624
-9.88399
-4.57944
0.410972
4.66626
7.82894
9.64311
9.98202
8.86207
6.44156
3.00431
-1.07014
-5.34617
-9.37746
-12.7527
-15.1368
-16.3031
-16.1531
-14.7223
-12.1712
-8.76379
-4.83634
-0.759712
3.09953
6.41538
8.93215
10.485
11.0096
10.5407
9.20046
7.17881
4.70841
2.03756
-0.595838
-2.98635
-4.97708
-6.46836
-7.41895
-7.84033
-7.7856
-7.33505
-6.58065
-5.61137
-4.50136
-3.30184
-2.03758
-0.708084
0.706877
2.23793
3.9142
5.75032
7.73426
9.81782
11.9118
13.8869
15.5812
16.8139
17.4042
17.1931
16.0663
13.9742
10.9476
7.10465
2.64976
-2.13816
-6.92608
-11.3547
-15.0705
-17.7597
-19.1789
-19.181
-17.732
-14.9181
-10.9402
-6.09872
-0.7671
4.64076
9.70775
14.0509
17.3553
19.4008
20.0798
19.403
17.4941
14.5739
10.9357
6.91482
2.85603
-0.917654
-4.13221
-6.58289
-8.1461
-8.78221
-8.52981
-7.49258
-5.82083
-3.6901
-1.27929
1.24921
3.76535
6.18185
8.45849
10.6002
12.6497
14.6763
16.7621
18.9875
21.4183
24.0947
27.0236
30.1748
33.4792
36.831
40.0902
43.0873
45.6284
47.5018
48.4865
48.3643
46.9351
44.0363
39.5658
33.5045
25.938
17.0714
7.23525
-3.12148
-13.4506
-23.1357
-31.5284
-37.9823
-41.8755
-42.6122
-39.6018
-32.2213
-19.7747
-1.47301
23.5401
56.0961
96.8378
145.993
203.123
266.886
334.888
403.657
468.785
525.247
567.881
591.96
593.802
571.309
524.371
455.051
367.513
267.694
162.751
60.3381
-32.179
-108.488
-163.97
-196.138
-204.824
-192.096
-161.927
-119.666
-71.3727
-23.1235
19.6508
52.7006
73.3203
80.5056
74.9015
58.5643
34.5811
6.60408
-21.6377
-46.7875
-66.2227
-78.2908
-82.4064
-79.0076
-69.3929
-55.4683
-39.4472
-23.5413
-9.68558
0.674962
6.71431
8.26341
5.76116
0.133574
-7.37651
-15.4024
-22.6428
-28.0228
-30.8102
-30.6759
-27.6963
-22.3037
-15.196
-7.22088
0.747732
7.92451
13.7052
17.7269
19.8916
20.354
19.4779
17.7709
15.8064
14.1465
13.2727
13.535
15.123
18.0607
22.2234
27.3723
33.1987
39.3724
45.5854
51.5854
57.1964
62.3235
66.9459
71.0979
74.8449
78.2586
81.3949
84.2778
86.8925
89.1861
91.075
92.4574
93.2265
93.2823
92.5405
90.9365
88.4266
84.9866
80.6103
75.3099
69.118
62.0924
54.3218
45.9312
37.0842
27.9816
18.8539
9.94956
1.51791
-6.2101
-13.0412
-18.8366
-23.5242
-27.1038
-29.6453
-31.2793
-32.1818
-32.5547
-32.6041
-32.5195
-32.456
-32.5208
-32.7657
-33.1855
-33.7231
-34.2786
-34.7233
-34.9154
-34.7176
-34.0138
-32.7256
-30.8263
-28.3515
-25.4047
-22.1574
-18.8403
-15.7264
-13.105
-11.2488
-10.3761
-10.6135
-11.9652
-14.2924
-17.3107
-20.6057
-23.6686
-25.9487
-26.9168
-26.1321
-23.3045
-18.3419
-11.3774
-2.77025
6.92032
16.9857
26.638
35.0904
41.6398
45.7391
47.0538
45.4941
41.2226
34.6355
26.3228
17.0122
7.50242
-1.40581
-8.97775
-14.6048
-17.8545
-18.506
-16.5711
-12.2958
-6.1448
1.23479
9.06709
16.517
22.7707
27.1189
29.036
28.2429
24.7463
18.8476
11.1163
2.33223
-6.59981
-14.7525
-21.2829
-25.5317
-27.1016
-25.9072
-22.1873
-16.4805
-9.56501
-2.37014
4.1299
9.02791
11.5878
11.3293
8.08345
2.01423
-6.39717
-16.4018
-27.0612
-37.3459
-46.2428
-52.8606
-56.5225
-56.8347
-53.7263
-47.4544
-38.577
-27.8953
-16.3727
-5.04024
5.10399
13.1898
18.557
20.8156
19.8805
15.9759
9.60967
1.52008
-7.4
-16.1941
-23.9387
-29.8362
-33.2927
-33.9754
-31.8405
-27.1307
-20.3426
-12.1675
-3.41235
5.08837
12.562
18.3765
22.1009
23.5416
22.7498
22.7498
22.7498
22.7498
22.7498
22.7498
22.7498
22.7498
22.7498
22.7498
22.7498
22.7498
22.7498
22.7498
22.7498
22.7498
22.7498
22.7498
22.7498
22.7498
22.7498
