47.7573
21.9226
-5.49103
-33.4191
-60.6932
-86.1447
-108.711
-127.531
-142.018
-151.904
-157.249
-158.419
-156.039
-150.918
-143.972
-136.14
-128.305
-121.229
-115.496
-111.459
-109.194
-108.446
-108.57
-108.48
-106.607
-100.903
-88.9152
-67.9401
-35.2846
11.3847
73.6307
151.823
244.772
349.49
461.146
573.256
678.13
767.544
833.565
869.453
870.499
834.691
763.111
659.981
532.353
389.451
241.764
99.9806
-26.0948
-128.512
-201.917
-243.979
-255.472
-240.001
-203.429
-153.093
-96.9055
-42.4515
3.79758
37.0858
54.7249
56.1777
42.886
17.8848
-14.7314
-50.4128
-84.7505
-113.992
-135.425
-147.59
-150.321
-144.62
-132.404
-116.163
-98.5852
-82.1954
-69.0512
-60.529
-57.2151
-58.9057
-64.7037
-73.1912
-82.6478
-91.2853
-97.4667
-99.8866
-97.6953
-90.5564
-78.6399
-62.557
-43.25
-21.8553
0.44229
22.5466
43.5632
62.878
80.197
95.5449
109.229
121.777
133.85
146.161
159.388
174.098
190.702
209.418
230.266
253.077
277.526
303.164
329.465
355.869
381.817
406.779
430.279
451.901
471.292
488.152
502.224
513.276
521.091
525.448
526.124
522.894
515.543
503.889
487.808
467.264
442.34
413.26
380.41
344.339
305.753
265.5
224.531
183.862
144.517
107.472
73.5944
43.5871
17.946
-3.07089
-19.4553
-31.4391
-39.4664
-44.1478
-46.2024
-46.394
-45.4662
-44.085
-42.7917
-41.973
-41.8463
-42.4642
-43.7338
-45.448
-47.3251
-49.052
-50.3248
-50.8852
-50.5475
-49.2154
-46.8878
-43.6533
-39.6763
-35.1764
-30.403
-25.6103
-21.033
-16.8665
-13.2534
-10.2757
-7.95477
-6.25695
-5.10419
-4.38792
-3.98442
-3.76968
-3.63233
-3.48336
-3.26196
-2.93741
-2.50711
-1.99177
-1.42838
-0.862389
-0.339854
0.099263
0.426155
0.626101
0.6992
0.659099
0.530114
0.343302
0.132105
-0.0718489
-0.242269
-0.360692
-0.417746
-0.413154
-0.35464
-0.255968
-0.134471
-0.00842693
0.105374
0.1936
0.247677
0.264346
0.245485
0.197301
0.129063
0.0515909
-0.0242846
-0.0890992
-0.135805
-0.160403
-0.162121
-0.143165
-0.10812
-0.0631189
-0.0148984
0.0301131
0.0665756
0.0907984
0.101043
0.0975783
0.0825446
0.0597227
0.0343138
0.0128149
0.00302758
0.0141697
0.0570015
0.143839
0.288318
0.504799
0.807353
1.20836
1.7168
2.33649
3.06438
3.88935
4.79158
5.74271
6.70696
7.643
8.50652
9.25331
9.84243
10.2393
10.4181
10.3638
10.0733
9.55504
8.82824
7.92136
6.86959
5.71221
4.48979
3.2415
2.00283
0.80377
-0.332308
-1.38918
-2.35762
-3.2348
-4.02318
-4.72919
-5.36178
-5.93092
-6.44619
-6.91554
-7.3442
-7.73388
-8.08217
-8.38225
-8.62286
-8.78872
-8.86148
-8.82121
-8.64859
-8.32749
-7.84784
-7.20838
-6.41879
-5.50078
-4.48789
-3.42381
-2.35917
-1.34736
-0.439564
0.320126
0.89911
1.27946
1.45957
1.45399
1.29155
1.01197
0.661398
0.28743
-0.0657118
-0.361404
-0.573707
-0.689052
-0.706427
-0.636145
-0.497445
-0.315309
-0.11692
0.0717978
0.229211
0.340347
0.398535
0.406359
0.376018
0.329122
0.295876
0.313437
0.423267
0.667347
1.08339
1.69952
2.52908
3.56659
4.78562
6.1392
7.56317
8.98208
10.317
11.4944
12.4542
13.157
13.5883
13.7594
13.7056
13.4814
13.153
12.7901
12.4583
12.2117
12.088
12.1061
12.2663
12.5528
12.9378
13.3867
13.8634
14.3351
14.7754
15.1669
15.5004
15.7743
15.9916
16.1562
16.2693
16.3262
16.3132
16.2061
15.9709
15.5646
14.9373
14.0349
12.8005
11.1751
9.09906
6.51683
3.39113
-0.26741
-4.34891
-8.56905
-12.3748
-14.8452
-14.6104
-9.81918
1.81228
22.8487
55.8689
103.098
165.973
244.701
337.88
442.266
552.741
662.537
763.721
847.909
907.125
934.729
926.254
880.065
797.712
683.93
546.274
394.407
239.143
91.3579
-39.1103
-144.417
-219.426
-262.102
-273.54
-257.648
-220.54
-169.722
-113.178
-58.4761
-11.9951
21.6523
39.9383
42.4715
30.7967
7.98941
-21.8868
-54.3826
-85.2461
-110.919
-128.895
-137.909
-137.956
-130.15
-116.459
-99.363
-81.4798
-65.2147
-52.4685
-44.4388
-41.5291
-43.3673
-48.9211
-56.6868
-64.9212
-71.8835
-76.0555
-76.3138
-72.0375
-63.1426
-50.0471
-33.575
-14.8206
5.01001
24.7551
43.4342
60.3499
75.1449
87.8124
98.6633
108.257
117.312
126.598
136.843
148.646
162.417
178.342
196.38
216.286
237.648
259.943
282.596
305.031
326.715
347.192
366.094
383.142
398.136
410.932
421.412
429.46
434.935
437.652
437.373
433.812
426.646
415.544
400.206
380.413
356.079
327.306
294.431
258.059
219.07
178.599
137.982
98.6767
62.1529
29.774
2.67794
-18.3281
-32.8437
-40.9138
-43.0225
-40.0432
-33.1497
-23.6987
-13.0986
-2.67753
6.43273
13.3858
17.674
19.1419
17.9623
14.5785
9.62392
3.82857
-2.07512
-7.43658
-11.7526
-14.7088
-16.1939
-16.2895
-15.2367
-13.3893
-11.1569
-8.94967
-7.12796
-5.9645
-5.62148
-6.14388
-7.46799
-9.44232
-11.857
-14.4769
-17.0738
-19.454
-21.4778
-23.0693
-24.2175
-24.9675
-25.4061
-25.6423
-25.7884
-25.9411
-26.1681
-26.4993
-26.9243
-27.3959
-27.8387
-28.1605
-28.2652
-28.0664
-27.4973
-26.5191
-25.1246
-23.3382
-21.2127
-18.8239
-16.2625
-13.6271
-11.0157
-8.51965
-6.21801
-4.17371
-2.43131
-1.01612
0.0654156
0.824242
1.28637
1.48992
1.48166
1.31335
1.03806
0.706631
0.364589
0.0496524
-0.209999
-0.396586
-0.502698
-0.530417
-0.489718
-0.396348
-0.269404
-0.128873
0.00662264
0.121675
0.205378
0.251996
0.261029
0.236812
0.187853
0.126126
0.0665334
0.0266012
0.0263523
0.0881605
0.236314
0.496033
0.891773
1.44483
2.17044
3.07471
4.15197
5.38289
6.73387
8.158
9.59743
10.9872
12.26
13.3513
14.2041
14.7738
15.0305
14.9609
14.568
13.8693
12.8934
11.6765
10.2575
8.67467
6.96222
5.14843
3.25535
1.29988
-0.703983
-2.74201
-4.7964
-6.84275
-8.84795
-10.7694
-12.5557
-14.1489
-15.4884
-16.5149
-17.1762
-17.4313
-17.2557
-16.6447
-15.6157
-14.209
-12.4873
-10.532
-8.43922
-6.31335
-4.25959
-2.3763
-0.747503
0.563549
1.51897
2.10861
2.34977
2.28439
1.97402
1.49302
0.920901
0.3346
-0.198528
-0.626217
-0.914833
-1.05067
-1.03904
-0.901388
-0.670991
-0.387739
-0.092771
0.176465
0.390188
0.528916
0.584605
0.560295
0.468471
0.328467
0.163329
-0.00343066
-0.150775
-0.262463
-0.328516
-0.345766
-0.31749
-0.252288
-0.162421
-0.0618386
0.0358347
0.119184
0.180593
0.217454
0.23296
0.236448
0.243256
0.274049
0.353528
0.508515
0.765484
1.14779
1.67296
2.35054
3.18089
4.1553
5.2575
6.46645
7.75999
9.11871
10.5293
11.9867
13.494
15.0603
16.6958
18.4056
20.1822
21.9978
23.7991
25.5036
26.9999
28.1521
28.808
28.814
28.0371
26.3982
23.9221
20.8082
17.5241
14.9152
14.3155
17.6286
27.3384
46.4046
78.0079
125.132
190.006
273.482
374.45
489.41
612.35
734.979
847.374
938.967
999.773
1021.67
999.572
932.234
822.673
678.005
508.791
327.93
149.269
-13.9052
-150.277
-251.653
-313.706
-336.235
-322.941
-280.753
-218.83
-147.365
-76.3655
-14.5413
31.5552
58.0655
63.9924
51.0117
22.9821
-14.7607
-56.2194
-95.5499
-127.776
-149.324
-158.335
-154.724
-140.025
-117.038
-89.3571
-60.8476
-35.1316
-15.1568
-2.88687
0.858446
-3.59187
-14.8959
-30.9448
-49.1785
-66.9262
-81.7278
-91.6007
-95.2247
-92.0318
-82.1996
-66.5591
-46.4355
-23.4484
0.703176
24.4424
46.483
65.947
82.4247
95.9745
107.07
116.506
125.274
134.433
144.982
157.75
173.32
191.985
213.736
238.286
265.121
293.563
322.839
352.16
380.772
408.011
433.329
456.306
476.644
494.151
508.709
520.245
528.693
533.969
535.946
534.449
529.26
520.134
506.831
489.156
466.999
440.38
409.482
374.675
336.532
295.824
253.497
210.64
168.428
128.063
90.6983
57.3633
28.8928
5.86617
-11.4362
-23.0533
-29.338
-30.9252
-28.6755
-23.6005
-16.7763
-9.2537
-1.97538
4.2927
9.00916
11.8799
12.8555
12.1038
9.96445
6.88925
3.37782
-0.0850816
-3.08335
-5.30953
-6.58767
-6.8784
-6.26732
-4.93995
-3.14757
-1.16902
0.7265
2.31136
3.42273
3.9753
3.96314
3.45145
2.56059
1.44489
0.269717
-0.810417
-1.66995
-2.22481
-2.43838
-2.32093
-1.9232
-1.32568
-0.625239
0.0787581
0.697234
1.16146
1.42953
1.48869
1.35388
1.06283
0.668898
0.232687
-0.186356
-0.537295
-0.783202
-0.904307
-0.898653
-0.780448
-0.57655
-0.32174
-0.0535079
0.192959
0.388955
0.515178
0.563158
0.535171
0.442809
0.304534
0.142622
-0.0200448
-0.162918
-0.270124
-0.331963
-0.345471
-0.314081
-0.246509
-0.155099
-0.0538814
0.0433695
0.12484
0.181957
0.210121
0.208862
0.181463
0.134145
0.0749768
0.012658
-0.0446372
-0.0902347
-0.119641
-0.130875
-0.124454
-0.10306
-0.0709729
-0.0333677
0.00442679
0.0375811
0.0622319
0.0756637
0.0761323
0.0623085
0.0323825
-0.0170449
-0.0920819
-0.20243
-0.361779
-0.587531
-0.89976
-1.31947
-1.86634
-2.55637
-3.39963
-4.39876
-5.5483
-6.83512
-8.23982
-9.73882
-11.3068
-12.919
-14.5527
-16.1879
-17.8071
-19.3938
-20.9307
-22.3979
-23.7716
-25.0239
-26.1238
-27.0398
-27.743
-28.2115
-28.434
-28.4132
-28.1677
-27.7326
-27.1583
-26.5081
-25.8538
-25.2708
-24.8318
-24.6011
-24.6274
-24.9388
-25.5372
-26.395
-27.4529
-28.6201
-29.7773
-30.7833
-31.4842
-31.7268
-31.3736
-30.3188
-28.5026
-25.9229
-22.6407
-18.7792
-14.5166
-10.0721
-5.68726
-1.60485
1.95315
4.80538
6.82733
7.96225
8.22569
7.70361
6.54392
4.94245
3.1245
1.32328
-0.242631
-1.39102
-1.99472
-1.9951
-1.40852
-0.324477
1.10481
2.68272
4.19244
5.42409
6.20133
6.40369
5.98172
4.96268
3.44623
1.59065
-0.408186
-2.34208
-4.01637
-5.27282
-6.00651
-6.17465
-5.79671
-4.94618
-3.73592
-2.29941
-0.771172
0.731053
2.11951
3.34366
4.39063
5.2795
6.05075
6.75307
7.42994
8.10828
8.79104
9.45494
10.0536
10.5255
10.8055
10.8377
10.5885
10.0561
9.27667
8.32493
7.3091
6.36022
5.61638
5.2031
5.21089
5.67207
6.53969
7.67353
8.84028
9.73802
10.0558
9.57789
8.33415
6.78747
6.02913
7.93637
15.2316
31.3813
60.2882
105.767
170.843
256.972
363.316
486.236
619.155
752.856
876.261
977.597
1045.81
1072
1050.71
980.82
865.886
713.934
536.656
348.154
163.376
-3.51911
-140.683
-239.776
-296.711
-311.86
-289.74
-238.225
-167.423
-88.3746
-11.7394
53.3679
100.258
125.186
127.474
109.256
74.9144
30.3022
-18.1328
-64.2036
-102.718
-130.011
-144.235
-145.389
-135.12
-116.337
-92.709
-68.121
-46.1548
-29.6637
-20.4785
-19.2698
-25.5671
-37.9172
-54.1484
-71.6967
-87.9496
-100.563
-107.718
-108.287
-101.904
-88.9391
-70.3865
-47.6875
-22.5219
3.41036
28.5866
51.8179
72.3495
89.8985
104.632
117.092
128.088
138.567
149.481
161.668
175.768
192.158
210.941
231.951
254.803
278.953
303.772
328.612
352.873
376.05
397.753
417.714
435.776
451.86
465.927
477.937
487.808
495.387
500.436
502.625
501.556
496.79
487.89
474.477
456.275
433.17
405.24
372.79
336.364
296.738
254.898
212.002
169.313
128.128
89.6896
55.0934
25.2029
0.578298
-18.5706
-32.3992
-41.4083
-46.3887
-48.3368
-48.3491
-47.5076
-46.77
-46.877
-48.2876
-51.1489
-55.3035
-60.3333
-65.6312
-70.4928
-74.2155
-76.1932
-75.994
-73.4138
-68.4996
-61.5409
-53.0322
-43.6127
-33.9914
-24.8676
-16.8565
-10.4285
-5.86843
-3.25788
-2.48179
-3.25593
-5.17111
-7.74758
-10.4925
-12.954
-14.7652
-15.6749
-15.5628
-14.4374
-12.4205
-9.72086
-6.5998
-3.3358
-0.190669
2.61808
4.93617
6.68134
7.84208
8.46731
8.64952
8.50397
8.14713
7.67726
7.15968
6.61832
6.03455
5.35327
4.49511
3.37313
1.91161
0.0641875
-2.17127
-4.74329
-7.54462
-10.4178
-13.1686
-15.5851
-17.4613
-18.6209
-18.9401
-18.364
-16.916
-14.6983
-11.8827
-8.69402
-5.38639
-2.21717
0.579574
2.81626
4.36906
5.18736
5.29471
4.78135
3.78988
2.49592
1.0865
-0.261216
-1.39829
-2.21769
-2.66187
-2.72401
-2.44321
-1.8949
-1.17782
-0.399727
0.336596
0.94517
1.36542
1.56674
1.54896
1.33902
0.984639
0.546192
0.0878282
-0.330892
-0.661894
-0.873322
-0.951749
-0.901849
-0.743857
-0.509356
-0.236101
0.0373731
0.276664
0.455366
0.557525
0.578517
0.524413
0.410069
0.256323
0.086735
-0.0756618
-0.211202
-0.305696
-0.351635
-0.348414
-0.301678
-0.221943
-0.122744
-0.0185895
0.0770465
0.153476
0.204179
0.227744
0.228341
0.215699
0.20456
0.213547
0.26341
0.374624
0.564435
0.843552
1.21282
1.6604
2.16001
2.6708
3.13945
3.50445
3.70272
3.67769
3.38791
2.81503
1.96951
0.893142
-0.342646
-1.6426
-2.8972
-3.99468
-4.83391
-5.33612
-5.45379
-5.17517
-4.5237
-3.55246
-2.33449
-0.950668
0.522897
2.02581
3.5209
4.99719
6.46793
7.96429
9.52597
11.1905
12.9831
14.909
16.9493
19.0613
21.1821
23.2367
25.1468
26.8411
28.2642
29.3832
30.1919
30.7115
30.9876
31.0857
31.0837
31.0643
31.1064
31.2781
31.6302
32.1921
32.9685
33.9388
35.0584
36.2604
37.4604
38.5609
39.4583
40.0493
40.2381
39.9439
39.1076
37.6973
35.7121
33.1846
30.1801
26.793
23.1417
19.3594
15.5844
11.9492
8.56938
5.53411
2.89932
0.683694
-1.13132
-2.59771
-3.79371
-4.81405
-5.75885
-6.72235
-7.78289
-8.99515
-10.3853
-11.9499
-13.6574
-15.4538
-17.2699
-19.0304
-20.6632
-22.1096
-23.3315
-24.3185
-25.0909
-25.7009
-26.2295
-26.7814
-27.4756
-28.4352
-29.7746
-31.5872
-33.9335
-36.8321
-40.2529
-44.1157
-48.2921
-52.6127
-56.8775
-60.8701
-64.3734
-67.1857
-69.1354
-70.0937
-69.9825
-68.7784
-66.512
-63.2616
-59.145
-54.3076
-48.9106
-43.1195
-37.0948
-30.9854
-24.9264
-19.0387
-13.432
-8.20935
-3.47053
0.68527
4.16034
6.86311
8.71685
9.67164
9.71799
8.89969
7.3232
5.16092
2.64609
0.0587227
-2.29727
-4.12355
-5.1599
-5.21557
-4.19469
-2.1115
0.907217
4.63368
8.76347
12.9497
16.8422
20.127
22.5595
23.989
24.3693
23.757
22.2962
20.1945
17.6923
15.0322
12.4297
10.0519
8.00377
6.32416
4.99109
3.93385
3.05023
2.22583
1.35288
0.346275
-0.844875
-2.23108
-3.78186
-5.43013
-7.08061
-8.62072
-9.93283
-10.9064
-11.4496
-11.5
-11.0347
-10.0801
-8.72111
-7.10659
-5.44703
-3.99537
-3.00095
-2.6264
-2.8221
-3.16343
-2.67146
0.343833
8.36326
24.6007
52.7571
96.5658
159.153
242.289
345.667
466.336
598.47
733.547
860.988
969.218
1047
1084.88
1076.5
1019.59
916.475
774.008
602.927
416.715
230.115
57.5138
-88.6151
-198.995
-268.409
-296.055
-285.359
-243.319
-179.466
-104.609
-29.5198
36.2671
85.4168
113.41
118.771
102.92
69.6889
24.6049
-25.9607
-75.6543
-118.91
-151.541
-171.102
-176.992
-170.327
-153.612
-130.272
-104.125
-78.859
-57.5807
-42.4855
-34.6718
-34.1125
-39.769
-49.8194
-61.9607
-73.7423
-82.8841
-87.5442
-86.5065
-79.2743
-66.0668
-47.7285
-25.5716
-1.17648
23.8198
47.9216
69.934
89.0705
104.999
117.827
128.039
136.39
143.784
151.145
159.301
168.897
180.335
193.758
209.058
225.922
243.891
262.425
280.977
299.048
316.228
332.219
346.835
359.991
371.664
381.864
390.588
397.779
403.306
406.935
408.333
407.081
402.693
394.668
382.533
365.91
344.575
318.523
288.015
253.614
216.189
176.892
137.096
98.3134
62.0745
29.8072
2.70954
-18.3583
-32.954
-41.0922
-43.2392
-40.2608
-33.3321
-23.8171
-13.1339
-2.62038
6.58426
13.63
18.0097
19.5723
18.4969
15.2345
10.4245
4.80104
-0.902602
-6.03759
-10.1041
-12.7905
-13.9858
-13.7661
-12.3605
-10.1023
-7.37428
-4.55484
-1.97166
0.131429
1.61265
2.43485
2.65427
2.39885
1.84019
1.16387
0.54199
0.111362
-0.0405659
0.118724
0.5694
1.24855
2.06401
2.91028
3.68405
4.29738
4.68691
4.81853
4.68737
4.31384
3.73686
3.00542
2.17019
1.27592
0.356025
-0.570561
-1.49979
-2.44055
-3.41075
-4.43229
-5.5256
-6.7048
-7.97407
-9.32586
-10.7412
-12.1917
-13.6432
-15.0603
-16.4101
-17.6666
-18.8121
-19.8389
-20.7477
-21.5457
-22.244
-22.8537
-23.3835
-23.8366
-24.2098
-24.4929
-24.6697
-24.7199
-24.6211
-24.3523
-23.8959
-23.2396
-22.3782
-21.3132
-20.0538
-18.6159
-17.022
-15.3009
-13.4869
-11.6201
-9.7446
-7.90791
-6.15853
-4.54345
-3.10506
-1.87794
-0.885945
-0.139914
0.36349
0.64167
0.72461
0.65213
0.470186
0.226624
-0.0331162
-0.269857
-0.453686
-0.565798
-0.599034
-0.55714
-0.452917
-0.305559
-0.137563
0.028414
0.172361
0.279092
0.339601
0.351518
0.318698
0.25009
0.158089
0.0566465
-0.0406259
-0.122101
-0.179367
-0.207929
-0.207349
-0.180866
-0.134602
-0.076487
-0.0150789
0.0415738
0.0868828
0.116388
0.128089
0.122431
0.101989
0.0709164
0.0342563
-0.00278618
-0.0355144
-0.0602758
-0.0748087
-0.0783782
-0.0717056
-0.0567227
-0.0362
-0.0133092
0.00881815
0.0274802
0.0406982
0.0473891
0.0474057
0.0414559
0.0309228
0.0176189
0.0035124
-0.00953679
-0.0199995
-0.0268343
-0.0295669
-0.0282895
-0.0235887
-0.0164197
-0.00794645
0.000626607
0.00821091
0.0139617
0.0173747
0.0183693
0.0174085
0.015729
0.015767
0.0218385
0.0410768
0.0845554
0.168442
0.314964
0.552913
0.917406
1.44863
2.18935
3.18119
4.45967
6.04857
7.95409
10.1597
12.6224
15.2718
18.0114
20.7237
23.2779
25.5403
27.3859
28.7107
29.4418
29.5464
29.0358
27.9656
26.4308
24.5565
22.4853
20.3615
18.3162
16.4523
14.8336
13.4783
12.3574
11.3998
10.5015
9.53958
8.38836
6.93602
5.0997
2.83717
0.153759
-2.8965
-6.21552
-9.67108
-13.1107
-16.378
-19.3291
-21.8475
-23.8565
-25.3256
-26.273
-26.7617
-26.8902
-26.7792
-26.5542
-26.3273
-26.1799
-26.1488
-26.2186
-26.3212
-26.3438
-26.1447
-25.5743
-24.4984
-22.8204
-20.4986
-17.5557
-14.0792
-10.2127
-6.139
-2.05922
1.8309
5.36278
8.41254
10.9124
12.8547
14.289
15.3127
16.0566
16.6683
17.2931
18.057
19.0508
20.3183
21.8496
23.5794
25.3918
27.1311
28.6177
29.6683
30.1176
29.8398
28.7657
26.8954
24.3021
21.1281
17.572
13.8694
10.2679
7.00171
4.26633
2.19838
0.862053
0.243903
0.256555
0.750623
1.53326
2.39093
3.11371
3.51804
3.46554
2.87582
1.73214
0.0796788
-1.98284
-4.31677
-6.76054
-9.14815
-11.3273
-13.1763
-14.6187
-15.6364
-16.2786
-16.6671
-16.9896
-17.4767
-18.35
-19.7329
-21.5196
-23.2074
-23.7159
-21.2322
-13.1392
3.91285
33.7406
80.148
146.261
233.76
342.132
468.119
605.479
745.202
876.188
986.355
1064.03
1099.42
1086.03
1021.6
908.706
754.626
570.7
371.135
171.464
-13.1409
-169.49
-287.72
-362.208
-391.946
-380.377
-334.709
-264.86
-182.144
-97.9136
-22.2938
36.8278
74.4619
88.7788
80.9731
54.7843
15.7642
-29.5983
-74.7735
-113.998
-142.906
-158.918
-161.376
-151.418
-131.655
-105.688
-77.5527
-51.1723
-29.8701
-16.0091
-10.783
-14.1717
-25.0497
-41.4184
-60.7229
-80.206
-97.253
-109.686
-115.98
-115.376
-107.894
-94.2548
-75.7193
-53.886
-30.4674
-7.07632
14.9516
34.6838
51.6544
65.8646
77.7283
87.9731
97.5161
107.33
118.319
131.212
146.494
164.37
184.764
207.351
231.619
256.935
282.619
308.019
332.561
355.79
377.386
397.158
415.025
430.979
445.046
457.237
467.512
475.751
481.733
485.142
485.577
482.585
475.704
464.515
448.691
428.052
402.604
372.573
338.42
300.841
260.753
219.253
177.569
136.988
98.7762
64.093
33.9041
8.90622
-10.5306
-24.3946
-33.0329
-37.118
-37.5841
-35.5376
-32.1508
-28.5517
-25.7201
-24.4029
-25.0561
-27.8211
-32.5355
-38.7761
-45.929
-53.2762
-60.0888
-65.7154
-69.6554
-71.6095
-71.5035
-69.4821
-65.8785
-61.1621
-55.8745
-50.5605
-45.7051
-41.6821
-38.7197
-36.8878
-36.1043
-36.1598
-36.7554
-37.5475
-38.1945
-38.3984
-37.9378
-36.6883
-34.6298
-31.8403
-28.4791
-24.7611
-20.9279
-17.2173
-13.8369
-10.9427
-8.6269
-6.91341
-5.76247
-5.08232
-4.74607
-4.61112
-4.53861
-4.4103
-4.14103
-3.68563
-3.03974
-2.23522
-1.33126
-0.402793
0.471716
1.22155
1.79247
2.15217
2.29199
2.22535
1.98356
1.60998
1.15371
0.663668
0.183743
-0.25046
-0.613293
-0.889204
-1.07165
-1.16113
-1.1628
-1.08395
-0.931825
-0.712004
-0.427623
-0.0795703
0.332316
0.807195
1.34059
1.92166
2.53083
3.13844
3.70488
4.18242
4.51892
4.66318
4.57121
4.21283
3.57747
2.67831
1.55395
0.267094
-1.09978
-2.45153
-3.6893
-4.72045
-5.46806
-5.87904
-5.92957
-5.62753
-5.01136
-4.14577
-3.11468
-2.01227
-0.933205
0.0369825
0.830284
1.40256
1.73722
1.84585
1.76585
1.55529
1.28565
1.03319
0.870075
0.856076
1.03202
1.4156
2.00002
2.75571
3.63462
4.57663
5.51709
6.39451
7.15727
7.76867
8.20957
8.47852
8.5895
8.5678
8.4448
8.25242
8.01814
7.76114
7.49019
7.20319
6.88854
6.52782
6.09951
5.58298
4.96234
4.22963
3.38694
2.44713
1.43337
0.377203
-0.68426
-1.71197
-2.66885
-3.52356
-4.25386
-4.8491
-5.31165
-5.65718
-5.91372
-6.11946
-6.31943
-6.5612
-6.8896
-7.34094
-7.93704
-8.67981
-9.54726
-10.4919
-11.442
-12.3069
-12.9855
-13.3772
-13.3951
-12.9775
-12.0986
-10.7742
-9.06244
-7.05903
-4.88688
-2.68173
-0.57558
1.3198
2.92699
4.21261
5.19138
5.92374
6.50755
7.06467
7.72429
8.60477
9.79643
11.3472
13.2529
15.4535
17.8361
20.2435
22.4896
24.3777
25.7215
26.3657
26.204
25.1919
23.354
20.7832
17.6328
14.102
10.4168
6.80749
3.48687
0.630656
-1.63752
-3.25462
-4.21979
-4.58914
-4.46459
-3.97871
-3.27746
-2.5031
-1.77934
-1.20025
-0.823932
-0.671081
-0.728225
-0.954456
-1.29045
-1.66828
-2.02071
-2.28888
-2.42783
-2.40978
-2.22571
-1.8863
-1.42346
-0.893423
-0.381498
-0.00663074
0.0784831
-0.301048
-1.30946
-3.03594
-5.39142
-7.96721
-9.86952
-9.56061
-4.75401
7.57917
31.0384
69.4225
126.163
203.615
302.312
420.32
552.845
692.227
828.377
949.67
1044.19
1101.18
1112.46
1073.65
984.915
851.231
681.974
489.999
290.259
98.1737
-72.0466
-208.896
-304.711
-356.313
-365.103
-336.616
-279.623
-204.918
-123.952
-47.4969
15.5023
58.7676
79.1368
76.6036
53.9784
16.2448
-30.2819
-78.8724
-123.259
-158.361
-180.797
-189.124
-183.815
-167.004
-142.042
-112.954
-83.8557
-58.4321
-39.5092
-28.7839
-26.7183
-32.5995
-44.7384
-60.7705
-78.0095
-93.8062
-105.867
-112.495
-112.739
-106.427
-94.1099
-76.9147
-56.3452
-34.0568
-11.6365
9.58414
28.664
45.1226
58.9447
70.5263
80.5744
89.98
99.6823
110.543
123.247
138.233
155.668
175.457
197.283
220.669
245.054
269.864
294.572
318.746
342.071
364.345
385.465
405.389
424.094
441.532
457.59
472.065
484.644
494.911
502.359
506.426
506.537
502.153
492.823
478.238
458.269
433.005
402.763
368.097
329.778
288.773
246.201
203.279
161.265
121.387
84.7743
52.388
24.9574
2.93171
-13.5521
-24.6771
-30.9295
-33.0545
-31.9901
-28.7833
-24.4973
-20.1195
-16.4792
-14.1856
-13.5895
-14.7754
-17.5806
-21.64
-26.4487
-31.4357
-36.0378
-39.766
-42.2585
-43.3121
-42.8935
-41.1285
-38.2735
-34.6739
-30.7154
-26.7759
-23.1819
-20.1757
-17.8966
-16.3753
-15.5431
-15.252
-15.3021
-15.4735
-15.5568
-15.3796
-14.8258
-13.8453
-12.455
-10.7301
-8.78918
-6.77478
-4.83206
-3.0893
-1.64227
-0.544222
0.197486
0.618195
0.787219
0.795167
0.739379
0.709621
0.775961
0.980278
1.33225
1.80993
2.36448
2.928
3.42327
3.77399
3.91427
3.79642
3.39636
2.71633
1.78498
0.65499
-0.601381
-1.89843
-3.14428
-4.24886
-5.13174
-5.72947
-6.00133
-5.93328
-5.53928
-4.86
-3.95891
-2.91605
-1.82021
-0.760177
0.183873
0.948091
1.49091
1.79669
1.87668
1.76729
1.52584
1.22431
0.941726
0.756103
0.736608
0.936883
1.39008
2.10611
3.0712
4.24989
5.58898
7.023
8.4806
9.89111
11.1905
12.3263
13.2611
13.9741
14.4611
14.7333
14.8142
14.7369
14.5399
14.2638
13.9479
13.6277
13.3327
13.0847
12.8971
12.7738
12.7092
12.6878
12.6844
12.665
12.588
12.406
12.0695
11.53
10.745
9.68243
8.32508
6.67449
4.75286
2.60327
0.28746
-2.1185
-4.53054
-6.86407
-9.04175
-11.0006
-12.6974
-14.1124
-15.2492
-16.1338
-16.8093
-17.3308
-17.7575
-18.1462
-18.5437
-18.9818
-19.4725
-20.0058
-20.5499
-21.0527
-21.4461
-21.6525
-21.5919
-21.1913
-20.3939
-19.1672
-17.51
-15.4565
-13.0763
-10.4708
-7.76603
-5.10164
-2.61833
-0.44441
1.31669
2.59659
3.3686
3.65021
3.50125
3.01779
2.32263
1.55327
0.848394
0.334313
0.112377
0.248659
0.766786
1.64471
2.81586
4.17489
5.58757
6.90431
7.97597
8.67048
8.88839
8.57545
7.73065
6.40833
4.71383
2.79296
0.816363
-1.03951
-2.6123
-3.77215
-4.43607
-4.57659
-4.22339
-3.45791
-2.40169
-1.19996
-0.00282347
1.05366
1.86398
2.36546
2.54474
2.43814
2.12595
1.72163
1.35749
1.16857
1.27679
1.77714
2.72737
4.14224
5.99264
8.20925
10.6898
13.3082
15.9244
18.3914
20.56
22.2793
23.3952
23.751
23.1992
21.6341
19.0557
15.6745
12.0527
9.26847
9.06797
13.956
27.1662
52.4566
93.6999
154.28
236.356
340.106
463.105
599.971
742.435
879.86
1000.22
1091.41
1142.76
1146.43
1098.64
1000.32
857.284
679.733
481.232
277.243
83.4431
-85.9692
-219.754
-310.72
-356.299
-358.562
-323.69
-261.008
-181.715
-97.496
-19.1748
44.4161
87.2388
106.454
102.411
78.2575
39.2618
-8.06096
-56.8782
-100.915
-135.173
-156.413
-163.378
-156.742
-138.827
-113.143
-83.8286
-55.0638
-30.5426
-13.0539
-4.2175
-4.3898
-12.7349
-27.4354
-46.0029
-65.6405
-83.6075
-97.5414
-105.702
-107.116
-101.611
-89.7563
-72.7109
-52.0228
-29.3998
-6.48562
15.3317
35.0597
52.1775
66.6451
78.853
89.5236
99.5814
110.013
121.735
135.48
151.722
170.641
192.123
215.797
241.101
267.359
293.859
319.93
344.999
368.624
390.511
410.497
428.529
444.615
458.78
471.017
481.248
489.294
494.869
497.586
496.978
492.543
483.792
470.306
451.793
428.137
399.442
366.059
328.595
287.907
245.075
201.348
158.075
116.62
78.2621
44.0986
14.9546
-8.68504
-26.7156
-39.4146
-47.4067
-51.5925
-53.05
-52.9193
-52.2855
-52.0714
-52.9551
-55.319
-59.2354
-64.4902
-70.6366
-77.073
-83.1335
-88.1781
-91.6733
-93.2532
-92.7553
-90.2294
-85.9203
-80.2286
-73.6562
-66.7448
-60.0146
-53.9106
-48.7624
-44.7605
-41.9504
-40.2433
-39.4414
-39.2717
-39.4259
-39.5988
-39.5231
-38.9951
-37.8913
-36.1726
-33.8789
-31.115
-28.0303
-24.7953
-21.5789
-18.5286
-15.7553
-13.3256
-11.2602
-9.53904
-8.11088
-6.90619
-5.85065
-4.87758
-3.93753
-3.00397
-2.07468
-1.16912
-0.322587
0.421746
1.02135
1.44227
1.66524
1.68927
1.53236
1.22946
0.828274
0.383594
-0.0487252
-0.417303
-0.679452
-0.803627
-0.769974
-0.569205
-0.200272
0.332515
1.02228
1.86172
2.84421
3.96375
5.21386
6.58574
8.06612
9.63536
11.2662
12.9236
14.5656
16.1456
17.6157
18.93
20.0487
20.9417
21.5908
21.992
22.1547
22.1011
21.8637
21.4814
20.9956
20.4462
19.8673
19.284
18.7103
18.1476
17.5857
17.0044
16.3759
15.6692
14.8534
13.902
12.796
11.5269
10.0972
8.52155
6.8246
5.03922
3.20314
1.35542
-0.467159
-2.2331
-3.91851
-5.50832
-6.99655
-8.38564
-9.68519
-10.9105
-12.0807
-13.2179
-14.3451
-15.486
-16.6632
-17.8978
-19.2076
-20.6062
-22.1005
-23.6897
-25.3631
-27.0986
-28.8619
-30.606
-32.2717
-33.7894
-35.0815
-36.0665
-36.6628
-36.7947
-36.3975
-35.4239
-33.8492
-31.6769
-28.9422
-25.714
-22.0943
-18.2142
-14.2276
-10.3011
-6.60207
-3.28575
-0.48248
1.71338
3.25139
4.12898
4.39077
4.12332
3.44591
2.49831
1.42698
0.371205
-0.549387
-1.24454
-1.65948
-1.77674
-1.61384
-1.21706
-0.652294
0.0058116
0.68503
1.32551
1.88724
2.35395
2.73313
3.05223
3.35164
3.67596
4.06461
4.54362
5.11967
5.77732
6.47992
7.17394
7.79604
8.28186
8.57519
8.6361
8.44707
8.01601
7.37611
6.58241
5.70574
4.82491
4.01822
3.3554
2.89087
2.65912
2.67247
2.9214
3.37706
3.99542
4.72229
5.49833
6.263
6.95637
7.51777
7.88062
7.96398
7.66322
6.84463
5.35208
3.03577
-0.1868
-4.23048
-8.70381
-12.7456
-14.8664
-12.8397
-3.69765
16.1156
50.3988
102.655
175.41
269.472
383.284
512.491
649.881
785.749
908.72
1006.93
1069.44
1087.67
1056.61
975.71
849.137
685.541
497.194
298.69
105.365
-68.3672
-210.537
-312.808
-371.209
-386.316
-362.91
-309.16
-235.478
-153.184
-73.178
-4.76271
45.2487
73.0516
77.9695
62.1917
30.1966
-12.041
-57.9436
-101.204
-136.538
-160.23
-170.432
-167.197
-152.275
-128.719
-100.363
-71.2621
-45.1584
-25.0384
-12.8305
-9.26375
-13.8881
-25.2391
-41.1107
-58.8908
-75.9131
-89.7801
-98.6197
-101.252
-97.2578
-86.9435
-71.229
-51.47
-29.2503
-6.16883
16.3504
37.2056
55.7095
71.6198
85.1141
96.7158
107.188
117.412
128.261
140.501
154.702
171.194
190.051
211.109
234.011
258.261
283.291
308.525
333.428
357.546
380.517
402.076
422.034
440.255
456.621
470.996
483.202
492.995
500.06
504.016
504.434
500.873
492.918
480.227
462.58
439.917
412.377
380.314
344.306
305.145
263.811
221.433
179.235
138.466
100.332
65.9157
36.1068
11.5355
-7.47216
-20.9185
-29.1313
-32.7333
-32.5849
-29.7066
-25.1866
-20.0851
-15.344
-11.7125
-9.69482
-9.52682
-11.181
-14.3989
-18.7457
-23.6793
-28.6248
-33.0461
-36.5059
-38.7089
-39.5238
-38.9831
-37.2644
-34.6552
-31.5076
-28.1902
-25.0423
-22.3362
-20.2517
-18.8641
-18.1472
-17.9878
-18.2098
-18.6044
-18.9601
-19.0917
-18.8612
-18.1925
-17.0754
-15.5617
-13.7533
-11.785
-9.8051
-7.95544
-6.35416
-5.08295
-4.1798
-3.63787
-3.40998
-3.41789
-3.56466
-3.74837
-3.87545
-3.87182
-3.69075
-3.3166
-2.76432
-2.07507
-1.30888
-0.535457
0.175537
0.763447
1.18375
1.4126
1.44845
1.31072
1.03598
0.672407
0.273109
-0.110435
-0.434255
-0.666315
-0.789094
-0.800164
-0.710897
-0.543624
-0.327751
-0.0954131
0.12276
0.301247
0.422242
0.477048
0.466244
0.398763
0.290162
0.160444
0.0317833
-0.0735144
-0.134601
-0.133141
-0.0538732
0.11515
0.382426
0.752748
1.22669
1.7998
2.46155
3.19437
3.97289
4.76392
5.52721
6.21736
6.78671
7.18911
7.38414
7.34127
7.04342
6.48933
5.69447
4.69022
3.52143
2.24269
0.913721
-0.405428
-1.65893
-2.79881
-3.78746
-4.59874
-5.21782
-5.63986
-5.86806
-5.91131
-5.78189
-5.49366
-5.06089
-4.49782
-3.81905
-3.04052
-2.18088
-1.26287
-0.314487
0.630501
1.53281
2.34885
3.03285
3.53983
3.82902
3.86776
3.6352
3.12567
2.35128
1.34331
0.152166
-1.15448
-2.4954
-3.78132
-4.92199
-5.83406
-6.44907
-6.72054
-6.62933
-6.18631
-5.43203
-4.43316
-3.27606
-2.0582
-0.878378
0.173096
1.02306
1.62204
1.948
2.00689
1.83008
1.46916
0.988921
0.45921
-0.0530091
-0.49071
-0.812107
-0.993741
-1.03118
-0.937384
-0.739222
-0.47252
-0.176487
0.111899
0.362856
0.557594
0.690545
0.76984
0.815989
0.85896
0.934007
1.07675
1.3181
1.67974
2.17062
2.78508
3.50266
4.28988
5.10338
5.89446
6.61395
7.21726
7.66865
7.9445
8.0351
7.94505
7.69206
7.3048
6.81972
6.27766
5.72031
5.18696
4.71189
4.32232
4.03719
3.86659
3.81193
3.86661
4.0172
4.24513
4.52853
4.84452
5.17134
5.49062
5.78916
6.06036
6.30459
6.5281
6.73941
6.94238
7.12549
7.24824
7.22761
6.9303
6.17911
4.78381
2.60652
-0.332006
-3.70671
-6.71754
-7.92364
-5.12761
4.63539
24.9505
59.6827
112.44
185.889
281.009
396.419
527.938
668.48
808.406
936.307
1040.19
1108.86
1133.41
1108.44
1032.94
910.707
750.054
563.046
364.21
168.969
-8.03016
-154.465
-261.574
-324.928
-344.679
-325.254
-274.582
-202.966
-121.761
-42.0217
26.6921
77.2486
105.504
110.464
94.0569
60.5825
15.9381
-33.2713
-80.6129
-120.593
-149.23
-164.374
-165.783
-154.936
-134.672
-108.687
-80.9817
-55.3271
-34.8149
-21.5378
-16.4268
-19.2486
-28.7478
-42.9003
-59.2356
-75.181
-88.3824
-96.9659
-99.7141
-96.1437
-86.4865
-71.5858
-52.7292
-31.4464
-9.29916
12.3091
32.2829
49.9303
64.9985
77.6516
88.401
98.0013
107.328
117.258
128.556
141.802
157.329
175.219
195.31
217.245
240.524
264.576
288.815
312.704
335.782
357.692
378.178
397.07
414.261
429.669
443.204
454.739
464.079
470.954
475.019
475.867
473.056
466.148
454.756
438.591
417.509
391.554
360.988
326.308
288.252
247.78
206.039
164.31
123.93
86.2108
52.3461
23.3178
-0.181519
-17.8082
-29.5975
-35.9599
-37.6421
-35.6561
-31.1818
-25.4558
-19.6558
-14.7959
-11.6426
-10.6601
-11.9915
-15.4744
-20.6887
-27.029
-33.7917
-40.266
-45.8173
-49.9559
-52.3812
-53.0008
-51.9232
-49.427
-45.9138
-41.8492
-37.7039
-33.8976
-30.756
-28.4822
-27.1456
-26.6883
-26.9452
-27.6753
-28.5988
-29.4345
-29.9347
-29.9117
-29.2548
-27.9374
-26.0121
-23.5988
-20.8641
-17.9989
-15.194
-12.6184
-10.4022
-8.62483
-7.31092
-6.43269
-5.91837
-5.66521
-5.55521
-5.47134
-5.31231
-5.00409
-4.5071
-3.81832
-2.96862
-2.01585
-1.035
-0.106854
0.693275
1.30531
1.69152
1.84028
1.76629
1.50739
1.11873
0.665136
0.212707
-0.179132
-0.464289
-0.614551
-0.621606
-0.496436
-0.266307
0.0301191
0.348846
0.646958
0.888558
1.0495
1.12039
1.10748
1.03156
0.924939
0.827098
0.779634
0.821131
0.982631
1.28423
1.73316
2.32348
3.03738
3.84776
4.7217
5.62423
6.52195
7.38593
8.19361
8.92959
9.58536
10.1582
10.6494
11.0624
11.4009
11.6673
11.8616
11.9805
12.018
11.9649
11.81
11.5406
11.1435
10.6057
9.91453
9.05815
8.02548
6.80612
5.39035
3.76938
1.93613
-0.11356
-2.37914
-4.85323
-7.51929
-10.3494
-13.3027
-16.324
-19.3442
-22.281
-25.0417
-27.5262
-29.6322
-31.2599
-32.3188
-32.7337
-32.4515
-31.4474
-29.7301
-27.345
-24.3758
-20.9422
-17.1953
-13.3083
-9.46561
-5.84922
-2.62457
0.0728662
2.14873
3.55742
4.30529
4.44888
4.08833
3.35655
2.40511
1.3885
0.448313
-0.300841
-0.782034
-0.962154
-0.852702
-0.505207
-0.00187789
0.557253
1.06896
1.44127
1.60583
1.52648
1.20325
0.671158
-0.00555057
-0.742673
-1.44733
-2.02949
-2.41204
-2.5382
-2.37551
-1.91624
-1.17467
-0.182177
1.01891
2.38155
3.85928
5.41019
6.99895
8.59732
10.1831
11.7387
13.2484
14.6978
16.0718
17.3553
18.5338
19.5951
20.5313
21.3401
22.0261
22.6006
23.0803
23.4853
23.836
24.1499
24.4385
24.7052
24.9436
25.1367
25.2578
25.2716
25.1366
24.8081
24.2414
23.3962
22.2406
20.7552
18.9366
16.7998
14.3797
11.7291
8.91542
6.01375
3.09649
0.220738
-2.58576
-5.3366
-8.09138
-10.9456
-13.9971
-17.2795
-20.6596
-23.6989
-25.4971
-24.5456
-18.6373
-4.88506
20.1009
59.8474
117.471
195.005
292.695
408.412
537.301
671.814
802.164
917.205
1005.64
1057.42
1065.05
1024.77
937.205
807.535
645.095
462.42
273.908
94.2346
-63.229
-187.828
-272.668
-315.177
-317.147
-284.26
-225.191
-150.423
-70.9374
3.05506
63.194
103.738
121.958
118.142
95.233
58.1963
13.1962
-33.284
-75.273
-107.995
-128.336
-135.059
-128.762
-111.619
-86.9438
-58.6633
-30.7648
-6.79107
10.5578
19.6788
20.1595
12.7146
-1.00821
-18.7182
-37.8192
-55.7509
-70.2894
-79.7776
-83.2612
-80.5271
-72.0464
-58.8408
-42.2957
-23.9487
-5.28204
12.4564
28.3837
42.0532
53.4647
63.0172
71.4176
79.5592
88.3904
98.7881
111.453
126.836
145.101
166.126
189.539
214.772
241.138
267.907
294.378
319.935
344.086
366.477
386.891
405.222
421.444
435.566
447.593
457.483
465.124
470.315
472.769
472.124
467.976
459.918
447.587
430.718
409.185
383.049
352.58
318.28
280.874
241.296
200.651
160.162
121.097
84.6889
52.053
24.1003
1.46678
-15.5399
-26.9674
-33.2145
-34.9948
-33.2707
-29.1636
-23.8501
-18.4545
-13.9492
-11.0755
-10.2903
-11.7458
-15.3028
-20.5732
-26.9874
-33.8757
-40.5543
-46.4059
-50.9449
-53.8625
-55.046
-54.574
-52.6891
-49.7542
-46.1977
-42.457
-38.9267
-35.9157
-33.6206
-32.1143
-31.3512
-31.1863
-31.4044
-31.7552
-31.989
-31.8891
-31.2967
-30.1261
-28.3699
-26.0933
-23.4205
-20.5147
-17.5558
-14.7174
-12.1471
-9.95168
-8.18885
-6.86539
-5.94191
-5.34277
-4.96927
-4.71436
-4.47658
-4.17169
-3.74057
-3.15289
-2.40649
-1.52302
-0.540915
0.493005
1.53208
2.53716
3.48179
4.35485
5.16026
5.91416
6.6402
7.36376
8.1062
8.87991
9.68516
10.5089
11.326
12.102
12.7979
13.3753
13.8012
14.0526
14.1191
14.0042
13.7245
13.3075
12.7882
12.2052
11.5966
10.9961
10.4306
9.91796
9.46663
9.07544
8.73452
8.42662
8.12862
7.81306
7.44972
7.00703
6.45355
5.75942
4.89792
3.84716
2.59173
1.12429
-0.553156
-2.42848
-4.47931
-6.67354
-8.97059
-11.323
-13.6785
-15.9815
-18.1754
-20.2029
-22.0073
-23.5329
-24.7254
-25.5328
-25.9071
-25.8075
-25.2038
-24.0816
-22.4471
-20.3311
-17.7909
-14.91
-11.7943
-8.56543
-5.3509
-2.27322
0.561645
3.07453
5.22084
6.99449
8.42753
9.5851
10.5561
11.4409
12.3363
13.3219
14.4465
15.7193
17.1053
18.5266
19.8691
20.9948
21.7566
22.0161
21.6603
20.6156
18.8587
16.4212
13.3882
9.89165
6.0983
2.19431
-1.63164
-5.20503
-8.38011
-11.0511
-13.1586
-14.6916
-15.6845
-16.2092
-16.3645
-16.2628
-16.0156
-15.7191
-15.4418
-15.2146
-15.0259
-14.821
-14.5088
-13.9736
-13.0912
-11.7482
-9.86057
-7.38953
-4.35164
-0.821618
3.0727
7.1628
11.2575
15.1639
18.7089
21.7575
24.2262
26.0899
27.3812
28.1834
28.6178
28.828
28.9627
29.1594
29.5309
30.1549
31.0674
32.2604
33.6813
35.235
36.7881
38.1751
39.2124
39.7235
39.5845
38.7953
37.5823
36.5248
36.6908
39.748
48.008
64.354
92.011
134.143
193.298
270.762
365.938
475.865
595.031
715.535
827.682
920.931
985.108
1011.72
995.138
933.53
829.301
689.037
522.905
343.591
164.921
0.347637
-138.497
-243.007
-308.405
-334.067
-323.351
-282.97
-222.004
-150.722
-79.3297
-16.8375
29.85
56.5153
61.8433
47.2732
16.5378
-25.0271
-71.2968
-116.187
-154.394
-181.966
-196.648
-197.993
-187.224
-166.92
-140.553
-111.969
-84.8645
-62.343
-46.58
-38.6406
-38.4518
-44.9183
-56.1548
-69.7937
-83.3219
-94.4043
-101.152
-102.312
-97.3577
-86.481
-70.4997
-50.6935
-28.6015
-5.80751
16.2575
36.474
54.1368
68.996
81.2375
91.4113
100.323
108.906
118.091
128.691
141.314
156.308
173.751
193.464
215.063
238.02
261.737
285.617
309.115
331.781
353.276
373.37
391.926
408.862
424.117
437.614
449.222
458.738
465.87
470.25
471.446
468.997
462.458
451.442
435.674
415.034
389.592
359.637
325.685
288.476
248.952
208.219
167.488
128.011
90.9932
57.5163
28.4539
4.40549
-14.3495
-27.8715
-36.5483
-41.0527
-42.2728
-41.2229
-38.9439
-36.406
-34.4226
-33.5858
-34.2286
-36.4184
-39.9794
-44.5399
-49.5979
-54.5959
-58.9948
-62.3399
-64.3101
-64.7468
-63.6606
-61.217
-57.7042
-53.4889
-48.9671
-44.5151
-40.4478
-36.9889
-34.2549
-32.2535
-30.8964
-30.0221
-29.426
-28.8924
-28.2247
-27.27
-25.9357
-24.1964
-22.0916
-19.7145
-17.196
-14.6837
-12.3217
-10.2317
-8.49912
-7.16433
-6.22087
-5.61932
-5.27646
-5.0879
-4.94231
-4.73545
-4.38225
-3.82567
-3.04149
-2.03887
-0.856892
0.442065
1.78114
3.0787
4.25781
5.25434
6.0229
6.54026
6.80595
6.84045
6.68129
6.37791
5.98593
5.56161
5.15707
4.8167
4.57493
4.4553
4.47067
4.62425
4.91113
5.3199
5.83415
6.43377
7.09579
7.79508
8.50487
9.1973
9.84413
10.4177
10.8921
11.2443
11.4556
11.5123
11.4069
11.1381
10.7104
10.1341
9.42387
8.59722
7.67346
6.67185
5.61025
4.50375
3.36365
2.1968
1.00534
-0.213036
-1.46426
-2.75667
-4.09946
-5.50092
-6.96685
-8.49919
-10.0952
-11.7471
-13.4427
-15.166
-16.8989
-18.6229
-20.3206
-21.9774
-23.5822
-25.1278
-26.6094
-28.024
-29.3669
-30.6298
-31.7977
-32.8466
-33.742
-34.4385
-34.8814
-35.0089
-34.7566
-34.0632
-32.8779
-31.1677
-28.925
-26.1738
-22.9738
-19.4209
-15.6436
-11.7962
-8.0469
-4.56482
-1.50456
1.00799
2.88782
4.09915
4.65881
4.63417
4.13562
3.30448
2.2976
1.2705
0.361061
-0.324349
-0.72053
-0.807904
-0.611247
-0.19305
0.357497
0.938363
1.44953
1.8069
1.95358
1.86712
1.56201
1.0871
0.51868
-0.0500503
-0.521347
-0.805648
-0.832864
-0.560826
0.0201255
0.886892
1.98762
3.24927
4.58777
5.91928
7.17114
8.29107
9.2535
10.0622
10.749
11.3688
11.9915
12.6927
13.543
14.599
15.8959
17.4431
19.2232
21.1944
23.2955
25.453
27.5891
29.6292
31.5069
33.1666
34.5618
35.6486
36.3762
36.6747
36.4455
35.5602
33.876
31.278
27.7571
23.5271
19.1758
15.8308
15.3029
20.1595
33.6682
59.565
101.623
163.036
245.699
349.472
471.611
606.473
745.638
878.478
993.158
1077.95
1122.7
1120.18
1067.22
965.312
820.694
643.789
448.153
249.014
61.6155
-100.425
-226.524
-310.143
-349.295
-346.491
-308.178
-243.753
-164.309
-81.2643
-5.0755
55.8434
95.8654
112.504
106.365
80.7366
40.907
-6.69459
-55.3993
-99.1385
-133.121
-154.286
-161.49
-155.449
-138.444
-113.876
-85.7171
-57.9562
-34.0942
-16.7534
-7.43577
-6.44583
-12.9695
-25.2842
-41.06
-57.7047
-72.706
-83.9282
-89.8321
-89.5985
-83.1506
-71.0832
-54.5167
-34.903
-13.8111
7.27863
27.1465
44.9542
60.3059
73.2464
84.206
93.9019
103.215
113.062
124.268
137.48
153.09
171.221
191.727
214.236
238.215
263.039
288.067
312.703
336.445
358.914
379.853
399.116
416.638
432.393
446.354
458.45
468.532
476.363
481.608
483.85
482.624
477.457
467.921
453.684
434.566
410.575
381.94
349.119
312.797
273.863
233.372
192.492
152.445
114.431
79.5614
48.7859
22.8295
2.14405
-13.1222
-23.1332
-28.3481
-29.48
-27.4339
-23.2272
-17.902
-12.4378
-7.67201
-4.23801
-2.52599
-2.66984
-4.56077
-7.88479
-12.1785
-16.8963
-21.4799
-25.4238
-28.3278
-29.9334
-30.1394
-28.9989
-26.6984
-23.5231
-19.8152
-15.9293
-12.1918
-8.86813
-6.14091
-4.10069
-2.74877
-2.01036
-1.75528
-1.82267
-2.04616
-2.27626
-2.39757
-2.33911
-2.07742
-1.63282
-1.06019
-0.436113
0.155469
0.637023
0.948836
1.0568
0.955849
0.66911
0.243145
-0.259614
-0.770033
-1.2217
-1.55931
-1.745
-1.76202
-1.61533
-1.32948
-0.944089
-0.50775
-0.0712484
0.318989
0.626416
0.828219
0.917143
0.901226
0.801664
0.64924
0.479914
0.330248
0.233302
0.215589
0.295421
0.482742
0.780202
1.18498
1.69077
2.28928
2.97101
3.72512
4.53857
5.39493
6.27335
7.14802
7.98865
8.76192
9.43396
9.97358
10.3558
10.5649
10.5976
10.4638
10.1865
9.80089
9.35021
8.88229
8.44448
8.07892
7.81836
7.68301
7.67877
7.79708
8.01611
8.30335
8.61895
8.91962
9.16259
9.30923
9.32811
9.19716
8.905
8.4513
7.84633
7.10971
6.26871
5.35597
4.40694
3.45708
2.53891
1.67919
0.896366
0.19856
-0.417583
-0.967046
-1.47544
-1.97689
-2.51089
-3.11849
-3.83814
-4.70162
-5.73054
-6.93382
-8.30642
-9.82952
-11.4722
-13.1942
-14.9497
-16.6916
-18.3755
-19.9635
-21.4271
-22.7496
-23.9271
-24.9689
-25.8978
-26.7481
-27.5641
-28.3967
-29.2992
-30.3217
-31.5048
-32.8729
-34.4282
-36.1458
-37.9715
-39.8226
-41.5921
-43.1569
-44.3881
-45.1634
-45.3798
-44.9638
-43.8801
-42.1348
-39.7751
-36.8842
-33.5728
-29.9684
-26.2045
-22.4097
-18.6995
-15.1701
-11.8951
-8.92492
-6.28759
-3.99188
-2.03053
-0.383929
0.976508
2.08535
2.98069
3.70216
4.28907
4.7789
5.20569
5.59863
5.98078
6.36807
6.7688
7.18365
7.60638
8.02517
8.42449
8.78749
9.09849
9.34566
9.52344
9.63461
9.6918
9.71814
9.74696
9.82045
9.98715
10.2984
10.8043
11.5485
12.5642
13.8696
15.4654
17.3325
19.4325
21.7095
24.0929
26.502
28.8509
31.0523
33.021
34.6732
35.9236
36.678
36.8263
36.2388
34.7749
32.3144
28.8211
24.4459
19.6673
15.4535
13.4177
15.9172
26.0431
47.4471
83.9726
139.094
215.217
312.936
430.394
562.882
702.819
840.168
963.311
1060.27
1120.16
1134.6
1098.94
1013.06
881.631
713.782
522.193
321.745
127.908
-44.9335
-184.993
-284.247
-339.122
-350.637
-324.003
-267.768
-192.631
-110.089
-31.0971
35.108
81.8784
105.651
106.035
85.5163
48.8492
2.2396
-47.5641
-94.1511
-132.196
-157.992
-169.737
-167.546
-153.233
-129.9
-101.419
-71.866
-44.9906
-23.7846
-10.1869
-4.95034
-7.66776
-16.9391
-30.6425
-46.2661
-61.2522
-73.312
-80.6732
-82.2401
-77.6531
-67.2546
-51.972
-33.1441
-12.3149
8.97419
29.3698
47.8503
63.8131
77.103
87.9839
97.0624
105.18
113.288
122.321
133.088
146.189
161.961
180.461
201.487
224.616
249.271
274.788
300.488
325.736
349.984
372.799
393.869
412.986
430.025
444.909
457.567
467.905
475.774
480.953
483.151
482.019
477.175
468.246
454.914
436.96
414.316
387.099
355.638
320.482
282.399
242.349
201.444
160.894
121.941
85.7735
53.4577
25.8554
3.56262
-13.1364
-24.2914
-30.28
-31.7746
-29.6819
-25.0624
-19.0374
-12.6911
-6.9807
-2.6614
-0.234468
0.0765652
-1.67934
-5.2132
-10.0508
-15.6025
-21.2393
-26.3672
-30.4902
-33.2574
-34.4897
-34.1847
-32.5006
-29.7247
-26.2288
-22.4202
-18.693
-15.3854
-12.7481
-10.9252
-9.95001
-9.7537
-10.185
-11.0378
-12.0815
-13.0921
-13.878
-14.3
-14.2818
-13.8124
-12.9395
-11.7564
-10.3852
-8.9572
-7.59499
-6.39744
-5.42941
-4.71714
-4.24926
-3.98273
-3.85253
-3.78326
-3.70115
-3.54456
-3.27193
-2.86615
-2.3352
-1.70921
-1.03476
-0.367304
0.237066
0.729308
1.07366
1.25167
1.26368
1.12778
0.876594
0.552428
0.201632
-0.131129
-0.407933
-0.601421
-0.696994
-0.69324
-0.600665
-0.439067
-0.233999
-0.0129331
0.198329
0.378518
0.512728
0.59313
0.618657
0.593919
0.527691
0.431315
0.317315
0.198416
0.0870255
-0.00488421
-0.0656426
-0.0836918
-0.0475296
0.0540783
0.231557
0.493677
0.846518
1.29239
1.82889
2.44836
3.13768
3.87874
4.64932
5.42447
6.17814
6.88487
7.52141
8.06809
8.50989
8.83707
9.04562
9.13723
9.1192
9.00402
8.80882
8.55467
8.26553
7.96701
7.68479
7.44282
7.26119
7.15412
7.12803
7.18008
7.29736
7.45692
7.62677
7.76783
7.83671
7.78916
7.58385
7.18606
6.57089
5.72567
4.65116
3.36144
1.88258
0.250096
-1.4944
-3.30703
-5.14547
-6.97232
-8.75756
-10.4799
-12.1269
-13.693
-15.1777
-16.5812
-17.9009
-19.1274
-20.2411
-21.2105
-21.9917
-22.5309
-22.7682
-22.6435
-22.105
-21.1167
-19.667
-17.7744
-15.491
-12.9025
-10.1237
-7.2904
-4.54822
-2.03947
0.110159
1.80368
2.98195
3.62898
3.77256
3.48051
2.8528
2.01071
1.08421
0.199041
-0.53534
-1.03552
-1.25091
-1.16686
-0.803978
-0.213886
0.528072
1.3323
2.10554
2.7615
3.23024
3.4656
3.44968
3.19401
2.73756
2.14158
1.48217
0.841454
0.298197
-0.0808751
-0.248268
-0.180666
0.118846
0.621417
1.27582
2.01414
2.75915
3.43255
3.96308
4.29385
4.38798
4.23201
3.83692
3.2365
2.4836
1.64445
0.791912
-0.00164879
-0.67103
-1.16376
-1.44403
-1.49473
-1.31776
-0.932762
-0.375164
0.305917
1.04872
1.77795
2.40139
2.80437
2.84441
2.35072
1.13602
-0.969449
-4.05233
-8.01236
-12.4223
-16.3657
-18.2835
-15.8731
-6.09651
14.6538
50.1959
104.011
178.556
274.53
390.233
521.16
659.955
796.804
920.271
1018.49
1080.6
1098.11
1066.17
984.383
857.063
692.968
504.43
306.049
113.114
-60.0524
-201.598
-303.315
-361.349
-376.371
-353.221
-300.089
-227.362
-146.307
-67.7436
-0.880926
47.5621
73.8651
77.4162
60.4441
27.4381
-15.6437
-62.2636
-106.171
-142.143
-166.525
-177.515
-175.19
-161.301
-138.869
-111.672
-83.6875
-58.5661
-39.1976
-27.4183
-23.8785
-28.0706
-38.4991
-52.9572
-68.865
-83.621
-94.923
-101.021
-100.88
-94.2333
-81.5462
-63.8843
-42.7267
-19.7463
3.41134
25.323
44.9353
61.6511
75.3523
86.3613
95.3529
103.233
111.004
119.63
129.921
142.456
157.525
175.132
195.012
216.688
239.541
262.889
286.059
308.449
329.572
349.077
366.753
382.505
396.325
408.249
418.311
426.506
432.752
436.872
438.591
437.55
433.327
425.488
413.63
397.442
376.753
351.584
322.184
289.043
252.898
214.709
175.606
136.829
99.6377
65.2155
34.5759
8.47684
-12.6429
-28.6973
-39.9519
-46.9873
-50.6313
-51.866
-51.723
-51.177
-51.0513
-51.9449
-54.1894
-57.8387
-62.6908
-68.3379
-74.2363
-79.7872
-84.417
-87.6489
-89.1569
-88.7966
-86.6126
-82.8217
-77.7764
-71.9155
-65.708
-59.5983
-53.959
-49.0567
-45.0342
-41.9086
-39.5859
-37.8864
-36.5791
-35.4178
-34.1759
-32.6742
-30.8001
-28.5158
-25.8563
-22.9175
-19.8382
-16.7776
-13.8926
-11.3173
-9.14712
-7.42989
-6.16346
-5.30039
-4.75811
-4.4328
-4.21488
-4.00379
-3.72024
-3.31445
-2.7697
-2.10098
-1.34958
-0.574478
0.157841
0.783781
1.25171
1.52873
1.6043
1.49066
1.22018
0.840184
0.406265
-0.0249821
-0.402826
-0.687974
-0.856258
-0.900128
-0.827948
-0.661391
-0.431431
-0.17357
0.0770207
0.289831
0.442322
0.521898
0.526436
0.463446
0.348116
0.200593
0.0429313
-0.10388
-0.222443
-0.30076
-0.33317
-0.320395
-0.26877
-0.188855
-0.0936509
0.00331859
0.0898269
0.15648
0.197842
0.213083
0.206138
0.185382
0.162893
0.153355
0.172705
0.236638
0.359097
0.550897
0.818625
1.16393
1.58325
2.06813
2.60584
3.18052
3.77452
4.36986
4.94973
5.49969
6.0087
6.46959
6.87924
7.23815
7.54971
7.81914
8.05227
8.25426
8.42849
8.57567
8.69337
8.776
8.81531
8.80127
8.72344
8.57232
8.3408
8.02535
7.62673
7.15036
6.60602
6.00721
5.37012
4.7124
4.0519
3.4055
2.78819
2.21235
1.68726
1.21883
0.809365
0.457433
0.157763
-0.0988105
-0.325255
-0.537998
-0.756233
-1.00081
-1.2927
-1.65105
-2.09115
-2.62233
-3.24622
-3.95566
-4.73444
-5.55798
-6.39506
-7.21046
-7.96815
-8.63479
-9.18318
-9.5951
-9.86342
-9.99298
-10.0003
-9.91198
-9.7619
-9.58771
-9.42681
-9.31236
-9.26981
-9.31434
-9.44945
-9.66674
-9.94694
-10.2617
-10.5762
-10.8516
-11.0483
-11.1275
-11.0543
-10.7983
-10.3349
-9.64523
-8.71567
-7.53703
-6.1037
-4.41318
-2.46624
-0.267904
2.17085
4.83112
7.68411
10.69
13.7981
16.9482
20.0742
23.1084
25.9869
28.6547
31.0699
33.2056
35.0505
36.6055
37.8797
38.8838
39.624
40.0968
40.2859
40.162
39.6856
38.8128
37.5037
35.7308
33.4875
30.7947
27.7036
24.2959
20.6784
16.9757
13.3188
9.83328
6.62781
3.78446
1.35233
-0.654703
-2.25605
-3.49858
-4.44787
-5.17789
-5.76047
-6.25619
-6.70761
-7.13571
-7.53967
-7.89986
-8.18322
-8.35022
-8.36228
-8.1886
-7.81172
-7.23106
-6.46459
-5.54899
-4.53927
-3.50922
-2.55362
-1.79237
-1.37448
-1.47729
-2.29312
-3.99339
-6.66029
-10.1796
-14.097
-17.4527
-18.6256
-15.2347
-4.15185
18.3208
56.0763
112.635
190.438
290.099
409.757
544.674
687.211
827.251
953.069
1052.56
1114.7
1130.96
1096.55
1011.23
879.608
710.762
517.396
314.475
117.606
-58.6394
-202.255
-304.981
-363.013
-377.158
-352.456
-297.338
-222.441
-139.264
-58.8215
9.5351
59.003
85.8343
89.4387
72.1024
38.3943
-5.63954
-53.3755
-98.4866
-135.687
-161.27
-173.39
-172.084
-159.064
-137.306
-110.547
-82.7174
-57.4301
-37.5498
-24.9094
-20.1849
-22.9295
-31.7454
-44.5577
-58.9437
-72.4717
-83.0047
-88.9346
-89.3259
-83.9589
-73.2796
-58.2706
-40.2699
-20.7645
-1.18764
17.2536
33.7041
47.7274
59.3132
68.83
76.9364
84.4659
92.3032
101.269
112.023
125.004
140.395
158.131
177.93
199.352
221.86
244.889
267.905
290.448
312.157
332.775
352.14
370.158
386.767
401.909
415.488
427.354
437.278
444.957
450.021
452.051
450.615
445.303
435.77
421.778
403.229
380.196
352.944
321.931
287.804
251.383
213.628
175.596
138.389
103.091
70.7011
42.07
17.8366
-1.61816
-16.2004
-26.1094
-31.8179
-34.0271
-33.6019
-31.4893
-28.6322
-25.885
-23.9412
-23.2812
-24.144
-26.5266
-30.2092
-34.8023
-39.8093
-44.6971
-48.9648
-52.2041
-54.1432
-54.6716
-53.8428
-51.8567
-49.0246
-45.7233
-42.3436
-39.2407
-36.6926
-34.8709
-33.8276
-33.4981
-33.7182
-34.2544
-34.8391
-35.2091
-35.1404
-34.4751
-33.1385
-31.1435
-28.5836
-25.6165
-22.4395
-19.2627
-16.2814
-13.6535
-11.4827
-9.81051
-8.6165
-7.82713
-7.33063
-6.99572
-6.69146
-6.30531
-5.75727
-5.00828
-4.06248
-2.9632
-1.78397
-0.61597
0.445994
1.31703
1.93345
2.26045
2.29545
2.06701
1.62976
1.0564
0.427912
-0.176527
-0.6886
-1.05791
-1.25625
-1.27878
-1.14229
-0.881015
-0.540652
-0.171659
0.177421
0.465707
0.664202
0.758116
0.747187
0.644184
0.471935
0.259429
0.0375511
-0.164959
-0.324866
-0.426749
-0.464097
-0.439168
-0.36177
-0.24721
-0.113754
0.0200405
0.137776
0.227129
0.28103
0.297977
0.281531
0.239127
0.180465
0.115772
0.0542227
0.00275727
-0.0345836
-0.056762
-0.0653564
-0.0638169
-0.056537
-0.0479197
-0.0415888
-0.0398537
-0.0434783
-0.0517486
-0.062788
-0.0740366
-0.0827958
-0.0867421
-0.0843316
-0.0750414
-0.0594267
-0.0390025
-0.0159834
0.00706555
0.0276089
0.0434923
0.0532179
0.0561101
0.0523582
0.042939
0.0294404
0.0138183
-0.00187656
-0.0157611
-0.0263402
-0.0326587
-0.0343711
-0.0317291
-0.0254946
-0.0167962
-0.00695385
0.00270342
0.0110041
0.0170638
0.0203667
0.0207923
0.01859
0.0143103
0.00870494
0.00261241
-0.00315601
-0.00791467
-0.0111762
-0.0126918
-0.0124572
-0.0106877
-0.00776789
-0.0041859
-0.000460564
0.00292967
0.00561568
0.00741574
0.00845027
0.00933244
0.0114704
0.0174937
0.0317748
0.0609715
0.114475
0.204634
0.34663
0.557925
0.857259
1.26325
1.79276
2.45915
3.27072
4.22953
5.3307
6.56235
7.90619
9.33862
10.8322
12.3576
13.8848
15.3853
16.8329
18.2048
19.4816
20.6477
21.6908
22.6014
23.3729
24.0004
24.4814
24.8151
25.0031
25.0488
24.9585
24.7402
24.4042
23.9621
23.426
22.8075
22.1166
21.3605
20.5426
19.6616
18.7116
17.6823
16.5598
15.3284
13.9722
12.4781
10.8373
9.04844
7.11863
5.0646
2.9127
0.697815
-1.53839
-3.75006
-5.89002
-7.91275
-9.77715
-11.4488
-12.9019
-14.1201
-15.0972
-15.8367
-16.3517
-16.6632
-16.7992
-16.7931
-16.682
-16.5052
-16.3026
-16.1132
-15.9739
-15.9177
-15.973
-16.162
-16.4996
-16.9922
-17.6371
-18.421
-19.32
-20.299
-21.312
-22.3029
-23.2065
-23.9516
-24.4633
-24.668
-24.4982
-23.8988
-22.8324
-21.2849
-19.2698
-16.8296
-14.0357
-10.984
-7.78883
-4.57427
-1.46346
1.43192
4.02158
6.24439
8.07314
9.51541
10.6105
11.4224
12.0299
12.5148
12.9502
13.3892
13.8578
14.3507
14.8323
15.2416
15.5015
15.5302
15.2537
14.6176
13.5961
12.1977
10.466
8.47637
6.32838
4.13536
2.01266
0.0660294
-1.6184
-2.98123
-3.99336
-4.65578
-4.99592
-5.06125
-4.91132
-4.60936
-4.21456
-3.77605
-3.32914
-2.89407
-2.47718
-2.0741
-1.67451
-1.26793
-0.850132
-0.430049
-0.037134
0.271067
0.402163
0.225579
-0.422621
-1.71962
-3.81174
-6.73812
-10.3179
-14.0055
-16.7302
-16.7545
-11.5964
1.92937
27.5027
68.8966
129.393
211.078
314.119
436.167
572.024
713.693
850.866
971.855
1064.84
1119.28
1127.33
1084.98
992.758
855.904
683.985
489.919
288.612
95.352
-75.8261
-213.596
-310.433
-363.232
-373.379
-346.313
-290.643
-216.96
-136.513
-59.9042
4.02873
49.0305
71.8702
72.3877
53.1713
18.9416
-24.2594
-69.9549
-112.082
-145.699
-167.485
-175.98
-171.572
-156.254
-133.199
-106.234
-79.2862
-55.8651
-38.6567
-29.2584
-28.0795
-34.4007
-46.5719
-62.3057
-79.023
-94.2003
-105.674
-111.87
-111.934
-105.761
-93.9251
-77.5368
-58.0427
-37.0107
-15.922
4.00181
21.9192
37.4268
50.5557
61.7133
71.5847
81.0112
90.8623
101.921
114.791
129.841
147.178
166.664
187.952
210.552
233.895
257.409
280.573
302.966
324.288
344.362
363.121
380.575
396.772
411.753
425.516
437.982
448.971
458.203
465.298
469.802
471.217
469.043
462.826
452.198
436.925
416.942
392.372
363.541
330.979
295.399
257.68
218.82
179.9
142.022
106.255
73.569
44.7786
20.4859
1.03988
-13.489
-23.3124
-28.905
-30.9613
-30.3339
-27.9569
-24.7631
-21.6034
-19.1775
-17.9824
-18.2839
-20.1138
-23.2916
-27.4672
-32.178
-36.9146
-41.1845
-44.5695
-46.7684
-47.6227
-47.1237
-45.4005
-42.694
-39.3196
-35.6256
-31.9505
-28.5869
-25.7536
-23.5795
-22.0998
-21.2635
-20.9504
-20.9946
-21.2103
-21.4177
-21.4644
-21.2415
-20.6911
-19.8079
-18.6323
-17.2389
-15.7219
-14.1792
-12.6972
-11.3395
-10.1391
-9.09625
-8.18012
-7.3358
-6.49361
-5.58024
-4.53
-3.29459
-1.85039
-0.202398
1.61546
3.54348
5.50229
7.40106
9.14671
10.6531
11.8494
12.6863
13.1401
13.2138
12.9363
12.3582
11.5465
10.5779
9.53118
8.48085
7.4906
6.60879
5.8655
5.27154
4.81933
4.48555
4.23521
4.02666
3.81711
3.56803
3.24982
2.84535
2.35194
1.78153
1.15901
0.518974
-0.0988209
-0.654746
-1.11469
-1.45491
-1.6658
-1.75403
-1.74277
-1.66989
-1.58429
-1.54058
-1.59279
-1.7877
-2.1586
-2.72029
-3.46601
-4.3667
-5.3729
-6.41913
-7.43031
-8.32955
-9.04642
-9.52462
-9.72822
-9.64563
-9.29076
-8.70129
-7.93416
-7.05892
-6.14969
-5.27684
-4.49925
-3.85833
-3.37443
-3.04597
-2.85148
-2.75407
-2.70766
-2.66407
-2.57996
-2.42265
-2.17417
-1.83301
-1.41343
-0.942653
-0.456229
0.00752829
0.413411
0.734606
0.956731
1.08009
1.11982
1.10402
1.06994
1.05896
1.11082
1.25806
1.52125
1.90567
2.39984
2.97601
3.59261
4.19811
4.73613
5.15091
5.39269
5.42246
5.21548
4.76351
4.07542
3.17636
2.10563
0.913525
-0.342408
-1.60142
-2.80348
-3.8929
-4.8213
-5.55
-6.05169
-6.31147
-6.32722
-6.10953
-5.68087
-5.07428
-4.3314
-3.49994
-2.63059
-1.77362
-0.975534
-0.275848
0.295424
0.719513
0.98962
1.11062
1.0978
0.974793
0.770934
0.51834
0.248935
-0.00824887
-0.229308
-0.397041
-0.501768
-0.541376
-0.520611
-0.449756
-0.342801
-0.21528
-0.0819487
0.0455224
0.160614
0.263591
0.362482
0.473264
0.619162
0.82908
1.13528
1.57054
2.16499
2.943
3.92035
5.10189
6.47977
8.03246
9.72434
11.5062
13.3162
15.0826
16.7259
18.1639
19.3158
20.1082
20.4813
20.3939
19.8288
18.7963
17.3351
15.5114
13.4152
11.1535
8.84244
6.5972
4.52257
2.70408
1.20107
0.0426331
-0.773358
-1.27791
-1.52569
-1.58758
-1.5419
-1.46529
-1.42447
-1.46947
-1.62928
-1.91011
-2.29633
-2.75387
-3.23557
-3.68774
-4.05731
-4.29881
-4.38084
-4.29171
-4.04459
-3.68236
-3.28265
-2.9624
-2.87993
-3.23
-4.22477
-6.0517
-8.79924
-12.3454
-16.2117
-19.3995
-20.239
-16.2992
-4.41254
19.1342
58.2127
116.277
195.652
296.791
417.647
553.284
695.889
835.218
959.493
1056.66
1115.83
1128.72
1090.84
1002.31
868.054
697.441
503.371
300.884
105.543
-68.2522
-208.761
-308.06
-362.7
-373.832
-346.779
-290.168
-214.732
-131.956
-52.7419
13.7512
60.9645
85.4162
86.7724
67.5402
32.4532
-12.3463
-60.2108
-104.858
-141.103
-165.383
-176.02
-173.23
-158.886
-136.108
-108.736
-80.7634
-55.8186
-36.7362
-25.2787
-22.0182
-26.3814
-36.8337
-51.1651
-66.8327
-81.3089
-92.3926
-98.448
-98.5477
-92.5129
-80.8572
-64.6496
-45.3242
-24.4641
-3.59176
16.0113
33.4344
48.2073
60.3074
70.1116
78.3035
85.7544
93.3945
102.093
112.558
125.271
140.452
158.066
177.856
199.395
222.156
245.577
269.126
292.337
314.843
336.378
356.763
375.884
393.655
409.986
424.746
437.748
448.726
457.342
463.194
465.838
464.818
459.709
450.148
435.883
416.805
392.977
364.66
332.317
296.616
258.416
218.733
178.706
139.534
102.412
68.4541
38.6193
13.6357
-6.05648
-20.3435
-29.4498
-33.9187
-34.5629
-32.389
-28.5021
-24.003
-19.8871
-16.9574
-15.7619
-16.5596
-19.3199
-23.7534
-29.368
-35.5438
-41.6164
-46.9586
-51.0504
-53.5313
-54.23
-53.1689
-50.5458
-46.6975
-42.05
-37.0629
-32.1758
-27.7622
-24.095
-21.3289
-19.4967
-18.522
-18.242
-18.4388
-18.8728
-19.3148
-19.5731
-19.5116
-19.0596
-18.2108
-17.0155
-15.5653
-13.9752
-12.3649
-10.8412
-9.48572
-8.34618
-7.43445
-6.72939
-6.18419
-5.7365
-5.31982
-4.87432
-4.35572
-3.7411
-3.03111
-2.24863
-1.43421
-0.639356
0.0814369
0.678521
1.1139
1.36604
1.43229
1.32858
1.08688
0.750676
0.369287
-0.0080955
-0.337997
-0.587118
-0.735215
-0.776178
-0.717327
-0.577153
-0.381944
-0.161789
0.0534668
0.23784
0.371975
0.444814
0.454083
0.40566
0.312035
0.190193
0.0592692
-0.0616533
-0.155333
-0.20754
-0.20755
-0.148014
-0.0243837
0.165884
0.424077
0.750724
1.1457
1.60797
2.13504
2.72242
3.36306
4.04727
4.76283
5.49556
6.23015
6.951
7.64306
8.29251
8.88703
9.41592
9.87003
10.2415
10.5239
10.7119
10.802
10.7923
10.6837
10.4797
10.1867
9.81379
9.37211
8.87369
8.33029
7.75208
7.14654
6.51781
5.86645
5.18988
4.48321
3.74043
2.95566
2.1243
1.24382
0.314139
-0.662588
-1.68258
-2.74143
-3.83521
-4.96152
-6.12017
-7.31329
-8.54452
-9.81736
-11.1324
-12.4841
-13.8566
-15.2207
-16.5309
-17.7254
-18.7277
-19.4517
-19.8099
-19.7233
-19.1327
-18.0092
-16.3625
-14.2452
-11.7526
-9.01639
-6.19459
-3.45657
-0.966855
1.13139
2.73081
3.77043
4.24144
4.18721
3.69809
2.90129
1.94725
0.993846
0.190063
-0.339215
-0.505779
-0.266751
0.371614
1.35545
2.59005
3.95126
5.30026
6.50011
7.43209
8.00986
8.18956
7.97468
7.41485
6.5989
5.64292
4.67514
3.81955
3.1806
2.83098
2.80414
3.0923
3.65003
4.40265
5.25795
6.11947
6.89939
7.52924
7.96723
8.2013
8.24792
8.14711
7.95472
7.73314
7.54201
7.42999
7.42872
7.5494
7.78212
8.09756
8.4501
8.78133
9.02253
9.09494
8.90741
8.35211
7.30119
5.60989
3.13397
-0.228419
-4.46151
-9.31835
-14.1735
-17.8603
-18.5285
-13.5717
0.317984
26.9192
70.0488
132.946
217.538
323.708
448.702
586.831
729.582
866.182
984.608
1072.91
1120.68
1120.47
1068.9
967.304
821.834
642.921
444.221
241.139
49.1695
-117.777
-248.805
-337.082
-380.361
-380.961
-345.21
-282.468
-203.862
-120.91
-44.2042
17.6836
58.9736
77.0484
72.4163
48.3083
9.98957
-36.104
-83.282
-125.452
-157.809
-177.297
-182.802
-175.088
-156.501
-130.512
-101.163
-72.4913
-48.0261
-30.3864
-21.0399
-20.2276
-27.0495
-39.6833
-55.6961
-72.4001
-87.205
-97.9228
-102.993
-101.61
-93.7434
-80.0633
-61.7892
-40.4846
-17.8329
4.57947
25.4448
43.8632
59.4078
72.1255
82.479
91.2445
99.3812
107.892
117.696
129.517
143.822
160.78
180.276
201.948
225.255
249.554
274.178
298.509
322.027
344.344
365.205
384.477
402.112
418.107
432.451
445.087
455.869
464.548
470.767
474.076
473.965
469.912
461.438
448.161
429.855
406.493
378.276
345.651
309.309
270.161
229.305
187.964
147.428
108.971
73.7698
42.8258
16.89
-3.5931
-18.5203
-28.1368
-33.013
-33.9915
-32.1086
-28.4981
-24.2869
-20.4938
-17.9428
-17.1993
-18.537
-21.9358
-27.1129
-33.5785
-40.7114
-47.8427
-54.338
-59.6694
-63.4686
-65.5569
-65.9501
-64.8406
-62.5593
-59.5249
-56.1874
-52.9727
-50.2353
-48.2242
-47.0637
-46.7519
-47.173
-48.1222
-49.3386
-50.5404
-51.4592
-51.8688
-51.6064
-50.5836
-48.7884
-46.2782
-43.1668
-39.606
-35.7663
-31.8183
-27.9162
-24.1861
-20.7189
-17.5683
-14.7536
-12.2658
-10.0762
-8.14605
-6.43489
-4.90825
-3.54216
-2.32519
-1.25766
-0.348608
0.388603
0.941424
1.30285
1.47509
1.47171
1.31779
1.04835
0.70528
0.333237
-0.0248272
-0.331863
-0.560092
-0.693137
-0.726673
-0.667611
-0.532015
-0.342124
-0.122952
0.101054
0.308855
0.484858
0.619994
0.711839
0.763927
0.784509
0.785022
0.778549
0.778469
0.797397
0.846431
0.934657
1.06881
1.25302
1.48856
1.7737
2.10354
2.47002
2.86216
3.26644
3.6675
4.04888
4.39403
4.68721
4.91443
5.0642
5.12822
5.10174
4.98384
4.7774
4.4889
4.12796
3.70675
3.23924
2.74047
2.2258
1.71028
1.20819
0.732594
0.29515
-0.0941889
-0.427474
-0.699214
-0.906984
-1.05215
-1.14061
-1.18331
-1.19649
-1.20131
-1.22296
-1.28916
-1.42819
-1.66665
-2.02711
-2.52586
-3.17099
-3.96081
-4.88261
-5.91202
-7.01273
-8.13689
-9.22644
-10.2155
-11.0343
-11.614
-11.8933
-11.825
-11.3826
-10.5654
-9.40128
-7.94706
-6.28502
-4.51659
-2.75343
-1.10695
0.322447
1.45507
2.23948
2.65676
2.72136
2.47812
1.99634
1.36151
0.665909
-0.000813744
-0.56006
-0.950924
-1.13461
-1.09643
-0.845552
-0.412602
0.154386
0.795344
1.44441
2.03661
2.51439
2.83368
2.96873
2.91539
2.69234
2.33997
1.91694
1.49444
1.14869
0.952329
0.965627
1.22863
1.75525
2.53031
3.51016
4.62687
5.7959
6.92609
7.93091
8.73935
9.30501
9.61219
9.67792
9.54979
9.29982
9.015
8.78614
8.69617
8.80977
9.1656
9.77203
10.607
11.6214
12.7463
13.9007
15.0004
15.9653
16.7221
17.2041
17.3457
17.0737
16.3017
14.9324
12.8798
10.1219
6.79043
3.30121
0.511181
-0.124171
3.56258
14.4654
36.0667
72.1078
126.066
200.479
296.209
411.778
542.927
682.517
820.88
946.609
1047.73
1113.13
1133.97
1104.97
1025.28
898.836
734.132
543.388
341.277
143.337
-35.7121
-183.514
-291.319
-354.751
-374.047
-353.739
-301.874
-228.868
-146.174
-64.9248
5.26897
57.2529
86.8865
93.1992
78.1565
46.1021
2.97187
-44.6027
-90.1815
-128.287
-154.977
-168.163
-167.676
-155.073
-133.266
-106.005
-77.3232
-50.9978
-30.1003
-16.6808
-11.6113
-14.5907
-24.2946
-38.6357
-55.0927
-71.0591
-84.1675
-92.5525
-95.0256
-91.1501
-81.216
-66.1291
-47.2362
-26.1143
-4.35376
16.6367
35.7818
52.4339
66.404
77.932
87.6079
96.2572
104.811
114.179
125.135
138.239
153.792
171.824
192.121
214.275
237.75
261.951
286.29
310.236
333.351
355.302
375.858
394.865
412.217
427.822
441.565
453.279
462.731
469.612
473.547
474.117
470.889
463.458
451.493
434.775
413.246
387.031
356.464
322.094
284.676
245.155
204.621
164.267
125.317
88.9578
56.261
28.1047
5.10959
-12.4115
-24.4791
-31.4445
-33.9582
-32.9099
-29.3465
-24.3752
-19.0639
-14.3474
-10.9511
-9.33935
-9.69421
-11.9245
-15.7039
-20.5312
-25.8055
-30.9058
-35.2663
-38.4382
-40.1331
-40.2429
-38.8372
-36.1398
-32.4892
-28.2896
-23.9581
-19.8765
-16.3513
-13.5876
-11.6769
-10.6
-10.2432
-10.4237
-10.9204
-11.5063
-11.9778
-12.1778
-12.0104
-11.4461
-10.5182
-9.31126
-7.94444
-6.55163
-5.26199
-4.1828
-3.38675
-2.9049
-2.72569
-2.79961
-3.04847
-3.37777
-3.6902
-3.89865
-3.93693
-3.76703
-3.38226
-2.80612
-2.08745
-1.29257
-0.495819
0.230272
0.823896
1.24089
1.45899
1.47898
1.32301
1.03037
0.651516
0.241277
-0.147939
-0.472015
-0.699479
-0.81393
-0.81441
-0.713886
-0.536192
-0.311965
-0.0741739
0.146174
0.323637
0.440872
0.48992
0.472201
0.397395
0.281505
0.144472
0.00775578
-0.107775
-0.183391
-0.203354
-0.155086
-0.0287665
0.183442
0.488318
0.892427
1.40271
2.02671
2.77239
3.64754
4.65891
5.81105
7.10504
8.53726
10.0982
11.7719
13.535
15.3578
17.2042
19.0337
20.8033
22.4697
23.9918
25.3332
26.4642
27.3628
28.0161
28.42
28.5788
28.5042
28.2137
27.7294
27.0754
26.2766
25.3562
24.3342
23.2256
22.0393
20.7776
19.4361
18.0048
16.4695
14.8144
13.0243
11.088
9.00042
6.76449
4.39236
1.90498
-0.669317
-3.29721
-5.94351
-8.57449
-11.1608
-13.6799
-16.1169
-18.4651
-20.7242
-22.8992
-24.9974
-27.0268
-28.9935
-30.9004
-32.7466
-34.5266
-36.23
-37.8418
-39.3414
-40.7026
-41.8931
-42.8738
-43.5996
-44.0193
-44.0777
-43.7179
-42.8854
-41.5327
-39.6255
-37.1493
-34.1157
-30.5684
-26.5859
-22.2819
-17.8016
-13.3137
-8.99907
-5.03627
-1.58606
1.22367
3.31077
4.64765
5.26502
5.24955
4.73564
3.89175
2.90285
1.9507
1.19443
0.753615
0.695973
1.03143
1.71317
2.64575
3.69906
4.72641
5.58419
6.15054
6.3406
6.11639
5.4903
4.52194
3.30911
1.97438
0.649179
-0.542278
-1.49733
-2.1456
-2.45514
-2.43343
-2.12352
-1.59619
-0.939342
-0.246207
0.396158
0.916697
1.26749
1.42762
1.40357
1.22652
0.94711
0.628485
0.338729
0.143506
0.0997268
0.250633
0.622285
1.22098
2.03078
3.0102
4.08742
5.15417
6.05974
6.60883
6.5689
5.69516
3.78245
0.751974
-3.22369
-7.56367
-11.1101
-11.9843
-7.51776
5.6844
31.5003
73.8453
136.043
220.084
325.883
450.695
588.819
731.718
868.595
987.408
1076.2
1124.57
1125.07
1074.34
973.718
829.335
651.595
454.099
252.189
61.2833
-104.776
-235.153
-323.052
-366.238
-367.013
-331.663
-269.488
-191.543
-109.276
-33.2204
28.0933
68.9002
86.5713
81.5798
57.1044
18.3495
-28.3081
-76.2258
-119.341
-152.854
-173.691
-180.696
-174.576
-157.609
-133.196
-105.314
-77.9542
-54.6177
-37.9169
-29.3324
-29.1322
-36.4493
-49.4927
-65.8526
-82.8516
-97.8967
-108.785
-113.936
-112.519
-104.481
-90.4753
-71.7094
-49.7427
-26.2606
-2.85817
19.1424
38.8206
55.7227
69.8626
81.6637
91.8577
101.356
111.114
122.003
134.711
149.674
167.049
186.72
208.34
231.396
255.28
279.363
303.059
325.874
347.429
367.467
385.837
402.467
417.326
430.386
441.578
450.771
457.747
462.201
463.751
461.966
456.403
446.657
432.406
413.466
389.83
361.7
329.505
293.9
255.752
216.104
176.125
137.041
100.062
66.2965
36.6714
11.8631
-7.75595
-22.1444
-31.5905
-36.6802
-38.2377
-37.2431
-34.7378
-31.7262
-29.0851
-27.4913
-27.3733
-28.8926
-31.9553
-36.2496
-41.305
-46.5645
-51.4595
-55.4798
-58.2312
-59.4728
-59.1347
-57.3125
-54.2436
-50.2689
-45.7855
-41.1979
-36.8726
-33.1016
-30.0786
-27.8881
-26.5095
-25.8318
-25.6774
-25.8312
-26.0697
-26.1883
-26.0229
-25.4636
-24.461
-23.024
-21.2119
-19.1205
-16.8672
-14.574
-12.3538
-10.2985
-8.47187
-6.90705
-5.60779
-4.5534
-3.70601
-3.01885
-2.44435
-1.94102
-1.4782
-1.03856
-0.618009
-0.223613
0.130039
0.425255
0.64566
0.779924
0.824279
0.783555
0.67073
0.505213
0.310267
0.110032
-0.0733596
-0.222182
-0.324747
-0.376116
-0.377906
-0.33731
-0.265544
-0.175984
-0.0822662
0.00340816
0.071581
0.116338
0.135571
0.130725
0.106146
0.0681377
0.023901
-0.0195113
-0.0560835
-0.0814843
-0.0934187
-0.0916749
-0.0778994
-0.0551593
-0.027375
0.00129059
0.0270031
0.0467193
0.0584958
0.0616209
0.0565734
0.0448336
0.0285857
0.0103634
-0.00731176
-0.0222509
-0.0328415
-0.038192
-0.0381691
-0.0333343
-0.0247997
-0.0140292
-0.00261573
0.00793375
0.0163796
0.021878
0.0240457
0.0229598
0.0190995
0.013243
0.00633796
-0.000635815
-0.00679344
-0.0114462
-0.0141677
-0.0148196
-0.0135388
-0.0106909
-0.00679998
-0.00246595
0.00171909
0.0052445
0.00773675
0.00899182
0.00898301
0.0078454
0.00584177
0.00331597
0.000641077
-0.00183066
-0.00380991
-0.00509996
-0.0056117
-0.00536333
-0.00446676
-0.00310354
-0.00149467
0.000131422
0.00156838
0.00265553
0.00329327
0.00344909
0.00315454
0.00249448
0.00159073
0.000582844
-0.000391352
-0.0012129
-0.00179466
-0.00208892
-0.00208919
-0.00182664
-0.00136219
-0.000775443
-0.00015113
0.000439489
0.000971544
0.00153377
0.0024613
0.00457225
0.00954344
0.020444
0.0424104
0.0833949
0.154854
0.272192
0.454743
0.725122
1.10784
1.62719
2.30463
3.15587
4.18809
5.39764
6.76874
8.27324
9.87181
11.5165
13.154
14.7308
16.1967
17.5102
18.6417
19.5757
20.3119
20.8641
21.2577
21.5254
21.7027
21.8228
21.9112
21.9829
22.0392
22.0681
22.0448
21.9358
21.7019
21.3042
20.7088
19.8909
18.8387
17.5552
16.0581
14.3787
12.5593
10.6492
8.70027
6.76278
4.88141
3.09213
1.4202
-0.120652
-1.52803
-2.80964
-3.98156
-5.06593
-6.08867
-7.07707
-8.05772
-9.05456
-10.0874
-11.1705
-12.312
-13.5134
-14.7694
-16.0686
-17.3941
-18.7249
-20.0377
-21.3077
-22.5112
-23.6263
-24.6344
-25.5211
-26.2759
-26.8926
-27.3677
-27.6995
-27.886
-27.9225
-27.8004
-27.5045
-27.0135
-26.2993
-25.3295
-24.07
-22.4895
-20.5648
-18.2859
-15.6612
-12.7208
-9.51843
-6.13003
-2.65024
0.814208
4.15303
7.2621
10.053
12.4614
14.4525
16.0233
17.2008
18.0364
18.5972
18.9554
19.1773
19.3135
19.3921
19.4147
19.3576
19.1765
18.8145
18.2128
17.3211
16.1085
14.5705
12.734
10.6569
8.42512
6.14443
3.93073
1.89827
0.148049
-1.2425
-2.22721
-2.79546
-2.97259
-2.81639
-2.41029
-1.854
-1.2528
-0.706679
-0.300665
-0.0972517
-0.131767
-0.411029
-0.9153
-1.60322
-2.41919
-3.30272
-4.19928
-5.07247
-5.91706
-6.772
-7.73084
-8.9448
-10.6112
-12.938
-16.0741
-20.0002
-24.3807
-28.3912
-30.5529
-28.6188
-19.5675
0.240578
34.7114
87.4686
161.156
256.687
372.578
504.507
645.242
785
912.266
1014.98
1081.96
1104.32
1076.78
998.484
873.356
709.87
520.214
319.015
121.752
-56.9083
-204.656
-312.764
-376.849
-397.107
-377.999
-327.474
-255.834
-174.416
-94.2477
-24.8523
26.6716
56.2071
62.7742
48.3013
17.0749
-25.0374
-71.4737
-115.857
-152.76
-178.274
-190.328
-188.754
-175.101
-152.258
-123.953
-94.1947
-66.7374
-44.6354
-29.9293
-23.4917
-25.0351
-33.2634
-46.1336
-61.1834
-75.877
-87.9234
-95.5316
-97.5765
-93.6642
-84.1004
-69.7746
-51.9844
-32.2289
-11.9995
7.40527
25.019
40.2904
53.1039
63.7444
72.8151
81.1256
89.5669
98.9904
110.106
123.41
139.145
157.298
177.628
199.718
223.04
247.025
271.126
294.865
317.866
339.862
360.686
380.243
398.478
415.335
430.718
444.469
456.346
466.023
473.099
477.125
477.631
474.169
466.356
453.91
436.69
414.72
388.212
357.568
323.38
286.416
247.591
207.935
168.55
130.552
95.0193
62.9246
35.0768
12.0655
-5.78255
-18.4292
-26.1296
-29.4127
-29.0383
-25.9331
-21.1117
-15.5896
-10.2982
-6.00943
-3.27875
-2.41176
-3.4575
-6.2282
-10.342
-15.2828
-20.47
-25.3293
-29.3569
-32.1701
-33.5406
-33.4066
-31.8653
-29.1486
-25.5847
-21.5535
-17.4401
-13.5922
-10.2865
-7.7065
-5.9338
-4.95175
-4.66023
-4.8983
-5.4713
-6.17844
-6.83774
-7.30541
-7.48815
-7.34768
-6.89787
-6.19585
-5.32875
-4.39836
-3.50585
-2.73822
-2.15821
-1.79827
-1.65907
-1.71222
-1.90638
-2.17591
-2.45049
-2.66466
-2.76596
-2.7208
-2.51754
-2.1665
-1.69724
-1.1536
-0.587281
-0.0509091
0.408596
0.755461
0.968771
1.04407
0.992765
0.839504
0.618043
0.366244
0.121046
-0.0858299
-0.230857
-0.300117
-0.289222
-0.202132
-0.0493578
0.153945
0.38964
0.637864
0.87791
1.08892
1.25065
1.34447
1.3548
1.27082
1.08829
0.811106
0.452234
0.0336303
-0.415004
-0.858649
-1.26033
-1.58497
-1.80318
-1.89433
-1.84832
-1.66586
-1.35699
-0.938206
-0.428716
0.153507
0.795048
1.48906
2.23541
3.03888
3.90548
4.83751
5.82826
6.85721
7.88696
8.86251
9.7135
10.3595
10.7176
10.7122
10.285
9.40372
8.0696
6.32064
4.23116
1.90708
-0.522773
-2.91822
-5.14084
-7.0671
-8.59976
-9.67632
-10.2734
-10.4069
-10.1273
-9.5125
-8.65699
-7.66086
-6.61886
-5.61132
-4.69777
-3.91381
-3.27139
-2.762
-2.36201
-2.03924
-1.75971
-1.49353
-1.2193
-0.926594
-0.616336
-0.299378
0.00639786
0.279832
0.500486
0.65226
0.726097
0.721429
0.646211
0.515644
0.349886
0.171185
0.000919835
-0.142999
-0.248014
-0.307909
-0.322834
-0.298495
-0.244694
-0.173518
-0.0974474
-0.0276661
0.027241
0.0620669
0.0752064
0.0683681
0.0458787
0.0137252
-0.0215001
-0.0535998
-0.0775854
-0.0902109
-0.0901794
-0.0780202
-0.0556859
-0.0259645
0.00817337
0.0441685
0.0803101
0.115955
0.151512
0.188207
0.22767
0.271409
0.320221
0.373637
0.429463
0.483532
0.529741
0.560472
0.567417
0.542765
0.48065
0.378642
0.239048
0.0697525
-0.115608
-0.29829
-0.455919
-0.564707
-0.602188
-0.550168
-0.397533
-0.142541
0.205739
0.627085
1.091
1.55881
1.98677
2.33001
2.54685
2.60317
2.47643
2.1588
1.65917
1.00365
0.234313
-0.593675
-1.4163
-2.16577
-2.77558
-3.18504
-3.34263
-3.20807
-2.75332
-1.96274
-0.833089
0.626657
2.39514
4.43851
6.71045
9.15285
11.6975
14.2689
16.7884
19.1796
21.3734
23.3138
24.962
26.2994
27.327
28.0637
28.5413
28.798
28.8711
28.7895
28.5688
28.2078
27.6885
26.9792
26.0404
24.8325
23.3244
21.5015
19.3714
16.9673
14.3481
11.5942
8.80108
6.0709
3.50272
1.18356
-0.819131
-2.46249
-3.73028
-4.63192
-5.19891
-5.47927
-5.53097
-5.41516
-5.19011
-4.90634
-4.60344
-4.30846
-4.03597
-3.78941
-3.56372
-3.34894
-3.13492
-2.91738
-2.70538
-2.53039
-2.45583
-2.58453
-3.05933
-4.04944
-5.7134
-8.12967
-11.189
-14.4509
-16.9794
-17.1883
-12.7418
-0.565032
22.9842
61.7501
119.223
197.843
298.263
418.7
554.531
698.25
839.866
967.754
1069.85
1135.1
1154.85
1124.11
1042.39
913.992
747.703
555.973
353.583
156.062
-21.9878
-168.413
-274.713
-336.772
-355.054
-334.264
-282.536
-210.293
-128.911
-49.3868
18.8482
68.8256
96.5733
101.246
84.8777
51.8121
7.92424
-40.2661
-86.463
-125.343
-153.102
-167.761
-169.206
-158.997
-139.985
-115.81
-90.3488
-67.197
-49.2348
-38.3305
-35.2011
-39.4336
-49.6453
-63.752
-79.2963
-93.7915
-105.033
-111.345
-111.734
-105.938
-94.3903
-78.0851
-58.3991
-36.8793
-15.0353
5.84085
24.8072
41.3447
55.3689
67.1858
77.4041
86.8198
96.2918
106.625
118.473
132.274
148.221
166.262
186.14
207.438
229.653
252.257
274.758
296.739
317.887
337.996
356.954
374.712
391.257
406.564
420.57
433.142
444.064
453.03
459.657
463.502
464.093
460.967
453.713
442.011
425.669
404.659
379.134
349.444
316.138
279.949
241.775
202.645
163.672
126
90.7385
58.8979
31.3188
8.61421
-8.8787
-21.126
-28.4014
-31.2632
-30.5076
-27.0976
-22.0791
-16.4885
-11.2641
-7.16964
-4.73801
-4.24097
-5.68688
-8.84576
-13.2975
-18.4966
-23.8457
-28.7681
-32.7726
-35.5026
-36.7662
-36.5445
-34.9786
-32.3404
-28.9893
-25.3234
-21.7299
-18.5416
-16.0034
-14.2528
-13.3144
-13.1094
-13.4754
-14.1961
-15.0331
-15.7593
-16.186
-16.1839
-15.6944
-14.731
-13.3709
-11.7404
-9.99372
-8.29102
-6.77651
-5.56064
-4.70778
-4.23085
-4.09302
-4.21596
-4.49303
-4.80543
-5.03893
-5.099
-4.92236
-4.48371
-3.79695
-2.91122
-1.90247
-0.861949
0.116605
0.949551
1.57394
1.95495
2.08936
2.0048
1.75508
1.41242
1.05756
0.769329
0.614688
0.640759
0.869652
1.29678
1.89284
2.60904
3.38481
4.15666
4.8667
5.46954
5.93654
6.25691
6.43595
6.4909
6.44552
6.32434
6.1478
5.92881
5.6714
5.3713
5.01834
4.60003
4.10558
3.52971
2.87548
2.1559
1.3939
0.620834
-0.126251
-0.808191
-1.38761
-1.83261
-2.11981
-2.23627
-2.18031
-1.96089
-1.59605
-1.1104
-0.532215
0.109471
0.787466
1.47833
2.16342
2.82906
3.46589
4.06762
4.62937
5.1461
5.61118
6.01555
6.34743
6.59287
6.73691
6.76529
6.66652
6.43389
6.06721
5.57396
4.9696
4.27696
3.52472
2.74502
1.97056
1.23146
0.552175
-0.0510932
-0.572219
-1.01597
-1.39764
-1.74154
-2.07842
-2.44203
-2.86521
-3.37595
-3.9938
-4.727
-5.57089
-6.50764
-7.50744
-8.53122
-9.53448
-10.472
-11.3031
-11.9963
-12.534
-12.9149
-13.155
-13.2859
-13.3508
-13.3986
-13.4769
-13.6248
-13.8673
-14.2111
-14.6437
-15.1347
-15.6399
-16.1059
-16.4763
-16.6971
-16.7205
-16.5078
-16.0304
-15.2688
-14.212
-12.8547
-11.1968
-9.24198
-6.99876
-4.48191
-1.715
1.26687
4.41478
7.66501
10.9398
14.15
17.2006
19.9967
22.4513
24.4927
26.0708
27.1608
27.7647
27.9092
27.6402
27.0162
26.0993
24.9468
23.6047
22.1027
20.453
18.6527
16.6882
14.5426
12.2036
9.6713
6.96408
4.122
1.20716
-1.69932
-4.50316
-7.10483
-9.40858
-11.3314
-12.8105
-13.8094
-14.3205
-14.365
-13.9905
-13.2653
-12.2716
-11.0976
-9.82992
-8.54615
-7.30974
-6.16637
-5.14263
-4.24671
-3.47071
-2.79413
-2.18814
-1.62006
-1.05833
-0.478304
0.130485
0.754959
1.34777
1.81763
2.02603
1.79838
0.959772
-0.594756
-2.78926
-5.21792
-6.97393
-6.48862
-1.42849
11.2931
35.3367
74.5581
132.436
211.359
311.881
432.074
567.14
709.397
848.716
973.399
1071.42
1131.87
1146.36
1110.27
1023.53
890.862
721.452
528.044
325.592
129.642
-45.3411
-187.482
-288.665
-345.227
-358.099
-332.417
-276.675
-201.541
-118.518
-38.6002
28.8969
77.212
102.641
104.635
85.5212
49.9069
3.8816
-45.8806
-92.9927
-132.099
-159.413
-173.014
-172.87
-160.642
-139.289
-112.561
-84.4437
-58.6387
-38.1269
-24.8709
-19.6744
-22.1991
-31.1228
-44.4012
-59.5929
-74.1973
-85.9661
-93.1486
-94.6521
-90.1037
-79.819
-64.691
-46.0217
-25.3231
-4.11538
16.2542
34.7507
50.7398
64.0176
74.7877
83.5931
91.2165
98.5639
106.548
115.983
127.503
141.512
158.16
177.356
198.801
222.04
246.526
271.673
296.916
321.743
345.724
368.514
389.848
409.518
427.354
443.191
456.845
468.092
476.659
482.218
484.406
482.839
477.151
467.029
452.254
432.74
408.566
379.998
347.499
311.725
273.507
233.822
193.746
154.406
116.907
82.2731
51.3743
24.868
3.15116
-13.6677
-25.772
-33.616
-37.8781
-39.3945
-39.0786
-37.8353
-36.4803
-35.6709
-35.8582
-37.2631
-39.8791
-43.499
-47.7618
-52.2138
-56.3736
-59.7963
-62.1266
-63.137
-62.7483
-61.0292
-58.1791
-54.4966
-50.3385
-46.0755
-42.0501
-38.5409
-35.7387
-33.7338
-32.517
-31.9916
-31.9941
-32.3208
-32.7554
-33.0952
-33.1727
-32.8697
-32.1248
-30.9321
-29.3343
-27.4105
-25.2615
-22.9936
-20.7058
-18.4781
-16.3657
-14.3966
-12.5746
-10.8848
-9.30179
-7.79854
-6.35386
-4.95836
-3.61732
-2.35053
-1.18922
-0.170899
0.667162
1.2944
1.69263
1.85981
1.81167
1.5807
1.21304
0.763509
0.289692
-0.15416
-0.52262
-0.783276
-0.919163
-0.929257
-0.82707
-0.637686
-0.393684
-0.130553
0.117813
0.322991
0.464876
0.533244
0.527976
0.45808
0.339793
0.194154
0.0444766
-0.0859037
-0.175336
-0.204897
-0.158809
-0.0244017
0.208138
0.545963
0.993531
1.55222
2.21964
2.98877
3.84713
4.77622
5.75144
6.74264
7.7152
8.63189
9.45493
10.1485
10.6811
11.028
11.1725
11.1081
10.8382
10.3765
9.74627
8.97856
8.11046
7.18279
6.23766
5.31606
4.45571
3.68922
3.04261
2.53429
2.17441
1.96458
1.89795
1.95949
2.12658
2.36974
2.65363
2.9382
3.18016
3.33473
3.35775
3.20802
2.84981
2.25535
1.40718
0.299962
-1.05816
-2.64503
-4.4247
-6.3484
-8.35619
-10.3791
-12.3416
-14.1645
-15.768
-17.075
-18.0148
-18.5277
-18.5693
-18.1153
-17.1663
-15.7502
-13.9242
-11.7731
-9.40549
-6.94703
-4.53086
-2.28706
-0.331551
1.24412
2.38088
3.05729
3.29111
3.13731
2.68273
2.03787
1.32674
0.675315
0.199807
-0.00466284
0.126228
0.618753
1.45729
2.58455
3.90623
5.29991
6.62752
7.75016
8.54361
8.91272
8.80286
8.20708
7.16784
5.7732
4.14782
2.43983
0.805352
-0.60768
-1.67426
-2.30403
-2.4486
-2.10404
-1.30816
-0.133629
1.32239
2.95031
4.64057
6.29477
7.83444
9.20643
10.3848
11.369
12.1797
12.8522
13.4286
13.951
14.4549
14.9642
15.4883
16.02
16.5346
16.9894
17.3215
17.4452
17.249
16.5958
15.3308
13.3068
10.4352
6.77122
2.6364
-1.22884
-3.50583
-2.16974
5.55488
23.0995
54.2743
102.792
171.624
262.26
374.004
503.445
644.242
787.34
921.628
1035.02
1115.84
1154.24
1143.59
1081.5
970.34
817.191
633.219
432.515
230.577
42.6412
-117.945
-241.079
-320.843
-355.919
-349.45
-308.403
-242.523
-163.051
-81.3515
-7.64313
50.0328
86.5021
99.7469
90.796
63.2648
22.6331
-24.6279
-71.9571
-113.522
-144.861
-163.29
-168.045
-160.167
-142.188
-117.642
-90.5219
-64.7225
-43.5545
-29.382
-23.4121
-25.6508
-35.011
-49.5468
-66.7715
-84.0113
-98.7485
-108.912
-113.086
-110.614
-101.607
-86.8485
-67.6329
-45.5574
-22.2977
0.600695
21.8923
40.7464
56.7979
70.1355
81.2357
90.8572
99.9132
109.34
119.977
132.478
147.247
164.42
183.877
205.282
228.144
251.888
275.923
299.696
322.739
344.688
365.288
384.377
401.856
417.66
431.715
443.905
454.044
461.868
467.025
469.096
467.625
462.153
452.271
437.669
418.184
393.84
364.878
331.773
295.228
256.16
215.661
174.946
135.288
97.9385
64.0487
34.5888
10.2776
-8.47239
-21.5861
-29.3308
-32.2918
-31.3197
-27.4545
-21.8327
-15.5875
-9.75164
-5.17311
-2.45273
-1.90868
-3.57162
-7.20921
-12.3761
-18.4825
-24.8727
-30.9042
-36.0185
-39.7969
-41.9947
-42.5537
-41.5915
-39.3724
-36.2639
-32.685
-29.0542
-25.7422
-23.0348
-21.1095
-20.0271
-19.7379
-20.1001
-20.9072
-21.9204
-22.901
-23.6395
-23.9777
-23.8224
-23.1497
-22.0004
-20.4679
-18.6818
-16.7876
-14.9277
-13.2243
-11.7658
-10.5999
-9.73075
-9.12274
-8.70879
-8.40183
-8.10815
-7.74066
-7.2304
-6.53472
-5.64129
-4.56744
-3.35536
-2.06386
-0.758254
0.500218
1.66363
2.70414
3.61726
4.42146
5.15423
5.86546
6.60909
7.43459
8.37916
9.46203
10.6814
12.0143
13.4193
14.8419
16.221
17.4964
18.6159
19.5409
20.2507
20.7435
21.0351
21.1559
21.1449
21.0437
20.8901
20.7117
20.5227
20.3211
20.0897
19.7987
19.4104
18.8851
18.1872
17.2911
16.1852
14.8737
13.3771
11.7292
9.97314
8.1562
6.32414
4.51615
2.76113
1.07571
-0.535754
-2.07944
-3.56885
-5.02089
-6.45184
-7.87403
-9.29355
-10.7095
-12.1147
-13.4976
-14.8453
-16.1462
-17.3932
-18.5857
-19.7302
-20.8401
-21.9341
-23.033
-24.1563
-25.3181
-26.5237
-27.7657
-29.0221
-30.2552
-31.4118
-32.4252
-33.2185
-33.7093
-33.8157
-33.4626
-32.5896
-31.158
-29.1574
-26.6112
-23.5791
-20.1571
-16.4736
-12.682
-8.95014
-5.44651
-2.32638
0.282615
2.2927
3.66479
4.4127
4.60199
4.34319
3.77996
3.07334
2.38372
1.85268
1.58689
1.64607
2.0366
2.7118
3.57879
4.51138
5.3672
6.00708
6.31393
6.2089
5.6625
4.69944
3.39654
1.87422
0.282721
-1.21499
-2.46139
-3.32148
-3.6966
-3.53367
-2.82873
-1.62489
-0.00506843
1.91924
4.02157
6.17481
8.26452
10.1997
11.9201
13.3995
14.6451
15.6929
16.6005
17.438
18.278
19.1871
20.2174
21.4022
22.7532
24.2609
25.8964
27.6137
29.3507
31.0269
32.5386
33.7517
34.4956
34.5648
33.7372
31.8187
28.7243
24.5983
19.9707
15.9269
14.259
17.546
29.1075
52.7821
92.5046
151.696
232.533
335.201
457.286
593.441
735.45
872.751
993.4
1085.37
1138.01
1143.47
1097.86
1001.96
861.357
686.01
489.22
286.223
92.5303
-77.7324
-213.296
-306.834
-355.553
-361.229
-329.716
-270.021
-193.067
-110.336
-32.5518
31.4492
75.5188
96.6183
94.8322
73.0124
36.1289
-9.56616
-57.4426
-101.347
-136.307
-159.019
-168.074
-163.928
-148.64
-125.444
-98.2099
-70.891
-47.0122
-29.2674
-19.2616
-17.4158
-23.0297
-34.4768
-49.4963
-65.5329
-80.0792
-90.978
-96.6504
-96.2301
-89.5963
-77.3115
-60.4818
-40.5648
-19.1541
2.23013
22.3189
40.2224
55.4973
68.1512
78.5918
87.5315
95.8659
104.543
114.44
126.262
140.476
157.275
176.584
198.096
221.326
245.683
270.542
295.304
319.445
342.546
364.296
384.489
402.991
419.713
434.572
447.452
458.182
466.515
472.124
474.617
473.56
468.513
459.079
444.951
425.959
402.111
373.624
340.942
304.732
265.872
225.417
184.549
144.518
106.566
71.8518
41.3682
15.8755
-4.15817
-18.5923
-27.6248
-31.7744
-31.8344
-28.8017
-23.7879
-17.9203
-12.2441
-7.63518
-4.73278
-3.8996
-5.21154
-8.47779
-13.2876
-19.0768
-25.2061
-31.0407
-36.023
-39.7298
-41.9097
-42.4966
-41.6003
-39.478
-36.4903
-33.0489
-29.5642
-26.3963
-23.8184
-21.9931
-20.9654
-20.6703
-20.9536
-21.6014
-22.3748
-23.0437
-23.4159
-23.3593
-22.8128
-21.7875
-20.3583
-18.6469
-16.8014
-14.9731
-13.2959
-11.8696
-10.7491
-9.94074
-9.40589
-9.06985
-8.83533
-8.59799
-8.2619
-7.75293
-7.02833
-6.08154
-4.94191
-3.66956
-2.34646
-1.0651
0.0836935
1.02212
1.6945
2.07314
2.16042
1.98708
1.60712
1.09033
0.513359
-0.0493167
-0.533498
-0.891489
-1.09586
-1.14047
-1.03891
-0.82075
-0.526157
-0.199796
0.115346
0.383453
0.580098
0.694825
0.731873
0.709085
0.655177
0.605754
0.598536
0.668366
0.842579
1.13727
1.55494
2.08376
2.69857
3.36352
4.03595
4.67096
5.22618
5.66603
5.96496
6.10933
6.09783
5.94047
5.65647
5.27143
4.81434
4.31474
3.80057
3.29669
2.82429
2.40086
2.04071
1.75543
1.55436
1.44453
1.43022
1.5121
1.68602
1.94201
2.26338
2.6266
3.00192
3.35478
3.64806
3.84479
3.91112
3.81908
3.54886
3.09034
2.44358
1.61844
0.633226
-0.487158
-1.71334
-3.01343
-4.35442
-5.70291
-7.02497
-8.28538
-9.4467
-10.4685
-11.3074
-11.9187
-12.2593
-12.2917
-11.9897
-11.3437
-10.3646
-9.08732
-7.57041
-5.89345
-4.15145
-2.44689
-0.880375
0.458961
1.50211
2.20677
2.56101
2.58361
2.32116
1.84229
1.22995
0.572619
-0.0444471
-0.547044
-0.878264
-1.00269
-0.908368
-0.606611
-0.129809
0.472426
1.13845
1.8007
2.39229
2.8536
3.13841
3.21894
3.08934
2.76717
2.29254
1.72488
1.13735
0.60957
0.219149
0.033129
0.100284
0.445305
1.0657
1.93195
2.99097
4.1727
5.39884
6.59279
7.68942
8.6433
9.43428
10.0696
10.5821
11.0255
11.466
11.9731
12.6097
13.4239
14.443
15.6706
17.0869
18.653
20.3162
22.0172
23.6961
25.2972
26.7699
28.0666
29.1356
29.9116
30.3045
30.1928
29.4251
27.8425
25.3276
21.8919
17.801
13.7334
10.9464
11.4135
17.8777
33.7669
62.9241
109.137
175.49
263.626
373.023
500.448
639.729
781.932
916.018
1029.89
1111.78
1151.67
1142.72
1082.25
972.379
819.958
635.989
434.49
230.99
40.8467
-122.386
-248.349
-330.85
-368.312
-363.67
-323.754
-258.263
-178.474
-95.8682
-20.8395
38.3655
76.3638
90.9528
83.0234
56.1161
15.7045
-31.6801
-79.3613
-121.354
-153.029
-171.541
-175.991
-167.33
-148.047
-121.692
-92.3174
-63.9164
-39.9251
-22.8447
-14.0207
-13.5886
-20.5764
-33.1352
-48.8543
-65.1145
-79.4295
-89.7354
-94.5964
-93.3113
-85.9177
-73.1038
-56.0506
-36.2305
-15.1936
5.63181
25.0998
42.4534
57.3715
69.9551
80.6638
90.2156
99.467
109.29
120.461
133.578
149.004
166.85
186.986
209.076
232.642
257.119
281.921
306.491
330.343
353.082
374.408
394.107
412.03
428.065
442.104
454.021
463.64
470.73
474.997
476.096
473.651
467.285
456.662
441.529
421.754
397.369
368.593
335.852
299.78
261.215
221.162
180.757
141.206
103.719
69.4264
39.3073
14.1114
-5.69794
-19.9837
-28.9466
-33.108
-33.263
-30.4075
-25.6473
-20.0971
-14.7815
-10.5483
-8.00298
-7.47107
-8.99211
-12.3435
-17.0908
-22.6569
-28.4012
-33.6995
-38.0147
-40.9519
-42.2916
-42.0005
-40.2193
-37.2313
-33.4175
-29.2045
-25.0113
-21.2028
-18.0532
-15.7243
-14.2585
-13.5875
-13.5527
-13.9351
-14.4897
-14.9793
-15.2049
-15.027
-14.3792
-13.2694
-11.7722
-10.0132
-8.14814
-6.33912
-4.73313
-3.44348
-2.53758
-2.03154
-1.89202
-2.04437
-2.38557
-2.7998
-3.17453
-3.41483
-3.4543
-3.2614
-2.84066
-2.22918
-1.48901
-0.696947
0.0669887
0.730533
1.23838
1.55845
1.68455
1.63546
1.4508
1.18463
0.898015
0.651669
0.499803
0.485705
0.639284
0.976347
1.49917
2.19789
3.05222
4.03327
5.10534
6.22771
7.35648
8.44665
9.45433
10.3391
11.0664
11.6099
11.9528
12.0894
12.0249
11.7753
11.3655
10.8278
10.1988
9.51694
8.81944
8.13998
7.50626
6.93843
6.4481
6.03802
5.70257
5.42879
5.19797
4.98755
4.77328
4.53118
4.23945
3.87976
3.43829
2.90601
2.27876
1.55682
0.744469
-0.150551
-1.11747
-2.14282
-3.21079
-4.3035
-5.40153
-6.48458
-7.53251
-8.52647
-9.45035
-10.2922
-11.0454
-11.7098
-12.2922
-12.8058
-13.2698
-13.7071
-14.1418
-14.5959
-15.0853
-15.6159
-16.1796
-16.7522
-17.2921
-17.7413
-18.03
-18.0822
-17.8252
-17.1991
-16.1665
-14.7209
-12.8918
-10.7458
-8.3828
-5.92855
-3.52275
-1.30538
0.597626
2.08752
3.10296
3.62621
3.68455
3.34681
2.71531
1.91417
1.07536
0.323811
-0.236413
-0.533494
-0.535304
-0.252007
0.266533
0.938293
1.66065
2.32457
2.82957
3.09762
3.08421
2.785
2.23744
1.51692
0.728086
-0.00764813
-0.56678
-0.838732
-0.739323
-0.221001
0.7214
2.05003
3.68849
5.5308
7.45346
9.32931
11.0413
12.4945
13.6254
14.4071
14.8507
15.0014
14.9325
14.7355
14.5095
14.35
14.3393
14.5385
14.983
15.681
16.6148
17.7455
19.0189
20.3735
21.7469
23.0823
24.3323
25.4599
26.4357
27.2321
27.8128
28.1216
28.0702
27.5323
26.3502
24.3632
21.4688
17.7223
13.4763
9.54599
7.37484
9.15405
17.8431
37.0351
70.6299
122.307
194.842
289.354
404.62
536.598
678.305
820.124
950.578
1057.49
1129.38
1156.97
1134.42
1060.32
938.099
775.813
585.417
381.503
179.729
-4.87049
-159.473
-274.758
-345.739
-372.069
-357.789
-310.587
-240.689
-159.529
-78.389
-7.15243
46.6627
78.5167
87.0533
73.9108
43.1965
0.719339
-46.9042
-93.1489
-132.376
-160.435
-175.022
-175.771
-164.093
-142.813
-115.666
-86.7312
-59.8816
-38.3114
-24.2009
-18.5383
-21.1108
-30.6454
-45.0688
-61.8395
-78.3063
-92.0424
-101.119
-104.286
-101.056
-91.6803
-77.0364
-58.4546
-37.5041
-15.7742
5.32217
24.7011
41.702
56.118
68.1669
78.4118
87.6491
96.7795
106.682
118.106
131.589
147.416
165.609
185.953
208.044
231.357
255.311
279.335
302.919
325.643
347.194
367.358
385.998
403.024
418.357
431.892
443.472
452.867
459.77
463.807
464.554
461.574
454.459
442.875
426.605
405.59
379.961
350.053
316.417
279.806
241.153
201.532
162.107
124.071
88.5715
56.6392
29.1152
6.58885
-10.6476
-22.6228
-29.6826
-32.4585
-31.8102
-28.7464
-24.3324
-19.5943
-15.4291
-12.5319
-11.3464
-12.0441
-14.5331
-18.4944
-23.4405
-28.7875
-33.9326
-38.3272
-41.5382
-43.29
-43.4854
-42.2028
-39.6744
-36.2464
-32.3305
-28.3509
-24.6948
-21.6713
-19.4838
-18.2161
-17.8353
-18.2072
-19.1224
-20.3293
-21.5679
-22.6021
-23.2447
-23.3753
-22.9466
-21.9828
-20.5681
-18.8297
-16.9173
-14.9818
-13.1561
-11.5404
-10.1931
-9.1281
-8.31859
-7.70558
-7.21031
-6.74817
-6.24218
-5.63434
-4.89318
-4.01702
-3.03247
-1.98882
-0.94934
0.0192025
0.857187
1.52134
1.99131
2.27262
2.39586
2.41218
2.38596
2.38576
2.47489
2.70294
3.09949
3.67072
4.3993
5.24743
6.1625
7.08429
7.95286
8.71592
9.33474
9.78797
10.073
10.205
10.2132
10.1365
10.0173
9.89537
9.80304
9.76075
9.77509
9.83851
9.93099
10.0232
10.081
10.0699
9.95968
9.72802
9.36306
8.86415
8.24132
7.51322
6.70411
5.84024
4.9463
4.04227
3.14126
2.24848
1.36146
0.471529
-0.433893
-1.36831
-2.3431
-3.36484
-4.43335
-5.54082
-6.67218
-7.80669
-8.9204
-9.98945
-10.9934
-11.9182
-12.7587
-13.5198
-14.2164
-14.8714
-15.5133
-16.1715
-16.8718
-17.631
-18.4528
-19.3233
-20.2097
-21.0597
-21.8035
-22.3592
-22.6389
-22.558
-22.0449
-21.0511
-19.5595
-17.591
-15.2062
-12.5041
-9.61512
-6.69074
-3.89001
-1.36452
0.756377
2.37829
3.45105
3.97346
3.99275
3.59905
2.9152
2.08299
1.24752
0.541093
0.068739
-0.103088
0.0467909
0.493039
1.16823
1.97246
2.78692
3.48975
3.97219
4.15285
3.98845
3.47952
2.67065
1.64519
0.515387
-0.590775
-1.54414
-2.22857
-2.55305
-2.46037
-1.93167
-0.986634
0.320421
1.90762
3.67487
5.51421
7.32014
8.99882
10.4756
11.6999
12.6482
13.3233
13.7521
13.9812
14.0703
14.086
14.0943
14.1547
14.3145
14.6056
15.0422
15.6211
16.3237
17.1189
17.9679
18.8288
19.6621
20.4338
21.1165
21.6862
22.1141
22.3531
22.3242
21.9057
20.9373
19.2483
16.722
13.4035
9.64832
6.29835
4.85165
7.57974
17.5341
38.3872
74.0717
128.22
203.452
300.612
418.097
551.418
693.139
833.264
960.089
1061.42
1126.03
1145.11
1113.55
1030.78
901.105
733.4
540.248
336.609
138.194
-40.233
-186.409
-291.795
-352.314
-368.543
-345.364
-291.126
-216.474
-132.991
-51.8374
17.4537
67.8859
95.5339
99.6674
82.4865
48.5354
3.89574
-44.7219
-90.8677
-129.116
-155.625
-168.435
-167.512
-154.54
-132.526
-105.277
-76.8386
-50.9592
-30.6454
-17.8596
-13.3775
-16.8082
-26.757
-41.0968
-57.3013
-72.7946
-85.2702
-92.9445
-94.7201
-90.2473
-79.8888
-64.5987
-45.7439
-24.8922
-3.59943
16.779
35.2317
51.1765
64.4832
75.4385
84.663
92.996
101.367
110.667
121.647
134.834
150.49
168.609
188.945
211.059
234.395
258.342
282.309
305.768
328.294
349.576
369.406
387.658
404.255
419.124
432.165
443.21
452.013
458.236
461.469
461.251
457.114
448.632
435.47
417.439
394.537
366.976
335.199
299.88
261.902
222.321
182.315
143.117
105.946
71.9235
41.9995
16.8836
-3.00714
-17.5788
-27.0642
-31.9981
-33.1654
-31.5263
-28.1263
-24.0005
-20.0815
-17.1217
-15.6373
-15.8802
-17.8382
-21.2639
-25.7267
-30.68
-35.537
-39.7443
-42.8455
-44.5282
-44.6511
-43.2478
-40.5105
-36.7565
-32.3823
-27.8128
-23.4513
-19.6364
-16.61
-14.4997
-13.3158
-12.9624
-13.2597
-13.9739
-14.8504
-15.6468
-16.1601
-16.2476
-15.8382
-14.9341
-13.6033
-11.9654
-10.1721
-8.38497
-6.75501
-5.40376
-4.41042
-3.80469
-3.56653
-3.63204
-3.90462
-4.26953
-4.60978
-4.82145
-4.82624
-4.58004
-4.07658
-3.34594
-2.4486
-1.46588
-0.488483
0.395505
1.11144
1.60652
1.85491
1.85908
1.64766
1.27019
0.78967
0.274198
-0.211434
-0.612966
-0.892005
-1.02896
-1.02346
-0.892345
-0.665878
-0.382601
-0.0837355
0.192252
0.414325
0.562375
0.629338
0.621864
0.559613
0.473313
0.401815
0.388382
0.476526
0.705729
1.10741
1.70153
2.49413
3.47614
4.62364
5.89961
7.25695
8.64257
10.0021
11.2844
12.4457
13.453
14.2852
14.9339
15.4023
15.7027
15.8536
15.877
15.7948
15.6266
15.3884
15.0913
14.7422
14.3441
13.8971
13.3994
12.8483
12.2411
11.575
10.8481
10.0593
9.20835
8.29626
7.32546
6.29974
5.22417
4.1045
2.94633
1.75383
0.528437
-0.732505
-2.03667
-3.39704
-4.83132
-6.36031
-8.00529
-9.78457
-11.7096
-13.7807
-15.9839
-18.2874
-20.6406
-22.9734
-25.1982
-27.2133
-28.9077
-30.1687
-30.8899
-30.9806
-30.376
-29.0454
-27.0002
-24.298
-21.0426
-17.3803
-13.4906
-9.57355
-5.83331
-2.4612
0.381263
2.57646
4.06064
4.82841
4.93129
4.47053
3.58504
2.43597
1.18969
0.0011434
-1.00062
-1.72318
-2.11677
-2.17516
-1.93161
-1.45065
-0.816869
-0.122341
0.545881
1.11656
1.54225
1.80354
1.90946
1.89405
1.80998
1.72015
1.68854
1.7716
2.01124
2.43023
3.03036
3.79327
4.68362
5.65391
6.65007
7.61732
8.50541
9.27294
9.89056
10.3427
10.6284
10.7604
10.7638
10.6739
10.5334
10.3891
10.289
10.2786
10.3981
10.6793
11.1435
11.7993
12.6422
13.6537
14.8021
16.0428
17.3195
18.5638
19.6929
20.6063
21.1797
21.2618
20.6765
19.2418
16.8128
13.3605
9.08938
4.58907
1.00098
0.164035
4.68945
17.9084
43.6434
85.7798
147.653
231.315
336.801
461.527
599.975
743.778
882.258
1003.41
1095.18
1146.97
1151.02
1103.55
1005.47
862.504
684.719
485.521
280.22
84.382
-87.8392
-225.161
-320.256
-370.34
-377.205
-346.726
-287.931
-211.769
-129.748
-52.6139
10.7791
54.2739
74.8349
72.5644
50.3483
13.2046
-32.5568
-80.2458
-123.656
-157.782
-179.315
-186.874
-180.984
-163.804
-138.695
-109.665
-80.8009
-55.7402
-37.2544
-26.982
-25.3299
-31.5395
-43.8902
-60.0045
-77.2018
-92.8559
-104.708
-111.101
-111.12
-104.617
-92.1515
-74.837
-54.1467
-31.6921
-9.01176
12.6064
32.2504
49.4476
64.1661
76.7608
87.8773
98.3324
108.987
120.628
133.879
149.135
166.54
185.993
207.191
229.683
252.935
276.401
299.575
322.033
343.449
363.602
382.353
399.618
415.336
429.426
441.765
452.158
460.33
465.932
468.555
467.757
463.103
454.208
440.779
422.662
399.87
372.613
341.309
306.579
269.236
230.253
190.719
151.789
114.619
80.2931
49.7606
23.764
2.78751
-12.981
-23.6641
-29.6829
-31.7197
-30.6555
-27.4903
-23.2529
-18.9101
-15.2851
-12.9934
-12.4031
-13.6224
-16.5158
-20.7434
-25.8211
-31.1891
-36.2852
-40.6101
-43.7805
-45.5638
-45.8924
-44.8571
-42.6829
-39.6915
-36.2557
-32.7527
-29.5205
-26.8245
-24.8345
-23.6163
-23.1357
-23.2738
-23.8511
-24.6549
-25.469
-26.0986
-26.3913
-26.2495
-25.6351
-24.5663
-23.1084
-21.3596
-19.4347
-17.4496
-15.5068
-13.6854
-12.0351
-10.575
-9.29694
-8.17186
-7.15852
-6.21273
-5.29595
-4.3819
-3.46054
-2.53901
-1.63965
-0.795732
-0.0455595
0.573957
1.03332
1.3152
1.41738
1.35358
1.15214
0.853055
0.503696
0.154011
-0.148288
-0.361943
-0.455397
-0.40887
-0.215195
0.120495
0.582063
1.14442
1.77608
2.44205
3.10671
3.73667
4.3033
4.78483
5.16794
5.44863
5.6323
5.733
5.77189
5.77497
5.77026
5.78484
5.84187
5.95807
6.14189
6.39254
6.7001
7.04662
7.40812
7.75717
8.06579
8.30833
8.46388
8.51805
8.46387
8.30177
8.03862
7.68615
7.25891
6.77204
6.23933
5.67164
5.07596
4.45513
3.80811
3.13071
2.41646
1.65759
0.845989
-0.0260101
-0.964947
-1.97565
-3.06074
-4.22028
-5.45146
-6.74852
-8.10273
-9.50264
-10.9343
-12.3816
-13.8265
-15.2489
-16.6262
-17.9327
-19.1381
-20.2064
-21.0951
-21.7553
-22.1331
-22.1734
-21.825
-21.0478
-19.8199
-18.1454
-16.0589
-13.6286
-10.9538
-8.15978
-5.38826
-2.78489
-0.485728
1.39608
2.7817
3.63451
3.96368
3.82287
3.30417
2.52798
1.62984
0.745689
-0.0027808
-0.520972
-0.750941
-0.676469
-0.323029
0.247317
0.945436
1.66783
2.3109
2.78492
3.02606
3.00481
2.73
2.24779
1.63597
0.994187
0.431631
0.0534583
-0.0521295
0.17534
0.761284
1.69302
2.92133
4.36632
5.92695
7.49296
8.9579
10.2315
11.2502
11.984
12.4399
12.6603
12.7173
12.7039
12.7229
12.8744
13.2447
13.8965
14.8629
16.1441
17.7093
19.5003
21.4395
23.4382
25.4053
27.2548
28.9107
30.3077
31.3873
32.0899
32.3424
32.0481
31.0827
29.3079
26.612
22.9885
18.6565
14.2174
10.8268
10.3443
15.4082
29.3769
56.0872
99.4081
162.608
247.608
354.246
479.682
618.117
760.918
897.207
1014.88
1101.96
1148.04
1145.76
1091.81
987.68
839.661
658.323
457.44
252.512
59.0801
-108.931
-240.654
-329.316
-372.756
-373.387
-337.635
-274.947
-196.522
-113.923
-37.7656
23.3826
63.7681
80.8181
75.0991
49.9077
10.576
-36.3978
-84.2716
-126.917
-159.514
-179.011
-184.318
-176.241
-157.181
-130.665
-100.788
-71.6375
-46.774
-28.8351
-19.2908
-18.3708
-25.1534
-37.7905
-53.8247
-70.552
-85.3789
-96.1299
-101.273
-100.041
-92.4472
-79.2006
-61.5438
-41.0418
-19.3521
1.99116
21.7549
39.1267
53.7688
65.8057
75.7554
84.4172
92.738
101.673
112.063
124.534
139.447
156.868
176.596
198.211
221.143
244.753
268.412
291.56
313.755
334.688
354.183
372.168
388.642
403.62
417.091
428.976
439.097
447.167
452.794
455.505
454.782
450.114
441.051
427.259
408.569
385.015
356.863
324.612
288.991
250.931
211.523
171.962
133.481
97.2784
64.439
35.8624
12.1995
-6.19415
-19.2836
-27.3539
-30.9823
-30.9853
-28.3436
-24.1147
-19.3381
-14.9471
-11.6927
-10.0892
-10.3871
-12.5725
-16.3957
-21.4207
-27.092
-32.8078
-37.9933
-42.1636
-44.9727
-46.241
-45.9622
-44.2902
-41.508
-37.9848
-34.1271
-30.3301
-26.9342
-24.1927
-22.252
-21.1466
-20.8072
-21.0802
-21.7556
-22.5977
-23.3767
-23.8959
-24.0117
-23.6456
-22.7868
-21.4861
-19.8427
-17.987
-16.0602
-14.1955
-12.5018
-11.052
-9.87795
-8.96993
-8.28315
-7.74767
-7.28117
-6.8024
-6.24348
-5.55935
-4.73343
-3.7788
-2.73515
-1.66214
-0.630319
0.289004
1.0335
1.55788
1.83935
1.87982
1.70486
1.35973
0.903211
0.400081
-0.0865552
-0.50225
-0.806608
-0.976562
-1.00727
-0.910645
-0.711909
-0.444581
-0.14469
0.155067
0.430478
0.66959
0.87465
1.06198
1.2599
1.50497
1.83732
2.29549
2.91171
3.70816
4.69449
5.86698
7.20913
8.69358
10.2848
11.9424
13.6243
15.2894
16.9003
18.4246
19.8362
21.1153
22.2485
23.2286
24.0534
24.725
25.2488
25.6325
25.8847
26.014
26.0282
25.9329
25.7317
25.4253
25.0116
24.4863
23.8434
23.0758
22.1768
21.1405
19.9629
18.6421
17.1782
15.5739
13.8331
11.9616
9.96585
7.85281
5.63
3.30533
0.887382
-1.6142
-4.18834
-6.82227
-9.50159
-12.2108
-14.9343
-17.6577
-20.3693
-23.0618
-25.7333
-28.3874
-31.0331
-33.6827
-36.3493
-39.0426
-41.7646
-44.5053
-47.2383
-49.9179
-52.4776
-54.8304
-56.8724
-58.4877
-59.5559
-59.9612
-59.6026
-58.4031
-56.3188
-53.3463
-49.5265
-44.9467
-39.7385
-34.0727
-28.1505
-22.192
-16.4227
-11.058
-6.28849
-2.26632
0.905805
3.1817
4.5741
5.15218
5.03426
4.37646
3.35838
2.16709
0.981138
-0.0440321
-0.787774
-1.17192
-1.16378
-0.774352
-0.0520833
0.926736
2.06965
3.28016
4.46873
5.56147
6.50559
7.27135
7.85087
8.25431
8.50457
8.63144
8.66627
8.63786
8.57004
8.48097
8.38394
8.28927
8.20664
8.14726
8.12548
8.15941
8.27049
8.48219
8.81789
9.29857
9.94047
10.7532
11.7383
12.8888
14.1893
15.6166
17.1411
18.7272
20.3343
21.9164
23.4192
24.7767
25.9046
26.694
27.008
26.6859
25.5652
23.5281
20.5845
16.9923
13.4112
11.0681
11.8974
18.6052
34.5984
63.7331
109.86
176.186
264.532
374.595
503.377
644.904
790.378
928.78
1047.9
1135.71
1181.8
1178.83
1123.63
1017.8
867.763
684.266
481.228
274.282
79.0764
-90.3878
-223.201
-312.578
-356.371
-357.033
-321.04
-257.901
-178.876
-95.5906
-18.7132
43.1428
84.1861
101.812
96.5593
71.6965
32.5257
-14.4888
-62.6417
-105.842
-139.3
-159.987
-166.819
-160.587
-143.651
-119.475
-92.0715
-65.4276
-43.0003
-27.327
-19.7913
-20.5595
-28.6747
-42.2839
-58.9538
-76.0276
-90.973
-101.68
-106.677
-105.239
-97.4043
-83.8828
-65.8992
-44.9874
-22.7701
-0.751798
19.85
38.2186
53.9898
67.2414
78.4292
88.2835
97.6841
107.531
118.627
131.588
146.785
164.322
184.05
205.613
228.502
252.132
275.909
299.285
321.802
343.115
362.989
381.288
397.943
412.914
426.156
437.576
447.015
454.229
458.891
460.607
458.947
453.48
443.823
429.687
410.923
387.553
359.801
328.105
293.109
255.657
216.748
177.504
139.103
102.713
69.4237
40.1692
15.6631
-3.65511
-17.654
-26.52
-30.7398
-31.0568
-28.4035
-23.818
-18.3512
-12.9761
-8.50764
-5.54212
-4.42141
-5.22526
-7.79109
-11.7575
-16.625
-21.8269
-26.8002
-31.05
-34.1995
-36.0221
-36.4525
-35.5783
-33.6144
-30.8652
-27.6802
-24.4087
-21.3597
-18.7705
-16.7877
-15.4612
-14.7504
-14.5405
-14.6663
-14.9392
-15.1743
-15.2137
-14.9442
-14.307
-13.3005
-11.9745
-10.4198
-8.75281
-7.09877
-5.57532
-4.27851
-3.27254
-2.58444
-2.20368
-2.08654
-2.16424
-2.35351
-2.5682
-2.73025
-2.77883
-2.67647
-2.41185
-1.99895
-1.47309
-0.884602
-0.291038
0.250846
0.692385
0.998671
1.15203
1.15302
1.01912
0.781386
0.479849
0.158218
-0.141207
-0.381843
-0.535861
-0.585717
-0.524165
-0.353007
-0.0809475
0.278963
0.711832
1.20302
1.73958
2.31105
2.9096
3.52982
4.16827
4.82307
5.49352
6.18005
6.88414
7.6084
8.3565
9.13279
9.94164
10.7863
11.6672
12.5808
13.5175
14.4606
15.3857
16.2616
17.0509
17.7134
18.2089
18.501
18.5611
18.3711
17.9261
17.2345
16.3176
15.2074
13.9428
12.5662
11.1191
9.639
8.15682
6.69557
5.2705
3.88997
2.55712
1.27159
0.0310941
-1.1677
-2.32883
-3.45749
-4.56077
-5.64867
-6.73485
-7.83689
-8.97587
-10.1752
-11.4585
-12.8475
-14.3586
-16.0005
-17.772
-19.6599
-21.6384
-23.6696
-25.7045
-27.6847
-29.5455
-31.2185
-32.6347
-33.7275
-34.4355
-34.7049
-34.4926
-33.768
-32.5163
-30.7409
-28.4665
-25.7406
-22.6352
-19.2458
-15.6888
-12.0963
-8.60827
-5.3632
-2.48757
-0.085339
1.77128
3.04858
3.75474
3.93919
3.68771
3.11375
2.34672
1.51856
0.750219
0.139704
-0.246822
-0.3798
-0.266309
0.0545085
0.5199
1.05457
1.58278
2.03967
2.38043
2.58591
2.66419
2.64791
2.58811
2.5454
2.58006
2.74249
3.06539
3.55878
4.20854
4.97835
5.81488
6.65512
7.43482
8.09692
8.5986
8.9164
9.04849
9.01432
8.85161
8.61133
8.35156
8.1308
8.00181
8.00646
8.17214
8.50995
9.0146
9.66581
10.4307
11.2667
12.124
12.9471
13.6746
14.2361
14.5476
14.5046
13.9772
12.8128
10.8536
7.97986
4.187
-0.298642
-4.87031
-8.37694
-8.98031
-4.08292
9.61728
35.8967
78.577
140.913
224.867
330.377
454.771
592.462
735.048
871.863
990.959
1080.41
1129.77
1131.47
1081.93
982.274
838.385
660.457
461.952
258.168
64.5897
-104.774
-238.833
-330.481
-377.16
-380.866
-347.645
-286.64
-208.854
-125.784
-48.1116
15.4171
58.7773
79.0699
76.5185
54.0983
16.8742
-28.8433
-76.4048
-119.675
-153.733
-175.346
-183.19
-177.805
-161.324
-137.037
-108.846
-80.7136
-56.148
-37.8079
-27.2502
-24.8426
-29.8337
-40.5564
-54.7241
-69.7747
-83.2137
-92.9151
-97.3464
-95.6977
-87.9083
-74.5982
-56.9226
-36.3748
-14.5681
6.97456
26.9977
44.6388
59.4918
71.6078
81.4394
89.7422
97.4494
105.538
114.907
126.273
140.103
156.585
175.63
196.912
219.926
244.055
268.653
293.102
316.863
339.512
360.741
380.353
398.231
414.309
428.524
440.784
450.939
458.762
463.945
466.115
464.859
459.759
450.442
436.624
418.153
395.051
367.536
336.034
301.181
263.804
224.887
185.532
146.898
110.136
76.3213
46.381
21.0289
0.714057
-14.4135
-24.5132
-30.0377
-31.6913
-30.3651
-27.0546
-22.7701
-18.4473
-14.8684
-12.6028
-11.9722
-13.0436
-15.6499
-19.434
-23.9103
-28.5355
-32.7799
-36.1908
-38.4412
-39.359
-38.9357
-37.3135
-34.7559
-31.6057
-28.2373
-25.0086
-22.2199
-20.0833
-18.7053
-18.0848
-18.1241
-18.6511
-19.4485
-20.2863
-20.9523
-21.2773
-21.1531
-20.5395
-19.4632
-18.0072
-16.2941
-14.4659
-12.6634
-11.0077
-9.58615
-8.44424
-7.58415
-6.96921
-6.53347
-6.1944
-5.86676
-5.47578
-4.96759
-4.31604
-3.5249
-2.62573
-1.67193
-0.730148
0.129729
0.844341
1.36524
1.66479
1.73896
1.60697
1.30785
0.894878
0.428462
-0.0312642
-0.431312
-0.731303
-0.906966
-0.951399
-0.874126
-0.698259
-0.45628
-0.185082
0.0790444
0.304864
0.469568
0.560754
0.576874
0.526248
0.424892
0.293566
0.1545
0.0282697
-0.0687687
-0.12617
-0.140049
-0.112666
-0.0510821
0.0348649
0.134896
0.240559
0.347056
0.454346
0.567345
0.695211
0.849837
1.04377
1.28791
1.58926
1.94922
2.36249
2.81694
3.29433
3.77186
4.22431
4.62644
4.95543
5.19293
5.32666
5.35133
5.26882
5.08781
4.82277
4.49262
4.11911
3.725
3.33231
2.96058
2.62521
2.33604
2.09614
1.90092
1.73778
1.5863
1.41925
1.20431
0.906637
0.491955
-0.0698454
-0.80113
-1.71324
-2.80394
-4.05588
-5.43638
-6.89839
-8.38278
-9.8216
-11.1421
-12.2713
-13.1406
-13.6909
-13.8771
-13.6723
-13.0713
-12.0927
-10.7791
-9.19599
-7.42767
-5.57186
-3.7322
-2.01
-0.495805
0.738253
1.64441
2.20287
2.42259
2.33921
2.01038
1.50906
0.915758
0.310387
-0.235077
-0.662642
-0.93243
-1.02472
-0.939933
-0.696772
-0.3289
0.119469
0.598653
1.05884
1.4553
1.75308
1.93068
1.9825
1.9195
1.76809
1.56723
1.3639
1.20758
1.14424
1.21065
1.42983
1.80802
2.33388
2.97991
3.70593
4.46428
5.20589
5.88654
6.4723
6.94354
7.29699
7.5456
7.71636
7.84652
7.97873
8.15589
8.41631
8.78986
9.29542
9.93981
10.7181
11.6154
12.6087
13.6698
14.7676
15.8692
16.9395
17.9378
18.8118
19.4879
19.8619
19.7921
19.1055
17.6255
15.232
11.9626
8.15459
4.61443
2.78629
4.87295
13.8532
33.34
67.2417
119.223
192.012
286.64
401.765
533.21
673.858
814.001
942.131
1046.13
1114.68
1138.74
1112.81
1035.85
911.626
748.502
558.628
356.662
158.183
-21.9959
-171.39
-281.094
-346.569
-367.891
-349.458
-299.209
-227.492
-145.731
-65.0717
4.83373
56.7625
86.4914
92.9622
78.0577
46.0507
2.82442
-45.0216
-91.0573
-129.795
-157.261
-171.329
-171.775
-160.101
-139.163
-112.659
-84.5752
-58.6512
-37.9312
-24.4498
-19.078
-21.5292
-30.5105
-43.9834
-59.49
-74.4975
-86.7159
-94.3524
-96.2776
-92.0925
-82.0979
-67.1824
-48.6491
-28.0111
-6.78468
13.696
32.4196
48.7834
62.6186
74.1595
83.9673
92.8218
101.6
111.157
122.224
135.332
150.771
168.578
188.563
210.349
233.437
257.265
281.271
304.946
327.861
349.686
370.182
389.19
406.593
422.294
436.17
448.054
457.713
464.84
469.064
469.971
467.131
460.147
448.693
432.563
411.709
386.268
356.583
323.208
286.888
248.543
209.221
170.052
132.186
96.7308
64.6826
36.8656
13.8778
-3.94955
-16.5731
-24.2384
-27.4573
-26.9648
-23.6565
-18.5139
-12.5229
-6.59481
-1.49628
2.20358
4.16529
4.28695
2.68844
-0.325087
-4.31558
-8.77348
-13.1809
-17.0699
-20.0688
-21.934
-22.5637
-21.9946
-20.3827
-17.9732
-15.0637
-11.9651
-8.96591
-6.30356
-4.14465
-2.57607
-1.60634
-1.17583
-1.17353
-1.4576
-1.87675
-2.28998
-2.5825
-2.67653
-2.5365
-2.16866
-1.61599
-0.949416
-0.256845
0.368709
0.840518
1.08801
1.06428
0.750698
0.158381
-0.67337
-1.68145
-2.78552
-3.89608
-4.92321
-5.78503
-6.41514
-6.76819
-6.82322
-6.58456
-6.08007
-5.35743
-4.47854
-3.51307
-2.53155
-1.599
-0.769562
-0.0826748
0.438883
0.789056
0.976815
1.02309
0.956819
0.81077
0.617602
0.406695
0.201973
0.020828
-0.125935
-0.233301
-0.300657
-0.330061
-0.324456
-0.286044
-0.215042
-0.108935
0.0376783
0.23265
0.485313
0.805107
1.19994
1.67455
2.22897
2.85746
3.54798
4.28237
5.03721
5.78544
6.49837
7.14809
7.70979
8.16391
8.49787
8.70704
8.79502
8.77308
8.65885
8.4744
8.24391
7.99132
7.73789
7.50027
7.28898
7.10746
6.95196
6.81203
6.67176
6.51151
6.31009
6.04707
5.70494
5.27103
4.73884
4.10867
3.38743
2.58765
1.72576
0.819864
-0.112637
-1.05739
-2.00491
-2.95178
-3.90094
-4.86119
-5.84579
-6.8705
-7.95109
-9.10065
-10.327
-11.63
-12.9999
-14.4155
-15.8437
-17.2394
-18.5466
-19.7003
-20.6294
-21.2612
-21.5268
-21.3669
-20.7397
-19.6265
-18.038
-16.0174
-13.6407
-11.0139
-8.26641
-5.54067
-2.98075
-0.719211
1.13511
2.50713
3.36214
3.70826
3.59429
3.10336
2.34311
1.43381
0.495611
-0.363294
-1.05644
-1.52576
-1.7445
-1.71649
-1.47199
-1.06105
-0.545206
0.0111903
0.549095
1.02145
1.3978
1.66648
1.83433
1.92422
1.97061
2.01399
2.09468
2.24694
2.49391
2.8442
3.29024
3.80891
4.36397
4.9104
5.39973
5.78605
6.03188
6.11316
6.02295
5.77314
5.39422
4.93274
4.44703
4.00132
3.65903
3.47599
3.49435
3.73784
4.20914
4.88956
5.74121
6.71129
7.73808
8.75777
9.71131
10.5502
11.2403
11.7629
12.1119
12.287
12.2826
12.0736
11.6011
10.7646
9.42815
7.45194
4.75866
1.44188
-2.08659
-4.9259
-5.52397
-1.57143
9.99181
32.8045
70.7133
127.209
204.718
303.859
422.793
556.82
698.352
837.334
962.111
1060.65
1122
1137.69
1102.97
1017.63
886.225
717.81
524.995
322.633
126.208
-49.8297
-193.576
-296.842
-355.848
-371.382
-348.418
-295.278
-222.47
-141.351
-62.7985
3.95338
52.1884
78.2089
81.4362
64.1323
30.8119
-12.5557
-59.4382
-103.606
-139.872
-164.62
-176.085
-174.374
-161.249
-139.72
-113.535
-86.6179
-62.5472
-44.1351
-33.142
-30.1558
-34.6317
-45.07
-59.2967
-74.8002
-89.0758
-99.9341
-105.739
-105.55
-99.1692
-87.0817
-70.3265
-50.3077
-28.5821
-6.652
14.2128
33.1027
49.537
63.4702
75.2444
85.497
95.044
104.753
115.428
127.709
142.016
158.512
177.118
197.542
219.342
241.99
264.939
287.682
309.791
330.939
350.904
369.548
386.792
402.581
416.843
429.459
440.242
448.918
455.137
458.482
458.502
454.749
446.822
434.416
417.36
395.653
369.488
339.266
305.588
269.24
231.166
192.427
154.143
117.442
83.3839
52.9018
26.7339
5.37206
-10.9751
-22.398
-29.2767
-32.2467
-32.141
-29.9144
-26.5574
-23.0077
-20.0709
-18.3562
-18.2361
-19.8323
-23.0283
-27.507
-32.8066
-38.388
-43.7049
-48.2684
-51.7001
-53.766
-54.392
-53.6582
-51.7764
-49.0529
-45.8452
-42.5159
-39.3905
-36.7237
-34.6778
-33.3134
-32.5936
-32.3986
-32.5493
-32.8349
-33.0418
-32.9798
-32.5034
-31.5254
-30.0227
-28.0335
-25.6488
-22.9965
-20.2247
-17.4821
-14.9016
-12.5862
-10.6004
-8.9673
-7.67033
-6.66095
-5.86897
-5.21495
-4.62245
-4.02857
-3.39153
-2.69439
-1.94487
-1.17137
-0.416233
0.272783
0.851483
1.28736
1.56575
1.69323
1.69771
1.62544
1.53515
1.49029
1.55033
1.7625
2.15484
2.73179
3.47264
4.33335
5.25117
6.15172
6.95747
7.59658
8.01093
8.16251
8.0373
7.64633
7.02386
6.22301
5.30947
4.35413
3.42565
2.58382
1.87456
1.32706
0.953149
0.748818
0.697411
0.773824
0.949017
1.19412
1.4836
1.79718
2.12045
2.44426
2.76336
3.07468
3.37557
3.66249
3.9301
4.1711
4.37632
4.53528
4.63666
4.66887
4.62032
4.47968
4.23607
3.8794
3.4009
2.79392
2.05498
1.18487
0.189705
-0.918385
-2.12106
-3.39429
-4.70969
-6.03644
-7.34381
-8.60392
-9.79445
-10.9009
-11.918
-12.8505
-13.7123
-14.5251
-15.3149
-16.1087
-16.9303
-17.7962
-18.7119
-19.6694
-20.6453
-21.6011
-22.4842
-23.2304
-23.7682
-24.0235
-23.9263
-23.417
-22.4544
-21.0221
-19.134
-16.8371
-14.2119
-11.3685
-8.4394
-5.56942
-2.90304
-0.571511
1.31949
2.69995
3.54214
3.86303
3.72221
3.21544
2.46461
1.60515
0.772153
0.08689
-0.355122
-0.493069
-0.305999
0.186322
0.926905
1.82897
2.78644
3.68638
4.42189
4.90414
5.07201
4.89861
4.39368
3.60201
2.59804
1.47746
0.346809
-0.687454
-1.52938
-2.10217
-2.35432
-2.26277
-1.83299
-1.09636
-0.105322
1.07289
2.36321
3.68955
4.9809
6.17617
7.22751
8.10212
8.78256
9.26594
9.5622
9.69188
9.68366
9.57201
9.39495
9.19194
9.0015
8.85763
8.78416
8.78608
8.83793
8.87091
8.76287
8.3379
7.38495
5.70571
3.20073
-0.00267045
-3.38759
-5.8708
-5.64968
-0.124457
14.0472
40.7143
83.792
146.636
231.297
337.778
463.432
602.652
746.966
885.597
1006.45
1097.45
1148
1150.38
1100.96
1000.8
855.824
676.31
475.858
269.946
74.2503
-97.026
-232.622
-325.301
-372.427
-375.979
-342.04
-279.846
-200.531
-115.751
-36.3495
28.771
73.4545
94.7061
92.6965
70.3935
32.8983
-13.4055
-61.7696
-105.947
-140.906
-163.323
-171.807
-166.869
-150.654
-126.494
-98.3691
-70.3318
-45.9868
-28.0785
-18.2269
-16.8317
-23.1375
-35.4388
-51.3818
-68.3177
-83.6578
-95.1844
-101.285
-101.086
-94.4838
-82.0755
-65.0109
-44.7934
-23.0595
-1.36549
18.9909
37.0973
52.4918
65.1646
75.5053
84.207
92.1456
100.251
109.387
120.257
133.335
148.835
166.719
186.723
208.416
231.259
254.674
278.102
301.045
323.096
343.946
363.38
381.25
397.45
411.877
424.405
434.85
442.965
448.427
450.855
449.835
444.95
435.832
422.198
403.903
380.973
353.631
322.312
287.668
250.543
211.949
173.016
134.933
98.8763
65.9344
37.029
12.8475
-6.21131
-20.0692
-28.9737
-33.4736
-34.3667
-32.6245
-29.3003
-25.4321
-21.9496
-19.5954
-18.8695
-20.0015
-22.9527
-27.4471
-33.0246
-39.1116
-45.0974
-50.4087
-54.5733
-57.2674
-58.3402
-57.8172
-55.8829
-52.845
-49.0895
-45.0291
-41.0546
-37.4929
-34.5772
-32.4314
-31.0682
-30.4017
-30.2694
-30.4615
-30.7518
-30.9276
-30.8139
-30.2906
-29.3006
-27.8494
-25.9969
-23.8436
-21.5134
-19.1356
-16.8285
-14.6864
-12.7712
-11.1095
-9.6948
-8.49379
-7.45549
-6.52206
-5.63905
-4.76417
-3.87307
-2.96195
-2.0466
-1.1585
-0.338756
0.369166
0.92664
1.30607
1.49523
1.49924
1.3401
1.05394
0.686576
0.287928
-0.0936799
-0.41679
-0.650888
-0.778902
-0.797904
-0.71808
-0.560222
-0.352176
-0.124744
0.0924466
0.274653
0.404972
0.476315
0.492302
0.467062
0.424055
0.394049
0.412499
0.516564
0.742035
1.12043
1.67646
2.42617
3.37573
4.52109
5.84848
7.3355
8.95281
10.6661
12.4382
14.2309
16.0067
17.7301
19.3688
20.8937
22.2801
23.5074
24.5599
25.4266
26.1018
26.5849
26.8802
26.9965
26.9459
26.7428
26.4023
25.9384
25.3626
24.6827
23.9016
23.0168
22.02
20.8978
19.6321
18.2012
16.5819
14.7514
12.6896
10.3821
7.82311
5.01786
1.9847
-1.24372
-4.62063
-8.08673
-11.5732
-15.0063
-18.3122
-21.4228
-24.2809
-26.844
-29.087
-31.0024
-32.5986
-33.8963
-34.9227
-35.7061
-36.2696
-36.6255
-36.7721
-36.6922
-36.3535
-35.7127
-34.7207
-33.3307
-31.5063
-29.2307
-26.5136
-23.3972
-19.9576
-16.3035
-12.5699
-8.9087
-5.47606
-2.41877
0.139499
2.11001
3.44744
4.15405
4.27898
3.91273
3.17761
2.21503
1.1713
0.183446
-0.633458
-1.19597
-1.45803
-1.41221
-1.08648
-0.536964
0.1622
0.930474
1.69247
2.38782
2.97806
3.44968
3.81316
4.09831
4.34681
4.60336
4.90689
5.2832
5.74026
6.26676
6.83414
7.40163
7.92356
8.3575
8.67212
8.85334
8.90777
8.86304
8.76477
8.67074
8.64315
8.74007
9.0073
9.4718
10.1376
10.9848
11.9712
13.0375
14.1134
15.1253
16.0038
16.6892
17.1341
17.3019
17.1602
16.6692
15.7693
14.3711
12.3587
9.61578
6.08699
1.88053
-2.58754
-6.42248
-8.08439
-5.2733
5.07661
26.6388
63.3362
118.783
195.575
294.531
414.019
549.518
693.555
836.084
965.329
1069
1135.75
1156.62
1126.31
1044.09
914.094
745.058
549.495
342.366
139.472
-44.2479
-196.275
-307.757
-374.272
-396.056
-377.683
-327.258
-255.272
-173.25
-92.3924
-22.3635
29.643
59.4625
66.1133
51.5603
20.1532
-22.1652
-68.76
-113.198
-150.02
-175.323
-187.075
-185.178
-171.273
-148.355
-120.254
-91.0571
-64.5691
-43.8508
-30.9037
-26.5172
-30.2837
-40.7622
-55.7548
-72.65
-88.7821
-101.762
-109.741
-111.576
-106.896
-96.0672
-80.0643
-60.2895
-38.3548
-15.8636
5.78126
25.5229
42.7372
57.2556
69.3303
79.5509
88.7309
97.7791
107.575
118.864
132.18
147.801
165.749
185.812
207.591
230.573
254.189
277.881
301.15
323.584
344.874
364.8
383.218
400.025
415.126
428.4
439.674
448.708
455.189
458.74
458.946
455.386
447.676
435.513
418.72
397.285
371.383
341.398
307.917
271.716
233.738
195.041
156.753
120.01
85.8846
55.3235
29.0824
7.67345
-8.6718
-20.0187
-26.7219
-29.3936
-28.8482
-26.0301
-21.9297
-17.4971
-13.5633
-10.7752
-9.55289
-10.0713
-12.2691
-15.8806
-20.4868
-25.5791
-30.6262
-35.1381
-38.7187
-41.1032
-42.1762
-41.9707
-40.6494
-38.4733
-35.7608
-32.8447
-30.0321
-27.5711
-25.6288
-24.2814
-23.5168
-23.2469
-23.3293
-23.5921
-23.8601
-23.9779
-23.8281
-23.3423
-22.5043
-21.3463
-19.939
-18.3777
-16.7666
-15.2041
-13.769
-12.5128
-11.4545
-10.5815
-9.85481
-9.21695
-8.60261
-7.94941
-7.20764
-6.34778
-5.36463
-4.27791
-3.12915
-1.97558
-0.881957
0.0885887
0.883409
1.4677
1.82946
1.9815
1.96019
1.82123
1.63294
1.46803
1.39483
1.46918
1.728
2.18527
2.83098
3.6331
4.54217
5.49784
6.43653
7.29905
8.03733
8.61928
9.03138
9.27875
9.38278
9.37685
9.3009
9.1954
9.09589
9.02849
9.00702
9.03199
9.09136
9.16297
9.21795
9.22489
9.15387
8.9801
8.68662
8.26585
7.71993
7.0599
6.30392
5.47489
4.59771
3.6966
2.79269
1.90228
1.03569
0.19698
-0.615584
-1.40851
-2.19153
-2.9759
-3.77266
-4.5912
-5.43815
-6.31683
-7.22721
-8.16626
-9.12878
-10.1083
-11.098
-12.0915
-13.0833
-14.0682
-15.0407
-15.9935
-16.9148
-17.7866
-18.5824
-19.2654
-19.7892
-20.0994
-20.1374
-19.8466
-19.1799
-18.1078
-16.6254
-14.7582
-12.5644
-10.1332
-7.5796
-5.03509
-2.63592
-0.510061
1.23563
2.52626
3.32661
3.64472
3.53097
3.07267
2.38475
1.59753
0.842842
0.239971
-0.117027
-0.169208
0.101268
0.669763
1.47259
2.41487
3.38201
4.25337
4.91667
5.28134
5.28934
4.92204
4.2025
3.19297
1.98786
0.703377
-0.534993
-1.60556
-2.40248
-2.84543
-2.88598
-2.51
-1.73619
-0.61113
0.798338
2.41426
4.15706
5.9542
7.74699
9.49487
11.1769
12.7905
14.3478
15.8704
17.3833
18.9095
20.4654
22.0575
23.6821
25.3259
26.969
28.5881
30.1597
31.6623
33.0763
34.3807
35.5461
36.5241
37.2353
37.5581
37.3271
36.3474
34.438
31.5108
27.6927
23.4837
19.9318
18.7906
22.607
34.6834
58.8624
99.1072
158.89
240.455
344.06
467.352
605.015
748.821
888.14
1010.89
1104.86
1159.16
1165.67
1120.25
1023.46
880.765
702.076
500.789
292.35
92.5865
-83.9858
-225.671
-324.727
-378.001
-387.006
-357.456
-298.35
-220.737
-136.336
-56.1823
10.5306
57.3033
80.7879
80.8349
60.1592
23.6995
-22.2228
-70.8238
-115.738
-151.755
-175.337
-184.879
-180.698
-164.789
-140.398
-111.481
-82.1357
-56.0692
-36.1697
-24.2249
-20.8036
-25.3017
-36.1277
-50.9924
-67.2567
-82.2877
-93.7797
-100.003
-99.9597
-93.4292
-80.9206
-63.5353
-42.773
-20.3081
2.23203
23.4605
42.374
58.434
71.5825
82.1962
90.9932
98.907
106.948
116.071
127.063
140.462
156.52
175.197
196.198
219.025
243.057
267.622
292.07
315.829
338.434
359.548
378.949
396.505
412.14
425.794
437.381
446.761
453.721
457.967
459.141
456.847
450.686
440.306
425.447
405.988
381.983
353.687
321.569
286.304
248.759
209.955
171.018
133.123
97.419
64.9616
36.6391
13.1097
-5.2474
-18.3615
-26.4748
-30.1208
-30.0765
-27.2935
-22.8123
-17.6707
-12.8142
-9.01779
-6.82874
-6.53405
-8.15663
-11.4788
-16.0894
-21.4486
-26.9607
-32.0482
-36.2172
-39.108
-40.5257
-40.4495
-39.0206
-36.5118
-33.2853
-29.7419
-26.2719
-23.2107
-20.8052
-19.1939
-18.4023
-18.3519
-18.8812
-19.7746
-20.7949
-21.7152
-22.3462
-22.5557
-22.2792
-21.5203
-20.3425
-18.8542
-17.1896
-15.4876
-13.8728
-12.4409
-11.2478
-10.3076
-9.59419
-9.0499
-8.5971
-8.15175
-7.63686
-6.99397
-6.19121
-5.22717
-4.13021
-2.95371
-1.76806
-0.650771
0.323969
1.0948
1.62061
1.88494
1.89718
1.6904
1.3164
0.838884
0.325541
-0.159719
-0.563533
-0.84807
-0.993773
-0.999702
-0.881644
-0.668394
-0.396802
-0.106267
0.166633
0.392734
0.553634
0.643438
0.668792
0.647291
0.604543
0.570352
0.574561
0.64311
0.794842
1.03941
1.3765
1.79646
2.28205
2.81114
3.35988
3.90585
4.4307
4.92209
5.37438
5.78831
6.16955
6.52649
6.86763
7.19906
7.52233
7.83323
8.12148
8.37156
8.56442
8.6798
8.69894
8.60711
8.39566
8.06336
7.61672
7.06947
6.44111
5.75499
5.03597
4.30817
3.59304
2.90778
2.2645
1.66983
1.12509
0.626855
0.167609
-0.263461
-0.679767
-1.09666
-1.53081
-1.99953
-2.52011
-3.10886
-3.78026
-4.5459
-5.41346
-6.38576
-7.45992
-8.62672
-9.87008
-11.1668
-12.4866
-13.792
-15.0388
-16.1772
-17.1525
-17.9073
-18.3844
-18.531
-18.3028
-17.6705
-16.6243
-15.179
-13.3765
-11.2861
-9.00157
-6.63553
-4.31054
-2.14888
-0.261538
1.26221
2.36308
3.0171
3.23713
3.07058
2.59339
1.90141
1.0999
0.292755
-0.427467
-0.987597
-1.33922
-1.46094
-1.35759
-1.05657
-0.601987
-0.0473523
0.552308
1.14796
1.70278
2.19632
2.62609
3.00635
3.36424
3.7339
4.14938
4.63748
5.21164
5.86795
6.58385
7.31991
8.0245
8.64066
9.11426
9.40222
9.47959
9.3444
9.01953
8.55129
8.00493
7.45761
6.98979
6.67637
6.57839
6.73679
7.16853
7.8658
8.79817
9.91736
11.1638
12.4744
13.7901
15.0622
16.2567
17.3535
18.3416
19.2069
19.9156
20.3959
20.5249
20.1306
19.0214
17.0539
14.2468
10.939
7.97317
6.87411
9.96936
20.3941
41.9237
78.5994
134.149
211.255
310.778
431.069
567.532
712.566
855.969
985.802
1089.64
1156.03
1176
1144.31
1060.34
928.4
757.456
560.24
351.913
148.424
-35.2057
-186.457
-296.556
-361.227
-380.904
-360.383
-307.993
-234.422
-151.349
-70.0685
-0.274921
50.8678
79.2757
84.0832
67.3886
33.674
-11.0007
-59.9093
-106.557
-145.452
-172.678
-186.204
-185.928
-173.485
-151.847
-124.8
-96.381
-70.3348
-49.6676
-36.341
-31.1289
-33.6398
-42.4829
-55.5443
-70.3241
-84.288
-95.1864
-101.304
-101.618
-95.849
-84.4198
-68.3237
-48.9402
-27.8206
-6.47573
13.8072
32.1
47.9085
61.1846
72.2811
81.8618
90.7821
99.9597
110.252
122.353
136.726
153.566
172.804
194.138
217.092
241.08
265.484
289.713
313.251
335.692
356.742
376.217
394.011
410.065
424.33
436.728
447.123
455.305
460.983
463.795
463.331
459.167
450.906
438.229
420.935
398.985
372.528
341.926
307.751
270.78
231.968
192.406
153.267
115.747
80.9836
49.9924
23.5908
2.34131
-13.4905
-23.9565
-29.4204
-30.5259
-28.1408
-23.2807
-17.0211
-10.4051
-4.3571
0.388772
3.33904
4.26442
3.19564
0.393059
-3.70526
-8.55013
-13.5541
-18.1619
-21.9115
-24.4779
-25.6982
-25.5751
-24.2608
-22.0249
-19.2125
-16.1963
-13.3311
-10.9148
-9.15943
-8.17648
-7.97438
-8.46927
-9.50525
-10.8811
-12.3794
-13.7947
-14.9566
-15.7462
-16.1046
-16.0327
-15.5836
-14.8495
-13.9446
-12.9875
-12.0844
-11.3159
-10.7281
-10.329
-10.0908
-9.95622
-9.84879
-9.68506
-9.3872
-8.89442
-8.17157
-7.21423
-6.04947
-4.73256
-3.34016
-1.96092
-0.684841
0.407179
1.25238
1.81264
2.07788
2.06586
1.81898
1.39822
0.875569
0.3257
-0.181652
-0.58783
-0.849179
-0.938582
-0.844872
-0.570699
-0.129575
0.457205
1.16327
1.95927
2.81437
3.69728
4.57723
5.4249
6.2137
6.92113
7.53025
8.03095
8.42073
8.70479
8.89529
9.00978
9.06886
9.09342
9.10186
9.10747
9.11658
9.1276
9.13098
9.11035
9.04425
8.9086
8.67918
8.33412
7.85596
7.23323
6.46144
5.54363
4.4904
3.31973
2.05645
0.731433
-0.619449
-1.9568
-3.23953
-4.4271
-5.4821
-6.37293
-7.07643
-7.58008
-7.88361
-7.99952
-7.95276
-7.77911
-7.52276
-7.23303
-6.96062
-6.75365
-6.65377
-6.69252
-6.88822
-7.24351
-7.74373
-8.35645
-9.03243
-9.70819
-10.3105
-10.7625
-10.9912
-10.9357
-10.5548
-9.83329
-8.78565
-7.45694
-5.91976
-4.268
-2.60791
-1.04749
0.314551
1.39879
2.15295
2.55664
2.6226
2.39435
1.94059
1.3473
0.708165
0.114685
-0.3532
-0.634933
-0.69491
-0.525301
-0.145945
0.398619
1.04459
1.71627
2.33457
2.82588
3.13024
3.20821
3.04543
2.65468
2.07502
1.36816
0.612516
-0.104488
-0.695032
-1.07948
-1.19408
-0.996891
-0.471336
0.373026
1.50264
2.86468
4.39383
6.02013
7.67704
9.3084
10.8737
12.3506
13.7354
15.04
16.2879
17.5081
18.7295
19.9756
21.2603
22.5863
23.9451
25.3194
26.6875
28.0277
29.3228
30.5628
31.7431
32.8584
33.8915
34.7978
35.4903
35.8304
35.635
34.7102
32.9217
30.3093
27.2413
24.5924
23.9126
27.5371
38.5809
60.7631
98.0283
153.97
231.11
330.136
449.241
583.713
725.901
865.643
991.141
1090.2
1151.71
1167.05
1131.36
1044.39
910.707
739.447
543.364
337.507
137.583
-41.7295
-188.317
-293.825
-354.366
-370.69
-347.808
-294.145
-220.363
-138.01
-58.1666
9.73675
58.8167
85.2522
88.3957
70.4996
36.127
-8.65429
-57.1753
-103.048
-140.921
-167.029
-179.487
-178.32
-165.256
-143.32
-116.317
-88.2592
-62.8373
-42.9808
-30.5626
-26.2671
-29.6236
-39.1814
-52.7918
-67.9487
-82.1381
-93.1525
-99.3327
-99.7155
-94.0767
-82.8776
-67.1301
-48.2078
-27.6322
-6.86481
12.8693
30.7072
46.2131
59.3813
70.5839
80.4765
89.879
99.6498
110.57
123.249
138.069
155.154
174.385
195.435
217.828
241.011
264.412
287.506
309.847
331.098
351.023
369.481
386.388
401.692
415.327
427.191
437.115
444.852
450.082
452.423
451.456
446.765
437.977
424.804
407.09
384.842
358.26
327.746
293.909
257.544
219.611
181.186
143.412
107.431
74.3146
44.9983
20.2117
0.427011
-14.1769
-23.7285
-28.6512
-29.6261
-27.5313
-23.3633
-18.1492
-12.8575
-8.31733
-5.15496
-3.75289
-4.23628
-6.48623
-10.1777
-14.8361
-19.9059
-24.8218
-29.0749
-32.267
-34.1474
-34.6289
-33.7842
-31.8235
-29.0585
-25.8572
-22.5971
-19.62
-17.1967
-15.502
-14.6038
-14.4658
-14.9619
-15.9007
-17.0547
-18.1917
-19.1039
-19.6309
-19.6755
-19.2098
-18.2726
-16.9583
-15.4003
-13.7503
-12.158
-10.7512
-9.62128
-8.8141
-8.32701
-8.11267
-8.08818
-8.14845
-8.18165
-8.08481
-7.77748
-7.21181
-6.37795
-5.30426
-4.0526
-2.70949
-1.37458
-0.147896
0.882309
1.64968
2.11669
2.27774
2.15819
1.80992
1.30411
0.722493
0.14826
-0.342316
-0.686641
-0.840475
-0.78032
-0.503616
-0.0270089
0.616929
1.38409
2.22384
3.08427
3.91709
4.68192
5.34949
5.90358
6.34161
6.67378
6.92103
7.11185
7.27852
7.45292
7.66248
7.92654
8.25362
8.63963
9.06761
9.50866
9.92437
10.2704
10.5008
10.5732
10.4533
10.119
9.56378
8.79789
7.8482
6.75621
5.57437
4.36117
3.1756
2.07146
1.09226
0.267324
-0.390658
-0.886177
-1.23969
-1.48483
-1.66437
-1.82567
-2.01594
-2.27796
-2.64671
-3.14706
-3.79273
-4.58648
-5.52136
-6.58275
-7.75081
-9.00303
-10.3164
-11.6687
-13.0395
-14.409
-15.7575
-17.0628
-18.2982
-19.4305
-20.4183
-21.2122
-21.7562
-21.9912
-21.8605
-21.3161
-20.327
-18.8856
-17.0139
