-8.71923
-25.439
-43.5644
-62.2798
-80.5958
-97.4284
-111.695
-122.415
-128.809
-130.371
-126.919
-118.609
-105.913
-89.566
-70.4846
-49.6747
-28.1342
-6.76434
13.7005
32.7373
50.0501
65.5572
79.3537
91.6549
102.73
112.833
122.141
130.703
138.404
144.949
149.868
152.532
152.202
148.083
139.408
125.53
106.032
80.8366
50.3187
15.3913
-22.4373
-61.0584
-97.823
-129.678
-153.38
-165.786
-164.188
-146.672
-112.458
-62.1618
2.05164
76.4691
156.007
234.565
305.536
362.424
399.511
412.485
398.964
358.832
294.342
209.963
111.979
7.88071
-94.3791
-187.182
-263.995
-319.992
-352.474
-361.039
-347.504
-315.58
-270.366
-217.718
-163.58
-113.353
-71.3761
-40.567
-22.2593
-16.2301
-20.9065
-33.7074
-51.4695
-70.8967
-88.979
-103.331
-112.419
-115.653
-113.361
-106.641
-97.1387
-86.7689
-77.4363
-70.7735
-67.9354
-69.467
-75.2535
-84.5549
-96.1125
-108.313
-119.386
-127.608
-131.501
-129.981
-122.468
-108.932
-89.8769
-66.2716
-39.4356
-10.8982
17.7556
45.0309
69.6483
90.6365
107.383
119.643
127.509
131.349
131.719
129.269
124.658
118.474
111.186
103.118
94.4553
85.2703
75.5657
65.324
54.5544
43.3288
31.8008
20.207
8.84853
-1.941
-11.8362
-20.5619
-27.9298
-33.8631
-38.4054
-41.7132
-44.0328
-45.6645
-46.9218
-48.089
-49.3856
-50.9401
-52.7785
-54.8259
-56.9225
-58.8488
-60.3568
-61.2026
-61.175
-60.1185
-57.9462
-54.6442
-50.2671
-44.9258
-38.7724
-31.983
-24.7416
-17.228
-9.60994
-2.03916
5.34828
12.4298
19.0934
25.2355
30.7601
35.5799
39.6192
42.816
45.1255
46.521
46.994
46.5536
45.2237
43.0413
40.0547
36.323
31.9158
26.9141
21.4114
15.5139
9.33933
3.01473
-3.32769
-9.55587
-15.544
-21.1781
-26.3617
-31.0183
-35.0934
-38.5534
-41.3828
-43.5809
-45.1562
-46.1225
-46.495
-46.2869
-45.5081
-44.1643
-42.2574
-39.7862
-36.7488
-33.1445
-28.978
-24.2631
-19.028
-13.3195
-7.20687
-0.783617
5.83343
12.5084
19.0938
25.4412
31.4129
36.8947
41.8063
46.1097
49.8123
52.9654
55.6581
58.0066
60.1402
62.1867
64.257
66.4329
68.7574
71.2301
73.8076
76.4079
78.9202
81.2164
83.1655
84.6468
85.5629
85.8486
85.4764
84.4572
82.8351
80.6786
78.067
75.0748
71.7559
68.1299
64.1729
59.8147
54.9431
49.4164
43.0811
35.7943
27.4474
17.9878
7.4355
-4.10644
-16.4499
-29.328
-42.4096
-55.3201
-67.6666
-79.0655
-89.169
-97.6875
-104.407
-109.197
-112.014
-112.894
-111.938
-109.301
-105.174
-99.7679
-93.3037
-86.0041
-78.09
-69.7797
-61.29
-52.8371
-44.6364
-36.8999
-29.8315
-23.6196
-18.4276
-14.3824
-11.5599
-9.96578
-9.51155
-9.98324
-11.0056
-12.0052
-12.1808
-10.4928
-5.68492
3.64824
18.9414
41.4857
72.2152
111.476
158.811
212.8
270.99
329.95
385.465
432.866
467.472
485.088
482.524
458.029
411.609
345.155
262.365
168.457
69.6889
-27.2387
-115.845
-190.507
-246.998
-282.866
-297.61
-292.629
-270.982
-236.962
-195.571
-151.943
-110.801
-75.9847
-50.1338
-34.517
-29.0405
-32.4093
-42.4121
-56.2857
-71.1075
-84.1662
-93.2691
-96.9535
-94.5858
-86.348
-73.1226
-56.3022
-37.553
-18.5676
-0.839309
14.5177
26.8819
36.1667
42.791
47.5902
51.6831
56.3139
62.6914
71.8408
84.4852
100.967
121.21
144.735
170.706
198.016
225.395
251.528
275.172
295.255
310.961
321.773
327.492
328.215
324.296
316.271
304.787
290.516
274.09
256.049
236.805
216.648
195.758
174.25
152.217
129.783
107.147
84.6005
62.5407
41.4471
21.8458
4.2582
-10.8572
-23.1594
-32.4696
-38.7972
-42.3455
-43.4942
-42.7619
-40.7537
-38.0997
-35.393
-33.1337
-31.6862
-31.2526
-31.8659
-33.402
-35.6076
-38.1408
-40.6178
-42.6611
-43.9433
-44.2213
-43.3593
-41.3376
-38.2482
-34.2782
-29.6845
-24.7629
-19.8156
-15.1207
-10.9078
-7.34025
-4.50693
-2.4228
-1.03749
-0.250078
0.0722333
0.0741607
-0.106452
-0.354111
-0.58631
-0.758489
-0.863232
-0.924303
-0.986727
-1.1045
-1.32769
-1.69079
-2.20368
-2.84656
-3.56935
-4.29556
-4.93032
-5.37124
-5.52087
-5.29906
-4.65345
-3.56681
-2.06009
-0.190686
1.95369
4.26496
6.62677
8.92726
11.0705
12.985
14.6285
15.9876
17.0736
17.9145
18.5447
18.9952
19.2844
19.4128
19.3618
19.0965
18.5732
17.7497
16.5963
15.1065
13.3045
11.2494
9.03326
6.77494
4.60918
2.67278
1.08974
-0.0427296
-0.665249
-0.763036
-0.367485
0.44756
1.57422
2.88247
4.23393
5.49579
6.55315
7.31866
7.73838
7.79379
7.50003
6.90099
6.06218
5.06231
3.98471
2.90929
1.90591
1.0295
0.317246
-0.212295
-0.558154
-0.734505
-0.767146
-0.689396
-0.537888
-0.348656
-0.153855
0.0206592
0.156767
0.244545
0.281822
0.273013
0.22744
0.15739
0.0761242
-0.00396564
-0.0729538
-0.124666
-0.157657
-0.175885
-0.189041
-0.212474
-0.266573
-0.375514
-0.565294
-0.861115
-1.28431
-1.84911
-2.55969
-3.40797
-4.37255
-5.41907
-6.5022
-7.56896
-8.56312
-9.43015
-10.122
-10.6014
-10.8447
-10.8438
-10.6063
-10.1545
-9.52411
-8.7611
-7.91961
-7.059
-6.24116
-5.52785
-4.97787
-4.6442
-4.57111
-4.79136
-5.32387
-6.17224
-7.32414
-8.75193
-10.4143
-12.2585
-14.2231
-16.2401
-18.2375
-20.1402
-21.8714
-23.3538
-24.5101
-25.2655
-25.5495
-25.2976
-24.4526
-22.9609
-20.7634
-17.7764
-13.8627
-8.7902
-2.18583
6.5108
18.0784
33.5152
53.9919
80.7434
114.892
157.21
207.842
266.036
329.921
396.411
461.263
519.336
565.034
592.911
598.346
578.207
531.397
459.192
365.304
255.638
137.772
20.2134
-88.4834
-180.609
-250.104
-293.162
-308.572
-297.756
-264.504
-214.459
-154.419
-91.5524
-32.6124
16.7351
52.4201
72.2551
75.9886
65.1359
42.6295
12.3432
-21.4416
-54.5593
-83.4156
-105.325
-118.708
-123.128
-119.199
-108.365
-92.6134
-74.1464
-55.0713
-37.1343
-21.5339
-8.82631
1.0749
8.81447
15.4466
22.2472
30.5149
41.3869
55.6907
73.8459
95.8235
121.161
149.026
178.318
207.788
236.166
262.282
285.154
304.063
318.572
328.528
334.021
335.329
332.845
327.001
318.208
306.805
293.036
277.047
258.909
238.658
216.346
192.09
166.118
138.798
110.648
82.318
54.56
28.1692
3.92013
-17.502
-35.5648
-49.9383
-60.5249
-67.4644
-71.116
-72.0166
-70.8232
-68.2439
-64.968
-61.6016
-58.6166
-56.3175
-54.8303
-54.1112
-53.9748
-54.136
-54.2596
-54.0116
-53.1053
-51.3376
-48.6111
-44.9414
-40.4497
-35.3428
-29.8845
-24.3626
-19.0554
-14.2028
-9.98345
-6.50143
-3.78224
-1.77765
-0.378242
0.568774
1.2389
1.80941
2.44045
3.2598
4.3527
5.75685
7.46282
9.41891
11.5397
13.7172
15.8326
17.7687
19.4211
20.7065
21.5697
21.9869
21.9658
21.5431
20.7796
19.753
18.5503
17.259
15.9596
14.7194
13.5881
12.5955
11.7516
11.0495
10.4687
9.98048
9.55289
9.15533
8.76224
8.3553
7.92413
7.46561
6.98219
6.47964
5.96473
5.44336
4.91944
4.3946
3.8688
3.34147
2.81301
2.28613
1.76682
1.26463
0.792219
0.364177
-0.00470274
-0.301424
-0.516839
-0.647487
-0.697067
-0.677391
-0.608768
-0.519742
-0.446162
-0.429588
-0.515082
-0.748511
-1.17356
-1.82872
-2.74455
-3.94157
-5.429
-7.20478
-9.25678
-11.5654
-14.1075
-16.8605
-19.8074
-22.9403
-26.2625
-29.7882
-33.5395
-37.5407
-41.8102
-46.3522
-51.1481
-56.1499
-61.2777
-66.4201
-71.4394
-76.1803
-80.4823
-84.1916
-87.1742
-89.3262
-90.5809
-90.9124
-90.3343
-88.8954
-86.6715
-83.7559
-80.2478
-76.2421
-71.8203
-67.0442
-61.9528
-56.5632
-50.8752
-44.8785
-38.5623
-31.9254
-24.9859
-17.7876
-10.4039
-2.9373
4.48621
11.7254
18.6354
25.0796
30.9405
36.1282
40.5843
44.2821
47.2219
49.4231
50.9157
51.7302
51.8903
51.4076
50.2804
48.4957
46.0337
42.8755
39.0102
34.443
29.2009
23.3366
16.9287
10.0792
2.90824
-4.45417
-11.8769
-19.2357
-26.4176
-33.3191
-39.8353
-45.8362
-51.1314
-55.4222
-58.2476
-58.9318
-56.5462
-49.901
-37.583
-18.0524
10.1913
48.3789
97.191
156.461
224.907
299.95
377.675
452.973
519.887
572.146
603.833
610.115
587.917
536.459
457.55
355.585
237.233
110.825
-14.4619
-129.553
-226.418
-298.892
-343.285
-358.686
-346.952
-312.379
-261.114
-200.379
-137.627
-79.7127
-32.197
1.15573
18.6321
20.5674
9.10557
-12.2309
-39.0935
-66.906
-91.432
-109.247
-118.065
-116.898
-106.034
-86.8743
-61.6353
-32.9908
-3.68803
23.8066
47.5924
66.5221
80.2765
89.3298
94.818
98.3357
101.692
106.657
114.735
126.982
143.891
165.354
190.691
218.752
248.061
276.992
303.943
327.502
346.574
360.463
368.898
372.01
370.262
364.349
355.077
343.251
329.569
314.556
298.523
281.574
263.641
244.55
224.101
202.154
178.703
153.928
128.225
102.194
76.6038
52.3223
30.2334
11.1439
-4.30287
-15.6991
-22.9174
-26.1262
-25.7713
-22.5288
-17.2337
-10.7943
-4.10232
2.05021
7.03848
10.4501
12.104
12.0428
10.502
7.85995
4.5781
1.13732
-2.02088
-4.54217
-6.19176
-6.86893
-6.60395
-5.53952
-3.90065
-1.95778
0.0115878
1.75791
3.0874
3.87985
4.09545
3.77094
3.00651
1.94639
0.755762
-0.402422
-1.38819
-2.10037
-2.48607
-2.54328
-2.31674
-1.88824
-1.36285
-0.853149
-0.463566
-0.276693
-0.343275
-0.67688
-1.25369
-2.01722
-2.88701
-3.77018
-4.57409
-5.2185
-5.64583
-5.82831
-5.77124
-5.51241
-5.11774
-4.6741
-4.28006
-4.03585
-4.03356
-4.34858
-5.03301
-6.11163
-7.58071
-9.40953
-11.5444
-13.9142
-16.4374
-19.028
-21.6015
-24.078
-26.3838
-28.4511
-30.2156
-31.6144
-32.585
-33.0657
-32.9992
-32.3381
-31.0524
-29.1383
-26.6247
-23.578
-20.1027
-16.3376
-12.447
-8.60909
-5.00116
-1.78488
0.907428
2.98342
4.39731
5.15167
5.2944
4.91163
4.11763
3.04284
1.82171
0.581382
-0.567761
-1.53894
-2.27305
-2.73981
-2.93642
-2.88401
-2.62253
-2.2047
-1.68966
-1.13681
-0.600439
-0.125458
0.255479
0.52339
0.672923
0.711028
0.654604
0.527458
0.356943
0.170657
-0.00648423
-0.154526
-0.259944
-0.316234
-0.323628
-0.288027
-0.219254
-0.128788
-0.0271465
0.0787845
0.188161
0.307938
0.453647
0.648964
0.924022
1.31263
1.84872
2.56237
3.47601
4.60106
5.93538
7.46171
9.14713
10.9437
12.7897
14.6129
16.3329
17.8665
19.1321
20.0552
20.5742
20.6458
20.2493
19.3898
18.0992
16.4352
14.4772
12.3202
10.0673
7.82021
5.67113
3.69468
1.94228
0.438869
-0.81769
-1.85429
-2.71712
-3.46214
-4.13995
-4.77282
-5.32221
-5.64582
-5.44623
-4.2164
-1.19206
4.67527
14.7076
30.4351
53.4627
85.2637
126.909
178.755
240.142
309.143
382.445
455.403
522.303
576.839
612.761
624.624
608.529
562.764
488.217
388.509
269.79
140.215
9.16441
-113.718
-219.529
-301.042
-353.44
-374.78
-366.107
-331.241
-276.245
-208.668
-136.651
-68.0209
-9.46494
34.1052
59.9462
67.5973
58.7248
36.7336
6.21196
-27.7122
-60.0181
-86.3649
-103.529
-109.664
-104.374
-88.5999
-64.3608
-34.3875
-1.71001
30.7496
60.5271
85.8717
105.885
120.536
130.566
137.305
142.428
147.694
154.701
164.676
178.343
195.855
216.81
240.327
265.18
289.956
313.22
333.669
350.25
362.236
369.255
371.274
368.541
361.509
350.743
336.831
320.316
301.643
281.141
259.036
235.482
210.617
184.62
157.764
130.453
103.236
76.792
51.8876
29.3117
9.79598
-6.06636
-17.8933
-25.5661
-29.2527
-29.3997
-26.6912
-21.9816
-16.2093
-10.3027
-5.09026
-1.2247
0.869454
1.02038
-0.696059
-3.9885
-8.40375
-13.3941
-18.3891
-22.8634
-26.3922
-28.6899
-29.6283
-29.234
-27.6687
-25.195
-22.1348
-18.8246
-15.5753
-12.639
-10.187
-8.30074
-6.97389
-6.12608
-5.6237
-5.30534
-5.00798
-4.5907
-3.95307
-3.04663
-1.87843
-0.507188
0.966942
2.41703
3.70634
4.70532
5.30662
5.43671
5.0629
4.19557
2.88568
1.21827
-0.697009
-2.73709
-4.77705
-6.70076
-8.40975
-9.82936
-10.912
-11.6373
-12.0099
-12.0549
-11.8124
-11.331
-10.662
-9.85473
-8.95283
-7.9926
-7.00272
-6.00529
-5.01771
-4.05461
-3.12934
-2.25449
-1.441
-0.696051
-0.0201045
0.596257
1.17465
1.74957
2.3668
3.07928
3.94094
4.99901
6.2861
7.8133
9.5652
11.498
13.5406
15.5998
17.5668
19.3274
20.7712
21.8017
22.3444
22.3525
21.8101
20.7323
19.1623
17.1666
14.8278
12.2374
9.48772
6.66554
3.84705
1.09584
-1.53627
-4.00546
-6.27004
-8.28383
-9.99052
-11.3205
-12.1919
-12.5154
-12.2039
-11.1845
-9.41159
-6.87915
-3.62901
0.245316
4.60091
9.25368
13.9917
18.5922
22.8397
26.5442
29.5558
31.7753
33.1593
33.7195
33.5166
32.6496
31.2428
29.4312
27.3467
25.1075
22.809
20.5207
18.2852
16.1212
14.0281
11.9923
9.99264
8.0051
6.00613
3.97395
1.88819
-0.27184
-2.52971
-4.9146
-7.46314
-10.2195
-13.2327
-16.5493
-20.2014
-24.187
-28.4435
-32.8126
-36.9997
-40.5297
-42.7082
-42.5961
-39.0112
-30.5688
-15.7743
6.82554
38.4338
79.7511
130.706
190.211
255.993
324.547
391.258
450.708
497.152
525.126
530.113
509.173
461.448
388.457
294.121
184.501
67.2688
-49.0345
-155.862
-245.536
-312.037
-351.597
-363.035
-347.796
-309.697
-254.421
-188.822
-120.14
-55.2178
0.189284
41.9309
67.7627
77.4075
72.3895
55.6785
31.2017
3.29309
-23.8484
-46.6293
-62.4096
-69.6991
-68.1935
-58.6611
-42.7106
-22.48
-0.293914
21.6638
41.6226
58.414
71.5605
81.2631
88.2993
93.8534
99.3071
106.021
115.139
127.43
143.199
162.256
183.953
207.278
230.979
253.713
274.19
291.296
304.183
312.319
315.496
313.796
307.535
297.189
283.316
266.486
247.24
226.055
203.353
179.514
154.911
129.943
105.064
80.7908
57.6937
36.3632
17.3598
1.15297
-11.9385
-21.796
-28.5289
-32.4766
-34.1814
-34.3349
-33.7052
-33.0541
-33.0548
-34.2223
-36.8635
-41.0546
-46.6464
-53.2969
-60.5248
-67.7758
-74.4946
-80.1895
-84.4866
-87.1635
-88.1631
-87.586
-85.6656
-82.7295
-79.1551
-75.3243
-71.5832
-68.2118
-65.4054
-63.2681
-61.8186
-61.004
-60.7204
-60.8348
-61.2062
-61.7031
-62.2154
-62.6599
-62.98
-63.141
-63.1209
-62.901
-62.4555
-61.7443
-60.7085
-59.2716
-57.3446
-54.837
-51.6711
-47.7976
-43.2118
-37.965
-32.1716
-26.0072
-19.7002
-13.5138
-7.72375
-2.59125
1.66409
4.88865
7.01361
8.06565
8.1678
7.5298
6.42834
5.17871
4.10073
3.48241
3.54555
4.41724
6.11109
8.52064
11.4264
14.5164
17.4181
19.7391
21.112
21.238
19.9254
17.1176
12.907
7.53363
1.36674
-5.12808
-11.4335
-17.0317
-21.4574
-24.3456
-25.4691
-24.762
-22.3256
-18.4167
-13.4195
-7.80538
-2.08384
3.24797
7.75281
11.0923
13.0536
13.5619
12.6778
10.5815
7.54657
3.90625
0.0175244
-3.77372
-7.16291
-9.90985
-11.8533
-12.9165
-13.105
-12.4963
-11.2254
-9.46675
-7.41385
-5.26091
-3.18568
-1.33598
0.179604
1.29641
1.99393
2.29194
2.24338
1.92494
1.42651
0.840618
0.25294
-0.265397
-0.663027
-0.91087
-1.002
-0.949153
-0.780431
-0.533852
-0.251471
0.0262642
0.265354
0.441914
0.544426
0.574509
0.546284
0.484515
0.421793
0.395073
0.441894
0.596611
0.886972
1.33153
1.93866
2.70843
3.63932
4.74215
6.06356
7.72062
9.94555
13.1365
17.9065
25.1172
35.8842
51.5349
73.508
103.185
141.659
189.459
246.265
310.655
379.953
450.215
516.404
572.758
613.337
632.687
626.548
592.49
530.402
442.718
334.362
212.376
85.2779
-37.7848
-147.973
-237.676
-301.292
-335.774
-340.878
-319.09
-275.241
-215.879
-148.479
-80.5904
-19.0252
30.8087
65.3735
83.2168
84.9324
72.8911
50.7917
23.1007
-5.5433
-30.8869
-49.5184
-59.1787
-58.9054
-49.0074
-30.892
-6.77849
20.6551
48.6433
74.6773
96.7817
113.7
124.976
130.927
132.534
131.256
128.811
126.943
127.208
130.797
138.418
150.243
165.914
184.611
205.16
226.17
246.185
263.82
277.884
287.466
291.98
291.181
285.134
274.169
258.815
239.736
217.669
193.382
167.642
141.204
114.799
89.134
64.8856
42.6851
23.0962
6.58541
-6.51192
-16.0227
-21.9592
-24.5278
-24.1211
-21.2906
-16.7037
-11.0868
-5.16346
0.407711
5.08688
8.49288
10.4251
10.8653
9.96061
7.98977
5.31848
2.34896
-0.529738
-2.98529
-4.77517
-5.76675
-5.94376
-5.39998
-4.32231
-2.9661
-1.62559
-0.602575
-0.175774
-0.573546
-1.95185
-4.37928
-7.83035
-12.1877
-17.253
-22.7651
-28.4246
-33.9207
-38.9586
-43.2838
-46.7013
-49.087
-50.3917
-50.6365
-49.9027
-48.3163
-46.0309
-43.2107
-40.0157
-36.5905
-33.0576
-29.5143
-26.034
-22.67
-19.4603
-16.433
-13.6114
-11.0167
-8.66979
-6.59084
-4.79777
-3.30368
-2.11425
-1.22551
-0.622583
-0.279679
-0.161275
-0.22446
-0.422017
-0.705843
-1.03026
-1.35483
-1.64642
-1.88033
-2.0406
-2.11955
-2.11673
-2.03759
-1.89202
-1.69293
-1.455
-1.19352
-0.923554
-0.659154
-0.41277
-0.194742
-0.0129051
0.12769
0.224919
0.279559
0.295089
0.277287
0.233677
0.172831
0.103607
0.0343942
-0.0275768
-0.0767704
-0.109692
-0.125009
-0.123447
-0.107481
-0.0808757
-0.048126
-0.0138756
0.0176241
0.0429563
0.0598393
0.0672649
0.0654743
0.0557887
0.0403306
0.0216788
0.00250614
-0.0147556
-0.0281855
-0.0365515
-0.039386
-0.0369587
-0.0301623
-0.0203335
-0.00903904
0.0021445
0.0118275
0.018961
0.0229346
0.0236254
0.0214263
0.0173085
0.0129836
0.0112142
0.0162569
0.0343299
0.073894
0.14548
0.260819
0.431173
0.664985
0.965214
1.32693
1.7358
2.16802
2.59205
2.97197
3.27223
3.46277
3.52384
3.44945
3.24877
2.94548
2.57487
2.17947
1.80384
1.48928
1.2692
1.16569
1.18759
1.3302
1.57653
1.90011
2.26901
2.65156
3.02404
3.38182
3.75545
4.23378
4.99499
6.34511
8.76012
12.9246
19.7559
30.3993
46.1795
68.4951
98.6489
137.619
185.787
242.662
306.645
374.891
443.331
506.869
559.786
596.302
611.257
600.795
562.98
498.216
409.421
301.889
182.862
60.8381
-55.288
-157.151
-237.792
-292.368
-318.615
-317.007
-290.598
-244.584
-185.63
-121.077
-58.1104
-3.00205
39.494
66.5282
77.2947
72.9244
56.1649
30.9032
1.60106
-27.2803
-51.7967
-68.9225
-76.8003
-74.8249
-63.5688
-44.5768
-20.0665
7.41598
35.3416
61.5013
84.2372
102.581
116.295
125.817
132.135
136.602
140.725
145.956
153.506
164.196
178.381
195.917
216.203
238.267
260.893
282.764
302.608
319.328
332.095
340.401
344.075
343.245
338.274
329.677
318.022
303.851
287.609
269.616
250.06
229.029
206.566
182.739
157.707
131.779
105.438
79.3441
54.2945
31.1599
10.7973
-6.04449
-18.8134
-27.2244
-31.3
-31.376
-28.0713
-22.2251
-14.8101
-6.83325
0.764012
7.19386
11.8886
14.5387
15.0999
13.7702
10.9418
7.13511
2.92525
-1.13153
-4.56127
-7.0196
-8.31883
-8.43335
-7.48502
-5.71221
-3.42797
-0.973543
1.32662
3.20298
4.46822
5.03148
4.89921
4.1639
2.98327
1.5537
0.0815781
-1.24352
-2.27074
-2.90265
-3.10188
-2.88952
-2.33654
-1.55021
-0.657614
0.211239
0.938569
1.43075
1.62594
1.49701
1.0501
0.31935
-0.641003
-1.76601
-2.98946
-4.25209
-5.50764
-6.72597
-7.89318
-9.00902
-10.0823
-11.1252
-12.1482
-13.1547
-14.1392
-15.0852
-15.9672
-16.7524
-17.4056
-17.8937
-18.1908
-18.2829
-18.1715
-17.8751
-17.4289
-16.8824
-16.2946
-15.7281
-15.2435
-14.8924
-14.713
-14.7265
-14.9347
-15.3201
-15.847
-16.4632
-17.104
-17.6961
-18.1622
-18.4266
-18.4204
-18.0866
-17.3844
-16.2931
-14.8141
-12.9723
-10.816
-8.41487
-5.85803
-3.24916
-0.701369
1.66945
3.75202
5.44739
6.67641
7.38614
7.5547
7.19385
6.34884
5.09551
3.53459
1.78374
-0.0320671
-1.79071
-3.3826
-4.71886
-5.73684
-6.40259
-6.70978
-6.67552
-6.33365
-5.72658
-4.89698
-3.88063
-2.70133
-1.36877
0.120825
1.78142
3.63212
5.6913
7.97094
10.4719
13.1806
16.0677
19.0883
22.1836
25.2845
28.3152
31.1979
33.8573
36.2237
38.2366
39.8458
41.012
41.706
41.9075
41.6041
40.7903
39.4678
37.647
35.3492
32.6093
29.4788
26.0268
22.3403
18.5211
14.6815
10.9364
7.39466
4.14865
1.26444
-1.2274
-3.33843
-5.12528
-6.68749
-8.15872
-9.69036
-11.4265
-13.4703
-15.8418
-18.4285
-20.9332
-22.8228
-23.2886
-21.2279
-15.2627
-3.80785
14.7984
42.0985
79.2604
126.785
184.217
249.904
320.872
392.859
460.543
517.973
559.161
578.776
572.856
539.407
478.83
394.064
290.433
175.192
56.8152
-55.8696
-154.61
-232.592
-285.13
-310.102
-308.085
-282.176
-237.534
-180.712
-118.868
-58.9518
-6.97355
32.5729
57.067
65.8765
60.233
42.9039
17.7162
-10.9982
-38.961
-62.444
-78.6476
-85.9288
-83.8654
-73.1644
-55.4425
-32.9183
-8.0636
16.7382
39.486
58.7737
73.9051
84.9058
92.4411
97.6608
101.996
106.936
113.825
123.683
137.087
154.117
174.367
197.008
220.9
244.739
267.197
287.069
303.378
315.456
322.974
325.93
324.6
319.461
311.1
300.118
287.051
272.313
256.168
238.739
220.036
200.025
178.685
156.087
132.441
108.132
83.7133
59.8837
37.4214
17.1082
-0.357052
-14.4407
-24.8379
-31.5115
-34.6972
-34.8774
-32.7252
-29.028
-24.5997
-20.1946
-16.4323
-13.7435
-12.3416
-12.2226
-13.1902
-14.9027
-16.9329
-18.8333
-20.198
-20.7139
-20.1947
-18.5971
-16.0156
-12.6609
-8.82403
-4.83329
-1.00909
2.37627
5.1295
7.15428
8.45512
9.12745
9.33667
9.28963
9.20287
9.27213
9.64669
10.4117
11.5802
13.0943
14.8366
16.6477
18.3487
19.7643
20.7447
21.1831
21.0257
20.276
18.991
17.2712
15.2471
13.0622
10.8568
8.75267
6.84179
5.17872
3.77803
2.6164
1.63884
0.768081
-0.0840441
-1.00481
-2.06975
-3.33414
-4.82769
-6.55294
-8.4871
-10.5868
-12.7942
-15.044
-17.2692
-19.4055
-21.3936
-23.1805
-24.7183
-25.9647
-26.8827
-27.4422
-27.6226
-27.4162
-26.8323
-25.8994
-24.6666
-23.202
-21.588
-19.9153
-18.2739
-16.7453
-15.3934
-14.2594
-13.358
-12.6769
-12.1801
-11.8127
-11.5084
-11.1977
-10.8157
-10.31
-9.64569
-8.80945
-7.81011
-6.67715
-5.45652
-4.20476
-2.98191
-1.84434
-0.838431
0.00420548
0.669187
1.1595
1.49343
1.70076
1.81795
1.8831
1.93119
1.99029
2.07889
2.20451
2.36356
2.54232
2.71887
2.86588
2.95399
2.95569
2.84932
2.62295
2.27768
1.82995
1.31243
0.773383
0.274224
-0.114323
-0.317231
-0.260666
0.122644
0.888739
2.0789
3.71744
5.81082
8.34782
11.3006
14.626
18.2674
22.156
26.2124
30.347
34.4619
38.4507
42.2007
45.5943
48.5119
50.8366
52.4592
53.2854
53.2428
52.2881
50.4135
47.6497
44.0675
39.7743
34.9087
29.6305
24.1103
18.5167
13.0053
7.708
2.72501
-1.87996
-6.08186
-9.89309
-13.3588
-16.5479
-19.539
-22.3985
-25.1507
-27.7369
-29.9671
-31.4666
-31.6261
-29.5671
-24.1376
-13.9513
2.51341
26.7504
59.9999
102.976
155.582
216.652
283.783
353.302
420.412
479.534
524.816
550.782
553.015
528.797
477.599
401.337
304.351
193.079
75.4674
-39.8228
-144.308
-230.567
-293.004
-328.397
-336.168
-318.346
-279.241
-224.872
-162.233
-98.4849
-40.1857
7.3697
40.6145
57.946
59.7192
48.0171
26.2439
-1.39666
-30.4667
-56.8307
-77.1028
-88.9615
-91.3036
-84.239
-68.9386
-47.3721
-21.975
4.70409
30.334
53.0695
71.7316
85.8863
95.8229
102.442
107.079
111.283
116.59
124.318
135.398
150.266
168.828
190.488
214.232
238.764
262.654
284.505
303.086
317.454
327.01
331.529
331.132
326.224
317.406
305.375
290.832
274.393
256.546
237.619
217.795
197.148
175.699
153.475
130.572
107.19
83.6554
60.4116
37.9831
16.9254
-2.23702
-19.0718
-33.2896
-44.7768
-53.6056
-60.0212
-64.4078
-67.2404
-69.0271
-70.2532
-71.331
-72.5641
-74.1274
-76.0656
-78.3082
-80.6962
-83.0188
-85.0506
-86.5873
-87.4734
-87.6204
-87.0129
-85.7048
-83.806
-81.4631
-78.8379
-76.0856
-73.3369
-70.6851
-68.1793
-65.8241
-63.5849
-61.3981
-59.1832
-56.8569
-54.3456
-51.5954
-48.5796
-45.3006
-41.7894
-38.1001
-34.3027
-30.4748
-26.6933
-23.0273
-19.534
-16.2565
-13.2241
-10.4545
-7.95767
-5.73851
-3.80004
-2.14482
-0.775056
0.308574
1.10898
1.63512
1.90412
1.94264
1.78693
1.48159
1.07695
0.625476
0.177657
-0.222112
-0.539084
-0.750693
-0.847751
-0.834194
-0.725454
-0.545694
-0.324292
-0.0920417
0.122491
0.296021
0.412726
0.46538
0.455439
0.392194
0.291188
0.172156
0.0567055
-0.0340482
-0.0817139
-0.0725878
0.000776977
0.138501
0.332894
0.568644
0.823713
1.071
1.28071
1.42334
1.47307
1.4111
1.22869
0.929178
0.528811
0.0559243
-0.451443
-0.949308
-1.39241
-1.73915
-1.9561
-2.02157
-1.9276
-1.68051
-1.29985
-0.816041
-0.267264
0.304245
0.855922
1.34839
1.74848
2.03155
2.18301
2.19881
2.0851
1.85689
1.53602
1.14861
0.722381
0.284135
-0.142219
-0.536964
-0.885115
-1.17629
-1.40413
-1.56551
-1.65977
-1.68818
-1.65368
-1.56087
-1.41602
-1.22704
-1.00267
-0.750726
-0.474876
-0.169893
0.184321
0.629031
1.23194
2.08976
3.32643
5.08585
7.51885
10.7651
14.9321
20.0738
26.1725
33.1267
40.7476
48.7651
56.8435
64.6056
71.6619
77.643
82.2302
85.1832
86.3595
85.7267
83.3639
79.4538
74.2661
68.1336
61.4242
54.51
47.7385
41.4063
35.74
30.883
26.8913
23.7371
21.3198
19.4842
18.0441
16.8141
15.6466
14.4769
13.3748
12.5993
12.6525
14.321
18.6946
27.1446
41.2482
62.6465
92.8324
132.878
183.127
242.897
310.239
381.83
453.036
518.183
571.036
605.44
616.058
599.1
552.936
478.497
379.384
261.656
133.309
3.49877
-118.397
-223.759
-305.619
-359.37
-383.185
-378.115
-347.862
-298.25
-236.494
-170.338
-107.192
-53.3621
-13.456
9.97013
16.5048
7.7213
-13.196
-41.976
-73.8616
-104.208
-129.005
-145.279
-151.317
-146.73
-132.342
-109.955
-82.0178
-51.2557
-20.3169
8.53302
33.6296
54.0269
69.5114
80.523
88.0069
93.2217
97.5341
102.228
108.348
116.595
127.273
140.298
155.245
171.434
188.032
204.16
218.986
231.802
242.066
249.423
253.696
254.852
252.963
248.157
240.577
230.356
217.607
202.435
184.96
165.354
143.876
120.899
96.9203
72.5519
48.4946
25.4885
4.25501
-14.5662
-30.4753
-43.1579
-52.512
-58.6528
-61.8948
-62.7136
-61.6928
-59.4626
-56.638
-53.7628
-51.2666
-49.4378
-48.4151
-48.1964
-48.6627
-49.6121
-50.7998
-51.9776
-52.9287
-53.4941
-53.588
-53.2016
-52.3966
-51.2897
-50.0314
-48.7825
-47.6916
-46.875
-46.4033
-46.2937
-46.5096
-46.9672
-47.5464
-48.1063
-48.5016
-48.5989
-48.2903
-47.5022
-46.1999
-44.3865
-42.097
-39.3901
-36.3381
-33.0175
-29.5016
-25.8557
-22.1363
-18.3917
-14.6657
-11.0016
-7.44514
-4.0474
-0.864745
2.04261
4.614
6.7927
8.53067
9.79285
10.5603
10.8319
10.6244
9.97123
8.92
7.52961
5.86713
4.00493
2.01818
-0.0171409
-2.02575
-3.93443
-5.6733
-7.17752
-8.38941
-9.26122
-9.75838
-9.86284
-9.57605
-8.92078
-7.94111
-6.69965
-5.27182
-3.73673
-2.16559
-0.608821
0.916181
2.43428
4.01684
5.77938
7.87221
10.4645
13.7238
17.7924
22.7657
28.6727
35.4642
43.0085
51.0965
59.457
67.7781
75.7347
83.0175
89.3598
94.5584
98.4872
101.101
102.427
102.555
101.615
99.7567
97.128
93.8602
90.0556
85.785
81.0895
75.9897
70.4976
64.6303
58.4231
51.9391
45.275
38.5605
31.9525
25.6242
19.75
14.4876
9.96085
6.24293
3.34459
1.20724
-0.296726
-1.35596
-2.20472
-3.10106
-4.30051
-6.02819
-8.45213
-11.6612
-15.6504
-20.3149
-25.4555
-30.7935
-35.9968
-40.7118
-44.6015
-47.3843
-48.8694
-48.986
-47.8016
-45.5272
-42.5073
-39.1946
-36.1094
-33.7877
-32.7189
-33.2785
-35.6582
-39.8007
-45.3418
-51.569
-57.4043
-61.4206
-61.9027
-56.962
-44.7101
-23.488
7.86174
49.7072
101.365
160.91
225.116
289.555
348.889
397.337
429.28
439.934
425.997
386.18
321.535
235.522
133.785
23.6594
-86.5416
-188.373
-274.137
-337.684
-375.039
-384.774
-368.094
-328.619
-271.909
-204.789
-134.559
-68.193
-11.6238
30.8205
56.7544
65.8325
59.6071
41.1804
14.7078
-15.1788
-43.9504
-67.697
-83.5222
-89.7796
-86.1381
-73.4816
-53.6711
-29.2089
-2.85621
22.7465
45.4089
63.6333
76.7478
84.9223
89.0748
90.6892
91.5739
93.5967
98.4297
107.337
121.024
139.572
162.447
188.581
216.526
244.624
271.204
294.761
314.098
328.421
337.375
341.026
339.783
334.294
325.322
313.615
299.805
284.342
267.458
249.197
229.464
208.117
185.058
160.324
134.148
106.982
79.4792
52.4336
26.6888
3.03189
-17.9103
-35.7544
-50.4102
-62.0872
-71.2601
-78.5963
-84.8598
-90.8049
-97.0772
-104.134
-112.199
-121.249
-131.04
-141.162
-151.116
-160.393
-168.553
-175.288
-180.455
-184.09
-186.381
-187.63
-188.187
-188.392
-188.503
-188.655
-188.828
-188.848
-188.41
-187.123
-184.568
-180.371
-174.257
-166.108
-155.987
-144.147
-131.009
-117.123
-103.109
-89.5866
-77.1127
-66.1199
-56.875
-49.458
-43.764
-39.5283
-36.3704
-33.8496
-31.5263
-29.0189
-26.0502
-22.477
-18.3006
-13.6563
-8.78708
-4.00265
0.366814
4.01777
6.71399
8.31623
8.79754
8.24326
6.83672
4.83336
2.52753
0.216638
-1.83267
-3.41208
-4.39015
-4.72007
-4.43676
-3.64438
-2.49679
-1.1739
0.142751
1.29226
2.15171
2.64721
2.75773
2.51206
1.97989
1.25891
0.45962
-0.309681
-0.956157
-1.41232
-1.64169
-1.64
-1.4321
-1.06536
-0.600646
-0.101993
0.373719
0.785936
1.11752
1.37905
1.60995
1.8763
2.26563
2.87889
3.82059
5.18764
7.05833
9.48229
12.4728
16.002
20.0008
24.3608
28.9419
33.5807
38.1016
42.3277
46.0916
49.2444
51.6629
53.2548
53.9616
53.7599
52.6615
50.7119
47.9883
44.5961
40.6636
36.3365
31.7694
27.117
22.5243
18.1168
13.9921
10.2137
6.80704
3.75911
1.02097
-1.48691
-3.86671
-6.23292
-8.6991
-11.3609
-14.274
-17.4251
-20.6956
-23.8189
-26.3341
-27.544
-26.4875
-21.9406
-12.4596
3.5189
27.5138
60.7734
104.003
157.077
218.782
286.647
356.911
424.676
484.254
529.697
555.455
557.079
531.874
479.393
401.698
303.315
190.896
72.5912
-42.7726
-146.618
-231.526
-292.011
-325.071
-330.43
-310.477
-269.888
-215.006
-153.061
-91.3228
-36.306
6.89428
35.0526
47.0163
43.6503
27.5511
2.57984
-26.7133
-55.6963
-80.2168
-97.0543
-104.217
-101.062
-88.2333
-67.455
-41.2022
-12.3138
16.406
42.5429
64.3461
80.8921
92.1272
98.7962
102.274
104.334
106.878
111.681
120.163
133.226
151.164
173.651
199.807
228.322
257.614
286.012
311.933
334.028
351.29
363.12
369.327
370.097
365.912
357.453
345.492
330.787
314
295.64
276.043
255.379
233.695
210.979
187.231
162.531
137.099
111.326
85.7713
61.1374
38.2046
17.7502
0.453449
-13.1977
-22.9859
-29.0175
-31.7398
-31.9178
-30.5702
-28.8696
-28.0183
-29.1118
-33.0086
-40.2207
-50.8406
-64.5136
-80.4624
-97.5611
-114.452
-129.693
-141.913
-149.968
-153.063
-150.84
-143.413
-131.348
-115.596
-97.3812
-78.0675
-59.0117
-41.4282
-26.2767
-14.1845
-5.41199
0.139475
2.87983
3.45207
2.63461
1.23738
0.00429896
-0.466751
0.22145
2.24061
5.5421
9.88861
14.9059
20.1457
25.1515
29.5165
32.9283
35.195
36.2498
36.138
34.9874
32.9715
30.2696
27.0335
23.3639
19.3017
14.8336
9.90997
4.47109
-1.52365
-8.06965
-15.0983
-22.4692
-29.9737
-37.3506
-44.3092
-50.5585
-55.8363
-59.9358
-62.7253
-64.159
-64.2783
-63.2032
-61.1158
-58.2378
-54.8054
-51.0445
-47.1492
-43.2655
-39.4824
-35.8307
-32.2886
-28.7936
-25.2581
-21.5871
-17.6948
-13.5189
-9.03072
-4.24014
0.80495
6.02383
11.3121
16.5535
21.6321
26.4453
30.9131
34.9865
38.6502
41.9234
44.8554
47.5191
50.0022
52.3978
54.7946
57.2692
59.8789
62.6573
65.6113
68.72
71.9345
75.1793
78.3542
81.3378
83.992
86.1679
87.7131
88.481
88.3399
87.1835
84.9402
81.5816
77.1287
71.6549
65.2856
58.1928
50.5852
42.6933
34.7492
26.9637
19.5003
12.4514
5.81888
-0.495844
-6.68938
-13.0383
-19.8656
-27.4946
-36.1947
-46.128
-57.3043
-69.5538
-82.5227
-95.6956
-108.443
-120.087
-129.981
-137.59
-142.555
-144.746
-144.278
-141.501
-136.95
-131.266
-125.093
-118.948
-113.105
-107.473
-101.524
-94.2647
-84.2861
-69.8915
-49.3184
-21.0317
15.9344
61.635
114.93
173.321
232.966
288.9
335.472
366.951
378.245
365.616
327.304
263.939
178.681
77.0495
-33.5673
-144.641
-247.401
-333.781
-397.286
-433.683
-441.414
-421.7
-378.319
-317.096
-245.189
-170.24
-99.5368
-39.2407
6.18986
34.3521
44.9863
39.8105
22.1397
-3.64928
-32.7302
-60.4387
-82.8081
-96.9722
-101.398
-95.9356
-81.6951
-60.783
-35.9414
-10.1441
13.7984
33.5778
47.6369
55.3056
56.8211
53.2376
46.2487
37.9481
30.5634
26.1928
26.5759
32.9191
45.7907
65.0909
90.093
119.546
151.82
185.083
217.475
247.274
273.032
293.669
308.516
317.32
320.197
317.563
310.039
298.354
283.259
265.45
245.527
223.976
201.169
177.399
152.905
127.922
102.705
77.5603
52.8441
28.958
6.32501
-14.6432
-33.5822
-50.2092
-64.3506
-75.958
-85.1113
-92.0088
-96.945
-100.28
-102.403
-103.699
-104.513
-105.122
-105.722
-106.418
-107.221
-108.065
-108.821
-109.317
-109.367
-108.787
-107.422
-105.156
-101.926
-97.723
-92.5945
-86.6359
-79.9844
-72.8091
-65.2996
-57.6557
-50.077
-42.7531
-35.8553
-29.5286
-23.886
-19.0039
-14.9193
-11.6293
-9.09342
-7.23747
-5.96038
-5.1427
-4.6564
-4.37514
-4.18415
-3.9885
-3.71926
-3.33668
-2.83032
-2.21606
-1.53063
-0.824305
-0.152681
0.431337
0.884538
1.17857
1.3028
1.26477
1.08826
0.809547
0.472362
0.122328
-0.198402
-0.455653
-0.626408
-0.700378
-0.679901
-0.57836
-0.417409
-0.223501
-0.024169
0.155431
0.295338
0.382673
0.412473
0.387497
0.317167
0.215945
0.101465
-0.00723003
-0.091109
-0.132096
-0.11355
-0.0203999
0.160865
0.44216
0.833561
1.34281
1.97455
2.72951
3.60373
4.58799
5.66777
6.82365
8.03225
9.26772
10.5034
11.714
12.8771
13.9749
14.9948
15.9302
16.7793
17.5441
18.2281
18.8347
19.3642
19.8127
20.1711
20.4258
20.5596
20.5547
20.3958
20.0733
19.5858
18.9416
18.159
17.2648
16.2913
15.2731
14.2428
13.2281
12.2488
11.3157
10.4298
9.58346
8.76158
7.94334
7.10379
6.21508
5.24709
4.16751
2.94165
1.53205
-0.10128
-1.99994
-4.20479
-6.75224
-9.6691
-12.9664
-16.6328
-20.6291
-24.8837
-29.2916
-33.716
-37.995
-41.9511
-45.4044
-48.1883
-50.1656
-51.2428
-51.3824
-50.61
-49.0161
-46.7522
-44.0204
-41.06
-38.129
-35.4849
-33.3637
-31.9586
-31.3976
-31.7197
-32.8478
-34.5588
-36.45
-37.9065
-38.0736
-35.8459
-29.8828
-18.6661
-0.610154
25.7681
61.6217
107.505
163.097
226.961
296.398
367.441
435.036
493.419
536.657
559.322
557.183
527.846
471.22
389.736
288.275
173.78
54.6155
-60.2837
-162.339
-244.234
-300.667
-328.88
-328.875
-303.317
-257.14
-196.903
-130.001
-63.8228
-4.95439
41.4664
72.1901
86.045
83.874
68.245
42.9877
12.6269
-18.213
-45.3566
-65.5204
-76.6044
-77.8139
-69.6115
-53.5223
-31.8297
-7.20911
17.6501
40.3865
59.2348
73.1937
82.0822
86.487
87.6177
87.0938
86.6967
88.1196
92.7454
101.479
114.651
131.995
152.705
175.545
199.013
221.513
241.533
257.792
269.351
275.672
276.625
272.446
263.659
250.98
235.208
217.135
197.472
176.814
155.627
134.272
113.04
92.1975
72.0276
52.8539
35.0462
19.0031
5.11638
-6.27662
-14.9439
-20.8018
-23.9436
-24.6453
-23.3491
-20.6235
-17.1073
-13.4437
-10.2134
-7.87709
-6.73272
-6.89395
-8.2912
-10.6942
-13.752
-17.0449
-20.1398
-22.6442
-24.2499
-24.7634
-24.1201
-22.3822
-19.7218
-16.3923
-12.6936
-8.93488
-5.3998
-2.31829
0.153108
1.94035
3.05068
3.5621
3.60555
3.34253
2.94096
2.55232
2.29254
2.22863
2.37218
2.68021
3.06276
3.39588
3.53843
3.35023
2.70956
1.52772
-0.240847
-2.59383
-5.48209
-8.81584
-12.4747
-16.3203
-20.2087
-24.0027
-27.5804
-30.8407
-33.7053
-36.1172
-38.0368
-39.4362
-40.2944
-40.5924
-40.3118
-39.4353
-37.95
-35.8539
-33.1634
-29.9205
-26.1988
-22.1065
-17.7845
-13.4007
-9.13881
-5.18441
-1.70884
1.14669
3.28467
4.66087
5.28839
5.23578
4.61928
3.59018
2.31884
0.977329
-0.27732
-1.31725
-2.05395
-2.44336
-2.48586
-2.22128
-1.72007
-1.07179
-0.372669
0.286397
0.829987
1.20537
1.38629
1.37319
1.19016
0.879414
0.49414
0.0908388
-0.277694
-0.567713
-0.747271
-0.795771
-0.700275
-0.449175
-0.0245206
0.60515
1.48952
2.69701
4.31022
6.41619
9.09269
12.3926
16.3287
20.8624
25.8969
31.2789
36.8064
42.2441
47.3436
51.8656
55.6022
58.3955
60.1516
60.8466
60.5269
59.3015
57.3294
54.8034
51.9316
48.9193
45.9527
43.1855
40.7296
38.6503
36.9665
35.6542
34.6547
33.8842
33.2448
32.6356
31.9613
31.1394
30.1037
28.805
27.2093
25.294
23.0444
20.4497
17.5012
14.192
10.5195
6.48824
2.11496
-2.56732
-7.50578
-12.6263
-17.8339
-23.0171
-28.0536
-32.8208
-37.2071
-41.125
-44.5241
-47.4006
-49.8025
-51.8278
-53.6131
-55.3118
-57.0614
-58.9394
-60.91
-62.7639
-64.0601
-64.0758
-61.781
-55.8496
-44.7251
-26.7506
-0.369201
35.615
81.7371
137.574
201.504
270.574
340.543
406.108
461.345
500.303
517.709
509.67
474.285
412.063
326.069
221.767
106.558
-10.9297
-121.73
-217.479
-291.296
-338.504
-357.075
-347.783
-314.016
-261.312
-196.653
-127.644
-61.647
-5.00688
37.5678
63.3888
71.9148
64.6215
44.6487
16.286
-15.6312
-46.3339
-71.6672
-88.5135
-95.0522
-90.8397
-76.7166
-54.5706
-26.9965
3.0945
32.8657
59.8964
82.4396
99.572
111.229
118.132
121.627
123.459
125.525
129.618
137.211
149.292
166.262
187.919
213.498
241.776
271.225
300.18
327.004
350.242
368.734
381.678
388.657
389.61
384.776
374.613
359.711
340.715
318.258
292.934
265.282
235.81
205.022
173.464
141.747
110.57
80.7097
52.9872
28.2132
7.11783
-9.72388
-21.9595
-29.5084
-32.5839
-31.6841
-27.5517
-21.1059
-13.3557
-5.30487
2.14041
8.24996
12.5254
14.728
14.8769
13.2195
10.1791
6.28806
2.11514
-1.80451
-5.02808
-7.24709
-8.30921
-8.21922
-7.12114
-5.2655
-2.96725
-0.560336
1.64517
3.39836
4.5316
4.9716
4.73708
3.92487
2.68697
1.20254
-0.351104
-1.82454
-3.11598
-4.18262
-5.0426
-5.76805
-6.47087
-7.28365
-8.3388
-9.74867
-11.5895
-13.8911
-16.6326
-19.7458
-23.1235
-26.6329
-30.1308
-33.4792
-36.5594
-39.2816
-41.5918
-43.472
-44.9369
-46.027
-46.7985
-47.3137
-47.6303
-47.7942
-47.8335
-47.7567
-47.5532
-47.197
-46.6514
-45.876
-44.8328
-43.4925
-41.8397
-39.8757
-37.6205
-35.1119
-32.4036
-29.5605
-26.6544
-23.7577
-20.9378
-18.2525
-15.7459
-13.4466
-11.3676
-9.5079
-7.85551
-6.39133
-5.09343
-3.9409
-2.91693
-2.01057
-1.21724
-0.537875
0.02298
0.459695
0.768314
0.94902
1.00793
0.957951
0.818527
0.614424
0.373652
0.124889
-0.105234
-0.294615
-0.427616
-0.496192
-0.500134
-0.446401
-0.347702
-0.220522
-0.0828715
0.0479431
0.157269
0.234566
0.274233
0.275776
0.243339
0.184735
0.11014
0.0306434
-0.0431541
-0.10236
-0.140693
-0.155019
-0.145484
-0.115247
-0.0698887
-0.0165499
0.0370645
0.0837072
0.117531
0.134893
0.135051
0.120834
0.099434
0.0834167
0.0919428
0.152006
0.299312
0.578307
1.04084
1.74307
2.74059
4.08189
5.80086
7.90928
10.3902
13.1936
16.2349
19.397
22.5365
25.4924
28.0984
30.1957
31.6463
32.3446
32.2268
31.2761
29.5242
27.0481
23.9638
20.4157
16.5654
12.5781
8.61117
4.80236
1.26224
-1.93079
-4.73161
-7.12553
-9.12208
-10.7456
-12.0227
-12.9665
-13.5557
-13.708
-13.2454
-11.8531
-9.03523
-4.07409
3.99426
16.3735
34.4532
59.6927
93.4374
136.669
189.717
251.959
321.576
395.417
469.024
536.865
592.77
630.551
644.727
631.264
588.223
516.202
418.5
300.958
171.477
39.2629
-86.0993
-195.647
-281.97
-339.965
-367.319
-364.662
-335.389
-285.166
-221.215
-151.447
-83.5734
-24.2939
21.3446
50.3555
61.952
57.4231
39.781
13.2404
-17.3946
-47.3536
-72.4589
-89.558
-96.7893
-93.6655
-80.9814
-60.5743
-34.982
-7.04884
20.4652
45.2258
65.5775
80.6873
90.5716
96.0138
98.3937
99.457
101.059
104.916
112.39
124.338
141.026
162.125
186.771
213.689
241.35
268.143
292.545
313.267
329.355
340.246
345.777
346.141
341.809
333.434
321.739
307.419
291.064
273.107
253.816
233.316
211.641
188.805
164.873
140.035
114.64
89.2207
64.4645
41.1669
20.1524
2.18369
-12.13
-22.4108
-28.5661
-30.8091
-29.6431
-25.8111
-20.2182
-13.8353
-7.59807
-2.31334
1.41591
3.2382
3.06942
1.07665
-2.36593
-6.74208
-11.4697
-15.978
-19.7766
-22.5075
-23.9761
-24.1591
-23.19
-21.3257
-18.9018
-16.2815
-13.8059
-11.7518
-10.302
-9.53013
-9.40094
-9.78494
-10.4839
-11.2631
-11.8857
-12.1442
-11.8858
-11.0281
-9.56551
-7.56417
-5.14985
-2.48905
0.232539
2.83154
5.14587
7.04914
8.4594
9.34207
9.70736
9.60336
9.10607
8.30807
7.30718
6.19647
5.05664
3.9513
2.92525
2.00567
1.20529
0.527019
-0.0311072
-0.471493
-0.793637
-0.992325
-1.05741
-0.975009
-0.729735
-0.307517
0.301484
1.10026
2.08296
3.23369
4.52625
5.92473
7.38505
8.85712
10.2877
11.6234
12.8144
13.8167
14.5959
15.1283
15.4025
15.4191
15.1897
14.7344
14.0797
13.2548
12.2897
11.213
10.0511
8.82861
7.569
6.29599
5.03484
3.81295
2.65982
1.60586
0.680449
-0.090703
-0.688342
-1.10217
-1.33259
-1.39139
-1.30108
-1.09316
-0.805181
-0.47728
-0.148426
0.147073
0.382391
0.539989
0.612216
0.60065
0.514354
0.367347
0.175724
-0.0450958
-0.282545
-0.528213
-0.778121
-1.03203
-1.29199
-1.5605
-1.83855
-2.12413
-2.41132
-2.69033
-2.94857
-3.17278
-3.35216
-3.48224
-3.56948
-3.63614
-3.72503
-3.90366
-4.26684
-4.93702
-6.0615
-7.80596
-10.3439
-13.8422
-18.4431
-24.245
-31.2816
-39.5051
-48.7726
-58.8415
-69.3748
-79.9576
-90.1269
-99.4113
-107.378
-113.685
-118.121
-120.647
-121.406
-120.715
-119.03
-116.877
-114.757
-113.044
-111.859
-110.971
-109.714
-106.955
-101.129
-90.3421
-72.5674
-45.9065
-8.91233
39.0679
97.5763
164.808
237.515
311.089
379.852
437.541
477.959
495.694
486.841
449.6
384.678
295.402
187.53
68.7545
-52.0371
-165.671
-263.641
-339
-387.07
-405.887
-396.336
-361.957
-308.459
-243.009
-173.388
-107.124
-50.6916
-8.89436
15.5377
22.0796
12.2857
-10.5637
-41.9849
-76.9076
-110.307
-137.773
-155.96
-162.866
-157.936
-141.972
-116.907
-85.451
-50.6924
-15.6828
16.9243
45.151
67.8599
84.7963
96.5147
104.211
109.491
114.107
119.706
127.612
138.676
153.194
170.909
191.08
212.607
234.186
254.483
272.281
286.613
296.837
302.669
304.164
301.656
295.671
286.826
275.728
262.896
248.702
233.347
216.861
199.144
180.008
159.244
136.684
112.258
86.0343
58.2428
29.2804
-0.307979
-29.8635
-58.6612
-85.966
-111.09
-133.444
-152.582
-168.23
-180.297
-188.87
-194.196
-196.645
-196.671
-194.768
-191.42
-187.07
-182.087
-176.75
-171.247
-165.675
-160.061
-154.381
-148.583
-142.61
-136.414
-129.976
-123.301
-116.422
-109.397
-102.29
-95.1721
-88.1028
-81.128
-74.2744
-67.5503
-60.9498
-54.4589
-48.0652
-41.766
-35.5764
-29.535
-23.7048
-18.1719
-13.0381
-8.41241
-4.39831
-1.08201
1.4791
3.26511
4.29846
4.64421
4.40571
3.71598
2.72602
1.59129
0.458103
-0.548654
-1.33495
-1.84339
-2.05483
-1.98585
-1.68276
-1.21286
-0.654413
-0.0863536
0.420957
0.812988
1.05569
1.13723
1.06707
0.872709
0.595012
0.28287
-0.0119311
-0.239026
-0.352616
-0.313385
-0.0894141
0.34352
1.00179
1.8935
3.01744
4.36141
5.89992
7.59182
9.37824
11.1818
12.9073
14.4457
15.6791
16.4899
16.77
16.4322
15.4189
13.7109
11.3312
8.34582
4.8616
1.02028
-3.00836
-7.03407
-10.8531
-14.2546
-17.0259
-18.9591
-19.8576
-19.5458
-17.8801
-14.7619
-10.1514
-4.07871
3.34732
11.9372
21.4249
31.4807
41.7302
51.7793
61.2423
69.7701
77.074
82.9436
87.2569
89.9799
91.1588
90.9048
89.3752
86.7531
83.2285
78.9846
74.188
68.9856
63.5058
57.8634
52.1662
46.5203
41.0336
35.8155
30.9723
26.5993
22.7709
19.529
16.8736
14.7565
13.0792
11.6971
10.4295
9.07601
7.43993
5.35779
2.73604
-0.406009
-3.88858
-7.32266
-10.0665
-11.1968
-9.50533
-3.53628
8.32639
27.7107
56.0486
94.318
142.76
200.614
265.911
335.394
404.597
468.112
520.047
554.626
566.87
553.272
512.353
445.03
354.703
247.059
129.583
10.8341
-100.421
-196.118
-269.732
-316.932
-335.981
-327.836
-295.938
-245.73
-183.98
-117.978
-54.7296
-0.229924
41.0952
66.7314
76.1706
70.7695
53.4058
27.9895
-1.098
-29.5664
-53.7104
-70.7838
-79.2199
-78.6867
-69.9869
-54.8299
-35.518
-14.591
5.52013
22.792
35.8265
43.9699
47.3294
46.6936
43.3784
39.0226
35.3627
34.0159
36.2947
43.0712
54.7022
71.0156
91.3552
114.671
139.642
164.812
188.727
210.055
227.674
240.739
248.708
251.336
248.653
240.923
228.593
212.252
192.589
170.363
146.381
121.478
96.4988
72.278
49.6092
29.2115
11.6904
-2.50099
-13.0961
-20.0377
-23.4852
-23.8033
-21.5319
-17.3394
-11.9628
-6.14326
-0.561652
4.21711
7.78562
9.91729
10.5697
9.86846
8.0744
5.53865
2.65004
-0.219769
-2.76948
-4.81542
-6.32928
-7.46225
-8.55149
-10.1051
-12.7628
-17.2327
-24.2067
-34.261
-47.7539
-64.7318
-84.8596
-107.389
-131.173
-154.734
-176.383
-194.377
-207.1
-213.244
-211.976
-203.047
-186.849
-164.401
-137.258
-107.361
-76.8474
-47.8337
-22.2084
-1.45371
13.4817
22.2463
25.0811
22.7494
16.4155
7.48704
-2.55545
-12.323
-20.6565
-26.7254
-30.0787
-30.6467
-28.6978
-24.7604
-19.5215
-13.7189
-8.0385
-3.03016
0.94984
3.76494
5.49307
6.39352
6.85278
7.31795
8.22724
9.94641
12.7185
16.6319
21.6094
27.4173
33.6936
39.9885
45.8143
50.6967
54.2233
56.0827
56.0931
54.2152
50.552
45.3336
38.8922
31.6281
23.9723
16.3485
9.13927
2.65804
-2.86899
-7.31186
-10.6356
-12.8904
-14.1946
-14.7134
-14.6366
-14.156
-13.4471
-12.655
-11.8856
-11.2023
-10.6282
-10.1517
-9.73484
-9.32335
-8.85677
-8.27756
-7.53844
-6.60729
-5.46906
-4.12459
-2.58648
-0.872536
1.00224
3.03369
5.23513
7.64089
10.3058
13.2999
16.6988
20.5706
24.9609
29.8769
35.2739
41.0447
47.014
52.9388
58.5167
63.4021
67.2291
69.6422
70.33
69.0595
65.7073
60.2834
52.9423
43.9815
33.8232
22.9827
12.0247
1.51256
-8.0441
-16.2371
-22.7974
-27.6178
-30.7583
-32.4328
-32.9789
-32.8133
-32.3759
-32.0671
-32.1804
-32.8337
-33.9039
-34.9693
-35.2685
-33.6868
-28.7833
-18.872
-2.16612
23.0101
57.9529
103.276
158.615
222.385
291.659
362.208
428.735
485.314
525.986
545.455
539.79
507.023
447.558
364.315
262.566
149.484
33.446
-76.8268
-173.177
-248.858
-299.212
-322.106
-318.061
-290.091
-243.261
-184.04
-119.53
-56.6746
-1.53165
41.299
69.0423
80.8786
77.8424
62.5181
38.5877
10.2942
-18.1048
-42.8305
-60.9667
-70.7003
-71.4028
-63.5605
-48.5768
-28.4851
-5.61782
17.7241
39.5583
58.435
73.5588
84.8138
92.6986
98.1907
102.563
107.185
113.324
121.986
133.801
148.96
167.216
187.935
210.19
232.875
254.836
274.988
292.418
306.445
316.657
322.901
325.247
323.926
319.265
311.609
301.271
288.488
273.411
256.119
236.653
215.068
191.489
166.159
139.473
111.987
84.4012
57.5175
32.1744
9.17141
-10.8083
-27.267
-39.9422
-48.8311
-54.1865
-56.485
-56.3712
-54.5855
-51.8855
-48.9694
-46.4116
-44.6164
-43.7958
-43.9708
-44.9955
-46.5991
-48.4392
-50.1582
-51.4371
-52.0383
-51.8343
-50.8185
-49.1004
-46.8835
-44.434
-42.0415
-39.9797
-38.4699
-37.6534
-37.5743
-38.175
-39.3036
-40.7331
-42.1877
-43.3743
-44.0147
-43.8752
-42.7899
-40.6756
-37.5378
-33.4668
-28.6266
-23.2365
-17.5498
-11.831
-6.33423
-1.28482
3.13477
6.79369
9.6162
11.5803
12.7123
13.0783
12.7742
11.9146
10.6226
9.02091
7.22437
5.33497
3.43885
1.6052
-0.113249
-1.67863
-3.06564
-4.25897
-5.25087
-6.039
-6.62491
-7.01316
-7.21097
-7.22856
-7.07967
-6.78224
-6.35874
-5.83613
-5.24509
-4.61849
-3.98934
-3.38823
-2.84079
-2.36537
-1.97142
-1.6586
-1.41687
-1.22745
-1.06441
-0.896835
-0.69108
-0.41324
-0.0315176
0.481389
1.14586
1.97284
2.96134
4.09606
5.34553
6.66123
7.9781
9.2168
10.288
11.0983
11.5576
11.5872
11.1274
10.1444
8.635
6.62974
4.1932
1.42231
-1.55755
-4.59858
-7.53862
-10.2111
-12.4569
-14.1366
-15.1431
-15.4128
-14.9334
-13.748
-11.9531
-9.6922
-7.14341
-4.50317
-1.96788
0.284563
2.11123
3.41642
4.15841
4.35017
4.05402
3.37139
2.42919
1.36507
0.314305
-0.598168
-1.25655
-1.54007
-1.29355
-0.283509
1.85481
5.66877
11.9224
21.5954
35.8296
55.8119
82.5926
116.851
158.636
207.129
260.47
315.704
368.885
415.344
450.114
468.474
466.532
441.781
393.529
323.154
234.114
131.721
22.6776
-85.5491
-185.461
-270.269
-334.552
-374.765
-389.529
-379.687
-348.118
-299.348
-239.005
-173.197
-107.872
-48.2462
1.64301
39.2266
63.5077
74.9875
75.4368
67.5519
54.5465
39.7308
26.1279
16.1664
11.4775
12.8073
20.0427
32.3347
48.2945
66.2308
84.3968
101.216
115.465
126.389
133.753
137.822
139.283
139.12
138.462
138.433
140.003
143.876
150.41
159.591
171.037
184.062
197.75
211.061
222.937
232.399
238.626
241.008
239.175
233.001
222.587
208.24
190.437
169.796
147.044
122.99
98.493
74.4278
51.6461
30.9344
12.9674
-1.73552
-12.8485
-20.2642
-24.1038
-24.706
-22.5978
-18.4468
-13.0009
-7.02099
-1.21424
3.82448
7.65751
10.0307
10.8793
10.3137
8.58787
6.05521
3.11729
0.171672
-2.4355
-4.44766
-5.72344
-6.24816
-6.1309
-5.58847
-4.91837
-4.46387
-4.57472
-5.56745
-7.68882
-11.086
-15.7861
-21.6867
-28.559
-36.0616
-43.7663
-51.1908
-57.838
-63.2362
-66.9788
-68.7588
-68.3956
-65.8511
-61.2349
-54.7963
-46.9049
-38.0212
-28.6586
-19.3427
-10.5694
-2.76707
3.7339
8.72124
12.1093
13.9354
14.345
13.5679
11.8886
9.61448
7.04479
4.44434
2.0235
-0.0735664
-1.77221
-3.06279
-3.98977
-4.63633
-5.10695
-5.51021
-5.94379
-6.48321
-7.1753
-8.03649
-9.05558
-10.2
-11.4244
-12.6792
-13.9195
-15.1106
-16.2312
-17.2732
-18.2384
-19.1318
-19.9547
-20.697
-21.3317
-21.8125
-22.0751
-22.0438
-21.6408
-20.7991
-19.4755
-17.6616
-15.3919
-12.7461
-9.84559
-6.84402
-3.91291
-1.22444
1.06666
2.83949
4.01952
4.58584
4.57202
4.06081
3.17348
2.05513
0.858159
-0.274185
-1.22209
-1.89964
-2.26013
-2.29571
-2.03141
-1.51432
-0.799885
0.0624571
1.04149
2.13184
3.35535
4.75548
6.38577
8.29412
10.5058
13.0083
15.741
18.591
21.3974
23.9624
26.0684
27.4993
28.0622
27.6073
26.0442
23.3511
19.5784
14.8444
9.32692
3.25059
-3.12793
-9.53448
-15.6911
-21.3282
-26.1959
-30.0732
-32.778
-34.1749
-34.1824
-32.7763
-29.9894
-25.902
-20.6245
-14.2679
-6.90388
1.48318
11.0474
22.1265
35.2698
51.2374
70.9563
95.4254
125.566
162.022
204.935
253.717
306.873
361.914
415.402
463.156
500.605
523.279
527.356
510.213
470.879
410.324
331.524
239.286
139.824
40.1627
-52.5909
-131.987
-192.906
-232.079
-248.381
-242.876
-218.615
-180.209
-133.248
-83.6388
-36.9484
2.17712
30.4416
46.144
49.2202
41.0909
24.3521
2.35477
-21.2641
-43.0396
-60.0722
-70.3137
-72.7233
-67.284
-54.8942
-37.1566
-16.1027
6.1084
27.4766
46.3982
61.8294
73.3633
81.2175
86.1441
89.2789
91.9557
95.5106
101.102
109.569
121.335
136.379
154.249
174.144
195.012
215.681
234.991
251.903
265.594
275.505
281.357
283.131
281.016
275.342
266.506
254.908
240.899
224.763
206.72
186.955
165.662
143.097
119.622
95.7306
72.0484
49.3094
28.3011
9.79454
-5.53695
-17.1941
-24.9139
-28.7072
-28.8655
-25.936
-20.6678
-13.9351
-6.649
0.332721
6.28607
10.6825
13.2258
13.86
12.7515
10.2466
6.81296
2.9731
-0.762795
-3.95538
-6.28071
-7.55665
-7.74982
-6.96424
-5.41496
-3.39115
-1.21431
0.803439
2.39596
3.37126
3.62869
3.16456
2.06634
0.497185
-1.32696
-3.16472
-4.77803
-5.95922
-6.55375
-6.47628
-5.71874
-4.34961
-2.50467
-0.370427
1.8378
3.9005
5.61836
6.83338
7.44435
7.41487
6.77335
5.60542
4.04039
2.234
0.350014
-1.45661
-3.05329
-4.33864
-5.24653
-5.74566
-5.83587
-5.54256
-4.91057
-3.99852
-2.87422
-1.61128
-0.286429
1.02285
2.24099
3.29767
4.13184
4.69614
4.96116
4.91876
4.58386
3.99401
3.20666
2.29412
1.33678
0.415211
-0.397827
-1.0446
-1.48791
-1.71417
-1.73368
-1.57799
-1.29458
-0.939836
-0.570981
-0.238498
0.0200807
0.184041
0.250562
0.233031
0.157029
0.0548238
-0.040688
-0.101626
-0.109647
-0.0590001
0.0418582
0.169725
0.286784
0.341122
0.26762
-0.0104758
-0.578813
-1.52756
-2.9451
-4.91003
-7.48188
-10.6917
-14.5335
-18.9585
-23.8721
-29.1355
-34.5714
-39.9738
-45.1207
-49.7887
-53.7682
-56.8772
-58.9734
-59.9633
-59.8069
-58.5201
-56.1729
-52.8839
-48.8135
-44.1534
-39.1161
-33.9228
-28.7921
-23.9292
-19.5172
-15.7097
-12.6257
-10.3464
-8.91408
-8.33218
-8.56628
-9.54646
-11.1701
-13.3057
-15.7974
-18.4708
-21.1396
-23.6138
-25.7088
-27.2546
-28.1063
-28.1532
-27.3274
-25.6098
-23.0336
-19.6838
-15.6932
-11.2336
-6.50253
-1.70677
2.95877
7.33566
11.3308
14.9495
18.3313
21.7869
25.8291
31.1919
38.8258
49.8598
65.519
86.9933
115.257
150.856
193.673
242.736
296.071
350.687
402.692
447.578
480.643
497.523
494.757
470.313
423.983
357.582
274.907
181.448
83.8723
-10.6533
-95.2149
-163.888
-212.36
-238.36
-241.848
-224.943
-191.605
-147.122
-97.4668
-48.6133
-5.88823
26.56
46.1243
51.9005
44.6424
26.5315
0.802948
-28.7181
-58.1059
-83.7908
-102.932
-113.67
-115.24
-107.944
-93.0046
-72.3223
-48.1768
-22.9154
1.33554
22.9037
40.726
54.4148
64.2361
71.011
75.9586
80.505
86.0827
93.9461
105.022
119.808
138.33
160.155
184.454
210.105
235.817
260.273
282.251
300.733
314.983
324.585
329.442
329.742
325.898
318.465
308.062
295.284
280.648
264.548
247.245
228.879
209.501
189.124
167.772
145.533
122.59
99.2414
75.8972
53.0559
31.2654
11.0728
-7.02803
-22.6445
-35.5223
-45.5668
-52.8457
-57.5741
-60.0837
-60.782
-60.1053
-58.4736
-56.2517
-53.7218
-51.0689
-48.3815
-45.6648
-42.8628
-39.888
-36.6505
-33.0849
-29.1703
-24.9412
-20.489
-15.9535
-11.5086
-7.34127
-3.63132
-0.530679
1.85226
3.46296
4.30448
4.43487
3.959
3.01634
1.76655
0.374476
-1.0037
-2.23186
-3.20213
-3.83946
-4.10263
-3.98215
-3.49588
-2.68313
-1.59832
-0.30502
1.12903
2.63552
4.14776
5.60167
6.93605
8.0926
9.01611
9.65532
9.96448
9.90563
9.4514
8.58792
7.31747
5.66049
3.65653
1.36394
-1.14178
-3.77096
-6.42389
-8.99575
-11.3821
-13.4841
-15.2144
-16.5011
-17.2923
-17.5588
-17.2965
-16.5268
-15.2965
-13.6758
-11.7546
-9.6376
-7.43824
-5.27113
-3.24443
-1.45233
0.0315274
1.15901
1.9103
2.29424
2.34603
2.12264
1.6964
1.14742
0.555656
-0.00641477
-0.479936
-0.823906
-1.01725
-1.05862
-0.964133
-0.763461
-0.494832
-0.199633
0.082773
0.319414
0.48686
0.572896
0.576684
0.507553
0.382698
0.224186
0.0556996
-0.10055
-0.226396
-0.309511
-0.344273
-0.331729
-0.278718
-0.196384
-0.0983082
0.00147265
0.0903455
0.158759
0.201595
0.21933
0.219051
0.215339
0.230874
0.296538
0.450707
0.737549
1.20427
1.89761
2.85991
4.1256
5.7183
7.64922
9.91675
12.5071
15.3953
18.5471
21.9195
25.462
29.1172
32.821
36.5037
40.0916
43.5084
46.6779
49.5261
51.9827
53.9827
55.4658
56.3768
56.6646
56.2835
55.1948
53.3711
50.8021
47.5012
43.5119
38.9127
33.8185
28.3777
22.7651
17.1698
11.7807
6.76971
2.27601
-1.60795
-4.84628
-7.46426
-9.54647
-11.2271
-12.6708
-14.0432
-15.469
-16.9802
-18.4554
-19.5584
-19.6855
-17.9349
-13.1127
-3.79209
11.5655
34.4216
65.9137
106.573
156.045
212.861
274.317
336.513
394.573
443.046
476.478
490.053
480.252
445.415
386.107
305.245
207.929
100.996
-7.65612
-109.894
-198.214
-266.541
-310.853
-329.562
-323.602
-296.219
-252.509
-198.753
-141.662
-87.6055
-41.9301
-8.44802
10.8631
15.9201
8.36734
-8.782
-31.6353
-55.9722
-77.7851
-93.7433
-101.531
-100.026
-89.3191
-70.5741
-45.7728
-17.3809
12.0151
40.05
64.8619
85.2826
100.921
112.141
119.942
125.767
131.276
138.102
147.634
160.84
178.165
199.488
224.157
251.086
278.889
306.047
331.074
352.667
369.822
381.904
388.672
390.251
387.071
379.773
369.104
355.814
340.566
323.87
306.056
287.265
267.49
246.624
224.534
201.137
176.47
150.738
124.343
97.8747
72.0816
47.8032
25.8912
7.12002
-7.89909
-18.7881
-25.4482
-28.0747
-27.1397
-23.3444
-17.5474
-10.6776
-3.6435
2.75155
7.87831
11.3273
12.9276
12.7385
11.017
8.16577
4.67094
1.03592
-2.27943
-4.90822
-6.60972
-7.28398
-6.96807
-5.81618
-4.06771
-2.00853
0.0693276
1.90431
3.29426
4.11489
4.32665
3.97033
3.15323
2.02851
0.771072
-0.44661
-1.47582
-2.20762
-2.58219
-2.59104
-2.2725
-1.70192
-0.978194
-0.208848
0.504408
1.07782
1.45419
1.60722
1.54153
1.28873
0.900612
0.440457
-0.0261439
-0.439781
-0.754038
-0.939948
-0.987774
-0.906192
-0.719233
-0.461636
-0.173358
0.105937
0.341652
0.507657
0.587917
0.576186
0.473941
0.287004
0.0215335
-0.319862
-0.741134
-1.25437
-1.87965
-2.64312
-3.57358
-4.69808
-6.03708
-7.59982
-9.38053
-11.3559
-13.4843
-15.7065
-17.9485
-20.1257
-22.1481
-23.9267
-25.3792
-26.4359
-27.0447
-27.1743
-26.817
-25.9885
-24.7272
-23.0918
-21.1571
-19.0094
-16.7407
-14.4432
-12.2031
-10.0957
-8.1816
-6.50393
-5.0878
-3.94109
-3.05693
-2.41724
-1.99679
-1.76729
-1.70077
-1.77198
-1.9594
-2.2449
-2.61218
-3.04443
-3.52182
-4.01944
-4.50628
-4.94573
-5.29773
-5.5224
-5.58463
-5.45899
-5.13403
-4.61526
-3.92622
-3.10725
-2.21211
-1.30277
-0.442981
0.308404
0.903629
1.31087
1.51719
1.52921
1.37166
1.084
0.715812
0.321548
-0.044591
-0.333079
-0.502411
-0.52126
-0.369547
-0.0387596
0.468157
1.13705
1.94287
2.8502
3.81435
4.78338
5.70146
6.51362
7.17159
7.64019
7.90333
7.96852
7.86899
7.66268
7.42792
7.25611
7.24224
7.47435
8.0233
8.93409
10.2197
11.8578
13.7919
15.9348
18.1778
20.404
22.5076
24.4214
26.1521
27.8239
29.7269
32.3648
36.4902
43.1168
53.4898
69.0054
91.0667
120.88
159.202
206.066
260.53
320.497
382.648
442.554
494.958
534.242
555.031
552.858
524.817
470.082
390.228
289.276
173.443
50.6073
-70.4509
-180.94
-272.974
-340.4
-379.426
-388.979
-370.751
-328.931
-269.668
-200.327
-128.656
-61.9342
-6.23996
34.1161
56.9118
62.0779
51.5139
28.6938
-1.87429
-35.2602
-66.7164
-92.2049
-108.79
-114.864
-110.186
-95.7635
-73.5876
-46.2781
-16.6913
12.4627
38.943
61.2099
78.5445
91.0523
99.5619
105.441
110.36
116.037
124.001
135.392
150.834
170.371
193.492
219.212
246.204
272.974
298.024
320.018
337.903
350.991
358.991
361.981
360.352
354.706
345.756
334.213
320.699
305.684
289.456
272.125
253.657
233.931
212.811
190.206
166.14
140.783
114.474
87.713
61.1289
35.4319
11.3517
-10.4283
-29.3326
-44.9439
-57.0377
-65.5958
-70.7994
-73.0024
-72.6904
-70.4286
-66.8069
-62.3876
-57.6609
-53.0133
-48.7104
-44.8942
-41.5947
-38.752
-36.245
-33.9227
-31.6342
-29.2541
-26.6995
-23.9391
-20.993
-17.9248
-14.8273
-11.8058
-8.95971
-6.36696
-4.07285
-2.08433
-0.37069
1.1299
2.49934
3.82589
5.18978
6.65039
8.23662
9.94154
11.722
13.5032
15.1864
16.6606
17.8148
18.5495
18.7876
18.4818
17.6181
16.2168
14.3292
12.0321
9.42062
6.60053
3.68062
0.766162
-2.04619
-4.67179
-7.03972
-9.09281
-10.7864
-12.0859
-12.9645
-13.4003
-13.3748
-12.872
-11.8797
-10.3913
-8.40982
-5.95176
-3.05126
0.236756
3.83506
7.64486
11.549
15.4178
19.1168
22.5165
25.502
27.982
29.897
31.2234
31.9748
32.1997
31.9745
31.3941
30.5604
29.5698
28.5022
27.4117
26.3215
25.2234
24.0812
22.8395
21.4347
19.8084
17.92
15.7574
13.3433
10.737
8.02942
5.33308
2.76756
0.441684
-1.56432
-3.21459
-4.52828
-5.58325
-6.5113
-7.48504
-8.69759
-10.3375
-12.5623
-15.4742
-19.102
-23.3909
-28.2035
-33.3303
-38.511
-43.4605
-47.8997
-51.5843
-54.3284
-56.0208
-56.6299
-56.1995
-54.8346
-52.681
-49.9011
-46.6513
-43.0625
-39.2271
-35.1945
-30.9736
-26.5429
-21.8652
-16.9052
-11.6463
-6.10533
-0.342621
5.53398
11.3713
16.979
22.1435
26.6452
30.278
32.8689
34.295
34.497
33.487
31.3493
28.2352
24.3507
19.9396
15.2633
10.579
6.11898
2.07221
-1.42899
-4.31722
-6.59178
-8.31405
-9.59653
-10.5865
-11.4448
-12.3214
-13.3269
-14.5015
-15.7801
-16.9546
-17.6364
-17.2227
-14.8784
-9.54186
0.0298324
15.166
37.1326
66.9293
105.051
151.241
204.277
261.839
320.503
375.903
423.051
456.825
472.556
466.64
437.093
383.963
309.507
218.114
115.954
10.3886
-90.7759
-180.112
-251.356
-300.057
-324.017
-323.451
-300.879
-260.752
-208.879
-151.722
-95.6621
-46.3158
-7.98351
16.7105
26.9612
23.706
9.35331
-12.6343
-38.2415
-63.4197
-84.5613
-98.8752
-104.63
-101.248
-89.247
-70.0682
-45.799
-18.8539
8.35388
33.7071
55.6143
73.1526
86.1155
94.9691
100.73
104.788
108.696
113.96
121.85
133.253
148.577
167.724
190.117
214.782
240.462
265.758
289.274
309.744
326.137
337.727
344.118
345.24
341.306
332.744
320.121
304.061
285.179
264.022
241.04
216.58
190.893
164.169
136.575
108.298
79.5802
50.745
22.2088
-5.52821
-31.9068
-56.3475
-78.2989
-97.2876
-112.965
-125.141
-133.804
-139.126
-141.438
-141.205
-138.976
-135.334
-130.849
-126.027
-121.278
-116.893
-113.035
-109.745
-106.958
-104.526
-102.244
-99.8797
-97.2008
-93.9925
-90.0737
-85.3047
-79.5893
-72.8743
-65.1458
-56.4278
-46.7815
-36.308
-25.1518
-13.5048
-1.60769
10.2523
21.7497
32.5348
42.2525
50.5648
57.175
61.8504
64.442
64.8986
63.274
59.7255
54.5054
47.9437
40.4251
32.3611
24.1608
16.2029
8.81043
2.23311
-3.36332
-7.89879
-11.3722
-13.8479
-15.4367
-16.2757
-16.5065
-16.2583
-15.6324
-14.6929
-13.4605
-11.9092
-9.96466
-7.50443
-4.35898
-0.315837
4.87182
11.47
19.741
29.9122
42.1392
56.4663
72.7891
90.8259
110.103
129.956
149.56
167.971
184.192
197.255
206.305
210.682
209.991
204.152
193.419
178.367
159.851
138.931
116.784
94.597
73.4725
54.3375
37.8791
24.5073
14.347
7.261
2.89502
0.741279
0.209607
0.698286
1.65662
2.63311
3.30565
3.49245
3.14517
2.32721
1.18193
-0.10427
-1.33877
-2.35517
-3.03791
-3.33695
-3.2718
-2.92556
-2.43045
-1.94752
-1.64342
-1.66741
-2.13126
-3.0945
-4.5563
-6.45485
-8.67386
-11.0554
-13.4177
-15.5749
-17.3588
-18.6373
-19.3297
-19.4171
-18.9457
-18.0232
-16.8095
-15.5007
-14.3101
-13.447
-13.0951
-13.3942
-14.4257
-16.2044
-18.676
-21.7229
-25.1747
-28.8248
-32.4501
-35.832
-38.7779
-41.1397
-42.8292
-43.8284
-44.1943
-44.0572
-43.6116
-43.0996
-42.786
-42.924
-43.713
-45.2476
-47.4611
-50.0677
-52.5113
-53.9304
-53.1539
-48.7402
-39.0742
-22.527
2.3216
36.4141
79.9289
132.021
190.642
252.49
313.134
367.324
409.473
434.269
437.337
415.851
369.023
298.363
207.678
102.79
-9.00511
-119.665
-221.227
-306.629
-370.426
-409.305
-422.353
-411.045
-378.971
-331.338
-274.331
-214.401
-157.571
-108.848
-71.7843
-48.2422
-38.3613
-40.7223
-52.6692
-70.7394
-91.1425
-110.228
-124.892
-132.871
-132.92
-124.838
-109.381
-88.0527
-62.8418
-35.9135
-9.31385
15.2835
36.7605
54.6502
69.1381
80.9786
91.3403
101.607
113.162
127.18
144.465
165.329
189.557
216.428
244.803
273.267
300.294
324.422
344.411
359.369
368.817
372.716
371.424
365.613
356.156
343.996
330.019
314.953
299.292
283.27
266.871
249.877
231.953
212.733
191.923
169.384
145.188
119.65
93.3167
66.927
41.3399
17.4465
-3.92432
-22.0948
-36.6095
-47.2797
-54.1978
-57.7188
-58.4134
-56.9996
-54.2608
-50.9619
-47.7729
-45.2084
-43.5902
-43.0342
-43.4633
-44.6414
-46.2235
-47.8145
-49.0281
-49.5388
-49.1223
-47.678
-45.235
-41.9404
-38.0342
-33.8152
-29.6018
-25.6946
-22.3435
-19.7239
-17.9227
-16.9361
-16.677
-16.9915
-17.6804
-18.5243
-19.308
-19.8425
-19.982
-19.6344
-18.7656
-17.397
-15.5984
-13.4758
-11.1581
-8.7824
-6.48064
-4.36815
-2.53514
-1.04167
0.0841129
0.844535
1.26836
1.40488
1.3169
1.07345
0.742814
0.386691
0.0557048
-0.213375
-0.398698
-0.49279
-0.500678
-0.437039
-0.322802
-0.181621
-0.0366125
0.092342
0.1905
0.249285
0.266425
0.245328
0.193856
0.122724
0.0437734
-0.0316615
-0.094096
-0.136792
-0.156123
-0.151379
-0.124073
-0.0768749
-0.0123674
0.0681571
0.165639
0.283753
0.42883
0.609139
0.833555
1.10972
1.44191
1.82902
2.26279
2.72707
3.19793
3.6453
4.03576
4.33643
4.51959
4.56727
4.47543
4.25697
3.94312
3.58299
3.24135
2.99454
2.92536
3.11701
3.64717
4.58233
5.97329
7.85198
10.23
13.0989
16.4315
20.1854
24.3052
28.7259
33.3742
38.1678
43.0136
47.8033
52.4091
56.6797
60.4393
63.491
65.6257
66.636
66.3363
64.584
61.3016
56.4945
50.2619
42.7981
34.3831
25.3624
16.118
7.03444
-1.53724
-9.31194
-16.0961
-21.8037
-26.4598
-30.1938
-33.2203
-35.8102
-38.2535
-40.8119
-43.6648
-46.8472
-50.1846
-53.2296
-55.2115
-55.012
-51.1835
-42.0256
-25.7334
-0.620678
34.5919
80.4506
136.449
200.774
270.181
340.049
404.657
457.676
492.828
504.655
489.274
445.017
372.846
276.458
162.066
37.8411
-86.8983
-202.665
-300.817
-374.477
-419.243
-433.603
-419.008
-379.597
-321.633
-252.715
-180.885
-113.725
-57.5705
-16.9105
5.95737
10.998
0.245718
-22.61
-52.7946
-85.0937
-114.492
-136.732
-148.728
-148.804
-136.749
-113.685
-81.7949
-43.9542
-3.31425
37.1027
74.7526
107.824
135.378
157.364
174.529
188.224
200.163
212.144
225.79
242.33
262.439
286.171
312.967
341.746
371.053
399.246
424.696
445.973
461.997
472.131
476.223
474.572
467.859
457.021
443.113
427.173
410.088
392.513
374.811
357.052
339.048
320.418
300.684
279.376
256.125
230.753
203.332
174.21
144.002
113.556
83.8721
56.0168
31.0167
9.75671
-7.10829
-19.2193
-26.5474
-29.3932
-28.3531
-24.2544
-18.0703
-10.8232
-3.48722
3.09777
8.2928
11.7008
13.1787
12.8217
10.9239
7.92051
4.32138
0.642807
-2.65363
-5.20917
-6.79855
-7.34141
-6.89522
-5.63236
-3.80597
-1.70968
0.363056
2.1551
3.47339
4.20568
4.32547
3.88584
3.00401
1.83967
0.57039
-0.632575
-1.625
-2.30482
-2.62034
-2.57125
-2.20313
-1.59673
-0.854085
-0.0833641
0.615346
1.16177
1.50339
1.6191
1.51847
1.23729
0.83021
0.361926
-0.102084
-0.503861
-0.799454
-0.962958
-0.987848
-0.885739
-0.682989
-0.415817
-0.124695
0.151194
0.378751
0.534476
0.606407
0.594393
0.508864
0.368389
0.196479
0.0181009
-0.143616
-0.270094
-0.349165
-0.375913
-0.35253
-0.28728
-0.192817
-0.0841267
0.0236071
0.116925
0.185575
0.223371
0.228298
0.201808
0.147348
0.0682594
-0.0346394
-0.165372
-0.334519
-0.559852
-0.865501
-1.27952
-1.82993
-2.53974
-3.42152
-4.47248
-5.67105
-6.97567
-8.32669
-9.65138
-10.872
-11.9163
-12.7291
-13.2847
-13.5967
-13.7271
-13.7898
-13.9504
-14.4191
-15.4378
-17.2601
-20.126
-24.2333
-29.7098
-36.5883
-44.7901
-54.1197
-64.2724
-74.8551
-85.4191
-95.5005
-104.664
-112.548
-118.894
-123.579
-126.622
-128.183
-128.543
-128.074
-127.199
-126.343
-125.878
-126.069
-127.014
-128.589
-130.401
-131.748
-131.602
-128.625
-121.229
-107.693
-86.3362
-55.7586
-15.1183
35.5761
95.2033
161.353
230.286
297.073
355.933
400.753
425.746
426.167
398.994
343.458
261.35
157.032
37.1309
-90.0536
-215.372
-329.77
-425.247
-495.694
-537.514
-549.941
-535.016
-497.24
-442.936
-379.419
-314.092
-253.572
-202.973
-165.428
-141.902
-131.293
-130.807
-136.519
-144.036
-149.158
-148.451
-139.645
-121.829
-95.4215
-61.9545
-23.7077
16.727
56.8849
94.8037
129.286
160.016
187.539
213.098
238.385
265.241
295.349
329.967
369.739
414.59
463.735
515.763
568.803
620.74
669.44
712.966
749.756
778.747
799.429
811.832
816.461
814.173
806.044
793.213
776.755
757.571
736.321
713.398
688.949
662.916
635.115
605.32
573.34
539.097
502.669
464.319
424.487
383.764
342.845
302.467
263.353
226.148
191.376
159.419
130.501
104.702
81.985
62.2234
45.2409
30.8418
18.8359
9.05137
1.33744
-4.44239
-8.42355
-10.7559
-11.6171
-11.2216
-9.82153
-7.70029
-5.15821
-2.4935
0.0196161
2.15179
3.73573
4.67711
4.95786
4.63129
3.81006
2.64847
1.32152
0.00330037
-1.1526
-2.02864
-2.55324
-2.70436
-2.50694
-2.02491
-1.34947
-0.585145
0.164242
0.808146
1.27891
1.53759
1.57567
1.41282
1.09144
0.669002
0.209267
-0.22628
-0.585839
-0.832698
-0.948189
-0.932083
-0.800636
-0.582794
-0.315208
-0.0368231
0.216243
0.414926
0.540101
0.583919
0.549587
0.449786
0.304065
0.135654
-0.0318464
-0.177468
-0.28523
-0.345615
-0.35608
-0.320636
-0.248686
-0.153387
-0.0499191
0.0459299
0.118487
0.151982
0.12939
0.0306044
-0.169551
-0.50276
-1.00743
-1.7271
-2.70686
-3.98779
-5.60024
-7.55661
-9.84512
-12.4256
-15.2285
-18.1579
-21.0986
-23.9279
-26.5301
-28.814
-30.7298
-32.2846
-33.5519
-34.674
-35.8535
-37.3354
-39.3786
-42.2208
-46.0412
-50.9246
-56.8335
-63.5933
-70.8919
-78.2982
-85.2968
-91.338
-95.8957
-98.529
-98.938
-97.0074
-92.8318
-86.7182
-79.1662
-70.8245
-62.431
-54.738
-48.4306
-44.0421
-41.8723
-41.9128
-43.7857
-46.7023
-49.4514
-50.4272
-47.7103
-39.2103
-22.8737
3.04603
39.6773
87.2114
144.623
209.488
277.951
344.894
404.3
449.826
475.503
476.487
449.772
394.728
313.396
210.481
92.9965
-30.368
-150.123
-256.967
-342.778
-401.475
-429.644
-426.856
-395.642
-341.13
-270.399
-191.646
-113.258
-42.9063
13.2218
50.9843
68.5792
66.5557
47.5599
15.8641
-23.2508
-64.1751
-101.628
-131.217
-149.845
-155.926
-149.403
-131.589
-104.859
-72.2467
-37.0129
-2.22461
29.5912
56.6902
78.2291
94.2573
105.597
113.638
120.082
126.675
134.964
146.095
160.696
178.825
199.999
223.286
247.445
271.086
292.837
311.488
326.102
336.081
341.186
341.506
337.402
329.416
318.182
304.326
288.403
270.835
251.895
231.709
210.288
187.577
163.511
138.079
111.374
83.6269
55.2226
26.6905
-1.32751
-28.128
-53.0085
-75.3335
-94.5962
-110.467
-122.821
-131.749
-137.538
-140.633
-141.592
-141.02
-139.509
-137.581
-135.645
-133.971
-132.676
-131.736
-131.011
-130.278
-129.277
-127.752
-125.49
-122.349
-118.275
-113.304
-107.558
-101.218
-94.5054
-87.6514
-80.8697
-74.3351
-68.1687
-62.4309
-57.124
-52.2005
-47.579
-43.1607
-38.8487
-34.5634
-30.2556
-25.9139
-21.5658
-17.2743
-13.1277
-9.22673
-5.66875
-2.53201
0.137863
2.33731
4.10853
5.53668
6.74065
7.85852
9.02963
10.3756
11.9833
13.8913
16.0839
18.4902
20.9924
23.4393
25.6641
27.5048
28.824
29.5247
29.5622
28.9488
27.7522
26.0881
24.1076
21.9828
19.8896
17.9938
16.4376
15.3311
14.7466
14.7169
15.2366
16.2661
17.7361
19.5532
21.606
23.7703
25.9142
27.9034
29.6062
30.8983
31.6681
31.8214
31.2866
30.0192
28.0048
25.2619
21.8419
17.8272
13.3268
8.46993
3.39669
-1.7517
-6.84362
-11.7668
-16.4364
-20.7996
-24.8374
-28.562
-32.0107
-35.2366
-38.2975
-41.2428
-44.1013
-46.8685
-49.4938
-51.8664
-53.7967
-54.9922
-55.0263
-53.3048
-49.038
-41.2325
-28.7192
-10.2355
15.4283
49.2168
91.5499
142.047
199.291
260.679
322.432
379.784
427.364
459.751
472.128
460.957
424.561
363.526
280.847
181.768
73.3373
-36.291
-138.706
-226.148
-292.337
-333.141
-346.97
-334.878
-300.349
-248.813
-186.955
-121.919
-60.5026
-8.43572
30.1595
53.0901
60.163
53.018
34.7607
9.4568
-18.4396
-44.6495
-65.5559
-78.5632
-82.296
-76.6301
-62.5675
-41.9848
-17.3001
8.89399
34.1816
56.618
74.9345
88.6375
97.998
103.944
107.875
111.432
116.253
123.747
134.913
150.218
169.562
192.3
217.337
243.273
268.564
291.698
311.348
326.49
336.479
341.075
340.413
334.944
325.336
312.371
296.838
279.438
260.729
241.089
220.725
199.708
178.03
155.678
132.696
109.24
85.603
62.2164
39.6218
18.4194
-0.797298
-17.5111
-31.3435
-42.1022
-49.8052
-54.6804
-57.1399
-57.7341
-57.0916
-55.8527
-54.6059
-53.8337
-53.8741
-54.9015
-56.9275
-59.8206
-63.3405
-67.1827
-71.0255
-74.5758
-77.6061
-79.9791
-81.6586
-82.7043
-83.2541
-83.4957
-83.6328
-83.85
-84.2819
-84.9897
-85.9489
-87.0482
-88.101
-88.8665
-89.0776
-88.4732
-86.8302
-83.9903
-79.8818
-74.5299
-68.0584
-60.6794
-52.6755
-44.3742
-36.1188
-28.2388
-21.0233
-14.6993
-9.4175
-5.24641
-2.17448
-0.119625
1.05567
1.52573
1.48177
1.11296
0.590092
0.053476
-0.394487
-0.691722
-0.814404
-0.771204
-0.595015
-0.333358
-0.0386555
0.240705
0.467842
0.623001
0.707126
0.743322
0.776145
0.868709
1.09765
1.54616
2.29558
3.41631
4.95899
6.94713
9.37218
12.1918
15.3316
18.691
22.1512
25.5854
28.8704
31.8959
34.5734
36.8408
38.6638
40.0336
40.9613
41.4701
41.5868
41.3343
40.7252
39.7604
38.4293
36.7152
34.6026
32.0862
29.1796
25.9224
22.3838
18.6624
14.8812
11.1782
7.69389
4.55613
1.86463
-0.323476
-2.00509
-3.23766
-4.13876
-4.87683
-5.6512
-6.65989
-8.05452
-9.88307
-12.0234
-14.1143
-15.4932
-15.1565
-11.7576
-3.66204
10.927
33.7653
66.2935
109.315
162.666
224.944
293.334
363.63
430.44
487.635
528.958
548.771
542.808
508.837
447.128
360.631
254.833
137.285
16.8554
-97.1972
-196.219
-273.091
-322.977
-343.796
-336.366
-304.2
-253.009
-189.96
-122.811
-59.0226
-4.95421
34.752
57.5503
63.0946
53.0782
30.8468
0.850748
-31.9839
-62.8833
-87.7756
-103.703
-109.062
-103.647
-88.5338
-65.802
-38.1751
-8.61147
20.0903
45.6251
66.4198
81.7553
91.7684
97.3454
99.9311
101.286
103.224
107.373
114.972
126.741
142.823
162.803
185.79
210.551
235.674
259.733
281.443
299.778
314.045
323.914
329.394
330.772
328.528
323.229
315.433
305.608
294.071
280.97
266.293
249.914
231.658
211.385
189.064
164.846
139.1
112.423
85.616
59.6141
35.4041
13.9169
-4.0769
-18.0588
-27.8263
-33.5203
-35.6109
-34.844
-32.1548
-28.5597
-25.0422
-22.445
-21.3837
-22.19
-24.8914
-29.2261
-34.6918
-40.6177
-46.2527
-50.8566
-53.7857
-54.5614
-52.9168
-48.817
-42.4525
-34.208
-24.6127
-14.2784
-3.8334
6.13921
15.1532
22.8548
29.0408
33.6573
36.783
38.6
39.3562
39.3269
38.7779
37.9362
36.9697
35.9777
34.9916
33.9843
32.8863
31.6049
30.0445
28.1245
25.7934
23.0365
19.8786
16.3802
12.6291
8.72903
4.78595
0.895782
-2.86656
-6.45477
-9.85478
-13.0844
-16.1891
-19.2352
-22.3008
-25.4656
-28.8021
-32.3661
-36.1899
-40.2776
-44.6023
-49.1064
-53.7032
-58.2818
-62.7133
-66.8575
-70.5715
-73.7182
-76.1743
-77.8389
-78.6396
-78.5381
-77.5333
-75.6618
-72.996
-69.639
-65.717
-61.3699
-56.7404
-51.9632
-47.1558
-42.4102
-37.7883
-33.319
-28.9992
-24.7963
-20.6533
-16.495
-12.2355
-7.78562
-3.06129
2.00961
7.48024
13.3793
19.7069
26.4316
33.4899
40.7874
48.203
55.5945
62.8067
69.6809
76.0643
81.8186
86.8273
90.9993
94.2695
96.5951
97.9495
98.312
97.6577
95.9473
93.1207
89.0962
83.7774
77.0682
68.8949
59.2333
48.1354
35.7517
22.3434
8.28056
-5.97585
-19.9072
-32.9835
-44.7167
-54.7138
-62.7217
-68.6547
-72.5983
-74.7815
-75.5174
-75.1141
-73.7619
-71.4135
-67.6724
-61.7152
-52.2705
-37.6751
-16.0255
14.5742
55.6805
108.127
171.643
244.539
323.536
403.797
479.197
542.844
587.789
607.868
598.539
557.614
485.743
386.588
266.62
134.563
0.53072
-125.03
-232.457
-313.912
-364.207
-381.316
-366.502
-324.075
-260.791
-185.002
-105.656
-31.2835
30.9142
75.7621
100.53
105.034
91.4368
63.7832
27.3565
-12.061
-48.9217
-78.5537
-97.6393
-104.486
-99.0771
-82.9079
-58.6596
-29.7512
0.155358
27.636
49.9134
65.1501
72.6018
72.6248
66.5491
56.4445
44.8178
34.2806
27.2304
25.5803
30.564
42.632
61.444
85.9496
114.542
145.258
176.005
204.778
229.848
249.904
264.132
272.232
274.375
271.11
263.246
251.71
237.427
221.211
203.704
185.35
166.415
147.034
127.285
107.262
87.1379
67.2069
47.8955
29.7406
13.3407
-0.713165
-11.9136
-19.9087
-24.557
-25.9582
-24.4536
-20.5975
-15.1036
-8.77317
-2.41544
3.22985
7.55924
10.1538
10.805
9.51624
6.48261
2.05255
-3.32244
-9.14308
-14.9159
-20.1996
-24.6395
-27.9887
-30.1152
-30.9966
-30.7049
-29.3854
-27.2321
-24.4644
-21.3054
-17.9652
-14.6297
-11.4537
-8.55877
-6.03385
-3.93812
-2.30402
-1.14002
-0.432593
-0.147253
-0.229129
-0.60365
-1.17808
-1.84449
-2.48453
-2.97594
-3.20053
-3.05293
-2.4492
-1.33449
0.311317
2.47058
5.08822
8.07527
11.3154
14.6731
18.0034
21.1598
24.0017
26.3994
28.2376
29.4178
29.8609
29.5104
28.3364
26.3407
23.5607
20.0723
15.9894
11.4595
6.65535
1.76275
-3.03425
-7.56853
-11.7039
-15.3461
-18.4484
-21.0125
-23.0827
-24.7361
-26.0687
-27.1799
-28.1589
-29.073
-29.9609
-30.8311
-31.6651
-32.425
-33.0633
-33.5336
-33.7997
-33.8428
-33.6646
-33.2874
-32.7497
-32.0999
-31.3884
-30.6593
-29.9434
-29.2537
-28.5827
-27.9042
-27.176
-26.3468
-25.363
-24.1768
-22.7539
-21.0794
-19.1618
-17.0338
-14.7505
-12.3852
-10.0222
-7.74959
-5.65019
-3.79412
-2.23116
-0.983459
-0.037054
0.669228
1.25819
1.93126
2.98508
4.82239
7.95103
12.9646
20.5007
31.1763
45.5037
63.7965
86.0787
112.01
140.847
171.44
202.293
231.664
257.716
278.694
293.128
300.02
299.011
290.506
275.732
256.727
236.234
217.51
204.041
199.178
205.731
225.537
259.071
305.163
360.864
421.528
481.121
532.767
569.465
584.911
574.315
535.101
467.382
374.126
260.984
135.783
7.73457
-113.528
-218.985
-301.188
-355.035
-378.258
-371.576
-338.508
-284.863
-218.004
-145.961
-76.5317
-16.4479
29.2684
57.714
68.2377
62.3026
43.1146
15.0788
-16.8365
-47.745
-73.4177
-90.7235
-97.8953
-94.6023
-81.8385
-61.6569
-36.7963
-10.2583
15.1101
36.9735
53.7673
64.8313
70.4142
71.5569
69.88
67.3113
65.7924
67.0051
72.1506
81.8067
95.8754
113.621
133.789
154.776
174.84
192.308
205.757
214.158
216.952
214.067
205.882
193.131
176.795
157.973
137.766
117.178
97.0535
78.0451
60.6075
45.0184
31.4122
19.8191
10.2006
2.47776
-3.45301
-7.7144
-10.4519
-11.8418
-12.0996
-11.483
-10.2879
-8.83556
-7.45118
-6.43686
-6.04289
-6.44157
-7.70774
-9.80963
-12.6117
-15.8898
-19.3572
-22.6984
-25.6065
-27.819
-29.1489
-29.5047
-28.8992
-27.444
-25.3328
-22.8135
-20.1557
-17.6156
-15.4056
-13.6698
-12.4717
-11.7917
-11.5373
-11.5618
-11.6897
-11.7441
-11.5723
-11.0664
-10.1752
-8.90799
-7.32873
-5.54263
-3.67821
-1.8673
-0.226336
1.15834
2.23929
3.01013
3.50119
3.76994
3.88806
3.92753
3.94814
3.98823
4.06011
4.1506
4.22609
4.24114
4.14876
3.91057
3.50515
2.93316
2.21871
1.4069
0.558136
-0.259647
-0.979544
-1.54368
-1.90947
-2.05334
-1.97149
-1.67783
-1.19947
-0.570393
0.175657
1.01229
1.92647
2.92244
4.02276
5.2658
6.69973
8.37329
10.3246
12.5694
15.0907
17.8319
20.6939
23.538
26.1951
28.4781
30.1998
31.191
31.3192
30.5038
28.7276
26.0418
22.5641
18.4704
13.9801
9.33813
4.79355
0.579507
-3.10517
-6.10995
-8.34137
-9.76617
-10.409
-10.3454
-9.69169
-8.5916
-7.20253
-5.68042
-4.16422
-2.75914
-1.51744
-0.415398
0.674544
2.01593
4.04158
7.38146
12.8753
21.5573
34.5994
53.2038
78.4388
111.028
151.108
197.999
250.023
304.424
357.439
404.528
440.782
461.45
462.544
441.421
397.255
331.325
247.05
149.758
46.2039
-56.1095
-149.715
-227.976
-285.78
-320.054
-330.027
-317.222
-285.184
-238.99
-184.609
-128.203
-75.4468
-30.9633
2.08265
22.1839
29.483
25.5735
13.1517
-4.42409
-23.6057
-41.0976
-54.219
-61.1511
-61.0496
-54.0257
-41.0106
-23.5339
-3.45366
17.324
37.0995
54.5784
68.9976
80.1689
88.4454
94.6214
99.7861
105.153
111.889
120.961
133.02
148.331
166.752
187.762
210.525
233.992
257.011
278.436
297.236
312.569
323.833
330.686
333.032
330.986
324.819
314.891
301.598
285.316
266.373
245.038
221.526
196.029
168.755
139.964
110.01
79.3625
48.61
18.4453
-10.3718
-37.0679
-60.9193
-81.317
-97.824
-110.218
-118.514
-122.961
-124.014
-122.294
-118.517
-113.435
-107.761
-102.111
-96.9565
-92.5988
-89.1581
-86.5865
-84.6966
-83.2023
-81.7688
-80.0618
-77.7946
-74.7646
-70.8775
-66.1565
-60.7368
-54.8465
-48.777
-42.8476
-37.3682
-32.6041
-28.7484
-25.9032
-24.0716
-23.1611
-22.9965
-23.3415
-23.9249
-24.4694
-24.7198
-24.4668
-23.5662
-21.9492
-19.6255
-16.6775
-13.2483
-9.52329
-5.70929
-2.01305
1.37884
4.31617
6.69622
8.46908
9.63699
10.2486
10.3888
10.1666
9.70072
9.10717
8.48763
7.92136
7.46061
7.12988
6.92887
6.83862
6.82983
6.87268
6.9467
7.0498
7.20484
7.46288
7.902
8.62123
9.72991
11.3332
13.5155
16.3234
19.751
23.7293
28.1218
32.7271
37.2891
41.5141
45.0943
47.7338
49.1767
49.2329
47.7995
44.8748
40.5627
35.0674
28.6772
21.7403
14.6337
7.72967
1.36209
-4.20191
-8.78363
-12.305
-14.7905
-16.3593
-17.2084
-17.5891
-17.7774
-18.0403
-18.599
-19.588
-21.0125
-22.7033
-24.275
-25.0905
-24.2419
-20.5581
-12.6524
0.980205
21.8073
51.0473
89.4148
136.852
192.286
253.469
316.942
378.174
431.883
472.536
494.963
495.025
470.232
420.22
346.994
254.891
150.258
40.8542
-64.9335
-158.978
-234.277
-285.696
-310.483
-308.51
-282.198
-236.161
-176.606
-110.587
-45.1951
13.1999
59.5831
90.7254
105.379
104.232
89.6396
65.1964
35.1941
4.05632
-24.1883
-46.3333
-60.2795
-65.157
-61.2851
-49.9913
-33.3255
-13.7149
6.39044
24.8375
40.0176
51.0181
57.6695
60.4914
60.5554
59.2888
58.2514
58.9134
62.4633
69.6665
80.7866
95.574
113.317
132.942
153.153
172.574
189.902
204.024
214.11
219.665
220.531
216.864
209.077
197.761
183.612
167.35
149.661
131.154
112.335
93.6023
75.253
57.5013
40.4978
24.3512
9.14553
-5.04617
-18.1547
-30.1123
-40.8543
-50.3243
-58.4811
-65.3049
-70.8039
-75.0179
-78.02
-79.9142
-80.8305
-80.9171
-80.3302
-79.2229
-77.7339
-75.9778
-74.0366
-71.9554
-69.7407
-67.3621
-64.7587
-61.8475
-58.5356
-54.7341
-50.3723
-45.4116
-39.856
-33.7597
-27.229
-20.4181
-13.5199
-6.75185
-0.338182
5.50906
10.6086
14.826
18.0849
20.3736
21.7442
22.3071
22.2182
21.6638
20.8414
19.9409
19.1266
18.5219
18.1994
18.1752
18.41
18.8151
19.2634
19.6047
19.6817
19.348
18.4831
17.0058
14.8821
12.1295
8.81462
5.04687
0.968147
-3.26043
-7.4726
-11.5105
-15.2364
-18.541
-21.3484
-23.6171
-25.3376
-26.5272
-27.2229
-27.4729
-27.3284
-26.8356
-26.0293
-24.9284
-23.5337
-21.8297
-19.7887
-17.3779
-14.5692
-11.3491
-7.72821
-3.74857
0.512242
4.94108
9.39324
13.7002
17.6803
21.1512
23.9437
25.9145
26.9588
27.0195
26.0937
24.2354
21.5533
18.2047
14.3843
10.3107
6.20978
2.29835
-1.23267
-4.23199
-6.59866
-8.28816
-9.31365
-9.74188
-9.6844
-9.28422
-8.69869
-8.07852
-7.54279
-7.14919
-6.85901
-6.4976
-5.7132
-3.93983
-0.373421
6.02675
16.4979
32.3829
54.9811
85.3429
124.023
170.822
224.561
282.936
342.513
398.887
447.024
481.765
498.434
493.477
465.022
413.291
340.759
252.052
153.557
52.7956
-42.3628
-124.546
-187.678
-227.621
-242.585
-233.256
-202.631
-155.588
-98.2642
-37.3067
20.881
70.8258
108.515
131.716
140.068
140.068
140.068
140.068
140.068
140.068
140.068
140.068
140.068
140.068
140.068
140.068
140.068
140.068
140.068
140.068
140.068
140.068
140.068
140.068
