-458.121
-483.029
-501.296
-510.009
-506.872
-490.571
-461.041
-419.564
-368.678
-311.901
-253.313
-197.047
-146.788
-105.338
-74.3312
-54.1488
-44.0241
-42.3392
-47.0496
-56.1659
-68.212
-82.5832
-99.745
-121.242
-149.508
-187.514
-238.28
-304.336
-387.171
-486.764
-601.217
-726.561
-856.754
-983.888
-1098.61
-1190.75
-1250.08
-1267.2
-1234.44
-1146.7
-1002.1
-802.399
-553.137
-263.356
54.967
387.822
720.277
1037.71
1327
1577.65
1782.5
1938.28
2045.62
2108.76
2134.89
2133.22
2113.91
2086.99
2061.34
2043.9
2039.16
2048.88
2072.25
2106.24
2146.17
2186.49
2221.51
2246.17
2256.59
2250.52
2227.5
2188.79
2137.1
2076.12
2009.93
1942.39
1876.54
1814.19
1755.58
1699.32
1642.56
1581.26
1510.74
1426.2
1323.36
1198.99
1051.39
880.651
688.782
479.604
258.458
31.7521
-193.602
-410.814
-613.812
-797.758
-959.412
-1097.31
-1211.73
-1304.46
-1378.35
-1436.83
-1483.34
-1520.75
-1551
-1574.84
-1591.79
-1600.3
-1598.14
-1582.79
-1552.06
-1504.48
-1439.73
-1358.84
-1264.25
-1159.59
-1049.35
-938.439
-831.661
-733.181
-646.121
-572.262
-511.922
-464.011
-426.253
-395.53
-368.319
-341.139
-310.971
-275.59
-233.778
-185.401
-131.349
-73.3564
-13.7518
44.8467
99.8255
148.835
189.978
221.922
243.919
255.758
257.663
250.163
233.969
209.876
178.7
141.281
98.5107
51.4097
1.20244
-50.6153
-102.246
-151.613
-196.441
-234.395
-263.263
-281.16
-286.725
-279.284
-258.953
-226.671
-184.144
-133.715
-78.1801
-20.5493
36.1934
89.324
136.575
176.274
207.422
229.701
243.413
249.379
248.795
243.074
233.688
222.03
209.303
196.449
184.114
172.657
162.187
152.63
143.803
135.493
127.526
119.816
112.394
105.411
99.111
93.7962
89.7701
87.282
86.4749
87.346
89.7237
93.2659
97.4801
101.762
105.45
107.888
108.491
106.807
102.568
95.7148
86.4166
75.0544
62.1901
48.5151
34.7871
21.7599
10.1153
0.402783
-7.005
-11.9388
-14.4372
-14.7303
-13.2053
-10.3577
-6.73526
-2.88051
0.721614
3.68573
5.7537
6.8062
6.85812
6.03992
4.56812
2.70952
0.743633
-1.07198
-2.52988
-3.49176
-3.89702
-3.76104
-3.16446
-2.23576
-1.12991
-0.00623128
0.991844
1.75281
2.20737
2.33238
2.1486
1.71325
1.10884
0.430048
-0.229591
-0.789766
-1.19357
-1.41608
-1.47256
-1.42763
-1.40609
-1.60412
-2.29737
-3.84042
-6.65183
-11.1803
-17.8511
-26.9971
-38.7829
-53.1364
-69.7004
-87.8189
-106.565
-124.816
-141.356
-155.022
-164.837
-170.14
-170.688
-166.693
-158.821
-148.127
-135.935
-123.696
-112.825
-104.541
-99.7394
-98.9006
-102.05
-108.768
-118.249
-129.395
-140.937
-151.556
-160.009
-165.24
-166.46
-163.209
-155.384
-143.244
-127.378
-108.664
-88.1963
-67.2053
-46.9632
-28.6874
-13.4447
-2.06517
4.92978
7.37558
5.48447
-0.167711
-8.6896
-18.9549
-29.7091
-39.6926
-47.7658
-53.0223
-54.876
-53.1091
-47.8743
-39.6495
-29.1497
-17.2081
-4.64208
7.87598
19.9252
31.4034
42.5457
53.8897
66.1926
80.3099
97.0523
117.039
140.569
167.525
197.326
228.933
260.913
291.546
318.971
341.346
357.014
364.645
363.342
352.714
332.881
304.449
268.432
226.146
179.09
128.829
76.8894
24.6774
-26.5653
-75.7812
-122.09
-164.767
-203.217
-236.947
-265.561
-288.761
-306.357
-318.294
-324.662
-325.706
-321.81
-313.471
-301.245
-285.699
-267.363
-246.684
-224.016
-199.616
-173.667
-146.315
-117.716
-88.0796
-57.7149
-27.0593
3.3051
32.6542
60.1449
84.8585
105.862
122.282
133.395
138.701
138.009
131.489
119.702
103.602
84.4947
63.97
43.7935
25.7805
11.6547
2.90716
0.67049
5.62108
17.9205
37.2032
62.6117
92.877
126.435
161.568
196.553
229.814
260.039
286.285
308.025
325.165
338.009
347.193
353.583
358.157
361.874
365.557
369.781
374.791
380.459
386.275
391.384
394.659
394.811
390.523
380.595
364.078
340.402
309.461
271.664
227.937
179.682
128.693
77.0469
26.9698
-19.3077
-59.6916
-92.3594
-115.878
-129.302
-132.245
-124.925
-108.175
-83.4111
-52.5728
-18.0058
17.689
51.8424
81.9261
105.763
121.719
128.85
126.988
116.748
99.4638
77.0349
51.7275
25.9306
1.90318
-18.4609
-33.8233
-43.5245
-47.6224
-46.842
-42.4405
-36.0067
-29.2225
-23.6224
-20.387
-20.2015
-23.2047
-29.0328
-36.9544
-46.0733
-55.5647
-64.9032
-74.0396
-83.4898
-94.3099
-107.95
-126.002
-149.864
-180.381
-217.516
-260.097
-305.719
-350.813
-390.903
-421.034
-436.331
-432.611
-406.981
-358.337
-287.679
-198.22
-95.2319
14.3326
122.423
220.605
300.833
356.181
381.466
373.685
332.224
258.834
157.364
33.3225
-106.694
-255.627
-406.55
-553.193
-690.311
-813.918
-921.342
-1011.15
-1082.98
-1137.28
-1175.08
-1197.73
-1206.73
-1203.62
-1189.86
-1166.87
-1135.97
-1098.41
-1055.38
-1007.99
-957.139
-903.516
-847.43
-788.715
-726.636
-659.855
-586.456
-504.077
-410.134
-302.147
-178.126
-37.0083
120.921
293.667
477.275
665.758
851.242
1024.35
1174.85
1292.54
1368.22
1394.84
1368.39
1288.72
1159.85
989.984
790.855
576.756
363.142
165.057
-4.43664
-135.623
-223.103
-266.253
-269.099
-239.634
-188.674
-128.402
-70.8061
-26.2017
-2.04251
-2.14979
-26.449
-71.2242
-129.831
-193.758
-253.867
-301.657
-330.371
-335.805
-316.741
-274.951
-214.801
-142.533
-65.3308
9.69149
76.4294
130.549
169.969
195.024
208.305
214.21
218.293
226.476
244.23
275.81
323.61
387.699
465.588
552.245
640.386
721.032
784.291
820.313
820.32
777.597
688.341
552.241
372.745
156.943
-84.9051
-340.167
-594.881
-834.949
-1047.36
-1221.32
-1349.21
-1427.2
-1455.52
-1438.32
-1383.09
-1299.76
-1199.54
-1093.64
-992.047
-902.459
-829.588
-774.84
-736.446
-709.998
-689.316
-667.499
-638.03
-595.767
-537.697
-463.361
-374.899
-276.738
-174.971
-76.5392
11.6821
83.7438
135.338
164.27
170.647
156.772
126.772
86.0318
40.5087
-3.96821
-42.3346
-70.783
-87.0635
-90.571
-82.2306
-64.2146
-39.547
-11.6572
16.0545
40.5886
59.6198
71.6574
76.0959
73.1731
63.8634
49.7358
32.8004
15.3637
-0.103631
-11.0855
-15.1344
-9.98918
6.29758
35.2239
77.7008
133.929
203.303
284.372
374.855
471.738
571.44
670.043
763.565
848.261
920.906
979.05
1021.2
1046.93
1056.9
1052.75
1036.95
1012.53
982.843
951.193
920.575
893.394
871.265
854.889
844.025
837.554
833.638
829.95
823.951
813.184
795.557
769.57
734.475
690.335
637.981
578.869
514.85
447.887
379.744
311.707
244.371
177.545
110.28
41.0581
-31.9056
-110.26
-195.09
-286.518
-383.418
-483.281
-582.288
-675.574
-757.674
-823.085
-866.878
-885.273
-876.104
-839.106
-776.004
-690.392
-587.428
-473.405
-355.249
-240.031
-134.535
-44.9334
23.4117
66.0447
79.431
60.946
8.88641
-77.4578
-197.657
-349.935
-530.949
-735.619
-957.081
-1186.82
-1415.04
-1631.18
-1824.71
-1985.89
-2106.55
-2180.84
-2205.61
-2180.62
-2108.49
-1994.29
-1845.02
-1668.89
-1474.63
-1270.83
-1065.35
-864.945
-675.019
-499.528
-341.039
-200.872
-79.3041
24.1951
110.735
181.792
239.029
284.153
318.803
344.47
362.447
373.789
379.305
379.56
374.895
365.473
351.339
332.504
309.042
281.193
249.458
214.676
178.069
141.233
106.083
74.7415
49.3822
32.0494
24.467
27.8674
42.8583
69.3454
106.519
152.908
206.484
264.818
325.256
385.101
441.786
493.015
536.866
571.857
596.961
611.585
615.535
608.943
592.22
565.994
531.089
488.504
439.424
385.228
327.496
267.994
208.641
151.425
98.3097
51.0977
11.2997
-19.9943
-42.2148
-55.371
-60.0541
-57.3859
-48.9132
-36.4612
-21.9612
-7.27306
5.97883
16.5362
23.5927
26.8257
26.3738
22.7649
16.8065
9.45193
1.66216
-5.72132
-12.076
-17.0598
-20.6284
-23.01
-24.6428
-26.0875
-27.9265
-30.6663
-34.654
-40.019
-46.6449
-54.1746
-62.0458
-69.5528
-75.9256
-80.4192
-82.4012
-81.4306
-77.317
-70.1575
-60.3425
-48.5337
-35.6111
-22.5962
-10.556
-0.498923
6.72906
10.5338
10.6398
7.1239
0.412947
-8.75695
-19.4145
-30.4528
-40.7423
-49.2446
-55.1137
-57.7721
-56.9562
-52.7247
-45.4338
-35.6821
-24.2366
-11.9482
0.331319
11.8221
21.8738
30.0044
35.9208
39.525
40.9077
40.3339
38.2218
35.1153
31.6487
28.504
26.3602
25.8359
27.4305
31.4689
38.0568
47.0539
58.069
70.4814
83.4868
96.1635
107.553
116.746
122.962
125.621
124.394
119.231
110.367
98.3012
83.7516
67.5964
50.8001
34.335
19.1038
5.87084
-4.79249
-12.5443
-17.287
-19.1597
-18.5106
-15.8512
-11.7981
-7.00924
-2.11953
2.31579
5.86606
8.25371
9.36488
9.24196
8.06058
6.09454
3.6736
1.1394
-1.19563
-3.08226
-4.35811
-4.9592
-4.91879
-4.35395
-3.44194
-2.38946
-1.39914
-0.63821
-0.21406
-0.160607
-0.437476
-0.941832
-1.53042
-2.04755
-2.35385
-2.35052
-1.99521
-1.30705
-0.360949
0.727087
1.82026
2.78282
3.49931
3.88779
3.90479
3.54134
2.81141
1.73527
0.32157
-1.44818
-3.62994
-6.32076
-9.65592
-13.8009
-18.9409
-25.2687
-32.9739
-42.232
-53.1924
-65.965
-80.6018
-97.0749
-115.252
-134.874
-155.535
-176.679
-197.611
-217.524
-235.557
-250.856
-262.657
-270.356
-273.584
-272.243
-266.526
-256.896
-244.037
-228.777
-211.992
-194.519
-177.066
-160.153
-144.081
-128.937
-114.625
-100.929
-87.5825
-74.3449
-61.0644
-47.7219
-34.4473
-21.5095
-9.28001
1.82118
11.3892
19.0961
24.7404
28.2783
29.8289
29.6577
28.1383
25.7033
22.7918
19.8035
17.0673
14.8263
13.2418
12.41
12.3863
13.2098
14.9207
17.5667
21.1975
25.8483
31.5161
38.1351
45.5545
53.5235
61.6866
69.5888
76.6946
82.4177
86.1639
87.3833
85.6303
80.6253
72.3118
60.8996
46.8853
31.0414
14.3709
-1.97341
-16.7972
-28.9884
-37.6412
-42.1614
-42.3387
-38.3753
-30.8666
-20.7375
-9.14552
2.63552
13.3343
21.7886
27.0275
28.3242
25.2161
17.4969
5.18734
-11.5066
-32.2382
-56.5581
-83.9409
-113.796
-145.461
-178.192
-211.138
-243.33
-273.677
-300.994
-324.055
-341.672
-352.811
-356.714
-353.022
-341.875
-323.972
-300.569
-273.41
-244.586
-216.339
-190.821
-169.845
-154.658
-145.775
-142.9
-144.944
-150.164
-156.377
-161.255
-162.628
-158.782
-148.684
-132.123
-109.737
-82.9289
-53.6808
-24.3013
2.86497
25.7214
42.6623
52.7441
55.7659
52.2565
43.3721
30.726
16.174
1.58747
-11.3594
-21.3615
-27.5964
-29.7712
-28.1016
-23.231
-16.1051
-7.8188
0.542634
8.05114
14.0538
18.2504
20.7221
21.9114
22.5545
23.5768
25.9627
30.616
38.2281
49.1704
63.4259
80.5677
99.7919
119.998
139.91
158.222
173.753
185.575
193.124
196.251
195.222
190.672
183.512
174.806
165.644
157.02
149.737
144.343
141.107
140.034
140.899
143.311
146.781
150.777
154.786
158.346
161.067
162.644
162.851
161.537
158.617
154.068
147.925
140.28
131.283
121.141
110.108
98.4737
86.5496
74.648
63.0636
52.0571
41.8423
32.5799
24.3753
17.282
11.3076
6.42199
2.56311
-0.358637
-2.46129
-3.89672
-4.86
-5.60046
-6.43128
-7.73419
-9.95642
-13.598
-19.1884
-27.2538
-38.2751
-52.6407
-70.5984
-92.2099
-117.316
-145.514
-176.161
-208.391
-241.164
-273.324
-303.686
-331.118
-354.634
-373.472
-387.157
-395.543
-398.826
-397.52
-392.411
-384.475
-374.777
-364.363
-354.141
-344.793
-336.698
-329.91
-324.167
-318.946
-313.555
-307.235
-299.279
-289.129
-276.451
-261.178
-243.512
-223.889
-202.922
-181.324
-159.828
-139.106
-119.716
-102.055
-86.3431
-72.6286
-60.81
-50.6735
-41.9393
-34.3085
-27.507
-21.3198
-15.6113
-10.3301
-5.49839
-1.18765
2.51296
5.53043
7.83621
9.46297
10.506
11.108
11.4314
11.6218
11.774
11.9066
11.9528
11.7704
11.1708
9.96133
7.99331
5.20707
1.66464
-2.43627
-6.77029
-10.9141
-14.394
-16.7444
-17.5706
-16.6058
-13.7572
-9.133
-3.04779
3.99707
11.3573
18.311
24.1388
28.2106
30.0664
29.4813
26.5026
21.4537
14.9011
7.58893
0.348336
-6.00478
-10.7699
-13.4456
-13.7849
-11.8166
-7.82845
-2.31776
4.08314
10.6957
16.8846
22.1346
26.1053
28.6554
29.8345
29.8455
28.9844
27.5685
25.8679
24.0497
22.1492
20.0697
17.613
14.5336
10.6064
5.69435
-0.19642
-6.88475
-14.0123
-21.0715
-27.4594
-32.5488
-35.7643
-36.6535
-34.9418
-30.5641
-23.6718
-14.6136
-3.89706
7.86485
20.0134
31.9041
42.9614
52.7226
60.8695
67.2439
71.8479
74.8255
76.4303
76.9792
76.7968
76.1583
75.2365
74.0637
72.5151
70.3204
67.1051
62.4593
56.0232
47.5786
37.1277
24.9458
11.5927
-2.12245
-15.2225
-26.6818
-35.5654
-41.1687
-43.1311
-41.5066
-36.7734
-29.7813
-21.6405
-13.5696
-6.72556
-2.04135
-0.096021
-1.03572
-4.55569
-9.94406
-16.1791
-22.065
-26.3867
-28.0643
-26.2874
-20.6174
-11.0452
1.99765
17.6749
34.8249
52.0744
67.9761
81.1577
90.4646
95.0829
94.6252
89.1682
79.2354
65.7236
49.7838
32.6708
15.5841
-0.477335
-14.8228
-27.125
-37.4154
-46.0213
-53.4591
-60.3015
-67.0431
-73.986
-81.1628
-88.3083
-94.8807
-100.128
-103.187
-103.199
-99.4265
-91.3543
-78.7663
-61.7866
-40.8848
-16.8466
9.28305
36.2782
62.819
87.581
109.318
126.932
139.535
146.491
147.452
142.379
131.559
115.606
95.4523
72.3244
47.6939
23.2059
0.579059
-18.5201
-32.62
-40.5933
-41.7949
-36.1689
-24.3075
-7.44433
12.6219
33.6716
53.2615
68.9506
78.5252
80.1957
72.7385
55.5754
28.7851
-6.93935
-50.3739
-99.8682
-153.461
-208.997
-264.244
-317.014
-365.282
-407.313
-441.773
-467.828
-485.207
-494.227
-495.757
-491.139
-482.057
-470.361
-457.878
-446.219
-436.601
-429.711
-425.621
-423.769
-423.017
-421.768
-418.156
-410.264
-396.377
-375.208
-346.102
-309.165
-265.314
-216.226
-164.204
-111.961
-62.345
-18.0572
18.6291
46.0936
63.5225
70.9696
69.3199
60.165
45.6054
28.0083
9.75045
-7.02294
-20.5954
-29.8118
-34.136
-33.6303
-28.8676
-20.7917
-10.5489
0.685832
11.865
22.1879
31.1729
38.676
44.8603
50.1249
55.0062
60.0693
65.8043
72.5428
80.4032
89.2727
98.8243
108.565
117.909
126.256
133.076
137.979
140.754
141.394
140.078
137.136
132.991
128.097
122.877
117.671
112.711
108.108
103.873
99.9399
96.2095
92.5884
89.0234
85.5234
82.1667
79.0934
76.485
74.5343
73.4117
73.2308
74.0189
75.6952
78.0611
80.8023
83.5064
85.6945
86.8647
86.5445
84.3467
80.0204
73.4926
64.8907
54.5451
42.9664
30.8018
18.7733
7.60551
-2.04741
-9.66856
-14.9295
-17.7212
-18.163
-16.5901
-13.5246
-9.63442
-5.68612
-2.49584
-0.881091
-1.61506
-5.38443
-12.7517
-24.1232
-39.7251
-59.5876
-83.5397
-111.215
-142.067
-175.396
-210.38
-246.119
-281.679
-316.133
-348.615
-378.353
-404.714
-427.224
-445.59
-459.704
-469.632
-475.598
-477.947
-477.105
-473.53
-467.67
-459.912
-450.555
-439.788
-427.692
-414.254
-399.404
-383.058
-365.165
-345.753
-324.955
-303.023
-280.315
-257.263
-234.331
-211.957
-190.504
-170.223
-151.235
-133.531
-116.998
-101.46
-86.7212
-72.6227
-59.0771
-46.0953
-33.7935
-22.3788
-12.1197
-3.30305
3.81268
9.04201
12.3079
13.6623
13.2905
11.4963
8.67408
5.2683
1.72854
-1.53507
-4.19026
-6.01021
-6.88775
-6.83499
-5.96964
-4.49027
-2.64457
-0.69494
1.11418
2.58338
3.57694
4.03182
3.95676
3.42288
2.5478
1.476
0.358322
-0.666963
-1.48927
-2.03571
-2.27534
-2.21786
-1.90754
-1.41373
-0.819403
-0.209364
0.340599
0.772721
1.05392
1.17997
1.17723
1.10184
1.03619
1.08238
1.35239
1.95478
2.97849
4.47503
6.44139
8.80645
11.4244
14.0775
16.4907
18.3561
19.3677
19.2599
17.8472
15.0566
10.9502
5.73194
-0.263188
-6.59692
-12.77
-18.274
-22.6463
-25.5211
-26.6698
-26.0263
-23.6933
-19.9299
-15.1217
-9.73839
-4.28285
0.761819
4.98105
8.0688
9.85493
10.3178
9.58164
7.90005
5.62667
3.17689
0.983456
-0.549649
-1.09073
-0.417046
1.55925
4.77865
9.03709
14.0038
19.253
24.3057
28.6778
31.928
33.7019
33.7654
32.0259
28.5388
23.4993
17.2213
10.1081
2.61702
-4.77638
-11.6121
-17.4746
-22.0163
-24.9756
-26.1907
-25.6077
-23.2849
-19.3911
-14.1982
-8.06561
-1.41764
5.28709
11.5921
17.0823
21.4228
24.3909
25.8982
25.9978
24.8755
22.8249
20.2101
17.4206
14.8249
12.7291
11.3472
10.7843
11.0363
12.0009
13.4986
15.297
17.1351
18.7445
19.8659
20.2621
19.7279
18.1005
15.2706
11.1974
5.92516
-0.399446
-7.5144
-15.0384
-22.4807
-29.2663
-34.7782
-38.4102
-39.6282
-38.0286
-33.3895
-25.7054
-15.2018
-2.3261
12.2846
27.8558
43.5432
58.5067
71.9852
83.3623
92.2164
98.3508
101.801
102.82
101.84
99.4236
96.1989
92.7952
89.7776
87.5905
86.5126
86.6265
87.806
89.7205
91.858
93.5631
94.089
92.6565
88.5149
80.9985
69.5709
53.8558
33.6501
8.92124
-20.2061
-53.4704
-90.4922
-130.787
-173.771
-218.75
-264.913
-311.315
-356.88
-400.415
-440.651
-476.31
-506.194
-529.292
-544.881
-552.623
-552.621
-545.452
-532.132
-514.045
-492.826
-470.208
-447.855
-427.19
-409.252
-394.574
-383.123
-374.295
-366.968
-359.633
-350.563
-338.023
-320.496
-296.893
-266.723
-230.202
-188.28
-142.582
-95.2677
-48.8185
-5.78251
31.4943
61.1167
81.8386
93.1866
95.4956
89.854
77.9679
61.9648
44.1617
26.8267
11.9632
1.13807
-4.63107
-4.9204
0.119373
9.83843
23.2044
38.9431
55.6855
72.1071
87.0457
99.5919
109.145
115.437
118.52
118.733
116.635
112.933
108.395
103.77
99.704
96.686
94.9966
94.6883
95.5858
97.3098
99.3216
100.982
101.622
100.609
97.4179
91.6784
83.2166
72.0737
58.5081
42.9804
26.1238
8.70234
-8.43921
-24.4315
-38.4387
-49.7151
-57.6574
-61.8478
-62.0863
-58.4079
-51.0845
-40.6088
-27.6646
-13.0816
2.21823
17.2818
31.188
43.1093
52.3684
58.4838
61.2041
60.5237
56.6804
50.1334
41.5221
31.6091
21.213
11.1364
2.09687
-5.33222
-10.7653
-14.0292
-15.1666
-14.4227
-12.2161
-9.1031
-5.73817
-2.83585
-1.13663
-1.37647
-4.25859
-10.4252
-20.4264
-34.6856
-53.4611
-76.8077
-104.544
-136.23
-171.163
-208.393
-246.766
-284.983
-321.68
-355.518
-385.28
-409.951
-428.794
-441.394
-447.683
-447.927
-442.695
-432.797
-419.212
-403.001
-385.229
-366.879
-348.793
-331.623
-315.805
-301.552
-288.868
-277.577
-267.363
-257.82
-248.495
-238.937
-228.74
-217.571
-205.199
-191.506
-176.495
-160.292
-143.13
-125.337
-107.314
-89.5027
-72.359
-56.3183
-41.7657
-29.0099
-18.2629
-9.62812
-3.09722
1.44382
4.20066
5.44977
5.51325
4.73167
3.43751
1.93159
0.464476
-0.775942
-1.66991
-2.16457
-2.26678
-2.03117
-1.54544
-0.914287
-0.244191
0.369833
0.854117
1.16238
1.27769
1.21077
0.995106
0.680048
0.322735
-0.0199204
-0.298247
-0.475035
-0.528494
-0.452882
-0.257087
0.0382278
0.40419
0.807322
1.21267
1.58624
1.89667
2.11651
2.22322
2.2005
2.04012
1.74431
1.32867
0.824803
0.281729
-0.234913
-0.647037
-0.872035
-0.834105
-0.47767
0.219345
1.23507
2.49879
3.89355
5.26718
6.45091
7.2833
7.63582
7.43565
6.68154
5.44948
3.88666
2.19448
0.603192
-0.65756
-1.38754
-1.43963
-0.735195
0.73041
2.89168
5.62417
8.75994
12.104
15.4488
18.586
21.3144
23.4464
24.8139
25.2762
24.7303
23.1239
20.4683
16.8486
12.4283
7.44468
2.19415
-2.99186
-7.77864
-11.8632
-15.0076
-17.065
-17.9957
-17.8676
-16.8432
-15.1529
-13.0592
-10.8163
-8.63257
-6.64019
-4.87819
-3.29094
-1.74269
-0.045854
2.00155
4.57529
7.788
11.6621
16.1176
20.9763
25.9844
30.8475
35.2746
39.023
41.9357
43.9653
45.1784
45.7409
45.8844
45.8618
45.8985
46.1479
46.6599
47.3669
48.0898
48.5617
48.4668
47.4861
45.3444
41.8511
36.9297
30.6328
23.1407
14.7464
5.82689
-3.19305
-11.8819
-19.8419
-26.7456
-32.3653
-36.5914
-39.4397
-41.0443
-41.6378
-41.5201
-41.0183
-40.4433
-40.0484
-39.9951
-40.3312
-40.9832
-41.7664
-42.4088
-42.5881
-41.9739
-40.272
-37.2626
-32.8295
-26.9755
-19.8241
-11.6079
-2.64624
6.68442
15.9836
24.86
32.9619
40.0027
45.7807
50.1915
53.2333
55.0049
55.6956
55.5675
54.9316
54.1178
53.441
53.1658
53.4718
54.4231
55.9458
57.8166
59.6651
60.9912
61.1964
59.626
55.6168
48.5473
37.8818
23.2071
4.25879
-19.0648
-46.6968
-78.405
-113.799
-152.34
-193.352
-236.04
-279.499
-322.742
-364.722
-404.375
-440.662
-472.627
-499.452
-520.523
-535.474
-544.228
-547.006
-544.315
-536.906
-525.704
-511.718
-495.944
-479.259
-462.334
-445.562
-429.027
-412.504
-395.5
-377.338
-357.259
-334.549
-308.664
-279.338
-246.67
-211.158
-173.696
-135.514
-98.0742
-62.9367
-31.6013
-5.35469
14.866
28.5716
35.7712
36.9682
33.1013
25.4403
15.4487
4.63108
-5.61566
-14.1293
-20.0722
-22.9758
-22.7359
-19.5653
-13.9142
-6.37343
2.42305
11.8814
21.5075
30.9372
39.939
48.3952
56.2691
63.572
70.3347
76.5909
82.3729
87.716
92.6658
97.2829
101.639
105.806
109.834
113.727
117.426
120.795
123.629
125.662
126.608
126.192
124.193
120.474
115.009
107.888
99.3136
89.5874
79.0834
68.2267
57.4711
47.2812
38.1187
30.4278
24.6196
21.0502
19.9935
21.6106
25.9183
32.7633
41.8064
52.5223
64.2177
76.0676
87.1699
96.6141
103.558
107.304
107.374
103.556
95.9464
84.9432
71.2247
55.6908
39.3824
23.3847
8.7247
-3.72697
-13.3392
-19.7818
-23.0601
-23.5191
-21.8193
-18.8848
-15.8287
-13.8617
-14.1911
-17.9191
-25.9499
-38.9144
-57.1197
-80.5271
-108.761
-141.147
-176.772
-214.564
-253.374
-292.072
-329.615
-365.109
-397.853
-427.345
-453.28
-475.515
-494.028
-508.869
-520.106
-527.788
-531.917
-532.435
-529.238
-522.205
-511.238
-496.311
-477.52
-455.118
-429.533
-401.365
-371.359
-340.352
-309.218
-278.795
-249.823
-222.892
-198.409
-176.583
-157.429
-140.791
-126.379
-113.808
-102.646
-92.4579
-82.8473
-73.491
-64.1644
-54.7559
-45.2708
-35.8222
-26.6117
-17.9008
-9.9765
-3.1145
2.4558
6.58074
9.20306
10.3721
10.2428
9.06439
7.16061
4.90373
2.68496
0.883463
-0.164613
-0.19557
0.955085
3.33043
6.83696
11.2394
16.1682
21.1426
25.6079
28.9878
30.745
30.447
27.8264
22.8291
15.6424
6.69534
-3.36944
-13.7523
-23.575
-31.9718
-38.1812
-41.6271
-41.9773
-39.1741
-33.4313
-25.2016
-15.1182
-3.92208
7.61711
18.773
28.921
37.5765
44.4123
49.2559
52.0714
52.9323
51.991
49.4509
45.5463
40.53
34.6715
28.2598
21.6088
15.0605
8.9809
3.74697
-0.277357
-2.77365
-3.50708
-2.36454
0.613294
5.21211
11.0414
17.5518
24.0736
29.8733
34.2236
36.4801
36.1563
32.9881
26.9789
18.4204
7.88302
-3.82375
-15.7196
-26.7434
-35.8571
-42.1511
-44.9408
-43.8415
-38.8136
-30.172
-18.5567
-4.86993
9.81583
24.3663
37.6987
48.8853
57.2356
62.3485
64.1283
62.7666
58.6942
52.5127
44.9154
36.6096
28.25
20.3893
13.4506
7.71945
3.35407
0.404961
-1.16071
-1.43649
-0.558905
1.30481
3.96472
7.21482
10.8409
14.6311
18.389
21.9474
25.1786
27.9996
30.3677
32.2674
33.6898
34.6078
34.9522
34.5918
33.3225
30.8674
26.8877
21.0055
12.8336
2.01277
-11.7494
-28.6383
-48.6961
-71.79
-97.5916
-125.569
-154.996
-184.984
-214.53
-242.592
-268.164
-290.368
-308.528
-322.23
-331.352
-336.054
-336.741
-333.98
-328.411
-320.631
-311.105
-300.092
-287.614
-273.469
-257.285
-238.614
-217.04
-192.291
-164.329
-133.412
-100.106
-65.259
-29.9216
4.75318
37.6312
67.7142
94.2378
116.737
135.074
149.42
160.207
168.05
173.65
177.705
180.827
183.479
185.937
188.282
190.413
192.076
192.909
192.488
190.379
186.177
179.539
170.217
158.061
143.029
125.172
104.621
81.559
56.1981
28.7505
-0.591255
-31.667
-64.3478
-98.5207
-134.059
-170.784
-208.417
-246.544
-284.585
-321.786
-357.233
-389.901
-418.72
-442.667
-460.868
-472.697
-477.861
-476.445
-468.927
-456.139
-439.176
-419.275
-397.665
-375.411
-353.288
-331.687
-310.585
-289.582
-267.986
-244.957
-219.673
-191.487
-160.065
-125.483
-88.2508
-49.2814
-9.80408
28.7692
64.9951
97.5502
125.359
147.688
164.187
174.891
180.177
180.689
177.252
170.778
162.187
152.341
142.007
131.832
122.347
113.977
107.054
101.836
98.5121
97.2053
97.9665
100.764
105.474
111.872
119.637
128.358
137.556
146.71
155.288
162.78
168.725
172.739
174.524
173.878
170.693
164.947
156.698
146.076
133.276
118.552
102.211
84.6039
66.111
47.1284
28.0476
9.23698
-8.97288
-26.2983
-42.5019
-57.3832
-70.7596
-82.4435
-92.2208
-99.837
-104.998
-107.387
-106.701
-102.697
-95.2426
-84.3627
-70.2732
-53.3901
-34.3151
-13.798
7.32132
28.1786
47.9512
65.9126
81.4694
94.1772
103.739
109.992
112.886
112.471
108.884
102.349
93.182
81.7961
68.7014
54.4912
39.8108
25.3058
11.5551
-1.00463
-12.15
-21.9248
-30.6634
-38.9772
-47.7006
-57.8019
-70.2707
-85.994
-105.641
-129.571
-157.772
-189.846
-225.039
-262.305
-300.403
-338.017
-373.873
-406.855
-436.092
-461.017
-481.39
-497.283
-509.027
-517.133
-522.202
-524.824
-525.489
-524.522
-522.042
-517.963
-512.021
-503.838
-492.998
-479.127
-461.975
-441.465
-417.731
-391.119
-362.163
-331.536
-299.996
-268.322
-237.25
-207.431
-179.397
-153.54
-130.112
-109.229
-90.8864
-74.9814
-61.3349
-49.7172
-39.8727
-31.5424
-24.4831
-18.4831
-13.3705
-9.01816
-5.34078
-2.28857
0.163402
2.02756
3.31635
4.05309
4.27977
4.06088
3.48286
2.64968
1.67515
0.673447
-0.250903
-1.01206
-1.54972
-1.83296
-1.86031
-1.65625
-1.26409
-0.736373
-0.123952
0.534339
1.21955
1.93632
2.71141
3.58712
4.61037
5.81951
7.23073
8.82657
10.5484
12.2945
13.9245
15.2705
16.1551
16.4133
15.9174
14.602
12.4844
9.67817
6.39602
2.93982
-0.322931
-2.99544
-4.69723
-5.1139
-4.04386
-1.43458
2.59862
7.77588
13.6795
19.8016
25.6058
30.5957
34.3775
36.7106
37.5356
36.9791
35.3317
33.0061
30.4803
28.234
26.6892
26.16
26.8185
28.6792
31.601
35.3065
39.4137
43.4778
47.036
49.6547
50.9709
50.7282
48.8015
45.209
40.1111
33.793
26.6362
19.0776
11.5637
4.5018
-1.78388
-7.08805
-11.3463
-14.6407
-17.1866
-19.3026
-21.3663
-23.7608
-26.8191
-30.7736
-35.7156
-41.5725
-48.1028
-54.9132
-61.4933
-67.2672
-71.6552
-74.1398
-74.3271
-71.9992
-67.1476
-59.9861
-50.9392
-40.6067
-29.7081
-19.0121
-9.25877
-1.08275
5.05426
8.91386
10.5082
10.1
8.17458
5.38556
2.47917
0.206143
-0.769302
0.0484012
2.92341
7.85382
14.5702
22.5679
31.17
39.6109
47.1316
53.0708
56.9404
58.4731
57.6364
54.6102
49.7342
43.4346
36.1435
28.2265
19.9318
11.3696
2.52614
-6.69252
-16.3933
-26.6202
-37.2843
-48.1127
-58.6298
-68.1761
-75.9662
-81.1798
-83.0729
-81.0934
-74.9824
-64.8447
-51.1748
-34.8332
-16.9715
1.0844
17.9797
32.4862
43.6466
50.8882
54.0892
53.5893
50.1405
44.806
38.8188
33.42
29.6957
28.4345
30.0244
34.4
41.046
49.0552
57.2294
64.2086
68.6102
69.162
64.8115
54.8029
38.7147
16.4596
-11.7509
-45.4651
-84.0651
-126.842
-173.06
-222.01
-273.028
-325.497
-378.827
-432.413
-485.592
-537.608
-587.589
-634.547
-677.419
-715.127
-746.667
-771.222
-788.262
-797.642
-799.657
-795.06
-785.015
-771.005
-754.681
-737.679
-721.425
-706.95
-694.74
-684.654
-675.913
-667.179
-656.707
-642.564
-622.879
-596.108
-561.255
-518.048
-467.02
-409.502
-347.519
-283.601
-220.535
-161.093
-107.76
-62.5041
-26.6044
-0.566433
15.8808
23.704
24.4178
19.8903
12.1284
3.06788
-5.6077
-12.6029
-17.0886
-18.7203
-17.601
-14.1973
-9.22569
-3.52404
2.07445
6.84987
10.2768
12.0714
12.2044
10.8811
8.49673
5.57377
2.68971
0.404923
-0.802337
-0.58703
1.23003
4.65054
9.50841
15.499
22.2247
29.2513
36.1691
42.652
48.5047
53.6931
58.35
62.7558
67.2946
72.3921
78.4442
85.7469
94.4399
104.471
115.587
127.362
139.237
150.6
160.856
169.509
176.226
180.877
183.549
184.53
184.268
183.301
182.186
181.42
181.374
182.238
183.997
186.426
189.108
191.479
192.879
192.621
190.059
184.658
176.056
164.108
148.924
130.875
110.579
88.8618
66.6942
45.1077
25.0983
7.52502
-6.98504
-18.1151
-25.9076
-30.777
-33.4784
-35.0368
-36.6402
-39.5105
-44.7684
-53.3078
-65.6968
-82.115
-102.335
-125.747
-151.424
-178.213
-204.85
-230.07
-252.719
-271.841
-286.741
-297.022
-302.589
-303.629
-300.563
-293.995
-284.636
-273.246
-260.563
-247.259
-233.896
-220.907
-208.579
-197.061
-186.371
-176.42
-167.038
-158.002
-149.068
-140.003
-130.607
-120.739
-110.329
-99.383
-87.9831
-76.2754
-64.4559
-52.7527
-41.4072
-30.6585
-20.7313
-11.8274
-4.12169
2.2412
7.14931
10.5286
12.3504
12.6422
11.4974
9.08411
5.64718
1.50193
-2.982
-7.40659
-11.3785
-14.5454
-16.6312
-17.4641
-16.9952
-15.3027
-12.5824
-9.12559
-5.28494
-1.43508
2.06863
4.92758
6.92896
7.96343
8.02981
7.227
5.7353
3.79007
1.6519
-0.422904
-2.20755
-3.5235
-4.25103
-4.33183
-3.76463
-2.59573
-0.906763
1.19794
3.60239
6.18693
8.83284
11.4238
13.8452
15.9836
17.7259
18.961
19.5842
19.5031
18.6474
16.9792
14.5039
11.2798
7.42227
3.10435
-1.45159
-5.98827
-10.2343
-13.929
-16.8484
-18.8281
-19.7817
-19.7098
-18.6996
-16.9144
-14.5746
-11.9319
-9.24113
-6.73303
-4.59103
-2.93564
-1.81732
-1.21855
-1.06382
-1.2358
-1.59469
-1.99805
-2.31813
-2.45504
-2.34435
-1.95924
-1.30746
-0.424598
0.634988
1.80771
3.0292
4.24045
5.39116
6.44023
7.35411
8.10375
8.66108
8.9959
9.07414
8.85802
8.3088
7.3922
6.08602
4.38919
2.33072
-0.0230538
-2.56458
-5.14576
-7.58376
-9.67193
-11.1949
-11.9468
-11.75
-10.4733
-8.04689
-4.47263
0.171234
5.73106
11.9839
18.6477
25.3949
31.8681
37.6988
42.5281
46.0283
47.9267
48.0277
46.2324
42.553
37.1205
30.1817
22.087
13.2672
4.20176
-4.61871
-12.7316
-19.7383
-25.332
-29.3149
-31.6011
-32.2071
-31.2324
-28.8327
-25.1911
-20.4916
-14.8986
-8.54458
-1.52654
6.08949
14.2582
22.9421
32.0982
41.6673
51.5673
61.6906
71.9068
82.0687
92.022
101.615
110.711
119.193
126.971
133.979
140.179
145.549
150.086
153.798
156.704
158.833
160.226
160.933
161.013
160.521
159.503
157.972
155.9
153.192
149.676
145.099
139.123
131.348
121.326
108.599
92.729
73.3382
50.1429
22.9881
-8.12399
-43.0087
-81.2824
-122.353
-165.427
-209.522
-253.508
-296.153
-336.192
-372.401
-403.682
-429.142
-448.17
-460.489
-466.195
-465.756
-459.984
-449.976
-437.016
-422.46
-407.6
-393.527
-381.005
-370.37
-361.475
-353.683
-345.924
-336.807
-324.788
-308.366
-286.3
-257.804
-222.696
-181.493
-135.412
-86.2909
-36.4261
11.6455
55.405
92.6081
121.514
141.054
150.926
151.599
144.23
130.52
112.503
92.3248
72.021
53.3238
37.525
25.4019
17.2113
12.7457
11.4386
12.4986
15.0524
18.2752
21.4939
24.2504
26.3237
27.7112
28.5797
29.1957
29.8492
30.7834
32.1396
33.9253
36.006
38.1224
39.9271
41.0355
41.0844
39.7886
36.9915
32.6997
27.0997
20.5509
13.5566
6.71283
0.642816
-4.07816
-6.99566
-7.83776
-6.55592
-3.33845
1.4065
7.09684
13.0456
18.5441
22.9473
25.751
26.6488
25.5635
22.6479
18.2576
12.8985
7.15893
1.63487
-3.14111
-6.75877
-8.97
-9.70585
-9.07022
-7.31307
-4.78783
-1.89989
0.94677
3.39788
5.18662
6.15708
6.27176
5.60373
4.31579
2.62988
0.790756
-0.972752
-2.4857
-3.66155
-4.53005
-5.255
-6.13771
-7.60249
-10.1624
-14.3659
-20.7289
-29.6596
-41.3873
-55.904
-72.9317
-91.9198
-112.078
-132.439
-151.951
-169.58
-184.416
-195.762
-203.207
-206.657
-206.338
-202.761
-196.657
-188.897
-180.391
-172.002
-164.456
-158.285
-153.782
-150.993
-149.729
-149.602
-150.084
-150.575
-150.472
-149.239
-146.469
-141.922
-135.552
-127.501
-118.081
-107.73
-96.9618
-86.3056
-76.248
-67.1857
-59.3896
-52.9854
-47.9519
-44.1352
-41.2755
-39.045
-37.0907
-35.0769
-32.7244
-29.8408
-26.3396
-22.2448
-17.6841
-12.8684
-8.06271
-3.55221
0.393522
3.55239
5.77487
6.99928
7.25596
6.6604
5.39689
3.69505
1.80288
-0.0403297
-1.62755
-2.80132
-3.46313
-3.57446
-3.15028
-2.24687
-0.946219
0.660331
2.48683
4.46387
6.5445
8.7045
10.9367
13.2407
15.6098
18.0167
20.4018
22.6655
24.6667
26.2305
27.1617
27.2678
26.3849
24.4057
21.3032
17.1476
12.1105
6.45699
0.524161
-5.30925
-10.6588
-15.1696
-18.5465
-20.5748
-21.1314
-20.1864
-17.7965
-14.0962
-9.28657
-3.627
2.57176
8.95336
15.1236
20.6638
25.1515
28.192
29.4556
28.7194
25.9053
21.1069
14.5993
6.82595
-1.63739
-10.139
-18.0203
-24.689
-29.6831
-32.7196
-33.7186
-32.8011
-30.263
-26.5286
-22.0928
-17.4598
-13.0873
-9.34216
-6.47274
-4.59788
-3.71235
-3.70495
-4.38526
-5.51451
-6.83627
-8.1037
-9.10123
-9.65934
-9.66272
-9.05223
-7.82173
-6.01094
-3.69546
-0.975226
2.0374
5.22877
8.49337
11.7409
14.9009
17.9245
20.7849
23.4749
26.0045
28.3965
30.6816
32.8927
35.0584
37.1961
39.3047
41.3595
43.3073
45.0663
46.5285
47.5676
48.0515
47.8574
46.8902
45.0994
42.4923
39.1417
35.1857
30.8182
26.2727
21.7988
17.6354
13.9837
10.9823
8.68873
7.06971
6.00122
5.27988
4.64447
3.80562
2.48027
0.426486
-2.52613
-6.45492
-11.3349
-17.043
-23.3755
-30.0756
-36.866
-43.4822
-49.6982
-55.3429
-60.3014
-64.5042
-67.9057
-70.4598
-72.0975
-72.715
-72.1741
-70.318
-66.9996
-62.1163
-55.6456
-47.6738
-38.4113
-28.1895
-17.44
-6.65635
3.65678
13.0398
21.1329
27.7211
32.765
36.4119
38.9855
40.9538
42.8787
45.35
48.9103
53.9799
60.7902
69.3344
79.3457
90.3047
101.48
111.997
120.922
127.364
130.563
129.964
125.267
116.441
103.696
87.4379
68.1826
46.4733
22.794
-2.50008
-29.225
-57.3798
-87.1226
-118.716
-152.447
-188.53
-227.012
-267.685
-310.025
-353.171
-395.942
-436.911
-474.51
-507.176
-533.51
-552.434
-563.321
-566.085
-561.204
-549.684
-532.954
-512.709
-490.722
-468.64
-447.806
-429.113
-412.922
-399.033
-386.744
-374.946
-362.286
-347.343
-328.815
-305.693
-277.406
-243.909
-205.726
-163.929
-120.053
-75.9731
-33.734
4.6357
37.313
62.851
80.3137
89.3596
90.2655
83.888
71.5679
54.9887
36.008
16.4785
-1.91736
-17.8039
-30.2052
-38.588
-42.8548
-43.2927
-40.4886
-35.2263
-28.3774
-20.8007
-13.2596
-6.36456
-0.541317
3.97471
7.12402
8.99417
9.78332
9.76215
9.23819
8.52505
7.91704
7.66903
7.98071
8.98476
10.7392
13.2242
16.3446
19.9386
23.7932
27.6651
31.3062
34.4895
37.0336
38.8216
39.8114
40.0376
39.6048
38.6742
37.4463
36.1424
34.987
34.1908
33.9365
34.3648
35.5628
37.5523
40.281
43.6167
47.3472
51.1865
54.791
57.7839
59.788
60.4631
59.5455
56.8827
52.4599
46.4125
39.0233
30.7017
21.9485
13.3091
5.31952
-1.54565
-6.91994
-10.5789
-12.4582
-12.6548
-11.4116
-9.09054
-6.13809
-3.05112
-0.347179
1.45709
1.85938
0.38031
-3.42775
-9.96646
-19.5682
-32.4636
-48.7424
-68.3149
-90.8817
-115.919
-142.687
-170.265
-197.608
-223.625
-247.269
-267.627
-284.003
-295.972
-303.425
-306.567
-305.888
-302.114
-296.124
-288.862
-281.243
-274.067
-267.944
-263.248
-260.084
-258.292
-257.474
-257.042
-256.29
-254.474
-250.897
-244.993
-236.387
-224.944
-210.782
-194.268
-175.978
-156.636
-137.04
-117.98
-100.152
-84.1011
-70.1688
-58.4782
-48.9424
-41.2999
-35.1684
-30.1094
-25.694
-21.56
-17.4544
-13.2551
-8.97135
-4.72467
-0.714403
2.82575
5.67297
7.65574
8.68405
8.76594
8.00933
6.61004
4.8287
2.96032
1.30079
0.11459
-0.392672
-0.094132
1.04784
2.98106
5.57255
8.62582
11.9043
15.1585
18.1529
20.6907
22.6325
23.9074
24.5151
24.5201
24.0372
23.2122
22.1994
21.1392
20.1388
19.259
18.508
17.8441
17.1847
16.4218
15.4394
14.1323
12.4221
10.2701
7.68537
4.7281
1.50711
-1.82771
-5.09782
-8.11244
-10.6876
-12.6662
-13.9372
-14.4521
-14.2357
-13.3915
-12.0976
-10.5946
-9.16482
-8.10426
-7.68976
-8.14419
-9.60372
-12.0912
-15.4999
-19.5911
-24.0073
-28.3015
-31.9803
-34.5564
-35.6041
-34.8127
-32.0293
-27.2865
-20.8105
-13.0078
-4.43178
4.26922
12.4147
19.3604
24.5636
27.6386
28.3953
26.8574
23.2586
18.0169
11.6918
4.92766
-1.60934
-7.29499
-11.6052
-14.1631
-14.771
-13.4249
-10.3124
-5.79343
-0.366857
5.37447
10.7983
15.2932
18.3297
19.5172
18.6493
15.7322
10.9916
4.85484
-2.08975
-9.15305
-15.6178
-20.8146
-24.1925
-25.3734
-24.186
-20.6741
-15.0801
-7.80681
0.634783
9.68476
18.7912
27.4573
35.2744
41.9385
47.2522
51.1153
53.51
54.4831
54.131
52.5874
50.0151
46.6002
42.5467
38.0705
33.3903
28.7163
24.2369
20.1058
16.4308
13.267
10.6154
8.42624
6.60811
5.03988
3.58422
2.10065
0.456449
-1.46559
-3.76293
-6.51224
-9.77068
-13.5779
-17.9572
-22.9128
-28.4233
-34.4286
-40.8122
-47.3829
-53.8578
-59.8545
-64.8966
-68.4362
-69.8946
-68.7182
-64.4447
-56.7706
-45.6083
-31.1246
-13.7499
5.84567
26.8079
48.1808
69.0038
88.4092
105.708
120.448
132.443
141.761
148.682
153.631
157.097
159.546
161.359
162.781
163.904
164.682
164.964
164.549
163.236
160.872
157.379
152.753
147.046
140.317
132.581
123.757
113.627
101.819
87.8224
71.0276
50.7926
26.5181
-2.27439
-35.8746
-74.3324
-117.427
-164.656
-215.242
-268.152
-322.13
-375.734
-427.394
-475.472
-518.347
-554.514
-582.691
-601.936
-611.75
-612.155
-603.73
-587.589
-565.3
-538.745
-509.938
-480.821
-453.06
-427.875
-405.922
-387.238
-371.265
-356.943
-342.865
-327.473
-309.272
-287.038
-259.989
-227.913
-191.211
-150.876
-108.393
-65.578
-24.3798
13.3349
45.9832
72.4308
92.1001
105.011
111.75
113.379
111.288
107.024
102.114
97.8972
95.3982
95.2475
97.6555
102.442
109.113
116.966
125.221
133.139
140.134
145.843
150.163
153.241
155.43
157.21
159.097
161.548
164.874
169.183
174.349
180.013
185.617
190.466
193.805
194.894
193.096
187.936
179.158
166.752
150.96
132.265
111.36
89.0953
66.4194
44.3127
23.7154
5.46024
-9.78616
-21.5694
-29.6748
-34.1335
-35.2077
-33.3536
-29.168
-23.324
-16.504
-9.33715
-2.35145
4.05632
9.62937
14.2402
17.865
20.5494
22.3737
23.4231
23.7678
23.4556
22.5153
20.969
18.8483
16.2107
13.1513
9.80683
6.35127
2.98246
-0.0988165
-2.71545
-4.74464
-6.15045
-7.01583
-7.57048
-8.21007
-9.50096
-12.1653
-17.0427
-25.0276
-36.985
-53.6527
-75.5395
-102.834
-135.335
-172.422
-213.062
-255.873
-299.216
-341.336
-380.508
-415.194
-444.177
-466.663
-482.345
-491.405
-494.468
-492.515
-486.753
-478.472
-468.901
-459.078
-449.75
-441.321
-433.834
-427.005
-420.294
-413
-404.377
-393.746
-380.588
-364.62
-345.831
-324.48
-301.06
-276.237
-250.766
-225.405
-200.836
-177.6
-156.056
-136.374
-118.545
-102.415
-87.7412
-74.2464
-61.671
-49.8175
-38.5779
-27.9426
-17.9925
-8.8777
-0.786711
6.08703
11.5762
15.5644
18.0017
18.9113
18.3886
16.594
13.7429
10.0929
5.9308
1.55794
-2.72492
-6.63414
-9.92015
-12.384
-13.8918
-14.3854
-13.8873
-12.4981
-10.3875
-7.77631
-4.91426
-2.05306
0.580273
2.807
4.51391
5.66146
6.28173
6.46638
6.3464
6.0667
5.7595
5.52065
5.39282
5.35863
5.34493
5.23809
4.90747
4.23337
3.13415
1.58789
-0.355578
-2.5741
-4.88422
-7.06143
-8.86606
-10.0706
-10.4842
-9.97269
-8.4711
-5.99066
-2.61981
1.47902
6.07623
10.8853
15.5767
19.7961
23.1865
25.4158
26.2053
25.3609
22.7997
18.5716
12.8692
6.02447
-1.50946
-9.19259
-16.4443
-22.6976
-27.4554
-30.3409
-31.1374
-29.8113
-26.516
-21.5764
-15.4569
-8.71498
-1.94738
4.26676
9.41985
13.1219
15.1341
15.3876
13.9838
11.1796
7.35509
2.97141
-1.47916
-5.52383
-8.75537
-10.8682
-11.6809
-11.1432
-9.32751
-6.40792
-2.63054
1.71998
6.35239
10.9953
15.4157
19.4277
22.894
25.7209
27.8495
29.2478
29.9046
29.8272
29.0435
27.6076
25.6067
23.1666
20.4532
17.6683
15.0368
12.788
11.1306
10.2251
10.1583
10.9217
12.3996
14.3692
16.5128
18.4444
19.7466
20.0156
18.9087
16.1891
11.7632
5.70426
-1.73842
-10.1495
-18.9741
-27.5605
-35.2135
-41.2538
-45.0769
-46.2047
-44.3262
-39.3223
-31.274
-20.453
-7.29812
7.62192
23.6546
40.1143
56.3332
71.7082
85.7401
98.0623
108.457
116.858
123.341
128.103
131.426
133.641
135.084
136.06
136.806
137.476
138.133
138.755
139.258
139.521
139.422
138.867
137.811
136.264
134.286
131.955
129.326
126.387
123.011
118.926
113.703
106.772
97.4603
85.0557
68.885
48.3982
23.2503
-6.63089
-40.998
-79.2651
-120.519
-163.563
-206.985
-249.249
-288.797
-324.16
-354.057
-377.488
-393.805
-402.763
-404.541
-399.736
-389.329
-374.613
-357.096
-338.383
-320.037
-303.44
-289.654
-279.318
-272.573
-269.032
-267.819
-267.643
-266.942
-264.045
-257.364
-245.577
-227.785
-203.628
-173.343
-137.756
-98.2192
-56.4944
-14.6004
25.3572
61.3612
91.6443
114.826
130.015
136.866
135.596
126.944
112.095
92.5604
70.0391
46.2661
22.8718
1.26215
-17.4643
-32.5599
-43.6286
-50.5921
-53.6299
-53.1066
-49.4989
-43.3323
-35.1349
-25.4101
-14.6269
-3.22237
8.38937
19.8089
30.649
40.5412
49.1513
56.203
61.5052
64.9777
66.6704
66.7702
65.5915
63.5503
61.1208
58.7802
56.9495
55.9371
55.8955
56.7964
58.4298
60.4272
62.3055
63.5278
63.5716
61.9981
58.5122
53.0084
45.5961
36.6023
26.5531
16.1369
6.15192
-2.55514
-9.15586
-12.9077
-13.2185
-9.70482
-2.23957
9.01383
23.5858
40.7071
59.3406
78.2412
96.0414
111.36
122.923
129.688
130.958
126.461
116.4
101.447
82.6924
61.5442
39.5907
18.4412
-0.438422
-15.8775
-27.123
-33.9183
-36.5315
-35.7277
-32.6906
-28.8989
-25.972
-25.4994
-28.8714
-37.1295
-50.8499
-70.0745
-94.2948
-122.491
-153.223
-184.759
-215.237
-242.829
-265.903
-283.159
-293.727
-297.225
-293.766
-283.923
-268.655
-249.206
-226.981
-203.425
-179.9
-157.579
-137.364
-119.832
-105.212
-93.4016
-84.0112
-76.4349
-69.9411
-63.7699
-57.227
-49.7641
-41.0382
-30.9441
-19.6195
-7.4231
5.10792
17.315
28.481
37.8914
44.887
48.9044
49.5045
46.3885
39.4076
28.5669
14.0277
-3.8922
-24.7219
-47.8458
-72.5218
-97.9081
-123.102
-147.181
-169.254
-188.499
-204.196
-215.755
-222.726
-224.804
-221.842
-213.855
-201.036
-183.773
-162.66
-138.503
-112.302
-85.2161
-58.5002
-33.4195
-11.1523
7.3114
21.2599
30.3274
34.5274
34.2484
30.209
23.3793
14.877
5.85155
-2.63134
-9.68905
-14.6967
-17.3285
-17.5636
-15.6576
-12.0856
-7.46512
-2.47024
2.25359
6.1628
8.87012
10.1751
10.0694
8.7183
6.42341
3.57237
0.58299
-2.15099
-4.30621
-5.66316
-6.12398
-5.71363
-4.56583
-2.89664
-0.970059
0.939421
2.58249
3.7645
4.3656
4.34973
3.76231
2.7178
1.37948
-0.0650931
-1.42979
-2.55309
-3.31619
-3.65382
-3.5568
-3.06631
-2.26086
-1.23806
-0.0943654
1.09375
2.28345
3.47117
4.68884
5.99084
7.43421
9.05553
10.8493
12.7524
14.6371
16.3166
17.5613
18.1251
17.7781
16.3422
13.7238
9.93921
5.12836
-0.445991
-6.41531
-12.3373
-17.7397
-22.1711
-25.2516
-26.7171
-26.451
-24.4984
-21.0619
-16.4773
-11.1754
-5.63256
-0.317574
4.35888
8.08575
10.6797
12.097
12.4281
11.8774
10.7309
9.31663
7.96379
6.96549
6.5491
6.857
7.93839
9.75118
12.172
15.0116
18.0338
20.9754
23.5664
25.5499
26.7019
26.8497
25.8902
23.8064
20.6811
16.7058
12.1829
7.5185
3.20411
-0.21383
-2.17519
-2.1558
0.279221
5.42436
13.3913
24.0812
37.1768
52.1568
68.3323
84.9021
101.022
115.882
128.773
139.156
146.699
151.301
153.085
152.373
149.637
145.437
140.356
134.935
129.617
124.708
120.349
116.517
113.031
109.582
105.769
101.142
95.2435
87.6476
77.9951
66.0144
51.5335
34.4804
14.8738
-7.19381
-31.5756
-58.0895
-86.5311
-116.679
-148.29
-181.083
-214.724
-248.798
-282.799
-316.119
-348.061
-377.865
-404.75
-427.974
-446.898
-461.047
-470.17
-474.267
-473.603
-468.683
-460.207
-448.99
-435.875
-421.636
-406.885
-392.004
-377.096
-361.978
-346.21
-329.153
-310.064
-288.202
-262.942
-233.876
-200.898
-164.252
-124.555
-82.7733
-40.1775
1.73615
41.3431
77.0035
107.184
130.578
146.221
153.586
152.642
143.883
128.307
107.346
82.7606
56.4967
30.5299
6.70425
-13.413
-28.6484
-38.3016
-42.1775
-40.574
-34.2239
-24.2015
-11.8015
1.59633
14.6638
26.2491
35.4783
41.8241
45.136
45.6293
43.8356
40.5211
36.5826
32.9322
30.3863
29.5684
30.839
34.2579
39.5821
46.299
53.6884
60.9058
67.0757
71.3861
73.1721
71.9827
67.6235
60.1747
49.9823
37.6271
23.8753
9.61628
-4.20667
-16.6669
-26.9222
-34.2759
-38.2268
-38.5066
-35.0989
-28.24
-18.3996
-6.24299
7.42196
21.7075
35.7132
48.5909
59.6036
68.1713
73.9043
76.6185
76.3355
73.2668
67.785
60.3856
51.6426
42.1618
32.5359
23.3046
14.9216
7.73133
1.9552
-2.31197
-5.09741
-6.53965
-6.87437
-6.41944
-5.56091
-4.74021
-4.44152
-5.17704
-7.4672
-11.8138
-18.6656
-28.377
-41.1655
-57.0714
-75.9279
-97.3474
-120.728
-145.282
-170.089
-194.16
-216.523
-236.295
-252.764
-265.443
-274.109
-278.813
-279.863
-277.782
-273.246
-267.007
-259.813
-252.327
-245.067
-238.356
-232.304
-226.811
-221.605
-216.289
-210.414
-203.548
-195.343
-185.593
-174.258
-161.479
-147.554
-132.899
-118
-103.35
-89.3951
-76.4901
-64.871
-54.6441
-45.7947
-38.2093
-31.7085
-26.0829
-21.1289
-16.6767
-12.6098
-8.87232
-5.46599
-2.43747
0.140358
2.18989
3.6494
4.48978
4.72501
4.41536
3.66341
2.60373
1.38834
0.17019
-0.912926
-1.75155
-2.27328
-2.44601
-2.27561
-1.79891
-1.07354
-0.166506
0.856504
1.9395
3.04125
4.13683
5.21626
6.28139
7.34247
8.41562
9.52202
10.6888
11.9509
13.3525
14.9476
16.7971
18.9626
21.4977
24.4347
27.7714
31.4576
35.3852
39.3838
43.2242
46.6307
49.3029
50.9444
51.2956
50.1675
47.4708
43.2366
37.6261
30.925
23.5253
15.8934
8.52919
1.91932
-3.50914
-7.4304
-9.65214
-10.1347
-8.99541
-6.49876
-3.03231
0.927091
4.85449
8.22117
10.5386
11.399
10.5095
7.71793
3.02907
-3.39103
-11.2225
-20.0118
-29.2032
-38.1812
-46.32
-53.0357
-57.8382
-60.3756
-60.4675
-58.1227
-53.5387
-47.0832
-39.2585
-30.653
-21.8844
-13.5411
-6.12856
-0.0256051
4.54456
7.52553
9.02096
9.27129
8.61725
7.45466
6.18583
5.17302
4.69881
4.93737
5.93955
7.63302
9.83713
12.2905
14.6883
16.7239
18.1307
18.7183
18.399
17.2006
15.2645
12.8292
10.2005
7.71401
5.69201
4.4025
4.02428
4.62273
6.13938
8.39639
11.1154
13.9484
16.5164
18.4516
19.4369
19.2389
17.7302
14.8984
10.8423
5.75611
-0.0959575
-6.41017
-12.8758
-19.2051
-25.1585
-30.5611
-35.3117
-39.3813
-42.8047
-45.6642
-48.0698
-50.135
-51.9538
-53.5779
-54.9989
-56.1362
-56.8329
-56.8616
-55.9399
-53.7567
-50.0059
-44.4252
-36.8358
-27.177
-15.5314
-2.13582
12.6239
28.2356
44.0977
59.5683
74.0195
86.8908
97.7373
106.265
112.349
116.039
117.539
117.177
115.361
112.523
109.073
105.341
101.548
97.7792
93.9804
89.9746
85.4926
80.2172
73.8326
66.0713
56.7521
45.8014
33.2566
19.2464
3.95488
-12.4298
-29.7715
-48.0379
-67.3381
-87.9361
-110.234
-134.725
-161.914
-192.225
-225.895
-262.876
-302.765
-344.76
-387.67
-429.963
-469.872
-505.535
-535.159
-557.198
-570.514
-574.516
-569.237
-555.359
-534.17
-507.447
-477.289
-445.905
-415.383
-387.467
-363.369
-343.634
-328.088
-315.872
-305.564
-295.373
-283.389
-267.845
-247.365
-221.162
-189.16
-152.018
-111.069
-68.1741
-25.5146
14.6423
50.1773
79.3223
100.811
113.966
118.71
115.526
105.351
89.4605
69.3216
46.4711
22.4065
-1.49032
-24.0018
-44.0979
-60.9447
-73.905
-82.5387
-86.6058
-86.0711
-81.108
-72.0947
-59.5995
-44.3511
-27.1949
-9.03682
9.21867
26.7305
42.7758
56.7916
68.3996
77.4125
83.8236
87.7808
89.5516
89.4819
87.9548
85.3532
82.0279
78.2751
74.3216
70.3188
66.3443
62.4103
58.4763
54.467
50.292
45.8671
41.1349
36.0822
30.7532
25.2553
19.7571
14.4773
9.66574
5.57855
2.44927
0.460576
-0.280474
0.239871
1.93394
4.61538
8.01266
11.7921
15.5879
19.0359
21.8072
23.6389
24.3575
23.894
22.2873
19.678
16.2912
12.4119
8.35533
4.43446
0.930319
-1.93375
-4.01046
-5.23878
-5.64617
-5.34438
-4.52134
-3.4315
-2.38625
-1.74495
-1.90537
-3.29166
-6.33743
-11.4619
-19.0388
-29.3583
-42.5881
-58.7357
-77.6221
-98.8713
-121.921
-146.054
-170.453
-194.268
-216.689
-237.014
-254.713
-269.457
-281.142
-289.87
-295.92
-299.7
-301.683
-302.349
-302.126
-301.344
-300.204
-298.763
-296.935
-294.516
-291.209
-286.669
-280.552
-272.559
-262.485
-250.252
-235.932
-219.755
-202.096
-183.45
-164.392
-145.522
-127.411
-110.552
-95.3117
-81.9062
-70.3868
-60.6511
-52.4689
-45.5239
-39.4626
-33.9447
-28.6881
-23.5021
-18.3051
-13.1257
-8.08722
-3.37961
0.776943
4.17083
6.6348
8.07383
8.48172
7.94483
6.63324
4.78112
2.65952
0.54555
-1.30823
-2.70026
-3.49958
-3.65643
-3.20323
-2.24596
-0.947514
0.494994
1.87598
3.00712
3.73995
3.98262
3.70895
2.9589
1.83081
0.466752
-0.96653
-2.29796
-3.37051
-4.055
-4.25768
-3.92194
-3.02585
-1.57797
0.385858
2.80305
5.58215
8.59926
11.6954
14.678
17.3283
19.4162
20.7221
21.0628
20.3188
18.4566
15.544
11.7525
7.34684
2.66091
-1.93596
-6.07849
-9.44429
-11.7864
-12.955
-12.9052
-11.6915
-9.45176
-6.38313
-2.71692
1.30475
5.44689
9.4931
13.251
16.5537
19.2587
21.2486
22.4324
22.7503
22.1802
20.7452
18.5189
15.6281
12.2495
8.60079
4.92537
1.47229
-1.52667
-3.8799
-5.45582
-6.1969
-6.12579
-5.34257
-4.01328
-2.35133
-0.593898
1.02362
2.29225
3.05046
3.1996
2.71213
1.63218
0.0684196
-1.81988
-3.84193
-5.79742
-7.49874
-8.79079
-9.56611
-9.77359
-9.42018
-8.56553
-7.31078
-5.78302
-4.11756
-2.44038
-0.852639
0.5808
1.83772
2.93935
3.94579
4.94689
6.04985
7.36518
8.99241
11.0071
13.4502
16.3203
19.5698
23.1045
26.7866
30.4408
33.8637
36.8345
39.1286
40.5314
40.8533
39.9445
37.7079
34.1099
29.1875
23.0506
15.8783
7.90982
-0.569494
-9.24742
-17.8058
-25.9421
-33.3876
-39.9217
-45.3789
-49.648
-52.6663
-54.4078
-54.8708
-54.0675
-52.0166
-48.7432
-44.2831
-38.6926
-32.0579
-24.5037
-16.1951
-7.33164
1.86683
11.1816
20.4197
29.4368
38.1545
46.5675
54.7377
62.7779
70.8247
79.006
87.4089
96.0524
104.871
113.713
122.352
130.512
137.907
144.277
149.425
153.245
155.735
156.985
157.153
156.423
154.95
152.805
149.929
146.1
140.925
133.857
124.232
111.33
94.4429
72.9517
46.392
14.5143
-22.6739
-64.8826
-111.53
-161.753
-214.424
-268.193
-321.538
-372.826
-420.398
-462.666
-498.215
-525.91
-545.004
-555.214
-556.773
-550.435
-537.435
-519.392
-498.166
-475.678
-453.717
-433.742
-416.72
-403.004
-392.29
-383.644
-375.61
-366.4
-354.121
-337.028
-313.77
-283.587
-246.431
-203.01
-154.736
-103.593
-51.9431
-2.30101
42.9098
81.5792
112.097
133.482
145.45
148.404
143.36
131.821
115.602
96.6461
76.8448
57.8804
41.11
27.497
17.5903
11.5456
9.18097
10.0538
13.5488
18.9668
25.605
32.8253
40.1037
47.0601
53.468
59.244
64.4203
69.1039
73.4294
77.5098
81.3943
85.0386
88.2917
90.903
92.5488
92.8731
91.5403
88.2884
82.9772
75.6246
66.4223
55.732
44.0594
32.0096
20.2303
9.34905
-0.0867358
-7.66057
-13.1217
-16.4003
-17.6032
-16.9888
-14.9293
-11.8611
-8.23372
-4.46142
-0.884162
2.25764
4.8325
6.81123
8.24693
9.24585
9.9348
10.4306
10.8166
11.1292
11.3563
11.4453
11.3201
10.902
10.13
8.979
7.46961
5.67114
3.69566
1.68514
-0.2063
-1.83209
-3.07213
-3.84861
-4.13748
-3.97542
-3.46308
-2.76571
-2.11205
-1.79142
-2.14778
-3.56841
-6.46467
-11.2424
-18.262
-27.7891
-39.943
-54.6472
-71.5938
-90.2289
-109.766
-129.231
-147.534
-163.57
-176.326
-184.987
-189.033
-188.297
-182.996
-173.715
-161.346
-147.001
-131.895
-117.222
-104.034
-93.1414
-85.0413
-79.8844
-77.4804
-77.3409
-78.7522
-80.8682
-82.8112
-83.7682
-83.0725
-80.2621
-75.1109
-67.6321
-58.0575
-46.797
-34.3866
-21.4315
-8.55189
3.6645
14.6988
24.1257
31.6275
36.998
40.1395
41.0558
39.8412
36.6684
31.7755
25.4519
18.0242
9.84187
1.26224
-7.36322
-15.702
-23.4517
-30.3487
-36.1744
-40.7587
-43.9821
-45.7761
-46.1238
-45.0609
-42.676
-39.1107
-34.5579
-29.2565
-23.4825
-17.5357
-11.722
-6.33277
-1.62317
2.20896
5.04141
6.84109
7.67092
7.68877
7.13734
6.32502
5.59846
5.30898
5.77586
7.25063
9.88636
13.7161
18.6428
24.4434
30.7853
37.2553
43.397
48.7529
52.9071
55.5233
56.375
55.3639
52.5262
48.0248
42.1302
35.1916
27.6027
19.7646
12.052
4.78482
-1.79233
-7.52001
-12.3242
-16.2078
-19.2345
-21.5097
-23.1591
-24.3095
-25.0735
-25.5382
-25.7611
-25.7693
-25.5637
-25.126
-24.4253
-23.4254
-22.0888
-20.3798
-18.2634
-15.7047
-12.6668
-9.1105
-4.99716
-0.293877
5.0177
10.9309
17.4033
24.3481
31.6295
39.0629
46.4219
53.4506
59.8798
65.4469
69.9152
73.0921
74.8438
75.1041
73.8782
71.2397
67.3234
62.3122
56.422
49.8837
42.926
35.7579
28.5543
21.4448
14.5084
7.773
1.22225
-5.19261
-11.5359
-17.8686
-24.2288
-30.6151
-36.9742
-43.1958
-49.1138
-54.5164
-59.1618
-62.8004
-65.1991
-66.1674
-65.5807
-63.3996
-59.6821
-54.5874
-48.3694
-41.3616
-33.9519
-26.5516
-19.5585
-13.3193
-8.09349
-4.02394
-1.11685
0.764397
1.8901
2.63938
3.46148
4.82738
7.17731
10.8709
16.146
23.0926
31.6431
41.583
52.5768
64.2077
76.024
87.5856
98.5044
108.473
117.28
124.806
131.013
135.915
139.55
141.949
143.115
143.003
141.525
138.557
133.963
127.626
119.482
109.548
97.9527
84.9416
70.8755
56.2094
41.4553
27.1332
13.7152
1.56827
-9.09569
-18.2571
-26.1061
-33.0381
-39.6237
-46.5573
-54.5861
-64.4279
-76.6862
-91.7716
-109.839
-130.745
-154.042
-178.987
-204.598
-229.719
-253.115
-273.578
-290.032
-301.641
-307.89
-308.652
-304.211
-295.254
-282.814
-268.176
-252.749
-237.917
-224.882
-214.521
-207.276
-203.081
-201.358
-201.065
-200.81
-199.008
-194.071
-184.6
-169.575
-148.494
-121.472
-89.2644
-53.2335
-15.2432
22.492
57.5959
87.7347
110.82
125.194
129.784
124.206
108.827
84.7595
53.7948
18.2782
-19.0727
-55.39
-87.9007
-114.173
-132.333
-141.239
-140.576
-130.877
-113.449
-90.2268
-63.559
-35.9585
-9.84032
12.7197
30.1796
41.6588
46.9865
46.6675
41.7753
33.7878
24.3877
15.2545
7.8729
3.37786
2.4539
5.2946
11.6227
20.7627
31.7529
43.4797
54.8169
64.754
72.4998
77.5538
79.7406
79.2082
76.3934
71.9616
66.7274
61.5665
57.3269
54.7471
54.3893
56.5925
61.4485
68.8032
78.2803
89.324
101.257
113.344
124.857
135.137
143.636
149.952
153.846
155.236
154.186
150.874
145.562
138.556
130.176
120.724
110.466
99.6299
88.4026
76.9463
65.4133
53.9639
42.7789
32.0642
22.0449
12.9463
4.96488
-1.76934
-7.23153
-11.5358
-14.9552
-17.9231
-21.01
-24.8782
-30.2178
-37.6702
-47.7503
-60.777
-76.8199
-95.6698
-116.837
-139.578
-162.951
-185.893
-207.312
-226.19
-241.677
-253.17
-260.369
-263.295
-262.27
-257.865
-250.824
-241.964
-232.082
-221.868
-211.848
-202.345
-193.486
-185.222
-177.378
-169.712
-161.974
-153.959
-145.541
-136.697
-127.502
-118.118
-108.762
-99.6784
-91.0975
-83.2099
-76.142
-69.9427
-64.5804
-59.9487
-55.8813
-52.1714
-48.5964
-44.9427
-41.0306
-36.735
-32.0013
-26.8539
-21.3963
-15.8027
-10.3003
-5.1452
-0.593225
3.13138
5.86507
7.52881
8.14307
7.83174
6.81376
5.3832
3.87982
2.65391
2.02984
2.27344
3.56766
6.00012
9.56408
14.1721
19.68
25.9151
32.7056
39.9032
47.3963
55.1118
63.0049
71.0412
79.1732
87.3188
95.3446
103.06
110.223
116.556
121.777
125.629
127.915
128.531
127.483
124.896
121.009
116.159
110.746
105.202
99.9502
95.3701
91.7639
89.3337
88.166
88.2253
89.3571
91.2983
93.6952
96.1273
98.1373
99.2644
99.0808
97.2283
93.453
87.633
79.7967
70.1288
58.9615
46.7515
34.0446
21.4313
9.49874
-1.21692
-10.2714
-17.3432
-22.2514
-24.9594
-25.5661
-24.286
-21.4219
-17.3357
-12.418
-7.06391
-1.65261
3.46511
7.97382
11.595
14.0844
15.2273
14.8319
12.7243
8.74699
2.76587
-5.3135
-15.5188
-27.7769
-41.8808
-57.4654
-74.0029
-90.8233
-107.161
-122.225
-135.277
-145.709
-153.111
-157.299
-158.324
-156.44
-152.044
-145.608
-137.605
-128.443
-118.427
-107.742
-96.4732
-84.6378
-72.24
-59.3252
-46.027
-32.5972
-19.4117
-6.95255
4.23465
13.5982
20.6465
25.012
26.503
25.1368
21.1483
14.973
7.20667
-1.45255
-10.2732
-18.5611
-25.723
-31.3169
-35.0837
-36.9576
-37.0563
-35.6537
-33.138
-29.9616
-26.5867
-23.4316
-20.8229
-18.9563
-17.8706
-17.436
-17.3602
-17.209
-16.4438
-14.4705
-10.6957
-4.58753
4.26741
16.1147
30.9963
48.7318
68.9202
90.9614
114.097
137.469
160.18
181.373
200.29
216.333
229.11
238.451
244.418
247.285
247.503
245.654
242.389
238.374
234.221
230.443
227.403
225.285
224.077
223.563
223.342
222.848
221.39
218.198
212.477
203.456
190.447
172.887
150.379
122.715
89.8885
52.1017
9.75178
-36.5823
-86.1606
-138.105
-191.422
-245.032
-297.796
-348.553
-396.16
-439.544
-477.761
-510.045
-535.876
-555.011
-567.521
-573.788
-574.475
-570.47
-562.797
-552.508
-540.563
-527.721
-514.443
-500.836
-486.639
-471.262
-453.873
-433.52
-409.287
-380.445
-346.598
-307.792
-264.575
-218.003
-169.587
-121.184
-74.8505
-32.6574
3.49282
32.0452
51.9403
62.7189
64.573
58.3357
45.4125
27.6572
7.2052
-13.7207
-33.0121
-48.8637
-59.929
-65.4249
-65.1746
-59.5829
-49.5479
-36.3208
-21.3328
-6.0117
8.38818
20.9197
31.026
38.565
43.7746
47.1912
49.5325
51.5674
53.9906
57.3195
61.8256
67.5078
74.1067
81.1552
88.0545
94.1634
98.8877
101.757
102.482
100.983
97.3886
92.0152
85.3163
77.8248
70.0886
62.6093
55.7932
49.9163
45.11
41.3637
38.545
36.4317
34.7513
33.222
31.5911
29.6655
27.3329
24.5706
21.4437
18.0922
14.7103
11.5197
8.74136
6.56696
5.13484
4.51169
4.68263
5.55068
6.94591
8.6433
10.3875
11.9214
13.0154
13.493
13.2507
12.2681
10.6088
8.40906
5.8581
3.16831
0.539655
-1.8799
-4.03359
-5.99006
-7.96701
-10.3392
-13.6263
-18.4594
-25.5265
-35.5007
-48.9596
-66.3037
-87.6842
-112.952
-141.632
-172.936
-205.81
-239.008
-271.204
-301.103
-327.565
-349.706
-366.98
-379.214
-386.615
-389.728
-389.356
-386.46
-382.043
-377.032
-372.18
-367.99
-364.668
-362.125
-360.001
-357.731
-354.628
-349.978
-343.137
-333.621
-321.172
-305.795
-287.768
-267.615
-246.048
-223.892
-201.989
-181.104
-161.844
-144.593
-129.483
-116.396
-105.002
-94.8171
-85.2964
-75.9162
-66.2592
-56.0778
-45.3308
-34.1875
-23.0011
-12.2551
-2.49196
5.76555
12.0886
16.2026
18.025
17.6772
15.4699
11.8647
7.41862
2.71914
-1.68064
-5.3196
-7.87146
-9.16896
-9.2075
-8.12948
-6.19262
-3.72735
-1.08933
1.38688
3.4274
4.84772
5.56768
5.61182
5.09592
4.20225
3.14757
2.14882
1.39196
1.00831
1.06197
1.54913
2.40851
3.54003
4.82751
6.16119
7.45609
8.66338
9.77375
10.8129
11.8309
12.8885
14.0419
15.3308
16.7698
18.3456
20.0198
21.7363
23.4316
25.0461
26.5355
27.8777
29.0768
30.1617
31.1802
32.1891
33.2429
34.3816
35.6207
36.9451
38.3077
39.6326
40.8236
41.7759
42.3893
42.581
42.2963
41.5159
40.2576
38.5748
36.5488
34.2793
31.8717
29.4252
27.0205
24.7116
22.5209
20.4384
18.4263
16.427
14.3737
12.2024
9.86376
7.33145
4.60824
1.727
-1.2526
-4.25136
-7.18076
-9.9546
-12.5003
-14.768
-16.7368
-18.4159
-19.8417
-21.0708
-22.17
-23.2043
-24.2259
-25.2636
-26.3159
-27.3475
-28.2897
-29.0453
-29.4964
-29.5154
-28.9771
-27.7711
-25.8133
-23.055
-19.4894
-15.1546
-10.133
-4.54777
1.44404
7.66028
13.9036
19.9718
25.6673
30.8057
35.2221
38.7764
41.3572
42.8852
43.3157
42.6413
40.8931
38.141
34.4906
30.0769
25.0553
19.588
13.8296
7.91239
1.93397
-4.04919
-10.0207
-15.9941
-21.9934
-28.0278
-34.0639
-40.0008
-45.6549
-50.7578
-54.9706
-57.9152
-59.2194
-58.5695
-55.7648
-50.7637
-43.7152
-34.9678
-25.0546
-14.6518
-4.51747
4.58452
11.9653
17.0858
19.6166
19.4741
16.8302
12.0924
5.85907
-1.14425
-8.1407
-14.3796
-19.2076
-22.1268
-22.8333
-21.2355
-17.4499
-11.7781
-4.66825
3.33452
11.641
19.6701
26.8926
32.864
37.2408
39.7811
40.3281
38.7818
35.0618
29.0688
20.6514
9.58595
-4.42515
-21.7334
-42.7007
-67.6361
-96.718
-129.912
-166.894
-206.993
-249.163
-291.994
-333.771
-372.574
-406.423
-433.451
-452.088
-461.238
-460.42
-449.86
-430.503
-403.954
-372.322
-338.014
-303.465
-270.869
-241.935
-217.702
-198.447
-183.704
-172.377
-162.947
-153.727
-143.139
-129.955
-113.489
-93.6887
-71.1417
-46.9775
-22.6972
0.0475725
19.6906
34.9674
45.0815
49.7995
49.4636
44.9253
37.4128
28.3545
19.1854
11.1656
5.23285
1.90962
1.27219
2.98229
6.37268
10.5711
14.6436
17.7357
19.1939
18.6516
16.0697
11.7308
6.18913
0.185769
-5.45803
-9.95406
-12.6522
-13.1238
-11.2147
-7.06052
-1.06632
6.14695
13.8205
21.1494
27.3767
31.8774
34.2235
34.2233
31.9309
27.6281
21.7813
14.9822
7.87894
1.10827
-4.76501
-9.29441
-12.1809
-13.2841
-12.6161
-10.3221
-6.65106
-1.92075
3.51786
9.31398
15.145
20.7375
25.8804
30.4303
34.3097
37.4994
40.0267
41.9503
43.3455
44.2883
44.8425
45.0494
44.9208
44.4381
43.5553
42.2079
40.3264
37.8518
34.7527
31.0401
26.7774
22.0844
17.1335
12.1381
7.33456
2.95927
-0.775854
-3.70769
-5.74377
-6.88078
-7.21913
-6.97299
-6.47484
-6.17227
-6.61422
-8.42365
-12.2549
-18.7361
-28.3997
-41.6081
-58.485
-78.8614
-102.25
-127.854
-154.62
-181.322
-206.68
-229.491
-248.751
-263.759
-274.175
-280.04
-281.736
-279.92
-275.418
-269.116
-261.854
-254.341
-247.098
-240.436
-234.455
-229.086
-224.129
-219.31
-214.333
-208.921
-202.848
-195.95
-188.136
-179.374
-169.685
-159.13
-147.798
-135.801
-123.273
-110.371
-97.275
-84.1929
-71.3547
-59.0065
-47.3975
-36.7641
-27.3115
-19.196
-12.5108
-7.27709
-3.44172
-0.882634
0.579383
1.16356
1.10886
0.652981
0.0129714
-0.630507
-1.14377
-1.44485
-1.50242
-1.32954
-0.9735
-0.50342
0.0028981
0.47108
0.840074
1.0689
1.13986
1.05827
0.849242
0.552305
0.214857
-0.114484
-0.391766
-0.582136
-0.66243
-0.62183
-0.460788
-0.188582
0.179946
0.627907
1.13959
1.70297
2.31115
2.96276
3.66135
4.41407
5.22995
6.11794
7.08491
8.13325
9.25817
10.4443
11.662
12.8638
13.9817
14.9267
15.5912
15.856
15.601
14.7193
13.1335
10.8121
7.7818
4.13557
0.0322493
-4.31184
-8.63948
-12.6755
-16.1536
-18.8429
-20.5717
-21.2446
-20.8508
-19.4631
-17.2279
-14.3478
-11.0603
-7.6137
-4.24519
-1.16157
1.47502
3.55595
5.02956
5.89953
6.21917
6.08232
5.61195
4.94737
4.23098
3.59544
3.15213
2.98168
3.12733
3.59171
4.3373
5.29079
6.35094
7.39929
8.31275
8.97689
9.29831
9.21506
8.70368
7.78224
6.50899
4.97697
3.30506
1.62681
0.0781789
-1.21432
-2.14388
-2.63092
-2.62731
-2.1171
-1.11416
0.342438
2.19413
4.36846
6.78385
9.35305
11.9854
14.5883
17.0678
19.3289
21.2753
22.8092
23.8312
24.2418
23.9451
22.854
20.8994
18.0398
14.2724
9.64138
4.24448
-1.76662
-8.19103
-14.7894
-21.2998
-27.4564
-33.0094
-37.7422
-41.4844
-44.1177
-45.5741
-45.8281
-44.884
-42.7637
-39.4955
-35.1105
-29.6449
-23.1488
-15.7004
-7.42021
1.51759
10.88
20.3798
29.6898
38.4674
46.3845
53.1619
58.6023
62.6178
65.2479
66.6655
67.1683
67.1547
67.0876
67.4472
68.6777
71.1357
75.0438
80.4564
87.2427
95.0884
103.517
111.928
119.65
125.995
130.317
132.053
130.756
126.106
117.902
106.039
90.4831
71.2351
48.3104
21.7261
-8.49383
-42.2965
-79.563
-120.063
-163.408
-209.012
-256.072
-303.574
-350.317
-394.981
-436.209
-472.705
-503.346
-527.279
-544.007
-553.441
-555.919
-552.174
-543.275
-530.519
-515.306
-498.996
-482.768
-467.501
-453.684
-441.368
-430.166
-419.304
-407.707
-394.13
-377.309
-356.116
-329.72
-297.72
-260.244
-217.994
-172.232
-124.694
-77.4507
-32.7134
7.37975
40.9789
66.7077
83.7967
92.1493
92.3318
85.4927
73.2214
57.3665
39.8366
22.4079
6.56004
-6.64187
-16.6083
-23.2265
-26.8059
-27.9775
-27.5641
-26.4387
-25.3911
-25.0179
-25.6506
-27.3275
-29.8113
-32.6452
-35.2389
-36.9695
-37.2816
-35.7733
-32.256
-26.7814
-19.6337
-11.2882
-2.34725
6.54071
14.763
21.8166
27.3628
31.258
33.5553
34.482
34.3946
33.7225
32.9066
32.3441
32.346
33.1117
34.7227
37.1541
40.2998
44.0055
48.1031
52.4417
56.9092
61.4418
66.0216
70.6623
75.3874
80.2051
85.0848
89.9398
94.619
98.9107
102.557
105.278
106.801
106.889
105.373
102.17
97.2914
90.8494
83.0439
74.1489
64.4915
54.4283
44.3232
34.5259
25.3527
17.0705
9.88313
3.91738
-0.790277
-4.30856
-6.82604
-8.66262
-10.2727
-12.2341
-15.2183
-19.9382
-27.0769
-37.2028
-50.6827
-67.6079
-87.7467
-110.536
-135.115
-160.407
-185.222
-208.39
-228.879
-245.905
-258.994
-268.013
-273.155
-274.88
-273.834
-270.754
-266.372
-261.335
-256.143
-251.117
-246.4
-241.968
-237.681
-233.323
-228.662
-223.491
-217.665
-211.124
-203.893
-196.075
-187.828
-179.336
-170.784
-162.325
-154.064
-146.044
-138.246
-130.595
-122.975
-115.25
-107.281
-98.9489
-90.1748
-80.9323
-71.2581
-61.2551
-51.09
-40.9835
-31.1949
-22.0019
-13.6771
-6.46329
-0.550673
3.94182
6.9791
8.61436
8.98505
8.30053
6.82276
4.84218
2.65147
0.520095
-1.32768
-2.72896
-3.59113
-3.89304
-3.67862
-3.04434
-2.12224
-1.06088
-0.00637942
0.914123
1.60513
2.01031
2.11468
1.9416
1.54554
1.00197
0.395737
-0.190333
-0.685379
-1.03788
-1.21983
-1.22764
-1.0798
-0.812194
-0.471707
-0.109163
0.227439
0.498609
0.677382
0.751323
0.722513
0.605709
0.425128
0.210386
-0.00780174
-0.201594
-0.349211
-0.43702
-0.460373
-0.423228
-0.336733
-0.217049
-0.0827877
0.0475931
0.158094
0.236925
0.277535
0.278888
0.245008
0.18399
0.106693
0.0254363
-0.0469624
-0.0975743
-0.113047
-0.0787272
0.0224317
0.210644
0.509151
0.942657
1.53406
2.2996
3.24289
4.34878
5.57826
6.86551
8.11818
9.22163
10.0472
10.4639
10.3534
9.62555
8.23361
6.18666
3.557
0.480956
-2.84822
-6.19514
-9.30389
-11.9239
-13.8373
-14.8838
-14.9801
-14.1303
-12.4273
-10.0424
-7.20686
-4.18563
-1.24836
1.3596
3.44215
4.87038
5.59173
5.62979
5.07577
4.07364
2.80172
1.45351
0.22036
-0.722671
-1.22703
-1.17743
-0.496084
0.854514
2.8693
5.49861
8.64678
12.1723
15.8907
19.5816
23.0006
25.8954
28.0268
29.1902
29.2375
28.0951
25.7748
22.3774
18.0865
13.1535
7.87574
2.57065
-2.45125
-6.90991
-10.5734
-13.267
-14.8731
-15.3232
-14.5836
-12.6395
-9.48146
-5.09705
0.529213
7.40791
15.5301
24.8496
35.2655
46.6105
58.6472
71.0747
83.5462
95.6944
107.162
117.632
126.852
134.656
140.965
145.787
149.202
151.344
152.383
152.5
151.877
150.682
149.065
147.153
145.046
142.813
140.482
138.024
135.338
132.231
128.4
123.433
116.804
107.896
96.0356
80.5413
60.7848
36.2604
6.65266
-28.1025
-67.7734
-111.81
-159.351
-209.253
-260.153
-310.553
-358.909
-403.735
-443.696
-477.686
-504.894
-524.836
-537.371
-542.692
-541.3
-533.963
-521.661
-505.519
-486.74
-466.512
-445.927
-425.883
-406.998
-389.537
-373.372
-357.978
-342.478
-325.74
-306.513
-283.6
-256.043
-223.291
-185.34
-142.811
-96.9577
-49.5937
-2.94491
40.5589
78.5297
108.873
130.018
141.088
142.007
133.505
117.048
94.6776
68.8039
41.9544
16.5276
-5.43138
-22.4045
-33.5082
-38.5256
-37.8655
-32.4566
-23.5959
-12.7695
-1.47083
8.96353
17.4835
23.4082
26.457
26.731
24.6517
20.8704
16.1595
11.3044
7.00566
3.80328
2.02948
1.79143
2.98277
5.31897
8.38947
11.7188
14.8288
17.2945
18.7893
19.115
18.2155
16.175
13.201
9.59653
5.72416
1.9655
-1.31938
-3.82909
-5.35117
-5.78241
-5.1374
-3.54423
-1.22783
1.51704
4.36029
6.97411
9.06948
10.4271
10.9191
10.5196
9.3022
7.42695
5.11691
2.62912
0.223134
-1.86881
-3.46634
-4.45769
-4.80714
-4.55291
-3.79642
-2.685
-1.39065
-0.0876975
1.06777
1.9544
2.49636
2.6676
2.48966
2.0239
1.35926
0.597073
-0.165975
-0.855543
-1.43711
-1.93191
-2.42958
-3.0955
-4.17045
-5.9608
-8.8182
-13.1092
-19.1771
-27.2984
-37.641
-50.2263
-64.904
-81.3405
-99.0264
-117.302
-135.401
-152.504
-167.804
-180.574
-190.225
-196.363
-198.817
-197.662
-193.211
-185.984
-176.667
-166.047
-154.944
-144.137
-134.304
-125.964
-119.443
-114.859
-112.127
-110.985
-111.03
-111.772
-112.682
-113.251
-113.028
-111.658
-108.899
-104.638
-98.8828
-91.7543
-83.466
-74.3015
-64.5896
-54.6784
-44.9114
-35.6058
-27.0348
-19.4143
-12.8944
-7.55566
-3.41051
-0.408806
1.55281
2.61873
2.9605
2.76224
2.20669
1.46266
0.675061
-0.0422365
-0.610049
-0.984286
-1.1533
-1.13273
-0.958663
-0.679815
-0.349735
-0.0197042
0.267014
0.479146
0.59944
0.624832
0.565035
0.440063
0.27725
0.108341
-0.0329467
-0.112708
-0.0980874
0.0417064
0.334154
0.801511
1.45796
2.30587
3.33153
4.5011
5.75768
7.02049
8.18694
9.13826
9.74861
9.89751
9.48465
8.44569
6.76716
4.49838
1.75798
-1.26694
-4.33046
-7.14656
-9.41611
-10.8597
-11.2525
-10.4577
-8.45218
-5.34158
-1.36114
3.13963
7.72746
11.9285
15.2795
17.381
17.9455
16.8349
14.0809
9.88643
4.60657
-1.28849
-7.26406
-12.779
-17.344
-20.5731
-22.2221
-22.2101
-20.6207
-17.6848
-13.7465
-9.21739
-4.52506
-0.0625611
3.85484
7.02061
9.35225
10.8898
11.779
12.2415
12.5384
12.93
13.6393
14.8228
16.5507
18.8008
21.4627
24.3543
27.2449
29.8841
32.0309
33.4813
34.0898
33.7835
32.5684
30.5251
27.7985
24.5803
21.0876
17.5408
14.1429
11.0627
8.42283
6.29463
4.69946
3.61526
2.98777
2.74452
2.80973
3.11836
3.62707
4.32024
5.20936
6.32517
7.70309
9.36396
11.2937
13.4255
15.6296
17.7128
19.4293
20.5034
20.6602
19.6602
17.3333
13.6057
8.51712
2.22252
-5.01916
-12.8704
-20.9502
-28.874
-36.2938
-42.9325
-48.608
-53.245
-56.8724
-59.6072
-61.6284
-63.1423
-64.3465
-65.3952
-66.3723
-67.2737
-68.0021
-68.375
-68.1426
-67.0149
-64.6935
-60.9049
-55.4314
-48.1387
-38.9956
-28.0867
-15.6159
-1.902
12.6361
27.5003
42.143
56.0006
68.532
79.2574
87.7939
93.8874
97.4334
98.4872
97.2597
94.0997
89.4623
83.8682
77.8549
71.927
66.5087
61.903
58.2622
55.5712
53.6463
52.1469
50.6003
48.4354
45.0212
39.7061
31.8545
20.8776
6.25642
-12.441
-35.5462
-63.2757
-95.7114
-132.77
-174.166
-219.364
-267.538
-317.549
-367.948
-417.02
-462.878
-503.592
-537.361
-562.687
-578.547
-584.521
-580.878
-568.57
-549.165
-524.695
-497.448
-469.72
-443.563
-420.55
-401.598
-386.871
-375.768
-367.019
-358.854
-349.254
-336.23
-318.103
-293.756
-262.81
-225.709
-183.703
-138.726
-93.1842
-49.6938
-10.7819
21.3914
45.2671
60.0456
65.7524
63.2066
53.9005
39.8087
23.1525
6.15157
-9.20803
-21.363
-29.2992
-32.6065
-31.4593
-26.5325
-18.8683
-9.71185
-0.340186
8.09651
14.703
18.9241
20.5811
19.8596
17.2538
13.4798
9.3685
5.75443
3.37206
2.77162
4.26184
7.88384
13.4168
20.4121
28.2516
36.2202
43.5872
49.6845
53.9767
56.1138
55.9634
53.619
49.3839
43.7332
37.258
30.5987
24.3743
19.1176
15.2218
12.9068
12.2078
12.9868
14.9651
17.7706
20.9922
24.2334
27.1572
29.5162
31.1654
32.0574
32.2243
31.7512
30.7464
29.3161
27.5465
25.4953
23.1936
20.6562
17.8949
14.9344
11.8238
8.64311
5.50238
2.53397
-0.121083
-2.32998
-3.98541
-5.02052
-5.41909
-5.21986
-4.51498
-3.44418
-2.18713
-0.956899
0.00367131
0.422178
-0.00491614
-1.61237
-4.76076
-9.82208
-17.1543
-27.0654
-39.7698
-55.3427
-73.6786
-94.4619
-117.155
-141.013
-165.114
-188.426
-209.884
-228.477
-243.342
-253.842
-259.629
-260.673
-257.265
-249.99
-239.665
-227.265
-213.837
-200.412
-187.921
-177.127
-168.57
-162.54
-159.06
-157.891
-158.567
-160.429
-162.688
-164.496
-165.023
-163.528
-159.437
-152.401
-142.327
-129.401
-114.067
-96.9931
-79.0076
-61.0186
-43.9295
-28.5537
-15.541
-5.3233
1.91509
6.24017
7.9446
7.50177
5.50413
2.59352
-0.607946
-3.55868
-5.84388
-7.20317
-7.53795
-6.8995
-5.46088
-3.47756
-1.24283
0.955857
2.87374
4.33457
5.24313
5.58426
5.41076
4.82361
3.94915
2.91717
1.84345
0.818456
-0.0972333
-0.871581
-1.49553
-1.97525
-2.32422
-2.55672
-2.68369
-2.71131
-2.64196
-2.47677
-2.21895
-1.87683
-1.46579
-1.0088
-0.535201
-0.0781192
0.329133
0.656985
0.883228
0.995754
0.993983
0.888794
0.701005
0.458635
0.193388
-0.0631643
-0.283181
-0.445481
-0.537469
-0.555894
-0.506414
-0.402119
-0.261289
-0.104705
0.047091
0.176255
0.269539
0.319444
0.324553
0.28908
0.22178
0.134408
0.0399758
-0.0489369
-0.121599
-0.170124
-0.189956
-0.17986
-0.141451
-0.0783664
0.0048261
0.103813
0.215615
0.339275
0.47587
0.62765
0.796342
0.980944
1.17565
1.36865
1.54235
1.67543
1.74639
1.73794
1.6414
1.45977
1.20876
0.915172
0.612742
0.336337
0.116018
-0.0271658
-0.081998
-0.0437354
0.0929981
0.343337
0.740656
1.34147
2.22424
3.48071
5.19984
7.44621
10.236
13.5155
17.1458
20.899
24.4684
27.4923
29.5907
30.4105
29.6727
27.2158
23.0283
17.2649
10.2437
2.42403
-5.63417
-13.3235
-20.049
-25.2876
-28.6392
-29.8637
-28.9
-25.8632
-21.0234
-14.7669
-7.54625
0.174915
7.97488
15.5191
22.5915
29.1095
35.1198
40.7771
46.3093
51.9729
58.0056
64.5837
71.7882
79.5859
87.8267
96.2585
104.555
112.353
119.299
125.085
129.488
132.39
133.787
133.784
132.58
130.435
127.638
124.467
121.16
117.88
114.697
111.575
108.367
104.824
100.603
95.2905
88.4262
79.5316
68.1431
53.8453
36.3042
15.2981
-9.25624
-37.2819
-68.5278
-102.563
-138.783
-176.422
-214.584
-252.277
-288.459
-322.093
-352.2
-377.921
-398.571
-413.691
-423.085
-426.854
-425.392
-419.377
-409.72
-397.501
-383.873
-369.952
-356.701
-344.817
-334.638
-326.086
-318.65
-311.427
-303.211
-292.639
-278.359
-259.219
-234.443
-203.778
-167.58
-126.834
-83.1041
-38.4065
4.96411
44.6464
78.4318
104.467
121.421
128.593
125.964
114.177
94.4713
68.556
38.4648
6.38917
-25.4861
-55.1356
-80.8234
-101.205
-115.396
-123.007
-124.142
-119.361
-109.612
-96.132
-80.3263
-63.6407
-47.4298
-32.8412
-20.7244
-11.5749
-5.51805
-2.33335
-1.5152
-2.36037
-4.07123
-5.86117
-7.04968
-7.13657
-5.84778
-3.14967
0.767625
5.53311
10.6569
15.6021
19.8568
22.9979
24.739
24.9578
23.7018
21.1741
17.7013
13.6927
9.59459
5.84663
2.84657
0.924414
0.328216
1.21986
3.67862
7.70919
13.2513
20.1882
28.3536
37.5357
47.4807
57.896
68.4552
78.806
88.5808
97.4092
104.933
110.819
114.777
116.567
116.02
113.048
107.656
99.9579
90.1814
78.6708
65.879
52.3485
38.6799
25.4883
13.3506
2.74655
-5.99826
-12.7624
-17.662
-21.0611
-23.5542
-25.9182
-29.0375
-33.8073
-41.0275
-51.2983
-64.9328
-81.8986
-101.797
-123.886
-147.14
-170.348
-192.23
-211.564
-227.307
-238.688
-245.277
-247.008
-244.171
-237.359
-227.393
-215.224
-201.836
-188.148
-174.941
-162.794
-152.064
-142.879
-135.164
-128.678
-123.072
-117.945
-112.9
-107.593
-101.769
-95.2828
-88.1072
-80.3246
-72.1093
-63.7006
-55.3714
-47.3965
-40.0222
-33.443
-27.7839
-23.0929
-19.3415
-16.4342
-14.2241
-12.5341
-11.1786
-9.98587
-8.81577
-7.57256
-6.21114
-4.73622
-3.19526
-1.66645
-0.243743
0.978981
1.92245
2.53344
2.79185
2.71285
2.34422
1.75954
1.04847
0.305601
-0.380596
-0.937311
-1.31435
-1.4878
-1.46031
-1.25807
-0.925354
-0.517304
-0.0921894
0.295992
0.603635
0.801752
0.877975
0.836313
0.694907
0.482288
0.23273
-0.0186101
-0.240157
-0.407457
-0.505467
-0.529419
-0.484315
-0.383263
-0.244965
-0.0907787
0.0582344
0.183921
0.272999
0.318201
0.318545
0.278791
0.208233
0.119077
0.024666
-0.0621772
-0.130443
-0.171733
-0.180533
-0.154055
-0.0918426
0.00466094
0.132414
0.286911
0.462238
0.651243
0.846069
1.03924
1.22537
1.40334
1.57867
1.76559
1.98827
2.28077
2.68543
3.24965
4.02149
5.04443
6.35201
7.96294
9.8769
12.0715
14.5005
17.0929
19.7545
22.37
24.808
26.9276
28.5876
29.6564
30.0237
29.6123
28.3875
26.3652
23.6157
20.2635
16.4819
12.4833
8.50551
4.79518
1.58988
-0.899461
-2.50469
-3.11429
-2.68442
-1.24709
1.085
4.11761
7.57928
11.1323
14.3914
16.9499
18.4137
18.4378
16.7645
13.2565
7.92019
0.917164
-7.44033
-16.7089
-26.3472
-35.7582
-44.3372
-51.5187
-56.8188
-59.8689
-60.4389
-58.4487
-53.9685
-47.2081
-38.4978
-28.2608
-16.9807
-5.16403
6.69807
18.1682
28.8966
38.6486
47.3213
54.9487
61.6917
67.8153
73.653
79.5621
85.8758
92.8553
100.649
109.264
118.553
128.22
137.846
146.928
154.932
161.353
165.769
167.889
167.588
164.915
160.084
153.443
145.424
136.483
127.039
117.405
107.747
98.0492
88.1026
77.5195
65.7666
52.2168
36.2115
17.1291
-5.5487
-32.1758
-62.8916
-97.5849
-135.873
-177.101
-220.358
-264.513
-308.273
-350.249
-389.042
-423.333
-451.973
-474.072
-489.073
-496.808
-497.528
-491.901
-480.975
-466.098
-448.809
-430.7
-413.256
-397.698
-384.84
-374.98
-367.844
-362.591
-357.895
-352.081
-343.321
-329.854
-310.213
-283.42
-249.141
-207.766
-160.415
-108.875
-55.4514
-2.77709
46.4235
89.5801
124.51
149.614
164.016
167.628
161.14
145.936
123.942
97.4332
68.8183
40.4213
14.29
-7.95607
-25.2226
-36.9782
-43.2341
-44.4731
-41.54
-35.5099
-27.5492
-18.7866
-10.2043
-2.56173
3.64664
8.19753
11.1136
12.6138
13.0488
12.8302
12.3642
11.9963
11.9714
12.4136
13.3229
14.5882
16.0123
17.3438
18.3125
18.664
18.1902
16.7547
14.3108
10.9112
6.70946
1.95261
-3.0354
-7.87824
-12.1782
-15.5515
-17.6638
-18.2634
-17.2077
-14.4796
-10.1924
-4.58248
2.01051
9.17301
16.4537
23.4026
29.6089
34.7337
38.5346
40.8798
41.7506
41.2331
39.5003
36.7873
33.3635
29.504
25.4657
21.4675
17.6789
14.2155
11.1418
8.47843
6.21377
4.31564
2.74257
1.45218
0.405218
-0.435945
-1.1152
-1.69686
-2.28474
-3.04308
-4.21466
-6.1306
-9.2062
-13.919
-20.768
-30.2162
-42.6229
-58.1752
-76.8293
-98.2711
-121.907
-146.885
-172.152
-196.537
-218.854
-238.011
-253.115
-263.556
-269.063
-269.724
-265.966
-258.506
-248.264
-236.27
-223.553
-211.045
-199.504
-189.449
-181.141
-174.58
-169.537
-165.602
-162.25
-158.907
-155.024
-150.133
-143.895
-136.13
-126.829
-116.144
-104.371
-91.9043
-79.1983
-66.712
-54.8627
-43.9838
-34.295
-25.8884
-18.7306
-12.6817
-7.52736
-3.01949
1.08038
4.96136
8.73245
12.405
15.8903
19.012
21.5312
23.1804
23.7015
22.8835
20.5964
16.8165
11.6433
5.30366
-1.85641
-9.39283
-16.7967
-23.5373
-29.1112
-33.0918
-35.1745
-35.2109
-33.2274
-29.4252
-24.1606
-17.9074
-11.2055
-4.60185
1.40769
6.42945
10.2077
12.6416
13.7811
13.8043
12.9797
11.621
10.0405
8.50907
7.22785
6.31424
5.80363
5.66424
5.82131
6.18556
6.68038
7.26317
7.93721
8.75252
9.79573
11.1712
12.9766
15.2774
18.0842
21.3377
24.9033
28.5772
32.1035
35.2001
37.5901
39.0347
39.3631
38.4946
36.4517
33.3599
29.4369
24.9702
20.2877
15.7245
11.5887
8.13256
5.52988
3.86329
3.12188
3.20905
3.95894
5.15912
6.57656
7.98353
9.18074
10.015
10.3903
10.2711
9.67811
8.67872
7.37114
5.86651
4.26991
2.66298
1.09038
-0.447917
-1.99698
-3.63956
-5.48134
-7.63072
-10.1757
-13.1616
-16.573
-20.3236
-24.2552
-28.1485
-31.7424
-34.7614
-36.9476
-38.0917
-38.0601
-36.8151
-34.4235
-31.0549
-26.9678
-22.4862
-17.9698
-13.7799
-10.2459
-7.6359
-6.1341
-5.82703
-6.70035
-8.64547
-11.4749
-14.944
-18.7762
-22.689
-26.4174
-29.7332
-32.458
-34.4698
-35.7036
-36.1465
-35.8284
-34.8116
-33.1775
-31.0155
-28.4118
-25.4407
-22.1573
-18.5923
-14.7485
-10.5994
-6.09072
-1.14507
4.32915
10.4247
17.2192
24.7566
33.0305
41.9695
51.4303
61.1982
70.998
80.5128
89.411
97.3755
104.135
109.487
113.318
115.613
116.444
115.966
114.387
111.945
108.876
105.387
101.631
97.6921
93.5762
89.2059
84.4259
79.0118
72.6829
65.1183
55.9759
44.9139
31.6135
15.8019
-2.72739
-24.0992
-48.3482
-75.4169
-105.16
-137.353
-171.697
-207.824
-245.294
-283.593
-322.122
-360.195
-397.033
-431.786
-463.551
-491.423
-514.55
-532.208
-543.866
-549.254
-548.404
-541.668
-529.696
-513.383
-493.773
-471.953
-448.92
-425.47
-402.101
-378.96
-355.848
-332.268
-307.533
-280.897
-251.707
-219.539
-184.305
-146.313
-106.272
-65.2479
-24.5818
14.2243
49.6308
80.1844
104.631
122.01
131.73
133.619
127.943
115.402
97.092
74.4367
49.0921
22.8287
-2.59916
-25.5864
-44.7989
-59.2728
-68.4791
-72.3482
-71.2501
-65.9334
-57.4294
-46.9331
-35.674
-24.791
-15.2255
-7.64316
-2.39152
0.503902
1.30691
0.507818
-1.25999
-3.31275
-5.00635
-5.81289
-5.37575
-3.53786
-0.342361
3.99207
9.11568
14.6042
20.019
24.963
29.1255
32.3109
34.4504
35.5964
35.9018
35.5907
34.9227
34.1595
33.5353
33.2375
33.3967
34.0874
35.3368
37.1385
39.4675
42.2932
45.5873
49.3246
53.4782
58.0082
62.8479
67.8899
72.9748
77.8857
82.3505
86.0531
88.6541
89.8189
89.2524
86.7351
82.1567
75.5433
67.0721
57.0712
46.003
34.431
22.974
12.251
2.82487
-4.85112
-10.4758
-13.9291
-15.2841
-14.8029
-12.917
-10.1951
-7.30155
-4.94799
-3.8418
-4.63353
-7.86659
-13.9321
-23.0327
-35.1577
-50.0748
-67.3382
-86.3156
-106.233
-126.234
-145.444
-163.047
-178.345
-190.814
-200.142
-206.243
-209.247
-209.477
-207.396
-203.553
-198.523
-192.843
-186.964
-181.216
-175.791
-170.742
-166.003
-161.416
-156.774
-151.858
-146.48
-140.509
-133.894
-126.667
-118.942
-110.893
-102.734
-94.6857
-86.9491
-79.6805
-72.974
-66.853
-61.2716
-56.1266
-51.2753
-46.5597
-41.8323
-36.9793
-31.9396
-26.7162
-21.3783
-16.0547
-10.9181
-6.16444
-1.98769
1.44417
4.01067
5.65413
6.38723
6.29209
5.51116
4.23139
2.66393
1.02188
-0.501015
-1.74829
-2.61337
-3.04577
-3.0505
-2.6814
-2.02954
-1.20852
-0.338637
0.468045
1.12015
1.55563
1.74598
1.69598
1.43938
1.03161
0.540578
0.0368877
-0.415124
-0.764683
-0.979388
-1.04722
-0.975837
-0.78944
-0.523999
-0.221459
0.0761397
0.331934
0.518293
0.619284
0.631411
0.562715
0.430527
0.258302
0.0720491
-0.103113
-0.24578
-0.340054
-0.376084
-0.349298
-0.258524
-0.103373
0.118621
0.414549
0.79783
1.28866
1.91293
2.69951
3.67618
4.86444
6.27411
7.89829
9.70977
11.6596
13.6786
15.6815
17.5744
19.2636
20.6657
21.7171
22.3815
22.6542
22.5634
22.1668
21.5455
20.7949
20.0144
19.2979
18.7244
18.3522
18.2151
18.3221
18.66
19.198
19.8938
20.7003
21.5719
22.469
23.3619
24.2318
25.0705
25.8786
25.8786
25.8786
25.8786
25.8786
25.8786
25.8786
25.8786
25.8786
25.8786
25.8786
25.8786
25.8786
25.8786
25.8786
25.8786
25.8786
25.8786
25.8786
25.8786
25.8786
