-48.9598
-48.0526
-46.9115
-45.5285
-43.9093
-42.0745
-40.0572
-37.8998
-35.6479
-33.3441
-31.0207
-28.6949
-26.3657
-24.0144
-21.6087
-19.1109
-16.4872
-13.7192
-10.8136
-7.80975
-4.78212
-1.83816
0.889787
3.25705
5.12266
6.36643
6.90488
6.70357
5.78406
4.22427
2.15205
-0.26711
-2.84683
-5.39854
-7.74984
-9.7599
-11.3302
-12.4096
-12.9928
-13.1139
-12.8363
-12.2395
-11.4069
-10.4151
-9.32604
-8.18341
-7.01243
-5.823
-4.61476
-3.3828
-2.12293
-0.835424
0.473236
1.7907
3.10087
4.38723
5.63647
6.84185
8.00563
9.14023
10.2683
11.4219
12.6407
13.9707
15.4623
17.1688
19.1445
21.4416
24.1068
27.1758
30.6673
34.5771
38.8723
43.4874
48.3239
53.2522
58.1173
62.7464
66.9598
70.5812
73.4489
75.4261
76.4093
76.3351
75.184
72.9824
69.8008
65.7497
60.973
55.6388
49.9287
44.0273
38.111
32.3396
26.8487
21.7461
17.1103
12.9913
9.41387
6.38133
3.88001
1.88345
0.355863
-0.745198
-1.46707
-1.86075
-1.98004
-1.88062
-1.61897
-1.25078
-0.829096
-0.40221
-0.0115182
0.310304
0.540604
0.667328
0.688779
0.612564
0.453852
0.233141
-0.0262095
-0.30041
-0.567397
-0.808486
-1.00938
-1.16049
-1.25655
-1.29583
-1.27893
-1.20776
-1.08475
-0.91262
-0.694686
-0.43569
-0.142793
0.173527
0.499045
0.816048
1.10441
1.34339
1.51393
1.60109
1.59623
1.49857
1.31578
1.06357
0.764223
0.444236
0.131474
-0.147931
-0.37247
-0.527672
-0.60778
-0.616528
-0.56693
-0.480067
-0.382922
-0.305438
-0.277088
-0.323358
-0.462686
-0.704358
-1.04782
-1.48363
-1.99598
-2.56632
-3.17753
-3.81756
-4.48191
-5.17408
-5.9038
-6.68323
-7.52156
-8.41929
-9.36311
-10.3228
-11.2508
-12.085
-12.755
-13.1903
-13.3302
-13.1332
-12.5853
-11.7047
-10.5432
-9.18284
-7.72901
-6.29975
-5.0133
-3.97511
-3.26589
-2.93238
-2.98188
-3.38134
-4.06098
-4.9222
-5.8485
-6.71835
-7.41816
-7.85396
-7.96037
-7.70589
-7.09411
-6.16128
-4.97113
-3.60805
-2.17016
-0.762809
0.506953
1.53552
2.22827
2.50629
2.31483
1.63286
0.482799
-1.06195
-2.87352
-4.77227
-6.53696
-7.92218
-8.68205
-8.59741
-7.50342
-5.31344
-2.03604
2.21802
7.24008
12.7394
18.369
23.7588
28.5514
32.4377
35.1864
36.664
36.8437
35.8018
33.7023
30.7729
27.2769
23.4835
19.6432
15.969
12.6271
9.73481
7.36616
5.56106
4.3352
3.68773
3.60454
4.05622
4.99135
6.32713
7.94026
9.66132
11.2755
12.5316
13.1598
12.8975
11.519
8.86846
4.88873
-0.355606
-6.66459
-13.7004
-20.9957
-27.972
-33.9648
-38.2527
-40.0877
-38.7253
-33.4536
-23.6262
-8.70068
11.7113
37.7816
69.3901
106.044
146.801
190.213
234.309
276.631
314.34
344.396
363.801
369.895
360.676
335.091
293.27
236.656
168.006
91.2385
11.1426
-67.032
-138.058
-197.231
-240.833
-266.494
-273.414
-262.42
-235.837
-197.218
-150.94
-101.73
-54.1756
-12.2781
20.9072
43.5044
54.905
55.7119
47.5545
32.8064
14.2456
-5.29897
-23.2724
-37.656
-47.1403
-51.198
-50.0564
-44.5823
-36.1007
-26.1754
-16.3814
-8.09792
-2.34587
0.314014
-0.18554
-3.45171
-8.72184
-14.9943
-21.18
-26.2533
-29.3838
-30.0333
-28.0084
-23.4661
-16.8757
-8.94379
-0.516137
7.53124
14.3966
19.441
22.2517
22.6739
20.8118
16.9992
11.7483
5.68253
-0.535505
-6.27426
-10.993
-14.2867
-15.9123
-15.7965
-14.0259
-10.8222
-6.50774
-1.46439
3.90757
9.22785
14.1675
18.4716
21.9709
24.5849
26.3151
27.2315
27.4552
27.1389
26.448
25.5435
24.5696
23.6449
22.8576
22.2655
21.8979
21.7597
21.837
22.1018
22.5173
23.0413
23.6303
24.2414
24.8351
25.3771
25.8397
26.2034
26.457
26.5975
26.6285
26.5573
26.3919
26.1359
25.7852
25.3249
24.7278
23.9566
22.9672
21.7164
20.1693
18.3088
16.143
13.7095
11.0768
8.34032
5.61446
3.02048
0.672733
-1.33546
-2.94386
-4.13339
-4.92895
-5.39619
-5.6327
-5.75465
-5.88097
-6.11707
-6.54078
-7.19207
-8.0683
-9.12538
-10.2846
-11.4439
-12.4925
-13.3259
-13.8603
-14.0429
-13.8592
-13.3332
-12.5242
-11.5173
-10.412
-9.30865
-8.29524
-7.43644
-6.7659
-6.28267
-5.95212
-5.7109
-5.47538
-5.15215
-4.64964
-3.88937
-2.81588
-1.40436
0.334415
2.35221
4.56458
6.85514
9.08255
11.09
12.7165
13.8094
14.2373
13.9022
12.7499
10.7779
8.03873
4.64028
0.740279
-3.46292
-7.74355
-11.8644
-15.5946
-18.7266
-21.0929
-22.5788
-23.1306
-22.76
-21.5413
-19.6039
-17.1201
-14.289
-11.319
-8.40983
-5.73661
-3.43745
-1.60545
-0.28595
0.521186
0.854944
0.783346
0.391998
-0.227402
-0.987161
-1.81121
-2.63964
-3.43016
-4.15678
-4.80656
-5.37526
-5.86273
-6.26899
-6.59139
-6.82317
-6.95367
-6.96973
-6.85817
-6.60875
-6.2171
-5.68714
-5.03261
-4.27733
-3.45418
-2.60285
-1.76654
-0.988173
-0.306388
0.248059
0.655097
0.907002
1.00874
0.976951
0.837785
0.623784
0.370293
0.111777
-0.121514
-0.306184
-0.427378
-0.479395
-0.465246
-0.395281
-0.285145
-0.153333
-0.0186888
0.101872
0.19516
0.252873
0.272052
0.254861
0.207839
0.140797
0.0656515
-0.0046156
-0.0566512
-0.0770272
-0.0521615
0.0320037
0.190398
0.439148
0.795769
1.2792
1.90973
2.70863
3.69748
4.89667
6.32288
7.98553
9.88216
11.9935
14.2792
16.6744
19.0897
21.4135
23.5181
25.2685
26.5346
27.2036
27.1931
26.4621
25.0197
22.9289
20.3063
17.3169
14.164
11.0768
8.29644
6.06426
4.6152
4.17927
4.99341
7.32344
11.4935
17.9168
27.1177
39.7353
56.4927
78.1252
105.259
138.244
176.959
220.615
267.594
315.373
360.569
399.136
426.705
439.058
432.668
405.239
356.163
286.807
200.58
102.748
-0.00333242
-100.201
-190.35
-263.727
-315.106
-341.316
-341.567
-317.501
-272.961
-213.518
-145.82
-76.8364
-13.1141
39.8926
78.3219
100.194
105.469
95.8776
74.5667
45.6109
13.4611
-17.6002
-43.9326
-62.8903
-73.0225
-74.113
-67.0676
-53.6801
-36.3153
-17.5572
0.13209
14.7025
24.7238
29.4952
29.0528
24.085
15.7759
5.60322
-4.87882
-14.243
-21.3557
-25.4884
-26.3677
-24.1617
-19.4137
-12.9343
-5.67229
1.41883
7.50125
11.9459
14.39
14.7547
13.2264
10.2061
6.23782
1.92707
-2.1393
-5.46206
-7.67962
-8.59524
-8.18047
-6.55742
-3.9645
-0.712297
2.8637
6.44703
9.77563
12.6653
15.0202
16.8299
18.1569
19.1166
19.8531
20.5165
21.2423
22.1361
23.2645
24.6512
26.2795
28.0968
30.0227
31.9588
33.7976
35.4332
36.7703
37.7339
38.278
38.3931
38.1118
37.5119
36.7141
35.8762
35.1806
34.8171
34.9615
35.7527
37.2698
39.5137
42.3953
45.7332
49.2619
52.6507
55.5318
57.5358
58.3305
57.6576
55.3657
51.4326
45.9748
39.2434
31.6042
23.5059
15.4381
7.88495
1.27834
-4.0424
-7.86134
-10.1031
-10.835
-10.2539
-8.6603
-6.42194
-3.93215
-1.56726
0.352082
1.59147
2.02212
1.62751
0.497013
-1.19214
-3.2018
-5.26531
-7.12126
-8.54447
-9.37073
-9.5125
-8.96437
-7.79818
-6.14923
-4.1961
-2.13716
-0.167108
1.54346
2.86329
3.70927
4.04864
3.89546
3.30277
2.35222
1.14307
-0.218012
-1.62533
-2.98026
-4.19506
-5.19492
-5.91885
-6.31998
-6.36605
-6.04014
-5.34183
-4.28858
-2.91676
-1.28198
0.541959
2.46572
4.38903
6.20697
7.81759
9.13004
10.0725
10.5985
10.6915
10.3663
9.66719
8.66332
7.44161
6.09783
4.7274
3.41682
2.23674
1.23751
0.447394
-0.126595
-0.49566
-0.684726
-0.727244
-0.660095
-0.519218
-0.336411
-0.137481
0.0582637
0.237389
0.390874
0.512165
0.595112
0.63211
0.612746
0.523148
0.34615
0.062258
-0.348721
-0.905613
-1.62369
-2.51262
-3.57492
-4.80493
-6.1885
-7.70336
-9.31992
-11.0024
-12.7102
-14.3992
-16.0232
-17.535
-18.8885
-20.04
-20.9504
-21.5872
-21.927
-21.9574
-21.6785
-21.1044
-20.2626
-19.1934
-17.9478
-16.5835
-15.1616
-13.7411
-12.3747
-11.1043
-9.95785
-8.94786
-8.07139
-7.31213
-6.64386
-6.03508
-5.4539
-4.87258
-4.27093
-3.63795
-2.97164
-2.27699
-1.56261
-0.836725
-0.103388
0.640364
1.40575
2.21159
3.08188
4.04183
5.11323
6.30992
7.6342
9.07481
10.607
12.1941
13.7909
15.3467
16.8086
18.1236
19.2389
20.1021
20.66
20.8577
20.64
19.953
18.7493
16.9943
14.6746
11.8059
8.4413
4.67628
0.652678
-3.44074
-7.3691
-10.8525
-13.5657
-15.1342
-15.1268
-13.0441
-8.30645
-0.247699
11.877
28.8563
51.45
80.2677
115.601
157.221
204.17
254.594
305.668
353.647
394.106
422.326
433.837
425.018
393.688
339.579
264.607
172.887
70.4503
-35.2933
-136.304
-224.77
-293.959
-338.965
-357.228
-348.79
-316.232
-264.32
-199.408
-128.686
-59.3538
2.14567
50.7752
83.3401
98.6839
97.6347
82.7249
57.7374
27.1455
-4.4768
-33.0005
-55.1815
-68.9515
-73.5374
-69.4125
-58.1003
-41.8703
-23.3732
-5.26669
10.1203
21.0484
26.5277
26.3677
21.1212
11.9419
0.379939
-11.8512
-23.1052
-32.0022
-37.5756
-39.3528
-37.3672
-32.1063
-24.4089
-15.3299
-5.99069
2.56262
9.47832
14.1823
16.4189
16.2494
14.0109
10.2473
5.62106
0.820931
-3.52447
-6.91591
-9.02944
-9.73566
-9.09255
-7.31571
-4.73193
-1.72368
1.32763
4.09233
6.33131
7.91942
8.85198
9.23553
9.26552
9.19531
9.30105
9.8471
11.0556
13.0829
16.0048
19.8102
24.4041
29.6176
35.2234
40.9568
46.5373
51.6912
56.1728
59.7817
62.377
63.8852
64.3028
63.6932
62.1778
59.9232
57.1243
53.9869
50.7092
47.4661
44.3961
41.5925
39.1005
36.9184
35.0036
33.2827
31.6628
30.0447
28.3352
26.4575
24.36
22.0213
19.4524
16.6957
13.8208
10.9177
8.08834
5.43659
3.05783
1.02904
-0.5997
-1.81136
-2.62487
-3.09443
-3.30481
-3.36322
-3.38848
-3.49851
-3.79785
-4.3663
-5.25026
-6.45761
-7.95662
-9.67901
-11.5267
-13.3812
-15.1153
-16.6045
-17.7381
-18.4292
-18.621
-18.2914
-17.4536
-16.1542
-14.4685
-12.494
-10.3415
-8.12661
-5.96066
-3.94209
-2.14973
-0.637772
0.566846
1.46448
2.08042
2.46038
2.66439
2.75988
2.81444
2.88936
3.03414
3.28271
3.65141
4.13881
4.7271
5.38503
6.0716
6.74052
7.34472
7.84062
8.19185
8.37211
8.36682
8.17343
7.80028
7.26421
6.58725
5.79334
4.90576
3.94623
2.93606
1.89916
0.866135
-0.1219
-1.01129
-1.73708
-2.22811
-2.41602
-2.24678
-1.69293
-0.764221
0.485893
1.95947
3.51999
5.0046
6.24146
7.06984
7.36037
7.03246
6.06658
4.50948
2.47171
0.117581
-2.35108
-4.71555
-6.76269
-8.30684
-9.20891
-9.39079
-8.84372
-7.62982
-5.87676
-3.7659
-1.51513
0.64199
2.47873
3.797
4.44642
4.33852
3.4549
1.84842
-0.362434
-3.00541
-5.87108
-8.73251
-11.3658
-13.5698
-15.1822
-16.0927
-16.2493
-15.6602
-14.3896
-12.5488
-10.2834
-7.75814
-5.14101
-2.58783
-0.229541
1.83707
3.55424
4.90336
5.90073
6.58969
7.03038
7.2887
7.42585
7.49012
7.51154
7.5002
7.44794
7.33279
7.12521
6.79491
6.31703
5.67668
4.87138
3.91104
2.81585
1.61273
0.330996
-1.00179
-2.36319
-3.73795
-5.11857
-6.50458
-7.90062
-9.314
-10.752
-12.2192
-13.7153
-15.2329
-16.7563
-18.2598
-19.7064
-21.0468
-22.2185
-23.144
-23.7296
-23.8623
-23.4041
-22.1846
-19.9896
-16.547
-11.5106
-4.44646
5.17566
17.9747
34.6269
55.7985
82.0357
113.611
150.336
191.374
235.082
278.937
319.595
353.099
375.248
382.092
370.489
338.649
286.551
216.185
131.527
38.2581
-56.7683
-146.235
-223.162
-281.685
-317.716
-329.382
-317.203
-283.981
-234.417
-174.529
-110.924
-50.0557
2.47299
42.4581
67.4449
76.8494
71.853
55.1001
30.2518
1.46008
-27.1652
-52.0332
-70.4396
-80.7909
-82.6724
-76.7661
-64.6447
-48.4787
-30.701
-13.6754
0.59091
10.6605
15.7845
15.9237
11.6781
4.14436
-5.27358
-15.0731
-23.8518
-30.473
-34.1815
-34.66
-32.0245
-26.7679
-19.6613
-11.6316
-3.63288
3.47353
9.01442
12.5675
13.9872
13.3934
11.1292
7.69646
3.67793
-0.340592
-3.84004
-6.42111
-7.83589
-7.99675
-6.96386
-4.91572
-2.1084
1.16947
4.63971
8.06973
11.2961
14.2344
16.8761
19.274
21.5201
23.7201
25.9685
28.3284
30.8183
33.4073
36.0193
38.5441
40.8534
42.82
44.3356
45.3264
45.7634
45.6669
45.1038
44.1807
43.0316
41.8031
40.6394
39.6683
38.9904
38.6718
38.7407
39.1886
39.9741
41.0276
42.2581
43.5576
44.8062
45.8752
46.6317
46.9431
46.6842
45.7458
44.0458
41.5399
38.2315
34.1782
29.4943
24.3459
18.9414
13.515
8.30628
3.53828
-0.60479
-3.99605
-6.57913
-8.37417
-9.47562
-10.0421
-10.2793
-10.4177
-10.6877
-11.2949
-12.3981
-14.092
-16.3958
-19.2499
-22.5184
-25.9996
-29.4422
-32.566
-35.0867
-36.7423
-37.3192
-36.6747
-34.7559
-31.6101
-27.3876
-22.3345
-16.7769
-11.0963
-5.70003
-0.986915
2.68692
5.04017
5.8932
5.18741
2.99518
-0.48077
-4.91916
-9.90296
-14.9524
-19.5664
-23.2688
-25.6562
-26.4414
-25.4876
-22.8278
-18.6663
-13.3611
-7.38712
-1.28486
4.3997
9.17641
12.6655
14.6376
15.0345
13.9668
11.6905
8.56473
4.99921
1.39825
-1.88967
-4.60953
-6.61977
-7.89305
-8.49926
-8.5753
-8.28789
-7.79657
-7.2232
-6.63292
-6.02892
-5.36077
-4.5436
-3.48361
-2.10456
-0.370012
1.70244
4.03726
6.50727
8.94824
11.1786
13.0209
14.3207
14.9614
14.8732
14.0349
12.472
10.2503
7.46758
4.24598
0.724398
-2.94737
-6.61367
-10.1178
-13.3077
-16.0421
-18.1994
-19.686
-20.4459
-20.4681
-19.7913
-18.5046
-16.7427
-14.6762
-12.4969
-10.3993
-8.56069
-7.12109
-6.16614
-5.71511
-5.71593
-6.04856
-6.53702
-6.96931
-7.12338
-6.79608
-5.83162
-4.1456
-1.74109
1.28582
4.75222
8.40598
11.9527
15.0885
17.5349
19.0705
19.5566
18.9524
17.3194
14.8141
11.67
8.17203
4.62691
1.3319
-1.45322
-3.5286
-4.76882
-5.12849
-4.6389
-3.39684
-1.5475
0.736059
3.27386
5.89772
8.46515
10.8668
13.027
14.898
16.4496
17.6572
18.4905
18.9063
18.8468
18.244
17.0298
15.1505
12.5821
9.34508
5.51505
1.22897
-3.31404
-7.85566
-12.083
-15.6324
-18.0901
-18.9883
-17.7985
-13.9232
-6.69367
4.61864
20.7677
42.4641
70.2659
104.428
144.721
190.244
239.269
289.156
336.39
376.774
405.771
418.999
412.801
384.83
334.541
263.507
175.489
76.2131
-27.1161
-126.538
-214.185
-283.157
-328.296
-346.762
-338.333
-305.39
-252.595
-186.313
-113.856
-42.6474
20.5842
70.484
103.553
118.386
115.647
97.813
68.7333
33.0614
-4.34853
-39.0147
-67.3005
-86.7415
-96.2003
-95.8474
-86.9878
-71.7692
-52.8199
-32.869
-14.3958
0.648731
11.0225
16.2624
16.6465
13.065
6.82641
-0.569191
-7.65717
-13.2058
-16.3618
-16.73
-14.3833
-9.80972
-3.80705
2.65314
8.57385
13.0719
15.4914
15.4786
13.0132
8.39442
2.18842
-4.85359
-11.8945
-18.1143
-22.804
-25.4412
-25.7387
-23.6635
-19.4262
-13.4433
-6.28033
1.41726
8.99682
15.8659
21.5475
25.7182
28.2266
29.0907
28.4787
26.6744
24.035
20.9464
17.7806
14.8619
12.4433
10.6945
9.70235
9.47952
9.98055
11.1205
12.7936
14.8892
17.3026
19.9418
22.7276
25.5914
28.4687
31.2935
33.9926
36.4828
38.6716
40.4604
41.752
42.4591
42.5142
41.8781
40.5463
38.5525
35.9671
32.8927
29.4559
25.7973
22.0603
18.3804
14.8768
11.6459
8.75793
6.25591
4.15765
2.45882
1.13709
0.156467
-0.528919
-0.971682
-1.22891
-1.36047
-1.42754
-1.49103
-1.60958
-1.83687
-2.21855
-2.78887
-3.56754
-4.55717
-5.74201
-7.08804
-8.54482
-10.049
-11.5289
-12.9106
-14.1235
-15.106
-15.8103
-16.2052
-16.2779
-16.0335
-15.4936
-14.6934
-13.6781
-12.4994
-11.2119
-9.86983
-8.52457
-7.22247
-6.00328
-4.89903
-3.93326
-3.12051
-2.46623
-1.96683
-1.61021
-1.37666
-1.24009
-1.16971
-1.13209
-1.09331
-1.02139
-0.888464
-0.672728
-0.359741
0.0570465
0.576667
1.1919
1.89125
2.66129
3.48895
4.36319
5.2756
6.21965
7.18841
8.17121
9.14966
10.0941
10.9612
11.6937
12.2231
12.474
12.3718
11.8516
10.8669
9.39801
7.45856
5.09854
2.40423
-0.505869
-3.48853
-6.3862
-9.03932
-11.2993
-13.041
-14.173
-14.6454
-14.4532
-13.636
-12.2734
-10.4768
-8.37799
-6.11683
-3.82857
-1.63265
0.375567
2.12908
3.58935
4.74227
5.59117
6.14825
6.42614
6.43126
6.16036
5.60079
4.73474
3.54663
2.03255
0.210016
-1.87375
-4.13674
-6.46154
-8.69989
-10.6822
-12.2313
-13.1786
-13.3813
-12.7375
-11.1992
-8.77889
-5.55231
-1.65403
2.73156
7.38378
12.0621
16.5238
20.5415
23.9185
26.5021
28.1921
28.9456
28.7771
27.7541
25.9892
23.6291
20.8417
17.8027
14.6825
11.6353
8.78938
6.24203
4.05643
2.26239
0.859787
-0.175811
-0.88604
-1.32221
-1.53825
-1.58489
-1.50595
-1.33687
-1.10581
-0.836915
-0.555235
-0.292504
-0.0925902
-0.0154845
-0.138615
-0.554548
-1.36452
-2.66781
-4.54749
-7.05361
-10.1852
-13.8727
-17.9616
-22.199
-26.2233
-29.5579
-31.6092
-31.669
-28.9262
-22.4891
-11.4261
5.16783
28.0735
57.8146
94.4939
137.615
185.916
237.251
288.569
336.015
375.193
401.566
410.977
400.216
367.554
313.153
239.27
150.209
52.0053
-48.1429
-142.607
-224.148
-286.71
-326.078
-340.317
-329.942
-297.789
-248.627
-188.556
-124.274
-62.3246
-8.39156
33.2514
60.0942
71.5117
68.6571
54.1553
31.6508
5.27549
-20.8932
-43.3159
-59.365
-67.551
-67.5883
-60.3068
-47.4335
-31.283
-14.4043
0.770549
12.2304
18.6099
19.3127
14.5278
5.14538
-7.40801
-21.3879
-34.972
-46.4911
-54.6215
-58.5207
-57.8932
-52.9844
-44.5107
-33.5379
-21.3295
-9.1832
1.72156
10.4487
16.3907
19.3068
19.315
16.8421
12.5423
7.19731
1.61173
-3.48358
-7.50893
-10.0868
-11.0627
-10.4969
-8.63077
-5.83391
-2.54171
0.809192
3.83871
6.26821
7.94803
8.86583
9.13646
8.97625
8.66625
8.50985
8.79064
9.73567
11.4881
14.0923
17.4915
21.5381
26.014
30.6581
35.1964
39.3721
42.9712
45.841
47.901
49.1436
49.6277
49.4652
48.8048
47.8141
46.6638
45.515
44.5104
43.7679
43.378
43.4
43.8599
44.746
46.0054
47.541
49.211
50.8327
52.1919
53.0578
53.2032
52.428
50.5834
47.5934
43.4704
38.3226
32.3508
25.8349
19.1109
12.5403
6.47673
1.23115
-2.95734
-5.9441
-7.69109
-8.26769
-7.84012
-6.6508
-4.99035
-3.16535
-1.46571
-0.135364
0.65071
0.800671
0.310147
-0.74327
-2.21418
-3.91001
-5.61543
-7.11749
-8.22861
-8.80513
-8.75974
-8.06722
-6.7638
-4.94122
-2.73709
-0.32317
2.10719
4.35164
6.21131
7.50363
8.07574
7.8186
6.68113
4.68268
1.9217
-1.42216
-5.09468
-8.78383
-12.1464
-14.8426
-16.5749
-17.1267
-16.3937
-14.4043
-11.3245
-7.44393
-3.14597
1.13697
4.97564
7.99754
9.93373
10.6526
10.175
8.66949
6.42756
3.82248
1.25846
-0.883565
-2.29545
-2.78037
-2.27533
-0.855339
1.28064
3.83938
6.47416
8.83069
10.5923
11.5183
11.4716
10.4315
8.49298
5.85042
2.77153
-0.437039
-3.4666
-6.04173
-7.94982
-9.06175
-9.34186
-8.84666
-7.71325
-6.13939
-4.358
-2.60936
-1.11425
-0.0509552
0.461524
0.37265
-0.2987
-1.47106
-3.01373
-4.76481
-6.55149
-8.21015
-9.60405
-10.6365
-11.2587
-11.4707
-11.3173
-10.878
-10.254
-9.55335
-8.87568
-8.29959
-7.87288
-7.60737
-7.47841
-7.42901
-7.37791
-7.23063
-6.892
-6.27878
-5.33095
-4.02021
-2.35491
-0.380544
1.8239
4.1537
6.48903
8.70758
10.6973
12.3684
13.6615
14.5539
15.0585
15.2205
15.1078
14.7997
14.3736
13.893
13.3982
12.9017
12.3883
11.8212
11.1519
10.3329
9.32988
8.13257
6.76029
5.26236
3.7123
2.19698
0.802594
-0.399929
-1.36702
-2.08961
-2.59346
-2.93235
-3.17511
-3.38862
-3.61998
-3.88099
-4.13765
-4.30616
-4.25512
-3.81204
-2.77075
-0.895604
2.08096
6.4694
12.641
21.0476
32.2334
46.8252
65.4887
88.8366
117.288
150.885
189.09
230.604
273.254
313.99
349.042
374.229
385.422
379.086
352.847
305.979
239.723
157.382
64.1409
-33.37
-127.73
-211.517
-278.13
-322.529
-341.803
-335.484
-305.567
-256.247
-193.404
-123.904
-54.8218
7.32561
57.2464
91.3558
108.035
107.648
92.3292
65.5867
31.7847
-4.43044
-38.6801
-67.3212
-87.7814
-98.7355
-100.117
-92.9786
-79.2393
-61.3501
-41.9381
-23.4679
-7.96115
3.19606
9.34666
10.5545
7.50807
1.35722
-6.48833
-14.5702
-21.5744
-26.484
-28.6769
-27.963
-24.5617
-19.0302
-12.1565
-4.83449
2.06144
7.786
11.8051
13.8435
13.8944
12.1963
9.18022
5.39891
1.44756
-2.11394
-4.82746
-6.38507
-6.65493
-5.68318
-3.67357
-0.948696
2.10083
5.07233
7.60457
9.42242
10.3676
10.4125
9.65648
8.30666
6.64593
4.99383
3.66526
2.93242
2.99451
3.95837
5.83157
8.52803
11.8843
15.6839
19.6861
23.6544
27.3834
30.7174
33.5626
35.8886
37.7231
39.1376
40.2295
41.1017
41.8436
42.5156
43.1389
43.6923
44.116
44.321
44.2028
43.6575
42.5977
40.9658
38.744
35.9587
32.6799
29.0157
25.1024
21.0925
17.141
13.3932
9.97299
6.97518
4.46058
2.45472
0.949866
-0.0903856
-0.724547
-1.02568
-1.07365
-0.947914
-0.721439
-0.4562
-0.200329
0.0129904
0.165105
0.250219
0.272839
0.244722
0.181698
0.100692
0.0172058
-0.0565851
-0.113033
-0.149537
-0.168457
-0.176543
-0.184001
-0.203303
-0.247829
-0.330429
-0.462016
-0.650348
-0.899179
-1.20801
-1.57264
-1.98647
-2.4425
-2.93537
-3.46265
-4.02474
-4.62266
-5.25382
-5.90644
-6.55389
-7.15069
-7.6319
-7.91697
-7.91843
-7.55473
-6.76531
-5.52546
-3.858
-1.83915
0.403251
2.69993
4.85784
6.68319
8.00666
8.7068
8.72807
8.09046
6.88891
5.28254
3.47482
1.68775
0.133539
-1.01229
-1.63256
-1.68204
-1.19146
-0.26145
0.952397
2.2611
3.4675
4.39174
4.89367
4.88939
4.36018
3.35273
1.97114
0.361896
-1.30597
-2.86288
-4.16002
-5.08724
-5.58557
-5.65287
-5.34239
-4.75463
-4.0238
-3.30104
-2.73645
-2.46233
-2.5798
-3.14998
-4.19062
-5.67777
-7.55166
-9.72534
-12.0944
-14.5465
-16.9694
-19.2576
-21.3168
-23.0663
-24.4416
-25.3948
-25.8957
-25.9327
-25.5124
-24.6598
-23.4168
-21.8399
-19.9964
-17.9599
-15.8047
-13.6001
-11.4052
-9.26454
-7.20582
-5.2389
-3.35722
-1.5409
0.238581
2.01255
3.80855
5.64359
7.51784
9.40946
11.2713
13.0301
14.5892
15.8343
16.6437
16.9009
16.5107
15.4159
13.6132
11.1664
8.21393
4.96849
1.707
-1.24921
-3.56364
-4.92058
-5.0638
-3.83314
-1.19359
2.74793
7.74158
13.4108
19.2847
24.8439
29.5735
33.018
34.8312
34.814
32.9369
29.3438
24.3373
18.3479
11.8917
5.52294
-0.210494
-4.80274
-7.80893
-8.84431
-7.56248
-3.61606
3.39174
13.9515
28.6706
48.2549
73.4338
104.817
142.69
186.768
235.954
288.151
340.194
387.952
426.621
451.206
457.135
440.932
400.831
337.24
252.948
153.039
44.4889
-64.5015
-165.371
-250.136
-312.281
-347.486
-354.094
-333.256
-288.749
-226.488
-153.805
-78.5915
-8.42041
50.2596
92.7474
116.476
121.127
108.482
82.0381
46.4634
6.95864
-31.3847
-64.1555
-88.0615
-101.195
-103.111
-94.7222
-78.0512
-55.87
-31.294
-7.37571
13.2492
28.6285
37.6495
40.0787
36.4921
28.1178
16.6179
3.84312
-8.40892
-18.6031
-25.6232
-28.863
-28.2478
-24.1919
-17.5013
-9.24143
-0.584327
7.34202
13.5869
17.4784
18.6829
17.2214
13.4415
7.95351
1.54123
-4.94132
-10.6723
-14.9523
-17.273
-17.3575
-15.1716
-10.9072
-4.94332
2.20744
9.96014
17.718
24.9262
31.1158
35.9335
39.1593
40.7111
40.6388
39.11
36.3892
32.8123
28.7589
24.623
20.7848
17.5845
15.2993
14.126
14.1697
15.4399
17.8542
21.2492
25.3979
30.031
34.8604
39.6028
43.9991
47.8305
50.9284
53.1782
54.5186
54.9363
54.4584
53.1441
51.0754
48.35
45.0747
41.3613
37.3227
33.0707
28.7144
24.358
20.0995
16.0282
12.2222
8.74534
5.64487
2.9491
0.666317
-1.21514
-2.72531
-3.90969
-4.82525
-5.53579
-6.10707
-6.60221
-7.07786
-7.58123
-8.14831
-8.80329
-9.55896
-10.4181
-11.3753
-12.4197
-13.5372
-14.7124
-15.9302
-17.1749
-18.4285
-19.6657
-20.848
-21.9171
-22.7901
-23.3577
-23.4888
-23.0414
-21.8805
-19.9003
-17.0481
-13.3448
-8.89873
-3.90749
1.35219
6.54814
11.3264
15.3509
18.3422
20.1106
20.5764
19.7758
17.85
15.0215
11.5605
7.74895
3.84721
0.0689485
-3.43213
-6.56339
-9.28355
-11.5857
-13.4775
-14.9638
-16.0344
-16.6607
-16.8008
-16.4119
-15.4671
-13.9732
-11.9848
-9.61233
-7.02084
-4.41997
-2.0453
-0.133693
1.10395
1.50894
0.996294
-0.431529
-2.68043
-5.57074
-8.8529
-12.2309
-15.3909
-18.0324
-19.8982
-20.8005
-20.641
-19.4218
-17.247
-14.3134
-10.8912
-7.29637
-3.85753
-0.879867
1.38842
2.78372
3.2447
2.81735
1.64634
-0.0464638
-1.99369
-3.91995
-5.57955
-6.78884
-7.44817
-7.55019
-7.17349
-6.46304
-5.60103
-4.77311
-4.13566
-3.7892
-3.76176
-4.0046
-4.40007
-4.78019
-4.95239
-4.72848
-3.95231
-2.52223
-0.405508
2.3571
5.65648
9.32883
13.1755
16.986
20.5608
23.7316
26.3757
28.4236
29.8593
30.7129
31.0473
30.9411
30.4706
29.6937
28.6382
27.2977
25.636
23.5992
21.1365
18.2237
14.8884
11.2312
7.43712
3.77597
0.58639
-1.75442
-2.87408
-2.45632
-0.293439
3.66798
9.29594
16.2628
24.0598
32.0368
39.4629
45.6025
49.7951
51.531
50.5101
46.6783
40.236
31.6189
21.4546
10.5025
-0.413603
-10.4713
-18.9036
-25.0349
-28.2958
-28.2161
-24.401
-16.4966
-4.15615
12.9783
35.2662
63.0158
96.3795
135.203
178.84
225.977
274.494
321.435
363.105
395.333
413.881
414.965
395.819
355.209
293.811
214.383
121.669
22.0331
-77.1376
-168.2
-244.088
-299.1
-329.536
-334.101
-314.016
-272.836
-215.992
-150.132
-82.3427
-19.3558
33.1616
71.1535
92.4986
97.0874
86.6593
64.437
34.618
1.79574
-29.6144
-55.8739
-74.2925
-83.4382
-83.1752
-74.5428
-59.5031
-40.6035
-20.6016
-2.10253
12.7482
22.484
26.4313
24.714
18.1589
8.12377
-3.72383
-15.6438
-26.0474
-33.6797
-37.744
-37.9572
-34.5354
-28.1205
-19.6599
-10.2602
-1.03629
7.02655
13.1802
16.9806
18.3101
17.3565
14.5562
10.5123
5.90095
1.37852
-2.49786
-5.3282
-6.90065
-7.19442
-6.35727
-4.66311
-2.45736
-0.0982458
2.09775
3.8996
5.18971
5.97364
6.37146
6.59322
6.9025
7.57379
8.84943
10.9022
13.8078
17.5312
21.9275
26.7569
31.7117
36.4512
40.6402
43.9854
46.2669
47.3593
47.2418
45.9967
43.7956
40.8778
37.5218
34.0159
30.6288
27.5859
25.0514
23.1192
21.812
21.0874
20.8505
20.9704
21.2978
21.683
21.9899
22.1081
21.9586
21.4963
20.7079
19.6072
18.2276
16.6156
14.8228
12.9008
10.8961
8.84777
6.78653
4.73481
2.70841
0.718416
-1.22657
-3.11853
-4.94879
-6.7075
-8.38403
-9.96795
-11.4501
-12.823
-14.0807
-15.2164
-16.2201
-17.0747
-17.753
-18.2164
-18.4144
-18.2885
-17.7772
-16.8229
-15.3801
-13.4228
-10.9499
-7.98965
-4.60043
-0.870254
3.08592
7.1302
11.1071
14.8502
18.1901
20.9637
23.0253
24.2579
24.5842
23.9766
22.4635
20.1321
17.1253
13.6333
9.88018
6.10595
2.54673
-0.585478
-3.12088
-4.94586
-6.01119
-6.33356
-5.99033
-5.10816
-3.84686
-2.3806
-0.878602
0.5123
1.68096
2.55965
3.12538
3.39488
3.41448
3.24662
2.95548
2.59405
2.19478
1.76519
1.28903
0.732337
0.0532469
-0.786455
-1.81015
-3.01758
-4.37995
-5.8398
-7.31566
-8.71081
-9.92478
-10.8658
-11.4627
-11.6739
-11.4936
-10.9527
-10.1167
-9.07871
-7.95014
-6.84996
-5.89317
-5.18043
-4.78947
-4.76933
-5.13759
-5.88083
-6.95788
-8.30523
-9.84387
-11.4865
-13.1445
-14.7332
-16.1763
-17.4077
-18.3716
-19.0216
-19.3186
-19.2291
-18.7237
-17.7772
-16.37
-14.4917
-12.1454
-9.35318
-6.16084
-2.64203
1.10059
4.93732
8.71713
12.2771
15.4548
18.1021
20.0985
21.3631
21.862
21.6111
20.674
19.1544
17.1848
14.9133
12.4898
10.0541
7.728
5.61162
3.78501
2.31377
1.25722
0.676811
0.642192
1.23256
2.53185
4.61734
7.54246
11.3161
15.8815
21.0992
26.7369
32.4707
37.8994
42.5713
46.0235
47.8282
47.6416
45.2495
40.6025
33.8372
25.2794
15.4289
4.92908
-5.47665
-14.9931
-22.8213
-28.1998
-30.4338
-28.9102
-23.0988
-12.5436
3.14752
24.3032
51.1662
83.8347
122.162
165.619
213.134
262.951
312.542
358.619
397.295
424.381
435.83
428.261
399.499
349.036
278.344
190.942
92.2218
-11.0017
-111.142
-200.63
-272.735
-322.306
-346.332
-344.263
-318.024
-271.753
-211.28
-143.431
-75.2477
-13.2158
37.3955
73.016
92.0267
94.77
83.3317
61.1382
32.4329
1.70346
-26.8663
-49.8565
-64.9355
-71.0217
-68.2786
-57.9604
-42.1397
-23.3645
-4.29078
12.6587
25.5732
33.2396
35.2232
31.8436
24.0589
13.2829
1.16453
-10.64
-20.6716
-27.8279
-31.4624
-31.4161
-27.9878
-21.8501
-13.9299
-5.27135
3.10045
10.2979
15.6593
18.7998
19.6239
18.3021
15.2203
10.9108
5.97682
1.02013
-3.42032
-6.91272
-9.15798
-9.99692
-9.40204
-7.45784
-4.33477
-0.260802
4.50539
9.69754
15.0599
20.3603
25.3981
30.0096
34.0697
37.4929
40.2329
42.2812
43.6654
44.4457
44.7106
44.5713
44.1536
43.5901
43.0103
42.532
42.2526
42.2421
42.5391
43.1483
44.042
45.1639
46.435
47.7618
49.0447
50.1865
51.1005
51.7165
51.9851
51.8797
51.3963
50.5505
49.3731
47.9037
46.1837
44.2489
42.1239
39.8181
37.3255
34.6287
31.7054
28.5382
25.1251
21.4882
17.6807
13.7873
9.92129
6.21506
2.80721
-0.172733
-2.61976
-4.4666
-5.6928
-6.32846
-6.452
-6.18233
-5.66657
-5.06489
-4.53443
-4.21415
-4.21242
-4.59836
-5.39798
-6.595
-8.13618
-9.94017
-11.9085
-13.9369
-15.9258
-17.7875
-19.4503
-20.8586
-21.9699
-22.7501
-23.1689
-23.1954
-22.7972
-21.9425
-20.604
-18.7658
-16.4313
-13.6296
-10.421
-6.89779
-3.18285
0.57719
4.22162
7.58807
10.5261
12.9104
14.652
15.7064
16.0774
15.8157
15.0136
13.7948
12.3021
10.6824
9.07281
7.58764
6.30899
5.28105
4.50908
3.9627
3.58291
3.29156
3.00206
2.62987
2.10177
1.3632
0.383283
-0.842556
-2.29219
-3.91848
-5.65275
-7.40989
-9.09474
-10.6093
-11.8603
-12.7673
-13.269
-13.3294
-12.9417
-12.1302
-10.9498
-9.48278
-7.83343
-6.12066
-4.46874
-2.99738
-1.81177
-0.993581
-0.593829
-0.628463
-1.07715
-1.88559
-2.9711
-4.23109
-5.5533
-6.82688
-7.9527
-8.85208
-9.47249
-9.79007
-9.80856
-9.55516
-9.07411
-8.41898
-7.6449
-6.80179
-5.92937
-5.05432
-4.18974
-3.33644
-2.48553
-1.62174
-0.726757
0.217742
1.22762
2.31441
3.48385
4.73473
6.05777
7.43458
8.83665
10.2249
11.5501
12.7544
13.7746
14.5468
15.0125
15.1249
14.8549
14.1963
13.1677
11.814
10.2044
8.42926
6.59639
4.82677
3.24994
1.99892
1.20393
0.984218
1.43771
2.62876
4.57515
7.23612
10.5039
14.2013
18.0865
21.867
25.222
27.8304
29.4036
29.7178
28.6417
26.1577
22.3716
17.5117
11.9158
6.01028
0.285375
-4.73015
-8.48801
-10.4308
-9.99216
-6.58829
0.394309
11.6065
27.7287
49.4346
77.3148
111.753
152.761
199.781
251.495
305.687
359.197
408.023
447.581
473.137
480.348
465.874
427.94
366.779
284.86
186.844
79.2541
-30.1201
-133.007
-221.538
-289.114
-331.129
-345.476
-332.743
-296.098
-240.873
-173.907
-102.737
-34.7484
23.6233
67.5263
94.1095
102.678
94.5853
72.901
41.8973
6.44442
-28.6134
-59.0218
-81.5561
-94.2966
-96.7194
-89.6096
-74.8245
-54.9508
-32.9075
-11.5508
6.67242
19.9825
27.4146
28.8484
24.9293
16.9016
6.38537
-4.87033
-15.2229
-23.3325
-28.2991
-29.7281
-27.7257
-22.8308
-15.9
-7.96417
-0.0795684
6.80939
11.9778
14.9888
15.7187
14.3397
11.2675
7.08374
2.44717
-1.99584
-5.68816
-8.219
-9.35585
-9.05053
-7.42156
-4.71821
-1.27293
2.55024
6.40449
10.0004
13.1336
15.6986
17.6883
19.1822
20.3259
21.3054
22.3211
23.5631
25.1915
27.3225
30.0206
33.2969
37.1117
41.381
45.9841
50.7735
55.5835
60.2395
64.5672
68.4011
71.5935
74.0224
75.5999
76.2775
76.0512
74.962
73.0943
70.5703
67.5406
64.1731
60.6399
57.103
53.7015
50.5405
47.6821
45.1413
42.8853
40.8386
38.8916
36.9152
34.7765
32.3573
29.5708
26.3757
22.7855
18.8704
14.7533
10.5975
6.58966
2.91873
-0.246397
-2.77727
-4.60212
-5.71555
-6.18045
-6.1219
-5.71357
-5.1584
-4.66584
-4.42852
-4.60103
-5.28358
-6.51238
-8.25773
-10.4299
-12.8911
-15.4725
-17.9922
-20.2732
-22.1581
-23.5203
-24.2705
-24.3593
-23.7763
-22.5478
-20.7329
-18.4189
-15.7176
-12.7604
-9.69358
-6.67276
-3.85573
-1.39434
0.574987
1.94143
2.62983
2.60941
1.90004
0.574662
-1.24296
-3.38551
-5.65441
-7.83593
-9.7199
-11.1188
-11.8855
-11.9268
-11.2123
-9.77652
-7.71497
-5.17383
-2.33533
0.600087
3.43251
5.98052
8.09652
9.67806
10.6742
11.0864
10.9639
10.3941
9.48932
8.37154
7.15659
5.94059
4.78977
3.73528
2.77334
1.87062
0.973812
0.0218291
-1.04118
-2.25395
-3.62904
-5.14775
-6.75974
-8.38723
-9.93307
-11.2916
-12.3605
-13.0522
-13.304
-13.0841
-12.3958
-11.2776
-9.80062
-8.06326
-6.18411
-4.29309
-2.52155
-0.991911
0.192491
0.956379
1.25942
1.10022
0.516788
-0.416649
-1.59622
-2.89772
-4.18764
-5.33467
-6.22063
-6.7495
-6.85393
-6.4986
-5.68034
-4.42536
-2.78434
-0.826135
1.36885
3.71493
6.12642
8.52192
10.8274
12.9786
14.9225
16.6191
18.042
19.1792
20.0327
20.617
20.9567
21.0826
21.0274
20.8221
20.4939
20.0668
19.5645
19.0155
18.4574
17.939
17.5182
17.2535
17.1912
17.3488
17.6997
18.1607
18.5892
18.7899
18.5346
17.5915
15.763
12.9243
9.05794
4.27699
-1.16719
-6.89637
-12.4351
-17.2557
-20.8318
-22.6933
-22.4721
-19.9312
-14.9689
-7.59508
2.11945
14.1149
28.4222
45.2319
64.9313
88.0862
115.351
147.301
184.197
225.721
270.716
317.019
361.418
399.805
427.523
439.897
432.873
403.686
351.442
277.492
185.554
81.4974
-27.1642
-132.039
-224.77
-297.984
-346.129
-366.116
-357.644
-323.199
-267.718
-197.969
-121.739
-46.93
19.3052
71.304
105.41
120.226
116.579
97.24
66.4288
29.1958
-9.24012
-44.1131
-71.6199
-89.2648
-96.0146
-92.2621
-79.6207
-60.5939
-38.1698
-15.401
4.97917
20.8588
30.9405
34.8119
32.8981
26.3145
16.6482
5.70337
-4.75413
-13.221
-18.6245
-20.4187
-18.605
-13.68
-6.52677
1.73275
9.90228
16.8694
21.7398
23.9315
23.2243
19.7587
13.9932
6.62623
-1.50259
-9.51941
-16.6168
-22.1374
-25.6319
-26.8883
-25.9303
-22.9902
-18.4607
-12.8344
-6.63943
-0.378793
5.51961
10.7378
15.0849
18.4975
21.0241
22.7988
24.0079
24.8544
25.5257
26.167
26.8643
27.6372
28.4415
29.1808
29.7243
29.9285
29.6601
28.8171
27.3473
25.2606
22.6358
19.6198
16.4207
13.2932
10.5186
8.38051
7.13658
6.99059
8.06613
10.3858
13.8587
18.2781
23.3321
28.6252
33.7114
38.1344
41.4713
43.3752
43.6121
42.0868
38.8551
34.1206
28.2158
21.5693
14.663
7.98339
1.97343
-3.01082
-6.73262
-9.09325
-10.1347
-10.0266
-9.0394
-7.50723
-5.78581
-4.21019
-3.05776
-2.52048
-2.68924
-3.55139
-5.00089
-6.85892
-8.90147
-10.8903
-12.6028
-13.8575
-14.5326
-14.5751
-14.0012
-12.8885
-11.3611
-9.57064
-7.67616
-5.8249
-4.13666
-2.69321
-1.53365
-0.655616
-0.0216644
0.430492
0.775575
1.08796
1.43028
1.84472
2.34817
2.93135
3.56199
4.1912
4.76196
5.21844
5.51475
5.62183
5.5316
5.25788
4.83409
4.30821
3.73591
3.17288
2.66745
2.25451
1.95119
1.75497
1.64405
1.57994
1.51197
1.38293
1.13548
0.718314
0.0917688
-0.767882
-1.8656
-3.1865
-4.69636
-6.34381
-8.06373
-9.78174
-11.4192
-12.8988
-14.1493
-15.1111
-15.7393
-16.0078
-15.9103
-15.461
-14.694
-13.6605
-12.4251
-11.0614
-9.64596
-8.25264
-6.94632
-5.77748
-4.77794
-3.95844
-3.30857
-2.7994
-2.38873
-2.02837
-1.6726
-1.28653
-0.853007
-0.376568
0.116434
0.582165
0.967743
1.22265
1.31125
1.22422
0.98635
0.659091
0.336689
0.135985
0.181165
0.58561
1.43369
2.76538
4.56626
6.76452
9.23568
11.8143
14.3114
16.5346
18.3097
19.4991
20.0171
19.838
18.9989
17.5946
15.7672
13.6912
11.5559
9.54728
7.83143
6.541
5.76603
5.54982
5.89007
6.74477
8.04209
9.69246
11.6012
13.679
15.8493
18.0493
20.227
22.3323
24.3073
26.0759
27.5381
28.569
29.0253
28.7589
27.635
25.5529
22.4661
18.3985
13.4535
7.8156
1.74378
-4.44241
-10.3807
-15.6847
-19.9602
-22.8147
-23.8574
-22.6909
-18.8925
-11.9931
-1.45967
13.3063
32.941
58.0483
89.0799
126.168
168.929
216.26
266.195
315.841
361.458
398.698
423.006
430.138
416.741
380.913
322.644
244.069
149.463
44.9679
-61.945
-163.203
-250.979
-318.539
-360.987
-375.798
-363.093
-325.588
-268.257
-197.738
-121.568
-47.3353
18.1259
69.425
103.096
117.832
114.453
95.6398
65.4656
28.8128
-9.25747
-44.0983
-71.967
-90.3613
-98.1769
-95.684
-84.3422
-66.4945
-44.987
-22.7697
-2.528
13.6138
24.2875
28.9622
27.9142
22.0996
12.9582
2.17835
-8.54347
-17.7168
-24.2225
-27.4138
-27.1458
-23.7398
-17.8919
-10.544
-2.73824
4.52662
10.4175
14.3558
16.0647
15.5739
13.1848
9.40697
4.87407
0.25508
-3.82987
-6.87807
-8.55093
-8.69563
-7.34195
-4.67771
-1.00827
3.29308
7.83663
12.2633
16.2823
19.6952
22.4068
24.4211
25.827
26.7743
27.4464
28.0321
28.6999
29.5791
30.7477
32.2289
33.9946
35.976
38.0772
40.1908
42.2138
44.0589
45.6642
46.9959
48.0488
48.8408
49.4067
49.7894
50.032
50.1709
50.231
50.2235
50.1459
49.9835
49.7132
49.3065
48.7322
47.9585
46.9531
45.6828
44.1131
42.2082
39.9336
37.2598
34.1688
30.6605
26.7587
22.5148
18.0074
13.3388
8.62638
3.99177
-0.451223
-4.60845
-8.41461
-11.8386
-14.8845
-17.5871
-20.0048
-22.2083
-24.2687
-26.2465
-28.182
-30.089
-31.9524
-33.7292
-35.3535
-36.7438
-37.8112
-38.4693
-38.6424
-38.2732
-37.3279
-35.7986
-33.7041
-31.0873
-28.0114
-24.5544
-20.8034
-16.8491
-12.7809
-8.6831
-4.63229
-0.696213
3.06656
6.60584
9.87837
12.8459
15.4732
17.7266
19.5733
20.9814
21.922
22.3722
22.3193
21.7655
20.7324
19.2648
17.4324
15.3292
13.0701
10.7848
8.60873
6.67328
5.09472
3.96421
3.33963
3.24028
3.64521
4.49529
5.69892
7.14052
8.69105
10.2191
11.6015
12.7321
13.5284
13.9348
13.9227
13.4886
12.6495
11.4376
9.89465
8.06677
6.0007
3.74143
1.33153
-1.18822
-3.77723
-6.39309
-8.98965
-11.5159
-13.9159
-16.1298
-18.0968
-19.7586
-21.0638
-21.9724
-22.4605
-22.5227
-22.1742
-21.4505
-20.4052
-19.1059
-17.6292
-16.0542
-14.4565
-12.9025
-11.4454
-10.123
-8.95725
-7.9564
-7.11821
-6.43423
-5.89398
-5.48825
-5.21067
-5.05727
-5.0238
-5.10121
-5.27007
-5.49478
-5.71886
-5.8623
-5.82208
-5.47671
-4.69495
-3.34874
-1.32959
1.43318
4.95433
9.17742
13.9652
19.0984
24.2837
29.1737
33.395
36.5844
38.4286
38.7025
37.3017
34.2651
29.7837
24.1928
17.9493
11.5933
5.70014
0.825023
-2.55218
-4.07715
-3.56087
-1.00461
3.39266
9.2458
16.0136
23.0451
29.639
35.1098
38.8552
40.4188
39.5391
36.182
30.5505
23.0709
14.357
5.15443
-3.72616
-11.4802
-17.3737
-20.793
-21.2705
-18.483
-12.2217
-2.33824
11.3209
28.9777
50.9599
77.6928
109.625
147.082
190.052
237.94
289.331
341.83
392.032
435.672
467.977
484.179
480.147
453.034
401.848
327.823
234.54
127.736
14.8222
-95.8442
-195.843
-277.607
-335.26
-365.258
-366.748
-341.616
-294.209
-230.779
-158.728
-85.7558
-19.0129
35.6306
74.1272
94.5453
97.0995
83.9302
58.68
25.9329
-9.40654
-42.7117
-70.1438
-89.0171
-97.9915
-97.0831
-87.5121
-71.4197
-51.504
-30.6257
-11.4364
3.92827
14.0582
18.3669
17.0761
11.1011
1.86179
-8.95004
-19.6133
-28.5988
-34.7438
-37.3631
-36.2881
-31.8385
-24.7346
-15.9687
-6.65509
2.12011
9.43132
14.6124
17.3137
17.5147
15.4945
11.7686
7.00368
1.92265
-2.78712
-6.55108
-8.96263
-9.81155
-9.08523
-6.9455
-3.68664
0.317878
4.67212
9.01024
13.0385
16.5629
19.4998
21.8707
23.7837
25.4044
26.9228
28.5206
30.3425
32.4765
34.9447
37.7035
40.655
43.6649
46.584
49.2711
51.6129
53.5385
55.0267
56.1057
56.846
57.3475
57.7232
58.0817
58.5126
59.0733
59.783
60.6204
61.5282
62.4205
63.1942
63.7408
63.9577
63.7574
63.073
61.8597
60.0935
57.7672
54.8866
51.4671
47.5337
43.1227
38.2865
33.098
27.6556
22.0845
16.5344
11.1737
6.17816
1.71793
-2.05796
-5.03593
-7.14996
-8.38947
-8.80197
-8.48999
-7.60255
-6.32198
-4.84766
-3.37827
-2.09458
-1.14446
-0.631612
-0.60903
-1.0778
-1.991
-3.26225
-4.77764
-6.4096
-8.03102
-9.52764
-10.8075
-11.8062
-12.4876
-12.841
-12.8742
-12.6059
-12.0574
-11.2463
-10.1828
-8.86989
-7.30673
-5.49564
-3.44998
-1.20219
1.19046
3.64349
6.04745
8.27475
10.1905
11.6662
12.5938
12.8995
12.5539
11.5776
10.0421
8.06411
5.79577
3.4104
1.0864
-1.00918
-2.73568
-3.99065
-4.71767
-4.90933
-4.60546
-3.88689
-2.86585
-1.6739
-0.449039
0.676914
1.58945
2.20006
2.45203
2.32298
1.82432
0.997945
-0.0894046
-1.35335
-2.70001
-4.03437
-5.26822
-6.32707
-7.15558
-7.72119
-8.01564
-8.05427
-7.8733
-7.52521
-7.07276
-6.58207
-6.11557
-5.7254
-5.44802
-5.30056
-5.27932
-5.36072
-5.50451
-5.65893
-5.76734
-5.77536
-5.63781
-5.32453
-4.82444
-4.14735
-3.32323
-2.3992
-1.43448
-0.49391
0.359112
1.06956
1.59679
1.91888
2.03513
1.96615
1.75197
1.44817
1.12054
0.838907
0.670558
0.674102
0.894235
1.35794
2.07246
3.025
4.18424
5.50311
6.92267
8.37658
9.79579
11.1132
12.268
13.2091
13.898
14.311
14.4401
14.2933
13.8942
13.281
12.5045
11.6265
10.7163
9.84766
9.09455
8.52652
8.20351
8.1702
8.45045
9.04208
9.91286
10.9985
12.203
13.4027
14.4535
15.2016
15.4968
15.2085
14.2412
12.5493
10.1494
7.12887
3.65006
-0.0495022
-3.66045
-6.80707
-9.05336
-9.90825
-8.82891
-5.22253
1.55121
12.1721
27.3379
47.7197
73.8831
106.17
144.543
188.401
236.409
286.367
335.179
378.959
413.3
433.693
436.076
417.422
376.285
313.218
230.961
134.363
30.0184
-74.3537
-170.705
-251.535
-310.724
-344.222
-350.49
-330.637
-288.257
-228.958
-159.69
-87.9245
-20.8195
35.536
76.7145
100.31
106.04
95.5932
72.2602
40.4092
4.87962
-29.6238
-59.0654
-80.4821
-92.2196
-93.9885
-86.7499
-72.4612
-53.7276
-33.4093
-14.24
1.5005
12.2222
17.1508
16.3391
10.5738
1.20049
-10.1031
-21.5722
-31.5861
-38.8578
-42.5627
-42.3975
-38.5678
-31.7143
-22.7923
-12.9237
-3.24415
5.2371
11.7478
15.8229
17.3306
16.4551
13.6423
9.52019
4.80396
0.200773
-3.67569
-6.37102
-7.63015
-7.40904
-5.85879
-3.28614
-0.0968856
3.26959
6.40558
8.99165
10.8373
11.9006
12.2856
12.2177
12.0021
11.9718
12.4333
13.6171
15.6415
18.4932
22.0277
25.9886
30.0417
33.819
36.9664
39.1875
40.2786
40.1506
38.8353
36.477
33.3104
29.6298
25.7526
21.9833
18.5814
15.7373
13.5586
12.0665
11.2029
10.8461
10.832
10.9784
11.1082
11.0707
10.7564
10.1064
9.11397
7.82063
6.30573
4.6724
3.0305
1.47891
0.0887538
-1.1102
-2.13818
-3.06741
-4.01668
-5.13853
-6.60019
-8.56062
-11.1465
-14.4308
-18.4166
-23.0292
-28.1172
-33.4635
-38.803
-43.8477
-48.3126
-51.9425
-54.5345
-55.9545
-56.1473
-55.1373
-53.0235
-49.9662
-46.171
-41.8689
-37.2963
-32.6766
-28.2043
-24.0339
-20.2727
-16.9796
-14.1678
-11.8118
-9.85691
-8.2303
-6.85197
-5.64463
-4.54144
-3.49107
-2.45972
-1.43039
-0.399741
0.626549
1.63922
2.63051
3.59823
4.54794
5.49298
6.45213
7.445
8.4859
9.57679
10.7005
11.8152
12.8521
13.7156
14.2894
14.4464
14.0633
13.0387
11.3109
8.87462
5.79198
2.1961
-1.7143
-5.68947
-9.45123
-12.7206
-15.2477
-16.8388
-17.3789
-16.8445
-15.3073
-12.9262
-9.92997
-6.59266
-3.20373
-0.0378384
2.67308
4.76189
6.1402
6.8028
6.82225
6.33455
5.51771
4.56595
3.66262
2.9552
2.53534
2.42637
2.57971
2.88063
3.16247
3.22758
2.87241
1.91355
0.21201
-2.30703
-5.64079
-9.70282
-14.3249
-19.2664
-24.2307
-28.8876
-32.9
-35.9528
-37.7825
-38.2039
-37.1302
-34.5871
-30.7144
-25.7581
-20.05
-13.9784
-7.95066
-2.35312
2.48761
6.33746
9.07687
10.7092
11.3538
11.2248
10.5972
9.76579
9.0011
8.50994
8.40494
8.68859
9.25409
9.90351
10.3811
10.417
9.77634
8.30458
5.96432
2.85555
-0.784075
-4.60071
-8.16574
-11.032
-12.7969
-13.1637
-11.9897
-9.31593
-5.37062
-0.547058
4.64222
9.62842
13.8577
16.8607
18.3105
18.0616
16.165
12.859
8.53618
3.6948
-1.11879
-5.36721
-8.569
-10.3278
-10.3387
-8.37089
-4.22851
2.30106
11.5015
23.7693
39.6262
59.69
84.5901
114.827
150.586
191.519
236.549
283.717
330.146
372.137
405.434
425.641
428.752
411.728
373.031
313.03
234.206
141.087
39.9214
-61.8961
-156.576
-236.773
-296.39
-331.262
-339.611
-322.215
-282.284
-225.054
-157.152
-85.8258
-18.1375
39.7878
83.3604
109.913
118.839
111.484
90.818
60.9439
26.5171
-7.8502
-38.125
-61.2683
-75.4908
-80.3318
-76.5671
-65.975
-51.0013
-34.3746
-18.7255
-6.25461
1.5122
3.85934
0.901557
-6.50409
-16.9332
-28.6264
-39.7445
-48.6132
-53.927
-54.8918
-51.292
-43.4828
-32.3123
-18.9902
-4.92288
8.4637
19.8895
28.3574
33.246
34.3535
31.888
26.4136
18.7592
9.90641
0.869467
-7.4166
-14.1882
-18.9169
-21.3397
-21.4565
-19.4985
-15.8741
-11.1022
-5.74017
-0.318059
4.71663
9.03725
12.4576
14.9327
16.544
17.4706
17.9541
18.2598
18.6404
19.3054
20.3998
21.9924
24.0749
26.5704
29.3484
32.2451
35.0851
37.7021
39.956
41.7458
43.0155
43.7554
43.9972
43.806
43.2698
42.4896
41.57
40.6134
39.7158
38.9653
38.4411
38.2111
38.3284
38.8242
39.6981
40.9073
42.3579
43.8995
45.3281
46.3972
46.8379
46.387
44.8181
41.9724
37.7839
32.2952
25.6616
18.1411
10.0741
1.85282
-6.11425
-13.4387
-19.7853
-24.8986
-28.6195
-30.8923
-31.7606
-31.3546
-29.8718
-27.5535
-24.6605
-21.4501
-18.1578
-14.9827
-12.0803
-9.56003
-7.48694
-5.8877
-4.75787
-4.06998
-3.78122
-3.83985
-4.19007
-4.77504
-5.53824
-6.42343
-7.37364
-8.32997
-9.23059
-10.0106
-10.6033
-10.9426
-10.967
-10.6245
-9.87806
-8.71015
-7.12711
-5.16106
-2.86968
-0.333507
2.34938
5.07068
7.7205
10.1962
12.4102
14.2957
15.8093
16.9304
17.658
18.0048
17.9914
17.6403
16.9721
16.004
14.7512
13.2304
11.4649
9.4902
7.358
5.13895
2.92195
0.810255
-1.08588
-2.65926
-3.8177
-4.4964
-4.66895
-4.35525
-3.62445
-2.59157
-1.40727
-0.241083
0.739937
1.39443
1.62808
1.40939
0.776704
-0.165447
-1.26063
-2.32375
-3.16977
-3.64339
-3.645
-3.14869
-2.20947
-0.958482
0.413058
1.67881
2.60755
2.99436
2.68848
1.61424
-0.217663
-2.70957
-5.68684
-8.91671
-12.1336
-15.0677
-17.4726
-19.1506
-19.971
-19.8804
-18.9057
-17.1467
-14.7633
-11.9555
-8.94219
-5.9378
-3.13194
-0.672737
1.34399
2.87916
3.94824
4.61314
4.96961
5.13191
5.21674
5.32872
5.54911
5.92902
6.48757
7.21455
8.07643
9.02391
9.99965
10.9445
11.8016
12.519
13.0496
13.3524
13.3927
13.1446
12.595
11.7485
10.6327
9.30205
7.83901
6.35066
4.96075
3.79699
2.97496
2.58092
2.65618
3.18595
4.09486
5.25071
6.4765
7.56973
8.32648
8.56723
8.16105
7.04465
5.23413
2.82789
0.00107511
-3.00648
-5.90554
-8.37159
-10.0533
-10.5721
-9.50997
-6.38871
-0.642895
8.40237
21.5367
39.6363
63.5872
94.149
131.76
176.3
226.849
281.484
337.187
389.901
434.785
466.656
480.586
472.579
440.233
383.256
303.773
206.312
97.4845
-14.6351
-121.353
-214.309
-286.411
-332.632
-350.551
-340.582
-305.86
-251.799
-185.409
-114.44
-46.4941
11.8095
55.4947
81.6581
89.625
80.8333
58.4802
26.9911
-8.6101
-43.3449
-72.8615
-93.8877
-104.514
-104.286
-94.1204
-76.0592
-52.9183
-27.8761
-4.05764
15.8351
29.8084
36.7512
36.4888
29.7203
17.8587
2.80025
-13.3421
-28.5073
-40.9244
-49.295
-52.9041
-51.6516
-46.0086
-36.9104
-25.605
-13.4779
-1.87817
8.03541
15.4107
19.7709
21.0323
19.4737
15.6661
10.3752
4.45079
-1.28112
-6.11227
-9.52117
-11.2121
-11.1224
-9.40083
-6.36319
-2.43248
1.92633
6.26873
10.2227
13.5252
16.0407
17.7611
18.7902
19.316
19.5757
19.82
20.2791
21.1361
22.5096
24.4463
26.9231
29.8582
33.1273
36.5834
40.0778
43.477
46.6775
49.6119
52.2506
54.5952
56.6673
58.495
60.0971
61.4714
62.5862
63.3784
63.7578
63.6175
62.8486
61.3568
59.0791
55.9962
52.1415
47.6026
42.5169
37.0611
31.437
25.8539
20.512
15.5862
11.2138
7.48594
4.44401
2.07982
0.340204
-0.865106
-1.65327
-2.15657
-2.51025
-2.84101
-3.25713
-3.84108
-4.64528
-5.69113
-6.97122
-8.45414
-10.0911
-11.823
-13.5877
-15.3253
-16.9822
-18.513
-19.8799
-21.0518
-22.0015
-22.704
-23.1347
-23.2698
-23.0867
-22.5671
-21.6997
-20.4836
-18.9317
-17.0731
-14.9546
-12.6402
-10.2098
-7.75574
-5.37798
-3.1782
-1.25298
0.3132
1.45477
2.13089
2.32983
2.07126
1.40596
0.412913
-0.806301
-2.13535
-3.45254
-4.64102
-5.59855
-6.24618
-6.5347
-6.44821
-6.00462
-5.25285
-4.26723
-3.13964
-1.9703
-0.858091
0.108471
0.859017
1.34698
1.55279
1.48438
1.17499
0.678747
0.0642195
-0.593085
-1.21869
-1.74666
-2.12602
-2.32522
-2.33446
-2.16549
-1.84904
-1.43024
-0.962545
-0.501079
-0.0960086
0.213087
0.401277
0.460325
0.398554
0.238665
0.0138782
-0.23702
-0.475032
-0.665985
-0.784619
-0.817222
-0.762581
-0.631212
-0.4431
-0.224358
-0.00333397
0.193276
0.343783
0.433939
0.458197
0.419751
0.329502
0.204227
0.0643501
-0.0682576
-0.172114
-0.227344
-0.216205
-0.122981
0.0665587
0.365863
0.788122
1.34628
2.0523
2.91544
3.93985
5.1215
6.44532
7.88303
9.39244
10.9188
12.3983
13.7639
14.9522
15.9107
16.6048
17.0217
17.1712
17.0828
16.799
16.3666
15.8278
15.2124
14.535
13.7967
12.9923
12.1205
11.1964
10.2615
9.38903
8.68313
8.26912
8.27713
8.82039
9.97177
11.7423
14.0657
16.7915
19.6891
22.462
24.772
26.2708
26.6342
25.5978
22.9882
18.7478
12.9499
5.80473
-2.34663
-11.0463
-19.7419
-27.8136
-34.6027
-39.4386
-41.6604
-40.6307
-35.7415
-26.4139
-12.0981
7.71559
33.4642
65.444
103.702
147.891
197.102
249.711
303.279
354.545
399.562
433.975
453.44
454.146
433.364
389.945
324.684
240.473
142.199
36.3876
-69.3992
-167.315
-250.057
-311.659
-348.132
-357.892
-341.897
-303.49
-247.972
-181.963
-112.633
-46.9059
9.26942
51.4901
77.2611
86.1115
79.4686
60.3233
32.7417
1.29389
-29.5254
-55.8129
-74.6542
-84.3648
-84.5601
-76.0627
-60.6739
-40.8494
-19.3313
1.21815
18.5324
30.9754
37.6735
38.5386
34.1931
25.8139
14.926
3.17469
-7.8911
-16.9992
-23.2793
-26.3228
-26.1775
-23.285
-18.3752
-12.337
-6.08406
-0.433489
3.98748
6.7989
7.88584
7.37915
5.60628
3.02251
0.134507
-2.57275
-4.69602
-5.95473
-6.20984
-5.46138
-3.82812
-1.51461
1.228
4.14112
6.99287
9.60306
11.8573
13.7099
15.1768
16.3215
17.236
18.0215
18.7699
19.5507
20.402
21.3279
22.3018
23.2731
24.1779
24.9498
25.5312
25.8817
25.9843
25.848
25.5065
25.0144
24.4406
23.8605
23.3478
22.9672
22.7684
22.7824
23.0198
23.4727
24.1166
24.9147
25.8221
26.7878
27.7567
28.6686
29.4567
30.0457
30.3511
30.2804
29.7383
28.633
26.8866
24.4453
21.2901
17.4445
12.9793
8.01304
2.70669
-2.74588
-8.1316
-13.2344
-17.8521
-21.8124
-24.9857
-27.2939
-28.7138
-29.2758
-29.0564
-28.1682
-26.7463
-24.9345
-22.8719
-20.6818
-18.4646
-16.2944
-14.2203
-12.2714
-10.4638
-8.81006
-7.32667
-6.04014
-4.98935
-4.22359
-3.79639
-3.75582
-4.13288
-4.93002
-6.11211
-7.60178
-9.2806
-10.9965
-12.5771
-13.8468
-14.646
-14.8498
-14.3831
-13.2305
-11.4392
-9.11464
-6.4102
-3.51062
-0.613091
2.0927
4.44293
6.31422
7.63315
8.37965
8.58452
8.32156
7.69573
6.82892
5.84528
4.85764
3.95668
3.20387
2.62861
2.22961
1.97995
1.83482
1.74061
1.6439
1.49913
1.27394
0.951568
0.530637
0.0227116
-0.55131
-1.16506
-1.79
-2.39768
-2.96095
-3.4543
-3.85396
-4.13801
-4.28719
-4.2863
-4.12627
-3.80654
-3.33727
-2.7409
-2.05276
-1.32024
-0.600667
0.04223
0.542835
0.838966
0.877499
0.61986
0.0469088
-0.837283
-2.00319
-3.3955
-4.93496
-6.52242
-8.04517
-9.38496
-10.4274
-11.072
-11.2415
-10.8896
-10.0071
-8.62364
-6.80622
-4.65388
-2.28885
0.154938
2.54447
4.76017
6.70659
8.32
9.57197
10.4686
11.0455
11.3599
11.4804
11.4763
11.4081
11.3202
11.237
11.1624
11.0831
10.9745
10.8081
10.5595
10.2154
9.77777
9.26583
8.71462
8.17085
7.687
7.31459
7.09806
7.06992
7.24769
7.63255
8.20904
8.94535
9.79372
10.6909
11.5589
12.3073
12.8368
13.0447
12.8335
12.1202
10.8462
8.98654
6.55665
3.61523
0.262862
-3.36364
-7.09957
-10.7613
-14.1525
-17.0658
-19.2768
-20.5306
-20.5224
-18.8747
-15.1147
-8.66035
1.17895
15.1776
34.1351
58.7755
89.6042
126.728
169.655
217.121
266.956
316.077
360.608
396.163
418.28
422.956
407.222
369.667
310.818
233.31
141.791
42.5573
-57.043
-149.375
-227.342
-285.174
-319.056
-327.531
-311.622
-274.652
-221.809
-159.502
-94.6088
-33.7051
17.6257
55.3254
77.1817
82.9123
74.0211
53.4613
25.1619
-6.51482
-37.3142
-63.5641
-82.5345
-92.6508
-93.5496
-85.9867
-71.625
-52.7383
-31.8775
-11.5415
6.10699
19.4537
27.5559
30.1722
27.7078
21.0916
11.6081
0.708464
-10.1734
-19.7807
-27.1536
-31.7008
-33.2195
-31.8704
-28.1132
-22.617
-16.1583
-9.51859
-3.39546
1.66697
5.32075
7.42931
8.05652
7.43403
5.91333
3.90991
1.84701
0.105566
-1.01456
-1.31888
-0.727205
0.732033
2.93931
5.70986
8.82365
12.0553
15.2003
18.0954
20.6311
22.7554
24.4717
25.8284
26.9069
27.8052
28.6239
29.452
30.3575
31.3812
32.5347
33.8019
35.1443
36.5075
37.8293
39.0477
40.1078
40.9676
41.6018
42.0033
42.1836
42.17
42.0035
41.7336
41.4141
41.0966
40.8248
40.6262
40.5055
40.437
40.3602
40.1801
39.7715
38.9915
37.6961
35.7614
33.1048
29.7043
25.6111
20.953
15.9287
10.7904
5.81907
1.29365
-2.54157
-5.50672
-7.50948
-8.55802
-8.76181
-8.31991
-7.49791
-6.59659
-5.91618
-5.7209
-6.20822
-7.48668
-9.56467
-12.3511
-15.6674
-19.2679
-22.8669
-26.1675
-28.8901
-30.7968
-31.7109
-31.5298
-30.2304
-27.8681
-24.5699
-20.5218
-15.9523
-11.1145
-6.26585
-1.64999
2.51974
6.07327
8.89233
10.9141
12.1302
12.5812
12.3476
11.5385
10.2793
8.69906
6.92033
5.05059
3.17749
1.36755
-0.331777
-1.8873
-3.27386
-4.46783
-5.44213
-6.16366
-6.59429
-6.69524
-6.43452
-5.79594
-4.7881
-3.45137
-1.86125
-0.126936
1.61526
3.21323
4.51374
5.37866
5.70053
5.41538
4.51099
3.0295
1.06401
-1.25039
-3.75003
-6.25871
-8.60463
-10.636
-12.2339
-13.321
-13.8652
-13.8789
-13.4131
-12.5492
-11.3871
-10.0339
-8.59256
-7.1518
-5.77945
-4.51831
-3.38555
-2.37523
-1.46345
-0.615365
0.206631
1.03484
1.88904
2.77109
3.66191
4.52122
5.2901
5.89589
6.25907
6.30125
5.9536
5.16498
3.9093
2.19152
0.0519848
-2.43126
-5.1426
-7.93167
-10.6191
-13.0053
-14.8815
-16.044
-16.3083
-15.5253
-13.5949
-10.4788
-6.20855
-0.889814
5.29984
12.1184
19.2726
26.4359
33.2695
39.4444
44.664
48.6826
51.321
52.4763
52.1259
50.3258
47.2037
42.948
37.7935
32.006
25.8667
19.6575
13.6483
8.08688
3.19122
-0.856038
-3.91163
-5.87488
-6.69064
-6.35204
-4.90259
-2.43708
0.899764
4.91764
9.3885
14.0578
18.658
22.9239
26.6069
29.4873
31.3843
32.1621
31.7343
30.0681
27.1896
23.1947
18.2646
12.6879
6.88692
1.44405
-2.87601
-5.11526
-4.1292
1.38067
12.8001
31.4932
58.6459
95.0632
140.932
195.576
257.248
323.002
388.711
449.255
498.906
531.888
543.052
528.591
486.671
417.894
325.489
215.183
94.746
-26.7502
-139.871
-235.834
-307.479
-350.042
-361.661
-343.528
-299.68
-236.467
-161.763
-84.034
-11.3833
49.3156
93.0879
117.265
121.593
108.057
80.4471
43.7606
3.5012
-35.0133
-67.2613
-89.9748
-101.403
-101.366
-91.1117
-73.0119
-50.1493
-25.8588
-3.28279
15.0032
27.2552
32.6937
31.4994
24.6882
13.891
1.07794
-11.7328
-22.7425
-30.584
-34.4542
-34.1614
-30.0862
-23.0724
-14.2688
-4.94676
3.67836
10.6008
15.1343
16.9685
16.1719
13.1437
8.52931
3.11197
-2.3014
-6.98551
-10.3801
-12.143
-12.1699
-10.5809
-7.68018
-3.89669
0.284519
4.39013
8.01706
10.8752
12.8104
13.8081
13.9772
13.5216
12.702
11.7955
11.0578
10.6937
10.837
11.543
12.7914
14.499
16.5382
18.7597
21.0138
23.1699
25.1303
26.8387
28.2825
29.4896
30.5213
31.4612
32.4031
33.4381
34.6428
36.068
37.7317
39.6142
41.6578
43.7699
45.8295
47.6977
49.2281
50.2799
50.7283
50.4743
49.4516
47.6302
45.0176
41.6573
37.6243
33.0203
27.9669
22.6002
17.065
11.5118
6.0941
0.966991
-3.71432
-7.79728
-11.137
-13.6039
-15.0949
-15.5457
-14.9446
-13.3449
-10.873
-7.73136
-4.193
-0.586771
2.72598
5.38245
7.05419
7.48358
6.51658
4.12699
0.428428
-4.32859
-9.77511
-15.4565
-20.8759
-25.5444
-29.0307
-31.006
-31.2781
-29.8101
-26.7229
-22.2799
-16.8577
-10.9045
-4.89264
0.728976
5.57858
9.37529
11.9604
13.3041
13.498
12.7345
11.2768
9.42232
7.4657
5.66358
4.20688
3.20237
2.66568
2.52601
2.64163
2.82401
2.86756
2.58113
1.81727
0.495682
-1.38246
-3.73094
-6.38636
-9.12638
-11.696
-13.8382
-15.3261
-15.9902
-15.7402
-14.5762
-12.5899
-9.95439
-6.90531
-3.71529
-0.665167
1.98449
4.018
5.28295
5.70043
5.26678
4.04738
2.16411
-0.221572
-2.92726
-5.768
-8.57226
-11.1943
-13.5221
-15.4806
-17.0311
-18.1668
-18.9061
-19.285
-19.3489
-19.1447
-18.7152
-18.095
-17.3079
-16.3678
-15.2811
-14.0498
-12.6768
-11.1696
-9.54422
-7.82638
-6.05173
-4.26352
-2.50912
-0.835603
0.714619
2.10747
3.3196
4.33919
5.16524
5.80558
6.27412
6.58793
6.76459
6.82022
6.76841
6.61993
6.3832
6.06529
5.67309
5.21462
4.7001
4.14291
3.56008
2.97258
2.4052
1.88621
1.44666
1.11934
0.937425
0.932647
1.13303
1.56036
2.22752
3.13611
4.27463
5.61765
7.12613
8.74874
10.4241
12.0831
13.6515
15.0519
16.2052
17.033
17.4597
17.4166
16.847
15.7132
14.0043
11.7439
8.99666
5.87211
2.52571
-0.843884
-4.00012
-6.67512
-8.57536
-9.3844
-8.76041
-6.32772
-1.66273
5.72247
16.3925
30.9871
50.1935
74.6795
104.98
141.331
183.474
230.447
280.408
330.552
377.153
415.782
441.687
450.333
438.01
402.457
343.364
262.692
164.718
55.78
-56.2656
-162.824
-255.481
-326.935
-371.833
-387.38
-373.653
-333.569
-272.514
-197.701
-117.314
-39.5786
28.1375
80.0803
112.639
124.592
117.063
93.204
57.6686
15.9472
-26.3371
-64.0905
-93.2881
-111.338
-117.243
-111.55
-96.1287
-73.8063
-47.9257
-21.8871
1.27016
19.1986
30.4532
34.5703
32.0161
24.0276
12.3747
-0.91812
-13.8512
-24.6962
-32.1825
-35.6066
-34.8586
-30.3728
-23.0146
-13.9264
-4.3543
4.51941
11.7189
16.5766
18.7871
18.4093
15.8247
11.6596
6.68453
1.70751
-2.52771
-5.42486
-6.59269
-5.87248
-3.33555
0.745395
5.94511
11.7466
17.6055
23.011
27.535
30.8678
32.8362
33.4045
32.6611
30.7935
28.0566
24.7384
21.1282
17.4903
14.0453
10.9608
8.3498
6.27643
4.76584
3.81634
3.41106
3.52732
4.14251
5.23598
6.78728
8.77158
11.1537
13.882
16.8835
20.0622
23.299
26.4568
29.3869
31.939
33.971
35.3601
36.0115
35.8662
34.9051
33.1514
30.6699
27.5629
23.9642
20.03
15.9285
11.8268
7.87934
4.21555
0.930894
-1.91907
-4.32032
-6.2975
-7.90677
-9.22533
-10.3389
-11.3288
-12.26
-13.1726
-14.076
-14.9485
-15.7404
-16.3812
-16.7891
-16.8812
-16.5843
-15.8438
-14.6313
-12.9496
-10.8357
-8.36133
-5.63161
-2.78122
0.0320733
2.63658
4.85852
6.53609
7.53489
7.76305
7.18432
5.82706
3.78752
1.22621
-1.64281
-4.56918
-7.2884
-9.54652
-11.1249
-11.8618
-11.6688
-10.5401
-8.55228
-5.85754
-2.66782
0.765718
4.17675
7.30829
9.93517
11.8821
13.0359
13.3503
12.8448
11.5955
9.7221
7.37177
4.70169
1.86388
-1.00655
-3.79827
-6.42536
-8.82444
-10.9488
-12.7612
-14.2275
-15.3126
-15.9792
-16.1903
-15.9143
-15.132
-13.8435
-12.0749
-9.88145
-7.34881
-4.58999
-1.73925
1.05683
3.65012
5.90242
7.69641
8.94496
9.59779
9.64481
9.11587
8.07679
6.6222
4.86594
2.92999
0.933385
-1.01779
-2.83799
-4.46667
-5.86938
-7.03533
-7.97245
-8.70066
-9.24472
-9.62783
-9.86715
-9.97168
-9.94304
-9.77851
-9.47584
-9.03834
-8.47923
-7.82358
-7.107
-6.37082
-5.65413
-4.98428
-4.3676
-3.78282
-3.17869
-2.47741
-1.58356
-0.397991
1.16548
3.16295
5.60574
8.45042
11.5957
14.8868
18.1272
21.0967
23.5729
25.3546
26.2832
26.2603
25.2598
23.3327
20.6054
17.2707
13.5731
9.78943
6.20735
3.10157
0.711436
-0.779344
-1.25916
-0.699543
0.840156
3.2154
6.20651
9.53567
12.8899
15.9477
18.4077
20.0161
20.5898
20.0338
18.3508
15.6414
12.0953
7.97629
3.60093
-0.683966
-4.52232
-7.56468
-9.47637
-9.93612
-8.62486
-5.20592
0.700142
9.54017
21.8438
38.2178
59.3063
85.706
117.829
155.724
198.866
245.969
294.847
342.396
384.711
417.385
435.956
436.459
416.023
373.405
309.378
226.888
130.943
28.2183
-73.5814
-166.526
-243.33
-298.165
-327.322
-329.613
-306.482
-261.794
-201.352
-132.197
-61.7878
2.83337
55.7829
92.9082
112.123
113.483
99.0048
72.2772
37.9109
0.919635
-33.897
-62.4924
-81.9747
-90.8371
-89.0015
-77.689
-59.1466
-36.2785
-12.2321
10.003
27.9402
39.8447
44.8693
43.0683
35.3024
23.0562
8.1988
-7.27724
-21.505
-32.9514
-40.5643
-43.8459
-42.8528
-38.1298
-30.5925
-21.3782
-11.6872
-2.63382
4.87605
10.2283
13.1404
13.6565
12.1048
9.02561
5.08169
0.965264
-2.68831
-5.36959
-6.74044
-6.65288
-5.14185
-2.39606
1.28712
5.55469
10.0513
14.4656
18.5634
22.206
25.3511
28.0392
30.3682
32.4626
34.441
36.3894
38.3423
40.2756
42.1122
43.7373
45.0223
45.8528
46.1554
45.9205
45.2164
44.1926
43.0726
42.1349
41.6859
42.0265
43.4168
46.0426
49.9865
55.209
61.5385
68.674
76.1995
83.6085
90.3384
95.8112
99.4782
100.865
99.6142
95.5201
88.5551
78.8807
66.8444
52.9594
37.8693
22.2991
6.9989
-7.31648
-20.0242
-30.6418
-38.8625
-44.5738
-47.8582
-48.9758
-48.3317
-46.4295
-43.8186
-41.038
-38.5644
-36.7684
-35.8833
-35.9903
-37.02
-38.7707
-40.9402
-43.1686
-45.0854
-46.3575
-46.7299
-46.0561
-44.3136
-41.6015
-38.1215
-34.1422
-29.9515
-25.8003
-21.8445
-18.0904
-14.3498
-10.2123
-5.04002
2.00657
11.9059
25.6691
44.1898
68.0549
97.3341
131.377
168.659
206.721
242.241
271.269
289.606
293.315
279.28
245.741
192.717
122.228
38.276
-53.4416
-146.054
-232.223
-304.936
-358.29
-388.153
-392.631
-372.265
-329.945
-270.551
-200.379
-126.415
-55.5615
6.09106
53.8657
84.9045
98.3429
95.2457
78.3281
51.5092
19.3621
-13.4653
-42.7911
-65.3385
-79.0322
-83.1259
-78.1623
-65.7822
-48.4186
-28.9205
-10.1596
5.33453
15.6666
19.7664
17.4621
9.43648
-2.92017
-17.7353
-32.9227
-46.4595
-56.635
-62.2431
-62.699
-58.0697
-49.0223
-36.7013
-22.5573
-8.14994
5.04622
15.811
23.3032
27.1287
27.35
24.4395
19.1893
12.5914
5.70827
-0.4514
-5.03515
-7.41908
-7.24489
-4.42256
0.89606
8.36509
17.5045
27.7631
38.5772
49.4191
59.8327
69.4548
78.0236
85.3755
91.4353
96.1998
99.7207
102.088
103.412
103.816
103.424
102.354
100.717
98.6184
96.1541
93.4154
90.4895
87.4612
84.413
81.4235
78.5636
75.89
73.4366
71.2043
69.1519
67.1907
65.1848
62.9594
60.3173
57.0629
53.0298
48.109
42.2717
35.5843
28.2112
20.4049
12.4834
4.7987
-2.30105
-8.50991
-13.5982
-17.4377
-20.0153
-21.4319
-21.8891
-21.6629
-21.07
-20.4292
-20.0244
-20.0722
-20.6985
-21.9272
-23.6804
-25.7924
-28.0324
-30.1355
-31.8369
-32.9056
-33.1728
-32.5535
-31.0563
-28.7831
-25.9168
-22.7003
-19.4087
-16.3186
-13.6778
-11.6791
-10.4415
-9.99956
-10.3028
-11.2241
-12.5757
-14.1313
-15.6499
-16.9006
-17.6846
-17.8521
-17.3139
-16.0461
-14.089
-11.5405
-8.54598
-5.28516
-1.95821
1.22883
4.07815
6.4138
8.09413
9.02287
9.15778
8.51607
7.17549
5.27007
2.98022
0.517344
-1.89597
-4.04823
-5.76131
-6.90982
-7.43471
-7.349
-6.73437
-5.72883
-4.5069
-3.25528
-2.14739
-1.32043
-0.858488
-0.783582
-1.05597
-1.58313
-2.23574
-2.86811
-3.33996
-3.53629
-3.38287
-2.85526
-1.98073
-0.833085
0.478288
1.82342
3.06843
4.09166
4.79716
5.12408
5.05122
4.59668
3.81325
2.78067
1.59606
0.363915
-0.8133
-1.84315
-2.64952
-3.17708
-3.39386
-3.29192
-2.88587
-2.20913
-1.30806
-0.234595
0.961538
2.2396
3.57221
4.94615
6.35943
7.8149
9.31177
10.8368
12.3571
13.8162
15.1343
16.2132
16.9453
17.2253
16.9623
16.0916
14.5829
12.4463
9.73312
6.53473
2.97889
-0.775573
-4.54512
-8.12923
-11.3199
-13.9135
-15.7243
-16.6007
-16.4409
-15.208
-12.9419
-9.76507
-5.88127
-1.56536
2.85563
7.02872
10.6059
13.2759
14.7935
15.0024
13.8501
11.3927
7.79028
3.2941
-1.77362
-7.04459
-12.1324
-16.6614
-20.2951
-22.7614
-23.8745
-23.5507
-21.8168
-18.8114
-14.7774
-10.0443
-5.00337
-0.074301
4.33401
7.86453
10.2513
11.3513
11.1643
9.83681
7.6475
4.97644
2.25975
-0.0636616
-1.60679
-2.0831
-1.34251
0.609939
3.61517
7.38031
11.5152
15.5802
19.138
21.8047
23.2925
23.4395
22.2258
19.7734
16.3312
12.2497
7.94595
3.86501
0.438737
-1.95362
-3.02122
-2.59108
-0.628635
2.75327
7.29903
12.6294
18.2746
23.7186
28.4508
32.0179
34.0718
34.405
32.9709
29.886
25.4128
19.9287
13.8857
7.76837
2.05879
-2.78347
-6.32241
-8.12602
-7.7299
-4.59262
1.94444
12.677
28.5213
50.4453
79.3408
115.833
160.048
211.357
268.161
327.744
386.28
439.003
480.578
505.648
509.492
488.715
441.862
369.851
276.135
166.55
48.8374
-68.1064
-175.165
-264.001
-327.986
-362.938
-367.568
-343.582
-295.425
-229.707
-154.399
-77.8882
-8.03994
48.6442
87.6558
106.841
106.46
88.9648
58.5282
20.4132
-19.7408
-56.6157
-85.815
-104.303
-110.639
-105.007
-89.0346
-65.4658
-37.7243
-9.43624
16.0257
35.9247
48.4296
52.7494
49.1311
38.7348
23.4114
5.42143
-12.8674
-29.2661
-42.0019
-49.8847
-52.3898
-49.6569
-42.4122
-31.8311
-19.362
-6.53474
5.22323
14.7429
21.2265
24.3071
24.0521
20.9144
15.6408
9.15152
2.40902
-3.70717
-8.50314
-11.5391
-12.6572
-11.969
-9.80609
-6.64709
-3.03035
0.531461
3.624
5.98133
7.50838
8.27494
8.48456
8.42561
8.41339
8.73322
9.59348
11.0951
13.2211
15.8457
18.7599
21.7082
24.4289
26.6913
28.3248
29.2356
29.4102
28.9073
27.8402
26.3552
24.6091
22.7512
20.9097
19.187
17.6599
16.385
15.406
14.7608
14.4858
14.6165
15.1842
16.2095
17.6931
19.608
21.8929
24.4492
27.143
29.8117
32.2741
34.3443
35.8461
36.628
36.5757
35.6223
33.7531
31.0067
27.4705
23.2717
18.566
13.5246
8.32153
3.12353
-1.91771
-6.6699
-11.0217
-14.8824
-18.1805
-20.8622
-22.891
-24.2474
-24.9298
-24.955
-24.3592
-23.1971
-21.5405
-19.4757
-17.0998
-14.5169
-11.834
-9.15724
-6.58744
-4.21614
-2.12044
-0.357218
1.04301
2.08174
2.79622
3.25982
3.57769
3.87696
4.29162
4.94336
5.92055
7.25849
8.9245
10.8112
12.7404
14.479
15.7652
16.3437
16.0041
14.6175
12.165
8.75406
4.61765
0.0962225
-4.39699
-8.42319
-11.5721
-13.5157
-14.0543
-13.1481
-10.9292
-7.69229
-3.86341
0.0483628
3.51151
6.03657
7.23642
6.87479
4.89653
1.43624
-3.19599
-8.54957
-14.0848
-19.234
-23.4654
-26.3413
-27.5654
-27.0124
-24.7397
-20.9777
-16.1038
-10.6003
-5.00451
0.147045
4.37189
7.28859
8.65233
8.37591
6.53381
3.34895
-0.836571
-5.60374
-10.507
-15.1263
-19.1151
-22.2368
-24.3846
-25.5844
-25.9766
-25.7846
-25.2706
-24.6904
-24.2499
-24.0733
-24.186
-24.5143
-24.9013
-25.1362
-24.9908
-24.2591
-22.7909
-20.5181
-17.4666
-13.7558
-9.58386
-5.20333
-0.889566
3.09224
6.51761
9.22687
11.1399
12.2607
12.6707
12.5145
11.9776
11.2615
10.5584
10.0287
9.7834
9.87442
10.292
10.9702
11.799
12.6406
13.3486
13.7874
13.8482
13.4627
12.6111
11.3247
9.68411
7.8127
5.86639
4.02097
2.45756
1.34728
0.835716
1.0283
1.97729
3.67166
6.0312
8.90601
12.0827
15.2978
18.2574
20.6633
22.2418
22.7721
22.1127
20.22
17.1588
13.1017
8.31853
3.15709
-1.98076
-6.66416
-10.454
-12.9153
-13.618
-12.1253
-7.97242
-0.640768
10.4623
26.0045
46.6948
73.202
106.018
145.267
190.493
240.438
292.897
344.667
391.662
429.204
452.48
457.131
439.88
399.114
335.318
251.273
151.969
44.2208
-63.975
-164.269
-248.864
-311.38
-347.555
-355.706
-336.875
-294.653
-234.716
-164.123
-90.4965
-21.1626
37.6184
81.256
107.199
115.04
106.371
84.4042
53.4532
18.3199
-16.311
-46.4042
-68.9744
-82.3169
-86.0585
-81.0401
-69.0636
-52.5485
-34.1517
-16.4022
-1.39506
9.42199
15.3529
16.4468
13.3942
7.35037
-0.281977
-8.07769
-14.79
-19.503
-21.7199
-21.3824
-18.8254
-14.682
-9.75479
-4.87863
-0.792665
1.95989
3.09329
2.59745
0.714856
-2.11624
-5.34083
-8.37482
-10.6884
-11.874
-11.6904
-10.0809
-7.16413
-3.20188
1.44814
6.38847
11.2372
15.6757
19.4819
22.547
24.8735
26.5573
27.7573
28.6594
29.4393
30.2314
31.1077
32.0691
33.0502
33.9352
34.5818
34.8496
34.6276
33.8561
32.5416
30.7609
28.6552
26.4158
24.262
22.4169
21.0825
20.418
20.5241
21.4339
23.1106
25.4518
28.2996
31.4529
34.6826
37.7477
40.4103
42.4505
43.6798
43.9531
43.1789
41.3268
38.432
34.5964
29.9833
24.808
19.3229
13.7972
8.49529
3.65381
-0.538875
-3.95838
-6.55347
-8.34744
-9.43154
-9.9514
-10.088
-10.0359
-9.98062
-10.0788
-10.4424
-11.1287
-12.1376
-13.4154
-14.8643
-16.3568
-17.7523
-18.9149
-19.7292
-20.1128
-20.025
-19.4695
-18.4926
-17.1765
-15.6282
-13.9675
-12.3134
-10.7713
-9.42284
-8.31925
-7.47792
-6.88353
-6.49258
-6.24077
-6.05193
-5.84742
-5.55456
-5.11323
-4.47987
-3.62888
-2.55172
-1.25468
0.243711
1.91458
3.71941
5.6095
7.52486
9.3933
11.131
12.6451
13.8393
14.6216
14.9135
14.6597
13.8368
12.4586
10.5785
8.28681
5.70405
2.97051
0.23356
-2.36561
-4.70386
-6.68515
-8.24553
-9.35388
-10.0086
-10.2316
-10.0599
-9.53824
-8.71162
-7.62048
-6.29846
-4.7727
-3.06654
-1.20371
0.786752
2.86608
4.98246
7.06976
9.04831
10.828
12.3136
13.4104
14.0321
14.107
13.5843
12.4381
10.6702
8.31036
5.41556
2.06747
-1.63054
-5.55694
-9.57592
-13.5417
-17.3032
-20.7102
-23.6195
-25.9028
-27.4548
-28.2008
-28.1038
-27.1693
-25.4469
-23.0291
-20.046
-16.6572
-13.0414
-9.38449
-5.86803
-2.65838
0.102618
2.30483
3.87491
4.77933
5.02545
4.6606
3.76931
2.46839
0.899937
-0.777769
-2.40111
-3.81315
-4.87585
-5.48145
-5.56177
-5.09432
-4.10439
-2.66258
-0.877842
1.11351
3.16164
5.11851
6.85293
8.26368
9.28917
9.91254
10.1618
10.1051
9.84153
9.48902
9.17102
9.00313
9.08171
9.47559
10.2216
11.3237
12.7559
14.4662
16.3821
18.4151
20.464
22.4168
24.1521
25.5397
26.4439
26.7283
26.2639
24.9404
22.6792
19.448
15.275
10.2606
4.58666
-1.4777
-7.5744
-13.2574
-17.9964
-21.1823
-22.1347
-20.1107
-14.3184
-3.93681
11.8524
33.8139
62.581
98.5454
141.714
191.541
246.759
305.243
363.944
418.951
465.688
499.281
515.056
509.122
478.964
423.947
345.653
247.962
136.859
19.9457
-94.2667
-197.23
-281.265
-340.397
-371
-372.174
-345.807
-296.304
-230.05
-154.643
-78.0374
-7.67073
50.2957
91.5501
113.954
117.596
104.586
78.6312
44.4693
7.22417
-28.2194
-57.7567
-78.4591
-88.793
-88.6498
-79.2028
-62.6249
-41.7144
-19.4855
1.2257
18.0903
29.5186
34.7759
33.9803
27.995
18.2388
6.44834
-5.57423
-16.1952
-24.1371
-28.6017
-29.3202
-26.5311
-20.8971
-13.3767
-5.07254
2.92313
9.66556
14.462
16.9343
17.0355
15.0244
11.4044
6.83853
2.05365
-2.25332
-5.49623
-7.25891
-7.32798
-5.69827
-2.55333
1.77408
6.85425
12.2181
17.4129
22.0491
25.8357
28.5989
30.287
30.9602
30.7695
29.9288
28.6828
27.2768
25.9292
24.8121
24.0392
23.6623
23.6764
24.0305
24.6438
25.4229
26.279
27.1428
27.974
28.766
29.5448
30.362
31.2837
32.377
33.6947
35.2625
37.0675
39.053
41.1173
43.1185
44.8848
46.228
46.9614
46.9173
45.9653
44.0278
41.0922
37.2176
32.5345
27.2389
21.5782
15.832
10.2887
5.21982
0.855712
-2.63538
-5.16183
-6.71521
-7.36806
-7.26295
-6.59444
-5.5859
-4.46424
-3.43555
-2.66458
-2.26023
-2.26857
-2.6738
-3.40643
-4.35732
-5.39537
-6.38644
-7.21108
-7.77904
-8.03889
-7.98206
-7.64111
-7.08299
-6.39842
-5.68906
-5.05435
-4.57956
-4.32677
-4.3296
-4.59231
-5.09282
-5.78899
-6.62645
-7.54648
-8.49203
-9.41101
-10.2564
-10.9836
-11.5469
-11.8957
-11.9741
-11.7229
-11.086
-10.0204
-8.50782
-6.56534
-4.25415
-1.68268
0.996546
3.59717
5.9157
7.75303
8.93802
9.35028
8.9386
7.73227
5.84331
3.45851
0.822118
-1.78927
-4.09663
-5.84968
-6.85566
-7.00217
-6.27152
-4.74477
-2.59512
-0.0713225
2.52679
4.87809
6.67202
7.63927
7.57873
6.37818
4.0275
0.623432
-3.63449
-8.45656
-13.4838
-18.3164
-22.5475
-25.8014
-27.7717
-28.2553
-27.1794
-24.615
-20.7766
-16.0043
-10.7311
-5.43763
-0.600518
3.36064
6.12958
7.5276
7.53134
6.27165
4.01408
1.1237
-1.98112
-4.87974
-7.19891
-8.65464
-9.08183
-8.44836
-6.85271
-4.50634
-1.70348
1.21727
3.91446
6.08368
7.49091
7.99607
7.56469
6.26699
4.2656
1.794
-0.870917
-3.4388
-5.63455
-7.22293
-8.02713
-7.94013
-6.92874
-5.03129
-2.34973
0.962223
4.71353
8.69174
12.6791
16.4677
19.8734
22.747
24.9827
26.5232
27.361
27.5358
27.1282
26.2512
25.0376
23.628
22.1573
20.7436
19.4786
18.4213
17.596
16.9927
16.5718
16.271
16.0137
15.718
15.3057
14.7091
13.8767
12.7763
11.3968
9.74768
7.85809
5.77543
3.56397
1.30435
-0.905846
-2.94982
-4.68727
-5.94768
-6.52095
-6.14508
-4.49113
-1.14604
4.40443
12.7883
24.7484
41.1202
62.7763
90.5247
124.957
166.252
213.959
266.787
322.459
377.675
428.223
469.271
495.817
503.272
488.092
448.38
384.342
298.53
195.802
82.98
-31.7683
-139.749
-232.67
-303.548
-347.48
-362.178
-348.192
-308.797
-249.57
-177.705
-101.171
-27.8118
35.4918
83.5035
113.081
123.357
115.636
93.0601
60.0806
21.8227
-16.5693
-50.5299
-76.5466
-92.4612
-97.5802
-92.5985
-79.3618
-60.5154
-39.0902
-18.0867
-0.105041
12.9358
19.9643
20.8002
16.0822
7.10009
-4.43586
-16.6555
-27.7822
-36.348
-41.3487
-42.3253
-39.3678
-33.0517
-24.3188
-14.325
-4.27609
4.72638
11.8115
16.4246
18.3657
17.7803
15.1092
11.0063
6.23851
1.58178
-2.27426
-4.80156
-5.68201
-4.82546
-2.35844
1.41202
6.05266
11.0677
15.9634
20.3055
23.7634
26.1371
27.366
27.519
26.7721
25.3744
23.61
21.761
20.0745
18.739
17.8708
17.5114
17.6355
18.1659
18.9943
20.0028
21.0838
22.1561
23.1739
24.1295
25.0492
25.9831
26.9925
28.1345
29.448
30.942
32.5886
34.3197
36.0296
37.5814
38.818
39.576
39.7009
39.0641
37.5784
35.2111
31.9928
28.0213
23.4579
18.5176
13.4524
8.53035
4.01186
0.125579
-2.95238
-5.11428
-6.32933
-6.64434
-6.17633
-5.09821
-3.61955
-1.96472
-0.351109
1.03035
2.03014
2.54966
2.54448
2.02173
1.03255
-0.339245
-1.99035
-3.81138
-5.69888
-7.56455
-9.34081
-10.9825
-12.4651
-13.7791
-14.924
-15.9002
-16.7027
-17.3162
-17.7134
-17.8561
-17.6995
-17.1991
-16.3183
-15.0364
-13.3561
-11.3071
-8.94852
-6.36635
-3.66867
-0.977383
1.5818
3.89016
5.84636
7.37518
8.4335
9.01299
9.13907
8.86646
8.27191
7.44504
6.47851
5.45876
4.45842
3.53127
2.71015
2.00782
1.42046
0.932889
0.524647
0.175778
-0.128588
-0.395586
-0.62427
-0.80751
-0.935649
-1.00113
-1.00307
-0.950839
-0.865764
-0.78053
-0.736277
-0.7778
-0.947669
-1.2803
-1.79698
-2.50274
-3.38543
-4.41679
-5.55508
-6.7482
-7.93635
-9.05367
-10.0286
-10.7836
-11.2355
-11.2969
-10.8824
-9.91659
-8.34694
-6.15802
-3.38498
-0.123414
3.46732
7.16935
10.7207
13.8382
16.2459
17.7059
18.0477
17.1911
15.1603
12.0859
8.19609
3.79591
-0.761377
-5.10834
-8.89853
-11.8389
-13.716
-14.4135
-13.9185
-12.3182
-9.78573
-6.55804
-2.90918
0.879127
4.54535
7.87174
10.7014
12.9468
14.5905
15.6766
16.2971
16.5734
16.6362
16.6074
16.5841
16.6286
16.7624
16.9657
17.1809
17.3191
17.2692
16.9082
16.1133
14.7762
12.8181
10.2076
6.97719
3.23791
-0.811953
-4.88796
-8.63275
-11.6429
-13.5078
-13.8581
-12.4163
-9.04414
-3.77866
3.14867
11.3149
20.1319
28.894
36.8442
43.2491
47.4768
49.0659
47.7783
43.6296
36.8921
28.072
17.8636
7.08685
-3.38275
-12.6826
-20.0197
-24.7093
-26.1895
-24.0119
-17.8127
-7.27283
7.91953
28.0871
53.5455
84.5348
121.097
162.903
209.064
257.946
307.072
353.118
392.087
419.63
431.527
424.25
395.544
344.91
273.923
186.296
87.6615
-14.916
-113.647
-200.851
-269.817
-315.554
-335.351
-329.059
-299.063
-249.958
-187.967
-120.192
-53.7891
4.81804
50.5989
80.372
93.0158
89.4221
72.2182
45.3065
13.292
-19.1237
-47.7062
-69.144
-81.3519
-83.5979
-76.4536
-61.5929
-41.4761
-18.9694
3.04574
22.027
36.0472
43.9673
45.4945
41.1316
32.0329
19.7961
6.2214
-6.92908
-18.141
-26.305
-30.8068
-31.5466
-28.8926
-23.5822
-16.5872
-8.96581
-1.71885
4.33072
8.62305
10.9043
11.226
9.90548
7.4558
4.49819
1.66866
-0.467847
-1.48583
-1.1431
0.603115
3.60704
7.56818
12.0817
16.6969
20.977
24.5505
27.151
28.6403
29.0138
28.3906
26.9887
25.0924
23.0144
21.0592
19.4902
18.5057
18.224
18.6799
19.8297
21.5659
23.7365
26.168
28.6882
31.1456
33.4253
35.4573
37.2189
38.7297
40.0418
41.2254
42.3533
43.4848
44.6523
45.8513
47.0353
48.1157
48.9669
49.437
49.362
48.5843
46.9721
44.4386
40.9589
36.5812
31.4309
25.7064
19.6651
13.6033
7.82798
2.62833
-1.75373
-5.14742
-7.4697
-8.73205
-9.03676
-8.56323
-7.54607
-6.24807
-4.93115
-3.82912
-3.12511
-2.93624
-3.30685
-4.21048
-5.55984
-7.22306
-9.04375
-10.8624
-12.5362
-13.9554
-15.0538
-15.8125
-16.2571
-16.4477
-16.465
-16.3933
-16.3038
-16.2406
-16.2116
-16.186
-16.0977
-15.8563
-15.3609
-14.5174
-13.2548
-11.5392
-9.38271
-6.84622
-4.03608
-1.09443
1.8151
4.52448
6.87902
8.75338
10.0642
10.7772
10.9093
10.5241
9.72319
8.63361
7.39389
6.14046
4.99595
4.06063
3.40719
3.07856
3.08792
3.41962
4.0302
4.84915
5.77963
6.70012
7.46837
7.92871
7.92344
7.30803
5.96889
3.84153
0.926479
-2.70024
-6.88426
-11.3994
-15.9637
-20.2637
-23.9842
-26.8404
-28.6084
-29.149
-28.4237
-26.4999
-23.5438
-19.8043
-15.5876
-11.2271
-7.05169
-3.35598
-0.375128
1.7325
2.89415
3.12248
2.50691
1.19814
-0.612132
-2.71371
-4.9002
-6.98864
-8.83445
-10.3405
-11.4596
-12.191
-12.5711
-12.6621
-12.5376
-12.2705
-11.9217
-11.5334
-11.1258
-10.6976
-10.2308
-9.69729
-9.06635
-8.31304
-7.42464
-6.40513
-5.27699
-4.07998
-2.86733
-1.69972
-0.637914
0.264957
0.970698
1.46185
1.74536
1.85347
1.84163
1.78351
1.76351
1.86759
2.17349
2.74138
3.60615
4.77216
6.21101
7.86252
9.63885
11.4312
13.1183
14.5765
15.6897
16.359
16.5107
16.1032
15.1308
13.6254
11.6551
9.32115
6.75146
4.09271
1.50055
-0.871282
-2.88224
-4.41573
-5.38835
-5.7567
-5.52066
-4.72281
-3.44366
-1.79309
0.101035
2.10596
4.09723
5.97065
7.65189
9.10325
10.3282
11.3749
12.3418
13.3873
14.7466
16.7557
19.8817
24.7514
32.1697
43.1119
58.676
79.979
107.991
143.315
185.926
234.926
288.349
343.091
394.997
439.147
470.315
483.579
474.981
442.171
384.894
305.271
207.784
98.9557
-13.252
-120.247
-213.732
-286.617
-333.803
-352.734
-343.64
-309.455
-255.413
-188.39
-116.079
-46.1064
14.8028
61.5002
90.8667
101.997
96.1109
76.222
46.623
12.2628
-21.8987
-51.4784
-73.1346
-84.8607
-86.0905
-77.617
-61.3551
-39.9895
-16.5649
5.92647
24.9092
38.4988
45.6627
46.2581
40.9546
31.0651
18.3125
4.57087
-8.38478
-19.0893
-26.5359
-30.2498
-30.2859
-27.1582
-21.7186
-15.0047
-8.08101
-1.89488
2.83667
5.69686
6.59187
5.72847
3.55423
0.672157
-2.25648
-4.60731
-5.87379
-5.72486
-4.03418
-0.879976
3.48166
8.66405
14.2097
19.6537
24.5822
28.679
31.7543
33.754
34.7503
34.9146
34.4801
33.6991
32.8018
31.9638
31.2855
30.7861
30.4133
30.0638
29.6123
28.9428
27.9769
26.6944
25.1439
23.4415
21.7586
20.3015
19.2858
18.9095
19.3298
20.6446
22.8825
25.9999
29.8855
34.3685
39.2303
44.2162
49.0469
53.4294
57.0689
59.6832
61.0192
60.8731
59.1122
55.695
50.6867
44.2667
36.7245
28.4438
19.874
11.4931
3.76567
-2.90028
-8.18964
-11.9075
-13.9927
-14.5172
-13.6706
-11.7344
-9.04857
-5.97577
-2.8685
-0.041897
2.24506
3.79976
4.49832
4.28208
3.15062
1.15345
-1.61768
-5.03505
-8.93967
-13.145
-17.4411
-21.6005
-25.3869
-28.5671
-30.9262
-32.2841
-32.5126
-31.5498
-29.41
-26.1876
-22.0535
-17.2444
-12.0448
-6.76497
-1.71549
2.81828
6.59881
9.4544
11.2905
12.0932
11.9256
10.917
9.2463
7.12305
4.76603
2.3835
0.155996
-1.77674
-3.32364
-4.445
-5.15
-5.49001
-5.5484
-5.42816
-5.23857
-5.08207
-5.0426
-5.17653
-5.5069
-6.02166
-6.67599
-7.39844
-8.1002
-8.6863
-9.06761
-9.17187
-8.95262
-8.3948
-7.5164
-6.36604
-5.0171
-3.55937
-2.08975
-0.703288
0.514025
1.4904
2.17113
2.51995
2.51975
2.17349
1.50584
0.565284
-0.574141
-1.81279
-3.02864
-4.08504
-4.84345
-5.18079
-5.00927
-4.29594
-3.07787
-1.46921
0.343069
2.11616
3.58031
4.47633
4.5967
3.82369
2.15815
-0.266784
-3.19057
-6.24993
-9.02132
-11.0763
-12.0424
-11.661
-9.83236
-6.64151
-2.35891
2.58483
7.64797
12.2443
15.8186
17.9216
18.2726
16.8024
13.6692
9.24476
4.07238
-1.19891
-5.89438
-9.39778
-11.2281
-11.099
-8.95239
-4.96366
0.483343
6.84604
13.4909
19.7701
25.096
29.0053
31.204
31.5907
30.2537
27.4485
23.5563
19.034
14.3601
9.98531
6.29213
3.56685
1.98462
1.60686
2.38846
4.19182
6.80492
9.96112
13.3592
16.6833
19.6217
21.8864
23.2311
23.4686
22.4859
20.2555
16.8419
12.4014
7.17521
1.47663
-4.32665
-9.83164
-14.6172
-18.2559
-20.3164
-20.3562
-17.9027
-12.429
-3.32804
10.1006
28.639
53.0974
84.2085
122.464
167.904
219.883
276.859
336.251
394.428
446.864
488.477
514.136
519.289
500.615
456.621
388.054
298.073
192.112
77.4464
-37.5147
-144.099
-234.31
-301.701
-342.068
-353.872
-338.344
-299.258
-242.414
-174.916
-104.324
-37.8087
18.5931
60.5472
85.7453
93.9692
86.9075
67.7651
40.733
10.3919
-18.8703
-43.3584
-60.4359
-68.7235
-68.1245
-59.6901
-45.3587
-27.6134
-9.10842
7.685
20.7722
28.8374
31.3401
28.5028
21.2049
10.8053
-1.0769
-12.7915
-22.8658
-30.1691
-34.0176
-34.2112
-31.0066
-25.0361
-17.189
-8.47427
0.115398
7.72052
13.701
17.6832
19.5679
19.5012
17.82
14.9796
11.479
7.79198
4.31408
1.33045
-0.994726
-2.60884
-3.54636
-3.89556
-3.76292
-3.24132
-2.38648
-1.20444
0.349014
2.35793
4.92703
8.15726
12.1197
16.8322
22.2415
28.2143
34.5388
40.9364
47.0837
52.6411
57.2862
60.7466
62.8294
63.4424
62.6054
60.4486
57.2002
53.1622
48.6803
44.1079
39.7727
35.9461
32.8209
30.4987
28.9885
28.2149
28.0352
28.2625
28.6904
29.1181
29.3703
29.3126
28.8588
27.9715
26.6574
24.9575
22.9366
20.6722
18.2451
15.7327
13.2057
10.7263
8.34849
6.11883
4.07704
2.25541
0.677281
-0.645424
-1.71505
-2.55062
-3.18909
-3.68473
-4.1064
-4.53266
-5.04511
-5.72083
-6.62464
-7.80226
-9.27498
-11.0367
-13.0533
-15.2647
-17.5887
-19.9273
-22.173
-24.2166
-25.9538
-27.2926
-28.1579
-28.4966
-28.2803
-27.5065
-26.1989
-24.4045
-22.1914
-19.643
-16.8532
-13.9199
-10.94
-8.00327
-5.18893
-2.56233
-0.173473
1.94326
3.76842
5.296
6.53153
7.49006
8.19414
8.67201
8.95588
9.08044
9.08148
8.99454
8.85363
8.68993
8.53056
8.39738
8.30598
8.2649
8.27529
8.33094
8.41876
8.51979
8.61047
8.66433
8.65385
8.5524
8.33621
7.98591
7.48778
6.83424
6.02381
5.06062
3.95365
2.71625
1.36615
-0.0739417
-1.57521
-3.10142
-4.60802
-6.04214
-7.34408
-8.45047
-9.2992
-9.83561
-10.0194
-9.83138
-9.2786
-8.39759
-7.25435
-5.94088
-4.5684
-3.25771
-2.12783
-1.28401
-0.806907
-0.743992
-1.10451
-1.85856
-2.94037
-4.25546
-5.69064
-7.12572
-8.44551
-9.55071
-10.3665
-10.8479
-10.9815
-10.7836
-10.2948
-9.57282
-8.68327
-7.69082
-6.65114
-5.60474
-4.57336
-3.55894
-2.54512
-1.50054
-0.383515
0.852815
2.25528
3.86585
5.71735
7.82967
10.2063
12.8308
15.6633
18.6373
21.6566
24.5945
27.296
29.5841
31.2704
32.1715
32.1289
31.0318
28.8406
25.6076
21.4924
16.7663
11.8052
7.0666
3.05209
0.25672
-0.889411
-0.0809045
2.80992
7.69516
14.2558
21.9535
30.071
37.7786
44.2201
48.6083
50.3175
48.9628
44.4529
37.0124
27.1676
15.7003
3.57328
-8.15924
-18.4469
-26.3292
-31.0011
-31.8494
-28.4559
-20.5685
-8.04787
9.19581
31.2561
58.2521
90.2986
127.411
169.351
215.425
264.284
313.77
360.863
401.78
432.253
447.954
445.06
420.844
374.215
306.118
219.685
120.115
14.2636
-90.0139
-184.686
-262.425
-317.434
-346.087
-347.33
-322.763
-276.411
-214.218
-143.336
-71.2994
-5.19443
49.0763
87.3532
107.546
109.702
95.8255
69.4892
35.2934
-1.74785
-36.8169
-65.8283
-85.8326
-95.2503
-93.9249
-83.0023
-64.6683
-41.7865
-17.4904
5.21827
23.816
36.514
42.401
41.4672
34.5171
22.9943
8.74584
-6.23748
-20.072
-31.1942
-38.5136
-41.494
-40.1594
-35.0331
-27.024
-17.278
-7.01776
2.6092
10.6574
16.4717
19.7311
20.4474
18.9237
15.6833
11.3791
6.69858
2.27522
-1.38277
-3.93964
-5.25134
-5.35699
-4.44589
-2.80644
-0.765477
1.37241
3.37658
5.12546
6.62037
7.97692
9.39613
11.1207
13.3844
16.3621
20.13
24.6407
29.7185
35.0744
40.3392
45.1092
48.9981
51.6877
52.9697
52.7735
51.1763
48.3942
44.7561
40.665
36.5502
32.8188
29.8102
27.7613
26.784
26.8577
27.8384
29.4795
31.465
33.4468
35.0847
36.0828
36.2184
35.3618
33.484
30.6546
27.0288
22.8269
18.3094
13.7497
9.40708
5.50387
2.2066
-0.385768
-2.24668
-3.41944
-4.0079
-4.16155
-4.05671
-3.87609
-3.78873
-3.93256
-4.40108
-5.23541
-6.422
-7.8962
-9.55075
-11.2483
-12.8369
-14.1656
-15.1012
-15.5408
-15.4229
-14.7331
-13.505
-11.8172
-9.78508
-7.5497
-5.26472
-3.08252
-1.14111
0.447001
1.60312
2.2871
2.49834
2.27317
1.67918
0.807242
-0.237677
-1.3459
-2.41173
-3.34061
-4.05452
-4.49526
-4.6258
-4.42994
-3.91061
-3.0873
-1.99291
-0.670562
0.829475
2.45238
4.14084
5.83651
7.48105
9.01681
10.3876
11.5399
12.4239
12.996
13.2208
13.0741
12.5453
11.639
10.3764
8.79422
6.94371
4.88691
2.69291
0.433384
-1.82147
-4.00616
-6.0619
-7.93728
-9.58791
-10.9752
-12.0654
-12.8284
-13.2386
-13.2761
-12.9303
-12.2035
-11.1162
-9.71138
-8.05725
-6.24789
-4.40051
-2.6493
-1.13608
0.00141321
0.64242
0.695659
0.109886
-1.11884
-2.94418
-5.27124
-7.96296
-10.8505
-13.7465
-16.4601
-18.8121
-20.6485
-21.8526
-22.3528
-22.1268
-21.2015
-19.6494
-17.5808
-15.1338
-12.4629
-9.72606
-7.07306
-4.63471
-2.51438
-0.78226
0.527174
1.41455
1.91188
2.0764
1.98263
1.71368
1.35277
0.975868
0.646162
0.410653
0.298948
0.323907
0.483636
0.764254
1.14294
1.59085
2.07577
2.56434
3.02392
3.42421
3.73874
3.94622
4.03193
3.98913
3.82029
3.53815
3.1662
2.73846
2.2983
1.89604
1.58548
1.41931
1.44395
1.69415
2.18807
2.92352
3.87597
4.99864
6.22502
7.47354
8.65412
9.67568
10.4541
10.919
11.0196
10.7281
10.0411
8.98016
7.59242
5.95405
4.17813
2.42946
0.94724
0.075234
0.296484
2.26664
6.83642
15.0505
28.1084
47.2735
73.7215
108.328
151.412
202.466
259.917
320.991
381.711
437.099
481.57
509.512
515.975
497.388
452.189
381.259
288.079
178.567
60.5804
-56.8518
-164.477
-253.829
-318.166
-353.21
-357.593
-332.957
-283.699
-216.401
-139.025
-59.9821
12.8056
72.7343
115.147
137.698
140.416
125.502
96.8733
59.5621
19.023
-19.5407
-51.7621
-74.5418
-86.2863
-86.9435
-77.8485
-61.4153
-40.7281
-19.0885
0.418142
15.2887
23.8603
25.4386
20.2949
9.5424
-5.07833
-21.4713
-37.4744
-51.1295
-60.9016
-65.8274
-65.5796
-60.4505
-51.2625
-39.2245
-25.7566
-12.3061
-0.178446
9.5995
16.3695
19.8805
20.2754
18.0333
13.8775
8.66515
3.27169
-1.51409
-5.07384
-7.01393
-7.18702
-5.68137
-2.78282
1.08327
5.42079
9.73288
13.5843
16.6493
18.7409
19.8191
19.9805
19.4316
18.4511
17.3472
16.416
15.9054
15.9892
16.7532
18.1941
20.2291
22.7159
25.4765
28.3234
31.084
33.6191
35.835
37.6866
39.1734
40.3291
41.2063
41.8609
42.3363
42.6523
42.7975
42.7291
42.3772
41.6548
40.4704
38.7437
36.4201
33.4834
29.9646
25.9458
21.5579
16.9726
12.3889
8.01632
4.05532
0.679077
-1.98298
-3.85698
-4.93071
-5.25349
-4.92994
-4.10868
-2.96748
-1.69657
-0.482003
0.509496
1.14279
1.32303
1.00029
0.170103
-1.12995
-2.82692
-4.82171
-6.99974
-9.24185
-11.4341
-13.4757
-15.2841
-16.7974
-17.9742
-18.7914
-19.2414
-19.3281
-19.0647
-18.4714
-17.5745
-16.4062
-15.0055
-13.4181
-11.6976
-9.90426
-8.10462
-6.36879
-4.76752
-3.36825
-2.23067
-1.40216
-0.913678
-0.776426
-0.979868
-1.49136
-2.25759
-3.20791
-4.25929
-5.32263
-6.30982
-7.14091
-7.75055
-8.09311
-8.14594
-7.91026
-7.40977
-6.68709
-5.79841
-4.80684
-3.77534
-2.75982
-1.8034
-0.932587
-0.155816
0.535171
1.16144
1.7509
2.33117
2.92245
3.53136
4.14699
4.73961
5.26259
5.65724
5.86005
5.81133
5.46426
4.79289
3.7981
2.51073
0.991304
-0.673787
-2.3791
-4.00947
-5.45073
-6.6007
-7.37925
-7.73627
-7.65665
-7.16173
-6.30697
-5.17615
-3.87273
-2.50934
-1.19659
-0.032426
0.906819
1.57273
1.94788
2.04536
1.9051
1.58735
1.16429
0.710748
0.29521
-0.0278728
-0.22351
-0.278761
-0.202226
-0.0205876
0.227247
0.497537
0.749534
0.952564
1.0913
1.16845
1.2044
1.23402
1.301
1.45085
1.72345
2.14652
2.73093
3.46862
4.33342
5.28456
6.27239
7.24533
8.15709
8.97294
9.67431
10.2608
10.7498
11.173
11.5709
11.9869
12.4593
13.0156
13.6677
14.4086
15.2122
16.0354
16.8218
17.5068
18.0241
18.3116
18.3172
18.003
17.3486
16.3521
15.0296
13.4124
11.5432
9.47097
7.24595
4.91446
2.51565
0.0798633
-2.37055
-4.81791
-7.24359
-9.62022
-11.9018
-14.0117
-15.8288
-17.1702
-17.773
-17.2734
-15.188
-10.8989
-3.64854
7.44805
23.3658
45.0971
73.5373
109.325
152.644
203.005
259.047
318.395
377.631
432.417
477.791
508.634
520.246
508.989
472.872
411.999
328.802
227.988
116.207
1.45216
-107.726
-203.107
-277.669
-326.332
-346.49
-338.249
-304.373
-249.916
-181.622
-107.146
-34.2044
30.2372
80.662
113.493
127.337
122.968
103.066
71.7481
33.9833
-5.05781
-40.6152
-68.8545
-87.2265
-94.6419
-91.4545
-79.2738
-60.6422
-38.6306
-16.4087
3.15575
17.8209
26.1865
27.7848
23.0479
13.1674
-0.126066
-14.8275
-28.9307
-40.6746
-48.7358
-52.3489
-51.3471
-46.1257
-37.5411
-26.7641
-15.1091
-3.86365
5.86151
13.2461
17.8265
19.5126
18.5569
15.4861
11.0062
5.89654
0.906395
-3.33285
-6.3709
-7.97148
-8.11389
-6.96649
-4.83821
-2.11714
0.79441
3.53912
5.85067
7.58164
8.71131
9.33437
9.63408
9.84523
10.2131
10.9549
12.2281
14.111
16.595
19.59
22.9403
26.4468
29.8935
33.072
35.8034
37.9532
39.4397
40.2354
40.363
39.8867
38.9018
37.524
35.8786
34.0914
32.2815
30.5537
28.9932
27.6598
26.5835
25.7618
25.1591
24.709
24.3203
23.8853
23.2921
22.4371
21.2381
19.6454
17.6499
15.2868
12.6338
9.80425
6.93519
4.17189
1.65013
-0.521434
-2.27642
-3.6011
-4.53821
-5.18282
-5.67057
-6.15918
-6.80569
-7.74256
-9.05615
-10.7708
-12.8414
-15.1549
-17.5421
-19.797
-21.702
-23.0549
-23.6944
-23.5206
-22.5083
-20.7101
-18.2511
-15.3142
-12.1192
-8.89849
-5.8717
-3.22313
-1.08428
0.4767
1.45773
1.91778
1.9652
1.74128
1.40118
1.09478
0.949641
1.05797
1.46871
2.18531
3.1689
4.34582
5.61837
6.87693
8.01202
8.92481
9.53507
9.78614
9.64674
9.1101
8.19122
6.92305
5.35271
3.53824
1.54626
-0.549486
-2.66923
-4.72842
-6.63982
-8.31677
-9.67781
-10.6523
-11.1866
-11.2501
-10.8397
-9.98258
-8.73688
-7.18869
-5.44698
-3.63595
-1.88572
-0.322271
0.942553
1.81986
2.2507
2.21038
1.70989
0.794101
-0.463018
-1.96565
-3.60528
-5.27068
-6.8578
-8.27847
-9.46693
-10.3836
-11.0158
-11.3749
-11.4912
-11.4072
-11.169
-10.8192
-10.3911
-9.90427
-9.36454
-8.76524
-8.09142
-7.3251
-6.45102
-5.46165
-4.36101
-3.16657
-1.90926
-0.631537
0.616057
1.77942
2.80604
3.65005
4.27683
4.66652
4.81614
4.74006
4.4687
4.04561
3.52327
2.9579
2.40416
1.91018
1.51359
1.23923
1.09857
1.09105
1.20699
1.43139
1.7479
2.14208
2.60325
3.12462
3.70185
4.33049
5.00346
5.70955
6.43406
7.16211
7.88452
8.60516
9.34793
10.1609
11.1156
12.299
13.7995
15.686
17.9859
20.6639
23.6078
26.6247
29.4505
31.7726
33.2643
33.6261
32.6294
30.1548
26.22
20.993
14.7871
8.03847
1.26991
-4.95633
-10.0878
-13.6274
-15.167
-14.4048
-11.1406
-5.25039
3.36008
14.8126
29.3151
47.2032
68.9471
95.1027
126.196
162.543
204.013
249.791
298.165
346.426
390.915
427.246
450.725
456.91
442.243
404.664
344.109
262.783
165.165
57.7001
-51.777
-154.842
-243.392
-310.55
-351.442
-363.751
-347.953
-307.236
-247.087
-174.632
-97.7962
-24.4048
38.6597
86.154
114.939
124.173
115.232
91.3729
57.2105
18.0731
-20.6714
-54.2411
-78.9447
-92.5164
-94.2545
-84.962
-66.7144
-42.4945
-15.751
10.0607
31.8986
47.4663
55.4258
55.4747
48.2897
35.3555
18.7092
0.640579
-16.6128
-31.1349
-41.5367
-47.0753
-47.682
-43.9016
-36.7605
-27.5859
-17.804
-8.74446
-1.47601
3.30859
5.34804
4.80639
2.21162
-1.64819
-5.85401
-9.49135
-11.7739
-12.1405
-10.3151
-6.32474
-0.478069
6.69152
14.5061
22.2357
29.19
34.7982
38.6675
40.6153
40.6736
39.0674
36.1723
32.4595
28.4351
24.5829
21.3163
18.9456
17.6598
17.5257
18.5003
20.4527
23.1924
26.498
30.1445
33.924
37.661
41.2191
44.5022
47.4496
50.0276
52.2206
54.021
55.4215
56.4093
56.9627
57.0502
56.6314
55.66
54.0889
51.876
48.9927
45.4319
41.2161
36.4032
31.0902
25.4118
19.5355
13.6528
7.96733
2.68175
-2.01553
-5.96221
-9.0317
-11.1401
-12.2503
-12.3744
-11.573
-9.95402
-7.66878
-4.90684
-1.88811
1.14737
3.95238
6.28764
7.93841
8.7312
8.54895
7.34289
5.13932
2.04002
-1.78433
-6.10741
-10.6662
-15.1833
-19.3903
-23.0495
-25.9714
-28.0258
-29.1469
-29.3311
-28.6297
-27.1377
-24.9805
-22.3002
-19.2438
-15.9531
-12.5585
-9.17458
-5.89908
-2.81306
0.017717
2.54133
4.71856
6.52249
7.9386
8.96542
9.61492
9.91262
9.8967
9.61601
9.12702
8.48972
7.76306
7.00032
6.24505
5.52826
4.86711
4.26543
3.71589
3.20361
2.71042
2.21926
1.71785
1.20105
0.671691
0.139668
-0.380242
-0.871262
-1.31748
-1.70601
-2.02789
-2.27762
-2.45156
-2.54581
-2.55458
-2.46988
-2.28342
-1.99075
-1.59725
-1.12466
-0.616212
-0.138595
0.220936
0.36293
0.189065
-0.381393
-1.39482
-2.84948
-4.68799
-6.7982
-9.02355
-11.1817
-13.089
-14.5867
-15.5639
-15.9731
-15.8348
-15.2304
-14.2845
-13.1396
-11.9282
-10.7487
-9.6483
-8.61791
-7.59862
-6.49958
-5.22313
-3.69245
-1.87659
0.192138
2.41152
4.6154
6.59141
8.10807
8.9472
8.93681
7.97956
6.07277
3.31684
-0.0888191
-3.86187
-7.66285
-11.1273
-13.9002
-15.6687
-16.1897
-15.3098
-12.9773
-9.24421
-4.26145
1.73265
8.42875
15.4659
22.4533
28.9929
34.7027
39.241
42.3293
43.7738
43.4847
41.4884
37.9337
33.087
27.3173
21.0688
14.8247
9.06406
4.21614
0.617971
-1.51992
-2.13499
-1.3182
0.697256
3.56331
6.85701
10.1285
12.9517
14.9704
15.9371
15.7373
14.4004
12.0945
9.10949
5.83182
2.7161
0.260081
-1.01235
-0.556656
2.19877
7.86744
17.1204
30.6908
49.3518
73.8535
104.808
142.519
186.777
236.64
290.253
344.762
396.358
440.503
472.325
487.156
481.155
451.914
398.961
324.054
231.216
126.473
17.3123
-88.0647
-181.622
-256.367
-307.117
-331.06
-328.023
-300.434
-252.974
-191.981
-124.689
-58.386
0.372426
46.4321
76.4972
89.3425
85.769
68.3289
40.8685
7.96033
-25.6993
-55.8507
-79.1263
-93.3552
-97.6946
-92.5874
-79.5706
-60.9701
-39.532
-18.0418
1.02028
15.7502
24.9901
28.3885
26.354
19.9198
10.5457
-0.111655
-10.4276
-19.0098
-24.8474
-27.3966
-26.5979
-22.8311
-16.8201
-9.50379
-1.89474
5.05751
10.5804
14.1585
15.5736
14.9039
12.4858
8.84918
4.63408
0.50276
-2.94267
-5.22764
-6.05109
-5.30674
-3.0799
0.377544
4.6888
9.40449
14.0589
18.2242
21.5562
23.8292
24.9547
24.985
24.1006
22.5843
20.7854
19.0777
17.817
17.3019
17.7436
19.2451
21.7949
25.2718
29.463
34.0907
38.8443
43.416
47.5326
50.9826
53.6346
55.4437
56.4482
56.7551
56.5175
55.908
55.0911
54.1985
53.3112
52.449
51.5708
50.5822
49.3519
47.7328
45.5858
42.803
39.3273
35.1667
30.3998
25.1742
19.6948
14.2063
8.96927
4.23487
0.219207
-2.91842
-5.0914
-6.29392
-6.60052
-6.15714
-5.16494
-3.85882
-2.48338
-1.26892
-0.410282
-0.0506724
-0.271951
-1.09196
-2.46864
-4.30977
-6.48674
-8.85018
-11.2456
-13.5271
-15.5683
-17.2691
-18.5597
-19.3999
-19.7773
-19.7028
-19.2059
-18.3293
-17.125
-15.6501
-13.9642
-12.1272
-10.1977
-8.23147
-6.2801
-4.38955
-2.59881
-0.938733
0.568569
1.90965
3.07886
4.07662
4.90731
5.57682
6.09054
6.45185
6.66156
6.71835
6.62003
6.36554
5.95731
5.40357
4.72028
3.93236
3.07375
2.18633
1.3175
0.516705
-0.169026
-0.699819
-1.04765
-1.2003
-1.16408
-0.964746
-0.64652
-0.268987
0.0978274
0.379819
0.506002
0.415857
0.0660711
-0.564053
-1.46917
-2.61693
-3.94971
-5.38896
-6.84186
-8.20942
-9.39539
-10.3147
-10.9008
-11.1103
-10.9254
-10.3531
-9.42088
-8.17161
-6.6571
-4.93288
-3.0552
-1.08103
0.929144
2.90659
4.76952
6.42011
7.74541
8.62319
8.9331
8.57204
7.47157
5.61454
3.04764
-0.112813
-3.68359
-7.42639
-11.0677
-14.3243
-16.9317
-18.6713
-19.3924
-19.028
-17.6003
-15.2165
-12.0561
-8.35048
-4.35871
-0.34152
3.46238
6.85563
9.69515
11.8979
13.4396
14.3475
14.6888
14.5563
14.0551
13.2885
12.3486
11.3096
10.2244
9.12529
8.02676
6.93018
5.82911
4.71488
3.58193
2.43263
1.28167
0.159552
-0.885201
-1.78557
-2.45803
-2.80744
-2.7349
-2.14856
-0.976415
0.820166
3.23371
6.20083
9.5972
13.2387
16.8896
20.2782
23.1175
25.1307
26.0778
25.7806
24.1432
21.1666
16.9536
11.706
5.71228
-0.671209
-7.04367
-12.9843
-18.074
-21.9092
-24.1062
-24.291
-22.0771
-17.0321
-8.64249
3.71337
20.7674
43.3236
72.1639
107.894
150.73
200.262
255.217
313.295
371.115
424.337
467.963
496.823
506.182
492.411
453.598
390.014
304.339
201.593
88.7621
-25.858
-133.508
-225.905
-296.15
-339.484
-353.791
-339.786
-300.874
-242.698
-172.437
-97.9645
-26.9567
33.9198
79.6623
107.35
116.291
107.904
85.3639
53.0718
16.0305
-20.7933
-53.0435
-77.4194
-91.9517
-96.0902
-90.6118
-77.3774
-58.9824
-38.3547
-18.3548
-1.42723
10.6591
16.9587
17.3781
12.5957
3.89298
-7.07216
-18.5151
-28.7641
-36.4608
-40.7008
-41.1027
-37.8052
-31.3987
-22.8084
-13.147
-3.55918
4.9224
11.4926
15.6498
17.2268
16.3778
13.5275
9.29283
4.38922
-0.464541
-4.63189
-7.62457
-9.14348
-9.09192
-7.56279
-4.80399
-1.16887
2.94059
7.12992
11.0607
14.4863
17.2715
19.3953
20.9385
22.0591
22.96
23.8538
24.931
26.3332
28.1368
30.3465
32.9004
35.6827
38.544
41.3235
43.8717
46.0695
47.8412
49.1616
50.0548
50.5868
50.8532
50.9629
51.0222
51.1194
51.313
51.6244
52.0356
52.4929
52.9133
53.1954
53.2303
52.9128
52.1507
50.8715
49.0269
46.595
43.5811
40.0184
35.9671
31.5146
26.7736
21.8793
16.9847
12.2529
7.84761
3.92172
0.605244
-2.00594
-3.85913
-4.95034
-5.32533
-5.07585
-4.33134
-3.24691
-1.98893
-0.719854
0.416023
1.30444
1.86932
2.07661
1.93338
1.48271
0.794866
-0.0438485
-0.943268
-1.82104
-2.61237
-3.27666
-3.80032
-4.1955
-4.49515
-4.74514
-4.99477
-5.28712
-5.65066
-6.09327
-6.59961
-7.13214
-7.63545
-8.04342
-8.28803
-8.30864
-8.06041
-7.52084
-6.6934
-5.60811
-4.31884
-2.89798
-1.42914
0.00105698
1.31108
2.43146
3.30997
3.9144
4.23295
4.27248
4.055
3.61319
2.98559
2.21215
1.33064
0.374303
-0.629118
-1.65691
-2.68983
-3.70982
-4.69747
-5.62977
-6.47878
-7.21134
-7.79033
-8.17725
-8.33608
-8.23803
-7.8665
-7.2218
-6.32481
-5.21899
-3.97029
-2.66468
-1.40311
-0.294361
0.554002
1.04576
1.10636
0.692346
-0.201177
-1.53615
-3.23108
-5.16495
-7.18556
-9.12185
-10.7991
-12.0554
-12.7585
-12.819
-12.2017
-10.9299
-9.08513
-6.8003
-4.2482
-1.62586
0.863238
3.027
4.70119
5.76269
6.13896
5.81285
4.82314
3.26069
1.26101
-1.00652
-3.35179
-5.57876
-7.50084
-8.95563
-9.81786
-10.0093
-9.50448
-8.33225
-6.57178
-4.34449
-1.80204
0.888317
3.5593
6.05875
8.26266
10.0848
11.4823
12.4557
13.0454
13.3223
13.3767
13.3036
13.1889
13.0968
13.0597
13.0737
13.0989
13.0663
12.8896
12.4802
11.7643
10.6989
9.28349
7.56598
5.64195
3.64615
1.7377
0.0809521
-1.17564
-1.91949
-2.09003
-1.68872
-0.781583
0.506343
2.00381
3.51213
4.82766
5.76568
6.18323
5.99878
5.2076
3.89193
2.22656
0.480433
-0.983914
-1.7119
-1.15831
1.31101
6.41489
14.9449
27.7381
45.6244
69.3394
99.3984
135.933
178.505
225.932
276.159
326.219
372.338
410.183
435.269
443.477
431.622
397.983
342.714
268.051
178.262
79.3389
-21.5555
-116.813
-199.19
-262.594
-302.747
-317.632
-307.681
-275.667
-226.334
-165.812
-100.89
-38.2618
16.1946
57.9867
84.3905
94.6009
89.652
72.1319
45.7419
14.7662
-16.4783
-44.1451
-65.2555
-77.9561
-81.6154
-76.765
-64.9079
-48.2293
-29.2553
-10.5074
5.80673
18.0302
25.2009
27.0945
24.1716
17.4457
8.29589
-1.74573
-11.2033
-18.8375
-23.7777
-25.5931
-24.3018
-20.3219
-14.3775
-7.37466
-0.268231
6.0652
10.9313
13.8893
14.7838
13.7395
11.1199
7.46196
3.39494
-0.444535
-3.49007
-5.3076
-5.63567
-4.40131
-1.71174
2.17447
6.89148
12.0185
17.1331
21.8591
25.9037
29.0798
31.314
32.6388
33.1735
33.0971
32.6176
31.9436
31.2605
30.7151
30.4086
30.3976
30.7004
31.3065
32.1855
33.2946
34.5829
35.993
37.4612
38.9169
40.2833
41.481
42.4337
43.0758
43.3618
43.2737
42.8266
42.0692
41.0782
39.9479
38.7745
37.6385
36.5876
35.6249
34.7026
33.726
32.5657
31.077
29.1243
26.6055
23.4737
19.7522
15.5409
11.0119
6.39532
1.95589
-2.03742
-5.34464
-7.78685
-9.2724
-9.81312
-9.52719
-8.62775
-7.39771
-6.15389
-5.20516
-4.81042
-5.1426
-6.26414
-8.11774
-10.5342
-13.2565
-15.9762
-18.3782
-20.1849
-21.1951
-21.3113
-20.5509
-19.0403
-16.9936
-14.6792
-12.3799
-10.3524
-8.79225
-7.8096
-7.41788
-7.53705
-8.01003
-8.62906
-9.16798
-9.41558
-9.20516
-8.43661
-7.08835
-5.21799
-2.95231
-0.468445
2.0307
4.34313
6.2928
7.74991
8.6438
8.96757
8.7741
8.16485
7.27336
6.246
5.22276
4.32053
3.62093
3.164
2.94819
2.93621
3.06562
3.26231
3.45466
3.58619
3.62442
3.56451
3.42699
3.24995
3.07721
2.94472
2.86807
2.83364
2.79571
2.6804
2.39636
1.85076
0.967876
-0.292767
-1.92226
-3.855
-5.97021
-8.10273
-10.062
-11.6563
-12.7196
-13.1352
-12.854
-11.9038
-10.3883
-8.47579
-6.37914
-4.33075
-2.55478
-1.24115
-0.524436
-0.47024
-1.07033
-2.2468
-3.8642
-5.74762
-7.70411
-9.5447
-11.1043
-12.2573
-12.9276
-13.0921
-12.7778
-12.0546
-11.0224
-9.79741
-8.49727
-7.22722
-6.06894
-5.07292
-4.25503
-3.59766
-3.05508
-2.56235
-2.04656
-1.43887
-0.685794
0.241951
1.34415
2.5901
3.92202
5.26225
6.52329
7.61899
8.4756
9.04093
9.29064
9.23079
8.89671
8.3483
7.66275
6.92573
6.22219
5.62801
5.20339
4.98854
5.0019
5.24079
5.68409
6.29626
7.03218
7.84213
8.67624
9.48815
10.2374
10.8905
11.421
11.8076
12.033
12.0811
11.9355
11.5782
10.9897
10.1512
9.04759
7.67248
6.03469
4.16491
2.12291
0.00445823
-2.05213
-3.85979
-5.17659
-5.69931
-5.05643
-2.80052
1.59888
8.75907
19.3798
34.2224
54.0628
79.6088
111.375
149.518
193.652
242.66
294.561
346.465
394.655
434.825
462.468
473.373
464.186
432.933
379.449
305.609
215.331
114.322
9.58189
-91.2776
-180.812
-252.531
-301.595
-325.313
-323.406
-297.983
-253.254
-195.001
-129.905
-64.7897
-5.89172
41.7598
74.7906
91.7099
92.9067
80.433
57.614
28.5451
-2.45485
-31.3647
-54.8978
-70.8084
-78.0436
-76.7367
-68.0593
-53.9616
-36.8466
-19.222
-3.37651
8.88293
16.4064
18.7765
16.2839
9.81808
0.692796
-9.56268
-19.4188
-27.5394
-32.9316
-35.0379
-33.7651
-29.4518
-22.7859
-14.6858
-6.16557
1.79926
8.38783
13.0197
15.4025
15.5399
13.7026
10.37
6.15228
1.70529
-2.35147
-5.5039
-7.39245
-7.83774
-6.84205
-4.56931
-1.30811
2.57577
6.69084
10.6686
14.2043
17.0852
19.2056
20.5668
21.2645
21.4666
21.3848
21.2431
21.2493
21.5703
22.3158
23.5301
25.1923
27.2258
29.5126
31.9125
34.2831
36.499
38.4669
40.1355
41.4993
42.5948
43.4923
44.2818
45.0572
45.8999
46.8652
47.9711
49.1936
50.4667
51.688
52.7278
53.4415
53.6826
53.3155
52.2274
50.339
47.6126
44.0581
39.7366
34.7595
29.2846
23.5074
17.6478
11.9343
6.5856
1.79235
-2.29911
-5.59899
-8.08054
-9.77975
-10.7882
-11.2394
-11.2906
-11.1018
-10.8151
-10.5369
-10.3244
-10.1809
-10.0573
-9.86292
-9.48359
-8.80449
-7.73572
-6.23642
-4.3337
-2.13292
0.183318
2.36843
4.13689
5.19864
5.2988
4.25774
2.0056
-1.3942
-5.73723
-10.6888
-15.8137
-20.6224
-24.6288
-27.411
-28.668
-28.2627
-26.244
-22.8447
-18.4548
-13.5714
-8.73473
-4.45713
-1.1558
0.90068
1.62465
1.1159
-0.35844
-2.40752
-4.57701
-6.417
-7.5476
-7.71262
-6.81422
-4.92396
-2.26978
0.7986
3.85994
6.48001
8.26987
8.93613
8.31661
6.39749
3.31042
-0.688848
-5.25643
-10.0051
-14.5509
-18.5554
-21.7569
-23.9886
-25.1811
-25.352
-24.5851
-23.0058
-20.7553
-17.9716
-14.7779
-11.281
-7.5784
-3.7717
0.0197707
3.64845
6.93652
9.68431
11.6891
12.7718
12.8064
11.7466
9.64488
6.65757
3.03606
-0.896997
-4.78305
-8.26978
-11.0539
-12.9185
-13.7582
-13.5906
-12.5488
-10.8594
-8.80697
-6.69137
-4.7846
-3.29313
-2.3317
-1.91211
-1.9483
-2.27635
-2.68572
-2.9564
-2.89581
-2.36954
-1.32129
0.220734
2.15125
4.30724
6.49543
8.5231
10.227
11.4959
12.2838
12.612
12.5607
12.2517
11.8256
11.4174
11.1338
11.0354
11.1262
11.3518
11.6057
11.7447
11.6102
11.0549
9.97007
8.31271
6.12544
3.54774
0.814141
-1.76183
-3.81778
-4.9844
-4.93453
-3.43355
-0.383738
4.14429
9.8991
16.4587
23.2641
29.6738
35.0322
38.7451
40.3509
39.5785
36.3843
30.9635
23.733
15.2897
6.35071
-2.31655
-9.96312
-15.9146
-19.6062
-20.5893
-18.51
-13.0623
-3.9265
9.28935
27.0875
50.0745
78.8956
114.098
155.929
204.096
257.516
314.127
370.808
423.453
467.249
497.125
508.349
497.187
461.533
401.388
319.12
219.423
108.976
-4.18413
-111.485
-204.744
-277.068
-323.604
-342.055
-332.879
-299.172
-246.238
-180.921
-110.787
-43.2623
15.1648
59.5817
87.0687
96.8546
90.2133
70.1308
40.8023
7.03153
-26.3884
-55.2353
-76.2998
-87.6649
-88.8057
-80.5132
-64.6673
-43.9018
-21.2102
0.453077
18.5286
31.126
37.1909
36.5553
29.877
18.4851
4.15956
-11.1222
-25.4388
-37.148
-45.0553
-48.5143
-47.4521
-42.3242
-34.0121
-23.6791
-12.6078
-2.03851
6.97093
13.6507
17.5798
18.7003
17.2874
13.8838
9.21032
4.06394
-0.781179
-4.66038
-7.08322
-7.77144
-6.66851
-3.92308
0.149154
5.11821
10.4996
15.8136
20.6372
24.6439
27.6281
29.5135
30.3462
30.2751
29.5237
28.3571
27.0486
25.8495
24.965
24.5378
24.6406
25.277
26.3897
27.8742
29.5962
31.4105
33.1787
34.7849
36.147
37.2231
38.0138
38.5582
38.9264
39.2081
39.5001
39.8924
40.455
41.2277
42.2123
43.3681
44.6127
45.8249
46.8525
47.5233
47.6594
47.0937
45.6879
43.3499
40.0488
35.8245
30.7914
25.1332
19.0902
12.9394
6.96962
1.45428
-3.37483
-7.34956
-10.3807
-12.465
-13.6823
-14.1846
-14.1771
-13.8943
-13.5738
-13.4308
-13.6357
-14.298
-15.4569
-17.08
-19.0698
-21.2763
-23.5149
-25.5864
-27.2976
-28.4807
-29.0079
-28.8018
-27.8406
-26.1565
-23.8308
-20.9848
-17.7685
-14.3496
-10.9021
-7.59702
-4.59398
-2.03482
-0.03787
1.30712
1.94395
1.855
1.06605
-0.35005
-2.27178
-4.53107
-6.92017
-9.20437
-11.1401
-12.4978
-13.0865
-12.7778
-11.5252
-9.37521
-6.46826
-3.02773
0.662184
4.28752
7.54059
10.1562
11.9427
12.8033
12.7433
11.8639
10.341
8.39462
6.25283
4.11663
2.13142
0.369561
-1.17324
-2.56778
-3.92941
-5.38839
-7.05792
-9.00518
-11.2304
-13.6577
-16.1384
-18.4671
-20.4081
-21.7264
-22.2209
-21.7532
-20.2686
-17.8069
-14.5008
-10.5634
-6.2668
-1.91407
2.19136
5.7748
8.61514
10.5626
11.5482
11.5841
10.7563
9.21027
7.13192
4.72674
2.19883
-0.267639
-2.52285
-4.46055
-6.02156
-7.19187
-7.99588
-8.48627
-8.73177
-8.80469
-8.76955
-8.67428
-8.54482
-8.38353
-8.17135
-7.87305
-7.44466
-6.84186
-6.0281
-4.98124
-3.698
-2.19552
-0.510137
1.3065
3.19322
5.08629
6.92667
8.66647
10.2737
11.7349
13.0539
14.249
15.3459
16.3696
17.3357
18.2424
19.0653
19.7555
20.2429
20.4439
20.273
19.6571
18.5501
16.9456
14.8862
12.4658
9.82599
7.14534
4.6224
2.45462
0.815382
-0.167684
-0.430424
0.0167928
1.08642
2.62025
4.40471
6.1935
7.73523
8.80309
9.22345
8.90078
7.83659
6.14146
4.04007
1.87036
0.0786785
-0.787061
-0.0846909
2.91422
9.01285
19.0677
33.9483
54.4663
81.2671
114.679
154.531
199.962
249.259
299.774
347.954
389.535
419.898
434.563
429.774
403.089
353.872
283.621
196.024
96.7543
-7.02982
-107.394
-196.474
-267.347
-314.802
-335.922
-330.382
-300.443
-250.643
-187.225
-117.387
-48.4562
12.9191
61.4471
93.6766
108.234
105.8
88.8568
61.2315
27.5329
-7.46216
-39.3857
-64.7526
-81.2842
-88.0546
-85.459
-75.0218
-59.0865
-40.4332
-21.8807
-5.92338
5.55546
11.4646
11.5674
6.43026
-2.72706
-14.2495
-26.3002
-37.1132
-45.2144
-49.5851
-49.7533
-45.8083
-38.343
-28.3386
-17.0113
-5.6434
4.57878
12.7001
18.0913
20.4958
20.0257
17.1147
12.4358
6.79918
1.04286
-4.06828
-7.92457
-10.1262
-10.5069
-9.12623
-6.23588
-2.22528
2.44343
7.30232
11.9376
16.0354
19.409
22.0057
23.8945
25.2383
26.2564
27.1831
28.2291
29.5502
31.2271
33.258
35.5634
38.0018
40.3918
42.5391
44.2627
45.4191
45.9203
45.7453
44.9428
43.6275
41.9679
40.1692
38.4525
37.0319
36.0923
35.7696
36.136
37.1901
38.8543
40.9786
43.3518
45.717
47.7934
49.2992
49.9775
49.6194
48.0854
45.3211
41.3649
36.3482
30.485
24.0539
17.3726
10.768
4.54634
-1.03537
-5.79068
-9.61743
-12.5014
-14.5103
-15.7786
-16.486
-16.8322
-17.0109
-17.1866
-17.4768
-17.9409
-18.5779
-19.3314
-20.1015
-20.7617
-21.1777
-21.2265
-20.813
-19.8812
-18.421
-16.468
-14.0976
-11.4155
-8.54421
-5.60928
-2.72662
0.00765798
2.52355
4.77913
6.75857
8.46695
9.92307
11.1517
12.1761
13.0131
13.6691
14.1399
14.412
14.4658
14.2805
13.8385
13.1298
12.1554
10.9288
9.4774
7.84087
6.06983
4.22303
2.36427
0.559137
-1.12848
-2.63968
-3.92388
-4.94174
-5.66766
-6.09138
-6.21841
-6.06907
-5.67614
-5.08148
-4.33199
-3.47578
-2.55895
-1.62358
-0.706972
0.157775
0.940488
1.61228
2.14432
2.50738
2.67275
2.61428
2.31155
1.7535
0.941833
-0.106537
-1.35872
-2.76696
-4.27163
-5.80563
-7.29945
-8.68622
-9.90597
-10.9088
-11.6566
-12.1241
-12.298
-12.1767
-11.769
-11.0927
-10.1737
-9.04519
-7.74652
-6.32283
-4.82406
-3.304
-1.81893
-0.425764
0.820342
1.86885
2.67706
3.21335
3.46015
3.41612
3.09705
2.5353
1.77735
0.879811
-0.0958144
-1.08869
-2.04357
-2.91401
-3.66341
-4.26352
-4.69124
-4.92458
-4.93932
-4.70744
-4.19829
-3.38263
-2.23905
-0.761486
1.03348
3.10142
5.36798
7.73104
10.0668
12.2398
14.1143
15.5673
16.4997
16.8451
16.5756
15.7045
14.2851
12.4079
10.1953
7.79506
5.37148
3.09596
1.13565
-0.358497
-1.26402
-1.49824
-1.02753
0.12698
1.88803
4.12614
6.66867
9.31356
11.8464
14.0593
15.7693
16.8347
17.1666
16.7359
15.5736
13.7659
11.4466
8.78728
5.99165
3.29537
0.976081
-0.626063
-1.07851
0.177937
3.85925
10.8523
22.199
39.0359
62.478
93.4434
132.424
179.231
232.742
290.727
349.777
405.412
452.386
485.179
498.643
488.702
453.033
391.576
306.816
203.728
89.4137
-27.5795
-138.149
-233.632
-306.769
-352.509
-368.55
-355.539
-316.928
-258.497
-187.624
-112.397
-40.6893
20.6874
66.6558
94.2985
103.001
94.3136
71.577
39.3622
2.8213
-32.9739
-63.62
-85.8343
-97.7272
-98.8801
-90.2366
-73.84
-52.4633
-29.1888
-6.99368
11.6069
24.8222
31.7304
32.2986
27.2913
18.0876
6.44143
-5.77905
-16.8396
-25.3441
-30.3748
-31.5575
-29.0512
-23.472
-15.7675
-7.06274
1.49948
8.90437
14.3791
17.4648
18.042
16.311
12.735
7.95658
2.70108
-2.3194
-6.48969
-9.35368
-10.6495
-10.3165
-8.47641
-5.39422
-1.42614
3.03698
7.62304
12.0222
16.0166
19.4932
22.4414
24.9364
27.1139
29.1381
31.1714
33.3465
35.747
38.3972
41.2608
44.2503
47.2417
50.0953
52.676
54.8739
56.6184
57.8883
58.7134
59.1695
59.3681
59.4408
59.5221
59.7316
60.1584
60.8495
61.8026
62.9649
64.2375
65.484
66.5435
67.2453
67.4242
66.935
65.6643
63.5399
60.5361
56.6761
52.0305
46.7145
40.8807
34.7122
28.4122
22.1933
16.2657
10.8243
6.03713
2.03398
-1.10236
-3.34212
-4.71084
-5.28774
-5.19988
-4.61258
-3.71671
-2.71375
-1.79991
-1.1506
-0.906609
-1.16333
-1.96408
-3.29819
-5.10415
-7.27743
-9.68209
-12.165
-14.5707
-16.7557
-18.6
-20.0152
-20.9487
-21.3831
-21.3325
-20.8357
-19.9487
-18.7361
-17.2643
-15.5963
-13.7882
-11.8881
-9.93731
-7.97168
-6.02403
-4.1263
-2.31087
-0.611006
0.939867
2.30977
3.47043
4.39971
5.08379
5.51856
5.71013
5.67412
5.43399
5.0185
4.45875
3.78514
3.0247
2.199
1.32302
0.404993
-0.552786
-1.55224
-2.59717
-3.69057
-4.83183
-6.01424
-7.22302
-8.43406
-9.61364
-10.7192
-11.7011
-12.5056
-13.0786
-13.3697
-13.3368
-12.9502
-12.1965
-11.0813
-9.63044
-7.89061
-5.92764
-3.82386
-1.67385
0.420976
2.35863
4.04332
5.39222
6.34164
6.85193
6.91066
6.53363
5.76336
4.6653
3.3219
1.8252
0.268726
-1.26052
-2.68903
-3.96189
-5.04557
-5.92797
-6.61605
-7.13119
-7.50332
-7.76452
-7.94301
-8.05843
-8.11893
-8.12034
-8.04745
-7.87711
-7.58243
-7.13769
-6.52302
-5.72828
-4.75573
-3.62105
-2.35258
-0.989096
0.423863
1.83841
3.20905
4.49722
5.67493
6.72734
7.65386
8.46765
9.19388
9.86669
10.5256
11.2114
11.9626
12.8121
13.7837
14.89
16.129
17.4819
18.9107
20.3561
21.7384
22.9602
23.9133
24.4884
24.5881
24.1414
23.1162
21.5303
19.4556
17.0161
14.3787
11.7361
9.28591
7.20605
5.63201
4.6378
4.22417
4.31585
4.76869
5.38602
5.94269
6.21364
6.00398
5.17692
3.67663
1.54417
-1.07401
-3.92417
-6.64758
-8.78419
-9.77478
-8.95995
-5.57685
1.24171
12.4566
29.0873
52.1377
82.4707
120.629
166.613
219.642
277.948
338.655
397.797
450.514
491.444
515.27
517.385
494.562
445.547
371.457
275.914
164.868
46.1069
-71.4859
-178.856
-267.753
-331.629
-366.36
-370.668
-346.224
-297.395
-230.686
-153.961
-75.5288
-3.22435
56.4096
98.7438
121.425
124.454
109.98
81.8714
45.1147
5.13765
-32.8608
-64.4925
-86.612
-97.5603
-97.2077
-86.8093
-68.7087
-45.9402
-21.7876
0.641257
18.7761
30.8421
35.9948
34.3273
26.7636
14.86
0.552048
-14.1202
-27.2703
-37.3793
-43.4424
-45.0393
-42.3255
-35.9563
-26.9571
-16.5631
-6.04985
3.42355
10.9412
15.915
18.1207
17.6877
15.0467
10.8474
5.8588
0.865718
-3.42533
-6.46068
-7.88768
-7.57363
-5.59633
-2.21054
2.20289
7.19718
12.3208
17.1716
21.4388
24.9274
27.5657
29.3956
30.5494
31.2176
31.6131
31.9379
32.3546
32.9686
33.8208
34.8913
36.1127
37.3895
38.6207
39.7211
40.6387
41.3656
41.9405
42.4435
42.9832
43.6799
44.6454
45.9641
47.6773
49.7723
52.1788
54.7722
57.3823
59.8073
61.8302
63.2356
63.8266
63.4393
61.9557
59.3144
55.5175
50.6357
44.8083
38.2386
31.1839
23.9398
16.8193
10.1285
4.14076
-0.927705
-4.93789
-7.84073
-9.68044
-10.5872
-10.7597
-10.4384
-9.87458
-9.29699
-8.88265
-8.73564
-8.87741
-9.25057
-9.73599
-10.1805
-10.4311
-10.3691
-9.93945
-9.16865
-8.16866
-7.12523
-6.27242
-5.85678
-6.09711
-7.14596
-9.05918
-11.7784
-15.1296
-18.8378
-22.5567
-25.9085
-28.5289
-30.111
-30.4418
-29.428
-27.1062
-23.6384
-19.292
-14.4093
-9.36895
-4.54492
-0.268307
3.20428
5.71236
7.20135
7.72034
7.409
6.47591
5.17145
3.75842
2.4837
1.55337
1.11336
1.23685
1.91905
3.07956
4.57218
6.20117
7.74299
8.97138
9.68358
9.72472
9.00766
7.52569
5.35624
2.65499
-0.359291
-3.42752
-6.27793
-8.65542
-10.349
-11.2142
-11.1877
-10.2932
-8.63706
-6.39612
-3.79758
-1.09497
1.4577
3.63043
5.23785
6.15403
6.32017
5.74487
4.49755
2.69623
0.491618
-1.95027
-4.46483
-6.90291
-9.14093
-11.0863
-12.6783
-13.8851
-14.6982
-15.1254
-15.1842
-14.8971
-14.2883
-13.3841
-12.2143
-10.8166
-9.23969
-7.54664
-5.81525
-4.13549
-2.60317
-1.31027
-0.332838
0.281549
0.524735
0.435075
0.0989246
-0.354427
-0.764304
-0.955523
-0.758576
-0.0304601
1.32666
3.35153
6.01667
9.22895
12.8381
16.6515
20.4537
24.0273
27.172
29.7199
31.5453
32.5689
32.7569
32.1178
30.6985
28.5811
25.8825
22.7553
19.3896
16.0115
12.8773
10.2591
8.42212
7.5942
7.93145
9.48513
12.1764
15.7854
19.9582
24.2345
28.093
31.0099
32.5229
32.291
30.1432
26.1062
20.4103
13.4709
5.84836
-1.80539
-8.80795
-14.504
-18.3111
-19.7465
-18.4295
-14.0608
-6.38139
4.8782
20.0432
39.5167
63.7603
93.2178
128.177
168.581
213.807
262.467
312.269
360.004
401.681
432.842
449.03
446.363
422.131
375.331
307.033
220.515
121.109
15.7713
-87.5979
-180.988
-257.163
-310.481
-337.529
-337.497
-312.231
-265.978
-204.837
-136.02
-66.9996
-4.67537
45.3575
79.3367
95.6132
94.662
78.8421
51.9517
18.6504
-16.1707
-47.9895
-73.1532
-89.2249
-95.1491
-91.233
-78.9622
-60.691
-39.2578
-17.58
1.71777
16.601
25.8165
28.9662
26.4652
19.4015
9.32526
-1.99866
-12.8398
-21.7209
-27.5816
-29.872
-28.5706
-24.1328
-17.3826
-9.36795
-1.20248
6.08604
11.6803
15.0583
16.032
14.7387
11.5918
7.20149
2.27786
-2.46803
-6.41345
-9.09247
-10.2375
-9.79108
-7.89035
-4.82804
-0.998537
3.16301
7.23988
10.8836
13.8492
16.0129
17.3713
18.025
18.1502
17.9636
17.687
17.5164
17.6003
18.0299
18.8405
20.0224
21.5381
23.3407
25.3899
27.6618
30.1513
32.865
35.8095
38.974
42.3146
45.7413
49.113
52.2414
54.9041
56.8659
57.9057
57.8437
56.5668
54.0469
50.35
45.6343
40.1376
34.155
28.0111
22.0283
16.4972
11.651
7.64785
4.56212
2.38553
1.03676
0.378041
0.235753
0.422307
0.756451
1.07978
1.268
1.23648
0.940275
0.369715
-0.457161
-1.5037
-2.72387
-4.07041
-5.50118
-6.98305
-8.49353
-10.02
-11.5571
-13.1031
-14.6547
-16.2034
-17.7309
-19.2072
-20.5899
-21.825
-22.8508
-23.6026
-24.0185
-24.0464
-23.649
-22.8091
-21.5315
-19.8429
-17.7893
-15.4321
-12.8427
-10.0975
-7.27438
-4.45
-1.69909
0.905377
3.29201
5.39173
7.14026
8.48266
9.37946
9.81348
9.79601
9.37087
8.61514
7.63587
6.56271
5.53693
4.69804
4.16954
4.04547
4.37938
5.17728
6.39527
7.94248
9.6888
11.4768
13.1367
14.5017
15.4243
15.7891
15.5231
14.6012
13.0468
10.9282
8.3503
5.44478
2.35825
-0.759131
-3.76395
-6.52788
-8.94378
-10.9297
-12.4309
-13.4201
-13.8967
-13.8849
-13.4308
-12.599
-11.4683
-10.1268
-8.66723
-7.18149
-5.75583
-4.46657
-3.37679
-2.53399
-1.96897
-1.69578
-1.71271
-2.00401
-2.54228
-3.29124
-4.20853
-5.24863
-6.36528
-7.51365
-8.65177
-9.74146
-10.7485
-11.6425
-12.3959
-12.9838
-13.3827
-13.5711
-13.5294
-13.2411
-12.6951
-11.8873
-10.8227
-9.51709
-7.99686
-6.29827
-4.46486
-2.54376
-0.581484
1.38036
3.30838
5.17928
6.97976
8.70448
10.3522
11.9212
13.4038
14.7828
16.0284
17.0983
17.9397
18.4937
18.701
18.5093
17.8793
16.7928
15.2584
13.3179
11.0517
8.58238
6.07526
3.7352
1.79702
0.509625
0.113392
0.812464
2.74455
5.95221
10.3603
15.7638
21.8304
28.1188
34.1135
39.2715
43.078
45.1029
45.0511
42.801
38.426
32.1961
24.5616
16.1198
7.57181
-0.325449
-6.80435
-11.1231
-12.5883
-10.5617
-4.45229
6.29984
22.2375
43.8823
71.6971
106
146.829
193.756
245.697
300.734
356.028
407.849
451.776
483.061
497.136
490.211
459.868
405.561
328.934
233.884
126.343
13.7759
-95.54
-193.375
-272.435
-327.162
-354.338
-353.412
-326.525
-278.203
-214.793
-143.705
-72.5514
-8.31172
43.3877
78.7965
96.3095
96.4673
81.7058
55.9017
23.7856
-9.69739
-39.9967
-63.4639
-77.7054
-81.7509
-76.0328
-62.1957
-42.7752
-20.7955
0.655317
18.8193
31.5861
37.7011
36.8487
29.6117
17.3234
1.83986
-14.7321
-30.3134
-43.1035
-51.7745
-55.5903
-54.4431
-48.8109
-39.6476
-28.2262
-15.9584
-4.2148
5.83274
13.3296
17.8076
19.2015
17.8162
14.2541
9.31402
3.87878
-1.19636
-5.18
-7.53674
-7.96909
-6.42776
-3.09234
1.67217
7.37537
13.4695
19.4169
24.749
29.1112
32.2907
34.2242
34.9892
34.7794
33.8702
32.5789
31.2239
30.0891
29.3959
29.2851
29.8111
30.9452
32.59
34.5987
36.7997
39.0205
41.1104
42.9573
44.4985
45.7243
46.673
47.4206
48.0645
48.7055
49.428
50.2843
51.2812
52.3739
53.4656
54.4148
55.0472
55.1736
54.6098
53.1981
50.8277
47.451
43.0955
37.8679
31.95
25.5865
19.0643
12.687
6.7454
1.48901
-2.89858
-6.31734
-8.75895
-10.3046
-11.1125
-11.3973
-11.4029
-11.3737
-11.5263
-12.0258
-12.9687
-14.3756
-16.1913
-18.2956
-20.5196
-22.6674
-24.5405
-25.9597
-26.7859
-26.9336
-26.3785
-25.1581
-23.3647
-21.1325
-18.6211
-15.9966
-13.4136
-10.9998
-8.84583
-7.0004
-5.47247
-4.23821
-3.25226
-2.46068
-1.81353
-1.27458
-0.826777
-0.472565
-0.229152
-0.12
-0.164253
-0.366329
-0.707803
-1.14327
-1.60119
-1.98981
-2.20739
-2.15537
-1.75235
-0.947045
0.271957
1.87102
3.77174
5.85688
7.98123
9.98615
11.716
13.0344
13.8384
14.0687
13.7149
12.8155
11.4515
9.73674
7.80424
5.79164
3.82723
2.01819
0.44243
-0.855416
-1.86381
-2.60039
-3.10542
-3.43359
-3.64543
-3.79931
-3.94454
-4.11608
-4.33104
-4.58705
-4.86269
-5.12005
-5.30947
-5.3762
-5.26865
-4.9473
-4.3932
-3.61486
-2.65222
-1.57686
-0.487834
0.496575
1.25066
1.65524
1.61232
1.05845
-0.0247121
-1.60416
-3.59458
-5.8629
-8.23805
-10.525
-12.5219
-14.0377
-14.9106
-15.0235
-14.3165
-12.7951
-10.5332
-7.67048
-4.40307
-0.968813
2.37341
5.36829
7.79061
9.47053
10.3144
10.3179
9.56904
8.24036
6.5696
4.83231
3.3087
2.24937
1.84442
2.1998
3.32418
5.12775
7.43316
9.99675
12.5374
14.7689
16.4326
17.3257
17.3234
16.3912
14.589
12.065
9.04064
5.78953
2.61141
-0.196158
-2.3655
-3.68388
-4.01351
-3.30506
-1.60332
0.955457
4.15427
7.71358
11.3153
14.6305
17.3486
19.2049
20.0046
19.6399
18.1001
15.4729
11.9376
7.75156
3.23283
-1.25762
-5.32981
-8.57106
-10.542
-10.7621
-8.68644
-3.68136
4.99288
18.1789
36.785
61.7012
93.6621
133.057
179.708
232.638
289.889
348.426
404.196
452.356
487.696
505.206
500.734
471.642
417.335
339.596
242.622
132.758
17.9295
-93.1558
-191.938
-270.941
-324.593
-349.827
-346.369
-316.709
-265.733
-200.101
-127.436
-55.45
8.89807
60.1005
94.585
110.939
109.868
93.9079
66.9573
33.689
-1.06909
-32.9102
-58.3158
-74.9686
-81.8886
-79.395
-68.9155
-52.6825
-33.3664
-13.6959
3.88519
17.4874
25.9459
28.8812
26.6556
20.2423
11.0323
0.611483
-9.46178
-17.8509
-23.5855
-26.1439
-25.4699
-21.9294
-16.2184
-9.23944
-1.96569
4.69016
9.98505
13.4225
14.7907
14.1614
11.8539
8.37155
4.32215
0.333732
-3.02395
-5.30258
-6.21699
-5.66233
-3.7073
-0.566647
3.44127
7.94483
12.5701
16.9859
20.9375
24.2667
26.9167
28.9232
30.3955
31.49
32.3818
33.2374
34.1918
35.3329
36.6929
38.2487
39.9289
41.6264
43.2147
44.5659
45.5669
46.1343
46.2236
45.8346
45.0108
43.8345
42.4176
40.8901
39.3871
38.0362
36.9464
36.1994
35.8438
35.8913
36.316
37.0542
38.0054
39.0352
39.9805
40.6577
40.8754
40.4509
39.2295
37.1042
34.0331
30.0502
25.2696
19.8791
14.1246
8.28778
2.65783
-2.49725
-6.95721
-10.57
-13.2642
-15.051
-16.0181
-16.3134
-16.1245
-15.654
-15.0957
-14.6143
-14.3306
-14.3139
-14.5823
-15.1091
-15.8346
-16.6797
-17.56
-18.3967
-19.1243
-19.6932
-20.0685
-20.2259
-20.1462
-19.8103
-19.196
-18.2782
-17.0322
-15.4397
-13.4968
-11.2224
-8.66406
-5.90204
-3.04799
-0.23967
2.36887
4.62045
6.36966
7.4979
7.9265
7.62637
6.62301
4.9961
2.87374
0.422043
-2.16887
-4.70081
-6.98391
-8.85165
-10.1734
-10.8632
-10.8841
-10.2488
-9.01485
-7.27768
-5.16039
-2.80231
-0.347293
2.06715
4.31905
6.30882
7.96321
9.23657
10.1095
10.5854
10.6856
10.4438
9.90049
9.09778
8.07581
6.87054
5.51356
4.03354
2.45921
0.822987
-0.835457
-2.46665
-4.01054
-5.39799
-6.55488
-7.40843
-7.89548
-7.9715
-7.61947
-6.85704
-5.74091
-4.36728
-2.8677
-1.40038
-0.137268
0.751941
1.11729
0.845806
-0.123575
-1.7891
-4.08095
-6.86267
-9.93966
-13.0743
-16.0068
-18.4792
-20.2612
-21.1734
-21.1064
-20.0328
-18.0104
-15.1766
-11.734
-7.92869
-4.02538
-0.280428
3.08241
5.89141
8.03926
9.48743
10.2626
10.4466
10.1607
9.54932
8.76181
7.93829
7.19808
6.63253
6.30151
6.23262
6.42198
6.83585
7.41259
8.06528
8.68578
9.15144
9.33519
9.11939
8.41294
7.1698
5.40636
3.21432
0.765681
-1.69293
-3.85818
-5.39983
-5.99988
-5.39655
-3.42695
-0.0617344
4.57432
10.2004
16.3985
22.6508
28.3937
33.0794
36.2389
37.5373
36.8144
34.1057
29.6403
23.8189
17.1731
10.3166
3.89262
-1.46958
-5.18518
-6.72468
-5.60519
-1.36544
6.46734
18.4068
35.0179
56.892
84.573
118.429
158.47
204.143
254.125
306.176
357.103
402.868
438.876
460.421
463.26
444.231
401.823
336.6
251.402
151.252
42.9732
-65.4522
-165.714
-250.076
-312.241
-348.053
-355.941
-337.065
-295.125
-235.881
-166.446
-94.4464
-27.1612
29.2495
70.3463
93.7706
99.3376
88.8696
65.8056
34.6542
0.365317
-32.2936
-59.2833
-77.7
-86.0073
-84.0804
-73.074
-55.1484
-33.0999
-9.95089
11.4459
28.7412
40.3269
45.4565
44.2468
37.5728
26.8785
13.9383
0.601714
-11.443
-20.8605
-26.7942
-28.9196
-27.4243
-22.9266
-16.3485
-8.76537
-1.25261
5.25033
10.0436
12.7286
13.2253
11.7474
8.74342
4.81549
0.628101
-3.1805
-6.07361
-7.67015
-7.77343
-6.37407
-3.62967
0.17346
4.66965
9.46725
14.199
18.5642
22.3582
25.4882
27.9739
29.9347
31.5656
33.1053
34.7991
36.8616
39.4427
42.6023
46.2957
50.3721
54.5886
58.6367
62.1795
64.8947
66.5183
66.882
65.9406
63.7839
60.6325
56.8166
52.7408
48.8395
45.5275
43.1525
41.9555
42.0419
43.3683
45.7451
48.8542
52.2796
55.5486
58.1781
59.7231
59.8219
58.2334
54.864
49.7794
43.201
35.4853
27.0904
18.5297
10.3202
2.93021
-3.2677
-8.03274
-11.2765
-13.0659
-13.6085
-13.2226
-12.2949
-11.2331
-10.4184
-10.1634
-10.6812
-12.068
-14.3009
-17.2506
-20.7051
-24.4018
-28.0616
-31.4211
-34.258
-36.4069
-37.7654
-38.2903
-37.9874
-36.8974
-35.0818
-32.6112
-29.5577
-25.9935
-21.9925
-17.6365
-13.0215
-8.26367
-3.5015
1.10587
5.38589
9.16417
12.2795
14.6002
16.039
16.5644
16.2074
15.0603
13.2699
11.0239
8.53318
6.01199
3.65785
1.63457
0.059714
-1.00213
-1.53971
-1.58976
-1.22698
-0.551134
0.32691
1.29844
2.26789
3.16047
3.9258
4.53732
4.98805
5.2834
5.43279
5.44141
5.30407
5.00231
4.50561
3.77679
2.78059
1.49421
-0.0823452
-1.9181
-3.94678
-6.06767
-8.15182
-10.0534
-11.6243
-12.7314
-13.2721
-13.1882
-12.4748
-11.1835
-9.41949
-7.33263
-5.10395
-2.9288
-0.998837
0.51511
1.47773
1.79979
1.44386
0.424787
-1.19462
-3.31194
-5.7963
-8.50091
-11.2755
-13.9777
-16.4817
-18.6842
-20.5075
-21.8999
-22.8329
-23.2984
-23.3045
-22.8708
-22.0255
-20.8019
-19.2364
-17.3676
-15.2352
-12.8807
-10.347
-7.6798
-4.92812
-2.14512
0.611561
3.28006
5.79541
8.09168
10.1052
11.7789
13.0667
13.9388
14.3854
14.4195
14.0769
13.4147
12.5061
11.4335
10.2799
9.12034
8.01343
6.99632
6.08226
5.26255
4.51225
3.79909
3.09388
2.38073
1.66507
0.977721
0.3742
-0.0712405
-0.276008
-0.162682
0.326359
1.21546
2.48559
4.06931
5.8521
7.68008
9.37348
10.7445
11.6171
11.8469
11.3384
10.0582
8.04173
5.39479
2.28904
-1.04646
-4.33517
-7.26185
-9.47724
-10.5967
-10.1922
-7.7782
-2.79535
5.40258
17.5502
34.4491
56.9124
85.6636
121.187
163.534
212.109
265.47
321.187
375.822
425.061
464.025
487.747
491.769
472.789
429.243
361.743
273.27
169.072
56.2642
-56.8442
-161.605
-249.965
-315.359
-353.431
-362.497
-343.699
-300.81
-239.746
-167.844
-93.0006
-22.7842
36.3618
79.7442
104.801
111.211
100.732
76.8138
44.0456
7.51591
-27.828
-57.7453
-79.131
-90.268
-90.8904
-82.0643
-65.9211
-45.2865
-23.2623
-2.81426
13.5822
24.2032
28.2188
25.7131
17.5884
5.37816
-9.00052
-23.5189
-36.2969
-45.8207
-51.0962
-51.7232
-47.8916
-40.3052
-30.0504
-18.4312
-6.7932
3.64064
11.9032
17.373
19.8133
19.3616
16.475
11.8432
6.28261
0.626557
-4.37473
-8.13346
-10.2754
-10.6601
-9.37055
-6.67737
-2.98472
1.23416
5.5024
9.39824
12.6009
14.9191
16.3018
16.83
16.6941
16.1608
15.533
15.1096
15.1495
15.8432
17.2947
19.5152
22.4289
25.8878
29.6946
33.6288
37.4735
41.0376
44.173
46.7832
48.8234
50.2947
51.2324
51.6921
51.7357
51.42
50.7888
49.8697
48.6746
47.2041
45.454
43.4221
41.1134
38.5448
35.7454
32.7558
29.6252
26.4073
23.1573
19.9284
16.7705
13.729
10.8446
8.15315
5.68377
3.45772
1.48569
-0.234338
-1.71851
-2.9967
-4.10992
-5.10538
-6.02978
-6.9217
-7.80429
-8.67972
-9.52631
-10.2992
-10.935
-11.3595
-11.4985
-11.2899
-10.696
-9.71381
-8.38185
-6.78298
-5.04116
-3.31292
-1.77359
-0.59962
0.0513459
0.0602663
-0.635894
-2.03159
-4.04687
-6.52946
-9.26517
-11.9958
-14.4426
-16.3337
-17.4314
-17.5568
-16.6096
-14.58
-11.5519
-7.69617
-3.25657
1.47264
6.17322
10.5316
14.2666
17.1534
19.0412
19.8639
19.6409
18.4713
16.5194
13.9959
11.1351
8.1723
5.32225
2.76188
0.618328
-1.03688
-2.1874
-2.86599
-3.14407
-3.11849
-2.89726
-2.58602
-2.27681
-2.0402
-1.92136
-1.94011
-2.09433
-2.36564
-2.72595
-3.14356
-3.58753
-4.03007
-4.44666
-4.81489
-5.11289
-5.31864
-5.41088
-5.37229
-5.19439
-4.88321
-4.4643
-3.9853
-3.51461
-3.13553
-2.9361
-2.99584
-3.37167
-4.08522
-5.11435
-6.39044
-7.80254
-9.20816
-10.4494
-11.3722
-11.8463
-11.7824
-11.1446
-9.95697
-8.30124
-6.30838
-4.14339
-1.98619
-0.0107971
1.6344
2.84288
3.56087
3.79166
3.59313
3.06909
2.35579
1.60545
0.969182
0.581286
0.546854
0.933879
1.77033
3.04596
4.71795
6.71917
8.96751
11.3749
13.8545
16.3253
18.7133
20.9493
22.9644
24.6844
26.0257
26.8926
27.1816
26.7883
25.6224
23.6242
20.7851
17.1649
12.9046
8.23048
3.44671
-1.08461
-4.97488
-7.84947
-9.39237
-9.38923
-7.76254
-4.5932
-0.12431
5.25488
11.0441
16.683
21.6117
25.3341
27.4763
27.8311
26.3847
23.3215
19.0054
13.9432
8.7336
4.01056
0.391473
-1.56262
-1.36685
1.39099
7.07626
16.0492
28.711
45.5371
67.0792
93.9186
126.557
165.245
209.766
259.202
311.736
364.547
413.848
455.095
483.396
494.056
483.221
448.517
389.574
308.35
209.169
98.4567
-15.8272
-124.989
-220.533
-295.108
-343.337
-362.415
-352.406
-316.194
-259.098
-188.216
-111.575
-37.2178
27.6821
77.5459
108.892
120.562
113.655
91.2115
57.6876
18.3124
-21.5936
-57.2467
-84.9072
-102.211
-108.303
-103.774
-90.4288
-70.926
-48.3561
-25.808
-5.98415
9.09379
18.2608
21.2571
18.6559
11.6929
2.03052
-8.50799
-18.1954
-25.6176
-29.8268
-30.4176
-27.5252
-21.7519
-14.0406
-5.51604
2.68211
9.55205
14.3496
16.6628
16.4364
13.9478
9.742
4.53947
-0.870459
-5.73392
-9.42246
-11.4984
-11.7501
-10.1953
-7.05625
-2.71225
2.36217
7.66389
12.7241
