74.1035
60.0124
43.9731
26.4947
8.27034
-9.87762
-27.0723
-42.4691
-55.3412
-65.1552
-71.6238
-74.7303
-74.7231
-72.0784
-67.4401
-61.5427
-55.1284
-48.8695
-43.3039
-38.7918
-35.4971
-33.3934
-32.2927
-31.89
-31.8181
-31.704
-31.2196
-30.1217
-28.2767
-25.6683
-22.39
-18.6235
-14.6088
-10.6084
-6.8732
-3.61075
-0.961851
1.01493
2.34937
3.15714
3.62951
4.01639
4.60373
5.68662
7.5395
10.3856
14.3678
19.5248
25.775
32.9109
40.6088
48.4514
55.9658
62.6737
68.1495
72.0818
74.3315
74.9807
74.3627
73.067
71.913
71.8866
74.0403
79.3615
88.6193
102.206
119.998
141.248
164.554
187.892
208.75
224.347
231.912
229.022
213.925
185.831
145.11
93.3687
33.3939
-31.0611
-95.6066
-155.641
-206.815
-245.482
-269.076
-276.373
-267.605
-244.409
-209.629
-166.989
-120.676
-74.9011
-33.4736
0.556635
25.1496
39.3979
43.5165
38.7083
26.9328
10.6105
-7.69546
-25.5812
-41.0545
-52.7109
-59.8218
-62.3305
-60.7682
-56.1062
-49.5706
-42.4448
-35.8869
-30.7834
-27.6535
-26.613
-27.3961
-29.4274
-31.93
-34.0527
-34.9978
-34.1324
-31.0691
-25.7089
-18.2414
-9.10674
1.07421
11.5893
21.7321
30.8921
38.6278
44.7128
49.1512
52.1622
54.1369
55.5749
57.0106
58.9391
61.7511
65.686
70.8065
76.9991
83.996
91.4171
98.8225
105.77
111.868
116.818
120.443
122.693
123.637
123.44
122.324
120.528
118.27
115.714
112.945
109.96
106.676
102.942
98.5654
93.3491
87.121
79.7683
71.2636
61.6818
51.2057
40.1189
28.788
17.6329
7.0913
-2.42051
-10.5461
-17.0217
-21.7002
-24.5631
-25.72
-25.3947
-23.9005
-21.6069
-18.9025
-16.1569
-13.688
-11.7358
-10.4472
-9.87107
-9.96563
-10.6139
-11.6468
-12.869
-14.0854
-15.124
-15.8536
-16.1937
-16.1173
-15.6466
-14.8428
-13.7918
-12.5895
-11.3268
-10.0781
-8.89375
-7.79649
-6.78317
-5.82974
-4.89906
-3.9497
-2.94456
-1.85781
-0.679436
0.583014
1.90555
3.25107
4.57413
5.82642
6.96201
7.94181
8.73696
9.33105
9.72128
9.91897
9.94957
9.85267
9.68209
9.50681
9.41307
9.50878
9.93066
10.8542
12.5045
15.1645
19.1746
24.9175
32.7817
43.1013
56.0742
71.6653
89.5101
108.836
128.425
146.625
161.448
170.721
172.315
164.408
145.76
115.95
75.554
26.2081
-29.4454
-87.943
-145.299
-197.387
-240.36
-271.056
-287.339
-288.327
-274.489
-247.577
-210.433
-166.668
-120.266
-75.1715
-34.886
-2.14577
21.304
34.8085
38.7768
34.5381
24.1086
9.90064
-5.58579
-20.0528
-31.6426
-39.1008
-41.8528
-39.9917
-34.1886
-25.5428
-15.3971
-5.1417
3.96509
10.9424
15.1817
16.4867
15.0563
11.4224
6.35066
0.724421
-4.57495
-8.77429
-11.2904
-11.7794
-10.152
-6.55488
-1.32579
5.06969
12.1104
19.29
26.1781
32.4636
37.9792
42.703
46.7426
50.3021
53.6411
57.0295
60.7057
64.8427
69.526
74.7445
80.3958
86.302
92.234
97.9405
103.177
107.728
111.433
114.186
115.944
116.72
116.565
115.553
113.764
111.265
108.095
104.262
99.7431
94.4877
88.4385
81.5491
73.8081
65.2598
56.0209
46.2877
36.3328
26.4896
17.1267
8.61359
1.28368
-4.60203
-8.88477
-11.5273
-12.6198
-12.3716
-11.0889
-9.14185
-6.92513
-4.81622
-3.13697
-2.12288
-1.90337
-2.49498
-3.80771
-5.66311
-7.82136
-10.0137
-11.9758
-13.479
-14.3547
-14.5102
-13.9352
-12.698
-10.9327
-8.82016
-6.5649
-4.37098
-2.41988
-0.852755
0.241235
0.829596
0.934224
0.623047
-0.00286195
-0.824751
-1.72208
-2.58684
-3.33463
-3.91143
-4.29562
-4.49552
-4.54314
-4.48559
-4.37536
-4.26104
-4.17971
-4.15176
-4.17888
-4.24501
-4.32007
-4.36566
-4.34183
-4.2139
-3.95828
-3.56658
-3.04744
-2.42591
-1.74056
-1.03882
-0.371168
0.214872
0.68027
0.99876
1.1594
1.16717
1.0416
0.813803
0.522286
0.208207
-0.0892707
-0.336936
-0.51032
-0.595025
-0.586563
-0.488873
-0.311897
-0.0686836
0.227447
0.565241
0.937009
1.33916
1.77177
2.23752
2.74014
3.28291
3.86745
4.493
5.15625
5.85168
6.57198
7.30844
8.05095
8.78748
9.50315
10.179
10.7911
11.3102
11.7024
11.9308
11.9589
11.7542
11.2925
10.5616
9.56498
8.32302
6.87356
5.26999
3.57789
1.87027
0.221977
-1.29616
-2.62273
-3.71014
-4.52775
-5.06329
-5.32268
-5.32832
-5.11607
-4.7312
-4.22368
-3.64303
-3.03314
-2.42685
-1.84037
-1.26668
-0.667342
0.0382264
0.986266
2.38432
4.52662
7.80472
12.7066
19.7959
29.6632
42.8438
59.7022
80.2929
104.216
130.497
157.523
183.067
204.416
218.617
222.808
214.604
192.488
156.133
106.606
46.4083
-20.6648
-89.8507
-155.885
-213.555
-258.278
-286.609
-296.631
-288.166
-262.783
-223.598
-174.907
-121.685
-69.0336
-21.6288
16.7492
43.5621
57.6953
59.4662
50.4674
33.2758
11.0722
-12.7771
-35.1227
-53.372
-65.732
-71.3331
-70.2307
-63.2962
-52.0198
-38.2588
-23.9673
-10.9412
-0.608944
6.10973
8.86847
7.88012
3.83417
-2.23722
-9.12297
-15.603
-20.603
-23.3153
-23.2755
-20.3883
-14.9057
-7.36414
1.50706
10.8916
19.9919
28.1216
34.7747
39.6656
42.7379
44.1445
44.2048
43.347
42.0429
40.7465
39.8405
39.5988
40.1661
41.5552
43.6615
46.2893
49.1864
52.0828
54.7261
56.9131
58.5109
59.4691
59.8202
59.6694
59.1765
58.5308
57.9222
57.5127
57.4107
57.651
58.1837
58.8732
59.5088
59.8253
59.5336
58.3564
56.0656
52.5173
47.6784
41.6407
34.6218
26.9491
19.031
11.317
4.25142
-1.77188
-6.45081
-9.60567
-11.1968
-11.3279
-10.2344
-8.26005
-5.82318
-3.37659
-1.36497
-0.183507
-0.141576
-1.43464
-4.1271
-8.14756
-13.2971
-19.2695
-25.682
-32.1122
-38.1385
-43.3796
-47.5277
-50.3739
-51.8223
-51.891
-50.7022
-48.4614
-45.4292
-41.8896
-38.1175
-34.351
-30.7695
-27.4812
-24.5201
-21.8525
-19.391
-17.014
-14.5879
-11.9885
-9.11969
-5.92602
-2.39993
1.41856
5.44787
9.57567
13.6725
17.6061
21.2543
24.5154
27.3144
29.6051
31.3685
32.6077
33.3417
33.598
33.4059
32.7925
31.7797
30.3842
28.6199
26.5007
24.0453
21.2808
18.2454
14.9902
11.5781
8.08181
4.57917
1.14821
-2.13885
-5.22108
-8.05335
-10.6092
-12.8818
-14.8826
-16.6382
-18.1857
-19.5666
-20.8212
-21.9827
-23.0733
-24.1005
-25.0571
-25.9217
-26.6613
-27.2359
-27.6033
-27.724
-27.5669
-27.1124
-26.3561
-25.3093
-23.9991
-22.4657
-20.7599
-18.9381
-17.0582
-15.1752
-13.3373
-11.5837
-9.94267
-8.43154
-7.0579
-5.82123
-4.71534
-3.73084
-2.85733
-2.08522
-1.40675
-0.816515
-0.311353
0.110161
0.448477
0.703948
0.87768
0.972248
0.992214
0.944407
0.837962
0.684125
0.495851
0.287213
0.0726777
-0.133713
-0.319179
-0.472997
-0.587173
-0.656928
-0.680951
-0.661371
-0.603453
-0.515035
-0.405726
-0.285942
-0.165783
-0.0537996
0.0443282
0.127166
0.198843
0.270187
0.359467
0.492574
0.702427
1.0275
1.50939
2.18959
3.10542
4.28559
5.74564
7.4837
9.47714
11.6807
14.0263
16.4257
18.775
20.9614
22.8717
24.4019
25.4664
26.0061
25.9946
25.4412
24.3908
22.9207
21.134
19.1513
17.1012
15.1111
13.2988
11.7667
10.5974
9.85257
9.57435
9.78939
10.5167
11.7799
13.6247
16.1405
19.4851
23.9062
29.7513
37.4586
47.5171
60.3928
76.4205
95.672
117.821
142.034
166.91
190.509
210.473
224.24
229.35
223.774
206.249
176.547
135.635
85.6856
29.938
-27.5967
-82.5415
-130.624
-168.146
-192.4
-201.958
-196.824
-178.398
-149.299
-113.033
-73.5817
-34.9503
-0.737496
26.226
44.127
52.2857
51.1333
42.0627
27.1807
8.99836
-9.89816
-27.1545
-40.8984
-49.908
-53.6847
-52.4313
-46.9469
-38.4592
-28.4211
-18.3009
-9.39219
-2.66494
1.32648
2.4738
1.0858
-2.19034
-6.48205
-10.8211
-14.2717
-16.0426
-15.5696
-12.5633
-7.02026
0.800258
10.4273
21.2471
32.5814
43.7635
54.2049
63.4464
71.1884
77.3001
81.8098
84.8783
86.7615
87.7674
88.2131
88.3875
88.522
88.7732
89.217
89.8538
90.6222
91.4189
92.1207
92.6057
92.7711
92.5448
91.8912
90.809
89.3231
87.4722
85.2942
82.8108
80.0172
76.8763
73.3208
69.263
64.6121
59.2954
53.2811
46.5976
39.3473
31.7097
23.9341
16.3209
9.19516
2.87322
-2.37058
-6.33448
-8.91201
-10.1042
-10.0195
-8.86172
-6.90718
-4.47482
-1.89237
0.536737
2.56205
4.00713
4.78099
4.87912
4.37481
3.40243
2.13523
0.760673
-0.543838
-1.63203
-2.40472
-2.81919
-2.89143
-2.69142
-2.33223
-1.95459
-1.70864
-1.7352
-2.14872
-3.02388
-4.3874
-6.21585
-8.43959
-10.9521
-13.6237
-16.3164
-18.9005
-21.2678
-23.342
-25.0843
-26.4937
-27.6035
-28.4725
-29.1755
-29.7915
-30.3932
-31.0386
-31.7646
-32.5839
-33.4853
-34.4356
-35.3839
-36.2665
-37.0133
-37.5526
-37.8171
-37.7483
-37.3001
-36.4425
-35.1633
-33.4694
-31.3869
-28.9605
-26.2512
-23.3332
-20.2897
-17.2078
-14.1732
-11.2638
-8.54552
-6.06764
-3.8607
-1.93595
-0.286956
1.10699
2.27605
3.25427
4.07406
4.76156
5.33341
5.79552
6.1438
6.3668
6.44985
6.38002
6.15124
5.76884
5.25285
4.63959
3.9812
3.34336
2.8015
2.43618
2.3286
2.55699
3.19475
4.31077
5.97271
8.25355
11.2418
15.0553
19.858
25.8765
33.4123
42.842
54.5986
69.1236
86.7867
107.775
131.959
158.764
187.067
215.155
240.773
261.268
273.846
275.889
265.326
240.976
202.83
152.199
91.7187
25.1727
-42.8337
-107.327
-163.485
-207.156
-235.311
-246.378
-240.392
-218.975
-185.128
-142.865
-96.7561
-51.4123
-11.0026
21.1612
42.9145
53.3814
52.96
43.1643
26.3507
5.37073
-16.8029
-37.4317
-54.3062
-65.9523
-71.7304
-71.8257
-67.1393
-59.1027
-49.4426
-39.9297
-32.1412
-27.2667
-25.9741
-28.3498
-33.9142
-41.7054
-50.4179
-58.577
-64.726
-67.6048
-66.2987
-60.3406
-49.7587
-35.0633
-17.1793
2.66798
23.0974
42.7297
60.3389
74.9803
86.0809
93.4822
97.434
98.5399
97.6654
95.82
94.0294
93.2129
94.0821
97.0695
102.295
109.571
118.446
128.267
138.275
147.693
155.812
162.066
166.084
167.705
166.983
164.153
159.586
153.734
147.065
140.006
132.905
125.995
119.385
113.068
106.939
100.828
94.5359
87.8723
80.6881
72.9017
64.5153
55.6212
46.396
37.0864
27.9864
19.409
11.6565
4.99073
-0.391899
-4.37919
-6.95342
-8.19249
-8.26198
-7.39951
-5.89324
-4.05697
-2.20459
-0.626527
0.429619
0.772606
0.274488
-1.12878
-3.44201
-6.61903
-10.5727
-15.1849
-20.3155
-25.8094
-31.5019
-37.2231
-42.8018
-48.0696
-52.8659
-57.0436
-60.476
-63.0623
-64.7336
-65.4556
-65.2303
-64.0936
-62.1104
-59.3682
-55.9689
-52.0202
-47.6291
-42.8961
-37.9126
-32.7603
-27.5127
-22.2375
-16.9999
-11.8648
-6.89803
-2.16522
2.27074
6.3543
10.0428
13.3124
16.1625
18.6187
20.7321
22.5756
24.2362
25.8046
27.3624
28.9691
30.6491
32.3825
34.0996
35.6807
36.9639
37.7584
37.8654
37.1018
35.3268
32.4656
28.5278
23.6179
17.9342
11.7567
5.42469
-0.693824
-6.23742
-10.8864
-14.394
-16.6097
-17.4918
-17.1083
-15.6261
-13.2902
-10.3957
-7.25604
-4.17162
-1.40151
0.857883
2.4859
3.44143
3.75769
3.52949
2.89488
2.01397
1.04757
0.138092
-0.605122
-1.11486
-1.36881
-1.38644
-1.22076
-0.946538
-0.646708
-0.398656
-0.262138
-0.270064
-0.423054
-0.688203
-1.00205
-1.2774
-1.41335
-1.3076
-0.869999
-0.0360051
1.22153
2.88358
4.88077
7.09453
9.36426
11.4999
13.2991
14.5663
15.1332
14.8755
13.7265
11.6829
8.8045
5.206
1.04353
-3.50282
-8.24716
-13.0138
-17.6481
-22.0209
-26.0244
-29.5603
-32.521
-34.7671
-36.1031
-36.2551
-34.8576
-31.4517
-25.5045
-16.4525
-3.77595
12.898
33.6694
58.2316
85.7531
114.804
143.351
168.855
188.458
199.279
198.761
185.052
157.335
116.08
63.1493
1.72738
-63.9149
-128.818
-187.838
-236.197
-270.009
-286.714
-285.354
-266.67
-233.004
-188.01
-136.228
-82.5797
-31.8257
11.9192
45.5788
67.3653
76.8681
74.9803
63.6841
45.7291
24.2517
2.38371
-17.1019
-32.0694
-41.1971
-44.0409
-40.9874
-33.1139
-21.9809
-9.38807
2.87221
13.2351
20.5329
24.0989
23.7998
20.0012
13.4753
5.26986
-3.44275
-11.5161
-17.9615
-22.048
-23.3608
-21.8164
-17.6377
-11.2945
-3.42263
5.26871
14.0873
22.4371
29.8769
36.1552
41.2193
45.1999
48.3767
51.129
53.8797
57.0388
60.9513
65.8574
71.8651
78.9396
86.9086
95.482
104.283
112.887
120.863
127.817
133.424
137.457
139.803
140.463
139.551
137.265
133.867
129.646
124.883
119.816
114.612
109.352
104.018
98.511
92.6649
86.2866
79.1945
71.2615
62.4512
52.8432
42.6422
32.1687
21.8328
12.0928
3.40569
-3.82466
-9.29454
-12.836
-14.4363
-14.2399
-12.5308
-9.70084
-6.20558
-2.5153
0.933628
3.78085
5.7733
6.78239
6.80605
5.95647
4.43599
2.50478
0.444776
-1.47553
-3.03154
-4.06498
-4.49633
-4.32687
-3.63071
-2.539
-1.21867
0.151134
1.40186
2.39497
3.03587
3.28118
3.13912
2.66354
1.94297
1.08656
0.208772
-0.584969
-1.2102
-1.61153
-1.76648
-1.68489
-1.40456
-0.983931
-0.493109
-0.00438199
0.416574
0.71785
0.86619
0.849255
0.675289
0.37047
-0.0255171
-0.465015
-0.898312
-1.27926
-1.57002
-1.74451
-1.79028
-1.70888
-1.51458
-1.23198
-0.892631
-0.531213
-0.181661
0.126337
0.370104
0.535755
0.618847
0.62393
0.563122
0.453954
0.316821
0.17236
0.0390783
-0.0685538
-0.141477
-0.176961
-0.179254
-0.160178
-0.13972
-0.146527
-0.217947
-0.399184
-0.741074
-1.2962
-2.11331
-3.23036
-4.66689
-6.41678
-8.44257
-10.6725
-13.0013
-15.2955
-17.4029
-19.1654
-20.4347
-21.0877
-21.0413
-20.263
-18.7767
-16.663
-14.0532
-11.1168
-8.04632
-5.03819
-2.27437
0.0943509
1.96095
3.26947
4.01635
4.24597
4.04139
3.5117
2.7777
1.95794
1.15658
0.454396
-0.0963252
-0.472892
-0.679623
-0.742378
-0.701229
-0.60245
-0.490927
-0.403922
-0.366821
-0.39116
-0.474873
-0.604427
-0.758293
-0.91112
-1.03794
-1.11787
-1.13685
-1.08916
-0.97771
-0.813135
-0.611932
-0.394023
-0.180041
0.0112945
0.165419
0.273559
0.333624
0.350293
0.334349
0.301388
0.270125
0.26055
0.292193
0.382682
0.546702
0.795333
1.13571
1.57087
2.09974
2.71711
3.4137
4.17632
4.98812
5.8293
6.67811
7.51244
8.31186
9.05995
9.74661
10.3701
10.9381
11.4679
11.9851
12.5211
13.1097
13.7835
14.5701
15.4899
16.5552
17.7722
19.146
20.6896
22.4369
24.4608
26.8941
29.9526
33.9543
39.3288
46.6068
56.382
69.2363
85.6283
105.752
129.384
155.746
183.412
210.308
233.807
250.949
258.755
254.616
236.691
204.268
157.998
99.9932
33.7179
-36.2891
-104.857
-166.727
-217.126
-252.302
-269.938
-269.407
-251.819
-219.863
-177.472
-129.357
-80.4561
-35.3943
1.9982
29.0476
44.4416
48.2621
41.8536
27.5559
8.34053
-12.5945
-32.2212
-48.0216
-58.2353
-61.9918
-59.3238
-51.0687
-38.6829
-23.9985
-8.95799
4.63794
15.3399
22.1955
24.8188
23.3831
18.5452
11.3173
2.90737
-5.44875
-12.6424
-17.8159
-20.4435
-20.3622
-17.7551
-13.0932
-7.04553
-0.374293
6.17322
11.9609
16.5379
19.6837
21.4204
21.9942
21.8302
21.4675
21.4847
22.4244
24.7258
28.6727
34.3632
41.7009
50.4109
60.0739
70.1756
80.164
89.5079
97.7485
104.54
109.676
113.094
114.871
115.194
114.329
112.575
110.225
107.523
104.635
101.63
98.4785
95.0597
91.1889
86.6506
81.2404
74.8052
67.2789
58.7072
49.2565
39.2064
28.9258
18.8353
9.36135
0.889788
-6.27677
-11.95
-16.0726
-18.7183
-20.0763
-20.4231
-20.0859
-19.4028
-18.685
-18.1859
-18.0795
-18.4504
-19.2952
-20.5335
-22.0266
-23.6001
-25.0675
-26.2518
-27.0021
-27.2044
-26.7856
-25.7115
-23.9805
-21.6149
-18.6523
-15.1403
-11.1341
-6.6988
-1.91482
3.11538
8.26179
13.365
18.2396
22.684
26.4954
29.4888
31.517
32.4886
32.3811
31.2467
29.21
26.4571
23.2177
19.7422
16.2769
13.0403
10.2034
7.8757
6.09883
4.84837
4.0422
3.5549
3.23575
2.92809
2.48783
1.79909
0.785544
-0.583454
-2.29211
-4.28239
-6.46229
-8.71698
-10.9214
-12.9527
-14.7018
-16.0824
-17.0371
-17.5404
-17.5984
-17.2456
-16.5396
-15.5541
-14.3714
-13.075
-11.7424
-10.4403
-9.22031
-8.11707
-7.14793
-6.31417
-5.60354
-4.99368
-4.45606
-3.96004
-3.47671
-2.98209
-2.45954
-1.90124
-1.30846
-0.690962
-0.0653371
0.547153
1.12323
1.64028
2.07889
2.4249
2.67074
2.81605
2.86721
2.83621
2.73859
2.591
2.40846
2.20189
1.976
1.72809
1.44795
1.11903
0.720961
0.23322
-0.360343
-1.06675
-1.87963
-2.77618
-3.71611
-4.64302
-5.48828
-6.17716
-6.63649
-6.80281
-6.6299
-6.09455
-5.19972
-3.97468
-2.47222
-0.763257
1.07014
2.94232
4.77114
6.48376
8.02044
9.33617
10.4004
11.1953
11.7128
11.9518
11.9159
11.6111
11.0454
10.2285
9.17268
7.8932
6.4091
4.74302
2.92062
0.969437
-1.08253
-3.20802
-5.3811
-7.5768
-9.76923
-11.9279
-14.0117
-15.9597
-17.6783
-19.0247
-19.7865
-19.661
-18.2368
-14.987
-9.28103
-0.425274
12.2599
29.3257
51.0498
77.2788
107.285
139.673
172.366
202.698
227.628
244.047
249.163
240.906
218.284
181.642
132.771
74.8298
12.0842
-50.5067
-107.818
-155.123
-188.628
-205.894
-206.105
-190.14
-160.437
-120.689
-75.3905
-29.3154
13.0178
47.8228
72.4105
85.4044
86.7885
77.7941
60.6505
38.2394
13.7024
-9.94613
-30.1565
-45.0923
-53.77
-56.0821
-52.7109
-44.9562
-34.504
-23.172
-12.6651
-4.37005
0.789313
2.42354
0.674918
-3.8523
-10.2132
-17.2748
-23.8781
-28.987
-31.8087
-31.8703
-29.049
-23.5544
-15.8717
-6.67528
3.27205
13.2204
22.5222
30.699
37.4804
42.8123
46.8368
49.8498
52.242
54.4348
56.8178
59.6958
63.2534
67.5371
72.4582
77.814
83.3215
88.6608
93.5197
97.6355
100.827
103.015
104.229
104.6
104.341
103.716
103.004
102.463
102.291
102.597
103.377
104.51
105.757
106.781
107.183
106.54
104.455
100.606
94.7946
86.9773
77.2863
66.0299
53.6737
40.8025
28.069
16.1319
5.59346
-3.0584
-9.49563
-13.579
-15.3668
-15.1041
-13.1928
-10.1484
-6.54685
-2.96928
0.0515038
2.07595
2.79128
2.03069
-0.222311
-3.84391
-8.59193
-14.1368
-20.0979
-26.0803
-31.7106
-36.6655
-40.6936
-43.6279
-45.3887
-45.9783
-45.4691
-43.9869
-41.692
-38.7612
-35.3713
-31.6868
-27.8517
-23.9856
-20.1833
-16.5174
-13.0417
-9.79533
-6.80656
-4.0953
-1.67461
0.448794
2.2745
3.80861
5.06344
6.05673
6.81001
7.34636
7.688
7.85391
7.85814
7.70904
7.40957
6.95879
6.3541
5.59418
4.68184
3.6266
2.44643
1.16848
-0.171329
-1.52971
-2.85822
-4.10596
-5.22233
-6.15943
-6.87379
-7.32694
-7.48443
-7.31303
-6.77544
-5.8222
-4.38004
-2.33655
0.478759
4.31539
9.52157
16.5568
25.989
38.4671
54.6587
75.1485
100.3
130.09
163.95
200.63
238.148
273.831
304.491
326.714
337.251
333.452
313.695
277.714
226.805
163.826
93.0032
19.5515
-50.8604
-112.718
-161.273
-193.072
-206.341
-201.163
-179.442
-144.644
-101.377
-54.8322
-10.1978
27.9092
55.911
71.59
74.2316
64.5842
44.653
17.3668
-13.8347
-45.4343
-74.2399
-97.7093
-114.166
-122.893
-124.098
-118.778
-108.502
-95.1466
-80.6289
-66.6634
-54.5723
-45.1685
-38.7173
-34.9719
-33.2721
-32.6845
-32.1628
-30.7046
-27.4856
-21.9558
-13.8902
-3.39297
9.14104
23.0968
37.7296
52.2624
65.9766
78.2865
88.7909
97.2971
103.819
108.552
111.83
114.071
115.724
117.21
118.885
121.005
123.708
127.017
130.849
135.036
139.353
143.551
147.382
150.624
153.1
154.684
155.3
154.919
153.541
151.187
147.876
143.617
138.401
132.197
124.966
116.665
107.279
96.8317
85.4172
73.21
60.474
47.5573
34.8743
22.876
12.0121
2.68816
-4.77545
-10.1775
-13.4588
-14.7105
-14.1657
-12.1776
-9.1844
-5.66758
-2.10771
1.05686
3.46382
4.8505
5.06563
4.0696
1.92472
-1.22198
-5.16045
-9.641
-14.3968
-19.164
-23.6977
-27.7845
-31.2515
-33.9706
-35.8621
-36.8944
-37.083
-36.4873
-35.2064
-33.3732
-31.1474
-28.7068
-26.2375
-23.9242
-21.9391
-20.4322
-19.5221
-19.2889
-19.7679
-20.9474
-22.7671
-25.1207
-27.8595
-30.8
-33.7325
-36.4334
-38.6786
-40.2587
-40.9956
-40.7575
-39.4727
-37.1397
-33.8311
-29.6921
-24.9309
-19.8038
-14.5939
-9.58724
-5.04778
-1.19494
1.81485
3.89981
5.05681
5.35751
4.93725
3.97834
2.68986
1.28635
-0.0322668
-1.09757
-1.7848
-2.01966
-1.77954
-1.08983
-0.0160889
1.34627
2.88378
4.47666
6.00944
7.37974
8.50456
9.32408
9.80292
9.92942
9.7134
9.18307
8.38173
7.36462
6.19608
4.94698
3.69205
2.50694
1.46474
0.63197
0.0642481
-0.197848
-0.132233
0.262532
0.966817
1.94147
3.13129
4.47016
5.88739
7.31475
8.69381
9.98322
11.1663
12.2592
13.3197
14.4584
15.8504
17.7484
20.4943
24.5244
30.3647
38.6065
49.857
64.6587
83.3776
106.068
132.33
161.187
191.013
219.542
243.981
261.237
268.252
262.389
241.852
206.043
155.814
93.5452
23.0416
-50.7803
-122.363
-186.094
-236.92
-270.919
-285.747
-280.897
-257.747
-219.38
-170.216
-115.49
-60.6686
-10.8468
29.7668
58.244
73.1585
74.6218
64.141
44.3294
18.5141
-9.70388
-36.881
-60.1035
-77.2623
-87.205
-89.7605
-85.6443
-76.2671
-63.4815
-49.3014
-35.6327
-24.0466
-15.6192
-10.8502
-9.66255
-11.4745
-15.3281
-20.0519
-24.4332
-27.3792
-28.0456
-25.9224
-20.8682
-13.096
-3.11532
8.35625
20.4988
32.4978
43.6409
53.3921
61.4371
67.6968
72.3116
75.5997
77.9982
79.9958
82.0659
84.607
87.8993
92.0785
97.1294
102.899
109.121
115.457
121.534
126.987
131.493
134.797
136.731
137.216
136.257
133.937
130.397
125.813
120.381
114.294
107.726
100.819
93.6782
86.3678
78.9182
71.3359
63.6183
55.7705
47.8208
39.8342
31.9184
24.224
16.936
10.2582
4.39327
-0.480544
-4.23107
-6.79017
-8.16496
-8.44066
-7.77462
-6.3823
-4.51696
-2.44573
-0.424925
1.3224
2.62435
3.37185
3.5231
3.1011
2.18484
0.895794
-0.618491
-2.20174
-3.70532
-5.00202
-5.99629
-6.63026
-6.88547
-6.78094
-6.36801
-5.72299
-4.93856
-4.11459
-3.34927
-2.7308
-2.33026
-2.19593
-2.34931
-2.78335
-3.46308
-4.3288
-5.30187
-6.29277
-7.21066
-7.97367
-8.51861
-8.80902
-8.84038
-8.6415
-8.2717
-7.81364
-7.36259
-7.01319
-6.84555
-6.91267
-7.23105
-7.77609
-8.48315
-9.25431
-9.96995
-10.5036
-10.7379
-10.5795
-9.9706
-8.89622
-7.38556
-5.50816
-3.36521
-1.0775
1.22826
3.43313
5.43776
7.17139
8.59691
9.71199
10.5464
11.1563
11.616
12.0088
12.4178
12.9176
13.5676
14.4082
15.4595
16.7236
18.1904
19.8468
21.6906
23.7472
26.0893
28.858
32.2813
36.6871
42.5016
50.2287
60.4016
73.5035
89.8587
109.503
132.054
156.599
181.644
205.133
224.566
237.223
240.459
232.058
210.582
175.665
128.206
70.4087
5.66745
-61.715
-126.933
-185.166
-232.085
-264.316
-279.797
-277.987
-259.908
-228.004
-185.851
-137.751
-88.2603
-41.7112
-1.78612
28.8151
48.577
57.227
55.651
45.6887
29.8397
10.9208
-8.27882
-25.308
-38.2932
-46.0877
-48.3208
-45.3501
-38.1341
-28.0455
-16.6555
-5.51834
4.02053
10.9684
14.7715
15.3371
12.9969
8.42082
2.49887
-3.79285
-9.52205
-13.911
-16.4158
-16.768
-14.9763
-11.2938
-6.15711
-0.109685
6.28002
12.4942
18.1263
22.9203
26.7864
29.7939
32.1443
34.131
36.0914
38.3587
41.2191
44.8788
49.4437
54.913
61.1855
68.0759
75.3395
82.6998
89.8764
96.6105
102.684
107.93
112.242
115.567
117.897
119.259
119.7
119.271
118.013
115.955
113.105
109.453
104.977
99.6561
93.4752
86.4435
78.6035
70.0404
60.8861
51.3183
41.5529
31.8308
22.4003
13.498
5.3289
-1.94972
-8.23954
-13.5062
-17.7774
-21.1347
-23.7002
-25.6201
-27.0483
-28.1302
-28.9904
-29.7245
-30.3958
-31.0367
-31.6537
-32.2353
-32.7606
-33.2079
-33.5619
-33.8175
-33.9814
-34.0708
-34.1082
-34.1163
-34.11
-34.0903
-34.0386
-33.9134
-33.6498
-33.1621
-32.3501
-31.1079
-29.3346
-26.947
-23.8909
-20.1521
-15.7634
-10.8081
-5.4182
0.232442
5.93931
11.4824
16.6431
21.2211
25.05
28.0086
30.0288
31.0982
31.2577
30.5948
29.2343
27.3253
25.0283
22.5025
19.8938
17.3261
14.8947
12.6632
10.6643
8.90229
7.35824
5.99652
4.77164
3.63485
2.53973
1.44651
0.324802
-0.845157
-2.07258
-3.35725
-4.69127
-6.06133
-7.4509
-8.84239
-10.2188
-11.5649
-12.8678
-14.1165
-15.3013
-16.4125
-17.4388
-18.366
-19.1756
-19.8439
-20.3427
-20.6396
-20.7
-20.4895
-19.9776
-19.1404
-17.9646
-16.4502
-14.6122
-12.4815
-10.1038
-7.53748
-4.84955
-2.111
0.608616
3.24648
5.75122
8.0868
10.2357
12.2023
14.0179
15.749
17.5096
19.4783
21.9172
25.1872
29.7529
36.1662
45.0207
56.8715
72.1198
90.8749
112.812
137.054
162.11
185.903
205.888
219.291
223.42
216.033
195.696
162.091
116.202
60.3562
-1.90873
-66.1468
-127.436
-180.898
-222.231
-248.195
-256.976
-248.391
-223.897
-186.415
-139.983
-89.2925
-39.1673
5.95615
42.4762
67.9562
81.3025
82.7786
73.8636
56.9827
35.1517
11.5813
-10.705
-29.1991
-42.1457
-48.6696
-48.7872
-43.3111
-33.6692
-21.6663
-9.22437
1.86792
10.1651
14.7138
15.1279
11.5874
4.76923
-4.27584
-14.2802
-23.9274
-32.0099
-37.5593
-39.9354
-38.8689
-34.4569
-27.1175
-17.5127
-6.45302
5.20397
16.6491
27.2003
36.359
43.8392
49.571
53.6803
56.4501
58.2698
59.58
60.8175
62.3681
64.5299
67.4892
71.3116
75.9456
81.2389
86.9622
92.8396
98.5805
103.909
108.59
112.448
115.378
117.343
118.375
118.55
117.98
116.779
115.051
112.866
110.252
107.189
103.619
99.4546
94.6042
88.9911
82.5767
75.3777
67.4763
59.0201
50.2136
41.2996
32.5344
24.1603
16.3785
9.32636
3.06365
-2.43161
-7.25597
-11.5632
-15.5391
-19.3726
-23.2263
-27.2118
-31.3729
-35.6784
-40.0262
-44.257
-48.1759
-51.5781
-54.275
-56.1172
-57.0115
-56.9299
-55.9097
-54.0455
-51.475
-48.3606
-44.8689
-41.1526
-37.335
-33.4997
-29.6877
-25.899
-22.1013
-18.2423
-14.2639
-10.1169
-5.77432
-1.24058
3.44361
8.20146
12.9255
17.4869
21.7483
25.5771
28.8592
31.5103
33.4837
34.7744
35.4179
35.4846
35.071
34.287
33.2432
32.0377
30.7462
29.415
28.0591
26.6647
25.1966
23.608
21.8521
19.893
17.7152
15.3287
12.7701
10.1002
7.39661
4.74441
2.22578
-0.0902885
-2.15614
-3.95073
-5.48117
-6.78062
-7.90286
-8.91426
-9.88437
-10.8761
-11.9369
-13.0912
-14.3358
-15.6371
-16.9307
-18.1221
-19.0878
-19.6756
-19.7021
-18.9476
-17.1484
-13.987
-9.08404
-1.99832
7.75965
20.6903
37.2378
57.6913
82.0593
109.934
140.369
171.806
202.082
228.53
248.199
258.17
255.927
239.748
209.039
164.557
108.48
44.2887
-23.522
-89.8845
-149.69
-198.343
-232.27
-249.304
-248.917
-232.244
-201.924
-161.771
-116.316
-70.2935
-28.1228
6.54275
31.1546
44.4602
46.5339
38.6548
23.0566
2.58999
-19.6575
-40.7343
-58.1477
-70.1035
-75.6408
-74.6559
-67.8242
-56.4372
-42.1837
-26.9071
-12.3685
-0.0456449
9.01366
14.2705
15.7043
13.7581
9.23447
3.15761
-3.37557
-9.33786
-13.8899
-16.4624
-16.7955
-14.9344
-11.1868
-6.04968
-0.118619
6.00718
11.8113
16.9267
21.1753
24.576
27.324
29.7447
32.2317
35.1788
38.9155
43.6566
49.4716
56.277
63.8523
71.8744
79.9657
87.7456
94.88
101.119
106.319
110.446
113.564
115.803
117.328
118.292
118.806
118.911
118.564
117.645
115.971
113.326
109.498
104.313
97.6744
89.5827
80.1549
69.6242
58.329
46.6886
35.1703
24.2492
14.3674
5.89483
-0.903409
-5.88929
-9.06214
-10.5554
-10.6206
-9.59986
-7.89054
-5.90549
-4.03325
-2.60243
-1.85383
-1.92311
-2.83511
-4.51009
-6.78043
-9.41532
-12.1504
-14.7185
-16.8788
-18.44
-19.2771
-19.3398
-18.6518
-17.3022
-15.4321
-13.215
-10.8373
-8.47854
-6.29466
-4.40529
-2.88642
-1.76849
-1.0394
-0.65178
-0.53309
-0.597176
-0.755773
-0.928694
-1.0517
-1.08146
-0.997424
-0.800738
-0.510744
-0.159726
0.213234
0.568357
0.870374
1.0921
1.21596
1.23332
1.14197
0.942417
0.633685
0.209766
-0.342573
-1.04396
-1.92024
-2.9981
-4.29889
-5.83166
-7.58629
-9.52804
-11.5946
-13.6961
-15.7193
-17.5342
-19.0047
-20.0001
-20.4068
-20.1394
-19.1481
-17.4235
-14.9965
-11.9353
-8.33848
-4.32689
-0.0338991
4.40373
8.85412
13.1968
17.3276
21.1607
24.6299
27.6875
30.3023
32.4573
34.1467
35.3735
36.1481
36.4863
36.4091
35.9425
35.1171
33.9685
32.5369
30.8662
29.0026
26.9933
24.8845
22.7193
20.536
18.3669
16.2373
14.1648
12.1595
10.2243
8.35557
6.54461
4.77909
3.04503
1.32889
-0.38042
-2.08979
-3.80068
-5.50859
-7.20333
-8.87012
-10.4914
-12.0491
-13.527
-14.9125
-16.1981
-17.3815
-18.4643
-19.4501
-20.3413
-21.1362
-21.8258
-22.392
-22.8066
-23.0322
-23.0239
-22.7324
-22.1068
-21.0963
-19.6504
-17.7152
-15.2258
-12.0931
-8.18592
-3.30944
2.81502
10.5632
20.4044
32.8711
48.4925
67.6901
90.6372
117.102
146.299
176.787
206.444
232.562
252.05
261.766
258.919
241.499
208.662
161.016
100.734
31.4721
-41.9137
-113.828
-178.518
-230.705
-266.177
-282.276
-278.196
-255.07
-215.829
-164.848
-107.44
-49.2484
4.36639
48.8884
81.0787
99.2379
103.277
94.5959
75.8068
50.3311
21.9418
-5.69777
-29.4411
-46.9678
-56.966
-59.1787
-54.3189
-43.8783
-29.8609
-14.482
0.1277
12.1772
20.4024
24.169
23.4868
18.9431
11.5708
2.67427
-6.35993
-14.2439
-19.9379
-22.7536
-22.4026
-18.9888
-12.9529
-4.97858
4.12208
13.5289
22.5224
30.5689
37.3729
42.891
47.3114
51.0011
54.4321
58.0984
62.4341
67.745
74.1629
81.6257
89.8871
98.5503
107.122
115.078
121.926
127.267
130.839
132.539
132.428
130.706
127.684
123.732
119.23
114.519
109.862
105.418
101.227
97.219
93.2288
89.0275
84.3594
78.9832
72.7097
65.4338
57.1549
47.9848
38.1408
27.927
17.7041
7.85357
-1.25934
-9.32107
-16.0974
-21.452
-25.3528
-27.8684
-29.1529
-29.424
-28.9364
-27.9536
-26.7226
-25.4515
-24.2944
-23.3425
-22.6227
-22.102
-21.6984
-21.2949
-20.757
-19.95
-18.7566
-17.0912
-14.9113
-12.2241
-9.08837
-5.6108
-1.93834
1.75403
5.27811
8.44892
11.101
13.1031
14.3697
14.8685
14.6222
13.7059
12.2386
10.3714
8.27228
6.11009
4.03924
2.18642
0.641068
-0.549826
-1.38214
-1.89064
-2.14138
-2.22162
-2.22862
-2.25876
-2.39811
-2.71525
-3.25678
-4.04546
-5.08041
-6.33876
-7.77792
-9.33785
-10.9427
-12.5022
-13.912
-15.0557
-15.8075
-16.0375
-15.6197
-14.4436
-12.4273
-9.53139
-5.77173
-1.22876
3.94881
9.54689
15.2964
20.8905
26.0071
30.3349
33.5995
35.5875
36.1653
35.2912
33.0189
29.4924
24.9332
19.6197
13.8637
7.98328
2.2775
-2.99607
-7.63827
-11.5183
-14.5767
-16.82
-18.3113
-19.1541
-19.4762
-19.4123
-19.0891
-18.6143
-18.07
-17.5106
-16.9656
-16.4443
-15.9438
-15.4561
-14.9752
-14.5013
-14.0437
-13.6196
-13.2523
-12.9664
-12.783
-12.7152
-12.7639
-12.9158
-13.1435
-13.4066
-13.6555
-13.8354
-13.8921
-13.7766
-13.4498
-12.8858
-12.074
-11.0194
-9.74181
-8.27326
-6.65481
-4.93277
-3.15484
-1.36676
0.390302
2.08138
3.67812
5.15824
6.50416
7.70126
8.73627
9.59617
10.2679
10.7392
11.0003
11.046
10.879
10.5116
9.96879
9.28909
8.52554
7.74527
7.02781
6.46188
6.1402
6.15225
6.575
7.46225
8.83372
10.6657
12.8858
15.3742
17.9743
20.5147
22.8423
24.866
26.6053
28.2384
30.1379
32.8841
37.2431
44.101
54.3486
68.7244
87.6289
110.939
137.858
166.835
195.591
221.269
240.698
250.763
248.819
233.106
203.082
159.632
105.102
43.1415
-21.6339
-84.1181
-139.272
-182.685
-211.072
-222.631
-217.229
-196.378
-163.028
-121.19
-75.4571
-30.4719
9.57603
41.3765
62.7937
73.0061
72.4833
62.8154
46.4258
26.2119
5.16285
-13.9983
-29.1062
-38.7494
-42.3575
-40.1773
-33.153
-22.7333
-10.6379
1.38526
11.7813
19.3615
23.4138
23.742
20.6371
14.7907
7.16853
-1.1375
-9.05659
-15.668
-20.2972
-22.5707
-22.4269
-20.0869
-15.9921
-10.7213
-4.8991
0.891356
6.18006
10.6594
14.2059
16.8754
18.8738
20.511
22.1455
24.1277
26.7509
30.215
34.6074
39.9015
45.9726
52.6246
59.6253
66.742
73.7727
80.5676
87.0385
93.1559
98.9332
104.404
109.591
114.484
119.011
123.028
126.319
128.605
129.568
128.885
126.271
121.512
114.507
105.296
94.0673
81.1577
67.0331
52.2513
37.4156
23.1212
9.90293
-1.81101
-11.7322
-19.7285
-25.823
-30.1746
-33.0455
-34.7583
-35.6508
-36.033
-36.1533
-36.1758
-36.1729
-36.1322
-35.9743
-35.5807
-34.8238
-33.5965
-31.8364
-29.5406
-26.7695
-23.6409
-20.3136
-16.9648
-13.7641
-10.8481
-8.29916
-6.13172
-4.28809
-2.64466
-1.0283
0.7593
2.91187
5.58752
8.88013
12.7971
17.2466
22.0354
26.8798
31.4271
35.2863
38.0655
39.4118
39.0491
36.8103
32.6603
26.7073
19.2
10.5127
1.11861
-8.44649
-17.6253
-25.8827
-32.7469
-37.8459
-40.9354
-41.9161
-40.8389
-37.8982
-33.4119
-27.7927
-21.5099
-15.0475
-8.86118
-3.33596
1.25019
4.75776
7.20986
8.8091
9.9458
11.1947
13.2956
17.1109
23.5549
33.4887
47.5845
66.1697
89.0692
115.478
143.891
172.13
197.473
216.902
227.437
226.534
212.468
184.672
143.936
92.4603
33.7137
-27.8803
-87.3989
-139.959
-181.267
-208.11
-218.716
-212.94
-192.253
-159.54
-118.738
-74.3543
-30.9521
7.35626
37.3292
56.8897
65.2636
62.9558
51.5793
33.5689
11.8222
-10.6797
-31.227
-47.6689
-58.6048
-63.4659
-62.4876
-56.5856
-47.162
-35.8723
-24.3855
-14.1698
-6.32616
-1.48703
0.214444
-0.891793
-4.10426
-8.47926
-12.9777
-16.6089
-18.5531
-18.2507
-15.4481
-10.2016
-2.84135
6.09593
15.9526
26.0428
35.7397
44.5467
52.1461
58.4218
63.4546
67.4948
70.9162
74.1585
77.665
81.8236
86.9174
93.0892
100.323
108.446
117.146
126.003
134.535
142.247
148.676
153.44
156.266
157.011
155.669
152.362
147.31
140.81
133.189
124.772
115.848
106.648
97.3282
87.9758
78.618
69.2442
59.8307
50.3658
40.8701
31.409
22.0953
13.0821
4.54896
-3.31835
-10.3485
-16.4044
-21.398
-25.2995
-28.1391
-30.0018
-31.0169
-31.3428
-31.1497
-30.6017
-29.8417
-28.9777
-28.0759
-27.1575
-26.2013
-25.1527
-23.9351
-22.4659
-20.6723
-18.5065
-15.9584
-13.0627
-9.90179
-6.6022
-3.32572
-0.256137
2.41726
4.51769
5.89861
6.45924
6.15647
5.0118
3.11243
0.606434
-2.30767
-5.39617
-8.40881
-11.0993
-13.2457
-14.6697
-15.252
-14.943
-13.7684
-11.8269
-9.28238
-6.34934
-3.27285
-0.305485
2.31722
4.39998
5.80707
6.47542
6.4199
5.72997
4.55805
3.10096
1.57669
0.199397
-0.844369
-1.41529
-1.43461
-0.889788
0.167833
1.63265
3.36012
5.18554
6.94388
8.48802
9.70343
10.5175
10.9031
10.8762
10.4884
9.81599
8.94715
7.96923
6.95755
5.96722
5.02852
4.14613
3.30179
2.45951
1.57259
0.590966
-0.53176
-1.83247
-3.33426
-5.04384
-6.95049
-9.02637
-11.2278
-13.4972
-15.7657
-17.9557
-19.9835
-21.7618
-23.2027
-24.2206
-24.7356
-24.6787
-23.9966
-22.658
-20.6599
-18.0326
-14.8432
-11.1965
-7.23212
-3.11858
0.956188
4.79666
8.21294
11.034
13.1195
14.3692
14.7291
14.1931
12.802
10.6387
7.82104
4.49472
0.824821
-3.01119
-6.82997
-10.4482
-13.6886
-16.3863
-18.3968
-19.6042
-19.9311
-19.3464
-17.8725
-15.5883
-12.6282
-9.17551
-5.45163
-1.70006
1.83197
4.91307
7.34633
8.985
9.74385
9.60492
8.61754
6.89274
4.59289
1.91752
-0.913229
-3.67629
-6.16305
-8.19496
-9.63615
-10.402
-10.463
-9.84304
-8.61384
-6.88446
-4.78868
-2.47081
-0.0720415
2.28161
4.48836
6.47607
8.20377
9.65952
10.8552
11.8194
12.5889
13.2013
13.6878
14.0688
14.3516
14.5306
14.5897
14.5061
14.2562
13.8201
13.1869
12.3582
11.35
10.1929
8.92991
7.61348
6.30087
5.04991
3.91549
2.94782
2.1935
1.69991
1.52323
1.74036
2.46413
3.8607
6.16722
9.70561
14.8872
22.2008
32.176
45.3162
61.9981
82.3452
106.089
132.442
160.018
186.826
210.361
227.811
236.356
233.536
217.641
188.048
145.461
91.9924
31.0607
-32.8937
-94.8482
-149.738
-193.023
-221.21
-232.251
-225.771
-203.1
-167.09
-121.776
-71.9005
-22.3759
22.2416
58.2147
82.9662
95.2694
95.2734
84.3734
64.9526
40.0346
12.8945
-13.323
-35.9354
-52.9702
-63.3073
-66.7103
-63.7523
-55.6574
-44.0826
-30.8741
-17.8272
-6.48002
2.0391
7.09844
8.57968
6.83107
2.56933
-3.25204
-9.58833
-15.4438
-19.9898
-22.6491
-23.1386
-21.4714
-17.9199
-12.9492
-7.1326
-1.05932
4.7516
9.92152
14.2585
17.7749
20.676
23.3222
26.1706
29.705
34.3633
40.4726
48.1986
57.5179
68.2139
79.8976
92.0492
104.074
115.37
125.384
133.674
139.944
144.066
146.078
146.17
144.645
141.88
138.275
134.209
130.001
125.885
121.988
118.335
114.851
111.38
107.713
103.611
98.8424
93.2051
86.5589
78.8438
70.0933
60.439
50.1036
39.386
28.6361
18.2248
8.50969
-0.197851
-7.66227
-13.7459
-18.421
-21.7711
-23.9801
-25.3106
-26.074
-26.5949
-27.1731
-28.0486
-29.3724
-31.1869
-33.4192
-35.8866
-38.3163
-40.3757
-41.7102
-41.985
-40.9251
-38.3496
-34.1958
-28.5307
-21.549
-13.5566
-4.94436
3.84755
12.3681
20.1933
26.9585
32.3821
36.2765
38.5482
39.1846
38.2343
35.7818
31.9247
26.7553
20.3533
12.7879
4.13179
-5.5185
-16.0183
-27.1534
-38.6266
-50.0557
-60.9873
-70.9245
-79.3668
-85.858
-90.0355
-91.6743
-90.7196
-87.3046
-81.7479
-74.5329
-66.2698
-57.6436
-49.3544
-42.0565
-36.3013
-32.4913
-30.8482
-31.3996
-33.9817
-38.2607
-43.7656
-49.9323
-56.1513
-61.8166
-66.3712
-69.3456
-70.3885
-69.2876
-65.9795
-60.55
-53.2234
-44.3437
-34.3473
-23.7303
-13.0114
-2.6945
6.76735
15.0027
21.7452
26.8478
30.2855
32.1478
32.6214
31.965
30.4793
28.4754
26.2451
24.0361
22.0344
20.3544
19.0388
18.0654
17.3615
16.8209
16.3241
15.7562
15.0226
14.0598
12.8404
11.3723
9.69353
7.86228
5.9455
4.0068
2.09604
0.24189
-1.55158
-3.30413
-5.05446
-6.85219
-8.74765
-10.781
-12.972
-15.3116
-17.7575
-20.2328
-22.63
-24.8192
-26.6597
-28.0142
-28.7632
-28.8185
-28.1336
-26.7094
-24.5944
-21.8796
-18.6867
-15.1535
-11.4137
-7.57645
-3.70315
0.215522
4.28177
8.70975
13.8378
20.1279
28.1452
38.5094
51.8132
68.5075
88.7601
112.308
138.328
165.358
191.306
213.557
229.195
235.324
229.449
209.866
176.009
128.677
70.1106
3.88721
-65.3759
-132.465
-192.119
-239.604
-271.249
-284.858
-279.956
-257.823
-221.332
-174.599
-122.501
-70.1194
-22.1945
17.3636
45.835
61.8925
65.63
58.4261
42.6711
21.4003
-2.11437
-24.7627
-43.9365
-57.7775
-65.3102
-66.4559
-61.9364
-53.0906
-41.6352
-29.404
-18.1007
-9.09383
-3.27626
-0.998507
-2.07828
-5.87668
-11.425
-17.5816
-23.1953
-27.2562
-29.0131
-28.0498
-24.3109
-18.0809
-9.92245
-0.584986
9.10249
18.3398
26.4522
32.9636
37.6401
40.5006
41.7948
41.9549
41.5276
41.0975
41.2104
42.3072
44.6749
48.4203
53.4669
59.5748
66.3786
73.4376
80.292
86.5166
91.7669
95.8119
98.5515
100.017
100.358
99.8115
98.6685
97.232
95.7762
94.51
93.548
92.8936
92.4339
91.9499
91.1399
89.6557
87.1469
83.3094
77.9322
70.9349
62.3918
52.5367
41.7483
30.5155
19.3875
8.91592
-0.405532
-8.19319
-14.2123
-18.397
-20.849
-21.8168
-21.6579
-20.7906
-19.6412
-18.5943
-17.9523
-17.9071
-18.5289
-19.7698
-21.482
-23.4461
-25.406
-27.1045
-28.3158
-28.8708
-28.6735
-27.7062
-26.0258
-23.7506
-21.0421
-18.0835
-15.0576
-12.1284
-9.42607
-7.03798
-5.00574
-3.32764
-1.96572
-0.855999
0.0795539
0.920934
1.73911
2.58719
3.49434
4.4629
5.46853
6.46332
7.38115
8.14493
8.67468
8.89577
8.7466
8.18478
7.19146
5.77324
3.96162
1.81011
-0.610729
-3.21951
-5.93089
-8.6621
-11.3383
-13.896
-16.2847
-18.4654
-20.4085
-22.0888
-23.4821
-24.5608
-25.2929
-25.6415
-25.5688
-25.0409
-24.0344
-22.5439
-20.5873
-18.2101
-15.4855
-12.5112
-9.40311
-6.28595
-3.2822
-0.501307
1.96998
4.07459
5.78857
7.1208
8.10903
8.81305
9.30599
9.66487
9.96171
10.256
10.5895
10.9835
11.4389
11.9389
12.453
12.9428
13.3683
13.6934
13.8914
13.9482
13.8658
13.6626
13.3748
13.057
12.7851
12.6609
12.8208
13.4482
14.7872
17.1563
20.9562
26.6649
34.8142
45.9392
60.498
78.764
100.698
125.821
153.109
180.94
207.126
229.034
243.809
248.682
241.326
220.209
184.899
136.267
76.5363
9.18065
-61.3549
-130.063
-191.878
-242.207
-277.424
-295.265
-295.067
-277.825
-246.057
-203.506
-154.7
-104.452
-57.3304
-17.2033
13.13
32.1552
39.701
36.8409
25.6592
8.9201
-10.3136
-29.0629
-44.7705
-55.5574
-60.3744
-59.0398
-52.1697
-41.0186
-27.2585
-12.7288
0.808173
11.8786
19.4514
23.023
22.6277
18.7816
12.3719
4.51232
-3.61613
-10.9157
-16.4976
-19.7697
-20.4781
-18.7034
-14.8162
-9.40074
-3.16016
3.18384
8.98381
13.7411
17.1549
19.1425
19.8301
19.5199
18.6379
17.6725
17.1115
17.3851
18.8221
21.6221
25.8452
31.4187
38.1563
45.7879
53.9935
62.4369
70.7968
78.7909
86.1923
92.8372
98.6251
103.512
107.502
110.626
112.936
114.483
115.306
115.42
114.813
113.439
111.225
108.078
103.899
98.6019
92.1345
84.4963
75.7566
66.0649
55.6524
44.8232
33.9344
23.3678
13.4953
4.64263
-2.94308
-9.11838
-13.8565
-17.2474
-19.4836
-20.8351
-21.6155
-22.1446
-22.7119
-23.5464
-24.7946
-26.5105
-28.6573
-31.1197
-33.7247
-36.2679
-38.5402
-40.3532
-41.5592
-42.0644
-41.834
-40.8903
-39.3037
-37.1798
-34.6441
-31.826
-28.8449
-25.7991
-22.7585
-19.7621
-16.8187
-13.9119
-11.0077
-8.06341
-5.03734
-1.8972
1.37293
4.76852
8.26343
11.8119
15.3532
18.8175
22.1332
25.2331
28.0592
30.565
32.7162
34.4878
35.8606
36.8171
37.3374
37.3968
36.9659
36.0123
34.5055
32.4229
29.7569
26.522
22.7594
18.5406
13.9667
9.16434
4.27872
-0.536677
-5.13172
-9.37166
-13.148
-16.3866
-19.0528
-21.1514
-22.7232
-23.8375
-24.5818
-25.0506
-25.3336
-25.5062
-25.6213
-25.7056
-25.7585
-25.7542
-25.6471
-25.3783
-24.8832
-24.0993
-22.9726
-21.4634
-19.5501
-17.2309
-14.5247
-11.4696
-8.12127
-4.55052
-0.84107
2.91258
6.6071
10.1325
13.3749
16.2208
18.5624
20.3046
21.3727
21.7197
21.3327
20.2363
18.4933
16.2012
13.4852
10.4884
7.36064
4.24637
1.27473
-1.44855
-3.84579
-5.86863
-7.49614
-8.73048
-9.59109
-10.1084
-10.3176
-10.2542
-9.94963
-9.42946
-8.71197
-7.80799
-6.72118
-5.44814
-3.97777
-2.28876
-0.344513
1.91546
4.5876
7.81937
11.8252
16.9
23.4253
31.8613
42.7187
56.5043
73.6375
94.3406
118.512
145.599
174.501
203.522
230.407
252.481
266.887
270.909
262.347
239.879
203.366
154.029
94.4646
28.4806
-39.2388
-103.604
-159.661
-203.142
-230.942
-241.461
-234.771
-212.586
-178.034
-135.278
-89.0226
-43.9854
-4.38455
26.4843
46.5412
55.0577
52.6268
40.9857
22.719
0.891169
-21.3463
-41.1223
-56.1494
-64.9308
-66.8587
-62.2006
-51.9857
-37.8149
-21.6224
-5.42054
8.94065
19.9734
26.6928
28.6875
26.1185
19.6532
10.3478
-0.503619
-11.5335
-21.4584
-29.2132
-34.0474
-35.578
-33.7944
-29.0219
-21.849
-13.032
-3.38954
6.3009
15.3906
23.4244
30.1751
35.6475
40.0522
43.7563
47.2174
50.9113
55.2626
60.5871
67.0515
74.6561
83.239
92.5018
102.05
111.445
120.255
128.105
134.714
139.917
143.671
146.043
147.184
147.294
146.576
145.2
143.272
140.81
137.744
133.927
129.162
123.238
115.975
107.262
97.0965
85.6033
73.043
59.8008
46.3605
33.2628
21.0564
10.245
1.23693
-5.696
-10.4459
-13.0796
-13.831
-13.0753
-11.2896
-9.00132
-6.73245
-4.94454
-3.99045
-4.07868
-5.25445
-7.3998
-10.253
-13.4447
-16.547
-19.1284
-20.8087
-21.3061
-20.4718
-18.3072
-14.9622
-10.7169
-5.9471
-1.08108
3.4486
7.25121
10.017
11.5453
11.7583
10.7013
8.52844
5.47853
1.84314
-2.06793
-5.95999
-9.58164
-12.7452
-15.3377
-17.3225
-18.7319
-19.6532
-20.2104
-20.5434
-20.7886
-21.061
-21.4408
-21.9646
-22.6228
-23.3618
-24.093
-24.7042
-25.0759
-25.0969
-24.6803
-23.7754
-22.3759
-20.5219
-18.2966
-15.8169
-13.22
-10.6482
-8.23245
-6.07787
-4.25299
-2.78363
-1.65223
-0.80269
-0.149591
0.409334
0.979433
1.65582
2.51222
3.59333
4.91133
6.44693
8.15426
9.96874
11.8165
13.624
15.3261
16.872
18.2281
19.3778
20.319
21.0598
21.6125
21.9895
22.1984
22.2402
22.1086
21.7914
21.2739
20.5425
19.5885
18.4118
17.0222
15.4402
13.6948
11.8208
9.85446
7.82881
5.77015
3.69535
1.61117
-0.484538
-2.59985
-4.74467
-6.92611
-9.14431
-11.3893
-13.6393
-15.8609
-18.0096
-20.0319
-21.8665
-23.4451
-24.6918
-25.522
-25.8389
-25.53
-24.4608
-22.4671
-19.3447
-14.8375
-8.62662
-0.324666
10.5165
24.3766
41.7077
62.8401
87.8574
116.453
147.791
180.409
212.194
240.457
262.134
274.094
273.533
258.401
227.785
182.2
123.711
55.8636
-16.5943
-88.1609
-153.156
-206.345
-243.525
-262.004
-260.896
-241.212
-205.717
-158.596
-104.956
-50.2464
0.337924
42.3943
72.7303
89.6185
92.8676
83.7149
64.5648
38.6162
9.43189
-19.4942
-45.1211
-65.1546
-78.2243
-83.934
-82.7914
-76.0374
-65.406
-52.8504
-40.2717
-29.2841
-21.0401
-16.1337
-14.5829
-15.8882
-19.1515
-23.2344
-26.9332
-29.1462
-29.0129
-26.0107
-19.9997
-11.2141
-0.206768
12.2433
25.2455
37.9179
49.4965
59.4215
67.3893
73.3677
77.5738
80.4211
82.4443
84.2151
86.2589
88.9851
92.639
97.279
102.781
108.87
115.162
121.227
126.647
131.069
134.247
136.065
136.538
135.805
134.095
131.689
128.877
125.915
122.988
120.184
117.477
114.735
111.729
108.166
103.733
98.1389
91.1651
82.7084
72.8109
61.6741
49.6536
37.2332
24.9828
13.5016
3.35777
-4.97169
-11.151
-15.02
-16.6094
-16.1339
-13.9661
-10.5935
-6.56435
-2.43072
1.30722
4.24705
6.11658
6.78983
6.28584
4.75174
2.43312
-0.363647
-3.31242
-6.10622
-8.49004
-10.284
-11.395
-11.8175
-11.6228
-10.9409
-9.93751
-8.78921
-7.66034
-6.68446
-5.95182
-5.50387
-5.33441
-5.39656
-5.61386
-5.89373
-6.14123
-6.27167
-6.22046
-5.94949
-5.4496
-4.73931
-3.86039
-2.87113
-1.83832
-0.829142
0.0961394
0.88991
1.52081
1.97505
2.25554
2.37917
2.37289
2.26919
2.1017
1.90161
1.69503
1.50182
1.33554
1.20425
1.11191
1.05965
1.04663
1.07009
1.12473
1.20127
1.28481
1.35344
1.37743
1.31973
1.1378
0.787073
0.225561
-0.580628
-1.65162
-2.98867
-4.5703
-6.35047
-8.259
-10.2047
-12.0811
-13.7743
-15.1723
-16.1753
-16.7049
-16.7122
-16.1834
-15.1418
-13.6466
-11.7885
-9.68169
-7.45459
-5.23888
-3.15881
-1.3214
0.191467
1.32842
2.07107
2.43353
2.45904
2.21433
1.78206
1.25238
0.714121
0.246819
-0.0859836
-0.241331
-0.199012
0.0388668
0.450756
1.00058
1.64408
2.33568
3.03516
3.71309
4.35433
4.95912
5.54146
6.12497
6.73689
7.40086
8.12976
8.91956
9.74529
10.5598
11.2958
11.871
12.1967
12.1877
11.7743
10.913
9.59582
7.85605
5.76959
3.45108
1.04509
-1.28695
-3.38259
-5.09511
-6.30913
-6.95306
-7.00683
-6.50379
-5.52667
-4.19791
-2.66588
-1.08845
0.383859
1.62329
2.537
3.07475
3.2315
3.04479
2.58781
1.95887
1.26901
0.628966
0.136895
-0.132165
-0.134189
0.139099
0.659015
1.3624
2.15771
2.9343
3.57421
3.96527
4.01428
3.65861
2.87491
1.68363
0.148761
-1.62749
-3.51436
-5.36561
-7.03428
-8.38733
-9.31843
-9.75711
-9.67353
-9.07813
-8.01667
-6.56142
-4.79985
-2.82238
-0.710649
1.47237
3.68973
5.93506
8.23461
10.6476
13.2662
16.2155
19.6567
23.7909
28.8658
35.1816
43.0921
52.9956
65.3081
80.4118
98.5755
119.85
143.949
170.13
197.114
223.063
245.641
262.184
269.964
266.523
250.05
219.715
175.938
120.505
56.5244
-11.8029
-79.5719
-141.679
-193.376
-230.81
-251.451
-254.389
-240.413
-211.912
-172.57
-126.93
-79.8655
-36.0419
0.579827
27.1253
42.0434
45.1743
37.6524
21.6668
0.119028
-23.774
-46.8792
-66.5015
-80.6525
-88.211
-88.9639
-83.5336
-73.2123
-59.7315
-45.0004
-30.8511
-18.8178
-9.97772
-4.86405
-3.45712
-5.24529
-9.34178
-14.6369
-19.963
-24.251
-26.6581
-26.6555
-24.0677
-19.0636
-12.105
-3.86349
4.88229
13.3527
20.8642
26.9063
31.1898
33.6639
34.5029
34.0658
32.8375
31.3595
30.1599
29.6904
30.2791
32.1009
35.1699
39.3504
44.3864
49.9413
55.6445
61.1382
66.1174
70.3609
73.7481
76.2618
77.9769
79.0374
79.6258
79.929
80.1055
80.2588
80.4195
80.5389
80.4933
80.0981
79.1294
77.3482
74.5258
70.466
65.0236
58.1166
49.734
39.9384
28.8652
16.7192
3.76841
-9.66266
-23.2033
-36.4485
-48.9747
-60.3589
-70.2019
-78.1533
-83.9381
-87.3813
-88.4271
-87.1506
-83.758
-78.5752
-72.0243
-64.5896
-56.7769
-49.0698
-41.8893
-35.5599
-30.2871
-26.1488
-23.1001
-20.9921
-19.5998
-18.6575
-17.8944
-17.068
-15.9908
-14.5474
-12.7008
-10.4885
-8.00927
-5.40347
-2.82982
-0.441136
1.63828
3.33225
4.62895
5.59432
6.38354
7.25121
8.55941
10.781
14.4929
20.3524
29.0474
41.2163
57.3335
77.5691
101.639
128.671
157.13
184.813
208.972
226.539
234.462
230.106
211.662
178.507
131.442
72.7653
6.15325
-63.6525
-131.314
-191.465
-239.308
-271.157
-284.846
-279.968
-257.896
-221.595
-175.253
-123.781
-72.2517
-25.3415
13.1439
40.62
55.9072
59.2392
52.1071
36.9712
16.8837
-4.92267
-25.4294
-42.1632
-53.4297
-58.4305
-57.2605
-50.7962
-40.5005
-28.174
-15.6892
-4.7417
3.35253
7.79349
8.35543
5.36751
-0.37383
-7.74377
-15.4573
-22.2431
-27.0015
-28.9277
-27.5888
-22.9487
-15.3434
-5.4129
5.99721
17.9501
29.5327
39.9582
48.6439
55.259
59.7385
62.2659
63.2289
63.1565
62.6464
62.2911
62.6116
64.0054
66.7124
70.8003
76.1709
82.5825
89.686
97.069
104.302
110.983
116.77
121.41
124.748
126.728
127.382
126.806
125.14
122.535
119.134
115.049
110.347
105.051
99.1397
92.5631
85.2612
77.1852
68.3182
58.6919
48.3976
37.5879
26.4714
15.3005
4.35244
-6.0908
-15.7648
-24.4422
-31.9494
-38.1774
-43.0875
-46.7107
-49.1413
-50.5262
-51.0497
-50.9167
-50.3347
-49.4966
-48.5658
-47.6654
-46.8707
-46.2078
-45.6566
-45.1583
-44.6263
-43.9591
-43.0532
-41.8157
-40.1737
-38.0808
-35.5206
-32.5065
-29.0792
-25.3021
-21.2562
-17.0336
-12.7324
-8.45109
-4.28425
-0.318623
3.37007
6.71963
9.6833
12.2311
14.3506
16.0461
17.3383
18.2614
18.8603
19.1865
19.2934
19.2317
19.0444
18.7634
18.4067
17.9776
17.4656
16.8489
16.099
15.1855
14.0816
12.77
11.246
9.52051
7.62002
5.58451
3.46367
1.31162
-0.818918
-2.88213
-4.84352
-6.68248
-8.39278
-9.98081
-11.4619
-12.8553
-14.1788
-15.4432
-16.6484
-17.7811
-18.8146
-19.7104
-20.4228
-20.9033
-21.1069
-20.9968
-20.5487
-19.7532
-18.6159
-17.1564
-15.4057
-13.4029
-11.1925
-8.8214
-6.33768
-3.78967
-1.22646
1.30109
3.73913
6.02976
8.11094
9.91751
11.3837
12.4472
13.0544
13.1662
12.7645
11.8574
10.4841
8.71679
6.66185
4.45793
2.27316
0.301135
-1.24281
-2.12419
-2.08997
-0.86682
1.8422
6.36034
13.0352
22.2267
34.2782
49.4652
67.9196
89.5323
113.847
139.962
166.474
191.472
212.632
227.389
233.206
227.895
209.961
178.905
135.444
81.5878
20.5652
-43.4267
-105.611
-161.122
-205.531
-235.345
-248.4
-244.109
-223.522
-189.2
-144.909
-95.1918
-44.8575
1.53383
40.138
68.1863
84.2048
88.073
80.9281
64.9338
42.9531
18.1671
-6.30905
-27.7705
-44.1895
-54.3798
-58.049
-55.7409
-48.6842
-38.573
-27.3107
-16.7508
-8.46466
-3.56314
-2.58812
-5.48187
-11.6322
-19.9823
-29.1883
-37.8009
-44.4496
-48.0063
-47.7101
-43.2414
-34.7397
-22.766
-8.21897
7.78424
24.0444
39.4184
52.9422
63.9255
72.0091
77.1795
79.743
80.2635
79.4754
78.1815
77.152
77.0344
78.2859
81.1346
85.5724
91.377
98.1598
105.43
112.666
119.382
125.189
129.83
133.197
135.323
136.359
136.529
136.081
135.24
134.16
132.898
131.4
129.505
126.972
123.515
118.85
112.739
105.04
95.7357
84.9535
72.9649
60.1689
47.058
34.1725
22.0473
11.1591
1.87902
-5.5624
-11.0943
-14.8062
-16.9313
-17.8131
-17.862
-17.5057
-17.1398
-17.0856
-17.5578
-18.6479
-20.322
-22.4348
-24.7556
-27.0033
-28.8859
-30.1391
-30.5586
-30.025
-28.5156
-26.1045
-22.9519
-19.2823
-15.3578
-11.4482
-7.8016
-4.62022
-2.04297
-0.136571
1.10429
1.74857
1.91398
1.74781
1.40636
1.03542
0.754091
0.643715
0.742618
1.04687
1.5163
2.08458
2.67172
3.19714
3.59178
3.80781
3.82519
3.65489
3.33968
2.95405
2.60529
2.43798
2.64309
3.47088
5.24449
8.36747
13.3164
20.609
30.74
44.0832
60.7664
80.5384
102.651
125.794
148.099
167.256
180.709
185.957
180.888
164.121
135.287
95.2065
45.9268
-9.40657
-66.8255
-121.937
-170.39
-208.358
-232.957
-242.57
-237.01
-217.525
-186.631
-147.807
-105.094
-62.6352
-24.2373
7.01549
29.0425
40.9166
42.8742
36.1911
22.9496
5.72994
-12.7306
-29.8681
-43.5738
-52.3964
-55.6477
-53.4073
-46.433
-35.9983
-23.6814
-11.1372
0.118477
8.88659
14.4063
16.41
15.1121
11.1382
5.41024
-0.994926
-6.99254
-11.6248
-14.1674
-14.1974
-11.6178
-6.63815
0.281066
8.51178
17.3559
26.1439
34.3202
41.5063
47.5337
52.4436
56.4571
59.9218
63.2432
66.8135
70.9475
75.8341
81.511
87.8635
94.6462
101.524
108.122
114.084
119.118
123.036
125.768
127.366
127.98
127.826
127.135
126.111
124.883
123.478
121.803
119.649
116.718
112.662
107.131
99.8331
90.5817
79.337
66.2282
51.5555
35.7709
19.4404
3.19237
-12.3409
-26.5807
-39.0515
-49.4171
-57.5001
-63.2832
-66.8934
-68.5741
-68.6476
-67.4748
-65.4159
-62.7973
-59.8873
-56.8815
-53.8996
-50.9916
-48.1512
-45.3349
-42.4834
-39.5409
-36.4726
-33.2757
-29.9844
-26.6679
-23.4225
-20.3592
-17.589
-15.2072
-13.2807
-11.8373
-10.8612
-10.2921
-10.0301
-9.94402
-9.8821
-9.68487
-9.19722
-8.27913
-6.81319
-4.70727
-1.89078
1.6967
6.12468
11.4969
17.9781
25.8136
35.3336
46.9273
60.982
77.7808
97.3676
119.397
143.001
166.702
188.415
205.565
215.313
214.895
202.018
175.264
134.432
80.7521
16.9324
-52.9997
-124.04
-190.708
-247.633
-290.16
-314.879
-320.027
-305.681
-273.751
-227.744
-172.354
-112.928
-54.8694
-3.0678
38.5889
67.5594
82.8199
84.8508
75.4531
57.4291
34.175
9.24072
-14.0875
-33.1348
-46.0792
-52.0702
-51.2183
-44.4726
-33.4092
-19.9662
-6.16248
6.16435
15.5701
21.1456
22.5776
20.1291
14.5508
6.94107
-1.42235
-9.25501
-15.4214
-19.056
-19.6383
-17.0188
-11.3967
-3.25917
6.70666
17.7152
28.9831
39.8173
49.6824
58.2403
65.3637
71.1227
75.7506
79.5955
83.0639
86.5642
90.4557
95.0083
100.376
106.587
113.544
121.045
128.805
136.49
143.746
150.232
155.639
159.708
162.236
163.076
162.132
159.356
154.738
148.311
140.149
130.371
119.151
106.719
93.3624
79.4201
65.2659
51.2871
37.857
25.3041
13.8843
3.75971
-5.01237
-12.478
-18.7722
-24.0939
-28.6738
-32.7399
-36.4853
-40.0438
-43.4751
-46.7624
-49.8214
-52.5188
-54.6972
-56.2025
-56.9096
-56.7434
-55.6922
-53.8112
-51.2189
-48.0838
-44.6063
-40.998
-37.4594
-34.1615
-31.2307
-28.7398
-26.7058
-25.092
-23.8164
-22.7618
-21.7897
-20.7532
-19.5107
-17.9384
-15.941
-13.4601
-10.4811
-7.03599
-3.20382
0.892965
5.09561
9.21988
13.0698
16.4532
19.1983
21.1687
22.2758
22.4868
21.8276
20.3796
18.2711
15.6643
12.7391
9.67645
6.64166
3.77158
1.16524
-1.12051
-3.07044
-4.70603
-6.07721
-7.25216
-8.30645
-9.31291
-10.3328
-11.4092
-12.5618
-13.784
-15.0414
-16.2722
-17.3901
-18.2893
-18.8531
-18.9648
-18.522
-17.4512
-15.7226
-13.3613
-10.4538
-7.14794
-3.64498
-0.183775
2.98072
5.60321
7.47447
8.44549
8.44587
7.49431
5.69974
3.25267
0.407995
-2.53917
-5.28167
-7.52979
-9.03868
-9.63121
-9.21382
-7.78398
-5.42864
-2.31417
1.33111
5.23971
9.13052
12.7344
15.8173
18.1984
19.7618
20.4614
20.318
19.4107
17.8627
15.825
13.4588
10.9193
8.34355
5.84193
3.49563
1.35861
-0.536412
-2.16969
-3.52555
-4.58448
-5.31708
-5.6799
-5.61218
-5.03177
-3.8283
-1.85227
1.09945
5.2991
11.0987
18.9278
29.2694
42.6042
59.3217
79.5975
103.253
129.619
157.431
184.793
209.239
227.902
237.794
236.167
220.922
190.987
146.624
89.5859
23.0935
-48.3824
-119.525
-184.716
-238.647
-276.923
-296.58
-296.431
-277.207
-241.47
-193.305
-137.841
-80.6583
-27.1655
17.9817
51.3466
71.0103
76.6781
69.5887
52.2509
28.0507
0.78475
-25.8166
-48.5193
-64.9188
-73.6451
-74.4234
-67.9972
-55.9336
-40.3457
-23.5729
-7.86377
4.90142
13.4162
17.0629
15.9307
10.7437
2.71565
-6.64427
-15.7448
-23.1181
-27.5923
-28.4123
-25.2987
-18.4436
-8.4495
3.77699
17.1582
30.5872
43.0605
53.7854
62.2518
68.2638
71.9286
73.611
73.8594
73.3175
72.632
72.3695
72.9515
74.6145
77.3973
81.1552
85.5962
90.3332
94.9434
99.0269
102.257
104.415
105.412
105.285
104.184
102.338
100.019
97.4974
95.0011
92.6816
90.5892
88.6635
86.7384
84.5634
81.8382
78.2571
73.5575
67.5663
60.2355
51.6643
42.1015
31.9276
21.6197
11.7025
2.69183
-4.9605
-10.9154
-14.981
-17.1296
-17.4953
-16.3535
-14.0853
-11.1314
-7.94263
-4.93178
-2.43364
-0.676408
0.232343
0.304856
-0.341397
-1.50923
-2.9543
-4.42031
-5.67229
-6.52427
-6.85821
-6.63283
-5.88191
-4.70336
-3.24109
-1.66273
-0.136406
1.19035
2.20706
2.85027
3.10646
3.008
2.62339
2.04363
1.36675
0.682887
0.0618436
-0.455452
-0.860614
-1.17656
-1.45187
-1.75194
-2.14823
-2.70733
-3.48114
-4.49936
-5.76478
-7.25166
-8.90663
-10.6514
-12.3856
-13.9892
-15.3209
-16.2148
-16.4706
-15.8425
-14.025
-10.6425
-5.24712
2.66876
13.6368
28.1489
46.5633
68.985
95.1341
124.225
154.882
185.128
212.462
234.041
246.964
248.622
237.075
211.398
171.941
120.448
60.0085
-5.1671
-70.1369
-129.728
-179.093
-214.253
-232.546
-232.937
-216.128
-184.479
-141.722
-92.5308
-41.9892
4.97495
44.113
72.2795
87.7084
90.1145
80.6183
61.5135
35.915
7.33907
-20.7297
-45.231
-63.8364
-75.142
-78.7347
-75.1328
-65.6232
-52.0227
-36.4012
-20.8046
-7.00978
3.65983
10.4436
13.1718
12.2179
8.38997
2.78137
-3.39656
-8.97607
-12.97
-14.6696
-13.6965
-10.0076
-3.85864
4.26393
13.729
23.8527
33.9839
43.5727
52.2167
59.6836
65.9092
70.977
75.0839
78.4992
81.5224
84.446
87.5243
90.9532
94.8578
99.2895
104.229
109.592
115.245
121.007
126.667
131.989
136.72
140.601
143.372
144.786
144.618
142.679
138.832
133.001
125.187
115.476
104.042
91.1489
77.1391
62.4241
47.4622
32.7331
18.7084
5.82005
-5.56997
-15.1957
-22.9061
-28.6745
-32.597
-34.8792
-35.8124
-35.7426
-35.0338
-34.0306
-33.0251
-32.2304
-31.7647
-31.6476
-31.8083
-32.1049
-32.3509
-32.3467
-31.9099
-30.9021
-29.2482
-26.9458
-24.0647
-20.7371
-17.1394
-13.4693
-9.92075
-6.66049
-3.80898
-1.428
0.48351
1.98518
3.18325
4.2128
5.21651
6.32284
7.62633
9.17262
10.9497
12.887
14.8613
16.7101
18.2494
19.2941
19.6792
19.2776
18.0144
15.8744
12.9044
9.20778
4.93519
0.270921
-4.5822
-9.4178
-14.0392
-18.2702
-21.9624
-25.0002
-27.3031
-28.8264
-29.5607
-29.5305
-28.7923
-27.4314
-25.5576
-23.2998
-20.7986
-18.1982
-15.6375
-13.2409
-11.1106
-9.31981
-7.90955
-6.88762
-6.23099
-5.89077
-5.79935
-5.87858
-6.04827
-6.23394
-6.37312
-6.41961
-6.34554
-6.14116
-5.81276
-5.37919
-4.86754
-4.30864
-3.73295
-3.16729
-2.63264
-2.14306
-1.70556
-1.32079
-0.98399
-0.686175
-0.415106
-0.156238
0.106339
0.388753
0.705862
1.0694
1.48591
1.95479
2.46683
3.00362
3.53816
4.03676
4.46213
4.7773
4.95002
4.95682
4.78638
4.44164
3.94026
3.31344
2.60315
1.85812
1.1291
0.463941
-0.0968698
-0.52374
-0.800189
-0.923558
-0.904215
-0.763419
-0.530154
-0.237351
0.0820358
0.398645
0.68962
0.940532
1.14618
1.31024
1.44401
1.56429
1.69097
1.84444
2.04307
2.301
2.62633
3.01944
3.4717
3.96426
4.46715
4.93871
5.32566
5.56415
5.58222
5.30374
4.65417
3.56757
1.99437
-0.0909927
-2.6837
-5.74445
-9.19838
-12.9374
-16.8256
-20.7078
-24.4187
-27.7939
-30.6786
-32.9359
-34.4525
-35.1431
-34.953
-33.8597
-31.8737
-29.0385
-25.4293
-21.1497
-16.3253
-11.0941
-5.59202
0.0652387
5.80546
11.626
17.6216
24.0103
31.1533
39.5602
49.8739
62.8239
79.1437
99.4498
124.091
152.985
185.465
220.182
255.077
287.463
314.229
332.141
338.226
330.187
306.779
268.099
215.72
152.652
83.1134
12.1341
-54.9635
-113.135
-158.169
-187.142
-198.733
-193.335
-172.971
-141.02
-101.796
-60.0369
-20.3657
13.2039
37.6623
51.2581
53.5901
45.5352
29.0361
6.78231
-18.1659
-42.7627
-64.3219
-80.7858
-90.892
-94.2288
-91.1845
-82.8077
-70.6059
-56.3131
-41.659
-28.1665
-16.9987
-8.86938
-4.01743
-2.24346
-2.99411
-5.47912
-8.80229
-12.0886
-14.5923
-15.7751
-15.3478
-13.2761
-9.75184
-5.14023
0.0902749
5.44292
10.4632
14.7966
18.2273
20.6951
22.2899
23.2271
23.8073
24.3683
25.2353
26.6754
28.8637
31.8625
35.6172
39.9679
44.6733
49.4442
53.9815
58.0126
61.3223
63.7751
65.3256
66.0171
65.9697
65.3594
64.3922
63.2769
62.1993
61.3016
60.6679
60.3184
60.2096
60.2414
60.2682
60.1136
59.5862
58.4963
56.6723
53.9754
50.3128
45.6472
40.0029
33.4667
26.1836
18.3474
10.187
1.94862
-6.12296
-13.8033
-20.9046
-27.2874
-32.8669
-37.6131
-41.5453
-44.7218
-47.2272
-49.1584
-50.6114
-51.6707
-52.4019
-52.847
-53.0247
-52.9328
-52.5529
-51.8573
-50.8156
-49.4013
-47.5982
-45.4045
-42.8362
-39.9285
-36.7352
-33.3272
-29.7885
-26.2114
-22.6912
-19.3189
-16.1755
-13.3254
-10.8118
-8.65293
-6.84062
-5.34058
-4.09491
-3.02608
-2.04149
-1.03756
0.0982198
1.4886
3.27237
5.61482
8.72183
12.8548
18.3412
25.5747
34.9947
47.0404
62.072
80.2618
101.465
125.09
149.993
174.436
196.129
212.38
220.351
217.4
201.472
171.468
127.55
71.2995
5.7094
-65.0168
-135.842
-201.404
-256.591
-297.114
-319.983
-323.846
-309.126
-277.96
-233.929
-181.638
-126.196
-72.6498
-25.4641
11.9111
37.3296
50.0732
50.805
41.3714
24.4862
3.34264
-18.7932
-38.9601
-54.8067
-64.7956
-68.2905
-65.5277
-57.4864
-45.6829
-31.9223
-18.041
-5.67335
3.93187
10.0272
12.4078
11.3808
7.67401
2.30171
-3.59103
-8.88427
-12.6199
-14.1043
-12.9685
-9.18166
-3.02323
4.98034
14.1416
23.7084
32.9576
41.2757
48.2173
53.5385
57.2029
59.3637
60.3261
60.4977
60.3324
60.2768
60.7218
61.9671
64.1978
67.4759
71.7445
76.8437
82.5339
88.5235
94.4981
100.146
105.18
109.35
112.453
114.335
114.883
114.027
111.728
107.98
102.803
96.254
88.4261
79.4575
69.5351
58.8941
47.8111
36.5902
25.5425
14.9617
5.09909
-3.85824
-11.802
-18.7081
-24.6316
-29.6916
-34.0494
-37.8813
-41.3519
-44.5909
-47.6757
-50.6232
-53.3901
-55.882
-57.9686
-59.5039
-60.3459
-60.3761
-59.5138
-57.7249
-55.0254
-51.4778
-47.1841
-42.2756
-36.9011
-31.2162
-25.3737
-19.5163
-13.772
-8.25179
-3.0487
1.76112
6.11699
9.97176
13.29
16.046
18.2231
19.8122
20.8117
21.2282
21.0767
20.3826
19.1832
17.5293
15.4859
13.1326
10.5615
7.87413
5.17589
2.56976
0.149013
-2.00971
-3.85182
-5.34774
-6.49241
-7.30042
-7.79615
-7.99868
-7.90153
-7.44831
-6.50665
-4.84459
-2.11532
2.14144
8.4731
17.455
29.5949
45.2049
64.2531
86.2194
109.986
133.794
155.302
171.752
180.246
178.111
163.292
134.738
92.6846
38.8145
-23.7767
-90.7987
-157.162
-217.503
-266.773
-300.812
-316.831
-313.738
-292.262
-254.863
-205.44
-148.875
-90.4774
-35.4056
11.8796
48.0464
71.1736
80.8531
78.1149
65.1919
45.1666
21.5488
-2.16083
-22.8683
-38.202
-46.7151
-47.9622
-42.4507
-31.4841
-16.9262
-0.920061
14.3989
27.1623
35.9715
40.0245
39.1588
33.8134
24.9224
13.7587
1.75256
-9.69116
-19.3546
-26.3298
-30.0923
-30.52
-27.8623
-22.6663
-15.6753
-7.71383
0.424938
8.07485
14.7658
20.2598
24.5532
27.8475
30.4975
32.9441
35.6439
39.0038
43.3295
48.7929
55.4199
63.0986
71.6036
80.6312
89.8397
98.8872
107.463
115.31
122.229
128.079
132.758
136.188
138.293
138.978
138.127
135.598
131.243
124.929
116.574
106.172
93.8282
79.7757
64.3758
48.1065
31.5308
15.2529
-0.133391
-14.0976
-26.2194
-36.2236
-43.9981
-49.5945
-53.2103
-55.1571
-55.8189
-55.6059
-54.911
-54.0727
-53.3486
-52.9022
-52.8013
-53.0281
-53.4969
-54.0763
-54.6115
-54.9443
-54.9285
-54.4388
-53.3746
-51.6599
-49.2397
-46.0776
-42.1533
-37.4625
-32.0185
-25.8555
-19.0329
-11.6386
-3.79168
4.35669
12.6246
20.803
28.661
35.9534
42.4296
47.8444
51.9707
54.6141
55.6287
54.9328
52.5237
48.4874
43.0026
36.3361
28.8285
20.8711
12.8754
5.23796
-1.69395
-7.65347
-12.4761
-16.1105
-18.6161
-20.1483
-20.9318
-21.2282
-21.2993
-21.3735
-21.6182
-22.1222
-22.8898
-23.8469
-24.858
-25.7503
-26.3424
-26.4724
-26.0224
-24.9354
-23.2236
-20.9659
-18.2965
-15.3845
-12.4089
-9.53156
-6.87208
-4.48919
-2.37139
-0.439054
1.44156
3.43404
5.70071
8.3694
11.5035
15.0806
18.9836
23.007
26.8768
30.2831
32.9199
34.5261
34.9224
34.0379
31.9227
28.7453
24.774
20.3463
15.8298
11.5797
7.89977
5.01018
3.02709
1.95558
1.69616
2.06325
2.81283
3.67524
4.3891
4.73227
4.54658
3.75381
2.3617
0.459877
-1.79324
-4.19066
-6.50156
-8.49759
-9.9779
-10.7902
-10.8461
-10.1286
-8.69234
-6.65611
-4.18904
-1.49225
1.22194
3.75079
5.91963
7.59626
8.69939
9.20034
9.11721
8.50153
7.41801
5.91926
4.01841
1.66441
-1.27432
-5.01189
-9.82773
-16.0277
-23.8854
-33.5693
-45.0674
-58.1225
-72.1934
-86.4548
-99.8426
-111.147
-119.139
-122.727
-121.103
-113.871
-101.132
-83.5064
-62.0904
-38.3542
-13.9884
9.27663
29.8533
46.4588
58.2352
64.8122
66.3106
63.2872
56.6347
47.4519
36.9042
26.0926
15.9462
7.1499
0.109774
-5.04204
-8.41098
-10.2804
-11.0397
-11.1118
-10.8882
-10.6807
-10.692
-11.0064
-11.5992
-12.3596
-13.1213
-13.6954
-13.9005
-13.5844
-12.6376
-10.9964
-8.63932
-5.57786
-1.84725
2.5009
7.40106
12.7707
18.5025
24.4544
30.4412
36.2306
41.5481
46.0907
49.5515
51.6495
52.1643
50.9676
48.0483
43.5251
37.6452
30.7681
23.3345
15.826
8.71796
2.43357
-2.69713
-6.4678
-8.81277
-9.80898
-9.66319
-8.68634
-7.25835
-5.78721
-4.66688
-4.23812
-4.75607
-6.36755
-9.0997
-12.8607
-17.4517
-22.5891
-27.9334
-33.1239
-37.8145
-41.709
-44.5902
-46.3428
-46.9634
-46.5578
-45.3242
-43.5231
-41.4368
-39.3242
-37.3758
-35.6759
-34.1776
-32.6969
-30.9266
-28.4717
-24.903
-19.822
-12.9296
-4.08857
6.62953
18.9205
32.2519
45.8961
58.9909
70.6196
79.9035
86.095
88.6605
87.3436
82.2006
73.6037
62.2111
48.9082
34.7247
20.738
7.97369
-2.68562
-10.5739
-15.2884
-16.7059
-14.9676
-10.4341
-3.62016
4.88477
14.4956
24.7009
35.1095
45.4678
55.6421
65.5669
75.165
84.2524
92.443
99.0759
103.185
103.531
98.6988
87.2718
68.0535
40.3167
4.0365
-39.9365
-89.8035
-142.875
-195.767
-244.725
-286.034
-316.468
-333.697
-336.605
-325.456
-301.873
-268.647
-229.382
-188.045
-148.475
-113.928
-86.7218
-68.0208
-57.7884
-54.9009
-57.3983
-62.8283
-68.6276
-72.4884
-72.6577
-68.1371
-58.7613
-45.1571
-28.5955
-10.7697
6.4686
21.3729
32.531
39.0326
40.5568
37.3766
30.285
20.4607
9.29484
-1.79423
-11.5346
-18.9403
-23.4033
-24.7291
-23.1179
-19.0982
-13.4261
-6.96578
-0.569122
5.03082
9.30005
11.95
12.9474
12.4906
10.9586
8.84196
6.66743
4.92543
4.01043
4.17985
5.53504
8.0242
11.4645
15.5788
20.0403
24.5192
28.7256
32.4423
35.5467
38.0174
39.9275
41.4264
42.7129
44.0028
45.497
47.3524
49.6598
52.4302
55.5909
58.9914
62.4169
65.6088
68.289
70.1851
71.0547
70.7073
69.0209
65.9531
61.5466
55.9278
49.2993
41.9261
34.1154
26.192
18.471
11.2299
4.68365
-1.03281
-5.87421
-9.88296
-13.1765
-15.9254
-18.3252
-20.5657
-22.8028
-25.1359
-27.5941
-30.1325
-32.6392
-34.9498
-36.869
-38.1952
-38.7445
-38.3729
-36.9926
-34.582
-31.1885
-26.924
-21.9544
-16.4851
-10.7433
-4.9595
0.648679
5.89114
10.6155
14.7133
18.1215
20.8206
22.8291
24.1968
24.9958
25.3123
25.2385
24.8657
24.2787
23.5515
22.7444
21.9025
21.0551
20.2165
19.3879
18.5593
17.7136
16.8293
15.8853
14.864
13.7544
12.5547
11.2733
9.92882
8.54844
7.1658
5.81758
4.53996
3.36502
2.3178
1.41412
0.659644
0.0501467
-0.427001
-0.790359
-1.06129
-1.26064
-1.40563
-1.50747
-1.56998
-1.5894
-1.55555
-1.45399
-1.26921
-0.988203
-0.604118
-0.11932
0.452523
1.08579
1.74384
2.38159
2.94931
3.39739
3.68126
3.76603
3.63014
3.26752
2.68812
1.9167
0.99001
-0.047197
-1.14691
-2.26276
-3.35449
-4.39161
-5.35562
-6.24077
-7.05306
-7.80776
-8.52579
-9.2293
-9.93734
-10.6619
-11.4051
-12.1582
-12.9014
-13.607
-14.242
-14.7733
-15.1722
-15.4194
-15.5082
-15.4469
-15.2584
-14.9783
-14.6517
-14.3267
-14.0496
-13.8576
-13.7746
-13.8066
-13.9409
-14.1461
-14.3755
-14.5724
-14.6757
-14.6275
-14.3792
-13.8973
-13.1668
-12.1931
-11.0015
-9.63385
-8.14421
-6.59247
-5.03735
-3.52959
-2.10587
-0.784627
0.435834
1.57639
2.67332
3.77211
4.91954
6.15514
7.50329
8.96714
10.5253
12.132
13.7211
15.2123
16.5209
17.5673
18.2862
18.6334
18.5901
18.163
17.3811
16.29
14.9438
13.398
11.7022
9.89542
8.0046
6.04525
4.02542
1.95144
-0.165138
-2.30041
-4.41151
-6.43087
-8.26121
-9.7707
-10.7879
-11.0961
-10.4273
-8.45876
-4.81417
0.925075
9.19313
20.3928
34.8258
52.6013
73.5317
97.0293
122.026
146.94
169.718
187.957
199.123
200.838
191.216
169.19
134.775
89.2342
35.0878
-24.0449
-83.7582
-139.302
-186.094
-220.241
-238.985
-241.035
-226.716
-197.927
-157.919
-110.91
-61.5999
-14.6426
25.8532
56.739
76.1079
83.4162
79.4406
66.0849
46.0715
22.5613
-1.24509
-22.4773
-38.8928
-49.0735
-52.5061
-49.5467
-41.286
-29.3389
-15.593
-1.94952
9.91034
18.7084
23.684
24.6332
21.8758
16.1615
8.5329
0.167338
-7.78167
-14.3227
-18.7302
-20.603
-19.8769
-16.7914
-11.8218
-5.58726
1.25002
8.08054
14.4251
19.9854
24.6628
28.546
31.8709
34.9628
38.1691
41.7951
46.0508
51.0168
56.6325
62.7075
68.9517
75.0203
80.564
85.2792
88.9486
91.4692
92.8624
93.2679
92.9207
92.1171
91.1736
90.3841
89.9825
90.1127
90.8116
92.0047
93.5146
95.0807
96.3871
97.0953
96.8775
95.4495
92.5973
88.199
82.2386
74.8102
66.1152
56.4483
46.1771
35.7128
25.4786
15.8746
7.24615
-0.142186
-6.12446
-10.6398
-13.728
-15.514
-16.1859
-15.9669
-15.088
-13.7631
-12.1715
-10.4472
-8.67779
-6.91046
-5.16349
-3.44078
-1.74614
-0.0949689
1.47864
2.9204
4.15988
5.11913
5.72436
5.9185
5.67247
4.99332
3.92782
2.56073
1.00806
-0.594011
-2.10297
-3.38486
-4.32822
-4.8556
-4.93121
-4.56404
-3.80639
-2.74817
-1.50795
-0.221838
0.968259
1.92603
2.53066
2.68473
2.31981
1.39987
-0.0771896
-2.07943
-4.54192
-7.36874
-10.4359
-13.5959
-16.6835
-19.5244
-21.945
-23.7856
-24.9126
-25.2325
-24.7027
-23.34
-21.2236
-18.4932
-15.3404
-11.9947
-8.70471
-5.71615
-3.24923
-1.47718
-0.508573
-0.375319
-1.02778
-2.33769
-4.10887
-6.09472
-8.02091
-9.61114
-10.6134
-10.8239
-10.1072
-8.4087
-5.76024
-2.27677
1.85501
6.39494
11.0726
15.6131
19.7622
23.3089
26.102
28.0604
29.1747
29.502
29.1536
28.2783
27.0426
25.6111
24.1296
22.7104
21.4248
20.2998
19.3208
18.4392
17.5833
16.6711
15.6231
14.3748
12.8849
11.1412
9.16202
6.9935
4.70389
2.37553
0.095706
-2.05222
-3.99651
-5.68265
-7.07658
-8.16545
-8.95634
-9.47346
-9.75462
-9.84754
-9.80651
-9.68967
-9.55681
-9.46746
-9.479
-9.64422
-10.0082
-10.6046
-11.4505
-12.542
-13.8496
-15.3142
-16.8459
-18.3238
-19.5993
-20.5008
-20.84
-20.4177
-19.0288
-16.4625
-12.4992
-6.90283
0.588585
10.2695
22.4645
37.5082
55.7023
77.2441
102.13
130.042
160.241
191.49
222.022
249.609
271.699
285.664
289.098
280.159
257.884
222.436
175.234
118.934
57.2478
-5.38919
-64.255
-114.842
-153.351
-177.111
-184.873
-176.943
-155.122
-122.484
-83.0068
-41.1068
-1.14806
33.0258
58.4736
73.4136
77.3307
70.9306
55.9573
34.9044
10.6635
-13.8429
-35.9996
-53.7678
-65.8617
-71.8164
-71.9501
-67.235
-59.1005
-49.1989
-39.1682
-30.4191
-23.9734
-20.368
-19.6305
-21.3245
-24.6498
-28.5824
-32.0311
-33.9894
-33.665
-30.5705
-24.5685
-15.8688
-4.98054
7.36851
20.3356
33.0725
44.8271
55.0257
63.3247
69.6303
74.0844
77.0221
78.9082
80.2633
81.5901
83.308
85.706
88.9159
92.9094
97.5164
102.46
107.401
111.993
115.922
118.952
120.947
121.882
121.836
120.977
119.523
117.71
115.752
113.801
111.925
110.086
108.145
105.874
102.984
99.1679
94.1448
87.7073
79.763
70.3631
59.7153
48.1768
36.2277
24.4286
13.3656
3.59097
-4.43443
-10.3884
-14.1196
-15.661
-15.2221
-13.1631
-9.95374
-6.12209
-2.20093
1.32315
4.05176
5.70387
6.13013
5.31233
3.3496
0.434592
-3.17649
-7.19606
-11.3357
-15.332
-18.9665
-22.0774
-24.5642
-26.3864
-27.556
-28.1273
-28.185
-27.8314
-27.1757
-26.324
-25.372
-24.4009
-23.4742
-22.6378
-21.9205
-21.337
-20.8906
-20.577
-20.3873
-20.3106
-20.3361
-20.4528
-20.6486
-20.9073
-21.2059
-21.5104
-21.7732
-21.9322
-21.9113
-21.6242
-20.9805
-19.8939
-18.2911
-16.1211
-13.3627
-10.0302
-6.17479
-1.88316
2.72797
7.52011
12.3431
17.0459
21.4863
25.5386
29.0993
32.089
34.4529
36.1581
37.192
37.5587
37.2772
36.3796
34.9111
32.9292
30.5041
27.7175
24.6613
21.4339
18.1364
14.8665
11.7125
8.74715
6.02188
3.56322
1.3709
-0.581363
-2.34228
-3.97693
-5.55864
-7.15963
-8.84141
-10.6457
-12.587
-14.6471
-16.7722
-18.8727
-20.8261
-22.4815
-23.6677
-24.2017
-23.8986
-22.5799
-20.0794
-16.2433
-10.9245
-3.9708
4.79067
15.5674
28.6056
44.1766
62.5344
83.8432
108.074
134.884
163.496
192.612
220.389
244.496
262.283
271.04
268.33
252.358
222.308
178.6
123.016
58.6565
-10.2859
-78.8987
-142.046
-194.915
-233.541
-255.247
-258.938
-245.209
-216.256
-175.612
-127.731
-77.4846
-29.6347
11.6632
43.2581
63.2676
71.1849
67.8227
55.1148
35.8042
13.0653
-9.89447
-30.2034
-45.6258
-54.7635
-57.1426
-53.1855
-44.0789
-31.5632
-17.6722
-4.46016
6.2538
13.0921
15.2577
12.5938
5.56328
-4.84249
-17.2505
-30.0859
-41.7624
-50.8602
-56.2723
-57.3052
-53.727
-45.7612
-34.0312
-19.4664
-3.18262
13.6479
29.9225
44.7164
57.363
67.5015
75.0864
80.3644
83.8209
86.1048
87.9427
90.0499
93.049
97.4049
103.38
111.015
120.132
130.361
141.186
151.999
162.163
171.071
178.196
183.138
185.644
185.623
183.142
178.405
171.732
163.518
154.2
144.216
133.971
123.805
113.974
104.633
95.8388
87.5531
79.6625
72.002
64.3837
56.6262
48.5823
40.1622
31.3491
22.2067
12.8793
3.58144
-5.4182
-13.8194
-21.3163
-27.6252
-32.5101
-35.8052
-37.4314
-37.4047
-35.8371
-32.9283
-28.9495
-24.2214
-19.0882
-13.8908
-8.94146
-4.50299
-0.774679
2.11472
4.10635
5.20404
5.46224
4.97119
3.84174
2.19183
0.136212
-2.21971
-4.78193
-7.46651
-10.1959
-12.8946
-15.4858
-17.8898
-20.0249
-21.8122
-23.1811
-24.0775
-24.4711
-24.3612
-23.7803
-22.7927
-21.4906
-19.9856
-18.3979
-16.8436
-15.4228
-14.2087
-13.2396
-12.5148
-11.9942
-11.603
-11.2391
-10.7848
-10.1185
-9.12755
-7.71795
-5.82034
-3.38959
-0.397042
3.1851
7.40676
12.3681
18.2491
25.3341
34.0236
44.8238
58.3044
75.0182
95.3828
119.532
147.155
177.357
208.57
238.551
264.492
283.248
291.676
287.036
267.415
232.099
181.839
118.945
47.189
-28.4916
-102.46
-168.968
-222.779
-259.759
-277.35
-274.851
-253.497
-216.297
-167.676
-112.955
-57.7486
-7.35087
33.8161
62.6222
77.4782
78.3924
66.8399
45.4744
17.7273
-12.6488
-42.0332
-67.3328
-86.2783
-97.5939
-101.032
-97.2787
-87.763
-74.3882
-59.2409
-44.3077
-31.2364
-21.1681
-14.6519
-11.6457
-11.5927
-13.5559
-16.3871
-18.9051
-20.059
-19.0585
-15.4572
-9.18304
-0.519088
9.95983
21.4811
33.1847
44.2349
53.9189
61.7218
67.3716
70.8498
72.3717
72.34
71.2798
69.7665
68.3531
67.5079
67.5684
68.7146
70.964
74.1856
78.1303
82.471
86.8482
90.9138
94.3677
96.9852
98.6308
99.2585
98.9011
97.6485
95.6223
92.9481
89.7314
86.0412
81.9016
77.2953
72.1763
66.4897
60.1966
53.2975
45.8525
37.9923
29.919
21.8956
14.2245
7.21921
1.17124
-3.68199
-7.18458
-9.28106
-10.0247
-9.57445
-8.18046
-6.16142
-3.87513
-1.68617
0.0659521
1.09544
1.19267
0.23897
-1.7875
-4.81465
-8.68735
-13.1847
-18.0417
-22.9727
-27.6946
-31.9476
-35.5126
-38.2231
-39.972
-40.7137
-40.4607
-39.2769
-37.2681
-34.5702
-31.3373
-27.7304
-23.9074
-20.0143
-16.18
-12.5124
-9.09657
-5.99561
-3.25142
-0.887013
1.09116
2.69091
3.93217
4.8451
5.46827
5.84677
6.0301
6.06957
6.01533
5.91307
5.80076
5.70575
5.64274
5.61295
5.6046
5.59495
5.55337
5.44528
5.23632
4.89633
4.40255
3.74186
2.91169
1.91972
0.782472
-0.477115
-1.83266
-3.25759
-4.72815
-6.2258
-7.73847
-9.26039
-10.7901
-12.3273
-13.8679
-15.3993
-16.8959
-18.3165
-19.6032
-20.6839
-21.4776
-21.9015
-21.8804
-21.3563
-20.297
-18.7031
-16.6113
-14.0944
-11.2576
-8.2301
-5.15529
-2.17779
0.569198
2.97559
4.96354
6.49261
7.56041
8.19868
8.46519
8.43306
8.1789
7.77159
7.26343
6.6849
6.0436
5.32765
4.51273
3.57187
2.48638
1.25627
-0.0914014
-1.49754
-2.87031
-4.0889
-5.01143
-5.48563
-5.36039
-4.4954
-2.76586
-0.0595935
3.73495
8.7489
15.1573
23.1995
33.1858
45.4769
60.4284
78.2963
99.1081
122.52
147.687
173.18
196.982
216.595
229.251
232.225
223.211
200.702
164.322
115.048
55.2747
-11.3027
-79.9897
-145.545
-202.734
-246.913
-274.567
-283.725
-274.203
-247.632
-207.268
-157.622
-103.933
-51.5793
-5.48019
30.4178
53.5267
62.823
58.8615
43.6042
20.0967
-7.96083
-36.6877
-62.4823
-82.4133
-94.4996
-97.8557
-92.6943
-80.1997
-62.2969
-41.3552
-19.8669
-0.141566
15.9463
27.134
32.8559
33.2372
29.0065
21.3458
11.7043
1.59999
-7.56316
-14.6446
-18.8677
-19.8663
-17.6769
-12.6855
-5.53989
2.95781
11.9622
20.6861
28.481
34.8891
39.6655
42.7701
44.3366
44.6251
43.9679
42.7164
41.1969
39.6798
38.3628
37.3694
36.7578
36.5376
36.6885
37.1775
37.9717
39.0447
40.3768
41.9493
43.7363
45.6947
47.7558
49.8199
51.7551
53.4009
54.5768
55.0958
54.7812
53.4853
51.1093
47.6199
43.0623
37.5648
31.337
24.657
17.8511
11.2668
5.24103
0.0686988
-4.02683
-6.9169
-8.58244
-9.11879
-8.7298
-7.71164
-6.42755
-5.2757
-4.65287
-4.91726
-6.35397
-9.14646
-13.3572
-18.9197
-25.6426
-33.2269
-41.2928
-49.4155
-57.1647
-64.1444
-70.0277
-74.585
-77.6996
-79.3733
-79.7174
-78.9338
-77.2872
-75.0712
-72.5729
-70.0402
-67.6541
-65.5115
-63.6178
-61.8924
-60.1841
-58.2962
-56.0168
-53.1513
-49.5519
-45.1413
-39.9276
-34.0071
-27.557
-20.817
-14.0627
-7.5756
-1.6118
3.62554
8.00678
11.4871
14.1075
15.9854
17.2969
18.2525
19.0705
19.9496
21.0461
22.4554
24.2024
26.2389
28.4504
30.6683
32.6884
34.2918
35.2662
35.4249
34.6226
32.7669
29.8244
25.8228
20.8486
15.0425
8.59132
1.71939
-5.32226
-12.267
-18.8446
-24.7925
-29.8667
-33.8503
-36.5575
-37.8323
-37.5405
-35.5543
-31.7311
-25.8926
-17.8095
-7.20271
6.22978
22.7534
42.5041
65.3696
90.8647
118.026
145.356
170.852
192.119
206.592
211.828
205.847
187.454
156.515
114.114
62.5663
5.27807
-53.547
-109.317
-157.531
-194.262
-216.589
-222.924
-213.177
-188.763
-152.437
-107.98
-59.7795
-12.3602
30.0877
64.1193
87.3455
98.6102
98.0216
86.8436
67.2672
42.0986
14.4036
-12.8454
-37.0811
-56.3775
-69.5915
-76.4001
-77.2403
-73.1658
-65.6461
-56.3373
-46.8535
-38.5675
-32.4601
-29.0341
-28.2961
-29.8033
-32.7643
-36.1767
-38.9812
-40.212
-39.1244
-35.2851
-28.6157
-19.3884
-8.17591
4.23388
16.9458
29.0729
39.8438
48.69
55.3013
59.6466
61.9581
62.6841
62.4189
61.8195
61.5221
62.0666
63.8392
67.0388
71.667
77.5439
84.3426
91.6389
98.9671
105.876
111.979
116.986
120.728
123.154
124.321
124.362
123.449
121.759
119.433
116.557
113.144
109.143
104.452
98.9449
92.5086
85.0726
76.639
67.3002
57.2445
46.7463
36.1435
25.8052
16.0927
7.3213
-0.272842
-6.55553
-11.5045
-15.2052
-17.8339
-19.6305
-20.866
-21.8076
-22.6892
-23.687
-24.9059
-26.3763
-28.0606
-29.8678
-31.6738
-33.343
-34.7485
-35.788
-36.3935
-36.5339
-36.2111
-35.4518
-34.2965
-32.7877
-30.9612
-28.8404
-26.4352
-23.7453
-20.767
-17.5026
-13.9697
-10.21
-6.29456
-2.32631
1.56311
5.22016
8.48038
11.1821
13.1811
14.3651
14.6652
14.0645
12.6017
10.3697
7.50913
4.19813
0.638676
-2.95862
-6.38978
-9.47142
-12.0519
-14.0189
-15.3024
-15.8734
-15.7386
-14.9305
-13.4951
-11.4758
-8.89557
-5.73783
-1.92644
2.69196
8.36057
15.4149
24.2691
35.3798
49.1829
66.0017
85.9332
108.725
133.667
159.519
184.507
206.409
222.734
230.984
228.975
215.179
189.02
151.082
103.188
48.3184
-9.6335
-66.2343
-116.98
-157.792
-185.48
-198.102
-195.185
-177.762
-148.242
-110.114
-67.5435
-24.896
13.733
44.9382
66.3222
76.6795
76.0349
65.5408
47.2565
23.8443
-1.77424
-26.7607
-48.6587
-65.6201
-76.5396
-81.09
-79.6657
-73.2497
-63.228
-51.1792
-38.6667
-27.0577
-17.3866
-10.2759
-5.91483
-4.09272
-4.2763
-5.71536
-7.56099
-8.98022
-9.25382
-7.84783
-4.45386
1.00187
8.37745
17.3553
27.4959
38.2961
49.2457
59.8753
69.7935
78.7087
86.4393
92.9104
98.1424
102.233
105.333
107.629
109.317
110.59
111.617
112.542
113.47
114.468
115.565
116.755
117.996
119.219
120.332
121.222
121.761
121.808
121.217
119.836
117.517
114.123
109.535
103.67
96.4916
88.0259
78.3714
67.7056
56.2841
44.4308
32.5204
20.953
10.1241
0.392878
-7.94753
-14.6946
-19.7523
-23.1371
-24.9724
-25.4736
-24.9238
-23.6446
-21.9644
-20.1887
-18.5741
-17.3108
-16.5121
-16.2147
-16.386
-16.9387
-17.7499
-18.6816
-19.6004
-20.394
-20.983
-21.3273
-21.4259
-21.3128
-21.0482
-20.7079
-20.3717
-20.1132
-19.9911
-20.044
-20.2876
-20.7158
-21.304
-22.0143
-22.8015
-23.6188
-24.422
-25.1717
-25.8328
-26.3715
-26.7519
-26.9318
-26.8611
-26.4819
-25.733
-24.5576
-22.913
-20.7813
-18.1788
-15.1623
-11.8305
-8.31982
-4.79516
-1.43537
1.58369
4.10693
6.01617
7.24247
7.77311
7.65221
6.9753
5.87833
4.52292
3.07958
1.71114
0.558168
-0.271982
-0.71169
-0.734713
-0.353379
0.38789
1.42154
2.66702
4.04089
5.4657
6.87686
8.22713
9.48818
10.6496
11.7158
12.7007
13.6217
14.494
15.3244
16.108
16.8258
17.4453
17.9237
18.2118
18.2608
18.0283
17.484
16.6148
15.4268
13.9457
12.2144
10.2894
8.23463
6.11539
3.99236
1.91613
-0.076674
-1.96563
-3.74679
-5.43122
-7.04196
-8.60971
-10.1678
-11.7469
-13.3697
-15.0465
-16.772
-18.5236
-20.2611
-21.9296
-23.4628
-24.7894
-25.8392
-26.5502
-26.8754
-26.7879
-26.2842
-25.3853
-24.1349
-22.5951
-20.8409
-18.9523
-17.0072
-15.0741
-13.2066
-11.4398
-9.78951
-8.25274
-6.81121
-5.4353
-4.08886
-2.73355
-1.3323
0.148867
1.74081
3.47375
5.38233
7.51398
9.94075
12.7745
16.1849
20.4173
25.8073
32.7851
41.8617
53.5894
68.4903
86.9509
109.091
109.091
109.091
109.091
109.091
109.091
109.091
109.091
109.091
109.091
109.091
109.091
109.091
109.091
109.091
109.091
109.091
109.091
109.091
