86.747
79.714
72.1544
64.3965
56.7981
49.7004
43.3819
38.0194
33.6642
30.2379
27.5492
25.3284
23.2742
21.103
18.5939
15.6203
12.1659
8.32229
4.27044
0.250077
-3.47799
-6.6706
-9.13674
-10.7634
-11.5296
-11.5075
-10.8503
-9.76922
-8.50231
-7.27916
-6.286
-5.63623
-5.35082
-5.35247
-5.4756
-5.49194
-5.14917
-4.21706
-2.53424
-0.047795
3.16115
6.87092
10.734
14.3123
17.1283
18.7273
18.7405
16.942
13.2905
7.94947
1.28146
-6.18287
-13.7992
-20.881
-26.7791
-30.9602
-33.0727
-32.9912
-30.8321
-26.9365
-21.823
-16.1146
-10.4519
-5.40267
-1.3851
1.38659
2.92302
3.44459
3.33217
3.05185
3.06587
3.74454
5.29365
7.70921
10.7669
14.0477
16.9955
18.9975
19.475
17.9704
14.2194
8.19651
0.130972
-9.51015
-20.0662
-30.7485
-40.7163
-49.1529
-55.3305
-58.6539
-58.6771
-55.0915
-47.691
-36.3255
-20.8623
-1.17303
22.8376
51.1538
83.5306
119.355
157.524
196.371
233.69
266.859
293.075
309.679
314.515
306.269
284.731
250.923
207.063
156.372
102.728
50.2401
2.78159
-36.4375
-65.205
-82.505
-88.5586
-84.7093
-73.1783
-56.7284
-38.2885
-20.5899
-5.85986
4.39135
9.4729
9.50117
5.2864
-1.8571
-10.3445
-18.5628
-25.0889
-28.858
-29.2654
-26.1962
-19.988
-11.3398
-1.18628
9.44143
19.5493
28.2914
35.0472
39.4623
41.4511
41.1696
38.9651
35.3158
30.7684
25.8834
21.1923
17.1704
14.2217
12.6735
12.777
14.7072
18.5603
24.3456
31.9737
41.2419
51.8215
63.2527
74.9507
86.227
96.3276
104.486
109.987
112.236
110.827
105.592
96.6405
84.3647
69.4196
52.6744
35.1375
17.8652
1.86178
-12.0169
-23.1462
-31.1926
-36.1434
-38.3017
-38.2483
-36.7714
-34.7726
-33.158
-32.7274
-34.0729
-37.5014
-42.9883
-50.1717
-58.3865
-66.7386
-74.2104
-79.7863
-82.5841
-81.9748
-77.6769
-69.8107
-58.9051
-45.8558
-31.8372
-18.1803
-6.22824
2.81035
7.99594
8.76276
4.98256
-3.01972
-14.499
-28.3676
-43.3069
-57.9017
-70.782
-80.7578
-86.934
-88.7937
-86.2424
-79.6083
-69.5994
-57.2223
-43.6713
-30.1994
-17.9863
-8.01642
-0.982107
2.77901
3.30452
0.984467
-3.50103
-9.2753
-15.3774
-20.8784
-24.9879
-27.1376
-27.0324
-24.6666
-20.3025
-14.4181
-7.63183
-0.613061
6.00824
11.7219
16.1976
19.3164
21.1705
22.0322
22.2971
22.4107
22.7912
23.7592
25.4851
27.9619
31.0069
34.2893
37.3811
39.8207
41.1813
41.1328
39.4903
36.2416
31.5531
25.7524
19.2946
12.7186
6.60475
1.544
-1.87343
-3.04761
-1.34379
3.93171
13.5329
28.2309
48.7123
75.4202
108.358
146.893
189.612
234.269
277.864
316.868
347.567
366.494
370.875
359.034
330.681
287.04
230.789
165.827
96.8841
29.0254
-32.8753
-84.642
-123.212
-146.921
-155.615
-150.599
-134.415
-110.498
-82.7395
-55.0282
-30.8104
-12.7299
-2.38125
-0.203147
-5.51625
-16.6945
-31.4414
-47.1319
-61.1732
-71.3386
-76.0328
-74.4601
-66.6794
-53.5458
-36.5561
-17.622
1.19192
17.9322
30.988
39.2645
42.2829
40.2004
33.7552
24.1498
12.8907
1.60732
-8.13029
-14.9733
-17.9225
-16.4122
-10.3449
-0.077804
13.6348
29.7336
46.9706
64.0357
79.6819
92.8361
102.686
108.736
110.831
109.144
104.136
96.4882
87.0244
76.6204
66.1186
56.2511
47.5797
40.4568
35.0102
31.151
28.6043
26.9576
25.7215
24.3961
22.5346
19.7988
15.9976
11.1081
5.27383
-1.2162
-7.96572
-14.5217
-20.4305
-25.294
-28.8169
-30.8425
-31.3703
-30.5534
-28.6767
-26.1183
-23.2982
-20.623
-18.4331
-16.961
-16.3061
-16.4313
-17.1793
-18.308
-19.5383
-20.6057
-21.3081
-21.5403
-21.3105
-20.7344
-20.0098
-19.3743
-19.0557
-19.2229
-19.947
-21.1796
-22.7529
-24.4003
-25.7954
-26.6025
-26.5294
-25.3751
-23.0643
-19.6636
-15.3775
-10.525
-5.5009
-0.725962
3.40549
6.57554
8.58333
9.37194
9.03821
7.82461
6.094
4.2902
2.889
2.34519
3.04174
5.24668
9.0825
14.511
21.3348
29.2149
37.701
46.2721
54.381
61.4995
67.1597
70.9882
72.7309
72.2683
69.6197
64.9377
58.4935
50.6545
41.8565
32.5717
23.2755
14.4149
6.38103
-0.51201
-6.03958
-10.0689
-12.5504
-13.499
-12.9653
-10.9981
-7.60251
-2.69499
3.93631
12.6578
23.9912
38.5766
57.0896
80.1102
107.956
140.502
177.021
216.085
255.558
292.707
324.429
347.572
359.32
357.576
341.287
310.664
267.253
213.837
154.18
92.6498
33.7533
-18.3393
-60.2306
-89.6326
-105.565
-108.396
-99.7214
-82.1163
-58.7789
-33.1325
-8.42712
12.6077
28.0196
36.7773
38.79
34.8133
26.2602
14.9507
2.83547
-8.26821
-16.8972
-22.0957
-23.4871
-21.2654
-16.112
-9.05822
-1.31505
5.90467
11.5481
14.8493
15.4081
13.2155
8.62777
2.29651
-4.93194
-12.1322
-18.4152
-23.0275
-25.426
-25.3185
-22.6719
-17.688
-10.7575
-2.39788
6.81205
16.2926
25.5113
34.0137
41.4358
47.5001
51.9997
54.7779
55.7088
54.687
51.6282
46.4833
39.264
30.074
19.1411
6.84
-6.29887
-19.6033
-32.2964
-43.5575
-52.6004
-58.7606
-61.5788
-60.8686
-56.7563
-49.6866
-40.3886
-29.8072
-19.0063
-9.05615
-0.919598
4.64848
7.17597
6.51383
2.83846
-3.38222
-11.4522
-20.5306
-29.7228
-38.1692
-45.1219
-50.0031
-52.443
-52.2965
-49.6405
-44.7558
-38.0944
-30.2382
-21.8494
-13.6161
-6.19626
-0.162889
4.04521
6.16294
6.12415
4.0691
0.332264
-4.58976
-10.0875
-15.5006
-20.1856
-23.5828
-25.2737
-25.0232
-22.8018
-18.785
-13.3318
-6.94347
-0.209596
6.25313
11.8619
16.1222
18.6701
19.2986
17.9685
14.802
10.0645
4.13607
-2.5217
-9.40131
-15.9839
-21.7716
-26.3174
-29.2519
-30.3068
-29.3348
-26.3249
-21.4104
-14.8688
-7.11044
1.34371
9.89627
17.9168
24.792
29.9786
33.0541
33.7602
32.0348
28.0276
22.0978
14.7905
6.79466
-1.11578
-8.1511
-13.5777
-16.7825
-17.3202
-14.933
-9.53778
-1.18139
10.0298
24.0096
40.7608
60.411
83.1969
109.389
139.158
172.41
208.61
246.646
284.76
320.595
351.342
374.015
385.792
384.398
368.466
337.809
293.57
238.209
175.323
109.31
44.9358
-13.1701
-60.9944
-95.5565
-115.199
-119.719
-110.337
-89.494
-60.5307
-27.2764
6.39199
36.9679
61.6611
78.6364
87.1243
87.3985
80.6357
68.6812
53.7579
38.1572
23.9501
12.7527
5.56762
2.71629
3.86077
8.10667
14.1673
20.565
25.8411
28.7492
28.4087
24.4018
16.8077
6.17295
-6.57196
-20.2363
-33.5148
-45.1358
-53.9956
-59.2645
-60.4563
-57.4562
-50.51
-40.1791
-27.2697
-12.7461
2.35999
17.0383
30.3757
41.6176
50.2087
55.8159
58.3322
57.8641
54.7061
49.3051
42.2176
34.0636
25.4795
17.0741
9.38871
2.86491
-2.17974
-5.56601
-7.25728
-7.35396
-6.07845
-3.75231
-0.76718
2.44809
5.46187
7.87315
9.34177
9.61351
8.53862
6.08275
2.32989
-2.52266
-8.17677
-14.2526
-20.3131
-25.8935
-30.5336
-33.8127
-35.3847
-35.0111
-32.5889
-28.1695
-21.9657
-14.3437
-5.79965
3.07922
11.6645
19.3437
25.5777
29.9519
32.2151
32.302
30.3345
26.6054
21.5425
15.6612
9.50921
3.61105
-1.58155
-5.72781
-8.62098
-10.1946
-10.5128
-9.74671
-8.14236
-5.98394
-3.55852
-1.12621
1.10108
2.97091
4.39198
5.3279
5.78574
5.8023
5.43093
4.73095
3.76092
2.57593
1.22829
-0.229611
-1.74184
-3.24638
-4.67449
-5.95274
-7.00748
-7.77127
-8.19011
-8.23031
-7.88388
-7.17128
-6.14129
-4.86789
-3.44505
-1.98058
-0.590362
0.605879
1.48697
1.93116
1.81673
1.02458
-0.554984
-3.00823
-6.37485
-10.6146
-15.5647
-20.893
-26.053
-30.2548
-32.4644
-31.4478
-25.8727
-14.4698
3.75305
29.2715
61.8176
100.215
142.323
185.127
224.977
257.97
280.407
289.284
282.705
260.183
222.754
172.901
114.288
51.3559
-11.1701
-68.7915
-117.696
-155.114
-179.537
-190.77
-189.845
-178.789
-160.315
-137.453
-113.193
-90.1605
-70.379
-55.125
-44.8916
-39.4511
-37.9989
-39.3513
-42.1665
-45.1571
-47.2675
-47.7961
-46.4517
-43.3441
-38.9156
-33.8302
-28.8387
-24.6412
-21.767
-20.4871
-20.7709
-22.2912
-24.4736
-26.5828
-27.8313
-27.495
-25.0187
-20.0959
-12.7152
-3.164
8.00623
20.05
32.1202
43.3706
53.0532
60.5969
65.6589
68.1424
68.1813
66.0967
62.3337
57.3898
51.7454
45.8079
39.874
34.1168
28.594
23.2753
18.0812
12.9254
7.75305
2.56846
-2.55187
-7.46174
-11.9618
-15.8263
-18.8352
-20.8054
-21.6171
-21.2309
-19.6937
-17.1349
-13.7524
-9.79328
-5.53154
-1.24702
2.79258
6.34449
9.19858
11.1809
12.1553
12.0246
10.734
8.27673
4.70246
0.125206
-5.2702
-11.227
-17.4228
-23.4843
-29.0111
-33.6055
-36.9066
-38.6242
-38.5683
-36.6716
-33.0019
-27.7633
-21.2861
-14.0059
-6.43364
0.880319
7.38776
12.5848
16.0535
17.4997
16.7847
13.9491
9.22425
3.02967
-4.04772
-11.2939
-17.9271
-23.1723
-26.3431
-26.9208
-24.621
-19.4353
-11.6428
-1.78674
9.38218
20.9894
32.1377
42.0125
49.9776
55.6485
58.933
60.0342
59.4153
57.7312
55.7356
54.1768
53.6951
54.7342
57.4781
61.8207
67.3697
73.4865
79.3541
84.0677
86.7364
86.5847
83.0443
75.824
64.9518
50.7858
33.9928
15.501
-3.56422
-21.9519
-38.3533
-51.4583
-60
-62.7914
-58.7652
-47.0288
-26.9447
1.76166
38.8748
83.5621
134.277
188.719
243.891
296.252
341.984
377.345
399.068
404.76
393.236
364.738
321.003
265.146
201.381
134.606
69.8918
11.9605
-35.3
-69.2124
-88.5387
-93.5351
-85.8335
-68.1717
-44.0134
-17.1092
8.9429
31.0865
47.0998
55.766
56.9098
51.3057
40.4821
26.4521
11.412
-2.55427
-13.7272
-20.9353
-23.6526
-22.0057
-16.6969
-8.86018
0.127674
8.85326
16.0618
20.8168
22.6053
21.3775
17.5192
11.7657
5.07138
-1.54457
-7.15265
-11.0471
-12.8407
-12.509
-10.3789
-7.06576
-3.3694
-0.146458
1.8225
1.95089
-0.0673377
-4.214
-10.1505
-17.2672
-24.7701
-31.792
-37.5126
-41.2708
-42.657
-41.5716
-38.2454
-33.2205
-27.2942
-21.4346
-16.6778
-14.0176
-14.3004
-18.1353
-25.8286
-37.3476
-52.3169
-70.0466
-89.5875
-109.81
-129.495
-147.437
-162.539
-173.901
-180.89
-183.185
-180.794
-174.04
-163.52
-150.038
-134.525
-117.949
-101.226
-85.1527
-70.3421
-57.1969
-45.8996
-36.4295
-28.5981
-22.0984
-16.561
-11.6089
-6.90587
-2.19213
2.69402
7.81102
13.1233
18.5229
23.8589
28.9708
33.7205
38.0181
41.8368
45.2155
48.2467
51.0528
53.7541
56.4359
59.1199
61.7472
64.1772
66.2037
67.5867
68.0959
67.5576
65.8968
63.1659
59.5524
55.3645
50.9922
46.853
43.3292
40.707
39.1296
38.5702
38.8313
39.569
40.3382
40.6523
40.0454
38.129
34.6329
29.4247
22.5064
13.9909
4.06504
-7.05323
-19.1524
-32.0543
-45.6255
-59.7722
-74.4231
-89.5045
-104.915
-120.509
-136.086
-151.398
-166.168
-180.109
-192.948
-204.437
-214.352
-222.473
-228.543
-232.224
-233.053
-230.417
-223.567
-211.681
-193.982
-169.908
-139.302
-102.603
-60.9867
-16.414
28.4304
70.3336
105.864
131.762
145.357
144.95
130.095
101.741
62.1974
14.9179
-35.8569
-85.5677
-129.843
-164.982
-188.338
-198.574
-195.737
-181.164
-157.237
-127.022
-93.8524
-60.9103
-30.8684
-5.62877
13.8121
27.365
35.7298
40.1844
42.32
43.7642
45.9327
49.8415
55.9988
64.3845
74.5088
85.5349
96.4392
106.184
113.873
118.881
120.926
120.094
116.815
111.794
105.916
100.131
95.3447
92.3176
91.5834
93.3997
97.7276
104.242
112.371
121.355
130.327
138.388
144.698
148.539
149.377
146.898
141.023
131.905
119.9
105.534
89.4421
72.3172
54.8429
37.6375
21.2045
5.89521
-8.10983
-20.8019
-32.3254
-42.9425
-52.9864
-62.8078
-72.7236
-82.9725
-93.6837
-104.861
-116.384
-128.021
-139.46
-150.338
-160.278
-168.923
-175.968
-181.182
-184.418
-185.626
-184.844
-182.193
-177.856
-172.063
-165.069
-157.13
-148.495
-139.387
-129.998
-120.492
-111.003
-101.644
-92.509
-83.6744
-75.2001
-67.1242
-59.4571
-52.1737
-45.209
-38.4555
-31.7677
-24.9706
-17.8755
-10.2983
-2.07929
6.89806
16.6928
27.2977
38.6373
50.5717
62.9048
75.3963
87.7743
99.7491
111.026
121.318
130.358
137.918
143.817
147.945
150.28
150.903
150.01
147.918
145.054
141.936
139.131
137.206
136.67
137.908
141.128
146.319
153.233
161.388
170.103
178.553
185.844
191.097
193.53
192.524
187.677
178.821
166.019
149.526
129.746
107.159
82.2687
55.5407
27.3726
-1.92029
-32.0933
-62.9359
-94.2157
-125.609
-156.626
-186.544
-214.364
-238.8
-258.322
-271.267
-275.999
-271.141
-255.824
-229.946
-194.37
-151.038
-102.951
-53.9904
-8.60121
28.6548
53.6112
63.0112
54.9487
29.1706
-12.812
-67.8258
-131.344
-197.966
-262.006
-318.116
-361.857
-390.153
-401.565
-396.366
-376.396
-344.756
-305.355
-262.411
-219.941
-181.323
-148.985
-124.223
-107.193
-97.0349
-92.1177
-90.3465
-89.4973
-87.5249
-82.8098
-74.3184
-61.667
-45.0932
-25.351
-3.55336
19.011
41.0587
61.4696
79.4033
94.3674
106.235
115.218
121.8
126.656
130.547
134.228
138.359
143.438
149.754
157.368
166.119
175.649
185.455
194.946
203.511
210.591
215.731
218.633
219.18
217.442
213.663
208.219
201.577
194.223
186.612
179.105
171.934
165.178
158.761
152.477
146.019
139.032
131.165
122.124
111.718
99.8924
86.7449
72.5274
57.6259
42.5273
27.7744
13.914
1.44527
-9.2267
-17.8269
-24.2319
-28.4746
-30.7334
-31.3063
-30.5746
-28.9604
-26.8829
-24.7195
-22.7745
-21.259
-20.2836
-19.862
-19.9257
-20.3451
-20.9554
-21.5816
-22.0622
-22.2674
-22.1117
-21.5598
-20.627
-19.3737
-17.8965
-16.3155
-14.7593
-13.3496
-12.1855
-11.3294
-10.7968
-10.5506
-10.502
-10.5179
-10.4347
-10.0774
-9.28164
-7.91604
-5.90147
-3.22536
0.051593
3.79727
7.81838
11.8781
15.7196
19.0922
21.7796
23.6258
24.5574
24.5998
23.8836
22.6416
21.1919
19.9098
19.1883
19.3911
20.8031
23.5843
27.7339
33.0702
39.2302
45.6921
51.8186
56.9181
60.3161
61.4299
59.8369
55.3276
47.9374
37.9523
25.8884
12.4473
-1.54692
-15.2209
-27.7278
-38.3151
-46.3779
-51.4899
-53.4083
-52.0503
-47.4451
-39.6659
-28.7551
-14.6586
2.8132
23.9798
49.228
78.8907
113.078
151.485
193.218
236.678
279.541
318.871
351.355
373.66
382.844
376.78
354.515
316.501
264.66
202.256
133.597
63.594
-2.75815
-60.9075
-107.215
-139.305
-156.257
-158.618
-148.253
-128.047
-101.515
-72.3691
-44.1002
-19.6208
-1.00939
10.6233
15.1404
13.2704
6.40688
-3.64854
-14.963
-25.7336
-34.5013
-40.2983
-42.7154
-41.8914
-38.4314
-33.2728
-27.5197
-22.2688
-18.4512
-16.708
-17.3152
-20.1629
-24.7885
-30.4579
-36.2778
-41.3257
-44.7765
-46.011
-44.6918
-40.7989
-34.6224
-26.7156
-17.8176
-8.7556
-0.343004
6.71601
11.902
14.9288
15.7602
14.5961
11.8305
7.99069
3.66509
-0.570182
-4.21632
-6.90194
-8.41323
-8.7022
-7.87419
-6.15767
-3.86174
-1.32749
1.12031
3.21477
4.77674
5.72946
6.09699
5.98744
5.56469
5.01352
4.50437
4.16346
4.05301
4.16434
4.42425
4.71287
4.88927
4.82003
4.40577
3.60136
2.42663
0.966343
-0.640285
-2.21843
-3.58175
-4.55808
-5.01295
-4.86784
-4.11108
-2.80011
-1.05529
0.954089
3.02993
4.96982
6.59336
7.76769
8.42903
8.59705
8.37945
7.96506
7.60524
7.58526
8.18876
9.65956
12.1657
15.77
20.4114
25.8988
31.9202
38.0657
43.8627
48.8209
52.4815
54.4662
54.5202
52.5433
48.608
42.9597
35.9994
28.2512
20.3162
12.8181
6.34513
1.39466
-1.67484
-2.6793
-1.62915
1.26797
5.62187
10.8906
16.4253
21.525
25.4981
27.7252
27.7171
25.1637
19.9675
12.2586
2.38733
-9.10294
-21.5222
-34.0929
-46.015
-56.5303
-64.9785
-70.841
-73.7678
-73.5887
-70.306
-64.073
-55.1563
-43.8842
-30.5857
-15.5255
1.15176
19.4519
39.5216
61.5862
85.8362
112.277
140.569
169.901
198.928
225.799
248.302
264.096
271.01
267.367
252.274
225.834
189.235
144.704
95.325
44.7293
-3.28131
-45.1508
-77.958
-99.7337
-109.664
-108.156
-96.7572
-77.941
-54.7911
-30.6209
-8.58131
8.69575
19.374
22.5793
18.4396
7.9999
-6.97035
-24.2473
-41.461
-56.4009
-67.2786
-72.9192
-72.8594
-67.348
-57.257
-43.9199
-28.9264
-13.9018
-0.302588
10.7487
18.5704
22.9618
24.1796
22.8561
19.8784
16.2459
12.9266
10.7315
10.221
11.6526
14.9729
19.851
25.7449
31.9906
37.8984
42.846
46.355
48.143
48.147
46.5166
43.5825
39.8027
35.6986
31.7875
28.5196
26.2281
25.0954
25.1391
26.2172
28.0505
30.2598
32.4113
34.0659
34.8259
34.3738
32.5007
29.1207
24.2725
18.1087
10.8759
2.88849
-5.50139
-13.933
-22.0643
-29.5937
-36.2771
-41.9371
-46.4666
-49.8282
-52.0477
-53.2065
-53.4314
-52.8826
-51.7421
-50.2001
-48.442
-46.6358
-44.9197
-43.3925
-42.107
-41.0676
-40.2328
-39.5223
-38.8289
-38.0334
-37.0212
-35.6972
-33.9994
-31.9064
-29.4407
-26.6654
-23.6763
-20.5894
-17.5274
-14.6052
-11.9178
-9.53092
-7.47569
-5.74745
-4.30797
-3.09033
-2.00521
-0.947218
0.199842
1.55932
3.25961
5.43252
8.21056
11.7213
16.0776
21.3623
27.6093
34.7811
42.7466
51.2619
59.9589
68.3441
75.8129
81.681
85.232
85.7809
82.745
75.717
64.5292
49.3007
30.4585
8.72897
-14.9017
-39.2566
-63.0585
-85.0331
-104.013
-119.032
-129.394
-134.712
-134.915
-130.209
-121.015
-107.874
-91.3458
-71.9241
-49.9725
-25.7127
0.734322
29.2539
59.6088
91.3011
123.457
154.769
183.515
207.663
225.064
233.69
231.912
218.747
194.059
158.672
114.375
63.811
10.2662
-42.6307
-91.2542
-132.336
-163.282
-182.422
-189.147
-183.934
-168.254
-144.37
-115.068
-83.335
-52.0518
-23.7104
-0.204331
17.2969
28.3808
33.3371
33.0314
28.7306
21.9057
14.0382
6.45454
0.202275
-4.01963
-5.87783
-5.37409
-2.77922
1.45445
6.7872
12.68
18.6664
24.4036
29.6979
34.5092
38.9345
43.1774
47.5084
52.2202
57.5828
63.8018
70.9816
79.0982
87.9816
97.313
106.637
115.391
122.952
128.695
132.062
132.622
130.136
124.59
116.212
105.457
92.9678
79.5062
65.878
52.8487
41.0673
31.0086
22.9378
16.9035
12.7566
10.1911
8.79916
8.13316
7.7641
7.33028
6.56993
5.3353
3.58807
1.37879
-1.18489
-3.97514
-6.87995
-9.83228
-12.8282
-15.9318
-19.2653
-22.9883
-27.2671
-32.2403
-37.9853
-44.4906
-51.6381
-59.1964
-66.8286
-74.1119
-80.5691
-85.7081
-89.0677
-90.2638
-89.0336
-85.2724
-79.0591
-70.6687
-60.5673
-49.3901
-37.9009
-26.9347
-17.3267
-9.83301
-5.04981
-3.34178
-4.78779
-9.15337
-15.896
-24.2051
-33.0757
-41.4069
-48.1163
-52.2548
-53.1087
-50.275
-43.7001
-33.6775
-20.8036
-5.89994
10.0881
26.2004
41.5634
55.4716
67.4362
77.2007
84.7215
90.1212
93.6249
95.4902
95.943
95.1296
93.0922
89.7701
85.0263
78.6933
70.6304
60.7816
49.2241
36.1989
22.1176
7.544
-6.84762
-20.3311
-32.1943
-41.8016
-48.6421
-52.3555
-52.7306
-49.6769
-43.1779
-33.2366
-19.8319
-2.90215
17.629
41.7808
69.4031
100.045
132.835
166.404
198.894
228.047
251.408
266.591
271.59
265.084
246.68
217.059
177.986
132.187
83.0883
34.4713
-9.93312
-46.8416
-73.764
-89.2508
-93.0153
-85.9183
-69.823
-47.3426
-21.517
4.53951
27.9762
46.4912
58.5329
63.4026
61.2517
52.9846
40.0857
24.3979
7.88335
-7.6068
-20.5256
-29.7711
-34.7614
-35.4445
-32.2454
-25.9646
-17.6437
-8.41835
0.623558
8.55986
14.718
18.7175
20.4709
20.1485
18.1156
14.8552
10.8866
6.69257
2.6633
-0.938079
-3.98622
-6.48272
-8.52834
-10.2847
-11.933
-13.6356
-15.5066
-17.5935
-19.8715
-22.2481
-24.5777
-26.6812
-28.3686
-29.4624
-29.8183
-29.3433
-28.0093
-25.8618
-23.0234
-19.6909
-16.125
-12.6336
-9.54525
-7.17695
-5.79584
-5.58041
-6.58564
-8.71817
-11.7268
-15.2124
-18.6587
-21.4832
-23.1027
-23.0085
-20.8413
-16.4561
-9.96901
-1.7759
7.46057
16.8583
25.3938
32.0043
35.7024
35.6893
31.4537
22.8426
10.0942
-6.17103
-25.002
-45.2048
-65.4565
-84.4313
-100.925
-113.962
-122.876
-127.351
-127.433
-123.494
-116.178
-106.315
-94.8338
-82.6691
-70.6798
-59.5836
-49.9126
-41.9904
-35.9324
-31.6631
-28.948
-27.4352
-26.6994
-26.2865
-25.7542
-24.7055
-22.8149
-19.8465
-15.6632
-10.2291
-3.605
4.06166
12.5509
21.588
30.8635
40.0546
48.8457
56.9482
64.1162
70.1571
74.9361
78.3742
80.4389
81.1317
80.4721
78.4836
75.183
70.5769
64.6661
57.4589
48.9929
39.3637
28.758
17.4864
6.01505
-5.01267
-14.7664
-22.2388
-26.2815
-25.6725
-19.2196
-5.89787
14.9848
43.611
79.4906
121.341
167.044
213.707
257.844
295.666
323.468
338.055
337.154
319.749
286.288
238.711
180.301
115.362
48.7736
-14.5261
-70.0619
-114.272
-144.839
-160.868
-162.885
-152.681
-133.021
-107.271
-78.9793
-51.4825
-27.5696
-9.2396
2.4268
7.27811
5.99621
-0.0842377
-9.21156
-19.4747
-29.0507
-36.4129
-40.4819
-40.7047
-37.0622
-30.012
-20.3784
-9.21071
2.37051
13.3195
22.7854
30.1955
35.2935
38.1334
39.0355
38.5108
37.1713
35.6352
34.4429
33.9934
34.5067
36.0164
38.389
41.3667
44.6235
47.8277
50.6992
53.0547
54.8336
56.1003
57.0235
57.8355
58.7775
60.0411
61.7144
63.7429
65.9132
67.8622
69.113
69.134
67.4123
63.532
57.2454
48.5269
37.6003
24.9352
11.2125
-2.73811
-16.0194
-27.7574
-37.1894
-43.7382
-47.0642
-47.0903
-43.9954
-38.1826
-30.2248
-20.7985
-10.6139
-0.352043
9.3856
18.1091
25.4544
31.1813
35.1606
37.3546
37.7979
36.5812
33.8407
29.7536
24.5365
18.4457
11.7752
4.84965
-1.98788
-8.39548
-14.0558
-18.7015
-22.1395
-24.2691
-25.0928
-24.7164
-23.3379
-21.228
-18.7014
-16.0854
-13.6865
-11.7609
-10.4919
-9.97479
-10.2139
-11.1284
-12.5685
-14.3375
-16.2179
-17.9984
-19.4966
-20.5769
-21.1602
-21.2255
-20.8031
-19.9624
-18.7951
-17.3984
-15.8597
-14.2459
-12.5975
-10.9288
-9.23069
-7.47742
-5.63261
-3.65583
-1.50844
0.840178
3.40469
6.17297
9.09161
12.0491
14.8596
17.2533
18.8797
19.331
18.1899
15.1045
9.88419
2.60896
-6.26552
-15.8264
-24.6694
-30.9341
-32.4257
-26.8287
-12.0048
13.6542
50.8637
99.1331
156.566
219.827
284.32
344.562
394.742
429.385
444.03
435.835
404.004
349.981
277.365
191.568
99.2508
7.61256
-76.3712
-146.669
-198.781
-230.139
-240.261
-230.674
-204.617
-166.578
-121.724
-75.3123
-32.1325
3.9369
30.2329
45.445
49.5881
43.8318
30.2225
11.3428
-10.0445
-31.3266
-50.3072
-65.3892
-75.663
-80.9016
-81.479
-78.2296
-72.2752
-64.8451
-57.1094
-50.0464
-44.3519
-40.3976
-38.2345
-37.6358
-38.1668
-39.2708
-40.3582
-40.8863
-40.4238
-38.6934
-35.5916
-31.1864
-25.6972
-19.4598
-12.8835
-6.40324
-0.431019
4.68795
8.7121
11.5286
13.164
13.7775
13.6384
13.0863
12.4822
12.1533
12.3405
13.1576
14.5659
16.3716
18.2467
19.7706
20.4891
19.9812
17.926
14.1602
8.71589
1.8354
-6.04272
-14.3238
-22.3196
-29.3257
-34.7032
-37.9548
-38.7841
-37.1315
-33.1807
-27.3349
-20.1666
-12.3458
-4.55751
2.58149
8.59388
13.192
16.2994
18.0416
18.7082
18.692
18.418
18.2703
18.5325
19.348
20.7088
22.472
24.4016
26.227
27.7072
28.6889
29.1473
29.2024
29.1076
29.2119
29.9027
31.537
34.3754
38.5261
43.9119
50.2643
57.1465
64.0037
70.2333
75.2646
78.6371
80.0654
79.4815
77.0473
73.1367
68.2883
63.137
58.3319
54.4544
51.945
51.05
51.7922
53.9701
57.1825
60.8745
64.3998
67.0893
68.3215
67.5853
64.5318
59.011
51.0893
41.0497
29.372
16.6952
3.76308
-8.64343
-19.7824
-29.0273
-35.9347
-40.2897
-42.1201
-41.6694
-39.3265
-35.5164
-30.568
-24.582
-17.3292
-8.21072
3.69759
19.5047
40.2799
66.7752
99.1441
136.713
177.865
220.061
260.033
294.112
318.658
330.535
327.545
308.774
274.783
227.628
170.69
108.344
45.5122
-12.8576
-62.3129
-99.3588
-121.807
-128.975
-121.708
-102.232
-73.8576
-40.5726
-6.57289
24.2065
48.5092
64.075
69.8261
65.9054
53.5707
34.9663
12.8063
-9.98692
-30.6421
-46.8533
-57.0154
-60.357
-56.9648
-47.7032
-34.0499
-17.8726
-1.1796
14.1226
26.4389
34.6392
38.1447
36.9447
31.5494
22.8901
12.1856
0.789236
-9.96207
-18.885
-25.0586
-27.8983
-27.1898
-23.0853
-16.063
-6.86044
3.61352
14.375
24.4624
33.0244
39.3926
43.1321
44.0671
42.2815
38.0941
32.0131
24.6753
16.7751
8.99282
1.92727
-3.95957
-8.38111
-11.2449
-12.65
-12.8653
-12.2896
-11.4009
-10.6992
-10.649
-11.6285
-13.8901
-17.5369
-22.5147
-28.623
-35.539
-42.8542
-50.1169
-56.8768
-62.7262
-67.3344
-70.4716
-72.0215
-71.9825
-70.4575
-67.6373
-63.777
-59.1718
-54.1332
-48.9681
-43.9624
-39.3693
-35.4015
-32.2269
-29.9653
-28.6863
-28.4066
-29.087
-30.6296
-32.8761
-35.6102
-38.5635
-41.429
-43.8802
-45.5962
-46.2902
-45.7385
-43.8052
-40.4601
-35.7854
-29.9703
-23.2936
-16.0951
-8.74028
-1.58185
5.07675
11.011
16.0946
20.3064
23.7241
26.5067
28.8684
31.047
33.2732
35.7414
38.5882
41.8783
45.5979
49.657
53.897
58.1027
62.0188
65.3681
67.8728
69.2777
69.3745
68.0267
65.1902
60.9268
55.4073
48.8991
41.7391
34.2934
26.9106
19.877
13.3868
7.53513
2.34469
-2.17486
-5.93934
-8.69025
-9.90615
-8.75404
-4.10851
5.34156
20.8961
43.5751
73.8189
111.216
154.322
200.623
246.679
288.446
321.735
342.759
348.657
337.933
310.723
268.841
215.6
155.43
93.3475
34.3589
-17.1241
-57.7706
-85.6592
-100.413
-103.131
-96.1435
-82.6248
-66.1348
-50.1463
-37.6241
-30.7031
-30.5011
-37.076
-49.521
-66.1736
-84.8986
-103.404
-119.546
-131.577
-138.331
-139.301
-134.636
-125.054
-111.693
-95.9378
-79.2261
-62.8851
-47.9982
-35.3221
-25.2551
-17.854
-12.8902
-9.93051
-8.42874
-7.81375
-7.56194
-7.24692
-6.56296
-5.32336
-3.43852
-0.881328
2.35095
6.26916
10.9115
16.3451
22.6487
29.8809
38.0402
47.0264
56.6126
66.4347
76.0045
84.7451
92.0453
97.3265
100.111
100.083
97.133
91.3793
83.162
73.0127
61.6036
49.6816
37.9977
27.2381
17.965
10.5729
5.26304
2.03721
0.711465
0.945886
2.28733
4.22006
6.21897
7.79988
8.56254
8.2225
6.62998
3.77511
-0.219566
-5.11742
-10.5941
-16.2687
-21.7375
-26.6061
-30.5184
-33.1811
-34.3816
-34
-32.0147
-28.5032
-23.6371
-17.6739
-10.9425
-3.82561
3.26349
9.90736
15.7137
20.3453
23.5471
25.1693
25.1819
23.679
20.873
17.0768
12.677
8.09968
3.77347
0.0919623
-2.61873
-4.12521
-4.30242
-3.13912
-0.734606
2.71128
6.91198
11.51
16.0938
20.2162
23.4156
25.2412
25.2825
23.2026
18.7728
11.9037
2.66973
-8.68019
-21.7282
-35.9121
-50.5674
-64.9832
-78.4646
-90.3936
-100.281
-107.801
-112.809
-115.338
-115.571
-113.817
-110.458
-105.918
-100.613
-94.9267
-89.1669
-83.5371
-78.0945
-72.7074
-67.0144
-60.3959
-51.9766
-40.6733
-25.3038
-4.75799
21.7798
54.5862
93.1747
136.141
181.124
224.915
263.716
293.538
310.682
312.235
296.519
263.403
214.441
152.797
82.9565
10.2766
-59.5946
-121.331
-170.508
-204.058
-220.567
-220.352
-205.339
-178.748
-144.646
-107.43
-71.2996
-39.8062
-15.5114
0.199916
7.14498
6.21754
-0.858147
-11.8509
-24.3742
-36.2176
-45.616
-51.4297
-53.2187
-51.2137
-46.1992
-39.3322
-31.9293
-25.2534
-20.33
-17.8151
-17.9281
-20.4524
-24.7972
-30.1068
-35.3972
-39.6981
-42.1824
-42.2644
-39.6595
-34.3992
-26.8059
-17.4327
-6.98247
3.78531
14.1441
23.4779
31.3383
37.477
41.851
44.6053
46.0343
46.5284
46.5133
46.3878
46.4676
46.9405
47.8401
49.0388
50.2631
51.1295
51.1959
50.0241
47.2442
42.6133
36.0605
27.7113
17.8884
7.08831
-4.0649
-14.8811
-24.6747
-32.8348
-38.8863
-42.5355
-43.6935
-42.4783
-39.1933
-34.2884
-28.307
-21.8277
-15.4058
-9.52187
-4.54249
-0.696227
1.93384
3.40163
3.87596
3.60861
2.89686
2.04539
1.33166
0.978699
1.13762
1.88131
3.20923
5.06197
7.34302
9.94411
12.7701
15.7593
18.8953
22.2091
25.7692
29.6625
33.968
38.7267
43.9125
49.4092
54.9955
60.3424
65.0249
68.5477
70.3845
70.0272
67.0413
61.1196
52.1281
40.1376
25.4347
8.51025
-9.97522
-29.2463
-48.4814
-66.8877
-83.7737
-98.6106
-111.076
-121.072
-128.72
-134.333
-138.359
-141.319
-143.731
-146.045
-148.577
-151.465
-154.651
-157.877
-160.721
-162.646
-163.073
-161.458
-157.373
-150.569
-141.014
-128.903
-114.627
-98.7012
-81.6651
-63.9594
-45.8073
-27.1249
-7.48934
13.8133
37.6522
64.8384
95.865
130.648
168.326
207.165
244.611
277.501
302.409
316.09
315.946
300.452
269.458
224.321
167.843
104.003
37.5441
-26.5522
-83.6144
-129.782
-162.393
-180.211
-183.473
-173.757
-153.7
-126.621
-96.0864
-65.4876
-37.6823
-14.731
2.24156
13.0581
18.3817
19.5177
18.1551
16.0905
14.9672
16.0653
20.1634
27.4828
37.7158
50.1248
63.6937
77.3059
89.9201
100.722
109.226
115.325
119.276
121.63
123.131
124.589
126.75
130.191
135.238
141.925
150.001
158.962
168.13
176.739
184.032
189.355
192.229
192.4
189.861
184.833
177.729
169.084
159.477
149.449
139.429
129.686
120.302
111.185
102.11
92.7793
82.9003
72.2577
60.7761
48.5578
35.892
23.2325
11.1482
0.252623
-8.87734
-15.781
-20.1812
-22.0298
-21.5251
-19.0981
-15.3704
-11.0875
-7.03694
-3.96008
-2.46923
-2.97973
-5.6654
-10.4427
-16.9854
-24.7677
-33.1297
-41.3581
-48.7701
-54.7919
-59.0219
-61.2702
-61.5731
-60.1788
-57.5103
-54.1086
-50.5662
-47.4569
-45.2735
-44.3773
-44.9662
-47.0631
-50.5247
-55.0676
-60.308
-65.8086
-71.1275
-75.8624
-79.6872
-82.3754
-83.8106
-83.9827
-82.9729
-80.9282
-78.0318
-74.4719
-70.4141
-65.98
-61.2352
-56.1871
-50.7926
-44.9739
-38.6417
-31.7204
-24.1754
-16.0368
-7.41805
1.47454
10.3419
18.805
26.4288
32.7565
37.3517
39.8435
39.9706
37.6183
32.8448
25.8912
17.1746
7.26175
-3.17344
-13.4054
-22.7196
-30.4752
-36.1598
-39.4278
-40.1157
-38.2289
-33.8971
-27.3025
-18.5896
-7.77349
5.3319
21.1406
40.2571
63.3648
91.0449
123.552
160.584
201.106
243.257
284.402
321.323
350.536
368.71
373.108
361.995
334.943
292.988
238.6
175.478
108.185
41.6734
-19.2388
-70.3734
-108.62
-132.228
-140.945
-135.963
-119.721
-95.5593
-67.2958
-38.7704
-13.4149
6.0993
18.0986
22.0083
18.3144
8.40088
-5.70712
-21.6554
-37.0844
-49.9232
-58.6201
-62.2868
-60.7454
-54.4823
-44.5235
-32.2538
-19.208
-6.86342
3.54046
11.1367
15.5063
16.6914
15.1507
11.6682
7.2293
2.88356
-0.389946
-1.79874
-0.822982
2.7358
8.74577
16.7734
26.1435
36.0229
45.5157
53.7614
60.0237
63.7631
64.6858
62.7655
58.2375
51.5666
43.3937
34.4672
25.5656
17.4211
10.6496
5.69526
2.79374
1.95858
2.99035
5.50792
8.99727
12.8724
16.5406
19.4652
21.2175
21.5129
20.2283
17.3982
13.1934
7.88551
1.80518
-4.70138
-11.309
-17.7391
-23.7707
-29.236
-34.0025
-37.9455
-40.9173
-42.7197
-43.0889
-41.6969
-38.1742
-32.154
-23.3318
-11.5347
3.2136
20.6419
40.2077
61.1071
82.3217
102.699
121.054
136.284
147.48
154.007
155.568
152.22
144.357
132.657
118.006
101.411
83.9061
66.4686
49.9509
35.0321
22.1906
11.6987
3.63434
-2.09278
-5.70618
-7.52373
-7.91943
-7.29035
-6.03183
-4.52263
-3.11963
-2.15965
-1.96399
-2.84073
-5.08001
-8.93925
-14.6178
-22.2236
-31.7375
-42.9824
-55.6045
-69.0744
-82.7115
-95.7326
-107.321
-116.708
-123.258
-126.542
-126.389
-122.903
-116.442
-107.556
-96.8881
-85.0597
-72.5474
-59.5863
-46.1143
-31.7776
-16.0045
1.85546
22.3454
45.6974
71.6469
99.3051
127.121
152.953
174.254
188.347
192.765
185.592
165.773
133.322
89.4137
36.3238
-22.7658
-84.0788
-143.633
-197.652
-242.955
-277.268
-299.426
-309.446
-308.461
-298.535
-282.378
-263.007
-243.393
-226.133
-213.184
-205.696
-203.945
-207.378
-214.752
-224.343
-234.203
-242.419
-247.347
-247.804
-243.179
-233.471
-219.248
-201.543
-181.696
-161.176
-141.402
-123.578
-108.576
-96.8666
-88.4974
-83.132
-80.1254
-78.6305
-77.718
-76.4959
-74.2135
-70.3407
-64.6148
-57.0531
-47.9315
-37.7356
-27.0908
-16.6814
-7.16862
0.882729
7.06219
11.1496
13.127
13.1678
11.6039
8.87955
5.49479
1.94858
-1.31345
-3.94049
-5.70342
-6.50544
-6.37675
-5.45531
-3.95738
-2.1423
-0.276223
1.4009
2.7013
3.50627
3.77263
3.52934
2.86564
1.91313
0.824678
-0.246883
-1.1676
-1.83663
-2.19459
-2.22572
-1.95426
-1.43626
-0.748385
0.0244469
0.801094
1.51444
2.11893
2.59493
2.94949
3.21373
3.43694
3.67784
3.99376
4.42865
5.00138
5.69609
6.45646
7.18578
7.75415
8.01303
7.81606
7.04338
5.62578
3.56418
0.940633
-2.08212
-5.27333
-8.35817
-11.0497
-13.0842
-14.2556
-14.4422
-13.6235
-11.8843
-9.40428
-6.43694
-3.27866
-0.23385
2.42
4.46262
5.75299
6.24098
5.9675
5.05422
3.68457
2.07921
0.46908
-0.930431
-1.94131
-2.43864
-2.35881
-1.70001
-0.515582
1.09846
3.01995
5.11897
7.27614
9.3988
11.4336
13.3749
15.2693
17.2181
19.3801
21.9777
25.307
29.7489
35.7746
43.9351
54.8205
68.9848
86.8319
108.478
133.615
161.399
190.408
218.687
243.897
263.55
275.318
277.361
268.626
249.057
219.685
182.567
140.576
97.0655
55.469
18.873
-10.3553
-30.8422
-42.3423
-45.7199
-42.7834
-36.0039
-28.1596
-21.9596
-19.6985
-22.9838
-32.5676
-48.2951
-69.1679
-93.5039
-119.169
-143.845
-165.302
-181.648
-191.522
-194.226
-189.777
-178.886
-162.864
-143.469
-122.722
-102.686
-85.2569
-71.9695
-63.8419
-61.2688
-63.9782
-71.0528
-81.0179
-91.9878
-101.857
-108.517
-110.076
-105.056
-92.5477
-72.3013
-44.7502
-10.9622
27.4742
68.6119
110.338
150.57
187.439
219.432
245.485
265.023
277.94
284.542
285.447
281.477
273.55
262.58
249.405
234.739
219.157
203.102
186.909
170.836
155.103
139.915
125.482
112.019
99.7396
88.8351
79.4547
71.6827
65.5225
60.8894
57.6134
55.4529
54.1159
53.2878
52.6591
51.9525
50.9432
49.4723
47.4509
44.8572
41.7261
38.1357
34.1925
30.0173
25.7334
21.459
17.3016
13.3556
9.70048
6.39945
3.49691
1.01522
-1.04904
-2.72824
-4.08489
-5.20953
-6.21449
-7.22335
-8.35686
-9.71691
-11.3708
-13.3381
-15.5829
-18.0116
-20.4789
-22.7996
-24.7669
-26.174
-26.8389
-26.6283
-25.4797
-23.4178
-20.5644
-17.1381
-13.4433
-9.84912
-6.75744
-4.56493
-3.62173
-4.19274
-6.42714
-10.3413
-15.8182
-22.6244
-30.441
-38.9034
-47.644
-56.3274
-64.6761
-72.479
-79.5852
-85.8839
-91.2759
-95.6427
-98.8185
-100.568
-100.572
-98.4212
-93.6141
-85.5714
-73.6618
-57.2557
-35.8116
-8.99588
23.1702
60.1592
100.813
143.282
185.059
223.127
254.225
275.2
283.404
277.086
255.708
220.127
172.615
116.692
56.7828
-2.25082
-55.6567
-99.3311
-130.282
-146.949
-149.344
-138.984
-118.646
-91.9636
-62.944
-35.4575
-12.7761
2.78252
10.0664
9.13555
1.1497
-11.8773
-27.4143
-42.7902
-55.559
-63.8057
-66.3578
-62.8824
-53.8654
-40.4846
-24.4011
-7.50426
8.35585
21.61
31.1577
36.4795
37.665
35.3587
30.6362
24.8325
19.3482
15.4594
14.1577
16.037
21.2396
29.4626
40.0201
51.9474
64.1304
75.442
84.8661
91.5976
95.1072
95.1683
91.8482
85.4688
76.5461
65.7176
53.6681
41.0619
28.4874
16.4176
5.1886
-5.00586
-14.1049
-22.1599
-29.3066
-35.733
-41.6463
-47.244
-52.6883
-58.0885
-63.4899
-68.8712
-74.1476
-79.181
-83.7943
-87.7892
-90.9663
-93.1445
-94.1801
-93.9823
-92.524
-89.847
-86.0617
-81.3392
-75.8994
-69.9936
-63.8851
-57.8296
-52.0562
-46.7522
-42.052
-38.0318
-34.7089
-32.0467
-29.9637
-28.3452
-27.0568
-25.9585
-24.917
-23.8175
-22.5713
-21.1215
-19.4449
-17.5504
-15.4755
-13.2794
-11.036
-8.82582
-6.72756
-4.81158
-3.13367
-1.73032
-0.614881
0.225732
0.833611
1.28163
1.67356
2.14152
2.83978
3.93417
5.58721
7.93978
11.0914
15.0812
19.8733
25.3475
31.2987
37.4446
43.4422
48.9102
53.4576
56.7143
58.3627
58.167
55.9993
51.8591
45.8843
38.3521
29.6678
20.3417
10.9549
2.11693
-5.57913
-11.5981
-15.4919
-16.9112
-15.5941
-11.3369
-3.954
6.75631
21.0222
39.0694
61.0445
86.8994
116.254
148.275
181.602
214.356
244.254
268.807
285.599
292.591
288.404
272.542
245.507
208.797
164.793
116.528
67.3928
20.8028
-20.1349
-52.9114
-75.8372
-88.1691
-90.1365
-82.8655
-68.2149
-48.5443
-26.4445
-4.45829
15.1743
30.722
41.0979
45.9143
45.4551
40.5746
32.5383
22.8301
12.9482
4.21882
-2.35387
-6.18373
-7.13704
-5.50554
-1.92621
2.73749
7.5344
11.5645
14.0992
14.669
13.1093
9.56126
4.43205
-1.67704
-8.06286
-14.0186
-18.9251
-22.3234
-23.9613
-23.8096
-22.0481
-19.0248
-15.1972
-11.061
-7.08022
-3.62424
-0.92251
0.959659
2.12086
2.79993
3.33259
4.09441
5.4382
7.63417
10.8214
14.9768
19.9074
25.2651
30.5853
35.3416
39.012
41.1458
41.4232
39.7
36.0295
30.6615
24.0157
16.6357
9.12782
2.09401
-3.93297
-8.54432
-11.4935
-12.7138
-12.3147
-10.558
-7.81808
-4.53189
-1.14589
1.93433
4.38533
5.99408
6.67075
6.446
5.45435
3.90693
2.05789
0.169159
-1.52228
-2.83076
-3.63986
-3.91071
-3.6811
-3.05675
-2.19685
-1.29617
-0.56613
-0.216608
-0.439874
-1.39728
-3.20887
-5.94559
-9.62385
-14.2021
-19.5792
-25.5959
-32.0379
-38.6439
-45.1172
-51.1405
-56.396
-60.5863
-63.4572
-64.819
-64.5647
-62.6837
-59.2695
-54.52
-48.7305
-42.2775
-35.5954
-29.1453
-23.3792
-18.7013
-15.4315
-13.7741
-13.7969
-15.4218
-18.4312
-22.4883
-27.1705
-32.0119
-36.5512
-40.3784
-43.1761
-44.7511
-45.0509
-44.1639
-42.3006
-39.7544
-36.8441
-33.8386
-30.8723
-27.8624
-24.4449
-19.9483
-13.4245
-3.74689
10.2235
29.4208
54.3363
84.803
119.846
157.639
195.587
230.545
259.143
278.177
285.028
278.019
256.686
221.894
175.803
121.662
63.4689
5.54582
-47.9295
-93.3627
-128.103
-150.68
-160.896
-159.762
-149.298
-132.237
-111.658
-90.6122
-71.7878
-57.2396
-48.2214
-45.1252
-47.5271
-54.3217
-63.9236
-74.5036
-84.2307
-91.4909
-95.062
-94.2282
-88.8268
-79.2309
-66.2713
-51.1136
-35.1054
-19.6108
-5.85287
5.22145
13.0377
17.443
18.7039
17.4541
14.6018
11.2081
8.35409
7.01295
7.94416
11.6211
18.2001
27.5315
39.2077
52.6387
67.1406
82.0247
96.6726
110.59
123.431
134.996
145.209
154.07
161.609
167.842
172.733
176.179
178.012
178.019
175.981
171.715
165.121
156.217
145.167
132.28
117.999
102.863
87.4594
72.3672
58.0995
45.0558
33.4884
23.4888
14.9961
7.82451
1.70727
-3.6524
-8.52965
-13.135
-17.5862
-21.8994
-26.0005
-29.7541
-33.0054
-35.6264
-37.5582
-38.8412
-39.6275
-40.1715
-40.801
-41.8721
-43.7155
-46.5824
-50.5987
-55.7357
-61.7994
-68.443
-75.1977
-81.5186
-86.8389
-90.6247
-92.4262
-91.9188
-88.9326
-83.4688
-75.7037
-65.9792
-54.7826
-42.7164
-30.4584
-18.7149
-8.16856
0.577386
7.05358
10.974
12.2743
11.1326
7.96958
3.42205
-1.70663
-6.51801
-10.1041
-11.6384
-10.4622
-6.15679
1.40734
12.0485
25.2826
40.3605
56.3308
72.1207
86.6273
98.8113
107.784
112.88
113.717
110.223
102.653
91.5661
77.7924
62.3697
46.471
31.3235
18.129
7.99694
1.89556
0.625397
4.81134
14.9033
31.1699
53.6689
82.1834
116.126
154.425
195.434
236.887
275.957
309.431
333.997
346.619
344.954
327.728
295.015
248.361
190.719
126.2
59.6552
-3.83338
-59.5099
-103.455
-132.991
-146.934
-145.662
-130.993
-105.906
-74.1469
-39.7634
-6.64234
21.901
43.4341
56.5902
61.1098
57.75
48.0829
34.2176
18.4887
3.14948
-9.88958
-19.2518
-24.1971
-24.6339
-21.0478
-14.3673
-5.78944
3.40508
12.0236
19.0982
23.9746
26.3482
26.2503
23.9934
20.0885
15.1506
9.80588
4.61271
0.00553349
-3.7355
-6.48827
-8.26969
-9.1998
-9.45636
-9.22763
-8.6708
-7.88211
-6.88292
-5.62356
-4.00422
-1.90906
0.752031
4.00125
7.75793
11.8175
15.8496
19.4168
22.0151
23.129
22.2977
19.18
13.6112
5.64204
-4.44729
-16.1598
-28.822
-41.6462
-53.8087
-64.5331
-73.1691
-79.2571
-82.5712
-83.135
-81.2108
-77.2618
-71.8955
-65.7932
-59.636
-54.0352
-49.4756
-46.2764
-44.5741
-44.3265
-45.3371
-47.294
-49.8175
-52.5099
-55.001
-56.9839
-58.2358
-58.6251
-58.1033
-56.6861
-54.4289
-51.4016
-47.6687
-43.2766
-38.2526
-32.612
-26.373
-19.5746
-12.2939
-4.65748
3.15325
10.907
18.3358
25.1552
31.0894
35.8979
39.3999
41.4949
42.1756
41.5317
39.746
37.079
33.8481
30.3994
27.0768
24.1919
21.9961
20.6594
20.2581
20.7716
22.0897
24.0288
26.3549
28.8089
31.1322
33.0878
34.4738
35.1306
34.9396
33.8177
31.7109
28.588
24.4405
19.2856
13.1749
6.20453
-1.47395
-9.6464
-18.032
-26.2813
-33.9741
-40.6109
-45.5973
-48.2229
-47.6438
-42.8861
-32.888
-16.5997
6.85631
37.9747
76.6365
121.905
171.896
223.78
273.922
318.184
352.356
372.648
376.193
361.47
328.587
279.372
217.246
146.903
73.8239
3.69035
-58.2185
-107.578
-141.445
-158.512
-159.16
-145.319
-120.157
-87.6463
-52.0673
-17.5176
12.5183
35.4888
49.955
55.6213
53.2265
44.3239
30.9879
15.4948
0.0184559
-13.6182
-24.113
-30.7621
-33.4472
-32.5481
-28.8021
-23.1375
-16.5084
-9.75421
-3.49782
1.90675
6.3791
10.0754
13.3213
16.5285
20.1096
24.402
29.6108
35.7739
42.751
50.2352
57.7815
64.8501
70.8592
75.243
77.5107
77.3028
74.4393
68.9543
61.1131
51.4082
40.5313
29.3228
18.7026
9.58812
2.80733
-0.983091
-1.36649
1.78575
8.29189
17.6655
29.149
41.7723
54.4331
65.9913
75.3712
81.6619
84.2064
82.6703
77.081
67.8322
55.651
41.5288
26.6223
12.1362
-0.80081
-11.2512
-18.5607
-22.4173
-22.8692
-20.302
-15.3775
-8.94413
-1.93034
4.76428
10.3679
14.3133
16.2847
16.2319
14.3506
11.0363
6.81664
2.27405
-2.03346
-5.64336
-8.24505
-9.71652
-10.1384
-9.78454
-9.09007
-8.5999
-8.90211
-10.5525
-13.9977
-19.506
-27.1132
-36.5929
-47.4555
-58.9793
-70.2725
-80.3597
-88.2842
-93.2149
-94.5427
-91.9554
-85.4807
-75.4916
-62.6723
-47.95
-32.4002
-17.1376
-3.20623
8.51833
17.4039
23.1059
25.5786
25.0533
21.9897
17.0081
10.8116
4.10808
-2.45919
-8.36557
-13.2403
-16.881
-19.2505
-20.4564
-20.721
-20.3423
-19.6508
-18.9626
-18.5296
-18.487
-18.798
-19.2022
-19.1717
-17.891
-14.2727
-7.02429
5.22384
23.7319
49.4188
82.6148
122.84
168.654
217.621
266.414
311.075
347.399
371.406
379.843
370.633
343.207
298.674
239.785
170.699
96.5725
23.0319
-44.4173
-100.957
-142.939
-168.22
-176.323
-168.404
-147.04
-115.873
-79.1515
-41.2443
-6.16208
22.8398
43.5457
54.9246
57.1279
51.3525
39.595
24.3358
8.19533
-6.39464
-17.4655
-23.7061
-24.5601
-20.2231
-11.5512
0.103522
13.1006
25.737
36.4616
44.055
47.7565
47.3296
43.0607
35.6979
26.34
16.2917
6.90284
-0.588851
-5.19578
-6.28464
-3.638
2.53116
11.6112
22.6645
34.5313
45.954
55.7068
62.7189
66.1789
65.61
60.91
52.3525
40.5501
26.3822
10.8974
-4.80205
-19.6781
-32.8664
-43.7626
-52.0758
-57.8414
-61.3921
-63.2901
-64.2297
-64.9237
-65.9891
-67.8502
-70.672
-74.3351
-78.4553
-82.4449
-85.6077
-87.2515
-86.802
-83.9022
-78.4799
-70.7756
-61.3252
-50.8995
-40.4101
-30.7938
-22.8921
-17.3429
-14.4986
-14.3829
-16.6896
-20.8266
-25.9942
-31.2899
-35.8232
-38.8256
-39.7411
-38.2862
-34.4728
-28.5925
-21.1676
-12.8743
-4.45221
3.38934
10.055
15.1277
18.4069
19.9168
19.8866
18.7069
16.8687
14.8948
13.2713
12.3888
12.4981
13.6868
15.8762
18.8397
22.2372
25.6618
28.6916
30.9417
32.1078
32
30.5597
27.8628
24.1055
19.5787
14.6328
9.63787
4.94454
0.849087
-2.43273
-4.78155
-6.17874
-6.69995
-6.4997
-5.78951
-4.81283
-3.81946
-3.04187
-2.6749
-2.85911
-3.66756
-5.09428
-7.04301
-9.31418
-11.5899
-13.4182
-14.2014
-13.1955
-9.53193
-2.26914
9.51592
26.5984
49.4463
78.0512
111.78
149.277
188.457
226.599
260.554
287.047
303.045
306.133
294.847
268.916
229.372
178.504
119.656
56.9043
-5.36075
-62.8862
-111.987
-149.901
-175.034
-187.051
-186.836
-176.297
-158.085
-135.237
-110.809
-87.5428
-67.6021
-52.4071
-42.5751
-37.9659
-37.8123
-40.9084
-45.8259
-51.1262
-55.542
-58.1103
-58.2458
-55.7551
-50.7972
-43.8044
-35.3788
-26.1818
-16.833
-7.82953
0.505559
8.04252
14.8344
21.0811
27.0761
33.1443
39.5796
46.5905
54.2597
62.5233
71.1705
79.8649
88.1839
95.6705
101.892
106.498
109.268
110.147
109.258
106.899
103.514
99.644
95.8741
92.7629
90.7794
90.2467
91.3017
93.875
97.6933
102.304
107.118
111.467
114.669
116.09
115.208
111.659
105.27
96.0733
84.3024
70.3727
54.8463
38.3886
21.7192
5.56189
-9.40274
-22.5796
-33.4938
-41.8165
-47.3807
-50.1859
-50.392
-48.3025
-44.3369
-38.9957
-32.8197
-26.3464
-20.0701
-14.4074
-9.6727
-6.06695
-3.67919
-2.50114
-2.45162
-3.40678
-5.23046
-7.79903
-11.0155
-14.8101
-19.1267
-23.8987
-29.0195
-34.3149
-39.5254
-44.3041
-48.2331
-50.8595
-51.7444
-50.522
-46.9556
-40.9845
-32.7528
-22.6139
-11.1092
1.07752
13.1852
24.4525
34.196
41.8804
47.1695
49.9534
50.3467
48.6597
45.3476
40.9443
35.9915
30.972
26.2559
22.0666
18.4694
15.3834
12.6141
9.90096
6.97202
3.59823
-0.361075
-4.92735
-9.99051
-15.3156
-20.5657
-25.3357
-29.1903
-31.6972
-32.4525
-31.0936
-27.3034
-20.8124
-11.4081
1.03746
16.5172
34.8171
55.4346
77.5092
99.7886
120.657
138.235
150.561
155.815
152.582
140.083
118.35
88.3014
51.6999
10.9938
-30.9436
-71.1382
-106.86
-135.94
-157.01
-169.639
-174.344
-172.469
-165.965
-157.091
-148.088
-140.866
-136.76
-136.375
-139.541
-145.384
-152.496
-159.171
-163.673
-164.496
-160.582
-151.462
-137.315
-118.931
-97.5962
-74.9126
-52.5923
-32.2407
-15.1689
-2.25139
6.15275
10.2111
10.5641
8.21789
4.40023
0.401034
-2.58305
-3.58057
-1.93999
2.62131
10.0156
19.8271
31.388
43.878
56.4304
68.2341
78.6178
87.1099
93.4672
97.6738
99.9121
100.513
99.8887
98.4695
96.6347
94.6634
92.7001
90.7431
88.6541
86.1884
83.0396
78.8937
73.4846
66.6431
58.3334
48.6721
37.9268
26.495
14.8671
3.57609
-6.85677
-15.9754
-23.4339
-29.028
-32.7097
-34.584
-34.8891
-33.9625
-32.199
-30.0052
-27.7562
-25.7594
-24.2297
-23.2773
-22.9088
-23.0419
-23.5293
-24.1884
-24.834
-25.3069
-25.4962
-25.3515
-24.8832
-24.1519
-23.2487
-22.27
-21.2921
-20.3488
-19.4174
-18.4155
-17.2105
-15.6402
-13.5433
-10.7941
-7.33718
-3.21342
1.4248
6.31556
11.1068
15.3924
18.7611
20.8538
21.4195
20.3655
17.7899
13.9921
9.45624
4.80593
0.734816
-2.08012
-3.07138
-1.86691
1.6437
7.27362
14.541
22.7112
30.8748
38.0541
43.3229
45.9251
45.3756
41.5289
34.6065
25.1774
14.0961
2.40471
-8.78661
-18.4237
-25.6201
-29.7401
-30.4393
-27.6588
-21.572
-12.4963
-0.786781
13.2628
29.4868
47.8604
68.4468
91.284
116.232
142.813
170.097
196.648
220.587
239.752
251.943
255.227
248.236
230.417
202.189
164.973
121.095
73.5594
25.7445
-18.9524
-57.469
-87.3837
-107.141
-116.171
-114.902
-104.666
-87.5119
-65.9704
-42.7719
-20.5706
-1.68915
12.089
19.6623
20.6793
15.5275
5.24823
-8.61317
-24.2023
-39.5753
-52.9172
-62.735
-68.0029
-68.2447
-63.5454
-54.4943
-42.0706
-27.4906
-12.0389
3.09068
16.925
28.796
38.3732
45.6458
50.8628
54.4468
56.8981
58.7044
60.2713
61.8794
63.6698
65.6567
67.756
69.8244
71.6955
73.2099
74.2318
74.6548
74.3969
73.3916
71.5781
68.8961
65.2863
60.6978
55.0996
48.4942
40.9288
32.5015
23.3617
13.7025
3.74747
-6.26611
-16.1055
-25.5593
-34.45
-42.6428
-50.0474
-56.6155
-62.3339
-67.2129
-71.2734
-74.5319
-76.9864
-78.6038
-79.3111
-78.992
-77.4899
-74.6174
-70.1739
-63.9679
-55.8442
-45.713
-33.5784
-19.5616
-3.91705
12.9637
30.5613
48.2539
65.3558
81.1679
95.0352
106.403
114.868
120.216
122.439
121.739
118.496
113.232
106.545
99.0414
91.2607
83.6142
76.3365
69.4646
62.8478
56.188
49.1066
41.2279
32.2665
22.1046
10.8457
-1.16375
-13.3512
-24.9712
-35.1892
-43.1858
-48.2658
-49.9588
-48.0962
-42.8534
-34.752
-24.6193
-13.5106
-2.6032
6.92419
14.0128
17.8309
17.854
13.9103
6.18696
-4.80211
-18.2806
-33.2975
-48.8262
-63.8622
-77.5075
-89.0332
-97.9135
-103.829
-106.64
-106.337
-102.976
-96.5967
-87.1593
-74.4919
-58.2762
-38.0802
-13.4453
15.9767
50.254
89.0007
131.239
175.327
218.997
259.486
293.792
318.987
332.567
332.792
318.942
291.477
252.055
203.411
149.108
93.1843
39.7509
-7.42179
-45.2737
-71.7387
-85.9115
-88.0802
-79.6282
-62.8203
-40.5037
-15.7645
8.42063
29.4943
45.5591
55.5236
59.1457
56.9744
50.206
40.4769
29.6241
19.4425
11.4689
6.8145
6.0623
9.23493
15.8316
24.9236
35.2938
45.5992
54.5382
61.0018
64.1935
63.7052
59.5449
52.1145
42.1442
30.5939
18.5341
7.02276
-3.00876
-10.8479
-16.0617
-18.5228
-18.3983
-16.1079
-12.2564
-7.55124
-2.71551
1.59381
4.85298
6.7177
7.04486
5.88908
3.47648
0.160609
-3.63328
-7.46808
-10.952
-13.7872
-15.8044
-16.982
-17.4477
-17.4622
-17.3878
-17.6438
-18.6519
-20.7777
-24.2723
-29.221
-35.5063
-42.792
-50.5323
-58.0112
-64.4096
-68.8949
-70.7248
-69.351
-64.5071
-56.2698
-45.0785
-31.7117
-17.2179
-2.81124
10.2578
20.8379
28.0026
31.1483
30.0535
24.8928
16.203
4.81195
-8.26349
-21.932
-35.1423
-46.9838
-56.7631
-64.0516
-68.7015
-70.8341
-70.8039
-69.1443
-66.5041
-63.5776
-61.0376
-59.4724
-59.3341
-60.8971
-64.2324
-69.1977
-75.4462
-82.4531
-89.56
-96.0341
-101.137
-104.196
-104.675
-102.227
-96.7404
-88.3531
-77.4468
-64.6159
-50.6144
-36.2873
-22.4914
-10.0178
0.479973
8.54037
13.9285
16.646
16.9161
15.1477
11.8815
7.72715
3.29641
-0.857436
-4.28973
-6.6983
-7.93877
-8.02101
-7.08821
-5.38114
-3.1902
-0.797441
1.58958
3.90873
6.31241
9.22332
13.3602
19.7155
29.469
43.8322
63.8332
90.068
122.462
160.089
201.095
242.764
281.723
314.285
336.88
346.513
341.184
320.209
284.378
235.937
178.384
116.109
53.9215
-3.46973
-51.9551
-88.4435
-111.149
-119.714
-115.167
-99.7176
-76.4337
-48.8441
-20.5141
5.34718
26.2053
40.414
47.3057
47.1599
41.0641
30.6942
18.0486
5.17262
-6.09296
-14.3111
-18.5773
-18.569
-14.5202
-7.12952
2.57637
13.4056
24.1649
33.8057
41.535
46.8818
49.7161
50.2217
48.8332
46.1481
42.8285
39.5052
36.6978
34.7576
33.839
33.8991
34.723
35.9689
37.2246
38.0685
38.1256
37.1131
34.8691
31.3635
26.6899
21.0424
14.6816
7.89444
0.956872
-5.89876
-12.5054
-18.771
-24.6766
-30.2633
-35.6133
-40.8273
-46.0018
-51.2116
-56.4977
-61.862
-67.2699
-72.6573
-77.94
-83.0246
-87.8152
-92.2179
-96.1405
-99.4908
-102.173
-104.087
-105.131
-105.205
-104.225
-102.131
-98.9026
-94.5689
-89.2133
-82.9732
-76.0322
-68.606
-60.9232
-53.2051
-45.646
-38.3979
-31.5619
-25.1863
-19.2733
-13.79
-8.68443
-3.90203
0.599652
4.8397
8.80799
12.4648
15.7458
18.5705
20.8539
22.5187
23.5075
23.7927
23.3846
22.3358
20.742
18.7388
16.4941
14.1975
12.0461
10.2291
8.9118
8.22043
8.23011
8.95644
10.352
12.3084
14.6629
17.21
19.7151
21.9288
23.6014
24.494
24.3882
23.0941
20.4576
16.369
10.7741
3.68647
-4.79791
-14.4881
-25.0891
-36.2005
-47.3253
-57.891
-67.2827
-74.8876
-80.1449
-82.5957
-81.9258
-77.9909
-70.8191
-60.5842
-47.5498
-31.9914
-14.109
6.05018
28.6342
53.9741
82.502
114.6
150.4
189.566
231.109
273.29
313.635
349.104
376.379
392.274
394.168
380.431
350.746
306.276
249.654
184.77
116.387
49.6419
-10.5117
-59.8427
-95.2871
-115.248
-119.714
-110.188
-89.439
-61.1274
-29.3397
1.88955
29.0165
49.3363
61.2034
64.1092
58.619
46.1886
28.8945
9.11796
-10.7724
-28.7024
-43.1056
-53.0516
-58.2806
-59.1513
-56.5189
-51.5649
-45.6063
-39.9104
-35.5363
-33.221
-33.3183
-35.7916
-40.2561
-46.0587
-52.3834
-58.3644
-63.1957
-66.2222
-67.0049
-65.3558
-61.3405
-55.2527
-47.5664
-38.8734
-29.8141
-21.0113
-13.0128
-6.24817
-1.00264
2.59059
4.54203
4.98383
4.13834
2.28187
-0.29153
-3.30235
-6.51036
-9.72986
-12.8344
-15.7513
-18.4484
-20.9154
-23.1433
-25.1069
-26.7536
-27.9996
-28.7368
-28.847
-28.2228
-26.7903
-24.5297
-21.4902
-17.7949
-13.637
-9.26366
-4.95329
-0.986194
2.38524
4.96383
6.62831
7.34493
7.16858
6.23356
4.73551
2.90709
0.990703
-0.788265
-2.24447
-3.2494
-3.74026
-3.72061
-3.25314
-2.44626
-1.4366
-0.369775
0.617902
1.41485
1.94502
2.17334
2.10558
1.78325
1.27466
0.663649
0.0375468
-0.523985
-0.957992
-1.22425
-1.30779
-1.21807
-0.985104
-0.653288
-0.273719
0.104449
0.443033
0.723731
0.956162
1.18388
1.48684
1.97889
2.79911
4.09697
6.01237
8.65305
12.0726
16.2527
21.0935
26.4133
31.9595
37.4291
42.4963
46.8437
50.1927
52.3286
53.1184
52.5176
50.5679
47.3842
43.1358
38.0227
32.2521
26.0156
19.4738
12.7467
5.91573
-0.961346
-7.8198
-14.5401
-20.8848
-26.4278
-30.4901
-32.1043
-30.0323
-22.8576
-9.1611
12.228
41.9401
79.7839
124.539
173.881
224.475
272.257
312.853
342.112
356.633
354.245
334.33
297.966
247.851
188.025
123.429
59.364
0.907456
-47.6226
-83.1029
-103.887
-109.904
-102.581
-84.5838
-59.4488
-31.1241
-3.49867
20.0304
36.9047
45.6272
45.8454
38.294
24.6146
7.08345
-11.712
-29.2062
-43.1571
-51.8832
-54.415
-50.55
-40.8151
-26.3479
-8.71964
10.2754
28.8375
45.3601
58.5894
67.7303
72.4917
73.0709
70.0858
64.4655
57.3161
49.78
42.9037
37.5305
34.2259
33.2437
34.5308
37.7669
42.4306
47.8803
53.4384
58.4666
62.427
64.9209
65.7075
64.7025
61.9628
57.6616
52.0588
45.4717
38.2479
30.7416
23.2944
16.219
9.78658
4.21551
-0.336517
-3.77846
-6.08837
-7.31208
-7.55758
-6.98502
-5.79272
-4.20031
-2.43029
-0.689839
0.845349
2.04355
2.82471
3.16254
3.08116
2.64669
1.95487
1.11602
0.238949
-0.584813
-1.29489
-1.8728
-2.34849
-2.80191
-3.35908
-4.18281
-5.45852
-7.37654
-10.1128
-13.8105
-18.5653
-24.4156
-31.3403
-39.2621
-48.0554
-57.5574
-67.5778
-77.9077
-88.3238
-98.5909
-108.46
-117.67
-125.947
-133.012
-138.595
-142.452
-144.397
-144.322
-142.227
-138.242
-132.629
-125.777
-118.185
-110.418
-103.061
-96.6679
-91.7024
-88.4882
-87.1693
-87.6848
-89.7624
-92.9312
-96.5563
-99.8914
-102.146
-102.565
-100.503
-95.5026
-87.3458
-76.0906
-62.0755
-45.8943
-28.3429
-10.3431
7.14709
23.226
37.1317
48.3057
56.4313
61.4411
63.4994
62.9628
60.3323
56.2054
51.2384
46.1266
41.6
38.433
37.4563
39.5597
45.6721
56.7081
73.475
96.5429
126.091
161.753
202.485
246.507
291.323
333.865
370.735
398.542
414.294
415.771
401.858
372.742
329.973
276.358
215.694
152.378
90.9538
35.6278
-10.1535
-44.0343
-64.9411
-73.1192
-70.0163
-58.036
-40.1977
-19.7512
0.205961
17.061
28.934
34.8166
34.5957
28.968
19.2652
7.22068
-5.2915
-16.5096
-25.0004
-29.8152
-30.5734
-27.4686
-21.2048
-12.8741
-3.79752
4.65274
11.2255
14.9401
15.1979
11.844
5.17737
-4.09227
-14.9331
-26.114
-36.3473
-44.4343
-49.3974
-50.5839
-47.7315
-40.988
-30.8869
-18.2812
-4.24685
10.0338
23.3935
34.7941
43.4194
48.7397
50.5423
48.9259
44.2645
37.1447
28.2873
18.4613
8.40176
-1.26186
-10.0581
-17.7046
-24.1147
-29.3825
-33.7483
-37.5514
-41.1752
-44.9924
-49.3165
-54.3635
-60.2283
-66.8767
-74.1514
-81.791
-89.4591
-96.778
-103.366
-108.87
-113.001
-115.555
-116.427
-115.621
-113.244
-109.491
-104.624
-98.9469
-92.7728
-86.4002
-80.0881
-74.0396
-68.3936
-63.2236
-58.5446
-54.3232
-50.4924
-46.9652
-43.647
-40.4452
-37.2747
-34.0605
-30.7381
-27.2538
-23.5653
-19.6445
-15.4825
-11.0957
-6.53303
-1.8808
2.7345
7.14887
11.1692
14.588
17.2043
18.8498
19.4164
18.8846
17.3452
15.0123
12.2224
9.41708
7.10778
5.82683
6.06793
8.22427
12.5322
19.0283
27.5261
37.6153
48.6857
59.9717
70.6153
79.7404
86.5323
90.3146
90.6158
87.2204
80.1968
69.9008
56.9523
42.1862
26.5838
11.1889
-2.98171
-15.0233
-24.2163
-30.0761
-32.3748
-31.1296
-26.5573
-18.9998
-8.83032
3.64475
18.268
35.0764
54.291
76.2404
101.222
129.322
160.217
193.026
226.216
257.64
284.68
304.52
314.487
312.442
297.131
268.456
227.61
177.046
120.281
61.5523
5.36233
-44.0115
-82.9921
-109.092
-121.17
-119.518
-105.783
-82.726
-53.8607
-23.0232
6.07344
30.2442
47.1485
55.4856
55.0551
46.6834
32.0359
13.3471
-6.89309
-26.2549
-42.6478
-54.5331
-61.0499
-62.0478
-58.0302
-50.0236
-39.3966
-27.654
-16.2345
-6.33561
1.21465
6.028
8.16416
8.08125
6.53908
4.47119
2.84403
2.52196
4.15472
8.09994
14.3879
22.7304
32.5688
43.1536
53.6428
63.206
71.1202
76.8478
80.0864
80.7874
79.1438
75.5491
70.5372
64.7104
58.6667
52.9363
47.9328
43.9248
41.0279
39.2141
38.3361
38.1591
38.396
38.7422
38.9046
38.6259
37.7011
35.9878
33.4112
29.9638
25.7028
20.7438
15.2525
9.4341
3.51924
-2.25187
-7.64755
-12.4631
-16.5379
-19.7689
-22.1186
-23.6164
-24.3525
-24.4645
-24.1182
-23.4851
-22.7175
-21.9267
-21.1654
-20.4196
-19.6104
-18.6097
-17.2671
-15.4455
-13.0599
-10.1121
-6.71308
-3.08923
0.433834
3.46718
5.61086
6.51457
5.93665
3.79101
0.173371
-4.63882
-10.2136
-16.0152
-21.4706
-26.0417
-29.2913
-30.9346
-30.8671
-29.1678
-26.0766
-21.9525
-17.2187
-12.3027
-7.58292
-3.34456
0.246233
3.15089
5.44914
7.31557
8.98621
10.7206
12.7636
15.3117
18.4862
22.316
26.7304
31.5623
36.5611
41.4132
45.7679
49.2667
51.5738
52.4061
51.56
48.9356
44.5553
38.5755
31.2895
23.12
14.5996
6.33947
-1.0114
-6.81257
-10.4766
-11.5047
-9.50543
-4.19376
4.62827
17.1006
33.329
53.3871
77.2828
104.883
135.805
169.296
204.13
238.567
270.39
297.047
315.896
324.514
321.032
304.452
274.864
233.552
182.935
126.367
67.7999
11.3668
-39.0625
-80.2958
-110.145
-127.623
-132.994
-127.665
-113.957
-94.7739
-73.2262
-52.2581
-34.3254
-21.1603
-13.6455
-11.8061
-14.9089
-21.6469
-30.3778
-39.3808
-47.096
-52.317
-54.3157
-52.8892
-48.3304
-41.3335
-32.8541
-23.9487
-15.6175
-8.67237
-3.64593
-0.749635
0.119739
-0.668351
-2.55629
-4.8916
-7.02079
-8.37102
-8.51042
-7.18219
-4.31199
0.00805891
5.55278
12.0074
19.014
26.2133
33.2799
39.9446
46.0066
51.335
55.8624
59.5728
62.488
64.6533
66.1255
66.9641
67.2251
66.9583
66.206
65.003
63.3766
61.3446
58.9141
56.0786
52.8169
49.0936
44.8631
40.0758
34.6876
28.6711
22.0256
14.7864
7.03132
-1.11657
-9.48982
-17.8813
-26.0525
-33.7458
-40.6998
-46.6669
-51.4333
-54.8382
-56.7912
-57.2853
-56.4031
-54.315
-51.2678
-47.5664
-43.5467
-39.5464
-35.874
-32.7806
-30.4387
-28.928
-28.233
-28.2495
-28.8011
-29.6614
-30.5813
-31.3154
-31.6463
-31.4026
-30.4692
-28.7884
-26.3527
-23.1916
-19.3541
-14.8932
-9.85284
-4.26341
1.85564
8.48487
15.5883
23.0942
30.8785
38.7525
46.4617
53.6942
60.1021
65.3318
69.0608
71.0358
71.1074
69.2556
65.6036
60.417
54.0886
47.1091
40.0263
33.3963
27.7313
23.4485
20.8256
19.9692
20.7994
23.0545
26.3168
30.0562
33.6886
36.6399
38.4099
38.6259
37.0791
33.7409
28.7558
22.4144
15.1108
7.29135
-0.596322
-8.14719
-15.0279
-20.9867
-25.8408
-29.4432
-31.6315
-32.1688
-30.6905
-26.6723
-19.4378
-8.21744
7.73578
28.984
55.7154
87.5633
123.471
161.64
199.59
234.34
262.691
281.598
288.549
281.932
261.3
227.503
182.674
130.031
73.5578
17.5771
-33.7189
-76.7166
-108.753
-128.369
-135.409
-130.967
-117.192
-96.9772
-73.585
-50.2519
-29.8217
-14.4493
-5.40605
-3.00282
-6.63142
-14.9127
-25.926
-37.4859
-47.4323
-53.8961
-55.5125
-51.5618
-42.0248
-27.5554
-9.37756
10.8759
31.3601
50.228
65.8282
76.8717
82.5531
82.6158
77.361
67.6015
54.5689
39.7853
24.9116
11.5871
1.27529
-4.87101
-6.11218
-2.18357
6.68973
19.8259
36.1635
54.3739
72.9975
90.5879
105.848
117.747
125.597
129.094
128.315
123.669
115.822
105.602
93.8946
81.5451
69.2831
57.667
47.0581
37.6202
29.3425
22.0769
15.5841
9.5807
3.78023
-2.07499
-8.19405
-14.7295
-21.7793
-29.3958
-37.5978
-46.382
-55.7302
-65.6102
-75.9692
-86.7205
-97.726
-108.78
-119.599
-129.82
-139.016
-146.721
-152.479
-155.886
-156.647
-154.624
-149.863
-142.608
-133.295
-122.513
-110.954
-99.3432
-88.3663
-78.5994
-70.4514
-64.1272
-59.6157
-56.7047
-55.0205
-54.0862
-53.3909
-52.4609
-50.9218
-48.5448
-45.2705
-41.2069
-36.6035
-31.8047
-27.1912
-23.118
-19.8582
-17.5632
-16.2418
-15.7633
-15.8818
-16.2774
-16.6068
-16.5554
-15.8831
-14.4566
-12.2641
-9.41048
-6.0943
-2.57113
0.891424
4.05894
6.76864
8.95483
10.6575
12.0131
13.2292
14.5472
16.1997
18.3684
21.1492
24.5299
28.3827
32.4725
36.4806
40.0379
42.7663
44.3202
44.4252
42.9089
39.721
34.9419
28.7789
21.5537
13.6848
5.66901
-1.93021
-8.48547
-13.2967
-15.5761
-14.4366
-8.90056
2.0538
19.3935
43.8754
75.8466
115.028
160.327
209.725
260.289
308.325
349.69
380.212
396.193
394.906
375.015
336.854
282.512
215.707
141.445
65.5161
-6.11414
-67.9488
-115.545
-145.977
-158.11
-152.671
-132.091
-100.163
-61.5603
-21.268
15.98
46.2086
66.5863
75.6538
73.3773
61.0353
40.9625
16.1945
-9.93876
-34.219
-53.8962
-66.9608
-72.3055
-69.7691
-60.0681
-44.6323
-25.376
-4.43343
16.1043
34.4226
49.1616
59.525
65.3121
66.8783
65.0346
60.9046
55.7584
50.8465
47.252
45.7767
46.871
50.6108
56.7202
64.6323
73.5769
82.6834
91.0835
98.0039
102.838
105.192
104.898
102.008
96.7612
89.5344
80.7931
71.0384
60.7629
50.4164
40.3843
30.9769
22.427
14.8947
8.47429
3.20208
-0.936035
-3.99852
-6.08261
-7.31882
-7.86451
-7.89608
-7.59954
-7.15985
-6.74989
-6.52012
-6.59015
-7.04307
-7.92287
-9.23486
-10.9483
-12.9999
-15.2984
-17.7276
-20.1508
-22.4145
-24.3551
-25.8073
-26.6177
-26.6599
-25.8526
-24.1759
-21.6844
-18.5117
-14.8671
-11.0202
-7.27739
-3.95032
-1.32174
0.387263
1.04395
0.620663
-0.800715
-3.03746
-5.82651
-8.85403
-11.7898
-14.3219
-16.1867
-17.1916
-17.227
-16.2693
-14.3747
-11.6676
-8.32594
-4.56632
-0.630377
3.22697
6.74774
9.68082
11.793
12.8824
12.7948
11.4422
8.82193
5.03199
0.280109
-5.11831
-10.7554
-16.1597
-20.8377
-24.3219
-26.2223
-26.2715
-24.3596
-20.5529
-15.0928
-8.37731
-0.925159
6.67205
13.804
19.8963
24.4601
27.1319
27.6991
26.1118
22.4789
17.0502
10.1884
2.33329
-6.03641
-14.4404
-22.4273
-29.5945
-35.5936
-40.1174
-42.871
-43.5303
-41.6979
-36.8705
-28.4351
-15.7065
1.9819
25.14
53.9486
88.0839
126.574
167.727
209.165
247.97
280.944
304.956
317.319
316.153
300.678
271.376
230.011
179.481
123.534
66.3727
12.2032
-35.2114
-72.9395
-99.1611
-113.309
-116.061
-109.181
-95.2562
-77.3404
-58.5779
-41.8376
-29.4089
-22.787
-22.5689
-28.4621
-39.3973
-53.7212
-69.442
-84.4915
-96.9746
-105.376
-108.703
-106.562
-99.149
-87.188
-71.8039
-54.3691
-36.3356
-19.0731
-3.73272
8.85394
18.2305
24.3267
27.4264
28.1014
27.1215
25.3516
23.6499
22.7758
23.3181
25.6465
29.8924
35.9549
43.5319
52.1679
61.3147
70.3943
78.8599
86.246
92.2054
96.529
99.1488
100.125
99.6205
97.8669
95.1251
91.6464
87.6378
83.2354
78.4888
73.3603
67.7377
61.4605
54.3568
46.285
37.1746
27.0599
16.1013
4.58981
-7.06721
-18.3774
-28.8093
-37.848
-45.0512
-50.101
-52.8419
-53.299
-51.6755
-48.3268
-43.7153
-38.3535
-32.7403
-27.3022
-22.3462
-18.032
-14.3663
-11.2206
-8.36703
-5.52872
-2.43316
1.1374
5.30718
10.0842
15.3561
20.9042
26.4317
31.603
36.0868
39.5986
41.936
43.0047
42.8299
41.5547
39.4241
36.7571
33.9105
31.2365
29.0396
27.5359
26.8197
26.8413
27.4001
28.1554
28.6561
28.3881
26.8356
23.5491
18.2137
10.7078
1.14311
-10.119
-22.481
-35.152
-47.2164
-57.7225
-65.7798
-70.6547
-71.8529
-69.1784
-62.7639
-53.0674
-40.8359
-27.0412
-12.7928
0.760977
12.5363
21.6094
27.2979
29.2205
27.3294
21.9135
13.5703
3.14932
-8.3298
-19.7775
-30.1429
-38.5202
-44.2397
-46.9322
-46.5554
-43.3751
-37.9001
-30.7749
-22.6422
-13.997
-5.05733
4.32084
14.659
26.7874
41.6911
60.2889
83.1777
110.39
141.215
174.122
206.825
236.474
259.976
274.379
277.282
267.196
243.805
208.086
162.255
109.571
53.9907
-0.257204
-49.1297
-89.2014
-118.013
-134.301
-138.072
-130.54
-113.92
-91.1181
-65.3697
-39.8579
-17.3696
-0.0233704
10.9035
15.0353
12.8485
5.5267
-5.25424
-17.5792
-29.5516
-39.525
-46.2826
-49.148
-48.021
-43.3392
-35.978
-27.1037
-18.0028
-9.90641
-3.83201
-0.458483
-0.0479084
-2.42124
-6.9893
-12.8342
-18.8309
-23.7937
-26.6292
-26.4784
-22.8284
-15.5816
-5.07361
7.96354
22.4864
37.2642
51.0249
62.6063
71.0904
75.9065
76.8876
74.2754
68.6727
60.9509
52.1258
43.2195
35.1254
28.4961
23.6664
20.6234
19.0233
18.2544
17.5345
16.0295
12.9764
7.79436
0.169746
-9.89575
-22.0783
-35.7666
-50.1327
-64.2292
-77.1011
-87.897
-95.9679
-100.939
-102.748
-101.643
-98.1393
-92.9476
-86.8727
-80.7043
-75.1118
-70.5573
-67.2393
-65.0752
-63.722
-62.6343
-61.1463
-58.5693
-54.2876
-47.8418
-38.9881
-27.7289
-14.3116
0.801352
16.9852
33.5204
49.6657
64.7276
78.1189
89.4003
98.3021
104.725
108.725
110.48
110.251
108.34
105.054
100.669
95.4202
89.4897
83.0199
76.1273
68.9255
61.5464
54.1568
46.9661
40.2236
34.205
29.1902
25.4356
23.1466
22.4523
23.388
25.8863
29.7784
34.8034
40.6248
46.8511
53.058
58.8096
63.6768
67.2517
69.1595
69.0672
66.6943
61.8238
54.3179
44.1358
31.3538
16.1834
-1.01467
-19.7255
-39.2878
-58.9166
-77.7415
-94.858
-109.388
-120.539
-127.657
-130.261
-128.05
-120.889
-108.771
-91.7778
-70.0415
-43.741
-13.1328
21.3749
59.1189
99.0708
139.754
179.217
215.098
244.774
265.607
275.245
271.946
254.862
224.257
181.596
129.494
71.5272
11.9076
-44.9232
-94.7462
-133.999
-160.138
-171.89
-169.349
-153.932
-128.174
-95.4186
-59.4232
-23.9429
7.66407
32.7613
49.6571
57.7051
57.2791
49.6344
36.6809
20.7013
4.05238
-11.1133
-23.0741
-30.6916
-33.4765
-31.5685
-25.6393
-16.7399
-6.11568
4.98324
15.4697
24.5458
31.7744
37.0897
40.7526
43.2621
45.2386
47.2993
49.9454
53.4767
57.9444
63.1479
68.6718
73.9557
78.3851
81.3854
82.508
81.4929
78.3009
73.1117
66.2888
58.3205
49.7444
41.071
32.717
24.9591
17.9148
11.5522
5.72343
0.215839
-5.1908
-10.6722
-16.3218
-22.134
-28.0098
-33.7824
-39.2552
-44.2454
-48.6218
-52.3306
-55.404
-57.9505
-60.1298
-62.1169
-64.0634
-66.0627
-68.1265
-70.175
-72.0442
-73.5076
-74.3092
-74.2017
-72.9848
-70.5358
-66.8306
-61.9499
-56.0723
-49.4539
-42.3992
-35.2266
-28.2343
-21.6695
-15.7051
-10.427
-5.83082
-1.8304
1.72485
5.02431
8.26503
11.618
15.195
19.021
23.0155
26.9872
30.6451
33.6258
35.5356
36.0032
34.736
31.5731
26.526
19.8011
11.7991
3.08937
-5.6382
-13.6398
-20.1943
-24.6802
-26.6442
-25.8517
-22.3133
-16.2848
-8.24089
1.17293
11.2034
21.0598
29.9827
37.3048
42.4988
45.2074
45.2567
42.6525
37.5611
30.2807
21.2047
10.7837
-0.510497
-12.2154
-23.8995
-35.1748
-45.6995
-55.1735
-63.3303
-69.9284
-74.7484
-77.596
-78.3146
-76.8022
-73.029
-67.0463
-58.9792
-48.9977
-37.2639
-23.8628
-8.73084
8.39872
28.0105
50.7652
77.3937
108.533
144.532
185.25
229.914
277.04
324.479
369.565
409.372
441.04
462.116
470.874
466.553
449.488
421.106
383.797
340.669
295.231
251.035
211.329
178.768
155.19
141.508
137.691
142.851
155.392
173.222
193.98
215.266
234.851
250.841
261.808
266.856
265.649
258.378
245.701
228.642
208.464
186.539
164.212
142.676
122.874
105.423
90.5828
78.2555
68.0237
59.2154
50.9923
42.4481
32.7096
21.028
6.85464
-10.1072
-29.8749
-52.1862
-76.5235
-102.159
-128.215
-153.739
-177.775
-199.439
-217.977
-232.814
-243.58
-250.118
-252.474
-250.872
-245.679
-237.36
-226.437
-213.447
-198.91
-183.298
-167.013
-150.38
-133.638
-116.94
-100.361
-83.9113
-67.5466
-51.1859
-34.7234
-18.0391
-1.00596
16.5054
34.6212
53.4568
73.1035
93.6101
114.959
137.037
159.611
182.303
204.581
225.759
245.02
261.457
274.136
282.172
284.808
281.497
271.971
256.285
234.838
208.358
177.861
144.571
109.828
74.9751
41.2475
9.66679
-19.0395
-44.491
-66.6703
-85.9013
-102.792
-118.152
-132.885
-147.886
-163.94
-181.638
-201.32
-223.049
-246.616
-271.564
-297.243
-322.87
-347.596
-370.572
-391.005
-408.209
-421.633
-430.882
-435.725
-436.083
-432.019
-423.706
-411.397
-395.391
-375.995
-353.492
-328.119
-300.048
-269.385
-236.184
-200.464
-162.245
-121.585
-78.6202
-33.5925
13.1202
60.9945
109.362
157.428
204.296
249.015
290.622
328.198
360.916
388.084
409.185
423.901
432.129
433.983
429.793
420.091
405.597
387.201
365.94
342.965
319.487
296.713
275.744
257.457
242.374
230.539
221.406
213.802
205.936
195.517
179.943
156.573
123.049
77.6192
19.4334
-51.2437
-132.936
-222.998
-317.805
-413.07
-504.256
-587.033
-657.723
-713.663
-753.451
-777.035
-785.631
-781.488
-767.534
-746.952
-722.745
-697.345
-672.333
-648.275
-624.73
-600.38
-573.295
-541.259
-502.138
-454.215
-396.469
-328.75
-251.853
-167.461
-78.0057
13.5716
104.091
190.428
269.791
339.947
399.384
447.39
484.041
510.124
526.975
536.283
539.869
539.472
536.565
532.214
527.01
521.059
514.037
505.293
493.993
479.263
460.343
436.704
408.131
374.771
337.122
295.996
252.443
207.651
162.851
119.209
77.7422
39.2505
4.27238
-26.93
-54.3612
-78.2599
-99.048
-117.268
-133.514
-148.367
-162.332
-175.792
-188.975
-201.939
-214.568
-226.587
-237.59
-247.076
-254.488
-259.268
-260.901
-258.967
-253.185
-243.447
-229.836
-212.636
-192.314
-169.496
-144.921
-119.395
-93.7326
-68.7055
-44.9963
-23.1611
-3.60566
13.4236
27.8357
39.6786
49.1136
56.384
61.7818
65.6155
68.1828
69.749
70.5331
70.7012
70.3661
69.5922
68.4036
66.7922
64.7258
62.1539
59.0115
55.2216
50.6988
45.3556
39.1139
31.9209
23.7704
14.7246
4.93396
-5.3504
-15.7762
-25.9034
-35.2317
-43.242
-49.4444
-53.4294
-54.9141
-53.7781
-50.0828
-44.0738
-36.1643
-26.9024
-16.9274
-6.91834
2.45861
10.5994
17.0048
21.3138
23.3263
23.0134
20.517
16.1367
10.3057
3.557
-3.51842
-10.3176
-16.2713
-20.8839
-23.7613
-24.6214
-23.2833
-19.6357
-13.5882
-5.01328
6.30633
20.7118
38.6672
60.7116
87.3597
118.955
155.492
196.439
240.588
285.991
329.99
369.373
400.659
420.464
425.92
415.083
387.262
343.22
285.197
216.769
142.515
67.5756
-2.88222
-64.1914
-112.659
-145.916
-163.114
-164.935
-153.434
-131.735
-103.622
-73.0895
-43.8962
-19.1848
-1.20386
8.8431
10.8131
5.51525
-5.49866
-20.2079
-36.4228
-52.0706
-65.4349
-75.3221
-81.1437
-82.9122
-81.1603
-76.8028
-70.9639
-64.7961
-59.315
-55.2706
-53.0659
-52.7323
-53.9567
-56.1544
-58.572
-60.4071
-60.9249
-59.5592
-55.9857
-50.1599
-42.3181
-32.9436
-22.7049
-12.3743
-2.73748
5.49451
11.7619
15.7126
17.2328
16.4495
13.7066
9.51638
4.4958
-0.706701
-5.48312
-9.32914
-11.8914
-12.9944
-12.6448
-11.0146
-8.4069
-5.20841
-1.837
1.31012
3.90107
5.70211
6.59569
6.58289
5.7714
4.35186
2.5665
0.6747
-1.0801
-2.49814
-3.44297
-3.85126
-3.7327
-3.1609
-2.25744
-1.17167
-0.0591866
0.938072
1.70803
2.17916
2.32504
2.16277
1.74617
1.15506
0.482541
-0.178144
-0.745262
-1.15761
-1.38
-1.40485
-1.25023
-0.954794
-0.570778
-0.155953
0.234209
0.553262
0.768656
0.86435
0.841066
0.714419
0.511391
0.265817
0.0136605
-0.211133
-0.379468
-0.468069
-0.458357
-0.333394
-0.0735632
0.347957
0.968572
1.8372
3.0118
4.55314
6.51532
8.93426
11.8161
15.1272
18.7888
22.6763
26.6245
30.4392
33.9122
36.8389
39.0363
40.3576
40.7046
40.0326
38.3519
35.723
32.2483
28.0621
23.3196
18.1874
12.8353
7.43178
2.14126
-2.87553
-7.45824
-11.44
-14.6354
-16.8229
-17.7209
-16.9599
-14.0575
-8.40362
0.731817
14.1571
32.6747
56.9533
87.3634
123.795
165.492
210.931
257.797
303.065
343.217
374.572
393.698
397.855
385.399
356.085
311.218
253.614
187.37
117.467
49.2485
-12.1491
-62.347
-98.1837
-118.024
-121.881
-111.344
-89.3246
-59.6534
-26.5978
5.64982
33.4418
54.0487
65.897
68.6499
63.1321
51.1201
35.032
17.5652
1.33021
-11.4723
-19.2953
-21.3849
-17.8074
-9.37028
2.5437
16.2009
29.7658
41.541
50.169
54.7728
55.0245
51.1385
43.7975
34.028
23.0445
12.0855
2.26267
-5.55911
-10.8398
-13.3938
-13.3737
-11.2138
-7.54581
-3.09902
1.39986
5.31568
8.17228
9.69258
9.80928
8.6482
6.48927
3.71258
0.737713
-2.03532
-4.27658
-5.76296
-6.39817
-6.21533
-5.3635
-4.0812
-2.66107
-1.41036
-0.612074
-0.490909
-1.18753
-2.74356
-5.09843
-8.09785
-11.5127
-15.0658
-18.4633
-21.4272
-23.7251
-25.1947
-25.759
-25.4324
-24.3168
-22.5873
-20.4722
-18.2264
-16.1046
-14.3351
-13.0986
-12.5129
-12.6268
-13.4212
-14.8186
-16.6974
-18.9099
-21.2999
-23.7166
-26.0238
-28.1023
-29.8469
-31.1591
-31.939
-32.0806
-31.4723
-30.0049
-27.5881
-24.1726
-19.7736
-14.4917
-8.52477
-2.16556
4.21644
10.2095
15.4065
19.4577
22.1208
23.2989
23.0605
21.6345
19.383
16.7525
14.2127
12.1923
11.0211
10.8881
11.8216
13.6934
16.2458
19.1348
21.9809
24.4186
26.1351
26.8939
26.5399
24.9915
22.223
18.2462
13.0966
6.82868
-0.477701
-8.70459
-17.6801
-27.1664
-36.8579
-46.3897
-55.3571
-63.3388
-69.9159
-74.6789
-77.2183
-77.1029
-73.8552
-66.9423
-55.7997
-39.9012
-18.8772
7.33014
38.3031
73.0122
109.747
146.15
179.365
206.301
223.992
229.984
222.713
201.794
168.174
124.111
72.9803
18.9214
-33.6252
-80.422
-117.913
-143.608
-156.324
-156.259
-144.887
-124.712
-98.9069
-70.8992
-43.9595
-20.8395
-3.50501
7.01377
10.6456
8.18427
1.0991
-8.71667
-19.2242
-28.5066
-34.9956
-37.6323
-35.9521
-30.0892
-20.7099
-8.88976
4.04695
16.7017
27.7709
36.19
41.2411
42.6139
40.4194
35.1581
27.6512
18.9428
10.1863
2.52591
-3.01496
-5.62855
-4.7931
-0.313407
7.67058
18.7061
32.0769
46.8738
62.0786
76.6525
89.6217
100.152
107.607
111.586
111.939
108.759
102.359
93.2273
81.9804
69.3025
55.8921
42.4106
29.4404
17.453
6.79055
-2.34256
-9.87573
-15.8603
-20.451
-23.8839
-26.452
-28.4813
-30.3065
-32.2485
-34.5919
-37.5647
-41.3202
-45.9219
-51.3333
-57.415
-63.9273
-70.544
-76.8727
-82.4858
-86.9577
-89.9056
-91.0314
-90.1576
-87.2527
-82.4429
-76.0061
-68.3493
-59.9697
-51.4069
-43.1885
-35.7785
-29.5326
-24.6663
-21.2386
-19.1524
-18.1711
-17.9494
-18.0748
-18.1142
-17.6626
-16.386
-14.057
-10.5761
-5.97877
-0.42727
5.81211
12.4025
18.9769
25.1799
30.7064
35.333
38.937
41.5041
43.1226
43.9658
44.2675
44.291
44.2986
44.5231
45.145
46.278
47.9617
50.1631
52.7852
55.68
58.6646
61.5384
64.0984
66.1514
67.5213
68.0511
67.6004
66.0414
63.2544
59.1296
53.5751
46.5362
38.0236
28.1495
17.1668
5.5046
-6.20534
-17.1207
-26.2049
-32.2746
-34.0826
-30.4381
-20.3593
-3.24736
20.9388
51.5356
87.0867
125.344
163.381
197.814
225.129
242.068
246.037
235.462
210.061
170.961
120.66
62.8114
1.86109
-57.4125
-110.409
-153.197
-182.913
-198.044
-198.526
-185.686
-162.017
-130.829
-95.8357
-60.7127
-28.7044
-2.31024
16.9099
28.4014
32.5551
30.5435
24.0853
15.1753
5.81721
-2.20839
-7.51938
-9.23731
-7.02114
-1.03554
8.13333
19.598
32.3078
45.1879
57.2638
67.7589
76.1594
82.241
86.0598
87.9102
88.2601
87.6695
86.7067
85.8703
85.5264
85.8697
86.9079
88.4735
90.2552
91.8458
92.7973
92.6765
91.115
87.8475
82.7375
75.7875
67.1364
57.0452
45.8727
34.0461
22.0275
10.2794
-0.767484
-10.7435
-19.363
-26.4403
-31.8981
-35.7658
-38.1711
-39.3226
-39.4872
-38.9641
-38.0565
-37.0451
-36.1639
-35.581
-35.3851
-35.5789
-36.0794
-36.727
-37.3007
-37.541
-37.1774
-35.9585
-33.6823
-30.2225
-25.5486
-19.7371
-12.9716
-5.53134
2.22966
9.91316
17.1115
23.4442
28.5918
32.3241
34.5184
35.1684
34.3799
32.3571
29.3791
25.7691
21.8615
17.9684
14.3514
11.2007
8.62595
6.65915
5.2693
4.38632
3.92977
3.8368
4.08354
4.69522
5.74173
7.31819
9.51292
12.3681
15.8409
19.7732
23.8782
27.7491
30.8914
32.7757
32.904
30.879
26.4649
19.6283
10.5513
-0.386759
-12.6566
-25.6495
-38.7583
-51.4566
-63.3617
-74.2722
-84.1731
-93.2101
-101.638
-109.754
-117.829
-126.045
-134.456
-142.971
-151.364
-159.299
-166.371
-172.148
-176.194
-178.078
-177.362
-173.566
-166.131
-154.403
-137.65
-115.136
-86.2621
-50.7506
-8.86354
38.4039
89.1967
140.789
189.717
232.066
263.876
281.627
282.736
265.965
231.709
182.072
120.735
52.6162
-16.6414
-81.2824
-136.072
-176.868
-201.053
-207.78
-197.997
-174.259
-140.362
-100.845
-60.4379
-23.5242
6.32248
26.6688
36.3932
35.6892
25.9138
9.31323
-11.3302
-33.0804
-53.2082
-69.4906
-80.4166
-85.2845
-84.1896
-77.9157
-67.7538
-55.2785
-42.1152
-29.7288
-19.2584
-11.414
-6.44101
-4.1504
-4.00078
-5.21624
-6.91884
-8.25573
-8.50418
-7.14318
-3.88717
1.31603
8.31544
16.8045
26.3749
36.5663
46.9074
56.9437
66.2559
74.4694
81.2616
86.3689
89.5966
90.8303
90.0483
87.3313
82.865
76.9336
69.9017
62.1852
54.2145
46.3938
39.0635
32.4708
26.7528
21.9353
17.9458
14.6382
11.8244
9.30695
6.90806
4.49004
1.96556
-0.70284
-3.5123
-6.43483
-9.43428
-12.4807
-15.559
-18.6695
-21.8218
-25.0217
-28.2574
-31.4863
-34.6277
-37.564
-40.1507
-42.235
-43.6805
-44.394
-44.3482
-43.5978
-42.2824
-40.616
-38.8625
-37.3012
-36.1856
-35.7045
-35.9488
-36.8925
-38.3892
-40.1864
-41.955
-43.331
-43.9624
-43.5556
-41.9138
-38.9635
-34.765
-29.5049
-23.4739
-17.0302
-10.5564
-4.41387
1.09956
5.78195
9.54711
12.4294
14.5733
16.2104
17.626
19.121
20.9724
23.3984
26.5312
30.3988
34.9197
39.9065
45.0795
50.0864
54.5261
57.9763
60.0226
60.2901
58.4762
54.384
47.9527
39.2831
28.6528
16.5178
3.49711
-9.65817
-22.1094
-32.9818
-41.4141
-46.599
-47.8075
-44.3995
-35.8245
-21.6267
-1.46814
24.8165
57.1311
95.002
137.456
182.927
229.219
273.568
312.807
343.636
362.971
368.326
358.169
332.198
291.481
238.438
176.646
110.496
44.7439
-15.9891
-67.7022
-107.416
-133.444
-145.51
-144.685
-133.187
-114.043
-90.6984
-66.5946
-44.7897
-27.6534
-16.6717
-12.373
-14.3754
-21.5356
-32.1741
-44.3397
-56.079
-65.6769
-71.8424
-73.822
-71.4353
-65.0352
-55.4064
-43.6191
-30.8623
-18.2787
-6.82125
2.8502
10.4246
15.9431
19.7546
22.4336
24.6734
27.1724
30.5268
35.1458
41.1976
48.592
57
65.905
74.6782
82.6674
89.2858
94.0897
96.8357
97.5092
96.3215
93.6779
90.1188
86.245
82.6356
79.7698
77.9632
77.3269
77.7544
78.9385
80.4148
81.6263
82.0009
81.0288
78.3328
73.7193
67.2048
59.0158
49.5608
39.3807
29.0841
19.2761
10.4908
3.13511
-2.54858
-6.49759
-8.82156
-9.77436
-9.71053
-9.03271
-8.13734
-7.36577
-6.96647
-7.07224
-7.69404
-8.73066
-9.9915
-11.2282
-12.17
-12.5587
-12.1779
-10.8756
-8.57862
-5.29874
-1.1345
3.7309
9.0329
14.4294
19.5059
23.7844
26.7388
27.8211
26.5004
22.3149
14.935
4.23018
-9.66846
-26.3227
-44.9703
-64.5454
-83.7429
-101.123
-115.248
-124.836
-128.91
-126.926
-118.851
-105.195
-86.9752
-65.619
-42.8277
-20.4057
-0.0836775
16.6446
28.653
35.2689
36.3076
32.0548
23.2058
10.7696
-4.04694
-19.9625
-35.7384
-50.2799
-62.7126
-72.4311
-79.1172
-82.7307
-83.4767
-81.7549
-78.0982
-73.1069
-67.3842
-61.4781
-55.8293
-50.727
-46.2699
-42.3324
-38.5366
-34.2377
-28.534
-20.3128
-8.34816
8.5469
31.318
60.4412
95.7046
136.047
179.499
223.25
263.872
297.655
321.042
331.081
325.834
304.688
268.5
219.568
161.415
98.4284
35.3895
-23.0408
-72.8089
-110.876
-135.493
-146.323
-144.388
-131.877
-111.824
-87.7134
-63.0613
-41.0192
-24.0487
-13.6999
-10.5127
-14.0458
-23.0209
-35.5554
-49.4498
-62.4887
-72.7176
-78.6615
-79.4653
-74.9439
-65.546
-52.244
-36.3713
-19.4321
-2.91085
11.897
24.0135
32.8557
38.2576
40.4412
39.9448
37.523
34.0317
30.3168
27.1158
24.9854
24.2594
25.0391
27.2122
30.4959
34.4944
38.7616
42.8613
46.4154
49.1362
50.8414
51.4511
50.9716
49.4707
47.0505
43.8242
39.8978
35.3629
30.2961
24.7665
18.8455
12.617
6.18306
-0.336234
-6.81064
-13.114
-19.1427
-24.8342
-30.182
-35.2426
-40.1318
-45.0101
-50.0587
-55.4481
-61.3051
-67.6825
-74.5357
-81.7103
-88.9422
-95.8704
-102.062
-107.045
-110.348
-111.542
-110.283
-106.344
-99.6516
-90.3051
-78.5883
-64.9677
-50.074
-34.668
-19.59
-5.69488
6.22096
15.4942
21.6624
24.5146
24.1196
20.823
15.2154
8.07191
0.270835
-7.29822
-13.825
-18.6556
-21.3454
-21.681
-19.6692
-15.4979
-9.47597
-1.96549
6.6816
16.1704
26.2859
36.8894
47.89
59.2007
70.6877
82.1269
93.1781
103.384
112.198
119.037
123.348
124.694
122.815
117.686
109.545
98.8801
86.3913
72.9205
59.3597
46.5517
35.1939
25.7604
18.4507
13.174
9.57075
7.06739
4.95886
2.50665
-0.959461
-5.9477
-12.7281
-21.2786
-31.2555
-41.9856
-52.4786
-61.4614
-67.4373
-68.7796
-63.8676
-51.2671
-29.949
0.477511
39.5519
85.8153
136.772
188.99
238.356
280.466
311.107
326.774
325.146
305.447
268.628
217.35
155.75
89.0119
22.8153
-37.2931
-86.5039
-121.259
-139.611
-141.379
-128.104
-102.792
-69.5046
-32.8414
2.61614
32.8291
54.7344
66.5365
67.8315
59.5567
43.7808
23.3696
1.57552
-18.3951
-33.7817
-42.5886
-43.7889
-37.3943
-24.3908
-6.55557
13.814
34.2211
52.2968
66.0933
74.3096
76.4239
72.7232
64.2292
52.5368
39.5869
27.4047
17.8375
12.3238
11.7209
16.2106
25.2926
37.8633
52.3674
67.0017
79.944
89.5773
94.6806
94.5651
89.1395
78.8998
64.8481
48.3542
30.9805
14.2936
-0.313394
-11.7658
-19.4052
-23.0305
-22.8825
-19.5772
-14.0011
-7.18395
-0.165892
6.12333
10.9603
13.8895
14.7453
13.6376
10.9039
7.03963
2.61535
-1.80507
-5.73693
-8.82859
-10.8922
-11.9097
-12.0152
-11.4587
-10.5573
-9.63989
-8.99563
-8.83014
-9.23719
-10.1882
-11.5409
-13.065
-14.4811
-15.5069
-15.9031
-15.513
-14.2887
-12.3012
-9.73078
-6.84242
-3.94705
-1.35763
0.653943
1.89157
2.25616
1.75075
0.469916
-1.42304
-3.72602
-6.22898
-8.74041
-11.1055
-13.2139
-14.9988
-16.4269
-17.4859
-18.1708
-18.4724
-18.371
-17.8363
-16.8312
-15.3199
-13.2778
-10.7002
-7.61014
-4.0627
-0.147404
4.01171
8.2575
12.4025
16.2334
19.5174
22.0116
23.4757
23.6865
22.4561
19.6499
15.2053
9.1471
1.59957
-7.20879
-16.9482
-27.2002
-37.4807
-47.2709
-56.0554
-63.3621
-68.7992
-72.0834
-73.0529
-71.6616
-67.9526
-62.0132
-53.9196
-43.6831
-31.2135
-16.314
1.28063
21.8191
45.41
71.8788
100.635
130.58
160.097
187.128
209.355
224.468
230.474
226.013
210.608
184.818
150.247
109.405
65.4381
21.764
-18.3231
-18.3231
-18.3231
-18.3231
-18.3231
-18.3231
-18.3231
-18.3231
-18.3231
-18.3231
-18.3231
-18.3231
-18.3231
-18.3231
-18.3231
-18.3231
-18.3231
-18.3231
-18.3231
-18.3231
