66.0991
114.049
162.956
210.097
252.617
287.814
313.443
327.961
330.713
322.009
303.097
276.023
243.411
208.179
173.226
141.14
113.954
92.9683
78.6785
70.7919
68.3367
69.8421
73.5628
77.7176
80.7135
81.3262
78.8208
73.0008
64.1852
53.1238
40.8648
28.5966
17.4852
8.52761
2.43783
-0.424328
-0.0763121
3.11006
8.47114
15.1434
22.1716
28.6212
33.6798
36.74
37.4532
35.7511
31.8354
26.1368
19.2528
11.8694
4.67998
-1.6917
-6.75462
-10.1936
-11.8895
-11.9148
-10.5091
-8.03628
-4.93228
-1.64922
1.39718
3.87075
5.54452
6.31465
6.19848
5.31854
3.87576
2.11628
0.296379
-1.34987
-2.63679
-3.44447
-3.72616
-3.50591
-2.86765
-1.9382
-0.866701
0.196398
1.11828
1.7984
2.17752
2.24057
2.0136
1.55582
0.948152
0.280116
-0.363141
-0.911998
-1.32036
-1.56971
-1.66901
-1.65083
-1.56461
-1.46805
-1.41816
-1.46281
-1.63411
-1.94389
-2.38193
-2.91686
-3.49956
-4.06863
-4.55771
-4.90407
-5.05809
-4.99317
-4.71529
-4.27134
-3.75502
-3.30884
-3.12126
-3.41796
-4.44741
-6.46113
-9.69043
-14.3214
-20.471
-28.1658
-37.3274
-47.7649
-59.1758
-71.158
-83.23
-94.8601
-105.503
-114.637
-121.808
-126.665
-128.985
-128.701
-125.901
-120.823
-113.835
-105.402
-96.0468
-86.3015
-76.6632
-67.5486
-59.2523
-51.9105
-45.4665
-39.6399
-33.8974
-27.4324
-19.158
-7.72887
8.39728
30.8453
61.1525
100.547
149.699
208.466
275.687
349.054
425.111
499.401
566.769
621.805
659.39
675.275
666.627
632.455
573.859
494.047
398.11
292.568
184.746
82.0369
-8.83473
-82.4781
-135.338
-165.982
-175.134
-165.476
-141.234
-107.617
-70.183
-34.2093
-4.14417
16.804
26.8993
25.9201
15.0213
-3.55188
-26.8505
-51.6533
-74.8875
-93.9877
-107.157
-113.507
-113.072
-106.711
-95.9113
-82.5455
-68.5964
-55.9013
-45.9382
-39.6773
-37.5092
-39.2504
-44.2175
-51.3556
-59.3998
-67.0476
-73.1213
-76.7018
-77.2201
-74.5
-68.7504
-60.5126
-50.5723
-39.8496
-29.282
-19.7141
-11.8083
-5.98382
-2.39029
-0.916148
-1.22756
-2.83088
-5.14867
-7.59884
-9.66661
-10.9611
-11.2507
-10.4751
-8.73436
-6.25882
-3.36527
-0.406688
2.27776
4.40603
5.78489
6.32723
6.05405
5.08261
3.60361
1.85158
0.0731547
-1.50244
-2.68691
-3.34823
-3.41658
-2.88146
-1.78154
-0.18946
1.80545
4.114
6.66098
9.39459
12.2904
15.3499
18.595
22.059
25.7764
29.7735
34.0601
38.624
43.4286
48.4123
53.4907
58.5603
63.5031
68.191
72.4922
76.2769
79.4236
81.8269
83.4044
84.104
83.9102
82.8478
80.9836
78.4235
75.3066
71.7948
68.0608
64.2733
60.5836
57.1125
53.9421
51.1106
48.6119
46.4006
44.3997
42.5113
40.6289
38.649
36.4819
34.0608
31.3473
28.3357
25.0536
21.5594
17.9387
14.297
10.7521
7.42389
4.42516
1.85175
-0.225393
-1.76622
-2.7649
-3.24986
-3.28084
-2.94286
-2.33813
-1.57646
-0.765405
-0.00104873
0.639481
1.10319
1.36359
1.42016
1.29524
1.02879
0.671819
0.279278
-0.0966833
-0.412425
-0.636912
-0.753898
-0.762126
-0.673771
-0.51151
-0.304829
-0.0862134
0.112137
0.260597
0.333198
0.307617
0.164475
-0.113468
-0.54161
-1.13287
-1.896
-2.833
-3.9363
-5.18624
-6.54962
-7.97993
-9.41933
-10.8023
-12.0606
-13.1285
-13.948
-14.4726
-14.6697
-14.5219
-14.0255
-13.1893
-12.0317
-10.5778
-8.85748
-6.90275
-4.74713
-2.42521
0.0265736
2.56841
5.15499
7.73311
10.2396
12.6002
14.7299
16.5352
17.9187
18.7856
19.0507
18.6473
17.5343
15.7023
13.1782
10.0264
6.348
2.27751
-2.02319
-6.3726
-10.5789
-14.4506
-17.8072
-20.4907
-22.3761
-23.3812
-23.4748
-22.6828
-21.0921
-18.8502
-16.1612
-13.2776
-10.4862
-8.08977
-6.38422
-5.6332
-6.04249
-7.73685
-10.7423
-14.9763
-20.2478
-26.2672
-32.6666
-39.0273
-44.9141
-49.9111
-53.6582
-55.8837
-56.4313
-55.2767
-52.5334
-48.4452
-43.3649
-37.7212
-31.9757
-26.5744
-21.8994
-18.2247
-15.6809
-14.2323
-13.6653
-13.5876
-13.4337
-12.4736
-9.82286
-4.45619
4.76913
19.0704
39.6667
67.668
103.926
148.853
202.235
263.056
329.381
398.32
466.116
528.35
580.276
617.253
635.231
631.232
603.763
553.099
481.384
392.538
291.952
186.013
81.5084
-15.0209
-97.9067
-162.875
-207.413
-230.929
-234.71
-221.669
-195.939
-162.356
-125.9
-91.1673
-61.9223
-40.7858
-29.077
-26.8185
-32.889
-45.2911
-61.4923
-78.791
-94.6625
-107.045
-114.54
-116.506
-113.06
-104.979
-93.5335
-80.2856
-66.8632
-54.7565
-45.1481
-38.7995
-35.9982
-36.5676
-39.932
-45.2215
-51.4026
-57.4135
-62.29
-65.2658
-65.8405
-63.8096
-59.2586
-52.5248
-44.1379
-34.7455
-25.0366
-15.6705
-7.21847
-0.121505
5.33282
9.01643
10.9517
11.2909
10.2875
8.26365
5.57648
2.5856
-0.375395
-3.02245
-5.13828
-6.58263
-7.2954
-7.29285
-6.65766
-5.52404
-4.05957
-2.4454
-0.857064
0.552605
1.66684
2.41378
2.77048
2.76268
2.46095
1.97459
1.44394
1.03156
0.912384
1.26249
2.24644
4.0033
6.63228
10.1794
14.6272
19.8888
25.8084
32.1693
38.7079
45.1341
51.1546
56.4967
60.9312
64.2891
66.4726
67.4591
67.2969
66.0956
64.0115
61.2307
57.9515
54.3686
50.6587
46.9715
43.4223
40.0893
37.0141
34.2048
31.6407
29.2796
27.0655
24.9371
22.8356
20.7123
18.5342
16.288
13.9814
11.6421
9.31437
7.05409
4.92161
2.97474
1.26167
-0.184851
-1.35143
-2.24541
-2.89323
-3.33588
-3.62188
-3.79863
-3.90351
-3.95609
-3.95292
-3.8661
-3.64637
-3.23082
-2.55473
-1.56603
-0.240448
1.40495
3.30236
5.32991
7.31563
9.04933
10.3015
10.8479
10.4961
9.11244
6.64387
3.13281
-1.27822
-6.35331
-11.7811
-17.2025
-22.2446
-26.5584
-29.8539
-31.9303
-32.6971
-32.1828
-30.5316
-27.9881
-24.8705
-21.5383
-18.3548
-15.6512
-13.6948
-12.6649
-12.638
-13.5845
-15.3753
-17.7986
-20.583
-23.426
-26.0239
-28.1001
-29.4292
-29.8561
-29.3056
-27.786
-25.3835
-22.2509
-18.5908
-14.6357
-10.6274
-6.79731
-3.34846
-0.442454
1.80977
3.35185
4.18115
4.34345
3.92423
3.03761
1.81461
0.392002
-1.09684
-2.52842
-3.79278
-4.79474
-5.45368
-5.7028
-5.48892
-4.77337
-3.53414
-1.7688
0.50244
3.23459
6.35767
9.77901
13.3883
17.0653
20.6892
24.1496
27.3562
30.2484
32.8018
35.0327
36.998
38.7925
40.541
42.3877
44.4815
46.9597
49.9313
53.4612
57.5575
62.1644
67.1598
72.3595
77.5274
82.3888
86.6481
90.007
92.1826
92.9247
92.0322
89.367
84.8668
78.555
70.5466
61.05
50.3618
38.8549
26.9585
15.1319
3.83227
-6.51825
-15.5655
-23.0505
-28.8283
-32.8765
-35.2917
-36.274
-36.1025
-35.1031
-33.6125
-31.9414
-30.3397
-28.9644
-27.8498
-26.8798
-25.7599
-23.9878
-20.8252
-15.2765
-6.08294
8.25063
29.3822
58.9965
98.6006
149.258
211.284
283.95
365.243
451.745
538.698
620.253
689.944
741.317
768.658
767.723
736.359
674.928
586.444
476.407
352.327
223.001
97.6196
-15.17
-108.143
-176.202
-216.818
-230.185
-219.044
-188.247
-144.096
-93.5714
-43.522
0.0584423
32.6102
51.3735
55.5186
46.0425
25.4651
-2.62317
-34.0947
-64.8284
-91.199
-110.458
-120.973
-122.306
-115.142
-101.092
-82.4019
-61.6111
-41.2186
-23.3834
-9.69988
-1.06623
2.34736
1.03739
-3.97027
-11.3084
-19.4787
-27.0547
-32.8542
-36.0617
-36.2916
-33.59
-28.3833
-21.3831
-13.4664
-5.54804
1.53921
7.14062
10.8441
12.5078
12.2517
10.4179
7.50878
4.11227
0.825975
-1.81072
-3.36935
-3.56543
-2.27093
0.492234
4.57397
9.72807
15.6493
22.0105
28.4964
34.8301
40.7926
46.2329
51.0716
55.2974
58.9592
62.1547
65.018
67.7055
70.3827
73.211
76.3351
79.8715
83.8991
88.4507
93.5076
98.996
104.787
110.696
116.492
121.903
126.629
130.358
132.791
133.658
132.749
129.93
125.166
118.526
110.188
100.425
89.5917
78.0932
66.3578
54.8046
43.8149
33.7088
24.7287
17.031
10.6848
5.67741
1.92395
-0.719665
-2.44285
-3.46596
-4.02608
-4.36331
-4.70733
-5.26446
-6.20564
-7.65585
-9.68614
-12.3091
-15.479
-19.0961
-23.0173
-27.0692
-31.0656
-34.825
-38.1886
-41.0342
-43.2866
-44.9222
-45.9674
-46.4916
-46.5956
-46.3966
-46.0119
-45.5443
-45.0692
-44.6268
-44.2193
-43.8139
-43.3505
-42.7531
-41.944
-40.8571
-39.4503
-37.7134
-35.6717
-33.3847
-30.9398
-28.4412
-25.9976
-23.7084
-21.6514
-19.8733
-18.3847
-17.1598
-16.1408
-15.2468
-14.3859
-13.4676
-12.4164
-11.1816
-9.74414
-8.11924
-6.3532
-4.51648
-2.69314
-0.968848
0.580888
1.90028
2.95927
3.75516
4.30977
4.66285
4.86308
4.95813
4.98561
4.96629
4.90072
4.76971
4.53847
4.16393
3.60396
2.82726
1.82232
0.604022
-0.78317
-2.26634
-3.74955
-5.12312
-6.27561
-7.10706
-7.54139
-7.53655
-7.09068
-6.24351
-5.07267
-3.6855
-2.20723
-0.76729
0.514647
1.54107
2.24603
2.60042
2.61291
2.32631
1.81035
1.1519
0.443792
-0.226002
-0.783856
-1.17743
-1.37951
-1.38857
-1.22621
-0.932122
-0.557431
-0.157284
0.21624
0.52015
0.724889
0.816744
0.798399
0.688014
0.517423
0.330087
0.179303
0.126932
0.242568
0.602833
1.29029
2.39152
3.99397
6.1815
9.02871
12.5946
16.9161
22.0018
27.828
34.3353
41.4287
48.9789
56.8261
64.7852
72.6518
80.2084
87.2323
93.5028
98.8105
102.967
105.814
107.239
107.18
105.641
102.691
98.4729
93.1926
87.1138
80.5407
73.798
67.2085
61.0693
55.6311
51.082
47.5376
45.0409
43.5694
43.0512
43.3852
44.4623
46.1833
48.4678
51.2514
54.47
58.0344
61.7997
65.5344
68.893
71.3917
72.385
71.0398
66.3084
56.907
41.3111
17.7867
-15.5273
-60.4692
-118.638
-191.122
-278.195
-379.036
-491.513
-612.083
-735.865
-856.881
-968.486
-1063.93
-1137.01
-1182.71
-1197.78
-1181.12
-1133.97
-1059.87
-964.329
-854.32
-737.605
-622.002
-514.663
-421.451
-346.474
-291.833
-257.589
-241.943
-241.594
-252.226
-269.052
-287.36
-302.99
-312.706
-314.423
-307.29
-291.615
-268.68
-240.463
-209.317
-177.639
-147.589
-120.857
-98.5324
-81.051
-68.2386
-59.4217
-53.5885
-49.5726
-46.2338
-42.612
-38.0385
-32.1929
-25.1065
-17.115
-8.775
-0.756972
6.2668
11.7243
15.2231
16.5978
15.9233
13.4938
9.77502
5.33624
0.77538
-3.35471
-6.60811
-8.68932
-9.4744
-9.00919
-7.48669
-5.20866
-2.53751
0.154491
2.53208
4.33457
5.40031
5.67637
5.2138
4.15083
2.68756
1.05673
-0.50467
-1.77911
-2.58478
-2.78327
-2.27934
-1.01486
1.04027
3.89686
7.5524
11.9924
17.1867
23.0821
29.5931
36.593
43.9079
51.3162
58.5528
65.3199
71.3019
76.185
79.6776
81.5309
81.5573
79.6446
75.7641
69.9739
62.4141
53.2982
42.899
31.5325
19.5399
7.26981
-4.93745
-16.7641
-27.9257
-38.1789
-47.3265
-55.219
-61.7551
-66.8797
-70.5801
-72.8819
-73.8434
-73.5487
-72.1018
-69.6198
-66.2276
-62.0542
-57.2304
-51.8883
-46.1621
-40.1895
-34.1125
-28.0775
-22.2327
-16.724
-11.6889
-7.2484
-3.49889
-0.504584
1.70839
3.155
3.89091
4.00841
3.62886
2.8925
1.94652
0.932839
-0.0232339
-0.822177
-1.3964
-1.71286
-1.77198
-1.60334
-1.2587
-0.803419
-0.30719
0.164809
0.559543
0.841829
0.997641
1.03473
0.980494
0.877244
0.775381
0.725193
0.768295
0.92985
1.21275
1.59477
2.02941
2.45076
2.78192
2.94612
2.87882
2.53905
1.9179
1.04283
-0.0233284
-1.18859
-2.34249
-3.3698
-4.16507
-4.64618
-4.76475
-4.51204
-3.91981
-3.05585
-2.01523
-0.908353
0.152367
1.06558
1.75211
2.16283
2.2827
2.13074
1.75647
1.23377
0.653202
0.113913
-0.28389
-0.445496
-0.287046
0.260083
1.24543
2.69567
4.61062
6.95906
9.67485
12.6544
15.7568
18.8083
21.612
23.9635
25.6714
26.5807
26.5961
25.7005
23.9666
21.5567
18.7121
15.7298
12.9312
10.6255
9.07271
8.4519
8.83802
10.1913
12.3605
15.0991
18.0933
20.9973
23.4717
25.2205
26.0216
25.749
24.3825
22.0058
18.794
14.9917
10.8857
6.77519
2.94353
-0.366678
-2.97172
-4.75762
-5.68316
-5.77551
-5.11975
-3.84414
-2.10304
-0.0597563
2.12869
4.32351
6.41161
8.30832
9.95554
11.3162
12.3657
13.0824
13.4374
13.3852
12.8573
11.7577
9.96337
7.32803
3.69038
-1.11434
-7.23979
-14.8117
-23.9097
-34.5481
-46.6585
-60.0739
-74.5187
-89.6054
-104.842
-119.649
-133.389
-145.411
-155.09
-161.889
-165.401
-165.391
-161.827
-154.886
-144.946
-132.55
-118.368
-103.129
-87.5702
-72.3707
-58.1081
-45.224
-34.0075
-24.5953
-16.9856
-11.0588
-6.59983
-3.31315
-0.824866
1.33319
3.75731
7.21954
12.7184
21.5165
35.1434
55.3429
83.9433
122.645
172.73
234.725
308.06
390.798
479.487
569.217
653.887
726.707
780.872
810.339
810.598
779.32
716.795
626.062
512.728
384.467
250.263
119.507
1.03018
-97.7718
-171.645
-217.915
-236.625
-230.362
-203.806
-163.085
-115.003
-66.2535
-22.7109
11.1253
32.4797
40.4176
35.7374
20.6702
-1.5575
-27.2332
-52.6697
-74.656
-90.7977
-99.7169
-101.102
-95.6148
-84.6909
-70.2577
-54.4283
-39.2059
-26.2384
-16.6489
-10.956
-9.08396
-10.4514
-14.1177
-18.96
-23.8547
-27.8364
-30.2153
-30.6417
-29.1139
-25.9348
-21.6294
-16.8395
-12.2131
-8.30575
-5.50618
-3.99523
-3.73981
-4.51925
-5.97678
-7.68589
-9.22046
-10.2182
-10.4287
-9.74125
-8.18957
-5.93608
-3.23894
-0.408458
2.24022
4.43161
5.96571
6.74139
6.76535
6.14688
5.08023
3.81794
2.63922
1.81742
1.5907
2.13879
3.5682
5.90659
9.10647
13.0569
17.6013
22.5583
27.744
32.9905
38.1605
43.1557
47.9173
52.4213
56.6681
60.6699
64.4377
67.97
71.2455
74.2201
76.8294
78.9948
80.6334
81.6688
82.0419
81.7198
80.7009
79.0161
76.7258
73.9131
70.6736
67.104
63.2915
59.3042
55.1859
50.9553
46.6096
42.1336
37.5112
32.7377
27.8318
22.8429
17.8537
12.9766
8.34464
4.09803
0.368095
-2.73792
-5.1498
-6.84258
-7.83922
-8.20733
-8.05078
-7.49757
-6.68568
-5.74899
-4.80487
-3.94496
-3.22969
-2.68691
-2.31422
-2.08418
-1.95143
-1.86055
-1.75385
-1.57806
-1.28983
-0.859533
-0.273653
0.464163
1.33327
2.29723
3.30614
4.29995
5.21291
5.97893
6.53752
6.8399
6.85443
6.57092
6.00287
5.1874
4.1826
3.06244
1.90989
0.808836
-0.164108
-0.94697
-1.4981
-1.79951
-1.85748
-1.70055
-1.37512
-0.939334
-0.456089
0.0140508
0.419127
0.720602
0.896257
0.940971
0.865481
0.693414
0.457125
0.192921
-0.0636924
-0.282179
-0.440123
-0.525109
-0.535294
-0.478819
-0.372397
-0.239458
-0.108231
-0.0100707
0.0218486
-0.0465022
-0.249188
-0.619343
-1.18776
-1.9808
-3.01763
-4.3069
-5.84344
-7.60538
-9.55253
-11.6266
-13.7536
-15.8485
-17.8224
-19.5901
-21.0789
-22.2364
-23.0357
-23.4789
-23.5963
-23.4425
-23.0894
-22.6176
-22.1062
-21.6238
-21.2213
-20.9278
-20.7497
-20.6742
-20.6744
-20.7171
-20.77
-20.8082
-20.8176
-20.7955
-20.7474
-20.6815
-20.6011
-20.4968
-20.341
-20.0844
-19.6578
-18.9771
-17.9528
-16.502
-14.5609
-12.0962
-9.11376
-5.663
-1.83566
2.23993
6.40905
10.5035
14.3556
17.8117
20.743
23.0536
24.6846
25.6147
25.8569
25.4538
24.471
22.99
21.1015
18.9001
16.4796
13.9297
11.3335
8.76559
6.29097
3.96346
1.825
-0.0949602
-1.77931
-3.22244
-4.42833
-5.40783
-6.17513
-6.74394
-7.12359
-7.31563
-7.31066
-7.08492
-6.59511
-5.76911
-4.48956
-2.56773
0.293923
4.54895
10.8584
20.1355
33.5678
52.5964
78.8313
113.889
159.149
215.441
282.708
359.691
443.71
530.612
614.927
690.256
749.869
787.44
797.839
777.85
726.711
646.383
541.504
419.003
287.439
156.128
34.1822
-70.42
-151.623
-205.837
-232.195
-232.477
-210.762
-172.826
-125.401
-75.3808
-29.0643
8.46483
33.769
45.2606
43.174
29.3324
6.75357
-20.8401
-49.5419
-75.7454
-96.5398
-109.979
-115.203
-112.421
-102.762
-88.0351
-70.4342
-52.2309
-35.4913
-21.851
-12.3676
-7.45954
-6.93085
-10.0664
-15.7807
-22.7941
-29.8137
-35.6943
-39.5643
-40.9026
-39.5646
-35.7587
-29.9823
-22.9294
-15.3838
-8.1145
-1.78345
3.12262
6.33141
7.79367
7.66357
6.25653
3.99226
1.33159
-1.28418
-3.48452
-5.00604
-5.71138
-5.59019
-4.74419
-3.36013
-1.67517
0.0598291
1.61455
2.8069
3.52165
3.71891
3.4329
2.76257
1.85621
0.892722
0.0619336
-0.454146
-0.497465
0.0534978
1.27532
3.19561
5.7933
9.00292
12.7222
16.8227
21.1612
25.5932
29.9841
34.2206
38.2179
41.9247
45.3236
48.4288
51.2791
53.9286
56.4365
58.8547
61.2178
63.5337
65.7783
67.8935
69.7888
71.347
72.4328
72.9038
72.6236
71.4746
69.3714
66.2726
62.1898
57.1931
51.4126
45.0333
38.2861
31.4329
24.7482
18.4984
12.9206
8.20391
4.47406
1.78402
0.111412
-0.636973
-0.61399
-0.0154895
0.939891
2.03225
3.06089
3.86155
4.31867
4.37157
4.0142
3.28893
2.27544
1.07634
-0.198485
-1.44694
-2.58734
-3.56719
-4.36738
-5.00147
-5.51047
-5.95417
-6.40008
-6.91177
-7.53802
-8.30415
-9.20663
-10.2116
-11.2573
-12.2605
-13.1258
-13.7562
-14.0653
-13.9875
-13.4862
-12.5595
-11.2403
-9.59414
-7.71112
-5.69656
-3.65927
-1.70017
0.0971381
1.67267
2.99209
4.04462
4.83719
5.38638
5.70973
5.81831
5.71229
5.38054
4.80461
3.96666
2.85985
1.49935
-0.0684329
-1.76038
-3.4567
-5.0073
-6.24437
-7.00019
-7.12813
-6.52409
-5.14556
-3.02529
-0.277114
2.90737
6.27176
9.51657
12.3276
14.4085
15.5127
15.4727
14.2218
11.805
8.37872
4.19793
-0.407929
-5.06749
-9.40472
-13.0767
-15.8075
-17.4141
-17.8224
-17.0698
-15.2975
-12.7307
-9.65196
-6.36935
-3.18454
-0.36351
1.88663
3.4328
4.22191
4.27789
3.69075
2.59971
1.17284
-0.414275
-1.99825
-3.44411
-4.65646
-5.58491
-6.22353
-6.60476
-6.78884
-6.85008
-6.86198
-6.88298
-6.94516
-7.04715
-7.15264
-7.19448
-7.08387
-6.72315
-6.0204
-4.90345
-3.33156
-1.30275
1.14381
3.93086
6.95095
10.078
13.181
16.1379
18.8487
21.2452
23.2975
25.016
26.4498
27.68
28.8096
29.9504
31.2065
32.6577
34.3421
36.2422
38.2751
40.2904
42.0764
43.3763
43.912
43.4153
41.6617
38.5023
33.8906
27.8985
20.7194
12.6571
4.10162
-4.50658
-12.7183
-20.119
-26.3684
-31.2307
-34.5928
-36.467
-36.9804
-36.3508
-34.8544
-32.7887
-30.437
-28.0373
-25.7602
-23.6956
-21.8483
-20.1385
-18.4014
-16.3794
-13.7037
-9.85993
-4.14482
4.37808
16.9048
34.8773
59.9059
93.6108
137.378
192.046
257.561
332.661
414.653
499.369
581.327
654.136
711.101
745.978
753.772
731.454
678.495
597.122
492.239
371.022
242.215
115.238
-0.800175
-98.0453
-170.685
-215.482
-232.008
-222.537
-191.653
-145.614
-91.5671
-36.7146
12.4649
50.8562
75.1419
83.9952
78.0299
59.5312
32.0191
-0.289788
-33.0499
-62.3128
-84.9546
-98.9615
-103.555
-99.1549
-87.2051
-69.891
-49.7993
-29.5632
-11.5403
2.44325
11.2557
14.5221
12.5864
6.3914
-2.70337
-13.1338
-23.3459
-31.9864
-38.0466
-40.9488
-40.5698
-37.2047
-31.484
-24.2568
-16.461
-8.99653
-2.61755
2.14433
5.02032
6.00688
5.33432
3.40943
0.742343
-2.1312
-4.72186
-6.64431
-7.65489
-7.66654
-6.74189
-5.06771
-2.91612
-0.599103
1.57716
3.35228
4.5414
5.05228
4.88899
4.14369
2.97902
1.60478
0.252549
-0.848433
-1.49159
-1.50814
-0.776367
0.774523
3.16536
6.37164
10.3309
14.9517
20.1237
25.7272
31.6422
37.7553
43.9641
50.1782
56.3181
62.3099
68.0799
73.5476
78.6207
83.1934
87.1474
90.3588
92.708
94.0923
94.4401
93.7233
91.9661
89.2489
85.7056
81.5143
76.8823
72.0272
67.1574
62.4528
58.0517
54.0421
50.4616
47.3023
44.5221
42.0577
39.8381
37.7954
35.8719
34.022
32.2114
30.4115
28.5953
26.7331
24.7912
22.7348
20.5327
18.1649
15.6302
12.9525
10.1833
7.40133
4.70611
2.20905
0.0210494
-1.76052
-3.06395
-3.8526
-4.1301
-3.94083
-3.36545
-2.51222
-1.50545
-0.472494
0.468757
1.22057
1.71302
1.90809
1.80015
1.41339
0.796768
0.0175068
-0.846109
-1.71182
-2.4999
-3.13866
-3.56908
-3.74841
-3.65294
-3.27996
-2.64866
-1.79984
-0.793963
0.292374
1.37186
2.35332
3.14974
3.68661
3.90996
3.79289
3.33997
2.58843
1.60574
0.483181
-0.674146
-1.76022
-2.68226
-3.37433
-3.80827
-3.99994
-4.00947
-3.93491
-3.89977
-4.03581
-4.46348
-5.27266
-6.50655
-8.15132
-10.1334
-12.3253
-14.5599
-16.6518
-18.4223
-19.7256
-20.4718
-20.6427
-20.2984
-19.5719
-18.6537
-17.7657
-17.1294
-16.9317
-17.2943
-18.25
-19.7314
-21.5737
-23.5324
-25.3131
-26.611
-27.1538
-26.7428
-25.2849
-22.8128
-19.4875
-15.5843
-11.462
-7.51933
-4.14471
-1.66584
-0.305972
-0.153255
-1.14729
-3.08495
-5.64464
-8.42566
-10.9974
-12.9517
-13.9515
-13.7701
-12.3149
-9.63509
-5.9109
-1.42796
3.46014
8.37546
12.9595
16.9117
20.0182
22.1675
23.3524
23.6588
23.2446
22.3126
21.0818
19.7626
18.5393
17.5635
16.9596
16.8416
17.34
18.6336
20.9815
24.7486
30.4172
38.5783
49.8951
65.0371
84.5798
108.877
137.909
171.123
207.285
244.363
279.477
308.94
328.415
333.2
318.637
280.615
216.132
123.827
4.42588
-138.98
-300.895
-473.639
-647.847
-813.197
-959.321
-1076.77
-1157.97
-1197.98
-1195.02
-1150.72
-1069.9
-960.163
-831.048
-693.105
-556.831
-431.663
-325.119
-242.192
-185.042
-153.012
-142.957
-149.809
-167.331
-188.924
-208.423
-220.765
-222.479
-211.938
-189.377
-156.681
-117.001
-74.2392
-32.5056
4.41824
33.5175
52.8532
61.7118
60.5913
51.0408
35.386
16.3858
-3.13319
-20.6158
-34.0522
-42.1604
-44.4613
-41.25
-33.4747
-22.5478
-10.1189
2.15931
12.8432
20.8636
25.6301
27.0646
25.5696
21.9377
17.2201
12.5741
9.1092
7.75113
9.14031
13.5737
20.9945
31.0277
43.0535
56.3065
69.9863
83.364
95.8706
107.156
117.116
125.874
133.746
141.165
148.602
156.487
165.135
174.701
185.154
196.286
207.742
219.075
229.807
239.494
247.782
254.442
259.386
262.656
264.386
264.756
263.932
262.013
258.991
254.732
248.987
241.423
231.682
219.443
204.496
186.802
166.54
144.123
120.19
95.5714
71.2196
48.1317
27.2577
9.41241
-4.8009
-15.0448
-21.2751
-23.7374
-22.9345
-19.5683
-14.4645
-8.48766
-2.45788
2.92245
7.12448
9.82584
10.9188
10.4941
8.80484
6.21425
3.13689
-0.0207435
-2.91149
-5.28481
-7.00599
-8.05604
-8.51419
-8.52748
-8.27343
-7.92268
-7.60789
-7.40337
-7.31802
-7.30149
-7.26136
-7.08742
-6.67821
-5.96528
-4.93078
-3.61608
-2.12003
-0.587724
0.808332
1.89138
2.50447
2.53186
1.91477
0.659672
-1.162
-3.42223
-5.95155
-8.55891
-11.0533
-13.2649
-15.0621
-16.3642
-17.1467
-17.44
-17.3219
-16.9048
-16.32
-15.6998
-15.1622
-14.797
-14.6569
-14.7531
-15.0572
-15.5067
-16.0156
-16.4859
-16.8215
-16.94
-16.7823
-16.3193
-15.5533
-14.5162
-13.2634
-11.8659
-10.4009
-8.9428
-7.55654
-6.29271
-5.18573
-4.25418
-3.50272
-2.92481
-2.50532
-2.22266
-2.05005
-1.95627
-1.90622
-1.86196
-1.78469
-1.63808
-1.39267
-1.03094
-0.55196
0.025422
0.661942
1.30049
1.87203
2.30419
2.53161
2.50612
2.20538
1.63827
0.846074
-0.100969
-1.11128
-2.0828
-2.91548
-3.52362
-3.84643
-3.85517
-3.55615
-2.98922
-2.22207
-1.34125
-0.441276
0.386778
1.06562
1.53982
1.78076
1.788
1.58715
1.22476
0.761118
0.261994
-0.209609
-0.60061
-0.873173
-1.0077
-1.00331
-0.876036
-0.655124
-0.378077
-0.0852203
0.185545
0.403142
0.546421
0.605719
0.582834
0.489574
0.345232
0.173381
-0.00151563
-0.157246
-0.276385
-0.347953
-0.368107
-0.339851
-0.271936
-0.177143
-0.0702572
0.0340011
0.122817
0.186683
0.220242
0.222513
0.196554
0.14864
0.0871386
0.0212321
-0.040322
-0.0902463
-0.123501
-0.137677
-0.133024
-0.11213
-0.0793509
-0.0400748
6.71241e-05
0.0359332
0.0634662
0.0800885
0.0848687
0.078464
0.0628686
0.0410208
0.0163332
-0.00778676
-0.0283653
-0.0431899
-0.0510068
-0.051577
-0.0455983
-0.0345184
-0.0202728
-0.00498965
0.00929838
0.0208996
0.02864
0.0319558
0.0308999
0.026073
0.0185119
0.00961144
0.00123529
-0.00374358
-0.000191364
0.0214208
0.0779126
0.196495
0.417075
0.792517
1.38571
2.26276
3.48263
5.08427
7.07354
9.41233
12.0125
14.7364
17.4054
19.815
21.7556
23.0368
23.5097
23.0872
21.7563
19.5833
16.7085
13.334
9.70301
6.07661
2.7079
-0.181175
-2.4189
-3.89644
-4.57299
-4.47334
-3.67836
-2.30919
-0.505943
1.59885
3.91269
6.42212
9.23925
12.6544
17.1914
23.6566
33.1689
47.1539
67.2828
95.3411
133.02
181.634
241.799
313.099
393.81
480.748
569.286
653.588
727.06
782.983
815.262
819.193
792.135
733.985
647.376
537.559
411.954
279.45
149.5
31.1587
-67.8421
-141.849
-187.798
-205.413
-197.09
-167.486
-122.877
-70.3751
-17.1036
30.5679
67.6447
90.9195
99.1462
92.9723
74.6585
47.6393
15.9899
-16.1282
-44.9726
-67.6231
-82.242
-88.1759
-85.9024
-76.845
-63.0918
-47.0632
-31.175
-17.538
-7.72819
-2.64816
-2.48686
-6.77262
-14.5028
-24.3259
-34.7476
-44.3329
-51.8797
-56.5445
-57.9105
-55.9951
-51.2025
-44.2335
-35.9669
-27.332
-19.187
-12.2192
-6.87643
-3.33457
-1.5029
-1.06174
-1.52533
-2.31974
-2.86491
-2.65007
-1.29418
1.41523
5.50752
10.839
17.1245
23.985
31.0051
37.7921
44.0285
49.5126
54.1812
58.1117
61.5048
64.6506
67.8822
71.525
75.8463
81.0142
87.0664
93.8954
101.247
108.735
115.866
122.075
126.771
129.386
129.424
126.508
120.416
111.091
98.6239
83.2118
65.0779
44.3873
21.1664
-4.74594
-33.697
-66.1553
-102.587
-143.286
-188.196
-236.749
-287.769
-339.463
-389.518
-435.291
-474.079
-503.435
-521.471
-527.113
-520.263
-501.851
-473.751
-438.589
-399.46
-359.587
-321.987
-289.162
-262.875
-244.013
-232.574
-227.752
-228.106
-231.795
-236.834
-241.347
-243.774
-243.026
-238.56
-230.386
-218.999
-205.26
-190.244
-175.076
-160.777
-148.131
-137.602
-129.292
-122.953
-118.046
-113.831
-109.481
-104.208
-97.3763
-88.5864
-77.7364
-65.0347
-50.9742
-36.2707
-21.7732
-8.36004
3.16614
12.1711
18.2581
21.3065
21.4752
19.1736
15.005
9.69079
3.98519
-1.40704
-5.90184
-9.08752
-10.7525
-10.8876
-9.66495
-7.39768
-4.48755
-1.36719
1.5551
3.94194
5.55988
6.29636
6.1601
5.26672
3.81269
2.04227
0.211993
-1.44244
-2.73319
-3.5384
-3.81026
-3.5729
-2.91156
-1.95538
-0.856477
0.231598
1.17321
1.86575
2.24892
2.30776
2.0697
1.5965
0.972897
0.293443
-0.350395
-0.881404
-1.24481
-1.41277
-1.38499
-1.18582
-0.858599
-0.458128
-0.042603
0.334088
0.628677
0.81283
0.87512
0.820665
0.668729
0.44879
0.195746
-0.0550471
-0.272275
-0.432174
-0.520717
-0.534343
-0.479297
-0.369796
-0.2254
-0.0679802
0.0812771
0.204462
0.288846
0.327934
0.321619
0.275517
0.19966
0.1068
0.0106275
-0.0757258
-0.140555
-0.173506
-0.164408
-0.101135
0.0331186
0.262434
0.619787
1.14685
1.8913
2.9014
4.21807
5.86525
7.83984
10.103
12.5743
15.1307
17.6109
19.8258
21.5734
22.6585
22.9134
22.2178
20.5167
17.8315
14.2658
10.002
5.29081
0.433555
-4.2418
-8.40734
-11.7629
-14.0615
-15.1305
-14.8852
-13.3352
-10.5808
-6.8015
-2.23601
2.84584
8.17864
13.5455
18.8312
24.0844
29.5863
35.9183
44.0184
55.2055
71.1531
93.7894
125.11
166.902
220.397
285.895
362.416
447.462
536.939
625.314
706.003
771.986
816.564
834.187
821.2
776.43
701.492
600.773
481.07
350.938
219.81
97.0231
-9.15393
-92.3411
-148.638
-176.913
-178.763
-158.174
-120.926
-73.8419
-23.9613
22.2382
59.498
84.2382
94.7836
91.3484
75.8029
51.2691
21.6106
-9.11188
-37.1512
-59.4908
-74.1276
-80.2006
-77.966
-68.639
-54.1365
-36.765
-18.8988
-2.68832
10.1669
18.563
22.0453
20.7771
15.4386
7.07801
-3.06038
-13.7069
-23.7159
-32.1777
-38.4878
-42.3679
-43.8467
-43.2069
-40.9103
-37.5139
-33.5872
-29.642
-26.0792
-23.1592
-20.9928
-19.5537
-18.7062
-18.2427
-17.9254
-17.5262
-16.8589
-15.802
-14.3092
-12.4077
-10.1866
-7.77709
-5.32981
-2.99039
-0.87889
0.925526
2.3928
3.54263
4.43826
5.17485
5.86458
6.62081
7.54355
8.70809
10.158
11.9032
13.9223
16.1694
18.5829
21.0959
23.6457
26.1824
28.6745
31.1118
33.5056
35.886
38.2963
40.7863
43.4041
46.1865
49.1503
52.2845
55.5441
58.8479
62.0792
65.0911
67.7163
69.7798
71.1143
71.5756
71.0574
69.5025
66.9101
63.337
58.8946
53.7396
48.0618
42.0697
35.9752
29.9797
24.2622
18.9709
14.2183
10.079
6.59143
3.76056
1.56319
-0.0466164
-1.13173
-1.76639
-2.03106
-2.00797
-1.77723
-1.41357
-0.983703
-0.544275
-0.140402
0.195119
0.441939
0.591582
0.646209
0.616799
0.520863
0.379884
0.216697
0.0530249
-0.0926004
-0.206362
-0.280004
-0.310979
-0.301946
-0.259742
-0.194028
-0.115777
-0.0358357
0.0363021
0.0933639
0.13075
0.146561
0.141275
0.117189
0.0777986
0.0272483
-0.0300432
-0.0895685
-0.146782
-0.197122
-0.236104
-0.25956
-0.264038
-0.247296
-0.208798
-0.150084
-0.0749052
0.0109343
0.100041
0.184115
0.254713
0.303927
0.324802
0.311398
0.258485
0.160968
0.0132104
-0.191499
-0.461099
-0.804339
-1.22967
-1.74348
-2.34791
-3.03847
-3.80214
-4.61632
-5.44905
-6.26094
-7.00855
-7.64915
-8.14599
-8.47351
-8.62145
-8.5972
-8.42573
-8.14702
-7.81114
-7.47155
-7.17776
-6.96822
-6.86484
-6.86974
-6.96519
-7.11646
-7.27747
-7.39837
-7.4337
-7.35014
-7.13231
-6.78591
-6.33755
-5.83129
-5.32246
-4.86959
-4.52567
-4.33005
-4.302
-4.43685
-4.70504
-5.05428
-5.41413
-5.70251
-5.8332
-5.72331
-5.30008
-4.50627
-3.30377
-1.67537
0.375447
2.82628
5.63904
8.76402
12.1444
15.7204
19.4332
23.2267
27.0489
30.8503
34.5824
38.1932
41.6245
44.8074
47.661
50.092
51.9975
53.27
53.8052
53.5111
52.3177
50.1863
47.117
43.1537
38.3852
32.9432
26.9956
20.7368
14.3755
8.11988
2.16331
-3.32991
-8.23601
-12.4799
-16.039
-18.9415
-21.2605
-23.1035
-24.5987
-25.8805
-27.0751
-28.2883
-29.5953
-31.0312
-32.5812
-34.1655
-35.6161
-36.6429
-36.7891
-35.3807
-31.4794
-23.8534
-10.9876
8.84946
37.4629
76.5077
127.192
189.939
264.05
347.444
436.528
526.265
610.472
682.33
735.083
762.819
761.245
728.331
664.721
573.839
461.662
336.174
206.566
82.2837
-27.9571
-117.06
-180.237
-215.413
-223.313
-207.216
-172.443
-125.643
-73.9663
-24.2483
17.7126
47.6991
63.3905
64.4296
52.2545
29.7356
0.678285
-30.7355
-60.4934
-85.2209
-102.522
-111.161
-111.086
-103.295
-89.5893
-72.2584
-53.7316
-36.2579
-21.6447
-11.0855
-5.08612
-3.49038
-5.58819
-10.2834
-16.2917
-22.3396
-27.3376
-30.5067
-31.4487
-30.1547
-26.9597
-22.4532
-17.3646
-12.4405
-8.33228
-5.5085
-4.20193
-4.3955
-5.84547
-8.13522
-10.7492
-13.1553
-14.8823
-15.5836
-15.078
-13.3647
-10.612
-7.12412
-3.29204
0.46405
3.75149
6.25414
7.76764
8.21742
7.65867
6.25965
4.27214
1.99394
-0.27113
-2.24998
-3.72945
-4.57457
-4.7344
-4.23572
-3.16637
-1.65143
0.173795
2.18998
4.31529
6.51916
8.8266
11.3125
14.087
17.2737
20.9851
25.2971
30.2287
35.7278
41.6673
47.8513
54.0304
59.9261
65.2577
69.7712
73.2644
75.6054
76.7423
76.7034
75.5888
73.5547
70.7932
67.5104
63.906
60.1564
56.4028
52.7454
49.2431
45.9182
42.7649
39.7593
36.8697
34.0664
31.3287
28.649
26.0339
23.5023
21.0815
18.8012
16.6879
14.7595
13.0219
11.4674
10.076
8.81826
7.66009
6.56834
5.51597
4.48639
3.47589
2.49404
1.56195
0.708712
-0.0334423
-0.634392
-1.07112
-1.33166
-1.4175
-1.34418
-1.14004
-0.84332
-0.498149
-0.149831
0.159923
0.397261
0.539482
0.576988
0.5137
0.365922
0.159777
-0.0724343
-0.296522
-0.480795
-0.599995
-0.638279
-0.590901
-0.464387
-0.275262
-0.0475207
0.190749
0.411117
0.588419
0.703762
0.746544
0.715297
0.617251
0.466739
0.282649
0.0852671
-0.107053
-0.280943
-0.430319
-0.557551
-0.673234
-0.794495
-0.941993
-1.13604
-1.39242
-1.7187
-2.11159
-2.55604
-3.02626
-3.48877
-3.90709
-4.24747
-4.48483
-4.60797
-4.62302
-4.55452
-4.44364
-4.34365
-4.31319
-4.40826
-4.67409
-5.13807
-5.80485
-6.6545
-7.64384
-8.71101
-9.78254
-10.7819
-11.6385
-12.2954
-12.7152
-12.8837
-12.8096
-12.5222
-12.066
-11.4948
-10.8634
-10.2209
-9.60436
-9.03397
-8.51088
-8.0171
-7.51844
-6.97024
-6.32572
-5.54595
-4.61054
-3.52691
-2.33672
-1.11732
0.0226675
0.954274
1.54483
1.67873
1.27973
0.331485
-1.1068
-2.8927
-4.80293
-6.5467
-7.7894
-8.18488
-7.41293
-5.21809
-1.44531
3.93184
10.7942
18.8742
27.7685
36.966
45.8899
53.949
60.5951
65.3791
68.0007
68.3464
66.5113
62.8036
57.7334
51.9865
46.389
41.8657
39.3929
39.9464
44.4402
53.6528
68.1339
88.0926
113.266
142.78
175.02
207.538
237.02
259.357
269.843
263.502
235.557
181.995
100.17
-10.6124
-148.655
-309.626
-486.597
-670.408
-850.323
-1014.95
-1153.31
-1255.93
-1315.84
-1329.35
-1296.4
-1220.67
-1109.14
-971.419
-818.704
-662.679
-514.359
-383.067
-275.642
-195.959
-144.793
-120.03
-117.171
-130.06
-151.722
-175.236
-194.502
-204.862
-203.477
-189.472
-163.828
-129.06
-88.7557
-47.0189
-7.90927
25.0591
49.305
63.4167
67.2235
61.7095
48.7942
31.0206
11.1967
-7.96004
-24.1339
-35.6423
-41.5676
-41.7836
-36.8827
-28.023
-16.7226
-4.62959
6.69891
15.9849
22.3631
25.4495
25.343
22.5652
17.9541
12.5275
7.33894
3.34366
1.29231
1.66323
4.63826
10.1207
17.7884
27.1697
37.7306
48.9565
60.4205
71.8265
83.0268
94.0116
104.878
115.783
126.893
138.337
150.168
162.347
174.739
187.13
199.253
210.825
221.583
231.313
239.87
247.189
253.277
258.2
262.054
264.936
266.907
267.968
268.034
266.926
264.371
260.027
253.509
244.439
232.5
217.491
199.382
178.355
154.83
129.457
103.094
76.7494
51.505
28.4234
8.45277
-7.66199
-19.4504
-26.7601
-29.768
-28.9581
-25.0683
-19.0132
-11.7929
-4.39822
2.27678
7.50657
10.7833
11.8408
10.6525
7.40756
2.46727
-3.6891
-10.5246
-17.5034
-24.1428
-30.0538
-34.9676
-38.7469
-41.3829
-42.9788
-43.7248
-43.8668
-43.6729
-43.4024
-43.2792
-43.472
-44.0827
-45.1437
-46.6211
-48.4259
-50.4278
-52.471
-54.3907
-56.0273
-57.2377
-57.9037
-57.9382
-57.2877
-55.9342
-53.8949
-51.2214
-47.9973
-44.334
-40.3651
-36.2392
-32.11
-28.1262
-24.4206
-21.1003
-18.2378
-15.8668
-13.9795
-12.5301
-11.4402
-10.6094
-9.92676
-9.2842
-8.58855
-7.7718
-6.79783
-5.66502
-4.40448
-3.07422
-1.75027
-0.515802
0.550088
1.38256
1.93897
2.2036
2.18886
1.93287
1.4941
0.943789
0.35737
-0.194129
-0.651515
-0.972938
-1.13692
-1.14277
-1.00848
-0.766677
-0.459184
-0.131054
0.175194
0.424439
0.59243
0.667564
0.650948
0.554883
0.400144
0.212498
0.0189767
-0.155607
-0.291506
-0.375943
-0.403955
-0.378167
-0.30765
-0.206095
-0.0896
0.0255951
0.125163
0.198277
0.238591
0.244561
0.219117
0.168823
0.102664
0.0306562
-0.0375196
-0.0936974
-0.132091
-0.149769
-0.146715
-0.125523
-0.090792
-0.0483322
-0.00430851
0.0355741
0.0667387
0.0861917
0.0927315
0.0869081
0.0707688
0.0474403
0.0206217
-0.00594217
-0.0289365
-0.0458478
-0.0551947
-0.056605
-0.0507442
-0.039122
-0.0238118
-0.00712685
0.00871264
0.0219088
0.0314372
0.0374919
0.0421317
0.0502253
0.0707362
0.11828
0.214756
0.390738
0.686222
1.15028
1.83924
2.81309
4.13017
5.84014
7.97611
10.5464
13.5268
16.8554
20.429
24.1046
27.7049
31.028
33.8622
36.0027
37.2708
37.5318
36.7101
34.7996
31.8679
28.0529
23.5529
18.6099
13.4894
8.45717
3.75778
-0.404829
-3.88103
-6.58295
-8.48494
-9.61766
-10.0568
-9.90865
-9.29385
-8.33247
-7.13105
-5.77318
-4.31321
-2.77159
-1.12906
0.684492
2.81045
5.494
9.12868
14.3078
21.8728
32.941
48.8959
71.3168
101.836
141.918
192.576
254.05
325.504
404.798
488.397
571.464
648.161
712.152
757.248
778.136
771.063
734.401
668.997
578.232
467.8
345.192
218.975
97.9347
-9.79929
-97.5522
-160.72
-197.141
-207.188
-193.582
-160.956
-115.247
-62.9856
-10.5766
36.3501
73.4444
97.9562
108.847
106.698
93.4415
71.9572
45.597
17.6938
-8.881
-32.0603
-50.7844
-65.0461
-75.7786
-84.6082
-93.513
-104.44
-118.94
-137.869
-161.209
-188.024
-216.556
-244.451
-269.073
-287.868
-298.712
-300.207
-291.887
-274.288
-248.902
-218
-184.372
-150.997
-120.711
-95.8906
-78.2164
-68.5173
-66.7299
-71.9601
-82.6402
-96.7525
-112.091
-126.525
-138.234
-145.886
-148.744
-146.692
-140.181
-130.112
-117.678
-104.182
-90.86
-78.7312
-68.4958
-60.4825
-54.6528
-50.6549
-47.9147
-45.7482
-43.4781
-40.5378
-36.5503
-31.3721
-25.1006
-18.0461
-10.6753
-3.53681
2.81983
7.92047
11.4275
13.179
13.2024
11.7029
9.02939
5.62505
1.96932
-1.48021
-4.33883
-6.33275
-7.32043
-7.29613
-6.37667
-4.77469
-2.76285
-0.634322
1.33521
2.91955
3.96454
4.39946
4.23687
3.56218
2.51528
1.26735
-0.00383396
-1.1367
-2.00434
-2.52668
-2.67541
-2.47209
-1.98005
-1.29203
-0.515436
0.242717
0.889168
1.35465
1.6
1.61792
1.43043
1.08302
0.636429
0.157389
-0.290405
-0.653967
-0.896545
-1.00051
-0.967542
-0.816357
-0.578549
-0.293245
-0.0013837
0.259625
0.460227
0.581611
0.616926
0.570876
0.457901
0.299322
0.119933
-0.0554883
-0.205297
-0.313369
-0.370542
-0.37503
-0.331863
-0.251533
-0.148092
-0.0370051
0.066941
0.151429
0.207897
0.232218
0.224745
0.189794
0.13468
0.0684759
0.000687306
-0.0599905
-0.10668
-0.134993
-0.143319
-0.132733
-0.106575
-0.0697877
-0.0281279
0.012647
0.0475021
0.0726813
0.0860448
0.087166
0.0772038
0.0585879
0.0345788
0.00876919
-0.0154033
-0.0350719
-0.0482406
-0.0539431
-0.0522549
-0.0441728
-0.0313924
-0.0160202
-0.000264835
0.0138511
0.024726
0.0313361
0.0333027
0.0308715
0.0248151
0.0162804
0.00660384
-0.002876
-0.0109876
-0.0168558
-0.01998
-0.0202517
-0.0179018
-0.0133442
-0.00684871
0.00207138
0.0156841
0.0395589
0.0845343
0.168895
0.320326
0.577097
0.987917
1.61008
2.50583
3.7371
5.35946
7.41579
9.93088
12.9076
16.3253
20.1402
24.2885
28.6905
33.2558
37.8894
42.4963
46.9861
51.2762
55.2936
58.9751
62.2666
65.1211
67.4963
69.352
70.6484
71.3457
71.4049
70.7902
69.4726
67.4343
64.6732
61.2074
57.0781
52.3513
47.1176
41.4895
35.5978
29.5846
23.5961
17.7747
12.2496
7.13001
2.49825
-1.59438
-5.12945
-8.12065
-10.6105
-12.6649
-14.3658
-15.8028
-17.0639
-18.2252
-19.3404
-20.4279
-21.4553
-22.3182
-22.8126
-22.5998
-21.1652
-17.7765
-11.4518
-0.95094
15.1908
38.5706
70.7551
113.045
166.186
230.053
303.375
383.545
466.584
547.306
619.682
677.405
714.571
726.411
709.952
664.518
591.976
496.695
385.189
265.497
146.369
36.36
-57.0517
-128.216
-173.838
-193.221
-188.211
-162.853
-122.824
-74.7036
-25.1987
19.5999
54.8345
77.3098
85.6951
80.4941
63.8029
38.9017
9.74414
-19.587
-45.3886
-64.7522
-75.8434
-78.0238
-71.8158
-58.7275
-40.975
-21.143
-1.83429
14.6509
26.5656
32.876
33.3173
28.3508
19.0357
6.84216
-6.5679
-19.5597
-30.7186
-38.9959
-43.7937
-44.9868
-42.8834
-38.1377
-31.6302
-24.3338
-17.1833
-10.9658
-6.2406
-3.29844
-2.15785
-2.59691
-4.21147
-6.49004
-8.89382
-10.9313
-12.2183
-12.5183
-11.7581
-10.0217
-7.52366
-4.56859
-1.50226
1.33772
3.66602
5.28329
6.09643
6.12398
5.48756
4.39147
3.09417
1.87539
1.00351
0.706681
1.15092
2.42711
4.54768
7.45278
11.0243
15.1057
19.524
24.1112
28.7223
33.2468
37.6132
41.786
45.7566
49.5298
53.1086
56.4811
59.6101
62.43
64.8498
66.762
68.0578
68.6434
68.4565
67.4801
65.75
63.3556
60.4336
57.1557
53.7108
50.2856
47.0456
44.1181
41.5807
39.4546
37.7047
36.2449
34.9489
33.6649
32.2325
30.5004
28.3443
25.6813
22.4812
18.7727
14.6448
10.2411
5.75125
1.39558
-2.59156
-5.98144
-8.57068
-10.2
-10.7708
-10.2572
-8.71361
-6.27527
-3.15198
0.385524
4.02578
7.44187
10.3197
12.3861
13.4347
13.3451
12.0951
9.76263
6.51817
2.60842
-1.66759
-5.98669
-10.0312
-13.517
-16.2165
-17.9754
-18.7208
-18.4616
-17.2799
-15.3175
-12.7567
-9.80015
-6.65037
-3.49211
-0.478731
2.27605
4.70082
6.76381
8.46585
9.83044
10.8928
11.6896
12.2504
12.5928
12.7207
12.6262
12.2939
11.7073
10.8549
9.73595
8.36518
6.77419
5.01126
3.13877
1.22875
-0.642581
-2.40075
-3.97864
-5.32129
-6.3894
-7.16145
-7.6342
-7.82187
-7.75407
-7.47277
-7.02861
-6.4767
-5.8724
-5.26705
-4.70426
-4.21669
-3.82403
-3.53198
-3.33279
-3.2071
-3.12714
-3.06087
-2.97665
-2.84788
-2.65694
-2.39795
-2.07795
-1.7163
-1.34222
-0.991039
-0.699391
-0.50006
-0.417175
-0.462353
-0.63232
-0.908381
-1.25785
-1.63734
-1.99746
-2.28835
-2.46527
-2.49343
-2.35122
-2.03164
-1.54136
-0.89796
-0.125624
0.749851
1.70591
2.72715
3.80769
4.95176
6.17253
7.48978
8.92681
10.5073
12.2529
14.1806
16.3017
18.6199
21.1296
23.8138
26.6408
29.5618
32.5078
35.3878
38.0884
40.4757
42.399
43.6973
44.2088
43.7825
42.2917
39.6495
35.8226
30.8433
24.8169
17.9233
10.41
2.57845
-5.23703
-12.695
-19.4749
-25.3043
-29.9813
-33.3903
-35.5084
-36.4023
-36.2156
-35.1485
-33.4314
-31.297
-28.9521
-26.5518
-24.1782
-21.8219
-19.3654
-16.5647
-13.0266
-8.18188
-1.25655
8.7479
23.0519
43.0539
70.2281
105.954
151.277
206.631
271.541
344.387
422.264
501.007
575.405
639.61
687.711
714.398
715.639
689.26
635.35
556.402
457.19
344.346
225.731
109.631
3.92274
-84.7248
-151.485
-193.794
-211.493
-206.709
-183.477
-147.177
-103.854
-59.5264
-19.5325
11.9745
32.3599
40.6344
37.3783
24.4914
4.81418
-18.3213
-41.5514
-61.8928
-77.0644
-85.6863
-87.3475
-82.5462
-72.5253
-59.0332
-44.0498
-29.5125
-17.0787
-7.94857
-2.76376
-1.58747
-3.95889
-9.00841
-15.6128
-22.5673
-28.7508
-33.2646
-35.5277
-35.323
-32.7893
-28.3679
-22.714
-16.5863
-10.735
-5.79983
-2.23385
-0.259645
0.138853
-0.808995
-2.71266
-5.08972
-7.44109
-9.32153
-10.3961
-10.4764
-9.53352
-7.68797
-5.18079
-2.33067
0.515334
3.03047
4.94998
6.10092
6.41744
5.9409
4.80652
3.21986
1.42725
-0.31509
-1.7692
-2.73763
-3.07803
-2.70933
-1.61036
0.187818
2.61374
5.56964
8.94554
12.6319
16.5295
20.5554
24.6456
28.7544
32.8504
36.9113
40.9183
44.8508
48.6821
52.3774
55.894
59.182
62.1879
64.8577
67.1406
68.9917
70.3744
71.2614
71.6346
71.4846
70.8089
69.6106
67.8961
65.6745
62.9567
59.7569
56.0946
51.9981
47.5089
42.6857
37.6074
32.3743
27.1063
21.9391
17.0162
12.4794
8.45759
5.05565
2.34429
0.352968
-0.933487
-1.5739
-1.66521
-1.33313
-0.719811
0.0296965
0.780922
1.42164
1.8705
2.08185
2.0463
1.78726
1.35429
0.814007
0.240028
-0.296836
-0.737067
-1.03864
-1.18046
-1.16286
-1.00543
-0.742658
-0.418211
-0.0786348
0.232653
0.480373
0.640873
0.703817
0.672059
0.559885
0.390027
0.189944
-0.0121014
-0.190644
-0.325895
-0.405602
-0.425775
-0.390302
-0.309624
-0.198724
-0.0747676
0.0452801
0.146761
0.218912
0.255796
0.256501
0.224645
0.167264
0.0932138
0.0112702
-0.0718788
-0.153489
-0.236218
-0.328927
-0.446661
-0.609701
-0.841738
-1.16734
-1.60897
-2.18397
-2.90183
-3.76217
-4.75383
-5.85518
-7.03588
-8.25997
-9.49002
-10.6917
-11.8379
-12.9117
-13.9067
-14.8257
-15.6754
-16.4609
-17.1782
-17.8091
-18.3175
-18.6502
-18.7417
-18.5233
-17.9344
-16.9365
-15.5243
-13.7353
-11.6534
-9.40643
-7.15756
-5.09042
-3.39024
-2.22294
-1.7149
-1.93599
-2.88817
-4.50127
-6.63663
-9.09843
-11.6515
-14.0439
-16.0309
-17.3994
-17.9887
-17.7063
-16.5378
-14.5491
-11.8824
-8.74529
-5.39314
-2.10738
0.83098
3.16952
4.71206
5.34238
5.04071
3.88993
2.06982
-0.160739
-2.49193
-4.59794
-6.17418
-6.9716
-6.82346
-5.661
-3.51622
-0.511678
3.16051
7.26737
11.567
15.8392
19.9111
23.6747
27.0948
30.2085
33.1172
35.9741
38.9716
42.33
46.2912
51.1174
57.094
64.5349
73.7843
85.2106
99.1862
116.045
136.014
159.118
185.056
213.067
241.785
269.138
292.294
307.702
311.251
298.57
265.435
208.291
124.798
14.3508
-121.512
-278.887
-451.53
-631.153
-807.986
-971.562
-1111.65
-1219.22
-1287.37
-1311.99
-1292.3
-1230.88
-1133.51
-1008.55
-866.168
-717.283
-572.549
-441.341
-330.94
-245.967
-188.133
-156.317
-146.938
-154.575
-172.738
-194.695
-214.265
-226.466
-227.98
-217.371
-195.062
-163.097
-124.717
-83.8406
-44.5032
-10.3309
15.8829
32.4623
38.968
36.1526
25.7699
10.2771
-7.52512
-24.863
-39.3244
-49.1181
-53.2328
-51.4851
-44.4601
-33.3623
-19.8036
-5.55984
7.67063
18.4773
25.8941
29.4882
29.3769
26.1763
20.8942
14.7843
9.18091
5.3362
4.27637
6.69371
12.8835
22.7303
35.7427
51.1293
67.9051
85.0154
101.461
116.411
129.294
139.845
148.128
154.504
159.574
164.09
168.851
174.6
181.926
191.192
202.486
215.614
230.117
245.326
260.433
274.579
286.943
296.824
303.703
307.288
307.523
304.578
298.809
290.695
280.777
269.575
257.533
244.958
231.999
218.639
204.719
189.992
174.182
157.067
138.546
118.699
97.8166
76.4035
55.1458
34.8509
16.3636
0.473919
-12.1745
-21.1607
-26.3377
-27.8519
-26.1284
-21.8249
-15.7594
-8.82306
-1.88722
4.28183
9.09227
12.1721
13.3867
12.8284
10.7816
7.66805
3.98262
0.22573
-3.15752
-5.82549
-7.57049
-8.3296
-8.17638
-7.29637
-5.95107
-4.43604
-3.03902
-2.00332
-1.5008
-1.61676
-2.34764
-3.61036
-5.26073
-7.11738
-8.98728
-10.6891
-12.072
-13.0271
-13.4931
-13.4548
-12.9375
-11.9984
-10.7176
-9.18931
-7.51557
-5.80104
-4.14997
-2.66391
-1.43936
-0.564867
-0.117045
-0.155566
-0.717761
-1.81363
-3.42225
-5.49059
-7.9351
-10.6463
-13.4955
-16.3438
-19.0507
-21.4831
-23.5228
-25.0725
-26.0602
-26.4415
-26.201
-25.3514
-23.9328
-22.01
-19.6693
-17.0143
-14.1613
-11.2329
-8.35182
-5.63358
-3.17984
-1.07166
0.635786
1.91685
2.77665
3.24953
3.39473
3.2893
3.01918
2.66912
2.31295
2.0052
1.77525
1.625
1.53023
1.44584
1.31426
1.076
0.680958
0.0987035
-0.673798
-1.6084
-2.64667
-3.70558
-4.6872
-5.49115
-6.02791
-6.23115
-6.06715
-5.54006
-4.69222
-3.5995
-2.36242
-1.09428
0.0920657
1.09709
1.84537
2.29312
2.43153
2.28571
1.90945
1.37679
0.771517
0.176175
-0.337966
-0.718668
-0.937325
-0.990043
-0.895346
-0.689131
-0.41783
-0.130883
0.126363
0.318424
0.423457
0.434746
0.359958
0.21849
0.0375074
-0.15267
-0.32312
-0.450206
-0.518335
-0.521352
-0.462501
-0.353132
-0.210446
-0.0546723
0.0938766
0.217481
0.303093
0.343599
0.338197
0.291917
0.214432
0.11839
0.017536
-0.0751376
-0.148948
-0.19664
-0.214953
-0.20463
-0.16992
-0.117683
-0.0562649
0.00570451
0.0604313
0.101883
0.126485
0.133678
0.126527
0.112746
0.106498
0.131282
0.223925
0.439194
0.853981
1.56949
2.70968
4.41452
6.82748
10.0778
14.2594
19.4093
25.4896
32.3751
39.8518
47.6245
55.3371
62.5995
69.0223
74.2508
77.9967
80.0632
80.359
78.9029
75.8171
71.3114
65.6618
59.1844
52.2095
45.0566
38.014
31.3219
25.1627
19.6562
14.8605
10.7785
7.36798
4.55474
2.24751
0.352361
-1.21436
-2.51655
-3.59332
-4.45902
-5.10837
-5.52557
-5.69538
-5.61307
-5.28947
-4.74675
-4.00091
-3.02804
-1.71369
0.211943
3.24581
8.17843
16.1379
28.5907
47.2797
74.0822
110.784
158.776
218.711
290.15
371.284
458.777
547.799
632.286
705.424
760.319
790.785
792.135
761.872
700.154
609.974
496.995
369.052
235.382
105.677
-10.9342
-106.82
-176.607
-217.654
-230.208
-217.218
-183.856
-136.809
-83.4455
-30.9624
14.3896
47.9077
66.8114
70.363
59.739
37.691
8.05433
-24.8226
-56.6525
-83.7172
-103.256
-113.695
-114.718
-107.162
-92.8026
-74.0301
-53.4967
-33.7638
-16.9996
-4.75728
2.14693
3.65214
0.375468
-6.54039
-15.628
-25.3142
-34.1274
-40.8702
-44.7372
-45.3723
-42.8618
-37.6747
-30.5611
-22.4281
-14.2095
-6.74903
-0.706616
3.50039
5.71997
6.05268
4.80952
2.4489
-0.497133
-3.49699
-6.08505
-7.91132
-8.77112
-8.61329
-7.52845
-5.7209
-3.46955
-1.08387
1.13895
2.95065
4.17832
4.73845
4.6382
3.9651
2.86786
1.53136
0.149992
-1.0973
-2.06687
-2.6629
-2.84127
-2.60477
-1.99115
-1.05632
0.143955
1.57035
3.21143
5.08796
7.24961
9.76443
12.7033
16.1224
20.0457
24.453
29.2725
34.3809
39.6106
44.7613
49.6158
53.9566
57.5822
60.3218
62.0473
62.6817
62.2051
60.6567
58.1327
54.7813
50.7935
46.391
41.8108
37.2882
33.0395
29.2448
26.034
23.4765
21.577
20.2773
19.4651
18.9877
18.6704
18.3364
17.8266
17.0153
15.8228
14.2209
12.2321
9.92432
7.39939
4.77984
2.19391
-0.238441
-2.41738
-4.27165
-5.763
-6.88655
-7.66753
-8.15499
-8.41367
-8.51511
-8.52902
-8.51596
-8.52201
-8.57581
-8.688
-8.85291
-9.05185
-9.25739
-9.43801
-9.56223
-9.60203
-9.53507
-9.34585
-9.02587
-8.57316
-7.99143
-7.2893
-6.47952
-5.57855
-4.60624
-3.58557
-2.54223
-1.50399
-0.499595
0.442631
1.2966
2.04037
2.65798
3.14091
3.48898
3.71044
3.82117
3.84305
3.8017
3.7237
3.63368
3.55168
3.49101
3.45692
3.4463
3.44833
3.44626
3.41988
3.34862
3.21475
3.0063
2.71939
2.35935
1.94071
1.48588
1.02275
0.58164
0.192007
-0.120502
-0.336414
-0.444017
-0.440299
-0.331497
-0.133531
0.127577
0.415451
0.683707
0.87748
0.936723
0.801565
0.419621
-0.245425
-1.20516
-2.43931
-3.89172
-5.47099
-7.05646
-8.50951
-9.68919
-10.4701
-10.7602
-10.5156
-9.75001
-8.53743
-7.00655
-5.32801
-3.69549
-2.30308
-1.32182
-0.878427
-1.03889
-1.79919
-3.08419
-4.75502
-6.62389
-8.47458
-10.0861
-11.2563
-11.8232
-11.6809
-10.7886
-9.17183
-6.91615
-4.15402
-1.04672
2.23635
5.53864
8.7351
11.7461
14.545
17.1571
19.6507
22.1194
24.6591
27.3407
30.1855
33.1441
36.0863
38.8018
41.0151
42.4123
42.6772
41.5326
38.7804
34.3351
28.2462
20.7046
12.0332
2.66072
-6.91714
-16.1849
-24.6569
-31.9234
-37.6866
-41.7841
-44.1953
-45.0322
-44.5169
-42.9474
-40.6595
-37.9883
-35.2346
-32.6399
-30.3717
-28.5187
-27.0931
-26.0357
-25.2169
-24.4289
-23.3624
-21.5675
-18.4012
-12.9724
-4.10024
9.69175
30.1211
59.0124
98.0736
148.592
211.079
284.918
368.077
456.969
546.508
630.411
701.719
753.518
779.754
776.036
740.305
673.269
578.51
462.249
332.769
199.575
72.4006
-39.8334
-129.945
-193.207
-227.757
-234.659
-217.622
-182.423
-136.122
-86.1678
-39.53
-1.93997
22.6557
32.3856
27.4693
9.97779
-16.61
-47.9814
-79.614
-107.365
-127.956
-139.307
-140.68
-132.649
-116.9
-95.9203
-72.6076
-49.8721
-30.2741
-15.7404
-7.38865
-5.46949
-9.42213
-18.0256
-29.6164
-42.3384
-54.3915
-64.246
-70.8015
-73.4747
-72.2129
-67.4394
-59.9448
-50.7443
-40.9227
-31.4884
-23.2551
-16.763
-12.2451
-9.63986
-8.64039
-8.77252
-9.48551
-10.2426
-10.5985
-10.2541
-9.08376
-7.13423
-4.59801
-1.76846
1.01528
3.42463
5.19079
6.14082
6.21656
5.47573
4.07659
2.25021
0.265518
-1.60725
-3.12926
-4.11792
-4.46117
-4.12077
-3.12539
-1.55603
0.473203
2.83564
5.41078
8.09899
10.8308
13.5702
16.3125
19.0783
21.9036
24.8292
27.8896
31.1029
34.4619
37.9283
41.4297
44.8603
48.0858
50.9527
53.3004
54.9772
55.8557
55.8478
54.917
53.0848
50.4317
47.0918
43.24
39.0755
34.8025
30.6101
26.6559
23.0545
19.8724
17.1303
14.811
12.8713
11.2557
9.9086
8.78273
7.84332
7.06667
6.43459
5.92631
5.51006
5.13706
4.73961
4.23472
3.5333
2.55359
1.23692
-0.437317
-2.44033
-4.68896
-7.04878
-9.34573
-11.3852
-12.9763
-13.9579
-14.2226
-13.7342
-12.538
-10.7586
-8.58921
-6.26965
-4.0595
-2.20717
-0.920434
-0.341736
-0.53151
-1.46155
-3.01895
-5.01979
-7.23046
-9.39359
-11.2554
-12.5911
-13.2265
-13.0535
-12.0383
-10.2243
-7.72676
-4.72257
-1.43509
1.8853
4.98303
7.62015
9.59839
10.7782
11.093
10.5564
9.26209
7.37432
5.11141
2.72243
0.460072
-1.44694
-2.81876
-3.54317
-3.58578
-2.99018
-1.86824
-0.381758
1.28159
2.93453
4.41468
5.6038
6.43883
6.91377
7.07237
6.99356
6.77249
6.50053
6.24777
6.05086
5.90794
5.78127
5.60687
5.30921
4.81846
4.08719
3.10373
1.89959
0.549614
-0.835774
-2.12513
-3.18531
-3.90256
-4.20184
-4.0612
-3.51868
-2.67043
-1.66012
-0.660998
0.146777
0.600369
0.576571
0.00908332
-1.10162
-2.68713
-4.61859
-6.72182
-8.79773
-10.6453
-12.084
-12.9733
-13.2257
-12.8145
-11.7727
-10.1863
-8.18185
-5.91012
-3.52889
-1.18579
0.996209
2.92969
4.56923
5.91323
7.00146
7.90929
8.73952
9.61298
10.6589
12.0057
13.7725
16.0609
18.9478
22.4768
26.6508
31.4231
36.6907
42.2889
47.9901
53.5086
58.5111
62.6362
65.521
66.8329
66.306
63.7756
59.2078
52.7188
44.5799
35.2051
25.1224
14.9281
5.23003
-3.41348
-10.5535
-15.8988
-19.347
-20.9922
-21.1083
-20.1082
-18.4858
-16.7477
-15.3451
-14.617
-14.751
-15.7693
-17.5386
-19.8026
-22.2259
-24.4394
-26.0735
-26.7678
-26.1479
-23.7717
-19.0506
-11.1657
0.997199
18.8617
44.0967
78.4533
123.501
180.281
248.922
328.283
415.701
506.914
596.22
676.878
741.743
784.05
798.262
780.842
730.844
650.215
543.751
418.703
284.071
149.674
25.1185
-81.2001
-162.944
-216.416
-240.823
-238.191
-212.968
-171.368
-120.568
-67.8382
-19.7437
18.5149
43.5413
53.9332
50.221
34.5857
10.4101
-18.2659
-47.3098
-73.0113
-92.4889
-103.951
-106.793
-101.54
-89.6544
-73.2513
-54.7614
-36.5959
-20.8491
-9.07415
-2.15104
-0.253237
-2.90601
-9.11911
-17.5688
-26.8011
-35.428
-42.2939
-46.5929
-47.9299
-46.323
-42.1528
-36.073
-28.8965
-21.4736
-14.5812
-8.8325
-4.61974
-2.0909
-1.16136
-1.55405
-2.86003
-4.60915
-6.34046
-7.66321
-8.30139
-8.11798
-7.11775
-5.43093
-3.28165
-0.947324
1.28498
3.15898
4.48154
5.14386
5.1299
4.5126
3.43988
2.11338
0.763367
-0.376803
-1.09379
-1.21286
-0.610697
0.778005
2.95998
5.88797
9.46946
13.5782
18.0671
22.7817
27.572
32.3035
36.8652
41.1752
45.1834
48.8718
52.2521
55.3609
58.2529
60.9915
63.6389
66.244
68.8317
71.3927
73.8777
76.1948
78.2133
79.773
80.6989
80.8205
79.9918
78.1127
75.1456
71.1268
66.1706
60.464
54.2533
47.8234
41.4721
35.4819
30.0939
25.4854
21.7552
18.9169
16.9024
15.574
14.7439
14.1986
13.7248
13.1346
12.286
11.0967
9.54979
7.69167
5.62157
3.47554
1.40669
-0.43549
-1.92411
-2.96986
-3.53045
-3.6136
-3.27369
-2.60301
-1.71892
-0.748954
0.184195
0.975985
1.55009
1.86431
1.91189
1.71857
1.33605
0.83304
0.285126
-0.235098
-0.666535
-0.965797
-1.1106
-1.10019
-0.953148
-0.702943
-0.392221
-0.0665293
0.231579
0.467354
0.617018
0.669022
0.623391
0.489438
0.282345
0.0192319
-0.28463
-0.618879
-0.979953
-1.37157
-1.80374
-2.29058
-2.84727
-3.48673
-4.21664
-5.03742
-5.94154
-6.91438
-7.93632
-8.98562
-10.041
-11.0837
-12.0976
-13.0682
-13.9803
-14.8158
-15.551
-16.1564
-16.5973
-16.8371
-16.842
-16.586
-16.0566
-15.2594
-14.2202
-12.9854
-11.6195
-10.1999
-8.80984
-7.5302
-6.431
-5.56379
-4.95593
-4.60735
-4.49049
-4.55341
-4.72579
-4.92728
-5.07713
-5.10389
-4.95414
-4.59881
-4.03649
-3.29317
-2.41834
-1.47806
-0.545893
0.307084
1.02173
1.55854
1.90256
2.06485
2.08048
2.00336
1.89886
1.83517
1.87468
2.06671
2.44236
3.01231
3.76768
4.68384
5.72645
6.85894
8.05024
9.28175
10.5527
11.8834
13.315
14.9084
16.7389
18.8917
21.4566
24.5242
28.1854
32.5347
37.6781
43.7448
50.9013
59.3638
69.4057
81.3524
95.5587
112.363
132.018
154.586
179.824
207.04
234.959
261.602
284.23
299.354
302.874
290.34
257.348
200.056
115.749
3.40842
-135.815
-298.302
-477.918
-666.243
-853.112
-1027.4
-1178.01
-1294.91
-1370.16
-1398.78
-1379.27
-1313.86
-1208.33
-1071.49
-914.277
-748.707
-586.713
-439.017
-314.172
-217.874
-152.615
-117.688
-109.534
-122.371
-149.019
-181.807
-213.459
-237.856
-250.604
-249.344
-233.805
-205.605
-167.856
-124.626
-80.3498
-39.2503
-4.84341
20.4194
35.345
40.0207
35.6778
24.431
8.93481
-7.99
-23.7128
-36.0896
-43.6701
-45.7974
-42.5999
-34.8876
-23.9736
-11.4512
1.04148
12.0399
20.4289
25.5577
27.2866
25.9642
22.3455
17.4657
12.4892
8.55537
6.64057
7.45199
11.3653
18.4096
28.2988
40.5008
54.3332
69.0693
84.0398
98.7143
112.755
126.032
138.61
150.697
162.584
174.565
186.875
199.635
212.82
226.258
239.651
252.617
264.739
275.627
284.956
292.505
298.17
301.957
303.963
304.344
303.282
300.945
297.468
292.932
287.362
280.729
272.957
263.941
253.553
241.663
228.152
212.931
195.962
177.289
157.057
135.537
113.139
90.401
67.9759
46.5872
26.9755
9.83338
-4.26151
-14.907
-21.9216
-25.3688
-25.5552
-23.0045
-18.4083
-12.5611
-6.28673
-0.365956
4.52851
7.88157
9.36653
8.85537
6.40921
2.25199
-3.26841
-9.72627
-16.666
-23.6473
-30.2826
-36.2652
-41.3853
-45.5348
-48.7006
-50.9507
-52.4125
-53.2499
-53.6389
-53.7468
-53.715
-53.6482
-53.6091
-53.62
-53.6677
-53.7133
-53.7029
-53.5786
-53.2886
-52.7943
-52.075
-51.1292
-49.9732
-48.637
-47.159
-45.58
-43.9374
-42.2602
-40.5662
-38.86
-37.1342
-35.3711
-33.5463
-31.6328
-29.6057
-27.4461
-25.1445
-22.7039
-20.141
-17.4866
-14.7849
-12.0914
-9.46911
-6.98452
-4.70154
-2.67568
-0.948034
0.459864
1.54966
2.34769
2.90388
3.28806
3.58394
3.8812
4.26677
4.81606
5.58535
6.60619
7.88235
9.38975
11.0793
12.882
14.7164
16.4958
18.137
19.5668
20.728
21.5825
22.1134
22.3243
22.2368
21.8871
21.3218
20.5934
19.7556
18.8601
17.9532
17.0734
16.2503
15.503
14.8398
14.2582
13.7453
13.2786
12.8279
12.3576
11.8301
11.2099
10.4673
9.58299
8.55059
7.37843
6.08899
4.7163
3.30152
1.88738
0.51239
-0.794013
-2.01463
-3.14535
-4.19351
-5.17424
-6.10538
-7.00197
-7.8715
-8.7107
-9.50454
-10.2278
-10.8488
-11.3353
-11.6604
-11.809
-11.7826
-11.6011
-11.303
-10.9413
-10.5782
-10.2766
-10.0922
-10.0654
-10.2159
-10.5384
-11.0038
-11.5613
-12.1452
-12.6824
-13.1015
-13.3408
-13.3551
-13.1201
-12.6336
-11.914
-10.9964
-9.92704
-8.75613
-7.53148
-6.29233
-5.06474
-3.85866
-2.66678
-1.46523
-0.215761
1.13074
2.62958
4.33678
6.30284
8.56602
11.1451
14.0321
17.1856
20.5248
23.9274
27.2302
30.2359
32.7253
34.475
35.2792
34.9744
33.4621
30.7288
26.8574
22.03
16.5193
10.668
4.86027
-0.514622
-5.09973
-8.60604
-10.8408
-11.7253
-11.3002
-9.71672
-7.21679
-4.10276
-0.701676
2.67262
5.75614
8.36808
10.4406
12.0466
13.4268
15.0194
17.4891
21.7523
28.9896
40.6297
58.2901
83.6604
118.317
163.475
219.692
286.57
362.489
444.459
528.114
607.925
677.602
730.7
761.327
764.891
738.761
682.754
599.344
493.564
372.591
245.057
120.173
6.76949
-87.6132
-157.484
-199.907
-214.701
-204.324
-173.455
-128.355
-76.0779
-23.6489
22.7
58.1429
79.6628
86.2105
78.6207
59.3149
31.846
0.353012
-30.9992
-58.5261
-79.4195
-91.994
-95.7709
-91.4038
-80.4719
-65.1803
-48.015
-31.3992
-17.3953
-7.48464
-2.44423
-2.3264
-6.53239
-13.9607
-23.2031
-32.7588
-41.2369
-47.5229
-50.8923
-51.0612
-48.1767
-42.752
-35.5625
-27.5198
-19.5419
-12.4362
-6.8096
-3.01428
-1.13095
-0.989496
-2.2192
-4.31952
-6.74
-8.95806
-10.5449
-11.2121
-10.8354
-9.45398
-7.24877
-4.50445
-1.56144
1.23448
3.57842
5.24278
6.10021
6.13138
5.41818
4.12453
2.4686
0.690797
-0.978123
-2.34453
-3.27215
-3.69312
-3.6094
-3.0853
-2.23293
-1.19307
-0.114147
0.868013
1.64728
2.15944
2.3885
2.36654
2.1677
1.89694
1.67537
1.62381
1.84663
2.41778
3.37079
4.69369
6.32949
8.18206
10.1266
12.0233
13.7326
15.13
16.1192
16.6407
16.6769
16.2512
15.4233
14.2794
12.9212
11.4528
9.96924
8.54716
7.23876
6.06979
5.04144
4.1354
3.32117
2.5642
1.83356
1.108
0.379509
-0.345903
-1.05029
-1.708
-2.2913
-2.77632
-3.1482
-3.40471
-3.55758
-3.63154
-3.66116
-3.68612
-3.74573
-3.87357
-4.09299
-4.41424
-4.83339
-5.33327
-5.88603
-6.45695
-7.00893
-7.50694
-7.92186
-8.23325
-8.43069
-8.51368
-8.49018
-8.37411
-8.18237
-7.93164
-7.63574
-7.30368
-6.93889
-6.53957
-6.10012
-5.61347
-5.07372
-4.47873
-3.83216
-3.14432
-2.43173
-1.7152
-1.01677
-0.35614
0.252697
0.803681
1.29928
1.74916
2.16718
2.56734
2.95948
3.34567
3.71805
4.05852
4.34043
4.53194
4.60061
4.51835
4.26598
3.83674
3.23804
2.49139
1.63043
0.697527
-0.260549
-1.19709
-2.06946
-2.84217
-3.48865
-3.99179
-4.3434
-4.54298
-4.59611
-4.51281
-4.30616
-3.99115
-3.58402
-3.10177
-2.56194
-1.98236
-1.38098
-0.775467
-0.182772
0.381455
0.903442
1.37185
1.77827
2.11767
2.38876
2.59436
2.74168
2.84253
2.91329
2.97472
3.05135
3.17061
3.36166
3.654
4.07602
4.65386
5.41048
6.36542
7.53515
8.93388
10.5746
12.4698
14.6319
17.0716
19.7966
22.8074
26.0939
29.631
33.3762
37.267
41.2223
45.1433
48.9177
52.4227
55.5291
58.1039
60.014
61.1295
61.3289
60.5055
58.5769
55.4947
51.2559
45.9117
39.5738
32.415
24.6643
16.5949
8.50643
0.702381
-6.53387
-12.9628
-18.4088
-22.774
-26.0437
-28.2836
-29.6277
-30.2587
-30.3838
-30.2078
-29.9079
-29.6124
-29.3858
-29.2188
-29.023
-28.6232
-27.7444
-25.9854
-22.782
-17.3607
-8.69907
4.48972
23.7235
50.6479
86.851
133.598
191.509
260.228
338.142
422.212
507.986
589.829
661.361
716.086
748.124
752.962
728.097
673.487
591.722
487.886
369.109
243.868
121.121
9.38172
-84.1455
-154.264
-198.237
-215.948
-209.751
-184.064
-144.743
-98.3398
-51.3377
-9.45113
22.9269
43.0779
50.0848
44.7369
29.2444
6.81417
-18.8498
-44.0529
-65.5616
-80.9523
-88.8241
-88.8642
-81.774
-69.0791
-52.8572
-35.4271
-19.0381
-5.59871
3.52879
7.64772
6.75536
1.48454
-7.02715
-17.3187
-27.8115
-37.0137
-43.6979
-47.0327
-46.6573
-42.6917
-35.6889
-26.5367
-16.3256
-6.20192
2.77628
9.76102
14.2019
15.8899
14.9561
11.828
7.15295
1.70089
-3.74045
-8.46309
-11.9183
-13.7689
-13.9112
-12.4652
-9.73848
-6.17
-2.26262
1.48548
4.64247
6.89006
8.05207
8.10238
7.15341
5.42852
3.22349
0.863162
-1.34077
-3.12534
-4.30155
-4.76707
-4.5063
-3.57932
-2.10263
-0.225127
1.89663
4.12068
6.33653
8.47518
10.5116
12.4604
14.366
16.2899
18.2963
20.4396
22.7543
25.2491
27.904
30.6715
33.4782
36.2283
38.8072
41.0839
42.9163
44.1565
44.6595
44.2952
42.9622
40.6032
37.2197
32.8829
27.7389
22.0061
15.9644
9.93503
4.2551
-0.752938
-4.81162
-7.71575
-9.35308
-9.71556
-8.89999
-7.0977
-4.57452
-1.64348
1.36678
4.14404
6.42166
8.00163
8.76924
8.69815
7.84572
6.33961
4.35776
2.10434
-0.215212
-2.41694
-4.35648
-5.94053
-7.13075
-7.94025
-8.42369
-8.66287
-8.75006
-8.77175
-8.79495
-8.85783
-8.96569
-9.09228
-9.18586
-9.17838
-8.99648
-8.57242
-7.85383
-6.81156
-5.44523
-3.78643
-1.89962
0.119514
2.14838
4.04489
5.65816
6.84229
7.4726
7.46271
6.78063
5.4611
3.61156
1.40961
-0.909487
-3.07484
-4.80976
-5.86568
-6.05558
-5.28191
-3.55436
-0.994455
2.17441
5.65049
9.0878
12.1363
14.4828
15.8869
16.2079
15.4184
13.6049
10.9538
7.72701
4.2295
0.774144
-2.35241
-4.91825
-6.76629
-7.82421
-8.10391
-7.69148
-6.72975
-5.39613
-3.87884
-2.35429
-0.968371
0.176431
1.02695
1.57788
1.86364
1.94515
1.89379
1.77531
1.6364
1.49618
1.34404
1.14405
0.845045
0.394361
-0.247382
-1.09321
-2.12094
-3.27018
-4.44596
-5.52849
-6.38774
-6.90061
-6.96833
-6.53133
-5.57975
-4.15781
-2.36165
-0.330863
1.76527
3.74512
5.43393
6.68307
7.38775
7.50166
7.04713
6.11945
4.88412
3.5661
2.43085
1.75788
1.8088
2.7929
4.83466
7.94776
12.0201
16.813
21.9768
27.0811
31.6574
35.2497
37.4646
38.0174
36.7646
33.7216
29.0593
23.0835
16.1961
8.84665
1.47829
-5.52192
-11.8627
-17.3721
-22.0031
-25.8208
-28.9755
-31.6664
-34.1012
-36.4603
-38.8673
-41.372
-43.9447
-46.484
-48.8324
-50.7998
-52.1874
-52.8105
-52.5138
-51.1752
-48.6954
-44.9684
-39.8355
-33.0224
-24.0711
-12.276
3.35514
24.0972
51.4379
86.93
131.96
187.451
253.525
329.187
412.091
498.45
583.145
660.067
722.65
764.578
780.552
767.015
722.731
649.111
550.232
432.529
304.191
174.333
52.0575
-54.488
-138.92
-197.212
-228
-232.57
-214.549
-179.355
-133.479
-83.6981
-36.3217
3.44696
31.9653
47.385
49.6545
40.3139
22.1233
-1.41302
-26.5598
-49.8359
-68.4156
-80.405
-84.9732
-82.337
-73.6149
-60.5839
-45.3775
-30.171
-16.8939
-7.00428
-1.34752
-0.108871
-2.85691
-8.66304
-16.2741
-24.3106
-31.4619
-36.6545
-39.1725
-38.721
-35.4281
-29.7919
-22.5841
-14.7258
-7.15524
-0.703913
4.00284
6.61022
7.0579
5.56379
2.57302
-1.31818
-5.4518
-9.19785
-12.0329
-13.5979
-13.7307
-12.469
-10.0286
-6.75943
-3.08911
0.539455
3.72605
6.16029
7.65224
8.14402
7.70284
6.49831
4.76916
2.78525
0.811035
-0.92438
-2.24694
-3.04551
-3.26853
-2.91189
-2.00181
-0.576725
1.32776
3.68836
6.49643
9.75362
13.4623
17.613
22.1729
27.0763
32.2208
37.4696
42.6598
47.6164
52.1691
56.1699
59.5092
62.1262
64.0132
65.2119
65.8022
65.886
65.5672
64.9333
64.04
62.9025
61.4948
59.7565
57.6075
54.9661
51.7691
47.9902
43.6532
38.838
33.6786
28.3531
23.0661
18.0277
13.43
9.42561
6.11056
3.51371
1.59436
0.248064
-0.679925
-1.37546
-2.03303
-2.83285
-3.92036
-5.39066
-7.27955
-9.56216
-12.159
-14.9484
-17.7835
-20.5111
-22.9906
-25.1096
-26.7951
-28.0186
-28.7952
-29.1774
-29.2433
-29.0844
-28.7903
-28.4374
-28.0792
-27.741
-27.4201
-27.0898
-26.7065
-26.2196
-25.5812
-24.7551
-23.7228
-22.4868
-21.07
-19.5115
-17.8611
-16.1711
-14.4899
-12.8562
-11.2957
-9.82052
-8.43112
-7.12024
-5.87773
-4.69548
-3.5713
-2.51123
-1.52979
-0.648314
0.108384
0.716217
1.15629
1.41877
1.50557
1.43133
1.22278
0.916262
0.55413
0.180361
-0.163882
-0.444075
-0.634966
-0.721566
-0.69833
-0.566669
-0.331302
0.00369005
0.438028
0.976576
1.6281
2.4013
3.29876
4.31005
5.40593
6.53534
7.62669
8.59392
9.34689
9.80456
9.90877
9.63606
9.00508
8.07816
6.95601
5.76614
4.64654
3.72674
3.10932
2.85442
2.96989
3.40861
4.07356
4.83038
5.52566
6.00874
6.15413
5.88139
5.16975
4.06542
2.6803
1.18218
-0.222501
-1.31121
-1.87029
-1.71937
-0.73186
1.15064
3.91213
7.4645
11.658
16.2978
21.1652
26.0384
30.7123
35.0127
38.8038
41.9891
44.5042
46.3056
47.3567
47.615
47.0237
45.5096
42.9903
39.3881
34.6504
28.7725
21.8194
13.9418
5.38525
-3.51227
-12.3307
-20.5862
-27.753
-33.2852
-36.6352
-37.2672
-34.6679
-28.3572
-17.9071
-2.9754
16.6384
40.9109
69.4882
101.564
135.756
170.012
201.566
226.976
242.274
243.234
225.752
186.319
122.526
33.5527
-79.4517
-213.144
-361.987
-518.496
-673.734
-818.006
-941.713
-1036.25
-1094.84
-1113.29
-1090.38
-1028.11
-931.498
-808.108
-667.333
-519.467
-374.723
-242.284
-129.504
-41.3381
19.9384
54.7133
65.7382
57.6024
36.0551
7.26701
-22.8804
-49.3984
-68.627
-78.4705
-78.4242
-69.4123
-53.474
-33.3555
-12.0635
7.55807
23.181
33.2382
37.045
34.7935
27.4352
16.4806
3.74714
-8.90411
-19.8104
-27.6988
-31.8082
-31.934
-28.3977
-21.9526
-13.6444
-4.64833
3.895
11.0234
16.0618
18.686
18.9369
17.1899
14.0864
10.4395
7.1268
4.98494
4.71693
6.82288
11.5597
18.9327
28.7161
40.4994
53.7498
67.8835
82.3366
96.6267
110.401
123.462
135.778
147.464
158.749
169.934
181.328
193.202
205.734
218.974
232.828
247.06
261.307
275.122
288.02
299.529
309.242
316.858
322.208
325.26
326.109
324.948
322.021
317.574
311.803
304.815
296.6
287.026
275.858
262.798
247.54
229.841
209.586
186.849
161.934
135.388
107.982
80.6679
54.4957
30.5245
9.71864
-7.14845
-19.5736
-27.3754
-30.7113
-30.059
-26.1634
-19.9571
-12.4628
-4.69162
2.45319
8.25479
12.2361
14.1837
14.1407
12.3728
9.31242
5.49006
1.46133
-2.2611
-5.26316
-7.26733
-8.15015
-7.9392
-6.79222
-4.96268
-2.75754
-0.493168
1.54477
3.13312
4.13161
4.49045
4.2459
3.50543
2.42581
1.1875
-0.0309406
-1.0752
-1.83195
-2.23841
-2.28454
-2.00832
-1.48561
-0.81645
-0.110012
0.529846
1.01664
1.28971
1.3185
1.1026
0.668046
0.0608704
-0.661112
-1.43698
-2.21084
-2.93846
-3.59181
-4.16128
-4.65549
-5.09911
-5.52917
-5.9903
-6.52935
-7.18989
-8.00658
-8.99998
-10.1721
-11.503
-12.9497
-14.4466
-15.9093
-17.2408
-18.3394
-19.1086
-19.4669
-19.3567
-18.7515
-17.6595
-16.1246
-14.2234
-12.0597
-9.75612
-7.4445
-5.2553
-3.30754
-1.6998
-0.503048
0.244038
0.536948
0.404245
-0.096367
-0.884436
-1.86492
-2.93717
-4.00384
-4.97848
-5.79134
-6.39278
-6.75424
-6.86716
-6.74024
-6.39569
-5.86512
-5.18558
-4.39629
-3.53616
-2.64239
-1.74993
-0.891599
-0.0983865
0.600396
1.17752
1.60902
1.87603
1.96721
1.88111
1.6281
1.23117
0.725375
0.155633
-0.426979
-0.970017
-1.42499
-1.75247
-1.92623
-1.93591
-1.78758
-1.50222
-1.11215
-0.65585
-0.171794
0.308122
0.764878
1.19793
1.62967
2.10819
2.70771
3.52572
4.6758
6.27583
8.43151
11.2166
14.6526
18.6904
23.1988
27.9621
32.6901
37.0394
40.6458
43.1634
44.3053
43.8812
41.8245
38.2073
33.2385
27.2467
20.6479
13.9034
7.4731
1.76825
-2.88837
-6.2918
-8.36986
-9.18226
-8.90454
-7.79933
-6.17879
-4.36328
-2.64129
-1.23503
-0.274479
0.219329
0.343495
0.318716
0.49571
1.36686
3.58494
7.98653
15.6129
27.7151
45.7275
71.1908
105.611
150.251
205.859
272.372
348.631
432.171
519.148
604.454
682.036
745.422
788.389
805.706
793.84
751.513
680.033
583.321
467.62
340.924
212.172
90.3339
-16.515
-101.999
-162.042
-195.181
-202.581
-187.74
-155.961
-113.642
-67.495
-23.7947
12.2728
37.0738
48.7728
47.3459
34.3821
12.7139
-14.0602
-42.0966
-67.8002
-88.2376
-101.425
-106.47
-103.567
-93.859
-79.1954
-61.8315
-44.1056
-28.1407
-15.6021
-7.53782
-4.31134
-5.62779
-10.6399
-18.1129
-26.6216
-34.752
-41.2802
-45.3098
-46.3536
-44.3544
-39.6496
-32.8887
-24.9193
-16.6602
-8.97791
-2.58277
2.04418
4.6874
5.39552
4.44635
2.28656
-0.543869
-3.49077
-6.05828
-7.86584
-8.68425
-8.44827
-7.24673
-5.29381
-2.88724
-0.360186
1.96641
3.82478
5.03019
5.49692
5.23983
4.36289
3.03729
1.4733
-0.109986
-1.5127
-2.57655
-3.19868
-3.3359
-2.9993
-2.24084
-1.13458
0.24385
1.83607
3.61463
5.58929
7.80497
10.3318
13.2489
16.6252
20.5003
24.8679
29.6663
34.7765
40.0277
45.2119
50.1027
54.4784
58.1443
60.9523
62.8151
63.713
63.6931
62.8617
61.3698
59.3958
57.1253
54.7326
52.3646
50.1286
48.0861
46.2513
44.5953
43.0549
41.5439
39.966
38.2286
36.2541
33.9892
31.4107
28.5284
25.3833
22.044
18.6001
15.1543
11.8138
8.68172
5.84991
3.39251
1.3619
-0.213458
-1.32919
-2.00355
-2.27479
-2.19786
-1.84083
-1.28135
-0.603144
0.107569
0.765757
1.29152
1.61419
1.67645
1.43807
0.879024
0.00147748
-1.16965
-2.58775
-4.18729
-5.8882
-7.6016
-9.23629
-10.7056
-11.9341
-12.8626
-13.4535
-13.6921
-13.5884
-13.1753
-12.5058
-11.6485
-10.6821
-9.68885
-8.74802
-7.92973
-7.28941
-6.86373
-6.66811
-6.69616
-6.92109
-7.29898
-7.77365
-8.28266
-8.76383
-9.16176
-9.43353
-9.55305
-9.51348
-9.32743
-9.02473
-8.64792
-8.24604
-7.86727
-7.55157
-7.32422
-7.19139
-7.13849
-7.13167
-7.12236
-7.05439
-6.8725
-6.53113
-6.00211
-5.27994
-4.38401
-3.35728
-2.26166
-1.17069
-0.160704
0.698488
1.35188
1.76557
1.93022
1.8613
1.59624
1.18895
0.702713
0.20236
-0.253193
-0.617068
-0.858588
-0.965117
-0.941555
-0.807775
-0.594515
-0.338396
-0.0767446
0.157167
0.33801
0.451183
0.494456
0.478559
0.426867
0.374294
0.365457
0.452112
0.689865
1.13421
1.83604
2.83708
4.16545
5.83219
7.82886
10.1267
12.6772
15.4139
18.2548
21.1052
23.8602
26.4074
28.6295
30.4072
31.6237
32.1699
31.9518
30.8991
28.9742
26.1807
22.5708
18.2486
13.3696
8.13487
2.78042
-2.43875
-7.26727
-11.4696
-14.8493
-17.2653
-18.6424
-18.9762
-18.3302
-16.8255
-14.6255
-11.9146
-8.87337
-5.65148
-2.33638
1.08131
4.74734
8.98805
14.3567
21.6762
32.0665
46.9432
67.9677
96.932
135.569
185.286
246.848
320.043
403.387
493.939
587.278
677.69
758.579
823.066
864.733
878.396
860.816
811.23
731.62
626.661
503.346
370.326
237.038
112.741
5.56922
-78.264
-135.033
-163.765
-166.179
-146.335
-110.034
-64.0598
-15.3691
29.6786
65.9605
90.0305
100.328
97.1486
82.3965
59.1792
31.2963
2.70079
-23.0009
-42.9542
-55.326
-59.4208
-55.6445
-45.3359
-30.5013
-13.494
3.31479
17.8329
28.4782
34.322
35.136
31.3473
23.9165
14.1614
3.55547
-6.47387
-14.7193
-20.3234
-22.8511
-22.3028
-19.0721
-13.8587
-7.55227
-1.10471
4.59351
8.81693
11.0787
11.1678
9.14974
5.33263
0.208215
-5.62422
-11.5392
-16.9615
-21.4292
-24.6363
-26.4531
-26.9224
-26.2356
-24.6943
-22.6607
-20.5076
-18.5709
-17.1122
-16.2941
-16.1704
-16.6911
-17.7195
-19.0595
-20.487
-21.7812
-22.7526
-23.2616
-23.2285
-22.6328
-21.5034
-19.9028
-17.9085
-15.5945
-13.0162
-10.2021
-7.15135
-3.83905
-0.227147
3.72034
8.02057
12.6561
17.5627
22.6231
27.6682
32.4856
36.8359
40.4743
43.1755
44.7578
45.1052
44.1824
42.0415
38.8199
34.7287
30.0331
25.0278
20.0098
15.2523
10.982
7.36321
4.48907
2.38074
0.99413
0.232399
-0.0377517
0.0317169
0.287165
0.587631
0.815334
0.881878
0.730392
0.334374
-0.305706
-1.16703
-2.20945
-3.38045
-4.61989
-5.86466
-7.05349
-8.13185
-9.05695
-9.80224
-10.3609
-10.7475
-10.9972
-11.1619
-11.3042
-11.4883
-11.7705
-12.1895
-12.759
-13.4622
-14.2524
-15.0562
-15.7821
-16.3318
-16.6129
-16.5515
-16.1025
-15.2559
-14.039
-12.5128
-10.7652
-8.89989
-7.02536
-5.24359
-3.64193
-2.28839
-1.23112
-0.501194
-0.117275
-0.0898722
-0.42319
-1.11306
-2.1408
-3.46419
-5.00811
-6.65814
-8.26012
-9.62827
-10.5623
-10.8726
-10.4098
-9.09445
-6.94087
-4.06924
-0.702834
2.85181
6.23999
9.10441
11.1342
12.1089
11.93
10.6346
8.38765
5.45611
2.16779
-1.13692
-4.1527
-6.64854
-8.49279
-9.66091
-10.2259
-10.3342
-10.1722
-9.92939
-9.76438
-9.77916
-10.0051
-10.4019
-10.8694
-11.268
-11.446
-11.267
-10.6348
-9.51078
-7.92257
-5.96217
-3.77473
-1.5398
0.552181
2.32453
3.6369
4.40297
4.60135
4.27896
3.54727
2.57235
1.56071
0.742422
0.353379
0.617972
1.73302
3.85362
7.08113
11.4536
16.9386
23.4285
30.7389
38.6106
46.7151
54.6659
62.0358
68.38
73.2666
76.3101
77.2076
75.773
71.9643
65.9011
57.8673
48.2987
37.7541
26.8721
16.318
6.72512
-1.36353
-7.54597
-11.5996
-13.502
-13.431
-11.7433
-8.93349
-5.5777
-2.2672
0.459034
2.17569
2.61864
1.7135
-0.417566
-3.46944
-6.98327
-10.3833
-13.0114
-14.1486
-13.0187
-8.76924
-0.439728
13.0699
33.0062
60.7186
97.542
144.594
202.494
271.044
348.91
433.398
520.382
604.44
679.233
738.093
774.775
784.244
763.41
711.665
631.142
526.643
405.222
275.49
146.713
27.8375
-73.4349
-151.411
-202.906
-227.441
-227.112
-206.186
-170.462
-126.518
-80.9195
-39.5036
-6.80912
14.2886
22.7114
19.088
5.47042
-15.0885
-39.0319
-62.802
-83.2863
-98.1592
-106.087
-106.786
-100.938
-89.9955
-75.9068
-60.8051
-46.7076
-35.2603
-27.5577
-24.0536
-24.5665
-28.3687
-34.3421
-41.1712
-47.546
-52.3465
-54.7839
-54.4838
-51.5045
-46.2927
-39.5869
-32.2878
-25.3148
-19.4709
-15.3337
-13.1874
-13.0011
-14.4543
-17.0022
-19.9685
-22.6509
-24.4235
-24.8213
-23.598
-20.7483
-16.4965
-11.2544
-5.55639
0.0174694
4.91945
8.7026
11.0715
11.9097
11.283
9.41937
6.6705
3.46221
0.240281
-2.58058
-4.65869
-5.75418
-5.74262
-4.61366
-2.4567
0.56282
4.23265
8.32385
12.6183
16.9304
21.1215
25.1056
28.8485
32.3597
35.6804
38.8693
41.9874
45.0856
48.1935
51.3132
54.4162
57.4443
60.3142
62.9244
65.1637
66.9209
68.0941
68.5984
68.3725
67.3832
65.6276
63.1339
59.9603
56.1933
51.9438
47.3428
42.5358
37.6758
32.9155
28.3985
24.2513
20.5748
17.4382
14.874
12.8769
11.4045
10.3821
9.70988
9.27286
8.95179
8.63462
8.22694
7.66018
6.89673
5.93127
4.78826
3.51606
2.17842
0.84472
-0.419848
-1.56283
-2.5508
-3.37264
-4.03961
-4.58211
-5.04358
-5.47226
-5.9116
-6.39051
-6.91468
-7.46039
-7.97191
-8.36374
-8.52807
-8.34764
-7.7127
-6.54041
-4.79362
-2.49608
0.259181
3.31036
6.43731
9.38131
11.8719
13.6574
14.535
14.3761
13.143
10.8956
7.78529
4.03902
-0.0658083
-4.23147
-8.1713
-11.6384
-14.4482
-16.4929
-17.7463
-18.2592
-18.1473
-17.5729
-16.7234
-15.7896
-14.9459
-14.3334
-14.0496
-14.1428
-14.6116
-15.4106
-16.4582
-17.6477
-18.8595
-19.9725
-20.8751
-21.4738
-21.7006
-21.5167
-20.915
-19.9192
-18.5813
-16.9765
-15.1965
-13.3415
-11.5114
-9.79745
-8.27488
-6.99649
-5.98913
-5.25234
-4.75962
-4.46213
-4.29418
-4.18002
-4.0409
-3.80175
-3.39668
-2.77265
-1.89131
-0.728923
0.72512
2.47056
4.49863
6.79385
9.33504
12.0953
15.0413
18.1323
21.3198
24.5468
27.7493
30.8578
33.7999
36.5025
38.895
40.9105
42.4872
43.5688
44.1046
44.0498
43.3666
42.0273
40.0175
37.3416
34.0287
30.1379
25.7644
21.0432
16.1536
11.322
6.82491
2.99201
0.207875
-1.0877
-0.404352
2.78594
9.02288
18.8142
32.5705
50.5165
72.5818
98.2766
126.566
155.764
183.469
206.57
221.351
223.711
209.5
174.955
117.199
34.7463
-72.0681
-200.79
-346.754
-503.229
-661.821
-813.094
-947.369
-1055.61
-1130.29
-1166.17
-1160.85
-1115.01
-1032.43
-919.634
-785.207
-639.018
-491.246
-351.445
-227.696
-125.959
-49.6875
0.283527
25.5563
29.7547
17.9307
-4.12463
-30.5787
-56.1843
-76.7708
-89.5572
-93.269
-88.0666
-75.3149
-57.2387
-36.5188
-15.8838
2.2516
16.0631
24.4848
27.2591
24.8773
18.4301
9.39811
-0.584973
-9.96237
-17.4487
-22.1676
-23.7203
-22.1848
-18.0515
-12.1115
-5.31726
1.36499
7.09001
11.2405
13.4948
13.8508
12.6062
10.3021
7.63903
5.37814
4.24203
4.8264
7.53391
12.5366
19.7704
28.9595
39.6674
51.3644
63.503
75.5909
87.2487
98.2493
108.529
118.177
127.396
136.456
145.637
155.176
165.227
175.842
186.964
198.445
210.072
221.602
232.792
243.419
253.292
262.246
270.121
276.743
281.897
285.323
286.71
285.725
282.047
275.412
265.672
252.831
237.083
218.815
198.59
177.106
155.132
133.439
112.729
93.5755
76.3797
61.3556
48.5347
37.7926
28.891
21.5254
15.373
10.1339
5.55987
1.47015
-2.24611
-5.63876
-8.71321
-11.4505
-13.8273
-15.8316
-17.474
-18.7904
-19.8399
-20.6969
-21.4396
-22.1383
-22.8445
-23.5829
-24.3475
-25.1034
-25.7912
-26.3362
-26.6595
-26.6888
-26.3688
-25.6688
-24.5875
-23.153
-21.4206
-19.4663
-17.3786
-15.2495
-13.1652
-11.1987
-9.40375
-7.81209
-6.43326
-5.25713
-4.25845
-3.40289
-2.65345
-1.97646
-1.3464
-0.748921
-0.182002
0.344933
0.813394
1.1993
1.47693
1.62288
1.6196
1.45824
1.14083
0.681405
0.106278
-0.5469
-1.23124
-1.89393
-2.48045
-2.93952
-3.22802
-3.31548
-3.18733
-2.84664
-2.31392
-1.62496
-0.827031
0.0259836
0.878724
1.67889
2.38049
2.94541
3.34354
3.55192
3.5537
3.33784
2.89986
2.24391
1.38551
0.354372
-0.803791
-2.02731
-3.24109
-4.36172
-5.30474
-5.99321
-6.36627
-6.38622
-6.04294
-5.35469
-4.36507
-3.13667
-1.74273
-0.258448
1.24647
2.71255
4.09214
5.34808
6.45013
7.37075
8.08145
8.55089
8.74545
8.63241
8.18509
7.38912
6.24856
4.79073
3.06849
1.15954
-0.83755
-2.81022
-4.64097
-6.21748
-7.44255
-8.2428
-8.57503
-8.42964
-7.83074
-6.83301
-5.51572
-3.9745
-2.3117
-0.626393
0.995099
2.48724
3.81118
4.95795
5.9489
6.83328
7.68355
8.58894
9.6481
10.9616
12.6246
14.7204
17.3142
20.4468
24.1297
28.3387
33.0096
38.0339
43.2582
48.4859
53.4837
57.993
61.7455
64.4826
65.9766
66.0515
64.6
61.5951
57.0939
51.2341
44.2222
36.3183
27.8172
19.0315
10.276
1.85636
-5.93991
-12.8506
-18.6462
-23.1379
-26.1889
-27.7254
-27.7493
-26.3475
-23.6967
-20.0608
-15.7788
-11.2424
-6.86368
-3.03437
-0.0781557
1.80064
2.57006
2.42249
1.82261
1.54746
2.71229
6.77347
15.4962
30.873
54.979
89.7568
136.733
196.691
269.328
352.975
444.42
538.916
630.412
712
776.573
817.602
829.932
810.492
758.798
677.169
570.611
446.383
313.271
180.701
57.7598
-47.7128
-129.877
-185.388
-213.597
-216.432
-198.005
-164.002
-120.942
-75.4023
-33.3059
0.65418
23.3937
33.595
31.644
19.3758
-0.321614
-23.9859
-48.0723
-69.4011
-85.5085
-94.8714
-96.9897
-92.3327
-82.1716
-68.3297
-52.8922
-37.9141
-25.1641
-15.932
-10.9161
-10.1971
-13.2909
-19.2676
-26.9129
-34.9095
-42.0127
-47.1999
-49.7774
-49.4367
-46.2564
-40.6562
-33.3135
-25.0554
-16.7428
-9.16229
-2.93746
1.52994
4.08561
4.81472
4.00491
2.08803
-0.429852
-3.04006
-5.29534
-6.85896
-7.5344
-7.27381
-6.1666
-4.4117
-2.27892
-0.0653754
1.94675
3.52596
4.51682
4.85271
4.55592
3.72613
2.52035
1.12766
-0.257198
-1.45781
-2.33453
-2.79544
-2.79895
-2.34848
-1.4805
-0.248349
1.29544
3.11526
5.20422
7.58953
10.3303
13.5078
17.2095
21.509
26.4452
32.0034
38.103
44.5916
51.2499
57.805
63.9527
69.3843
73.8169
77.0211
78.8443
79.2251
78.1985
75.8901
72.5006
68.2829
63.5152
58.473
53.4032
48.5055
43.9205
39.7271
35.9483
32.5644
29.5297
26.791
24.3046
22.0481
20.0261
18.2688
16.8233
15.7401
15.0568
14.7816
14.882
15.2784
15.8459
16.4247
16.8363
16.9049
16.4791
15.453
13.7809
11.4856
8.6586
5.45152
2.06068
-1.29344
-4.3893
-7.02712
-9.04875
-10.3525
-10.9015
-10.7246
-9.91094
-8.59812
-6.95606
-5.16859
-3.41474
-1.85169
-0.601262
0.258905
0.698707
0.733556
0.417498
-0.167443
-0.924237
-1.75449
-2.57106
-3.30809
-3.92717
-4.4189
-4.79977
-5.10464
-5.37639
-5.65413
-5.96204
-6.30084
-6.6432
-6.93425
-7.0973
-7.04408
-6.68824
-5.96031
-4.82192
-3.27735
-1.38058
0.763147
3.00201
5.14793
6.99175
8.32188
8.94446
8.70334
7.49805
5.29813
2.15261
-1.80657
-6.36771
-11.2496
-16.119
-20.614
-24.3733
-27.0674
-28.4313
-28.2928
-26.5953
-23.4105
-18.9388
-13.497
-7.49292
-1.38966
4.33715
9.24452
12.9644
15.2384
15.9408
15.0879
12.8315
9.44004
5.2672
0.714244
-3.81046
-7.9299
-11.3306
-13.7854
-15.1656
-15.441
-14.6701
-12.9819
-10.5517
-7.57549
-4.24485
-0.725631
2.85683
6.42518
9.94964
13.4405
16.9353
20.4819
24.1218
27.8732
31.7179
35.5928
39.3852
42.9356
46.0441
48.4846
50.0214
50.4321
49.5299
47.1885
43.3621
38.102
31.564
24.0073
15.7815
7.30258
-0.980694
-8.62789
-15.2504
-20.5524
-24.3629
-26.655
-27.5479
-27.2908
-26.2312
-24.77
-23.3108
-22.2095
-21.7322
-22.0268
-23.1116
-24.8819
-27.132
-29.5843
-31.9184
-33.7881
-34.8196
-34.5832
-32.5402
-27.9736
-19.9185
-7.11718
11.9738
39.098
76.0186
124.242
184.667
257.21
340.469
431.498
525.775
617.395
699.518
765.015
807.26
820.955
802.859
752.317
671.505
565.331
441.01
307.357
173.883
49.8141
-56.836
-140.044
-196.297
-224.819
-227.47
-208.367
-173.273
-128.85
-81.8606
-38.435
-3.46466
19.803
29.9452
27.3154
13.7932
-7.61719
-33.2799
-59.4411
-82.7019
-100.396
-110.837
-113.419
-108.573
-97.6013
-82.4216
-65.2605
-48.3449
-33.6239
-22.5565
-15.9824
-14.0842
-16.4353
-22.1191
-29.8957
-38.3921
-46.2871
-52.4704
-56.1573
-56.9503
-54.8451
-50.1865
-43.5862
-35.8156
-27.6926
-19.9747
-13.2744
-8.00209
-4.34262
-2.26354
-1.54981
-1.85754
-2.77722
-3.89699
-4.85773
-5.39379
-5.35572
-4.71456
-3.54909
-2.02014
-0.336923
1.27929
2.62874
3.56001
3.9872
3.8963
3.34107
2.43013
1.30801
0.133184
-0.943585
-1.79777
-2.34429
-2.54401
-2.40331
-1.96699
-1.30604
-0.502055
0.369482
1.25462
2.13309
3.02542
3.9941
5.13826
6.58259
8.46155
10.9008
13.9981
17.8065
22.3216
27.475
33.134
39.1088
45.1645
51.0368
56.4498
61.1331
64.8363
67.3421
68.4753
68.1112
66.1822
62.6838
57.6808
51.3124
43.7952
35.4206
26.5479
17.5877
8.97915
1.15917
-5.47205
-10.5867
-13.9617
-15.5033
-15.2606
-13.4253
-10.3164
-6.35124
-2.00466
-2.00466
-2.00466
-2.00466
-2.00466
-2.00466
-2.00466
-2.00466
-2.00466
-2.00466
-2.00466
-2.00466
-2.00466
-2.00466
-2.00466
-2.00466
-2.00466
-2.00466
-2.00466
-2.00466
-2.00466
