32.4357
22.9818
11.4757
-0.784159
-12.5259
-22.6299
-30.2303
-34.7828
-36.0927
-34.3025
-29.8434
-23.3601
-15.6184
-7.40835
0.545467
7.65706
13.5288
17.9742
21.0145
22.8509
23.8197
24.337
24.8399
25.7308
27.3287
29.8286
33.2676
37.4975
42.1609
46.6772
50.241
51.8462
50.3431
44.5381
33.3366
15.9224
-8.04458
-38.2391
-73.5254
-111.892
-150.5
-185.858
-214.128
-231.539
-234.852
-221.832
-191.645
-145.112
-84.7821
-14.7851
59.5215
132.085
196.798
248.175
281.968
295.644
288.667
262.54
220.609
167.656
109.338
51.5428
-0.259645
-41.5814
-69.345
-82.1241
-80.1813
-65.3102
-40.5144
-9.57034
23.4636
54.7326
81.007
99.9961
110.526
112.568
107.131
96.0361
81.6042
66.3151
52.4651
41.8744
35.6756
34.2028
36.9909
42.8783
50.1937
56.9991
61.3546
61.5702
56.4145
45.2535
28.1104
5.63963
-20.9727
-50.1657
-80.1943
-109.326
-136.02
-159.064
-177.664
-191.468
-200.534
-205.257
-206.258
-204.263
-199.983
-194.018
-186.793
-178.53
-169.26
-158.876
-147.197
-134.055
-119.37
-103.22
-85.8724
-67.7995
-49.6515
-32.2078
-16.305
-2.75321
7.74816
14.6864
17.7924
17.0736
12.8176
5.56734
-3.92825
-14.7839
-26.0583
-36.8359
-46.3024
-53.8044
-58.8871
-61.3077
-61.0229
-58.1541
-52.9373
-45.6639
-36.6245
-26.0612
-14.1379
-0.932741
13.5491
29.3414
46.4707
64.9048
84.5047
104.99
125.925
146.725
166.69
185.059
201.08
214.082
223.547
229.169
230.893
228.924
223.709
215.895
206.263
195.643
184.823
174.471
165.058
156.815
149.715
143.494
137.7
131.768
125.109
117.205
107.692
96.4183
83.4801
69.2153
54.169
39.0304
24.5508
11.4544
0.35469
-8.31509
-14.3462
-17.7705
-18.8469
-18.0201
-15.8606
-12.9912
-10.013
-7.43863
-5.6405
-4.82105
-5.00554
-6.05787
-7.71523
-9.63597
-11.4538
-12.8313
-13.5085
-13.341
-12.33
-10.6426
-8.62464
-6.80616
-5.89636
-6.7625
-10.385
-17.7815
-29.8968
-47.4609
-70.8262
-99.8063
-133.539
-170.408
-208.046
-243.444
-273.166
-293.665
-301.666
-294.576
-270.868
-230.374
-174.455
-105.993
-29.2089
50.6867
127.981
197.019
252.78
291.388
310.503
309.548
289.728
253.866
206.059
151.21
94.4877
40.7906
-5.73774
-42.0751
-66.5412
-78.8519
-80.0146
-72.0857
-57.8317
-40.3392
-22.6244
-7.28937
3.7399
9.36838
9.37176
4.32653
-4.55139
-15.6317
-27.1258
-37.3404
-44.8979
-48.9003
-49.0209
-45.5175
-39.1727
-31.1706
-22.9318
-15.9251
-11.483
-10.6404
-14.0155
-21.7455
-33.4811
-48.4376
-65.4942
-83.3263
-100.553
-115.879
-128.219
-136.784
-141.133
-141.169
-137.117
-129.457
-118.851
-106.062
-91.8807
-77.0651
-62.2941
-48.1423
-35.0667
-23.4066
-13.389
-5.13815
1.31403
6.01903
9.10265
10.7559
11.2241
10.793
9.77129
8.46983
7.17909
6.14642
5.55613
5.51491
6.04456
7.08353
8.49733
10.0968
11.6621
12.9701
13.8216
14.0659
13.6203
12.4827
10.7355
8.54152
6.13045
3.77825
1.78052
0.42245
-0.0515211
0.534653
2.26681
5.12713
8.99068
13.6329
18.7471
23.9709
28.9185
33.216
36.5354
38.6243
39.328
38.6016
36.5105
33.2204
28.9772
24.0791
18.8459
13.5868
8.57267
4.01414
0.0490727
-3.26067
-5.92305
-8.00204
-9.59883
-10.831
-11.8128
-12.6394
-13.3762
-14.0552
-14.677
-15.2175
-15.6381
-15.8963
-15.955
-15.7898
-15.3917
-14.7674
-13.9348
-12.9187
-11.7443
-10.4322
-8.99529
-7.43697
-5.75257
-3.93185
-1.96262
0.165353
2.45722
4.91093
7.51661
10.2576
13.1128
16.0599
19.0789
22.1543
25.2737
28.4215
31.5644
34.6276
37.4622
39.8072
41.2532
41.2172
38.9428
33.535
24.0395
9.56697
-10.546
-36.5563
-68.1397
-104.255
-143.076
-182.022
-217.903
-247.167
-266.253
-271.996
-262.039
-235.195
-191.706
-133.358
-63.4151
13.6229
92.4132
167.283
232.792
284.283
318.352
333.183
328.701
306.541
269.825
222.79
170.304
117.337
68.4561
27.3827
-3.31817
-22.4032
-29.9565
-27.2454
-16.4574
-0.356532
18.0933
36.0892
51.2938
62.0519
67.5006
67.5705
62.8879
54.6009
44.1572
33.0684
22.6901
14.0447
7.70538
3.75004
1.78517
1.03084
0.451065
-1.09024
-4.66961
-11.1612
-21.1283
-34.7603
-51.8612
-71.8866
-94.0222
-117.289
-140.661
-163.178
-184.04
-202.671
-218.749
-232.197
-243.145
-251.868
-258.709
-264.005
-268.021
-270.904
-272.665
-273.184
-272.242
-269.564
-264.884
-257.992
-248.789
-237.314
-223.758
-208.449
-191.827
-174.401
-156.697
-139.208
-122.355
-106.455
-91.7089
-78.2034
-65.9296
-54.811
-44.7358
-35.5895
-27.2806
-19.7583
-13.0178
-7.0958
-2.05629
2.0287
5.10069
7.13427
8.1517
8.23029
7.50178
6.14401
4.36642
2.39139
0.434198
-1.31596
-2.71154
-3.6571
-4.11373
-4.09733
-3.67116
-2.9342
-2.00663
-1.01446
-0.075044
0.71516
1.28939
1.61562
1.69768
1.57292
1.30707
0.986841
0.711138
0.581568
0.692866
1.12399
1.93054
3.13905
4.74375
6.70602
8.95663
11.4005
13.9237
16.4015
18.708
20.7241
22.3458
23.4907
24.1017
24.1501
23.6353
22.5833
21.0441
19.0866
16.7938
14.2568
11.5686
8.81899
6.08853
3.44499
0.940416
-1.38982
-3.52597
-5.46094
-7.19545
-8.7318
-10.0667
-11.1838
-12.0457
-12.5866
-12.7053
-12.2592
-11.0624
-8.8894
-5.48825
-0.606564
5.967
14.3453
24.4717
36.0436
48.442
60.6862
71.4342
79.0469
81.7319
77.7652
65.7757
45.0573
15.8583
-20.4111
-61.1085
-102.464
-139.878
-168.387
-183.253
-180.598
-157.995
-114.916
-52.9761
24.0865
110.703
200.007
284.554
357.124
411.519
443.239
449.966
431.779
391.102
332.379
261.53
185.264
110.337
42.8419
-12.3845
-52.1761
-75.236
-82.1104
-74.9588
-57.1611
-32.8224
-6.2411
18.5947
38.4245
51.0073
55.264
51.27
40.1119
23.6403
4.15859
-15.9089
-34.327
-49.3045
-59.6665
-64.9357
-65.3189
-61.6135
-55.051
-47.1041
-39.2836
-32.9497
-29.1605
-28.5693
-31.3818
-37.3698
-45.9367
-56.2203
-67.2183
-77.9166
-87.4055
-94.9684
-100.136
-102.699
-102.69
-100.334
-95.9822
-90.0486
-82.9454
-75.0415
-66.6385
-57.9668
-49.1984
-40.4698
-31.9066
-23.6447
-15.8413
-8.67408
-2.32856
3.02376
7.25165
10.2895
12.1564
12.9653
12.9192
12.2957
11.4201
10.6331
10.2549
10.5536
11.7197
13.851
16.9496
20.9303
25.6387
30.8767
36.4302
42.0972
47.7098
53.1502
58.3571
63.3229
68.0844
72.7064
77.2636
81.8214
86.4193
91.0589
95.6957
100.237
104.544
108.439
111.717
114.158
115.542
115.666
114.365
111.528
107.112
101.156
93.7879
85.2227
75.7529
65.7313
55.5464
45.5927
36.2392
27.7995
20.5068
14.4954
9.79166
6.31333
3.87699
2.21281
0.985045
-0.182926
-1.6801
-3.87708
-7.0946
-11.5731
-17.4458
-24.7178
-33.2541
-42.779
-52.8878
-63.0725
-72.7589
-81.3541
-88.2978
-93.1142
-95.4583
-95.1498
-92.1926
-86.7762
-79.2584
-70.1315
-59.9763
-49.4076
-39.0185
-29.3291
-20.7448
-13.5282
-7.78718
-3.47872
-0.427148
1.64615
3.08577
4.26158
5.52732
7.17992
9.41963
12.3101
15.7384
19.3761
22.6489
24.7233
24.5258
20.8106
12.2856
-2.19969
-23.4174
-51.5053
-85.7352
-124.359
-164.584
-202.705
-234.417
-255.273
-261.249
-249.318
-217.976
-167.602
-100.605
-21.3094
64.4094
149.719
227.561
291.445
336.179
358.459
357.237
333.81
291.636
235.9
172.882
109.228
51.1943
3.97268
-28.8247
-45.4751
-46.2142
-33.0737
-9.51713
20.0671
50.9461
78.622
99.3387
110.461
110.692
100.109
80.0332
52.7678
21.2319
-11.4404
-42.2918
-68.8784
-89.5127
-103.394
-110.624
-112.106
-109.37
-104.332
-99.031
-95.3817
-94.9617
-98.8584
-107.586
-121.076
-138.734
-159.547
-182.227
-205.374
-227.627
-247.8
-264.98
-278.586
-288.377
-294.419
-297.02
-296.643
-293.8
-288.963
-282.489
-274.572
-265.233
-254.335
-241.642
-226.885
-209.846
-190.438
-168.764
-145.162
-120.204
-94.6735
-69.5056
-45.7032
-24.2416
-5.97014
8.47509
18.7366
24.7709
26.8497
25.5268
21.5763
15.9081
9.47255
3.16557
-2.25572
-6.23716
-8.46535
-8.87646
-7.63692
-5.10013
-1.74597
1.88859
5.27897
7.97469
9.64659
10.1156
9.36103
7.51005
4.81013
1.59048
-1.78271
-4.95127
-7.60498
-9.51244
-10.5401
-10.6583
-9.93552
-8.5215
-6.62331
-4.47712
-2.31961
-0.362136
1.22969
2.34909
2.95331
3.06104
2.74326
2.10915
1.28927
0.41827
-0.381035
-1.01032
-1.40425
-1.53424
-1.4075
-1.06212
-0.558985
0.028178
0.623436
1.15871
1.58226
1.8648
2.00274
2.01828
1.9567
1.88093
1.86447
1.98311
2.30674
2.89181
3.77556
4.97218
6.47156
8.24022
10.2243
12.3539
14.5482
16.7204
18.7826
20.65
22.2442
23.4971
24.3555
24.7867
24.7876
24.3951
23.6984
22.8509
22.0784
21.6784
22.0085
23.4579
26.4013
31.1338
37.7913
46.2634
56.1094
66.4965
76.1791
83.5403
86.7137
83.7901
73.1015
53.5498
24.9336
-11.7905
-54.375
-99.3273
-142.159
-177.828
-201.327
-208.34
-195.873
-162.761
-109.962
-40.6014
40.2716
126.176
209.888
284.227
342.857
380.979
395.842
387.006
356.331
307.703
246.534
179.114
111.897
50.8017
0.624987
-35.3832
-55.7375
-60.7195
-52.1806
-33.1865
-7.55663
20.6353
47.5404
69.937
85.5194
93.0488
92.3651
84.2728
70.3261
52.5528
33.1516
14.2052
-2.56206
-15.9559
-25.4013
-30.946
-33.1869
-33.1365
-32.0495
-31.2372
-31.8915
-34.94
-40.9466
-50.0655
-62.0499
-76.3071
-91.9925
-108.124
-123.702
-137.827
-149.783
-159.104
-165.594
-169.322
-170.574
-169.791
-167.492
-164.191
-160.324
-156.194
-151.94
-147.533
-142.795
-137.443
-131.149
-123.597
-114.551
-103.897
-91.6712
-78.0744
-63.4538
-48.2738
-33.0713
-18.4042
-4.79901
7.2948
17.5408
25.7378
31.8269
35.8853
38.1071
38.7754
38.2293
36.8288
34.9219
32.8167
30.7597
28.9236
27.4031
26.2185
25.3266
24.6361
24.0257
23.3631
22.522
21.3965
19.9114
18.0278
15.7447
13.0969
10.1498
6.9933
3.73377
0.486789
-2.63018
-5.50444
-8.03397
-10.1326
-11.7343
-12.7964
-13.3024
-13.2623
-12.7127
-11.715
-10.3516
-8.72176
-6.93557
-5.10717
-3.34796
-1.75981
-0.429113
0.577798
1.2173
1.46882
1.33249
0.824191
-0.0316935
-1.21102
-2.69869
-4.49601
-6.62464
-9.126
-12.0551
-15.4691
-19.4118
-23.8954
-28.8833
-34.2747
-39.8956
-45.4963
-50.7588
-55.3122
-58.7567
-60.6945
-60.7637
-58.6739
-54.2385
-47.4012
-38.2542
-27.0446
-14.1695
-0.158128
14.3573
28.6803
42.0968
53.9251
63.5671
70.5551
74.5916
75.5767
73.6194
69.0309
62.2953
54.0192
44.8589
35.4285
26.1973
17.3852
8.87409
0.153626
-9.67495
-21.8197
-37.6327
-58.3635
-84.8571
-117.239
-154.647
-195.076
-235.378
-271.474
-298.74
-312.57
-309.007
-285.38
-240.82
-176.588
-96.1327
-4.86228
90.3519
181.885
262.193
324.654
364.318
378.464
366.886
331.89
277.989
211.357
139.102
68.4643
6.02536
-42.963
-75.0645
-88.9073
-85.1809
-66.3973
-36.4609
-0.1108
37.6872
72.3235
100.035
118.252
125.775
122.766
110.593
91.5309
68.3958
44.1458
21.5077
2.67016
-10.9239
-18.6717
-20.79
-18.1948
-12.3059
-4.80942
2.58853
8.38339
11.4442
11.1189
7.26532
0.213689
-9.32958
-20.4159
-32.0051
-43.1109
-52.9214
-60.882
-66.7331
-70.5031
-72.4613
-73.0431
-72.7589
-72.1021
-71.4686
-71.098
-71.0427
-71.167
-71.1745
-70.6572
-69.1596
-66.2478
-61.5747
-54.9335
-46.2927
-35.8093
-23.8194
-10.8084
2.63601
15.881
28.3092
39.3763
48.6589
55.8875
60.9633
63.9553
65.0823
64.6797
63.1578
60.9553
58.4941
56.1401
54.1729
52.7683
51.993
51.811
52.0997
52.6729
53.3068
53.7674
53.8353
53.3276
52.1141
50.1278
47.369
43.9032
39.8534
35.3864
30.6967
25.9875
21.4514
17.2532
13.5145
10.3046
7.63484
5.46101
3.69064
2.1966
0.834871
-0.535148
-2.03017
-3.72511
-5.64033
-7.73629
-9.91709
-12.0434
-13.9541
-15.4937
-16.5432
-17.0487
-17.0438
-16.6609
-16.1284
-15.7536
-15.8907
-16.8992
-19.0969
-22.7144
-27.8564
-34.4758
-42.364
-51.1585
-60.3678
-69.4105
-77.665
-84.5243
-89.4508
-92.0258
-91.9895
-89.2663
-83.974
-76.4156
-67.0542
-56.472
-45.3195
-34.2581
-23.9022
-14.7674
-7.22922
-1.49634
2.39945
4.59721
5.38656
5.17647
4.45711
3.7579
3.60416
4.47309
6.74861
10.6741
16.3027
23.4466
31.632
40.0672
47.6419
52.969
54.488
50.634
40.0671
21.9424
-3.81984
-36.3135
-73.5275
-112.374
-148.89
-178.606
-197.049
-200.323
-185.675
-151.973
-100.005
-32.5565
45.7733
128.99
210.319
282.937
340.725
378.947
394.766
387.533
358.818
312.182
252.728
186.488
119.734
58.2953
6.96385
-30.9451
-53.834
-61.8502
-56.7119
-41.3662
-19.5356
4.78573
27.8203
46.4237
58.3855
62.5878
59.0171
48.641
33.1767
14.7911
-4.22587
-21.7708
-36.1841
-46.4269
-52.1641
-53.7507
-52.1327
-48.6815
-44.9879
-42.6438
-43.0394
-47.1986
-55.6686
-68.4744
-85.137
-104.75
-126.1
-147.817
-168.528
-187.004
-202.277
-213.717
-221.062
-224.405
-224.13
-220.831
-215.199
-207.922
-199.585
-190.601
-181.176
-171.305
-160.807
-149.379
-136.678
-122.397
-106.343
-88.4911
-69.0199
-48.3131
-26.9372
-5.59197
14.9543
33.9395
50.6809
64.6385
75.4616
83.0134
87.3729
88.8139
87.7663
84.764
80.3872
75.2051
69.726
64.3586
59.3882
54.9684
51.1284
47.7924
44.8095
41.9874
39.1282
36.0604
32.6636
28.885
24.7448
20.3314
15.7878
11.2912
7.02927
3.17578
-0.131142
-2.80507
-4.82056
-6.21462
-7.08084
-7.55752
-7.81192
-8.02298
-8.36498
-8.99401
-10.0384
-11.5933
-13.7197
-16.4447
-19.7646
-23.6464
-28.029
-32.8223
-37.9055
-43.1245
-48.2913
-53.1851
-57.5582
-61.1465
-63.6852
-64.9284
-64.6707
-62.7697
-59.1645
-53.8895
-47.0804
-38.9706
-29.8789
-20.1885
-10.3199
-0.700065
8.26855
16.2362
22.928
28.1593
31.8412
33.9781
34.6581
34.0361
32.3143
29.7207
26.4887
22.8392
18.9671
15.0322
11.157
7.4286
3.90758
0.640612
-2.32411
-4.92194
-7.06167
-8.62495
-9.48034
-9.51544
-8.68787
-7.09134
-5.02737
-3.06721
-2.08384
-3.23275
-7.86343
-17.3531
-32.8699
-55.0901
-83.9142
-118.237
-155.831
-193.393
-226.774
-251.394
-262.794
-257.255
-232.39
-187.618
-124.427
-46.3793
41.1574
131.539
217.555
292.24
349.665
385.611
398.033
387.261
355.903
308.49
250.892
189.611
131.026
80.6919
42.7773
19.6987
11.9841
18.3659
36.0773
61.2993
89.6946
116.956
139.305
153.88
158.986
154.18
140.2
118.765
92.2703
63.4406
34.9709
9.20941
-12.0882
-27.9095
-38.0329
-42.9749
-43.8545
-42.1972
-39.7076
-38.0411
-38.6015
-42.3863
-49.8936
-61.0974
-75.4873
-92.1628
-109.967
-127.638
-143.966
-157.92
-168.757
-176.076
-179.834
-180.319
-178.08
-173.837
-168.381
-162.464
-156.709
-151.541
-147.139
-143.43
-140.107
-136.678
-132.536
-127.046
-119.623
-109.82
-97.3843
-82.3032
-64.8157
-45.4001
-24.7342
-3.63581
17.0123
36.3411
53.5717
68.0792
79.4386
87.4486
92.1309
93.7084
92.5653
89.1945
84.1421
77.9522
71.122
64.0685
57.1107
50.4659
44.2595
38.5424
33.3143
28.5464
24.2014
20.2472
16.6645
13.4469
10.5957
8.1116
5.98469
4.18547
2.65838
1.31909
0.0557659
-1.26547
-2.79173
-4.67195
-7.04419
-10.0227
-13.686
-18.0676
-23.1494
-28.8586
-35.0684
-41.6015
-48.2352
-54.7086
-60.7304
-65.988
-70.1598
-72.9298
-74.0077
-73.1518
-70.1956
-65.0749
-57.8518
-48.7318
-38.0697
-26.3617
-14.2201
-2.33368
8.58631
17.8678
24.9413
29.3969
31.0286
29.8595
26.144
20.3473
13.1028
5.15262
-2.72249
-9.77577
-15.3625
-18.9958
-20.3845
-19.4504
-16.3231
-11.314
-4.87469
2.45782
10.1199
17.58
24.3903
30.2274
34.9165
38.4388
40.9174
42.5821
43.7136
44.5686
45.2922
45.8268
45.8341
44.6462
41.2689
34.4531
22.8452
5.21156
-19.2824
-50.7799
-88.4793
-130.477
-173.76
-214.38
-247.806
-269.439
-275.21
-262.187
-229.094
-176.653
-107.686
-26.9461
59.3146
143.988
219.885
280.537
320.928
338.045
331.195
302.043
254.37
193.602
126.159
58.7248
-2.47803
-52.3201
-87.2346
-105.48
-107.181
-94.1524
-69.5581
-37.4366
-2.17782
31.9947
61.474
83.6068
96.8873
101.001
96.7258
85.7138
70.1967
52.6504
35.4658
20.6653
9.69129
3.28852
1.4836
3.65587
8.68256
15.1336
21.4878
26.342
28.5871
27.5335
22.9733
15.1769
4.83133
-7.06942
-19.3632
-30.8685
-40.5252
-47.5091
-51.3103
-51.7674
-49.0588
-43.6543
-36.2371
-27.609
-18.5898
-9.92598
-2.21609
4.13764
8.94989
12.2449
14.2254
15.2233
15.6412
15.8909
16.3368
17.2506
18.7795
20.9333
23.5869
26.5014
29.3567
31.7947
33.4664
34.0776
33.4277
31.4376
28.1622
23.7871
18.6095
13.0066
7.39359
2.17972
-2.27546
-5.69819
-7.9259
-8.91927
-8.76024
-7.63707
-5.81892
-3.62356
-1.3822
0.594715
2.04703
2.78717
2.71329
1.81262
0.155421
-2.1192
-4.8235
-7.74476
-10.6696
-13.4064
-15.8033
-17.7603
-19.2345
-20.2388
-20.8342
-21.1169
-21.2041
-21.2171
-21.267
-21.4431
-21.8048
-22.3792
-23.1632
-24.1301
-25.2385
-26.4426
-27.7029
-28.9932
-30.3055
-31.6505
-33.0545
-34.553
-36.182
-37.9687
-39.9219
-42.024
-44.2252
-46.4398
-48.5467
-50.3927
-51.8005
-52.5797
-52.5423
-51.5194
-49.3808
-46.0513
-41.525
-35.8728
-29.2425
-21.8495
-13.9583
-5.85587
2.17946
9.9117
17.1769
23.9052
30.1315
35.9914
41.7044
47.5436
53.7991
60.7368
68.5582
77.3638
87.1207
97.6342
108.521
119.184
128.797
136.294
140.398
139.69
132.732
118.263
95.441
64.1123
25.0531
-19.8645
-67.6425
-114.297
-155.178
-185.453
-200.688
-197.457
-173.891
-130.06
-68.1484
7.6422
91.4481
176.327
254.998
320.642
367.662
392.307
393.067
370.806
328.609
271.378
205.216
136.71
72.1785
16.9957
-24.9339
-51.4969
-62.4589
-59.3243
-45.0017
-23.3301
1.46429
25.309
44.7574
57.3401
61.7625
57.9395
46.8781
30.4371
11.0053
-8.85233
-26.7359
-40.6965
-49.4388
-52.4242
-49.8724
-42.6713
-32.2171
-20.2085
-8.4263
1.47744
8.15411
10.6832
8.63608
2.07885
-8.48069
-22.1892
-37.9719
-54.6671
-71.1543
-86.4622
-99.8446
-110.821
-119.18
-124.948
-128.337
-129.671
-129.317
-127.619
-124.844
-121.154
-116.6
-111.138
-104.664
-97.0609
-88.2468
-78.224
-67.1116
-55.1608
-42.7496
-30.3563
-18.5159
-7.76489
1.41614
8.65605
13.7334
16.5989
17.3773
16.3484
13.9112
10.5364
6.71404
2.90425
-0.502567
-3.21168
-5.03366
-5.87865
-5.73867
-4.6627
-2.73067
-0.031125
3.35339
7.35171
11.9006
16.9346
22.3732
28.1085
33.9977
39.8622
45.4951
50.6755
55.1881
58.8458
61.5102
63.1088
63.6442
63.1954
61.9094
59.9845
57.6478
55.128
52.6288
50.3053
48.2464
46.4664
44.9059
43.4422
41.9087
40.1188
37.8937
35.0876
31.6094
27.4365
22.6196
17.2785
11.5887
5.76164
0.0213022
-5.41963
-10.3812
-14.732
-18.3985
-21.3657
-23.6718
-25.3958
-26.6423
-27.524
-28.1459
-28.5921
-28.9165
-29.1396
-29.2495
-29.2078
-28.9587
-28.4395
-27.5918
-26.3714
-24.7553
-22.7465
-20.3748
-17.6943
-14.7783
-11.7102
-8.57284
-5.43665
-2.34764
0.68114
3.67138
6.67031
9.72702
12.8528
15.9685
18.8455
21.0539
21.9335
20.6039
16.0283
7.13527
-7.00497
-26.9694
-52.7645
-83.6424
-117.99
-153.329
-186.453
-213.693
-231.31
-235.955
-225.14
-197.661
-153.885
-95.8694
-27.2643
46.9839
121.112
189.133
245.479
285.598
306.435
306.746
287.195
250.237
199.808
140.873
78.8786
19.1993
-33.3684
-75.005
-103.124
-116.469
-115.061
-100.022
-73.3126
-37.4285
4.89587
50.95
98.2439
144.632
188.368
228.095
262.798
291.743
314.401
330.404
339.508
341.596
336.685
324.958
306.79
282.765
253.677
220.506
184.376
146.486
108.042
70.17
33.8515
-0.137734
-31.2616
-59.234
-84.0042
-105.719
-124.67
-141.229
-155.785
-168.688
-180.201
-190.474
-199.536
-207.303
-213.603
-218.213
-220.902
-221.47
-219.789
-215.827
-209.662
-201.484
-191.581
-180.314
-168.087
-155.307
-142.355
-129.554
-117.151
-105.311
-94.1137
-83.5713
-73.644
-64.2638
-55.3568
-46.8627
-38.7474
-31.0088
-23.6743
-16.7923
-10.4179
-4.59789
0.643398
5.31412
9.45915
13.1577
16.5144
19.6465
22.6678
25.6736
28.7281
31.8566
35.0436
38.237
41.3576
44.3128
47.0132
49.3885
51.4022
53.0625
54.4268
55.6006
56.7277
57.9753
59.5129
61.4889
64.0071
67.1061
70.7454
74.7984
79.0561
83.2388
87.0162
90.0325
91.9343
92.3977
91.1524
88.0008
82.8316
75.6264
66.4606
55.4988
42.9858
29.2341
14.6083
-0.49142
-15.6489
-30.451
-44.5077
-57.4716
-69.056
-79.0503
-87.3311
-93.8692
-98.7294
-102.063
-104.095
-105.099
-105.366
-105.17
-104.723
-104.139
-103.39
-102.294
-100.5
-97.516
-92.7444
-85.5515
-75.3463
-61.6672
-44.2642
-23.1636
1.29121
28.4294
57.2712
86.5704
114.873
140.584
162.033
177.541
185.498
184.452
173.226
151.074
117.855
74.2242
21.7914
-36.7865
-97.829
-156.8
-208.63
-248.184
-270.814
-272.942
-252.584
-209.729
-146.513
-67.1432
22.4334
115.09
203.24
279.627
338.098
374.25
385.877
373.157
338.578
286.592
223.067
154.602
87.7891
28.5183
-18.6048
-50.6569
-66.5808
-67.1466
-54.7095
-32.807
-5.65509
22.3902
47.3401
65.9924
76.2215
77.1165
68.9646
53.096
31.6215
7.10292
-17.7978
-40.6483
-59.5177
-73.1643
-81.125
-83.7049
-81.8768
-77.1091
-71.1489
-65.7872
-62.6358
-62.9411
-67.4527
-76.3594
-89.2953
-105.41
-123.492
-142.123
-159.849
-175.338
-187.52
-195.675
-199.481
-199.012
-194.68
-187.16
-177.274
-165.885
-153.787
-141.623
-129.83
-118.618
-107.983
-97.7458
-87.6157
-77.2604
-66.3785
-54.7605
-42.333
-29.1804
-15.5429
-1.79236
11.6095
24.1643
35.3946
44.8966
52.3837
57.714
60.8991
62.0948
61.5752
59.695
56.8453
53.4093
49.7237
46.0496
42.5564
39.3195
36.3289
33.5093
30.7441
27.9034
24.8682
21.5511
17.9089
13.948
9.72121
5.31869
0.853399
-3.55524
-7.79775
-11.7885
-15.475
-18.842
-21.9086
-24.7204
-27.337
-29.8164
-32.2009
-34.5038
-36.7018
-38.7337
-40.5043
-41.8956
-42.7817
-43.046
-42.5986
-41.3906
-39.4237
-36.7547
-33.4919
-29.7872
-25.8215
-21.7879
-17.873
-14.2394
-11.0098
-8.25659
-5.99573
-4.18618
-2.7352
-1.50836
-0.343482
0.932874
2.48783
4.46514
6.97021
10.0586
13.7294
17.9234
22.5277
27.3857
32.3111
37.1056
41.5777
45.561
48.9293
51.6082
53.5823
54.8981
55.6637
56.0462
56.2681
56.6006
57.3542
58.8606
61.4452
65.3834
70.8407
77.798
85.9694
94.7264
103.05
109.532
112.453
109.945
100.246
82.0223
54.7095
18.8273
-23.8159
-70.0828
-115.673
-155.507
-184.287
-197.185
-190.535
-162.45
-113.238
-45.5574
35.7359
124.038
211.691
290.832
354.284
396.369
413.543
404.762
371.554
317.777
249.121
172.414
94.8272
23.0898
-37.2071
-82.1263
-109.676
-119.858
-114.481
-96.7803
-70.9117
-41.3747
-12.4568
12.2484
30.1927
40.0665
41.8234
36.5494
26.2054
13.2844
0.432735
-9.91704
-15.8596
-16.2423
-10.7839
-0.0782704
14.508
31.027
47.2028
60.7121
69.4604
71.8207
66.8087
54.1792
34.4339
8.74763
-21.1769
-53.3035
-85.481
-115.661
-142.087
-163.441
-178.927
-188.297
-191.808
-190.135
-184.247
-175.266
-164.329
-152.461
-140.49
-128.987
-118.254
-108.348
-99.1295
-90.3345
-81.6536
-72.8055
-63.5977
-53.9666
-43.9928
-33.8933
-23.991
-14.671
-6.32732
0.68895
6.11523
9.80989
11.7685
12.123
11.1245
9.11342
6.48153
3.63036
0.931757
-1.30566
-2.86058
-3.612
-3.54052
-2.71891
-1.29393
0.538088
2.55841
4.55301
6.33638
7.76995
8.77346
9.32855
9.47501
9.30049
8.9256
8.4864
8.11657
7.93141
8.01545
8.41476
9.13446
10.1413
11.3701
12.7334
14.1318
15.4644
16.6377
17.5716
18.2037
18.4899
18.4041
17.9363
17.0896
15.8781
14.3244
12.4582
10.3153
7.93772
5.37341
2.67695
-0.0904769
-2.86139
-5.56298
-8.11894
-10.452
-12.4877
-14.158
-15.4065
-16.1931
-16.4977
-16.3246
-15.7034
-14.6895
-13.361
-11.8138
-10.1541
-8.49
-6.9212
-5.53058
-4.37647
-3.48799
-2.86337
-2.47202
-2.2596
-2.15573
-2.08307
-1.96679
-1.74374
-1.37123
-0.836803
-0.171152
0.53297
1.09387
1.20652
0.405356
-1.96567
-6.76096
-15.0014
-27.7877
-46.1504
-70.8432
-102.101
-139.403
-181.29
-225.285
-267.967
-305.213
-332.592
-345.887
-341.668
-317.832
-274.031
-211.905
-135.078
-48.899
40.0558
124.654
197.974
254.068
288.619
299.411
286.555
252.432
201.382
139.174
72.3281
7.38016
-49.8167
-94.6776
-124.289
-137.597
-135.364
-119.925
-94.7813
-64.0914
-32.1338
-2.80136
20.8098
36.6795
43.9875
43.0826
35.3143
22.7605
7.89275
-6.77311
-19
-27.0881
-30.0445
-27.6522
-20.4388
-9.55905
3.38884
16.584
28.2127
36.6795
40.7769
39.7988
33.5885
22.5228
7.43836
-10.4852
-29.869
-49.2875
-67.411
-83.1243
-95.6094
-104.388
-109.319
-110.564
-108.517
-103.719
-96.7646
-88.218
-78.5438
-68.0634
-56.942
-45.2034
-32.7714
-19.5267
-5.37146
9.71108
25.611
42.0684
58.6753
74.9041
90.1565
103.827
115.371
124.367
130.566
133.918
134.574
132.87
129.277
124.348
118.656
112.728
106.997
101.76
97.1695
93.2294
89.821
86.738
83.7309
80.5536
77.0048
72.96
68.3901
63.3645
58.0397
52.6367
47.4091
42.6084
38.4507
35.0888
32.5925
30.9394
30.0172
29.6341
29.5396
29.4489
29.0719
28.1414
26.4384
23.8128
20.1969
15.6095
10.1533
4.0029
-2.61298
-9.43403
-16.1928
-22.6389
-28.5602
-33.7996
-38.2651
-41.9336
-44.8471
-47.1032
-48.8408
-50.2224
-51.4153
-52.5742
-53.825
-55.2532
-56.8956
-58.7369
-60.7108
-62.7058
-64.5746
-66.147
-67.2454
-67.7006
-67.3678
-66.1407
-63.962
-60.8306
-56.8036
-51.9939
-46.563
-40.7095
-34.6548
-28.626
-22.8392
-17.4812
-12.6935
-8.55822
-5.08657
-2.21257
0.206373
2.37848
4.55292
6.97827
9.8431
13.2009
16.8876
20.4447
23.0689
23.611
20.6446
12.62
-1.89987
-23.9416
-53.8033
-90.7748
-132.96
-177.254
-219.523
-254.97
-278.674
-286.228
-274.383
-241.602
-188.428
-117.61
-33.9302
56.2352
145.58
226.673
292.796
338.702
361.196
359.465
335.119
291.938
235.379
171.901
108.202
50.4714
3.74135
-28.5884
-45.0036
-45.8935
-33.3467
-10.7656
17.6406
47.4156
74.3962
95.1705
107.407
110.024
103.198
88.2136
67.2032
42.799
17.762
-5.37344
-24.5949
-38.6178
-46.9842
-50.0516
-48.8831
-45.0597
-40.4446
-36.9307
-36.2035
-39.5467
-47.7091
-60.8449
-78.5272
-99.8295
-123.457
-147.915
-171.679
-193.367
-211.871
-226.452
-236.779
-242.924
-245.301
-244.573
-241.537
-237
-231.669
-226.056
-220.427
-214.782
-208.866
-202.229
-194.295
-184.453
-172.148
-156.97
-138.717
-117.451
-93.5091
-67.4989
-40.2635
-12.8224
13.7037
38.1792
59.5428
76.8922
89.5565
97.1506
99.6051
97.1703
90.3923
80.0628
67.1496
52.7112
37.8078
23.4143
10.3463
-0.794193
-9.64924
-16.1092
-20.2915
-22.4987
-23.1614
-22.7733
-21.8276
-20.7603
-19.9074
-19.4788
-19.5508
-20.0757
-20.906
-21.8283
-22.6029
-23.0022
-22.845
-22.0212
-20.5052
-18.3569
-15.7114
-12.7574
-9.71109
-6.7849
-4.15909
-1.95726
-0.23046
1.04821
1.97722
2.70884
3.42203
4.28978
5.44574
6.95563
8.79851
10.8614
12.9492
14.8081
16.1612
16.7488
16.3694
14.9139
12.389
8.92494
4.76783
0.256877
-4.20932
-8.21278
-11.3567
-13.3016
-13.7927
-12.6765
-9.90685
-5.54074
0.272535
7.30622
15.2724
23.8377
32.6393
41.2999
49.4453
56.7245
62.8334
67.5407
70.7153
72.3502
72.5798
71.6844
70.077
68.2684
66.808
66.2016
66.8114
68.7488
71.7757
75.2371
78.0455
78.7406
75.6357
67.0505
51.6111
28.5797
-1.84288
-38.301
-78.2154
-117.899
-152.873
-178.355
-189.869
-183.887
-158.409
-113.389
-50.9215
24.8409
108.048
191.753
268.673
332.011
376.231
397.684
394.999
369.204
323.554
263.109
194.115
123.271
56.9857
0.706724
-41.6032
-67.783
-77.5645
-72.44
-55.3406
-30.1753
-1.29766
27.0316
51.1228
68.224
76.7441
76.3169
67.7159
52.6415
33.4198
12.6577
-7.10056
-23.6745
-35.4726
-41.6241
-42.0104
-37.2035
-28.329
-16.8795
-4.50682
7.18008
16.7866
23.2582
25.9507
24.6456
19.5153
11.0514
-0.0309842
-12.8977
-26.695
-40.6331
-54.0477
-66.434
-77.4567
-86.9363
-94.8201
-101.142
-105.98
-109.415
-111.503
-112.25
-111.61
-109.489
-105.766
-100.319
-93.0566
-83.9506
-73.0582
-60.5397
-46.6614
-31.7868
-16.3545
-0.84798
14.2413
28.4509
41.3814
52.7226
62.2695
69.9268
75.7022
79.6908
82.0528
82.9885
82.7144
81.4425
79.3648
76.6448
73.4146
69.7772
65.8127
61.5859
57.1552
52.5785
47.9193
43.2476
38.64
34.1754
29.9305
25.9729
22.3547
19.1077
16.239
13.7301
11.5373
9.59429
7.8155
6.10031
4.33744
2.40967
0.199252
-2.40547
-5.50202
-9.1644
-13.4332
-18.3064
-23.7325
-29.6075
-35.7783
-42.0518
-48.2113
-54.0385
-59.3392
-63.9691
-67.8566
-71.0168
-73.5559
-75.6617
-77.5823
-79.5943
-81.9645
-84.9113
-88.5695
-92.965
-98.0024
-103.467
-109.043
-114.341
-118.936
-122.407
-124.378
-124.548
-122.713
-118.774
-112.736
-104.7
-94.8473
-83.4206
-70.7104
-57.0425
-42.7685
-28.2598
-13.9008
-0.0812852
12.8156
24.4304
34.449
42.6283
48.8218
52.9999
55.2611
55.8265
55.014
53.1884
50.6888
47.7376
44.3438
40.2166
34.7148
26.8527
15.3852
-1.02098
-23.5362
-52.8652
-88.9397
-130.667
-175.794
-220.945
-261.847
-293.751
-311.993
-312.637
-293.086
-252.584
-192.506
-116.391
-29.6849
60.7783
147.493
223.114
281.28
317.338
328.853
315.857
280.798
228.204
164.113
95.3508
28.744
-29.6239
-75.0307
-104.538
-117.179
-113.905
-97.3142
-71.2105
-40.0578
-8.40589
19.6431
40.8661
53.2061
55.8926
49.3967
35.2416
15.7054
-6.53749
-28.7874
-48.6548
-64.3243
-74.7205
-79.5651
-79.3296
-75.0984
-68.3695
-60.8228
-54.0881
-49.5419
-48.1541
-50.3991
-56.2346
-65.1442
-76.231
-88.3458
-100.231
-110.663
-118.573
-123.146
-123.88
-120.61
-113.499
-103.005
-89.8176
-74.7883
-58.8504
-42.9371
-27.9059
-14.4716
-3.15423
5.75635
12.2149
16.4139
18.7551
19.8016
20.2148
20.6816
21.8399
24.2105
28.1408
33.77
41.0156
49.5851
59.0106
68.7012
78.0069
86.2877
92.9784
97.6431
100.013
100.008
97.7289
93.443
87.5431
80.5012
72.8166
64.9661
57.3615
50.3192
44.0444
38.6299
34.068
30.2736
27.1126
24.4329
22.0927
19.9829
18.0408
16.2553
14.6619
13.3308
12.3492
11.8007
11.7453
12.2021
13.138
14.4626
16.0323
17.6609
19.1381
20.2515
20.8115
20.6743
19.7599
18.0647
15.6633
12.7026
9.38682
5.95535
2.65688
-0.277804
-2.66107
-4.36928
-5.35716
-5.66436
-5.41377
-4.80143
-4.07902
-3.52992
-3.44101
-4.07256
-5.62893
-8.23327
-11.9089
-16.5696
-22.0213
-27.9736
-34.0622
-39.88
-45.0122
-49.0745
-51.7479
-52.8082
-52.1463
-49.7774
-45.8388
-40.5761
-34.3204
-27.4583
-20.3991
-13.5413
-7.24269
-1.79588
2.58978
5.79817
7.80947
8.6963
8.61345
7.78083
6.45865
4.91316
3.37146
1.9656
0.668952
-0.767322
-2.86472
-6.43752
-12.5637
-22.491
-37.4707
-58.5272
-86.1873
-120.211
-159.375
-201.371
-242.852
-279.66
-307.223
-321.086
-317.507
-294.03
-249.949
-186.587
-107.326
-17.3768
76.6974
167.648
248.315
312.404
355.177
373.956
368.383
340.412
294.028
234.755
168.996
103.308
43.6991
-4.97707
-39.4578
-58.2972
-61.8717
-52.1763
-32.4529
-6.70655
20.8258
46.1849
66.1202
78.3971
81.9552
76.9104
64.4177
46.4218
25.3372
3.70346
-16.1408
-32.328
-43.6473
-49.6335
-50.556
-47.3205
-41.3029
-34.1419
-27.5191
-22.9539
-21.6353
-24.3078
-31.218
-42.1237
-56.3567
-72.9285
-90.6607
-108.324
-124.768
-139.031
-150.412
-158.517
-163.254
-164.811
-163.595
-160.166
-155.151
-149.173
-142.783
-136.405
-130.31
-124.6
-119.219
-113.979
-108.6
-102.763
-96.1615
-88.5529
-79.8037
-69.9185
-59.0539
-47.5117
-35.7145
-24.1647
-13.3935
-3.90366
3.88393
9.67557
13.3354
14.8979
14.5615
12.664
9.64374
5.99101
2.19662
-1.29694
-4.13586
-6.08287
-7.03015
-6.99689
-6.11294
-4.5916
-2.69561
-0.700913
1.13735
2.61281
3.5871
3.99885
3.86257
3.25838
2.31495
1.18833
0.0398039
-0.984478
-1.76946
-2.24115
-2.36958
-2.16491
-1.6678
-0.93577
-0.0283907
1.00631
2.14153
3.37586
4.731
6.24348
7.95179
9.88125
12.0294
14.3549
16.7716
19.1496
21.3242
23.1095
24.3178
24.7801
24.3659
23.0001
20.674
17.4508
13.4634
8.90707
4.02652
-0.899376
-5.57415
-9.69937
-12.9883
-15.1772
-16.0344
-15.3682
-13.0351
-8.94879
-3.09241
4.46849
13.5717
23.9468
35.209
46.8629
58.3192
68.9257
78.0131
84.9514
89.2119
90.4277
88.444
83.3496
75.4868
65.4333
53.9606
41.9706
30.4174
20.2214
12.1831
6.8995
4.68868
5.52517
8.98973
14.2417
20.0247
24.721
26.4677
23.3445
13.629
-3.90004
-29.6504
-62.9501
-101.886
-143.302
-182.987
-216.064
-237.534
-242.922
-228.927
-193.983
-138.626
-65.6223
20.1983
112.382
203.516
286.034
353.059
399.177
421.028
417.657
390.575
343.533
282.04
212.702
142.459
77.8302
24.236
-14.5022
-36.457
-41.6528
-31.9002
-10.4419
18.5346
50.4495
80.8791
106.037
123.136
130.603
128.132
116.58
97.7476
74.0605
48.2189
22.8461
0.185877
-18.1236
-31.1786
-38.8368
-41.6494
-40.7167
-37.4929
-33.5689
-30.4613
-29.4336
-31.3657
-36.6845
-45.3553
-56.9293
-70.6343
-85.4934
-100.454
-114.51
-126.802
-136.691
-143.791
-147.969
-149.315
-148.081
-144.614
-139.283
-132.414
-124.244
-114.894
-104.376
-92.6178
-79.5067
-64.9483
-48.9225
-31.5321
-13.0327
6.15963
25.4863
44.2875
61.8607
77.5283
90.7054
100.958
108.043
111.929
112.79
110.979
106.983
101.371
94.7356
87.6371
80.5604
73.8839
67.8636
62.6322
58.2113
54.533
51.4662
48.8452
46.4942
44.2484
41.9669
39.5388
36.8843
33.9494
30.7002
27.1163
23.1852
18.901
14.264
9.28427
3.98548
-1.59109
-7.38398
-13.3113
-19.2735
-25.1586
-30.8499
-36.2344
-41.2121
-45.703
-49.6533
-53.0381
-55.8612
-58.153
-59.9649
-61.3627
-62.419
-63.2056
-63.7866
-64.2126
-64.5174
-64.7162
-64.8057
-64.7664
-64.566
-64.1634
-63.513
-62.5682
-61.2823
-59.6081
-57.4938
-54.878
-51.6831
-47.8118
-43.1468
-37.5567
-30.9088
-23.0877
-14.0179
-3.686
7.83944
20.3967
33.7291
47.4955
61.2916
74.6812
87.233
98.5584
108.346
116.391
122.607
127.033
129.823
131.226
131.552
131.144
130.337
129.432
128.673
128.226
128.179
128.536
129.213
130.038
130.725
130.854
129.837
126.893
121.044
111.153
96.0188
74.5395
45.9325
9.98919
-32.6797
-80.4595
-130.665
-179.63
-222.979
-256.053
-274.465
-274.691
-254.624
-213.993
-154.573
-80.1544
3.7602
90.4827
172.836
243.93
297.911
330.602
339.931
326.114
291.576
240.605
178.823
112.515
47.9272
-9.38934
-55.119
-86.5373
-102.661
-104.188
-93.2519
-73.0329
-47.29
-19.8719
5.729
26.7325
41.3017
48.6346
48.9211
43.1849
33.0425
20.4196
7.26377
-4.70971
-14.2114
-20.4936
-23.3832
-23.2377
-20.8392
-17.2467
-13.6299
-11.1074
-10.6081
-12.7701
-17.8849
-25.8883
-36.3952
-48.7676
-62.2057
-75.849
-88.8734
-100.575
-110.428
-118.119
-123.551
-126.813
-128.141
-127.855
-126.294
-123.759
-120.465
-116.518
-111.908
-106.529
-100.221
-92.8176
-84.1998
-74.3449
-63.3597
-51.4926
-39.1232
-26.7287
-14.8336
-3.94899
5.48821
13.1676
18.9407
22.8358
25.0478
25.9086
25.8388
25.2913
24.6924
24.3897
24.6125
25.4511
26.8542
28.646
30.5586
32.2748
33.4747
33.8801
33.2913
31.6112
28.8545
25.143
20.6871
15.7579
10.6544
5.67013
1.06298
-2.96652
-6.28837
-8.84596
-10.6498
-11.7639
-12.2885
-12.3403
-12.0354
-11.4752
-10.7381
-9.87627
-8.91779
-7.87247
-6.73997
-5.51831
-4.21132
-2.83384
-1.41418
0.00637283
1.37641
2.63907
3.73761
4.62087
5.24808
5.59205
5.64077
5.39697
4.87599
4.10223
3.10453
1.91107
0.544419
-0.982726
-2.67033
-4.53169
-6.59141
-8.88034
-11.4274
-14.249
-17.337
-20.6468
-24.0881
-27.5194
-30.7491
-33.5442
-35.6459
-36.7923
-36.7449
-35.3167
-32.3977
-27.974
-22.1382
-15.0889
-7.11927
1.4053
10.0763
18.4766
26.2155
32.961
38.4671
42.592
45.3094
46.7093
46.9912
46.45
45.4531
44.4085
43.7212
43.7361
44.6661
46.5103
48.9694
51.3785
52.6765
51.4391
45.9956
34.6364
15.9031
-11.0741
-46.2456
-88.3849
-134.971
-182.263
-225.587
-259.819
-280.013
-282.08
-263.424
-223.428
-163.708
-88.0793
-2.23745
86.8186
171.546
244.696
300.129
333.485
342.644
327.91
291.906
239.205
175.748
108.14
42.8992
-14.2323
-58.8475
-88.2413
-101.556
-99.7045
-85.0975
-61.224
-32.1444
-1.96685
25.6331
47.7941
62.7163
69.7568
69.3748
62.9475
52.4892
40.3178
28.7136
19.6139
14.3765
13.6388
17.2801
24.4854
33.8952
43.8161
52.4615
58.1908
59.7158
56.2522
47.5995
34.145
16.7948
-3.15303
-24.1758
-44.7089
-63.3213
-78.862
-90.5618
-98.0804
-101.498
-101.255
-98.0578
-92.7569
-86.2241
-79.2414
-72.4157
-66.1277
-60.5199
-55.5193
-50.8889
-46.2974
-41.3953
-35.8849
-29.5755
-22.4167
-14.5072
-6.07935
2.53579
10.956
18.801
25.7424
31.544
36.0872
39.3788
41.5419
42.7913
43.3986
43.6519
43.8165
44.1013
44.635
45.4557
46.5116
47.6756
48.7666
49.5781
49.9071
49.5813
48.4804
46.5504
43.8091
40.3431
36.2975
31.86
27.2416
22.6559
18.3004
14.3401
10.8962
8.03996
5.7918
4.1255
2.97652
2.25292
1.8478
1.65151
1.56271
1.49703
1.39287
1.21401
0.949136
0.608619
0.219292
-0.182099
-0.555884
-0.866123
-1.08628
-1.20348
-1.22105
-1.15959
-1.05668
-0.96602
-0.956256
-1.10996
-1.52256
-2.30074
-3.55931
-5.41591
-7.98275
-11.3556
-15.601
-20.7423
-26.7487
-33.5262
-40.9153
-48.6951
-56.5934
-64.3044
-71.5093
-77.9004
-83.2038
-87.1993
-89.7348
-90.7335
-90.1927
-88.1755
-84.7963
-80.2029
-74.5578
-68.0235
-60.7514
-52.8779
-44.5272
-35.8184
-26.876
-17.8392
-8.86802
-0.143552
8.1401
15.7906
22.6373
28.5507
33.4565
37.3359
40.2072
42.0842
42.915
42.5089
40.4681
36.1459
28.6564
16.9538
-0.00756978
-23.0434
-52.4662
-87.8187
-127.67
-169.533
-209.951
-244.761
-269.527
-280.095
-273.179
-246.909
-201.234
-138.113
-61.4577
23.1908
109.206
189.58
257.694
308.054
336.895
342.58
325.741
289.152
237.361
176.125
111.731
50.3006
-2.8657
-43.7936
-70.1637
-81.4244
-78.695
-64.4841
-42.2729
-16.0233
10.3243
33.3029
50.2705
59.6295
60.8994
54.6485
42.307
25.8956
7.71096
-9.98956
-25.2644
-36.6969
-43.5178
-45.6351
-43.5771
-38.3651
-31.3391
-23.9627
-17.6336
-13.5222
-12.4555
-14.8534
-20.7203
-29.6859
-41.0836
-54.0539
-67.6562
-80.9757
-93.2128
-103.747
-112.173
-118.302
-122.143
-123.862
-123.722
-122.036
-119.104
-115.178
-110.434
-104.964
-98.7858
-91.8651
-84.152
-75.6177
-66.2897
-56.2784
-45.7905
-35.1256
-24.6578
-14.8029
-5.97649
1.45073
7.19524
11.0941
13.1255
13.4138
12.2189
9.91258
6.94317
3.79518
0.947048
-1.16781
-2.1933
-1.87351
-0.0652715
3.25978
8.02224
14.0492
21.093
28.8531
36.9968
45.1799
53.0636
60.3295
66.6918
71.9067
75.7811
78.1793
79.0282
78.3208
76.1176
72.5443
67.7861
62.0775
55.6891
48.9106
42.032
35.3255
29.028
23.327
18.3521
14.1701
10.7873
8.15537
6.18246
4.74614
3.70782
2.92657
2.27123
1.6296
0.914382
0.0653134
-0.952124
-2.15124
-3.53122
-5.0859
-6.8131
-8.72299
-10.844
-13.2251
-15.9328
-19.0437
-22.6322
-26.7554
-31.437
-36.6526
-42.3194
-48.2903
-54.3563
-60.2547
-65.6838
-70.3223
-73.8519
-75.9798
-76.4618
-75.1222
-71.8701
-66.7114
-59.7543
-51.2084
-41.3756
-30.6338
-19.4134
-8.16711
2.66339
12.683
21.5772
29.1415
35.3037
40.1355
43.8519
46.7959
49.4078
52.1798
55.5956
60.0574
65.8058
72.8358
80.8211
89.0579
96.4448
101.517
102.545
97.7198
85.3955
64.3953
34.323
-4.16599
-49.1922
-97.6333
-145.29
-187.247
-218.391
-234.038
-230.579
-206.043
-160.501
-96.2339
-17.6244
69.2223
157.089
238.416
306.134
354.447
379.476
379.674
355.964
311.59
251.703
182.735
111.653
45.179
-10.9247
-52.4227
-76.9681
-84.2239
-75.7454
-54.6524
-25.1441
8.07483
40.3806
67.76
87.2228
97.0575
96.9128
87.71
71.4103
50.6787
28.4932
7.74986
-9.08613
-20.2489
-24.8329
-22.8377
-15.1029
-3.14896
11.0473
25.3109
37.5291
45.8828
49.0269
46.2027
37.2781
22.7159
3.482
-19.0913
-43.4674
-68.0723
-91.4482
-112.378
-129.972
-143.704
-153.412
-159.255
-161.637
-161.117
-158.316
-153.831
-148.161
-141.668
-134.562
-126.909
-118.665
-109.727
-99.9852
-89.3722
-77.9068
-65.7165
-53.0436
-40.2319
-27.6967
-15.8834
-5.22056
3.9263
11.2935
16.7465
20.2916
22.0723
22.3496
21.4715
19.8327
17.833
15.8362
14.1367
12.9351
12.326
12.2987
12.7491
13.5006
14.3321
15.0076
15.3059
15.0449
14.1006
12.4178
10.012
6.96425
3.40907
-0.482259
-4.52068
-8.5186
-12.307
-15.7485
-18.7453
-21.2407
-23.2149
-24.6765
-25.6502
-26.1651
-26.2451
-25.9046
-25.1497
-23.9864
-22.4324
-20.5309
-18.3609
-16.0429
-13.7338
-11.6128
-9.85635
-8.60696
-7.93897
-7.82831
-8.13168
-8.58048
-8.79275
-8.30389
-6.61414
-3.24847
2.17816
9.89798
19.9389
32.0923
45.9054
60.7021
75.6307
89.7347
102.039
111.643
117.808
120.031
118.101
112.115
102.477
89.8569
75.1288
59.2871
43.3552
28.2921
14.9105
3.81218
-4.65287
-10.3988
-13.5897
-14.6005
-13.9592
-12.2763
-10.1712
-8.20076
-6.79922
-6.23374
-6.58034
-7.72335
-9.37965
-11.1481
-12.5826
-13.2847
-13.0095
-11.773
-9.94444
-8.30542
-8.05145
-10.7177
-18.0165
-31.5885
-52.69
-81.8554
-118.594
-161.185
-206.632
-250.807
-288.812
-315.504
-326.146
-317.075
-286.297
-233.913
-162.289
-75.9559
18.7937
114.535
203.511
278.483
333.54
364.737
370.504
351.768
311.777
255.663
189.805
121.075
56.0701
0.415796
-41.7671
-68.1915
-78.4963
-74.1095
-57.9165
-33.7887
-6.03966
21.1194
44.0596
60.0985
67.7152
66.6039
57.5762
42.3371
23.1747
2.60989
-16.9471
-33.4927
-45.6452
-52.7611
-54.9485
-52.9834
-48.1509
-42.0356
-36.2937
-32.4343
-31.6381
-34.6309
-41.6236
-52.3196
-65.9847
-81.5629
-97.8228
-113.511
-127.495
-138.873
-147.049
-151.753
-153.023
-151.143
-146.556
-139.77
-131.262
-121.403
-110.417
-98.361
-85.1538
-70.6226
-54.5718
-36.8574
-17.4547
3.49143
25.6419
48.4675
71.2818
93.2985
113.704
131.735
146.757
158.324
166.217
170.465
171.334
169.292
164.958
159.036
152.247
145.264
138.652
132.829
128.043
124.364
121.695
119.8
118.337
116.897
115.055
112.405
108.602
103.386
96.6077
88.2325
78.3417
67.1213
54.843
41.8406
28.4831
15.1473
2.19376
-10.0543
-21.326
-31.4122
-40.1694
-47.5182
-53.4386
-57.9614
-61.1593
-63.136
-64.016
-63.9354
-63.0333
-61.4458
-59.3005
-56.714
-53.7901
-50.6204
-47.2851
-43.8549
-40.3927
-36.9556
-33.5953
-30.3583
-27.285
-24.4076
-21.7475
-19.3124
-17.0919
-15.053
-13.1364
-11.2517
-9.2767
-7.05898
-4.42315
-1.18373
2.83652
7.7843
13.7521
20.7566
28.7223
37.474
46.74
56.1667
65.3435
73.8364
81.2254
87.1425
91.3049
93.5397
93.7978
92.1539
88.795
83.9975
78.0974
71.4567
64.4312
57.3427
50.4588
43.9821
38.0478
32.728
28.0381
23.9393
20.3334
17.0434
13.7813
10.1072
5.39064
-1.20926
-10.7253
-24.3075
-43.0813
-67.9426
-99.3077
-136.858
-179.326
-224.385
-268.68
-308.034
-337.828
-353.516
-351.225
-328.34
-283.994
-219.377
-137.803
-44.5103
53.7989
149.619
235.428
304.503
351.647
373.754
370.12
342.486
294.791
232.696
162.914
92.4627
27.9098
-25.2948
-63.3208
-84.2506
-88.1408
-76.8582
-53.7267
-23.0377
10.5084
42.3609
68.6113
86.3695
93.9882
91.1232
78.6366
58.3687
32.8175
4.77266
-23.0476
-48.3144
-69.3261
-85.1456
-95.6293
-101.356
-103.474
-103.489
-103.033
-103.637
-106.537
-112.541
-121.957
-134.597
-149.838
-166.738
-184.178
-201.017
-216.229
-229.016
-238.875
-245.62
-249.354
-250.406
-249.24
-246.353
-242.183
-237.032
-231.024
-224.095
-216.024
-206.489
-195.144
-181.705
-166.023
-148.148
-128.361
-107.171
-85.2899
-63.5663
-42.9109
-24.2047
-8.21058
4.50237
13.6143
19.0822
21.1376
20.256
17.1018
12.4566
7.13806
1.92025
-2.53734
-5.74442
-7.41324
-7.46842
-6.03357
-3.39783
0.032682
3.79187
7.41226
10.4783
12.6689
13.7854
13.7626
12.664
10.6632
8.01337
5.01282
1.9675
-0.842476
-3.18999
-4.91917
-5.9536
-6.2949
-6.013
-5.23012
-4.10125
-2.79358
-1.46733
-0.259916
0.725374
1.4255
1.81871
1.92103
1.77916
1.46105
1.04521
0.610234
0.22538
-0.0567715
-0.205145
-0.212112
-0.0926117
0.119244
0.375544
0.621193
0.800931
0.865918
0.779152
0.519255
0.0824807
-0.516836
-1.24694
-2.05994
-2.89324
-3.67126
-4.30736
-4.70663
-4.77006
-4.4004
-3.51006
-2.03064
0.0765958
2.81059
6.12235
9.91038
14.0213
18.2563
22.384
26.1585
29.3414
31.7256
33.1579
33.5577
32.9302
31.3707
29.0613
26.2589
23.2749
20.4496
18.12
16.584
16.0588
16.636
18.2349
20.5577
23.0572
24.9276
25.1346
22.4974
15.8315
4.14762
-13.1102
-35.822
-62.9895
-92.6253
-121.776
-146.705
-163.239
-167.236
-155.136
-124.504
-74.4823
-6.09214
77.6898
172.093
270.95
367.284
454.014
524.703
574.232
599.338
598.939
574.205
528.389
466.416
394.319
318.571
245.4
180.179
126.942
88.0781
64.2395
54.4356
56.309
66.5372
81.306
96.7941
109.612
117.144
117.772
110.95
97.1491
77.6773
54.4205
29.5327
5.12391
-17.0163
-35.6279
-50.1012
-60.5009
-67.4987
-72.2287
-76.0918
-80.5367
-86.8488
-95.9734
-108.394
-124.079
-142.497
-162.702
-183.46
-203.411
-221.238
-235.822
-246.359
-252.442
-254.074
-251.644
-245.852
-237.595
-227.847
-217.527
-207.392
-197.95
-189.411
-181.684
-174.405
-167.003
-158.788
-149.052
-137.169
-122.689
-105.398
-85.3652
-62.9443
-38.751
-13.6074
11.5349
35.6854
57.908
77.4074
93.5979
106.15
115.005
120.366
122.659
122.47
120.477
117.37
113.778
110.211
107.02
104.376
102.278
100.574
99.0108
97.2786
95.0694
92.1258
88.2805
83.4803
77.7933
71.3982
64.5606
57.5972
50.8369
44.5811
39.07
34.4586
30.8048
28.0697
26.1298
24.7986
23.8532
23.0633
22.2183
21.1495
19.7448
17.9557
15.7954
13.3308
10.6675
7.93308
5.25818
2.75991
0.527719
-1.38628
-2.97201
-4.26138
-5.32381
-6.25817
-7.18232
-8.22113
-9.49421
-11.1043
-13.1271
-15.6036
-18.5355
-21.8828
-25.5656
-29.4683
-33.4459
-37.3325
-40.9507
-44.1216
-46.6751
-48.4599
-49.3524
-49.2653
-48.1531
-46.0177
-42.9096
-38.9283
-34.2192
-28.9681
-23.3933
-17.7354
-12.2455
-7.17028
-2.73665
0.866326
3.50577
5.12295
5.74814
5.50892
4.62794
3.40567
2.18486
1.29493
0.978109
1.30368
2.08242
2.79871
2.58148
0.235509
-5.65093
-16.517
-33.5701
-57.4877
-88.1264
-124.299
-163.675
-202.85
-237.608
-263.35
-275.664
-270.943
-246.957
-203.313
-141.684
-65.7943
18.8778
105.635
187.281
256.919
308.74
338.678
344.861
327.792
290.246
236.901
173.755
107.41
44.3219
-9.90162
-51.057
-76.7081
-86.3176
-81.1484
-63.9618
-38.566
-9.27916
19.6204
44.3893
62.2041
71.4005
71.5493
63.3766
48.552
29.3836
8.4656
-11.6737
-28.8809
-41.6109
-49.0639
-51.2194
-48.7734
-42.9956
-35.5314
-28.1766
-22.6545
-20.4191
-22.5061
-29.4425
-41.2201
-57.3299
-76.8477
-98.5572
-121.094
-143.091
-163.315
-180.771
-194.774
-204.981
-211.372
-214.208
-213.947
-211.156
-206.41
-200.21
-192.916
-184.715
-175.621
-165.509
-154.171
-141.393
-127.036
-111.1
-93.7774
-75.4659
-56.7569
-38.3875
-21.1685
-5.8971
6.73253
16.2101
22.2686
24.9153
24.4305
21.3344
16.3279
10.2139
3.81171
-2.12653
-6.9866
-10.3422
-11.9802
-11.8994
-10.2858
-7.469
-3.8671
0.0724881
3.92806
7.34884
10.0858
12.0063
13.0925
13.426
13.1631
12.504
11.6618
10.8347
10.1852
9.82707
9.82162
10.1817
10.8817
11.8713
13.0899
14.4799
15.9965
17.6128
19.3207
21.1272
23.0475
25.0972
27.2837
29.6001
32.0204
34.4996
36.9755
39.3744
41.6177
43.6285
45.3374
46.6845
47.619
48.0951
48.0667
47.4817
46.2786
44.3869
41.7322
38.2466
33.8827
28.6294
22.5272
15.679
8.25623
0.495822
-7.31034
-14.8345
-21.7383
-27.7017
-32.4524
-35.7915
-37.6133
-37.9155
-36.7987
-34.4556
-31.1505
-27.1922
-22.9028
-18.5863
-14.5006
-10.835
-7.69527
-5.0973
-2.96884
-1.16024
0.536551
2.35966
4.53908
7.24777
10.5428
14.3004
18.1529
21.441
23.1983
22.1868
16.9998
6.23734
-11.2519
-36.0893
-68.0885
-106.035
-147.581
-189.302
-226.935
-255.795
-271.322
-269.691
-248.401
-206.741
-146.063
-69.8016
16.7685
107.029
193.699
269.621
328.548
365.835
378.944
367.694
334.246
282.807
219.121
149.792
81.5397
20.4856
-28.4692
-62.0848
-79.011
-79.7877
-66.6314
-43.0476
-13.3278
18.0028
46.7173
69.3379
83.4599
87.9213
82.8106
69.3276
49.5258
25.9791
1.41812
-21.616
-41.0615
-55.5402
-64.4581
-68.0026
-67.0433
-62.96
-57.4242
-52.1646
-48.748
-48.3993
-51.8805
-59.4374
-70.8141
-85.327
-101.984
-119.626
-137.079
-153.286
-167.409
-178.896
-187.503
-193.268
-196.461
-197.505
-196.885
-195.063
-192.406
-189.137
-185.312
-180.821
-175.428
-168.814
-160.647
-150.646
-138.642
-124.631
-108.796
-91.5151
-73.3357
-54.9347
-37.0547
-20.4344
-5.73693
6.51352
15.9795
22.5374
26.2813
27.5037
26.6564
24.2972
21.029
17.4388
14.0431
11.2462
9.31415
8.36597
8.38259
9.22949
10.6898
12.5028
14.4026
16.1525
17.5717
18.5512
19.0592
19.1362
18.8811
18.4318
17.9434
17.5663
17.4269
17.614
18.1695
19.0865
20.3116
21.7525
23.2879
24.78
26.0868
27.0738
27.6239
27.6462
27.0808
25.9023
24.1197
21.7742
18.9349
15.6918
12.1488
8.41484
4.59575
0.786827
-2.93343
-6.50756
-9.90119
-13.1026
-16.1203
-18.9782
-21.7101
-24.3528
-26.9398
-29.4953
-32.0298
-34.5366
-36.9915
-39.3532
-41.566
-43.5647
-45.2791
-46.6402
-47.586
-48.0664
-48.0472
-47.513
-46.4678
-44.9346
-42.953
-40.5757
-37.8641
-34.8828
-31.6955
-28.3591
-24.9198
-21.408
-17.8347
-14.1872
-10.4271
-6.49174
-2.30253
2.21556
7.10094
12.3072
17.6429
22.7092
26.8491
29.13
28.3803
23.2967
12.6278
-4.57782
-28.6902
-59.2335
-94.696
-132.471
-168.967
-199.907
-220.785
-227.439
-216.653
-186.699
-137.736
-71.9781
6.38782
91.5531
176.666
254.567
318.585
363.295
385.126
382.76
357.254
311.883
251.726
183.065
112.656
46.9823
-8.42012
-49.5002
-74.0237
-81.6797
-73.962
-53.8556
-25.3796
6.95015
38.6689
65.8563
85.5237
95.8586
96.3111
87.5265
71.1456
49.5098
25.3126
1.24426
-20.3283
-37.6132
-49.5527
-55.8818
-57.0874
-54.2836
-49.0241
-43.0809
-38.2172
-35.9821
-37.5482
-43.6076
-54.3319
-69.3945
-88.0461
-109.229
-131.712
-154.23
-175.607
-194.858
-211.253
-224.344
-233.958
-240.162
-243.203
-243.441
-241.28
-237.108
-231.254
-223.96
-215.373
-205.555
-194.505
-182.189
-168.567
-153.62
-137.368
-119.875
-101.25
-81.6358
-61.1981
-40.1116
-18.553
3.302
25.2739
47.1704
68.7752
89.838
110.07
129.148
146.729
162.469
176.057
187.24
195.859
201.866
205.339
206.478
205.592
203.071
199.348
194.859
190.004
185.113
180.416
176.038
171.997
168.217
164.554
160.828
156.852
152.466
147.561
142.089
136.07
129.584
122.749
115.702
108.574
101.465
94.4307
87.4752
80.5544
73.5895
66.4867
59.1615
51.5607
43.6804
35.576
27.3608
19.1951
11.2658
3.76103
-3.15755
-9.37841
-14.8572
-19.6232
-23.7749
-27.4641
-30.8712
-34.1763
-37.5296
-41.0254
-44.6856
-48.4533
-52.1996
-55.7401
-58.8614
-61.3513
-63.0291
-63.7715
-63.53
-62.3381
-60.3069
-57.6107
-54.4642
-51.096
-47.7209
-44.5146
-41.594
-39.0049
-36.7167
-34.6256
-32.5651
-30.3221
-27.66
-24.3476
-20.1932
-15.0858
-9.04146
-2.25214
4.86756
11.6455
17.1416
20.176
19.4103
13.4898
1.24388
-18.0704
-44.5136
-77.2436
-114.378
-152.99
-189.258
-218.795
-237.11
-240.165
-224.952
-189.995
-135.711
-64.5448
19.1315
109.379
199.26
281.555
349.535
397.694
422.345
422.012
397.558
352.059
290.415
218.784
143.883
72.2634
9.64585
-39.6247
-72.9295
-89.5133
-90.4034
-78.1348
-56.3291
-29.1873
-0.963112
24.5205
44.2569
56.3083
59.9073
55.4094
44.117
28.0084
9.41412
-9.31564
-26.1106
-39.4138
-48.3275
-52.6615
-52.8882
-50.0196
-45.4285
-40.6408
-37.128
-36.1244
-38.4884
-44.6222
-54.452
-67.4686
-82.8158
-99.4137
-116.098
-131.758
-145.449
-156.484
-164.466
-169.29
-171.099
-170.209
-167.023
-161.94
-155.287
-147.274
-137.985
-127.395
-115.413
-101.938
-86.9118
-70.3607
-52.4201
-33.3357
-13.4475
6.84253
27.1086
46.94
65.973
83.9124
100.541
115.715
129.358
141.437
151.949
160.901
168.301
174.149
178.435
181.147
182.276
181.829
179.84
176.383
171.578
165.593
158.646
150.995
142.922
134.715
126.65
118.963
111.837
105.382
99.6303
94.5399
89.9998
85.8487
81.8965
77.9485
73.8288
69.4009
64.5817
59.3493
53.7427
47.8541
41.8167
35.7877
29.9315
24.4026
19.3319
14.8175
10.9195
7.65942
5.02365
2.96893
1.42914
0.321425
-0.449352
-0.988364
-1.4106
-1.84161
-2.41749
-3.28231
-4.58103
-6.44746
-8.98746
-12.2594
-16.2552
-20.8859
-25.9751
-31.2637
-36.4274
-41.1038
-44.9297
-47.5806
-48.8092
-48.4762
-46.5697
-43.2103
-38.6398
-33.1964
-27.2787
-21.3036
-15.662
-10.6804
-6.5901
-3.50904
-1.43726
-0.265748
0.202961
0.224956
0.0787728
0.0251339
0.264025
0.889768
1.84479
2.87417
3.48581
2.9253
0.178123
-5.98554
-16.91
-33.8896
-57.9461
-89.5663
-128.44
-173.242
-221.521
-269.734
-313.454
-347.765
-367.793
-369.321
-349.41
-306.908
-242.798
-160.281
-64.5938
37.4421
138.093
229.518
304.608
357.754
385.439
386.591
362.644
317.319
256.144
185.801
113.361
45.5188
-12.0779
-55.3487
-82.0823
-92.0073
-86.6387
-68.9372
-42.8344
-12.6938
17.2246
43.2327
62.5663
73.5911
75.8518
69.976
57.4585
40.366
21.0061
1.60576
-15.9641
-30.3863
-41.0037
-47.8297
-51.4711
-52.9845
-53.6888
-54.9629
-58.0561
-63.9318
-73.1614
-85.8761
-101.777
-120.194
-140.186
-160.662
-180.505
-198.695
-214.397
-227.029
-236.29
-242.153
-244.83
-244.716
-242.317
-238.173
-232.793
-226.595
-219.871
-212.768
-205.293
-197.33
-188.683
-179.116
-168.402
-156.371
-142.948
-128.181
-112.249
-95.4633
-78.2471
-61.1017
-44.5665
-29.1718
-15.3926
-3.60854
5.92718
13.105
17.9619
20.6705
21.5147
20.8576
19.104
16.6622
13.9112
11.1739
8.70026
6.66062
5.1482
4.18902
3.75659
3.78845
4.20179
4.90598
5.81075
6.82944
7.87815
8.87196
9.72007
10.3221
10.567
10.337
9.51568
8.00132
5.72386
2.66315
-1.13388
-5.54014
-10.3424
-15.2446
-19.881
-23.8405
-26.6996
-28.0614
-27.5981
-25.0923
-20.4721
-13.836
-5.46336
4.19268
14.5316
24.8501
34.4021
42.4682
48.4277
51.8239
52.4154
50.2055
45.4462
38.6163
30.3747
21.4973
12.8029
5.07962
-0.981711
-4.83858
-6.12925
-4.68481
-0.522559
6.17532
15.0927
25.8153
37.8662
50.7389
63.9262
76.9444
89.3541
100.777
110.913
119.55
126.579
131.999
135.917
138.542
140.162
141.111
141.708
142.188
142.615
142.802
142.236
140.054
135.073
125.9
111.121
89.5681
60.6171
24.4804
-17.5723
-63.1197
-108.666
-149.906
-182.167
-200.97
-202.647
-184.915
-147.315
-91.4527
-20.9693
58.7443
141.078
218.906
285.378
334.69
362.733
367.546
349.504
311.229
257.241
193.398
126.203
62.063
6.60407
-35.8967
-62.883
-73.6734
-69.3893
-52.6821
-27.3063
2.39963
32.054
57.7307
76.3584
85.983
85.8745
76.4806
59.248
36.3446
10.3257
-16.21
-40.9356
-62.0451
-78.4154
-89.6702
-96.1469
-98.7807
-98.9268
-98.1492
-98.0039
-99.8436
-104.666
-113.019
-124.972
-140.145
-157.792
-176.919
-196.421
-215.217
-232.359
-247.122
-259.041
-267.915
-273.776
-276.827
-277.365
-275.708
-272.128
-266.804
-259.802
-251.077
-240.498
-227.898
-213.119
-196.067
-176.758
-155.341
-132.11
-107.496
-82.0296
-56.3085
-30.9444
-6.5176
16.4646
37.5975
56.5954
73.2953
87.6472
99.6966
109.56
117.399
123.394
127.727
130.56
132.031
132.25
131.306
129.272
126.222
122.239
117.432
111.937
105.924
99.5894
93.1508
86.8305
80.8415
75.3705
70.5632
66.513
63.2546
60.7623
58.9549
57.7041
56.8478
56.2039
55.5857
54.8145
53.7306
52.2007
50.1211
47.4192
44.0519
40.0029
35.2799
29.9117
23.9455
17.4456
10.491
3.17336
-4.40603
-12.14
-19.9194
-27.6375
-35.1927
-42.4915
-49.4494
-55.9906
-62.0481
-67.5617
-72.4778
-76.7479
-80.328
-83.1782
-85.2619
-86.5451
-86.9961
-86.5853
-85.2859
-83.0756
-79.9397
-75.8758
-70.8996
-65.0509
-58.3998
-51.0505
-43.1421
-34.8464
-26.3602
-17.8948
-9.66085
-1.85263
5.36867
11.8892
17.653
22.6666
26.9965
30.7569
34.0865
37.1134
39.9061
42.4155
44.4124
45.4331
44.7495
41.3835
34.1827
21.9679
3.74783
-21.02
-52.1618
-88.5675
-128.072
-167.489
-202.819
-229.633
-243.591
-241.033
-219.556
-178.478
-119.12
-44.841
39.1931
126.49
209.905
282.416
337.913
371.882
381.905
367.908
332.128
278.819
213.719
143.382
74.4329
12.8567
-36.5974
-70.8365
-88.6257
-90.5638
-78.8522
-56.8989
-28.8204
1.09319
28.8817
51.33
66.2544
72.6374
70.6093
61.296
46.5622
28.6936
10.0624
-7.18234
-21.3634
-31.4402
-37.0772
-38.6184
-36.9785
-33.4743
-29.6206
-26.9197
-26.6711
-29.8223
-36.8758
-47.8585
-62.3507
-79.5669
-98.4725
-117.919
-136.779
-154.064
-169.014
-181.145
-190.261
-196.427
-199.908
-201.098
-200.431
-198.308
-195.033
-190.775
-185.56
-179.285
-171.761
-162.767
-152.115
-139.711
-125.598
-109.987
-93.2634
-75.963
-58.7322
-42.2681
-27.2511
-14.2761
-3.79303
3.93723
8.86591
11.1556
11.1571
9.36605
6.36723
2.77125
-0.846804
-4.00054
-6.33131
-7.62946
-7.83664
-7.03039
-5.39467
-3.18116
-0.667584
1.88154
4.24648
6.27304
7.88088
9.05985
9.85644
10.3536
10.648
10.828
10.9573
11.0633
11.1353
11.1288
10.9758
10.5997
9.93123
8.92238
7.55801
5.8618
3.89678
1.76032
-0.42564
-2.52754
-4.41469
-5.97338
-7.11896
-7.80436
-8.02431
-7.81473
-7.24756
-6.42161
-5.45081
-4.45105
-3.52744
-2.76335
-2.21248
-1.89485
-1.79692
-1.87558
-2.06521
-2.2869
-2.45828
-2.50294
-2.3582
-1.98041
-1.34749
-0.458522
0.669159
2.00464
3.50913
5.14168
6.86405
8.64406
10.457
12.285
14.1148
15.9343
17.7287
19.4773
21.1516
22.7154
24.1269
25.3422
26.3213
27.0336
27.4639
27.6172
27.5211
27.2254
26.7957
26.2997
25.7838
25.239
24.5568
23.4805
21.5619
18.1355
12.3295
3.12569
-10.5185
-29.4902
-54.2967
-84.8305
-120.166
-158.437
-196.845
-231.813
-259.306
-275.279
-276.202
-259.597
-224.491
-171.728
-104.059
-26.0005
56.5513
136.897
208.246
264.461
300.755
314.239
304.249
272.422
222.507
159.929
91.1768
23.0878
-37.8879
-86.3496
-118.462
-132.272
-127.801
-106.911
-72.9763
-30.4181
15.8505
60.9812
100.696
131.68
151.836
160.373
157.74
145.437
125.719
101.255
74.7818
48.7904
25.277
5.58705
-9.64764
-20.4796
-27.5392
-31.8734
-34.7568
-37.4993
-41.2759
-46.9955
-55.217
-66.1193
-79.5184
-94.9243
-111.625
-128.782
-145.533
-161.073
-174.73
-186.003
-194.586
-200.362
-203.381
-203.818
-201.932
-198.018
-192.364
-185.216
-176.764
-167.129
-156.369
-144.499
-131.513
-117.415
-102.245
-86.108
-69.1901
-51.7658
-34.1962
-16.9144
-0.400858
14.8483
28.3585
39.7153
48.5999
54.8187
58.3229
59.2162
57.7491
54.2996
49.3422
43.4083
37.0417
30.754
24.9836
20.0644
16.205
13.4816
11.844
11.1329
11.1071
11.4747
11.928
12.174
11.9625
11.1061
9.49306
7.09269
3.95352
0.195893
-4.00024
-8.41085
-12.7856
-16.8668
-20.4081
-23.1926
-25.0486
-25.8616
-25.5831
-24.2333
-21.8994
-18.7282
-14.9147
-10.6861
-6.28519
-1.95176
2.09407
5.6662
8.62302
10.8731
12.3758
13.1373
13.2024
12.6431
11.547
10.0047
8.09999
5.90315
3.46755
0.830505
-1.98271
-4.95245
-8.05728
-11.2668
-14.536
-17.8017
-20.9823
-23.9804
-26.6874
-28.9912
-30.7845
-31.9735
-32.4859
-32.2769
-31.3333
-29.6742
-27.3482
-24.4285
-21.0044
-17.1709
-13.0183
-8.62069
-4.02657
0.749541
5.73227
10.9873
16.6185
22.7599
29.5592
37.1533
45.6318
54.9903
65.0729
75.5089
85.6537
94.5472
100.91
103.196
99.7164
88.8479
69.3031
40.4451
2.59177
-42.7496
-92.7788
-143.479
-189.9
-226.632
-248.426
-250.892
-231.151
-188.362
-124.025
-41.9952
51.8056
149.956
244.319
326.928
390.887
431.128
444.968
432.364
395.856
340.204
271.783
197.806
125.493
61.2803
10.1695
-24.711
-42.2975
-43.5256
-31.0367
-8.70988
18.9097
47.2074
72.0464
90.2017
99.6413
99.6332
90.6825
74.3258
52.8203
28.779
4.80169
-16.8525
-34.5147
-47.2563
-54.9304
-58.1123
-57.9569
-55.998
-53.9215
-53.3422
-55.6103
-61.6671
-71.9637
-86.4435
-104.585
-125.494
-148.026
-170.93
-192.98
-213.101
-230.45
-244.475
-254.924
-261.824
-265.428
-266.142
-264.449
-260.827
-255.693
-249.351
-241.976
-233.618
-224.221
-213.669
-201.825
-188.587
-173.925
-157.911
-140.737
-122.713
-104.252
-85.8397
-67.9997
-51.2501
-36.0623
-22.823
-11.8041
-3.14173
3.17236
7.28846
9.48431
10.1403
9.70653
8.66381
7.48359
6.58906
6.32228
6.92039
8.50351
11.076
14.5412
18.7272
23.4222
28.4123
33.5177
38.6216
43.6858
48.7522
53.9288
59.362
65.2021
71.5652
78.5003
85.9654
93.8177
101.819
109.657
116.976
123.417
128.655
132.439
134.617
135.146
134.1
131.647
128.038
123.566
118.542
113.262
107.98
102.894
98.1267
93.7275
89.6675
85.8475
82.1069
78.2374
73.9994
69.1415
63.421
56.625
48.5906
39.2234
28.5114
16.5354
3.47188
-10.4105
-24.7621
-39.1712
-53.188
-66.3542
-78.2346
-88.4474
-96.6923
-102.771
-106.6
-108.214
-107.759
-105.473
-101.665
-96.6837
-90.8863
-84.6087
-78.1397
-71.7008
-65.435
-59.403
-53.5885
-47.9095
-42.2349
-36.404
-30.247
-23.6052
-16.3522
-8.41505
0.199601
9.37439
18.8429
28.1468
36.5967
43.249
46.9179
46.2408
39.8112
26.3813
5.11868
-24.1167
-60.526
-102.214
-146.173
-188.445
-224.469
-249.579
-259.601
-251.456
-223.683
-176.785
-113.337
-37.8309
43.7423
124.521
197.528
256.459
296.397
314.356
309.59
283.636
240.074
184.068
121.728
59.3956
2.94271
-42.8432
-74.7033
-91.147
-92.4698
-80.5617
-58.5484
-30.3188
-0.00717889
28.5045
52.006
68.2572
76.1404
75.6623
67.8221
54.3725
37.517
19.5841
2.72289
-11.3456
-21.4967
-27.2771
-28.8874
-27.0844
-23.0238
-18.0694
-13.5967
-10.816
-10.6367
-13.5829
-19.7693
-28.9298
-40.493
-53.6868
-67.6561
-81.5769
-94.7509
-106.671
-117.051
-125.821
-133.091
-139.091
-144.105
-148.393
-152.135
-155.39
-158.075
-159.976
-160.782
-160.132
-157.681
-153.153
-146.402
-137.439
-126.452
-113.79
-99.9383
-85.4643
-70.9632
-56.9962
-44.0372
-32.4308
-22.3688
-13.8857
-6.87423
-1.11572
3.67705
7.81283
11.5758
15.1868
18.776
22.3699
25.8937
29.1872
32.0321
34.1853
35.4151
35.5338
34.4236
32.0533
28.4835
23.8614
18.4068
12.3916
6.11565
-0.116391
-6.01688
-11.3317
-15.8515
-19.4174
-21.9219
-23.3063
-23.556
-22.6966
-20.7895
-17.9299
-14.2454
-9.89457
-5.0646
0.0331987
5.17113
10.1159
14.6422
18.5469
21.664
23.8763
25.1233
25.4044
24.7754
23.341
21.2414
18.638
15.6966
12.5733
9.40202
6.28635
3.29547
0.464383
-2.20228
-4.72363
-7.13415
-9.47454
-11.7829
-14.0864
-16.3953
-18.6976
-20.9569
-23.1119
-25.0782
-26.7526
-28.0189
-28.7561
-28.8485
-28.196
-26.7256
-24.4029
-21.2403
-17.3032
-12.7109
-7.63265
-2.27699
3.12317
8.33012
13.1226
17.3168
20.7846
23.4673
25.3839
26.6334
27.3923
27.9067
28.4806
29.4576
31.1958
34.0312
38.2294
43.9227
51.0388
59.2272
67.801
75.711
81.576
83.7841
80.6743
70.7893
53.1728
27.6668
-4.84761
-42.3242
-81.5872
-118.553
-148.635
-167.282
-170.602
-155.951
-122.423
-71.142
-5.29631
70.0991
148.695
223.497
287.66
335.285
362.106
365.981
347.121
308.036
253.199
188.495
120.518
55.8079
0.13967
-42.0744
-68.1842
-77.4771
-71.1174
-51.8742
-23.6841
8.88829
41.2193
69.1568
89.4506
100.041
100.186
90.4145
72.3478
48.3971
21.4031
-5.74193
-30.443
-50.6812
-65.1975
-73.5685
-76.1758
-74.0818
-68.8375
-62.2498
-56.1402
-52.1244
-51.4365
-54.8137
-62.4498
-74.0169
-88.7457
-105.551
-123.181
-140.374
-156.002
-169.183
-179.353
-186.297
-190.125
-191.219
-190.145
-187.551
-184.066
-180.204
-176.303
-172.485
-168.657
-164.542
-159.733
-153.77
-146.217
-136.739
-125.157
-111.492
-95.9706
-79.0146
-61.2008
-43.2068
-25.7453
-9.49682
4.95242
17.1592
26.8551
33.9581
38.5646
40.9234
41.397
40.4146
38.4243
35.8478
33.0453
30.2903
27.7587
25.5302
23.6002
21.9004
20.3234
18.7482
17.0641
15.1892
13.083
10.7522
8.24928
5.66618
3.12278
0.753326
-1.30845
-2.94344
-4.05936
-4.60007
-4.55116
-3.94158
-2.84129
-1.35513
0.386412
2.23868
4.05559
5.70234
7.06681
8.0686
8.66453
8.85018
8.65698
8.14548
7.39538
6.4936
5.522
4.54618
3.60694
2.7152
1.8512
0.9675
-0.00445564
-1.1455
-2.53859
-4.25854
-6.36283
-8.8841
-11.8253
-15.1575
-18.8213
-22.7302
-26.7777
-30.8449
-34.8101
-38.5574
-41.9841
-45.0063
-47.5608
-49.6041
-51.1083
-52.0535
-52.4202
-52.1805
-51.2921
-49.6963
-47.3212
-44.0898
-39.9335
-34.8081
-28.7102
-21.6911
-13.8652
-5.41186
3.43219
12.3871
21.1517
29.4295
36.956
43.5222
48.9911
53.3007
56.449
58.4589
59.3217
58.9267
56.9869
52.9817
46.1372
35.4672
19.8913
-1.57026
-29.5401
-64.004
-104.06
-147.757
-192.075
-233.085
-266.294
-287.147
-291.617
-276.819
-241.524
-186.514
-114.689
-30.8973
58.4904
146.234
225.008
288.221
330.764
349.576
343.976
315.697
268.647
208.409
141.575
74.9808
14.9545
-33.3389
-66.3789
-82.5512
-82.1727
-67.2926
-41.3122
-8.48173
26.6553
59.7985
87.3466
106.727
116.568
116.718
108.111
92.526
72.265
49.8114
27.5016
7.25375
-9.62025
-22.5053
-31.4751
-37.1966
-40.7686
-43.5208
-46.8034
-51.7944
-59.3479
-69.8982
-83.4274
-99.4924
-117.306
-135.852
-154.022
-170.752
-185.142
-196.544
-204.622
-209.357
-211.027
-210.142
-207.364
-203.413
-198.967
-194.579
-190.613
-187.201
-184.237
-181.399
-178.194
-174.03
-168.297
-160.454
-150.108
-137.075
-121.422
-103.473
-83.7927
-63.1384
-42.3873
-22.4537
-4.19934
11.6498
24.571
34.2899
40.797
44.3364
45.3662
44.4985
42.4247
39.8364
37.3499
35.4445
34.4198
34.3759
35.2197
36.693
38.4192
39.9625
40.8904
40.8333
39.5336
36.8784
32.9138
27.838
21.9777
15.7487
9.60832
4.00386
-0.674839
-4.13511
-6.20848
-6.86302
-6.20063
-4.44057
-1.89189
1.08146
4.09869
6.79925
8.87525
10.0962
10.3243
9.51954
7.73491
5.10319
1.81732
-1.89305
-5.7862
-9.63171
-13.2302
-16.4286
-19.1288
-21.2915
-22.9341
-24.1244
-24.9707
-25.6103
-26.1966
-26.8853
-27.8219
-29.129
-30.8949
-33.1631
-35.9236
-39.1052
-42.5706
-46.1154
-49.4711
-52.3154
-54.2901
-55.0256
-54.1744
-51.4473
-46.6512
-39.7239
-30.7585
-20.0168
-7.92531
4.94571
17.9202
30.2684
41.2688
50.2728
56.7662
60.4202
61.126
59.0094
54.4231
47.9172
40.1887
32.0147
24.1707
17.3405
12.0208
8.42948
6.42611
5.4589
4.55542
2.37409
-2.66984
-12.1998
-27.6062
-49.7374
-78.6001
-113.127
-151.072
-189.073
-222.912
-247.946
-259.682
-254.395
-229.722
-185.116
-122.097
-44.2436
43.0927
133.313
219.274
294.083
351.872
388.451
401.759
392.059
361.842
315.488
258.697
197.805
139.048
87.88
48.418
23.0834
12.4619
15.3904
29.2436
50.3697
74.6129
97.8511
116.482
127.806
130.26
123.499
108.319
86.4484
60.2493
32.3655
5.37373
-18.5257
-37.7432
-51.438
-59.5527
-62.7484
-62.2589
-59.6861
-56.7679
-55.1485
-56.1787
-60.7677
-69.3013
-81.6304
-97.1258
-114.788
-133.394
-151.658
-168.387
-182.614
-193.685
-201.307
-205.538
-206.74
-205.49
-202.477
-198.395
-193.842
-189.245
-184.818
-180.547
-176.218
-171.464
-165.833
-158.868
-150.173
-139.482
-126.692
-111.889
-95.3377
-77.4609
-58.7956
-39.944
-21.5202
-4.10068
11.8167
25.842
37.7085
47.276
54.522
59.5248
62.4419
63.4867
62.9058
60.9606
57.9127
54.0142
49.5021
44.5955
39.495
34.3818
29.417
24.7392
20.4616
16.6683
13.4108
10.7053
8.53262
6.83979
5.54515
4.54565
3.72624
2.97042
2.1708
1.23852
0.110847
-1.24403
-2.82507
-4.59951
-6.50666
-8.46384
-10.3738
-12.1327
-13.6384
-14.7977
-15.5325
-15.7841
-15.5156
-14.7123
-13.3803
-11.5432
-9.2384
-6.51368
-3.42412
-0.0311368
3.5964
7.37861
11.2191
14.9988
18.5704
21.7556
24.3481
26.122
26.8486
26.3189
24.3718
20.923
15.9913
9.71742
2.37233
-5.64902
-13.8485
-21.66
-28.4952
-33.7978
-37.0974
-38.0602
-36.5288
-32.5462
-26.362
-18.4184
-9.31698
0.229315
9.45621
17.6128
24.0256
28.156
29.6459
28.3487
24.342
17.9238
9.58968
-0.00463614
-10.0967
-19.8832
-28.598
-35.5982
-40.4547
-43.0402
-43.601
-42.7999
-41.7117
-41.7555
-44.5527
-51.7118
-64.5547
-83.8171
-109.369
-140.015
-173.417
-206.196
-234.212
-253.011
-258.39
-247.006
-216.927
-168.061
-102.351
-23.7364
62.1693
148.621
228.46
294.9
342.297
366.787
366.716
342.816
298.096
237.477
167.215
94.1957
25.1833
-33.8832
-78.4627
-105.797
-115.074
-107.362
-85.3415
-52.881
-14.5123
25.1188
61.7647
91.995
113.481
125.127
127.043
120.384
107.085
89.5301
70.2048
51.3815
34.8621
21.8129
12.699
7.31787
4.91682
4.37089
4.39136
3.73398
1.37914
-3.33801
-10.6604
-20.408
-32.038
-44.7513
-57.6271
-69.7642
-80.4085
-89.0493
-95.4731
-99.7709
-102.301
-103.613
-104.356
-105.168
-106.581
-108.946
-112.381
-116.759
-121.731
-126.77
-131.244
-134.498
-135.928
-135.057
-131.586
-125.419
-116.675
-105.661
-92.8352
-78.7575
-64.0286
-49.2358
-34.9048
-21.4652
-9.23025
1.60734
10.9673
18.8628
25.3758
30.6301
34.765
37.9139
40.1878
41.665
42.387
42.3604
41.5626
39.9516
37.4778
34.0964
29.78
24.5297
18.3842
11.4252
3.77979
-4.3815
-12.8496
-21.3858
-29.7325
-37.6255
-44.8074
-51.0395
-56.113
-59.8588
-62.1545
-62.9301
-62.1723
-59.9257
-56.2939
-51.4369
-45.5661
-38.9354
-31.8274
-24.536
-17.3457
-10.5086
-4.22396
1.37979
6.25473
10.4351
14.0287
17.1985
20.1359
23.0291
26.0291
29.2186
32.5887
36.0255
39.3127
42.1472
44.1717
45.0166
44.3511
41.9339
37.6586
31.5874
23.9668
15.223
5.93613
-3.20507
-11.4619
-18.1125
-22.5177
-24.18
-22.7881
-18.2431
-10.665
-0.378369
12.1187
26.2
41.1644
56.2936
70.9069
84.4099
96.3336
106.361
114.338
120.275
124.331
126.79
128.021
128.44
128.452
128.394
128.466
128.664
128.72
128.049
125.744
120.608
111.257
96.2964
74.5578
45.3796
8.88732
-33.7783
-80.3419
-127.429
-170.783
-205.659
-227.364
-231.865
-216.398
-179.964
-123.645
-50.6684
33.8016
123.133
209.903
286.707
346.971
385.696
400.006
389.447
355.998
303.793
238.61
167.181
96.4287
32.7171
-18.7872
-54.5796
-73.0608
-74.5474
-61.0677
-35.9845
-3.50584
31.8503
65.7691
94.574
115.543
127.081
128.753
121.177
105.822
84.7362
60.2424
34.6488
9.99686
-12.1257
-30.6956
-45.2844
-56.0173
-63.473
-68.544
-72.2794
-75.7301
-79.8139
-85.2158
-92.3282
-101.236
-111.74
-123.414
-135.681
-147.898
-159.436
-169.752
-178.43
-185.21
-189.983
-192.77
-193.685
-192.893
-190.564
-186.836
-181.793
-175.452
-167.772
-158.673
-148.067
-135.893
-122.149
-106.923
-90.4059
-72.8993
-54.8023
-36.5898
-18.7792
-1.89105
13.5913
27.2595
38.8101
48.0641
54.9737
59.6168
62.1799
62.9317
62.1915
60.2957
57.5665
54.2862
50.6791
46.903
43.051
39.1605
35.2297
31.2365
27.1586
22.99
18.7527
14.5018
10.3234
6.32663
2.63013
-0.652577
-3.42822
-5.63603
-7.2555
-8.30857
-8.85604
-8.98888
-8.81591
-8.44971
-7.99281
-7.52632
-7.10216
-6.74003
-6.42911
-6.13384
-5.80279
-5.37884
-4.80944
-4.05517
-3.09589
-1.93376
-0.593238
0.881404
2.43034
3.98321
5.46416
6.79609
7.90407
8.71764
9.17244
9.21155
8.78697
7.86158
6.41187
4.43126
1.93386
-1.04196
-4.43076
-8.13874
-12.0447
-16.0032
-19.8513
-23.4166
-26.528
-29.0263
-30.7752
-31.6703
-31.646
-30.6789
-28.7893
-26.038
-22.522
-18.367
-13.7192
-8.73558
-3.57447
1.61352
6.69344
11.5525
16.1045
20.2924
24.089
27.4955
30.5389
33.2683
35.7478
38.0466
40.2227
42.2976
44.2203
45.8218
46.7648
46.4997
44.244
39.0024
29.6475
15.0679
-5.61806
-32.8075
-66.157
-104.379
-145.145
-185.142
-220.308
-246.227
-258.663
-254.134
-230.474
-187.265
-126.07
-50.4358
34.3767
121.887
205.067
277.099
332.126
365.889
376.186
363.077
328.833
277.625
215.016
147.305
80.8325
21.3038
-26.7661
-60.4432
-78.5581
-81.6782
-71.886
-52.4044
-27.1259
-0.108754
24.8982
44.8474
57.6633
62.3712
59.083
48.8544
33.4461
15.0257
-4.14704
-22.011
-36.9378
-47.8875
-54.4729
-56.9374
-56.0549
-52.9753
-49.0392
-45.5886
-43.7968
-44.5387
-48.3118
-55.212
-64.9639
-76.9921
-90.523
-104.698
-118.685
-131.768
-143.417
-153.316
-161.361
-167.633
-172.339
-175.747
-178.117
-179.64
-180.389
-180.296
-179.156
-176.648
-172.387
-165.983
-157.114
-145.596
-131.436
-114.872
-96.3787
-76.6474
-56.5361
-36.9947
-18.977
-3.34649
9.20927
18.2467
23.6076
25.4299
24.1253
20.3286
14.825
8.46411
2.07195
-3.62946
-8.08552
-10.9496
-12.0975
-11.6152
-9.76422
-6.92933
-3.5559
-0.0854932
3.10277
5.7383
7.68757
8.96261
9.70947
10.1792
10.6855
11.5565
13.0843
15.4821
18.8511
23.1621
28.2537
33.8462
39.5688
44.9989
49.7052
53.2933
55.4465
55.9577
54.749
51.878
47.5286
41.9899
35.6236
28.8275
21.9955
15.4817
9.57118
4.45964
0.244391
-3.07424
-5.5819
-7.43184
-8.82194
-9.96972
-11.0878
-12.3621
-13.9338
-15.8869
-18.2412
-20.9513
-23.9112
-26.9638
-29.9153
-32.5511
-34.6549
-36.0265
-36.4989
-35.952
-34.3225
-31.6081
-27.8673
-23.2133
-17.8045
-11.8315
-5.50288
0.969686
7.38391
13.5576
19.3358
24.5943
29.2406
33.2111
36.4685
38.9977
40.8031
41.9064
42.3459
42.1735
41.4504
40.2353
38.5657
36.4273
33.7168
30.1994
25.474
18.9571
9.90523
-2.5132
-19.0855
-40.3669
-66.4569
-96.7732
-129.871
-163.358
-193.948
-217.669
-230.245
-227.585
-206.345
-164.481
-101.687
-19.6654
77.835
185.243
295.626
401.35
494.849
569.422
619.947
643.423
639.278
609.402
557.9
490.612
414.446
336.629
263.943
202.063
155.048
125.042
112.217
114.933
130.088
153.613
181.022
207.968
230.731
246.581
253.994
252.703
243.585
228.42
209.563
189.563
170.8
155.164
143.832
137.143
134.602
134.986
136.535
137.208
134.954
127.978
114.958
95.1981
68.6973
36.1407
-1.18968
-41.5642
-82.9947
-123.44
-161.003
-194.1
-221.585
-242.813
-257.653
-266.439
-269.877
-268.92
-264.625
-258.016
-249.966
-241.105
-231.776
-222.031
-211.672
-200.32
-187.516
-172.816
-155.891
-136.599
-115.029
-91.5161
-66.6146
-41.0477
-15.634
8.7959
31.4823
51.8077
69.3493
83.9072
95.5066
104.376
110.903
115.583
118.955
121.543
123.806
126.101
128.66
131.585
134.855
138.343
141.842
145.089
147.795
149.665
150.427
149.849
147.756
144.049
138.711
131.823
123.555
114.165
103.985
93.3923
82.784
72.5408
62.9919
54.3826
46.8484
40.3993
34.9167
30.1635
25.8096
21.4684
16.7429
11.2752
4.79336
-2.84964
-11.6517
-21.4546
-31.9566
-42.7439
-53.3372
-63.2498
-72.0482
-79.4106
-85.1722
-89.3535
-92.1652
-93.988
-95.3308
-96.7699
-98.878
-102.153
-106.955
-113.458
-121.628
-131.225
-141.827
-152.874
-163.737
-173.774
-182.399
-189.13
-193.626
-195.704
-195.333
-192.613
-187.75
-181.011
-172.69
-163.077
-152.432
-140.977
-128.885
-116.289
-103.287
-89.9514
-76.3324
-62.4678
-48.387
-34.1228
-19.7294
-5.31404
8.92028
22.6228
35.2448
46.0067
53.9022
57.7581
56.3633
48.6676
34.0309
12.4902
-15.0085
-46.4696
-78.8485
-108.227
-130.167
-140.215
-134.489
-110.28
-66.5537
-4.28362
73.4632
161.71
254.022
343.163
421.896
483.794
523.974
539.652
530.434
498.333
447.485
383.639
313.465
243.791
180.859
129.693
93.6348
74.1235
70.6934
81.1984
102.208
129.513
158.673
185.532
206.647
219.587
223.079
217
202.24
180.461
153.795
124.535
94.8382
66.494
40.7692
18.3365
-0.713289
-16.79
-30.6743
-43.3631
-55.9118
-69.295
-84.298
-101.45
-120.995
-142.907
-166.929
-192.627
-219.464
-246.854
-274.216
-301.011
-326.757
-351.037
-373.489
-393.794
-411.667
-426.844
-439.078
-448.146
-453.856
-456.06
-454.671
-449.67
-441.122
-429.17
-414.04
-396.029
-375.496
-352.846
-328.52
-302.973
-276.662
-250.032
-223.494
-197.421
-172.135
-147.904
-124.947
-103.435
-83.5061
-65.2742
-48.8366
-34.2806
-21.6824
-11.1012
-2.56892
3.92363
8.44044
11.1133
12.1515
11.8472
10.5762
8.79271
7.0171
5.81706
5.78057
7.4821
11.4437
18.0944
27.7309
40.4864
56.3093
74.9571
96.0067
118.882
142.893
167.293
191.327
214.298
235.608
254.804
271.596
285.87
297.673
307.194
314.723
320.608
325.209
328.843
331.748
334.045
335.72
336.623
336.473
334.895
331.461
325.745
317.384
306.129
291.896
274.789
255.113
233.353
210.142
186.201
162.277
139.07
117.168
96.9943
78.7777
62.5406
48.1169
35.1908
23.3553
12.1812
1.28829
-9.58997
-20.5585
-31.5351
-42.2519
-52.2843
-61.1039
-68.1483
-72.8998
-74.9607
-74.1158
-70.3742
-63.9826
-55.411
-45.3101
-34.4483
-23.6359
-13.6477
-5.15511
1.31908
5.41584
6.91797
5.69284
1.60905
-5.55424
-16.1795
-30.836
-50.2325
-75.0861
-105.911
-142.761
-184.964
-230.922
-278.027
-322.741
-360.859
-387.943
-399.868
-393.416
-366.818
-320.162
-255.582
-177.194
-90.7654
-3.14825
78.449
147.265
197.751
226.209
231.196
213.664
176.808
125.645
66.3807
5.65947
-50.2205
-96.0142
-128.08
-144.708
-146.195
-134.671
-113.7
-87.7284
-61.4456
-39.1412
-24.1434
-18.4025
-22.2669
-34.4752
-52.3591
-72.2265
-89.8746
-101.166
-102.598
-91.784
-67.8088
-31.3864
15.1751
68.2088
123.089
174.748
218.242
249.297
264.768
262.968
243.808
208.766
160.676
103.375
41.2602
-21.1884
-79.8667
-131.429
-173.558
-205.098
-226.048
-237.421
-241.004
-239.041
-233.9
-227.746
-222.276
-218.529
-216.8
-216.659
-217.066
-216.555
-213.479
-206.255
-193.606
-174.749
-149.516
-118.404
-82.5292
-43.521
-3.35111
35.8709
72.1106
103.607
129.031
147.593
159.083
163.851
162.726
156.893
147.747
136.728
125.178
114.215
104.654
96.9587
91.2444
87.3203
84.7567
82.9735
81.3336
79.2316
76.1655
71.788
65.9319
58.6111
49.9995
40.3948
30.171
19.7292
9.45082
-0.341111
-9.40885
-17.6139
-24.9175
-31.3701
-37.0915
-42.2451
-47.0108
-51.5582
-56.0241
-60.4963
-65.0041
-69.517
-73.9499
-78.1742
-82.0332
-85.3588
-87.9889
-89.7827
-90.6332
-90.4754
-89.2901
-87.1022
-83.9742
-79.9949
-75.2644
-69.8773
-63.9056
-57.3851
-50.3069
-42.6161
-34.2199
-25.004
-14.8569
-3.6967
8.50032
21.677
35.6808
50.2606
65.0774
79.7263
93.7694
106.773
118.347
128.175
136.046
141.86
145.633
147.485
147.624
146.323
143.897
140.684
137.034
133.291
129.786
126.816
124.622
123.341
122.954
123.222
123.618
123.287
121.045
115.444
104.914
87.9834
63.561
31.2455
-8.39804
-53.6498
-101.593
-148.257
-188.959
-218.813
-233.354
-229.191
-204.581
-159.83
-97.4488
-22.0185
60.2365
142.11
216.232
275.934
316.037
333.458
327.553
300.156
255.303
198.696
136.973
76.8942
24.5444
-15.3395
-39.8423
-48.0917
-41.2143
-22.0486
5.3325
36.2167
65.8811
90.1718
105.966
111.464
106.297
91.4352
68.9456
41.6266
12.5872
-15.1754
-39.1425
-57.5441
-69.5073
-75.0741
-75.101
-71.0633
-64.8009
-58.2431
-53.1521
-50.9159
-52.4126
-57.9561
-67.3206
-79.8328
-94.5092
-110.216
-125.83
-140.369
-153.098
-163.577
-171.667
-177.498
-181.4
-183.818
-185.222
-186.021
-186.499
-186.766
-186.747
-186.187
-184.692
-181.78
-176.95
-169.755
-159.867
-147.137
-131.634
-113.661
-93.7452
-72.6102
-51.116
-30.1904
-10.7474
6.39382
20.582
31.3906
38.6525
42.4677
43.185
41.3585
37.6855
32.9328
27.8593
23.1442
19.3286
16.7757
15.6523
15.9343
17.4307
19.8249
22.7245
25.7157
28.4122
30.4971
31.7499
32.0603
31.4257
29.9365
27.752
25.0706
22.0994
19.0272
16.0033
13.1252
10.4348
7.92361
5.54439
3.22708
0.896831
-1.50913
-4.02796
-6.6627
-9.37973
-12.1123
-14.7694
-17.2482
-19.4488
-21.2881
-22.7118
-23.7024
-24.282
-24.5106
-24.4793
-24.3003
-24.0956
-23.9849
-24.0745
-24.4485
-25.1617
-26.2347
-27.6516
-29.3578
-31.2608
-33.2323
-35.1124
-36.7174
-37.8502
-38.3148
-37.9319
-36.5573
-34.0973
-30.5228
-25.8774
-20.2788
-13.9134
-7.0229
0.113962
7.20485
13.9681
20.1562
25.5758
30.102
33.6864
36.3576
38.2151
39.4175
40.1664
40.6867
41.2029
41.9124
42.9515
44.3542
46.0034
47.5782
48.5078
47.9459
44.7859
37.7351
25.4594
6.79883
-18.9658
-51.8332
-90.8413
-133.925
-177.923
-218.769
-251.864
-272.597
-276.954
-262.116
-226.969
-172.419
-101.471
-19.0244
68.5746
154.194
230.691
291.708
332.379
349.86
343.615
315.425
269.13
210.134
144.753
79.4825
20.2905
-27.9984
-62.1428
-80.7149
-84.1045
-74.3147
-54.5875
-28.9184
-1.52684
23.6496
43.3795
55.4361
58.7463
53.386
40.4387
21.7463
-0.404248
-23.6156
-45.6918
-64.891
-80.095
-90.8814
-97.5004
-100.767
-101.89
-102.27
-103.282
-106.088
-111.488
-119.83
-130.981
-144.372
-159.082
-173.969
-187.821
-199.499
-208.072
-212.908
-213.731
-210.626
-204.005
-194.527
-183.004
-170.285
-157.151
-144.226
-131.918
-120.396
-109.611
-99.3371
-89.2542
-79.0255
-68.38
-57.1757
-45.4376
-33.3638
-21.3038
-9.7099
0.925088
10.1367
17.5514
22.9354
26.223
27.5218
27.0954
25.3282
22.6767
19.616
16.5872
13.9537
11.9701
10.7667
10.3513
10.625
11.4104
12.4861
13.6239
14.6219
15.3316
15.6737
15.6422
15.2988
14.7556
14.1536
13.6374
13.3313
13.3204
13.6384
14.264
15.1258
16.1141
17.0978
17.9428
18.5305
18.7724
18.6189
18.0633
17.1385
15.9094
14.4619
12.8896
11.2819
9.71297
8.23469
6.87246
5.62487
4.46634
3.35173
2.22234
1.0122
-0.345677
-1.91361
-3.74407
-5.87516
-8.3269
-11.0982
-14.1654
-17.4815
-20.9778
-24.5672
-28.1482
-31.6115
-34.8459
-37.7456
-40.2155
-42.1765
-43.5696
-44.3581
-44.529
-44.0931
-43.0847
-41.5587
-39.5882
-37.2599
-34.668
-31.9082
-29.0698
-26.2288
-23.4413
-20.7383
-18.1228
-15.5694
-13.0263
-10.4212
-7.67169
-4.70216
-1.46858
2.00657
5.59027
8.98978
11.7072
13.0117
11.9468
7.38993
-1.82474
-16.7188
-37.9337
-65.4784
-98.5076
-135.184
-172.669
-207.282
-234.823
-251.04
-252.181
-235.555
-200.018
-146.29
-77.0633
3.14881
88.4072
171.941
246.873
306.973
347.356
365.019
359.156
331.216
284.695
224.694
157.32
88.9814
25.6932
-27.538
-67.1785
-91.433
-100.294
-95.3859
-79.6293
-56.7936
-30.9855
-6.1478
14.3753
28.1602
33.8861
31.3671
21.4469
5.77935
-13.4651
-33.9264
-53.3713
-69.9631
-82.4538
-82.4538
-82.4538
-82.4538
-82.4538
-82.4538
-82.4538
-82.4538
-82.4538
-82.4538
-82.4538
-82.4538
-82.4538
-82.4538
-82.4538
-82.4538
-82.4538
-82.4538
-82.4538
-82.4538
-82.4538
-82.4538
-82.4538
-82.4538
-82.4538
-82.4538
-82.4538
-82.4538
-82.4538
-82.4538
-82.4538
