-0.795692
-0.52302
-0.251935
0.00359597
0.232575
0.429044
0.5932
0.731144
0.85316
0.970693
1.0925
1.22067
1.34742
1.45332
1.50774
1.47162
1.30262
0.961973
0.422111
-0.326085
-1.26775
-2.36132
-3.53944
-4.71372
-5.78289
-6.64344
-7.20133
-7.38303
-7.14472
-6.47847
-5.41487
-4.02224
-2.40264
-0.685265
0.982199
2.44376
3.54629
4.15127
4.1466
3.45794
2.05909
-0.0190565
-2.68088
-5.75915
-9.00746
-12.0905
-14.571
-15.8936
-15.3693
-12.167
-5.32119
6.23274
23.5857
47.7398
79.4533
119.056
166.261
219.995
278.296
338.293
396.313
448.107
489.205
515.356
523.008
509.776
474.826
419.105
345.4
258.172
163.203
67.0591
-23.5357
-102.374
-164.384
-206.122
-226.09
-224.823
-204.762
-169.912
-125.348
-76.6281
-29.1806
12.25
44.0468
64.0036
71.4284
67.067
52.8702
31.645
6.64168
-18.8702
-41.9835
-60.4524
-72.8799
-78.7821
-78.5337
-73.213
-64.3749
-53.79
-43.182
-34.0018
-27.2589
-23.43
-22.4463
-23.754
-26.4329
-29.3517
-31.3354
-31.3212
-28.4855
-22.3255
-12.6921
0.226472
15.9609
33.8472
53.1259
73.0417
92.9291
112.275
130.75
148.216
164.697
180.339
195.347
209.931
224.244
238.348
252.187
265.585
278.267
289.885
300.064
308.442
314.713
318.654
320.138
319.133
315.688
309.907
301.918
291.846
279.792
265.826
249.992
232.33
212.901
191.825
169.316
145.703
121.445
97.1244
73.4178
51.0544
30.7573
13.1788
-1.16293
-11.9373
-19.0384
-22.6006
-22.9889
-20.767
-16.6456
-11.416
-5.87901
-0.774065
3.28145
5.83805
6.64064
5.63416
2.9493
-1.12867
-6.20331
-11.8168
-17.5006
-22.8211
-27.4167
-31.0229
-33.4847
-34.7566
-34.8912
-34.021
-32.3344
-30.05
-27.3932
-24.5748
-21.7761
-19.1382
-16.7584
-14.6901
-12.9483
-11.5167
-10.3569
-9.41766
-8.64358
-7.98247
-7.39057
-6.83579
-6.29897
-5.77329
-5.26214
-4.77598
-4.32856
-3.93283
-3.59726
-3.32281
-3.1012
-2.9149
-2.73925
-2.54675
-2.31344
-2.02647
-1.6915
-1.33825
-1.02209
-0.820185
-0.821559
-1.11177
-1.75422
-2.77122
-4.12817
-5.72444
-7.39319
-8.91143
-10.0199
-10.4508
-9.95959
-8.35722
-5.53796
-1.49886
3.65203
9.7
16.3406
23.2067
29.9037
36.0466
41.2969
45.3928
48.1707
49.5751
49.6562
48.5563
46.4873
43.7026
40.4671
37.0297
33.6003
30.3357
27.3338
24.6362
22.2383
20.105
18.1872
16.4382
14.8261
13.3405
11.9928
10.8104
9.82472
9.05757
8.50638
8.13257
7.85538
7.55287
7.07122
6.2416
4.90288
2.92713
0.244086
-3.13919
-7.12709
-11.5353
-16.1027
-20.5155
-24.4406
-27.5659
-29.6406
-30.5126
-30.1544
-28.6739
-26.307
-23.3883
-20.3026
-17.4192
-15.0136
-13.1862
-11.786
-10.3521
-8.08649
-3.87149
3.65818
15.9828
34.5084
60.3357
94.0103
135.291
182.969
234.791
287.489
336.974
378.653
407.872
420.43
413.112
384.149
333.574
263.376
177.447
81.2969
-18.428
-114.584
-200.245
-269.401
-317.579
-342.272
-343.169
-322.12
-282.875
-230.617
-171.356
-111.261
-56.0079
-10.2284
22.8988
41.8573
46.8033
39.3858
22.4129
-0.58407
-25.8287
-49.7596
-69.4195
-82.7335
-88.6532
-87.1635
-79.1635
-66.2491
-50.4336
-33.847
-18.4523
-5.81348
3.06277
7.79743
8.62314
6.29151
1.92344
-3.17283
-7.6894
-10.4875
-10.7275
-7.94688
-2.08233
6.56273
17.3942
29.6333
42.4362
55.0096
66.7094
77.11
86.0403
93.5843
100.049
105.908
111.727
118.087
125.501
134.353
144.845
156.971
170.516
185.069
200.066
214.838
228.665
240.837
250.7
257.694
261.379
261.446
257.721
250.161
238.845
223.973
205.864
184.953
161.794
137.049
111.473
85.8888
61.1397
38.0425
17.3283
-0.413637
-14.7828
-25.6002
-32.9203
-37.0203
-38.3687
-37.5739
-35.3221
-32.3092
-29.175
-26.448
-24.5044
-23.5468
-23.6021
-24.5388
-26.0994
-27.9439
-29.6982
-31.0022
-31.5517
-31.1304
-29.6289
-27.0496
-23.4989
-19.1685
-14.3088
-9.19983
-4.12254
0.665989
4.95064
8.56905
11.415
13.4359
14.6254
15.0136
14.6577
13.6318
12.0208
9.9149
7.40773
4.59549
1.57735
-1.54407
-4.66303
-7.67223
-10.466
-12.9452
-15.0232
-16.632
-17.7291
-18.3013
-18.3678
-17.9791
-17.2133
-16.1691
-14.9563
-13.6843
-12.4513
-11.334
-10.38
-9.60455
-8.9907
-8.49446
-8.05324
-7.59673
-7.05877
-6.38823
-5.55742
-4.56684
-3.44562
-2.24762
-1.04406
0.0863162
1.06788
1.83808
2.35518
2.60297
2.59164
2.3551
1.94524
1.42409
0.855288
0.2959
-0.210087
-0.635899
-0.973259
-1.23082
-1.43013
-1.59981
-1.76882
-1.95982
-2.18343
-2.43424
-2.6891
-2.90784
-3.03652
-3.01277
-2.77258
-2.25769
-1.42254
-0.239764
1.29655
3.1704
5.34624
7.77393
10.3956
13.154
16.0016
18.9114
21.891
25.0014
28.3817
32.2819
37.0983
43.4076
51.9865
63.805
79.9771
101.658
129.882
165.352
208.188
257.69
312.136
368.69
423.451
471.684
508.222
528.03
526.84
501.799
452.004
378.841
286.062
179.56
66.8563
-43.6467
-143.549
-225.363
-283.333
-314.051
-316.799
-293.564
-248.749
-188.606
-120.483
-51.9726
9.91511
59.4729
92.8167
108.162
105.841
88.0705
58.5263
21.7855
-17.2858
-54.1186
-84.9339
-107.093
-119.273
-121.47
-114.838
-101.407
-83.7248
-64.4784
-46.135
-30.6572
-19.3119
-12.5905
-10.2376
-11.3726
-14.6785
-18.6278
-21.7094
-22.63
-20.4635
-14.7346
-5.43212
7.04385
21.9857
38.5149
55.7274
72.8273
89.229
104.618
118.962
132.484
145.591
158.787
172.584
187.405
203.524
221.016
239.747
259.384
279.427
299.262
318.211
335.584
350.725
363.042
372.027
377.262
378.425
375.282
367.692
355.609
339.095
318.329
293.633
265.484
234.523
201.552
167.517
133.472
100.522
69.7552
42.171
18.5984
-0.36998
-14.4308
-23.598
-28.2028
-28.8642
-26.4319
-21.9064
-16.3473
-10.7761
-6.08766
-2.97672
-1.88944
-3.00224
-6.22967
-11.2584
-17.6017
-24.6668
-31.8272
-38.4902
-44.1547
-48.4521
-51.1692
-52.2509
-51.7869
-49.9839
-47.1288
-43.5488
-39.5713
-35.4905
-31.5418
-27.8874
-24.6141
-21.7413
-19.2385
-17.0475
-15.1065
-13.3719
-11.8335
-10.5212
-9.50225
-8.86931
-8.72101
-9.13901
-10.165
-11.7822
-13.9044
-16.375
-18.9777
-21.456
-23.5408
-24.9812
-25.5751
-25.1943
-23.8014
-21.4563
-18.3106
-14.5914
-10.5769
-6.56591
-2.8463
0.334435
2.79284
4.42487
5.21163
5.2153
4.56636
3.44412
2.05336
0.600077
-0.730877
-1.79363
-2.49306
-2.78965
-2.69738
-2.27574
-1.61722
-0.832304
-0.0339624
0.676447
1.22043
1.54972
1.64949
1.53738
1.25928
0.882414
0.487054
0.157751
-0.0249858
0.00818494
0.310013
0.913248
1.82939
3.04959
4.54739
6.28313
8.20925
10.2759
12.4363
14.6505
16.888
19.1278
21.3567
23.5652
25.7423
27.8702
29.9184
31.8405
33.5724
35.0344
36.1359
36.7829
36.888
36.3803
35.2151
33.3819
30.9097
27.872
24.392
20.6515
16.9071
13.5149
10.9638
9.91188
11.2168
15.9437
25.3348
40.722
63.3724
94.2674
133.833
181.653
236.229
294.825
353.48
407.214
450.43
477.515
483.536
464.969
420.324
350.568
259.268
152.385
37.7581
-75.695
-178.939
-263.833
-324.041
-355.74
-358.009
-332.876
-285.004
-221.073
-148.95
-76.7487
-11.9095
39.5907
73.808
89.1221
86.2305
67.8665
38.296
2.67024
-33.6731
-65.8711
-90.0806
-103.848
-106.274
-97.974
-80.8486
-57.7222
-31.8973
-6.69309
14.9735
30.9163
39.885
41.6334
36.8561
27.0152
14.0896
0.285469
-12.25
-21.6793
-26.6612
-26.4578
-20.9589
-10.628
3.61307
20.5418
38.8114
57.1226
74.3713
89.7574
102.845
113.572
122.215
129.309
135.556
141.707
148.456
156.351
165.725
176.662
188.993
202.322
216.077
229.571
242.076
252.886
261.375
267.041
269.527
268.634
264.306
256.619
245.751
231.953
215.523
196.786
176.075
153.729
130.093
105.519
80.3779
55.0644
29.9953
5.6046
-17.67
-39.407
-59.2246
-76.8037
-91.9074
-104.393
-114.215
-121.418
-126.122
-128.502
-128.77
-127.153
-123.884
-119.192
-113.302
-106.442
-98.8448
-90.7564
-82.4378
-74.1625
-66.2091
-58.8482
-52.3265
-46.8492
-42.564
-39.5492
-37.8073
-37.266
-37.7856
-39.1738
-41.2029
-43.6302
-46.2156
-48.7358
-50.9924
-52.8126
-54.0439
-54.546
-54.1812
-52.8098
-50.2919
-46.4985
-41.3309
-34.747
-26.7885
-17.6049
-7.46773
3.23016
13.9917
24.2502
33.4181
40.9436
46.369
49.3819
49.8527
47.8526
43.6496
37.6824
30.5155
22.7814
15.1166
8.09944
2.19716
-2.27246
-5.16062
-6.48722
-6.42227
-5.25212
-3.33589
-1.05796
1.21768
3.18572
4.62684
5.42165
5.55101
5.08402
4.1565
2.94353
1.63037
0.385422
-0.661344
-1.43234
-1.90766
-2.12194
-2.15403
-2.11164
-2.11356
-2.27218
-2.67875
-3.39351
-4.44145
-5.81351
-7.47165
-9.35472
-11.3808
-13.4419
-15.3853
-16.981
-17.8743
-17.5293
-15.1757
-9.77396
-0.0193514
15.5949
38.6412
70.5431
112.294
164.139
225.266
293.57
365.553
436.405
500.32
551.009
582.392
589.368
568.573
518.975
442.243
342.779
227.408
104.744
-15.6959
-124.508
-213.428
-276.218
-309.317
-312.156
-287.126
-239.195
-175.253
-103.261
-31.3257
33.1819
84.3669
118.326
133.392
130.106
110.928
79.762
41.3548
0.655179
-37.7783
-70.2614
-94.3085
-108.774
-113.816
-110.696
-101.476
-88.638
-74.701
-61.8771
-51.8042
-45.3854
-42.7421
-43.2772
-45.8286
-48.8849
-50.8304
-50.1842
-45.8038
-37.0287
-23.7504
-6.40414
14.1107
36.5667
59.5804
81.794
102.043
119.491
133.707
144.699
152.871
158.952
163.876
168.649
174.219
181.359
190.584
202.098
215.793
231.269
247.896
264.89
281.395
296.562
309.622
319.931
327.002
330.518
330.323
326.401
318.855
307.879
293.73
276.709
257.157
235.442
211.971
187.19
161.592
135.721
110.164
85.537
62.4602
41.5229
23.2444
8.03411
-3.84565
-12.3056
-17.4425
-19.5354
-19.0249
-16.4769
-12.5351
-7.86668
-3.1081
1.18397
4.57093
6.75672
7.59667
7.09101
5.36515
2.64006
-0.803283
-4.66077
-8.63948
-12.4859
-16.0055
-19.0732
-21.633
-23.6906
-25.2984
-26.5377
-27.4995
-28.2676
-28.906
-29.4506
-29.9078
-30.2572
-30.4595
-30.4661
-30.2295
-29.7126
-28.8963
-27.7834
-26.3994
-24.7906
-23.0193
-21.157
-19.2782
-17.4528
-15.7405
-14.1862
-12.8173
-11.6426
-10.6535
-9.82512
-9.12
-8.49159
-7.88864
-7.25999
-6.55956
-5.75121
-4.81316
-3.7414
-2.55172
-1.27984
0.0206701
1.28245
2.43045
3.38922
4.09083
4.48228
4.53165
4.23209
3.60306
2.6889
1.55516
0.283753
-1.03192
-2.2907
-3.38582
-4.20599
-4.63625
-4.56047
-3.86684
-2.45732
-0.261012
2.75005
6.54504
11.0218
16.0006
21.2278
26.3892
31.1338
35.1067
37.9841
39.51
39.5259
37.9919
34.9943
30.739
25.5321
19.7484
13.7937
8.06379
2.90684
-1.40761
-4.70919
-6.93498
-8.12543
-8.40908
-7.97888
-7.06347
-5.89743
-4.69403
-3.62379
-2.80083
-2.27791
-2.04993
-2.06438
-2.23657
-2.4669
-2.6576
-2.7267
-2.61779
-2.30511
-1.79422
-1.11937
-0.338654
0.472027
1.2259
1.83398
2.21721
2.32445
2.15869
1.81259
1.51246
1.66623
2.90764
6.12456
12.4571
23.2507
39.9511
63.9376
96.2969
137.558
187.42
244.517
306.275
368.903
427.57
476.76
510.806
524.539
513.979
476.965
413.625
326.603
220.986
103.917
-16.0682
-129.906
-228.97
-305.998
-355.88
-376.186
-367.381
-332.697
-277.688
-209.534
-136.176
-65.4192
-4.08429
42.6646
71.7615
82.4031
75.9352
55.4957
25.4745
-9.12927
-43.3654
-72.9241
-94.5926
-106.533
-108.363
-101.042
-86.6065
-67.7871
-47.5787
-28.815
-13.8045
-4.06739
-0.19827
-1.86217
-7.91252
-16.6064
-25.8818
-33.6557
-38.1046
-37.8909
-32.3119
-21.3569
-5.67014
13.5669
34.8176
56.4073
76.7474
94.5372
108.919
119.566
126.701
131.038
133.664
135.874
138.99
144.177
152.291
163.776
178.609
196.316
216.038
236.647
256.883
275.496
291.387
303.705
311.908
315.782
315.409
311.106
303.335
292.615
279.44
264.213
247.223
228.644
208.569
187.068
164.249
140.316
115.615
90.6478
66.0541
42.5703
20.9596
1.93207
-13.9358
-26.2699
-34.9441
-40.0972
-42.1186
-41.6034
-39.2858
-35.9576
-32.3826
-29.2195
-26.9594
-25.8873
-26.0686
-27.3632
-29.4606
-31.9333
-34.2993
-36.0855
-36.885
-36.4022
-34.4808
-31.1137
-26.4354
-20.6999
-14.2483
-7.46997
-0.76423
5.4956
10.9909
15.4781
18.7995
20.8861
21.7519
21.4837
20.2268
18.1693
15.5265
12.5258
9.39391
6.34543
3.57322
1.24068
-0.524804
-1.63701
-2.05493
-1.78548
-0.884577
0.543971
2.35212
4.35447
6.33854
8.07835
9.35087
9.95418
9.726
8.56077
6.42333
3.35739
-0.512631
-4.98733
-9.80572
-14.6655
-19.2484
-23.2488
-26.4017
-28.5078
-29.452
-29.214
-27.8682
-25.5744
-22.5593
-19.0915
-15.4529
-11.9106
-8.69168
-5.9644
-3.828
-2.3109
-1.37752
-0.941978
-0.886106
-1.07921
-1.39659
-1.7346
-2.02045
-2.21614
-2.31658
-2.34296
-2.33296
-2.3296
-2.3707
-2.48039
-2.66374
-2.905
-3.16931
-3.40705
-3.56015
-3.569
-3.37882
-2.94451
-2.23314
-1.22392
0.0943967
1.72753
3.68031
5.96022
8.57886
11.5502
14.8854
18.5846
22.6263
26.9563
31.4775
36.0441
40.4614
44.4938
47.8849
50.3894
51.8188
52.0982
51.332
49.8691
48.3576
47.7758
49.4227
54.8528
65.7474
83.7161
110.042
145.39
189.521
241.061
297.367
354.557
407.721
451.328
479.79
488.139
472.716
431.78
365.934
278.287
174.311
61.3898
-51.9038
-156.7
-244.797
-309.566
-346.673
-354.537
-334.455
-290.392
-228.46
-156.174
-81.569
-12.2995
45.1658
86.1682
108.233
111.167
96.8804
68.9843
32.2189
-8.19972
-47.2292
-80.571
-105.096
-119.087
-122.291
-115.779
-101.669
-82.7368
-61.9924
-42.2694
-25.877
-14.3551
-8.35224
-7.62905
-11.1748
-17.4107
-24.4461
-30.3489
-33.3952
-32.2683
-26.1866
-14.9528
1.07534
21.0793
43.9201
68.3032
92.9431
116.708
138.73
158.466
175.719
190.608
203.506
214.953
225.56
235.912
246.486
257.591
269.332
281.596
294.075
306.295
317.669
327.551
335.298
340.322
342.135
340.392
334.906
325.664
312.821
296.681
277.674
256.316
233.178
208.845
183.891
158.852
134.215
110.405
87.7909
66.6756
47.3021
29.8494
14.4297
1.0837
-10.2221
-19.5958
-27.2153
-33.317
-38.1791
-42.0996
-45.3712
-48.2571
-50.9698
-53.6557
-56.3876
-59.1659
-61.9272
-64.5601
-66.9249
-68.8756
-70.2803
-71.0395
-71.0985
-70.4548
-69.1583
-67.3068
-65.0353
-62.503
-59.8775
-57.3193
-54.9671
-52.9264
-51.2619
-49.9938
-49.0991
-48.517
-48.1576
-47.9126
-47.6672
-47.3113
-46.7486
-45.904
-44.7266
-43.19
-41.29
-39.0399
-36.4663
-33.6042
-30.494
-27.1806
-23.7135
-20.1476
-16.5452
-12.9754
-9.5142
-6.24038
-3.2313
-0.556509
1.72899
3.59085
5.01988
6.03419
6.67816
7.01849
7.13737
7.12377
7.06384
7.03161
7.08123
7.24178
7.51533
7.8785
8.28729
8.68457
9.00902
9.20438
9.22754
9.05446
8.68306
8.13274
7.44078
6.65623
5.83236
5.01885
4.25496
3.56469
2.9547
2.41502
1.92253
1.44647
0.9551
0.422373
-0.166333
-0.810437
-1.49292
-2.18191
-2.8349
-3.40497
-3.84818
-4.13076
-4.23513
-4.16367
-3.9396
-3.60477
-3.2147
-2.83149
-2.51565
-2.31764
-2.26948
-2.3758
-2.60255
-2.86075
-2.98259
-2.68903
-1.5506
1.052
5.95654
14.2224
27.0914
45.8926
71.8823
106.023
148.722
199.554
257.033
318.467
379.962
436.611
482.869
513.107
522.275
506.602
464.223
395.626
303.857
194.403
74.7649
-46.2412
-159.386
-256.002
-328.926
-373.262
-386.894
-370.666
-328.217
-265.503
-190.066
-110.155
-33.8039
32.0097
82.0412
113.211
124.758
118.119
96.5612
64.6359
27.5332
-9.58247
-42.1694
-66.7753
-81.3278
-85.2311
-79.2741
-65.3797
-46.2411
-24.9009
-4.32991
12.9414
25.0991
31.2038
31.222
25.9403
16.7844
5.57447
-5.74413
-15.3593
-21.8069
-24.1179
-21.8867
-15.2584
-4.84571
8.40646
23.3845
38.9738
54.2062
68.3705
81.0744
92.2535
102.134
111.155
119.873
128.851
138.565
149.329
161.246
174.201
187.882
201.825
215.479
228.272
239.672
249.236
256.629
261.629
264.11
264.01
261.295
255.932
247.869
237.04
223.387
206.9
187.662
165.903
142.031
116.646
90.5302
64.6011
39.8458
17.2349
-2.36835
-18.2931
-30.1282
-37.7613
-41.3865
-41.4778
-38.7322
-33.9911
-28.1485
-22.0588
-16.454
-11.8804
-8.66117
-6.88687
-6.43396
-7.00643
-8.19395
-9.53823
-10.5988
-11.0105
-10.5259
-9.03901
-6.58982
-3.34892
0.412282
4.3618
8.15158
11.4604
14.0303
15.6918
16.3772
16.1204
15.0442
13.3391
11.2356
8.97474
6.77973
4.83307
3.26015
2.12127
1.41177
1.06965
0.988811
1.03593
1.06853
0.95222
0.575041
-0.142031
-1.23928
-2.717
-4.53831
-6.63519
-8.91656
-11.2774
-13.6081
-15.8023
-17.7645
-19.4151
-20.6941
-21.5628
-22.0048
-22.0242
-21.644
-20.9029
-19.8513
-18.5469
-17.0505
-15.4211
-13.7123
-11.9684
-10.2226
-8.49601
-6.7982
-5.12954
-3.48486
-1.85823
-0.248204
1.33711
2.87587
4.33001
5.64469
6.75018
7.56597
8.00717
7.99314
7.45891
6.37035
4.74473
2.67828
0.381682
-1.77737
-3.22883
-3.16066
-0.497696
6.08431
18.0927
37.0861
64.4724
101.244
147.68
203.05
265.394
331.413
396.548
455.264
501.536
529.507
534.229
512.387
462.903
387.303
289.781
176.92
57.0998
-60.3507
-166.153
-252.088
-311.901
-341.963
-341.626
-313.22
-261.698
-193.997
-118.185
-42.5277
25.4245
79.6098
116.005
132.905
130.905
112.627
82.2247
44.7537
5.491
-30.7099
-59.9536
-79.671
-88.7917
-87.7154
-78.1046
-62.5385
-44.0849
-25.8497
-10.5617
-0.24345
4.00057
2.05926
-5.24272
-16.3181
-29.0744
-41.2163
-50.5512
-55.2601
-54.1009
-46.5256
-32.702
-13.4449
9.929
35.7966
62.4478
88.2982
112.067
132.903
150.441
164.789
176.46
186.244
195.068
203.838
213.299
223.94
235.924
249.087
262.966
276.877
290.012
301.547
310.741
317.017
320.02
319.63
315.951
309.272
300.007
288.624
275.583
261.279
246.008
229.957
213.211
195.784
177.664
158.857
139.431
119.553
99.5009
79.6626
60.5165
42.5915
26.4176
12.4718
1.1256
-7.39739
-13.0494
-15.9675
-16.4629
-14.9916
-12.1104
-8.42369
-4.52655
-0.952278
1.87165
3.6537
4.25256
3.67495
2.05861
-0.356433
-3.26409
-6.33113
-9.23427
-11.6917
-13.4861
-14.4788
-14.6139
-13.9152
-12.4766
-10.4493
-8.02602
-5.42474
-2.87271
-0.590484
1.22332
2.40626
2.84482
2.48466
1.33721
-0.518402
-2.93927
-5.72856
-8.65104
-11.4531
-13.8852
-15.7251
-16.7979
-16.9927
-16.2721
-14.675
-12.3118
-9.35292
-6.0123
-2.52711
0.863587
3.93942
6.51651
8.46095
9.69687
10.2085
10.0366
9.26933
8.02918
6.4579
4.70054
2.89152
1.14393
-0.456341
-1.8515
-3.00808
-3.91021
-4.55192
-4.93112
-5.0471
-4.90267
-4.51039
-3.90057
-3.12723
-2.26699
-1.40591
-0.610372
0.119411
0.910656
2.08682
4.23148
8.23052
15.2737
26.7975
44.3566
69.4208
103.109
145.889
197.281
255.63
317.997
380.218
437.164
483.194
512.769
521.143
505.05
463.268
396.975
309.816
207.668
98.0971
-10.4119
-109.364
-191.184
-250.043
-282.474
-287.702
-267.651
-226.634
-170.775
-107.251
-43.4385
13.9038
59.3366
89.2406
102.069
98.3421
80.3973
51.9522
17.5406
-18.0961
-50.5856
-76.4041
-93.2078
-99.9905
-97.0636
-85.878
-68.7242
-48.3593
-27.615
-9.03724
5.40215
14.491
17.8493
15.891
9.69216
0.792149
-9.04049
-18.0446
-24.6766
-27.7721
-26.6442
-21.1148
-11.4806
1.5723
17.0927
34.006
51.2559
67.9289
83.3471
97.1224
109.167
119.663
129
137.691
146.273
155.221
164.869
175.359
186.623
198.385
210.202
221.515
231.719
240.233
246.559
250.337
251.369
249.631
245.258
238.511
229.735
219.306
207.575
194.83
181.266
166.97
151.937
136.097
119.356
101.652
82.9996
63.5369
43.5469
23.462
3.84275
-14.6634
-31.3818
-45.678
-57.0263
-65.0692
-69.6591
-70.8781
-69.0324
-64.6217
-58.2888
-50.7556
-42.7529
-34.9545
-27.9214
-22.0626
-17.6161
-14.6484
-13.0736
-12.6843
-13.1925
-14.2742
-15.6119
-16.9326
-18.0363
-18.8128
-19.2461
-19.4049
-19.4222
-19.4646
-19.6967
-20.2438
-21.1596
-22.4021
-23.8239
-25.1775
-26.1389
-26.3441
-25.4374
-23.1235
-19.2166
-13.6806
-6.65318
1.54903
10.4475
19.439
27.8503
35.0049
40.2932
43.2392
43.5547
41.1739
36.2649
29.2153
20.5948
11.0978
1.47534
-7.53725
-15.2871
-21.258
-25.1067
-26.678
-25.9998
-23.2595
-18.7683
-12.9184
-6.13977
1.13839
8.5175
15.6493
22.2456
28.0798
32.9831
36.8383
39.5745
41.1625
41.6151
40.9886
39.388
36.9737
33.9704
30.6803
27.4999
24.9427
23.6652
24.4914
28.4258
36.642
50.4304
71.093
99.7765
137.249
183.642
238.185
299
362.994
425.911
482.573
527.319
554.602
559.683
539.316
492.337
420.026
326.197
216.96
100.181
-15.3091
-120.654
-207.933
-271.024
-306.254
-312.753
-292.468
-249.854
-191.279
-124.232
-56.4422
4.98137
54.2823
87.5839
103.157
101.417
84.6651
56.6376
21.9162
-14.7
-48.791
-76.8057
-96.3954
-106.564
-107.633
-101.039
-89.0187
-74.2062
-59.2345
-46.3672
-37.2194
-32.5925
-32.435
-35.9235
-41.6424
-47.8298
-52.6501
-54.4549
-51.9971
-44.574
-32.0852
-15.0043
5.72245
28.8331
52.934
76.6843
98.9572
118.957
136.283
150.935
163.269
173.912
183.651
193.312
203.653
215.261
228.492
243.428
259.876
277.382
295.279
312.745
328.871
342.738
353.486
360.382
362.876
360.637
353.583
341.879
325.924
306.317
283.805
259.222
233.423
207.223
181.339
156.36
132.724
110.721
90.5089
72.1414
55.5999
40.8239
27.7347
16.2496
6.28687
-2.23765
-9.4176
-15.3634
-20.2064
-24.0966
-27.1954
-29.6624
-31.6417
-33.2486
-34.5614
-35.6211
-36.4371
-37.0012
-37.3035
-37.3493
-37.1707
-36.8315
-36.4222
-36.0459
-35.7987
-35.747
-35.9063
-36.2287
-36.5995
-36.8471
-36.7645
-36.1407
-34.7965
-32.6199
-29.5946
-25.8168
-21.4962
-16.9416
-12.5303
-8.66746
-5.73875
-4.06352
-3.85433
-5.1877
-7.98971
-12.038
-16.9799
-22.3652
-27.6886
-32.4397
-36.1522
-38.4505
-39.0855
-37.9584
-35.1283
-30.8033
-25.3167
-19.0903
-12.5896
-6.27528
-0.557849
4.24115
7.91621
10.3912
11.7176
12.06
11.6687
10.8467
9.91238
9.164
8.8488
9.14031
10.1249
11.7984
14.0712
16.7819
19.7158
22.6284
25.2685
27.4026
28.8355
29.4267
29.102
27.8577
25.7592
22.9327
19.5518
15.8203
11.9534
8.15868
4.61839
1.47638
-1.17103
-3.27868
-4.8509
-5.9351
-6.61169
-6.98161
-7.15301
-7.22864
-7.29522
-7.41588
-7.62621
-7.93417
-8.3232
-8.75814
-9.19261
-9.57692
-9.8652
-10.021
-10.0204
-9.85299
-9.51955
-9.02826
-8.38847
-7.60251
-6.65441
-5.49414
-4.01533
-2.02539
0.791197
4.91163
11.0069
19.9536
32.8098
50.7387
74.8709
106.104
144.858
190.809
242.662
297.999
353.273
403.97
444.964
471.034
477.499
460.879
419.488
353.865
266.956
163.999
52.1125
-60.3796
-164.805
-253.078
-318.579
-356.885
-366.232
-347.667
-304.875
-243.694
-171.407
-95.8868
-24.7163
35.612
80.325
106.759
114.476
105.118
82.0242
49.6843
13.1056
-22.8263
-53.9121
-77.0655
-90.5637
-94.1051
-88.6856
-76.3237
-59.6849
-41.6608
-24.9604
-11.7672
-3.49656
-0.678868
-2.96884
-9.26956
-17.9434
-27.0741
-34.7422
-39.2754
-39.4452
-34.5893
-24.6501
-10.1331
8.00266
28.5013
49.9886
71.1473
90.8676
108.355
123.188
135.322
145.048
152.914
159.627
165.94
172.561
180.066
188.846
199.079
210.733
223.583
237.252
251.249
265.02
277.984
289.565
299.22
306.453
310.831
311.989
309.641
303.595
293.762
280.176
263.004
242.561
219.307
193.843
166.893
139.262
111.802
85.3477
60.6672
38.4022
19.0236
2.80127
-10.2069
-20.1439
-27.3212
-32.1688
-35.1742
-36.8182
-37.5171
-37.5779
-37.174
-36.3439
-35.0104
-33.0196
-30.1896
-26.3633
-21.4562
-15.4918
-8.6205
-1.11796
6.63524
14.1906
21.0796
26.8658
31.1943
33.8316
34.6907
33.8392
31.4891
27.9698
23.6891
19.0871
14.5886
10.56
7.27584
4.89793
3.46901
2.92058
3.09263
3.7621
4.67574
5.58287
6.26424
6.55373
6.35124
5.6262
4.41245
2.79652
0.901447
-1.1311
-3.15791
-5.04874
-6.69694
-8.02568
-8.99003
-9.57555
-9.79442
-9.68005
-9.28117
-8.65615
-7.86779
-6.97902
-6.04922
-5.13132
-4.26937
-3.49665
-2.83426
-2.29041
-1.86055
-1.52852
-1.26906
-1.05136
-0.843797
-0.61919
-0.360068
-0.0631348
0.257817
0.571177
0.829328
0.973014
0.937842
0.662154
0.0951858
-0.795661
-2.01956
-3.55984
-5.37484
-7.4019
-9.56383
-11.7769
-13.9587
-16.0355
-17.9464
-19.6456
-21.101
-22.2912
-23.1995
-23.8094
-24.0997
-24.0419
-23.601
-22.7383
-21.417
-19.6091
-17.3025
-14.5072
-11.2597
-7.6236
-3.6884
0.436016
4.62641
8.75511
12.6993
16.3495
19.6172
22.4394
24.7818
26.6381
28.0275
28.9894
29.5754
29.8407
29.8357
29.5994
29.1602
28.5442
27.7973
27.0205
26.4179
26.3538
27.4061
30.4054
36.4388
46.8027
62.8888
85.9999
117.103
156.544
203.772
257.117
313.691
369.446
419.434
458.246
480.61
482.061
459.601
412.239
341.322
250.596
145.962
34.9417
-74.0695
-172.693
-253.471
-310.668
-340.876
-343.34
-319.973
-275.06
-214.703
-146.085
-76.6428
-13.2603
38.4265
74.533
93.1922
94.5701
80.6464
54.8071
21.314
-15.2735
-50.6511
-81.2302
-104.461
-118.99
-124.655
-122.332
-113.666
-100.751
-85.7875
-70.7768
-57.2859
-46.3055
-38.2077
-32.7959
-29.4276
-27.1814
-25.0393
-22.0538
-17.4793
-10.8514
-2.00994
8.92955
21.6456
35.7044
50.6597
66.1403
81.912
97.9048
114.202
130.998
148.523
166.97
186.411
206.733
227.611
248.5
268.675
287.298
303.507
316.515
325.708
330.72
331.483
328.241
321.525
312.089
300.823
288.645
276.387
264.697
253.957
244.248
235.337
226.724
217.711
207.507
195.343
180.594
162.87
142.093
118.529
92.7729
65.7009
38.3829
11.9757
-12.3945
-33.7423
-51.3158
-64.6592
-73.6426
-78.4541
-79.5612
-77.6452
-73.5194
-68.0415
-62.0297
-56.1918
-51.0733
-47.0292
-44.2187
-42.6221
-42.0749
-42.3125
-43.0206
-43.8833
-44.6247
-45.0387
-45.0055
-44.4952
-43.558
-42.3054
-40.8853
-39.4551
-38.1568
-37.0971
-36.3344
-35.8741
-35.6715
-35.6407
-35.669
-35.6318
-35.4088
-34.8967
-34.0189
-32.7307
-31.0206
-28.908
-26.4385
-23.6779
-20.7066
-17.6131
-14.4891
-11.425
-8.5057
-5.80646
-3.38965
-1.30114
0.432524
1.80612
2.83627
3.5603
4.03295
4.3212
4.49757
4.63241
4.7862
5.00279
5.30444
5.68935
6.13216
6.58733
6.99518
7.28965
7.40697
7.29411
6.91588
6.25995
5.33915
4.19094
2.87415
1.46347
0.04244
-1.30435
-2.49884
-3.47623
-4.19007
-4.61539
-4.74968
-4.61156
-4.23765
-3.67772
-2.98887
-2.22914
-1.45137
-0.697728
0.00441368
0.644783
1.23047
1.78391
2.33861
2.93298
3.60267
4.37264
5.25022
6.2216
7.25443
8.30953
9.36432
10.4491
11.6948
13.3877
16.0225
20.3411
27.3418
38.2431
54.3887
77.0857
107.382
145.802
192.068
244.866
301.702
358.899
411.773
455.005
483.174
491.405
476.046
435.273
369.526
281.69
176.99
62.567
-53.1903
-161.51
-254.167
-324.367
-367.474
-381.484
-367.183
-327.996
-269.521
-198.847
-123.726
-51.7081
10.6427
58.3816
88.5837
100.488
95.3848
76.2741
47.3615
13.4569
-20.6405
-50.696
-73.4735
-87.0059
-90.6873
-85.1913
-72.2422
-54.2835
-34.0917
-14.3915
2.48331
14.8434
21.7911
23.2539
19.9119
13.0396
4.2921
-4.53323
-11.7258
-15.8564
-15.916
-11.3909
-2.2699
11.0063
27.6428
46.6166
66.8152
87.1677
106.757
124.9
141.191
155.509
167.989
178.959
188.874
198.221
207.447
216.886
226.712
236.914
247.301
257.525
267.124
275.573
282.345
286.956
289.009
288.216
284.412
277.544
267.664
254.902
239.455
221.57
201.542
179.721
156.519
132.422
107.993
83.868
60.7336
39.291
20.2086
4.06665
-8.6976
-17.8365
-23.323
-25.361
-24.3718
-20.9576
-15.8459
-9.82096
-3.65066
1.98269
6.53986
9.66404
11.1985
11.1816
9.8213
7.45316
4.48828
1.35777
-1.53954
-3.88015
-5.44567
-6.13708
-5.97316
-5.07504
-3.64005
-1.9091
-0.132352
1.46257
2.69619
3.45402
3.69367
3.44213
2.78485
1.84875
0.781774
-0.267788
-1.16994
-1.82727
-2.18363
-2.22684
-1.98559
-1.52173
-0.919366
-0.272479
0.32722
0.800829
1.09009
1.16189
1.00933
0.649552
0.118946
-0.533435
-1.25332
-1.9886
-2.69573
-3.3445
-3.92067
-4.42629
-4.87774
-5.30192
-5.73119
-6.1979
-6.72912
-7.34267
-8.04468
-8.82918
-9.67976
-10.573
-11.4829
-12.3868
-13.2695
-14.1281
-14.9733
-15.8298
-16.7328
-17.7234
-18.8412
-20.1164
-21.5617
-23.1661
-24.8907
-26.6674
-28.4004
-29.9702
-31.2369
-32.0406
-32.195
-31.4708
-29.5676
-26.0764
-20.4384
-11.9125
0.432955
17.6869
41.004
71.4478
109.772
156.159
209.96
269.473
331.837
393.064
448.273
492.101
519.269
525.247
506.911
463.106
395.008
306.222
202.575
91.6128
-18.1469
-118.108
-200.533
-259.389
-291.006
-294.441
-271.534
-226.627
-166.005
-97.1305
-27.7757
34.8347
84.7734
117.962
132.476
128.572
108.474
75.94
35.6935
-7.20472
-47.9669
-82.597
-108.264
-123.5
-128.217
-123.55
-111.58
-94.9618
-76.528
-58.9098
-44.227
-33.874
-28.4209
-27.6288
-30.5675
-35.8083
-41.6615
-46.4232
-48.5985
-47.0762
-41.2369
-30.9864
-16.719
0.778928
20.4658
41.1998
61.891
81.6281
99.7694
115.985
130.257
142.831
154.143
164.728
175.121
185.771
196.975
208.835
221.247
233.918
246.4
258.148
268.573
277.108
283.255
286.624
286.958
284.14
278.195
269.266
257.601
243.525
227.419
209.701
190.806
171.178
151.259
131.481
112.255
93.9599
76.9318
61.4449
47.6988
35.8037
25.7715
17.5122
10.8381
5.4785
1.10232
-2.65006
-6.13046
-9.64483
-13.4183
-17.5678
-22.0863
-26.8412
-31.588
-35.9982
-39.6988
-42.3193
-43.5395
-43.1336
-41.0047
-37.2055
-31.9424
-25.5637
-18.5313
-11.3807
-4.67253
1.05892
5.35518
7.87581
8.42939
6.99039
3.70047
-1.14527
-7.12549
-13.73
-20.4039
-26.5937
-31.7924
-35.5789
-37.649
-37.8364
-36.1214
-32.6276
-27.6071
-21.4158
-14.4811
-7.26573
-0.229659
6.20516
11.6854
15.9495
18.8417
20.3163
20.4326
19.3407
17.2616
14.4619
11.2273
7.83735
4.54258
1.54761
-1.00019
-3.01515
-4.47167
-5.39709
-5.86054
-5.95925
-5.80403
-5.50544
-5.16194
-4.85111
-4.62456
-4.50659
-4.49635
-4.57266
-4.70003
-4.83458
-4.92829
-4.9307
-4.78814
-4.44113
-3.82167
-2.85222
-1.44816
0.475319
2.99177
6.14907
9.95471
14.3649
19.2823
24.5675
30.0674
35.6632
41.3341
47.2316
53.7515
61.5866
71.7417
85.4894
104.254
129.417
162.058
202.657
250.796
304.933
362.286
418.892
469.857
509.803
533.468
536.376
515.513
469.86
400.735
311.84
209.01
99.6707
-7.92646
-105.6
-186.138
-244.092
-276.351
-282.434
-264.456
-226.793
-175.486
-117.479
-59.7868
-8.70626
30.8415
55.7549
64.947
59.2828
41.2855
14.6685
-16.237
-47.0758
-74.0078
-94.1307
-105.742
-108.421
-102.946
-91.0576
-75.1289
-57.7852
-41.5274
-28.4084
-19.7977
-16.257
-17.5308
-22.6457
-30.0932
-38.0673
-44.7204
-48.405
-47.8696
-42.3897
-31.8228
-16.5866
2.43084
24.0104
46.7726
69.3533
90.5655
109.527
125.74
139.12
149.973
158.924
166.812
174.571
183.102
193.159
205.256
219.608
236.107
254.333
273.6
293.019
311.583
328.261
342.073
352.173
357.901
358.827
354.76
345.753
332.083
314.217
292.775
268.48
242.121
214.499
186.401
158.561
131.639
106.207
82.7352
61.5848
43.0061
27.1352
13.9946
3.49672
-4.5483
-10.4203
-14.4704
-17.0978
-18.7216
-19.751
-20.5567
-21.445
-22.6393
-24.2684
-26.366
-28.8779
-31.6779
-34.5897
-37.4113
-39.9406
-41.9974
-43.4417
-44.1856
-44.1978
-43.5023
-42.171
-40.3128
-38.0597
-35.5523
-32.9269
-30.3042
-27.782
-25.4302
-23.2904
-21.3778
-19.6853
-18.1893
-16.8559
-15.6466
-14.5236
-13.4544
-12.4139
-11.3864
-10.3657
-9.35412
-8.36141
-7.40219
-6.49348
-5.65199
-4.89132
-4.21956
-3.63716
-3.13549
-2.69609
-2.29076
-1.88267
-1.42847
-0.881418
-0.195393
0.670479
1.74708
3.051
4.58136
6.31849
8.22483
10.2484
12.3283
14.4021
16.4129
18.3158
20.0822
21.7009
23.176
24.522
25.7573
26.8965
27.9437
28.8882
29.7023
30.3429
30.7551
30.8791
30.6579
30.0448
29.011
27.5505
25.6828
23.4526
20.9267
18.1883
15.3295
12.4431
9.61388
6.91113
4.38343
2.05548
-0.071894
-2.01862
-3.81966
-5.51729
-7.15223
-8.75509
-10.339
-11.8948
-13.3889
-14.7651
-15.9492
-16.8559
-17.3982
-17.4967
-17.0897
-16.1423
-14.6551
-12.6711
-10.2813
-7.62665
-4.89463
-2.30833
-0.104794
1.49986
2.36001
2.46371
2.00473
1.45427
1.61837
3.66354
9.0916
19.647
37.1463
63.2306
99.0581
144.97
200.183
262.564
328.556
393.301
450.975
495.341
520.45
521.407
495.109
440.816
360.476
258.727
142.554
20.635
-97.546
-202.717
-286.822
-343.896
-370.676
-366.903
-335.258
-280.961
-211.097
-133.753
-57.0944
11.523
66.2782
103.387
121.33
120.795
104.375
76.0674
40.6595
3.08523
-32.1677
-61.5305
-82.6604
-94.5607
-97.5199
-92.8949
-82.7852
-69.6498
-55.9236
-43.6832
-34.4002
-28.8051
-26.8692
-27.8929
-30.6787
-33.757
-35.6286
-34.9906
-30.915
-22.963
-11.221
3.73582
20.9466
39.2124
57.2689
73.9584
88.3799
99.9985
108.703
114.808
118.998
122.228
125.596
130.194
136.97
146.605
159.428
175.376
193.997
214.5
235.843
256.844
276.298
293.093
306.308
315.274
319.611
319.223
314.27
305.113
292.25
276.25
257.695
237.137
215.075
191.954
168.172
144.108
120.142
96.6729
74.1315
52.9689
33.6382
16.562
2.09405
-9.51925
-18.1699
-23.9076
-26.943
-27.6334
-26.452
-23.9457
-20.6835
-17.2056
-13.9755
-11.3434
-9.52359
-8.58716
-8.47172
-9.00438
-9.93534
-10.9771
-11.8439
-12.2875
-12.1242
-11.2506
-9.64863
-7.37813
-4.56157
-1.36308
2.03392
5.44703
8.71045
11.6847
14.26
16.3554
17.9139
18.898
19.2844
19.0624
18.2341
16.8163
14.8448
12.3778
9.49799
6.31217
2.94791
-0.453324
-3.74582
-6.79089
-9.46867
-11.6888
-13.3982
-14.5858
-15.2825
-15.5565
-15.5055
-15.2454
-14.8975
-14.5763
-14.3775
-14.3699
-14.5894
-15.0382
-15.6863
-16.4775
-17.3366
-18.1788
-18.9188
-19.4794
-19.7986
-19.8339
-19.5649
-18.9929
-18.139
-17.0396
-15.7423
-14.2999
-12.7665
-11.1928
-9.62404
-8.09795
-6.64489
-5.28826
-4.04563
-2.93003
-1.951
-1.11527
-0.426895
0.112986
0.50674
0.760872
0.886491
0.89941
0.819728
0.670883
0.478212
0.267186
0.0615129
-0.11863
-0.258012
-0.347205
-0.382724
-0.366436
-0.304279
-0.204465
-0.0754321
0.076219
0.247516
0.44046
0.662797
0.928152
1.25555
1.66834
2.19263
2.8552
3.6811
4.69114
5.89926
7.3105
8.91961
10.7107
12.6581
14.7276
16.8782
19.063
21.2295
23.3176
25.2587
26.9736
28.3723
29.357
29.8279
29.6915
28.873
27.3275
25.0518
22.0925
18.5495
14.5735
10.3577
6.12374
2.10334
-1.48188
-4.44023
-6.62704
-7.95693
-8.41019
-8.03284
-6.93117
-5.26176
-3.21858
-1.01831
1.11604
2.97377
4.37935
5.22173
5.4914
5.32489
5.05298
5.24505
6.73814
10.6367
18.2686
31.0857
50.5044
77.6906
113.306
157.248
208.42
264.581
322.33
377.24
424.178
457.788
473.092
466.139
434.62
378.332
299.434
202.417
93.7809
-18.5576
-126.064
-220.49
-294.76
-343.742
-364.786
-357.964
-326
-273.883
-208.239
-136.54
-66.244
-4.00214
45.005
77.5073
92.3331
90.3381
74.1044
47.4654
14.9303
-18.913
-49.9414
-74.9235
-91.7911
-99.7366
-99.144
-91.3803
-78.4899
-62.8415
-46.7787
-32.3166
-20.9202
-13.381
-9.79676
-9.64476
-11.9275
-15.363
-18.5905
-20.3626
-19.7012
-16.0007
-9.07347
0.865091
13.2603
27.32
42.1367
56.8134
70.5779
82.8708
93.4006
102.161
109.411
115.624
121.41
127.432
134.31
142.541
152.437
164.077
177.303
191.726
206.769
221.724
235.821
248.3
258.479
265.807
269.9
270.563
267.778
261.686
252.552
240.72
226.569
210.484
192.828
173.934
154.113
133.668
112.912
92.1845
71.8588
52.3343
34.0178
17.2932
2.48505
-10.1761
-20.5808
-28.7545
-34.8544
-39.149
-41.9831
-43.7327
-44.7568
-45.3528
-45.7227
-45.9546
-46.0218
-45.8002
-45.0999
-43.7072
-41.43
-38.1399
-33.8045
-28.5057
-22.441
-15.908
-9.27351
-2.93354
2.7321
7.40282
10.8527
12.9735
13.7825
13.4147
12.101
10.1362
7.84063
5.52231
3.44335
1.7952
0.685143
0.134861
0.0900043
0.438343
1.03309
1.71763
2.34794
2.81011
3.03082
2.98056
2.66995
2.14078
1.45397
0.676614
-0.12958
-0.917029
-1.65713
-2.34117
-2.97776
-3.5878
-4.19822
-4.83571
-5.52133
-6.26684
-7.07272
-7.92796
-8.81111
-9.69221
-10.5349
-11.2989
-11.9414
-12.4197
-12.6925
-12.7218
-12.4756
-11.9298
-11.071
-9.89915
-8.42898
-6.6917
-4.73525
-2.62386
-0.436803
1.73377
3.78558
5.61001
7.09703
8.14249
8.65884
8.59104
7.93946
6.79085
5.35688
4.0175
3.3625
4.22144
7.66831
14.9865
27.5812
46.831
73.8825
109.402
153.315
204.577
261.026
319.359
375.281
423.818
459.799
478.44
475.972
450.211
400.986
330.356
242.556
143.677
41.0913
-57.2896
-143.853
-212.101
-257.339
-277.165
-271.677
-243.403
-196.944
-138.402
-74.6552
-12.5806
41.681
83.3341
109.346
118.636
112.022
91.9646
62.1352
26.885
-9.31497
-42.397
-69.1202
-87.3549
-96.2054
-95.9731
-87.9793
-74.2833
-57.3415
-39.6551
-23.4504
-10.4291
-1.61111
2.71815
2.96255
0.0865227
-4.571
-9.51008
-13.2802
-14.6605
-12.7903
-7.23737
1.99722
14.531
29.6958
46.6594
64.5527
82.5851
100.133
116.795
132.399
146.988
160.759
173.998
187.003
200.01
213.144
226.382
239.549
252.335
264.326
275.052
284.041
290.857
295.144
296.645
295.208
290.787
283.427
273.244
260.414
245.151
227.706
208.361
187.435
165.294
142.354
119.09
96.032
73.7455
52.8101
33.782
17.1516
3.30063
-7.53666
-15.3006
-20.1182
-22.2961
-22.2959
-20.6922
-18.1193
-15.2122
-12.5483
-10.5977
-9.68638
-9.97643
-11.4653
-14.0027
-17.3229
-21.0872
-24.9307
-28.5084
-31.5337
-33.8056
-35.2221
-35.7792
-35.5567
-34.6949
-33.3659
-31.7446
-29.9848
-28.2022
-26.4686
-24.8148
-23.2429
-21.7428
-20.3102
-18.9619
-17.7439
-16.7323
-16.0242
-15.721
-15.9074
-16.6294
-17.875
-19.5632
-21.5428
-23.6018
-25.4878
-26.9362
-27.702
-27.5917
-26.4892
-24.3735
-21.3247
-17.5163
-13.1978
-8.66627
-4.23404
-0.194666
3.20733
5.79982
7.49702
8.30287
8.30468
7.65825
6.56734
5.25978
3.96296
2.88084
2.17406
1.94483
2.22748
2.98567
4.11697
5.46464
6.83622
8.02747
8.84913
9.15363
8.85815
7.96079
6.54712
4.78577
2.91295
1.20768
-0.039278
-0.558742
-0.133991
1.37492
4.01674
7.74618
12.4324
17.8766
23.8354
30.0459
36.2487
42.2073
47.7235
52.6524
56.9212
60.5557
63.7187
66.758
70.2553
75.0621
82.3032
93.3273
109.589
132.455
162.951
201.466
247.469
299.292
354.03
407.621
455.116
491.142
510.514
508.91
483.531
433.624
360.786
268.982
164.263
54.1925
-52.9317
-148.975
-226.859
-281.328
-309.504
-311.139
-288.568
-246.345
-190.65
-128.521
-67.0368
-12.5389
30.0097
57.4614
68.6768
64.4677
47.3178
20.9297
-10.3304
-42.0158
-70.1363
-91.588
-104.433
-108.011
-102.877
-90.6023
-73.4621
-54.0726
-35.0179
-18.5204
-6.18986
1.12467
3.37146
1.22765
-4.05506
-10.8625
-17.4557
-22.2007
-23.7638
-21.2501
-14.2744
-2.96188
12.1134
30.0389
49.705
69.9567
89.7371
108.207
124.83
139.408
152.086
163.299
173.698
184.043
195.093
207.492
221.674
237.789
255.669
274.825
294.484
313.658
331.236
346.092
357.19
363.683
364.987
360.827
351.252
336.614
317.519
294.761
269.243
241.897
213.616
185.206
157.353
130.616
105.43
82.1279
60.9602
42.113
25.7188
11.8575
0.549166
-8.25913
-14.7067
-19.0277
-21.5507
-22.6858
-22.9003
-22.6831
-22.5038
-22.77
-23.7905
-25.7481
-28.6865
-32.5132
-37.017
-41.8984
-46.8085
-51.3898
-55.3166
-58.3275
-60.2478
-61.0011
-60.6081
-59.1759
-56.8797
-53.9399
-50.5986
-47.0976
-43.6606
-40.48
-37.7082
-35.4541
-33.7819
-32.7116
-32.2208
-32.2472
-32.691
-33.4199
-34.2756
-35.0831
-35.6634
-35.8476
-35.4923
-34.4941
-32.8011
-30.4198
-27.4165
-23.9117
-20.0695
-16.0816
-12.1483
-8.45924
-5.17545
-2.41439
-0.240473
1.33897
2.37179
2.95394
3.21829
3.32092
3.42653
3.69428
4.26542
5.25315
6.73529
8.74964
11.2921
14.3172
17.7415
21.4489
25.2986
29.1343
32.7953
36.1278
38.9961
41.2923
42.9439
43.9176
44.2206
43.8972
43.0223
41.6923
40.014
38.0938
36.0272
33.8912
31.7387
29.5969
27.469
25.3386
23.1762
20.9472
18.6199
16.1724
13.5985
10.9103
8.13829
5.32932
2.54117
-0.163692
-2.72528
-5.09236
-7.22673
-9.10456
-10.7144
-12.0525
-13.1157
-13.8952
-14.3714
-14.5132
-14.2821
-13.6415
-12.571
-11.0821
-9.23239
-7.13372
-4.94944
-2.87553
-1.10266
0.241913
1.16931
1.91256
3.00482
5.33359
10.1496
19.0107
33.6458
55.7352
86.62
126.968
176.442
233.438
294.944
356.587
412.899
457.8
485.266
490.099
468.697
419.705
344.437
246.983
133.954
13.8967
-103.583
-208.859
-293.361
-350.542
-376.605
-370.903
-335.954
-277.086
-201.756
-118.644
-36.6394
36.1415
93.2042
130.28
145.635
140.06
116.571
79.8704
35.6575
-10.1225
-51.9902
-85.5256
-107.78
-117.476
-114.98
-102.09
-81.6594
-57.1324
-32.0552
-9.61897
7.70586
18.4099
22.0409
19.1576
11.1609
0.0345877
-11.9624
-22.6102
-30.007
-32.7827
-30.2245
-22.3079
-9.63625
6.69551
25.2883
44.6503
63.4025
80.4521
95.1129
107.161
116.824
124.707
131.671
138.686
146.676
156.378
168.24
182.358
198.471
216.004
234.144
251.955
268.485
282.884
294.475
302.815
307.698
309.132
307.29
302.437
294.86
284.812
272.469
257.926
241.208
222.32
201.292
178.248
153.451
127.333
100.505
73.7256
47.8578
23.7923
2.36701
-15.7152
-29.9574
-40.118
-46.233
-48.6074
-47.7781
-44.4526
-39.4317
-33.5271
-27.4815
-21.9033
-17.2203
-13.6575
-11.24
-9.81865
-9.11277
-8.76521
-8.40098
-7.68283
-6.35713
-4.2853
-1.45805
2.0082
5.89078
9.89282
13.6828
16.9364
19.375
20.7971
21.0981
20.278
18.4366
15.7575
12.4837
8.88859
5.24629
1.80373
-1.24148
-3.7561
-5.67803
-7.01515
-7.83681
-8.25993
-8.43152
-8.50979
-8.64581
-8.9675
-9.56715
-10.4933
-11.7474
-13.2852
-15.0222
-16.8428
-18.6115
-20.1857
-21.4275
-22.2152
-22.4519
-22.0726
-21.049
-19.3926
-17.1563
-14.435
-11.3632
-8.1112
-4.87636
-1.8716
0.690531
2.61653
3.75172
3.99872
3.33195
1.80562
-0.4467
-3.22164
-6.26424
-9.29304
-12.0289
-14.2246
-15.6899
-16.3117
-16.0629
-15.0031
-13.2674
-11.0486
-8.57211
-6.06958
-3.75309
-1.79359
-0.305829
0.658704
1.11091
1.11582
0.778911
0.229063
-0.399049
-0.980869
-1.41416
-1.62627
-1.57617
-1.25162
-0.662663
0.166956
1.20896
2.43856
3.84018
5.41025
7.15675
9.09594
11.2467
13.6235
16.2283
19.0427
22.0213
25.086
28.1251
30.9947
33.5263
35.5382
36.8514
37.3076
36.7882
35.2307
32.6416
29.1026
24.7694
19.8632
14.6541
9.43951
4.51852
0.165844
-3.39212
-5.99639
-7.56756
-8.10978
-7.70628
-6.50729
-4.71179
-2.54577
-0.239401
1.99381
3.97374
5.56434
6.67757
7.27065
7.33799
6.89992
5.99142
4.65424
2.9364
0.902498
-1.34268
-3.61649
-5.60898
-6.82758
-6.54626
-3.77344
2.74449
14.467
32.9376
59.5909
95.4968
141.065
195.749
257.805
324.162
390.452
451.246
500.492
532.127
540.805
522.639
475.858
401.266
302.412
185.44
58.5885
-68.591
-186.221
-285.156
-357.981
-399.815
-408.819
-386.347
-336.707
-266.602
-184.299
-98.659
-18.1385
50.0958
100.854
131.328
141.193
132.406
108.755
75.234
37.3346
0.342402
-31.2664
-54.2705
-66.9495
-69.1199
-61.9775
-47.7851
-29.4615
-10.1314
7.30174
20.5099
27.9836
29.1459
24.3349
14.6711
1.83827
-12.1854
-25.4076
-36.0747
-42.8694
-45.0317
-42.3963
-35.3498
-24.7212
-11.6267
2.70616
17.1096
30.6203
42.5815
52.692
61.0023
67.8627
73.8349
79.5829
85.7596
92.9041
101.363
111.246
122.412
134.498
146.964
159.168
170.443
180.166
187.824
193.046
195.623
195.495
192.727
187.468
179.917
170.284
158.776
145.594
130.94
115.044
98.1821
80.6954
62.9946
45.546
28.8427
13.3624
-0.479852
-12.3763
-22.1603
-29.8224
-35.5067
-39.4861
-42.1225
-43.8146
-44.9452
-45.8324
-46.6939
-47.628
-48.6134
-49.5274
-50.1786
-50.3481
-49.8332
-48.4875
-46.2499
-43.1608
-39.3619
-35.0812
-30.6057
-26.2458
-22.2971
-19.0047
-16.5355
-14.9605
-14.2513
-14.2878
-14.8783
-15.787
-16.7652
-17.5821
-18.0521
-18.0529
-17.5354
-16.5226
-15.0999
-13.3975
-11.5685
-9.76616
-8.12292
-6.7344
-5.64978
-4.86964
-4.35084
-4.0172
-3.77417
-3.52497
-3.18602
-2.69941
-2.0409
-1.22263
-0.29036
0.683997
1.61329
2.40788
2.98829
3.29621
3.30243
3.0108
2.4581
1.71001
0.853926
-0.0103583
-0.780824
-1.36311
-1.67899
-1.67262
-1.31394
-0.599055
0.452247
1.80152
3.39828
5.18728
7.11521
9.13557
11.2109
13.3121
15.4142
17.4902
19.5038
21.4019
23.1098
24.5286
25.5396
26.0128
25.8244
24.881
23.1533
20.7158
17.7936
14.8095
12.4267
11.5749
13.4482
19.4586
31.1326
49.942
77.0728
113.149
157.944
210.135
267.146
325.155
379.283
423.993
453.677
463.341
449.338
409.989
346.023
260.725
159.761
50.6755
-57.8787
-157.08
-238.928
-297.141
-327.852
-330.008
-305.423
-258.492
-195.602
-124.342
-52.5936
12.3485
64.5499
99.9934
116.875
115.62
98.6318
69.8325
34.0582
-3.59894
-38.421
-66.5904
-85.5566
-94.214
-92.8834
-83.1185
-67.3778
-48.6132
-29.8353
-13.7116
-2.24488
3.43537
3.15141
-2.37201
-11.668
-22.7692
-33.4931
-41.7323
-45.7125
-44.1884
-36.5594
-22.8966
-3.88646
19.2953
45.1569
72.0865
98.5431
123.221
145.171
163.864
179.197
191.451
201.203
209.208
216.277
223.155
230.426
238.44
247.285
256.79
266.56
276.041
284.593
291.571
296.398
298.62
297.947
294.27
287.651
278.301
266.54
252.75
237.327
220.637
202.983
184.585
165.582
146.037
125.973
105.398
84.3526
62.9341
41.3267
19.8089
-1.25286
-21.4271
-40.2527
-57.2834
-72.1332
-84.5178
-94.2856
-101.435
-106.112
-108.599
-109.278
-108.596
-107.016
-104.976
-102.85
-100.916
-99.3456
-98.1961
-97.4191
-96.8778
-96.3704
-95.6572
-94.4889
-92.6345
-89.9068
-86.1844
-81.4301
-75.7021
-69.158
-62.0496
-54.7074
-47.5152
-40.8757
-35.1706
-30.7179
-27.7329
-26.298
-26.344
-27.6497
-29.8581
-32.51
-35.091
-37.0861
-38.0355
-37.5835
-35.5151
-31.7759
-26.4724
-19.8551
-12.2858
-4.19598
3.95951
11.7465
18.7884
24.7937
29.5712
33.0339
35.1945
36.1533
36.0826
35.2098
33.8007
32.1434
30.5335
29.2586
28.5838
28.7358
29.8871
32.1418
35.5233
39.9671
45.3184
51.3377
57.7136
64.0833
70.0605
75.27
79.3881
82.1896
83.5981
83.7392
82.9916
82.029
81.8424
83.7302
89.2419
100.064
117.841
143.941
179.178
223.523
275.863
333.845
393.859
451.21
500.472
536.02
552.676
546.397
514.896
458.112
378.426
280.59
171.348
58.7953
-48.4622
-142.228
-215.606
-263.735
-284.288
-277.667
-246.869
-197.065
-134.945
-67.9119
-3.24734
52.664
94.9543
120.675
128.948
120.871
99.1976
67.865
31.4229
-5.54917
-38.9709
-65.6756
-83.6745
-92.2517
-91.8983
-84.109
-71.0799
-55.3573
-39.4819
-25.6758
-15.6035
-10.229
-9.77547
-13.781
-21.2329
-30.7551
-40.8189
-49.9498
-56.9031
-60.792
-61.1566
-57.9712
-51.5982
-42.6975
-32.1101
-20.731
-9.39119
1.24102
10.7251
18.8778
25.7643
31.6579
36.9739
42.1903
47.7656
54.066
61.3096
69.5357
78.6002
88.1962
97.8957
107.204
115.616
122.673
127.997
131.314
132.464
131.383
128.096
122.688
115.3
106.111
95.3492
83.2917
70.2748
56.6966
43.0124
29.718
17.3221
6.30789
-2.90887
-10.0229
-14.8753
-17.4778
-18.0214
-16.8667
-14.5171
-11.5755
-8.68991
-6.4909
-5.52895
-6.21565
-8.77582
-13.2154
-19.31
-26.6159
-34.5058
-42.2265
-48.9729
-53.9744
-56.5814
-56.3445
-53.0753
-46.8822
-38.1733
-27.6259
-16.1241
-4.67021
5.7204
14.1277
19.8268
22.3663
21.6157
17.7763
11.355
3.10361
-6.06693
-15.1878
-23.3364
-29.7311
-33.8065
-35.2616
-34.0769
-30.4995
-25.0017
-18.2162
-10.8605
-3.65536
2.7498
7.83946
11.2753
12.9177
12.8238
11.2253
8.48762
5.05816
1.408
-2.02462
-4.88325
-6.92881
-8.05802
-8.30289
-7.81193
-6.8161
-5.5845
-4.3764
-3.39664
-2.76103
-2.47719
-2.44356
-2.46708
-2.29681
-1.66863
-0.354182
1.79331
4.80327
8.56775
12.8403
17.2546
21.36
24.6712
26.7247
27.1388
25.6701
22.2653
17.1046
10.6365
3.60237
-2.95326
-7.69146
-9.01602
-5.14917
5.74425
25.3788
55.1194
95.7157
147.03
207.797
275.472
346.211
415.025
476.126
523.452
551.326
555.166
532.148
481.726
405.909
309.236
198.436
81.7982
-31.6789
-133.245
-215.346
-272.429
-301.519
-302.475
-277.918
-232.836
-173.93
-108.793
-45.027
10.593
52.8033
78.3191
86.0382
76.9762
53.9618
21.1451
-16.6067
-54.3456
-87.6325
-113.014
-128.341
-132.898
-127.351
-113.539
-94.1279
-72.2121
-50.8851
-32.8541
-20.1319
-13.8406
-14.1389
-20.2753
-30.7481
-43.5456
-56.4311
-67.2324
-74.1007
-75.7089
-71.3696
-61.064
-45.3868
-25.4202
-2.55946
21.6848
45.8802
68.8383
89.7337
108.166
124.164
138.125
150.728
162.798
175.18
188.605
203.588
220.355
238.814
258.56
278.919
299.024
317.897
334.55
348.073
357.705
362.892
363.314
358.891
349.771
336.298
318.972
298.409
275.298
250.362
224.331
197.912
171.776
146.532
122.719
100.786
81.0833
63.8477
49.195
37.1182
27.4912
20.0806
14.5652
10.5616
7.65511
5.43243
3.51339
1.5793
-0.605409
-3.18
-6.18396
-9.56334
-13.1859
-16.8635
-20.3782
-23.5101
-26.0637
-27.8888
-28.8957
-29.0623
-28.4329
-27.1104
-25.2418
-23.0006
-20.5676
-18.113
-15.7807
-13.6784
-11.8715
-10.3833
-9.1992
-8.27479
-7.5463
-6.94154
-6.39048
-5.83401
-5.23032
-4.55829
-3.81796
-3.02835
-2.22326
-1.4456
-0.74117
-0.152687
0.285471
0.551109
0.636425
0.548476
0.308009
-0.0530482
-0.494998
-0.974212
-1.44689
-1.87234
-2.2154
-2.44781
-2.54838
-2.50205
-2.29781
-1.92588
-1.3745
-0.62684
0.341256
1.56193
3.07385
4.91813
7.1318
9.73908
12.7414
16.1074
19.7646
23.5939
27.4296
31.0652
34.2656
36.7864
38.3968
38.9053
38.184
36.1886
32.9706
28.68
23.5573
17.9155
12.1137
6.52559
1.506
-2.63982
-5.68198
-7.48372
-8.01003
-7.32715
-5.59379
-3.04569
0.0244708
3.28982
6.41295
9.06921
10.9687
11.8765
11.6306
10.1572
7.48207
3.73697
-0.840849
-5.91763
-11.0816
-15.8716
-19.814
-22.4664
-23.4631
-22.559
-19.6649
-14.8713
-8.45498
-0.865611
7.30897
15.3984
22.7247
28.6912
32.8817
35.1597
35.7601
35.36
35.1149
36.6442
41.9506
53.2612
72.7871
102.409
143.317
195.646
258.165
328.095
401.099
471.515
532.802
578.213
601.586
598.171
565.363
503.224
414.714
305.548
183.713
58.6732
-59.6388
-161.9
-240.419
-289.967
-308.304
-296.347
-257.966
-199.439
-128.652
-54.1462
15.8557
74.3328
116.151
138.485
140.935
125.361
95.4563
56.1517
12.9187
-28.924
-64.8218
-91.4471
-106.968
-111.109
-105.017
-90.963
-71.9364
-51.1922
-31.8102
-16.3218
-6.44444
-2.94395
-5.63123
-13.4776
-24.8233
-37.6429
-49.8294
-59.4595
-65.0104
-65.5062
-60.5843
-50.4816
-35.9507
-18.1226
1.66228
22.0331
41.7544
59.8605
75.7463
89.2048
100.413
109.873
118.312
126.566
135.459
145.683
157.708
171.723
187.605
204.935
223.042
241.075
258.097
273.177
285.482
294.352
299.353
300.295
297.231
290.419
280.273
267.294
252.005
234.889
216.343
196.66
176.03
154.564
132.336
109.437
86.0244
62.3587
38.8261
15.9336
-5.71811
-25.483
-42.7311
-56.9147
-67.6294
-74.6608
-78.0107
-77.899
-74.7407
-69.1027
-61.6451
-53.0561
-43.9878
-35.0011
-26.5264
-18.8418
-12.0718
-6.20406
-1.12014
3.36403
7.45466
11.3391
15.153
18.9586
22.7373
26.3961
29.7851
32.7242
35.0338
36.5643
37.2208
36.9797
35.8947
34.092
31.7556
29.1061
26.3748
23.7775
21.491
19.6359
18.2667
17.3702
16.8719
16.6495
16.5505
16.4127
16.0835
15.4374
14.3883
12.8966
10.9701
8.65921
6.04777
3.24047
0.349167
-2.5203
-5.27905
-7.86254
-10.2338
-12.3821
-14.3184
-16.0672
-17.6577
-19.115
-20.4528
-21.6694
-22.7464
-23.6524
-24.3479
-24.7944
-24.9619
-24.8377
-24.4319
-23.7797
-22.9405
-21.9928
-21.0262
-20.1313
-19.3889
-18.8606
-18.5805
-18.5516
-18.7445
-19.1006
-19.5382
-19.9613
-20.2694
-20.3674
-20.1749
-19.6342
-18.7146
-17.416
-15.7683
-13.8291
-11.6787
-9.41348
-7.13783
-4.95563
-2.96137
-1.232
0.17998
1.25164
1.99225
2.4431
2.67405
2.77705
2.85675
3.01926
3.36016
3.9534
4.84238
6.03466
7.50094
9.17833
10.9775
12.7923
14.5113
16.0285
17.2536
18.1202
18.5915
18.665
18.3738
17.7866
17.0038
16.151
15.3678
14.7936
14.55
14.7228
15.3458
16.3892
17.7556
19.2846
20.7678
21.9718
22.6668
22.6579
21.8137
20.0882
17.5325
14.2945
10.6047
6.75164
3.04727
-0.211053
-2.77875
-4.49623
-5.3106
-5.28297
-4.57844
-3.43771
-2.13027
-0.891283
0.153852
1.07056
2.19175
4.17664
8.03514
15.1005
26.9345
45.1571
71.2019
106.017
149.742
201.424
258.808
318.294
375.079
423.51
457.651
471.977
462.14
425.669
362.515
275.316
169.341
52.0869
-67.4465
-179.697
-275.593
-347.575
-390.442
-401.925
-382.9
-337.225
-271.232
-192.934
-111.074
-34.1195
30.6475
77.8639
104.543
110.226
96.8306
68.2257
29.6185
-13.1712
-54.4458
-89.2857
-114.054
-126.7
-126.845
-115.657
-95.5494
-69.7579
-41.8602
-15.2987
7.0317
23.0874
31.8447
33.3262
28.495
19.043
7.1104
-5.02322
-15.2353
-21.8087
-23.6062
-20.1574
-11.6551
1.1302
16.999
34.5116
52.1894
68.7045
83.0338
94.5621
103.126
108.996
112.806
115.437
117.884
121.107
125.9
132.793
141.98
153.308
166.3
180.217
194.152
207.135
218.238
226.67
231.842
233.408
231.274
225.573
216.625
204.875
190.838
175.038
157.974
140.091
121.776
103.365
85.1583
67.4389
50.4832
34.5673
19.9613
6.9144
-4.36572
-13.736
-21.138
-26.6114
-30.2964
-32.4252
-33.3021
-33.2741
-32.6973
-31.9014
-31.1581
-30.6578
-30.4955
-30.6703
-31.0955
-31.6195
-32.054
-32.2046
-31.9014
-31.0242
-29.5194
-27.4069
-24.7772
-21.7774
-18.5915
-15.4156
-12.433
-9.79275
-7.5932
-5.87469
-4.6199
-3.76235
-3.20101
-2.8184
-2.49933
-2.14752
-1.69765
-1.12155
-0.427978
0.343376
1.13225
1.87051
2.49491
2.95785
3.23444
3.32513
3.25362
3.06108
2.7977
2.51341
2.24931
2.03132
1.8667
1.74409
1.63647
1.50657
1.31356
1.0199
0.59731
0.0310458
-0.677985
-1.51332
-2.44494
-3.4326
-4.42973
-5.38736
-6.2574
-6.99505
-7.56044
-7.91956
-8.04493
-7.91636
-7.52202
-6.85989
-5.93944
-4.7831
-3.42707
-1.9211
-0.32659
1.28676
2.84593
4.28057
5.52941
6.54649
7.30636
7.80841
8.08058
8.18409
8.22144
8.35031
8.80513
9.92629
12.1929
16.2513
22.9264
33.201
48.1477
68.8027
95.9821
130.053
170.686
216.642
265.633
314.313
358.442
393.226
413.817
415.928
396.464
354.092
289.64
206.241
109.193
5.51705
-96.7355
-189.344
-264.833
-317.32
-343.18
-341.441
-313.858
-264.659
-200.006
-127.246
-54.0497
12.4463
66.3873
103.757
122.684
123.474
108.386
81.2009
46.6402
9.7311
-24.8115
-53.1074
-72.4834
-81.6641
-80.7744
-71.1708
-55.1386
-35.505
-15.2248
3.00813
17.0774
25.6567
28.3029
25.4306
18.1829
8.22673
-2.49632
-12.0273
-18.6245
-20.9504
-18.1929
-10.116
2.96028
20.2402
40.5778
62.6295
85.0159
106.473
125.977
142.837
156.738
167.742
176.248
182.912
188.549
194.02
200.121
207.485
216.507
227.299
239.676
253.171
267.076
280.51
292.488
302.01
308.139
310.081
307.249
299.317
286.254
268.327
246.099
220.384
192.194
162.664
132.974
104.258
77.532
53.6186
33.1035
16.3052
3.27322
-6.19175
-12.4956
-16.1933
-17.9214
-18.3294
-18.0162
-17.479
-17.0782
-17.0221
-17.3702
-18.0541
-18.9102
-19.7215
-20.2599
-20.3255
-19.7773
-18.5531
-16.6757
-14.2484
-11.439
-8.45749
-5.52965
-2.871
-0.664059
0.958587
1.92388
2.22005
1.89107
1.02529
-0.259836
-1.83457
-3.57294
-5.36603
-7.13109
-8.81556
-10.3962
-11.8734
-13.2632
-14.5862
-15.8579
-17.0798
-18.2337
-19.2791
-20.1548
-20.7833
-21.0782
-20.9527
-20.3289
-19.1471
-17.3727
-15.0026
-12.0676
-8.63276
-4.79461
-0.675587
3.58369
7.83351
11.9247
15.7177
19.0903
21.9432
24.2031
25.8234
26.7822
27.0785
26.7274
25.7547
24.1921
22.0741
19.4361
16.3147
12.7512
8.79534
4.51227
-0.0097862
-4.65146
-9.25543
-13.6232
-17.5178
-20.6757
-22.8271
-23.7262
-23.1867
-21.1171
-17.5487
-12.6465
-6.69469
-0.0513234
6.92887
13.9979
21.1298
28.6283
37.1982
47.9561
62.3553
82.0135
108.446
142.732
185.154
234.883
289.765
346.292
399.786
444.804
475.742
487.558
476.512
440.804
381.01
300.224
203.876
99.2277
-5.3881
-101.486
-181.385
-239.072
-270.86
-275.758
-255.511
-214.309
-158.222
-94.4382
-30.401
27.0271
72.2856
101.635
113.425
108.098
87.9455
56.6722
18.8288
-20.7975
-57.7619
-88.4405
-110.359
-122.347
-124.512
-118.068
-105.033
-87.8774
-69.1494
-51.1421
-35.6373
-23.7499
-15.8816
-11.7768
-10.6588
-11.418
-12.8172
-13.6827
-13.0564
-10.2909
-5.08342
2.54774
12.3302
23.8313
36.5576
50.0448
63.9226
77.9504
92.0197
106.131
120.351
134.763
149.414
164.28
179.246
194.097
208.544
222.246
234.857
246.067
255.637
263.426
269.398
273.623
276.245
277.455
277.441
276.35
274.246
271.087
266.712
260.853
253.168
243.283
230.855
215.638
197.545
176.696
153.451
128.41
102.39
76.3683
51.4038
28.5446
8.72965
-7.30237
-19.0843
-26.4649
-29.6205
-29.0319
-25.4304
-19.7193
-12.8807
-5.87847
0.431987
5.37602
8.50864
9.63501
8.8026
6.26781
2.44287
-2.16931
-7.04398
-11.6988
-15.7462
-18.9295
-21.1384
-22.4058
-22.8863
-22.821
-22.4951
-22.1919
-22.1524
-22.542
-23.4305
-24.7858
-26.4818
-28.3176
-30.0465
-31.4088
-32.1652
-32.1262
-31.1739
-29.2752
-26.4836
-22.9323
-18.819
-14.3854
-9.89476
-5.60948
-1.77202
1.41044
3.77628
5.21493
5.66827
5.12883
3.63604
1.27123
-1.8476
-5.57105
-9.72348
-14.1083
-18.5135
-22.718
-26.4986
-29.6377
-31.9324
-33.2039
-33.3082
-32.1469
-29.6779
-25.9236
-20.9773
-15.0046
-8.23861
-0.969939
6.47067
13.7344
20.4798
26.3998
31.2459
34.8489
37.131
38.1112
37.9
36.6865
34.7176
32.2733
29.6394
27.0817
24.8243
23.0351
21.8201
21.2302
21.2797
21.9796
23.3832
25.6422
29.0654
34.1714
41.7206
52.7098
68.3145
89.7661
118.163
154.228
198.031
248.738
304.419
361.983
417.277
465.379
501.057
519.374
516.339
489.528
438.565
365.378
274.179
171.145
63.8315
-39.6083
-131.303
-204.522
-254.405
-278.463
-276.794
-251.987
-208.742
-153.256
-92.4668
-33.2466
18.3431
57.6594
81.8756
90.139
83.4846
64.5352
37.0395
5.31823
-26.3078
-54.0353
-74.9847
-87.4538
-91.0018
-86.3682
-75.2519
-59.9906
-43.1887
-27.3467
-14.5371
-6.16455
-2.83294
-4.32703
-9.70111
-17.4543
-25.7629
-32.7351
-36.6546
-36.1829
-30.4984
-19.3616
-3.10237
17.4588
41.1432
66.577
92.3618
117.232
140.181
160.544
178.026
192.695
204.918
215.28
224.476
233.211
242.1
251.594
261.932
273.123
284.95
297.009
308.749
319.536
328.709
335.633
339.743
340.584
337.825
331.28
320.903
306.791
289.174
268.401
244.933
219.32
192.19
164.218
136.112
108.575
82.2757
57.821
35.7199
16.36
-0.0127969
-13.3048
-23.5744
-31.0209
-35.9636
-38.8116
-40.0286
-40.0942
-39.4676
-38.5541
-37.6797
-37.0747
-36.8673
-37.087
-37.6775
-38.5165
-39.4398
-40.2677
-40.8299
-40.9866
-40.6445
-39.7651
-38.3659
-36.5148
-34.319
-31.9099
-29.4276
-27.0047
-24.7544
-22.7612
-21.0774
-19.7236
-18.6935
-17.9612
-17.4901
-17.2408
-17.1783
-17.2745
-17.5086
-17.8639
-18.3211
-18.8521
-19.4137
-19.9438
-20.3614
-20.572
-20.4762
-19.9817
-19.0162
-17.5388
-15.5478
-13.0827
-10.2204
-7.06676
-3.74297
-0.371553
2.9374
6.09657
9.04696
11.7579
14.2219
16.4452
18.4368
20.1978
21.7131
22.9477
23.8482
24.3488
24.3816
23.8892
22.8366
21.2214
19.0801
16.4889
13.5601
10.4328
7.26136
4.20118
1.39521
-1.03784
-3.01213
-4.47935
-5.42927
-5.8864
-5.90378
-5.55492
-4.925
-4.10259
-3.17245
-2.2101
-1.27822
-0.424795
0.317195
0.928771
1.40302
1.74235
1.95531
2.05308
2.04614
1.94164
1.74194
1.44468
1.04452
0.535815
-0.0844817
-0.815093
-1.65056
-2.5834
-3.60716
-4.71769
-5.9089
-7.15821
-8.39774
-9.469
-10.0635
-9.65665
-7.45037
-2.3428
7.0508
22.3063
45.0159
76.5314
117.648
168.271
227.117
291.53
357.46
419.658
472.095
508.577
523.498
512.612
473.738
407.25
316.289
206.628
86.1932
-35.7149
-149.398
-245.816
-317.584
-359.773
-370.42
-350.684
-304.632
-238.691
-160.849
-79.7102
-3.52804
60.6707
107.762
134.937
141.818
130.281
104.034
68.0163
27.7044
-11.578
-45.2709
-70.038
-84.0341
-86.9656
-79.9557
-65.2474
-45.798
-24.8244
-5.36126
10.1134
19.9454
23.4405
20.8657
13.3276
2.55709
-9.36542
-20.3031
-28.3368
-31.9872
-30.364
-23.229
-10.9756
5.46794
24.7898
45.4804
66.025
85.0815
101.623
115.032
125.138
132.202
136.851
139.977
142.609
145.785
150.424
157.226
166.596
178.604
192.988
209.184
226.382
243.613
259.835
274.02
285.244
292.748
295.988
294.662
288.711
278.306
263.816
245.763
224.781
201.564
176.827
151.271
125.557
100.288
75.9986
53.1576
32.1639
13.3516
-3.0092
-16.7128
-27.6219
-35.6743
-40.8903
-43.3806
-43.3498
-41.0955
-37.0002
-31.5147
-25.1358
-18.3765
-11.734
-5.65653
-0.512877
3.43282
6.03897
7.29502
7.31946
6.34685
4.70419
2.77803
0.974524
-0.323823
-0.800683
-0.242809
1.43314
4.16757
7.76099
11.8936
16.1598
20.1136
23.3202
25.4075
26.1103
25.3023
23.0123
19.4211
14.8406
9.6778
4.38725
-0.580694
-4.83091
-8.06674
-10.1206
-10.968
-10.7239
-9.62078
-7.97314
-6.13172
-4.43489
-3.16386
-2.50837
-2.54779
-3.24997
-4.48752
-6.06801
-7.77261
-9.39621
-10.7822
-11.846
-12.5843
-13.0679
-13.4216
-13.794
-14.3236
-15.1075
-16.1771
-17.4863
-18.9131
-20.274
-21.3498
-21.9174
-21.7834
-20.8142
-18.9585
-16.2594
-12.8534
-8.95851
-4.85222
-0.842358
2.76472
5.69516
7.73398
8.74414
8.67663
7.57138
5.54967
2.79996
-0.440878
-3.90859
-7.33296
-10.4578
-13.0586
-14.9561
-16.0259
-16.2034
-15.4839
-13.9181
-11.6036
-8.67402
-5.28539
-1.60279
2.21253
6.01412
9.67826
13.1087
16.238
19.0255
21.453
23.5191
25.2324
26.6057
27.6505
28.3739
28.7774
28.8575
28.6084
28.0253
27.1083
25.8663
24.3196
22.5015
20.4582
18.2472
15.9345
13.5908
11.2869
9.08908
7.05472
5.22841
3.63898
2.29771
1.19786
0.315818
-0.386139
-0.955525
-1.44411
-1.90168
-2.36977
-2.87618
-3.4311
-4.02545
-4.63219
-5.21067
-5.71378
-6.09737
-6.3305
-6.40484
-6.34095
-6.18907
-6.02177
-5.91623
-5.92456
-6.03198
-6.10476
-5.8328
-4.67496
-1.81926
3.82722
13.6028
28.9956
51.4802
82.2883
122.13
170.898
227.403
289.197
352.535
412.525
463.485
499.488
515.046
505.851
469.464
405.84
317.599
209.966
90.3752
-32.2304
-148.327
-248.844
-326.164
-374.966
-392.788
-380.255
-340.921
-280.787
-207.534
-129.597
-55.1906
8.581
56.4363
85.3631
94.768
86.328
63.5853
31.3543
-4.97232
-40.1235
-69.5706
-89.9986
-99.584
-98.0627
-86.5986
-67.4894
-43.7613
-18.7131
4.52657
23.3766
36.074
41.8142
40.7579
33.9153
22.937
9.84644
-3.24648
-14.4114
-22.1126
-25.3505
-23.721
-17.3927
-7.01599
6.41805
21.7426
37.7812
53.4927
68.0787
81.0444
92.2122
101.691
109.813
117.05
123.924
130.922
138.43
146.687
155.765
165.572
175.878
186.347
196.584
206.173
214.714
221.842
227.246
230.659
231.86
230.653
226.866
220.348
210.981
198.704
183.546
165.663
145.37
123.155
99.6788
75.7421
52.2334
30.0539
10.0341
-7.14906
-21.0414
-31.4564
-38.4895
-42.499
-44.0562
-43.8711
-42.7044
-41.2768
-40.1878
-39.8538
-40.4723
-42.016
-44.2553
-46.8049
-49.1878
-50.9067
-51.5148
-50.6764
-48.2108
-44.1155
-38.5666
-31.8976
-24.5607
-17.0752
-9.97005
-3.72825
1.26213
4.74397
6.61139
6.91313
5.83945
3.69555
0.864942
-2.23236
-5.18216
-7.61461
-9.23533
-9.8468
-9.35874
-7.78764
-5.24654
-1.92707
1.92379
6.02929
10.1084
13.8986
17.1747
19.7619
21.5436
22.463
22.5203
21.7654
20.2888
18.2101
15.6665
12.8025
9.76066
6.67402
3.66111
0.822601
-1.76025
-4.02573
-5.93093
-7.4502
-8.57345
-9.30418
-9.65753
-9.65843
-9.33967
-8.73999
-7.90203
-6.87021
-5.68839
-4.39746
-3.033
-1.62299
-0.1863
1.26761
2.73685
4.22249
5.72078
7.21304
8.65475
9.96681
11.0326
11.705
11.8273
11.2697
9.98241
8.06082
5.81616
3.83877
3.03891
4.64751
10.1606
21.2157
39.3982
65.987
101.665
146.232
198.373
255.531
313.937
368.818
414.794
446.43
458.888
448.585
413.776
354.949
274.982
178.998
73.9376
-32.1219
-130.809
-214.363
-276.479
-312.986
-322.274
-305.412
-265.958
-209.478
-142.86
-73.4989
-8.46929
46.2215
86.208
109.115
114.651
104.453
81.7185
50.6938
16.0766
-17.5739
-46.3566
-67.4193
-79.1847
-81.3999
-75.0196
-61.9528
-44.7188
-26.0618
-8.57731
5.60406
15.0433
19.1095
17.9831
12.5572
4.25897
-5.17873
-13.9624
-20.467
-23.4235
-22.0436
-16.0736
-5.77674
8.14837
24.6956
42.706
61.0275
78.6574
94.8525
109.194
121.601
132.303
141.766
150.597
159.433
168.844
179.239
190.814
203.519
217.069
230.979
244.616
257.272
268.228
276.815
282.467
284.743
283.351
278.148
269.135
256.45
240.356
221.238
199.586
175.995
151.143
125.774
100.668
76.6009
54.3057
34.4205
17.4455
3.70641
-6.66977
-13.7601
-17.8327
-19.3139
-18.7414
-16.7066
-13.7952
-10.5336
-7.34566
-4.52759
-2.24088
-0.523273
0.685533
1.50894
2.09524
2.58238
3.07043
3.60528
4.17457
4.71508
5.12921
5.30665
5.14747
4.58246
3.58769
2.19131
0.471822
-1.4513
-3.433
-5.32128
-6.97625
-8.28683
-9.18284
-9.64108
-9.68503
-9.37855
-8.81505
-8.10379
-7.35562
-6.66996
-6.12463
-5.76953
-5.62447
-5.68066
-5.90537
-6.24825
-6.64866
-7.04263
-7.36898
-7.57403
-7.61494
-7.46161
-7.09757
-6.51993
-5.73881
-4.77623
-3.66465
-2.44514
-1.16521
0.123802
1.36953
2.52174
3.53549
4.37426
5.01268
5.43862
5.65432
5.67641
5.53459
5.26901
4.92654
4.55625
4.20438
3.90958
3.69868
3.5837
3.56036
3.6084
3.69365
3.77178
3.79314
3.7083
3.47336
3.05456
2.43152
1.59926
0.569711
-0.625704
-1.93002
-3.24855
-4.42839
-5.22856
-5.28242
-4.05696
-0.817613
5.38924
15.7216
31.4804
53.9902
84.4188
123.544
171.492
227.48
289.625
354.854
418.976
476.939
523.254
552.582
560.379
543.539
500.927
433.711
345.431
241.779
130.098
18.6642
-84.173
-170.873
-235.501
-274.337
-286.225
-272.617
-237.323
-186.001
-125.456
-62.8493
-4.9129
42.74
76.126
93.1799
93.8006
79.6691
53.8778
20.4344
-16.2927
-52.1122
-83.4711
-107.79
-123.643
-130.784
-130.014
-122.948
-111.691
-98.5001
-85.4605
-74.2197
-65.8131
-60.5892
-58.2367
-57.8996
-58.3541
-58.2199
-56.1729
-51.1316
-42.3954
-29.7205
-13.33
6.13711
27.7268
50.3042
72.7005
93.8565
112.943
129.447
143.217
154.459
163.694
171.674
179.276
187.382
196.76
207.966
221.267
236.604
253.589
271.55
289.6
306.734
321.939
334.298
343.09
347.854
348.427
344.938
337.781
327.536
314.891
300.542
285.101
269.028
252.579
235.806
218.581
200.657
181.752
161.643
140.253
117.709
94.3829
70.8763
47.9784
26.585
7.59707
-8.18733
-20.1736
-28.0481
-31.8229
-31.8405
-28.7405
-23.3908
-16.7953
-9.98887
-3.93364
0.571471
2.95808
2.92676
0.454512
-4.22684
-10.6761
-18.3051
-26.449
-34.4375
-41.6583
-47.6084
-51.928
-54.4179
-55.0383
-53.8942
-51.2081
-47.2862
-42.4816
-37.1586
-31.6613
-26.2888
-21.2785
-16.798
-12.9441
-9.74906
-7.19147
-5.20982
-3.71734
-2.61631
-1.81056
-1.21581
-0.767326
-0.42503
-0.176051
-0.034724
-0.0399437
-0.249777
-0.73337
-1.56044
-2.78903
-4.45256
-6.5476
-9.02394
-11.7786
-14.6552
-17.4499
-19.9243
-21.8242
-22.904
-22.9527
-21.8199
-19.4364
-15.8289
-11.1244
-5.54329
0.617456
7.01037
13.27
19.048
24.0457
28.0417
30.9096
32.6234
33.2518
32.9408
31.889
30.3182
28.4449
26.4552
24.4878
22.6253
20.8944
19.2751
17.7146
16.1452
14.5015
12.7363
10.8305
8.79844
6.68682
4.56823
2.53099
0.666736
-0.942227
-2.23401
-3.17525
-3.76542
-4.03704
-4.05205
-3.89509
-3.6648
-3.46404
-3.39046
-3.52807
-3.94072
-4.66785
-5.72274
-7.09314
-8.74375
-10.6199
-12.6515
-14.7562
-16.8418
-18.8078
-20.546
-21.9431
-22.8833
-23.2549
-22.9575
-21.9104
-20.0581
-17.3696
-13.8263
-9.39449
-3.98119
2.62323
10.8069
21.1867
34.6262
52.199
75.0816
104.366
140.803
184.511
234.685
289.389
345.469
398.654
443.867
475.716
489.138
480.087
446.193
387.25
305.484
205.513
93.9973
-20.9763
-130.724
-226.885
-302.327
-351.901
-372.98
-365.68
-332.771
-279.288
-211.897
-138.1
-65.3953
-0.485669
51.3764
86.8278
104.588
105.402
91.7491
67.3876
36.7857
4.52816
-25.2341
-49.2255
-65.3378
-72.7478
-71.8666
-64.1385
-51.7323
-37.1714
-22.9558
-11.2238
-3.49216
-0.500935
-2.17385
-7.68911
-15.6432
-24.2793
-31.7466
-36.3544
-36.7899
-32.2735
-22.6365
-8.31636
9.72531
30.1462
51.4075
71.9726
90.4959
105.978
117.869
126.115
131.137
133.756
135.073
136.314
138.675
143.172
150.514
161.028
174.616
190.779
208.673
227.21
245.17
261.337
274.606
284.089
289.17
289.543
285.204
276.421
263.674
247.594
228.89
208.287
186.47
164.043
141.509
119.259
97.5733
76.6425
56.5853
37.4753
19.3667
2.31697
-13.5949
-28.2562
-41.5164
-53.1901
-63.0683
-70.9358
-76.5943
-79.8871
-80.7238
-79.1007
-75.1146
-68.9673
-60.9599
-51.4773
-40.9641
-29.895
-18.7438
-7.95395
2.08607
11.0589
18.7269
24.9317
29.5887
32.6775
34.2323
34.3354
33.1144
30.7445
27.4515
23.5154
19.2676
15.0805
11.3462
8.4458
6.71066
6.38101
7.5678
10.2245
14.1347
18.9202
24.0702
28.991
33.07
35.7479
36.5883
35.3367
31.9591
26.654
19.8361
12.0904
4.10319
-3.42255
-9.85675
-14.7242
-17.7683
-18.9863
-18.6321
-17.1837
-15.2795
-13.6314
-12.9265
-13.7291
-16.398
-21.0293
-27.4332
-35.1482
-43.4911
-51.6355
-58.7099
-63.9024
-66.5583
-66.2598
-62.8779
-56.5901
-47.8629
-37.4017
-26.0738
-14.8151
-4.53037
3.99983
10.1962
13.7331
14.5606
12.8958
9.18577
4.04627
-1.81334
-7.67142
-12.8712
-16.8854
-19.3616
-20.1448
-19.2754
-16.9654
-13.5565
-9.46542
-5.12574
-0.930228
2.81711
5.93534
8.38323
10.2567
11.7676
13.2076
14.8999
17.1476
20.1827
24.1256
28.9571
34.511
40.4845
46.4691
51.9947
56.5841
59.8096
61.344
61.0015
58.7618
54.7766
49.356
42.9384
36.0472
29.238
23.044
17.9224
14.2094
12.0866
11.5618
12.4668
14.4712
17.1134
19.8434
22.0775
23.256
22.9016
20.6716
16.3977
10.1107
2.0466
-7.36733
-17.5439
-27.7842
-37.3367
-45.4646
-51.5137
-54.976
-55.5446
-53.1525
-47.9932
-40.5181
-31.4092
-21.5259
-11.8278
-3.27655
3.27667
7.21037
8.24719
6.55171
2.79769
-1.80852
-5.56112
-6.35384
-1.8493
10.2839
32.078
64.9405
109.329
164.469
228.17
296.781
365.324
427.834
477.882
509.252
516.693
496.65
447.867
371.771
272.54
156.842
33.245
-88.6401
-199.173
-289.732
-353.658
-386.965
-388.737
-361.157
-309.171
-239.839
-161.473
-82.6538
-11.2791
46.2602
85.6764
105.096
105.066
88.2757
59.0493
22.6859
-15.2589
-49.6599
-76.3949
-92.7446
-97.5845
-91.3639
-75.8937
-53.9861
-29.0038
-4.38307
16.808
32.2247
40.478
41.2259
35.1267
23.6709
8.92551
-6.771
-21.12
-32.1417
-38.3899
-39.0828
-34.1409
-24.1361
-10.1666
6.32141
23.7374
40.5504
55.4676
67.5687
76.3842
81.9124
84.5789
85.1488
84.6063
84.02
84.411
86.6407
91.3274
98.7992
109.083
121.923
136.827
153.127
170.039
186.73
202.369
216.168
227.414
235.488
239.875
240.179
236.136
227.627
214.704
197.604
176.77
152.845
126.661
99.2014
71.5423
44.7796
19.9468
-2.06767
-20.5926
-35.2262
-45.8623
-52.6877
-56.1486
-56.8941
-55.6997
-53.3838
-50.7237
-48.3829
-46.8556
-46.4343
-47.2018
-49.0467
-51.6991
-54.7796
-57.8557
-60.4969
-62.3238
-63.0453
-62.482
-60.574
-57.3764
-53.044
-47.8081
-41.9508
-35.7786
-29.599
-23.7005
-18.3384
-13.7243
-10.0196
-7.33087
-5.70711
-5.13741
-5.55011
-6.81406
-8.74329
-11.1062
-13.64
-16.0689
-18.1272
-19.5816
-20.2539
-20.0377
-18.9099
-16.9327
-14.2478
-11.0608
-7.61965
-4.18861
-1.02045
1.66906
3.72186
5.05136
5.64779
5.57497
4.95935
3.97289
2.81211
1.6759
0.744401
0.161443
0.021933
0.365346
1.1755
2.38624
3.89193
5.56145
7.25389
8.83413
10.1868
11.2269
11.9068
12.2184
12.1913
11.8878
11.3946
10.8149
10.2589
9.83626
9.64815
9.78045
10.2962
11.2272
12.5655
14.2542
16.1825
18.1853
20.0543
21.5619
22.5022
22.7478
22.319
21.4588
20.7002
20.9119
23.3044
29.3818
40.8243
59.2987
86.2035
122.369
167.751
221.168
280.139
340.873
398.454
447.228
481.369
495.573
485.779
449.832
387.955
302.969
200.186
86.9796
-27.9274
-135.381
-226.793
-295.092
-335.498
-346.035
-327.689
-284.233
-221.72
-147.729
-70.4647
2.16809
63.4104
108.309
134.123
140.449
129.059
103.501
68.5196
29.3922
-8.74892
-41.5085
-65.6793
-79.5049
-82.7392
-76.513
-63.0412
-45.2218
-26.1856
-8.85952
4.40425
12.0903
13.6505
9.49776
0.875477
-10.3686
-22.0678
-32.0385
-38.3598
-39.5971
-34.9461
-24.2874
-8.15253
12.3867
35.8842
60.7156
85.2782
108.17
128.33
145.123
158.368
168.314
175.564
180.969
185.503
190.127
195.68
202.777
211.754
222.631
235.132
248.715
262.642
276.052
288.048
297.778
304.499
307.635
306.804
301.838
292.774
279.834
263.395
243.957
222.1
198.459
173.689
148.447
123.373
99.0777
76.1299
55.0413
36.2519
20.113
6.8684
-3.36087
-10.5886
-14.9677
-16.7855
-16.4484
-14.4574
-11.3737
-7.77866
-4.23084
-1.2235
0.852624
1.73794
1.32075
-0.359899
-3.12618
-6.6874
-10.6777
-14.7018
-18.3835
-21.4123
-23.5803
-24.8075
-25.1491
-24.786
-23.9987
-23.1269
-22.523
-22.5015
-23.295
-25.0197
-27.6567
-31.0508
-34.9274
-38.9253
-42.641
-45.6785
-47.6989
-48.4618
-47.8559
-45.912
-42.7996
-38.8069
-34.307
-29.7143
-25.4381
-21.8365
-19.1777
-17.6127
-17.1607
-17.7112
-19.039
-20.8327
-22.7318
-24.3686
-25.4092
-25.5905
-24.7478
-22.8304
-19.9045
-16.1428
-11.8022
-7.19427
-2.64957
1.51731
5.03984
7.72468
9.46754
10.2586
10.1775
9.37933
8.07291
6.4956
4.88621
3.45985
2.3872
1.78004
1.68432
2.08098
2.89397
4.00402
5.26628
6.52974
7.65613
8.53656
9.1049
9.34765
9.31163
9.11186
8.94241
9.09337
9.97486
12.1468
16.348
23.5144
34.77
51.3748
74.6133
105.617
145.127
193.221
249.046
310.614
374.713
436.996
492.26
534.929
559.67
562.093
539.415
490.982
418.566
326.36
220.671
109.314
0.803359
-96.5684
-175.634
-231.126
-260.216
-262.755
-241.199
-200.223
-146.099
-85.9225
-26.7764
25.0395
64.6431
88.9904
97.0506
89.731
69.5822
40.3377
6.35613
-27.9556
-58.6681
-82.7447
-98.3061
-104.727
-102.572
-93.3838
-79.3845
-63.1114
-47.0574
-33.3514
-23.518
-18.3384
-17.8205
-21.2717
-27.4543
-34.7966
-41.6246
-46.3845
-47.8269
-45.1338
-37.9778
-26.5142
-11.3143
6.7449
26.6166
47.2248
67.5929
86.9453
104.773
120.86
135.27
148.301
160.417
172.162
184.074
196.604
210.05
224.516
239.895
255.876
271.979
287.605
302.099
314.813
325.164
332.681
337.035
338.045
335.674
330.008
321.227
309.578
295.347
278.844
260.388
240.309
218.947
196.658
173.818
150.822
128.084
106.024
85.0574
65.5796
47.9427
32.4381
19.2772
8.57466
0.336703
-5.54518
-9.29353
-11.236
-11.7881
-11.4263
-10.6552
-9.96796
-9.80504
-10.5153
-12.3232
-15.3061
-19.3867
-24.3402
-29.8186
-35.3887
-40.5813
-44.9454
-48.1007
-49.782
-49.8698
-48.4022
-45.5674
-41.6772
-37.1265
-32.3436
-27.739
-23.6602
-20.3569
-17.9622
-16.4905
-15.8509
-15.8737
-16.344
-17.0387
-17.7597
-18.3596
-18.757
-18.9394
-18.9553
-18.896
-18.8723
-18.989
-19.3207
-19.8947
-20.681
-21.5923
-22.493
-23.2166
-23.5881
-23.4484
-22.678
-21.2151
-19.0675
-16.3152
-13.1034
-9.62831
-6.11506
-2.79269
0.132119
2.4986
4.21001
5.24395
5.65335
5.55823
5.12908
4.56423
4.0641
3.80589
3.92187
4.48426
5.49836
6.90465
8.58925
10.4008
12.1713
13.738
14.9629
15.7483
16.0459
15.8593
15.2401
14.2786
13.0908
11.8039
10.5417
9.41147
8.49355
7.83424
7.44221
7.28843
7.30961
7.41477
7.4943
7.43103
7.11221
6.44157
5.35026
3.80569
1.81729
-0.561494
-3.23555
-6.07458
-8.92352
-11.6159
-13.9886
-15.8973
-17.2296
-17.9156
-17.934
-17.3133
-16.1278
-14.4892
-12.5341
-10.4086
-8.25152
-6.17583
-4.24821
-2.46612
-0.730713
1.18421
3.66562
7.29195
12.8524
21.3431
33.926
51.8392
76.2504
108.057
147.645
194.643
247.705
304.378
361.105
413.388
456.136
484.165
492.813
478.576
439.684
376.526
291.833
190.586
79.6386
-32.9187
-138.568
-229.258
-298.263
-340.901
-355.017
-341.172
-302.527
-244.432
-173.781
-98.225
-25.3301
38.2029
87.1835
118.364
130.629
124.931
104.006
71.9068
33.4375
-6.45174
-43.2264
-73.2285
-93.992
-104.388
-104.601
-95.9528
-80.6165
-61.2543
-40.6422
-21.3205
-5.31223
6.06407
12.274
13.5416
10.7324
5.1694
-1.58743
-7.96782
-12.5937
-14.4352
-12.9045
-7.88159
0.325056
11.0708
23.5035
36.7072
49.8389
62.241
73.5149
83.5488
92.5005
100.741
108.774
117.137
126.312
136.65
148.316
161.272
175.285
189.956
204.776
219.177
232.59
244.484
254.4
261.959
266.859
268.868
267.805
263.532
255.95
245.01
230.733
213.237
192.773
169.75
144.75
118.522
91.9578
66.0432
41.7854
20.1342
1.89741
-12.3352
-22.2493
-27.8371
-29.3976
-27.5044
-22.946
-16.6436
-9.55845
-2.5981
3.4667
8.06591
10.8682
11.7901
10.9781
8.76528
5.61304
2.04215
-1.43512
-4.37537
-6.45002
-7.47282
-7.40751
-6.35658
-4.53448
-2.22995
0.236662
2.5556
4.46427
5.77435
6.38709
6.29621
5.57933
4.3801
2.88421
1.2928
-0.203306
-1.44539
-2.32269
-2.78088
-2.82327
-2.50521
-1.92329
-1.20121
-0.474132
0.126475
0.485995
0.516798
0.164649
-0.588731
-1.72672
-3.20185
-4.94221
-6.8591
-8.85532
-10.8331
-12.7014
-14.3811
-15.8098
-16.9436
-17.7583
-18.2481
-18.4233
-18.3081
-17.9359
-17.3464
-16.581
-15.6805
-14.6819
-13.6168
-12.5107
-11.3829
-10.2477
-9.11537
-7.99405
-6.8917
-5.81769
-4.78413
-3.80668
-2.90469
-2.1007
-1.41909
-0.884213
-0.517904
-0.336726
-0.349163
-0.553145
-0.934234
-1.46482
-2.1046
-2.80247
-3.49986
-4.13514
-4.64869
-4.98785
-5.11057
-4.98706
-4.59847
-3.93252
-2.97686
-1.71136
-0.101476
1.90526
4.37788
7.39492
11.0317
15.3433
20.3461
26.0001
32.1956
38.7478
45.3998
51.8367
57.7092
62.6645
66.3831
68.6152
69.213
68.1541
65.5519
61.6504
56.8036
51.44
46.017
40.9707
36.6665
33.3582
31.1601
30.0365
29.8093
30.1831
30.7848
31.211
31.0785
30.0709
27.9748
24.7029
20.3002
14.9341
8.87031
2.43788
-4.01112
-10.1423
-15.6745
-20.4068
-24.2329
-27.1439
-29.2181
-30.6005
-31.4754
-32.0326
-32.4303
-32.7542
-32.9733
-32.8924
-32.1047
-29.9524
-25.5057
-17.5765
-4.78398
14.3178
41.0432
76.3211
120.409
172.614
231.083
292.704
353.18
407.299
449.394
473.962
476.365
453.521
404.472
330.733
236.353
127.653
12.6552
-99.7279
-200.648
-282.292
-338.739
-366.598
-365.337
-337.273
-287.221
-221.871
-148.962
-76.3827
-11.2963
40.5933
75.5575
92.0923
90.8882
74.5466
47.0954
13.3795
-21.5888
-53.2385
-77.9357
-93.3181
-98.4417
-93.7402
-80.8195
-62.1306
-40.5711
-19.0737
-0.232811
13.9881
22.4395
24.8481
21.7623
14.4
4.42687
-6.29976
-15.9856
-23.1206
-26.6422
-26.0243
-21.288
-12.9397
-1.85082
10.8999
24.1968
37.0477
48.7116
58.7805
67.2063
74.2734
80.5254
86.6592
93.4032
101.4
111.107
122.732
136.203
151.18
167.104
183.267
198.896
213.235
225.619
235.525
242.597
246.656
247.678
245.773
241.141
234.04
224.75
213.545
200.675
186.36
170.789
154.128
136.535
118.177
99.2385
79.9357
60.5205
41.2798
22.5284
4.59739
-12.1824
-27.4989
-41.0775
-52.6991
-62.2137
-69.5496
-74.7164
-77.8012
-78.9591
-78.3989
-76.3651
-73.1189
-68.9198
-64.0105
-58.6049
-52.8821
-46.9848
-41.0223
-35.0772
-29.2129
-23.4835
-17.9405
-12.6396
-7.64339
-3.02156
1.15187
4.80366
7.86803
10.2939
12.0515
13.1379
13.5804
13.4373
12.7967
11.7726
10.4988
9.12187
7.79095
6.64764
5.81378
5.37906
5.389
5.83508
6.64882
7.70159
8.81163
9.75873
10.3057
10.2249
9.32702
7.48763
4.66893
0.932161
-3.56114
-8.55998
-13.746
-18.7645
-23.2603
-26.9146
-29.4775
-30.7925
-30.8107
-29.5925
-27.297
-24.1613
-20.4727
-16.5368
-12.6456
-9.0493
-5.93563
-3.41662
-1.52557
-0.22299
0.589666
1.05048
1.31448
1.53057
1.82076
2.26372
2.88424
3.64959
4.47262
5.22116
5.73246
5.83084
5.3469
4.13602
2.09472
-0.826464
-4.61389
-9.18509
-14.3846
-19.9785
-25.6443
-30.9529
-35.3422
-38.085
-38.2593
-34.7353
-26.1972
-11.2189
11.5931
43.3853
84.7837
135.597
194.546
259.08
325.347
388.359
442.377
481.479
500.271
494.632
462.383
403.772
321.688
221.537
110.796
-1.73359
-106.858
-196.009
-262.21
-300.844
-310.156
-291.4
-248.623
-188.128
-117.682
-45.5807
20.3081
73.4061
109.085
125.06
121.477
100.704
66.8813
25.2831
-18.4008
-58.7761
-91.3599
-113.034
-122.294
-119.273
-105.576
-83.9314
-57.7553
-30.6564
-5.97234
13.6216
26.3836
31.6374
29.7602
22.0428
10.4505
-2.67755
-14.9463
-24.202
-28.774
-27.6355
-20.4738
-7.66687
9.82108
30.6057
53.0847
75.6485
96.872
115.668
131.382
143.832
153.279
160.353
165.935
171.021
176.583
183.444
192.181
203.062
216.03
230.718
246.499
262.564
278.009
291.917
303.447
311.894
316.735
317.651
314.523
307.416
296.541
282.217
264.832
244.813
222.607
198.676
173.501
147.594
121.509
95.8467
71.2455
48.3591
27.8197
10.1916
-4.07929
-14.7131
-21.6312
-24.9739
-25.0973
-22.5465
-18.0087
-12.252
-6.05445
-0.135382
4.90661
8.63947
10.8237
11.4165
10.554
8.5158
5.67694
2.45316
-0.752737
-3.59782
-5.83421
-7.3296
-8.07205
-8.16013
-7.78099
-7.18003
-6.62662
-6.38004
-6.65957
-7.62145
-9.34457
-11.8253
-14.981
-18.6607
-22.6613
-26.7469
-30.6693
-34.1874
-37.0847
-39.1833
-40.3537
-40.5199
-39.6621
-37.8133
-35.0554
-31.5114
-27.3368
-22.7107
-17.8264
-12.8824
-8.07419
-3.58517
0.420833
3.80756
6.47337
8.35719
9.44248
9.75871
9.37963
8.41815
7.01788
5.34196
3.55988
1.83373
0.304936
-0.916904
-1.76209
-2.20491
-2.26334
-1.99434
-1.48541
-0.843183
-0.180328
0.397729
0.804954
0.984362
0.914262
0.914262
0.914262
0.914262
0.914262
0.914262
0.914262
0.914262
0.914262
0.914262
0.914262
0.914262
0.914262
0.914262
0.914262
0.914262
0.914262
0.914262
0.914262
0.914262
