-23.1699
-8.33048
8.09561
25.4559
42.9187
59.5366
74.3315
86.3881
94.9469
99.4824
99.759
95.8556
88.1581
77.3209
64.2033
49.7904
35.108
21.1414
8.76718
-1.298
-8.53049
-12.6157
-13.4516
-11.142
-5.98471
1.54777
10.833
21.1321
31.6323
41.5001
49.941
56.2633
59.9399
60.6601
58.3641
53.2558
45.7887
36.6254
26.5732
16.5033
7.26038
-0.424872
-6.01129
-9.20133
-9.96718
-8.54579
-5.40368
-1.17596
3.41282
7.63634
10.8523
12.5763
12.5359
10.6982
7.26983
2.66813
-2.53244
-7.67234
-12.0894
-15.2019
-16.5816
-16.0077
-13.4955
-9.29387
-3.85479
2.22283
8.26605
13.608
17.6641
19.9951
20.3484
18.6739
15.1131
9.96503
3.63499
-3.42603
-10.7811
-18.0588
-24.9887
-31.4178
-37.3066
-42.706
-47.7216
-52.4693
-57.0321
-61.4224
-65.5589
-69.2593
-72.252
-74.2052
-74.7688
-73.6237
-70.5314
-65.3774
-58.2013
-49.2106
-38.7758
-27.4066
-15.7124
-4.35076
6.0299
14.8474
21.6362
26.0856
28.062
27.611
24.9399
20.3798
14.3272
7.1692
-0.805933
-9.50355
-19.112
-30.1696
-43.5893
-60.623
-82.7504
-111.493
-148.158
-193.548
-247.668
-309.476
-376.735
-446.008
-512.813
-571.956
-618.015
-645.921
-651.575
-632.406
-587.796
-519.303
-430.629
-327.347
-216.381
-105.338
-1.73648
87.7418
157.901
205.502
229.491
230.99
213.035
180.126
137.647
91.234
46.1701
6.88001
-23.428
-42.9415
-51.2423
-49.1434
-38.4048
-21.3775
-0.632083
21.3783
42.5803
61.4428
77.0337
88.9795
97.3514
102.509
104.936
105.097
103.339
99.8489
94.6666
87.7443
79.0305
68.5584
56.5161
43.2822
29.4166
15.6095
2.59433
-8.95726
-18.5423
-25.916
-31.1492
-34.6425
-37.0948
-39.4267
-42.6695
-47.8333
-55.7714
-67.0597
-81.9056
-100.1
-121.014
-143.653
-166.739
-188.838
-208.502
-224.414
-235.518
-241.131
-241.002
-235.341
-224.785
-210.334
-193.236
-174.861
-156.555
-139.509
-124.647
-112.543
-103.385
-96.9828
-92.816
-90.1192
-87.9916
-85.5171
-81.879
-76.4564
-68.8915
-59.1198
-47.363
-34.0861
-19.929
-5.62097
8.1074
20.6037
31.3548
40.0222
46.4513
50.6552
52.7804
53.0613
51.7734
49.1928
45.5689
41.1114
35.9938
30.3678
24.3853
18.2199
12.0843
6.23696
0.976479
-3.37572
-6.50335
-8.12906
-8.04967
-6.16767
-2.51492
2.73462
9.26506
16.6322
24.2905
31.6315
38.0313
42.9045
45.7585
46.2456
44.206
39.6985
33.0134
24.6645
15.3588
5.94413
-2.6626
-9.56066
-13.9558
-15.2467
-13.0972
-7.48625
1.27053
12.5325
25.3781
38.679
51.1997
61.7129
69.1205
72.5686
71.5435
65.9375
56.0757
42.6995
26.905
10.0432
-6.40976
-20.9969
-32.4253
-39.6931
-42.1863
-39.7327
-32.6083
-21.4972
-7.40986
8.42848
24.7043
40.1423
53.6173
64.2388
71.4043
74.8163
74.4693
70.6111
63.6899
54.2929
43.0874
30.7686
18.0191
5.47937
-6.26879
-16.7106
-25.4014
-31.97
-36.1255
-37.6718
-36.5299
-32.7641
-26.6089
-18.4877
-9.01581
1.01729
10.6917
19.0254
25.0631
27.977
27.1669
22.3476
13.6088
1.43677
-13.307
-29.4541
-45.636
-60.4213
-72.4652
-80.6549
-84.2336
-82.8849
-76.7704
-66.5116
-53.121
-37.8868
-22.2278
-7.53358
4.98958
14.4486
20.3536
22.6572
21.7377
18.3287
13.4034
8.02405
3.17419
-0.411283
-2.40053
-2.98624
-2.95762
-3.70731
-7.16154
-15.6273
-31.5594
-57.2597
-94.5343
-144.344
-206.491
-279.392
-359.98
-443.776
-525.146
-597.738
-655.076
-691.232
-701.525
-683.129
-635.526
-560.71
-463.124
-349.306
-227.283
-105.786
6.63025
102.445
175.912
223.595
244.623
240.665
215.619
175.067
125.577
73.9344
26.4012
-11.9139
-37.5065
-48.7103
-45.7027
-30.3006
-5.58871
24.5607
56.011
84.8619
107.872
122.76
128.372
124.691
112.724
94.2836
71.6983
47.4978
24.1108
3.6079
-12.4861
-23.2966
-28.6209
-28.8738
-24.9757
-18.2028
-10.0205
-1.92179
4.71495
8.73755
9.29518
5.87701
-1.68236
-13.2249
-28.3115
-46.2791
-66.305
-87.4754
-108.853
-129.544
-148.751
-165.826
-180.302
-191.916
-200.606
-206.5
-209.882
-211.14
-210.711
-209.021
-206.425
-203.166
-199.347
-194.922
-189.723
-183.489
-175.922
-166.744
-155.755
-142.873
-128.17
-111.878
-94.3754
-76.1565
-57.7876
-39.8533
-22.9047
-7.4147
6.25413
17.8668
27.3174
34.6184
39.8807
43.2911
45.0894
45.5516
44.9769
43.6806
41.988
40.228
38.7209
37.7607
37.5909
38.3765
40.1774
42.928
46.4293
50.3561
54.2825
57.7222
60.1814
61.2161
60.4863
57.8008
53.1445
46.6855
38.7604
29.8397
20.4786
11.2585
2.7275
-4.65354
-10.5531
-14.7946
-17.3645
-18.4009
-18.1672
-17.0129
-15.3269
-13.4902
-11.8323
-10.5964
-9.91843
-9.81986
-10.216
-10.9371
-11.7596
-12.4426
-12.7648
-12.5581
-11.7323
-10.289
-8.32447
-6.01829
-3.61279
-1.38328
0.396437
1.48951
1.72817
1.0383
-0.546622
-2.88467
-5.73798
-8.79749
-11.7169
-14.1515
-15.7975
-16.4259
-15.9077
-14.2269
-11.4804
-7.86472
-3.65257
0.838897
5.2827
9.37628
12.8712
15.5949
17.463
18.4798
18.7286
18.3517
17.5239
16.4231
15.2011
13.9597
12.735
11.4931
10.1376
8.52958
6.5184
3.97904
0.850992
-2.82808
-6.90076
-11.086
-14.9963
-18.1754
-20.1543
-20.5168
-18.9683
-15.3957
-9.91182
-2.87424
5.12372
13.2928
20.7148
26.431
29.542
29.3089
25.2421
17.17
5.27583
-9.90135
-27.5025
-46.4195
-65.3943
-83.1351
-98.4373
-110.297
-118.002
-121.192
-119.882
-114.442
-105.544
-94.0737
-81.0318
-67.4226
-54.1548
-41.9611
-31.3451
-22.5614
-15.6264
-10.3566
-6.42714
-3.44058
-0.996197
1.24858
3.53194
5.96105
8.50626
11.0149
13.2406
14.8825
15.6268
15.1821
13.3005
9.77239
4.38996
-3.12552
-13.2249
-26.6412
-44.474
-68.2055
-99.6053
-140.497
-192.393
-256.025
-330.873
-414.764
-503.673
-591.792
-671.922
-736.154
-776.786
-787.324
-763.447
-703.748
-610.162
-487.971
-345.388
-192.753
-41.4534
97.2977
213.659
300.186
352.556
369.905
354.763
312.585
250.995
178.804
104.974
37.6336
-16.7404
-53.873
-71.9468
-71.5455
-55.3239
-27.4669
6.97769
42.7983
75.265
100.646
116.545
122.042
117.63
104.989
86.6342
65.499
44.5109
26.2144
12.4815
4.33721
1.90832
4.48969
10.7068
18.7455
26.6149
32.4072
34.5254
31.853
23.8521
10.5847
-7.33866
-28.8689
-52.669
-77.2837
-101.305
-123.518
-143.005
-159.21
-171.95
-181.389
-187.963
-192.296
-195.095
-197.046
-198.734
-200.573
-202.775
-205.343
-208.086
-210.67
-212.668
-213.626
-213.124
-210.825
-206.521
-200.143
-191.768
-181.602
-169.944
-157.147
-143.573
-129.548
-115.329
-101.081
-86.8728
-72.6874
-58.4488
-44.0574
-29.4321
-14.5494
0.523804
15.6109
30.4212
44.562
57.5673
68.9376
78.189
84.9041
88.7806
89.6717
87.6136
82.8373
75.7618
66.9697
57.1635
47.1094
37.5688
29.227
22.6253
18.104
15.7642
15.4542
16.7845
19.1709
21.9033
24.2324
25.4649
25.0554
22.6813
18.2921
12.1233
4.67407
-3.35079
-11.1267
-17.8122
-22.656
-25.0942
-24.8251
-21.8532
-16.4941
-9.34321
-1.20917
6.97706
14.2676
19.8038
22.911
23.1714
20.4671
14.9906
7.22225
-2.12089
-12.159
-21.937
-30.5177
-37.0691
-40.9412
-41.7227
-39.276
-33.748
-25.5558
-15.3507
-3.96161
7.6768
18.6062
27.9312
34.9023
38.9881
39.9293
37.7674
32.8443
25.7708
17.3646
8.56576
0.334164
-6.4557
-11.1131
-13.2088
-12.6233
-9.55808
-4.50871
1.79658
8.48585
14.6483
19.4426
22.1955
22.4801
20.1643
15.4253
8.72864
0.77433
-7.58281
-15.4298
-21.8982
-26.2616
-28.017
-26.9417
-23.1192
-16.9314
-9.01826
-0.20936
8.56397
16.366
22.3512
25.8454
26.4034
23.8384
18.2215
9.85232
-0.789797
-13.1084
-26.4545
-40.185
-53.7077
-66.509
-78.1634
-88.3285
-96.7296
-103.142
-107.376
-109.274
-108.711
-105.613
-99.9787
-91.9034
-81.5964
-69.3917
-55.7431
-41.2052
-26.3994
-11.9703
1.46426
13.3621
23.2997
31.0034
36.365
39.4402
40.4279
39.6331
37.4113
34.0997
29.9346
24.9593
18.9322
11.2426
0.854897
-13.6981
-34.2472
-62.8222
-101.381
-151.445
-213.67
-287.436
-370.521
-458.949
-547.093
-628.041
-694.226
-738.255
-753.816
-736.553
-684.771
-599.86
-486.369
-351.698
-205.432
-58.3966
78.4559
195.194
283.944
339.691
360.744
348.818
308.723
247.718
174.602
98.68
28.718
-27.9819
-66.2839
-83.6284
-80.1175
-58.2874
-22.6149
21.1638
66.8293
108.449
141.05
161.122
166.905
158.444
137.422
106.82
70.4498
32.4369
-3.28569
-33.4086
-55.5593
-68.4725
-72.0124
-67.0614
-55.3061
-38.9592
-20.4581
-2.18139
13.7888
25.8369
32.908
34.5278
30.7575
22.1006
9.37864
-6.40392
-24.1898
-42.9797
-61.9147
-80.3257
-97.7497
-113.917
-128.717
-142.147
-154.261
-165.12
-174.756
-183.149
-190.225
-195.867
-199.937
-202.302
-202.853
-201.523
-198.287
-193.154
-186.159
-177.345
-166.76
-154.457
-140.513
-125.05
-108.272
-90.4859
-72.1235
-53.7405
-35.9931
-19.593
-5.24332
6.4365
14.9867
20.1716
22.0235
20.8559
17.2452
11.979
5.97846
0.202638
-4.45234
-7.24812
-7.68052
-5.52887
-0.872661
5.9257
14.2691
23.398
32.4781
40.6909
47.3188
51.8131
53.8399
53.3004
50.3248
45.2447
38.5481
30.8231
22.6992
14.7891
7.63911
1.6881
-2.76045
-5.55441
-6.6964
-6.33531
-4.74674
-2.30328
0.563825
3.40915
5.82014
7.46197
8.11484
7.69855
6.28013
4.06292
1.35774
-1.45994
-4.00042
-5.91014
-6.91431
-6.84525
-5.65322
-3.39949
-0.235068
3.62885
7.95166
12.4888
17.0073
21.2909
25.1357
28.3424
30.7091
32.0318
32.1146
30.7901
27.9489
23.5712
17.7554
10.7358
2.88491
-5.30361
-13.2505
-20.3423
-25.9924
-29.7036
-31.1248
-30.0932
-26.6573
-21.0762
-13.7969
-5.4107
3.40486
11.9516
19.5764
25.7288
30.0052
32.1745
32.1851
30.1538
26.3402
21.1125
14.9079
8.19482
1.43739
-4.93425
-10.5484
-15.1116
-18.4239
-20.3911
-21.0318
-20.4792
-18.9755
-16.858
-14.5358
-12.4576
-11.0737
-10.7944
-11.9493
-14.7523
-19.2758
-25.4389
-33.0096
-41.6224
-50.8094
-60.0416
-68.776
-76.5028
-82.7881
-87.3071
-89.864
-90.3974
-88.9717
-85.7568
-80.9997
-74.9934
-68.0457
-60.4535
-52.4839
-44.3628
-36.2716
-28.3495
-20.6999
-13.3983
-6.49918
-0.041949
5.94551
11.4431
16.4325
20.8848
24.7398
27.8739
30.057
30.8998
29.7979
25.8804
17.9765
4.61885
-15.8958
-45.3683
-85.4684
-137.42
-201.629
-277.307
-362.167
-452.272
-542.107
-624.911
-693.263
-739.878
-758.492
-744.733
-696.83
-616.044
-506.749
-376.121
-233.472
-89.3084
45.7723
162.196
252.403
311.589
338.104
333.488
302.129
250.62
186.902
119.304
55.6102
2.25978
-36.2382
-57.6124
-61.8515
-50.9586
-28.4929
1.02998
32.7906
62.2889
85.8633
101.051
106.761
103.256
91.9605
75.1481
55.544
35.9165
18.7045
5.72808
-1.99046
-4.28216
-1.77166
4.2778
12.1838
20.0936
26.2278
29.0904
27.6221
21.2878
10.0927
-5.46376
-24.4858
-45.8131
-68.1672
-90.2964
-111.101
-129.731
-145.641
-158.617
-168.755
-176.411
-182.139
-186.597
-190.471
-194.385
-198.843
-204.177
-210.521
-217.813
-225.804
-234.091
-242.155
-249.405
-255.223
-259.009
-260.218
-258.398
-253.22
-244.495
-232.198
-216.469
-197.616
-176.107
-152.554
-127.688
-102.324
-77.3229
-53.5393
-31.7727
-12.714
3.10209
15.3354
23.8648
28.796
30.4501
29.3346
26.0983
21.4753
16.2243
11.0682
6.64105
3.44759
1.83743
1.99618
3.95175
7.59284
12.6952
18.9507
25.9943
33.4259
40.8256
47.7636
53.807
58.5288
61.5224
62.4247
60.9478
56.9166
50.3067
41.2756
30.1786
17.5645
4.14707
-9.2472
-21.7498
-32.5321
-40.8873
-46.3032
-48.5139
-47.5259
-43.6129
-37.2824
-29.2163
-20.1952
-11.0155
-2.40892
5.02569
10.8714
14.9186
17.1665
17.8014
17.1576
15.6656
13.7948
11.9968
10.6551
10.0453
10.3101
11.4503
13.3323
15.7103
18.2608
20.6251
22.4547
23.4543
23.4181
22.255
19.9999
16.8113
12.9547
8.77402
4.65591
0.989987
-1.87041
-3.64248
-4.14017
-3.29029
-1.13743
2.16142
6.35109
11.0988
16.0181
20.6941
24.7076
27.6579
29.1844
28.9868
26.8446
22.6354
16.3511
8.10836
-1.8471
-13.1472
-25.3191
-37.8143
-50.0479
-61.4444
-71.4859
-79.756
-85.9757
-90.0262
-91.955
-91.9646
-90.3853
-87.6334
-84.1607
-80.402
-76.7241
-73.3867
-70.516
-68.098
-65.9895
-63.9469
-61.6682
-58.8427
-55.2021
-50.5644
-44.8669
-38.1821
-30.715
-22.7835
-14.7841
-7.1491
-0.302108
5.38235
9.60849
12.1745
12.9705
11.9579
9.1298
4.45133
-2.21701
-11.2079
-23.1329
-38.9428
-59.9298
-87.6399
-123.671
-169.355
-225.358
-291.256
-365.177
-443.607
-521.428
-592.249
-649.006
-684.767
-693.654
-671.713
-617.618
-533.07
-422.827
-294.332
-156.988
-21.1679
102.911
206.298
282.253
326.924
339.655
322.914
281.87
223.662
156.502
88.6947
27.7255
-20.492
-52.127
-65.6575
-61.808
-43.2303
-13.9895
21.0667
56.9659
89.2157
114.286
129.922
135.269
130.81
118.149
99.6755
78.1707
56.4113
36.8148
21.1711
10.4835
4.92618
3.91199
6.24924
10.358
14.5122
17.0744
16.6939
12.4482
3.91711
-8.8134
-25.2075
-44.3831
-65.2444
-86.6227
-107.409
-126.663
-143.689
-158.076
-169.697
-178.681
-185.356
-190.177
-193.655
-196.281
-198.47
-200.516
-202.575
-204.659
-206.658
-208.366
-209.525
-209.86
-209.118
-207.091
-203.636
-198.676
-192.196
-184.229
-174.843
-164.125
-152.165
-139.054
-124.885
-109.753
-93.7744
-77.0969
-59.9141
-42.4756
-25.0912
-8.12797
8.00051
22.8523
35.9821
46.9717
55.4628
61.1912
64.0179
63.9547
61.1808
56.0479
49.072
40.9096
32.3205
24.1154
17.0947
11.9799
9.34585
9.55795
12.7238
18.6642
26.9097
36.7257
47.1678
57.1628
65.6105
71.495
73.9945
72.577
67.0679
57.6829
45.0182
29.9994
13.7932
-2.30907
-17.0215
-29.194
-37.9264
-42.6558
-43.2053
-39.7919
-32.9931
-23.6764
-12.9036
-1.81889
8.46628
16.9781
22.9672
25.9693
25.8362
22.7348
17.1184
9.67166
1.23703
-7.2708
-14.9539
-21.0154
-24.8316
-26.005
-24.3947
-20.1214
-13.5466
-5.23114
4.1251
13.7533
22.8892
30.8426
37.0555
41.1442
42.922
42.4018
39.7801
35.4062
29.7398
23.3033
16.6313
10.2226
4.4975
-0.237369
-3.81224
-6.20452
-7.53419
-8.04437
-8.06854
-7.98789
-8.18347
-8.98895
-10.6499
-13.2949
-16.9215
-21.4
-26.493
-31.8882
-37.2409
-42.2181
-46.5412
-50.0189
-52.5682
-54.2206
-55.1131
-55.4653
-55.5473
-55.6412
-55.9996
-56.8076
-58.148
-59.9755
-62.1022
-64.1967
-65.8022
-66.3717
-65.3221
-62.1031
-56.2732
-47.5744
-35.996
-21.8157
-5.61063
11.767
29.2496
45.645
59.748
70.4583
76.8892
78.4486
74.877
66.2294
52.7963
34.9699
13.0707
-12.8298
-43.0508
-78.3573
-119.891
-168.95
-226.639
-293.415
-368.629
-450.148
-534.167
-615.277
-686.839
-741.631
-772.708
-774.345
-742.927
-677.634
-580.81
-457.932
-317.166
-168.568
-23.015
108.971
218.364
298.58
346.117
360.8
345.638
306.3
250.32
186.132
122.069
65.4444
21.8369
-5.36519
-15.1192
-8.59143
11.2279
40.0882
73.136
105.576
133.256
153.11
163.415
163.864
155.439
140.143
120.628
99.7769
80.2959
64.3736
53.4337
48.0113
47.7521
51.5265
57.6324
64.0563
68.7546
69.9196
66.1981
56.8405
41.7662
21.5443
-2.70321
-29.457
-56.9933
-83.5876
-107.704
-128.15
-144.181
-155.544
-162.462
-165.572
-165.808
-164.276
-162.108
-160.335
-159.775
-160.964
-164.117
-169.131
-175.62
-182.974
-190.437
-197.189
-202.423
-205.425
-205.623
-202.641
-196.313
-186.697
-174.061
-158.858
-141.685
-123.233
-104.24
-85.4273
-67.4531
-50.8682
-36.0831
-23.3496
-12.7564
-4.23962
2.39444
7.43697
11.2382
14.1676
16.5763
18.7662
20.9681
23.3306
25.9196
28.7279
31.6897
34.699
37.6258
40.3278
42.6564
44.4573
45.5692
45.8241
45.0543
43.1084
39.8764
35.321
29.5083
22.6314
15.0182
7.12043
-0.519857
-7.32181
-12.7303
-16.2842
-17.6773
-16.8047
-13.7847
-8.95474
-2.83933
3.90408
10.5556
16.4101
20.8512
23.4134
23.8252
22.0289
18.1778
12.6108
5.81142
-1.64384
-9.14112
-16.0829
-21.9353
-26.2651
-28.7665
-29.2742
-27.7671
-24.362
-19.3
-12.9277
-5.67486
1.97179
9.49686
16.3875
22.1663
26.4239
28.8506
29.2622
27.6189
24.0341
18.7703
12.222
4.8859
-2.67971
-9.90298
-16.2487
-21.2658
-24.6257
-26.1494
-25.8169
-23.7622
-20.2511
-15.6483
-10.3757
-4.86894
0.464261
5.27839
9.31438
12.4121
14.5106
15.6385
15.895
15.4271
14.4042
12.9942
11.3422
9.55472
7.68908
5.74808
3.68068
1.38771
-1.26735
-4.44306
-8.30058
-12.9811
-18.5814
-25.1291
-32.5601
-40.7009
-49.2589
-57.8234
-65.8807
-72.8443
-78.0994
-81.0604
-81.2343
-78.2842
-72.0839
-62.7555
-50.6832
-36.4992
-21.0409
-5.28359
9.74629
23.0653
33.8257
41.394
45.4076
45.8022
42.8073
36.9112
28.8002
19.2773
9.16923
-0.77321
-9.97689
-18.1464
-25.3591
-32.1468
-39.5526
-49.1399
-62.9308
-83.2493
-112.454
-152.573
-204.864
-269.373
-344.572
-427.153
-512.065
-592.815
-662.053
-712.348
-737.085
-731.346
-692.639
-621.37
-520.976
-397.688
-259.955
-117.587
19.2536
141.11
240.182
311.074
351.251
361.154
343.991
305.222
251.84
191.518
131.757
79.1015
38.5437
13.1382
3.87654
9.80364
28.3437
55.7788
87.808
120.115
148.875
171.147
185.114
190.167
186.819
176.505
161.274
143.446
125.268
108.624
94.8114
84.4406
77.4228
73.0665
70.2461
67.6159
63.8367
57.7814
48.6929
36.2761
20.7161
2.6248
-17.0706
-37.2778
-56.9027
-75.0013
-90.8992
-104.26
-115.102
-123.753
-130.77
-136.827
-142.589
-148.605
-155.222
-162.536
-170.385
-178.388
-186.002
-192.607
-197.594
-200.438
-200.761
-198.36
-193.217
-185.48
-175.433
-163.458
-149.989
-135.476
-120.357
-105.035
-89.8694
-75.1652
-61.1719
-48.081
-36.0245
-25.0737
-15.2389
-6.4719
1.32771
8.30227
14.6211
20.4623
25.9939
31.3549
36.6401
41.8905
47.089
52.164
56.9982
61.4436
65.3396
68.5323
70.892
72.3272
72.7924
72.2892
70.8602
68.5784
65.5334
61.819
57.5235
52.7265
47.5018
41.9275
36.0991
30.1445
24.2332
18.5797
13.4345
9.06385
5.71967
3.60362
2.8312
3.40253
5.18567
7.91636
11.216
14.626
17.6553
19.8341
20.7671
20.1797
17.9505
14.1261
8.91676
2.67405
-4.14757
-11.0393
-17.4912
-23.0443
-27.3348
-30.1267
-31.3291
-30.9961
-29.3114
-26.5585
-23.0806
-19.2368
-15.3587
-11.7139
-8.48058
-5.73552
-3.45757
-1.54438
0.160001
1.83121
3.62932
5.66752
7.98889
10.5547
13.245
15.8723
18.2046
19.9961
21.0202
21.1016
20.1427
18.1405
15.1935
11.4963
7.32344
3.00413
-1.10901
-4.67359
-7.38971
-9.02751
-9.44737
-8.61124
-6.58448
-3.52872
0.312998
4.63716
9.10469
13.3677
17.0958
20.0002
21.8539
22.5063
21.8912
20.0283
17.0177
13.028
8.27947
3.0233
-2.48082
-7.98729
-13.2856
-18.2182
-22.6944
-26.6982
-30.291
-33.6057
-36.8334
-40.1998
-43.9325
-48.2206
-53.1696
-58.7582
-64.8051
-70.9526
-76.6755
-81.3185
-84.1611
-84.5046
-81.77
-75.5939
-65.9056
-52.9737
-37.4116
-20.138
-2.29698
14.8556
30.0825
42.2977
50.6824
54.7705
54.4925
50.1723
42.4775
32.3285
20.7734
8.8416
-2.61384
-13.0707
-22.4747
-31.3426
-40.8105
-52.6083
-68.9405
-92.2631
-124.958
-168.93
-225.166
-293.329
-371.452
-455.817
-541.065
-620.562
-687.007
-733.217
-752.994
-741.962
-698.233
-622.829
-519.76
-395.736
-259.557
-121.224
9.09946
122.156
210.553
269.494
297.203
294.985
266.939
219.366
159.951
96.841
37.726
-10.9686
-44.6818
-61.058
-60.0041
-43.4804
-15.0689
20.6083
58.539
93.954
122.869
142.477
151.361
149.512
138.18
119.577
96.5036
71.935
48.6323
28.8225
13.9792
4.72085
0.827587
1.36123
4.86193
9.58855
13.7675
15.8174
14.5253
9.15644
-0.505681
-14.1869
-31.2052
-50.5916
-71.23
-91.9983
-111.893
-130.125
-146.183
-159.854
-171.21
-180.56
-188.382
-195.232
-201.658
-208.106
-214.855
-221.966
-229.261
-236.338
-242.617
-247.411
-250.012
-249.793
-246.292
-239.282
-228.81
-215.195
-198.999
-180.951
-161.871
-142.565
-123.747
-105.969
-89.5824
-74.7371
-61.3993
-49.4012
-38.4993
-28.4374
-19.0007
-10.0558
-1.56979
6.39096
13.6813
20.1111
25.4865
29.6508
32.5193
34.1021
34.5127
33.9611
32.733
31.1584
29.5739
28.2844
27.5282
27.4512
28.092
29.3801
31.1472
33.1487
35.0948
36.6844
37.6393
37.735
36.8226
34.8414
31.82
27.868
23.1585
17.9068
12.3471
6.71217
1.21671
-3.95208
-8.63857
-12.7175
-16.0894
-18.6759
-20.4146
-21.2579
-21.174
-20.1515
-18.2062
-15.3888
-11.7916
-7.55314
-2.85836
2.0656
6.95937
11.546
15.5496
18.7152
20.8296
21.7379
21.3565
19.6784
16.7723
12.7752
7.87998
2.32038
-3.64434
-9.74355
-15.707
-21.2736
-26.1987
-30.2586
-33.2563
-35.0263
-35.4407
-34.4161
-31.9189
-27.9705
-22.648
-16.0819
-8.44855
0.0395911
9.14503
18.6145
28.1842
37.5803
46.5157
54.6865
61.7703
67.4336
71.3477
73.2149
72.8031
69.9832
64.7626
57.3084
47.9552
37.1925
25.6318
13.9574
2.86445
-7.00618
-15.1292
-21.1434
-24.8819
-26.3803
-25.8624
-23.7063
-20.3954
-16.4623
-12.4307
-8.76401
-5.82557
-3.85351
-2.95247
-3.10111
-4.17272
-5.9651
-8.23476
-10.7309
-13.2248
-15.5318
-17.5237
-19.1318
-20.3415
-21.18
-21.7004
-21.9647
-22.0287
-21.9295
-21.6791
-21.262
-20.6385
-19.7498
-18.5273
-16.9005
-14.8052
-12.1903
-9.02297
-5.29486
-1.0292
3.70626
8.77735
13.948
18.8277
22.8029
24.9591
24.0123
18.2761
5.70218
-15.9755
-48.9703
-95.0541
-155.092
-228.577
-313.255
-404.957
-497.702
-584.108
-656.096
-705.8
-726.553
-713.819
-665.897
-584.32
-473.845
-342.057
-198.613
-54.2409
80.3901
195.774
284.517
342.023
366.838
360.624
327.802
274.893
209.684
140.306
74.3439
18.0843
-24.0323
-49.6965
-58.7503
-52.9578
-35.5808
-10.8241
16.7696
42.8987
63.9902
77.547
82.3282
78.358
66.7816
49.6008
29.3353
8.65713
-9.95275
-24.489
-33.6194
-36.7819
-34.1832
-26.7095
-15.7729
-3.11769
9.38552
19.9346
26.9623
29.2614
26.0655
17.0835
2.49247
-17.1048
-40.7512
-67.2275
-95.1579
-123.121
-149.758
-173.871
-194.506
-211.005
-223.045
-230.632
-234.076
-233.938
-230.957
-225.965
-219.803
-213.239
-206.897
-201.214
-196.413
-192.499
-189.287
-186.436
-183.507
-180.024
-175.537
-169.673
-162.179
-152.948
-142.019
-129.568
-115.875
-101.289
-86.1868
-70.9351
-55.8604
-41.2309
-27.2507
-14.0638
-1.76669
9.57482
19.9089
29.184
37.34
44.307
50.0095
54.3759
57.3518
58.9129
59.0771
57.9132
55.5438
52.1427
47.9269
43.1426
38.0487
32.8979
27.9186
23.2991
19.1762
15.629
12.6787
10.2941
8.40129
6.89762
5.66631
4.59128
3.56991
2.52242
1.39719
0.171627
-1.1509
-2.54734
-3.98313
-5.42098
-6.82912
-8.18796
-9.49449
-10.7639
-12.0277
-13.3287
-14.7121
-16.214
-17.8491
-19.5986
-21.4018
-23.1529
-24.7047
-25.8804
-26.4912
-26.3599
-25.3457
-23.3672
-20.4214
-16.5933
-12.0563
-7.06222
-1.92013
3.03194
7.46075
11.0726
13.6452
15.0518
15.2762
14.4143
12.6637
10.302
7.65548
5.06339
2.84093
1.2456
0.450577
0.527849
1.44268
3.05968
5.15941
7.46369
9.66682
11.47
12.6158
12.9194
12.2939
10.7656
8.47843
5.6831
2.71276
-0.055425
-2.24897
-3.55407
-3.76798
-2.842
-0.907254
1.72259
4.57465
7.06509
8.56722
8.49059
6.35998
1.88292
-5.00463
-14.121
-25.0522
-37.1939
-49.8137
-62.1258
-73.3651
-82.8537
-90.0504
-94.5822
-96.2569
-95.0591
-91.1357
-84.7742
-76.3778
-66.4401
-55.519
-44.2083
-33.1071
-22.7824
-13.7289
-6.32648
-0.801479
2.80208
4.6343
5.02917
4.46965
3.52914
2.79372
2.77277
3.80699
5.98343
9.06611
12.4488
15.1352
15.7504
12.5895
3.70916
-12.929
-39.2563
-76.8369
-126.561
-188.321
-260.72
-340.873
-424.361
-505.397
-577.219
-632.703
-665.133
-669.04
-640.986
-580.178
-488.801
-372.003
-237.513
-94.9301
45.248
172.711
278.418
355.528
400.064
411.237
391.395
345.622
281.053
205.986
128.927
57.6789
-1.42692
-44.0712
-68.2103
-74.0591
-63.8153
-41.1835
-10.772
22.5514
54.2636
80.6809
99.2951
108.926
109.693
102.824
90.3462
74.7155
58.423
43.6461
31.9768
24.2557
20.5244
20.0914
21.6918
23.713
24.4501
22.3551
16.2475
5.4603
-10.0916
-29.925
-53.076
-78.2436
-103.967
-128.812
-151.534
-171.21
-187.316
-199.745
-208.774
-214.982
-219.145
-222.109
-224.671
-227.485
-230.987
-235.363
-240.553
-246.281
-252.116
-257.54
-262.016
-265.052
-266.246
-265.307
-262.068
-256.476
-248.569
-238.453
-226.279
-212.227
-196.49
-179.275
-160.805
-141.334
-121.147
-100.577
-79.997
-59.817
-40.4658
-22.3679
-5.91569
8.55932
20.812
30.7021
38.2037
43.403
46.4864
47.719
47.417
45.9176
43.5497
40.6093
37.342
33.934
30.5115
27.1482
23.8784
20.7132
17.6562
14.7182
11.9262
9.32782
6.99004
4.99254
3.41801
2.34005
1.81076
1.84918
2.43227
3.48934
4.90112
6.50413
8.10044
9.47255
10.402
10.6899
10.1778
8.76515
6.4227
3.19879
-0.781492
-5.32487
-10.1853
-15.0846
-19.7361
-23.869
-27.2509
-29.7058
-31.1271
-31.4828
-30.814
-29.2265
-26.8766
-23.9535
-20.6583
-17.185
-13.7023
-10.3405
-7.18373
-4.26829
-1.58712
0.900773
3.25739
5.5514
7.84465
10.1811
12.5796
15.0307
17.4971
19.9166
22.2061
24.2669
25.9898
27.2602
27.9656
28.0046
27.2986
25.8061
23.5385
20.5745
17.07
13.2607
9.4524
5.99782
3.26033
1.56667
1.15551
2.12965
4.42087
7.77514
11.7631
15.817
19.2897
21.5291
21.9574
20.1429
15.8549
9.09355
0.0901848
-10.7195
-22.745
-35.3037
-47.6867
-59.2185
-69.3033
-77.4557
-83.3156
-86.6507
-87.3518
-85.4241
-80.979
-74.2268
-65.4695
-55.0924
-43.5516
-31.3544
-19.0342
-7.11748
3.91181
13.6469
21.7867
28.152
32.6856
35.4341
36.5111
36.0455
34.1181
30.6923
25.544
18.1953
7.86283
-6.56754
-26.5199
-53.6394
-89.6155
-135.909
-193.4
-261.989
-340.235
-425.098
-511.882
-594.431
-665.605
-717.997
-744.825
-740.846
-703.189
-631.941
-530.392
-404.884
-264.262
-118.992
19.942
142.223
239.309
305.326
337.642
337.052
307.563
255.821
190.26
120.087
54.2243
0.344856
-35.9012
-51.3834
-45.6719
-20.8999
18.6586
67.2296
118.311
165.476
203.123
227.065
234.932
226.322
202.716
167.176
123.882
77.5705
32.9453
-5.856
-35.6932
-54.7009
-62.3951
-59.6085
-48.2788
-31.1266
-11.2719
8.16002
24.3947
35.288
39.5022
36.5684
26.8374
11.3383
-8.4313
-30.7476
-53.9039
-76.4229
-97.2136
-115.657
-131.614
-145.367
-157.494
-168.72
-179.749
-191.119
-203.087
-215.574
-228.163
-240.154
-250.666
-258.762
-263.584
-264.476
-261.072
-253.349
-241.627
-226.53
-208.904
-189.723
-169.973
-150.55
-132.182
-115.367
-100.358
-87.1711
-75.6296
-65.4235
-56.1809
-47.537
-39.1927
-30.9549
-22.7536
-14.6371
-6.74789
0.716071
7.54607
13.5664
18.6698
22.8395
26.1545
28.7774
30.9278
32.8445
34.7434
36.7782
39.0094
41.3884
43.7583
45.8721
47.4264
48.1051
47.6261
45.7858
42.4935
37.7907
31.8544
24.9821
17.562
10.0328
2.83742
-3.62157
-9.02085
-13.1439
-15.895
-17.2988
-17.4864
-16.6702
-15.1129
-13.0925
-10.8701
-8.66272
-6.62361
-4.8326
-3.29598
-1.95585
-0.707472
0.57698
2.02093
3.71519
5.69286
7.91124
10.2442
12.4878
14.379
15.628
15.9576
15.1474
13.0743
9.74364
5.30569
0.0539741
-5.59552
-11.1421
-16.051
-19.8093
-21.9824
-22.2604
-20.4916
-16.697
-11.0656
-3.93081
4.26752
13.0304
21.8495
30.2523
37.8378
44.2987
49.4289
53.1172
55.3312
56.0955
55.4691
53.5266
50.3474
46.0128
40.6118
34.2537
27.0823
19.2904
11.128
2.90299
-5.02789
-12.2785
-18.4607
-23.2176
-26.2592
-27.3956
-26.5654
-23.8548
-19.5051
-13.9077
-7.58486
-1.15787
4.69777
9.30567
12.0473
12.421
10.0945
4.9462
-2.9109
-13.1268
-25.1341
-38.1897
-51.4348
-63.967
-74.9176
-83.526
-89.2024
-91.5745
-90.5119
-86.1272
-78.7556
-68.9144
-57.249
-44.4723
-31.3017
-18.4036
-6.34744
4.42501
13.6145
21.0635
26.7409
30.717
33.1306
34.1538
33.9556
32.6664
30.3421
26.9248
22.1988
15.74
6.86366
-5.41786
-22.4084
-45.6864
-76.9834
-117.967
-169.929
-233.411
-307.82
-391.111
-479.621
-568.119
-650.115
-718.419
-765.897
-786.322
-775.213
-730.523
-653.077
-546.678
-417.863
-275.316
-129.031
10.7019
134.328
233.984
304.238
342.547
349.384
328.026
284.058
224.641
157.675
90.9262
31.2444
-16.0544
-47.586
-62.0456
-60.113
-44.1489
-17.7367
14.86
49.2555
81.4483
108.224
127.423
138.046
140.224
135.042
124.284
110.106
94.7095
80.039
67.5482
58.0541
51.6917
47.9678
45.8955
44.1866
41.469
36.4987
28.3382
16.4778
0.890379
-17.9859
-39.3284
-62.0599
-85.0062
-107.058
-127.311
-145.172
-160.407
-173.138
-183.784
-192.965
-201.376
-209.661
-218.301
-227.526
-237.277
-247.203
-256.707
-265.028
-271.341
-274.86
-274.945
-271.176
-263.399
-251.744
-236.606
-218.596
-198.486
-177.127
-155.381
-134.054
-113.84
-95.2788
-78.7345
-64.3821
-52.2112
-42.0399
-33.5405
-26.2755
-19.7424
-13.425
-6.84925
0.363041
8.44721
17.4614
27.2704
37.5509
47.8196
57.4814
65.8948
72.4459
76.6231
78.0845
76.707
72.6129
66.1685
57.953
48.7023
39.2315
30.347
22.7577
16.9975
13.3685
11.912
12.4114
14.426
17.35
20.4899
23.1492
24.7095
24.6983
22.8356
19.0553
13.5012
6.50015
-1.48208
-9.8946
-18.1585
-25.721
-32.1022
-36.9312
-39.9713
-41.1332
-40.4761
-38.1993
-34.6225
-30.1583
-25.2762
-20.4609
-16.1676
-12.7773
-10.5569
-9.62819
-9.951
-11.3222
-13.3932
-15.7047
-17.7352
-18.9586
-18.904
-17.2106
-13.671
-8.25773
-1.13202
7.3674
16.7508
26.4166
35.6977
43.9111
50.4086
54.6239
56.1189
54.6244
50.0754
42.6362
32.7117
20.9391
8.15624
-4.65415
-16.4432
-26.19
-33.0029
-36.2142
-35.4575
-30.7164
-22.3363
-10.9976
2.3478
16.5701
30.4732
42.911
52.8956
59.6832
62.8302
62.2138
58.0189
50.6941
40.886
29.3614
16.9264
4.35284
-7.68238
-18.6401
-28.1422
-35.9763
-42.0843
-46.5383
-49.5094
-51.2317
-51.9676
-51.9761
-51.4877
-50.6865
-49.7003
-48.5989
-47.3991
-46.0747
-44.5711
-42.8195
-40.7522
-38.3139
-35.4705
-32.2128
-28.5564
-24.5379
-20.2093
-15.6308
-10.8643
-5.96783
-0.992392
4.018
9.02363
13.983
18.8439
23.5323
27.9389
31.904
35.2016
37.5211
38.4488
37.4457
33.8257
26.7332
15.1287
-2.20821
-26.6404
-59.5825
-102.342
-155.887
-220.553
-295.728
-379.558
-468.762
-558.602
-643.066
-715.293
-768.212
-795.33
-791.58
-754.098
-682.806
-580.699
-453.765
-310.524
-161.229
-16.8267
112.199
216.939
290.995
331.108
337.416
313.309
264.915
200.293
128.447
58.2839
-2.34878
-47.439
-73.3197
-78.8682
-65.3955
-36.263
3.70503
48.9252
93.7812
133.282
163.577
182.288
188.617
183.267
168.172
146.119
120.307
93.8961
69.6267
49.5287
34.7578
25.562
21.3674
20.9594
22.7249
24.9161
25.9004
24.3659
19.4601
10.8531
-1.27563
-16.3153
-33.3501
-51.3128
-69.1416
-85.9209
-100.989
-113.998
-124.932
-134.065
-141.897
-149.044
-156.132
-163.689
-172.057
-181.331
-191.344
-201.68
-211.73
-220.77
-228.055
-232.914
-234.833
-233.519
-228.93
-221.277
-210.985
-198.636
-184.889
-170.392
-155.709
-141.254
-127.26
-113.779
-100.704
-87.8248
-74.8915
-61.6864
-48.0852
-34.1012
-19.9058
-5.82231
7.70603
20.1666
31.0401
39.8653
46.2966
50.1479
51.4165
50.2871
47.1145
42.3916
36.7036
30.6775
24.9283
20.0095
16.3684
14.3117
13.9827
15.3519
18.2222
22.2493
26.9755
31.8746
36.4035
40.0557
42.4114
43.1777
42.2161
39.5525
35.3707
29.989
23.8233
17.3419
11.0161
5.27392
0.460077
-3.19183
-5.57371
-6.70263
-6.707
-5.80178
-4.25658
-2.36084
-0.390431
1.42045
2.89932
3.94567
4.53116
4.6909
4.5078
4.09296
3.5652
3.03257
2.57823
2.25204
2.06842
2.00988
2.03491
2.08868
2.11439
2.06362
1.90424
1.62491
1.23597
0.766852
0.260808
-0.232114
-0.662632
-0.989236
-1.18368
-1.23426
-1.14668
-0.942426
-0.655173
-0.325805
0.00317068
0.293007
0.513179
0.644348
0.679505
0.623181
0.488913
0.295345
0.0615322
-0.197912
-0.477193
-0.782707
-1.13504
-1.56943
-2.13461
-2.89028
-3.90319
-5.2422
-6.97263
-9.14998
-11.8137
-14.9814
-18.6441
-22.7631
-27.2687
-32.0622
-37.019
-41.9954
-46.8361
-51.3834
-55.4866
-59.0112
-61.8476
-63.9181
-65.182
-65.6395
-65.3315
-64.3372
-62.7682
-60.7597
-58.458
-56.0076
-53.5361
-51.1412
-48.8793
-46.7589
-44.7384
-42.7309
-40.6131
-38.2403
-35.4631
-32.1454
-28.1808
-23.5062
-18.1105
-12.0408
-5.40373
1.63326
8.84087
15.9225
22.5013
28.0964
32.0871
33.6658
31.7896
25.1436
12.141
-9.01604
-40.1879
-83.0506
-138.755
-207.531
-288.293
-378.336
-473.206
-566.818
-651.853
-720.421
-764.928
-779.016
-758.456
-701.842
-610.973
-490.854
-349.307
-196.219
-42.5559
100.77
223.998
319.473
382.335
410.869
406.506
373.477
318.192
248.437
172.486
98.2408
32.4891
-19.6441
-55.0143
-72.5329
-73.021
-58.8813
-33.6492
-1.48382
33.336
66.8605
95.8211
117.863
131.649
136.847
134.009
124.385
109.679
91.8092
72.6661
53.9227
36.8906
22.4392
10.975
2.47487
-3.4387
-7.39545
-10.1631
-12.5361
-15.2388
-18.8524
-23.7706
-30.1845
-38.0959
-47.3512
-57.691
-68.8038
-80.3786
-92.1453
-103.902
-115.521
-126.947
-138.169
-149.195
-160.018
-170.584
-180.775
-190.395
-199.177
-206.794
-212.892
-217.118
-219.159
-218.774
-215.818
-210.259
-202.181
-191.773
-179.311
-165.129
-149.591
-133.062
-115.885
-98.3615
-80.75
-63.262
-46.0734
-29.3356
-13.1888
2.22669
16.764
30.2685
42.5824
53.5549
63.0554
70.9871
77.3003
82.0013
85.1569
86.8924
87.384
86.8457
85.5119
83.6175
81.3778
78.9698
76.5183
74.0869
71.677
69.2331
66.6556
63.8177
60.5863
56.8415
52.4947
47.502
41.8726
35.671
29.0167
22.0792
15.0723
8.24666
1.88036
-3.7324
-8.29716
-11.54
-13.234
-13.2306
-11.4928
-8.12417
-3.38849
2.28742
8.33226
14.0719
18.7914
21.8117
22.5704
20.6961
16.0648
8.83008
-0.579121
-11.4933
-23.0659
-34.3581
-44.434
-52.4538
-57.755
-59.9117
-58.767
-54.4365
-47.2854
-37.883
-26.9427
-15.2542
-3.61435
7.23508
16.6601
24.1737
29.4601
32.3852
32.9926
31.4897
28.2219
23.6414
18.2688
12.6513
7.31925
2.74442
-0.698534
-2.76209
-3.34527
-2.49949
-0.419561
2.57949
6.09785
9.69449
12.934
15.431
16.8876
17.1186
16.0634
13.7821
10.4385
6.27188
1.56161
-3.4096
-8.38987
-13.1851
-17.6761
-21.8236
-25.6634
-29.2911
-32.8406
-36.4604
-40.2885
-44.4312
-48.9459
-53.828
-59.0045
-64.3297
-69.5868
-74.4923
-78.706
-81.8473
-83.5184
-83.3352
-80.964
-76.162
-68.8161
-58.9753
-46.8711
-32.9216
-17.716
-1.97988
13.4769
27.8248
40.2854
50.1984
57.0802
60.6635
60.9151
58.0279
52.3866
44.5092
34.9665
24.2848
12.8372
0.732246
-12.2878
-26.9201
-44.3247
-66.0712
-93.9869
-129.897
-175.267
-230.78
-295.925
-368.668
-445.298
-520.519
-587.827
-640.151
-670.688
-673.833
-646.042
-586.51
-497.52
-384.409
-255.125
-119.427
12.1702
129.565
224.192
289.947
323.81
326.068
300.139
252.036
189.541
121.219
55.4027
-0.724202
-41.8444
-64.9405
-69.42
-56.9391
-30.9726
3.79415
42.1602
79.0957
110.336
132.816
144.914
146.482
138.686
123.701
104.304
83.4273
63.7403
47.3073
35.3562
28.1852
25.2043
25.0985
26.0794
26.1855
23.5863
16.8485
5.13037
-11.7179
-33.1557
-58.0495
-84.8465
-111.797
-137.191
-159.577
-177.934
-191.772
-201.161
-206.677
-209.291
-210.207
-210.688
-211.88
-214.668
-219.576
-226.721
-235.824
-246.267
-257.193
-267.625
-276.588
-283.216
-286.836
-287.017
-283.575
-276.554
-266.173
-252.766
-236.721
-218.43
-198.254
-176.52
-153.529
-129.587
-105.037
-80.2897
-55.8359
-32.2476
-10.1524
9.81
27.0438
41.0592
51.5292
58.3334
61.5809
61.6086
58.9548
54.3102
48.4528
42.1757
36.2141
31.1829
27.53
25.5104
25.1824
26.4267
28.9812
32.4881
36.545
40.7528
44.7547
48.2621
51.0649
53.0297
54.0858
54.2065
53.3889
51.6389
48.9615
45.3609
40.8478
35.4523
29.2384
22.3159
14.848
7.05015
-0.818212
-8.4694
-15.608
-21.9535
-27.262
-31.3447
-34.0807
-35.4235
-35.4003
-34.1054
-31.6887
-28.3404
-24.2752
-19.7169
-14.8849
-9.98419
-5.19866
-0.68758
3.41532
7.00121
9.98512
12.3051
13.9224
14.8223
15.0161
14.5415
13.4631
11.8702
9.87207
7.59176
5.15896
2.70313
0.34846
-1.78878
-3.60056
-4.98595
-5.85034
-6.10696
-5.68224
-4.526
-2.62555
-0.0217752
3.17607
6.78074
10.5258
14.0756
17.0463
19.0382
19.6743
18.6419
15.7317
10.8677
4.12518
-4.2682
-13.9476
-24.442
-35.2181
-45.7304
-55.4741
-64.0316
-71.109
-76.5575
-80.376
-82.6965
-83.7523
-83.8349
-83.2443
-82.2398
-80.9981
-79.5849
-77.943
-75.9005
-73.1973
-69.5269
-64.588
-58.1389
-50.0472
-40.3273
-29.1609
-16.8966
-4.02949
8.83811
21.0489
31.9494
40.9466
47.5552
51.426
52.3503
50.2348
45.0469
36.7329
25.1205
9.81951
-9.8532
-34.8982
-66.5773
-106.257
-155.144
-213.936
-282.433
-359.179
-441.22
-524.062
-601.869
-667.932
-715.354
-737.884
-730.775
-691.533
-620.437
-520.74
-398.496
-262.034
-121.122
14.0475
133.939
230.678
298.837
335.933
342.554
322.144
280.453
224.769
163.011
102.817
50.7296
11.5738
-11.9151
-19.1849
-11.6962
7.46957
34.1564
63.7532
91.8045
114.537
129.246
134.514
130.238
117.5
98.3036
75.2221
51.0199
28.2895
9.14901
-4.97035
-13.4322
-16.398
-14.7361
-9.85685
-3.50124
2.49084
6.40379
6.83795
2.85134
-5.96025
-19.4489
-36.9629
-57.4495
-79.5955
-101.99
-123.289
-142.36
-158.401
-170.998
-180.151
-186.232
-189.906
-192.024
-193.49
-195.141
-197.634
-201.377
-206.482
-212.777
-219.836
-227.054
-233.723
-239.121
-242.583
-243.561
-241.656
-236.628
-228.392
-217.002
-202.63
-185.549
-166.117
-144.771
-122.021
-98.4379
-74.6433
-51.2842
-29.0013
-8.39011
10.0423
25.916
39.0082
49.2676
56.8125
61.9113
64.9498
66.3899
66.7266
66.4467
65.9941
65.744
65.9841
66.9029
68.5829
70.9968
74.0064
77.3658
80.7301
83.6738
85.7206
86.3867
85.2347
81.9357
76.3293
68.4741
58.6782
47.4996
35.7147
24.2514
14.0949
6.1743
1.24589
-0.212606
1.91989
7.36965
15.4783
25.2627
35.5196
44.9626
52.3742
56.7534
57.4384
54.1876
47.2083
37.1287
24.9173
11.7609
-1.08117
-12.4285
-21.3161
-27.0991
-29.5132
-28.6859
-25.0978
-19.5034
-12.8212
-6.00985
0.053404
4.67723
7.43184
8.18786
7.11617
4.65092
1.42237
-1.83132
-4.36231
-5.51038
-4.78915
-1.95243
2.96553
9.64019
17.4784
25.6708
33.2705
39.2923
42.8236
43.1351
39.7798
32.6668
22.0985
8.76371
-6.31646
-21.8857
-36.5832
-49.0922
-58.2879
-63.3653
-63.931
-60.0457
-52.2143
-41.3231
-28.5348
-15.155
-2.48743
8.30307
16.3037
20.9295
21.9554
19.5027
13.9858
6.02983
-3.62664
-14.2291
-25.0902
-35.6486
-45.4955
-54.3704
-62.1279
-68.6869
-73.9724
-77.864
-80.1633
-80.5873
-78.7939
-74.4346
-67.2301
-57.0521
-44
-28.454
-11.0933
7.12804
25.05
41.413
54.9892
64.7225
69.8556
70.0255
65.3087
56.2033
43.5438
28.3499
11.6262
-5.86499
-23.8212
-42.5672
-63.1293
-87.1797
-116.829
-154.272
-201.323
-258.901
-326.562
-402.172
-481.807
-559.94
-629.914
-684.666
-717.595
-723.459
-699.15
-644.234
-561.153
-455.063
-333.321
-204.706
-78.4544
36.7177
133.516
206.761
253.8
274.611
271.602
249.152
212.964
169.336
124.424
83.5987
50.9577
29.0313
18.703
19.328
29.0157
45.0245
64.2098
83.4647
100.101
112.129
118.421
118.736
113.641
104.329
92.3824
79.518
67.3372
57.1255
49.7131
45.4085
44.0061
44.8574
46.9902
49.2559
50.4848
49.6298
45.8834
38.7582
28.1237
14.2014
-2.47972
-21.1575
-40.9324
-60.8719
-80.112
-97.9458
-113.888
-127.709
-139.438
-149.33
-157.806
-165.376
-172.546
-179.737
-187.212
-195.027
-203.016
-210.802
-217.849
-223.519
-227.16
-228.188
-226.159
-220.83
-212.191
-200.47
-186.11
-169.729
-152.055
-133.856
-115.873
-98.7521
-82.9993
-68.9478
-56.7471
-46.3712
-37.6429
-30.2714
-23.8968
-18.1364
-12.6277
-7.06528
-1.22779
5.00446
11.6417
18.5858
25.6396
32.5235
38.8989
44.3984
48.6594
51.3615
52.2619
51.2277
48.2591
43.5016
37.2437
29.9002
21.981
14.049
6.67167
0.369666
-4.42951
-7.43
-8.49344
-7.65007
-5.09426
-1.16531
3.68445
8.93092
14.025
18.4406
21.7191
23.508
23.5888
21.8935
18.5082
13.6626
7.70852
1.08685
-5.7122
-12.1929
-17.8975
-22.4447
-25.5606
-27.0977
-27.0419
-25.506
-22.7115
-18.9615
-14.6074
-10.0127
-5.52025
-1.42255
2.05851
4.78392
6.69994
7.83209
8.27196
8.15929
7.66152
6.95326
6.19779
5.53205
5.05639
4.8293
4.86704
5.14754
5.61748
6.20158
6.81278
7.36249
7.76977
7.96909
7.91594
7.59023
6.99729
6.16649
5.14789
4.00695
2.81799
1.65684
0.593582
-0.313716
-1.02311
-1.50999
-1.76485
-1.78791
-1.58195
-1.14526
-0.467333
0.470425
1.68763
3.19191
4.9619
6.93002
8.96922
10.888
12.4365
13.325
13.2529
11.9448
9.1892
4.8726
-0.995328
-8.27027
-16.6777
-25.833
-35.2749
-44.5087
-53.0516
-60.4778
-66.4548
-70.7683
-73.3339
-74.194
-73.501
-71.492
-68.455
-64.6947
-60.4988
-56.1114
-51.7134
-47.4136
-43.2498
-39.1983
-35.1912
-31.1377
-26.9458
-22.5432
-17.8928
-13.0024
-7.9281
-2.77015
2.33604
7.23272
11.7539
15.7379
19.0357
21.5105
23.0265
23.4218
22.4646
19.792
14.8375
6.75761
-5.62195
-23.8134
-49.5971
-84.8497
-131.26
-189.949
-261.038
-343.247
-433.607
-527.371
-618.205
-698.66
-760.902
-797.618
-802.97
-773.463
-708.574
-611.058
-486.842
-344.529
-194.555
-48.1051
84.0725
192.796
271.392
316.328
327.465
307.915
263.538
202.141
132.517
63.4174
2.60988
-43.8839
-72.2906
-81.2861
-71.8964
-47.1353
-11.4453
29.9733
71.8528
109.485
139.213
158.743
167.253
165.315
154.645
137.744
117.481
96.6729
77.7233
62.3576
51.4763
45.1365
42.6478
42.7597
43.9037
44.4535
42.967
38.3784
30.1217
18.1745
3.02457
-14.4308
-33.0345
-51.5456
-68.8176
-83.9549
-96.4299
-106.143
-113.424
-118.967
-123.72
-128.737
-135.013
-143.328
-154.123
-167.418
-182.792
-199.417
-216.157
-231.696
-244.701
-253.975
-258.603
-258.049
-252.213
-241.432
-226.434
-208.244
-188.068
-167.163
-146.706
-127.689
-110.835
-96.5528
-84.9299
-75.7608
-68.6046
-62.8619
-57.8631
-52.9537
-47.5694
-41.2933
-33.8885
-25.308
-15.6804
-5.27793
5.5286
16.3203
26.6793
36.2299
44.6687
51.7807
57.4425
61.6142
64.3245
65.652
65.7071
64.6168
62.5143
59.5336
55.8076
51.47
46.6562
41.5053
36.1587
30.7565
25.4321
20.3048
15.4728
11.0072
6.94943
3.31112
0.0782283
-2.7822
-5.31321
-7.55863
-9.55476
-11.3243
-12.8735
-14.1932
-15.2626
-16.0564
-16.5527
-16.7408
-16.6268
-16.2368
-15.6162
-14.8247
-13.9289
-12.9932
-12.0697
-11.1908
-10.3637
-9.5703
-8.76967
-7.90515
-6.91322
-5.73305
-4.31519
-2.62809
-0.66199
1.56983
4.03174
6.66758
9.40298
12.1475
14.7971
17.2364
19.3434
20.9949
22.0756
22.4887
22.1682
21.0906
19.2842
16.8332
13.8752
10.5918
7.19198
3.89306
0.899604
-1.61375
-3.51375
-4.71243
-5.16364
-4.85425
-3.79332
-2.00292
0.486418
3.63366
7.37915
11.6323
16.2587
21.0708
25.8255
30.2314
33.966
36.7014
38.1359
38.0262
36.216
32.6581
27.4235
20.6997
12.7757
4.01666
-5.1687
-14.3637
-23.1787
-31.2806
-38.4153
-44.4199
-49.2256
-52.8503
-55.3837
-56.9669
-57.7666
-57.9496
-57.6577
-56.9867
-55.9728
-54.5872
-52.7423
-50.3073
-47.133
-43.0832
-38.0681
-32.0746
-25.1897
-17.6117
-9.64681
-1.68908
5.81446
12.4107
17.6938
21.357
23.2361
23.3363
21.837
19.071
15.4776
11.5323
7.65724
4.11883
0.920828
-2.29743
-6.34486
-12.5276
-22.6412
-38.8832
-63.6643
-99.3092
-147.659
-209.616
-284.692
-370.654
-463.361
-556.851
-643.741
-715.902
-765.357
-785.272
-770.91
-720.387
-635.112
-519.828
-382.232
-232.229
-80.8951
60.6935
182.623
277.146
339.411
367.834
364.079
332.687
280.396
215.265
145.72
79.6224
23.4916
-18.064
-42.6428
-50.0683
-42.1527
-22.2557
5.28929
35.7995
64.8406
88.7268
104.876
111.988
110.053
100.191
84.3778
65.091
44.9364
26.2969
11.0508
0.383651
-5.29014
-6.30062
-3.60417
1.39973
7.086
11.8242
14.1737
13.0338
7.73612
-1.92209
-15.7003
-32.9813
-52.868
-74.2966
-96.1507
-117.366
-137.015
-154.371
-168.943
-180.49
-189.018
-194.749
-198.089
-199.576
-199.828
-199.483
-199.137
-199.293
-200.311
-202.376
-205.476
-209.405
-213.777
-218.062
-221.627
-223.793
-223.889
-221.307
-215.551
-206.273
-193.306
-176.681
-156.634
-133.612
-108.254
-81.3803
-53.9546
-27.0412
-1.74479
20.861
39.8125
54.3367
63.9229
68.3794
67.8637
62.8832
54.2616
43.0747
30.5599
18.0089
6.65519
-2.43233
-8.43757
-10.8598
-9.54418
-4.67983
3.2341
13.4478
25.0391
37.0024
48.3385
58.1385
65.6543
70.3507
71.937
70.3754
65.8689
58.8285
49.826
39.5349
28.6669
17.9093
7.86856
-0.973604
-8.28911
-13.9149
-17.8469
-20.2188
-21.2688
-21.2989
-20.6326
-19.5745
-18.3775
-17.2199
-16.194
-15.3061
-14.4881
-13.6164
-12.5371
-11.0928
-9.14898
-6.61564
-3.46407
0.264475
4.45768
8.93899
13.4814
17.8268
21.7088
24.8768
27.1193
28.2829
28.2868
27.1295
24.8895
21.7176
17.824
13.4613
8.90418
4.42948
0.297545
-3.26344
-6.06912
-7.98615
-8.935
-8.88871
-7.86839
-5.93668
-3.1903
0.24692
4.22942
8.59311
13.1565
17.7208
22.0696
25.9712
29.184
31.4661
32.5896
32.3592
30.6324
27.3393
22.4996
16.2333
8.76331
0.407609
-8.43832
-17.3285
-25.8001
-33.4114
-39.7787
-44.6105
-47.7333
-49.1083
-48.8353
-47.1442
-44.3741
-40.9397
-37.2907
-33.8635
-31.0336
-29.0712
-28.1077
-28.1166
-28.9134
-30.1762
-31.4841
-32.371
-32.3867
-31.1576
-28.4398
-24.1549
-18.4064
-11.4726
-3.77725
4.1565
11.7646
18.5035
23.9068
27.6296
29.4753
29.3992
27.4881
23.9155
18.8737
12.4855
4.70356
-4.79389
-16.6909
-32.0816
-52.4485
-79.541
-115.14
-160.712
-216.984
-283.512
-358.321
-437.72
-516.365
-587.612
-644.158
-678.886
-685.82
-661.031
-603.348
-514.76
-400.418
-268.219
-128.032
9.35859
133.429
235.071
307.568
347.264
353.864
330.323
282.364
217.692
145.033
73.0992
9.63738
-39.3508
-70.1234
-81.4084
-74.3097
-51.9411
-18.8597
19.6195
58.1308
91.901
117.256
131.943
135.244
127.891
111.815
89.7663
64.8846
40.2581
18.5416
1.6685
-9.31672
-14.2966
-14.0004
-9.82717
-3.60527
2.67663
7.13113
8.19645
4.80082
-3.54634
-16.7399
-34.1359
-54.6656
-76.9903
-99.6723
-121.344
-140.852
-157.368
-170.444
-180.03
-186.433
-190.248
-192.253
-193.3
-194.203
-195.642
-198.096
-201.797
-206.723
-212.623
-219.055
-225.45
-231.174
-235.587
-238.099
-238.207
-235.52
-229.779
-220.861
-208.784
-193.702
-175.909
-155.822
-133.976
-111.003
-87.6035
-64.5115
-42.4528
-22.1005
-4.03149
11.3105
23.6414
32.8498
38.9953
42.2936
43.0905
41.829
39.0132
35.1731
30.8327
26.4823
22.5562
19.4149
17.3317
16.482
16.9373
18.6623
21.5173
25.2663
29.5922
34.1191
38.4406
42.1533
44.8914
46.3608
46.3662
44.8311
41.8052
37.4596
32.0699
25.9882
19.6083
13.3271
7.50841
2.45061
-1.63552
-4.6388
-6.54801
-7.44181
-7.4704
-6.83188
-5.74677
-4.43383
-3.08981
-1.87494
-0.904838
-0.248709
0.0670909
0.0516062
-0.26043
-0.819035
-1.56889
-2.45775
-3.44259
-4.49266
-5.58885
-6.71879
-7.86802
-9.00842
-10.0861
-11.012
-11.6584
-11.8644
-11.4516
-10.2493
-8.12614
-5.02383
-0.986536
3.82025
9.10599
14.4695
19.4319
23.4843
26.1462
27.0258
25.8741
22.6265
17.4231
10.6072
2.69813
-5.65561
-13.7414
-20.8561
-26.3821
-29.8554
-31.0195
-29.858
-26.6009
-21.7051
-15.8092
-9.66915
-4.08007
0.205483
2.55413
2.51462
-0.139849
-5.39376
-12.9966
-22.4933
-33.2712
-44.6195
-55.7904
-66.0588
-74.7726
-81.3927
-85.52
-86.911
-85.4826
-81.3082
-74.6076
-65.7305
-55.1343
-43.358
-30.9906
-18.6359
-6.87569
3.7659
12.855
20.0729
25.2324
28.2824
29.3022
28.4864
26.1203
22.55
18.144
13.2479
8.12557
2.88712
-2.59907
-8.80228
-16.6181
-27.4227
-43.0587
-65.716
-97.6853
-140.981
-196.869
-265.368
-344.825
-431.668
-520.431
-604.108
-674.814
-724.691
-746.936
-736.776
-692.255
-614.675
-508.631
-381.617
-243.241
-104.182
24.993
134.98
218.708
272.02
293.972
286.756
255.249
206.29
147.773
87.6895
33.2344
-9.92043
-38.1084
-49.8723
-45.8873
-28.6403
-1.92502
29.766
61.8684
90.3139
111.973
124.933
128.594
123.584
111.535
94.7539
75.8395
57.3128
41.2913
29.2536
21.9116
19.1948
20.3381
24.0488
28.7251
32.6908
34.4169
32.7027
26.7976
16.4551
1.91772
-16.1588
-36.8256
-58.9865
-81.546
-103.541
-124.237
-143.183
-160.216
-175.423
-189.073
-201.519
-213.106
-224.084
-234.55
-244.413
-253.41
-261.137
-267.119
-270.887
-272.054
-270.385
-265.837
-258.573
-248.947
-237.457
-224.682
-211.205
-197.549
-184.109
-171.124
-158.66
-146.628
-134.818
-122.958
-110.773
-98.0465
-84.6714
-70.6825
-56.2685
-41.7599
-27.5973
-14.2821
-2.3195
7.84122
15.8595
21.5436
24.8732
26.0024
25.2422
23.0276
19.8711
16.3109
12.8586
9.9529
7.92489
6.97694
7.17762
8.47176
10.7031
13.6461
17.0416
20.6314
24.1879
27.5343
30.5544
33.1915
35.438
37.3197
38.8756
40.1408
41.131
41.8354
42.2146
42.2067
41.7374
40.7335
39.1372
36.9183
34.0824
30.6747
26.7776
22.5041
17.9874
13.3679
8.78193
4.35217
0.181767
-3.6468
-7.06903
-10.0329
-12.4921
-14.4009
-15.7111
-16.3735
-16.3443
-15.5955
-14.128
-11.9857
-9.26668
-6.13006
-2.79502
0.468613
3.35867
5.56666
6.80876
6.85863
5.57764
2.93894
-0.958042
-5.88452
-11.4915
-17.3307
-22.8849
-27.6062
-30.9597
-32.4684
-31.7571
-28.5923
-22.9138
-14.8554
-4.75266
6.86674
19.3086
31.7555
43.3254
53.141
60.4059
64.4784
64.9359
61.6215
54.6673
44.4889
31.7509
17.3072
2.11998
-12.8315
-26.6437
-38.5713
-48.0915
-54.9407
-59.1223
-60.8834
-60.6638
-59.0263
-56.5743
-53.8701
-51.3621
-49.3325
-47.8707
-46.8752
-46.0845
-45.1308
-43.6092
-41.1512
-37.4934
-32.5303
-26.3441
-19.2078
-11.5607
-3.95986
2.9858
8.6902
12.6644
14.5806
14.319
11.9905
7.93288
2.68066
-3.09209
-8.65035
-13.2952
-16.473
-17.8908
-17.6282
-16.2357
-14.804
-14.9887
-18.9696
-29.3275
-48.825
-80.0896
-125.214
-185.31
-260.078
-347.464
-443.488
-542.306
-636.561
-717.997
-778.302
-810.079
-807.808
-768.662
-693.058
-584.824
-450.968
-301.036
-146.16
2.1114
133.03
237.768
310.303
347.952
351.515
325.012
275.062
210.009
138.897
70.4412
12.1047
-30.6052
-54.5626
-59.1363
-46.0064
-18.73
17.8678
58.3908
97.5617
130.827
154.807
167.563
168.658
159.031
140.728
116.524
89.5016
62.6506
38.5149
18.9427
4.94787
-3.31001
-6.43913
-5.64588
-2.51279
1.24253
3.99532
4.40235
1.53297
-5.06622
-15.3726
-28.9462
-45.0309
-62.6804
-80.8905
-98.7207
-115.391
-130.344
-143.279
-154.134
-163.062
-170.363
-176.423
-181.645
-186.388
-190.919
-195.392
-199.834
-204.154
-208.171
-211.639
-214.281
-215.822
-216.01
-214.629
-211.509
-206.52
-199.569
-190.597
-179.577
-166.526
-151.525
-134.731
-116.409
-96.9402
-76.8272
-56.681
-37.1897
-19.0708
-3.01236
10.3912
20.6991
27.6728
31.3052
31.827
29.6877
25.514
20.0502
14.0882
8.39506
3.64589
0.369901
-1.08735
-0.582963
1.82275
5.88228
11.1908
17.2274
23.403
29.1139
33.7949
36.9694
38.2923
37.5811
34.8338
30.2296
24.1132
16.963
9.34692
1.86853
-4.88948
-10.42
-14.3383
-16.4156
-16.5972
-15.0024
-11.9074
-7.7129
-2.90055
2.01662
6.54478
10.2553
12.8221
14.0459
13.8656
12.3547
9.70476
6.19935
2.1811
-1.98379
-5.93955
-9.37029
-12.0222
-13.7172
-14.3582
-13.9259
-12.4694
-10.092
-6.93484
-3.16065
1.06123
5.56577
10.199
14.82
19.2996
23.5154
27.3472
30.6727
33.3658
35.2997
36.3526
36.4186
35.4204
33.3229
30.1458
25.9727
20.9557
15.314
9.32652
3.31873
-2.3553
-7.33498
-11.2781
-13.8879
-14.9403
-14.3111
-11.9977
-8.13485
-2.99861
3.00365
9.35936
15.4923
20.8168
24.7988
27.0167
27.2136
25.3328
21.5303
16.1601
9.7339
2.85767
-3.84575
-9.81737
-14.6346
-18.0648
-20.0914
-20.9099
-20.893
-20.5309
-20.356
-20.8618
-22.4281
-25.2639
-29.3733
-34.5516
-40.4094
-46.4219
-51.9945
-56.538
-59.5399
-60.6251
-59.5968
-56.4553
-51.3905
-44.7539
-37.0116
-28.6871
-20.3018
-12.3189
-5.10046
1.12036
6.24839
10.317
13.4634
15.8918
17.8308
19.487
20.9994
22.3915
23.5199
24.0167
23.2242
20.1303
13.3217
0.98129
-19.0375
-49.0299
-91.1376
-146.939
-216.973
-300.282
-394.062
-493.524
-592.047
-681.639
-753.699
-799.984
-813.662
-790.278
-728.51
-630.561
-502.127
-351.932
-190.876
-30.9064
116.235
240.236
333.251
390.63
411.264
397.515
354.766
290.667
214.171
134.499
60.1603
-1.87823
-46.7732
-72.0997
-77.85
-66.1618
-40.8353
-6.7136
30.9864
67.3114
98.1056
120.39
132.558
134.392
126.906
112.064
92.4146
70.7057
49.5106
30.9281
16.3756
6.49461
1.16781
-0.367265
0.667215
2.81248
4.59935
4.74559
2.30048
-3.27684
-12.107
-23.9393
-38.2428
-54.3195
-71.4179
-88.8292
-105.955
-122.343
-137.684
-151.794
-164.574
-175.971
-185.947
-194.458
-201.451
-206.88
-210.725
-213.008
-213.818
-213.303
-211.664
-209.126
-205.906
-202.169
-197.999
-193.375
-188.163
-182.136
-175.006
-166.469
-156.266
-144.236
-130.364
-114.807
-97.9073
-80.1706
-62.2297
-44.7854
-28.5383
-14.1166
-2.01044
7.47915
14.2716
18.5142
20.5655
20.9573
20.3391
19.4123
18.8601
19.2809
21.1308
24.6811
29.994
36.9186
45.1065
54.0465
63.1136
71.6271
78.9141
84.3698
87.5103
88.0139
85.7459
80.7669
73.3239
63.8274
52.8153
40.9107
28.7739
17.0563
6.35648
-2.81643
-10.0718
-15.1562
-17.9633
-18.5329
-17.0424
-13.7903
-9.17317
-3.65816
2.24859
8.03497
13.2163
17.3669
20.1482
21.3309
20.81
18.6112
14.8872
9.90479
4.02237
-2.33924
-8.73138
-14.7138
-19.8895
-23.9346
-26.6215
-27.8321
-27.5604
-25.9057
-23.056
-19.2643
-14.8208
-10.0234
-5.1503
-0.436147
3.94412
7.88334
11.3399
14.3252
16.882
19.0564
20.8676
22.2818
23.1956
23.4345
22.7682
20.945
17.7399
13.0114
6.75818
-0.836343
-9.37928
-18.2731
-26.7528
-33.956
-39.0173
-41.1792
-39.9025
-34.9623
-26.5148
-15.1214
-1.72475
12.4253
25.8896
37.1892
44.9684
48.1515
46.073
38.5632
25.9787
9.17198
-10.595
-31.7833
-52.7387
-71.8622
-87.7694
-99.4192
-106.199
-107.959
-104.99
-97.9597
-87.8115
-75.6392
-62.5619
-49.6077
-37.6215
-27.2054
-18.6956
-12.1727
-7.50202
-4.39193
-2.46114
-1.30331
-0.540241
0.14204
0.97615
2.11319
3.63452
5.56845
7.90426
10.5966
13.5551
16.6155
19.4937
21.7247
22.5941
21.0748
15.7876
5.00831
-13.2517
-41.0698
-80.333
-132.37
-197.535
-274.82
-361.561
-453.355
-544.206
-626.962
-693.985
-738.002
-752.998
-735.049
-682.944
-598.515
-486.604
-354.666
-212.057
-69.0883
64.0298
178.221
266.435
324.289
350.391
346.334
316.349
266.707
204.926
138.9
76.0508
22.5935
-17.0063
-40.3376
-47.0948
-38.8899
-18.8665
8.82384
39.6088
69.074
93.4655
110.064
117.396
115.283
104.715
87.6116
66.4829
44.0581
22.9224
5.20963
-7.61929
-14.8928
-16.7361
-13.9799
-7.9924
-0.461294
6.83954
12.27
14.5036
12.649
6.30517
-4.44876
-19.1195
-36.9055
-56.8234
-77.8369
-98.9704
-119.396
-138.487
-155.837
-171.246
-184.686
-196.248
-206.087
-214.369
-221.229
-226.747
-230.932
-233.728
-235.032
-234.71
-232.633
-228.698
-222.854
-215.12
-205.597
-194.465
-181.976
-168.436
-154.178
-139.538
-124.823
-110.288
-96.1149
-82.4039
-69.171
-56.3609
-43.8679
-31.5671
-19.35
-7.16031
4.97505
16.9261
28.455
39.2281
48.8462
56.8869
62.9572
66.746
68.0708
66.9114
63.4249
57.9406
50.934
42.9837
34.7165
26.7472
19.6214
13.7658
9.45442
6.79103
5.71127
6.00198
7.33509
9.31148
11.5091
13.5304
15.0424
15.8079
15.7023
14.7167
12.9478
10.5761
7.83561
4.98079
2.25232
-0.151942
-2.09886
-3.53205
-4.47343
-5.01457
-5.2997
-5.50284
-5.80238
-6.35621
-7.28048
-8.63435
-10.4122
-12.5439
-14.9029
-17.3202
-19.6038
-21.5591
-23.01
-23.8165
-23.8883
-23.1922
-21.7532
-19.6495
-17.0018
-13.9599
-10.6859
-7.33819
-4.05756
-0.95549
1.89248
4.44892
6.71198
8.70884
10.4861
12.0986
13.5981
15.023
16.3912
17.6954
18.9031
19.9595
20.7938
21.3278
21.4848
21.1987
20.4217
19.1291
17.3209
15.0208
12.2713
9.12604
5.64165
1.8684
-2.15743
-6.41889
-10.92
-15.6831
-20.7421
-26.132
-31.8765
-37.9747
-44.3905
-51.0439
-57.8078
-64.5089
-70.9333
-76.8355
-81.9496
-86.0027
-88.7295
-89.8879
-89.2761
-86.7506
-82.2441
-75.7829
-67.5
-57.6433
-46.5759
-34.7655
-22.7643
-11.1771
-0.620961
8.32027
15.1435
19.4698
21.0789
19.9315
16.1742
10.1264
2.24639
-6.92322
-16.8329
-27.0238
-37.2421
-47.5582
-58.4728
-70.9815
-86.5661
-107.082
-134.524
-170.678
-216.693
-272.635
-337.129
-407.145
-478.041
-543.869
-597.95
-633.645
-645.231
-628.733
-582.599
-508.09
-409.326
-292.959
-167.514
-42.4815
72.7227
169.783
242.376
286.802
302.299
290.996
257.535
208.417
151.162
93.4042
42.0252
2.43078
-21.9448
-29.8667
-22.2463
-1.835
27.2803
60.3022
92.381
119.222
137.572
145.527
142.651
129.893
109.341
83.8514
56.6176
30.7372
8.82876
-7.25316
-16.5799
-19.1784
-15.9385
-8.41997
1.40474
11.4335
19.7048
24.6211
25.1032
20.6606
11.3815
-2.15006
-18.9875
-37.9836
-57.9548
-77.8265
-96.7412
-114.121
-129.683
-143.407
-155.475
-166.188
-175.879
-184.827
-193.203
-201.029
-208.168
-214.341
-219.166
-222.201
-223.007
-221.205
-216.518
-208.822
-198.159
-184.755
-169.005
-151.451
-132.736
-113.555
-94.5965
-76.4762
-59.687
-44.5562
-31.2228
-19.6367
-9.58158
-0.716447
7.36779
15.0857
22.7971
30.7568
39.0823
47.7411
56.5606
65.257
73.4779
80.8537
87.0491
91.8077
94.986
96.5701
96.6759
95.5318
93.4473
90.7706
87.8409
84.9409
82.2558
79.8435
77.6225
75.3771
72.7832
69.4503
64.9761
59.0074
51.2999
41.7696
30.5285
17.8988
4.40325
-9.27112
-22.3314
-33.9548
-43.3728
-49.9559
-53.2849
-53.2043
-49.8461
-43.6245
-35.1988
-25.4104
-15.2001
-5.51569
2.77973
8.98906
12.6438
13.542
11.7601
7.63697
1.73658
-5.20851
-12.3645
-18.869
-23.9029
-26.7565
-26.8865
-23.9609
-17.8892
-8.83656
2.77845
16.3054
30.9015
45.5879
59.3226
71.0833
79.9552
85.2162
86.4093
83.3946
76.3731
65.8772
52.7287
37.9662
22.7501
8.25475
-4.43998
-14.4465
-21.1463
-24.2386
-23.7571
-20.0546
-13.7584
-5.70353
3.15059
11.8091
19.3301
24.903
27.9117
27.9773
24.9787
19.0499
10.5578
0.0623213
-11.7346
-24.0472
-36.0657
-47.0139
-56.201
-63.0647
-67.2056
-68.4101
-66.6618
-62.1427
-55.2199
-46.4212
-36.3963
-25.8656
-15.5595
-6.15393
1.79345
7.89467
11.9653
14.0332
14.3179
13.183
11.0626
8.37149
5.40674
2.25178
-1.30906
-5.85592
-12.37
-22.23
-37.1557
-59.0832
-89.9632
-131.481
-184.716
-249.781
-325.492
-409.154
-496.506
-581.891
-658.662
-719.789
-758.62
-769.692
-749.477
-696.965
-613.973
-505.138
-377.565
-240.172
-102.799
24.8006
133.973
218.039
272.935
297.545
293.679
265.731
220.047
164.121
105.694
51.8956
8.51242
-20.5308
-33.4338
-30.5136
-13.9508
12.6587
44.8779
78.0462
107.863
130.868
144.773
148.619
142.745
128.617
108.519
85.1895
61.4281
39.7437
22.0709
9.58908
2.65494
0.844835
3.09102
7.88467
13.5132
18.2981
20.8028
19.9868
15.2931
6.66405
-5.50709
-20.4755
-37.2759
-54.865
-72.2551
-88.6241
-103.39
-116.245
-127.154
-136.311
-144.084
-150.932
-157.329
-163.692
-170.317
-177.346
-184.742
-192.3
-199.665
-206.375
-211.913
-215.758
-217.445
-216.605
-213.007
-206.571
-197.374
-185.64
-171.709
-156.007
-139.01
-121.205
-103.067
-85.0306
-67.4794
-50.7396
-35.0786
-20.7079
-7.78611
3.57783
13.3243
21.4439
27.9791
33.0255
36.731
39.2896
40.9315
41.9072
42.4679
42.8444
43.2269
43.7474
44.4698
45.3863
46.4225
47.4498
48.3044
48.8087
48.7943
48.1233
46.7041
44.5025
41.5447
37.9138
33.7385
29.178
24.4019
19.5716
14.8229
10.2539
5.92021
1.83723
-2.01052
-5.65494
-9.12767
-12.4442
-15.5917
-18.5235
-21.16
-23.3975
-25.1226
-26.2292
-26.6362
-26.3025
-25.2363
-23.4993
-21.2036
-18.505
-15.5922
-12.674
-9.96618
-7.67612
-5.98766
-5.04463
-4.93473
-5.67533
-7.20351
-9.37279
-11.9583
-14.6716
-17.1836
-19.1547
-20.2682
-20.2629
-18.9616
-16.291
-12.2916
-7.11598
-1.01616
5.67889
12.5919
19.3298
25.5161
30.8208
34.9849
37.8373
39.3043
39.4093
38.265
36.057
33.0221
29.4224
25.5186
21.5462
17.6966
14.1071
10.8593
7.9869
5.48988
3.35149
1.55387
0.0876659
-1.04754
-1.85318
-2.35062
-2.60503
-2.74803
-2.99234
-3.63205
-5.02461
-7.55336
-11.574
-17.351
-24.9952
-34.411
-45.2665
-56.9931
-68.8185
-79.8326
-89.0788
-95.6594
-98.8422
-98.1525
-93.438
-84.8976
-73.0696
-58.7803
-43.0601
-27.0387
-11.8303
1.57411
12.3968
20.1346
24.5866
25.8448
24.2518
20.3295
14.6857
7.90632
0.441511
-7.50832
-16.0959
-25.9093
-38.0165
-53.9532
-75.6318
-105.155
-144.527
-195.279
-258.052
-332.187
-415.429
-503.79
-591.667
-672.216
-737.987
-781.73
-797.294
-780.47
-729.665
-646.291
-534.795
-402.329
-258.067
-112.281
24.7323
143.709
237.352
301.017
333.065
334.871
310.49
266.041
208.905
146.846
87.1603
35.9588
-2.34687
-25.3117
-32.4721
-25.1338
-5.98392
21.4036
53.0964
85.2965
114.741
138.975
156.483
166.684
169.813
166.729
158.676
147.053
133.205
118.273
103.098
88.1979
73.7895
59.8553
46.2303
32.6939
19.0499
5.18612
-8.89519
-23.0741
-37.1347
-50.8047
-63.803
-75.8874
-86.8943
-96.765
-105.555
-113.429
-120.64
-127.497
-134.332
-141.462
-149.151
-157.583
-166.84
-176.889
-187.584
-198.667
-209.789
-220.533
-230.437
-239.029
-245.853
-250.497
-252.615
-251.947
-248.325
-241.68
-232.041
-219.535
-204.377
-186.87
-167.391
-146.388
-124.368
-101.882
-79.5102
-57.8348
-37.4179
-18.7709
-2.32517
11.5939
22.7885
31.2005
36.9146
40.1496
41.239
40.6033
38.7144
36.0576
33.0937
30.2242
27.7642
25.9247
24.8047
24.396
24.5965
25.2336
26.0914
26.9418
27.5735
27.8169
27.5619
26.7675
25.4607
23.7278
21.6971
19.5173
17.3333
15.2637
13.3825
11.7072
10.1956
8.75162
7.23801
5.49635
3.36991
0.727303
-2.51622
-6.38251
-10.8213
-15.709
-20.8562
-26.0218
-30.9344
-35.3158
-38.9068
-41.4907
-42.9138
-43.0999
-42.0586
-39.8855
-36.7547
-32.9048
-28.6167
-24.1889
-19.908
-16.0217
-12.7136
-10.0856
-8.14878
-6.82463
-5.95677
-5.33193
-4.70763
-3.84317
-2.53016
-0.618719
1.96365
5.20279
8.99895
13.1778
17.51
21.736
25.5943
28.8481
31.309
32.8538
33.4344
33.0784
31.8822
29.997
27.61
24.9231
22.1314
19.4041
16.87
14.608
12.6446
10.9564
9.47838
8.11571
6.75719
5.2894
3.60937
1.63468
-0.690076
-3.39079
-6.46527
-9.88796
-13.6169
-17.6013
-21.7885
-26.1277
-30.5713
-35.0707
-39.5696
-43.9948
-48.2471
-52.195
-55.6737
-58.4903
-60.4367
-61.3083
-60.9262
-59.1611
-55.9532
-51.3264
-45.3948
-38.3581
-30.4882
-22.1083
-13.5667
-5.20895
2.64753
9.73484
15.8487
20.8547
24.6874
27.3416
28.8567
29.2937
28.7012
27.0674
24.2547
19.9174
13.411
3.71089
-10.6289
-31.4415
-60.8057
-100.775
-152.989
-218.203
-295.823
-383.525
-477.088
-570.489
-656.324
-726.52
-773.252
-789.962
-772.296
-718.834
-631.472
-515.401
-378.665
-231.347
-84.5066
51.0102
165.715
252.444
307.03
328.599
319.49
284.807
231.692
168.416
103.412
44.364
-2.55166
-33.1835
-45.6551
-40.3369
-19.5707
12.7995
52.0147
93.0296
131.103
162.29
183.784
194.095
193.056
181.677
161.898
136.255
107.537
78.4521
51.3577
28.0594
9.70467
-3.23616
-10.9118
-13.9718
-13.4131
-10.4135
-6.17723
-1.80697
1.78267
3.90843
4.12018
2.17062
-2.03439
-8.49059
-17.1424
-27.913
-40.7137
-55.4322
-71.9071
-89.8953
-109.044
-128.872
-148.776
-168.048
-185.923
-201.633
-214.477
-223.876
-229.431
-230.955
-228.482
-222.264
-212.732
-200.459
-186.101
-170.348
-153.865
-137.261
-121.05
-105.642
-91.3278
-78.2913
-66.6149
-56.2967
-47.2685
-39.414
-32.5857
-26.6187
-21.3416
-16.5829
-12.1755
-7.95871
-3.78178
0.491566
4.9752
9.74971
14.8496
20.2508
25.8615
31.5192
36.9961
42.0148
46.2722
49.4709
51.3528
51.7318
50.5194
47.7413
43.5402
38.1664
31.9555
25.2972
18.5983
12.2452
6.5693
1.81925
-1.85731
-4.42138
-5.93948
-6.57018
-6.54193
-6.12401
-5.59356
-5.20182
-5.14345
-5.53259
-6.38898
-7.63638
-9.11418
-10.6012
-11.8493
-12.6218
-12.7326
-12.0796
-10.6677
-8.61746
-6.15802
-3.60426
-1.32076
0.323048
1.00087
0.474709
-1.36893
-4.4966
-8.72261
-13.722
-19.0609
-24.2403
-28.749
-32.1186
-33.9735
-34.0717
-32.3283
-28.8225
-23.7853
-17.5711
-10.617
-3.39533
3.63466
10.0697
15.5957
20.0082
23.2178
25.2433
26.193
26.2382
25.5843
24.4418
23.0025
21.4223
19.8119
18.2359
16.7188
15.2551
13.8219
12.3925
10.9484
9.48902
8.04011
6.65825
5.43266
4.4825
3.94889
3.98084
4.71484
6.24887
8.61328
11.7422
15.4509
19.4241
23.2217
26.304
28.0779
27.9598
25.4502
20.2072
12.1104
1.30336
-11.7945
-26.5088
-41.9652
-57.1708
-71.1137
-82.8673
-91.6854
-97.0775
-98.8538
-97.1353
-92.3285
-85.069
-76.142
-66.3903
-56.6214
-47.5249
-39.6103
-33.1699
-28.2712
-24.7762
-22.3838
-20.688
-19.2428
-17.6263
-15.4952
-12.6254
-8.93466
-4.48758
0.516295
5.76726
10.8794
15.4282
18.987
21.1542
21.5663
19.8883
15.7777
8.82204
-1.54165
-16.1067
-35.9465
-62.3989
-96.9531
-141.02
-195.591
-260.832
-335.677
-417.512
-502.051
-583.468
-654.821
-708.734
-738.269
-737.872
-704.227
-636.903
-538.666
-415.388
-275.562
-129.458
11.9563
138.198
240.392
312.204
350.446
355.305
330.176
281.121
216.062
143.795
72.975
11.1847
-35.8058
-64.5095
-73.8918
-65.2415
-41.7834
-8.10239
30.5364
68.8796
102.306
127.308
141.788
145.154
138.222
122.956
102.09
78.7053
55.7945
35.8953
20.813
11.4666
7.86249
9.18584
13.9863
20.4244
26.5412
30.5149
30.8737
26.6425
17.4136
3.33964
-14.9395
-36.42
-59.8854
-84.0624
-107.761
-129.985
-149.996
-167.344
-181.849
-193.557
-202.681
-209.524
-214.425
-217.701
-219.62
-220.385
-220.139
-218.978
-216.966
-214.154
-210.594
-206.341
-201.456
-196.002
-190.035
-183.6
-176.728
-169.432
-161.708
-153.536
-144.882
-135.698
-125.925
-115.497
-104.35
-92.4296
-79.7113
-66.2129
-52.0126
-37.2607
-22.1861
-7.09257
7.65458
21.6517
34.4877
45.7801
55.21
62.5544
67.7087
70.699
71.6794
70.9169
68.7631
65.6172
61.8844
57.9351
54.0695
50.4929
47.3033
44.4935
41.9663
39.5601
37.0815
34.3388
31.1739
27.486
23.2461
18.5003
13.3632
8.00436
2.63029
-2.53441
-7.26411
-11.3463
-14.593
-16.8492
-18.0007
-17.9816
-16.7809
-14.4499
-11.1068
-6.93865
-2.19775
2.80763
7.72981
12.2041
15.8761
18.4307
19.6208
19.2914
17.3981
14.016
9.33984
3.6732
-2.59071
-8.99675
-15.0611
-20.3079
-24.3057
-26.7021
-27.2521
-25.8392
-22.4864
-17.3579
-10.7486
-3.06441
5.20674
13.5312
21.3698
28.22
33.6554
37.3595
39.1517
38.9999
37.0208
33.4664
28.6975
23.1467
17.2761
11.5324
6.3056
1.89626
-1.50702
-3.836
-5.13782
-5.55808
-5.31468
-4.66675
-3.88316
-3.21494
-2.87531
-3.0294
-3.79397
-5.24542
-7.43277
-10.3913
-14.1523
-18.7454
-24.1923
-30.4904
-37.5922
-45.3824
-53.6596
-62.1279
-70.4019
-78.0271
-84.5149
-89.3869
-92.2253
-92.7199
-90.7054
-86.1839
-79.3272
-70.4598
-60.0238
-48.5319
-36.516
-24.4792
-12.8604
-2.01543
7.78281
16.3266
23.4437
28.9632
32.6824
34.3416
33.6073
30.0607
23.1894
12.376
-3.11338
-24.1333
-51.6361
-86.6008
-129.891
-182.034
-242.941
-311.595
-385.789
-461.971
-535.28
-599.812
-649.125
-676.941
-677.963
-648.675
-588.02
-497.805
-382.776
-250.311
-109.748
28.5479
154.293
258.395
333.942
376.914
386.564
365.392
318.756
254.162
180.341
106.235
40.0207
-11.7191
-44.5804
-56.6353
-48.4228
-22.6632
16.248
62.8852
111.491
156.638
193.787
219.68
232.554
232.158
219.605
197.089
167.517
134.108
100.014
67.9831
40.1296
17.7903
1.49315
-8.98102
-14.4623
-16.2057
-15.6828
-14.379
-13.618
-14.43
-17.4748
-23.0215
-30.9799
-40.9745
-52.4462
-64.7645
-77.3355
-89.6879
-101.529
-112.764
-123.476
-133.882
-144.254
-154.849
-165.826
-177.191
-188.767
-200.187
-210.922
-220.331
-227.732
-232.472
-234.002
-231.936
-226.098
-216.54
-203.545
-187.608
-169.39
-149.668
-129.272
-109.016
-89.6398
-71.7509
-55.7893
-42.0031
-30.4446
-20.9849
-13.344
-7.13521
-1.91554
2.75984
7.28744
11.9737
17.0063
22.4401
28.2004
34.0997
39.8674
45.1866
49.734
53.2187
55.4143
56.1823
55.4844
53.383
50.0312
45.654
40.5238
34.9328
29.1663
23.4792
18.0783
13.1112
8.66475
4.76982
1.41423
-1.44045
-3.84034
-5.82294
-7.40631
-8.58613
-9.34155
-9.64854
-9.49784
-8.91332
-7.96613
-6.78071
-5.52999
-4.41933
-3.66101
-3.44283
-3.89615
-5.0686
-6.90671
-9.25173
-11.8502
-14.3789
-16.4803
-17.8057
-18.0588
-17.0352
-14.6522
-10.9655
-6.16972
-0.583355
5.38104
11.2583
16.5791
20.9211
23.9554
25.4844
25.4657
24.0173
21.4059
18.0158
14.3041
10.7468
7.78281
5.76167
4.90362
5.27527
6.78442
9.1943
12.1549
15.247
18.0335
20.1102
21.1517
20.9448
19.4087
16.5966
12.6826
7.93375
2.67169
-2.77117
-8.09597
-13.0763
-17.5867
-21.6168
-25.2694
-28.741
-32.2877
-36.1814
-40.6587
-45.8727
-51.8518
-58.4725
-65.4507
-72.3536
-78.633
-83.6761
-86.8703
-87.6732
-85.6803
-80.6825
-72.7045
-62.0206
-49.1439
-34.7901
-19.82
-5.16567
8.2504
19.5959
28.2003
33.6107
35.6273
34.3165
30.0008
23.2298
14.7312
5.34861
-4.0366
-12.5957
-19.6576
-24.826
-28.1036
-30.0116
-31.6823
-34.8976
-42.0393
-55.9231
-79.5003
-115.436
-165.605
-230.57
-309.142
-398.109
-492.227
-584.514
-666.85
-730.824
-768.723
-774.529
-744.775
-679.13
-580.614
-455.411
-312.286
-161.693
-14.6788
118.271
228.294
309.007
357.04
372.218
357.369
317.824
260.664
193.836
125.249
61.954
9.49579
-28.4968
-50.4633
-56.8116
-49.6046
-32.0942
-8.17656
18.1585
43.3138
64.4562
79.7416
88.3831
90.5746
87.2967
80.048
70.5437
60.4275
51.0335
43.2244
37.3178
33.1024
29.9309
26.8671
22.8631
16.9368
8.32663
-3.39807
-18.2794
-35.9715
-55.7929
-76.8201
-98.0062
-118.308
-136.806
-152.797
-165.865
-175.905
-183.117
-187.97
-191.133
-193.393
-195.567
-198.411
-202.54
-208.365
-216.044
-225.465
-236.247
-247.768
-259.212
-269.634
-278.038
-283.46
-285.051
-282.147
-274.329
-261.468
-243.735
-221.609
-195.841
-167.415
-137.475
-107.256
-77.9884
-50.8119
-26.6948
-6.36304
9.74679
21.5105
29.1104
33.0019
33.8558
32.4844
29.7565
26.5148
23.5004
21.2948
20.2834
20.6422
22.3481
25.2085
28.9053
33.0473
37.2231
41.0486
44.2055
46.4663
47.7043
47.892
47.0859
45.4045
43.001
40.0351
36.6466
32.9349
28.9463
24.6716
20.0545
15.0131
9.47027
3.39188
-3.17537
-10.0719
-17.0082
-23.5681
-29.2371
-33.4546
-35.685
-35.4988
-32.6515
-27.1459
-19.2675
-9.58393
1.09642
11.8011
21.4989
29.2202
34.1742
35.8493
34.08
29.0728
21.385
11.861
1.53292
-8.5006
-17.2022
-23.7136
-27.4495
-28.1557
-25.9256
-21.1758
-14.5823
-6.98952
0.697301
7.62276
13.0807
16.5911
17.9467
17.2237
14.7582
11.0919
6.89494
2.87681
-0.304429
-2.12312
-2.2482
-0.579847
2.74288
7.36332
12.754
18.2823
23.2871
27.156
29.3946
29.6789
27.8862
24.1007
18.5953
11.7924
4.20985
-3.59966
-11.1093
-17.87
-23.5492
-27.9516
-31.0219
-32.8314
-33.5503
-33.4124
-32.6773
-31.5941
-30.3731
-29.1662
-28.0592
-27.0736
-26.1772
-25.3009
-24.3562
-23.254
-21.9185
-20.2976
-18.3677
-16.134
-13.6275
-10.899
-8.01307
-5.04146
-2.05728
0.869827
3.67772
6.3151
8.74394
10.9405
12.8944
14.604
16.0672
17.2651
18.1371
18.5437
18.2171
16.6992
13.2727
6.89896
-3.81863
-20.617
-45.4733
-80.4008
-127.136
-186.738
-259.155
-342.824
-434.409
-528.748
-619.075
-697.536
-755.969
-786.847
-784.285
-744.934
-668.643
-558.758
-421.991
-267.87
-107.797
46.13
182.422
291.425
366.338
403.873
404.498
372.232
314.036
238.895
156.706
77.1301
8.55078
-42.7553
-73.1304
-81.7016
-70.2026
-42.5008
-3.91344
39.586
82.1617
118.811
145.885
161.378
164.988
157.938
142.629
122.171
99.878
78.7796
61.235
48.6736
41.493
39.1117
40.1536
42.7286
44.7603
44.3128
39.8721
30.5452
16.1596
-2.74504
-25.0225
-49.1014
-73.2136
-95.6369
-114.919
-130.058
-140.61
-146.73
-149.123
-148.932
-147.57
-146.521
-147.144
-150.491
-157.181
-167.328
-180.534
-195.953
-212.403
-228.517
-242.911
-254.334
-261.81
-264.718
-262.834
-256.315
-245.643
-231.53
-214.807
-196.321
-176.841
-156.994
-137.238
-117.869
-99.0444
-80.8387
-63.2939
-46.468
-30.4689
-15.4669
-1.68823
10.6113
21.1842
29.8337
36.4534
41.0559
43.7853
44.9124
44.811
43.919
42.6907
41.5444
40.8143
40.7125
41.3063
42.5132
44.1159
45.7933
47.1653
47.8433
47.4816
45.8219
42.7268
38.1965
32.3701
25.5101
17.9737
10.1757
2.5469
-4.50649
-10.6376
-15.5854
-19.1909
-21.4014
-22.2652
-21.9176
-20.5596
-18.4345
-15.8014
-12.9123
-9.99086
-7.21796
-4.72303
-2.58251
-0.824665
0.56039
1.60746
2.36205
2.86754
3.15548
3.24073
3.12163
2.78532
2.21698
1.41154
0.385632
-0.812148
-2.0949
-3.33633
-4.37584
-5.02981
-5.10838
-4.43629
-2.87561
-0.347992
3.14655
7.51718
12.5786
18.0576
23.6115
28.8549
33.3955
36.8725
38.9946
39.5716
38.537
35.9571
32.0258
27.0456
21.3971
15.4996
9.76972
4.58026
0.226064
-3.10043
-5.32121
-6.47178
-6.68787
-6.18226
-5.21497
-4.06076
-2.97792
-2.18212
-1.82799
-1.99992
-2.71269
-3.92064
-5.53366
-7.43725
-9.51364
-11.6609
-13.8077
-15.9214
-18.0084
-20.1076
-22.2763
-24.5721
-27.0327
-29.6567
-32.3889
-35.1129
-37.6518
-39.7789
-41.2364
-41.7611
-41.1134
-39.1065
-35.6316
-30.6773
-24.3383
-16.8144
-8.39813
0.547015
9.61581
18.3945
26.4942
33.5803
39.3946
43.7654
46.6051
47.8901
47.6228
45.7747
42.2085
36.5852
28.2663
16.23
-0.967141
-25.1479
-58.3595
-102.588
-159.35
-229.221
-311.352
-403.114
-499.938
-595.45
-681.923
-751.024
-794.777
-806.601
-782.275
-720.677
-624.17
-498.559
-352.614
-197.204
-44.1484
95.051
210.452
294.715
343.82
357.382
338.524
293.346
230.082
158.036
86.4777
23.6008
-24.3106
-53.4276
-62.588
-53.172
-28.6858
5.87388
44.7763
82.3327
113.594
134.894
144.184
141.135
127.02
104.408
76.7236
47.7367
21.0603
-0.29393
-14.2458
-19.8349
-17.2576
-7.76114
6.57806
23.1569
39.1854
52.0208
59.4592
59.9527
52.7369
37.8592
16.1165
-11.0844
-41.919
-74.3653
-106.423
-136.307
-162.604
-184.363
-201.137
-212.959
-220.277
-223.847
-224.612
-223.575
-221.683
-219.731
-218.292
-217.684
-217.964
-218.946
-220.25
-221.363
-221.712
-220.738
-217.966
-213.062
-205.873
-196.443
-185.003
-171.939
-157.742
-142.945
-128.051
-113.483
-99.5308
-86.3349
-73.8884
-62.0627
-50.6531
-39.432
-28.205
-16.8578
-5.38691
6.08821
17.3352
28.0373
37.8353
46.3757
53.3585
58.5744
61.9298
63.4537
63.2881
61.6651
58.8737
55.2239
51.0125
46.4953
41.8701
37.2707
32.7717
28.4024
24.1666
20.0636
16.1078
12.344
8.85428
5.758
3.2022
1.34461
0.330418
0.265372
1.18903
3.0521
5.70237
8.88264
12.243
15.368
17.8154
19.1651
19.0693
17.2994
13.7826
8.62214
2.09744
-5.35631
-13.1883
-20.7869
-27.5436
-32.9164
-36.4876
-38.006
-37.4106
-34.8324
-30.5745
-25.0735
-18.8484
-12.4414
-6.36037
-1.02756
3.2582
6.34305
8.22121
9.02076
8.97461
8.38126
7.56073
6.81133
6.37245
6.39745
6.93914
7.94828
9.28411
10.734
12.0395
12.9244
13.1241
12.4133
10.6317
7.70791
3.67844
-1.29831
-6.93797
-12.8389
-18.5067
-23.3962
-26.9688
-28.7624
-28.4642
-25.977
-21.4675
-15.3852
-8.44524
-1.57167
4.1948
7.81485
8.38017
5.23739
-1.91111
-12.9441
-27.3063
-44.0445
-61.8926
-79.3961
-95.0608
-107.51
-115.631
-118.691
-116.411
-108.995
-97.0961
-81.7436
-64.2264
-45.9546
-28.3129
-12.5252
0.457525
10.0314
15.9719
18.4225
17.8431
14.9288
10.5089
5.44007
0.505829
-3.6686
-6.67969
-8.38723
-8.93832
-8.78119
-8.67611
-9.7066
-13.2854
-21.1391
-35.2465
-57.7026
-90.4873
-135.139
-192.36
-261.613
-340.792
-426.059
-511.914
-591.553
-657.486
-702.369
-719.922
-705.81
-658.346
-578.891
-471.887
-344.504
-205.936
-66.4423
63.7468
175.509
261.767
318.159
343.379
339.151
309.859
261.897
202.83
140.484
82.0742
33.4742
-1.29627
-20.3205
-23.7656
-13.6191
6.7611
33.2119
61.3639
87.1956
107.481
120.084
124.089
119.754
108.33
91.7792
72.4302
52.64
34.489
19.5525
8.76428
2.37992
0.0281887
0.833304
3.58152
6.90504
9.45822
10.0665
7.83511
2.21255
-6.99115
-19.625
-35.2485
-53.2031
-72.6947
-92.8772
-112.93
-132.124
-149.871
-165.752
-179.532
-191.152
-200.7
-208.38
-214.462
-219.237
-222.973
-225.883
-228.098
-229.665
-230.548
-230.65
-229.832
-227.939
-224.827
-220.371
-214.48
-207.093
-198.181
-187.74
-175.795
-162.402
-147.662
-131.732
-114.838
-97.2876
-79.4649
-61.8219
-44.8523
-29.0554
-14.8929
-2.74454
7.13136
14.625
19.787
22.8214
24.062
23.9328
22.9008
21.4245
19.9066
18.6568
17.8675
17.6061
17.823
18.3736
19.0498
19.6177
19.8538
19.578
18.6775
17.1194
14.9525
12.2979
9.33073
6.25703
3.28717
0.611039
-1.62311
-3.32368
-4.46333
-5.07876
-5.2632
-5.1528
-4.90889
-4.6982
-4.6734
-4.95594
-5.62305
-6.70001
-8.15826
-9.91915
-11.8628
-13.8409
-15.6913
-17.254
-18.3854
-18.9708
-18.9331
-18.2373
-16.8913
-14.9421
-12.4693
-9.57577
-6.37736
-2.99284
0.465268
3.89768
7.2228
10.3785
13.3214
16.0241
18.4717
20.6567
22.5759
24.2263
25.6039
26.7029
27.5169
28.0403
28.2714
28.2141
27.8803
27.2913
26.478
25.4809
24.3485
23.1351
21.8968
20.6874
19.5516
18.518
17.5919
16.7484
15.9286
15.0391
13.9567
12.5379
10.6324
8.10083
4.83156
0.757141
-4.13381
-9.78993
-16.0968
-22.8825
-29.9278
-36.9801
-43.7682
-50.0175
-55.4636
-59.8644
-63.0106
-64.7348
-64.9189
-63.5012
-60.482
-55.9264
-49.9654
-42.7917
-34.652
-25.8339
-16.6488
-7.41267
1.57395
10.0443
17.7798
24.619
30.4606
35.2598
39.0195
41.7777
43.5906
44.5146
44.5844
43.7864
42.0252
39.0802
34.5535
27.8144
17.9544
3.77041
-16.1974
-43.5501
-79.8233
-126.193
-183.124
-250.015
-324.91
-404.36
-483.491
-556.313
-616.261
-656.911
-672.782
-660.108
-617.455
-546.089
-450.029
-335.75
-211.579
-86.8425
29.1163
127.935
203.109
250.65
269.43
261.198
230.254
182.85
126.391
68.5455
16.3826
-24.3745
-49.8836
-58.4646
-50.6076
-28.7279
3.28582
40.6588
78.3743
111.791
137.165
152.016
155.315
147.477
130.182
106.054
78.2632
50.0872
24.5044
3.8582
-10.3716
-17.6723
-18.4757
-14.0238
-6.15004
2.99114
11.2081
16.5349
17.4441
12.9893
2.86754
-12.5983
-32.5457
-55.7127
-80.6076
-105.689
-129.531
-150.961
-169.15
-183.663
-194.453
-201.819
-206.327
-208.712
-209.776
-210.279
-210.86
-211.971
-213.837
-216.458
-219.623
-222.96
-225.991
-228.205
-229.119
-228.339
-225.599
-220.783
-213.924
-205.179
-194.799
-183.081
-170.321
-156.779
-142.651
-128.067
-113.095
-97.7648
-82.1058
-66.1759
-50.0925
-34.0505
-18.3241
-3.25318
10.7859
23.4199
34.3235
43.2611
50.1191
54.9225
57.8322
59.124
59.1502
58.2925
56.9123
55.3072
53.6812
52.1322
50.6587
49.1844
47.5934
45.7704
43.6371
41.1769
38.4442
35.5549
32.6621
29.922
27.4565
25.3226
23.4931
21.855
20.2233
18.3718
16.0708
13.1294
9.43182
4.96319
-0.179264
-5.79224
-11.5876
-17.2256
-22.3551
-26.6543
-29.8667
-31.8276
-32.4775
-31.8622
-30.1204
-27.4606
-24.1319
-20.3933
-16.4842
-12.6014
-8.88371
-5.40715
-2.18931
0.797211
3.60528
6.29069
8.8903
11.4044
13.7862
15.9403
17.7309
18.9987
19.5846
19.3564
18.2359
16.2211
13.4006
9.95776
6.16259
2.35191
-1.10127
-3.82626
-5.49738
-5.87591
-4.84632
-2.44142
1.14744
5.57802
10.383
15.0119
18.8854
21.4549
22.2612
20.9841
17.4766
11.7807
4.12196
-5.11447
-15.4219
-26.2188
-36.8985
-46.8748
-55.6212
-62.701
-67.7871
-70.6728
-71.2757
-69.6355
-65.9077
-60.3537
-53.3271
-45.2532
-36.6024
-27.8564
-19.4688
-11.8243
-5.20282
0.246581
4.5157
7.72891
10.1161
11.9703
13.5959
15.2561
17.1266
19.2661
21.6059
23.9618
26.0634
27.5911
28.2077
27.5674
25.2918
20.9051
13.7394
2.83054
-13.1538
-35.912
-67.3882
-109.513
-163.808
-230.914
-310.105
-398.907
-492.927
-585.96
-670.422
-738.075
-780.978
-792.514
-768.37
-707.283
-611.458
-486.548
-341.211
-186.259
-33.5303
105.39
220.417
304.038
352.059
363.948
342.737
294.522
227.621
151.526
75.7809
8.92542
-42.3673
-73.8726
-84.0638
-74.0265
-47.0747
-8.1406
36.9676
82.3383
122.662
153.793
173.102
179.622
173.957
158.028
134.677
107.209
78.9318
52.7557
30.8858
14.6446
4.4247
-0.235533
-0.480071
2.10011
5.72716
8.68498
9.52623
7.21686
1.20866
-8.55921
-21.719
-37.5775
-55.2424
-73.7542
-92.2039
-109.826
-126.057
-140.559
-153.216
-164.091
-173.384
-181.366
-188.326
-194.523
-200.146
-205.304
-210.017
-214.23
-217.83
-220.672
-222.602
-223.474
-223.16
-221.555
-218.575
-214.143
-208.188
-200.64
-191.427
-180.495
-167.816
-153.419
-137.409
-119.989
-101.473
-82.2773
-62.9149
-43.9581
-26.0001
-9.60569
4.7382
16.6679
25.9774
32.6373
36.7965
38.765
38.981
37.9642
36.2631
34.3997
32.8198
31.8527
31.6851
32.3514
33.7406
35.6179
37.6585
39.4893
40.7334
41.0531
40.1871
37.9795
34.3971
29.5338
23.604
16.9232
9.87958
2.89869
-3.59467
-9.21461
-13.6479
-16.6804
-18.2135
-18.2695
-16.9854
-14.5957
-11.4071
-7.76782
-4.0336
-0.536189
2.44455
4.70141
6.11206
6.6421
6.33939
5.32074
3.75307
1.83133
-0.244341
-2.28992
-4.1552
-5.73658
-6.98388
-7.90097
-8.5402
-8.99107
-9.36404
-9.77087
-10.3034
-11.0136
-11.8972
-12.8845
-13.8401
-14.5735
-14.8593
-14.4663
-13.191
-10.8922
-7.51956
-3.1333
2.08966
7.8649
13.8243
19.5522
24.6289
28.6772
31.4038
32.6318
32.3203
30.5667
27.5944
23.7257
19.3451
14.8567
10.6419
7.02189
4.22914
2.39031
1.52225
1.53992
2.27473
3.50005
4.96025
6.39983
7.58898
8.34329
8.53576
8.10067
7.02956
5.36051
3.16268
0.518512
-2.49359
-5.81334
-9.40712
-13.2695
-17.4173
-21.8763
-26.6628
-31.7626
-37.1098
-42.5708
-47.9351
-52.9178
-57.1743
-60.3275
-62.0051
-61.8837
-59.7326
-55.4533
-49.1068
-40.9252
-31.3037
-20.7739
-9.95955
0.479464
9.90927
17.782
23.6871
27.3876
28.8376
28.179
25.7174
21.8811
17.1643
12.0584
6.97419
2.15571
-2.41058
-7.08531
-12.6527
-20.3652
-31.9312
-49.4202
-75.0649
-110.956
-158.651
-158.651
-158.651
-158.651
-158.651
-158.651
-158.651
-158.651
-158.651
-158.651
-158.651
-158.651
-158.651
-158.651
-158.651
-158.651
-158.651
-158.651
-158.651
-158.651
