-179.823
-150.471
-117.503
-81.8809
-44.8602
-7.89197
27.4986
59.8469
87.8787
110.62
127.471
138.244
143.149
142.75
137.873
129.509
118.698
106.42
93.5093
80.5946
68.0751
56.1364
44.7977
33.9829
23.6027
13.6308
4.16129
-4.56492
-12.1708
-18.1913
-22.1533
-23.6736
-22.5599
-18.895
-13.0873
-5.87475
1.72423
8.51
13.2399
14.7876
12.301
5.33579
-6.0545
-21.2867
-39.2783
-58.5362
-77.2926
-93.6692
-105.85
-112.242
-111.609
-103.164
-86.628
-62.2358
-30.7186
6.74552
48.597
92.9717
137.785
180.823
219.841
252.673
277.351
292.234
296.135
288.444
269.227
239.28
200.141
154.031
103.729
52.3822
3.2681
-40.4822
-76.1599
-101.731
-116.037
-118.911
-111.2
-94.6814
-71.8758
-45.7793
-19.5373
3.89724
22.0831
33.3448
36.9296
33.0462
22.7806
7.90289
-9.40817
-26.8814
-42.4657
-54.5936
-62.3605
-65.5963
-64.8242
-61.1165
-55.8769
-50.5851
-46.5447
-44.6766
-45.3839
-48.5096
-53.3862
-58.966
-64.0072
-67.2845
-67.7904
-64.8973
-58.4571
-48.8265
-36.8169
-23.58
-10.4457
1.26062
10.397
16.156
18.169
16.5514
11.8864
5.15158
-2.40094
-9.39388
-14.4847
-16.5171
-14.6462
-8.42544
2.15348
16.6689
34.3216
54.0223
74.5031
94.439
112.567
127.79
139.264
146.451
149.147
147.474
141.851
132.936
121.551
108.596
94.9667
81.473
68.778
57.3556
47.4732
39.199
32.4305
26.9392
22.4233
18.5622
15.0645
11.7044
8.34298
4.93422
1.51529
-1.81439
-4.92213
-7.67436
-9.96799
-11.7564
-13.0667
-14.0042
-14.7444
-15.5098
-16.5369
-18.0356
-20.1485
-22.9162
-26.2559
-29.9572
-33.6984
-37.0821
-39.688
-41.1371
-41.1586
-39.6511
-36.7273
-32.7321
-28.2284
-23.9447
-20.6883
-19.2322
-20.189
-23.8922
-30.305
-38.9744
-49.0442
-59.3322
-68.4639
-75.0514
-77.8911
-76.1546
-69.5419
-58.3723
-43.5941
-26.7089
-9.61545
5.60646
16.9441
22.6981
21.6936
13.4291
-1.85473
-23.1919
-48.9868
-77.1743
-105.42
-131.34
-152.712
-167.668
-174.842
-173.475
-163.467
-145.377
-120.38
-90.1823
-56.9018
-22.9204
9.28095
37.3006
58.9954
72.6486
77.1134
71.916
57.3081
34.2574
4.37762
-30.2012
-67.0065
-103.426
-136.918
-165.209
-186.461
-199.389
-203.336
-198.285
-184.824
-164.069
-137.553
-107.098
-74.6768
-42.2769
-11.7765
15.1668
37.2073
53.3819
63.1569
66.4509
63.6295
55.4716
43.1057
27.9187
11.4421
-4.7767
-19.3076
-30.9618
-38.8957
-42.681
-42.3343
-38.3016
-31.3982
-22.7093
-13.4643
-4.89548
1.90107
6.0881
7.17982
5.09452
0.161607
-6.91793
-15.1533
-23.3798
-30.3958
-35.1065
-36.6585
-34.5486
-28.694
-19.4541
-7.5979
5.77863
19.3797
31.8639
42.0071
48.8518
51.8216
50.7851
46.0588
38.3497
28.6454
18.0678
7.7155
-1.48416
-8.88713
-14.1941
-17.4522
-18.9991
-19.3621
-19.1318
-18.8337
-18.82
-19.202
-19.8296
-20.3219
-20.1377
-18.6704
-15.3471
-9.71144
-1.47476
9.47104
23.0773
39.1875
57.5935
78.0808
100.447
124.482
149.922
176.368
203.21
229.566
254.255
275.831
292.666
303.094
305.592
298.97
282.559
256.34
221.032
178.089
129.626
78.2685
26.9498
-21.3319
-63.7652
-97.964
-122.169
-135.395
-137.507
-129.227
-112.064
-88.1789
-60.1929
-30.965
-3.34636
20.0559
37.0904
46.2276
46.67
38.3968
22.1446
-0.671988
-28.0903
-57.768
-87.1759
-113.802
-135.349
-149.926
-156.199
-153.514
-141.973
-122.44
-96.4977
-66.3306
-34.5426
-3.92813
22.7919
43.2403
55.6325
58.9724
53.174
39.0878
18.4291
-6.38827
-32.4946
-56.8567
-76.5868
-89.233
-93.0186
-87.0056
-71.1652
-46.3541
-14.2016
23.0739
62.8969
102.588
139.617
171.819
197.579
215.936
226.634
230.097
227.334
219.799
209.21
197.35
185.874
176.14
169.085
165.149
164.27
165.928
169.249
173.136
176.424
178.026
177.061
172.943
165.427
154.611
140.898
124.924
107.472
89.3784
71.4514
54.3988
38.7832
24.9988
13.2712
3.67348
-3.84462
-9.42312
-13.2585
-15.5757
-16.6073
-16.5822
-15.7207
-14.2354
-12.3349
-10.2264
-8.11581
-6.2041
-4.67884
-3.7024
-3.39816
-3.83715
-5.02769
-6.90998
-9.3574
-12.185
-15.1646
-18.0451
-20.5761
-22.5307
-23.7269
-24.0433
-23.4294
-21.9084
-19.5727
-16.5747
-13.1115
-9.40702
-5.6933
-2.19153
0.904083
3.43919
5.30769
6.45526
6.87824
6.61834
5.75398
4.38961
2.64438
0.641605
-1.49941
-3.66805
-5.76322
-7.69071
-9.3584
-10.6714
-11.5291
-11.8264
-11.4598
-10.338
-8.39633
-5.61332
-2.02501
2.26388
7.07549
12.1622
17.2187
21.9025
25.8611
28.7637
30.3341
30.3826
28.8312
25.7307
21.2658
15.7466
9.58721
3.27092
-2.69362
-7.82237
-11.7067
-14.0598
-14.7537
-13.8421
-11.5645
-8.33014
-4.6787
-1.22058
1.43938
2.78704
2.4821
0.42724
-3.1891
-7.88598
-12.9255
-17.3905
-20.2991
-20.7418
-18.0248
-11.7976
-2.14326
10.3836
24.7831
39.6997
53.5669
64.7876
71.9297
73.9081
70.1317
60.5961
45.9102
27.2537
6.27135
-15.0861
-34.7557
-50.7707
-61.4634
-65.6403
-62.7127
-52.7681
-36.5753
-15.5198
8.52503
33.3782
56.7654
76.545
90.9203
98.615
98.9932
92.1105
78.6922
60.044
37.9066
14.2746
-8.80105
-29.4042
-45.9193
-57.1588
-62.4415
-61.6199
-55.0583
-43.5673
-28.3054
-10.6573
7.8963
25.9072
42.0743
55.3347
64.9253
70.4108
71.6796
68.9122
62.5302
53.1369
41.4584
28.2934
14.4749
0.844423
-11.7655
-22.5464
-30.734
-35.6379
-36.6847
-33.4729
-25.8328
-13.8825
1.93231
20.8276
41.7067
63.2277
83.9076
102.254
116.909
126.786
131.175
129.816
122.902
111.045
95.1845
76.4629
56.0925
35.2272
14.8603
-4.23986
-21.5516
-36.7837
-49.8308
-60.7141
-69.5236
-76.3724
-81.3727
-84.6326
-86.2696
-86.4322
-85.3167
-83.1718
-80.2825
-76.9345
-73.3611
-69.6832
-65.8518
-61.605
-56.4492
-49.6713
-40.3887
-27.6367
-10.4925
11.7712
39.5154
72.5669
110.079
150.45
191.333
229.754
262.349
285.7
296.745
293.197
273.907
239.117
190.544
131.276
65.4834
-2.00935
-66.2471
-122.674
-167.607
-198.585
-214.559
-215.906
-204.269
-182.279
-153.18
-120.431
-87.333
-56.7253
-30.7781
-10.8952
2.27939
8.77099
9.12824
4.25365
-4.75944
-16.7608
-30.6358
-45.354
-59.9835
-73.6831
-85.6904
-95.3184
-101.971
-105.177
-104.637
-100.282
-92.3054
-81.1914
-67.6956
-52.7947
-37.5995
-23.2405
-10.7425
-0.903234
5.80457
9.2939
9.87614
8.22345
5.28513
2.16943
0.00742402
-0.181982
2.39301
8.21741
17.4345
29.8574
45.0224
62.2712
80.8476
99.9911
119.014
137.353
154.584
170.419
184.672
197.218
207.954
216.772
223.55
228.17
230.545
230.67
228.66
224.783
219.465
213.269
206.832
200.792
195.684
191.852
189.371
188.008
187.221
186.218
184.043
179.707
172.324
161.246
146.166
127.178
104.792
79.887
53.6273
27.3381
2.37099
-20.0287
-38.8348
-53.3208
-63.1023
-68.1408
-68.715
-65.3684
-58.8428
-50.0085
-39.7978
-29.1448
-18.934
-9.95509
-2.86332
1.857
3.92457
3.28665
0.133604
-5.10265
-11.7711
-19.0476
-26.0042
-31.6968
-35.2641
-36.0261
-33.5694
-27.8085
-19.0118
-7.78853
4.96577
18.1589
30.6172
41.2128
48.9867
53.2529
53.6705
50.2749
43.4657
33.9538
22.6743
10.6788
-0.980527
-11.3602
-19.7156
-25.5626
-28.7058
-29.2315
-27.4704
-23.9363
-19.2497
-14.058
-8.96044
-4.4478
-0.861388
1.62431
2.99606
3.37586
2.97965
2.06728
0.891254
-0.348724
-1.53922
-2.67026
-3.83398
-5.20508
-7.00533
-9.45694
-12.7308
-16.8971
-21.8854
-27.4621
-33.2286
-38.6448
-43.0767
-45.8642
-46.4023
-44.2263
-39.0894
-31.0209
-20.3551
-7.72514
5.98218
19.7052
32.3127
42.723
50.0215
53.5622
53.0406
48.528
40.4644
29.6107
16.9669
3.66765
-9.13329
-20.3751
-29.1869
-34.9598
-37.3887
-36.4811
-32.5349
-26.0902
-17.8623
-8.66266
0.680775
9.3995
16.8475
22.548
26.2213
27.7923
27.38
25.2703
21.8775
17.6969
13.2559
9.06621
5.58169
3.16631
2.07278
2.43349
4.26279
7.46859
11.8702
17.2188
23.2176
29.5385
35.8359
41.7563
46.9476
51.0681
53.8
54.8657
54.0496
51.2199
46.3507
39.5379
31.0066
21.1056
10.2899
-0.911535
-11.9366
-22.2384
-31.333
-38.8431
-44.5299
-48.3113
-50.2622
-50.5979
-49.6428
-47.7867
-45.4357
-42.9624
-40.6605
-38.7089
-37.1469
-35.8624
-34.5915
-32.9267
-30.331
-26.1558
-19.6641
-10.0612
3.45656
21.6288
45.0273
73.9221
108.131
146.875
188.674
231.315
271.932
307.191
333.609
347.942
347.619
331.143
298.399
250.816
191.332
124.168
54.4273
-12.4406
-71.2266
-117.534
-148.256
-161.895
-158.687
-140.52
-110.662
-73.3395
-33.223
5.10507
37.643
61.3598
74.4456
76.4015
67.9719
50.9411
27.8303
1.54117
-25.0062
-49.1967
-68.9716
-82.9849
-90.658
-92.1379
-88.1766
-79.9571
-68.8931
-56.4323
-43.887
-32.3084
-22.4145
-14.5724
-8.82622
-4.96166
-2.58865
-1.22913
-0.395906
0.346702
1.34512
2.84212
4.98229
7.83173
11.4051
15.6942
20.692
26.4108
32.8912
40.2032
48.4393
57.7019
68.0849
79.6528
92.419
106.326
121.228
136.889
152.976
169.078
184.729
199.435
212.713
224.126
233.316
240.028
244.121
245.569
244.446
240.908
235.158
227.424
217.92
206.835
194.316
180.468
165.371
149.1
131.755
113.486
94.5235
75.1867
55.8848
37.1003
19.3585
3.1858
-10.9377
-22.625
-31.6216
-37.8329
-41.3355
-42.3697
-41.3173
-38.6634
-34.9509
-30.73
-26.5101
-22.7184
-19.6687
-17.5436
-16.3897
-16.1275
-16.5721
-17.4636
-18.504
-19.3955
-19.8783
-19.7622
-18.9492
-17.4448
-15.3567
-12.8796
-10.2698
-7.81093
-5.7752
-4.38601
-3.7854
-4.01139
-4.98816
-6.53045
-8.36183
-10.1448
-11.5191
-12.143
-11.7335
-10.0994
-7.16428
-2.97583
2.29802
8.38602
14.9405
21.5705
27.8778
33.4907
38.0929
41.4456
43.4007
43.9047
42.9953
40.7915
37.4786
33.2911
28.4952
23.3717
18.2011
13.2512
8.76684
4.96283
2.01722
0.0658743
-0.803892
-0.561037
0.760069
3.05006
6.11674
9.6819
13.3863
16.8052
19.4756
20.9344
20.7644
18.6423
14.3833
7.97445
-0.407655
-10.3997
-21.4753
-32.9884
-44.2314
-54.5012
-63.1664
-69.7269
-73.8592
-75.443
-74.5662
-71.5085
-66.7054
-60.6991
-54.0809
-47.432
-41.2689
-36.0004
-31.8974
-29.0799
-27.5206
-27.0636
-27.4542
-28.3778
-29.5004
-30.5082
-31.1406
-31.2146
-30.637
-29.4061
-27.6006
-25.3614
-22.8654
-20.2975
-17.8241
-15.5696
-13.6013
-11.9224
-10.475
-9.15149
-7.8136
-6.31583
-4.53083
-2.37285
0.183578
3.09246
6.23452
9.4257
12.4358
15.0164
16.9344
18.0096
18.1477
17.3673
15.8121
13.7477
11.5398
9.61569
8.41388
8.32681
9.64506
12.5105
16.8855
22.5431
29.0815
35.9614
42.5644
48.2638
52.5017
54.8601
55.1188
53.2894
49.6218
44.5792
38.7853
32.9477
27.7665
23.8401
21.5795
21.1433
22.4023
24.9413
28.0979
31.0354
32.8412
32.6374
29.6916
23.5136
13.9268
1.10827
-14.4078
-31.7624
-49.838
-67.3524
-82.9713
-95.432
-103.665
-106.904
-104.767
-97.3158
-85.0551
-68.8988
-50.0792
-30.0134
-10.1369
8.27707
24.2904
37.4378
47.8074
56.0425
63.2595
70.8819
80.4092
93.1508
109.963
131.034
155.754
182.703
209.764
234.351
253.729
265.37
267.3
258.381
238.49
208.557
170.48
126.911
80.9491
35.7917
-5.62642
-40.9484
-68.632
-88.0773
-99.6298
-104.459
-104.329
-101.293
-97.3559
-94.1591
-92.7267
-93.3271
-95.4618
-97.9905
-99.3686
-97.9607
-92.3747
-81.7621
-66.0325
-45.9452
-23.0616
0.434337
22.0217
39.1875
49.7792
52.3102
46.1728
31.7291
10.2692
-16.1542
-44.9869
-73.4888
-99.0572
-119.513
-133.308
-139.638
-138.443
-130.314
-116.327
-97.8387
-76.2774
-52.9635
-28.9801
-5.10835
18.1761
40.6531
62.2744
83.0667
103.042
122.133
140.156
156.82
171.76
184.597
195.011
202.805
207.968
210.699
211.418
210.737
209.408
208.25
208.064
209.54
213.169
219.173
227.452
237.561
248.716
259.842
269.644
276.719
279.683
277.309
268.671
253.263
231.088
202.709
169.237
132.273
93.7873
55.9589
20.9843
-9.1266
-32.7446
-48.783
-56.8105
-57.1001
-50.6057
-38.8682
-23.8575
-7.76813
7.21117
19.1272
26.4654
28.3021
24.3885
15.1572
1.64952
-14.6235
-31.8712
-48.2382
-62.0189
-71.8452
-76.8261
-76.626
-71.473
-62.1026
-49.6453
-35.4755
-21.0427
-7.70471
3.41634
11.5402
16.2875
17.6879
16.1412
12.339
7.1608
1.55765
-3.56101
-7.42566
-9.48088
-9.43046
-7.25248
-3.18626
2.30425
8.58542
14.9212
20.5473
24.7456
26.9158
26.6373
23.7175
18.2228
10.4877
1.09914
-9.14407
-19.2972
-28.3552
-35.3521
-39.4642
-40.1057
-37.0058
-30.2571
-20.3275
-8.03268
5.53118
19.0873
31.3019
40.9188
46.8886
48.48
45.3596
37.6325
25.8384
10.9064
-5.92819
-23.2354
-39.5199
-53.3555
-63.5136
-69.0741
-69.508
-64.7269
-55.0916
-41.3821
-24.729
-6.51231
11.762
28.5982
42.6458
52.8218
58.4074
59.1098
55.0834
46.9079
35.5254
22.1433
8.11218
-5.20733
-16.5767
-24.9964
-29.7966
-30.693
-27.8022
-21.6165
-12.9419
-2.80518
7.65772
17.3207
25.1808
30.454
32.6437
31.5761
27.4012
20.5587
11.7176
1.69513
-8.63369
-18.4258
-26.9499
-33.6487
-38.1773
-40.4182
-40.4705
-38.619
-35.2878
-30.9846
-26.2421
-21.5638
-17.378
-14.0046
-11.6355
-10.3306
-10.026
-10.5544
-11.6722
-13.0914
-14.5112
-15.6469
-16.253
-16.1376
-15.1699
-13.2788
-10.4474
-6.70325
-2.11035
3.23685
9.21438
15.6653
22.3935
29.158
35.671
41.6042
46.6036
50.315
52.4169
52.6574
50.8901
47.1035
41.4378
34.1874
25.7861
16.7763
7.76556
-0.62473
-7.81335
-13.3088
-16.7498
-17.9316
-16.8166
-13.5282
-8.33043
-1.59464
6.23974
14.7075
23.357
31.7813
39.6396
46.6647
52.659
57.4808
61.0242
63.1987
63.9131
63.0669
60.5532
56.2726
50.1565
42.1967
32.4767
21.1974
8.69472
-4.55789
-17.9625
-30.8268
-42.4089
-51.9724
-58.8471
-62.489
-62.5348
-58.8457
-51.5374
-40.9924
-27.8526
-12.9895
2.5484
17.6104
31.0377
41.7711
48.9647
52.0947
51.0533
46.2135
38.4545
29.1375
20.0243
13.1385
10.5717
14.25
25.6803
45.7071
74.3123
110.496
152.26
196.723
240.351
279.291
309.775
328.535
333.17
322.438
296.409
256.471
205.2
146.094
83.2237
20.8339
-37.0534
-86.9923
-126.388
-153.67
-168.359
-171.018
-163.119
-146.83
-124.766
-99.7137
-74.3803
-51.1649
-31.9877
-18.1785
-10.4284
-8.80275
-12.8036
-21.4731
-33.5211
-47.4654
-61.7723
-74.9866
-85.8444
-93.3612
-96.8931
-96.1683
-91.2875
-82.6969
-71.1345
-57.5549
-43.0391
-28.6954
-15.5593
-4.5008
3.85262
9.16987
11.4412
10.9713
8.34046
4.33851
-0.122299
-4.10482
-6.74445
-7.33522
-5.39492
-0.701879
6.70036
16.5303
28.3231
41.5044
55.4726
69.6764
83.6784
97.1933
110.099
122.418
134.272
145.827
157.222
168.508
179.604
190.266
200.093
208.553
215.034
218.915
219.642
216.805
210.198
199.862
186.096
169.443
150.64
130.553
110.09
90.1159
71.3694
54.4035
39.5447
26.8847
16.2992
7.49183
0.0556344
-6.45715
-12.4659
-18.3023
-24.1673
-30.1096
-36.0267
-41.6876
-46.7748
-50.9393
-53.8615
-55.3102
-55.1913
-53.5779
-50.7169
-47.0085
-42.9602
-39.12
-35.9985
-33.9901
-33.3065
-33.9336
-35.6188
-37.8934
-40.129
-41.6195
-41.6798
-39.7463
-35.4652
-28.7564
-19.8416
-9.23493
2.30651
13.8631
24.4558
33.1575
39.1989
42.0562
41.5097
37.6664
30.9468
22.0359
11.808
1.23284
-8.72398
-17.1951
-23.4904
-27.152
-27.9816
-26.04
-21.6188
-15.1938
-7.36366
1.21575
9.89497
18.0856
25.3016
31.1855
35.5176
38.2126
39.303
38.9157
37.2452
34.526
31.0083
26.9394
22.5501
18.0472
13.6111
9.39588
5.53132
2.12456
-0.739423
-2.99905
-4.6189
-5.59316
-5.9485
-5.74506
-5.07458
-4.05489
-2.82109
-1.51414
-0.268255
0.801239
1.60782
2.10004
2.2633
2.11684
1.70641
1.09396
0.345649
-0.479904
-1.34173
-2.2236
-3.13719
-4.12053
-5.23111
-6.53321
-8.07958
-9.88905
-11.9227
-14.0632
-16.1034
-17.7491
-18.6405
-18.3938
-16.6589
-13.1873
-7.89805
-0.929426
7.33518
16.2768
25.0887
32.8599
38.6844
41.7815
41.6103
37.9586
30.9952
21.2717
9.67628
-2.6597
-14.488
-24.5881
-31.9108
-35.7026
-35.5952
-31.65
-24.3511
-14.5501
-3.36895
7.92636
18.0672
25.9213
30.614
31.6184
28.8051
22.4468
13.1785
1.91913
-10.2345
-22.1295
-32.6792
-40.9727
-46.3596
-48.5022
-47.3912
-43.3248
-36.8564
-28.7183
-19.7313
-10.7118
-2.3855
4.68187
10.1311
13.8296
15.8637
16.5081
16.174
15.3473
14.5208
14.132
14.5108
15.844
18.1605
21.3356
25.1147
29.1509
33.0522
36.4308
38.9491
40.3564
40.5139
39.4039
37.125
33.8744
29.9199
25.5662
21.1196
16.8557
12.9918
9.67002
6.9481
4.80204
3.13703
1.80596
0.632884
-0.561539
-1.93519
-3.60317
-5.62203
-7.98125
-10.6026
-13.3475
-16.0308
-18.4391
-20.3521
-21.5604
-21.8793
-21.1523
-19.2428
-16.0134
-11.2957
-4.85652
3.62912
14.5869
28.5226
45.9634
67.3592
92.9512
122.624
155.768
191.184
227.061
261.042
290.404
312.314
324.162
323.9
310.359
283.47
244.375
195.385
139.787
81.5343
24.8353
-26.2825
-68.3962
-99.0348
-116.911
-122.015
-115.55
-99.7474
-77.5583
-52.292
-27.2301
-5.27183
11.3519
21.2655
24.0219
20.0621
10.575
-2.71803
-17.8211
-32.7295
-45.6723
-55.303
-60.8209
-62.015
-59.2314
-53.2748
-45.2624
-36.4509
-28.0618
-21.1242
-16.3556
-14.0904
-14.2629
-16.4416
-19.9073
-23.7624
-27.0557
-28.9056
-28.6083
-25.7167
-20.0851
-11.8733
-1.51489
10.3469
22.9448
35.484
47.2373
57.6281
66.2913
73.1068
78.2027
81.9296
84.8095
87.4688
90.562
94.6964
100.367
107.906
117.454
128.951
142.147
156.624
171.839
187.156
201.893
215.358
226.877
235.828
241.663
243.932
242.31
236.621
226.864
213.232
196.116
176.105
153.956
130.557
106.866
83.8448
62.3855
43.2452
26.9886
13.9486
4.20913
-2.39063
-6.23005
-7.86241
-7.95695
-7.23338
-6.39573
-6.07165
-6.76279
-8.81018
-12.3765
-17.4456
-23.8369
-31.2328
-39.2137
-47.2989
-54.9878
-61.8003
-67.3135
-71.1918
-73.2099
-73.2669
-71.3904
-67.7307
-62.5439
-56.1684
-48.9939
-41.4277
-33.8617
-26.6426
-20.0497
-14.2806
-9.44706
-5.57947
-2.63947
-0.537348
0.848062
1.65004
1.99767
2.00421
1.76107
1.33709
0.782181
0.133827
-0.575668
-1.3128
-2.03896
-2.70973
-3.27769
-3.69794
-3.93542
-3.97227
-3.81371
-3.49098
-3.06023
-2.59709
-2.18728
-1.91427
-1.84599
-2.02236
-2.44611
-3.07846
-3.8408
-4.6228
-5.29588
-5.73052
-5.81485
-5.47185
-4.67236
-3.44179
-1.85935
-0.0496007
1.83258
3.62153
5.16206
6.32925
7.04393
7.28153
7.07298
6.49781
5.67051
4.72258
3.78305
2.96055
2.32967
1.92339
1.73248
1.71148
1.78996
1.88686
1.92551
1.84693
1.61935
1.2428
0.748332
0.192272
-0.353397
-0.81288
-1.11883
-1.22324
-1.10545
-0.776211
-0.277389
0.322473
0.936053
1.46736
1.82271
1.92105
1.70269
1.13524
0.216684
-1.02474
-2.53335
-4.23112
-6.0243
-7.8109
-9.48836
-10.9608
-12.1454
-12.9774
-13.4141
-13.4364
-13.0498
-12.2833
-11.1868
-9.82752
-8.28522
-6.64637
-4.998
-3.42121
-1.98499
-0.740923
0.280654
1.07226
1.64834
2.04171
2.29745
2.46522
2.59086
2.70861
2.83514
2.96648
3.07842
3.13051
3.07334
2.85786
2.44566
1.81819
0.983725
-0.0195248
-1.12466
-2.24176
-3.26739
-4.09645
-4.63494
-4.8117
-4.5874
-3.95956
-2.9626
-1.66308
-0.150489
1.47512
3.1169
4.69456
6.15536
7.48126
8.69112
9.83778
11.0003
12.2726
13.7496
15.5137
17.6221
20.098
22.9251
26.0477
29.3746
32.7882
36.1545
39.3357
42.2015
44.6389
46.5589
47.8994
48.6251
48.7241
48.2027
47.0793
45.3789
43.1289
40.3573
37.0923
33.365
29.2118
24.6782
19.82
14.7031
9.39993
3.98471
-1.47314
-6.9137
-12.2881
-17.5556
-22.6748
-27.5921
-32.227
-36.4601
-40.1252
-43.0088
-44.8588
-45.4021
-44.3674
-41.5126
-36.6466
-29.6451
-20.4516
-9.06691
4.47177
20.113
37.8046
57.4881
79.0686
102.36
127.018
152.466
177.854
202.051
223.692
241.286
253.371
258.695
256.396
246.146
228.242
203.613
173.748
140.55
106.138
72.6192
41.8705
15.3532
-6.01173
-21.8942
-32.5296
-38.6244
-41.211
-41.476
-40.5869
-39.5416
-39.0606
-39.5301
-41.0017
-43.2422
-45.8197
-48.2133
-49.9245
-50.5764
-49.9847
-48.1922
-45.4647
-42.2492
-39.1038
-36.6096
-35.2797
-35.4772
-37.3559
-40.8308
-45.5825
-51.0952
-56.722
-61.7679
-65.578
-67.6181
-67.5349
-65.1887
-60.6525
-54.1814
-46.1569
-37.0174
-27.1873
-17.016
-6.73599
3.55279
13.8743
24.3445
35.1255
46.3734
58.1916
70.5955
83.4969
96.7083
109.967
122.973
135.437
147.128
157.91
167.766
176.798
185.207
193.249
201.176
209.168
217.273
225.353
233.065
239.864
245.038
247.785
247.297
242.869
233.999
220.475
202.434
180.38
155.165
127.921
99.9629
72.6653
47.3267
25.0439
6.60691
-7.57131
-17.4826
-23.5055
-26.3448
-26.9371
-26.3338
-25.576
-25.5761
-27.0197
-30.2977
-35.4758
-42.3032
-50.2568
-58.6168
-66.5604
-73.2663
-78.0153
-80.2784
-79.7813
-76.5404
-70.8648
-63.324
-54.6829
-45.8117
-37.5793
-30.7437
-25.8529
-23.1713
-22.6419
-23.8929
-26.2887
-29.0197
-31.2196
-32.0931
-31.0353
-27.7255
-22.1812
-14.7623
-6.12709
2.85696
11.2324
18.0855
22.6748
24.536
23.5499
19.9624
14.3546
7.5681
0.593006
-5.5637
-10.0138
-12.1088
-11.5301
-8.33641
-2.96173
3.83713
11.0769
17.6768
22.6032
25.0117
24.3672
20.5248
13.762
4.75364
-5.50367
-15.8123
-24.9215
-31.6839
-35.2015
-34.9407
-30.8032
-23.1431
-12.7298
-0.660525
11.7647
23.1905
32.3587
38.2475
40.1813
37.9014
31.5876
21.8324
9.56959
-4.03147
-17.6943
-30.1704
-40.3664
-47.4485
-50.9142
-50.6256
-46.8019
-39.9747
-30.9149
-20.5392
-9.81037
0.359713
9.19199
16.1013
20.7318
22.9652
22.9056
20.8425
17.2015
12.4858
7.21822
1.88791
-3.09262
-7.4162
-10.8937
-13.4506
-15.1086
-15.9576
-16.1202
-15.718
-14.8426
-13.538
-11.7956
-9.5651
-6.7771
-3.37438
0.65383
5.24146
10.2252
15.3391
20.2261
24.4677
27.628
29.3063
29.1929
27.1176
23.0846
17.2884
10.1054
2.06328
-6.20993
-14.0501
-20.8268
-26.0101
-29.2253
-30.2903
-29.2294
-26.265
-21.7863
-16.3019
-10.3801
-4.58749
0.570581
4.69748
7.53836
8.99482
9.1211
8.10353
6.22693
3.83275
1.27469
-1.12283
-3.09858
-4.47726
-5.17944
-5.21851
-4.68641
-3.73105
-2.5291
-1.25823
-0.0722079
0.918231
1.65728
2.14802
2.44872
2.66226
2.91927
3.35605
4.08817
5.18209
6.6279
8.31797
10.0366
11.4661
12.2129
11.8537
10.0006
6.37593
0.88574
-6.3199
-14.8152
-23.9051
-32.6746
-40.0798
-45.0708
-46.7302
-44.4091
-37.8385
-27.199
-13.1362
3.28392
20.6767
37.4861
52.1599
63.332
69.9869
71.5858
68.1372
60.2018
48.8304
35.4413
21.6519
9.08689
-0.814809
-6.96763
-8.76189
-6.12564
0.480582
10.1336
21.5715
33.3536
44.0356
52.3369
57.2799
58.2864
55.221
48.381
38.4363
26.3322
13.1676
0.066144
-11.9444
-22.0312
-29.6249
-34.4515
-36.5294
-36.1331
-33.7332
-29.9196
-25.3196
-20.5194
-15.9955
-12.0628
-8.84109
-6.24101
-3.96795
-1.5429
1.66249
6.37812
13.3766
23.4041
37.1031
54.9271
77.0534
103.299
133.048
165.212
198.222
230.09
258.519
281.087
295.477
299.723
292.465
273.152
242.176
200.911
151.647
97.4178
41.7446
-11.6795
-59.3303
-98.1801
-125.975
-141.436
-144.357
-135.596
-116.969
-91.048
-60.8958
-29.7686
-0.811588
23.2182
40.1782
48.6972
48.2533
39.1709
22.5443
0.098849
-25.9921
-53.3175
-79.4468
-102.139
-119.525
-130.255
-133.597
-129.48
-118.481
-101.754
-80.9166
-57.8849
-34.6928
-13.2972
4.60543
17.7356
25.3439
27.2706
23.9447
16.3246
5.78639
-6.02755
-17.3831
-26.6336
-32.3851
-33.63
-29.8365
-20.9849
-7.54939
9.5719
29.1683
49.8561
70.2294
89.0055
105.149
117.965
127.147
132.784
135.333
135.546
134.377
132.879
132.083
132.896
135.994
141.755
150.203
160.986
173.398
186.424
198.821
209.236
216.328
218.916
216.106
207.403
192.781
172.716
148.154
120.438
91.1829
62.1221
34.9424
11.1214
-8.20984
-22.3645
-31.1478
-34.8505
-34.1922
-30.2208
-24.1837
-17.3858
-11.0507
-6.20136
-3.5711
-3.55332
-6.19178
-11.2096
-18.0703
-26.0613
-34.3889
-42.2728
-49.0304
-54.141
-57.2867
-58.3654
-57.4786
-54.8969
-51.0099
-46.2682
-41.1241
-35.9801
-31.1492
-26.8314
-23.108
-19.951
-17.2466
-14.8255
-12.4974
-10.083
-7.44077
-4.48661
-1.20459
2.34991
6.05423
9.72809
13.1478
16.0638
18.2211
19.3813
19.3457
17.9775
15.223
11.1269
5.84204
-0.370984
-7.154
-14.0726
-20.6472
-26.3911
-30.8522
-33.6547
-34.5347
-33.3678
-30.1847
-25.1729
-18.6648
-11.1123
-3.0511
4.94336
12.303
18.5145
23.1618
25.9604
26.7798
25.6526
22.7686
18.4548
13.1427
7.32682
1.51723
-3.80792
-8.24585
-11.5037
-13.4209
-13.9768
-13.283
-11.5625
-9.11677
-6.28664
-3.41114
-0.789361
1.34979
2.86679
3.71776
3.94767
3.67251
3.05338
2.26692
1.47635
0.807319
0.331662
0.0608837
-0.0505099
-0.0930985
-0.184608
-0.449182
-0.997174
-1.90823
-3.21959
-4.92031
-6.95156
-9.21199
-11.5673
-13.8626
-15.9365
-17.6352
-18.8264
-19.4106
-19.3302
-18.575
-17.1832
-15.2383
-12.8623
-10.204
-7.42691
-4.69412
-2.15549
0.0638506
1.87153
3.21213
4.06756
4.45414
4.41712
4.0236
3.35488
2.49891
1.54346
0.570442
-0.348402
-1.15463
-1.8049
-2.27178
-2.54357
-2.6233
-2.52704
-2.28146
-1.9209
-1.48375
-1.00864
-0.53041
-0.0763419
0.33691
0.705369
1.03839
1.3578
1.69568
2.09103
2.58584
3.22106
4.03275
5.04876
6.28602
7.74843
9.42537
11.2907
13.302
15.401
17.5135
19.5509
21.4129
22.9911
24.1752
24.8608
24.9586
24.4042
23.1682
21.2634
18.7491
15.7309
12.3553
8.79893
5.25367
1.90965
-1.06226
-3.52562
-5.38922
-6.61233
-7.2036
-7.21449
-6.72823
-5.84629
-4.67436
-3.3098
-1.83202
-0.296778
1.2654
2.84717
4.45964
6.12645
7.87839
9.75064
11.7853
14.042
16.619
19.6857
23.5222
28.5587
35.398
44.8052
57.6469
74.7715
96.8336
124.086
156.172
191.97
229.534
266.156
298.583
323.348
337.201
337.553
322.887
293.045
249.362
194.595
132.678
68.3017
6.40157
-48.3901
-92.2533
-122.581
-138.226
-139.559
-128.354
-107.501
-80.6139
-51.5686
-24.0475
-1.13639
14.9767
23.1711
23.4228
16.6997
4.74648
-10.2047
-25.7592
-39.6763
-50.1416
-55.9655
-56.6901
-52.5969
-44.6227
-34.1988
-23.0355
-12.8835
-5.29862
-1.43932
-1.91974
-6.73326
-15.2544
-26.3172
-38.3589
-49.6109
-58.3141
-62.9307
-62.3295
-55.9204
-43.7259
-26.3802
-5.05814
18.6576
42.9544
65.9927
86.1108
102.007
112.879
118.503
119.246
116.006
110.096
103.08
96.5821
92.1019
90.8431
93.5902
100.637
111.778
126.359
143.377
161.614
179.791
196.704
211.349
223
231.235
235.93
237.197
235.31
230.608
223.425
214.021
202.569
189.153
173.816
156.615
137.684
117.292
95.8792
74.0547
52.5744
32.2802
14.0198
-1.44362
-13.52
-21.865
-26.4261
-27.456
-25.4897
-21.2888
-15.7586
-9.85023
-4.45836
-0.327924
2.01889
2.32755
0.623283
-2.80963
-7.47754
-12.7489
-17.938
-22.3906
-25.5614
-27.074
-26.7586
-24.6624
-21.0342
-16.2856
-10.9349
-5.54141
-0.637288
3.33287
6.05951
7.39673
7.36959
6.16045
4.07679
1.50564
-1.13902
-3.4691
-5.16859
-6.02777
-5.96173
-5.0116
-3.32942
-1.14957
1.24872
3.58196
5.60062
7.11957
8.03711
8.34075
8.0996
7.44571
6.54756
5.58048
4.69848
4.0118
3.57302
3.37345
3.34914
3.39488
3.3829
3.18289
2.68008
1.78932
0.464036
-1.29948
-3.46173
-5.94221
-8.62354
-11.3572
-13.9714
-16.2817
-18.1049
-19.2771
-19.6731
-19.2264
-17.9468
-15.9312
-13.3656
-10.5153
-7.70294
-5.27637
-3.56876
-2.85666
-3.32152
-5.0206
-7.87209
-11.6571
-16.0393
-20.6
-24.8838
-28.4509
-30.9264
-32.0431
-31.6706
-29.8276
-26.6773
-22.505
-17.6829
-12.6261
-7.74583
-3.40565
0.114202
2.64027
4.11528
4.59326
4.22206
3.21655
1.82648
0.303527
-1.12811
-2.29447
-3.08547
-3.45894
-3.43537
-3.08539
-2.51238
-1.83323
-1.15997
-0.584789
-0.169935
0.0566857
0.100363
-0.00617576
-0.211696
-0.456828
-0.684145
-0.846454
-0.912177
-0.867203
-0.713172
-0.46269
-0.132547
0.263684
0.722041
1.25215
1.87769
2.63307
3.55656
4.68113
6.02473
7.58174
9.3177
11.1684
13.0442
14.839
16.4428
17.7568
18.7065
19.2534
19.4013
19.1963
18.7207
18.0814
17.3942
16.7661
16.2791
15.9764
15.8551
15.8643
15.9114
15.874
15.617
15.0125
13.959
12.3991
10.3302
7.80935
4.94923
1.90682
-1.1347
-3.98788
-6.48388
-8.49298
-9.93955
-10.8094
-11.1482
-11.0508
-10.6436
-10.0612
-9.42086
-8.79748
-8.20083
-7.55559
-6.68374
-5.28855
-2.9408
0.929176
7.02599
16.1598
29.1819
46.8789
69.827
98.2224
131.713
169.27
209.131
248.849
285.461
315.756
336.631
345.477
340.54
321.202
288.139
243.323
189.86
131.688
73.1694
18.6284
-28.1019
-64.0722
-87.4975
-97.8956
-96.0734
-83.967
-64.3636
-40.544
-15.8928
6.47608
24.0348
35.0661
38.7768
35.2961
25.5682
11.1604
-5.98311
-23.8077
-40.4021
-54.2095
-64.1743
-69.8126
-71.204
-68.913
-63.8572
-57.1424
-49.8919
-43.09
-37.4622
-33.4017
-30.9508
-29.832
-29.5211
-29.3483
-28.6104
-26.6782
-23.0838
-17.5795
-10.1603
-1.05298
9.32629
20.4357
31.6832
42.5034
52.4248
61.1208
68.4403
74.4141
79.2411
83.2559
86.8838
90.5893
94.8245
99.982
106.359
114.132
123.349
133.93
145.684
158.331
171.526
184.886
198.007
210.483
221.908
231.871
239.957
245.733
248.757
248.586
244.81
237.091
225.222
209.183
189.192
165.737
139.581
111.732
83.3814
55.8108
30.2788
7.90211
-10.4545
-24.2657
-33.396
-38.1084
-39.027
-37.0602
-33.293
-28.8619
-24.8287
-22.0681
-21.1815
-22.4476
-25.8125
-30.9194
-37.1723
-43.824
-50.0762
-55.1796
-58.5215
-59.6918
-58.5198
-55.0809
-49.6735
-42.771
-34.9575
-26.8558
-19.0569
-12.0605
-6.23204
-1.78042
1.24298
2.92615
3.46381
3.11632
2.16648
0.880491
-0.52232
-1.88798
-3.13378
-4.24251
-5.24755
-6.21205
-7.20578
-8.28272
-9.46231
-10.7162
-11.9618
-13.0642
-13.8453
-14.1012
-13.6272
-12.2461
-9.8397
-6.37863
-1.94513
3.25403
8.88955
14.5285
19.6704
23.7991
26.4435
27.2423
26.0013
22.7361
17.6908
11.3291
4.29389
-2.65911
-8.74869
-13.2644
-15.6597
-15.6277
-13.1495
-8.50551
-2.24799
4.86342
11.9548
18.1475
22.6694
24.9531
24.7059
21.9455
16.993
10.428
3.01024
-4.42031
-11.051
-16.1977
-19.3871
-20.4083
-19.3302
-16.4813
-12.3972
-7.74229
-3.21821
0.530402
2.99893
3.88502
3.12228
0.882368
-2.45385
-6.35091
-10.1912
-13.3552
-15.2993
-15.6213
-14.1068
-10.7511
-5.75589
0.497119
7.49226
14.638
21.3303
27.0138
31.2341
33.6763
34.1864
32.7747
29.6025
24.9536
19.1971
12.7444
6.00922
-0.627112
-6.83804
-12.3618
-16.9987
-20.5991
-23.047
-24.246
-24.1131
-22.5841
-19.6327
-15.2984
-9.71941
-3.15881
3.98386
11.1841
17.8311
23.2918
26.9935
28.5123
27.6531
24.5031
19.4491
13.1481
6.45288
0.299509
-4.427
-7.02902
-7.11149
-4.65554
-0.0360643
6.02252
12.5475
18.4618
22.7478
24.6061
23.583
19.6455
13.1931
5.00264
-3.88563
-12.3214
-19.2156
-23.7013
-25.262
-23.8059
-19.6764
-13.5971
-6.56076
0.322123
5.9909
9.59401
10.6161
8.95476
4.93556
-0.734776
-7.07075
-12.9498
-17.273
-19.1226
-17.8943
-13.3869
-5.83778
4.10085
15.4406
26.9812
37.4643
45.7362
50.9005
52.4379
50.2812
44.8311
36.9121
27.6723
18.4382
10.5415
5.14041
3.05782
4.657
9.77334
17.7123
27.3165
37.0964
45.4096
50.6682
51.5481
47.1732
37.2507
22.1374
2.82666
-19.1445
-41.8582
-63.2299
-81.2472
-94.2025
-100.891
-100.749
-93.9065
-81.1546
-63.8234
-43.5845
-22.2061
-1.29387
17.9436
34.8675
49.4902
62.4476
74.8628
88.1188
103.574
122.264
144.643
170.402
198.414
226.794
253.104
274.638
288.782
293.361
286.948
269.071
240.297
202.176
157.066
107.866
57.6907
9.55594
-33.9053
-70.6454
-99.3159
-119.29
-130.608
-133.866
-130.075
-120.519
-106.62
-89.8346
-71.5696
-53.1299
-35.6797
-20.218
-7.55894
1.6866
7.12694
8.60336
6.197
0.225197
-8.77608
-20.0855
-32.8446
-46.1187
-58.9648
-70.5007
-79.969
-86.7899
-90.5966
-91.2525
-88.8469
-83.6714
-76.1795
-66.9341
-56.5484
-45.6264
-34.7093
-24.2324
-14.4956
-5.65186
2.28966
9.44501
16.0266
22.3076
28.585
35.1445
42.2308
50.0251
58.6312
68.0687
78.2757
89.117
100.401
111.898
123.37
134.594
145.396
155.673
165.42
174.741
183.845
193.022
202.595
212.851
223.953
235.851
248.205
260.337
271.238
279.626
284.071
283.16
275.702
260.915
238.591
209.201
173.906
134.489
93.2008
52.536
14.9742
-17.2824
-42.5401
-59.7848
-68.7698
-70.0142
-64.7116
-54.5667
-41.5805
-27.8151
-15.1657
-5.16942
1.13119
3.25469
1.2768
-4.23874
-12.36
-21.9386
-31.7708
-40.7487
-47.9822
-52.8812
-55.1912
-54.984
-52.6082
-48.612
-43.6502
-38.389
-33.421
-29.2003
-26.0025
-23.9132
-22.8421
-22.5584
-22.7401
-23.03
-23.0898
-22.6455
-21.5198
-19.648
-17.0769
-13.949
-10.4752
-6.90061
-3.46866
-0.388352
2.19093
4.19462
5.62649
6.56098
7.12604
7.4793
7.78155
8.17128
8.74407
9.53941
10.5369
11.6618
12.7987
13.8117
14.5673
14.9563
14.9135
14.4296
13.5561
12.4026
11.1267
9.91934
8.98687
8.53293
8.7397
9.74939
11.6453
14.4328
18.0204
22.2062
26.6713
30.9879
34.6437
37.0856
37.7814
36.293
32.3526
25.9311
17.2855
6.97385
-4.16923
-15.0986
-24.6632
-31.737
-35.3626
-34.8863
-30.0661
-21.1351
-8.80784
5.77512
21.1602
35.7391
47.9338
56.3822
60.1031
58.6153
51.9976
40.88
26.3685
9.9139
-6.85795
-22.3331
-35.0889
-44.044
-48.5631
-48.5036
-44.203
-36.4115
-26.1806
-14.7252
-3.27651
7.05497
15.3907
21.1589
24.1265
24.388
22.3174
18.4916
13.598
8.33915
3.34711
-0.884017
-4.03939
-5.99697
-6.81451
-6.69465
-5.93525
-4.87337
-3.83107
-3.07038
-2.76244
-2.97344
-3.66747
-4.72373
-5.96406
-7.18552
-8.19295
-8.82677
-8.98277
-8.62212
-7.77152
-6.51458
-4.97684
-3.30728
-1.65908
-0.172385
1.03924
1.89742
2.36245
2.43213
2.13685
1.53214
0.689874
-0.310721
-1.3915
-2.48247
-3.52705
-4.48488
-5.33211
-6.05895
-6.66506
-7.15339
-7.52382
-7.76769
-7.86463
-7.78253
-7.48087
-6.91735
-6.0567
-4.88054
-3.39638
-1.64427
0.300856
2.33216
4.31975
6.12498
7.61851
8.69959
9.31378
9.46588
9.22585
8.72628
8.15129
7.71793
7.65222
8.1628
9.41543
11.5113
14.472
18.232
22.6411
27.4746
32.4517
37.26
41.583
45.1295
47.6602
49.0112
49.1086
47.9768
45.7347
42.5835
38.7849
34.6323
30.4188
26.405
22.7922
19.7035
17.1765
15.1683
13.5719
12.2409
11.0183
9.76281
8.36985
6.78117
4.98378
2.99828
0.859957
-1.40234
-3.78475
-6.31968
-9.07668
-12.152
-15.648
-19.6445
-24.1663
-29.1514
-34.4207
-39.6549
-44.3767
-47.9436
-49.5525
-48.2608
-43.0324
-32.8128
-16.6376
6.22594
36.1159
72.8102
115.386
162.136
210.57
257.525
299.382
332.39
353.052
358.538
347.07
318.221
273.087
214.286
145.793
72.5954
0.224464
-65.8027
-120.552
-160.187
-182.373
-186.502
-173.729
-146.807
-109.741
-67.318
-24.5515
13.8661
44.0567
63.3299
70.4018
65.4391
49.9357
26.4446
-1.79175
-31.2641
-58.6166
-81.0152
-96.4256
-103.773
-102.977
-94.8627
-80.9803
-63.3488
-44.1743
-25.5731
-9.33419
3.25341
11.4943
15.298
15.1144
11.8106
6.51039
0.419883
-5.33482
-9.83988
-12.4808
-12.9781
-11.3714
-7.96121
-3.21923
2.31618
8.14282
13.8815
19.3353
24.5147
29.6274
35.0364
41.1941
48.564
57.5397
68.3754
81.1351
95.668
111.613
128.43
145.455
161.97
177.275
190.76
201.958
210.582
216.529
219.868
220.797
219.596
216.56
211.945
205.925
198.567
189.829
179.587
167.681
153.975
138.42
121.109
102.316
82.5067
62.3219
42.5283
23.9481
7.37351
-6.5233
-17.2706
-24.6589
-28.775
-30.0022
-28.9861
-26.5695
-23.7011
-21.3305
-20.2993
-21.2429
-24.5135
-30.1332
-37.7861
-46.8479
-56.4531
-65.5919
-73.2254
-78.4075
-80.3979
-78.7549
-73.3953
-64.6169
-53.0783
-39.7415
-25.7794
-12.4613
-1.02546
7.44747
12.1478
12.6253
8.84412
1.19681
-9.52531
-22.2035
-35.4994
-47.9883
-58.3054
-65.2879
-68.0979
-66.312
-59.9673
-49.5577
-35.981
-20.4442
-4.33572
10.9189
24.0031
33.8403
39.6967
41.2458
38.589
32.2322
23.0219
12.0501
0.537425
-10.2908
-19.3253
-25.6777
-28.76
-28.334
-24.5249
-17.8002
-8.91657
1.16103
11.3583
20.6005
27.921
32.5574
34.0272
32.1744
27.1826
19.5522
10.0451
-0.398305
-10.7596
-20.051
-27.4196
-32.2353
-34.1549
-33.1529
-29.5181
-23.8153
-16.8156
-9.40434
-2.47481
3.17806
6.95311
8.515
7.83374
5.18587
1.11628
-3.63572
-8.23749
-11.8791
-13.8892
-13.8353
-11.5931
-7.37475
-1.70845
4.62776
10.7115
15.6054
18.4924
18.7961
16.2693
11.0372
3.58865
-5.28201
-14.5754
-23.2136
-30.1766
-34.6288
-36.0199
-34.1483
-29.1785
-21.6146
-12.2332
-1.98619
8.11147
17.0971
24.1623
28.7323
30.5125
29.5007
25.9653
20.3937
13.4205
5.74557
-1.94807
-9.06459
-15.1475
-19.9083
-23.2301
-25.1496
-25.8218
-25.4749
-24.3635
-22.7263
-20.7542
-18.5724
-16.2373
-13.7468
-11.0599
-8.12324
-4.89755
-1.38115
2.37381
6.25438
10.0901
13.6656
16.7411
19.077
20.4605
20.7288
19.7888
17.628
14.3199
10.0206
4.96114
-0.564728
-6.21409
-11.61
-16.3573
-20.0603
-22.3434
-22.8749
-21.3954
-17.7478
-11.9072
-4.00518
5.65538
16.6007
28.2049
39.7288
50.376
59.3628
65.9929
69.7295
70.254
67.5035
61.6827
53.2457
42.8513
31.2967
19.4361
8.09696
-1.99946
-10.3011
-16.4671
-20.3838
-22.1553
-22.0709
-20.5544
-18.1048
-15.2326
-12.4014
-9.98042
-8.21054
-7.18811
-6.86577
-7.06922
-7.52722
-7.91036
-7.87356
-7.09605
-5.31234
-2.32738
1.9894
7.73327
15.0135
24.0127
35.0389
48.5489
65.1233
85.379
109.821
138.655
171.586
207.666
245.21
281.845
314.677
340.583
356.586
360.252
350.058
325.664
288.033
239.399
183.063
123.052
63.6934
9.14598
-37.03
-72.2283
-95.0245
-105.259
-103.97
-93.1947
-75.6717
-54.4847
-32.6975
-13.0225
2.43974
12.3653
16.2653
14.4402
7.84696
-2.09762
-13.7464
-25.4529
-35.7752
-43.631
-48.389
-49.8924
-48.4195
-44.5911
-39.2461
-33.3007
-27.6152
-22.8828
-19.5541
-17.8031
-17.5348
-18.4286
-20.0086
-21.7273
-23.0503
-23.5314
-22.8669
-20.9262
-17.7548
-13.5536
-8.63859
-3.38691
1.82158
6.66164
10.9123
14.4944
17.4919
20.1559
22.8881
26.2057
30.6881
36.9102
45.3686
56.4096
70.1675
86.5236
105.091
125.231
146.099
166.715
186.054
203.138
217.134
227.418
233.635
235.714
233.863
228.527
220.327
209.99
198.259
185.82
173.23
160.877
148.95
137.446
126.2
114.937
103.33
91.0751
77.9497
63.8629
48.8833
33.2432
17.3185
1.58905
-13.4162
-27.1791
-39.2509
-49.2993
-57.1407
-62.7518
-66.2615
-67.9254
-68.086
-67.1277
-65.4296
-63.3257
-61.0747
-58.8442
-56.7089
-54.6623
-52.6382
-50.5375
-48.2571
-45.7145
-42.8661
-39.7167
-36.3192
-32.767
-29.1795
-25.6848
-22.4022
-19.428
-16.8256
-14.6215
-12.8077
-11.3486
-10.191
-9.2753
-8.54557
-7.95723
-7.48061
-7.10071
-6.81341
-6.61927
-6.51649
-6.49469
-6.53081
-6.58826
-6.61933
-6.57068
-6.39069
-6.03742
-5.48565
-4.73162
-3.79467
-2.71548
-1.55111
-0.367737
0.76767
1.79551
2.67025
3.36467
3.87133
4.20103
4.37899
4.43927
4.4187
4.35112
4.26269
4.16908
4.0743
3.97144
3.84471
3.67245
3.43063
3.09631
2.65088
2.08287
1.39005
0.580993
-0.324182
-1.29376
-2.28526
-3.24717
-4.12154
-4.84744
-5.36487
-5.61898
-5.56382
-5.16541
-4.40354
-3.2725
-1.78078
0.0493802
2.18212
4.56714
7.13793
9.8095
12.4767
15.0148
17.2827
19.1314
20.4164
21.014
20.8389
19.8621
18.1237
15.7388
12.8943
9.83442
6.8359
4.17516
2.09166
0.752857
0.226668
0.467147
1.31724
2.53005
3.80701
4.84786
5.40509
5.3336
4.62669
3.4309
2.03536
0.835402
0.274621
0.773576
2.65602
6.08462
11.0169
17.1896
24.1342
31.2234
37.742
42.9717
46.2802
47.1999
45.4879
41.1574
34.4786
25.9485
16.234
6.09627
-3.69281
-12.4331
-19.5658
-24.723
-27.751
-28.7062
-27.8253
-25.4756
-22.0928
-18.1176
-13.9401
-9.86006
-6.06804
-2.64908
0.395178
3.11123
5.55367
7.74861
9.66768
11.2174
12.2456
12.5632
11.9777
10.3315
7.53959
3.61869
-1.29615
-6.95083
-12.9881
-18.9781
-24.46
-28.9886
-32.1819
-33.7607
-33.5793
-31.64
-28.0935
-23.2221
-17.4107
-11.1079
-4.7809
1.12898
6.24661
10.2948
13.1143
14.6707
15.0482
14.4319
13.0808
11.2955
9.38496
7.63511
6.28388
5.50341
5.39067
5.96541
7.17381
8.89599
10.9564
13.137
15.1944
16.8818
17.9774
18.3172
17.8293
16.5645
14.7156
12.6199
10.7393
9.61696
9.81204
11.8198
15.9866
22.4326
30.9948
41.2017
52.2876
63.2488
72.9385
80.1904
83.9553
83.436
78.1992
68.2505
54.0606
36.5368
16.9431
-3.22324
-22.3843
-39.044
-51.9414
-60.1776
-63.3006
-61.34
-54.7897
-44.5418
-31.7813
-17.8566
-4.13999
8.10632
17.8447
24.3498
27.2648
26.6273
22.8683
16.7917
9.53713
2.52943
-2.58853
-4.04597
-0.0645344
10.9853
30.3938
58.898
96.4705
142.143
193.909
248.737
302.729
351.423
390.221
414.9
422.133
409.956
378.103
328.145
263.418
188.731
109.879
33.0354
-35.9037
-91.948
-131.523
-152.805
-155.847
-142.479
-116.015
-80.7962
-41.6539
-3.34092
29.982
55.1559
70.2847
74.8278
69.5271
56.1902
37.3678
15.9735
-5.10316
-23.3434
-36.8675
-44.5982
-46.3105
-42.5704
-34.5809
-23.963
-12.5047
-1.91222
6.4051
11.4915
12.9289
10.8446
5.84765
-1.08957
-8.78557
-16.0157
-21.6679
-24.8699
-25.0739
-22.0929
-16.0895
-7.52257
2.93734
14.5087
26.4039
37.9236
48.5324
57.9079
65.9606
72.8255
78.828
84.4295
90.1601
96.5455
104.037
112.954
123.439
135.438
148.704
162.821
177.251
191.388
204.627
216.42
226.325
234.04
239.408
242.405
243.107
241.644
238.153
232.737
225.431
216.196
204.928
191.498
175.793
157.78
137.56
115.405
91.7837
67.3533
42.9216
19.3868
-2.34308
-21.4391
-37.2363
-49.3039
-57.4908
-61.94
-63.0709
-61.5303
-58.1205
-53.7124
-49.1548
-45.1913
-42.3939
-41.121
-41.5022
-43.4512
-46.7024
-50.8653
-55.4874
-60.116
-64.352
-67.886
-70.5152
-72.1402
-72.7457
-72.3699
-71.0718
-68.9029
-65.8896
-62.0301
-57.3062
-51.7072
-45.2602
-38.0607
-30.2954
-22.2517
-14.309
-6.91091
-0.522242
4.42504
7.58791
8.7618
7.91555
5.2059
0.968651
-4.31261
-10.0565
-15.6458
-20.494
-24.1066
-26.1323
-26.3959
-24.9101
-21.867
-17.6093
-12.5863
-7.29969
-2.24744
2.13046
5.49607
7.6442
8.51656
8.19874
6.90099
4.92599
2.62779
0.367122
-1.5317
-2.81726
-3.33702
-3.05033
-2.02745
-0.435269
1.48795
3.46543
5.21827
6.50074
7.13058
7.01057
6.13931
4.60987
2.59697
0.334363
-1.91479
-3.89054
-5.36785
-6.18327
-6.25326
-5.5817
-4.25584
-2.43115
-0.307481
1.90007
3.99116
5.80651
7.24676
8.28111
8.945
9.3276
9.55156
9.74868
10.0353
10.4911
11.1451
11.969
12.8808
13.7556
14.4437
14.7917
14.6649
13.9672
12.6557
10.7498
8.33139
5.53799
2.54879
-0.434704
-3.21122
-5.60299
-7.47684
-8.7605
-9.45178
-9.6189
-9.39149
-8.94299
-8.46667
-8.14828
-8.13932
-8.53463
-9.35765
-10.5554
-12.0039
-13.5238
-14.9033
-15.9258
-16.3985
-16.1786
-15.1929
-13.4491
-11.0375
-8.12253
-4.92563
-1.70151
1.2896
3.81006
5.67043
6.74941
7.00614
6.48344
5.30183
3.64511
1.73914
-0.173678
-1.8614
-3.1279
-3.83385
-3.91082
-3.36714
-2.28487
-0.808466
0.873414
2.55069
4.01648
5.0908
5.6405
5.59346
4.94557
3.75998
2.15907
0.310304
-1.59215
-3.34787
-4.77032
-5.7046
-6.04091
-5.72239
-4.74691
-3.16264
-1.05832
1.45055
4.23801
7.1842
10.1903
13.1898
16.154
19.0913
22.0394
25.0515
28.178
31.4469
34.8462
38.3104
41.7158
44.8844
47.5967
49.6138
50.7034
50.6679
49.3707
46.755
42.8556
37.7997
31.7982
25.1279
18.109
11.0779
4.36164
-1.74634
-7.00457
-11.2368
-14.3385
-16.278
-17.0915
-16.8742
-15.7687
-13.9495
-11.608
-8.93574
-6.10908
-3.27443
-0.535941
2.05551
4.51231
6.92102
9.45579
12.3945
16.135
21.204
28.2496
38.0044
51.2108
68.5057
90.2739
116.488
146.569
179.292
212.786
244.624
272.028
292.156
302.442
300.948
286.656
259.67
221.291
173.932
120.903
66.0711
13.4527
-33.2153
-70.8697
-97.4284
-111.978
-114.816
-107.359
-91.9174
-71.3845
-48.8772
-27.3733
-9.39064
3.25526
9.59246
9.52311
3.74789
-6.39796
-19.1698
-32.6676
-45.0846
-54.9217
-61.1423
-63.255
-61.3188
-55.8775
-47.8382
-38.3154
-28.4638
-19.3238
-11.6999
-6.08463
-2.63476
-1.19653
-1.37178
-2.60998
-4.30953
-5.91145
-6.97148
-7.20145
-6.47655
-4.8112
-2.31137
0.885392
4.66962
9.00756
13.968
19.7234
26.526
34.6629
44.3982
55.9137
69.2562
84.3026
100.747
118.115
135.798
153.112
169.362
183.917
196.269
206.085
213.238
217.812
220.079
220.461
219.467
217.614
215.359
213.02
210.733
208.419
205.793
202.401
197.68
191.047
181.991
170.156
155.419
137.934
118.139
96.7351
74.6274
52.8405
32.4179
14.3165
-0.689496
-12.0849
-19.6609
-23.5283
-24.0959
-22.0169
-18.1118
-13.2757
-8.38244
-4.19637
-1.30165
-0.0559312
-0.572917
-2.73386
-6.22496
-10.5944
-15.3206
-19.8828
-23.8244
-26.8022
-28.6157
-29.2163
-28.6943
-27.2508
-25.1573
-22.711
-20.1924
-17.8294
-15.7737
-14.0905
-12.7614
-11.6992
-10.7718
-9.83001
-8.73546
-7.38533
-5.72963
-3.77979
-1.60741
0.665946
2.88637
4.88985
6.52602
7.68011
8.28991
8.3557
7.94139
7.16687
6.19249
5.1977
4.35686
3.81557
3.67093
3.95839
4.64732
5.64564
6.81307
7.98094
8.9757
9.64277
9.86736
9.58921
8.80943
7.58852
6.03624
4.29507
2.51992
0.857275
-0.573164
-1.69171
-2.46518
-2.90611
-3.06523
-3.01881
-2.85331
-2.64969
-2.47007
-2.34861
-2.2879
-2.26122
-2.22008
-2.1057
-1.86251
-1.4516
-0.861852
-0.11715
0.721536
1.55959
2.27731
2.74248
2.8254
2.41447
1.4303
-0.163199
-2.35234
-5.07237
-8.21173
-11.6213
-15.1275
-18.5481
-21.7081
-24.4544
-26.6677
-28.2699
-29.2261
-29.5427
-29.2604
-28.4445
-27.1741
-25.5311
-23.591
-21.4162
-19.053
-16.5313
-13.868
-11.0725
-8.15389
-5.12913
-2.02985
1.09199
4.16131
7.08036
9.73283
11.9917
13.7303
14.8371
15.2309
14.8776
13.8043
12.1092
9.96518
7.61428
5.35342
3.51099
2.41618
2.36427
3.58159
6.19441
10.206
15.4852
21.7679
28.6734
35.7329
42.4286
48.2391
52.686
55.3772
56.0423
54.5552
50.9441
45.3854
38.185
29.7486
20.5449
11.0657
1.78762
-6.86141
-14.5285
-20.9528
-25.9731
-29.5267
-31.6411
-32.42
-32.0257
-30.6593
-28.5422
-25.8972
-22.9334
-19.8336
-16.745
-13.7727
-10.9743
-8.35423
-5.85405
-3.33707
-0.566544
2.81983
7.33241
13.6377
22.5386
34.9147
51.6146
73.3055
100.293
132.343
168.538
207.207
245.965
281.864
311.665
332.189
340.724
335.398
315.498
281.656
235.871
181.373
122.313
63.3313
9.05585
-36.4158
-69.9728
-89.8327
-95.7209
-88.8669
-71.8168
-48.0902
-21.7255
3.2256
23.1883
35.4783
38.5874
32.3106
17.7023
-3.12443
-27.323
-51.7167
-73.2242
-89.2519
-98.0047
-98.6797
-91.5224
-77.7456
-59.3274
-38.7201
-18.5124
-1.09209
11.6475
18.5181
19.1439
13.9551
4.07841
-8.85451
-22.9475
-36.2935
-47.205
-54.3939
-57.0808
-55.0284
-48.5021
-38.1735
-24.9857
-10.0041
5.7258
21.2965
36.0213
49.4757
61.5001
72.1684
81.7328
90.5558
99.0383
107.556
116.405
125.773
135.718
146.172
156.963
167.835
178.489
188.619
197.941
206.228
213.319
219.133
223.652
226.903
228.925
229.731
229.274
227.421
223.946
218.543
210.86
200.558
187.374
171.193
152.109
130.459
106.839
82.0776
57.1787
33.2365
11.3332
-7.56943
-22.7279
-33.6941
-40.3592
-42.9607
-42.051
-38.4324
-33.0674
-26.9754
-21.1298
-16.3662
-13.3122
-12.3438
-13.5731
-16.8625
-21.8629
-28.069
-34.882
-41.675
-47.8514
-52.8945
-56.4024
-58.1093
-57.8927
-55.7679
-51.8726
-46.4453
-39.7987
-32.2931
-24.3109
-16.2348
-8.43048
-1.23335
5.0609
10.2034
13.9984
16.3105
17.0731
16.2977
14.0843
10.6277
6.22005
1.24345
-3.8476
-8.55591
-12.382
-14.872
-15.6684
-14.5568
-11.5032
-6.67437
-0.43814
6.659
13.9363
20.641
26.0224
29.4095
30.2841
28.3417
23.5336
16.0863
6.49616
-4.50093
-15.9824
-26.9112
-36.2223
-42.9166
-46.1566
-45.3552
-40.2514
-30.9627
-18.0096
-2.30391
14.9017
32.1039
47.6736
60.0079
67.6931
69.6636
65.3353
54.6975
38.3478
17.4637
-6.28963
-30.9077
-54.2348
-74.1734
-88.8902
-96.9982
-97.6931
-90.8315
-76.9421
-57.1706
-33.167
-6.9278
19.3866
43.642
63.9081
78.6102
86.644
87.4477
81.0295
67.9518
49.2758
26.4709
1.2963
-24.3392
-48.5278
-69.5153
-85.8407
-96.4538
-100.797
-98.8415
-91.0802
-78.4647
-62.3048
-44.1336
-25.5556
-8.0939
6.9475
18.5904
26.2497
29.7545
29.3252
25.5108
19.0978
11.0032
2.16469
-6.55728
-14.4572
-21.0335
-26.0061
-29.3055
-31.0357
-31.4217
-30.7472
-29.295
-27.2962
-24.8953
-22.1353
-18.9638
-15.2567
-10.8567
-5.6188
0.543344
7.61843
15.4712
23.8335
32.3149
40.432
47.654
53.4601
57.4017
59.1617
58.6044
55.8075
51.0703
44.8962
37.9457
30.9669
24.7059
19.8107
16.7381
15.6794
16.5154
18.8116
21.8567
24.744
26.4865
26.1531
23.007
16.6276
6.99601
-5.46862
-19.9318
-35.2237
-49.969
-62.7504
-72.2837
-77.5823
-78.0874
-73.7431
-65.006
-52.7817
-38.2941
-22.9014
-7.88048
5.78952
17.6122
27.6936
36.769
46.1196
57.3782
72.2414
92.1262
117.826
149.228
185.149
223.341
260.667
293.454
317.956
330.871
329.821
313.729
283.016
239.605
186.716
128.493
69.5185
14.2783
-33.3379
-70.4436
-95.417
-107.992
-109.175
-101.02
-86.28
-68.0153
-49.1916
-32.3327
-19.2636
-10.973
-7.60069
-8.54136
-12.6394
-18.4387
-24.4482
-29.383
-32.3498
-32.9554
-31.3273
-28.0529
-24.0485
-20.3841
-18.0895
-17.9727
-20.4763
-25.5915
-32.8435
-41.3478
-49.9287
-57.2836
-62.1671
-63.5703
-60.8684
-53.9168
-43.0832
-29.2111
-13.5207
2.53765
17.4584
29.8598
38.6446
43.1233
43.0893
38.8415
31.1585
21.2345
10.5855
0.93591
-5.91196
-8.22107
-4.47558
6.45737
25.1721
51.5947
84.9019
123.513
165.169
207.104
246.3
279.794
305.004
320.03
323.881
316.602
299.268
273.862
243.034
209.787
177.13
147.737
123.67
106.179
95.6185
91.4688
92.4589
96.7691
102.282
106.85
108.551
105.895
97.9805
84.5664
66.0723
43.5061
18.3314
-7.70696
-32.7776
-55.1582
-73.4089
-86.5084
-93.9377
-95.7067
-92.3213
-84.6979
-74.0375
-61.676
-48.9282
-36.9474
-26.6134
-18.4648
-12.6777
-9.09375
-7.28819
-6.66657
-6.57506
-6.40769
-5.6959
-4.16898
-1.77937
1.30836
4.76012
8.13799
10.9776
12.8649
13.502
12.7513
10.655
7.42762
3.42343
-0.913574
-5.11056
-8.72789
-11.4138
-12.9448
-13.2464
-12.3941
-10.5933
-8.14495
-5.39969
-2.70971
-0.383
1.35363
2.37917
2.68873
2.38942
1.68334
0.840214
0.163302
-0.0477495
0.466839
1.89501
4.32797
7.74421
12.0035
16.8517
21.9357
26.8296
31.071
34.2062
35.8418
35.6978
33.656
29.7961
24.4123
18.0048
11.2437
4.9068
-0.204808
-3.36304
-4.01055
-1.84621
3.11428
10.5135
19.6695
29.6369
39.3058
47.5281
53.2562
55.6754
54.3126
49.1059
40.4253
29.0407
16.0406
2.71124
-9.60774
-19.6749
-26.4856
-29.3829
-28.1274
-22.9206
-14.3804
-3.47312
8.58706
20.4627
30.8266
38.493
42.5353
42.3797
37.869
29.2888
17.3547
3.15682
-11.9332
-26.3911
-38.6931
-47.4811
-51.7226
-50.8471
-44.8391
-34.2728
-20.277
-4.42884
11.4177
25.3512
35.6466
41.0011
40.7322
34.9056
24.3698
10.6843
-4.06001
-17.5111
-27.3861
-31.818
-29.6665
-20.7412
-5.8957
13.0327
33.4378
52.2876
66.5491
73.63
71.7705
60.3248
39.8893
12.259
-19.7812
-52.7974
-83.1327
-107.358
-122.691
-127.327
-120.654
-103.312
-77.1186
-44.8491
-9.91768
24.0091
53.4199
75.3408
87.6506
89.2961
80.3839
62.143
36.7638
7.13399
-23.4969
-51.8832
-75.1384
-91.0379
-98.2372
-96.383
-86.1069
-68.9088
-46.9457
-22.7572
1.04129
22.0562
38.373
48.7419
52.675
50.4476
43.0079
31.8128
18.6132
5.22008
-6.71989
-15.9109
-21.5361
-23.3161
-21.495
-16.7624
-10.1253
-2.75113
4.19635
9.70702
13.0421
13.8076
11.9788
7.87567
2.09773
-4.56994
-11.2661
-17.1627
-21.5612
-23.9654
-24.1241
-22.0412
-17.955
-12.2914
-5.59941
1.52279
8.50102
14.8493
20.2177
24.4201
27.4386
29.4069
30.5747
31.2596
31.7919
32.4609
33.4672
34.8892
36.6656
38.5971
40.3675
41.581
41.811
40.6565
37.7963
33.0365
26.3441
17.8627
7.90728
-3.05979
-14.4703
-25.7027
-36.1405
-45.2271
-52.513
-57.6877
-60.5933
-61.2204
-59.6851
-56.1929
-50.994
-44.3351
-36.4129
-27.3328
-17.0755
-5.47434
7.79343
23.1948
41.2993
62.7003
87.8936
117.121
150.195
186.339
224.083
261.249
295.058
322.371
340.034
345.29
336.203
312.01
273.35
222.318
162.329
97.7892
33.6338
-25.2288
-74.4765
-110.867
-132.593
-139.459
-132.842
-115.46
-90.9765
-63.4955
-37.0245
-14.9784
0.209929
7.32214
6.40622
-1.35014
-13.8959
-28.6941
-43.1392
-54.9515
-62.4941
-64.9692
-62.4766
-55.9326
-46.8706
-37.162
-28.7001
-23.0981
-21.444
-24.1441
-30.8739
-40.6382
-51.9254
-62.9323
-71.8238
-76.9912
-77.274
-72.1167
-61.6417
-46.6305
-28.4204
-8.73197
10.5479
27.598
40.8808
49.3197
52.417
50.3017
43.7047
33.8682
22.4036
11.1157
1.81338
-3.8713
-4.63911
0.360047
11.459
28.4566
50.6502
76.9115
105.794
135.663
164.833
191.697
214.85
233.18
245.932
252.743
253.644
249.031
239.613
226.346
210.345
192.801
174.887
157.673
142.048
128.654
117.84
109.64
103.775
99.6893
96.6155
93.6606
89.9117
84.5468
76.9381
66.7359
53.9213
38.8211
22.08
4.59317
-12.5929
-28.4006
-41.847
-52.1578
-58.8565
-61.8163
-61.2686
-57.7674
-52.1148
-45.2591
-38.1761
-31.7523
-26.6811
-23.3882
-21.9923
-22.3072
-23.8843
-26.0886
-28.199
-29.5183
-29.4784
-27.7263
-24.1782
-19.0356
-12.7576
-5.99623
0.498389
5.98837
9.85813
11.7074
11.4128
9.14958
5.36802
0.730567
-3.98266
-7.98456
-10.5919
-11.32
-9.94773
-6.54527
-1.46063
4.7305
11.3038
17.4818
22.5325
25.8577
27.0604
25.9837
22.7194
17.5862
11.0838
3.82932
-3.51432
-10.3103
-16.0109
-20.2065
-22.6561
-23.2969
-22.2359
-19.7235
-16.1153
-11.8265
-7.28449
-2.88506
1.04308
4.26275
6.63964
8.1409
8.82265
8.80913
8.2671
7.37934
6.32043
5.23768
4.23869
3.38621
2.69992
2.16381
1.73736
1.3685
1.00624
0.611164
0.162656
-0.338008
-0.868598
-1.39042
-1.85541
-2.2145
-2.42612
-2.46339
-2.31912
-2.00799
-1.56568
-1.04526
-0.511344
-0.0331578
0.322648
0.498304
0.449704
0.149343
-0.412394
-1.22696
-2.26752
-3.48825
-4.82254
-6.18087
-7.44934
-8.49127
-9.15373
-9.28055
-8.73171
-7.40709
-5.2709
-2.37181
1.14618
5.04614
9.01566
12.6987
15.7378
17.821
18.7262
18.3548
16.7515
14.105
10.732
7.046
3.51616
0.620466
-1.20166
-1.59391
-0.321617
2.69763
7.373
13.4303
20.4143
27.7058
34.5542
40.1293
43.5887
44.1608
41.2356
34.4551
23.7916
9.60313
-7.34534
-25.9038
-44.6058
-61.7815
-75.7102
-84.7944
-87.7413
-83.7272
-72.5255
-54.5786
-31.001
-3.50726
25.7313
54.2898
79.7314
99.8603
112.956
117.964
114.607
103.426
85.7172
63.3933
38.7816
14.3764
-7.41786
-24.5288
-35.4154
-39.2066
-35.7657
-25.6769
-10.1597
9.07783
30.0286
50.5975
68.8108
83.0043
91.9707
95.0535
92.1816
83.8428
71.0022
54.9768
37.2821
19.4675
2.95873
-11.0757
-21.8227
-28.8769
-32.2474
-32.3184
-29.7738
-25.4957
-20.4495
-15.5699
-11.6577
-9.29884
-8.80699
-10.1941
-13.1639
-17.1246
-21.2171
-24.3545
-25.2753
-22.6149
-15.0009
-1.17925
19.8282
48.5423
84.8411
127.8
175.594
225.504
274.04
317.217
350.935
371.453
375.874
362.579
331.533
284.417
224.532
156.505
85.8035
18.1374
-41.1852
-87.8524
-119.022
-133.604
-132.328
-117.579
-93.0343
-63.1558
-32.6069
-5.67005
14.2536
25.0057
25.85
17.4585
1.71447
-18.6267
-40.3686
-60.3312
-75.7743
-84.7313
-86.2183
-80.2978
-68.0005
-51.1259
-31.9577
-12.9356
3.66771
16.0249
22.9546
24.0251
19.5555
10.5246
-1.59529
-15.0485
-28.0232
-38.8643
-46.2489
-49.3064
-47.6765
-41.5035
-31.3747
-18.2165
-3.16317
12.5833
27.8872
41.7923
53.6066
62.951
69.773
74.327
77.126
78.8723
80.3741
82.4567
85.8744
91.234
98.9336
109.125
121.7
136.307
152.39
169.248
186.107
202.194
216.807
229.368
239.457
246.822
251.364
253.103
252.132
248.568
242.507
234.001
223.048
209.606
193.634
175.135
154.212
131.111
106.255
80.2444
53.8413
27.9175
3.38568
-18.8837
-38.1473
-53.8617
-65.734
-73.7408
-78.1135
-79.2908
-77.8466
-74.4061
-69.5634
-63.814
-57.515
-50.8779
-43.9937
-36.8861
-29.578
-22.1597
-14.8418
-7.98218
-2.07983
2.26487
4.41849
3.80265
-0.00907944
-7.19666
-17.6125
-30.725
-45.5974
-60.914
-75.0624
-86.274
-92.8172
-93.2245
-86.5226
-72.4285
-51.4748
-25.0327
4.7811
35.3108
63.6574
87.0254
103.071
110.204
107.794
96.2593
77.0159
52.3059
24.9173
-2.1576
-26.0837
-44.5159
-55.8619
-59.4433
-55.5393
-45.3086
-30.6073
-13.7258
2.9167
17.083
26.9933
31.5334
30.3719
23.9741
13.5142
0.698027
-12.4777
-23.9993
-32.1068
-35.5262
-33.633
-26.5282
-15.0172
-0.49572
15.2374
30.2172
42.5641
50.7184
53.6277
50.8652
42.6679
29.8935
13.9061
-3.59202
-20.7599
-35.823
-47.2623
-53.9656
-55.3293
-51.3031
-42.3759
-29.5117
-14.041
2.47566
18.4032
32.1894
42.5135
48.4115
49.3688
45.3689
36.8931
24.8701
10.5792
-4.48365
-18.7636
-30.8096
-39.4252
-43.7904
-43.5404
-38.7938
-30.1272
-18.5023
-5.1528
8.55262
21.2571
31.7547
39.1073
42.7296
42.4325
38.4254
31.2761
21.838
11.15
0.324061
-9.57036
-17.6116
-23.1112
-25.6731
-25.2214
-21.9961
-16.5198
-9.5371
-1.93539
5.34749
11.4198
15.5283
17.1381
15.9922
12.1448
5.96376
-1.90012
-10.5762
-19.065
-26.3497
-31.5167
-33.8702
-33.0268
-28.9753
-22.0922
-13.1071
-3.02221
7.00706
15.8141
22.3681
25.906
26.0326
22.7741
16.5779
8.25904
-1.10147
-10.2928
-18.128
-23.5958
-25.9916
-25.0112
-20.7944
-13.9131
-5.30482
3.84165
12.2337
18.6388
22.0433
21.7886
17.6645
9.9513
-0.598532
-12.8349
-25.3335
-36.5517
-44.9999
-49.4054
-48.8529
-42.8839
-31.5487
-15.4042
4.53544
26.8923
50.0481
72.2867
91.9418
107.537
117.908
122.296
120.411
112.451
99.0939
81.4408
60.9309
39.2248
18.0655
-0.87317
-16.1385
-26.6377
-31.7494
-31.3943
-26.0535
-16.7301
-4.85258
7.87078
19.6343
28.7336
33.7592
33.7624
28.3725
17.8513
3.07408
-14.5605
-33.2835
-51.1547
-66.2807
-77.0288
-82.2036
-81.167
-73.8799
-60.8618
-43.0699
-21.7172
1.94222
26.8239
52.179
77.6801
103.406
129.719
157.059
185.69
215.457
245.608
274.727
300.807
321.45
334.177
336.786
327.698
306.24
272.808
228.888
176.942
120.166
62.1622
6.57988
-43.2451
-84.5937
-115.586
-135.299
-143.781
-141.961
-131.49
-114.517
-93.4501
-70.7191
-48.5626
-28.8626
-13.0311
-1.95365
4.01293
4.9986
1.54256
-5.50708
-15.1054
-26.1235
-37.4538
-48.0999
-57.2467
-64.3066
-68.941
-71.0581
-70.788
-68.4407
-64.4503
-59.3124
-53.5219
-47.5157
-41.6283
-36.0637
-30.8865
-26.0328
-21.3392
-16.5863
-11.5501
-6.05466
-0.0188962
6.51082
13.3481
20.1786
26.5982
32.1758
36.533
39.4326
40.86
41.0836
40.6787
40.5054
41.638
45.2482
52.458
64.1796
80.9642
102.883
129.456
159.644
191.908
224.326
254.769
281.102
301.399
314.141
318.373
313.807
300.844
280.539
254.484
224.642
193.153
162.118
133.402
108.466
88.2431
73.0825
62.7468
56.4769
53.1074
51.2225
49.3328
46.0551
40.2745
31.2701
18.7934
3.08852
-15.1438
-34.8348
-54.6763
-73.2729
-89.2993
-101.645
-109.526
-112.56
-110.786
-104.636
-94.8663
-82.4537
-68.4767
-53.9951
-39.9458
-27.0667
-15.8557
-6.56712
0.757543
6.23522
10.0735
12.5031
13.7226
13.8623
12.9724
11.0348
7.99283
3.79165
-1.57822
-8.04376
-15.4238
-23.4192
-31.619
-39.5229
-46.5747
-52.2058
-55.8819
-57.1501
-55.6819
-51.3092
-44.0506
-34.1261
-21.9583
-8.15851
6.50189
21.1353
34.7948
46.5414
55.5169
61.0178
62.564
59.9567
53.3194
43.1158
30.1402
15.4752
0.417465
-13.6276
-25.2746
-33.2996
-36.7797
-35.2137
-28.6081
-17.5126
-2.99664
13.4377
29.9992
44.797
56.0534
62.317
62.6483
56.7547
45.0543
28.6592
9.27527
-10.9715
-29.7665
-44.8701
-54.3851
-56.9964
-52.1546
-40.1772
-22.2515
-0.333042
23.0547
45.101
63.0375
74.4783
77.7275
72.012
57.607
35.8327
8.91856
-20.2498
-48.4716
-72.6161
-90.0013
-98.719
-97.8616
-87.6232
-69.2618
-44.9282
-17.3876
10.3308
35.3071
55.0795
67.9229
73.0231
70.5301
61.4849
47.6379
31.1866
14.4704
-0.334414
-11.4806
-17.8443
-19.0269
-15.3571
-7.79953
2.21213
12.9905
22.8276
30.2152
34.0243
33.6248
28.9351
20.3999
8.90453
-4.3581
-18.0483
-30.8459
-41.6014
-49.4539
-53.9056
-54.8457
-52.5275
-47.5037
-40.5344
-32.4792
-24.1912
-16.4233
-9.75896
-4.57309
-1.02349
0.928433
1.47526
0.90786
-0.443664
-2.26333
-4.28953
-6.3378
-8.30445
-10.1529
-11.8865
-13.5145
-15.0171
-16.318
-17.2694
-17.654
-17.2047
-15.6407
-12.7161
-8.27194
-2.28746
5.0813
13.4811
22.3661
31.0321
38.6781
44.4943
47.7642
47.9697
44.8839
38.635
29.7296
19.0268
7.66334
-3.0662
-11.8589
-17.5661
-19.3457
-16.7843
-9.96796
0.50913
13.6036
27.9422
41.9873
54.2259
63.3547
68.4381
69.0141
65.1375
57.3529
46.6055
34.1024
21.146
8.96434
-1.43955
-9.39714
-14.6308
-17.2511
-17.6997
-16.6473
-14.8671
-13.1021
-11.9482
-11.7706
-12.6654
-14.4697
-16.8175
-19.2292
-21.2188
-22.3976
-22.5564
-21.7074
-20.0758
-18.0365
-16.0003
-14.2669
-12.8646
-11.4135
-9.04229
-4.39437
4.25617
18.774
40.8358
71.5486
111.077
158.351
210.92
265.019
315.845
358.059
386.427
396.537
385.466
352.306
298.444
227.548
145.245
58.5213
-25.0721
-98.3054
-155.126
-191.368
-205.212
-197.349
-170.818
-130.554
-82.7085
-33.8429
9.89021
43.4774
63.5864
68.8603
59.938
39.2131
10.3804
-22.1567
-53.9266
-80.9892
-100.414
-110.581
-111.276
-103.585
-89.6094
-72.0747
-53.8757
-37.645
-25.3967
-18.2946
-16.5678
-19.5735
-25.9861
-34.0704
-41.992
-48.1107
-51.2151
-50.665
-46.4293
-39.0224
-29.3592
-18.5596
-7.73974
2.17529
10.5874
17.2928
22.4748
26.6315
30.456
34.6934
40.0031
46.8468
55.4208
65.6384
77.1618
89.4724
101.965
114.048
125.232
135.196
143.819
151.177
157.517
163.196
168.614
174.148
180.079
186.55
193.531
200.805
207.98
214.511
219.742
222.958
223.448
220.572
213.829
202.921
187.807
168.733
146.237
121.134
94.4571
67.3809
41.1248
16.8453
-4.46614
-22.0702
-35.5399
-44.7876
-50.0549
-51.8679
-50.964
-48.1996
-44.4505
-40.5176
-37.0495
-34.4889
-33.0497
-32.7228
-33.3092
-34.4731
-35.8078
-36.9048
-37.4197
-37.127
-35.9578
-34.0182
-31.5849
-29.0786
-27.0167
-25.948
-26.3753
-28.6722
-33.0047
-39.2672
-47.0468
-55.6234
-64.0156
-71.071
-75.5945
-76.5009
-72.9702
-64.5825
-51.4124
-34.0643
-13.6452
8.3276
30.0692
49.7068
65.4743
75.9001
79.9689
77.2399
67.91
52.8163
33.3757
11.4678
-10.7314
-30.9527
-47.0577
-57.264
-60.3497
-55.8119
-43.9565
-25.8998
-3.47414
20.9613
44.7852
65.4257
80.6767
88.977
89.6099
82.792
69.6369
51.9964
32.2014
12.7398
-4.0809
-16.4377
-23.2194
-24.1454
-19.762
-11.3208
-0.56005
10.5743
20.2242
26.8874
29.6184
28.1347
22.8185
14.6176
4.86664
-4.93878
-13.3792
-19.3222
-22.0773
-21.475
-17.8643
-12.0332
-5.0703
1.80843
7.44067
10.8799
11.517
9.14831
3.98356
-3.40137
-12.1569
-21.2813
-29.7537
-36.6604
-41.3001
-43.2568
-42.4344
-39.0521
-33.6025
-26.781
-19.3936
-12.255
-6.0892
-1.44233
1.38114
2.35104
1.7091
-0.0689291
-2.34214
-4.39621
-5.54603
-5.23612
-3.12478
0.859469
6.49781
13.3008
20.5657
27.4644
33.15
36.8681
38.0571
36.4253
31.9939
25.1004
16.3636
6.61363
-3.20208
-12.1255
-19.2938
-24.0306
-25.9142
-24.814
-20.8933
-14.5803
-6.51193
2.54134
11.7594
20.3563
27.6543
33.1417
36.5101
37.669
36.7395
34.0278
29.9853
25.1568
20.1259
15.4588
11.6541
9.10113
8.04862
8.58707
10.6436
13.9901
18.2631
22.9949
27.654
31.6915
34.5914
35.9194
35.3664
32.7813
28.1893
21.7932
13.9566
5.16989
-3.99711
-12.9506
-21.1308
-28.0652
-33.4115
-36.9849
-38.7663
-38.8913
-37.6217
-35.3017
-32.3074
-28.9946
-25.654
-22.4774
-19.5415
-16.808
-14.1388
-11.3196
-8.08568
-4.13954
0.843692
7.22535
15.4211
25.9156
39.2572
56.0168
76.699
101.608
130.684
163.342
198.348
233.786
267.136
295.472
315.78
325.337
322.107
305.082
274.508
231.953
180.205
122.999
64.6254
9.45505
-38.5349
-76.1871
-101.48
-113.697
-113.444
-102.503
-83.5667
-59.8846
-34.8656
-11.6953
6.99346
19.3623
24.4979
22.4271
14.024
0.828566
-15.1955
-31.929
-47.3606
-59.8131
-68.1111
-71.6758
-70.5402
-65.2913
-56.9514
-46.8156
-36.2709
-26.6171
-18.9123
-13.8601
-11.7484
-12.4443
-15.4417
-19.9507
-25.0165
-29.6491
-32.946
-34.1953
-32.9453
-29.0355
-22.5892
-13.9706
-3.71714
7.54337
19.1771
30.6196
41.4335
51.3425
60.24
68.1764
75.3265
81.9486
88.3394
94.7937
101.574
108.894
116.91
125.733
135.43
146.033
157.541
169.905
183.007
196.629
210.426
223.9
236.399
247.137
255.244
259.841
260.138
255.535
245.719
230.732
211.005
187.346
160.875
132.927
104.917
78.2009
53.9394
32.9918
15.8485
2.61396
-6.9629
-13.4157
-17.4599
-19.8803
-21.4247
-22.7174
-24.2032
-26.1265
-28.5419
-31.3525
-34.3628
-37.3374
-40.054
-42.3431
-44.1102
-45.3389
-46.0782
-46.4189
-46.4648
-46.3041
-45.987
-45.5128
-44.8263
-43.8252
-42.3754
-40.3328
-37.5671
-33.9854
-29.5528
-24.3072
-18.3677
-11.9344
-5.28245
1.25155
7.28809
12.4274
16.2755
18.4721
18.721
16.8209
12.6971
6.43233
-1.7071
-11.2523
-21.5281
-31.6716
-40.6781
-47.4794
-51.0511
-50.5398
-45.3939
-35.4779
-21.1469
-3.2644
16.8469
37.5221
56.9235
73.2412
84.8947
90.7087
90.0384
82.8345
69.6423
51.5435
30.0505
6.96733
-15.7704
-36.2648
-52.8222
-64.106
-69.2623
-68.0054
-60.653
-48.101
-31.7378
-13.3036
5.29253
22.1766
35.7118
44.6734
48.3743
46.7266
40.232
29.9024
17.1238
3.48029
-9.43761
-20.2168
-27.7751
-31.4676
-31.1351
-27.0921
-20.0601
-11.0558
-1.25154
8.17374
16.176
21.9622
25.069
25.3966
23.1962
19.0136
13.5995
7.79721
2.42431
-1.83877
-4.53737
-5.49876
-4.84853
-2.98563
-0.519761
1.82061
3.29718
3.2731
1.31155
-2.75195
-8.77393
-16.3093
-24.6597
-32.9576
-40.2758
-45.7468
-48.6777
-48.6431
-45.5459
-39.6349
-31.4791
-21.9001
-11.8729
-2.40658
5.57759
11.3558
14.4846
14.8471
12.6561
8.41561
2.84582
-3.21797
-8.93802
-13.5837
-16.6228
-17.7839
-17.0812
-14.8003
-11.4498
-7.68331
-4.20733
-1.68393
-0.642948
-1.41295
-4.07843
-8.46685
-14.1654
-20.5645
-26.9218
-32.4398
-36.35
-37.9937
-36.895
-32.8168
-25.797
-16.1596
-4.49781
8.36985
21.4691
33.7594
44.2356
52.0312
56.514
57.3608
54.6053
48.6493
40.2361
30.3854
20.2943
11.2147
4.31783
0.561718
0.576523
4.58168
12.3461
23.1981
36.0874
49.693
62.5694
73.3135
80.7332
83.9984
82.7522
77.1666
67.9334
56.1871
43.3685
31.0447
20.7077
13.5791
10.4457
11.5502
16.5511
24.5578
34.2383
43.9844
52.1121
57.0737
57.651
53.1078
43.2809
28.6021
10.047
-10.9774
-32.7929
-53.635
-71.8389
-86.0039
-95.1148
-98.6085
-96.3775
-88.7132
-76.198
-59.5659
-39.5526
-16.7623
8.42401
35.8792
65.6873
98.029
133.011
170.467
209.771
249.701
288.402
323.454
352.067
371.378
378.809
372.438
351.326
315.739
267.23
208.566
143.489
76.3615
11.7131
-46.2239
-93.953
-129.058
-150.415
-158.251
-154.036
-140.243
-119.998
-96.6729
-73.4759
-53.094
-37.4254
-27.4347
-23.1408
-23.7298
-27.7688
-33.4831
-39.0557
-42.9045
-43.9013
-41.5072
-35.8118
-27.4784
-17.6107
-7.56534
1.26001
7.6314
10.6492
9.86382
5.32399
-2.44277
-12.5119
-23.6901
-34.6699
-44.1903
-51.1804
-54.8709
-54.86
-51.1295
-44.0135
-34.126
-22.2619
-9.28531
3.9787
16.8354
28.7847
39.552
49.0861
57.5269
65.1522
72.3118
79.3619
86.6078
94.2635
102.433
111.11
120.202
129.556
138.997
148.357
157.5
166.325
174.76
182.75
190.232
197.115
203.263
208.494
212.585
215.29
216.367
215.603
212.84
207.998
201.077
192.162
181.406
169.015
155.227
140.292
124.462
107.984
91.1053
74.0793
57.1763
40.6905
24.9405
10.2616
-3.01182
-14.5714
-24.164
-31.621
-36.882
-40.0094
-41.1892
-40.7189
-38.9809
-36.4065
-33.4332
-30.4617
-27.8177
-25.7241
-24.285
-23.4858
-23.2066
-23.2471
-23.3598
-23.2856
-22.7882
-21.6828
-19.8564
-17.2781
-13.9999
-10.1489
-5.91321
-1.52389
2.76518
6.69691
10.0294
12.5519
14.0991
14.5616
13.8945
12.1226
9.34083
5.71108
1.45353
-3.16688
-7.85825
-12.3226
-16.2777
-19.4784
-21.7346
-22.924
-22.9995
-21.9882
-19.985
-17.1399
-13.6423
-9.7025
-5.53559
-1.34634
2.68148
6.39219
9.66157
12.3975
14.5384
16.0515
16.9297
17.1894
16.8679
16.0212
14.7214
13.0535
11.1118
8.99637
6.80798
4.644
2.59394
0.735643
-0.867758
-2.17008
-3.14329
-3.7778
-4.08176
-4.07961
-3.80988
-3.32235
-2.67486
-1.92981
-1.15053
-0.397799
0.273509
0.817287
1.19851
1.39478
1.39684
1.20809
0.842778
0.32322
-0.3239
-1.07146
-1.89535
-2.77641
-3.70017
-4.65375
-5.62017
-6.57099
-7.45897
-8.21288
-8.7367
-8.91502
-8.62561
-7.7586
-6.24017
-4.05735
-1.27895
1.93248
5.32208
8.56027
11.2763
13.1046
13.7373
12.9751
10.7678
7.23589
2.66961
-2.49754
-7.73699
-12.4894
-16.2359
-18.5656
-19.2306
-18.1791
-15.5629
-11.718
-7.11969
-2.32114
2.11878
5.70662
8.07583
9.03022
8.56418
6.85757
4.24657
1.17489
-1.86807
-4.41351
-6.07586
-6.60343
-5.91115
-4.09114
-1.39999
1.77583
4.97211
7.7101
9.56265
10.2145
9.50893
7.47348
4.32216
0.43248
-3.69957
-7.52075
-10.4903
-12.1485
-12.1758
-10.432
-6.97267
-2.03705
3.98847
10.6275
17.3814
23.7975
29.5252
34.3513
38.2092
41.1597
43.3488
44.9521
46.1164
46.911
47.3009
47.1452
46.2242
44.2894
41.1267
36.6205
30.8046
23.8884
16.2505
8.39838
0.899285
-5.70623
-10.9924
-14.7209
-16.8833
-17.7031
-17.5942
-17.0817
-16.6983
-16.8745
-17.8441
-19.5841
-21.8028
-23.9796
-25.4528
-25.5382
-23.6561
-19.442
-12.8152
-3.98796
6.59003
18.3452
30.7301
43.3785
56.2283
69.5789
84.0586
100.497
119.712
142.248
168.116
196.577
226.039
254.095
277.711
293.565
298.488
289.947
266.492
228.101
176.341
114.337
46.5081
-21.8749
-85.2688
-138.493
-177.332
-199.03
-202.603
-188.938
-160.664
-121.812
-77.3222
-32.4509
7.83244
39.3952
59.3651
66.3844
60.6705
43.8867
18.8476
-10.8938
-41.5202
-69.4239
-91.6232
-106.073
-111.84
-109.13
-99.1718
-83.985
-66.0623
-48.0158
-32.2296
-20.5622
-14.1327
-13.2142
-17.24
-24.9196
-34.4415
-43.7363
-50.7618
-53.774
-51.5504
-43.5377
-29.9099
-11.5312
10.1672
33.3786
56.1531
76.641
93.3161
105.151
111.725
113.253
110.532
104.825
97.6827
90.7503
85.5629
83.3725
85.0198
90.8642
100.78
114.21
130.267
147.863
165.847
183.134
198.797
212.135
222.685
230.21
234.649
236.054
234.536
230.211
223.175
213.503
201.268
186.582
169.628
150.704
130.241
108.799
87.0445
65.7056
45.506
27.0966
10.9892
-2.49665
-13.2634
-21.4385
-27.3472
-31.4607
-34.3244
-36.4777
-38.3768
-40.3316
-42.4677
-44.7183
-46.8491
-48.5125
-49.3233
-48.9432
-47.1618
-43.9588
-39.5362
-34.313
-28.8806
-23.9233
-20.1158
-18.014
-17.9558
-19.991
-23.8523
-28.9743
-34.5606
-39.6888
-43.4393
-45.0285
-43.9263
-39.9394
-33.2476
-24.3875
-14.1841
-3.64311
6.18314
14.3336
20.0614
22.924
22.8281
20.0252
15.0604
8.68387
1.73984
-4.94855
-10.6827
-14.9653
-17.5408
-18.3981
-17.7361
-15.9039
-13.3248
-10.42
-7.54288
-4.93515
-2.70938
-0.859645
0.704418
2.10796
3.45646
4.78786
6.0412
7.04874
7.55417
7.25457
5.85951
3.15714
-0.92457
-6.27289
-12.571
-19.3096
-25.8299
-31.3933
-35.2695
-36.831
-35.6416
-31.5281
-24.6249
-15.3866
-4.56654
6.83891
17.6758
26.7418
32.9113
35.2639
33.2049
26.5609
15.6361
1.21818
-15.474
-32.8998
-49.354
-63.1539
-72.8349
-77.3282
-76.096
-69.2078
-57.3444
-41.729
-23.996
-6.00999
10.3384
23.3395
31.6483
34.4269
31.4304
23.0287
10.1628
-5.75881
-23.013
-39.746
-54.1704
-64.7531
-70.3741
-70.4387
-64.933
-54.4154
-39.947
-22.9694
-5.14459
11.8262
26.3823
37.2633
43.6311
45.1418
41.9605
34.7194
24.4255
12.3308
-0.219634
-11.9422
-21.7548
-28.886
-32.9417
-33.923
-32.1953
-28.4145
-23.4212
-18.1188
-13.3499
-9.78982
-7.86778
-7.72645
-9.22169
-11.9607
-15.3714
-18.7905
-21.5595
-23.1132
-23.0509
-21.1812
-17.5371
-12.3608
-6.0622
0.841035
7.7935
14.2719
19.8454
24.2204
27.2626
28.9985
29.5942
29.3191
28.4985
27.4634
26.5045
25.8354
25.5691
25.7111
26.1663
26.7603
27.2685
27.4524
27.0955
26.0362
24.1937
21.5841
18.3234
14.6189
10.7464
7.01746
3.73928
1.17175
-0.511656
-1.25362
-1.12814
-0.337356
0.810825
1.94312
2.67508
2.67343
1.71962
-0.231917
-3.00643
-6.17653
-9.04759
-10.6637
-9.83827
-5.21525
4.63149
21.0549
45.1482
77.525
118.093
165.857
218.798
273.873
327.166
374.196
410.37
431.508
434.398
417.269
380.125
324.866
255.181
176.216
94.0448
15.0347
-54.8351
-110.599
-148.805
-167.832
-167.985
-151.375
-121.602
-83.2865
-41.52
-1.29123
33.0342
58.1311
71.9873
74.0105
64.9701
46.7935
22.2508
-5.42808
-32.954
-57.3529
-76.2712
-88.1861
-92.5028
-89.5381
-80.3994
-66.7824
-50.7153
-34.2824
-19.3635
-7.41572
0.674575
4.65815
4.90183
2.28804
-1.94839
-6.42164
-9.80577
-11.0264
-9.408
-4.75803
2.61998
11.9845
22.2738
32.266
40.7594
46.7489
49.579
49.0555
45.5033
39.7641
33.1314
27.2268
23.8259
24.6524
31.1595
44.3274
64.5012
91.2953
123.58
159.555
196.914
233.064
265.4
291.575
309.749
318.785
318.356
308.966
291.868
268.91
242.304
214.369
187.275
162.807
142.202
126.048
114.281
106.259
100.904
96.8954
92.8736
87.6343
80.286
70.3498
57.7924
42.9946
26.6635
9.70739
-6.90656
-22.2881
-35.736
-46.8109
-55.3645
-61.5221
-65.6286
-68.1659
-69.6593
-70.5848
-71.2931
-71.9602
-72.5703
-72.9322
-72.7245
-71.5625
-69.0743
-64.975
-59.1272
-51.581
-42.5853
-32.5737
-22.1234
-11.8979
-2.57823
5.20588
10.937
14.2566
14.9918
13.1629
8.97117
2.77223
-4.95944
-13.6703
-22.766
-31.646
-39.732
-46.4922
-51.461
-54.2572
-54.6014
-52.3329
-47.4238
-39.9909
-30.3003
-18.7635
-5.92308
7.57248
21.005
33.6311
44.7311
53.6587
59.8843
63.0291
62.8847
59.4188
52.7685
43.2261
31.2226
17.315
2.17859
-13.3952
-28.5031
-42.1423
-53.2431
-60.7282
-63.6028
-61.0715
-52.6695
-38.3879
-18.7687
5.0546
31.3889
58.0947
82.7734
103.01
116.644
122.023
118.212
105.127
83.5612
55.1105
22.0054
-13.1327
-47.5712
-78.7475
-104.512
-123.308
-134.257
-137.174
-132.482
-121.094
-104.246
-83.3476
-59.8392
-35.0988
-10.3833
13.1919
34.6483
53.1318
67.904
78.3504
84.0081
84.6106
80.142
70.8852
57.4531
40.7863
22.1124
2.86354
-15.4409
-31.3351
-43.5521
-51.1564
-53.6429
-50.9912
-43.6649
-32.5561
-18.8836
-4.05483
10.4872
23.4162
33.6539
40.4667
43.5171
42.8681
38.9408
32.436
24.2293
15.2563
6.40154
-1.59638
-8.21216
-13.1689
-16.439
-18.2148
-18.8532
-18.8056
-18.5398
-18.4639
-18.8614
-19.8423
-21.3174
-22.9985
-24.4263
-25.024
-24.1727
-21.3017
-15.9839
-8.02473
2.46712
15.0401
28.9018
42.9675
55.9574
66.5324
73.4567
75.7641
72.9086
64.8745
52.23
36.1112
18.1343
0.241478
-15.5052
-27.1581
-33.1195
-32.3498
-24.5189
-10.0825
9.73163
33.0279
57.4295
80.3278
99.1678
111.737
116.423
112.411
99.7934
79.5749
53.5749
24.2328
-5.66091
-33.2743
-56.0491
-71.9815
-79.8362
-79.268
-70.8391
-55.9315
-36.5681
-15.1676
5.73941
23.7967
37.0828
44.3176
44.9994
39.462
28.8516
15.0287
0.405556
-12.2686
-20.1609
-20.631
-11.5145
8.60676
40.1684
82.4485
133.483
190.098
248.079
302.49
348.119
380.022
394.11
387.687
359.884
311.888
246.944
170.085
87.628
6.49349
-66.5772
-125.788
-166.94
-187.882
-188.696
-171.6
-140.587
-100.86
-58.136
-17.9296
15.0979
37.6381
48.0277
46.3092
34.0675
14.0806
-10.1569
-34.9637
-56.9806
-73.5914
-83.205
-85.3714
-80.7277
-70.7957
-57.6712
-43.6567
-30.8958
-21.0604
-15.1344
-13.3165
-15.052
-19.1787
-24.1587
-28.3566
-30.3187
-29.0098
-23.9733
-15.3945
-4.05976
8.77582
21.5916
32.8409
41.1914
45.7319
46.1146
42.6169
36.114
27.9685
19.8545
13.5401
10.658
12.4947
19.8248
32.811
50.9805
73.2818
98.2103
123.989
148.78
170.901
189.018
202.296
210.484
213.922
213.479
210.414
206.187
202.242
199.782
199.582
201.852
206.175
211.542
216.461
219.143
217.742
210.606
196.525
174.939
146.077
111.006
71.5902
30.3357
-9.85342
-45.9883
-75.3443
-95.7966
-106.099
-106.059
-96.5875
-79.6003
-57.7954
-34.3224
-12.3964
5.09499
15.9371
18.8403
13.569
0.931397
-17.3608
-38.9417
-61.111
-81.1792
-96.7928
-106.198
-108.414
-103.299
-91.5109
-74.3702
-53.6617
-31.3941
-9.56003
10.0757
26.136
37.7261
44.4596
46.426
44.1126
38.3023
29.9639
20.1502
9.91348
0.239689
-7.99915
-14.0806
-17.4612
-17.803
-14.9996
-9.1976
-0.807932
9.50107
20.8359
32.1397
42.283
50.176
54.8921
55.7842
52.5784
45.4279
34.9169
22.0094
7.94643
-5.89638
-18.1737
-27.7364
-33.775
-35.9229
-34.3013
-29.5016
-22.5045
-14.5462
-6.94923
-0.940145
2.51968
2.86709
0.0142385
-5.64147
-13.2766
-21.7617
-29.8262
-36.2425
-40.0053
-40.4775
-37.4826
-31.3295
-22.7666
-12.872
-2.89699
5.91282
12.4932
16.1065
16.436
13.616
8.19475
1.03821
-6.81022
-14.2894
-20.4755
-24.7072
-26.6648
-26.3912
-24.2555
-20.8674
-16.9595
-13.2568
-10.3576
-8.6431
-8.23147
-8.98066
-10.5383
-12.4266
-14.1462
-15.277
-15.5586
-14.9346
-13.5522
-11.72
-9.83188
-8.27233
-7.32375
-7.09272
-7.47117
-8.14029
-8.61733
-8.33757
-6.75681
-3.45636
1.76851
8.85236
17.4466
26.9525
36.5964
45.5345
52.9717
58.2744
61.0599
61.2486
59.0707
55.0271
49.8107
44.201
38.9478
34.6612
31.7244
30.2427
30.0344
30.6668
31.529
31.9325
31.2236
28.8908
24.6508
18.5019
10.7351
1.90307
-7.24915
-15.8822
-23.1742
-28.4325
-31.1879
-31.2616
-28.7941
-24.2325
-18.2801
-11.8122
-5.77102
-1.0517
1.60817
1.72278
-0.871218
-5.97264
-13.0028
-21.0208
-28.7636
-34.7119
-37.1802
-34.4369
-24.8559
-7.10048
19.6672
55.5709
99.8277
150.619
205.066
259.344
308.955
349.145
375.433
384.18
373.12
341.76
291.585
226.011
150.09
69.9891
-7.69032
-76.65
-131.602
-168.844
-186.627
-185.28
-167.076
-135.872
-96.5715
-54.5037
-14.7821
18.263
41.518
53.3417
53.6249
43.6637
25.8762
3.41128
-20.2941
-41.9519
-58.8027
-68.899
-71.2682
-65.9483
-53.9029
-36.8387
-16.9522
3.35577
21.7671
36.2995
45.5029
48.5832
45.4447
36.656
23.347
7.05575
-10.4563
-27.3985
-42.1333
-53.3289
-60.0685
-61.9083
-58.8824
-51.4578
-40.4483
-26.899
-11.9544
3.27501
17.8341
31.0199
42.4445
52.0587
60.1339
67.2066
73.9915
81.2754
89.8037
100.174
112.747
127.594
144.469
162.834
181.905
200.739
218.331
233.72
246.086
254.822
259.586
260.319
257.225
250.73
241.419
229.959
217.016
203.186
188.939
174.577
160.231
145.873
131.359
116.488
101.073
85.0031
68.3091
51.194
34.044
17.4058
1.93482
-11.6795
-22.8038
-30.951
-35.8598
-37.55
-36.343
-32.8446
-27.8883
-22.446
-17.5162
-14.004
-12.6084
-13.7319
-17.4262
-23.3806
-30.9583
-39.2755
-47.315
-54.0584
-58.6202
-60.3645
-58.9892
-54.5649
-47.5236
-38.5994
-28.728
-18.9217
-10.1363
-3.15146
1.51996
3.6798
3.44578
1.20891
-2.44249
-6.81723
-11.2177
-15.0235
-17.7512
-19.0851
-18.8806
-17.144
-14.0016
-9.6651
-4.40408
1.47216
7.62273
13.6787
19.249
23.9341
27.3523
29.1776
29.1853
27.2967
23.6148
18.4404
12.2614
5.71381
-0.485282
-5.62267
-9.08148
-10.4263
-9.46763
-6.29547
-1.27586
4.98902
11.7322
18.1143
23.3249
26.6779
27.6904
26.1338
22.0524
15.7485
7.73678
-1.32327
-10.709
-19.7171
-27.7367
-34.3042
-39.134
-42.1223
-43.3284
-42.9367
-41.2094
-38.4386
-34.9044
-30.8479
-26.4582
-21.8763
-17.2094
-12.5508
-7.99889
-3.67012
0.297079
3.74848
6.52809
8.49708
9.5534
9.6485
8.79828
7.08675
4.66228
1.72743
-1.47601
-4.68479
-7.63293
-10.07
-11.7778
-12.5852
-12.3799
-11.1179
-8.828
-5.6133
-1.64595
2.84315
7.58082
12.2729
16.6285
20.3849
23.3298
25.3176
26.2786
26.2183
25.2083
23.3704
20.8554
17.8214
14.4142
10.7536
6.92901
3.00503
-0.961847
-4.89849
-8.68639
-12.1353
-14.9664
-16.8106
-17.2277
-15.7471
-11.9284
-5.43594
3.88299
15.9278
30.2965
46.2702
62.84
78.7768
92.7399
103.415
109.661
110.657
106.013
95.8428
80.7783
61.9252
40.7591
18.978
-1.67472
-19.5926
-33.4749
-42.46
-46.2086
-44.9279
-39.3331
-30.5515
-19.9825
-9.12869
0.579724
7.94581
12.134
12.75
9.86673
3.99491
-3.99048
-12.9548
-21.6201
-28.6761
-32.8723
-33.0852
-28.3655
-17.9724
-1.41312
21.5055
50.6059
85.2583
124.308
166.039
208.195
248.093
282.814
309.472
325.528
329.097
319.206
295.961
260.59
215.351
163.32
108.089
53.4023
2.79784
-40.722
-74.9391
-98.5717
-111.318
-113.793
-107.385
-94.0401
-76.0224
-55.6657
-35.1519
-16.3322
-0.60683
11.1339
18.5084
21.5931
20.8336
16.9346
10.7431
3.13853
-5.06021
-13.1626
-20.6472
-27.1758
-32.583
-36.8483
-40.0567
-42.3538
-43.9037
-44.8533
-45.3076
-45.3167
-44.8758
-43.9349
-42.4152
-40.2302
-37.3057
-33.5965
-29.098
-23.8506
-17.9373
-11.4757
-4.60576
2.52412
9.77115
17.0104
24.1442
31.1092
37.8812
44.4787
50.9667
57.4601
64.1267
71.1873
78.9105
87.6002
97.5735
109.128
122.5
137.822
155.074
174.05
194.334
215.307
236.161
255.956
273.68
288.329
298.989
304.912
305.573
300.709
290.335
274.736
254.443
230.191
202.878
173.509
143.151
112.881
83.7347
56.6605
32.4735
11.8129
-4.89374
-17.4559
-25.931
-30.6183
-32.0327
-30.8596
-27.8929
-23.9622
-19.857
-16.2551
-13.665
-12.3887
-12.5089
-13.9024
-16.2769
-19.2268
-22.2988
-25.0595
-27.1549
-28.354
-28.5706
-27.8627
-26.4084
-24.4667
-22.3272
-20.2599
-18.4725
-17.0804
-16.0956
-15.4338
-14.9369
-14.4075
-13.6477
-12.4956
-10.8527
-8.69849
-6.09089
-3.15349
-0.0543233
3.01882
5.88109
8.36773
10.3439
11.7077
12.3894
12.3493
11.578
10.1018
7.99148
5.37353
2.43809
-0.561388
-3.32151
-5.51718
-6.84296
-7.06161
-6.05098
-3.83912
-0.618385
3.26752
7.36457
11.1731
14.226
16.1671
16.8148
16.197
14.551
12.2845
9.90551
7.93259
7.93259
7.93259
7.93259
7.93259
7.93259
7.93259
7.93259
7.93259
7.93259
7.93259
7.93259
7.93259
7.93259
7.93259
7.93259
7.93259
7.93259
7.93259
7.93259
