30.8248
23.5536
15.846
8.10477
0.791974
-5.61458
-10.6707
-14.0146
-15.4088
-14.7693
-12.179
-7.88235
-2.26371
4.18954
10.9334
17.4185
23.1395
27.6787
30.7383
32.1595
31.9275
30.1617
27.0952
23.0435
18.3698
13.4466
8.621
4.18442
0.350462
-2.75763
-5.10942
-6.76002
-7.83433
-8.50515
-8.96767
-9.41326
-10.0055
-10.8606
-12.0349
-13.5191
-15.2414
-17.0771
-18.8638
-20.4196
-21.5604
-22.1129
-21.9183
-20.8237
-18.6589
-15.2015
-10.1354
-3.01258
6.76825
19.9516
37.3731
59.8587
88.0796
122.374
162.565
207.793
256.416
305.991
353.372
394.919
426.818
445.485
447.987
432.443
398.345
346.734
280.213
202.774
119.455
35.8704
-42.3406
-110.076
-163.271
-199.283
-217.111
-217.431
-202.445
-175.575
-141.03
-103.325
-66.7835
-35.1058
-11.0347
3.84481
9.15899
5.65747
-4.9941
-20.5063
-38.3011
-55.8461
-70.9485
-81.978
-87.997
-88.7944
-84.8265
-77.0818
-66.8954
-55.739
-45.0164
-35.8883
-29.1457
-25.1432
-23.7946
-24.6247
-26.8674
-29.5907
-31.834
-32.7357
-31.6395
-28.166
-22.2434
-14.0991
-4.21361
6.75219
18.0467
28.9212
38.7163
46.9309
53.2674
57.6493
60.2134
61.2771
61.2899
60.7745
60.2657
60.254
61.1402
63.2043
66.5905
71.3076
77.244
84.1921
91.8794
100.001
108.251
116.347
124.051
131.171
137.569
143.146
147.828
151.546
154.22
155.736
155.948
154.672
151.707
146.852
139.946
130.9
119.735
106.61
91.8357
75.8725
59.3069
42.8101
27.0798
12.7747
0.44747
-9.51321
-16.9239
-21.825
-24.4734
-25.3099
-24.9057
-23.8947
-22.9009
-22.4687
-23.0072
-24.7524
-27.7528
-31.8778
-36.8479
-42.2795
-47.7403
-52.8059
-57.1107
-60.3882
-62.4956
-63.4216
-63.2771
-62.2719
-60.6818
-58.81
-56.9493
-55.3479
-54.1855
-53.5577
-53.4738
-53.864
-54.5959
-55.4964
-56.3767
-57.0564
-57.3838
-57.2516
-56.6046
-55.441
-53.8067
-51.7845
-49.4795
-47.0033
-44.4581
-41.9236
-39.4473
-37.0406
-34.6798
-32.3127
-29.8707
-27.2828
-24.491
-21.4647
-18.2106
-14.7781
-11.2579
-7.77422
-4.47244
-1.50239
0.999243
2.92544
4.212
4.84549
4.86517
4.35853
3.45134
2.29356
1.04299
-0.151262
-1.16333
-1.90171
-2.31552
-2.39574
-2.17127
-1.70087
-1.06214
-0.339155
0.389554
1.06118
1.63567
2.099
2.46227
2.75725
3.02905
3.32723
3.69673
4.17004
4.76176
5.46623
6.25855
7.0987
7.93806
8.72721
9.42374
9.9991
10.4431
10.766
10.997
11.181
11.3726
11.6294
12.0052
12.5445
13.2784
14.2221
15.3752
16.7224
18.2359
19.878
21.6024
23.3561
25.0796
26.7072
28.1665
29.3791
30.2619
30.7294
30.6983
30.0915
28.8432
26.9032
24.2396
20.84
16.7096
11.869
6.34999
0.191958
-6.56102
-13.8606
-21.6517
-29.8676
-38.4208
-47.1934
-56.0266
-64.7112
-72.9834
-80.5263
-86.9796
-91.9597
-95.0887
-96.0313
-94.5356
-90.4732
-83.8717
-74.9351
-64.0464
-51.7504
-38.7165
-25.685
-13.4024
-2.55302
6.30498
12.7905
16.7324
18.1793
17.386
14.7785
10.9024
6.36036
1.74873
-2.40169
-5.67182
-7.78349
-8.60911
-8.16212
-6.5712
-4.04321
-0.820745
2.85921
6.80012
10.8698
15.0111
19.2385
23.6223
28.2639
33.2658
38.7009
44.5868
50.8677
57.4071
63.9913
70.3442
76.1506
81.0857
84.8468
87.1845
87.9288
87.0083
84.4591
80.4245
75.1424
68.9248
62.1303
55.1316
48.2833
41.8925
36.1947
31.338
27.3764
24.2726
21.9099
20.1102
18.6578
17.3243
15.8932
14.1817
12.0566
9.445
6.33736
2.78356
-1.11674
-5.22871
-9.39993
-13.4783
-17.3277
-20.8373
-23.9228
-26.5153
-28.5373
-29.8663
-30.2895
-29.4566
-26.8403
-21.716
-13.1734
-0.169982
18.3688
43.4044
75.6055
115.153
161.557
213.52
268.871
324.605
377.037
422.078
455.599
473.864
473.978
454.274
414.618
356.54
283.203
199.171
110.016
21.7997
-59.5228
-128.68
-181.597
-215.77
-230.465
-226.716
-207.136
-175.559
-136.574
-94.9977
-55.3601
-21.4581
3.97801
19.4707
24.8254
21.014
9.93559
-5.90449
-23.7546
-40.9681
-55.3058
-65.1582
-69.6681
-68.7491
-63.0082
-53.5902
-41.9734
-29.744
-18.3819
-9.08226
-2.63174
0.649378
0.900066
-1.34687
-5.2737
-9.91174
-14.2805
-17.5134
-18.9563
-18.2271
-15.2364
-10.1665
-3.42045
4.45282
12.843
21.1614
28.9127
35.7466
41.4857
46.1288
49.8314
52.8678
55.5833
58.3405
61.4702
65.2299
69.776
75.1506
81.2836
88.0086
95.0883
102.247
109.202
115.697
121.527
126.549
130.69
133.941
136.336
137.931
138.775
138.88
138.201
136.626
133.975
130.022
124.531
117.293
108.182
97.1967
84.4927
70.4006
55.4158
40.1675
25.3665
11.738
-0.0526016
-9.46945
-16.1654
-20.0205
-21.1566
-19.9243
-16.8667
-12.6609
-8.04748
-3.75382
-0.421994
1.45193
1.56018
-0.196777
-3.71375
-8.7063
-14.7539
-21.3552
-27.9874
-34.1644
-39.4855
-43.6706
-46.5793
-48.2125
-48.6976
-48.2619
-47.196
-45.8149
-44.4199
-43.2661
-42.5388
-42.3409
-42.6907
-43.5298
-44.7397
-46.1618
-47.6207
-48.9456
-49.9883
-50.6357
-50.8167
-50.5026
-49.7026
-48.4553
-46.8188
-44.8596
-42.6437
-40.2294
-37.6632
-34.9788
-32.199
-29.3388
-26.4106
-23.4288
-20.4141
-17.397
-14.4182
-11.5287
-8.78708
-6.25489
-3.99193
-2.05029
-0.469081
0.730014
1.54552
1.99707
2.12416
1.98292
1.64125
1.1729
0.651054
0.142277
-0.298638
-0.632363
-0.836942
-0.907817
-0.856088
-0.705319
-0.487354
-0.237698
0.0090065
0.222893
0.381793
0.47294
0.493369
0.449123
0.353465
0.224423
0.0820469
-0.0542868
-0.168171
-0.247832
-0.286999
-0.284923
-0.245606
-0.176399
-0.0862292
0.0162267
0.124083
0.233213
0.342447
0.452939
0.56682
0.685391
0.807265
0.926885
1.03386
1.11342
1.14801
1.11998
1.01484
0.824514
0.55005
0.203058
-0.194375
-0.611455
-1.01195
-1.35846
-1.61716
-1.76217
-1.77902
-1.66661
-1.43748
-1.11631
-0.736828
-0.33777
0.0417798
0.366858
0.610425
0.756028
0.799057
0.746525
0.615487
0.430358
0.219514
0.0116131
-0.167891
-0.299619
-0.37218
-0.382935
-0.337569
-0.248617
-0.1332
-0.010345
0.101731
0.187985
0.238292
0.248364
0.219808
0.159389
0.0776618
-0.0127777
-0.0991549
-0.170235
-0.217673
-0.236833
-0.226987
-0.190843
-0.133436
-0.0604494
0.0239084
0.119259
0.231415
0.374447
0.57218
0.858841
1.27866
1.88429
2.73398
3.88766
5.40196
7.32461
9.68859
12.5066
15.7668
19.43
23.4294
27.6734
32.0512
36.4399
40.7146
44.758
48.4694
51.7714
54.614
56.9742
58.853
60.2681
61.2461
61.8131
61.9866
61.7705
61.1528
60.1073
58.599
56.5925
54.0609
50.9954
47.4129
43.36
38.9139
34.1793
29.2813
24.3558
19.5386
14.9544
10.7064
6.86886
3.4823
0.55188
-1.95023
-4.07966
-5.91191
-7.53266
-9.02718
-10.4698
-11.9139
-13.3841
-14.868
-16.3103
-17.6047
-18.5842
-19.0064
-18.5353
-16.7198
-12.9731
-6.56219
3.38483
17.8402
37.7983
64.1515
97.523
138.069
185.278
237.797
293.332
348.66
399.774
442.183
471.332
483.125
474.459
443.71
391.096
318.833
231.067
133.561
33.1664
-62.8511
-147.567
-215.117
-261.312
-284.045
-283.465
-261.892
-223.482
-173.7
-118.677
-64.5113
-16.6303
20.7428
44.9421
55.0113
51.6485
36.9677
14.1178
-13.1822
-41.131
-66.2944
-85.9674
-98.4138
-102.965
-99.9835
-90.6994
-76.9661
-60.9587
-44.8672
-30.6176
-19.6552
-12.8106
-10.2555
-11.5477
-15.7479
-21.5885
-27.6672
-32.6371
-35.3714
-35.0816
-31.3812
-24.2905
-14.1893
-1.72828
12.2831
26.9964
41.6336
55.5733
68.4052
79.9485
90.2382
99.4824
108.003
116.167
124.319
132.731
141.557
150.82
160.412
170.118
179.644
188.665
196.865
203.975
209.804
214.249
217.301
219.03
219.564
219.056
217.658
215.489
212.61
209.016
204.63
199.311
192.871
185.103
175.809
164.833
152.1
137.64
121.614
104.319
86.1872
67.7597
49.6531
32.5091
16.9375
3.46056
-7.53801
-15.8499
-21.4617
-24.5542
-25.4808
-24.7284
-22.8659
-20.485
-18.1423
-16.3078
-15.3261
-15.3943
-16.5563
-18.7162
-21.664
-25.1133
-28.7434
-32.2405
-35.3352
-37.8296
-39.6142
-40.6715
-41.0686
-40.9403
-40.4648
-39.8376
-39.2447
-38.8399
-38.7276
-38.9534
-39.5018
-40.3019
-41.2379
-42.1652
-42.9279
-43.3761
-43.3825
-42.8547
-41.7435
-40.0459
-37.8028
-35.0923
-32.0185
-28.6986
-25.2498
-21.776
-18.3589
-15.0514
-11.8767
-8.83067
-5.88857
-3.01379
-0.167897
2.67984
5.54482
8.42226
11.286
14.0908
16.7779
19.2824
21.5425
23.5073
25.1442
26.4424
27.4141
28.0916
28.5216
28.757
28.8482
28.834
28.735
28.5492
28.2516
27.7977
27.1301
26.1878
24.9173
23.2825
21.2736
18.9125
16.2544
13.3845
10.4117
7.45798
4.64666
2.09016
-0.121274
-1.92822
-3.30724
-4.27202
-4.87061
-5.17888
-5.29141
-5.31062
-5.33548
-5.4512
-5.72089
-6.18016
-6.8353
-7.665
-8.62556
-9.65864
-10.7007
-11.6924
-12.5873
-13.357
-13.994
-14.5091
-14.9263
-15.275
-15.5807
-15.8567
-16.0978
-16.2783
-16.3525
-16.2608
-15.9379
-15.3236
-14.3737
-13.0694
-11.4243
-9.48764
-7.34231
-5.09952
-2.88891
-0.846215
0.90045
2.244
3.10993
3.46458
3.31916
2.72893
1.78752
0.617201
-0.644084
-1.85715
-2.89594
-3.66008
-4.08419
-4.14304
-3.85189
-3.26241
-2.45456
-1.5259
-0.57946
0.288139
0.997024
1.49168
1.74516
1.7597
1.56388
1.20722
0.753103
0.271365
-0.168213
-0.500507
-0.667007
-0.615035
-0.294677
0.345479
1.3623
2.82013
4.78967
7.34279
10.5437
14.4371
19.0358
24.309
30.1742
36.4942
43.0804
49.7022
56.1027
62.0166
67.1922
71.4101
74.5011
76.3576
76.9405
76.2788
74.4643
71.6406
67.9893
63.7137
59.0225
54.1152
49.1688
44.3292
39.7052
35.3669
31.3483
27.6513
24.2539
21.1182
18.1993
15.4538
12.8463
10.3542
7.97001
5.70092
3.5659
1.59079
-0.197904
-1.77944
-3.14374
-4.29285
-5.23695
-5.9826
-6.51191
-6.75174
-6.53428
-5.55218
-3.3148
0.884636
7.97806
19.0935
35.4747
58.3411
88.6897
127.053
173.247
226.139
283.509
342.03
397.413
444.73
478.891
495.23
490.124
461.55
409.502
336.185
245.945
144.921
40.4727
-59.5797
-147.776
-217.813
-265.209
-287.749
-285.662
-261.516
-219.843
-166.564
-108.274
-51.4931
-1.96789
35.891
59.3832
67.6689
61.6933
43.9132
17.8716
-12.3154
-42.4917
-68.9497
-88.8189
-100.319
-102.857
-96.9787
-84.1785
-66.6248
-46.8237
-27.2785
-10.1819
2.82254
10.7875
13.5094
11.4795
5.7534
-2.23473
-10.8875
-18.6577
-24.2348
-26.6839
-25.525
-20.7486
-12.7724
-2.34991
9.55251
21.8928
33.6852
44.113
52.608
58.8923
62.9797
65.1415
65.8438
65.6679
65.2246
65.0754
65.6678
67.2932
70.0689
73.945
78.7304
84.1351
89.8184
95.4384
100.695
105.361
109.299
112.467
114.898
116.682
117.926
118.724
119.123
119.094
118.525
117.221
114.926
111.357
106.249
99.4042
90.7408
80.3261
68.397
55.3571
41.7502
28.2142
15.4185
3.99285
-5.54197
-12.8333
-17.7374
-20.3362
-20.9272
-19.9887
-18.124
-15.9921
-14.2346
-13.4062
-13.9191
-16.0054
-19.703
-24.8638
-31.1833
-38.2457
-45.5784
-52.7089
-59.2178
-64.7809
-69.1969
-72.3986
-74.4474
-75.5135
-75.8439
-75.7246
-75.4407
-75.2391
-75.2992
-75.7131
-76.4788
-77.5045
-78.625
-79.6259
-80.2733
-80.3454
-79.6605
-78.1001
-75.6234
-72.2711
-68.16
-63.4679
-58.4113
-53.2199
-48.11
-43.2609
-38.7974
-34.7805
-31.2073
-28.0191
-25.1178
-22.3863
-19.7105
-17.0002
-14.2039
-11.3184
-8.38941
-5.50468
-2.78104
-0.346912
1.67654
3.19314
4.14563
4.5242
4.36851
3.76327
2.82821
1.70414
0.536937
-0.538257
-1.41075
-2.00429
-2.28239
-2.24873
-1.94283
-1.43198
-0.800636
-0.138757
0.469436
0.954961
1.27086
1.39567
1.3335
1.11097
0.771686
0.369229
-0.0404594
-0.406183
-0.68733
-0.857823
-0.907869
-0.843527
-0.684349
-0.459588
-0.203582
0.049019
0.26758
0.428868
0.519164
0.53498
0.482423
0.375429
0.233211
0.0773131
-0.0713176
-0.194858
-0.280469
-0.321304
-0.316653
-0.271301
-0.194316
-0.0974878
0.00631252
0.104676
0.18694
0.245124
0.274496
0.273745
0.244813
0.192424
0.12338
0.0457125
-0.032228
-0.102654
-0.159105
-0.197028
-0.214114
-0.210389
-0.18803
-0.150978
-0.104374
-0.0539066
-0.00515046
0.037037
0.0689867
0.0885173
0.0950397
0.0894705
0.0739802
0.0516191
0.0258769
0.000232976
-0.0222485
-0.0392331
-0.0493137
-0.052076
-0.0480396
-0.0384924
-0.0252496
-0.0103749
0.00409936
0.0164191
0.0252995
0.0300601
0.0307355
0.0282358
0.0246629
0.0238856
0.0324242
0.0605993
0.123789
0.243547
0.448323
0.773537
1.26089
1.9569
2.91064
4.17093
5.78293
7.7844
10.2017
13.0457
16.3082
19.9591
23.9447
28.188
32.5912
37.0405
41.4133
45.5866
49.4462
52.8956
55.8618
58.2996
60.1907
61.5397
62.3671
62.6994
62.5595
61.958
60.8887
59.3266
57.2327
54.5621
51.2763
47.3567
42.8183
37.7196
32.1678
26.3179
20.364
14.5251
9.02519
4.07148
-0.167167
-3.57841
-6.11849
-7.81641
-8.76942
-9.13023
-9.0874
-8.84158
-8.58033
-8.45494
-8.56163
-8.92889
-9.5111
-10.1866
-10.7571
-10.944
-10.3779
-8.58083
-4.94337
1.29512
11.0499
25.3621
45.3229
71.9401
105.949
147.583
196.336
250.765
308.377
365.654
418.243
461.308
490.031
500.184
488.716
454.249
397.413
320.956
229.589
129.591
28.1985
-67.135
-149.52
-213.35
-254.876
-272.553
-267.131
-241.483
-200.198
-149.001
-94.0733
-41.362
4.03447
38.3444
59.4114
66.7753
61.5512
46.1379
23.8043
-1.78562
-27.0476
-48.8937
-65.0467
-74.223
-76.1747
-71.5998
-61.9428
-49.1237
-35.2344
-22.2449
-11.7552
-4.82028
-1.86307
-2.67721
-6.51134
-12.2154
-18.4243
-23.7523
-26.9723
-27.1598
-23.7859
-16.7545
-6.38401
6.65932
21.4629
36.989
52.1991
66.1671
78.1684
87.7373
94.6902
99.1136
101.324
101.806
101.138
99.9165
98.6886
97.8951
97.8359
98.6548
100.345
102.774
105.716
108.896
112.035
114.886
117.266
119.067
120.257
120.872
120.979
120.655
119.941
118.822
117.2
114.9
111.682
107.276
101.427
93.9467
84.7644
73.9631
61.7987
48.6949
35.2134
22.0023
9.72933
-0.992947
-9.67687
-16.0167
-19.9242
-21.5367
-21.1989
-19.4184
-16.8031
-13.9885
-11.5644
-10.0103
-9.6486
-10.6187
-12.8756
-16.2108
-20.2921
-24.7146
-29.0576
-32.937
-36.0502
-38.2052
-39.3335
-39.4867
-38.8176
-37.5503
-35.9452
-34.262
-32.7274
-31.5108
-30.7095
-30.3453
-30.3717
-30.6886
-31.1623
-31.6478
-32.0095
-32.1379
-31.9602
-31.4451
-30.6005
-29.4662
-28.1037
-26.5833
-24.9732
-23.3293
-21.6898
-20.0724
-18.4762
-16.8864
-15.2808
-13.6376
-11.9426
-10.1947
-8.40921
-6.61842
-4.869
-3.21733
-1.72304
-0.441762
0.581728
1.3192
1.76264
1.92554
1.84156
1.56098
1.14528
0.660693
0.171476
-0.266218
-0.609224
-0.830494
-0.920214
-0.884933
-0.744946
-0.530397
-0.276641
-0.0194883
0.209118
0.384543
0.491719
0.526087
0.493241
0.407393
0.288897
0.16112
0.0470514
-0.0339521
-0.0688562
-0.0527153
0.0107377
0.109767
0.22648
0.339583
0.427626
0.472268
0.461056
0.389335
0.26099
0.0879477
-0.11147
-0.315068
-0.499799
-0.644829
-0.734216
-0.758855
-0.717443
-0.616384
-0.468696
-0.292108
-0.106645
0.0679718
0.21475
0.321355
0.3813
0.394261
0.365516
0.304657
0.223822
0.135762
0.0520433
-0.0183423
-0.069815
-0.100429
-0.111533
-0.106995
-0.092179
-0.0728576
-0.0542343
-0.0402126
-0.0329819
-0.0329368
-0.0388945
-0.0485342
-0.0589585
-0.0672761
-0.0711116
-0.068974
-0.0604454
-0.0461808
-0.0277415
-0.00730306
0.0127042
0.0299641
0.0425984
0.0494025
0.0499697
0.0446944
0.0346669
0.0214829
0.00700058
-0.00691601
-0.0186332
-0.0269337
-0.0311328
-0.0311161
-0.0273012
-0.020535
-0.0119457
-0.00276321
0.00589565
0.0133309
0.0197745
0.0273024
0.041325
0.0727335
0.140558
0.27472
0.518219
0.927967
1.57355
2.53344
3.88859
5.71379
8.06769
10.9827
14.4563
18.4449
22.8615
27.5784
32.4339
37.2433
41.8139
45.9607
49.523
52.3783
54.453
55.727
56.2322
56.0451
55.2727
54.0363
52.4532
50.6203
48.6018
46.4235
44.0739
41.5119
38.6812
35.5269
32.0136
28.1405
23.951
19.5362
15.0296
10.5953
6.41085
2.64602
-0.557013
-3.10137
-4.94732
-6.11712
-6.69215
-6.803
-6.61406
-6.30475
-6.04961
-5.99906
-6.26148
-6.88624
-7.84613
-9.01742
-10.1562
-10.8713
-10.5977
-8.57584
-3.84752
4.72073
18.375
38.3644
65.7822
101.366
145.274
196.871
254.556
315.677
376.578
432.78
479.331
511.275
524.216
514.886
481.664
424.927
347.211
253.101
148.882
41.9521
-59.9092
-149.346
-220.194
-268.11
-291.001
-289.177
-265.242
-223.714
-170.459
-111.99
-54.7336
-4.3573
34.7805
59.9858
70.3693
66.7688
51.4792
27.84
-0.261057
-28.8992
-54.5781
-74.5975
-87.2871
-92.0926
-89.5161
-80.933
-68.3184
-53.927
-39.9685
-28.3219
-20.3186
-16.6166
-17.1728
-21.3072
-27.8441
-35.3033
-42.1138
-46.8217
-48.2655
-45.7014
-38.8668
-27.9808
-13.6859
3.05526
21.0931
39.2349
56.3813
71.6419
84.4151
94.4302
101.747
106.719
109.923
112.079
113.944
116.23
119.517
124.196
130.44
138.194
147.201
157.039
167.182
177.062
186.132
193.922
200.077
204.382
206.765
207.28
206.082
203.382
199.409
194.364
188.388
181.539
173.792
165.047
155.161
143.984
131.411
117.428
102.144
85.8199
68.8663
51.8234
35.3191
20.009
6.50755
-4.68212
-13.2291
-19.0178
-22.1667
-23.0194
-22.1081
-20.0947
-17.6963
-15.6052
-14.4133
-14.551
-16.2471
-19.5145
-24.1622
-29.8312
-36.0485
-42.2907
-48.0502
-52.8944
-56.5116
-58.7392
-59.5707
-59.1443
-57.7138
-55.6085
-53.187
-50.7911
-48.7067
-47.1345
-46.1748
-45.8255
-45.9944
-46.5209
-47.2052
-47.8392
-48.2354
-48.25
-47.7972
-46.8543
-45.4563
-43.6837
-41.6436
-39.4498
-37.2034
-34.9772
-32.8071
-30.6895
-28.5872
-26.4402
-24.1805
-21.7486
-19.1079
-16.2555
-13.2266
-10.0932
-6.95635
-3.93349
-1.14307
1.31087
3.3522
4.94195
6.08222
6.81428
7.21144
7.36791
7.38558
7.36053
7.37141
7.47102
7.68209
7.99749
8.38446
8.79196
9.1598
9.4283
9.54686
9.48064
9.21452
8.75404
8.12356
7.36208
6.5175
5.64018
4.77668
3.96457
3.22879
2.58006
2.01539
1.52043
1.07334
0.649386
0.225656
-0.214911
-0.680801
-1.17088
-1.67511
-2.17684
-2.65597
-3.09248
-3.46937
-3.77458
-4.00146
-4.14787
-4.21432
-4.20178
-4.1101
-3.93767
-3.68299
-3.3481
-2.94336
-2.49284
-2.03879
-1.64386
-1.38981
-1.37179
-1.68814
-2.42635
-3.64699
-5.36785
-7.55114
-10.0963
-12.8408
-15.5692
-18.0317
-19.9684
-21.1386
-21.3496
-20.482
-18.5079
-15.4995
-11.6261
-7.1411
-2.35937
2.37054
6.69764
10.2986
12.9044
14.3213
14.4453
13.269
10.8829
7.46868
3.28824
-1.33401
-6.03282
-10.4277
-14.1511
-16.8759
-18.3425
-18.3794
-16.9183
-13.9995
-9.76776
-4.45896
1.62248
8.1317
14.7149
21.0403
26.8261
31.8615
36.0193
39.2603
41.6271
43.2313
44.2338
44.8223
45.1877
45.5026
45.9031
46.4766
47.2551
48.2154
49.2849
50.3511
51.2756
51.908
52.1009
51.7228
50.6694
48.8722
46.3047
42.9851
38.9775
34.3893
29.3659
24.0829
18.7348
13.5228
8.63942
4.2543
0.500516
-2.53627
-4.82475
-6.39
-7.3103
-7.70908
-7.74278
-7.58617
-7.41631
-7.39638
-7.65961
-8.29274
-9.31775
-10.6703
-12.1739
-13.5104
-14.1893
-13.5228
-10.6135
-4.36876
6.44896
23.1251
46.8449
78.4988
118.457
166.343
220.841
279.586
339.173
395.326
443.21
477.903
494.94
490.898
463.908
414.031
343.429
256.279
158.451
56.9515
-40.779
-127.635
-197.589
-246.304
-271.559
-273.409
-254.098
-217.722
-169.698
-116.114
-63.0355
-15.8644
21.188
45.453
55.9537
53.3499
39.6994
18.0805
-7.86826
-34.4301
-58.2532
-76.707
-88.1159
-91.8554
-88.3107
-78.7174
-64.9144
-49.0473
-33.2653
-19.4471
-8.98967
-2.67837
-0.647087
-2.42505
-7.05546
-13.2641
-19.652
-24.8847
-27.856
-27.807
-24.3906
-17.6784
-8.11623
3.56284
16.4509
29.5883
42.0801
53.1937
62.4266
69.5404
74.561
77.7472
79.5372
80.4794
81.1601
82.1346
83.8705
86.7083
90.8402
96.308
103.017
110.76
119.251
128.156
137.123
145.812
153.906
161.122
167.213
171.965
175.187
176.711
176.384
174.075
169.681
163.14
154.446
143.668
130.965
116.596
100.922
84.4024
67.574
51.0223
35.3427
21.095
8.75555
-1.32765
-8.97122
-14.1791
-17.1478
-18.2518
-18.0099
-17.0348
-15.9712
-15.4295
-15.9223
-17.8119
-21.2749
-26.288
-32.6374
-39.9495
-47.7394
-55.4713
-62.6212
-68.737
-73.4868
-76.6898
-78.3294
-78.5443
-77.6035
-75.8665
-73.7366
-71.6123
-69.8434
-68.6965
-68.3342
-68.8074
-70.0622
-71.9583
-74.2947
-76.8393
-79.3576
-81.6368
-83.5033
-84.8308
-85.5404
-85.5944
-84.984
-83.7162
-81.8008
-79.2416
-76.0323
-72.1588
-67.6067
-62.3731
-56.4805
-49.9901
-43.0106
-35.7021
-28.2729
-20.9678
-14.0505
-7.78154
-2.39333
1.9325
5.08396
7.03063
7.82698
7.60669
6.56874
4.95672
3.03416
1.05872
-0.741714
-2.18838
-3.16446
-3.62023
-3.57053
-3.08537
-2.27525
-1.27359
-0.218452
0.764064
1.57294
2.14064
2.43641
2.46463
2.25908
1.87455
1.377
0.833905
0.305992
-0.158857
-0.528988
-0.78969
-0.941582
-0.997313
-0.977321
-0.905409
-0.804795
-0.695094
-0.590494
-0.499137
-0.423568
-0.361974
-0.309847
-0.261749
-0.212855
-0.160078
-0.102646
-0.0421382
0.0179546
0.0729982
0.118141
0.149221
0.163512
0.160189
0.140475
0.107468
0.0656919
0.0204677
-0.0227959
-0.0592855
-0.0853452
-0.0988501
-0.0993566
-0.0880244
-0.0673423
-0.0407066
-0.0119221
0.0153055
0.0378186
0.0533467
0.0607027
0.0598248
0.0516734
0.0380103
0.0210996
0.00337499
-0.0128801
-0.0258017
-0.0341348
-0.0373267
-0.0355235
-0.0294792
-0.0203977
-0.009736
0.00100537
0.0104742
0.0176206
0.0217964
0.0227943
0.0208272
0.0164571
0.0104878
0.00383839
-0.00258426
-0.007998
-0.0118304
-0.0137683
-0.0137699
-0.0120409
-0.00898258
-0.00512062
-0.00102514
0.00277204
0.00587752
0.00822524
0.0105337
0.0153503
0.0290925
0.0654221
0.149969
0.325867
0.658912
1.24064
2.18748
3.63437
5.7224
8.58089
12.3061
16.9392
22.4485
28.7171
35.5415
42.6404
49.674
56.2717
62.0641
66.7167
69.9593
71.609
71.5838
69.9066
66.699
62.1671
56.5814
50.2541
43.5141
36.6847
30.0636
23.9064
18.4155
13.7326
9.93635
7.04359
5.01455
3.76074
3.15515
3.04396
3.25882
3.62888
3.99184
4.20361
4.14671
3.73796
2.93686
1.75623
0.276706
-1.3336
-2.79422
-3.68386
-3.41226
-1.19942
3.92824
13.1132
27.602
48.6309
77.2602
114.164
159.397
212.17
270.683
332.049
392.373
446.974
490.782
518.853
526.961
512.173
473.338
411.394
329.449
232.6
127.497
21.705
-77.0604
-161.738
-226.653
-268.091
-284.646
-277.291
-249.188
-205.251
-151.533
-94.5172
-40.3954
5.56911
39.5347
59.3751
64.755
56.9949
38.7567
13.6027
-14.5102
-41.7335
-64.7692
-81.2024
-89.695
-90.0294
-83.0123
-70.2626
-53.9223
-36.3316
-19.714
-5.90746
3.82755
8.90825
9.43394
6.10363
0.0660138
-7.27259
-14.454
-20.1602
-23.3688
-23.4565
-20.2409
-13.9641
-5.22346
5.13512
16.1453
26.8507
36.4219
44.2456
49.9793
53.5661
55.2137
55.3429
54.5157
53.3545
52.4629
52.3577
53.4197
55.8657
59.7431
64.9446
71.2372
78.2999
85.7647
93.2534
100.408
106.912
112.5
116.966
120.152
121.947
122.28
121.107
118.41
114.198
108.503
101.392
92.9729
83.4016
72.8915
61.7145
50.1977
38.7118
27.6515
17.4095
8.34554
0.754912
-5.16083
-9.31593
-11.7527
-12.6416
-12.2682
-11.0084
-9.29387
-7.57201
-6.26367
-5.72456
-6.21363
-7.87209
-10.7151
-14.6366
-19.4264
-24.7974
-30.4185
-35.9516
-41.0856
-45.5658
-49.2155
-51.9474
-53.7639
-54.7487
-55.0494
-54.8548
-54.3697
-53.7898
-53.28
-52.9579
-52.8838
-53.0585
-53.4278
-53.8931
-54.3269
-54.5897
-54.5486
-54.093
-53.1478
-51.6806
-49.7049
-47.2772
-44.4888
-41.4546
-38.2996
-35.1443
-32.0916
-29.217
-26.5621
-24.133
-21.9044
-19.8264
-17.836
-15.8694
-13.8736
-11.817
-9.69571
-7.53568
-5.39019
-3.33324
-1.44964
0.176436
1.47306
2.39042
2.90785
3.03702
2.82099
2.32944
1.65075
0.882167
0.119287
-0.553742
-1.07214
-1.39572
-1.5109
-1.42954
-1.18497
-0.825891
-0.409004
0.00849773
0.375836
0.65407
0.819553
0.865175
0.799442
0.643706
0.428081
0.186688
-0.0470711
-0.244601
-0.385061
-0.456901
-0.457918
-0.394022
-0.277047
-0.122123
0.0549036
0.239522
0.419792
0.58665
0.733379
0.854563
0.944921
0.998453
1.00825
0.967085
0.868812
0.710138
0.492488
0.223407
-0.08289
-0.406046
-0.721224
-1.0017
-1.22204
-1.3613
-1.4059
-1.35155
-1.204
-0.978573
-0.698352
-0.391504
-0.0879505
0.184085
0.401199
0.547229
0.614686
0.605065
0.528064
0.399879
0.240832
0.0726972
-0.0839481
-0.212006
-0.29953
-0.340635
-0.33559
-0.290166
-0.214382
-0.120853
-0.0229927
0.0667049
0.138097
0.184385
0.202602
0.193565
0.161378
0.112573
0.0550407
-0.00309437
-0.0545073
-0.0935005
-0.11654
-0.122463
-0.112367
-0.0891932
-0.0570515
-0.0202638
0.0179164
0.056976
0.10122
0.162136
0.260742
0.429457
0.712946
1.16752
1.8588
2.85777
4.23531
6.0557
8.36947
11.2061
14.5672
18.4209
22.6984
27.2927
32.062
36.836
41.4262
45.6396
49.2945
52.2359
54.3499
55.5742
55.9036
55.3897
54.1332
52.2725
49.9668
47.3781
44.6547
41.9163
39.2449
36.6818
34.2295
31.86
29.526
27.1733
24.7536
22.234
19.6033
16.8735
14.0773
11.2624
8.48347
5.79385
3.2376
0.843632
-1.37793
-3.43677
-5.36077
-7.19157
-8.97658
-10.7562
-12.5449
-14.3042
-15.9086
-17.1046
-17.469
-16.3743
-12.9709
-6.19997
5.15282
22.3535
46.5641
78.6422
118.914
166.95
221.38
279.796
338.774
394.045
440.815
474.226
489.893
484.467
456.131
404.966
333.115
244.706
145.542
42.5631
-56.8295
-145.532
-217.466
-268.193
-295.338
-298.78
-280.572
-244.633
-196.241
-141.397
-86.1519
-35.9643
4.82594
33.3603
48.427
50.4252
41.15
23.4361
0.717016
-23.4414
-45.7741
-63.6695
-75.4052
-80.2526
-78.4478
-71.0488
-59.7058
-46.3821
-33.0657
-21.5072
-13.0146
-8.32546
-7.56392
-10.2806
-15.5621
-22.1888
-28.8176
-34.1634
-37.1564
-37.0586
-33.5274
-26.6248
-16.7752
-4.68159
8.78379
22.7
36.2122
48.6264
59.476
68.5526
75.9022
81.79
86.6413
90.9688
95.2958
100.086
105.687
112.294
119.94
128.497
137.709
147.233
156.679
165.667
173.857
180.989
186.888
191.475
194.747
196.759
197.595
197.34
196.052
193.746
190.383
185.872
180.079
172.854
164.05
153.561
141.352
127.487
112.148
95.6402
78.3895
60.9155
43.7966
27.6233
12.9461
0.225485
-10.2108
-18.1974
-23.7438
-27.0292
-28.3785
-28.2249
-27.0623
-25.3935
-23.6811
-22.3055
-21.5358
-21.5146
-22.2593
-23.6762
-25.5872
-27.7628
-29.958
-31.9459
-33.5458
-34.6415
-35.1907
-35.2224
-34.8269
-34.1379
-33.3115
-32.5041
-31.8527
-31.4596
-31.3823
-31.6306
-32.1686
-32.9227
-33.7917
-34.6598
-35.4094
-35.9319
-36.1373
-35.9599
-35.3615
-34.3309
-32.8818
-31.0483
-28.8795
-26.4347
-23.7783
-20.9771
-18.0973
-15.2038
-12.3593
-9.62368
-7.05321
-4.6993
-2.60657
-0.810579
0.664361
1.80716
2.62122
3.12481
3.35038
3.34279
3.15656
2.85235
2.49293
2.13885
1.84421
1.65278
1.59483
1.6849
1.921
2.28519
2.74584
3.26136
3.7851
4.27094
4.67882
4.97956
5.15826
5.21569
5.1675
5.04126
4.87177
4.69539
4.54408
4.44019
4.39273
4.39561
4.42825
4.45826
4.44603
4.35031
4.1343
3.771
3.24752
2.56733
1.75038
0.831027
-0.146062
-1.13123
-2.07575
-2.93744
-3.68514
-4.30156
-4.78404
-5.14336
-5.40071
-5.58348
-5.72049
-5.83739
-5.95284
-6.07602
-6.20578
-6.33126
-6.43399
-6.49092
-6.478
-6.37373
-6.16224
-5.8356
-5.39513
-4.85159
-4.22441
-3.53995
-2.82922
-2.12516
-1.4598
-0.861653
-0.353485
0.0492984
0.339532
0.518391
0.594754
0.583923
0.505859
0.383138
0.2388
0.0942884
-0.0323517
-0.127862
-0.184615
-0.200835
-0.180171
-0.130672
-0.0632513
0.0102225
0.0791407
0.136597
0.18204
0.224082
0.283327
0.394936
0.610429
0.998105
1.64138
2.63448
4.07526
6.05547
8.64922
11.9012
15.816
20.3512
25.4138
30.8632
36.5184
42.1706
47.5983
52.584
56.9307
60.4755
63.0999
64.7355
65.3653
65.0208
63.7747
61.7324
59.0217
55.782
52.1552
48.2771
44.2716
40.2457
36.2872
32.4639
28.8236
25.3954
22.1922
19.2131
16.447
13.8756
11.4773
9.23034
7.11591
5.12007
3.23484
1.45778
-0.209734
-1.7655
-3.20994
-4.54889
-5.7938
-6.9574
-8.04249
-9.02217
-9.81093
-10.2279
-9.95584
-8.5027
-5.17445
0.9291
10.8839
25.8666
47.029
75.3243
111.296
154.856
205.08
260.072
316.927
371.836
420.337
457.716
479.502
482.022
462.916
421.55
359.258
279.349
186.895
88.2765
-9.42904
-99.1656
-174.624
-230.889
-264.923
-275.834
-264.901
-235.348
-191.921
-140.304
-86.473
-36.0428
6.29335
37.1873
54.8757
59.2214
51.5682
34.4393
11.1283
-14.7599
-39.7597
-60.9353
-76.168
-84.3187
-85.2544
-79.7515
-69.297
-55.8228
-41.4121
-28.0158
-17.2144
-10.0499
-6.94274
-7.69576
-11.5767
-17.4614
-24.0134
-29.8744
-33.8395
-34.998
-32.8234
-27.208
-18.4425
-7.14765
5.82827
19.5299
33.0178
45.4777
56.3047
65.1544
71.9574
76.8996
80.374
82.911
85.1002
87.5115
90.6264
94.7869
100.166
106.762
114.412
122.83
131.644
140.454
148.874
156.575
163.309
168.927
173.368
176.647
178.828
179.988
180.187
179.443
177.707
174.864
170.739
165.119
157.788
148.566
137.356
124.184
109.222
92.81
75.4404
57.7331
40.3849
24.1052
9.54435
-2.77648
-12.5236
-19.589
-24.1031
-26.4181
-27.0653
-26.6914
-25.9809
-25.5775
-26.0115
-27.6461
-30.6444
-34.9648
-40.3806
-46.521
-52.9279
-59.1183
-64.6459
-69.1527
-72.4058
-74.3162
-74.9375
-74.4484
-73.1209
-71.2808
-69.2651
-67.3823
-65.8801
-64.9232
-64.5831
-64.8399
-65.5942
-66.6868
-67.9233
-69.099
-70.023
-70.537
-70.5284
-69.9353
-68.7456
-66.9884
-64.7227
-62.0221
-58.9608
-55.6021
-51.9909
-48.1523
-44.0952
-39.8205
-35.3327
-30.6516
-25.8223
-20.9216
-16.0579
-11.3671
-7.00092
-3.11288
0.158738
2.70702
4.46993
5.43894
5.6617
5.23816
4.31079
3.05009
1.63722
0.246159
-0.972745
-1.90568
-2.48357
-2.68482
-2.53274
-2.08823
-1.43898
-0.686678
0.0661399
0.728147
1.22881
1.52469
1.60201
1.47558
1.18435
0.78461
0.341482
-0.079931
-0.422881
-0.645747
-0.726516
-0.664524
-0.479333
-0.20699
0.105737
0.408317
0.653622
0.804308
0.837577
0.747723
0.546225
0.259482
-0.0753685
-0.415882
-0.720163
-0.952338
-1.08692
-1.11155
-1.02788
-0.850534
-0.604523
-0.321462
-0.0352303
0.222343
0.425216
0.555854
0.606671
0.580123
0.487538
0.346963
0.180356
0.0105685
-0.141517
-0.259332
-0.332208
-0.35609
-0.333351
-0.271846
-0.183371
-0.0817977
0.0188575
0.106188
0.170764
0.206996
0.213419
0.192439
0.149628
0.0926862
0.0302591
-0.029246
-0.0786859
-0.112941
-0.12934
-0.127737
-0.110258
-0.0807949
-0.0443278
-0.00618519
0.0286621
0.0561885
0.0737294
0.0802268
0.0763968
0.0650432
0.051877
0.0472512
0.0690818
0.146847
0.326007
0.671643
1.26977
2.22486
3.6526
5.66775
8.36824
11.8173
16.0267
20.9433
26.4433
32.3332
38.362
44.2398
49.664
54.3491
58.0554
60.6147
61.9478
62.0728
61.1014
59.2248
56.6899
53.7692
50.7281
47.794
45.1315
42.8258
40.8778
39.2107
37.6864
36.1302
34.3604
32.2169
29.5876
26.4265
22.7626
18.6979
14.3961
10.0612
5.91297
2.15894
-1.03064
-3.5427
-5.33357
-6.43202
-6.93357
-6.98711
-6.77605
-6.49608
-6.33159
-6.43141
-6.88371
-7.68911
-8.73091
-9.74231
-10.273
-9.66049
-7.01432
-1.22613
8.98313
24.9668
48.0014
79.0845
118.697
166.559
221.42
280.932
341.649
399.181
448.526
484.543
502.532
498.839
471.412
420.207
347.377
257.212
155.796
50.4407
-51.0536
-141.216
-213.694
-263.91
-289.515
-290.57
-269.45
-230.484
-179.395
-122.6
-66.4805
-16.6943
22.3727
47.9746
59.1528
56.6664
42.7295
20.6037
-5.89291
-32.8934
-56.9448
-75.3736
-86.5199
-89.8235
-85.7676
-75.6998
-61.5651
-45.5921
-29.9772
-16.6046
-6.83566
-1.38521
-0.293631
-2.98776
-8.41454
-15.2232
-21.9681
-27.3042
-30.1516
-29.81
-26.0152
-18.9348
-9.11076
2.63987
15.348
28.0228
39.7724
49.9001
57.9685
63.8266
67.5994
69.6469
70.4999
70.7811
71.1248
72.1017
74.159
77.5797
82.4645
88.7356
96.1603
104.39
113.005
121.571
129.679
136.987
143.244
148.3
152.1
154.667
156.075
156.412
155.75
154.117
151.48
147.74
142.747
136.322
128.298
118.562
107.097
94.0232
79.61
64.2824
48.5966
33.1978
18.7606
5.91951
-4.80035
-13.0441
-18.6698
-21.7681
-22.6533
-21.8294
-19.9325
-17.6594
-15.689
-14.6091
-14.8548
-16.6681
-20.0822
-24.9303
-30.8782
-37.4747
-44.2126
-50.592
-56.1787
-60.6503
-63.825
-65.6714
-66.2997
-65.9361
-64.8849
-63.4853
-62.0665
-60.9087
-60.213
-60.0838
-60.5245
-61.446
-62.6861
-64.0355
-65.2678
-66.1686
-66.5608
-66.3227
-65.398
-63.7968
-61.588
-58.8853
-55.8283
-52.5624
-49.2188
-45.8991
-42.6648
-39.5335
-36.483
-33.461
-30.3997
-27.2328
-23.9127
-20.4236
-16.7905
-13.0813
-9.40209
-5.8862
-2.67894
0.080325
2.27569
3.82964
4.71327
4.95048
4.61582
3.82621
2.72795
1.48073
0.240704
-0.855093
-1.70138
-2.23276
-2.42676
-2.30163
-1.90965
-1.32702
-0.641908
0.0576633
0.694501
1.21022
1.5697
1.76184
1.79684
1.70097
1.50974
1.26099
0.988798
0.719325
0.468916
0.244602
0.0465373
-0.12835
-0.282441
-0.414165
-0.516151
-0.575229
-0.574331
-0.495927
-0.326339
-0.0600516
0.296845
0.724831
1.19119
1.65238
2.05829
2.35779
2.50488
2.46466
2.21851
1.76783
1.13609
0.36865
-0.46956
-1.29864
-2.03045
-2.57698
-2.85975
-2.81941
-2.42428
-1.67698
-0.617974
0.674684
2.08974
3.49132
4.73125
5.66406
6.16339
6.13772
5.54366
4.39449
2.76263
0.775
-1.39851
-3.56241
-5.51678
-7.07969
-8.10777
-8.5126
-8.27041
-7.4241
-6.07728
-4.3812
-2.51633
-0.671158
0.979176
2.29171
3.16972
3.57056
3.50669
3.04021
2.27218
1.32838
0.343818
-0.551977
-1.24697
-1.65469
-1.71774
-1.40697
-0.717061
0.340209
1.74343
3.46836
5.49284
7.79909
10.3732
13.2025
16.2713
19.5569
23.0259
26.6325
30.3187
34.0166
37.6524
41.1505
44.439
47.4541
50.1442
52.4723
54.4176
55.9755
57.1569
57.985
58.4925
58.7169
58.6954
58.46
58.032
57.4186
56.6099
55.5783
54.2794
52.656
50.6437
48.1784
45.2063
41.6925
37.63
33.0466
28.0076
22.6153
17.0041
11.3311
5.76402
0.467924
-4.40835
-8.74359
-12.4523
-15.4884
-17.8446
-19.5465
-20.644
-21.1988
-21.2704
-20.8996
-20.0879
-18.7733
-16.799
-13.8774
-9.5528
-3.17043
6.13475
19.4152
37.839
62.5597
94.5269
134.253
181.562
235.363
293.503
352.737
408.862
457.02
492.161
509.616
505.706
478.304
427.257
354.598
264.497
162.938
57.1678
-45.0412
-136.199
-209.892
-261.445
-288.388
-290.649
-270.481
-232.115
-181.214
-124.185
-67.4471
-16.748
23.4032
50.1158
62.2849
60.5407
47.0017
24.8792
-2.00838
-29.7449
-54.7867
-74.3411
-86.616
-90.923
-87.6372
-78.0303
-64.0124
-47.8211
-31.7029
-17.6267
-7.06115
-0.838354
0.888439
-1.40319
-6.72784
-13.7674
-21.0706
-27.2505
-31.1533
-31.9827
-29.3675
-23.3694
-14.4376
-3.31987
9.05391
21.6994
33.6999
44.3084
53.0212
59.6153
64.1508
66.941
68.4959
69.4504
70.4842
72.244
75.2761
79.9744
86.549
95.0146
105.199
116.771
129.276
142.184
154.937
166.996
177.877
187.182
194.61
199.965
203.149
204.142
202.987
199.764
194.573
187.514
178.687
168.185
156.106
142.569
127.735
111.822
95.1289
78.0322
60.9857
44.4991
29.1052
15.3182
3.58659
-5.75225
-12.51
-16.672
-18.4045
-18.0428
-16.0615
-13.0292
-9.55326
-6.22177
-3.54788
-1.92444
-1.59294
-2.63005
-4.95268
-8.33991
-12.4685
-16.9573
-21.4146
-25.4829
-28.8768
-31.4086
-33.0008
-33.6847
-33.586
-32.9001
-31.8612
-30.7094
-29.6598
-28.8774
-28.4604
-28.4336
-28.7521
-29.3129
-29.9737
-30.5757
-30.966
-31.0178
-30.6454
-29.8127
-28.5339
-26.8681
-24.9079
-22.7649
-20.5543
-18.38
-16.3239
-14.4388
-12.7461
-11.239
-9.88891
-8.65424
-7.4905
-6.3594
-5.23596
-4.11274
-3.0007
-1.92681
-0.928984
-0.0492509
0.673818
1.21217
1.55385
1.70616
1.69611
1.56781
1.37751
1.18656
1.0537
1.02739
1.13949
1.40111
1.80112
2.30773
2.8726
3.4372
3.94018
4.3251
4.54713
4.57818
4.4096
4.05234
3.5346
2.89736
2.1885
1.45639
0.743777
0.0829475
-0.507301
-1.02242
-1.47058
-1.86916
-2.23981
-2.60302
-2.97292
-3.35341
-3.73604
-4.10016
-4.41537
-4.64574
-4.75537
-4.71423
-4.50353
-4.1196
-3.57589
-2.90258
-2.14389
-1.35357
-0.58901
0.0950773
0.652606
1.05096
1.2741
1.32362
1.21772
0.988274
0.676484
0.327752
-0.0136098
-0.309157
-0.530027
-0.659249
-0.692461
-0.637099
-0.510275
-0.335715
-0.140223
0.0498713
0.211838
0.328915
0.39171
0.398542
0.354821
0.271612
0.163654
0.0471439
-0.062428
-0.152127
-0.212905
-0.240308
-0.234533
-0.199909
-0.143902
-0.0758387
-0.00547818
0.0584484
0.109737
0.146349
0.172316
0.200001
0.252549
0.366135
0.591328
0.992776
1.64649
2.63436
4.03595
5.91836
8.32521
11.2665
14.7108
18.5817
22.7584
27.0829
31.3704
35.4246
39.0542
42.0901
44.4003
45.9011
46.5639
46.4159
45.5361
44.046
42.0959
39.8503
37.4709
35.1021
32.8582
30.8146
29.0042
27.4174
26.0084
24.7046
23.4182
22.0605
20.5536
18.8418
16.898
14.7267
12.3618
9.8608
7.29597
4.74358
2.27359
-0.0593264
-2.22203
-4.20584
-6.02601
-7.71833
-9.33311
-10.9271
-12.5531
-14.2453
-16.0002
-17.7504
-19.331
-20.4416
-20.6087
-19.1568
-15.1995
-7.66214
4.65398
22.9601
48.3215
81.4623
122.551
170.998
225.294
282.938
340.479
393.694
437.917
468.479
481.239
473.115
442.566
389.927
317.556
229.735
132.345
32.3243
-63.0185
-146.758
-213.07
-257.839
-279.054
-276.976
-254.034
-214.485
-163.875
-108.384
-54.1298
-6.51915
30.2782
53.6803
62.8363
58.5617
43.0875
19.668
-7.89474
-35.7457
-60.4316
-79.2637
-90.5542
-93.7096
-89.1831
-78.3055
-63.0264
-45.6069
-28.305
-13.0956
-1.45304
5.7796
8.42956
6.94497
2.2728
-4.31297
-11.4061
-17.6588
-21.9452
-23.4795
-21.8794
-17.1725
-9.75104
-0.286461
10.3817
21.3657
31.8435
41.1517
48.8514
54.7594
58.947
61.709
63.5106
64.9193
66.5317
68.9026
72.4841
77.5794
84.3153
92.6347
102.308
112.961
124.118
135.249
145.821
155.347
163.424
169.762
174.194
176.671
177.249
176.049
173.228
168.937
163.293
156.358
148.138
138.598
127.694
115.415
101.82
87.0792
71.4951
55.5018
39.6454
24.5407
10.8125
-0.972619
-10.3726
-17.1262
-21.1896
-22.7485
-22.2019
-20.1212
-17.1882
-14.1207
-11.595
-10.1758
-10.2605
-12.046
-15.5201
-20.4778
-26.5588
-33.3007
-40.2009
-46.7783
-52.6275
-57.4605
-61.1305
-63.6366
-65.111
-65.7899
-65.9745
-65.9857
-66.1193
-66.6073
-67.5886
-69.0931
-71.0406
-73.2534
-75.481
-77.4331
-78.8168
-79.3726
-78.9058
-77.3088
-74.5716
-70.7819
-66.1122
-60.7986
-55.114
-49.3371
-43.7246
-38.4869
-33.7709
-29.6516
-26.1331
-23.1576
-20.621
-18.393
-16.339
-14.3397
-12.3074
-10.1959
-8.00361
-5.76888
-3.55979
-1.45933
0.450885
2.10582
3.46858
4.53665
5.34179
5.94423
6.42215
6.85846
7.32724
7.88191
8.54682
9.3133
10.1405
10.9603
11.6861
12.2226
12.4774
12.3708
11.8446
10.868
9.44081
7.59351
5.38501
2.89821
0.233962
-2.49564
-5.17435
-7.68856
-9.93346
-11.8185
-13.2721
-14.2446
-14.7116
-14.6747
-14.1617
-13.2255
-11.9402
-10.3973
-8.69868
-6.9497
-5.25132
-3.69266
-2.34463
-1.25527
-0.447454
0.0809629
0.35461
0.415995
0.31948
0.124573
-0.110679
-0.335468
-0.510596
-0.611079
-0.626841
-0.561637
-0.430498
-0.256162
-0.0650385
0.116775
0.266926
0.369353
0.415716
0.405678
0.346115
0.249496
0.131714
0.00970978
-0.10078
-0.187096
-0.240929
-0.258923
-0.242575
-0.197545
-0.132501
-0.057718
0.0163888
0.080585
0.127857
0.154057
0.158126
0.141896
0.109559
0.0668865
0.0203369
-0.023827
-0.0603058
-0.0853228
-0.0969136
-0.0949011
-0.0805098
-0.0555776
-0.0213347
0.0232424
0.0834329
0.171006
0.306511
0.521389
0.859619
1.37849
2.14806
3.24872
4.76667
6.7869
9.38423
12.6127
16.495
21.0123
26.0975
31.632
37.448
43.3363
49.0597
54.3707
59.0319
62.8365
65.6269
67.3079
67.8542
67.3094
65.7778
63.4091
60.3779
56.862
53.0219
48.9847
44.8355
40.6171
36.3377
31.986
27.5493
23.0328
18.4746
13.9546
9.59479
5.54985
1.98972
-0.923456
-3.06047
-4.34804
-4.78575
-4.45383
-3.50991
-2.17462
-0.707043
0.627532
1.59486
2.03131
1.88365
1.24756
0.40355
-0.151825
0.316643
2.79003
8.47733
18.7607
35.0926
58.8379
91.0626
132.285
182.217
239.543
301.778
365.271
425.369
476.771
514.042
532.235
527.546
497.9
443.381
366.417
271.693
165.764
56.4311
-48.0667
-139.922
-212.595
-261.492
-284.423
-281.756
-256.288
-212.829
-157.581
-97.3877
-38.9528
11.8748
50.6682
74.7843
83.49
77.8563
60.4512
34.8849
5.27493
-24.2968
-50.2681
-69.9677
-81.8397
-85.5059
-81.676
-71.9299
-58.4131
-43.4917
-29.4149
-18.026
-10.5555
-7.51384
-8.68892
-13.238
-19.8548
-26.9823
-33.0413
-36.6426
-36.7586
-32.835
-24.8335
-13.2066
1.18742
17.2135
33.6132
49.1609
62.8049
73.775
81.6488
86.3709
88.2269
87.7804
85.7827
83.0695
80.4583
78.6573
78.1965
79.3865
82.3061
86.8173
92.6042
99.2264
106.181
112.967
119.134
124.331
128.328
131.02
132.421
132.634
131.82
130.152
127.782
124.806
121.243
117.033
112.047
106.116
99.068
90.7739
81.1906
70.3943
58.5975
46.147
33.4983
21.1724
9.69715
-0.456184
-8.93267
-15.5407
-20.2784
-23.3356
-25.0708
-25.965
-26.5613
-27.3963
-28.9338
-31.5103
-35.2976
-40.2882
-46.3039
-53.0254
-60.0388
-66.8903
-73.1445
-78.4358
-82.5084
-85.2408
-86.6516
-86.8875
-86.1971
-84.8931
-83.31
-81.7619
-80.5057
-79.714
-79.4609
-79.7201
-80.3761
-81.2451
-82.1025
-82.7136
-82.8623
-82.3762
-81.1427
-79.1175
-76.3234
-72.8412
-68.7945
-64.3315
-59.6057
-54.7591
-49.9089
-45.1398
-40.5022
-36.0159
-31.678
-27.4741
-23.3897
-19.4207
-15.5813
-11.9077
-8.45678
-5.30098
-2.51948
-0.187359
1.63556
2.91446
3.6465
3.86378
3.6321
3.04556
2.2177
1.27057
0.322793
-0.521488
-1.18179
-1.60739
-1.77974
-1.71126
-1.44066
-1.02579
-0.534826
-0.0371947
0.404841
0.742865
0.946673
1.00598
0.929529
0.741977
0.479123
0.182289
-0.107415
-0.354186
-0.531432
-0.624114
-0.629407
-0.555756
-0.420627
-0.247363
-0.0616394
0.112007
0.253135
0.347529
0.388333
0.376127
0.318076
0.226333
0.115986
0.00285789
-0.0985604
-0.176786
-0.224465
-0.238863
-0.221713
-0.178527
-0.117502
-0.048205
0.0197755
0.0780344
0.120282
0.142911
0.145161
0.128916
0.0981864
0.0583749
0.0154537
-0.0248491
-0.0577431
-0.0798786
-0.0896147
-0.0870443
-0.0737982
-0.0526766
-0.0271726
-0.000959759
0.0225896
0.0407962
0.0519374
0.0553623
0.0514594
0.041498
0.0273744
0.0113072
-0.00447615
-0.0180205
-0.0278598
-0.03315
-0.0337084
-0.0299675
-0.0228541
-0.0136213
-0.00365533
0.00571228
0.0133667
0.0185271
0.0208091
0.0202312
0.0171698
0.0122737
0.00635359
0.000262861
-0.00521287
-0.00943832
-0.0119461
-0.0123065
-0.00968309
-0.00180697
0.0169474
0.0586291
0.145909
0.31698
0.630246
1.16749
2.03405
3.35471
5.26471
7.89589
11.3594
15.727
21.0136
27.1641
34.0466
41.454
49.114
56.7068
63.8885
70.3183
75.6853
79.7335
82.2819
83.2379
82.6028
80.4691
77.0105
72.4652
67.1142
61.2573
55.1891
49.1768
43.4423
38.1499
33.4007
29.2336
25.6312
22.5323
19.8446
17.4607
15.2721
13.1806
11.1077
8.99908
6.82663
4.5868
2.29713
-0.00857859
-2.28571
-4.4842
-6.55353
-8.44684
-10.1242
-11.5539
-12.7113
-13.5715
-14.0958
-14.2067
-13.7525
-12.4621
-9.89613
-5.40453
1.8952
13.1025
29.4655
52.2491
82.5404
121.003
167.611
221.405
280.321
341.147
399.641
450.829
489.476
510.669
510.451
486.413
438.149
367.491
278.487
177.089
70.6035
-33.056
-126.196
-202.159
-256.022
-285.077
-289.058
-270.078
-232.291
-181.347
-123.697
-65.8529
-13.6836
28.1607
56.6455
70.5289
70.3189
58.0311
36.7944
10.3642
-17.3892
-42.9531
-63.5527
-77.4019
-83.8058
-83.1181
-76.5714
-66.0151
-53.6012
-41.4628
-31.4269
-24.793
-22.201
-23.5972
-28.2937
-35.107
-42.5502
-49.0516
-53.1682
-53.7694
-50.1673
-42.1844
-30.1519
-14.846
2.62633
20.975
38.886
55.1746
68.9116
79.5129
86.7823
90.9064
92.4073
92.0596
90.7861
89.5446
89.2193
90.5293
93.9622
99.7379
107.805
117.866
129.425
141.857
154.476
166.612
177.668
187.172
194.8
200.386
203.904
205.443
205.164
203.258
199.906
195.244
189.346
182.216
173.803
164.021
152.784
140.045
125.838
110.304
93.7174
76.4815
59.1169
42.2255
26.4417
12.3745
0.546745
-8.65957
-15.0453
-18.6184
-19.5958
-18.3836
-15.5367
-11.703
-7.55855
-3.74116
-0.790304
0.90029
1.11228
-0.188063
-2.86116
-6.6235
-11.0908
-15.8294
-20.4083
-24.448
-27.6581
-29.8624
-31.0079
-31.1594
-30.4806
-29.2053
-27.6034
-25.9455
-24.4713
-23.3639
-22.7339
-22.6128
-22.9573
-23.6608
-24.572
-25.5163
-26.3186
-26.823
-26.909
-26.5018
-25.5763
-24.1554
-22.3024
-20.1104
-17.6891
-15.1514
-12.6007
-10.122
-7.77505
-5.5919
-3.57804
-1.71628
0.0269825
1.69446
3.33056
4.97474
6.65632
8.39114
10.1802
12.0101
13.8548
15.6786
17.4397
19.0932
20.5952
21.9048
22.9867
23.8129
24.3631
24.6262
24.5998
24.2906
23.714
22.8937
21.8606
20.6517
19.3086
17.8747
16.3929
14.9031
13.4382
12.0222
10.6677
9.37466
8.13073
6.91269
5.68958
4.42693
3.09172
1.65752
0.109115
-1.55409
-3.31645
-5.14642
-6.99911
-8.82063
-10.5538
-12.1446
-13.5479
-14.7331
-15.6867
-16.4139
-16.9365
-17.2899
-17.5173
-17.6633
-17.7679
-17.8606
-17.9571
-18.0567
-18.1438
-18.1907
-18.1619
-18.0205
-17.7338
-17.2786
-16.6451
-15.8379
-14.8764
-13.791
-12.6199
-11.4033
-10.1795
-8.98022
-7.82878
-6.73906
-5.7166
-4.76087
-3.8682
-3.03484
-2.25955
-1.54507
-0.898573
-0.33078
0.145841
0.519493
0.781601
0.929038
0.965627
0.902672
0.758429
0.556596
0.324043
0.0881162
-0.126106
-0.298245
-0.414427
-0.468255
-0.46084
-0.39987
-0.297764
-0.168976
-0.0265825
0.121681
0.27759
0.456337
0.689539
1.02664
1.53405
2.29162
3.38632
4.90355
6.91677
9.47686
12.6023
16.2723
20.4229
24.9484
29.7074
34.533
39.2457
43.6695
47.6456
51.0458
53.7806
55.8039
57.1116
57.7356
57.7345
57.182
56.1552
54.7246
52.947
50.8622
48.4935
45.8516
42.9408
39.7661
36.3402
32.6887
28.8532
24.8916
20.8756
16.8858
13.0054
9.31284
5.87508
2.74187
-0.0581743
-2.51929
-4.65788
-6.50958
-8.12428
-9.55926
-10.8708
-12.1044
-13.2824
-14.3905
-15.3596
-16.0461
-16.2073
-15.4775
-13.345
-9.13913
-2.03309
8.92595
24.7518
46.4121
74.6809
109.957
152.073
200.115
252.301
305.947
357.55
403.009
437.975
458.298
460.519
442.358
403.094
343.815
267.452
178.611
83.1864
-12.1881
-100.791
-176.491
-234.365
-271.184
-285.696
-278.699
-252.876
-212.437
-162.605
-109.022
-57.1453
-11.6995
23.7464
47.0441
57.5508
56.0395
44.4581
25.5802
2.59755
-21.2925
-43.2543
-61.0978
-73.452
-79.8198
-80.5185
-76.5271
-69.2673
-60.354
-51.3506
-43.5587
-37.867
-34.6727
-33.8775
-34.9515
-37.0491
-39.1568
-40.2493
-39.4345
-36.0677
-29.8245
-20.7271
-9.12346
4.37251
18.9701
33.8065
48.0523
61.0058
72.1648
81.2688
88.309
93.5077
97.2723
100.131
102.66
105.415
108.863
113.346
119.045
125.981
134.022
142.912
152.306
161.811
171.027
179.578
187.141
193.46
198.354
201.709
203.473
203.633
202.198
199.186
194.602
188.438
180.668
171.261
160.195
147.487
133.216
117.552
100.77
83.2578
65.5079
48.0876
31.5985
16.6223
3.66285
-6.90839
-14.8959
-20.3053
-23.3461
-24.4103
-24.0309
-22.8221
-21.4126
-20.3781
-20.1817
-21.131
-23.3544
-26.8004
-31.2578
-36.393
-41.7999
-47.0535
-51.7625
-55.6129
-58.3988
-60.0376
-60.569
-60.1394
-58.9747
-57.3464
-55.5348
-53.7954
-52.3303
-51.2702
-50.6651
-50.4865
-50.6382
-50.9743
-51.3206
-51.498
-51.3431
-50.725
-49.5565
-47.7983
-45.4587
-42.5865
-39.2629
-35.5906
-31.6833
-27.6572
-23.6239
-19.6855
-15.932
-12.4394
-9.26984
-6.4707
-4.07479
-2.09966
-0.546912
0.598705
1.36986
1.81664
2.00565
2.01779
1.94486
1.88482
1.9359
2.19
2.72572
3.60147
4.84949
6.47112
8.43418
10.6727
13.0895
15.5616
17.9483
20.1014
21.8768
23.1467
23.8103
23.8035
23.1041
21.7345
19.7595
17.2808
14.4275
11.3452
8.18394
5.08691
2.18036
-0.43346
-2.68052
-4.5162
-5.92383
-6.91127
-7.50631
-7.75179
-7.70088
-7.41325
-6.95194
-6.38128
-5.76516
-5.16569
-4.64158
-4.24627
-4.02556
-4.0149
-4.2367
-4.69789
-5.38829
-6.28003
-7.32847
-8.47456
-9.64881
-10.7763
-11.7826
-12.5997
-13.1719
-13.4599
-13.4439
-13.1243
-12.5212
-11.6711
-10.6232
-9.43437
-8.16426
-6.87038
-5.60438
-4.40918
-3.31732
-2.35057
-1.52051
-0.829999
-0.275101
0.152738
0.464669
0.672806
0.789149
0.825131
0.791704
0.699803
0.560943
0.387716
0.19399
-0.00526771
-0.194565
-0.358705
-0.483702
-0.557551
-0.570654
-0.515723
-0.387037
-0.178998
0.115936
0.509762
1.02155
1.67986
2.52453
3.60783
4.9947
6.76203
8.9967
11.7917
15.2401
19.4252
24.4082
30.213
36.8091
44.097
51.8964
59.9434
67.8962
75.3535
81.8834
87.0604
90.5078
91.9395
91.1946
88.2622
83.29
76.5767
68.5476
59.7161
50.6363
41.8505
33.8398
26.9815
21.5193
17.5488
15.0181
13.7451
13.4457
13.7714
14.3503
14.8271
14.8983
14.3382
13.0148
10.8945
8.03567
4.57405
0.700943
-3.36158
-7.38576
-11.16
-14.5042
-17.2744
-19.3549
-20.6351
-20.9708
-20.1352
-17.7628
-13.301
-5.97991
5.18245
21.326
43.6357
73.1699
110.638
156.153
208.993
267.422
328.601
388.657
442.905
486.242
513.667
520.891
504.927
464.599
400.87
316.929
218.012
110.961
3.55786
-96.2636
-181.252
-245.598
-285.53
-299.666
-289.092
-257.153
-209
-150.947
-89.7408
-31.8108
17.385
53.865
75.4212
81.6916
74.0153
55.1063
28.599
-1.468
-31.1642
-57.113
-76.8245
-88.8865
-93.0036
-89.8959
-81.0837
-68.5952
-54.6441
-41.3177
-30.3157
-22.7669
-19.1392
-19.245
-22.3322
-27.2404
-32.5955
-37.015
-39.295
-38.5574
-34.342
-26.6358
-15.8424
-2.7012
11.83
26.7078
40.9349
53.673
64.3251
72.5795
78.4144
82.0673
83.9763
84.7047
84.8609
85.0232
85.6797
87.1889
89.7613
93.4629
98.2345
103.922
110.309
117.152
124.202
131.221
137.99
144.308
149.979
154.81
158.598
161.135
162.211
161.627
159.218
154.865
148.522
140.221
130.087
118.336
105.268
91.2541
76.7207
62.125
47.9295
34.574
22.4472
11.8597
3.02167
-3.97238
-9.15069
-12.6602
-14.7523
-15.7586
-16.0597
-16.0494
-16.0987
-16.5227
-17.5559
-19.3354
-21.8962
-25.1778
-29.0396
-33.2852
-37.6896
-42.028
-46.1015
-49.7574
-52.9016
-55.5026
-57.5874
-59.2298
-60.5341
-61.6159
-62.5834
-63.5211
-64.4783
-65.463
-66.4429
-67.3509
-68.0958
-68.5753
-68.6902
-68.3563
-67.5144
-66.1356
-64.2223
-61.8058
-58.9399
-55.6936
-52.1427
-48.363
-44.4241
-40.3872
-36.3035
-32.2165
-28.1643
-24.1833
-20.3117
-16.5919
-13.0715
-9.80281
-6.83958
-4.23348
-2.02878
-0.257222
1.06656
1.94826
2.41524
2.51552
2.31475
1.89115
1.32914
0.712474
0.11747
-0.392699
-0.772229
-0.994996
-1.05486
-0.964073
-0.750129
-0.451393
-0.112082
0.222944
0.513057
0.725963
0.840647
0.84893
0.755509
0.57658
0.337224
0.0679497
-0.199196
-0.434449
-0.613648
-0.72067
-0.748756
-0.700627
-0.587441
-0.426786
-0.239974
-0.0489925
0.126513
0.27184
0.379056
0.447775
0.484714
0.502041
0.514719
0.537227
0.580222
0.647731
0.735473
0.830698
0.913718
0.960954
0.949026
0.859198
0.681368
0.416879
0.0795857
-0.305047
-0.70273
-1.07461
-1.38233
-1.59317
-1.68444
-1.6465
-1.48403
-1.21537
-0.870117
-0.485284
-0.10069
0.245842
0.522811
0.708364
0.792249
0.776233
0.673022
0.503943
0.295751
0.0770283
-0.125331
-0.289143
-0.399112
-0.447986
-0.436618
-0.373045
-0.270784
-0.146613
-0.018196
0.0981834
0.189471
0.24711
0.267624
0.252509
0.207522
0.141512
0.0650112
-0.0112032
-0.0773032
-0.125065
-0.147679
-0.13841
-0.0879665
0.0193755
0.21042
0.527659
1.03269
1.80718
2.9503
4.57193
6.78192
9.67599
13.3201
17.7355
22.8866
28.674
34.9342
41.4466
47.9478
54.1513
59.7705
64.5436
68.2549
70.7531
71.9626
71.8874
70.6073
68.2675
65.0628
61.2176
56.9655
52.5289
48.1023
43.8391
39.8443
36.1727
32.8325
29.7934
26.9978
24.3736
21.8477
19.357
16.8568
14.326
11.7677
9.2059
6.67918
4.23238
1.90738
-0.265407
-2.2736
-4.12647
-5.85519
-7.50946
-9.15079
-10.8425
-12.6362
-14.554
-16.5655
-18.5586
-20.3037
-21.4149
-21.3131
-19.1992
-14.0513
-4.65695
10.3057
32.133
61.9077
100.271
147.178
201.678
261.761
324.307
385.19
439.54
482.165
508.092
513.168
494.645
451.653
385.489
299.664
199.68
92.546
-13.8953
-111.779
-194.038
-255.144
-291.672
-302.607
-289.383
-255.631
-206.691
-148.951
-89.1023
-33.4014
12.9655
46.3552
64.9264
68.6706
59.2292
39.536
13.3429
-15.305
-42.5765
-65.2841
-81.1929
-89.1814
-89.2506
-82.3934
-70.3564
-55.3316
-39.6264
-25.3518
-14.1683
-7.11483
-4.53391
-6.09305
-10.8908
-17.626
-24.802
-30.9392
-34.7653
-35.3641
-32.267
-25.4797
-15.4492
-2.97766
10.8995
25.0545
38.407
50.047
59.3264
65.9125
69.7989
71.2776
70.8805
69.2974
67.2864
65.5847
64.8323
65.5146
67.9284
72.1715
78.1554
85.6339
94.2448
103.556
113.111
122.47
131.241
139.099
145.793
151.148
155.048
157.426
158.24
157.462
155.065
151.017
145.287
137.854
128.729
117.974
105.726
92.2115
77.7588
62.79
47.8044
33.3457
19.9588
8.13889
-1.7184
-9.36198
-14.7163
-17.8943
-19.1898
-19.0477
-18.017
-16.6902
-15.6388
-15.3502
-16.1767
-18.3015
-21.7253
-26.2761
-31.6384
-37.399
-43.1025
-48.3081
-52.6426
-55.8409
-57.7718
-58.4451
-58.0014
-56.6861
-54.8128
-52.7211
-50.7337
-49.1196
-48.066
-47.6636
-47.9036
-48.6886
-49.8525
-51.1878
-52.4755
-53.5135
-54.1402
-54.2512
-53.8064
-52.8282
-51.3914
-49.6074
-47.6038
-45.5043
-43.4095
-41.3838
-39.4463
-37.5713
-35.6939
-33.7226
-31.5568
-29.1052
-26.3042
-23.1324
-19.6197
-15.8488
-11.9502
-8.0892
-4.4485
-1.20784
1.47666
3.4903
4.77274
5.32446
5.20594
4.53
3.44836
2.13436
0.764052
-0.501952
-1.53377
-2.243
-2.58784
-2.57253
-2.2413
-1.6682
-0.944325
-0.164308
0.58613
1.23998
1.75509
2.11611
2.33253
2.43324
2.45897
2.45363
2.45613
2.49352
2.57666
2.69863
2.83616
2.95354
3.00848
2.95893
2.76975
2.41844
1.89898
1.22347
0.421429
-0.463136
-1.37617
-2.25908
-3.05444
-3.71135
-4.18988
-4.46424
-4.52446
-4.37661
-4.04161
-3.55286
-2.95284
-2.2893
-1.61105
-0.964024
-0.38767
0.0877573
0.443019
0.670593
0.774284
0.767818
0.672631
0.515108
0.323581
0.125405
-0.0555899
-0.201049
-0.299278
-0.345619
-0.342031
-0.296012
-0.219035
-0.124724
-0.0269951
0.0616116
0.131254
0.175632
0.192323
0.182605
0.150868
0.103709
0.0488645
-0.00587245
-0.0536232
-0.0891704
-0.109415
-0.113512
-0.102682
-0.0797005
-0.0480596
-0.01078
0.0311623
0.0807789
0.147282
0.248344
0.412024
0.677924
1.09705
1.73
2.64323
3.90349
5.57077
7.69055
10.2863
13.3536
16.8561
20.7256
24.8648
29.1543
33.4618
37.653
41.6025
45.2038
48.3763
51.0694
53.2617
54.9583
56.1833
56.9719
57.3614
57.3828
57.0548
56.3795
55.342
53.9126
52.0514
49.7156
46.869
43.4913
39.5874
35.1946
30.3875
25.2776
20.0091
14.7498
9.67857
4.97005
0.779255
-2.77251
-5.60822
-7.70102
-9.07465
-9.79845
-9.97761
-9.74013
-9.22165
-8.5496
-7.82722
-7.11704
-6.42292
-5.66903
-4.67507
-3.12831
-0.555808
3.69685
10.4709
20.7729
35.7142
56.4047
83.7977
118.494
160.524
209.142
262.664
318.408
372.755
421.364
459.539
482.715
487.014
469.793
430.1
368.974
289.51
196.685
96.9272
-2.49596
-94.23
-171.607
-229.351
-264.129
-274.872
-262.827
-231.347
-185.449
-131.195
-74.983
-22.8388
20.2071
50.5923
66.4926
67.8728
56.3282
34.7506
6.87236
-23.2468
-51.7243
-75.2921
-91.6187
-99.4899
-98.838
-90.6303
-76.6441
-59.1649
-40.6521
-23.4166
-9.34738
0.282805
4.91698
4.71506
0.465764
-6.57127
-14.8669
-22.8383
-29.051
-32.3829
-32.1342
-28.0748
-20.429
-9.80631
2.90775
16.6839
30.4853
43.3913
54.6949
63.9657
71.0738
76.1764
79.6728
82.1348
84.2238
86.6037
89.8608
94.4369
100.584
108.344
117.547
127.842
138.74
149.668
160.032
169.279
176.944
182.689
186.323
187.801
187.206
184.723
180.593
175.076
168.412
160.79
152.333
143.094
133.075
122.245
110.579
98.0916
84.8698
71.094
57.0458
43.0973
29.6843
17.2647
6.26913
-2.95036
-10.1647
-15.2992
-18.4468
-19.8603
-19.9256
-19.1181
-17.9492
-16.9097
-16.4175
-16.7759
-18.1477
-20.5471
-23.8501
-27.8202
-32.1459
-36.4842
-40.5048
-43.9291
-46.5597
-48.2982
-49.1489
-49.2103
-48.655
-47.7031
-46.5919
-45.5453
-44.7489
-44.3311
-44.3532
-44.808
-45.6275
-46.6952
-47.8634
-48.9706
-49.8587
-50.386
-50.4381
-49.933
-48.824
-47.0993
-44.7789
-41.9114
-38.5695
-34.8456
-30.8468
-26.6906
-22.499
-18.3932
-14.4876
-10.8838
-7.66401
-4.88636
-2.58059
-0.746026
0.648104
1.65974
2.36854
2.86832
3.2581
3.6328
4.07457
4.6458
5.3846
6.3032
7.38928
8.60979
9.91661
11.253
12.5601
13.7819
14.8693
15.7817
16.4875
16.9627
17.1893
17.1532
16.8429
16.2484
15.3621
14.1795
12.7021
10.9404
8.91707
6.67022
4.25522
1.74527
-0.77029
-3.19
-5.40653
-7.31477
-8.82104
-9.85227
-10.3643
-10.3477
-9.83117
-8.88062
-7.59502
-6.09863
-4.53066
-3.03317
-1.73877
-0.759168
-0.175969
-0.0345413
-0.341537
-1.0662
-2.14514
-3.48987
-4.99621
-6.55436
-8.05863
-9.41587
-10.5517
-11.4147
-11.9773
-12.2348
-12.2027
-11.9115
-11.402
-10.7196
-9.90987
-9.01434
-8.06855
-7.10089
-6.13301
-5.18116
-4.25806
-3.37488
-2.54279
-1.77392
-1.08146
-0.478894
0.0213133
0.409435
0.680185
0.834085
0.878231
0.826275
0.69758
0.515658
0.306065
0.0940361
-0.0978075
-0.25138
-0.354345
-0.400341
-0.387989
-0.318539
-0.192201
-0.00343093
0.264303
0.643476
1.1862
1.96558
3.07374
4.61576
6.69952
9.42197
12.8533
17.0208
21.8958
27.3842
33.3241
39.491
45.6107
51.3784
56.4838
60.6376
63.5986
65.1966
65.3492
64.0702
61.4684
57.7369
53.1343
47.9596
42.5239
37.1222
32.0085
27.3767
23.3488
19.9714
17.2202
15.0116
13.2187
11.6911
10.2744
8.82834
7.24194
5.444
3.40837
1.15412
-1.25911
-3.73962
-6.17495
-8.44439
-10.4313
-12.0335
-13.1701
-13.7819
-13.8248
-13.2532
-11.9925
-9.9027
-6.73535
-2.09097
4.61369
14.1563
27.4843
45.644
69.6558
100.339
138.096
182.69
233.043
287.105
341.832
393.315
437.059
468.401
483.041
477.597
450.127
400.52
330.696
244.567
147.746
47.0374
-50.243
-137.025
-207.227
-256.386
-282.101
-284.232
-264.842
-227.881
-178.685
-123.328
-67.9376
-18.0423
21.9721
49.2336
62.5563
62.4064
50.6822
30.3496
4.98857
-21.6884
-46.2846
-66.0842
-79.299
-85.1769
-83.9731
-76.8004
-65.3894
-51.7958
-38.0973
-26.1186
-17.2166
-12.1468
-11.0203
-13.3483
-18.1597
-24.1705
-29.9785
-34.2564
-35.9191
-34.2469
-28.9523
-20.1889
-8.50422
5.25077
20.0422
34.7865
48.4789
60.3041
69.7164
76.4837
80.6927
82.7178
83.16
82.7636
82.3229
82.5887
84.1852
87.5469
92.8791
100.147
109.094
119.276
130.125
141.014
151.324
160.509
168.142
173.946
177.799
179.724
179.855
178.398
175.577
171.593
166.584
160.605
153.624
145.539
136.213
125.519
113.39
99.865
85.1235
69.4968
53.4584
37.5896
22.5244
8.88112
-2.80954
-12.1694
-19.021
-23.4119
-25.6102
-26.0729
-25.3907
-24.2165
-23.1888
-22.8586
-23.631
-25.7259
-29.1657
-33.7859
-39.2698
-45.1987
-51.1109
-56.5626
-61.1805
-64.7023
-66.9995
-68.0816
-68.0831
-67.2349
-65.8276
-64.1694
-62.5462
-61.1883
-60.2473
-59.7848
-59.7741
-60.1126
-60.6426
-61.1771
-61.5265
-61.523
-61.0396
-60.0015
-58.3899
-56.2382
-53.6216
-50.6431
-47.4173
-44.0548
-40.6496
-37.2704
-33.9568
-30.7211
-27.5542
-24.4344
-21.3384
-18.2515
-15.1759
-12.136
-9.17885
-6.37117
-3.79227
-1.5244
0.357941
1.79835
2.76682
3.265
3.32763
3.02001
2.43203
1.66945
0.843559
0.0605634
-0.588199
-1.0342
-1.23704
-1.18677
-0.903077
-0.431592
0.16221
0.800849
1.40357
1.8951
2.21362
2.31712
2.1876
1.83267
1.28433
0.595262
-0.167264
-0.928893
-1.61644
-2.16586
-2.52898
-2.67835
-2.60947
-2.34046
-1.90901
-1.36737
-0.775812
-0.195531
0.318101
0.721248
0.985592
1.10025
1.07154
0.920769
0.680464
0.389621
0.0886061
-0.185627
-0.403482
-0.545416
-0.603172
-0.579553
-0.486889
-0.344512
-0.175658
-0.00420915
0.148296
0.265046
0.335515
0.356072
0.329687
0.264838
0.173871
0.0710376
-0.02948
-0.115332
-0.177345
-0.210322
-0.213268
-0.189059
-0.143666
-0.0850777
-0.0220777
0.036939
0.0849786
0.117176
0.131179
0.127172
0.107585
0.0765463
0.0391838
0.000872866
-0.0334652
-0.0599336
-0.0760405
-0.080863
-0.0749956
-0.0603144
-0.0396036
-0.0161034
0.00697279
0.0269401
0.0422121
0.0530725
0.0628348
0.0795592
0.118368
0.20417
0.374325
0.680582
1.18951
1.98086
3.14342
4.76857
6.94192
9.73386
13.19
17.3229
22.1052
27.4668
33.2947
39.4368
45.7095
51.9081
57.819
63.2327
67.957
71.8281
74.7201
76.5515
77.2886
76.9455
75.5807
73.2909
70.2023
66.4599
62.217
57.6241
52.8199
47.925
43.0375
38.232
33.5615
29.06
24.7475
20.6345
16.7262
13.0258
9.53675
6.26352
3.21191
0.388341
-2.20105
-4.55152
-6.66087
-8.53048
-10.1664
-11.5798
-12.787
-13.8067
-14.6546
-15.3317
-15.8061
-15.9859
-15.6842
-14.5782
-12.1687
-7.74862
-0.391764
11.0219
27.7337
50.976
81.7855
120.771
167.862
222.084
281.394
342.643
401.684
453.655
493.419
516.115
517.771
495.87
449.81
381.155
293.644
192.937
86.1083
-19.0467
-114.812
-194.357
-252.443
-285.949
-294.147
-278.699
-243.383
-193.594
-135.686
-76.2392
-21.3457
23.9975
56.3327
73.9739
77.0199
67.1605
47.3182
21.1804
-7.31199
-34.454
-57.1882
-73.3956
-82.0423
-83.1781
-77.801
-67.6183
-54.7426
-41.3682
-29.47
-20.56
-15.5291
-14.5833
-17.2765
-22.6251
-29.2821
-35.7447
-40.5638
-42.5307
-40.8189
-35.0663
-25.3944
-12.3663
3.10556
19.887
36.766
52.595
66.4146
77.5461
85.6443
90.7087
93.0552
93.2555
92.0537
90.272
88.7161
88.092
88.9395
91.591
96.1547
102.522
110.399
119.35
128.851
138.354
147.334
155.338
162.015
167.133
170.579
172.342
172.488
171.124
168.367
164.31
159.002
152.441
144.586
135.373
124.752
112.723
99.3765
84.9139
69.6641
54.0744
38.6824
24.071
10.811
-0.60021
-9.79588
-16.5832
-20.9679
-23.1545
-23.5243
-22.5908
-20.9416
-19.1724
-17.8221
-17.318
-17.936
-19.7818
-22.7929
-26.7613
-31.3707
-36.2454
-41.0013
-45.2935
-48.8549
-51.5216
-53.242
-54.0713
-54.1524
-53.6873
-52.9037
-52.0209
-51.2215
-50.6295
-50.2995
-50.2161
-50.3029
-50.4395
-50.483
-50.2898
-49.7372
-48.7384
-47.2526
-45.2875
-42.8947
-40.1605
-37.1926
-34.1051
-31.0047
-27.9794
-25.0911
-22.3726
-19.8293
-17.445
-15.1903
-13.0323
-10.9437
-8.91007
-6.9349
-5.04011
-3.26378
-1.65467
-0.264732
0.859286
1.68387
2.19528
2.40384
2.34521
2.07864
1.68231
1.24618
0.86314
0.619396
0.585082
0.806244
1.29913
2.04757
3.00392
4.09345
5.22184
6.2848
7.17861
7.81045
8.10708
8.0212
7.53483
6.65981
5.43564
3.92523
2.20949
0.381001
-1.46224
-3.22307
-4.81081
-6.14646
-7.16705
-7.82915
-8.11143
-8.01597
-7.56831
-6.81604
-5.82588
-4.67918
-3.46607
-2.27851
-1.20281
-0.312212
0.339506
0.72281
0.834806
0.698886
0.361573
-0.113149
-0.651357
-1.17766
-1.6236
-1.93491
-2.07687
-2.03705
-1.82536
-1.47135
-1.01941
-0.522527
-0.0353212
0.392485
0.721603
0.927014
0.999776
0.946751
0.788439
0.55536
0.283529
0.00968618
-0.233138
-0.419183
-0.532305
-0.56693
-0.527621
-0.427463
-0.285563
-0.124078
0.0348365
0.17175
0.272067
0.327313
0.33553
0.300824
0.232206
0.141939
0.0436704
-0.0494271
-0.126245
-0.178906
-0.203403
-0.199665
-0.171081
-0.123517
-0.0638615
0.00186997
0.0708468
0.146087
0.239303
0.373634
0.585786
0.927021
1.46237
2.26762
3.42379
5.00942
7.09124
9.71433
12.8931
16.6044
20.7845
25.3294
30.1007
34.9352
39.6571
44.0926
48.0843
51.5036
54.2596
56.3041
57.6311
58.2723
58.2881
57.7567
56.7619
55.3825
53.6827
51.7078
49.4828
47.0148
44.2999
41.3308
38.1056
34.6359
30.9518
27.1042
23.1637
19.215
15.3504
11.6599
8.22246
5.09785
2.32109
-0.100279
-2.18578
-3.97862
-5.54026
-6.94357
-8.26539
-9.57845
-10.9423
-12.392
-13.9222
-15.4657
-16.8643
-17.8345
-17.9291
-16.5056
-12.7086
-5.48075
6.385
24.1426
48.9359
81.5938
122.399
170.857
225.519
283.883
342.434
396.833
442.259
473.887
487.435
479.723
449.157
396.069
322.848
233.824
134.933
33.1581
-64.1561
-150.048
-218.651
-265.778
-289.319
-289.393
-268.256
-229.974
-179.907
-124.083
-68.5253
-18.6263
21.3651
48.6946
62.2579
62.5586
51.4876
31.9665
7.50516
-18.2641
-42.0212
-61.1118
-73.7854
-79.3013
-77.9009
-70.6635
-59.2735
-45.7374
-32.0886
-20.1199
-11.1734
-6.00908
-4.76144
-6.98064
-11.7453
-17.8255
-23.8704
-28.5949
-30.9408
-30.1953
-26.0556
-18.6357
-8.4206
3.82332
17.1655
30.6401
43.3697
54.6674
64.1084
71.5614
77.1813
81.3647
84.6768
87.7614
91.2459
95.6536
101.336
108.428
116.838
126.267
136.247
146.212
155.566
163.757
170.343
175.035
177.721
178.465
177.479
175.08
171.634
167.494
162.946
158.165
153.192
147.93
142.168
135.612
127.948
118.897
108.279
96.0616
82.3884
67.5903
52.1646
36.7314
21.9696
8.54256
-2.97896
-12.1838
-18.8689
-23.0629
-25.0211
-25.1926
-24.1656
-22.596
-21.1311
-20.337
-20.6388
-22.2808
-25.3099
-29.5843
-34.8039
-40.5574
-46.3802
-51.8141
-56.4623
-60.033
-62.3668
-63.4459
-63.3859
-62.4111
-60.819
-58.9376
-57.0829
-55.5201
-54.4344
-53.9134
-53.9433
-54.418
-55.1594
-55.9452
-56.5417
-56.7352
-56.3593
-55.3144
-53.5777
-51.2016
-48.3031
-45.0449
-41.6108
-38.1809
-34.9072
-31.8963
-29.1977
-26.8031
-24.6527
-22.6503
-20.6829
-18.6416
-16.4425
-14.0418
-11.4448
-8.707
-5.92749
-3.23543
-0.77226
1.32808
2.95773
4.04981
4.58759
4.60677
4.19076
3.45986
2.5559
1.62473
0.798891
0.182734
-0.158082
-0.201653
0.0309706
0.482
1.06742
1.69014
2.25401
2.67661
2.89943
2.89404
2.66391
2.2417
1.68286
1.05659
0.435613
-0.113811
-0.540211
-0.8126
-0.922953
-0.885366
-0.732313
-0.508735
-0.265002
-0.0497977
0.0960568
0.144096
0.0805728
-0.0933721
-0.363482
-0.705557
-1.08938
-1.48271
-1.85479
-2.17901
-2.43462
-2.60744
-2.68987
-2.68041
-2.58289
-2.4056
-2.16046
-1.86225
-1.52783
-1.17528
-0.823045
-0.488927
-0.189007
0.0633839
0.2586
0.391365
0.461128
0.472009
0.432329
0.353751
0.250123
0.136128
0.0258787
-0.0683944
-0.137447
-0.175785
-0.182018
-0.158756
-0.112055
-0.0504826
0.01608
0.0777574
0.125937
0.154309
0.159558
0.141636
0.1036
0.0511012
-0.00833959
-0.0660276
-0.112523
-0.137568
-0.129392
-0.0734249
0.0493735
0.264203
0.603693
1.10828
1.82535
2.80687
4.10567
5.7705
7.84059
10.3404
13.2751
16.628
20.3589
24.4054
28.6836
33.0913
37.5107
41.8113
45.854
49.4955
52.5948
55.0205
56.6597
57.4271
57.2742
56.1952
54.2312
51.4696
48.0393
44.1018
39.8389
35.4388
31.0809
26.9227
23.0887
19.6625
16.6834
14.1471
12.0095
10.1949
8.60509
7.13063
5.66274
4.10437
2.38014
0.444179
-1.71479
-4.0716
-6.5662
-9.10829
-11.5844
-13.8659
-15.8154
-17.2898
-18.1356
-18.1755
-17.184
-14.8557
-10.7679
-4.34979
5.13309
18.5652
36.925
61.1791
92.125
130.191
175.217
226.249
281.385
337.731
391.484
438.175
473.065
491.654
490.253
466.526
419.934
351.992
266.296
168.285
64.7653
-36.7495
-128.816
-204.842
-259.782
-290.646
-296.781
-279.866
-243.65
-193.46
-135.556
-76.4122
-22.009
22.7636
54.5437
71.7267
74.4746
64.5224
44.819
19.061
-8.81821
-35.1358
-56.8699
-71.9486
-79.3938
-79.3167
-72.7784
-61.5462
-47.7857
-33.7325
-21.3884
-12.276
-7.28003
-6.58451
-9.70814
-15.6224
-22.9309
-30.0818
-35.5835
-38.195
-37.0707
-31.8437
-22.6433
-10.0489
5.00695
21.3728
37.8282
53.231
66.6447
77.4317
85.304
90.3297
92.897
93.6426
93.3576
92.881
92.9962
94.3414
97.3436
102.182
108.786
116.858
125.924
135.404
144.679
153.168
160.38
165.958
169.698
171.543
171.56
169.907
166.79
162.417
156.962
150.542
143.208
134.95
125.716
115.451
104.13
91.7931
78.5819
64.7485
50.6573
36.7642
23.5808
11.625
1.36583
-6.83112
-12.7498
-16.3555
-17.8064
-17.4447
-15.7649
-13.365
-10.8854
-8.94107
-8.05873
-8.62284
-10.8394
-14.7206
-20.0919
-26.6199
-33.8572
-41.2978
-48.4365
-54.8236
-60.1108
-64.0814
-66.6633
-67.9243
-68.0516
-67.319
-66.0476
-64.5636
-63.1604
-62.0679
-61.432
-61.3067
-61.6578
-62.3761
-63.2994
-64.2376
-64.9989
-65.4138
-65.3531
-64.7405
-63.5556
-61.8318
-59.6458
-57.1041
-54.3256
-51.4253
-48.4986
-45.6106
-42.7893
-40.0258
-37.2793
-34.4882
-31.5834
-28.504
-25.2115
-21.7018
-18.0113
-14.2181
-10.4362
-6.80479
-3.47294
-0.582804
1.7473
3.43709
4.45416
4.81805
4.59834
3.90688
2.88553
1.69086
0.477947
-0.614772
-1.47796
-2.03977
-2.26961
-2.17712
-1.80706
-1.2308
-0.535941
0.184893
0.844667
1.37093
1.7124
1.8427
1.76104
1.49019
1.072
0.561257
0.0186954
-0.496164
-0.931427
-1.24791
-1.42243
-1.44904
-1.33824
-1.11445
-0.812081
-0.470797
-0.130643
0.172495
0.410535
0.565607
0.631076
0.61115
0.519282
0.375633
0.204014
0.028702
-0.128473
-0.250444
-0.326412
-0.352444
-0.331177
-0.270755
-0.183223
-0.0826103
0.0170182
0.1033
0.166919
0.202421
0.208471
0.187562
0.145289
0.0893098
0.0281622
-0.0298975
-0.0778988
-0.110891
-0.126343
-0.124204
-0.106639
-0.0775171
-0.0417471
-0.00454562
0.0292503
0.0557501
0.0723978
0.0781501
0.0734463
0.0599941
0.0404199
0.0178402
-0.00458279
-0.0240433
-0.0384073
-0.0464093
-0.047719
-0.0428834
-0.0331645
-0.0203044
-0.00625528
0.00708864
0.0181241
0.0257151
0.0293153
0.0290789
0.026062
0.0226696
0.0235176
0.0368207
0.0762885
0.163328
0.32916
0.616287
1.07868
1.78003
2.78974
4.17643
5.99955
8.29989
11.0904
14.3489
18.0137
21.984
26.1248
30.2759
34.2644
37.9191
41.0838
43.6296
45.4627
46.5286
46.8115
46.3309
45.1341
43.2893
40.8771
37.9844
34.6995
31.1095
27.2999
23.3553
19.3608
15.4033
11.5722
7.95825
4.65196
1.73965
-0.700653
-2.60409
-3.92382
-4.63558
-4.74176
-4.27466
-3.29829
-1.90779
-0.224487
1.6156
3.48251
5.2843
7.01087
8.78743
10.9322
14.008
18.8557
26.5905
38.5495
56.1739
80.8267
113.552
154.802
204.168
260.168
320.139
380.281
435.872
481.671
512.45
523.614
511.833
475.565
415.423
334.287
237.154
130.714
22.7034
-78.8849
-166.643
-234.527
-278.477
-296.808
-290.315
-262.099
-217.132
-161.63
-102.318
-45.6778
2.73124
38.7994
60.1902
66.4358
58.8114
40.0182
13.7306
-15.9286
-44.9146
-69.727
-87.7642
-97.5346
-98.7127
-92.0491
-79.1579
-62.2225
-43.6619
-25.8038
-10.6033
0.561583
7.00116
8.72728
6.377
1.06548
-5.80623
-12.7598
-18.4371
-21.7624
-22.0535
-19.0718
-13.0119
-4.43824
5.81928
16.7923
27.5068
37.1038
44.9351
50.6239
54.0865
55.5167
55.3377
54.1304
52.5499
51.2406
50.7607
51.5241
53.7643
57.5241
62.6669
68.9087
75.8624
83.089
90.1479
96.6416
102.248
106.738
109.983
111.941
112.641
112.151
110.551
107.91
104.266
99.6203
93.9492
87.22
79.42
70.5861
60.8312
50.3614
39.4788
28.5694
18.0754
8.45522
0.137884
-6.52364
-11.2926
-14.0768
-14.942
-14.1079
-11.9283
-8.85829
-5.41144
-2.11397
0.540875
2.13288
2.34593
0.987951
-2.00159
-6.5561
-12.497
-19.5572
-27.4106
-35.7035
-44.0855
-52.2379
-59.8949
-66.8597
-73.0107
-78.3019
-82.755
-86.4466
-89.4913
-92.0229
-94.1763
-96.0708
-97.797
-99.4087
-100.918
-102.298
-103.486
-104.392
-104.91
-104.93
-104.346
-103.068
-101.031
-98.1964
-94.5625
-90.1606
-85.0581
-79.3556
-73.1826
-66.6912
-60.048
-53.4234
-46.9808
-40.8652
-35.1932
-30.0455
-25.4628
-21.4465
-17.963
-14.9524
-12.3393
-10.0443
-7.99559
-6.13729
-4.4351
-2.87772
-1.47452
-0.249947
0.764164
1.53709
2.04718
2.28805
2.27218
2.03157
1.61537
1.08508
0.508067
-0.0496423
-0.530228
-0.88974
-1.10185
-1.15935
-1.07326
-0.869967
-0.586658
-0.265976
0.049561
0.322599
0.524887
0.639743
0.662878
0.601626
0.472841
0.299832
0.10883
-0.0745497
-0.2284
-0.336832
-0.391305
-0.390904
-0.341637
-0.254954
-0.145741
-0.0300931
0.0768178
0.162542
0.218616
0.241198
0.231052
0.192965
0.134713
0.0657719
-0.00405514
-0.0659008
-0.112847
-0.140585
-0.14768
-0.135443
-0.107474
-0.0689677
-0.0258888
0.015858
0.0511644
0.0762756
0.0891186
0.0893835
0.0783751
0.0586773
0.033692
0.00712409
-0.017516
-0.0373338
-0.0503488
-0.0556468
-0.0533813
-0.044641
-0.0312132
-0.0152851
0.00087405
0.015207
0.0261048
0.0325612
0.0342359
0.0314261
0.0249613
0.016043
0.00605385
-0.00363359
-0.0118194
-0.017576
-0.0202404
-0.0192401
-0.013684
-0.00165514
0.0208262
0.0611384
0.131586
0.250936
0.445728
0.751089
1.21083
1.87662
2.80604
4.05961
5.69674
7.77082
10.324
13.3818
16.9485
21.0039
25.5007
30.3645
35.4948
40.7677
46.0398
51.1531
55.941
60.2352
63.8731
66.7071
68.6126
69.4975
69.3093
68.0409
65.7337
62.4769
58.4032
53.6806
48.5015
43.0697
37.5866
32.2378
27.1816
22.5407
18.3964
14.7872
11.71
9.12483
6.96176
5.12923
3.52367
2.03925
0.57718
-0.94611
-2.59254
-4.39831
-6.37257
-8.49891
-10.7394
-13.04
-15.3352
-17.5493
-19.5903
-21.3329
-22.5907
-23.0756
-22.353
-19.7989
-14.5746
-5.63225
8.23174
28.266
55.5924
90.9837
134.612
185.81
242.883
303.036
362.434
416.444
460.027
488.268
496.964
483.212
445.883
385.93
306.456
212.524
110.715
8.49284
-86.5675
-167.569
-229.019
-267.385
-281.432
-272.286
-243.227
-199.253
-146.468
-91.3708
-40.1472
1.9673
31.1699
45.3801
44.313
29.3455
3.2077
-30.4503
-67.5522
-104.088
-136.546
-162.241
-179.506
-187.751
-187.378
-179.602
-166.189
-149.175
-130.58
-112.177
-95.3132
-80.8199
-68.9955
-59.662
-52.2741
-46.0604
-40.175
-33.8369
-26.4411
-17.6308
-7.32442
4.29906
16.8513
29.8104
42.6086
54.7186
65.7278
75.3893
83.6468
90.6304
96.6273
102.032
107.286
112.812
118.955
125.942
133.85
142.6
151.978
161.659
171.255
180.365
188.616
195.706
201.428
205.682
208.464
209.849
209.961
208.931
206.869
203.831
199.799
194.68
188.316
180.51
171.063
159.819
146.71
131.791
115.27
97.5142
79.0405
60.4838
42.5491
25.9512
11.3484
-0.719855
-9.88627
-15.9908
-19.0949
-19.4726
-17.5794
-14.0035
-9.40469
-4.44945
0.251776
4.19662
7.02792
8.55242
8.74046
7.70828
5.68656
2.98001
-0.0763557
-3.15912
-5.99175
-8.37006
-10.1759
-11.3792
-12.0285
-12.2342
-12.1454
-11.9259
-11.7309
-11.6877
-11.8837
-12.3595
-13.1099
-14.0908
-15.2301
-16.4406
-17.6343
-18.7334
-19.6798
-20.4398
-21.0043
-21.3858
-21.6116
-21.7149
-21.7264
-21.6651
-21.5327
-21.3099
-20.9568
-20.4169
-19.6242
-18.5123
-17.0247
-15.1243
-12.8011
-10.0771
-7.00711
-3.67543
-0.189757
3.32837
6.75431
9.97144
12.8811
15.4103
17.5164
19.1882
20.4438
21.325
21.8902
22.2052
22.3346
22.3342
22.2447
22.0883
21.8683
21.5708
21.1692
20.6294
19.9174
19.0046
17.8741
16.5244
14.971
13.2463
11.3973
9.4812
7.56006
5.69528
3.9416
2.34234
0.925584
-0.297876
-1.33496
-2.20894
-2.95648
-3.62348
-4.26
-4.91494
-5.63091
-6.43985
-7.35982
-8.39333
-9.52722
-10.7343
-11.9761
-13.207
-14.3788
-15.4449
-16.3648
-17.1069
-17.6509
-17.9881
-18.1213
-18.0626
-17.8314
-17.4517
-16.9486
-16.3467
-15.6679
-14.9307
-14.1496
-13.3362
-12.4998
-11.6481
-10.7888
-9.92906
-9.07644
-8.23794
-7.41963
-6.62611
-5.86016
-5.12282
-4.41395
-3.73301
-3.08014
-2.45712
-1.86803
-1.31947
-0.820229
-0.380364
-0.00993655
0.282524
0.49153
0.615929
0.659849
0.633251
0.552123
0.438367
0.319422
0.22762
0.199256
0.273386
0.490397
0.890475
1.51209
2.39059
3.55687
5.03606
6.84617
8.99641
11.4854
14.2992
17.4095
20.7723
24.3275
27.9991
31.6968
35.3187
38.7545
41.8893
44.6086
46.8031
48.374
49.2394
49.3396
48.6429
47.1509
44.901
41.968
38.4623
34.5245
30.3171
26.0145
21.7894
17.8003
14.1793
11.0224
8.38299
6.26991
4.64939
3.4514
2.57901
1.91985
1.35804
0.785326
0.10999
-0.737024
-1.79876
-3.09076
-4.59976
-6.28027
-8.04668
-9.75893
-11.2008
-12.0517
-11.8557
-9.99385
-5.66837
2.08876
14.3726
32.3174
56.9595
89.0554
128.87
175.962
229.003
285.671
342.664
395.853
440.591
472.154
486.273
479.693
450.67
399.344
327.902
240.508
142.99
42.2957
-54.1892
-139.41
-207.377
-253.79
-276.459
-275.488
-253.188
-213.745
-162.694
-106.259
-50.6543
-1.42072
37.1105
62.1866
72.7921
69.5985
54.7238
31.3479
3.23931
-25.741
-52.0981
-73.072
-86.8814
-92.8244
-91.2372
-83.3313
-70.9398
-56.2139
-41.312
-28.1215
-18.0443
-11.8669
-9.72325
-11.1452
-15.1856
-20.5906
-25.9956
-30.1159
-31.9091
-30.6927
-26.2038
-18.6023
-8.41941
3.53465
16.2904
28.8489
40.3051
49.9518
57.3537
62.3849
65.2289
66.344
66.3993
66.1904
66.5446
68.2274
71.8577
77.8432
86.3393
97.236
110.172
124.574
139.715
154.782
168.952
181.462
191.664
199.074
203.396
204.527
202.55
197.706
190.361
180.96
169.982
157.895
145.118
131.996
118.788
105.666
92.7321
80.0413
67.6334
55.5609
43.911
32.8174
22.4585
13.0417
4.77717
-2.1549
-7.63726
-11.6429
-14.2514
-15.6503
-16.1219
-16.016
-15.7123
-15.5786
-15.9306
-16.9977
-18.9008
-21.6434
-25.1172
-29.121
-33.3889
-37.6256
-41.5413
-44.8859
-47.4744
-49.2044
-50.0627
-50.1215
-49.5248
-48.4687
-47.1763
-45.8721
-44.758
-43.993
-43.6795
-43.8572
-44.5033
-45.5405
-46.8499
-48.2873
-49.7013
-50.9492
-51.9105
-52.4947
-52.6446
-52.3336
-51.5596
-50.3374
-48.6898
-46.6418
-44.216
-41.4327
-38.3121
-34.8784
-31.166
-27.2236
-23.1178
-18.9332
-14.7697
-10.7371
-6.94723
-3.50496
-0.499424
2.00357
3.96677
5.38377
6.27821
6.70013
6.72003
6.42175
5.89481
5.22742
4.50069
3.78439
3.13457
2.59257
2.18528
1.92609
1.81611
1.84538
1.99408
2.23355
2.52763
2.83433
3.10808
3.30285
3.37579
3.29149
3.02616
2.57139
1.93677
1.15077
0.259548
-0.676496
-1.58833
-2.40549
-3.06409
-3.5147
-3.72901
-3.70428
-3.46478
-3.05991
-2.55892
-2.04281
-1.59434
-1.28743
-1.17731
-1.29293
-1.6327
-2.16421
-2.82816
-3.54597
-4.23008
-4.79543
-5.17053
-5.30643
-5.18259
-4.80857
-4.22177
-3.48159
-2.66095
-1.83659
-1.07954
-0.446998
0.0233608
0.31603
0.43723
0.4117
0.277462
0.0794468
-0.137006
-0.331925
-0.475063
-0.548435
-0.546938
-0.477197
-0.355026
-0.202012
-0.0417687
0.10358
0.216283
0.284886
0.305086
0.279526
0.216711
0.129332
0.0323753
-0.0586109
-0.128719
-0.164111
-0.151569
-0.0772452
0.0751355
0.326216
0.702612
1.23768
1.97108
2.94681
4.20986
5.80147
7.75365
10.0836
12.7883
15.8413
19.1906
22.7596
26.4507
30.1512
33.7411
37.1027
40.1291
42.7327
44.8516
46.453
47.5344
48.1205
48.2592
48.0141
47.4569
46.6589
45.6836
44.5801
43.3798
42.0936
40.7133
39.2143
37.5613
35.7149
33.6386
31.3064
28.7087
25.8558
22.7796
19.5315
16.1775
12.7917
9.44728
6.20856
3.1233
0.217956
-2.50419
-5.06139
-7.48875
-9.83115
-12.1353
-14.4417
-16.7785
-19.1558
-21.5616
-23.9555
-26.2586
-28.3366
-29.9733
-30.8364
-30.4387
-28.1025
-22.9406
-13.867
0.347354
20.9639
49.1078
85.5506
130.466
183.196
242.064
304.3
366.091
422.802
469.355
500.738
512.593
501.792
466.938
408.694
329.887
235.357
131.557
25.9408
-73.7878
-160.464
-228.204
-272.996
-293.073
-289.028
-263.658
-221.568
-168.594
-111.109
-55.3229
-6.62941
30.8957
54.8184
64.4551
60.7738
46.1142
23.7766
-2.46269
-28.8429
-52.0596
-69.6066
-79.9859
-82.7744
-78.5533
-68.7198
-55.219
-40.2337
-25.8774
-13.9267
-5.62398
-1.56758
-1.69597
-5.35786
-11.4514
-18.6082
-25.3936
-30.4977
-32.8915
-31.9335
-27.4184
-19.5656
-8.95711
3.56388
17.0168
30.4127
42.8721
53.7193
62.5433
69.2225
73.9124
77.0033
79.0541
80.7133
82.6367
85.4117
89.4953
95.1713
102.53
111.47
121.716
132.86
144.404
155.809
166.551
176.16
184.252
190.553
194.907
197.265
197.676
196.253
193.147
188.516
182.496
175.181
166.618
156.809
145.736
133.383
119.778
105.024
89.3285
73.0126
56.5085
40.3325
25.0425
11.1827
-0.775676
-10.4899
-17.788
-22.6911
-25.4139
-26.3401
-25.9785
-24.9045
-23.6947
-22.8646
-22.8155
-23.7975
-25.8933
-29.0225
-32.9643
-37.3962
-41.9414
-46.2184
-49.8878
-52.6894
-54.4664
-55.1755
-54.882
-53.7423
-51.9772
-49.84
-47.584
-45.433
-43.5591
-42.0685
-40.9972
-40.3157
-39.9412
-39.7548
-39.6216
-39.4095
-39.0055
-38.3278
-37.3316
-36.0095
-34.3863
-32.5109
-30.4456
-28.2551
-25.9975
-23.7178
-21.4447
-19.1914
-16.9595
-14.7451
-12.5455
-10.3654
-8.22176
-6.14564
-4.18099
-2.38089
-0.801381
0.505801
1.50059
2.16082
2.48635
2.50053
2.24868
1.79392
1.21083
0.577882
-0.0304329
-0.55073
-0.93628
-1.16038
-1.21722
-1.12034
-0.898954
-0.592819
-0.246311
0.0974573
0.401782
0.640192
0.798554
0.875315
0.879945
0.829934
0.746866
0.652223
0.563608
0.491988
0.440378
0.40413
0.372762
0.332946
0.272138
0.182142
0.0619507
-0.0807332
-0.229653
-0.361912
-0.451407
-0.473289
-0.408707
-0.249057
0.00105399
0.322694
0.683678
1.04179
1.34977
1.56145
1.63814
1.55433
1.30197
0.892519
0.356458
-0.259673
-0.898444
-1.49819
-2.00031
-2.35616
-2.53273
-2.51633
-2.31384
-1.95141
-1.4709
-0.924568
-0.368693
0.142954
0.565036
0.865273
1.02727
1.05132
0.953141
0.760888
0.510755
0.241894
-0.00872997
-0.210848
-0.344192
-0.400221
-0.382115
-0.303176
-0.183962
-0.0486625
0.0786965
0.177689
0.234091
0.241367
0.200926
0.12123
0.0159864
-0.098237
-0.204562
-0.288108
-0.337672
-0.346481
-0.311828
-0.233609
-0.111973
0.0555094
0.276582
0.566361
0.948181
1.45293
2.11681
2.97789
4.07185
5.42789
7.06549
8.99263
11.206
13.6931
16.4354
19.4121
22.6038
25.9938
29.5682
33.3135
37.2119
41.2362
45.3433
49.4694
53.5266
57.4021
60.9608
64.0517
66.5169
68.2038
68.9789
68.7418
67.4372
65.0647
61.6839
57.4138
52.4263
46.9349
41.1776
35.3985
29.827
24.66
20.0461
16.0763
12.7795
10.1254
8.03234
6.37984
5.0242
3.8146
2.60827
1.28303
-0.25384
-2.06098
-4.16229
-6.54977
-9.1889
-12.0256
-14.9933
-18.0195
-21.0293
-23.9433
-26.6687
-29.0796
-30.9863
-32.0942
-31.9574
-29.9362
-25.1709
-16.5863
-2.94355
17.051
44.576
80.4723
124.989
177.534
236.476
299.045
361.383
418.757
465.954
497.809
509.822
498.769
463.227
403.914
323.797
227.914
122.949
16.5728
-83.3428
-169.549
-236.18
-279.345
-297.483
-291.454
-264.338
-220.998
-167.465
-110.221
-55.4759
-8.52789
26.7315
48.1092
55.1866
49.1854
32.657
9.04801
-17.7959
-44.1224
-66.7032
-83.1565
-92.1345
-93.3652
-87.5606
-76.2133
-61.321
-45.0778
-29.5749
-16.5471
-7.19087
-2.06974
-1.11025
-3.6786
-8.72079
-14.9417
-20.9964
-25.6685
-28.0138
-27.4543
-23.8162
-17.3117
-8.4726
1.95094
13.1103
24.18
34.4649
43.4801
50.9956
57.0426
61.8834
65.953
69.7808
73.9063
78.7986
84.7927
92.0473
100.53
110.031
120.193
130.567
140.671
150.047
158.313
165.201
170.573
174.421
176.849
178.038
178.203
177.549
176.226
174.298
171.728
168.371
163.999
158.329
151.075
141.997
130.951
117.942
103.144
86.9122
69.7713
52.3736
35.4439
19.7083
5.81967
-5.71174
-14.5726
-20.6785
-24.1788
-25.4344
-24.971
-23.4137
-21.4134
-19.573
-18.3835
-18.1771
-19.1033
-21.1277
-24.0548
-27.567
-31.2768
-34.7823
-37.7196
-39.8058
-40.8681
-40.8557
-39.8353
-37.9726
-35.5022
-32.6919
-29.8067
-27.076
-24.6694
-22.6821
-21.1322
-19.9674
-19.0814
-18.3349
-17.5797
-16.6806
-15.5341
-14.0806
-12.3087
-10.2531
-7.98504
-5.59915
-3.19711
-0.871605
1.30766
1.30766
1.30766
1.30766
1.30766
1.30766
1.30766
1.30766
1.30766
1.30766
1.30766
1.30766
1.30766
1.30766
1.30766
1.30766
1.30766
1.30766
1.30766
1.30766
