-152.564
-96.2465
-34.4225
30.435
95.2863
156.78
211.565
256.626
289.595
309.002
314.441
306.608
287.233
258.896
224.756
188.225
152.626
120.877
95.2218
77.0628
66.8767
64.243
67.9632
76.2561
87.0024
98.0086
107.259
113.128
114.537
111.031
102.783
90.5243
75.4205
58.9012
42.4769
27.5593
15.3064
6.50931
1.52884
0.286866
2.30811
6.80423
12.7872
19.197
25.0275
29.4367
31.8292
31.9042
29.6656
25.3953
19.5975
12.921
6.07102
-0.277739
-5.55718
-9.36285
-11.4866
-11.9231
-10.8523
-8.6009
-5.59056
-2.27985
0.892808
3.55808
5.45151
6.43323
6.49064
5.72564
4.32938
2.54887
0.650507
-1.11487
-2.5412
-3.48772
-3.8892
-3.75575
-3.16323
-2.23665
-1.12913
0.00024508
1.007
1.77775
2.24108
2.37189
2.18961
1.7509
1.13858
0.448387
-0.224434
-0.797032
-1.20804
-1.423
-1.43579
-1.26639
-0.95555
-0.557494
-0.131619
0.265506
0.586956
0.80033
0.890272
0.858595
0.722219
0.509439
0.255154
-0.00422605
-0.235521
-0.412612
-0.518975
-0.548741
-0.506302
-0.404666
-0.262909
-0.103128
0.0526459
0.185163
0.279909
0.327974
0.325593
0.272271
0.167596
0.00718281
-0.221582
-0.543062
-0.995246
-1.6292
-2.50571
-3.68927
-5.23998
-7.2046
-9.60801
-12.4467
-15.6852
-19.2563
-23.0653
-26.9956
-30.9174
-34.6937
-38.1863
-41.2565
-43.7653
-45.57
-46.5219
-46.468
-45.2563
-42.7501
-38.8486
-33.5132
-26.7975
-18.8732
-10.0486
-0.771502
8.38598
16.7644
23.6732
28.4611
30.5931
29.7235
25.7546
18.8714
9.54559
-1.49655
-13.3412
-24.9881
-35.4781
-44.0411
-50.2515
-54.1805
-56.5285
-58.7197
-62.9386
-72.0848
-89.6274
-119.346
-164.96
-229.661
-315.597
-423.351
-551.5
-696.328
-851.755
-1009.54
-1159.79
-1291.69
-1394.52
-1458.71
-1476.91
-1444.94
-1362.34
-1232.75
-1063.65
-865.795
-652.285
-437.292
-234.724
-56.9062
86.5516
189.575
250.037
269.738
253.961
210.689
149.568
80.7729
13.8986
-42.9981
-84.1005
-106.223
-108.868
-93.9748
-65.4143
-28.3125
11.6991
49.2135
79.6725
99.8239
107.973
104.019
89.3029
66.2905
38.1639
8.36887
-19.8171
-43.6485
-61.1698
-71.3507
-74.095
-70.1391
-60.8628
-48.0485
-33.6207
-19.403
-6.91601
2.76186
9.06298
11.9289
11.7469
9.24093
5.33459
1.00758
-2.83669
-5.47718
-6.44491
-5.552
-2.88122
1.25809
6.39826
11.9943
17.5058
22.4694
26.5524
29.5836
31.5579
32.6177
33.0145
33.0583
33.0624
33.2911
33.9189
35.0044
36.4836
38.1803
39.8339
41.1371
41.7799
41.4922
40.0801
37.4523
33.6315
28.7535
23.0527
16.8377
10.4603
4.28234
-1.35659
-6.16644
-9.92714
-12.5005
-13.833
-13.9513
-12.9502
-10.9781
-8.22034
-4.8843
-1.18684
2.65498
6.4305
9.94031
13.0009
15.4499
17.1525
18.009
17.9626
17.006
15.1856
12.6025
9.40836
5.79689
1.99127
-1.77207
-5.26116
-8.26629
-10.6161
-12.1903
-12.9278
-12.8296
-11.956
-10.4184
-8.36723
-5.97578
-3.42354
-0.879201
1.51407
3.64963
5.46353
6.93494
8.08112
8.94744
9.59423
10.0825
10.4608
10.7555
10.9655
11.0628
10.9974
10.7054
10.12
9.18123
7.84475
6.08782
3.91226
1.34456
-1.56634
-4.75289
-8.13356
-11.6178
-15.1107
-18.5164
-21.7407
-24.6915
-27.277
-29.4028
-30.9672
-31.8582
-31.9521
-31.1167
-29.2201
-26.146
-21.8138
-16.203
-9.37711
-1.50367
7.13414
16.1394
25.0189
33.2174
40.1654
45.3373
48.3099
48.8165
46.785
42.3556
35.8745
27.8616
18.9582
9.85837
1.23522
-6.33119
-12.4136
-16.7793
-19.4085
-20.4899
-20.3926
-19.6211
-18.7583
-18.4025
-19.1065
-21.3233
-25.3637
-31.3677
-39.2919
-48.9125
-59.843
-71.5639
-83.4633
-94.8832
-105.17
-113.726
-120.05
-123.782
-124.721
-122.844
-118.294
-111.372
-102.496
-92.1708
-80.9395
-69.3425
-57.8788
-46.9755
-36.9667
-28.0827
-20.4498
-14.0981
-8.97554
-4.9663
-1.90987
0.380283
2.10023
3.44178
4.58131
5.67088
6.83106
8.14536
9.65593
11.3606
13.21
15.1039
16.8818
18.3041
19.0181
18.5063
16.0189
10.4997
0.523344
-15.7315
-40.4457
-76.0347
-124.922
-189.214
-270.294
-368.398
-482.207
-608.562
-742.34
-876.575
-1002.83
-1111.84
-1194.34
-1242
-1248.43
-1209.99
-1126.4
-1000.99
-840.589
-654.974
-456.033
-256.635
-69.4102
94.4506
226.227
320.407
375.067
391.849
375.561
333.463
274.34
207.471
141.634
84.2397
40.7003
14.0737
5.00797
11.962
31.6528
59.6543
91.063
121.145
145.889
162.409
169.166
166.002
153.995
135.188
112.225
87.9527
65.0464
45.6979
31.399
22.837
19.9039
21.8056
27.2451
34.6502
42.4095
49.085
53.5769
55.222
53.8215
49.6032
43.1301
35.1761
26.59
18.1683
10.5532
4.16956
-0.798366
-4.38881
-6.81319
-8.38629
-9.44986
-10.3029
-11.1494
-12.0708
-13.0254
-13.8731
-14.4181
-14.4622
-13.8561
-12.5417
-10.5745
-8.12531
-5.45775
-2.88863
-0.736313
0.732771
1.35017
1.07594
0.00809097
-1.63066
-3.52702
-5.32645
-6.68967
-7.3474
-7.14455
-6.067
-4.24731
-1.94842
0.471539
2.6081
4.06561
4.51088
3.71809
1.59919
-1.7837
-6.22489
-11.3991
-16.899
-22.2819
-27.1179
-31.0357
-33.7591
-35.1315
-35.1252
-33.8366
-31.4681
-28.3004
-24.6589
-20.8794
-17.2763
-14.1178
-11.6072
-9.87251
-8.96306
-8.85086
-9.43647
-10.558
-12.0033
-13.524
-14.854
-15.7287
-15.9063
-15.1893
-13.4424
-10.6072
-6.70885
-1.85596
3.76844
9.92233
16.325
22.6795
28.6936
34.0987
38.6633
42.2026
44.5848
45.7337
45.6309
44.3172
41.8931
38.5173
34.4039
29.8143
25.0453
20.4118
16.2255
12.7711
10.2821
8.91902
8.7527
9.75501
11.7983
14.664
18.0604
21.6472
25.0651
27.9663
30.0446
31.0601
30.8571
29.3745
26.6465
22.7962
18.023
12.5854
6.7822
0.932773
-4.64189
-9.63789
-13.7865
-16.8717
-18.7475
-19.3525
-18.7221
-16.9942
-14.4073
-11.2895
-8.03679
-5.08276
-2.86057
-1.76201
-2.09807
-4.06606
-7.72843
-13.0064
-19.69
-27.4629
-35.9393
-44.7064
-53.367
-61.5758
-69.0642
-75.651
-81.2381
-85.7942
-89.3296
-91.8678
-93.4203
-93.9688
-93.4589
-91.8056
-88.9104
-84.6864
-79.0872
-72.1334
-63.9321
-54.6863
-44.6899
-34.3096
-23.9558
-14.045
-4.95941
2.99019
9.59498
14.7667
18.5433
21.0799
22.6289
23.5095
24.0714
24.6573
25.5659
27.0213
29.1485
31.9594
35.3466
39.0868
42.8477
46.1949
48.5917
49.3834
47.763
42.7161
32.9548
16.8573
-7.55684
-42.5837
-90.6883
-154.234
-235.089
-334.135
-450.756
-582.383
-724.209
-869.176
-1008.28
-1131.21
-1227.34
-1286.8
-1301.72
-1267.27
-1182.44
-1050.45
-878.59
-677.726
-461.234
-243.727
-39.6025
138.365
280.235
379.768
434.859
447.503
423.323
370.723
299.808
221.185
144.818
79.0383
29.8308
0.449953
-8.6224
0.60063
24.146
56.7851
92.809
126.775
154.137
171.701
177.857
172.601
157.344
134.569
107.401
79.124
52.7534
30.6755
14.4185
4.5602
0.773562
1.98861
6.63666
12.9345
19.1655
23.9185
26.256
25.7945
22.6943
17.5692
11.3362
5.03283
-0.366821
-4.10977
-5.77338
-5.31256
-3.04238
0.436889
4.35679
7.91866
10.4296
11.4151
10.6913
8.38775
4.9185
0.908291
-2.91271
-5.82841
-7.25142
-6.8155
-4.43256
-0.307091
5.09253
11.1001
16.9439
21.8515
25.1515
26.3595
25.2367
21.8152
16.3887
9.47073
1.72883
-6.09761
-13.2831
-19.1953
-23.3589
-25.4962
-25.5429
-23.639
-20.0985
-15.364
-9.95388
-4.40801
0.76215
5.11491
8.3095
10.1265
10.4778
9.40808
7.08693
3.79435
-0.102057
-4.17745
-7.9871
-11.1088
-13.1869
-13.9724
-13.3544
-11.3766
-8.23589
-4.26164
0.123439
4.45539
8.28811
11.2509
13.0965
13.7314
13.2255
11.7975
9.7798
7.56732
5.55886
4.0993
3.43159
3.66499
4.76387
6.55758
8.76929
11.0585
13.0705
14.4861
15.0636
14.6686
13.2886
11.0299
8.10004
4.77805
1.37734
-1.79329
-4.46549
-6.43976
-7.60345
-7.93694
-7.50835
-6.45837
-4.97796
-3.28237
-1.58481
-0.0730306
1.10893
1.87235
2.18835
2.08577
1.64315
0.976121
0.221263
-0.4822
-1.01149
-1.27839
-1.24433
-0.930146
-0.418519
0.152507
0.605106
0.745248
0.391568
-0.5944
-2.28122
-4.64825
-7.57762
-10.8595
-14.2109
-17.306
-19.814
-21.4406
-21.9664
-21.2782
-19.3888
-16.4422
-12.7054
-8.54629
-4.40227
-0.741944
1.9754
3.33917
3.02262
0.811151
-3.37812
-9.48705
-17.3181
-26.5473
-36.7474
-47.42
-58.0335
-68.0642
-77.0361
-84.5565
-90.3423
-94.2371
-96.2143
-96.369
-94.897
-92.0655
-88.1772
-83.5331
-78.3988
-72.9773
-67.393
-61.6884
-55.8329
-49.7443
-43.3178
-36.46
-29.1224
-21.3303
-13.2009
-4.95003
3.11798
10.6343
17.2041
22.454
26.0833
27.9135
27.9251
26.2781
23.307
19.4849
15.3545
11.4244
8.03324
5.19062
2.40883
-1.45204
-8.29581
-20.8236
-42.4521
-77.0875
-128.737
-200.972
-296.276
-415.36
-556.546
-715.336
-884.287
-1053.26
-1210.1
-1341.68
-1435.23
-1479.81
-1467.68
-1395.42
-1264.62
-1082.02
-859.059
-610.849
-354.74
-108.591
111.016
290.403
420.083
495.545
517.477
491.393
426.765
335.755
231.739
127.804
35.3953
-36.7429
-83.2203
-102.218
-95.2737
-66.7138
-22.8185
29.1389
81.8601
128.878
165.211
187.768
195.47
189.128
171.098
144.805
114.189
83.1612
55.128
32.6387
17.179
9.12272
7.82649
11.8413
19.2001
27.7385
35.4037
40.5152
41.9508
39.2408
32.5707
22.6995
10.8145
-1.65495
-13.2362
-22.5998
-28.7127
-30.9426
-29.107
-23.4672
-14.6733
-3.673
8.40357
20.3677
31.0916
39.6131
45.2159
47.4813
46.3086
41.9043
34.7439
25.5109
15.0213
4.14025
-6.29926
-15.5688
-23.1006
-28.5235
-31.6756
-32.5962
-31.4973
-28.7234
-24.7022
-19.8961
-14.7564
-9.68765
-5.0219
-1.00498
2.20714
4.54346
6.00697
6.66014
6.60901
5.98743
4.94256
3.62239
2.16541
0.692757
-0.697337
-1.93281
-2.96885
-3.78701
-4.39253
-4.81025
-5.07949
-5.24852
-5.36919
-5.49231
-5.66401
-5.92341
-6.30102
-6.81776
-7.48398
-8.29824
-9.24587
-10.2976
-11.4089
-12.5202
-13.5591
-14.444
-15.0895
-15.4128
-15.3413
-14.8187
-13.8108
-12.3091
-10.3325
-7.92543
-5.15458
-2.10263
1.13931
4.47995
7.83536
11.1345
14.3217
17.355
20.2006
22.8252
25.1866
27.226
28.8635
29.9999
30.5236
30.3236
29.306
27.4126
24.6364
21.0335
16.7273
11.9043
6.80195
1.68866
-3.16014
-7.48801
-11.0816
-13.7902
-15.5383
-16.3298
-16.2436
-15.4214
-14.05
-12.339
-10.4982
-8.71634
-7.14403
-5.88158
-4.97379
-4.41108
-4.13665
-4.05848
-4.06433
-4.03784
-3.87383
-3.4908
-2.83965
-1.90787
-0.719216
0.670347
2.17957
3.71032
5.15628
6.41088
7.37364
7.95461
8.07674
7.67668
6.70459
5.12424
2.91437
0.0725861
-3.37763
-7.37681
-11.8175
-16.5319
-21.2831
-25.7612
-29.5899
-32.3428
-33.5724
-32.8485
-29.8037
-24.1793
-15.8658
-4.93175
8.36614
23.5932
40.1688
57.416
74.6232
91.1084
106.278
119.67
130.981
140.067
146.925
151.659
154.437
155.444
154.848
152.769
149.275
144.391
138.122
130.494
121.586
111.569
100.726
89.4424
78.1789
67.3943
57.4382
48.4088
39.9887
31.2801
20.6675
5.74501
-16.654
-50.2901
-99.1904
-167.162
-257.178
-370.689
-506.979
-662.647
-831.363
-1003.98
-1169.04
-1313.71
-1425.05
-1491.4
-1503.85
-1457.49
-1352.22
-1193.07
-989.964
-756.786
-510.056
-267.241
-44.9562
142.71
285.552
378.125
420.042
415.689
373.415
304.316
220.798
135.1
57.959
-2.43251
-41.0681
-56.3339
-49.7872
-25.578
10.3819
51.3749
90.8274
123.137
144.288
152.195
146.774
129.741
104.211
74.1545
43.8048
17.0834
-2.87803
-14.0742
-15.7934
-8.60949
5.78407
24.8651
45.6517
65.1002
80.4791
89.6797
91.4286
85.3869
72.1327
53.0395
30.0726
5.53426
-18.21
-38.9898
-55.0475
-65.1911
-68.8741
-66.1981
-57.8459
-44.9595
-28.9836
-11.4938
5.96659
22.0267
35.5926
45.9097
52.5841
55.5665
55.1071
51.6912
45.9632
38.6509
30.4935
22.1814
14.309
7.34336
1.60697
-2.72495
-5.61583
-7.14978
-7.50705
-6.93573
-5.72216
-4.1624
-2.53676
-1.08873
-0.00968899
0.570464
0.586324
0.0343069
-1.03503
-2.52855
-4.32465
-6.28857
-8.28746
-10.2039
-11.9467
-13.4583
-14.7181
-15.7413
-16.5747
-17.2877
-17.9624
-18.681
-19.5146
-20.5123
-21.6929
-23.0406
-24.5045
-26.0017
-27.4259
-28.6568
-29.5739
-30.0694
-30.0601
-29.4983
-28.3774
-26.7339
-24.6451
-22.2212
-19.5943
-16.9054
-14.2893
-11.8613
-9.70642
-7.87183
-6.36448
-5.15352
-4.17737
-3.35426
-2.59495
-1.81557
-0.949033
0.0468609
1.1855
2.45228
3.80973
5.20598
6.58501
7.89699
9.10701
10.201
11.1877
12.0976
12.9773
13.8829
14.8709
15.9897
17.2711
18.7236
20.3259
22.0238
23.7278
25.3131
26.6242
27.4817
27.6954
27.0814
25.4842
22.8015
19.0088
14.1802
8.50124
2.27054
-4.11343
-10.1801
-15.428
-19.3748
-21.6106
-21.8474
-19.9578
-15.9974
-10.2076
-2.99824
5.08838
13.4259
21.3595
28.2612
33.5777
36.8653
37.81
36.2306
32.069
25.37
16.2571
4.90858
-8.46099
-23.6123
-40.2848
-58.1934
-77.0218
-96.4149
-115.974
-135.254
-153.769
-171
-186.409
-199.457
-209.626
-216.444
-219.515
-218.545
-213.373
-203.987
-190.544
-173.372
-152.964
-129.955
-105.095
-79.2064
-53.1358
-27.7056
-3.66569
18.3478
37.8454
54.5042
68.176
78.881
86.7906
92.1996
95.4905
97.0939
97.4465
96.9513
95.9418
94.6547
93.2134
91.6225
89.7759
87.4729
84.4384
80.3366
74.7696
67.2472
57.1253
43.5114
25.154
0.343245
-33.1362
-77.9534
-137.04
-213.236
-308.786
-424.733
-560.297
-712.353
-875.138
-1040.28
-1197.2
-1333.98
-1438.42
-1499.44
-1508.43
-1460.41
-1354.9
-1196.3
-993.677
-760.015
-511.036
-263.637
-34.2262
162.894
316.869
421.237
474.346
479.245
443.062
375.979
289.945
197.285
109.383
35.5722
-17.6427
-46.9787
-52.3656
-36.574
-4.55594
37.3958
82.5527
124.606
158.374
180.296
188.664
183.61
166.86
141.33
110.61
78.4417
48.2323
22.6755
3.50952
-8.57175
-13.863
-13.4702
-9.05075
-2.51294
4.27976
9.7619
12.8481
13.0276
10.3688
5.44276
-0.814524
-7.27673
-12.8106
-16.4432
-17.4914
-15.641
-10.9698
-3.91573
4.79854
14.2724
23.548
31.7281
38.0768
42.0922
43.5445
42.4782
39.1823
34.1353
27.9336
21.214
14.5794
8.53638
3.45088
-0.475729
-3.20782
-4.8569
-5.64695
-5.8693
-5.83387
-5.8231
-6.05446
-6.65569
-7.65506
-8.98658
-10.5084
-12.031
-13.3501
-14.2803
-14.6847
-14.4964
-13.73
-12.4822
-10.921
-9.26728
-7.76864
-6.67083
-6.18821
-6.4766
-7.6109
-9.56959
-12.228
-15.3614
-18.6594
-21.7505
-24.2359
-25.73
-25.9031
-24.5217
-21.4808
-16.8239
-10.7475
-3.58785
4.20816
12.1251
19.6298
26.2233
31.4899
35.1349
37.009
37.1166
35.6063
32.7481
28.8984
24.4584
19.8303
15.3776
11.3917
8.0691
5.50105
3.67572
2.49204
1.7829
1.34467
0.969007
0.473136
-0.27516
-1.34064
-2.71354
-4.31289
-5.99911
-7.59411
-8.90587
-9.75448
-9.99621
-9.54314
-8.37594
-6.5489
-4.18665
-1.47328
1.36475
4.08011
6.42829
8.19113
9.19836
9.34518
8.60464
7.03384
4.7733
2.03912
-0.892216
-3.70643
-6.08055
-7.71693
-8.37932
-7.92653
-6.33911
-3.73375
-0.362041
3.40866
7.13097
10.3266
12.5428
13.409
12.6856
10.3001
6.36321
1.16557
-4.8464
-11.1119
-17.0099
-21.921
-25.2902
-26.685
-25.8436
-22.7087
-17.443
-10.4252
-2.22542
6.43879
14.7615
21.9185
27.1425
29.7948
29.4293
25.8404
19.0913
9.51908
-2.28539
-15.5215
-29.244
-42.4443
-54.1396
-63.4625
-69.7405
-72.5576
-71.791
-67.6181
-60.4943
-51.1013
-40.2759
-28.9232
-17.927
-8.06635
0.0527089
6.04386
9.76063
11.29
10.9216
9.09765
6.35032
3.23473
0.265293
-2.13784
-3.68689
-4.24623
-3.83342
-2.60308
-0.818038
1.18614
3.03477
4.33616
4.68201
3.61796
0.580833
-5.1931
-14.7742
-29.6343
-51.696
-83.2983
-127.045
-185.52
-260.865
-354.272
-465.44
-592.104
-729.729
-871.471
-1008.47
-1130.49
-1226.86
-1287.62
-1304.75
-1273.21
-1191.83
-1063.66
-895.909
-699.349
-487.332
-274.441
-75.0268
98.2259
235.517
330.797
382.188
391.922
365.838
312.51
242.139
165.348
92.0218
30.336
-13.9478
-37.847
-41.1784
-26.261
2.63642
40.0143
79.9284
116.745
145.783
163.772
169.098
161.83
143.535
116.941
85.4955
52.8781
22.5421
-2.6713
-20.8061
-30.9289
-33.1299
-28.4022
-18.4253
-5.29095
8.79139
21.7698
31.9768
38.2839
40.1755
37.7389
31.584
22.7073
12.325
1.69681
-8.03406
-15.9688
-21.534
-24.5109
-25.0144
-23.4294
-20.3189
-16.3181
-12.0333
-7.95803
-4.41883
-1.55573
0.663324
2.39918
3.87941
5.32963
6.91071
8.67271
10.533
12.2814
13.6113
14.1697
13.6192
11.7002
8.28454
3.41136
-2.69914
-9.65765
-16.9411
-23.9472
-30.0615
-34.728
-37.5143
-38.1634
-36.6258
-33.0669
-27.8501
-21.4947
-14.6165
-7.85574
-1.80122
3.07809
6.48714
8.33642
8.74712
8.02902
6.63411
5.09186
3.93502
3.62563
4.49104
6.67845
10.1335
14.6056
19.6788
24.8237
29.4631
33.0437
35.1025
35.3222
33.5674
29.8983
24.5612
17.9572
10.5949
3.03271
-4.18244
-10.5708
-15.7656
-19.5429
-21.8337
-22.7179
-22.4016
-21.1833
-19.4115
-17.4419
-15.5975
-14.1371
-13.2341
-12.9687
-13.3306
-14.2324
-15.5306
-17.0493
-18.6052
-20.0291
-21.1822
-21.966
-22.3249
-22.2438
-21.7395
-20.851
-19.6281
-18.1217
-16.3765
-14.4258
-12.2905
-9.97916
-7.4905
-4.81717
-1.9503
1.11509
4.374
7.8051
11.3648
14.9827
18.5596
21.969
25.0633
27.6834
29.6735
30.8973
31.2552
30.7006
29.2504
26.9915
24.0781
20.7216
17.1717
13.6913
10.5265
7.87594
5.86285
4.51417
3.75016
3.38694
3.15279
2.71725
1.73007
-0.134352
-3.13236
-7.41197
-12.9844
-19.71
-27.3018
-35.3452
-43.3338
-50.7166
-56.951
-61.5565
-64.1624
-64.5445
-62.646
-58.5817
-52.6245
-45.177
-36.7297
-27.8141
-18.9515
-10.6065
-3.1467
3.18498
8.28576
12.1928
15.069
17.1761
18.8381
20.3997
22.1834
24.4515
27.3755
31.018
35.3274
40.1462
45.2312
50.282
54.9744
58.9939
62.0641
63.9676
64.5556
63.7425
61.4844
57.7375
52.3968
45.2144
35.7037
23.0415
5.98461
-17.1717
-48.5661
-90.6469
-145.932
-216.651
-304.293
-409.109
-529.643
-662.379
-801.602
-939.543
-1066.84
-1173.29
-1248.88
-1284.93
-1275.13
-1216.57
-1110.24
-961.277
-778.62
-574.262
-362.113
-156.632
28.6214
182.321
296.445
366.952
394.005
381.713
337.46
270.909
192.817
113.812
43.2805
-11.5221
-46.0385
-58.6257
-50.4174
-24.8844
12.8283
56.6881
100.58
139.031
167.785
184.159
187.184
177.518
157.185
129.174
96.9793
64.1327
33.7888
8.40745
-10.4424
-22.1473
-26.9914
-25.9994
-20.7095
-12.9151
-4.40845
3.24066
8.85065
11.7232
11.6656
8.94641
4.19805
-1.71433
-7.8379
-13.2706
-17.2765
-19.366
-19.3351
-17.263
-13.4739
-8.47053
-2.85288
2.76792
7.84739
11.9688
14.8811
16.5117
16.9536
16.4334
15.2637
13.7894
12.3355
11.162
10.4332
10.2023
10.414
10.9208
11.5116
11.9467
11.9936
11.4609
10.2241
8.24247
5.56584
2.33025
-1.25541
-4.93044
-8.4089
-11.4096
-13.6869
-15.0608
-15.4426
-14.8547
-13.44
-11.4605
-9.28033
-7.33612
-6.09358
-5.99554
-7.40634
-10.5598
-15.5181
-22.148
-30.1197
-38.9297
-47.9465
-56.4734
-63.8221
-69.3872
-72.7113
-73.5349
-71.8218
-67.7605
-61.7394
-54.3011
-46.0819
-37.744
-29.9086
-23.098
-17.6925
-13.9049
-11.776
-11.1869
-11.888
-13.5372
-15.7444
-18.1143
-20.2858
-21.9615
-22.9277
-23.0621
-22.3307
-20.7752
-18.4925
-15.609
-12.2539
-8.5335
-4.51166
-0.19858
4.4493
9.51779
15.1126
21.3293
28.22
35.7619
43.8339
52.2059
60.5435
68.4293
75.3991
80.9883
84.7841
86.4744
85.8887
83.024
78.0524
71.3094
63.2631
54.4691
45.5168
36.9726
29.3282
22.9584
18.0939
14.8105
13.0364
12.5735
13.1324
14.3734
15.95
17.5496
18.9245
19.9124
20.442
20.5245
20.2342
19.6807
18.9788
18.2202
17.4523
16.6652
15.7886
14.699
13.2339
11.2116
8.45488
4.81429
0.189995
-5.45056
-12.061
-19.5116
-27.593
-36.0275
-44.4877
-52.621
-60.0765
-66.5333
-71.7264
-75.4675
-77.6589
-78.2988
-77.4777
-75.3652
-72.1911
-68.2204
-63.7268
-58.9678
-54.1626
-49.4769
-45.0151
-40.8194
-36.8772
-33.1326
-29.5029
-25.8953
-22.2231
-18.4198
-14.4484
-10.3075
-6.03191
-1.69003
2.62188
6.78689
10.674
14.1415
17.0331
19.1623
20.2782
20.0108
17.792
12.7597
3.6579
-11.2426
-34.1729
-67.8065
-115.083
-178.893
-261.638
-364.688
-487.817
-628.694
-782.553
-942.12
-1097.88
-1238.74
-1352.95
-1429.36
-1458.68
-1434.75
-1355.41
-1223.12
-1044.96
-832.079
-598.763
-360.988
-134.857
65.0167
226.928
343.152
410.543
430.608
409.059
354.929
279.385
194.366
111.261
39.7302
-13.1606
-43.4465
-50.3638
-36.0757
-5.08622
36.5573
82.1594
125.252
160.351
183.506
192.617
187.485
169.63
141.923
108.092
72.1833
38.0366
8.85254
-13.1187
-26.7361
-31.9736
-29.7883
-21.8854
-10.4175
2.33396
14.2561
23.6446
29.3646
30.9206
28.4389
22.573
14.3552
5.01814
-4.18823
-12.159
-18.0592
-21.4001
-22.0612
-20.2627
-16.4975
-11.4347
-5.81134
-0.327595
4.44076
8.10278
10.4796
11.5982
11.6553
10.9597
9.86333
8.69191
7.68728
6.96845
6.5174
6.19026
5.75085
4.92028
3.43368
1.09493
-2.1794
-6.33349
-11.1665
-16.3486
-21.4547
-26.0123
-29.5556
-31.6788
-32.0827
-30.6091
-27.2597
-22.1984
-15.7382
-8.31439
-0.448647
7.29331
14.3451
20.1814
24.355
26.5271
26.4902
24.1819
19.6907
13.2518
5.23421
-3.88004
-13.5258
-23.0907
-31.9559
-39.5397
-45.3405
-48.976
-50.2157
-49.003
-45.4645
-39.904
-32.7818
-24.6784
-16.247
-8.1574
-1.03723
4.5837
8.32086
9.96915
9.52038
7.16225
3.25877
-1.68603
-7.0777
-12.2893
-16.7221
-19.8628
-21.3324
-20.921
-18.6059
-14.5517
-9.09165
-2.69348
4.08782
10.6647
16.4744
21.0327
23.9802
25.115
24.4117
22.0216
18.2582
13.5662
8.47878
3.56732
-0.613723
-3.58016
-4.96616
-4.5626
-2.34219
1.53138
6.71226
12.6998
18.8839
24.6045
29.2213
32.1854
33.1054
31.7982
28.3177
22.9569
16.2204
8.77122
1.357
-5.27497
-10.4632
-13.7075
-14.7246
-13.4783
-10.1794
-5.2578
0.689603
6.96731
12.8572
17.6924
20.9208
22.1514
21.1815
18.0007
12.7765
5.82201
-2.44729
-11.5641
-21.0598
-30.5108
-39.5738
-48.0084
-55.6837
-62.5688
-68.7101
-74.1991
-79.1356
-83.593
-87.5912
-91.0813
-93.9452
-96.0092
-97.0701
-96.9295
-95.4305
-92.491
-88.1284
-82.4717
-75.7582
-68.316
-60.5323
-52.8127
-45.5364
-39.0125
-33.4434
-28.9011
-25.3194
-22.5037
-20.1578
-17.9239
-15.4311
-12.3453
-8.41487
-3.50465
2.38505
9.1169
16.4325
23.9828
31.3684
38.184
44.0595
48.692
51.8605
53.4182
53.2547
51.2253
47.0452
40.1563
29.5818
13.7965
-9.34805
-42.6004
-89.1455
-152.276
-234.9
-338.924
-464.591
-609.875
-770.066
-937.655
-1102.61
-1253.04
-1376.3
-1460.26
-1494.77
-1473.01
-1392.5
-1255.71
-1070.14
-847.701
-603.678
-355.21
-119.577
87.5394
253.588
370.307
434.372
447.479
415.878
349.435
260.347
161.703
66.0356
-15.9446
-76.3188
-110.534
-117.551
-99.5919
-61.5352
-10.0762
47.239
102.977
150.671
185.462
204.499
207.042
194.314
169.136
135.406
97.5168
59.7761
25.9106
-1.30175
-20.237
-30.4627
-32.6235
-28.2089
-19.2472
-7.97542
3.46996
13.3028
20.255
23.651
23.3945
19.883
13.8725
6.32126
-1.7652
-9.46515
-16.0353
-20.9633
-23.9789
-25.0323
-24.2487
-21.872
-18.2084
-13.5792
-8.28713
-2.5985
3.25903
9.08745
14.702
19.9122
24.5057
28.2373
30.828
31.9749
31.3727
28.746
23.8892
16.709
7.26359
-4.20951
-17.2818
-31.3449
-45.6442
-59.3358
-71.5587
-81.5159
-88.5542
-92.2313
-92.362
-89.0376
-82.6144
-73.6756
-62.9693
-51.335
-39.6257
-28.6388
-19.0616
-11.4374
-6.15198
-3.43804
-3.39111
-5.99049
-11.1183
-18.572
-28.069
-39.2445
-51.6465
-64.7346
-77.8866
-90.4189
-101.619
-110.793
-117.312
-120.67
-120.521
-116.714
-109.301
-98.5321
-84.8296
-68.7519
-50.9492
-32.1168
-12.9534
5.87546
23.7639
40.1848
54.7008
66.9701
76.7495
83.8949
88.3606
90.1991
89.5573
86.6722
81.861
75.5081
68.0464
59.935
51.6331
43.5734
36.137
29.6315
24.2752
20.1887
17.3941
15.8225
15.3267
15.7001
16.6967
18.0525
19.5044
20.8072
21.7468
22.1505
21.8956
20.9171
19.2141
16.8556
13.9837
10.8113
7.61247
4.70429
2.41896
1.06832
0.903741
2.0763
4.603
8.34519
13.0043
18.1383
23.1994
27.5896
30.7287
32.1252
31.4401
28.5342
23.4921
16.6181
8.40338
-0.528606
-9.49466
-17.83
-24.9628
-30.4758
-34.1464
-35.9625
-36.111
-34.9434
-32.9238
-30.5655
-28.367
-26.754
-26.0348
-26.3749
-27.79
-30.1595
-33.255
-36.7796
-40.4116
-43.8468
-46.8344
-49.2025
-50.8699
-51.846
-52.2181
-52.1291
-51.7487
-51.2435
-50.7474
-50.3392
-50.0265
-49.7414
-49.3445
-48.6389
-47.3918
-45.3611
-42.3247
-38.1092
-32.6159
-25.84
-17.8821
-8.94814
0.659967
10.5657
20.347
29.572
37.8362
44.798
50.2093
53.9353
55.9641
56.4022
55.4561
53.3994
50.5271
47.096
43.2535
38.9561
33.8803
27.3329
18.1681
4.72871
-15.1687
-44.1801
-85.2845
-141.52
-215.598
-309.42
-423.532
-556.613
-705.068
-862.853
-1021.59
-1171.02
-1299.83
-1396.72
-1451.61
-1456.85
-1408.31
-1306.05
-1154.58
-962.668
-742.576
-508.943
-277.358
-62.835
121.64
266.317
365.505
417.932
426.599
398.182
342.074
269.172
190.602
116.502
55.0227
11.6423
-11.1549
-13.8149
0.687558
27.5122
60.776
94.4192
123.005
142.361
149.994
145.253
129.238
104.495
74.5475
43.3537
14.7469
-8.05347
-22.8114
-28.486
-25.2726
-14.4837
1.70176
20.5776
39.2868
55.1854
66.1499
70.7945
68.5803
59.814
45.5452
27.3866
7.28542
-12.7227
-30.7449
-45.2239
-55.0729
-59.7447
-59.2337
-54.0188
-44.9596
-33.1651
-19.8513
-6.20618
6.7221
18.106
27.3811
34.2524
38.668
40.7708
40.8364
39.2094
36.2472
32.2773
27.5732
22.3478
16.763
10.949
5.02857
-0.861646
-6.55633
-11.8581
-16.5459
-20.3935
-23.1958
-24.7981
-25.1223
-24.1874
-22.1184
-19.1435
-15.5782
-11.7989
-8.20781
-5.19526
-3.10223
-2.1882
-2.60729
-4.3947
-7.46429
-11.6171
-16.5594
-21.9285
-27.3246
-32.3444
-36.6155
-39.8271
-41.755
-42.2784
-41.3866
-39.1757
-35.8353
-31.6267
-26.8558
-21.8426
-16.8921
-12.2674
-8.17064
-4.72999
-1.99656
0.051103
1.49535
2.46253
3.10343
3.57332
4.01394
4.53928
5.22619
6.11052
7.18862
8.42342
9.75418
11.1084
12.4144
13.613
14.6667
15.5645
16.3221
16.9753
17.5685
18.1386
18.6973
19.2142
19.6062
19.7343
19.413
18.4293
16.5733
13.6743
9.6388
4.48308
-1.64409
-8.45443
-15.531
-22.3574
-28.3625
-32.9771
-35.6953
-36.1346
-34.0876
-29.5589
-22.7831
-14.2207
-4.53048
5.47933
14.9185
22.8951
28.6011
31.3966
30.8824
26.9546
19.8308
10.0469
-1.58192
-14.0317
-26.1669
-36.8541
-45.0816
-50.0679
-51.3493
-48.8325
-42.8074
-33.9169
-23.0867
-11.4241
-0.0964361
9.79498
17.3331
21.8798
23.1385
21.1758
16.4026
9.51623
1.41052
-6.93419
-14.5696
-20.692
-24.7369
-26.4438
-25.8852
-23.4557
-19.8212
-15.8356
-12.4316
-10.5003
-10.7719
-13.714
-19.4595
-27.7748
-38.0715
-49.4634
-60.8588
-71.0803
-78.9945
-83.6367
-84.3159
-80.6871
-72.7829
-61.0028
-46.063
-28.9146
-10.641
7.6513
24.9355
40.35
53.258
63.2772
70.2793
74.3633
75.8085
75.0165
72.4492
68.572
63.8086
58.5109
52.9461
47.2983
41.6801
36.1447
30.6889
25.2357
19.5878
13.3492
5.81888
-4.12736
-18.1423
-38.4636
-67.8823
-109.587
-166.859
-242.626
-338.891
-456.124
-592.699
-744.481
-904.688
-1064.09
-1211.58
-1335.12
-1422.89
-1464.67
-1453.07
-1384.64
-1260.53
-1086.73
-873.693
-635.448
-388.308
-149.246
65.7964
243.496
374.419
453.847
482.044
463.975
408.505
327.212
232.966
138.452
54.8221
-9.38138
-48.92
-62.1138
-50.6635
-19.0937
26.0834
77.3608
127.252
169.204
198.306
211.729
208.864
191.175
161.81
125.045
85.6426
48.2134
16.6627
-6.22264
-19.008
-21.6554
-15.3935
-2.44553
14.3361
31.8757
47.2684
58.116
62.7719
60.4758
51.373
36.4285
17.2573
-4.10291
-25.4435
-44.6327
-59.832
-69.6614
-73.3037
-70.5418
-61.7347
-47.7428
-29.8153
-9.45658
11.7124
32.086
50.1896
64.7723
74.8774
79.8895
79.5609
74.0186
63.7533
49.5883
32.6288
14.1898
-4.29631
-21.3875
-35.7504
-46.2764
-52.1862
-53.1082
-49.1204
-40.7489
-28.9192
-14.8642
0.00137967
14.2268
26.4747
35.655
41.0293
42.2723
39.4854
33.1609
24.1042
13.3252
1.91298
-9.08875
-18.7904
-26.537
-31.952
-34.9429
-35.671
-34.4945
-31.8943
-28.3955
-24.4972
-20.6163
-17.0543
-13.9862
-11.4704
-9.47416
-7.90909
-6.66738
-5.65436
-4.81132
-4.12635
-3.63263
-3.39597
-3.4948
-3.99685
-4.93665
-6.29771
-8.00201
-9.90819
-11.8184
-13.4928
-14.6698
-15.0906
-14.5266
-12.8077
-9.85156
-5.68997
-0.489341
5.4389
11.6435
17.5577
22.5444
25.9611
27.2372
25.9575
21.9366
15.2747
6.3816
-4.03808
-15.0402
-25.5336
-34.3984
-40.6173
-43.4
-42.2869
-37.2144
-28.5358
-16.9911
-3.63243
10.2883
23.4541
34.6232
42.7592
47.1352
47.4002
43.603
36.1718
25.8538
13.6252
0.581906
-12.1743
-23.6415
-33.0041
-39.692
-43.4081
-44.1254
-42.0563
-37.6021
-31.2908
-23.7111
-15.4516
-7.05007
1.04283
8.4837
15.0413
20.5877
25.08
28.5345
31
32.532
33.1716
32.9324
31.7952
29.7119
26.6172
22.4466
17.1571
10.7495
3.28591
-5.0973
-14.1856
-23.6911
-33.2668
-42.5277
-51.0768
-58.533
-64.5572
-68.8742
-71.2891
-71.6966
-70.084
-66.5285
-61.1889
-54.2954
-46.136
-37.0421
-27.3729
-17.4992
-7.78712
1.41992
9.81751
17.1565
23.257
28.0186
31.4264
33.5509
34.5415
34.6145
34.035
33.0953
32.0918
31.3018
30.9622
31.2501
32.2658
34.0154
36.3891
39.133
41.8096
43.7453
43.9689
41.1483
33.5417
18.9861
-5.04778
-41.3066
-92.4915
-160.88
-247.854
-353.399
-475.639
-610.527
-751.767
-891.041
-1018.57
-1123.95
-1197.27
-1230.16
-1216.95
-1155.43
-1047.35
-898.466
-718.093
-518.284
-312.67
-115.116
61.6288
207.149
314.3
379.755
404.134
391.69
349.633
287.171
214.409
141.222
76.2496
26.103
-5.1308
-16.066
-7.87613
16.1195
51.0695
91.3169
131.143
165.446
190.271
203.166
203.311
191.456
169.668
140.96
108.834
76.8174
48.0467
24.9313
8.94448
0.546121
-0.76486
3.71268
12.1253
22.351
32.2886
40.1164
44.4899
44.6626
40.5215
32.542
21.6764
9.19518
-3.49469
-15.0301
-24.2506
-30.3192
-32.7953
-31.6557
-27.2667
-20.3158
-11.712
-2.47079
6.40384
14.0265
19.716
23.052
23.8989
22.3969
18.9238
14.0352
8.38963
2.66951
-2.49373
-6.58221
-9.23611
-10.277
-9.70975
-7.7045
-4.56411
-0.681114
3.50962
7.57728
11.1361
13.8777
15.5919
16.1765
15.6356
14.0673
11.6456
8.59605
5.17081
1.62382
-1.81061
-4.93471
-7.59875
-9.70673
-11.217
-12.138
-12.5214
-12.4517
-12.0363
-11.3942
-10.6465
-9.90744
-9.27822
-8.84216
-8.66227
-8.78077
-9.22035
-9.98689
-11.0731
-12.4625
-14.133
-16.0596
-18.2153
-20.5699
-23.0871
-25.7191
-28.4015
-31.048
-33.547
-35.7613
-37.5329
-38.6912
-39.0656
-38.5012
-36.8753
-34.1132
-30.2012
-25.1948
-19.222
-12.4793
-5.22308
2.24554
9.59908
16.5049
22.6471
27.7475
31.584
34.0046
34.9365
34.3887
32.45
29.2807
25.101
20.1775
14.8077
9.3065
3.99318
-0.819244
-4.83358
-7.77755
-9.41373
-9.55174
-8.06322
-4.89961
-0.110984
6.13673
13.5503
21.708
30.0717
38.0157
44.8706
49.9807
52.7692
52.803
49.8506
43.9226
35.289
24.4694
12.1931
-0.664428
-13.1657
-24.403
-33.5896
-40.1367
-43.7097
-44.2548
-41.9948
-37.3961
-31.1098
-23.8971
-16.5467
-9.79535
-4.25933
-0.384055
1.58358
1.59937
-0.196131
-3.51345
-7.96193
-13.1026
-18.4988
-23.7597
-28.5705
-32.7082
-36.0422
-38.5213
-40.1503
-40.9623
-40.9893
-40.2399
-38.6856
-36.2592
-32.8668
-28.4096
-22.8127
-16.0556
-8.19743
0.60641
10.1015
19.9458
29.7345
39.0355
47.4293
54.5486
60.1112
63.9426
65.9844
66.2902
65.0085
62.3572
58.5931
53.9805
48.759
43.1129
37.137
30.7931
23.8532
15.8257
5.86919
-7.29172
-25.4225
-50.7742
-85.9834
-133.847
-196.967
-277.277
-375.507
-490.659
-619.594
-756.834
-894.651
-1023.51
-1132.82
-1212.01
-1251.73
-1245.01
-1188.34
-1082.36
-932.102
-746.704
-538.671
-322.655
-113.983
72.924
226.023
336.842
401.25
419.704
396.98
341.421
263.821
176.098
89.9161
15.4397
-39.6582
-70.8196
-76.8178
-59.5692
-23.597
24.7601
78.2776
129.79
173.034
203.309
217.871
216.076
199.235
170.272
133.207
92.5787
52.8481
17.888
-9.41149
-27.3751
-35.6046
-34.8814
-26.9372
-14.1356
0.886678
15.5725
27.7466
35.8376
38.9998
37.1318
30.8009
21.0929
9.41494
-2.71978
-13.8948
-22.9578
-29.1355
-32.0859
-31.8903
-28.9915
-24.0924
-18.0331
-11.6633
-5.72917
-0.786268
2.85219
5.12797
6.21347
6.45638
6.30317
6.21291
6.57397
7.63476
9.45768
11.9019
14.6367
17.1824
18.9741
19.4382
18.0724
14.5189
8.62259
0.465736
-9.6228
-21.0859
-33.1819
-45.0486
-55.7827
-64.5258
-70.549
-73.3282
-72.602
-68.405
-61.0725
-51.2144
-39.6615
-27.3864
-15.4103
-4.70339
3.90918
9.82484
12.7172
12.5593
9.61509
4.40049
-2.37969
-9.91206
-17.3617
-23.9569
-29.061
-32.2263
-33.2234
-32.0456
-28.8895
-24.1161
-18.1988
-11.6652
-5.03909
1.20898
6.70031
11.1713
14.4813
16.6067
17.6233
17.6822
16.9817
15.7415
14.1799
12.497
10.8653
9.42566
8.28788
7.53451
7.22512
7.39963
8.07967
9.26736
10.9423
13.0576
15.5368
18.2725
21.1287
23.9467
26.5549
28.7808
30.465
31.4739
31.7107
31.1218
29.699
27.4768
24.5252
20.9397
16.8306
12.3132
7.4991
2.49304
-2.60792
-7.71064
-12.7197
-17.5304
-22.0225
-26.0579
-29.4825
-32.1342
-33.8559
-34.5125
-34.0105
-32.3151
-29.4648
-25.5782
-20.8539
-15.5602
-10.0176
-4.57424
0.422518
4.65489
7.86136
9.85774
10.5504
9.94094
8.12082
5.2588
1.58098
-2.65285
-7.17447
-11.7313
-16.1067
-20.1355
-23.712
-26.7918
-29.3863
-31.5513
-33.3716
-34.9437
-36.3582
-37.6843
-38.9593
-40.1818
-41.3122
-42.2771
-42.9791
-43.3087
-43.1573
-42.4296
-41.0536
-38.9871
-36.2214
-32.7807
-28.719
-24.1153
-19.0682
-13.6896
-8.10003
-2.42385
3.21511
8.69756
13.9134
18.7666
23.181
27.1053
30.5176
33.4269
35.87
37.8989
39.5579
40.8417
41.6355
41.6321
40.2318
36.4335
28.7366
15.0794
-7.15222
-41.0112
-89.7445
-156.405
-243.34
-351.597
-480.344
-626.391
-783.934
-944.622
-1097.99
-1232.27
-1335.5
-1396.88
-1408.03
-1364.21
-1265.09
-1115.13
-923.365
-702.606
-468.271
-236.825
-24.1179
156.205
294.022
383.623
424.086
419.103
376.298
306.151
220.676
132.008
51.0903
-13.3989
-55.7756
-73.67
-67.936
-42.1948
-2.10116
45.5575
93.8029
136.333
168.219
186.356
189.651
178.939
156.674
126.45
92.434
58.7891
29.1559
6.25757
-8.34073
-14.3009
-12.4202
-4.40535
7.44477
20.5993
32.6491
41.6097
46.1398
45.6563
40.3397
31.039
19.0967
6.12415
-6.24156
-16.564
-23.7897
-27.3655
-27.2787
-24.0208
-18.4833
-11.805
-5.19246
0.258015
3.71443
4.71737
3.23055
-0.371097
-5.37136
-10.8284
-15.7181
-19.0844
-20.1758
-18.5486
-14.127
-7.21045
1.56757
11.3239
21.0387
29.6822
36.3372
40.3036
41.1709
38.8537
33.5868
25.8835
16.4653
6.17243
-4.132
-13.6521
-21.7344
-27.92
-31.9696
-33.8613
-33.7648
-31.9958
-28.9601
-25.0947
-20.8123
-16.4573
-12.2764
-8.40638
-4.87953
-1.64453
1.40106
4.37141
7.3523
10.3666
13.3511
16.1498
18.5255
20.1889
20.8431
20.2347
18.2056
14.7348
9.96393
4.20011
-2.10488
-8.39759
-14.0826
-18.5905
-21.4458
-22.3239
-21.0906
-17.8195
-12.7831
-6.42243
0.703629
7.97955
14.7988
20.625
25.0411
27.7828
28.7509
28.0061
25.7451
22.2646
17.9189
13.0756
8.0753
3.2017
-1.33814
-5.41941
-8.99299
-12.0686
-14.6912
-16.9149
-18.7794
-20.2924
-21.4202
-22.0893
-22.1966
-21.6276
-20.2794
-18.0836
-15.0268
-11.1643
-6.62605
-1.61321
3.6136
8.75196
13.479
17.4739
20.4394
22.121
22.3248
20.9319
17.9122
13.335
7.37611
0.320117
-7.44566
-15.4467
-23.1476
-29.9903
-35.4404
-39.0406
-40.4655
-39.5698
-36.4263
-31.3428
-24.856
-17.6971
-10.731
-4.87399
-0.997927
0.166872
-1.88186
-7.35445
-16.137
-27.7955
-41.6164
-56.6784
-71.9467
-86.3764
-99.0137
-109.08
-116.035
-119.599
-119.76
-116.736
-110.93
-102.864
-93.1188
-82.2734
-70.8619
-59.3419
-48.0805
-37.3522
-27.3478
-18.1881
-9.93971
-2.63015
3.74064
9.19171
13.7557
17.4756
20.4024
22.5934
24.1096
25.0136
25.3661
25.2233
24.6327
23.6268
22.2127
20.3516
17.9248
14.6822
10.1685
3.63305
-6.07083
-20.5748
-42.046
-73.1621
-116.974
-176.628
-254.942
-353.86
-473.841
-613.284
-768.102
-931.543
-1094.37
-1245.43
-1372.58
-1463.87
-1508.93
-1500.25
-1434.28
-1312.08
-1139.56
-927.045
-688.453
-439.926
-198.26
20.7593
203.883
341.628
429.054
466.011
456.865
409.736
335.391
245.906
153.308
68.3173
-0.641636
-48.0889
-71.7387
-72.3639
-53.3259
-19.8595
21.777
65.1713
104.539
135.335
154.639
161.295
155.82
140.117
117.055
89.984
62.258
36.8137
15.8639
0.721494
-8.23773
-11.4865
-10.1595
-5.8054
-0.116687
5.32354
9.24798
10.8428
9.8066
6.33307
1.02725
-5.22487
-11.4116
-16.5525
-19.8366
-20.7254
-19.0124
-14.8337
-8.6349
-1.10067
6.9406
14.6246
21.1571
25.9061
28.4703
28.7161
26.7812
23.0455
18.0741
12.5394
7.13504
2.4902
-0.90365
-2.74523
-2.94962
-1.64608
0.850611
4.09029
7.55135
10.7097
13.1034
14.3861
14.3616
12.9992
10.4262
6.90384
2.78698
-1.52286
-5.62747
-9.17767
-11.9101
-13.6712
-14.427
-14.2569
-13.3346
-11.8974
-10.2096
-8.52481
-7.05253
-5.93449
-5.23374
-4.93739
-4.97172
-5.22594
-5.57968
-5.92866
-6.20383
-6.38072
-6.47756
-6.54332
-6.63843
-6.81261
-7.08444
-7.42732
-7.76471
-7.97596
-7.91177
-7.41642
-6.35269
-4.62521
-2.19843
0.893402
4.54499
8.58711
12.8004
16.9338
20.7258
23.9258
26.3149
27.7244
28.0501
27.2622
25.4096
22.6176
19.0786
15.0373
10.7703
6.56265
2.68322
-0.638178
-3.23001
-4.99203
-5.90103
-6.0087
-5.43234
-4.33955
-2.92943
-1.41234
0.00936259
1.1578
1.89253
2.11959
1.79703
0.937539
-0.391732
-2.0724
-3.94209
-5.80676
-7.45911
-8.70239
-9.37812
-9.39389
-8.74675
-7.53728
-5.97033
-4.34042
-3.00208
-2.32831
-2.66238
-4.2697
-7.29679
-11.7434
-17.4526
-24.1198
-31.3212
-38.5566
-45.3027
-51.0692
-55.4506
-58.1689
-59.102
-58.2942
-55.9512
-52.4183
-48.1473
-43.6542
-39.4731
-36.1105
-34.0017
-33.4748
-34.7224
-37.7847
-42.5431
-48.7259
-55.9247
-63.622
-71.2266
-78.1164
-83.6856
-87.3915
-88.7999
-87.6231
-83.7462
-77.2403
-68.3581
-57.5123
-45.2385
-32.1461
-18.8618
-5.97281
6.02337
16.7589
26.0189
33.7481
40.0395
45.1091
49.2592
52.8369
56.1919
59.6395
63.4315
67.7371
72.6342
78.1066
84.0452
90.2461
96.4015
102.077
106.674
109.375
109.079
104.336
93.2979
73.7033
42.9291
-1.87187
-63.5264
-144.483
-246.356
-369.417
-512.097
-670.591
-838.674
-1007.79
-1167.51
-1306.27
-1412.48
-1475.74
-1488.08
-1445.06
-1346.51
-1196.9
-1005.05
-783.487
-547.249
-312.439
-94.6362
92.6203
239.098
338.749
390.094
396.102
363.587
302.225
223.324
138.506
58.4569
-8.11709
-55.2156
-79.9036
-82.2879
-65.1495
-33.3046
7.20395
49.9753
89.0691
119.683
138.619
144.506
137.778
120.421
95.5664
66.9721
38.4831
13.5331
-5.25138
-16.3063
-19.2251
-14.6981
-4.31878
9.70647
24.8974
38.8421
49.4975
55.4149
55.8705
50.8918
41.1901
28.0143
12.9547
-2.27517
-16.0495
-27.0086
-34.1877
-37.0874
-35.6845
-30.3881
-21.9566
-11.3868
0.206195
11.7047
22.0887
30.5126
36.3549
39.2425
39.051
35.8877
30.0608
22.0412
12.4207
1.86771
-8.91535
-19.2341
-28.4422
-35.9783
-41.3995
-44.4089
-44.8757
-42.846
-38.5421
-32.3494
-24.7912
-16.4914
-8.12783
-0.379127
6.13112
10.8872
13.5268
13.8735
11.9539
7.99489
2.4034
-4.27251
-11.3954
-18.2988
-24.3501
-29.0087
-31.8752
-32.7254
-31.5269
-28.4378
-23.7869
-18.0384
-11.7458
-5.49761
0.137173
4.66135
7.693
8.99762
8.50588
6.31608
2.68117
-2.0178
-7.30932
-12.6761
-17.6025
-21.6196
-24.3441
-25.5072
-24.9703
-22.728
-18.898
-13.701
-7.43344
-0.437094
6.92908
14.3129
21.3854
27.8497
33.4425
37.9329
41.1195
42.8311
42.9318
41.3328
38.0082
33.0137
26.5027
18.737
10.0873
1.02156
-7.91944
-16.1582
-23.1246
-28.3038
-31.2816
-31.7829
-29.6981
-25.0949
-18.2147
-9.45405
0.664816
11.5327
22.4957
32.8995
42.1314
49.6595
55.0673
58.0814
58.5936
56.6725
52.5656
46.6877
39.5961
31.9508
24.4627
17.8324
12.6842
9.5039
8.58497
9.9919
13.5447
18.8286
25.2293
31.9916
38.2953
43.3406
46.4343
47.0648
44.9577
40.1061
32.7689
23.4408
12.7946
1.60547
-9.33482
-19.3026
-27.7164
-34.1916
-38.5705
-40.9262
-41.5396
-40.8556
-39.4237
-37.831
-36.636
-36.3087
-37.1839
-39.4305
-43.0373
-47.8157
-53.4184
-59.371
-65.115
-70.0581
-73.6288
-75.3312
-74.7942
-71.8108
-66.3634
-58.6315
-48.9809
-37.9337
-26.1231
-14.2372
-2.95728
7.10272
15.4482
21.743
25.8309
27.7384
27.6581
25.9164
22.927
19.1335
14.9432
10.6506
6.35199
1.84908
-3.45265
-10.6422
-21.3789
-37.9188
-63.061
-99.9808
-151.93
-221.803
-311.594
-421.815
-550.949
-695.055
-847.638
-999.835
-1140.99
-1259.55
-1344.26
-1385.42
-1376.14
-1313.32
-1198.31
-1037.01
-839.471
-619.011
-390.913
-170.906
26.4087
188.99
308.471
380.84
406.61
390.494
340.625
267.466
182.526
97.0639
20.9231
-38.3762
-76.2035
-91.0049
-84.1236
-59.3082
-21.9966
21.5194
64.9368
102.692
130.543
145.919
148.046
137.826
117.534
90.3882
60.0456
30.1092
3.69901
-16.8666
-30.2511
-36.1366
-35.1299
-28.5651
-18.2416
-6.13872
5.85417
16.16
23.6664
27.7977
28.5096
26.2153
21.6641
15.7924
9.57165
3.87198
-0.641451
-3.57152
-4.80774
-4.50398
-3.02286
-0.8579
1.45414
3.41843
4.65389
4.94329
4.25655
2.74578
0.714018
-1.43688
-3.27142
-4.38916
-4.48719
-3.40751
-1.16281
2.06278
5.93757
10.0271
13.8526
16.9557
18.9576
19.6083
18.8153
16.6523
13.3452
9.23919
4.7528
0.325001
-3.63696
-6.80238
-8.9493
-9.98106
-9.92628
-8.92364
-7.19501
-5.01122
-2.65575
-0.391101
1.56813
3.07303
4.04783
4.48751
4.44729
4.02639
3.34898
2.54512
1.73408
1.01175
0.442997
0.0593162
-0.138953
-0.176773
-0.0962828
0.0521893
0.218664
0.36056
0.447561
0.463995
0.408797
0.293424
0.138313
-0.0314331
-0.190422
-0.316817
-0.395184
-0.418091
-0.386393
-0.308334
-0.197738
-0.071671
0.0519818
0.156609
0.228291
0.256361
0.233141
0.153102
0.011862
-0.194488
-0.469342
-0.814629
-1.22906
-1.70599
-2.23156
-2.78373
-3.33294
-3.84457
-4.28311
-4.6176
-4.82728
-4.90655
-4.86797
-4.7426
-4.57718
-4.42827
-4.35389
-4.40399
-4.61097
-4.98199
-5.49438
-6.09519
-6.70509
-7.22648
-7.55453
-7.58978
-7.2506
-6.48418
-5.27513
-3.65174
-1.69007
0.483442
2.69107
4.70498
6.25201
7.02387
6.6942
4.94312
1.48826
-3.88043
-11.2664
-20.6378
-31.8097
-44.4412
-58.0489
-72.037
-85.7422
-98.4855
-109.629
-118.626
-125.068
-128.706
-129.469
-127.459
-122.933
-116.271
-107.95
-98.5016
-88.4799
-78.4286
-68.8524
-60.1911
-52.7948
-46.9027
-42.6233
-39.9223
-38.6182
-38.3908
-38.8044
-39.3447
-39.4685
-38.6604
-36.4904
-32.6645
-27.0622
-19.7545
-10.9997
-1.21793
9.05418
19.2216
28.6953
36.9545
43.5985
48.3819
51.2282
52.2186
51.5563
49.5067
46.317
42.1184
36.817
29.9823
20.744
7.7158
-11.0326
-37.9284
-75.7475
-127.347
-195.275
-281.283
-385.784
-507.352
-642.334
-784.708
-926.234
-1056.97
-1166.1
-1243.05
-1278.73
-1266.7
-1204.18
-1092.62
-937.886
-749.802
-541.306
-327.152
-122.407
59.1004
206.171
311.31
371.342
387.526
365.16
312.753
240.882
160.895
83.6208
18.2276
-28.6211
-53.2592
-55.115
-36.4409
-1.73796
43.025
91.2849
136.734
174.044
199.391
210.738
207.867
192.188
166.376
133.899
98.5138
63.7899
32.7231
7.46936
-10.7823
-21.8015
-26.1927
-25.1887
-20.3974
-13.5419
-6.22611
0.246626
4.98815
7.56725
7.98459
6.59358
3.9856
0.860112
-2.10087
-4.33726
-5.48268
-5.39773
-4.16445
-2.04712
0.571676
3.26783
5.65306
7.4409
8.49177
8.8311
8.63854
8.21081
7.90469
8.06967
8.98143
10.787
13.4703
16.8438
20.5674
24.191
27.215
29.1577
29.6226
28.3526
25.2667
20.4741
14.2642
7.0745
-0.558094
-8.057
-14.869
-20.5233
-24.6794
-27.1593
-27.96
-27.2462
-25.3237
-22.5981
-19.5234
-16.5473
-14.0596
-12.35
-11.5798
-11.7702
-12.8083
-14.4689
-16.4488
-18.4091
-20.0197
-21.0005
-21.1556
-20.3945
-18.7412
-16.3287
-13.3811
-10.1863
-7.06299
-4.32519
-2.25011
-1.05134
-0.860773
-1.71999
-3.58117
-6.31598
-9.73035
-13.5823
-17.6003
-21.5004
-25.0004
-27.8322
-29.7516
-30.5481
-30.0555
-28.1632
-24.8286
-20.0891
-14.0703
-6.99008
0.845732
9.05698
17.2118
24.8574
31.5571
36.928
40.6766
42.628
42.7428
41.1227
38.0007
33.719
28.6956
23.3851
18.2354
13.6489
9.94856
7.35502
5.97571
5.80592
6.74117
8.59795
11.1396
14.1039
17.2285
20.2727
23.033
25.3518
27.1209
28.2785
28.8032
28.7053
28.0178
26.7874
25.0664
22.9067
20.3549
17.4495
14.2197
10.6846
6.85528
2.73609
-1.67177
-6.36669
-11.3426
-16.5849
-22.0671
-27.7478
-33.569
-39.4546
-45.3105
-51.0235
-56.4623
-61.4788
-65.9112
-69.5892
-72.3429
-74.0137
-74.4676
-73.6094
-71.3962
-67.8478
-63.0522
-57.1653
-50.4031
-43.0283
-35.3305
-27.6036
-20.1227
-13.1216
-6.77556
-1.18937
3.60828
7.66314
11.0878
14.0488
16.7491
19.4084
22.2398
25.4279
29.1063
33.34
38.1117
43.3166
48.7643
54.1893
59.2672
63.6331
66.8975
68.6513
68.4561
65.8137
60.1151
50.5735
36.1508
15.4964
-13.0814
-51.584
-102.207
-167.12
-248.145
-346.333
-461.505
-591.806
-733.361
-880.141
-1024.09
-1155.57
-1264.15
-1339.58
-1372.95
-1357.88
-1291.39
-1174.63
-1012.99
-815.859
-595.82
-367.481
-146.047
54.1953
221.278
346.683
426.067
459.491
451.173
408.773
342.359
263.153
182.25
109.438
52.2676
15.4499
0.636606
6.57366
29.579
64.2593
104.357
143.617
176.557
199.07
208.79
205.203
189.517
164.33
133.162
99.9104
68.3235
41.5438
21.7731
10.0907
6.43043
9.70302
18.0344
29.0789
40.3625
49.6106
55.0231
55.468
50.579
40.752
27.0499
11.0343
-5.45327
-20.5307
-32.5071
-40.0812
-42.4852
-39.5593
-31.7518
-20.0474
-5.83409
9.27224
23.6251
35.7403
44.4627
49.0854
49.4097
45.739
38.8111
29.6803
19.5668
9.6952
1.14432
-5.27368
-9.0906
-10.2093
-8.88118
-5.64065
-1.20968
3.61341
8.06434
11.5085
13.5108
13.8722
12.6335
10.046
6.51934
2.5521
-1.34136
-4.70068
-7.17663
-8.57029
-8.85128
-8.15469
-6.75824
-5.04361
-3.44641
-2.40097
-2.28572
-3.37536
-5.80492
-9.55021
-14.427
-20.1097
-26.1681
-32.1182
-37.4803
-41.8384
-44.8913
-46.4883
-46.6452
-45.5363
-43.465
-40.817
-38.003
-35.4019
-33.3109
-31.9123
-31.2603
-31.2883
-31.8339
-32.6766
-33.5782
-34.3208
-34.7347
-34.7135
-34.2163
-33.2576
-31.8903
-30.186
-28.2173
-26.0451
-23.7131
-21.2496
-18.6745
-16.0086
-13.283
-10.5449
-7.85783
-5.2966
-2.93704
-0.842646
0.948876
2.43645
3.66133
4.70615
5.68695
6.73906
7.9988
9.58367
11.574
13.9988
16.8285
19.9751
23.3008
26.6333
29.7862
32.5812
34.8689
36.5449
37.5592
37.9171
37.6718
36.9105
35.7369
34.2521
32.5395
30.6541
28.62
26.4343
24.078
21.5301
18.7818
15.8475
12.7694
9.61433
6.46301
3.39338
0.461957
-2.31339
-4.96496
-7.5782
-10.2845
-13.2439
-16.6198
-20.5492
-25.1131
-30.3122
-36.0522
-42.1414
-48.3032
-54.1999
-59.4678
-63.7554
-66.7623
-68.2702
-68.1624
-66.4293
-63.1583
-58.512
-52.6971
-45.9324
-38.4193
-30.3208
-21.7525
-12.7849
-3.45603
6.20838
16.173
26.3725
36.6972
46.9869
57.0338
66.5927
75.398
83.1819
89.6934
94.7148
98.0742
99.6549
99.402
97.325
93.4956
88.0368
81.0986
72.8152
63.2385
52.249
39.4481
24.0453
4.7612
-20.2256
-53.2565
-97.0661
-154.532
-228.295
-320.279
-431.151
-559.795
-702.906
-854.783
-1007.41
-1150.9
-1274.22
-1366.27
-1417.08
-1419.03
-1367.93
-1263.76
-1110.99
-918.333
-698.104
-465.018
-234.787
-22.5593
158.56
298.742
392.284
437.966
438.932
402.081
337.113
255.32
168.303
86.7457
19.3963
-27.6566
-51.3502
-51.648
-31.2056
5.22889
51.5862
101.316
148.193
186.997
214.01
227.28
226.656
213.606
190.866
161.981
130.797
100.972
75.5664
56.7449
45.6187
42.2291
45.6603
54.2525
65.8806
78.2577
89.2254
96.998
100.337
98.6441
91.9676
80.9354
66.6258
50.4
33.7198
17.9731
4.32573
-6.38413
-13.7031
-17.5689
-18.2715
-16.3781
-12.6356
-7.86433
-2.85666
1.70775
5.3225
7.68626
8.70596
8.47461
7.22961
5.29907
3.04401
0.803983
-1.14762
-2.63404
-3.58898
-4.05354
-4.1583
-4.09386
-4.07488
-4.30273
-4.93189
-6.04454
-7.6361
-9.61334
-11.8046
-13.9805
-15.8816
-17.2499
-17.861
-17.5511
-16.2394
-13.9407
-10.7694
-6.9342
-2.723
1.51858
5.41505
8.59189
10.7076
11.4835
10.7299
8.36474
4.42361
-0.939522
-7.46202
-14.7911
-22.5095
-30.1655
-37.3042
-43.4977
-48.3706
-51.6205
-53.0326
-52.4876
-49.9659
-45.5462
-39.4015
-31.792
-23.0552
-13.593
-3.85686
5.67154
14.5021
22.1623
28.2255
32.3418
34.267
33.8882
31.2421
26.5224
20.0746
12.3776
4.01188
-4.38169
-12.1504
-18.6798
-23.4419
-26.0365
-26.222
-23.9347
-19.2933
-12.5886
-4.26011
5.14009
14.9922
24.659
33.5369
41.1032
46.954
50.8305
52.631
52.4074
50.3473
46.7454
41.9663
36.4049
30.4484
24.4436
18.6733
13.3441
8.58352
4.44802
0.936714
-1.9903
-4.39317
-6.33564
-7.8726
-9.04286
-9.86757
-10.3533
-10.4986
-10.3029
-9.77497
-8.94109
-7.85009
-6.57589
-5.21649
-3.89005
-2.72859
-1.87036
-1.45194
-1.60074
-2.42844
-4.0251
-6.45381
-9.74551
-13.8939
-18.851
-24.5241
-30.7747
-37.4214
-44.246
-51.0049
-57.4426
-63.3091
-68.3766
-72.4559
-75.4086
-77.1534
-77.6658
-76.9717
-75.1332
-72.2329
-68.3568
-63.5815
-57.9671
-51.559
-44.3967
-36.5302
-28.0379
-19.0448
-9.73463
-0.353828
8.79507
17.3713
25.0238
31.4262
36.3154
39.5291
41.037
40.96
39.5751
37.2999
34.656
32.2076
30.477
29.8362
30.3803
31.791
33.2033
33.095
29.2237
18.6405
-2.19203
-37.1553
-90.0936
-164.309
-261.974
-383.518
-527.094
-688.212
-859.64
-1031.65
-1192.63
-1330.03
-1431.6
-1486.67
-1487.48
-1430.24
-1315.77
-1149.72
-942.216
-706.979
-460.043
-218.194
2.67875
189.109
331.29
423.878
466.285
462.435
420.057
349.603
262.944
172.011
87.5446
18.0796
-30.7278
-56.3845
-59.4576
-43.1328
-12.518
26.2015
66.6387
103.007
130.756
146.987
150.621
142.315
124.185
99.3657
71.5009
44.2171
20.659
3.1335
-7.10228
-9.89681
-6.11104
2.59756
14.0745
26.0054
36.2425
43.0802
45.4468
42.9945
36.0856
25.6842
13.1772
0.153015
-11.8279
-21.4395
-27.7489
-30.3087
-29.1776
-24.8716
-18.2587
-10.4165
-2.47349
4.54176
9.82483
12.879
13.5501
12.0125
8.7122
4.27855
-0.581154
-5.18872
-8.98964
-11.6242
-12.9685
-13.1433
-12.4927
-11.5386
-10.9172
-11.306
-13.3482
-17.5828
-24.3842
-33.9187
-46.1192
-60.6817
-77.0826
-94.6164
-112.449
-129.682
-145.426
-158.864
-169.317
-176.289
-179.499
-178.883
-174.594
-166.962
-156.465
-143.669
-129.185
-113.621
-97.543
-81.4472
-65.7472
-50.7688
-36.7568
-23.8866
-12.2803
-2.02122
6.83318
14.244
20.1887
24.6641
27.6943
29.3414
29.7173
28.9936
27.4076
25.2618
22.9145
20.7616
19.2087
18.6374
19.3656
21.6102
25.4541
30.824
37.4838
45.0448
52.9949
60.7435
67.6777
73.225
76.912
78.4161
77.599
74.5227
69.441
62.7725
55.0539
46.8834
38.8572
31.5105
25.2658
20.397
17.0117
15.052
14.3146
14.4851
15.1833
16.0119
16.6036
16.6607
15.9829
14.4804
12.1735
9.17788
5.68167
1.9157
-1.87672
-5.46761
-8.66632
-11.3338
-13.3885
-14.8047
-15.6041
-15.8437
-15.6011
-14.9607
-14.0026
-12.7948
-11.3907
-9.83103
-8.15023
-6.38516
-4.5854
-2.82285
-1.19931
0.149585
1.05509
1.32152
0.738153
-0.903544
-3.78865
-8.05548
-13.7731
-20.9224
-29.3846
-38.9385
-49.2691
-59.9866
-70.6553
-80.8301
-90.0948
-98.099
-104.588
-109.423
-112.577
-114.132
-114.243
-113.102
-110.9
-107.785
-103.832
-99.0346
-93.307
-86.5074
-78.4747
-69.0728
-58.2347
-45.9996
-32.536
-18.1471
-3.25835
11.6114
25.8903
38.9995
50.3992
59.6284
66.3375
70.3088
71.4678
69.8841
65.7646
59.4395
51.3422
41.9812
31.9015
21.6319
11.6134
2.1067
-6.92145
-15.9248
-25.9041
-38.5095
-56.0891
-81.6477
-118.684
-170.885
-241.671
-333.626
-447.864
-583.431
-736.835
-901.834
-1069.55
-1228.98
-1367.85
-1473.81
-1535.75
-1545.15
-1497.21
-1391.67
-1233.11
-1030.73
-797.565
-549.302
-302.709
-73.9907
122.798
277.082
382.681
438.207
446.926
416.123
356.049
278.624
196.035
119.415
57.7471
17.1002
0.270221
6.82412
33.5137
74.9734
124.595
175.452
221.171
256.631
278.44
285.153
277.225
256.736
226.953
191.796
155.284
121.038
91.8857
69.6225
54.9234
47.4107
45.8464
48.41
53.0168
57.6308
60.5326
60.5127
56.9745
49.9443
39.9974
28.1199
15.5317
3.49724
-6.84924
-14.6437
-19.3831
-20.96
-19.6436
-16.0128
-10.857
-5.05864
0.52535
5.16816
8.35181
9.81251
9.54971
7.80065
4.98644
1.6386
-1.68331
-4.47163
-6.33851
-7.06351
-6.61631
-5.15269
-2.98585
-0.537958
1.72103
3.33852
3.93993
3.27704
1.25833
-2.04185
-6.39565
-11.453
-16.7872
-21.9481
-26.5166
-30.1523
-32.6298
-33.8596
-33.8912
-32.8995
-31.1566
-28.9944
-26.7616
-24.7816
-23.3162
-22.5388
-22.5193
-23.2229
-24.5205
-26.2096
-28.0421
-29.7565
-31.1081
-31.8961
-31.9835
-31.3076
-29.881
-27.7829
-25.1422
-22.1161
-18.8654
-15.5332
-12.2282
-9.0166
-5.92349
-2.94235
-0.0513402
2.76772
5.5115
8.1421
10.5816
12.7156
14.4045
15.5025
15.879
15.4407
14.1492
12.0333
9.19251
5.79154
2.04798
-1.78694
-5.45069
-8.69265
-11.2952
-13.0907
-13.9719
-13.8967
-12.885
-11.0096
-8.38266
-5.13868
-1.41631
2.65815
6.98362
11.4916
16.1468
20.9408
25.8806
30.9732
36.2091
41.5494
46.9152
52.186
57.203
61.7803
65.7199
68.8301
70.943
71.9304
71.7153
70.279
67.664
63.9729
59.3645
54.0479
48.2742
42.3256
36.4996
31.0885
26.3527
22.4909
19.6083
17.6914
16.5922
16.0293
15.6077
14.8579
13.2904
10.4587
6.02288
-0.196635
-8.18192
-17.7043
-28.3365
-39.4897
-50.4705
-60.551
-69.0431
-75.3682
-79.1142
-80.0737
-78.26
-73.8987
-67.3992
-59.3072
-50.2468
-40.857
-31.7318
-23.3677
-16.1256
-10.21
-5.66632
-2.39529
-0.18247
1.26215
2.25946
3.11716
4.09149
5.35898
7.00108
9.00248
11.2624
13.6162
15.8641
17.8021
19.2509
20.0794
20.2196
19.671
18.495
16.7983
14.7067
12.3283
9.70567
6.75372
3.18406
-1.58329
-8.51301
-19.0373
-35.1055
-59.1701
-94.0793
-142.849
-208.306
-292.614
-396.734
-519.881
-659.082
-808.94
-961.681
-1107.55
-1235.57
-1334.56
-1394.35
-1407.05
-1368.09
-1277.03
-1137.85
-958.783
-751.627
-530.613
-310.994
-107.507
67.0883
203.234
295.398
342.43
347.417
317.076
260.786
189.382
113.878
44.2668
-11.4663
-48.02
-63.0826
-57.2657
-33.7053
2.59418
45.5694
88.9505
127.05
155.396
171.157
173.315
162.601
141.225
112.452
80.0856
47.9548
19.4369
-2.90345
-17.5409
-24.0621
-23.0941
-16.1111
-5.15794
7.46765
19.5302
29.1295
34.9027
36.138
32.7947
25.4378
15.1048
3.12717
-9.06464
-20.1276
-28.9621
-34.8202
-37.36
-36.6439
-33.0871
-27.37
-20.327
-12.8297
-5.67845
0.485206
5.23676
8.39346
10.0056
10.3185
9.71135
8.62431
7.4819
6.6255
6.26299
6.4428
7.05538
7.86104
8.53927
8.7511
8.20416
6.70987
4.22345
0.860454
-3.11262
-7.31194
-11.2886
-14.5914
-16.8299
-17.73
-17.1714
-15.2048
-12.0452
-8.04247
-3.63581
0.70358
4.53196
7.48736
9.33133
9.97296
9.47232
8.02344
5.91962
3.50665
1.13077
-0.910932
-2.41079
-3.2759
-3.53562
-3.33078
-2.88712
-2.47732
-2.37778
-2.82658
-3.98846
-5.93153
-8.61799
-11.9092
-15.5828
-19.3595
-22.9332
-26.0036
-28.304
-29.6248
-29.8296
-28.8637
-26.7555
-23.611
-19.6034
-14.9583
-9.936
-4.81289
0.13767
4.66309
8.54701
11.6215
13.7756
14.959
15.1831
14.5169
13.0814
11.0407
8.592
5.95351
3.35112
1.00303
-0.896755
-2.19517
-2.79544
-2.66879
-1.86014
-0.485875
1.2772
3.21127
5.0834
6.67467
7.80855
8.37446
8.34295
7.77023
6.7912
5.60206
4.43463
3.52603
3.08765
3.27748
4.1791
5.78995
8.01988
10.7
13.6006
16.4546
18.9861
20.9367
22.0904
22.2911
21.453
19.5611
16.664
12.8602
8.27944
3.06392
-2.64895
-8.73838
-15.1054
-21.671
-28.3668
-35.1222
-41.8497
-48.4313
-54.7115
-60.4969
-65.5649
-69.6807
-72.6195
-74.1926
-74.2709
-72.8046
-69.8345
-65.4929
-59.9959
-53.6245
-46.7011
-39.5606
-32.5217
-25.8611
-19.7928
-14.4553
-9.9058
-6.12319
-3.01782
-0.446674
1.76784
3.81746
5.88813
8.14224
10.7045
13.6523
17.0118
20.7589
24.8254
29.1089
33.4847
37.8168
41.9671
45.7973
49.1626
51.8937
53.7635
54.4366
53.4022
49.8931
42.8005
30.6006
11.3173
-17.4505
-58.4066
-114.318
-187.65
-280.097
-392.049
-522.089
-666.588
-819.53
-972.633
-1115.81
-1237.96
-1328.09
-1376.45
-1375.86
-1322.66
-1217.42
-1065.21
-875.276
-660.272
-435.054
-215.21
-15.49
151.647
277.224
356.505
389.272
379.58
335.058
265.854
183.363
98.9145
22.5544
-37.917
-77.5758
-94.6154
-90.205
-68.0113
-33.4741
7.05876
47.2172
81.4072
105.432
116.877
115.233
101.77
79.1965
51.1723
21.746
-5.20455
-26.4582
-39.8093
-44.2661
-40.076
-28.5933
-12.016
6.96035
25.5238
41.1092
51.7006
56.0397
53.7223
45.1809
31.5658
14.5481
-3.92196
-21.8676
-37.5156
-49.4773
-56.8621
-59.3168
-56.9945
-50.4649
-40.5869
-28.364
-14.8062
-0.815057
12.8924
25.8177
37.6717
48.33
57.765
65.9698
72.8894
78.3713
82.1484
83.8542
83.0713
79.4046
72.5658
62.4564
49.2316
33.3351
15.4952
-3.32021
-21.9837
-39.3157
-54.2037
-65.7181
-73.2088
-76.37
-75.2655
-70.3108
-62.2155
-51.8946
-40.3597
-28.6051
-17.5023
-7.7169
0.344692
6.55124
11.027
14.0995
16.2245
17.8981
19.5704
21.5717
24.0624
27.0121
30.2107
33.308
35.8742
37.4727
37.7331
36.4136
33.4443
28.9465
23.2246
16.7347
10.0335
3.71516
-1.65363
-5.59428
-7.76391
-7.98608
-6.26255
-2.76702
2.17632
8.12543
14.5601
20.9247
26.6716
31.3023
34.4053
35.6881
35.0033
32.3643
27.9513
22.103
15.2941
8.0983
1.138
-4.97528
-9.70331
-12.6398
-13.5572
-12.4351
-9.46521
-5.03177
0.331732
6.00368
11.346
15.7772
18.8374
20.237
19.8834
17.8833
14.5209
10.2153
5.46439
0.78235
-3.36162
-6.59509
-8.67954
-9.52916
-9.21041
-7.92375
-5.97147
-3.71642
-1.53767
0.211505
1.23866
1.33713
0.399551
-1.57957
-4.51064
-8.22246
-12.4798
-17.0028
-21.4864
-25.6195
-29.1045
-31.6758
-33.1216
-33.3044
-32.184
-29.8362
-26.4669
-22.4154
-18.143
-14.2059
-11.21
-9.75234
-10.355
-13.3988
-19.0662
-27.3039
-37.8085
-50.042
-63.2748
-76.6519
-89.2749
-100.289
-108.964
-114.759
-117.359
-116.692
-112.905
-106.327
-97.4122
-86.6746
-74.632
-61.7581
-48.4555
-35.0487
-21.797
-8.92238
3.35645
14.7915
25.0845
33.8836
40.8008
45.4506
47.5032
46.7451
43.1366
36.8563
28.3222
18.185
7.28855
-3.40052
-12.8924
-20.2952
-24.952
-26.5833
-25.4267
-22.3604
-18.9966
-17.7261
-21.691
-34.6622
-60.7987
-104.277
-168.794
-256.976
-369.752
-505.771
-660.982
-828.474
-998.667
-1159.9
-1299.37
-1404.43
-1463.95
-1469.68
-1417.43
-1307.78
-1146.28
-943.12
-712.168
-469.649
-232.495
-16.6366
164.569
301.587
389.492
428.212
422.222
379.757
311.658
230.002
146.704
72.2424
14.6583
-21.0838
-33.3241
-23.5332
4.20819
43.9828
88.9494
132.273
167.96
191.508
200.313
193.804
173.326
141.793
103.195
62.0212
22.677
-11.0315
-36.2911
-51.5199
-56.4375
-51.9736
-40.043
-23.2262
-4.40225
13.6187
28.4183
38.216
42.0155
39.6443
31.6924
19.366
4.28412
-11.7533
-26.9937
-39.9293
-49.443
-54.8898
-56.1114
-53.3901
-47.3553
-38.8609
-28.8527
-18.245
-7.82045
1.83625
10.3674
17.6349
23.6836
28.6836
32.8631
36.4428
39.5812
42.3378
44.658
46.3808
47.2661
47.0372
45.4314
42.2512
37.4093
30.9608
23.1185
14.2492
4.85037
-4.49053
-13.1498
-20.529
-26.1179
-29.551
-30.6516
-29.4577
-26.2253
-21.4077
-15.6118
-9.53454
-3.88704
0.685643
3.67885
4.78714
3.93937
1.30448
-2.73327
-7.6274
-12.7438
-17.4473
-21.1876
-23.5744
-24.4278
-23.7988
-21.9556
-19.3365
-16.4785
-13.9306
-12.1668
-11.5114
-12.0875
-13.7972
-16.3353
-19.2335
-21.929
-23.8477
-24.489
-23.5023
-20.7429
-16.3007
-10.4971
-3.85078
2.98407
9.29891
14.4201
17.7953
19.065
18.1099
15.069
10.3242
4.45631
-1.82337
-7.75591
-12.6216
-15.8199
-16.9326
-15.7631
-12.3494
-6.94875
-0.000451705
7.92788
16.2023
24.1844
31.2877
37.0222
41.0272
43.0907
43.1557
41.3161
37.8015
32.9539
27.1963
20.9961
14.8245
9.11618
4.23174
0.427704
-2.16368
-3.54166
-3.83029
-3.25806
-2.12604
-0.767839
0.493641
1.38751
1.72874
1.4401
0.558832
-0.772951
-2.33323
-3.8571
-5.08093
-5.78753
-5.8462
-5.24191
-4.08955
-2.63109
-1.21562
-0.264685
-0.226952
-1.52769
-4.51896
-9.4362
-16.3658
-25.2273
-35.7703
-47.5881
-60.1434
-72.8051
-84.892
-95.7198
-104.649
-111.127
-114.732
-115.2
-112.446
-106.576
-97.8804
-86.8171
-73.9758
-60.0354
-45.7084
-31.682
-18.5597
-6.8106
3.26682
11.5614
18.1426
23.2311
27.1494
30.2596
32.8975
35.3137
37.6312
39.8277
41.7463
43.1361
43.7154
43.249
41.6257
38.9202
35.4249
31.6386
28.2066
25.8098
25.0107
26.0682
28.7439
32.1229
34.4796
33.2173
24.9118
5.48277
-29.4928
-84.3215
-162.613
-266.619
-396.582
-550.168
-722.122
-904.23
-1085.65
-1253.67
-1394.78
-1496.02
-1546.41
-1538.32
-1468.44
-1338.49
-1155.24
-930.068
-677.927
-415.96
-161.841
67.9319
259.591
403.335
494.115
531.877
521.277
470.904
392.125
297.711
200.395
111.553
40.128
-8.07875
-30.7047
-28.7067
-5.87296
31.9453
77.766
124.448
165.583
196.205
213.252
215.746
204.689
182.726
153.626
121.669
91.0223
65.1889
46.5881
36.3178
34.1117
38.4835
47.0262
56.815
64.8528
68.4972
65.8126
55.8063
38.525
15.0089
-12.88
-42.7251
-71.8747
-97.7695
-118.235
-131.702
-137.34
-135.084
-125.567
-109.979
-89.8753
-66.9614
-42.8928
-19.111
3.26796
23.5024
41.2149
56.3332
68.9992
79.4634
87.986
94.7582
99.8557
103.227
104.716
104.11
101.208
95.8804
88.1354
78.151
66.2906
53.0871
39.2022
25.3667
12.3093
0.685121
-8.98669
-16.3691
-21.3309
-23.9459
-24.4698
-23.298
-20.9114
-17.8175
-14.4947
-11.3459
-8.66631
-6.62805
-5.28163
-4.57161
-4.36317
-4.47472
-4.71158
-4.89637
-4.89271
-4.62001
-4.05877
-3.24685
-2.26836
-1.23753
-0.280032
0.485575
0.96414
1.09622
0.865385
0.300103
-0.529474
-1.51913
-2.54141
-3.45836
-4.13463
-4.44977
-4.30839
-3.64732
-2.43918
-0.692051
1.55449
4.23644
7.27435
10.5831
14.0803
17.6934
21.362
25.0371
28.6764
32.2365
35.6633
38.8833
41.7967
44.2744
46.1614
47.2848
47.4682
46.5502
44.4059
40.9668
36.2397
30.3179
23.3862
15.717
7.65774
-0.389413
-7.99412
-14.7284
-20.1988
-24.0775
-26.1295
-26.233
-24.3919
-20.7373
-15.5185
-9.08415
-1.85351
5.71771
13.1752
20.103
26.1566
31.0881
34.761
37.154
38.3526
38.5297
37.9179
36.7775
35.3619
33.8875
32.5084
31.301
30.259
29.2985
28.2734
26.9984
25.2765
22.9283
19.819
15.8801
11.1226
5.64115
-0.39283
-6.74661
-13.1494
-19.32
-24.9955
-29.9579
-34.0557
-37.2189
-39.4652
-40.8984
-41.6994
-42.1093
-42.4083
-42.8888
-43.8267
-45.45
-47.9089
-51.247
-55.3799
-60.0819
-64.9872
-69.6066
-73.3631
-75.6431
-75.8613
-73.5317
-68.336
-60.1805
-49.2323
-35.9291
-20.957
-5.19986
10.3382
24.6264
36.7084
45.7982
51.359
53.1575
51.286
46.1497
38.4202
28.9576
18.7078
8.57872
-0.694227
-8.68848
-15.4294
-21.5103
-28.1832
-37.4055
-51.8209
-74.6565
-109.514
-160.048
-229.527
-320.307
-433.261
-567.244
-718.68
-881.37
-1046.6
-1203.63
-1340.46
-1445
-1506.34
-1516.03
-1469.24
-1365.63
-1209.6
-1010.19
-780.341
-535.647
-292.882
-68.3119
123.919
273.139
373.099
422.393
424.34
386.348
318.861
234.033
144.311
61.0736
-6.48616
-52.1537
-73.0704
-69.6961
-45.3934
-5.7155
42.4908
92.0432
136.324
170.017
189.618
193.666
182.709
159.03
126.19
88.4667
50.2608
15.5587
-12.504
-31.9238
-41.944
-43.003
-36.5427
-24.7148
-10.0323
4.98398
18.1199
27.7073
32.7668
33.0456
28.9577
21.4442
11.7817
1.3698
-8.47113
-16.6657
-22.4945
-25.641
-26.1759
-24.4892
-21.1849
-16.9598
-12.4853
-8.30987
-4.79488
-2.08941
-0.143211
1.2485
2.37933
3.55803
5.03949
6.97141
9.36378
12.0842
14.8783
17.4097
19.3129
20.2502
19.9637
18.315
15.308
11.0916
5.94251
0.232175
-5.61811
-11.1871
-16.1017
-20.0776
-22.9461
-24.6667
-25.3216
-25.0959
-24.2461
-23.0617
-21.8247
-20.7743
-20.0794
-19.8224
-19.9964
-20.5149
-21.2307
-21.962
-22.5215
-22.7425
-22.5007
-21.7278
-20.4162
-18.614
-16.4138
-13.935
-11.3048
-8.63907
-6.02704
-3.52062
-1.13066
1.16974
3.43519
5.73274
8.12359
10.6449
13.2949
16.0234
18.7309
21.2757
23.4883
25.1926
26.2284
26.4741
25.8649
24.4039
22.1656
19.2896
15.9673
12.4224
8.88833
5.58549
2.70143
0.375571
-1.30977
-2.33172
-2.72293
-2.56263
-1.96415
-1.0607
0.00881065
1.11261
2.13629
2.9901
3.61281
3.97264
4.06542
3.91067
3.5462
3.02198
2.39368
1.71674
1.04123
0.407986
-0.153798
-0.627382
-1.0078
-1.29985
-1.51497
-1.66759
-1.77109
-1.83413
-1.85778
-1.83378
-1.74445
-1.56434
-1.26361
-0.812911
-0.189199
0.618094
1.60149
2.73125
3.95338
5.19027
6.34431
7.30407
7.95238
8.17503
7.86902
6.94881
5.35003
3.03026
-0.0325391
-3.84304
-8.3916
-13.6563
-19.6026
-26.1815
-33.3244
-40.9379
-48.8982
-57.0475
-65.1927
-73.1089
-80.5461
-87.2405
-92.9271
-97.3542
-100.297
-101.566
-101.021
-98.5696
-94.176
-87.8636
-79.7174
-69.8889
-58.5984
-46.1362
-32.8602
-19.1876
-5.58102
7.47157
19.4823
29.9921
38.6011
44.9978
48.9858
50.5055
49.6483
46.6625
41.9476
36.0355
29.5579
23.1997
17.6377
13.4686
11.1273
10.7998
12.335
15.1614
18.2145
19.885
17.9978
9.83826
-7.75661
-38.2229
-84.9951
-151.127
-238.823
-348.912
-480.341
-629.758
-791.296
-956.637
-1115.41
-1255.95
-1366.34
-1435.64
-1455.22
-1419.83
-1328.5
-1184.92
-997.318
-777.818
-541.325
-304.083
-82.0567
110.632
263.058
368.455
424.699
434.259
403.652
342.488
262.228
174.837
91.4709
21.3664
-28.9591
-56.1324
-59.9498
-43.0389
-10.227
32.2812
77.801
120.026
153.748
175.371
183.166
177.28
159.51
132.902
101.239
68.4896
38.3049
13.5945
-3.75126
-12.9872
-14.4834
-9.56056
-0.224069
11.1588
22.1948
30.77
35.292
34.8451
29.2483
19.0199
5.25978
-10.5266
-26.6374
-41.3883
-53.306
-61.2796
-64.6569
-63.2794
-57.4576
-47.8967
-35.5848
-21.6628
-7.29102
6.46936
18.7495
28.9324
36.6753
41.8988
44.7469
45.5269
44.6394
42.5075
39.5147
35.9575
32.0194
27.7659
23.1624
18.1097
12.4917
6.22812
-0.678184
-8.10527
-15.796
-23.3649
-30.3273
-36.1496
-40.3111
-42.3711
-42.0306
-39.1794
-33.9221
-26.5801
-17.6665
-7.83988
2.15898
11.5786
19.7282
26.0404
30.1186
31.7644
30.9841
27.9743
23.0913
16.8083
9.66731
2.22964
-4.96808
-11.4507
-16.8314
-20.8274
-23.2668
-24.086
-23.3213
-21.0958
-17.6042
-13.0967
-7.86312
-2.2166
3.52096
9.03405
14.028
18.2435
21.4699
23.5578
24.4296
24.0863
22.6105
20.1646
16.9816
13.3498
9.5911
6.0329
2.97696
0.668086
-0.733424
-1.1711
-0.699981
0.519666
2.24276
4.17201
5.99858
7.44533
8.30611
8.47519
7.96168
6.88634
5.46052
3.95023
2.63073
1.73894
1.43147
1.75527
2.63578
3.88459
5.22539
6.33411
6.88697
6.6093
5.31785
2.95085
-0.41832
-4.58523
-9.23548
-13.9796
-18.3969
-22.0828
-24.6936
-25.9837
-25.8312
-24.25
-21.3872
-17.5072
-12.9654
-8.17429
-3.5658
0.445602
3.4963
5.30048
5.66907
4.51985
1.87879
-2.12675
-7.28199
-13.3043
-19.8669
-26.6248
-33.2409
-39.4107
-44.8833
-49.4771
-53.0897
-55.6997
-57.3625
-58.1992
-58.3803
-58.1068
-57.5892
-57.0272
-56.5906
-56.4013
-56.518
-56.9232
-57.5137
-58.0974
-58.3993
-58.0779
-56.7542
-54.0529
-49.6518
-43.3341
-35.0361
-24.8819
-13.1986
-0.506191
12.5187
25.102
36.449
45.8275
52.648
56.5289
57.3384
55.208
50.5143
43.8326
35.868
27.3694
19.0368
11.427
4.86409
-0.644292
-5.48031
-10.4784
-16.9698
-26.8005
-42.3044
-66.2155
-101.496
-151.068
-217.446
-302.294
-405.943
-526.949
-661.756
-804.571
-947.499
-1080.99
-1194.6
-1277.93
-1321.82
-1319.41
-1267.11
-1165.29
-1018.51
-835.278
-627.416
-408.932
-194.674
1.13587
166.312
291.865
372.789
408.393
402.137
361.022
294.621
213.884
129.867
52.5532
-10.1262
-52.9434
-73.6667
-72.9798
-54.0718
-21.9771
17.2338
57.3009
92.5533
118.532
132.399
133.102
121.308
99.1268
69.6927
36.6673
3.7317
-25.8652
-49.6534
-66.1516
-74.9306
-76.5378
-72.3074
-64.0938
-53.9683
-43.9221
-35.6117
-30.1737
-28.1276
-29.3676
-33.2391
-38.6803
-44.4062
-49.1069
-51.6349
-51.1568
-47.253
-39.9569
-29.7334
-17.4025
-4.0229
9.24681
21.2913
31.1671
38.2012
42.0516
42.723
40.5405
36.0871
30.1162
23.4505
16.8811
11.0797
6.53234
3.50309
2.02813
1.94023
2.91728
4.54656
6.39467
8.07263
9.28709
9.87091
9.79023
9.12875
8.05357
6.76994
5.47363
4.3098
3.34556
2.56095
1.85935
1.09492
0.11141
-1.21512
-2.93792
-5.01287
-7.28859
-9.51565
-11.3739
-12.514
-12.607
-11.3948
-8.73461
-4.62977
0.755515
7.10162
13.958
20.7845
27.006
32.0722
35.5191
37.0212
36.4313
33.8003
29.3759
23.5783
16.9571
10.133
3.73162
-1.68233
-5.66343
-7.92934
-8.38523
-7.12645
-4.41999
-0.667403
3.64537
8.005
11.9275
15.0078
16.9578
17.6277
17.0114
15.2354
12.5337
9.21448
5.62055
2.09064
-1.07625
-3.64967
-5.48783
-6.54783
-6.88566
-6.64607
-6.04334
-5.33455
-4.78779
-4.64861
-5.10824
-6.27739
-8.16906
-10.6929
-13.6628
-16.8167
-19.8484
-22.4446
-24.3252
-25.2773
-25.1795
-24.0119
-21.8501
-18.8468
-15.203
-11.1378
-6.86111
-2.55427
1.63779
5.60396
9.25585
12.5126
15.2865
17.4729
18.9489
19.5806
19.2379
17.8153
15.2533
11.5578
6.81207
1.18044
-5.0991
-11.7319
-18.3914
-24.7492
-30.5056
-35.418
-39.3229
-42.1491
-43.9213
-44.7529
-44.8294
-44.3853
-43.6759
-42.9486
-42.4177
-42.2427
-42.5161
-43.2566
-44.4116
-45.8631
-47.4391
-48.9257
-50.0807
-50.647
-50.3665
-48.9949
-46.3167
-42.1631
-36.4289
-29.0907
-20.2217
-10.0026
1.27531
13.2166
25.3391
37.1029
47.9483
57.3417
64.8223
70.0466
72.8242
73.1387
71.1507
67.1794
61.6612
55.0854
47.909
40.4529
32.7848
24.5956
15.0822
2.85431
-14.1119
-38.4417
-73.2243
-121.745
-187.081
-271.586
-376.306
-500.418
-640.789
-791.763
-945.263
-1091.25
-1218.55
-1315.9
-1373.25
-1382.9
-1340.62
-1246.32
-1104.26
-922.902
-714.088
-491.975
-271.635
-67.5684
107.687
244.717
338.012
386.301
392.42
362.747
306.29
233.562
155.366
81.6472
20.5391
-22.3208
-44.1313
-44.9247
-27.2483
4.4044
44.3257
86.3884
124.807
154.78
172.953
177.665
168.969
148.46
118.931
83.9321
47.2879
12.6332
-16.9784
-39.3556
-53.3197
-58.7214
-56.3358
-47.6637
-34.6725
-19.5137
-4.2552
9.34331
19.9889
26.9379
30.0011
29.4814
26.0601
20.6523
14.2544
7.80291
2.06366
-2.44002
-5.45336
-6.97313
-7.19506
-6.43745
-5.05607
-3.36504
-1.57719
0.227179
2.09937
4.19146
6.7032
9.81794
13.6405
18.1494
23.1719
28.3874
33.3591
37.5873
40.5782
41.9149
41.3204
38.7032
34.1777
28.0564
20.8159
13.0411
5.35613
-1.64952
-7.4872
-11.821
-14.4982
-15.5543
-15.1951
-13.7573
-11.656
-9.32525
-7.16169
-5.47703
-4.46589
-4.19174
-4.59125
-5.49503
-6.66048
-7.81125
-8.67761
-9.03229
-8.71769
-7.66184
-5.88234
-3.47917
-0.618423
2.48985
5.6165
8.53754
11.0552
13.0143
14.3122
14.9029
14.796
14.0505
12.7655
11.0684
9.10311
7.01717
4.95066
3.02635
1.34208
-0.034455
-1.06816
-1.75623
-2.12517
-2.22527
-2.12324
-1.89368
-1.61019
-1.33733
-1.12411
-0.99977
-0.972361
-1.03006
-1.14496
-1.27878
-1.38955
-1.43829
-1.39484
-1.24191
-0.977036
-0.612254
-0.171898
0.311064
0.799412
1.2561
1.64818
1.94981
2.14414
2.22405
2.1917
2.05725
1.8367
1.54924
1.21434
0.84888
0.464833
0.0676613
-0.344142
-0.778361
-1.24725
-1.7649
-2.34408
-2.99312
-3.71299
-4.49531
-5.32134
-6.16227
-6.98106
-7.73553
-8.38267
-8.88358
-9.20851
-9.34154
-9.2843
-9.05868
-8.70851
-8.30073
-7.92619
-7.70021
-7.76233
-8.27424
-9.41483
-11.3711
-14.3245
-18.4331
-23.8101
-30.5016
-38.4642
-47.5486
-57.4888
-67.9038
-78.3105
-88.1518
-96.8364
-103.789
-108.504
-110.598
-109.852
-106.24
-99.9383
-91.3072
-80.8595
-69.2064
-56.9943
-44.8394
-33.2682
-22.6721
-13.2817
-5.16331
1.76158
7.67884
12.831
17.462
21.7658
25.8475
29.7025
33.218
36.1969
38.3989
39.5915
39.5998
38.3412
35.8342
32.168
27.4294
21.5868
14.3407
4.96252
-7.85035
-26.0642
-52.303
-89.7087
-141.645
-211.245
-300.824
-411.247
-541.309
-687.29
-842.757
-998.727
-1144.22
-1267.21
-1355.8
-1399.63
-1391.16
-1326.78
-1207.51
-1039.17
-832.024
-599.88
-358.733
-125.193
85.1906
259.46
388.46
467.601
497.087
481.607
429.559
351.902
260.813
168.303
84.9654
18.9763
-24.5327
-43.7096
-39.8182
-16.7356
19.8011
63.0855
106.352
143.596
170.214
183.407
182.326
167.962
142.83
110.493
75.0198
40.4301
10.2085
-13.0664
-27.9431
-34.159
-32.5517
-24.8459
-13.3571
-0.652733
10.7816
18.8345
21.9882
19.4499
11.1861
-2.12987
-19.2452
-38.5047
-58.0547
-76.0468
-90.8219
-101.055
-105.855
-104.804
-97.9588
-85.7999
-69.151
-49.0792
-26.7861
-3.50339
19.5995
41.4871
61.306
78.4085
92.3525
102.885
109.909
113.453
113.63
110.616
104.63
95.9306
84.8212
71.6668
56.9069
41.0658
24.7503
8.63131
-6.59117
-20.2378
-31.7078
-40.537
-46.446
-49.3698
-49.4637
-47.0812
-42.7278
-36.9959
-30.4918
-23.7654
-17.2547
-11.2529
-5.90299
-1.21822
2.87675
6.49381
9.72917
12.6216
15.1286
17.1247
18.4214
18.8039
18.0778
16.1167
12.9015
8.54512
3.29811
-2.46673
-8.2875
-13.6601
-18.0916
-21.1534
-22.5255
-22.0283
-19.6356
-15.4702
-9.78169
-2.91156
4.74962
12.8053
20.8907
28.6999
35.9987
42.6235
48.4675
53.458
57.5308
60.6072
62.5785
63.3035
62.6201
60.371
56.4387
50.7854
43.4884
34.7652
24.9804
14.6325
4.31904
-5.31543
-13.6431
-20.1191
-24.3418
-26.0987
-25.3907
-22.4332
-17.6318
-11.5368
-4.78246
1.98185
8.15929
13.2645
16.9666
19.1112
19.7212
18.9751
17.1693
14.6692
11.8555
9.07487
6.59897
4.59798
3.1298
2.14532
1.50727
1.01887
0.457261
-0.393363
-1.71354
-3.62875
-6.19981
-9.42365
-13.2427
-17.5603
-22.2583
-27.214
-32.3125
-37.4537
-42.5523
-47.5325
-52.3187
-56.825
-60.9467
-64.5562
-67.5054
-69.6339
-70.7843
-70.8207
-69.6489
-67.2337
-63.6122
-58.8985
-53.2805
-47.0076
-40.3709
-33.6783
-27.2271
-21.278
-16.0314
-11.6108
-8.05172
-5.29852
-3.20855
-1.56336
-0.0866171
1.53182
3.60735
6.42929
10.2297
15.1556
21.2475
28.4283
36.5031
45.172
54.0537
62.7179
70.7229
77.6511
83.1382
86.8893
88.6761
88.3126
85.606
80.2852
71.9114
59.7788
42.8207
19.5406
-12.0057
-54.1492
-109.443
-180.374
-268.966
-376.282
-501.909
-643.491
-796.409
-953.71
-1106.35
-1243.79
-1354.88
-1428.97
-1457.21
-1433.6
-1356.03
-1226.71
-1052.31
-843.475
-613.915
-379.097
-154.74
44.7276
207.567
325.799
395.849
418.682
399.456
346.729
271.353
185.182
99.7683
25.181
-30.921
-63.8735
-72.2142
-57.5167
-23.9031
22.6816
75.3307
127.062
171.628
204.16
221.597
222.863
208.802
181.896
145.828
104.944
63.6975
26.1333
-4.52788
-26.1672
-37.8908
-39.9984
-33.8167
-21.4326
-5.36697
11.7664
27.5738
40.1332
48.1617
51.0871
49.0265
42.6849
33.1947
21.924
10.279
-0.473025
-9.34138
-15.6977
-19.3057
-20.2973
-19.106
-16.3688
-12.8146
-9.15486
-5.98791
-3.73081
-2.58209
-2.51808
-3.31969
-4.62345
-5.98813
-6.96731
-7.17827
-6.35874
-4.4052
-1.38874
2.45232
6.74122
11.0088
14.7507
17.488
18.8247
18.4951
16.3945
12.5931
7.32895
0.984125
-5.95419
-12.9423
-19.4329
-24.9271
-29.0199
-31.4357
-32.0498
-30.8956
-28.1559
-24.1399
-19.249
-13.9335
-8.64577
-3.79448
0.294947
3.40869
5.45832
6.47814
6.60638
6.05292
5.05821
3.84969
2.60235
1.40967
0.269701
-0.911366
-2.29846
-4.0925
-6.48605
-9.61632
-13.5229
-18.1171
-23.169
-28.3146
-33.0848
-36.9514
-39.3869
-39.9278
-38.2338
-34.1362
-27.666
-19.0609
-8.74895
2.68828
14.5684
26.1697
36.795
45.8296
52.7893
57.3537
59.3827
58.9169
56.1631
51.4672
45.2786
38.109
30.4893
22.929
15.8794
9.7043
4.66032
0.886519
-1.59492
-2.86832
-3.10572
-2.54181
-1.44541
-0.0904577
1.27051
2.42796
3.23008
3.58975
3.4838
2.94537
2.05106
0.905064
-0.377767
-1.68752
-2.93203
-4.04573
-4.99397
-5.77299
-6.40604
-6.9367
-7.42058
-7.91669
-8.47977
-9.15459
-9.9728
-10.9526
-12.1012
-13.419
-14.9051
-16.5625
-18.4027
-20.4474
-22.7281
-25.2824
-28.1481
-31.3554
-34.9186
-38.8289
-43.0478
-47.5039
-52.0917
-56.6732
-61.0825
-65.1321
-68.6227
-71.3543
-73.1391
-73.8151
-73.26
-71.4036
-68.2364
-63.8153
-58.2632
-51.7621
-44.5396
-36.8493
-28.9457
-21.0568
-13.358
-5.95112
1.14715
8.00518
14.7629
21.607
28.7371
36.329
44.4994
53.2781
62.5914
72.2589
82.0044
91.4775
100.283
108.015
114.286
118.753
121.135
121.212
118.805
113.742
105.785
94.55
79.3956
59.3245
32.9023
-1.76546
-46.9655
-105.191
-178.824
-269.692
-378.545
-504.516
-644.669
-793.725
-944.076
-1086.14
-1209.06
-1301.75
-1354.06
-1358.08
-1309.23
-1207.06
-1055.67
-863.513
-642.722
-408.022
-175.264
40.1418
224.744
368.331
464.814
512.642
514.692
477.693
411.269
326.728
235.754
149.169
75.8849
22.1567
-8.79731
-16.8064
-4.41357
23.7303
61.65
102.899
141.375
172.011
191.263
197.368
190.362
171.873
144.75
112.582
79.1718
48.0483
22.0603
3.09753
-8.03753
-11.6091
-8.79473
-1.43302
8.28728
18.1502
26.2064
31.0019
31.7214
28.2327
21.0398
11.1573
-0.0700351
-11.1723
-20.7577
-27.687
-31.199
-30.9777
-27.1569
-20.2691
-11.1511
-0.822275
9.64497
19.2481
27.1552
32.7767
35.8013
36.1991
34.1939
30.2119
24.8154
18.628
12.2618
6.25004
0.994341
-3.27096
-6.49314
-8.79241
-10.431
-11.7629
-13.1702
-14.9947
-17.4737
-20.6912
-24.5521
-28.7857
-32.9794
-36.6386
-39.2641
-40.4358
-39.8879
-37.5634
-33.6379
-28.5087
-22.7485
-17.0315
-12.0415
-8.37602
-6.45923
-6.47765
-8.34595
-11.7087
-15.9777
-20.3995
-24.1459
-26.4145
-26.5287
-24.0242
-18.7134
-10.7186
-0.472317
11.3183
23.7372
35.7505
46.3129
54.4769
59.4942
60.8967
58.5468
52.653
43.7464
32.623
20.2584
7.70447
-4.01826
-14.0215
-21.6307
-26.4397
-28.3335
-27.4775
-24.2777
-19.3173
-13.2794
-6.86447
-0.713806
4.65395
8.88606
11.8156
13.4572
13.9817
13.673
12.8752
11.9367
11.1585
10.7533
10.8204
11.3379
12.173
13.1068
13.8715
14.1919
13.8276
12.6093
10.4646
7.43115
3.65499
-0.624356
-5.10013
-9.43222
-13.2843
-16.3595
-18.4308
-19.362
-19.1184
-17.7647
-15.4528
-12.4006
-8.86415
-5.10964
-1.38609
2.09564
5.17602
7.7507
9.76555
11.2044
12.0723
12.3779
12.1175
11.266
9.7736
7.57196
4.587
0.757147
-3.94664
-9.50241
-15.8241
-22.7564
-30.079
-37.5208
-44.7824
-51.5635
-57.593
-62.6572
-66.6215
-69.4452
-71.1841
-71.9842
-72.0635
-71.6868
-71.1339
-70.6661
-70.494
-70.7495
-71.4663
-72.5701
-73.8807
-75.1249
-75.9608
-76.0113
-74.9027
-72.3073
-67.9837
-61.8112
-53.8152
-44.178
-33.2346
-21.4517
-9.39038
2.3427
13.1529
22.5162
30.0329
35.4688
38.7792
40.1106
39.7811
38.2388
36.0045
33.6047
31.5001
30.0176
29.2866
29.1809
29.2628
28.7267
26.3401
20.389
8.64381
-11.6299
-43.5789
-90.5553
-155.771
-241.814
-350.065
-480.076
-629.036
-791.429
-958.998
-1121.11
-1265.53
-1379.53
-1451.29
-1471.31
-1433.71
-1337.19
-1185.49
-987.292
-755.526
-506.128
-256.47
-23.6025
177.464
335.209
442.637
497.769
503.557
467.262
399.381
312.297
218.801
130.692
57.5956
6.13767
-20.4701
-22.4096
-2.8457
32.7923
77.7216
124.783
167.358
200.126
219.578
224.256
214.713
193.225
163.324
129.212
95.16
64.9507
41.4449
26.3034
19.8913
21.3581
28.8673
39.9333
51.8134
61.8991
68.0577
68.8833
63.8321
53.2355
38.1974
20.3985
1.84141
-15.428
-29.5843
-39.2392
-43.5882
-42.4737
-36.3638
-26.2563
-13.5255
0.263139
13.5478
24.9475
33.4042
38.2742
39.3644
36.9125
31.5197
24.0478
15.4964
6.87594
-0.907405
-7.14354
-11.3778
-13.4345
-13.406
-11.6109
-8.53144
-4.73815
-0.814075
2.71294
5.42159
7.02754
7.39187
6.50965
4.48389
1.4916
-2.25066
-6.51567
-11.0846
-15.7551
-20.3395
-24.6575
-28.5271
-31.7591
-34.1594
-35.5389
-35.7328
-34.6245
-32.1705
-28.4213
-23.5331
-17.7675
-11.4767
-5.07575
0.995041
6.31377
10.5201
13.353
14.6769
14.495
12.9453
10.283
6.84944
3.03299
-0.77354
-4.21383
-7.0025
-8.94934
-9.97112
-10.0902
-9.42132
-8.14834
-6.49553
-4.69637
-2.96437
-1.46924
-0.320607
0.439329
0.834146
0.943408
0.885825
0.796385
0.797827
0.965938
1.28747
1.60937
1.57902
0.577394
-2.34924
-8.54898
-19.8001
-38.3034
-66.6088
-107.455
-163.51
-237.008
-329.313
-440.442
-568.633
-710.032
-858.581
-1006.2
-1143.25
-1259.32
-1344.21
-1389.06
-1387.4
-1336.09
-1235.85
-1091.49
-911.56
-707.665
-493.356
-282.819
-89.4916
75.2335
203.042
289.37
333.644
339.068
312.013
261.106
196.126
126.866
62.0887
8.69186
-28.8355
-48.6258
-51.3191
-39.6685
-17.9362
8.82387
35.4996
57.5798
71.6645
75.7808
69.4844
53.7576
30.738
3.32957
-25.2427
-51.8725
-73.9516
-89.6478
-98.0563
-99.219
-94.0232
-84.0039
-71.0856
-57.3014
-44.5274
-34.2643
-27.4881
-24.5818
-25.3476
-29.0895
-34.7468
-41.0579
-46.7301
-50.5945
-51.7295
-49.5445
-43.8165
-34.6852
-22.6089
-8.29412
7.39335
23.523
39.1903
53.5958
66.1041
76.2817
83.9097
88.9746
91.6396
92.2027
91.0474
88.5928
85.2483
81.3784
77.2787
73.165
69.1739
65.3727
61.7758
58.3629
55.0982
51.9456
48.8797
45.8922
42.9925
40.2042
37.5593
35.0893
32.817
30.749
28.87
27.1396
25.4932
23.8461
22.1015
20.162
17.9436
15.3912
12.4928
9.29142
5.89134
2.45776
-0.792427
-3.60825
-5.72969
-6.91782
-6.98655
-5.83185
-3.45445
0.0278262
4.38071
9.26814
14.2804
18.973
22.9124
25.7225
27.1266
26.979
25.2819
22.1848
17.9675
13.0068
7.73334
2.58335
-2.04813
-5.84673
-8.60592
-10.2395
-10.779
-10.3575
-9.18452
-7.51653
-5.62807
-3.78869
-2.24747
-1.22615
-0.919019
-1.4966
-3.10973
-5.89092
-9.95118
-15.3721
-22.1943
-30.4045
-39.9235
-50.5981
-62.198
-74.4204
-86.9
-99.2269
-110.968
-121.691
-130.988
-138.501
-143.935
-147.074
-147.79
-146.049
-141.911
-135.53
-127.147
-117.09
-105.759
-93.615
-93.615
-93.615
-93.615
-93.615
-93.615
-93.615
-93.615
-93.615
-93.615
-93.615
-93.615
-93.615
-93.615
-93.615
-93.615
-93.615
-93.615
-93.615
-93.615
