-335.66
-422.353
-510.881
-594.667
-666.416
-718.922
-745.987
-743.302
-709.175
-644.967
-555.172
-447.085
-330.096
-214.683
-111.238
-28.8617
25.6918
48.8026
40.3911
3.89567
-54.1695
-125.015
-198.632
-264.958
-315.02
-341.916
-341.515
-312.822
-257.965
-181.838
-91.4548
4.90395
98.6244
181.679
247.421
291.18
310.603
305.727
278.791
233.838
176.157
111.649
46.185
-14.9673
-67.5979
-108.846
-137.318
-153.029
-157.206
-151.972
-139.983
-124.046
-106.776
-90.3319
-76.2422
-65.3382
-57.7871
-53.2056
-50.8293
-49.7073
-48.8919
-47.5995
-45.3222
-41.8818
-37.4244
-32.3641
-27.2879
-22.8401
-19.6035
-17.994
-18.1823
-20.0501
-23.1851
-26.9132
-30.363
-32.5542
-32.4998
-29.3105
-22.2924
-11.0259
4.57942
24.261
47.4116
73.12
100.239
127.475
153.491
177.007
196.899
212.274
222.522
227.336
226.715
220.924
210.454
195.959
178.192
157.953
136.03
113.163
90.0139
67.1444
45.0049
23.9307
4.14203
-14.2489
-31.2269
-46.8581
-61.2694
-74.6242
-87.0959
-98.8412
-109.975
-120.55
-130.546
-139.864
-148.335
-155.733
-161.799
-166.268
-168.904
-169.525
-168.031
-164.418
-158.789
-151.34
-142.35
-132.147
-121.08
-109.489
-97.6748
-85.887
-74.3166
-63.1026
-52.3459
-42.1268
-32.5238
-23.6261
-15.5404
-8.38788
-2.29395
2.6287
6.29932
8.68742
9.82658
9.82087
8.84248
7.12045
4.92185
2.52776
0.207334
-1.80682
-3.33868
-4.28209
-4.60568
-4.34938
-3.61325
-2.54042
-1.29663
-0.0488943
1.05405
1.89756
2.41196
2.57801
2.42783
2.04206
1.54492
1.09788
0.892844
1.14448
2.08148
3.93581
6.92965
11.2598
17.0808
24.4874
33.4991
44.0491
55.9785
69.0381
82.8977
97.1627
111.395
125.14
137.948
149.4
159.126
166.815
172.224
175.173
175.546
173.286
168.386
160.892
150.901
138.565
124.099
107.783
89.9645
71.0567
51.5244
31.8666
12.5909
-5.81702
-22.9244
-38.3797
-51.9349
-63.4576
-72.9322
-80.449
-86.1836
-90.3686
-93.2611
-95.1117
-96.1374
-96.5025
-96.31
-95.6022
-94.3715
-92.5756
-90.1537
-87.0354
-83.1354
-78.3285
-72.4019
-64.9892
-55.4976
-43.0459
-26.4388
-4.19746
25.3336
63.7985
112.569
172.439
243.31
323.931
411.73
502.801
592.065
673.616
741.235
789.003
811.969
806.755
772.039
708.831
620.496
512.515
391.994
266.992
145.735
35.8063
-56.5683
-127.085
-173.695
-196.68
-198.474
-183.26
-156.399
-123.774
-91.1161
-63.4145
-44.4458
-36.4896
-40.2372
-54.8904
-78.4199
-107.94
-140.143
-171.731
-199.801
-222.139
-237.395
-245.13
-245.753
-240.355
-230.486
-217.894
-204.276
-191.061
-179.256
-169.362
-161.365
-154.803
-148.878
-142.618
-135.036
-125.288
-112.797
-97.3303
-79.0286
-58.3806
-36.1527
-13.2884
9.20983
30.3987
49.4958
65.9559
79.5117
90.1792
98.2291
104.131
108.481
111.919
115.054
118.397
122.315
127.007
132.501
138.674
145.282
152.006
158.499
164.425
169.5
173.511
176.332
177.926
178.33
177.641
175.997
173.552
170.458
166.851
162.837
158.492
153.855
148.935
143.709
138.134
132.148
125.672
118.627
110.932
102.524
93.3679
83.4719
72.8991
61.7754
50.2906
38.6904
27.2612
16.308
6.12922
-3.00998
-10.9009
-17.4096
-22.4879
-26.1766
-28.5997
-29.9526
-30.4831
-30.4695
-30.1969
-29.9335
-29.9114
-30.3107
-31.2505
-32.7867
-34.9149
-37.5789
-40.6811
-44.0941
-47.6711
-51.2534
-54.6747
-57.7631
-60.3415
-62.2296
-63.2482
-63.2279
-62.023
-59.5285
-55.6987
-50.5643
-44.2446
-36.9517
-28.9854
-20.719
-12.5757
-5.00076
1.57099
6.74766
10.213
11.7576
11.307
8.94438
4.92218
-0.34082
-6.28271
-12.2439
-17.534
-21.5163
-23.6989
-23.8233
-21.9322
-18.4053
-13.9478
-9.52791
-6.2643
-5.27362
-7.4987
-13.5412
-23.5256
-37.0166
-53.0081
-69.9875
-86.0721
-99.2008
-107.359
-108.804
-102.274
-87.1357
-63.4747
-32.1016
5.51673
47.3946
91.2156
134.55
175.073
210.765
240.068
261.981
276.101
282.588
282.089
275.609
264.368
249.653
232.682
214.5
195.91
177.443
159.371
141.751
124.487
107.402
90.3187
73.1142
55.7707
38.3953
21.2182
4.56818
-11.1701
-25.6094
-38.415
-49.3509
-58.3055
-65.2887
-70.3929
-73.717
-75.2606
-74.8028
-71.7894
-65.2557
-53.816
-35.7417
-9.14066
27.769
76.3139
136.994
209.144
290.68
378.01
466.129
548.926
619.694
671.792
699.373
698.115
665.813
602.788
512.005
398.907
270.947
136.883
5.91865
-113.21
-213.096
-288.349
-336.058
-355.957
-350.297
-323.453
-281.318
-230.572
-177.925
-129.405
-89.7971
-62.2565
-48.1533
-47.1247
-57.3215
-75.7954
-98.9708
-123.135
-144.889
-161.509
-171.182
-173.108
-167.464
-155.25
-138.057
-117.788
-96.3713
-75.5107
-56.499
-40.1065
-26.5566
-15.5785
-6.52212
1.4883
9.38664
18.0084
27.9656
39.567
52.7894
67.3008
82.524
97.7316
112.154
125.088
135.986
144.525
150.635
154.501
156.527
157.277
157.394
157.521
158.222
159.913
162.822
166.967
172.161
178.037
184.094
189.746
194.385
197.424
198.353
196.765
192.382
185.062
174.804
161.732
146.089
128.215
108.529
87.5118
65.6853
43.5921
21.7773
0.767339
-18.9498
-36.9455
-52.8696
-66.4669
-77.5894
-86.203
-92.3864
-96.322
-98.2796
-98.5927
-97.6309
-95.769
-93.3579
-90.6979
-88.0183
-85.4646
-83.094
-80.879
-78.7193
-76.4602
-73.9152
-70.891
-67.2133
-62.7489
-57.4249
-51.2402
-44.2708
-36.6667
-28.6424
-20.4601
-12.4097
-4.78593
2.13443
8.11307
12.9667
16.5787
18.9041
19.9695
19.8672
18.7439
16.7873
14.2094
11.2294
8.05695
4.87737
1.83933
-0.953066
-3.44376
-5.62323
-7.52207
-9.20054
-10.7351
-12.2037
-13.6715
-15.1789
-16.7331
-18.3052
-19.831
-21.2177
-22.354
-23.1221
-23.4103
-23.124
-22.1926
-20.5724
-18.2449
-15.2109
-11.4831
-7.07906
-2.01707
3.6842
10.001
16.896
24.3073
32.1384
40.2508
48.4623
56.5516
64.2703
71.3588
77.5666
82.6717
86.4966
88.9196
89.8788
89.3699
87.439
84.1717
79.683
74.1089
67.6011
60.3262
52.4671
44.2256
35.8242
27.5044
19.5201
12.1264
5.56403
0.0408569
-4.28663
-7.32931
-9.07647
-9.59983
-9.04977
-7.64364
-5.64755
-3.35367
-1.05586
0.973354
2.50154
3.34851
3.39072
2.55821
0.826097
-1.79508
-5.26419
-9.50242
-14.3672
-19.6028
-24.7679
-29.1486
-31.6737
-30.8579
-24.8034
-11.2894
12.0304
47.3217
96.1761
159.181
235.524
322.708
416.46
510.887
598.89
672.819
725.293
750.085
742.948
702.251
629.333
528.518
406.75
272.925
136.965
8.78693
-102.726
-190.608
-250.439
-280.667
-282.566
-259.898
-218.294
-164.497
-105.527
-47.9175
2.91851
43.1142
70.5409
84.7711
86.8455
78.9
63.7194
44.2838
23.3692
3.24381
-14.514
-29.072
-40.2875
-48.5627
-54.6485
-59.4293
-63.7259
-68.1388
-72.9517
-78.0988
-83.1938
-87.6076
-90.5786
-91.3355
-89.2135
-83.7486
-74.7391
-62.2688
-46.6922
-28.5875
-8.68651
12.2079
33.3055
53.9014
73.4314
91.5044
107.909
122.599
135.659
147.264
157.628
166.961
175.436
183.165
190.191
196.492
202
206.621
210.26
212.84
214.318
214.689
213.981
212.235
209.488
205.749
200.974
195.057
187.826
179.056
168.5
155.919
141.134
124.068
104.784
83.5138
60.6609
36.7907
12.5968
-11.1479
-33.6506
-54.1596
-72.0213
-86.7234
-97.9218
-105.448
-109.296
-109.599
-106.595
-100.589
-91.9217
-80.9506
-68.0365
-53.5441
-37.8492
-21.349
-4.47104
12.3243
28.5497
43.7069
57.3114
68.923
78.1785
84.8207
88.7216
89.893
88.4861
84.7768
79.1398
72.0132
63.8598
55.1269
46.2114
37.4334
29.0199
21.1009
13.7164
6.8331
0.366505
-5.79359
-11.7593
-17.6249
-23.4533
-29.2706
-35.0668
-40.8025
-46.4193
-51.851
-57.0333
-61.9114
-66.4436
-70.6016
-74.3677
-77.7306
-80.6802
-83.2036
-85.2824
-86.8923
-88.0044
-88.5876
-88.6122
-88.0525
-86.8878
-85.1019
-82.6797
-79.6022
-75.8406
-71.3511
-66.0716
-59.9241
-52.821
-44.6786
-35.4354
-25.074
-13.643
-1.27652
11.7933
25.2333
38.6172
51.4458
63.1783
73.2714
81.2242
86.6232
89.1827
88.7776
85.4616
79.4723
71.2179
61.2488
50.2162
38.8195
27.7504
17.6372
8.99522
2.18953
-2.58845
-5.3268
-6.18217
-5.45341
-3.54323
-0.912305
1.96904
4.66637
6.81938
8.16908
8.57178
7.99925
6.52589
4.30601
1.54606
-1.5214
-4.6538
-7.59604
-10.053
-11.6342
-11.7772
-9.66156
-4.14102
6.27846
23.3814
49.0844
85.1695
132.931
192.779
263.87
343.843
428.738
513.141
590.584
654.151
697.252
714.422
702.071
659.038
586.887
489.872
374.583
249.295
123.122
5.06553
-96.9104
-176.671
-230.472
-257.228
-258.474
-238.037
-201.463
-155.294
-106.287
-60.6639
-23.4848
1.78838
13.5101
11.8363
-1.49848
-23.5672
-50.7396
-79.2048
-105.462
-126.722
-141.174
-148.109
-147.881
-141.743
-131.584
-119.605
-107.994
-98.629
-92.8568
-91.3562
-94.1051
-100.44
-109.19
-118.871
-127.891
-134.757
-138.252
-137.564
-132.348
-122.743
-109.318
-92.9901
-74.9
-56.281
-38.3275
-22.0774
-8.31884
2.47181
10.1589
14.9423
17.321
18.0313
17.9657
18.0808
19.3023
22.4353
28.0879
36.6138
48.0791
62.2546
78.6359
96.4862
114.901
132.884
149.436
163.634
174.71
182.11
185.533
184.947
180.58
172.888
162.508
150.193
136.745
122.947
109.507
97.0087
85.8782
76.3739
68.5869
62.4595
57.8138
54.3882
51.876
49.9633
48.361
46.8298
45.1952
43.3534
41.2682
38.96
36.4898
33.9409
31.3999
28.9404
26.6109
24.4285
22.3788
20.4207
18.4965
16.5439
14.5074
12.348
10.0492
7.61836
5.08399
2.49046
-0.109056
-2.65924
-5.10787
-7.4089
-9.52331
-11.4182
-13.0651
-14.4386
-15.5154
-16.2757
-16.7056
-16.8001
-16.5673
-16.0306
-15.2303
-14.2225
-13.0748
-11.8614
-10.6549
-9.51901
-8.50113
-7.62694
-6.89769
-6.29059
-5.76244
-5.25616
-4.70923
-4.06304
-3.27177
-2.30948
-1.17437
0.110464
1.50012
2.93426
4.34604
5.67216
6.86253
7.88794
8.74459
9.4544
10.0612
10.6227
11.2
11.8456
12.5911
13.4378
14.3503
15.2539
16.0373
16.5577
16.6497
16.1339
14.8266
12.5487
9.13336
4.43501
-1.66205
-9.23309
-18.3015
-28.827
-40.6946
-53.707
-67.5809
-81.9506
-96.3778
-110.37
-123.403
-134.956
-144.541
-151.739
-156.238
-157.853
-156.552
-152.46
-145.85
-137.125
-126.782
-115.372
-103.452
-91.543
-80.0903
-69.4388
-59.8179
-51.3379
-43.9918
-37.6535
-32.0658
-26.8101
-21.2583
-14.5143
-5.36295
7.74837
26.6651
53.3939
89.8717
137.644
197.486
269.032
350.47
438.396
527.872
612.729
686.092
741.093
771.665
773.328
743.836
683.597
595.784
486.124
362.371
233.534
108.947
-2.68752
-94.1775
-160.527
-199.354
-211.001
-198.331
-166.264
-121.1
-69.7447
-18.9226
25.5282
59.198
79.4373
85.4549
78.1935
60.0169
34.2648
4.74063
-24.7981
-51.0878
-71.6958
-85.2186
-91.3316
-90.6995
-84.7742
-75.5152
-65.0773
-55.5047
-48.4716
-45.095
-45.8365
-50.497
-58.2963
-68.019
-78.2039
-87.347
-94.0945
-97.3994
-96.6274
-91.6016
-82.5862
-70.2161
-55.3861
-39.116
-22.4134
-6.14933
9.03494
22.7822
35.029
45.9737
56.0104
65.6401
75.3742
85.643
96.7229
108.69
121.407
134.534
147.58
159.952
171.035
180.255
187.139
191.355
192.735
191.277
187.127
180.548
171.882
161.516
149.844
137.238
124.038
110.538
96.9878
83.6039
70.5755
58.0749
46.2647
35.3006
25.3286
16.4792
8.85761
2.53331
-2.46962
-6.17903
-8.6769
-10.0964
-10.6136
-10.4351
-9.78165
-8.87168
-7.90415
-7.04452
-6.41444
-6.08655
-6.08474
-6.38953
-6.94785
-7.6855
-8.52083
-9.37768
-10.196
-10.9393
-11.5972
-12.1853
-12.7397
-13.3101
-13.9512
-14.713
-15.6336
-16.7329
-18.0091
-19.4387
-20.9779
-22.5662
-24.1309
-25.5919
-26.8659
-27.8696
-28.5225
-28.749
-28.4796
-27.6531
-26.2185
-24.1371
-21.3851
-17.9564
-13.8644
-9.14431
-3.85362
1.92814
8.10098
14.5476
21.1378
27.7348
34.2015
40.408
46.2389
51.5997
56.4215
60.6642
64.3177
67.3994
69.9508
72.0313
73.7107
75.061
76.1485
77.0268
77.7314
78.277
78.6562
78.8414
78.787
78.4327
77.7061
76.5241
74.7926
72.405
69.2416
65.1697
60.0484
53.7382
46.1156
37.0936
26.6434
14.8169
1.76317
-12.2628
-26.9032
-41.7133
-56.1898
-69.8092
-82.0707
-92.5397
-100.885
-106.907
-110.547
-111.89
-111.142
-108.609
-104.655
-99.6688
-94.0287
-88.0731
-82.0833
-76.2747
-70.7995
-65.7556
-61.2005
-57.1628
-53.6456
-50.6156
-47.9702
-45.4822
-42.7224
-38.9716
-33.1392
-23.7145
-8.78057
13.8824
46.5872
91.4246
149.867
222.344
307.851
403.686
505.369
606.813
700.751
779.402
835.298
862.172
855.779
814.539
739.884
636.27
510.81
372.599
231.789
98.5361
-18.0383
-110.76
-175.063
-209.344
-214.96
-195.899
-158.177
-109.038
-56.082
-6.40516
34.125
61.3998
73.3499
69.966
53.0781
25.9423
-7.30048
-42.2146
-74.6346
-101.138
-119.379
-128.252
-127.89
-119.505
-105.115
-87.1964
-68.3193
-50.8079
-36.4701
-26.4221
-21.02
-19.8963
-22.0853
-26.2124
-30.717
-34.0765
-35.0035
-32.5952
-26.4191
-16.5322
-3.43738
12.0123
28.7439
45.6103
61.5327
75.6219
87.2664
96.1793
102.402
106.271
108.347
109.335
109.982
110.989
112.932
116.204
120.987
127.245
134.749
143.111
151.844
160.406
168.263
174.925
179.981
183.112
184.099
182.818
179.224
173.345
165.264
155.12
143.099
129.442
114.447
98.4757
81.9511
65.3493
49.1826
33.9727
20.2171
8.35157
-1.28692
-8.49084
-13.2031
-15.5243
-15.7043
-14.12
-11.2392
-7.5773
-3.64907
0.0765026
3.21522
5.49546
6.77251
7.02857
6.35924
4.949
3.03904
0.891654
-1.24481
-3.16659
-4.73782
-5.90472
-6.69967
-7.23554
-7.69155
-8.29246
-9.28363
-10.9044
-13.3623
-16.8109
-21.3319
-26.9245
-33.5018
-40.8939
-48.8588
-57.0991
-65.2824
-73.0663
-80.1222
-86.1597
-90.947
-94.3264
-96.2237
-96.6504
-95.6984
-93.5276
-90.3487
-86.4012
-81.9304
-77.1651
-72.2977
-67.4692
-62.7604
-58.1895
-53.7168
-49.2552
-44.6859
-39.8772
-34.7033
-29.0626
-22.8913
-16.1733
-8.94269
-1.28235
6.68418
14.8035
22.9058
30.8183
38.3776
45.4391
51.8832
57.6169
62.5731
66.7065
69.9885
72.4023
73.9383
74.5922
74.3645
73.2631
71.3062
68.5264
64.9749
60.723
55.8622
50.5018
44.7635
38.7754
32.6646
26.5499
20.5372
14.7153
9.15506
3.91051
-0.9789
-5.48454
-9.58472
-13.2611
-16.4955
-19.2685
-21.5581
-23.3403
-24.5907
-25.2869
-25.4115
-24.9567
-23.9289
-22.3535
-20.2798
-17.7832
-14.9641
-11.9376
-8.81146
-5.64625
-2.39468
1.17858
5.58971
11.7252
20.9039
34.8822
55.7712
85.846
127.241
181.555
249.407
330.025
420.944
517.888
614.909
704.792
779.712
832.058
855.353
845.1
799.469
719.69
610.102
477.824
332.09
183.325
42.0716
-82.0905
-181.5
-251.136
-289.016
-296.244
-276.706
-236.471
-182.989
-124.187
-67.5722
-19.4625
15.5901
35.1199
38.7987
28.2342
6.56083
-22.1077
-53.2869
-82.7107
-106.833
-123.185
-130.568
-129.058
-119.86
-105.022
-87.0888
-68.7093
-52.2851
-39.6792
-32.026
-29.6528
-32.1139
-38.3195
-46.7349
-55.6174
-63.2566
-68.1888
-69.3596
-66.2208
-58.7562
-47.4388
-33.1319
-16.9516
-0.110437
16.2373
31.1298
43.8976
54.2187
62.1276
67.9785
72.3728
76.0598
79.8263
84.3879
90.2956
97.8679
107.154
117.934
129.745
141.943
153.772
164.449
173.237
179.516
182.828
182.904
179.673
173.244
163.878
151.955
137.933
122.307
105.583
88.2508
70.77
53.5628
37.0099
21.4492
7.17474
-5.56733
-16.5843
-25.7447
-32.986
-38.3214
-41.8422
-43.7155
-44.1756
-43.5088
-42.0332
-40.0749
-37.9428
-35.905
-34.1695
-32.8703
-32.0616
-31.72
-31.7543
-32.0208
-32.3442
-32.5382
-32.4267
-31.8606
-30.7303
-28.9724
-26.5705
-23.5527
-19.9852
-15.9654
-11.6152
-7.07542
-2.50158
1.94042
6.07856
9.7406
12.762
14.996
16.3247
16.6705
16.0058
14.3589
11.8159
8.51617
4.64349
0.411954
-3.95
-8.21637
-12.1787
-15.6581
-18.5127
-20.641
-21.981
-22.5061
-22.2198
-21.1493
-19.34
-16.8506
-13.7496
-10.1118
-6.01477
-1.53481
3.25809
8.30608
13.5689
19.0278
24.6863
30.5675
36.7061
43.1375
49.8839
56.9405
64.2638
71.7654
79.3115
86.7302
93.8257
100.397
106.257
111.253
115.282
118.289
120.27
121.258
121.3
120.44
118.7
116.062
112.468
107.826
102.03
94.9822
86.6249
76.9683
66.1117
54.2545
41.6938
28.8082
16.0289
3.80311
-7.44775
-17.3672
-25.697
-32.2987
-37.1623
-40.4001
-42.2274
-42.9339
-42.8494
-42.3083
-41.6204
-41.0482
-40.7956
-41.0072
-41.7748
-43.1481
-45.1426
-47.7381
-50.8597
-54.3373
-57.841
-60.7953
-62.2871
-60.9855
-55.1026
-42.4284
-20.4655
13.319
61.1298
124.401
203.333
296.487
400.525
510.173
618.456
717.214
797.866
852.332
874
858.6
804.859
714.837
593.868
450.128
293.84
136.248
-11.5402
-139.676
-240.541
-309.433
-344.909
-348.745
-325.547
-282.058
-226.283
-166.531
-110.492
-64.4646
-32.8029
-17.6399
-18.8864
-34.4902
-60.8956
-93.6337
-127.957
-159.44
-184.478
-200.627
-206.767
-203.087
-190.902
-172.358
-150.061
-126.694
-104.666
-85.8397
-71.3537
-61.5652
-56.0954
-53.967
-53.8039
-54.0606
-53.2495
-50.1367
-43.8837
-34.1237
-20.9679
-4.95021
13.0777
32.0816
50.9892
68.8254
84.8201
98.4794
109.614
118.324
124.953
130.011
134.084
137.754
141.513
145.712
150.529
155.963
161.853
167.92
173.818
179.188
183.709
187.136
189.32
190.214
189.851
188.322
185.737
182.189
177.725
172.33
165.926
158.384
149.557
139.315
127.593
114.422
99.9642
84.5176
68.5145
52.4928
37.0535
22.8071
10.3145
0.0307285
-7.74041
-12.8773
-15.4511
-15.7162
-14.0815
-11.0666
-7.2478
-3.20118
0.551082
3.58557
5.60887
6.47297
6.17405
4.83639
2.68422
0.00589894
-2.88513
-5.68776
-8.14534
-10.0692
-11.3524
-11.9725
-11.9852
-11.5096
-10.7086
-9.76635
-8.8657
-8.16839
-7.79945
-7.83717
-8.30902
-9.19331
-10.4259
-11.9103
-13.5302
-15.1626
-16.6894
-18.0081
-19.0393
-19.7304
-20.0573
-20.0227
-19.6519
-18.9878
-18.0841
-16.9992
-15.7907
-14.51
-13.1988
-11.8875
-10.5935
-9.32201
-8.06674
-6.81126
-5.53034
-4.19089
-2.75245
-1.16717
0.620392
2.67316
5.06052
7.8558
11.1318
14.9546
19.3753
24.4217
30.0904
36.3401
43.0889
50.2143
57.558
64.9347
72.1437
78.9823
85.2596
90.8082
95.4928
99.2137
101.905
103.53
104.067
103.505
101.829
99.0172
95.0393
89.8659
83.4801
75.8959
67.1765
57.4516
46.9272
35.8879
24.6878
13.7308
3.44166
-5.76878
-13.5407
-19.5993
-23.7819
-26.0541
-26.5135
-25.3795
-22.9713
-19.6768
-15.916
-12.1039
-8.61703
-5.76575
-3.77464
-2.76818
-2.75855
-3.62949
-5.11014
-6.73445
-7.78647
-7.23871
-3.69973
4.60496
19.7902
44.1796
80.0703
129.396
193.317
271.799
363.239
464.244
569.614
672.583
765.334
839.731
888.196
904.622
885.184
828.937
738.103
617.994
476.568
323.674
170.061
26.2907
-98.3222
-196.61
-264.19
-299.767
-305.086
-284.546
-244.549
-192.664
-136.726
-83.9695
-40.3064
-9.80899
5.54717
5.87791
-6.85581
-29.2851
-57.1925
-86.1154
-111.919
-131.27
-141.968
-143.103
-135.038
-119.242
-97.9951
-74.0265
-50.1326
-28.8212
-12.0281
-0.930709
4.12505
3.58829
-1.42849
-9.35021
-18.3777
-26.73
-32.8608
-35.6231
-34.3686
-28.9732
-19.7956
-7.57846
6.68862
21.9229
37.0989
51.3749
64.184
75.2778
84.7248
92.8648
100.23
107.445
115.124
123.771
133.705
145.017
157.554
170.946
184.65
198.026
210.407
221.183
229.85
236.061
239.633
240.54
238.88
234.836
228.623
220.453
210.497
198.881
185.687
170.981
154.844
137.415
118.919
99.6945
80.1945
60.9719
42.6454
25.8485
11.1711
-0.900669
-10.0365
-16.0999
-19.1663
-19.5176
-17.6163
-14.0595
-9.52082
-4.68572
-0.188899
3.44013
5.81734
6.72704
6.12632
4.13204
0.993565
-2.94471
-7.28614
-11.6251
-15.5866
-18.8585
-21.2142
-22.5253
-22.7631
-21.9904
-20.3467
-18.0268
-15.2575
-12.2741
-9.29879
-6.52382
-4.09888
-2.12488
-0.652908
0.311989
0.803464
0.884174
0.635106
0.145091
-0.498564
-1.21768
-1.94864
-2.64557
-3.28126
-3.84605
-4.34507
-4.79406
-5.21448
-5.62822
-6.05254
-6.49583
-6.95452
-7.41155
-7.8365
-8.18727
-8.41275
-8.45568
-8.25477
-7.74498
-6.85572
-5.50727
-3.60666
-1.04486
2.30238
6.56854
11.8841
18.3587
26.06
34.9909
45.071
56.1235
67.8722
79.9494
91.9152
103.287
113.573
122.314
129.119
133.694
135.866
135.593
132.96
128.167
121.507
113.336
104.045
94.0291
83.6606
73.2703
63.1338
53.4656
44.4195
36.0944
28.5429
21.7823
15.804
10.5829
6.08306
2.26159
-0.930377
-3.54811
-5.65465
-7.32194
-8.63123
-9.67225
-10.5415
-11.3399
-12.1709
-13.1388
-14.3454
-15.8849
-17.8281
-20.194
-22.8996
-25.6854
-28.0216
-29.0042
-27.2679
-20.9465
-7.71891
15.0285
49.9094
99.126
163.983
244.402
338.523
442.494
550.521
655.205
748.183
820.975
865.961
877.342
851.945
789.753
694.074
571.311
430.359
281.697
136.298
4.48078
-105.136
-186.462
-236.449
-255.242
-245.959
-214.149
-167.014
-112.497
-58.3474
-11.2937
23.6075
43.367
47.1841
36.3
13.6251
-16.7956
-50.399
-82.7205
-109.934
-129.261
-139.202
-139.594
-131.486
-116.888
-98.4098
-78.8755
-60.9381
-46.7586
-37.7754
-34.5861
-36.9456
-43.8674
-53.8088
-64.9056
-75.2261
-83.0093
-86.8609
-85.8867
-79.7545
-68.6816
-53.3593
-34.8287
-14.3279
6.86789
27.5925
46.9056
64.1683
79.0735
91.6309
102.115
110.985
118.792
126.085
133.328
140.844
148.776
157.087
165.581
173.944
181.792
188.737
194.429
198.597
201.074
201.8
200.816
198.237
194.233
188.994
182.71
175.551
167.66
159.153
150.126
140.665
130.86
120.815
110.65
100.504
90.5229
80.8506
71.6123
62.9032
54.7799
47.2577
40.3162
33.909
27.9789
22.4728
17.3557
12.6192
8.28462
4.39953
1.02838
-1.76052
-3.90966
-5.38597
-6.19112
-6.367
-5.99541
-5.19236
-4.09764
-2.86161
-1.63078
-0.534368
0.326596
0.88637
1.1172
1.02765
0.657129
0.067697
-0.665614
-1.46461
-2.25673
-2.98186
-3.59677
-4.07684
-4.4154
-4.62113
-4.71411
-4.72135
-4.67234
-4.59521
-4.51392
-4.44644
-4.40413
-4.39189
-4.40903
-4.45042
-4.50783
-4.57113
-4.62933
-4.67142
-4.68691
-4.66618
-4.60063
-4.48277
-4.30617
-4.06535
-3.75576
-3.37358
-2.91547
-2.37797
-1.75641
-1.04303
-0.224306
0.722311
1.83173
3.15361
4.75287
6.70715
9.10071
12.0146
15.5136
19.6319
24.3576
29.6212
35.2871
41.1527
46.9545
52.3831
57.1047
60.789
63.1392
63.922
62.994
60.3197
55.9816
50.1774
43.2066
35.4469
27.3217
19.2643
11.6798
4.91196
-0.784291
-5.26003
-8.47845
-10.5095
-11.5141
-11.7204
-11.3954
-10.8149
-10.2368
-9.87994
-9.91218
-10.4487
-11.5607
-13.2927
-15.6836
-18.7869
-22.6798
-27.4538
-33.1797
-39.8402
-47.2338
-54.8584
-61.7935
-66.611
-67.3488
-61.5795
-46.6014
-19.7546
21.1577
77.3911
148.801
233.491
327.648
425.643
520.404
604.062
668.777
707.668
715.685
690.319
632.03
544.324
433.463
307.838
177.083
51.0545
-61.2084
-152.401
-217.642
-254.861
-264.848
-250.973
-218.639
-174.532
-125.789
-79.1773
-40.3819
-13.4847
-0.672256
-2.19283
-16.5435
-40.8445
-71.3376
-103.939
-134.773
-160.624
-179.264
-189.618
-191.774
-186.846
-176.709
-163.679
-150.152
-138.27
-129.655
-125.233
-125.16
-128.866
-135.185
-142.559
-149.272
-153.694
-154.49
-150.772
-142.189
-128.929
-111.662
-91.4206
-69.4475
-47.0332
-25.3605
-5.3791
12.2784
27.3321
39.8439
50.1647
58.8525
66.5744
74.0065
81.7442
90.2344
99.7325
110.289
121.76
133.843
146.119
158.108
169.317
179.282
187.601
193.952
198.103
199.913
199.325
196.362
191.113
183.735
174.437
163.482
151.178
137.864
123.903
109.663
95.4975
81.7266
68.6199
56.3814
45.141
34.9529
25.8013
17.6121
10.2692
3.63343
-2.43772
-8.07349
-13.3763
-18.4137
-23.2153
-27.7753
-32.0594
-36.0139
-39.5772
-42.6899
-45.3041
-47.3901
-48.9391
-49.9635
-50.4944
-50.5763
-50.2619
-49.6058
-48.659
-47.4656
-46.0604
-44.4691
-42.7104
-40.7984
-38.7473
-36.5744
-34.3032
-31.9646
-29.5957
-27.2382
-24.9333
-22.7173
-20.6162
-18.6419
-16.7895
-15.0376
-13.351
-11.6852
-9.994
-8.23655
-6.38492
-4.42989
-2.38421
-0.282707
1.82108
3.86136
5.76899
7.48144
8.95264
10.1611
11.1153
11.855
12.4488
12.9881
13.5776
14.3246
15.3276
16.6664
18.394
20.5321
23.0699
25.9652
29.1492
32.5315
36.0068
39.4606
42.7749
45.8318
48.5176
50.7249
52.355
53.32
53.5453
52.9726
51.5635
49.3037
46.2074
42.3212
37.7271
32.5433
26.9225
21.0466
15.1188
9.35152
3.95332
-0.886278
-5.01091
-8.30967
-10.7259
-12.2613
-12.975
-12.9766
-12.4153
-11.4649
-10.306
-9.10962
-8.02135
-7.14998
-6.56131
-6.27799
-6.28589
-6.54582
-7.00903
-7.63321
-8.39464
-9.29086
-10.3276
-11.4846
-12.6559
-13.568
-13.6821
-12.0996
-7.49642
1.88287
18.1392
43.5216
80.1158
129.444
192.027
266.985
351.764
442.059
531.999
614.59
682.403
728.399
746.812
733.929
688.678
612.9
511.285
390.944
260.693
130.125
8.59731
-95.7338
-176.72
-230.765
-257.056
-257.467
-236.166
-198.985
-152.651
-103.972
-59.0877
-22.8584
1.53803
12.7752
11.3138
-0.866997
-20.6909
-44.4915
-68.536
-89.4999
-104.84
-113.028
-113.639
-107.282
-95.416
-80.073
-63.5355
-48.0152
-35.3701
-26.8935
-23.1945
-24.1752
-29.1002
-36.7392
-45.559
-53.9361
-60.3609
-63.6092
-62.8625
-57.768
-48.4365
-35.3845
-19.4354
-1.59328
17.0888
35.6322
53.2324
69.3246
83.6124
96.0587
106.845
116.308
124.86
132.917
140.826
148.813
156.96
165.199
173.327
181.045
188.006
193.86
198.303
201.114
202.172
201.463
199.073
195.163
189.946
183.654
176.511
168.71
160.403
151.69
142.632
133.251
123.553
113.538
103.222
92.6409
81.8678
71.0106
60.2127
49.6459
39.4989
29.9623
21.2107
13.3859
6.58021
0.82633
-3.90818
-7.71798
-10.7499
-13.1861
-15.2237
-17.0518
-18.8307
-20.6754
-22.6455
-24.7426
-26.9157
-29.0728
-31.0984
-32.8716
-34.2853
-35.2614
-35.7623
-35.7951
-35.4099
-34.6932
-33.755
-32.7146
-31.6855
-30.7614
-30.0055
-29.4445
-29.0675
-28.8298
-28.6609
-28.4754
-28.1857
-27.7139
-27.0022
-26.0199
-24.7669
-23.2728
-21.5923
-19.7974
-17.9681
-16.1823
-14.5064
-12.9884
-11.6533
-10.5023
-9.51447
-8.65216
-7.86744
-7.10968
-6.3327
-5.50038
-4.59007
-3.59334
-2.51391
-1.36332
-0.154867
1.10321
2.41424
3.79814
5.29389
6.95866
8.86318
11.0837
13.691
16.7383
20.2495
24.2089
28.5557
33.1817
37.9354
42.6307
47.0594
51.0071
54.2702
56.6716
58.0752
58.3959
57.6049
55.7311
52.8571
49.1119
44.6604
39.6921
34.4083
29.0111
23.692
18.6235
13.9517
9.79084
6.22021
3.28196
0.981292
-0.711885
-1.85951
-2.55023
-2.89266
-3.00748
-3.01882
-3.04574
-3.19467
-3.55358
-4.188
-5.13866
-6.41884
-8.00856
-9.84152
-11.7805
-13.5777
-14.8202
-14.8642
-12.7711
-7.26207
3.2836
20.7625
47.1933
84.4672
134.017
196.437
271.115
355.942
447.175
539.517
626.43
700.691
755.12
783.408
780.929
745.408
677.36
580.203
460.034
325.071
184.846
49.225
-72.6006
-173.032
-246.784
-291.317
-306.943
-296.613
-265.412
-219.856
-167.074
-113.992
-66.6065
-29.4296
-5.16294
5.39022
3.18089
-9.42071
-29.091
-52.0802
-74.7294
-93.9163
-107.381
-113.908
-113.35
-106.519
-94.9662
-80.6872
-65.8076
-52.2839
-41.6585
-34.8945
-32.3037
-33.5664
-37.8322
-43.8797
-50.3085
-55.7355
-58.9692
-59.1419
-55.787
-48.8574
-38.6895
-25.923
-11.3923
3.99304
19.3632
33.9836
47.3224
59.0834
69.208
77.8472
85.3142
92.0242
98.4316
104.97
112.005
119.792
128.462
138.006
148.284
159.038
169.917
180.503
190.348
198.998
206.031
211.081
213.858
214.166
211.911
207.102
199.842
190.321
178.798
165.582
151.02
135.476
119.321
102.928
86.6542
70.8456
55.823
41.877
29.2577
18.1634
8.72956
1.01823
-4.98868
-9.39145
-12.3682
-14.1634
-15.07
-15.405
-15.4824
-15.5842
-15.9343
-16.677
-17.8645
-19.4531
-21.3111
-23.2365
-24.9833
-26.2924
-26.9252
-26.6942
-25.4889
-23.2913
-20.1827
-16.3384
-12.0123
-7.51306
-3.17518
0.672767
3.73813
5.78991
6.67754
6.341
4.81172
2.20464
-1.2973
-5.46407
-10.0423
-14.7789
-19.4416
-23.8342
-27.8048
-31.2463
-34.0911
-36.2996
-37.8478
-38.7152
-38.877
-38.3004
-36.9489
-34.7899
-31.8071
-28.0131
-23.4597
-18.2439
-12.5073
-6.42856
-0.210068
5.94037
11.8293
17.2963
22.2297
26.575
30.3374
33.5764
36.3939
38.9179
41.2841
43.6176
46.0178
48.5476
51.2281
54.039
56.9233
59.795
62.5476
65.0609
67.2058
68.8461
69.8375
70.0267
69.2515
67.3457
64.1482
59.5187
53.3574
45.6273
36.3746
25.7444
13.9877
1.45662
-11.4116
-24.1235
-36.1656
-47.047
-56.3408
-63.7204
-68.9859
-72.0778
-73.0745
-72.1761
-69.6758
-65.9226
-61.2818
-56.0969
-50.6596
-45.1911
-39.8361
-34.6695
-29.7124
-24.9514
-20.3541
-15.8715
-11.4194
-6.83324
-1.79661
4.24801
12.1899
23.3155
39.3178
62.2197
94.1906
137.254
192.908
261.699
342.834
433.89
530.711
627.547
717.443
792.874
846.545
872.259
865.739
825.268
752.061
650.295
526.782
390.323
250.814
118.222
1.56451
-91.9979
-157.824
-194.155
-202.138
-185.523
-150.082
-102.845
-51.2435
-2.27449
38.2182
66.0708
79.0867
77.0709
61.6298
35.7821
3.4442
-31.1346
-63.9154
-91.5276
-111.596
-122.909
-125.427
-120.148
-108.856
-93.8065
-77.3862
-61.7974
-48.801
-39.545
-34.4902
-33.4314
-35.6006
-39.8303
-44.7498
-48.9846
-51.3351
-50.9122
-47.2181
-40.1682
-30.0572
-17.4794
-3.22042
11.8641
26.9648
41.4151
54.7572
66.7726
77.4762
87.0788
95.9269
104.429
112.983
121.907
131.392
141.476
152.037
162.813
173.432
183.46
192.447
199.97
205.669
209.269
210.593
209.562
206.186
200.556
192.823
183.193
171.909
159.249
145.511
131.014
116.085
101.05
86.2252
71.9058
58.353
45.7865
34.3777
24.2472
15.4652
8.05522
1.99966
-2.75379
-6.28564
-8.69875
-10.1133
-10.6629
-10.4903
-9.74466
-8.57663
-7.13436
-5.55824
-3.9758
-2.49702
-1.21067
-0.182414
0.545231
0.95087
1.03057
0.793149
0.255185
-0.563445
-1.64286
-2.96489
-4.51311
-6.27147
-8.22204
-10.3425
-12.6039
-14.9698
-17.3965
-19.8342
-22.2304
-24.5328
-26.6927
-28.6683
-30.4256
-31.9396
-33.1924
-34.1712
-34.8654
-35.2637
-35.3513
-35.1088
-34.5123
-33.5339
-32.1448
-30.3172
-28.0291
-25.2672
-22.0314
-18.3385
-14.2249
-9.74789
-4.98521
-0.0325914
5.00116
10.0008
14.8526
19.4529
23.7156
27.5789
31.0098
34.0047
36.5888
38.8108
40.737
42.4421
44.0009
45.4793
46.9267
48.3717
49.8185
51.2474
52.6171
53.8686
54.9309
55.7264
56.1762
56.2045
55.7414
54.7228
53.0894
50.7837
47.7478
43.9217
39.2458
33.6669
27.1493
19.6883
11.3255
2.16205
-7.63271
-17.8194
-28.0953
-38.1099
-47.4866
-55.8494
-62.8518
-68.203
-71.6918
-73.2028
-72.7274
-70.3657
-66.3225
-60.8974
-54.4702
-47.4843
-40.4275
-33.8121
-28.1506
-23.925
-21.5452
-21.2932
-23.2489
-27.2014
-32.551
-38.2184
-42.5826
-43.4753
-38.2603
-24.0186
2.15246
42.7392
99.3512
172.26
260.015
359.222
464.545
568.986
664.425
742.405
795.044
815.986
801.239
749.791
663.899
548.998
413.231
266.652
120.197
-15.4526
-130.957
-219.246
-276.154
-300.716
-295.084
-264.104
-214.611
-154.548
-92.0225
-34.4151
12.3576
44.3495
59.8194
59.1873
44.7419
20.1553
-10.1174
-41.4731
-69.7457
-91.6779
-105.23
-109.701
-105.676
-94.8033
-79.4645
-62.3812
-46.2129
-33.2027
-24.909
-22.0524
-24.4857
-31.2809
-40.9118
-51.4999
-61.0873
-67.8975
-70.5529
-68.2244
-60.6982
-48.3607
-32.1074
-13.1968
6.92987
26.8356
45.258
61.2433
74.23
84.0765
91.034
95.6732
98.7783
101.223
103.848
107.352
112.211
118.635
126.56
135.671
145.467
155.331
164.613
172.711
179.137
183.561
185.827
185.952
184.097
180.519
175.523
169.401
162.396
154.659
146.24
137.092
127.094
116.083
103.905
90.4532
75.7114
59.78
42.887
25.3819
7.71178
-9.61525
-26.0763
-41.1818
-54.5208
-65.7961
-74.8472
-81.6577
-86.3468
-89.1478
-90.3768
-90.3952
-89.5713
-88.2456
-86.7033
-85.1556
-83.7324
-82.4847
-81.396
-80.4
-79.4011
-78.2963
-76.9932
-75.4244
-73.5549
-71.3843
-68.9415
-66.276
-63.4458
-60.5046
-57.4906
-54.4188
-51.2769
-48.0273
-44.6134
-40.9697
-37.0348
-32.7646
-28.1439
-23.1948
-17.9801
-12.6024
-7.1974
-1.92432
3.04676
7.54821
11.4277
14.5597
16.8538
18.2613
18.7776
18.4429
17.3397
15.5889
13.3437
10.783
8.10336
5.51
3.20773
1.39156
0.237681
-0.104509
0.481348
2.07457
4.71602
8.40923
13.1235
18.7979
25.346
32.6593
40.6098
49.0511
57.8193
66.7329
75.5946
84.1934
92.3101
99.7236
106.22
111.599
115.688
118.343
119.458
118.969
116.851
113.119
107.826
101.057
92.9267
83.5717
73.1508
61.8401
49.8316
37.3323
24.5623
11.7531
-0.856359
-13.0249
-24.517
-35.1128
-44.6186
-52.8782
-59.7818
-65.2726
-69.3485
-72.0581
-73.4922
-73.7706
-73.0278
-71.3991
-69.0101
-65.9705
-62.371
-58.2807
-53.7377
-48.7272
-43.14
-36.7082
-28.9237
-18.951
-5.5585
12.9012
38.4294
73.2124
119.336
178.4
251.074
336.673
432.826
535.339
638.294
734.439
815.83
874.666
904.216
899.699
858.994
783.066
676.044
544.905
398.829
248.27
103.89
-24.5375
-129.095
-204.462
-248.34
-261.515
-247.585
-212.378
-163.168
-107.782
-53.7105
-7.33314
26.6644
45.6267
48.9988
38.1472
15.974
-13.6086
-46.2677
-77.8243
-104.746
-124.507
-135.78
-138.46
-133.534
-122.824
-108.655
-93.4955
-79.6183
-68.8224
-62.2449
-60.2773
-62.5854
-68.2206
-75.7982
-83.7145
-90.372
-94.3834
-94.7312
-90.868
-82.7507
-70.8095
-55.8624
-38.9885
-21.3791
-4.18503
11.6217
25.3572
36.6946
45.6882
52.7503
58.5865
64.0977
70.2606
78.0008
88.0729
100.962
116.817
135.421
156.209
178.318
200.676
222.11
241.46
257.698
270.014
277.889
281.126
279.844
274.447
265.558
253.941
240.414
225.77
210.702
195.76
181.317
167.573
154.566
142.209
130.334
118.743
107.248
95.7162
84.0921
72.412
60.8013
49.4601
38.639
28.6088
19.6281
11.914
5.61729
0.807124
-2.53621
-4.51834
-5.31964
-5.17743
-4.36389
-3.1624
-1.84466
-0.650909
0.225398
0.647326
0.538436
-0.118818
-1.28955
-2.89675
-4.83416
-6.98053
-9.21368
-11.4234
-13.5218
-15.4509
-17.1861
-18.7359
-20.1388
-21.4558
-22.7621
-24.1364
-25.6512
-27.3632
-29.3073
-31.4925
-33.9014
-36.493
-39.2071
-41.9702
-44.7012
-47.3155
-49.7288
-51.8579
-53.6228
-54.9463
-55.7567
-55.9897
-55.5933
-54.5323
-52.7942
-50.3933
-47.3736
-43.8087
-39.7992
-35.4656
-30.9397
-26.353
-21.8249
-17.4515
-13.2958
-9.38254
-5.69607
-2.18337
1.23846
4.67124
8.22233
11.9904
16.052
20.4503
25.1877
30.2221
35.4687
40.8055
46.0835
51.1388
55.8054
59.9276
63.3689
66.0173
67.7865
68.613
68.4525
67.2751
65.0642
61.8177
57.5534
52.3181
46.1969
39.3217
31.8758
24.0925
16.2465
8.6391
1.57609
-4.65611
-9.81567
-13.7273
-16.2982
-17.5266
-17.4999
-16.3852
-14.4113
-11.8457
-8.9699
-6.05535
-3.34343
-1.03099
0.738381
1.87922
2.36872
2.2562
1.68357
0.921314
0.422036
0.887543
3.33843
9.16694
20.1473
38.3756
66.1157
105.541
158.381
225.515
306.56
399.542
500.721
604.638
704.415
792.307
860.451
901.739
910.681
884.147
821.886
726.717
604.38
463.028
312.448
163.08
24.9708
-93.2172
-185.017
-246.707
-277.532
-279.601
-257.475
-217.511
-167.071
-113.666
-64.1599
-24.1157
2.6678
14.3748
11.1538
-5.11747
-31.2372
-63.1916
-96.7061
-127.768
-153.063
-170.287
-178.3
-177.136
-167.862
-152.339
-132.906
-112.046
-92.0709
-74.859
-61.6798
-53.1095
-49.0435
-48.7903
-51.228
-54.9951
-58.6888
-61.044
-61.0743
-58.1595
-52.0773
-42.9801
-31.3281
-17.793
-3.14679
11.847
26.5261
40.3967
53.1695
64.7631
75.2779
84.9484
94.0808
102.988
111.93
121.067
130.437
139.942
149.367
158.409
166.711
173.911
179.676
183.736
185.905
186.09
184.284
180.556
175.031
167.871
159.258
149.377
138.41
126.536
113.937
100.804
87.3522
73.8194
60.4742
47.6083
35.5238
24.5148
14.8433
6.71593
0.261388
-4.48498
-7.58867
-9.21326
-9.60733
-9.08238
-7.98429
-6.66152
-5.43424
-4.56753
-4.2521
-4.59399
-5.61421
-7.2573
-9.40737
-11.9087
-14.5881
-17.2763
-19.8255
-22.1214
-24.0891
-25.6933
-26.932
-27.828
-28.4175
-28.7393
-28.8254
-28.6953
-28.3533
-27.7906
-26.9889
-25.9283
-24.5937
-22.982
-21.1064
-18.9992
-16.7102
-14.3032
-11.8504
-9.42557
-7.09735
-4.92386
-2.94926
-1.20271
0.300277
1.5545
2.5606
3.32015
3.83145
4.08656
4.07023
3.76093
3.13411
2.16739
0.847628
-0.82062
-2.80593
-5.04106
-7.41555
-9.77169
-11.9055
-13.5742
-14.5111
-14.4473
-13.1388
-10.3962
-6.11244
-0.285915
6.96658
15.4082
24.694
34.3944
44.0302
53.1121
61.1826
67.8543
72.84
75.9722
77.2089
76.6265
74.4012
70.7812
66.0547
60.5169
54.4416
48.0593
41.5457
35.0192
28.5482
22.1645
15.8812
9.71062
3.67981
-2.15848
-7.72123
-12.8969
-17.5532
-21.5485
-24.7465
-27.031
-28.3189
-28.5704
-27.7956
-26.0559
-23.4615
-20.1654
-16.354
-12.236
-8.03134
-3.95897
-0.226544
2.98004
5.50742
7.24833
8.16185
8.30463
7.87748
7.28869
7.23008
8.75389
13.3293
22.8502
39.5642
65.8972
104.165
156.185
222.834
303.614
396.317
496.865
599.405
696.672
780.623
843.271
877.611
878.525
843.514
773.164
671.246
544.446
401.734
253.458
110.27
-17.9657
-123.171
-199.814
-245.358
-260.359
-248.212
-214.588
-166.659
-112.206
-58.7244
-12.6356
21.3108
40.39
43.9872
33.4289
11.6027
-17.5688
-49.7216
-80.6341
-106.728
-125.438
-135.409
-136.526
-129.781
-117.018
-100.591
-83.0029
-66.5615
-53.095
-43.7644
-38.9797
-38.4213
-41.1543
-45.8087
-50.7982
-54.5437
-55.6753
-53.1877
-46.5358
-35.6658
-20.9823
-3.26537
16.4492
37.0077
57.2749
76.2546
93.1811
107.574
119.253
128.322
135.115
140.129
143.943
147.141
150.238
153.629
157.553
162.078
167.108
172.406
177.627
182.365
186.193
188.713
189.588
188.575
185.538
180.459
173.429
164.635
154.338
142.845
130.478
117.549
104.334
91.0574
77.8859
64.9279
52.2449
39.869
27.8224
16.1385
4.87726
-5.86467
-15.9534
-25.2257
-33.5051
-40.6229
-46.4415
-50.8765
-53.9132
-55.6155
-56.1261
-55.6566
-54.4698
-52.8561
-51.107
-49.4888
-48.2209
-47.4591
-47.2877
-47.7185
-48.6978
-50.1185
-51.8362
-53.6861
-55.4995
-57.118
-58.404
-59.2475
-59.5698
-59.3226
-58.4865
-57.066
-55.0854
-52.5834
-49.6089
-46.2173
-42.4682
-38.4233
-34.1455
-29.6988
-25.1474
-20.5559
-15.9884
-11.5088
-7.17895
-3.0589
0.794741
4.32961
7.49881
10.2622
12.5877
14.4527
15.8448
16.7628
17.2164
17.2271
16.8273
16.0614
14.9866
13.674
12.2098
10.696
9.24861
7.99502
7.06773
6.5963
6.69742
7.46433
8.95692
11.194
14.1493
17.7515
21.8896
26.4223
31.1906
36.0318
40.792
45.336
49.5516
53.3486
56.6521
59.3921
61.4921
62.8587
63.3769
62.9122
61.3202
58.4648
54.2408
48.5992
41.5691
33.2744
23.9391
13.8825
3.50075
-6.76045
-16.4416
-25.1075
-32.3839
-37.9885
-41.7518
-43.6272
-43.6882
-42.1142
-39.1679
-35.1664
-30.4515
-25.3617
-20.2106
-15.2728
-10.7786
-6.91507
-3.83198
-1.6443
-0.426476
-0.189888
-0.83789
-2.09603
-3.42183
-3.90729
-2.19679
3.54925
15.6117
36.5635
68.9992
115.154
176.45
253.028
343.354
443.987
549.575
653.13
746.58
821.552
870.299
886.644
866.819
810.055
718.858
598.886
458.46
307.742
157.702
18.9755
-99.2131
-189.96
-249.297
-276.46
-273.786
-246.265
-200.827
-145.452
-88.2216
-36.438
4.11027
29.6422
38.6073
31.6307
11.21
-18.7782
-53.6867
-88.7364
-119.607
-142.914
-156.52
-159.663
-152.911
-137.944
-117.238
-93.6665
-70.11
-49.0907
-32.4957
-21.4043
-16.0339
-15.798
-19.4603
-25.355
-31.6406
-36.5514
-38.6169
-36.8234
-30.7031
-20.3463
-6.34189
10.34
28.5024
46.8901
64.3486
79.9545
93.1021
103.54
111.358
116.928
120.823
123.704
126.225
128.936
132.219
136.25
140.998
146.244
151.635
156.74
161.118
164.379
166.228
166.494
165.135
162.231
157.948
152.503
146.121
139.002
131.291
123.067
114.348
105.102
95.2801
84.8426
73.7898
62.1851
50.1665
37.9465
25.7976
14.0277
2.94786
-7.16157
-16.0828
-23.6845
-29.9344
-34.8998
-38.7346
-41.6553
-43.9099
-45.742
-47.358
-48.8992
-50.4239
-51.902
-53.2221
-54.2103
-54.6581
-54.3552
-53.1233
-50.8454
-47.4879
-43.1114
-37.8703
-31.9998
-25.7941
-19.5769
-13.6699
-8.3613
-3.87984
-0.376492
2.08478
3.52608
4.04568
3.80082
2.98581
1.80838
0.467075
-0.867773
-2.06778
-3.05382
-3.79668
-4.31168
-4.64831
-4.8765
-5.07141
-5.29867
-5.60176
-5.99312
-6.44968
-6.91344
-7.29652
-7.49027
-7.37697
-6.84288
-5.79102
-4.15219
-1.8928
0.981303
4.42559
8.36195
12.6873
17.2846
22.0344
26.825
31.5613
36.1689
40.5957
44.8094
48.793
52.538
56.0383
59.2838
62.2567
64.9294
67.2652
69.2211
70.7518
71.8146
72.3742
72.4057
71.8956
70.8413
69.2471
67.1201
64.4653
61.2824
57.5653
53.3052
48.4969
43.1479
37.2885
30.9808
24.3248
17.4597
10.56
3.82549
-2.53295
-8.31013
-13.3243
-17.433
-20.5445
-22.6248
-23.6979
-23.8401
-23.1706
-21.8386
-20.0102
-17.8581
-15.5535
-13.2636
-11.1511
-9.37527
-8.0879
-7.4202
-7.45342
-8.16864
-9.37408
-10.6139
-11.0706
-9.4811
-4.0958
7.28928
27.1983
58.2241
102.664
162.073
236.802
325.58
425.256
530.75
635.289
730.917
809.247
862.374
883.831
869.442
817.964
731.402
614.952
476.562
326.158
174.635
32.7399
-90.0292
-186.348
-251.73
-284.852
-287.501
-264.196
-221.511
-167.225
-109.392
-55.4505
-11.4746
18.358
32.0356
29.7098
13.4437
-13.2379
-45.9245
-79.9437
-110.953
-135.431
-151.025
-156.715
-152.802
-140.74
-122.839
-101.886
-80.7549
-62.0348
-47.7287
-39.0561
-36.3694
-39.1864
-46.323
-56.101
-66.5979
-75.9033
-82.35
-84.6933
-82.2208
-74.7866
-62.7739
-46.9953
-28.5532
-8.67893
11.4251
30.7217
48.4382
64.1201
77.6375
89.15
99.0373
107.812
116.027
124.188
132.686
141.756
151.457
161.684
172.194
182.648
192.662
201.847
209.852
216.387
221.24
224.273
225.422
224.679
222.083
217.704
211.638
203.997
194.916
184.551
173.083
160.717
147.689
134.254
120.68
107.239
94.1863
81.7498
70.1151
59.4145
49.7219
41.0522
33.3669
26.5841
20.5925
15.267
10.4847
6.1392
2.15154
-1.52283
-4.89214
-7.93125
-10.589
-12.7986
-14.4904
-15.6041
-16.1001
-15.9684
-15.2327
-13.9517
-12.216
-10.1412
-7.8589
-5.5071
-3.21961
-1.11729
0.699047
2.15337
3.1966
3.80666
3.98654
3.76117
3.17344
2.27987
1.14624
-0.156669
-1.55714
-2.98635
-4.38186
-5.6908
-6.87249
-7.90021
-8.76204
-9.46034
-10.01
-10.4351
-10.7652
-11.0297
-11.2537
-11.4533
-11.6323
-11.7809
-11.8763
-11.8853
-11.768
-11.4839
-10.9967
-10.28
-9.32054
-8.1203
-6.69579
-5.07564
-3.29626
-1.39657
0.587479
2.6277
4.70703
6.82118
8.97831
11.197
13.503
15.9245
18.4876
21.2107
24.0994
27.1411
30.3001
33.5137
36.6892
39.7029
42.402
44.6092
46.1307
46.7688
46.3373
44.6791
41.6861
37.3165
31.6097
24.6947
16.7901
8.19565
-0.726008
-9.57474
-17.9441
-25.4544
-31.7836
-36.693
-40.0442
-41.8061
-42.05
-40.9365
-38.6936
-35.592
-31.9196
-27.9601
-23.9774
-20.2078
-16.8589
-14.1146
-12.1384
-11.0725
-11.0216
-12.0175
-13.957
-16.5164
-19.0482
-20.4792
-19.2352
-13.2268
0.0724036
23.4271
59.5168
110.504
177.541
260.299
356.59
462.194
570.95
675.14
766.161
835.415
875.304
880.196
847.228
776.809
672.75
541.992
393.942
239.52
90.0223
-44.054
-154.069
-234.064
-281.251
-296.131
-282.229
-245.508
-193.555
-134.624
-76.6972
-26.6309
10.4815
31.6968
36.3243
25.756
3.0729
-27.5091
-61.2688
-93.6047
-120.579
-139.322
-148.267
-147.198
-137.127
-120.032
-98.5105
-75.3827
-53.3191
-34.523
-20.5071
-11.9807
-8.85163
-10.3279
-15.0981
-21.5575
-28.0473
-33.0739
-35.4842
-34.5775
-30.1473
-22.4562
-12.1521
-0.145849
12.5331
24.8796
36.0384
45.3973
52.6403
57.7593
61.0254
62.9291
64.0996
65.2133
66.9058
69.6944
73.9223
79.7259
87.0296
95.5645
104.907
114.534
123.879
132.394
139.597
145.113
148.695
150.23
149.729
147.305
143.142
137.461
130.489
122.437
113.477
103.745
93.344
82.3607
70.8849
59.0298
46.948
34.8397
22.95
11.5565
0.947587
-8.60461
-16.8735
-23.7038
-29.0314
-32.8921
-35.4198
-36.833
-37.4111
-37.4649
-37.303
-37.201
-37.3745
-37.9614
-39.0141
-40.5017
-42.3219
-44.321
-46.3175
-48.1277
-49.5887
-50.5773
-51.0221
-50.9081
-50.2737
-49.2019
-47.8059
-46.2132
-44.5484
-42.9191
-41.4038
-40.0456
-38.8499
-37.787
-36.7978
-35.803
-34.712
-33.4338
-31.8853
-30.0001
-27.7344
-25.0719
-22.0272
-18.6462
-15.0051
-11.2071
-7.37651
-3.65034
-0.168674
2.93653
5.55262
7.59651
9.0228
9.82891
10.0563
9.78803
9.14185
8.26106
7.30283
6.42617
5.78076
5.49773
5.68333
6.41559
7.74353
9.68833
12.2455
15.3871
19.064
23.2072
27.7299
32.5296
37.4912
42.492
47.4076
52.1184
56.5159
60.5078
64.0203
66.9976
69.3976
71.1854
72.3255
72.7744
72.4761
71.3613
69.3513
66.3667
62.3394
57.2254
51.0173
43.7538
35.525
26.472
16.7824
6.68064
-3.58466
-13.7554
-23.5795
-32.8251
-41.2937
-48.8296
-55.3255
-60.7246
-65.0168
-68.2327
-70.4341
-71.7047
-72.1416
-71.8502
-70.9419
-69.5329
-67.7402
-65.6683
-63.3805
-60.8476
-57.8738
-54.0034
-48.4242
-39.8888
-26.6876
-6.70174
22.4345
63.0546
117.076
185.553
268.233
363.197
466.673
573.081
675.358
765.543
835.571
878.183
887.826
861.421
798.877
703.27
580.657
439.533
289.986
142.683
7.77183
-106.123
-192.719
-248.606
-273.428
-269.719
-242.428
-198.198
-144.519
-88.8409
-37.7784
3.52333
31.7883
45.7535
46.0603
34.9334
15.7056
-7.73643
-31.5088
-52.2214
-67.3478
-75.4431
-76.1969
-70.3353
-59.4
-45.4463
-30.708
-17.2762
-6.83066
-0.454087
1.45635
-0.821592
-6.43297
-14.1091
-22.3688
-29.7278
-34.8879
-36.8841
-35.1742
-29.6658
-20.6826
-8.88048
4.86918
19.6124
34.4402
48.5961
61.5486
73.0248
83.003
91.6699
99.3533
106.441
113.301
120.213
127.321
134.613
141.922
148.957
155.346
160.692
164.622
166.837
167.144
165.468
161.855
156.451
149.476
141.185
131.837
121.661
110.839
99.4909
87.6778
75.415
62.6915
49.4966
35.8464
21.8076
7.5148
-6.8232
-20.9272
-34.4632
-47.0671
-58.3763
-68.063
-75.8674
-81.6243
-85.2825
-86.9128
-86.705
-84.9536
-82.0335
-78.3687
-74.3967
-70.5316
-67.13
-64.4621
-62.691
-61.8619
-61.9013
-62.6279
-63.7725
-65.0064
-65.9758
-66.3375
-65.795
-64.1295
-61.223
-57.0723
-51.7902
-45.5954
-38.7918
-31.7382
-24.8133
-18.3788
-12.7448
-8.1412
-4.6985
-2.43894
-1.27961
-1.04624
-1.49592
-2.34594
-3.30525
-4.10488
-4.52399
-4.40886
-3.68305
-2.34817
-0.475781
1.80809
4.34334
6.95847
9.49257
11.814
13.8339
15.5128
16.8609
17.9314
18.8095
19.5982
20.4033
21.3203
22.4244
23.7658
25.3702
27.2435
29.3808
31.7766
34.4335
37.3689
40.6156
44.2184
48.2242
52.6689
57.5611
62.8671
68.4978
74.3002
80.0563
85.4882
90.2722
94.0587
96.498
97.27
96.1135
92.8546
87.43
79.902
70.4647
59.438
47.2509
34.4125
21.4763
8.99723
-2.5115
-12.6188
-21.0087
-27.5021
-32.0653
-34.8043
-35.9453
-35.8043
-34.7495
-33.1614
-31.3953
-29.7518
-28.4583
-27.6635
-27.4446
-27.8245
-28.7927
-30.3248
-32.3895
-34.9387
-37.8705
-40.9656
-43.7993
-45.6396
-45.3544
-41.3537
-31.5997
-13.7164
14.7854
56.1677
112.037
182.886
267.678
363.57
465.842
568.086
662.684
741.512
796.814
822.129
813.134
768.289
689.181
580.502
449.662
306.072
160.186
22.4181
-97.9156
-193.522
-259.792
-295.141
-300.991
-281.414
-242.506
-191.563
-136.197
-83.4752
-39.1999
-7.40027
9.92469
12.8
3.03097
-16.2265
-41.0108
-67.1382
-90.7486
-108.752
-119.13
-121.068
-114.926
-102.056
-84.5244
-64.7643
-45.2214
-28.0377
-14.8067
-6.42523
-3.05183
-4.16389
-8.69749
-15.2423
-22.261
-28.3014
-32.1753
-33.0836
-30.6761
-25.0465
-16.6684
-6.28899
5.20342
16.9149
28.0682
38.0951
46.691
53.8276
59.7266
64.8013
69.5788
74.6119
80.3961
87.3004
95.519
105.05
115.698
127.103
138.785
150.198
160.792
170.063
177.597
183.099
186.407
187.481
186.39
183.282
178.35
171.803
163.835
154.614
144.268
132.888
120.543
107.292
93.2042
78.3797
62.9611
47.1446
31.1808
15.368
0.0377607
-14.4658
-27.8108
-39.7037
-49.9133
-58.2897
-64.7761
-69.4119
-72.3258
-73.7212
-73.8537
-73.0053
-71.4564
-69.4606
-67.2241
-64.892
-62.5422
-60.1884
-57.7898
-55.2669
-52.521
-49.4545
-45.9905
-42.0878
-37.752
-33.0393
-28.0539
-22.9399
-17.8678
-13.0177
-8.56127
-4.64474
-1.3743
1.1941
3.05937
4.27413
4.9376
5.18366
5.1652
5.03683
4.93779
4.97723
5.22343
5.69819
6.37709
7.19511
8.05707
8.85115
9.46389
9.79449
9.76686
9.33786
8.50097
7.28563
5.75265
3.98735
2.09172
0.177379
-1.63963
-3.2416
-4.50965
-5.32256
-5.55532
-5.07844
-3.75936
-1.46678
1.92161
6.50795
12.3602
19.4967
27.87
37.3536
47.7319
58.6965
69.8497
80.7176
90.7706
99.4538
106.224
110.59
112.157
110.666
106.027
98.3404
87.9042
75.204
60.8851
45.7081
30.4919
16.0492
3.12059
-7.6852
-15.9394
-21.4236
-24.1402
-24.3009
-22.2969
-18.6525
-13.9687
-8.86271
-3.91117
0.399182
3.70647
5.79233
6.58272
6.13221
4.59502
2.18883
-0.841033
-4.24752
-7.78857
-11.2064
-14.1755
-16.2211
-16.6209
-14.3098
-7.81875
4.71925
25.4648
56.652
100.255
157.575
228.8
312.627
406.015
504.162
600.74
688.39
759.443
806.78
824.705
809.715
761.056
680.962
574.541
449.322
314.505
180.008
55.4454
-50.8541
-132.654
-186.363
-211.262
-209.412
-185.247
-144.934
-95.5838
-44.4101
2.05316
38.596
61.7698
70.0853
63.9677
45.4966
17.9795
-14.5729
-48.0003
-78.5033
-103.056
-119.679
-127.557
-126.996
-119.252
-106.257
-90.2957
-73.6676
-58.3945
-45.9906
-37.3268
-32.5932
-31.3545
-32.6815
-35.3318
-37.9523
-39.2732
-38.2697
-34.2726
-27.019
-16.6432
-3.61445
11.3624
27.4671
43.8852
59.9125
75.0309
88.9469
101.592
113.089
123.691
133.712
143.45
153.127
162.841
172.55
182.074
191.126
199.352
206.388
211.906
215.659
217.508
217.434
215.525
211.954
206.944
200.723
193.491
185.388
176.472
166.725
156.059
144.349
131.464
117.311
101.872
85.2309
67.5919
49.2776
30.7138
12.399
-5.13698
-21.3798
-35.8772
-48.2793
-58.3687
-66.0758
-71.4794
-74.7909
-76.3263
-76.4697
-75.6308
-74.2044
-72.5348
-70.8886
-69.4393
-68.2642
-67.3521
-66.6202
-65.9382
-65.154
-64.12
-62.7162
-60.8671
-58.5531
-55.8139
-52.7454
-49.4905
-46.2253
-43.1418
-40.4302
-38.2599
-36.7641
-36.0257
-36.068
-36.8491
-38.2616
-40.1362
-42.251
-44.3435
-46.1272
-47.3112
-47.6211
-46.821
-44.7346
-41.2628
-36.3964
-30.2222
-22.92
-14.752
-6.04301
2.84476
11.5422
19.7044
27.039
33.3308
38.4564
42.3916
45.2073
47.0575
48.1587
48.765
49.141
49.5359
50.1609
51.1739
52.6709
54.6855
57.195
60.1319
63.3975
66.8762
70.4465
73.9886
77.3863
80.5247
83.2836
85.5306
87.1151
87.8667
87.6006
86.1293
83.2816
78.9257
72.994
65.5049
56.5775
46.4374
35.4093
23.8984
12.361
1.26655
-8.94225
-17.8891
-25.297
-31.0112
-35.0087
-37.3945
-38.3824
-38.2668
-37.3849
-36.0776
-34.6517
-33.3499
-32.33
-31.6578
-31.3123
-31.2014
-31.1852
-31.0993
-30.7721
-30.0265
-28.659
-26.393
-22.808
-17.2544
-8.77323
3.95049
22.5725
48.9825
85.0919
132.52
192.208
264.023
346.412
436.199
528.59
617.417
695.634
756.018
791.986
798.43
772.442
713.813
625.234
512.159
382.318
244.965
109.934
-13.3785
-116.954
-194.933
-244.123
-264.189
-257.519
-228.79
-184.314
-131.236
-76.7087
-27.1282
12.4778
38.8517
50.6672
48.4534
34.3123
11.4831
-16.1789
-44.7388
-70.6666
-91.217
-104.669
-110.411
-108.875
-101.354
-89.7209
-76.1104
-62.6036
-50.9513
-42.372
-37.4419
-36.0815
-37.631
-40.9958
-44.8354
-47.7667
-48.5528
-46.2544
-40.326
-30.6511
-17.5181
-1.5455
16.4254
35.4544
54.622
73.1313
90.3789
105.992
119.828
131.948
142.566
151.989
160.553
168.571
176.289
183.862
191.345
198.695
205.791
212.452
218.459
223.578
227.577
230.237
231.365
230.796
228.4
224.088
217.815
209.589
199.474
187.592
174.126
159.315
143.442
126.819
109.774
92.6297
75.6883
59.2166
43.4385
28.5317
14.6298
1.82797
-9.80873
-20.2378
-29.4326
-37.3793
-44.0763
-49.5373
-53.7955
-56.909
-58.9647
-60.0796
-60.3993
-60.0926
-59.3428
-58.3367
-57.2527
-56.249
-55.4544
-54.9609
-54.8213
-55.0497
-55.6259
-56.503
-57.6165
-58.8943
-60.2665
-61.674
-63.0743
-64.4458
-65.7862
-67.1092
-68.4357
-69.782
-71.1455
-72.4908
-73.7366
-74.7481
-75.3355
-75.2613
-74.2559
-72.0416
-68.3629
-63.0191
-55.896
-46.9923
-36.436
-24.4886
-11.5349
1.94159
15.3955
28.2648
40.0205
50.2137
58.5159
64.7476
68.8909
71.086
71.6116
70.8515
69.2515
67.2731
65.3472
63.8347
62.998
62.9843
63.8234
65.4373
67.6598
70.2633
72.9883
75.5725
77.7768
79.4053
80.3179
80.4359
79.7389
78.2555
76.0479
73.1939
69.7679
65.8235
61.381
56.4219
50.8904
44.7044
37.7733
30.021
21.4109
11.9682
1.79681
-8.914
-19.8936
-30.806
-41.2765
-50.9244
-59.3993
-66.4144
-71.773
-75.3845
-77.2676
-77.5413
-76.4052
-74.1128
-70.9419
-67.1665
-63.0334
-58.7455
-54.4528
-50.2485
-46.1674
-42.1793
-38.1712
-33.9123
-28.9995
-22.786
-14.3071
-2.22336
15.1899
39.9769
74.3356
120.344
179.59
252.751
339.182
436.592
540.899
646.305
745.65
831.01
894.489
929.124
929.756
893.769
821.564
716.707
585.698
437.397
282.161
130.799
-6.51472
-121.253
-207.339
-261.654
-284.198
-277.901
-248.117
-201.878
-147.026
-91.2978
-41.5146
-2.93102
21.1732
29.6393
23.3167
4.72891
-22.4214
-53.8318
-85.1879
-112.686
-133.436
-145.705
-148.994
-143.951
-132.154
-115.799
-97.3451
-79.1714
-63.2737
-51.0497
-43.1815
-39.6252
-39.6946
-42.2217
-45.7624
-48.8189
-50.0457
-48.4158
-43.3273
-34.6444
-22.6725
-8.07764
8.2327
25.2495
42.0012
57.6734
71.6971
83.7939
93.9793
102.524
109.887
116.624
123.293
130.369
138.171
146.827
156.252
166.176
176.18
185.759
194.39
201.594
206.994
210.351
211.581
210.748
208.044
203.751
198.19
191.682
184.498
176.83
168.771
160.318
151.381
141.817
131.467
120.2
107.953
94.7637
80.79
66.3121
51.7168
37.4656
24.0503
11.9418
1.53919
-6.87366
-13.1595
-17.3417
-19.5994
-20.2458
-19.6912
-18.3967
-16.8245
-15.3904
-14.4252
-14.1471
-14.6499
-15.9053
-17.7797
-20.0606
-22.4905
-24.8017
-26.7497
-28.14
-28.8462
-28.8188
-28.0831
-26.73
-24.8987
-22.7568
-20.4786
-18.2257
-16.1306
-14.2862
-12.7406
-11.4975
-10.5223
-9.75091
-9.10174
-8.488
-7.82961
-7.06324
-6.14959
-5.07763
-3.8653
-2.55726
-1.21981
0.0659653
1.21236
2.13367
2.75499
3.02095
2.90423
2.41397
1.60314
0.573941
-0.520567
-1.48032
-2.06898
-2.03197
-1.12072
0.879113
4.11913
8.66349
14.472
21.3943
29.1768
37.4824
45.9209
54.0867
61.5995
68.1416
73.4891
77.5308
80.2733
81.8319
82.4077
82.2538
81.6355
80.7892
79.8855
79.0023
78.1113
77.0806
75.694
73.6834
70.7724
66.7225
61.3771
54.6961
46.7765
37.8548
28.2914
18.5381
9.09366
0.451489
-6.9518
-12.7824
-16.8432
-19.0922
-19.6431
-18.7492
-16.772
-14.1403
-11.3031
-8.68488
-6.64575
-5.45374
-5.26972
-6.14546
-8.03136
-10.7871
-14.1867
-17.9086
-21.5039
-24.3413
-25.5342
-23.8675
-17.7496
-5.21993
15.9561
48.0859
93.2381
152.847
227.276
315.425
414.445
519.656
624.713
722.038
803.5
861.264
888.703
881.257
837.098
757.515
646.937
512.592
363.828
211.178
65.2956
-64.1235
-169.29
-245.03
-289.184
-302.644
-289.068
-254.288
-205.526
-150.51
-96.6025
-50.039
-15.3649
4.88486
10.2435
2.12384
-16.5723
-41.9816
-69.8674
-96.1912
-117.601
-131.78
-137.634
-135.297
-125.983
-111.716
-94.9703
-78.2982
-63.9742
-53.7104
-48.4713
-48.4002
-52.86
-60.5689
-69.8089
-78.6705
-85.3032
-88.137
-86.0539
-78.4892
-65.4606
-47.5248
-25.6764
-1.20423
24.4721
49.9646
74.0593
95.8233
114.668
130.363
143.01
152.979
160.817
167.154
172.605
177.691
182.782
188.063
193.538
199.045
204.305
208.969
212.675
215.1
215.994
215.206
212.693
208.507
202.779
195.689
187.435
178.209
168.173
157.449
146.117
134.22
121.781
108.817
95.3597
81.47
67.2515
52.8555
38.4808
24.3664
10.7796
-2.00125
-13.7048
-24.0861
-32.943
-40.1303
-45.5686
-49.2485
-51.2292
-51.6327
-50.6338
-48.4474
-45.314
-41.485
-37.2084
-32.717
-28.2176
-23.8845
-19.8545
-16.2253
-13.0572
-10.3753
-8.17514
-6.42845
-5.09016
-4.10534
-3.41588
-2.96639
-2.70888
-2.60608
-2.63302
-2.77707
-3.03636
-3.41685
-3.92851
-4.58083
-5.37823
-6.31592
-7.37634
-8.52693
-9.71928
-10.8901
-11.9644
-12.86
-13.4949
-13.7948
-13.7015
-13.1805
-12.2261
-10.8638
-9.14843
-7.15855
-4.98754
-2.73231
-0.481344
1.69621
3.75899
5.69821
7.53821
9.33291
11.1587
13.105
15.2628
17.7144
20.5225
23.723
27.3189
31.2784
35.5359
39.996
44.5404
49.036
53.345
57.3343
60.8838
63.8938
66.289
68.0215
69.0703
69.4394
69.1544
68.2581
66.806
64.8611
62.4891
59.7541
56.7147
53.4207
49.9117
46.2156
42.3501
38.3243
34.1427
29.8092
25.3327
20.731
16.0352
11.2917
6.56184
1.9198
-2.55261
-6.77269
-10.6648
-14.1688
-17.247
-19.8898
-22.1191
-23.9879
-25.5776
-26.9912
-28.3424
-29.7364
-31.2411
-32.8436
-34.389
-35.5036
-35.5074
-33.3326
-27.4707
-15.9772
3.43435
33.1911
75.5446
132.164
203.685
289.29
386.397
490.549
595.554
693.896
777.408
838.115
869.167
865.712
825.594
749.769
642.37
510.385
363.01
210.723
64.2212
-66.6694
-173.956
-252.216
-299.021
-315.007
-303.601
-270.46
-222.694
-167.988
-113.724
-66.2196
-30.1487
-8.20599
-1.03343
-7.39153
-24.5336
-48.7184
-75.7861
-101.721
-123.136
-137.624
-143.951
-142.08
-133.041
-118.683
-101.337
-83.4619
-67.3034
-54.6121
-46.4572
-43.1452
-44.2467
-48.7193
-55.0996
-61.7358
-67.0248
-69.6238
-68.609
-63.5666
-54.6087
-42.3186
-27.6376
-11.7137
4.26644
19.2381
32.3923
43.2665
51.784
58.24
63.238
67.5894
72.19
77.89
85.3759
95.0782
107.115
121.278
137.061
153.726
170.39
186.131
200.089
211.553
220.024
225.241
227.183
226.031
222.12
215.869
207.716
198.064
187.243
175.49
162.959
149.738
135.89
121.485
106.64
91.5395
76.4451
61.6901
47.6547
34.7329
23.2914
13.6302
5.94772
0.318409
-3.31641
-5.1423
-5.45166
-4.61282
-3.03261
-1.11715
0.76418
2.30785
3.29534
3.6013
3.19077
2.10708
0.452966
-1.63201
-3.99457
-6.48842
-8.99056
-11.4117
-13.7007
-15.8428
-17.8544
-19.7736
-21.6502
-23.5359
-25.4753
-27.5
-29.6244
-31.8442
-34.1376
-36.4673
-38.7837
-41.0285
-43.1384
-45.0491
-46.6982
-48.0286
-48.992
-49.5511
-49.6826
-49.3792
-48.6505
-47.5233
-46.0395
-44.2532
-42.2246
-40.0142
-37.6747
-35.2441
-32.7403
-30.1575
-27.4661
-24.616
-21.5432
-18.1782
-14.4565
-10.3285
-5.76748
-0.775808
4.61332
10.3376
16.3113
22.4336
28.5988
34.7072
40.6746
46.4394
51.9659
57.2437
62.2823
67.1021
71.7224
76.1482
80.3578
84.2934
87.8556
90.9041
93.2647
94.742
95.137
94.2672
91.9875
88.2084
82.9107
76.1545
68.0809
58.9079
48.9195
38.4487
27.8572
17.5118
7.7609
-1.0891
-8.79286
-15.1814
-20.1712
-23.7663
-26.0534
-27.1903
-27.388
-26.8888
-25.9431
-24.7856
-23.6169
-22.5906
-21.808
-21.3209
-21.1399
-21.2427
-21.5757
-22.0408
-22.4603
-22.516
-21.6676
-19.0615
-13.4535
-3.17522
13.8238
39.8304
77.1067
127.522
192.116
270.661
361.294
460.318
562.235
660.057
745.881
811.693
850.287
856.188
826.432
761.097
663.477
539.873
399.017
251.187
107.136
-23.0333
-130.902
-210.547
-259.041
-276.585
-266.28
-233.578
-185.505
-129.765
-73.8399
-24.1963
14.3093
38.7791
48.3541
44.0458
28.3654
4.82088
-22.6414
-50.1749
-74.4869
-93.1641
-104.845
-109.238
-107.008
-99.5527
-88.7204
-76.5082
-64.7787
-55.0311
-48.2476
-44.8246
-44.5883
-46.8808
-50.699
-54.8602
-58.1727
-59.5877
-58.3155
-53.8973
-46.228
-35.5331
-22.3088
-7.23771
8.90758
25.3581
41.4287
56.5764
70.4324
82.8082
93.6777
103.142
111.385
118.624
125.069
130.888
136.186
141.002
145.311
149.044
152.105
154.397
155.839
156.381
156.012
154.757
152.672
149.832
146.312
142.177
137.467
132.188
126.311
119.781
112.523
104.464
95.5511
85.7693
75.1597
63.8286
51.9506
39.7626
27.5497
15.6242
4.30055
-6.13124
-15.4304
-23.4256
-30.0283
-35.2375
-39.1358
-41.8777
-43.6702
-44.7503
-45.3595
-45.7203
-46.0148
-46.3703
-46.85
-47.4529
-48.1197
-48.745
-49.1949
-49.3257
-49.0037
-48.1218
-46.6126
-44.4564
-41.6825
-38.3661
-34.6193
-30.5802
-26.3989
-22.2256
-18.1982
-14.4341
-11.0245
-8.03213
-5.4911
-3.40991
-1.77503
-0.555418
0.292839
0.822206
1.0897
1.1533
1.06867
0.886363
0.649454
0.391979
0.138385
-0.0958018
-0.302054
-0.475837
-0.612936
-0.705675
-0.73966
-0.691621
-0.528762
-0.209772
0.312614
1.08787
2.1633
3.57969
5.36756
7.54451
10.1141
13.0658
16.3774
20.0166
23.9453
28.1226
32.5077
37.0625
41.7522
46.546
51.4147
56.3289
61.2546
66.1492
70.9562
75.6006
79.9846
83.984
87.4468
90.1939
92.0237
92.7206
92.0699
89.8766
85.9892
80.3244
72.8908
63.8062
53.3063
41.7414
29.5595
17.2774
5.44156
-5.41703
-14.8279
-22.4222
-27.9627
-31.3622
-32.6839
-32.129
-30.009
-26.7106
-22.656
-18.2663
-13.9323
-9.99735
-6.75213
-4.44089
-3.27246
-3.42857
-5.05998
-8.26116
-13.0172
-19.1219
-26.0724
-32.9571
-38.3605
-40.3167
-36.3463
-23.6038
0.84906
39.6522
94.6733
166.513
254.075
354.279
462.017
570.378
671.172
755.691
815.649
844.15
836.575
791.249
709.782
597.043
460.744
310.688
157.782
12.9175
-114.123
-215.615
-286.584
-325.169
-332.617
-312.953
-272.348
-218.304
-158.75
-101.16
-51.8031
-15.1906
6.21706
12.0456
3.79565
-15.5624
-42.1204
-71.6138
-99.9759
-123.801
-140.67
-149.315
-149.622
-142.485
-129.568
-112.982
-94.9689
-77.5942
-62.5119
-50.8082
-42.9394
-38.7579
-37.6128
-38.5022
-40.2522
-41.6955
-41.828
-39.9243
-35.6037
-28.8428
-19.9405
-9.44376
1.94985
13.4993
24.5214
34.4731
43.0084
50.0028
55.5473
59.9154
63.5095
66.7965
70.2402
74.2404
79.0855
84.9218
91.7437
99.4025
107.632
116.082
124.366
132.097
138.925
144.566
148.815
151.552
152.733
152.379
150.562
147.379
142.948
137.386
130.811
123.337
115.075
106.14
96.6503
86.73
76.5072
66.1093
55.658
45.2634
35.0199
25.0046
15.2787
5.89193
-3.11133
-11.6848
-19.7745
-27.3144
-34.226
-40.4211
-45.807
-50.296
-53.8144
-56.3127
-57.774
-58.2196
-57.7115
-56.3512
-54.2746
-51.6437
-48.6362
-45.4334
-42.2087
-39.1163
-36.2822
-33.7984
-31.7195
-30.0628
-28.8113
-27.9187
-27.3158
-26.9182
-26.6333
-26.3674
-26.0314
-25.5453
-24.8421
-23.8698
-22.5925
-20.9913
-19.0635
-16.8216
-14.2917
-11.5112
-8.52514
-5.38318
-2.13506
1.17348
4.50451
7.83068
11.1366
14.4184
17.6812
20.9356
24.1923
27.4571
30.7266
33.9848
37.2025
40.3387
43.3443
46.1674
48.7602
51.0849
53.1192
54.8593
56.3208
57.5366
58.5528
59.423
60.2011
60.9355
61.6626
62.4021
63.1525
63.8861
64.5449
65.0354
65.225
64.9408
63.9745
62.0929
59.0577
54.6522
48.7129
41.162
32.0359
21.5034
9.87159
-2.42633
-14.8584
-26.8362
-37.7672
-47.1095
-54.4247
-59.42
-61.9744
-62.1478
-60.1699
-56.4135
-51.3538
-45.5213
-39.4526
-33.6459
-28.5242
-24.4108
-21.5179
-19.9486
-19.7088
-20.725
-22.8609
-25.9237
-29.6523
-33.6792
-37.4662
-40.218
-40.7934
-37.6401
-28.7878
-11.9364
15.3389
55.2607
109.429
178.36
261.074
354.808
454.954
555.251
648.267
726.11
781.29
807.626
801.049
760.205
686.743
585.262
462.905
328.652
192.401
63.9594
-47.9476
-136.511
-197.439
-229.256
-233.281
-213.299
-174.995
-125.211
-71.1354
-19.5256
23.9663
55.2794
72.2114
74.4517
63.3982
41.7992
13.2766
-18.2007
-48.8282
-75.4025
-95.6378
-108.339
-113.419
-111.785
-105.102
-95.4956
-85.2194
-76.3417
-70.4848
-68.6456
-71.1118
-77.4755
-86.7331
-97.4512
-107.971
-116.626
-121.937
-122.776
-118.469
-108.845
-94.2214
-75.336
-53.2467
-29.2019
-4.5066
19.6045
42.0733
62.0966
79.1707
93.1033
103.993
112.187
118.213
122.71
126.346
129.751
133.453
137.83
143.087
149.246
156.158
163.528
170.96
177.997
184.171
189.048
192.257
193.524
192.676
189.652
184.49
177.321
168.347
157.827
146.054
133.343
120.013
106.374
92.7196
79.314
66.3892
54.1371
42.7052
32.1938
22.6537
14.0881
6.45633
-0.317969
-6.33614
-11.7107
-16.5506
-20.9463
-24.9578
-28.6055
-31.8665
-34.677
-36.9401
-38.5387
-39.3521
-39.2744
-38.232
-36.1981
-33.2028
-29.3367
-24.7485
-19.6359
-14.2327
-8.79205
-3.56895
1.19726
5.29869
8.57195
10.9077
12.2565
12.6296
12.0967
10.7783
8.83523
6.45551
3.83896
1.18195
-1.33712
-3.57015
-5.4084
-6.78748
-7.68805
-8.13216
-8.17589
-7.89922
-7.39435
-6.75386
-6.06
-5.37638
-4.74271
-4.17306
-3.65765
-3.16739
-2.66055
-2.09024
-1.41172
-0.588379
0.404333
1.57743
2.92934
4.44878
6.11884
7.9213
9.8402
11.864
13.986
16.2027
18.5114
20.9065
23.3757
25.8974
28.4372
30.9455
33.355
35.578
37.504
38.9993
39.9079
40.056
39.2613
37.3449
34.1488
29.5542
23.5008
16.0044
7.16846
-2.81099
-13.6491
-24.9858
-36.4076
-47.4754
-57.7561
-66.8528
-74.4322
-80.2442
-84.1345
-86.0485
-86.0274
-84.1988
-80.7625
-75.9745
-70.1301
-63.5475
-56.5533
-49.4699
-42.6063
-36.2504
-30.6609
-26.0561
-22.5913
-20.3213
-19.1396
-18.6971
-18.307
-16.8538
-12.7369
-3.88329
12.1391
37.8847
75.6753
127.159
192.846
271.701
360.89
455.745
550.001
636.3
706.924
754.662
773.697
760.39
713.841
636.137
532.256
409.608
277.295
145.16
22.7587
-81.6207
-161.769
-214.106
-237.911
-235.221
-210.425
-169.616
-119.802
-68.0748
-20.8285
16.8644
41.6753
52.1995
48.8966
33.8209
10.1945
-18.1106
-47.1091
-73.1922
-93.5157
-106.252
-110.687
-107.179
-96.9791
-81.975
-64.3834
-46.4381
-30.1146
-16.9195
-7.76305
-2.92079
-2.07917
-4.44871
-8.9231
-14.2588
-19.2503
-22.879
-24.4207
-23.5013
-20.101
-14.5104
-7.25028
1.03059
9.66451
18.0649
25.8055
32.6687
38.6607
43.9917
49.0279
54.2235
60.0413
66.8763
74.9904
84.4674
95.1939
106.867
119.028
131.112
142.516
152.66
161.048
167.315
171.251
172.806
172.079
169.282
164.701
158.646
151.413
143.243
134.306
124.693
114.428
103.491
91.8488
79.4884
66.4503
52.8503
38.8902
24.8557
11.1
-1.98299
-13.9933
-24.5616
-33.3841
-40.2507
-45.0642
-47.8477
-48.7395
-47.9786
-45.88
-42.8055
-39.1314
-35.2174
-31.3799
-27.8716
-24.8683
-22.4656
-20.6824
-19.4726
-18.7404
-18.3602
-18.1956
-18.1178
-18.0198
-17.8262
-17.4979
-17.0306
-16.4499
-15.8022
-15.1431
-14.5268
-13.9957
-13.5729
-13.2583
-13.0281
-12.8382
-12.6309
-12.3429
-11.9145
-11.298
-10.4652
-9.41127
-8.15612
-6.7423
-5.22958
-3.6872
-2.1846
-0.781878
0.478698
1.57887
2.52744
3.35968
4.13301
4.91963
5.79692
6.83713
8.09765
9.61344
11.3927
13.4164
15.6425
18.0127
20.4629
22.9337
25.3811
27.7837
30.1471
32.5034
34.9064
37.4233
40.1231
43.0653
46.2887
49.8034
53.5849
57.5735
61.6759
65.7708
69.7158
73.3554
76.5288
79.0773
80.8503
81.7102
81.5374
80.2345
77.7312
73.9897
69.0109
62.8406
55.5746
47.3621
38.4051
28.9545
19.2998
9.7548
0.639123
-7.743
-15.124
-21.2923
-26.1068
-29.5059
-31.5082
-32.2065
-31.7552
-30.3543
-28.2313
-25.6255
-22.7751
-19.908
-17.2336
-14.9328
-13.1372
-11.8928
-11.1029
-10.4479
-9.29152
-6.58829
-0.820277
10.0051
28.2636
56.5057
97.1295
151.958
221.771
305.874
401.778
505.089
609.651
707.968
791.883
853.436
885.797
884.145
846.363
773.447
669.552
541.669
398.951
251.783
110.713
-14.6358
-116.519
-189.79
-232.301
-244.95
-231.382
-197.405
-150.201
-97.4337
-46.3758
-3.1525
27.8208
44.1512
45.5178
33.4732
11.0455
-17.7956
-48.7299
-77.6576
-101.183
-116.962
-123.88
-122.059
-112.708
-97.8555
-79.9988
-61.7351
-45.4141
-32.8569
-25.1711
-22.6733
-24.922
-30.8427
-38.9223
-47.441
-54.7074
-59.269
-60.0708
-56.5489
-48.6524
-36.798
-21.7692
-4.581
13.6716
31.9557
49.4185
65.4645
79.7897
92.37
103.413
113.284
122.42
131.243
140.092
149.169
158.521
168.041
177.495
186.568
194.916
202.21
208.189
212.677
215.604
216.993
216.942
215.592
213.093
209.57
205.098
199.685
193.276
185.761
177.003
166.87
155.273
142.197
127.731
112.082
95.5734
78.6359
61.7749
45.5329
30.4446
16.989
5.54808
-3.62737
-10.4378
-14.9407
-17.3404
-17.9644
-17.2282
-15.5939
-13.526
-11.4496
-9.71628
-8.57912
-8.18011
-8.55004
-9.61989
-11.2417
-13.2156
-15.3199
-17.3403
-19.0945
-20.4515
-21.341
-21.7559
-21.7456
-21.4031
-20.8477
-20.2057
-19.5921
-19.0952
-18.7657
-18.6124
-18.603
-18.6711
-18.7266
-18.6695
-18.4037
-17.8498
-16.955
-15.6991
-14.0964
-12.193
-10.0606
-7.7872
-5.46758
-3.19253
-1.04017
0.930754
2.68479
4.21063
5.51925
6.63962
7.61305
8.48686
9.30822
10.1191
10.9529
11.8326
12.7714
13.7745
14.8432
15.9794
17.1904
18.4948
19.9268
21.5388
23.4018
25.6019
28.2329
31.3845
35.1279
39.4997
44.4862
50.0107
55.9262
62.014
67.9905
73.5212
78.2407
81.7789
83.7888
83.9762
82.1272
78.131
71.9971
63.8634
53.9947
42.7701
30.6608
18.1982
5.93587
-5.5919
-15.9108
-24.6424
-31.5322
-36.4652
-39.4694
-40.7047
-40.4396
-39.0175
-36.8183
-34.2169
-31.547
-29.0718
-26.9664
-25.3125
-24.1062
-23.2754
-22.7039
-22.2543
-21.7843
-21.146
-20.1623
-18.576
-15.9729
-11.6886
-4.71784
6.34505
23.3037
48.2637
83.4244
130.76
191.612
266.255
353.501
450.431
552.327
652.864
744.564
819.492
870.111
890.19
875.646
825.171
740.578
626.777
491.379
343.969
195.143
55.412
-65.8718
-161.445
-226.802
-260.531
-264.289
-242.433
-201.364
-148.689
-92.2975
-39.4857
3.79079
33.4393
47.4929
46.1012
31.2744
6.4333
-24.1614
-56.0218
-85.0075
-107.798
-122.216
-127.371
-123.634
-112.452
-96.0517
-77.0678
-58.164
-41.684
-29.3798
-22.2428
-20.4485
-23.4132
-29.9421
-38.4426
-47.1692
-54.4636
-58.9602
-59.7341
-56.3753
-48.9897
-38.1311
-24.6829
-9.70732
5.71253
20.6171
34.2837
46.297
56.5704
65.3207
73.004
80.2231
87.6225
95.785
105.144
115.919
128.088
141.387
155.347
169.346
182.686
194.668
204.665
212.179
216.882
218.631
217.467
213.591
207.326
199.08
189.294
178.404
166.806
154.833
142.743
130.72
118.882
107.296
96.0008
85.0221
74.3904
64.1515
54.3714
45.1349
36.5395
28.686
21.6672
15.5569
10.4011
6.21169
2.96373
0.596403
-0.983098
-1.89306
-2.26918
-2.25575
-1.99683
-1.62817
-1.27041
-1.02367
-0.964032
-1.14169
-1.58093
-2.28176
-3.22303
-4.36678
-5.66363
-7.0585
-8.49655
-9.92853
-11.3153
-12.6311
-13.8645
-15.0188
-16.1092
-17.1596
-18.1974
-19.2477
-20.3286
-21.4452
-22.587
-23.7257
-24.816
-25.7988
-26.6058
-27.1668
-27.4172
-27.3059
-26.8018
-25.8988
-24.6182
-23.0077
-21.1377
-19.0946
-16.9721
-14.8618
-12.8429
-10.9742
-9.28779
-7.78584
-6.44046
-5.19723
-3.98133
-2.70614
-1.28289
0.369314
2.31453
4.59285
7.21605
10.1662
13.3979
16.8423
20.4146
24.0219
27.571
30.9762
34.1644
37.0787
39.6793
41.9423
43.8563
45.4186
46.6304
47.4919
47.9986
48.1367
47.8806
47.1896
46.0066
44.2585
41.8597
38.7187
34.7493
29.8848
24.0945
17.3991
9.88443
1.70826
-6.89957
-15.6466
-24.1961
-32.1931
-39.2955
-45.2068
-49.705
-52.6662
-54.0759
-54.03
-52.7236
-50.4298
-47.472
-44.1933
-40.9269
-37.9702
-35.5642
-33.8767
-32.9884
-32.8745
-33.3789
-34.1737
-34.7035
-34.1196
-31.215
-24.3849
-11.6392
9.3023
40.8109
85.0411
143.535
216.788
303.843
402.001
506.726
611.794
709.717
792.411
852.031
881.883
877.285
836.236
759.818
652.246
520.545
373.903
222.757
77.7371
-51.4008
-156.735
-232.906
-277.536
-291.309
-277.702
-242.43
-192.679
-136.231
-80.5919
-32.2227
4.04888
25.3748
30.9789
22.0052
1.16254
-27.7714
-60.5163
-92.8501
-121.101
-142.52
-155.496
-159.619
-155.583
-144.971
-129.947
-112.918
-96.1936
-81.6981
-70.7611
-64.005
-61.3371
-62.0359
-64.9129
-68.5213
-71.3796
-72.1804
-69.9556
-64.1826
-54.8203
-42.2777
-27.3254
-10.9665
5.71133
21.6809
36.0996
48.3969
58.3188
65.9274
71.5611
75.7651
79.2053
82.5783
86.5288
91.5837
98.1069
106.278
116.088
127.36
139.769
152.879
166.18
179.117
191.129
201.672
210.249
216.435
219.892
220.392
217.831
212.229
203.743
192.651
179.338
164.276
147.989
131.023
113.904
97.1131
81.0542
66.0372
52.2693
39.8577
28.8196
19.1015
10.6005
3.18802
-3.26934
-8.89316
-13.7824
-18.0089
-21.619
-24.6392
-27.0854
-28.9726
-30.3235
-31.1756
-31.5844
-31.6228
-31.3779
-30.9448
-30.4183
-29.8854
-29.4175
-29.0643
-28.8511
-28.7777
-28.8206
-28.9375
-29.0735
-29.1684
-29.1636
-29.0092
-28.6686
-28.1224
-27.3687
-26.4222
-25.3113
-24.0727
-22.7466
-21.3703
-19.9739
-18.5756
-17.1807
-15.7804
-14.3549
-12.8761
-11.3135
-9.63923
-7.83398
-5.89159
-3.82217
-1.65331
0.571162
2.79451
4.9524
6.97952
8.81689
10.4193
11.7617
12.8448
13.6979
14.3797
14.9753
15.5907
16.3435
17.3517
18.7218
20.537
22.8481
25.6685
28.9737
32.7077
36.7928
41.1449
45.6879
50.3673
55.1578
60.0639
65.1109
70.3279
75.724
81.2618
86.8333
92.2424
97.1993
101.33
104.204
105.369
104.41
100.997
94.9432
86.2423
75.0965
61.9164
47.2994
31.9845
16.7892
2.53443
-10.0322
-20.3068
-27.8845
-32.5929
-34.5007
-33.8991
-31.2615
-27.1835
-22.3148
-17.2876
-12.6542
-8.83802
-6.10532
-4.55902
-4.15409
-4.73017
-6.05352
-7.8582
-9.87445
-11.8325
-13.4334
-14.2833
-13.7977
-11.0935
-4.89609
6.5013
25.1888
53.4739
93.5886
147.288
215.392
297.338
390.839
491.738
594.104
690.625
773.248
834.027
866.053
864.345
826.576
753.509
649.087
520.134
375.715
226.218
82.28
-46.3032
-151.553
-228.055
-273.384
-288.178
-275.866
-242.094
-193.947
-139.06
-84.7448
-37.2279
-1.07868
21.1101
28.7814
23.2255
7.19065
-15.6391
-41.2236
-65.7244
-85.9746
-99.8094
-106.23
-105.395
-98.4626
-87.3131
-74.2027
-61.4037
-50.8775
-44.0226
-41.5241
-43.3153
-48.6474
-56.2451
-64.5228
-71.8231
-76.6457
-77.8363
-74.7129
-67.1194
-55.4059
-40.3445
-22.9973
-4.55989
13.7987
31.0774
46.5495
59.8239
70.8569
79.917
87.5129
94.2947
100.945
108.076
116.138
125.364
135.745
147.035
158.791
170.443
181.364
190.955
198.717
204.302
207.547
208.476
207.275
204.245
199.741
194.112
187.637
180.483
172.691
164.181
154.784
144.294
132.533
119.409
104.97
89.4293
73.1702
56.7237
40.7187
25.8168
12.6373
1.68536
-6.70818
-12.4265
-15.5807
-16.4964
-15.6748
-13.7335
-11.3357
-9.11509
-7.60842
-7.20104
-8.09318
-10.2894
-13.6115
-17.732
-22.2236
-26.6165
-30.4579
-33.3653
-35.0675
-35.4303
-34.4643
-32.3145
-29.2357
-25.5569
-21.64
-17.8376
-14.4562
-11.7274
-9.78994
-8.6842
-8.3578
-8.681
-9.46897
-10.5077
-11.5803
-12.4905
-13.0817
-13.2491
-12.9445
-12.1754
-10.9968
-9.49959
-7.79622
-6.00522
-4.23723
-2.58324
-1.10637
0.162508
1.22498
2.11176
2.87633
3.58661
4.31581
5.13341
6.09745
7.24899
8.60895
10.178
11.9389
13.8615
15.9092
18.0471
20.2506
22.5133
24.8545
27.3232
29.9994
32.9894
36.4169
40.4075
45.0691
50.4707
56.6202
63.4461
70.7854
78.3791
85.8788
92.8633
98.8666
103.413
106.059
106.436
104.288
99.502
92.13
82.3904
70.659
57.4433
43.3456
29.018
15.1125
2.23333
-9.10621
-18.5173
-25.7574
-30.7391
-33.526
-34.3162
-33.4169
-31.2118
-28.125
-24.5842
-20.9871
-17.672
-14.8964
-12.824
-11.5228
-10.9732
-11.0858
-11.725
-12.7313
-13.9342
-15.1443
-16.1169
-16.4812
-15.6425
-12.6734
-6.22404
5.50998
24.7237
53.814
95.0594
150.193
219.922
303.48
398.296
499.882
601.986
697.033
776.832
833.462
860.222
852.524
808.573
729.758
620.658
488.669
343.29
195.148
54.8932
-67.8934
-165.657
-233.567
-269.877
-275.933
-255.821
-215.741
-163.174
-105.974
-51.4854
-5.79076
26.825
44.1568
46.091
34.3709
12.1674
-16.4751
-47.2371
-76.0902
-99.7633
-116.063
-124.021
-123.871
-116.871
-105.016
-90.684
-76.2693
-63.8552
-54.9601
-50.3864
-50.18
-53.6944
-59.742
-66.8009
-73.2477
-77.5795
-78.5997
-75.5456
-68.1485
-56.6254
-41.6122
-24.0522
-5.06074
14.2155
32.7263
49.6184
64.3021
76.4785
86.1321
93.4925
98.976
103.115
106.487
109.645
113.063
117.101
121.975
127.759
134.389
141.687
149.395
157.2
164.777
171.814
178.035
183.214
187.176
189.798
190.993
190.695
188.853
185.414
180.329
173.552
165.063
154.881
143.086
129.841
115.4
100.107
84.383
68.7051
53.5663
39.4377
26.7265
15.7406
6.66215
-0.465214
-5.73406
-9.35679
-11.6371
-12.9333
-13.6184
-14.0411
-14.4936
-15.1878
-16.2432
-17.6866
-19.4631
-21.4542
-23.5034
-25.4418
-27.1135
-28.3961
-29.2149
-29.5488
-29.4292
-28.931
-28.1593
-27.2318
-26.262
-25.3434
-24.5375
-23.8679
-23.3192
-22.842
-22.3623
-21.793
-21.0477
-20.0517
-18.7526
-17.1253
-15.1754
-12.9381
-10.4749
-7.86903
-5.21965
-2.63586
-0.230792
1.88422
3.60559
4.84357
5.52871
5.61849
5.10392
4.01535
2.42667
0.457031
-1.73091
-3.93673
-5.93225
-7.47544
-8.32732
-8.27066
-7.12853
-4.78084
-1.17703
3.65695
9.61814
16.5331
24.1711
32.2622
40.519
48.6593
56.4277
63.6121
70.0561
75.6628
80.3923
84.2519
87.2815
89.536
91.0666
91.905
92.0508
91.4658
90.0747
87.7742
84.4485
79.9903
74.325
67.4352
59.3805
50.311
40.4703
30.1879
19.8587
9.91353
0.782445
-7.14461
-13.5548
-18.2421
-21.1266
-22.2596
-21.8152
-20.0686
-17.3652
-14.0849
-10.6059
-7.27479
-4.38262
-2.15066
-0.720366
-0.142736
-0.358719
-1.16332
-2.14963
-2.63618
-1.59125
2.42249
11.2514
27.0709
52.1981
88.7925
138.466
201.852
278.203
365.106
458.388
552.271
639.781
713.405
765.89
791.121
784.913
745.635
674.544
575.796
456.095
324.047
189.279
61.4426
-50.7719
-140.496
-203.311
-237.576
-244.434
-227.508
-192.333
-145.62
-94.438
-45.4239
-4.10452
25.5907
41.5905
43.7027
33.4152
13.5216
-12.3662
-40.3495
-66.7495
-88.5308
-103.6
-110.954
-110.68
-103.82
-92.1292
-77.7714
-62.9963
-49.8357
-39.8596
-34.0129
-32.549
-35.057
-40.5722
-47.7489
-55.066
-61.0395
-64.4112
-64.2936
-60.2548
-52.3388
-41.0223
-27.1208
-11.6594
4.27176
19.6567
33.6702
45.7589
55.6792
63.4909
69.5127
74.2481
78.2957
82.256
86.6488
91.8499
98.0542
105.267
113.321
121.913
130.659
139.14
146.961
153.786
159.364
163.534
166.223
167.424
167.175
165.538
162.574
158.34
152.885
146.253
138.5
129.702
119.972
109.46
98.357
86.8876
75.2948
63.825
52.7108
42.1548
32.3186
23.3157
15.2101
8.0201
1.7249
-3.72599
-8.40295
-12.3868
-15.7611
-18.6059
-20.9935
-22.9865
-24.6366
-25.9839
-27.0581
-27.8787
-28.4563
-28.7939
-28.889
-28.7356
-28.3273
-27.6601
-26.7352
-25.5622
-24.1601
-22.5589
-20.7987
-18.9278
-16.9994
-15.0678
-13.1833
-11.3883
-9.71335
-8.17534
-6.77719
-5.50959
-4.35455
-3.29013
-2.29574
-1.35701
-0.469394
0.359971
1.11279
1.76231
2.27785
2.63058
2.79954
2.77685
2.57148
2.2107
1.73903
1.21481
0.704862
0.278005
-0.00152421
-0.0797662
0.0830887
0.511311
1.21499
2.19393
3.44339
4.96067
6.75101
8.83181
11.2339
13.9992
17.1752
20.8066
24.9249
29.5381
34.621
40.1087
45.8933
51.824
57.712
63.3387
68.4658
72.8473
76.2419
78.4247
79.1991
78.4078
75.9432
71.7585
65.8758
58.3935
49.4893
39.4186
28.5067
17.1343
5.71718
-5.31991
-15.5722
-24.6843
-32.3769
-38.4675
-42.8833
-45.6631
-46.9485
-46.9647
-45.9933
-44.3404
-42.3036
-40.143
-38.0597
-36.1843
-34.5769
-33.2379
-32.124
-31.166
-30.277
-29.3456
-28.2044
-26.5718
-23.9696
-19.6314
-12.421
-0.793348
17.1694
43.6208
80.6982
130.167
193.004
268.971
356.281
451.413
549.162
642.935
725.312
788.787
826.626
833.71
807.239
747.216
656.6
541.121
408.763
268.976
131.718
6.4368
-98.8654
-178.394
-229.047
-250.587
-245.486
-218.478
-175.89
-124.849
-72.4473
-24.995
12.5872
37.1542
47.4865
44.2019
29.464
6.54052
-20.7209
-48.4287
-73.1284
-92.1784
-103.983
-108.071
-105.029
-96.3025
-83.9184
-70.1554
-57.219
-46.9575
-40.65
-38.8877
-41.5541
-47.8969
-56.6756
-66.3577
-75.3357
-82.1341
-85.5828
-84.9366
-79.9313
-70.7756
-58.0858
-42.7768
-25.9287
-8.64645
8.06878
23.4218
36.8907
48.2546
57.5835
65.1949
71.5867
77.3552
83.1098
89.393
96.6148
105.006
114.598
125.217
136.512
147.994
159.084
169.18
177.706
184.176
188.227
189.652
188.407
184.609
178.507
170.453
160.863
150.172
138.8
127.117
115.428
103.96
92.8682
82.242
72.1232
62.5238
53.4434
44.8837
36.8579
29.3949
22.5377
16.3377
10.8461
6.10373
2.13187
-1.07512
-3.55391
-5.37265
-6.62767
-7.43679
-7.93019
-8.23987
-8.48908
-8.7827
-9.19991
-9.78948
-10.5685
-11.5241
-12.6183
-13.795
-14.988
-16.1301
-17.1607
-18.0328
-18.717
-19.2034
-19.5009
-19.6341
-19.638
-19.5523
-19.4147
-19.255
-19.0906
-18.9236
-18.7403
-18.5128
-18.2025
-17.7655
-17.1586
-16.3448
-15.2988
-14.0103
-12.4857
-10.7475
-8.83182
-6.78568
-4.66244
-2.51824
-0.408965
1.61192
3.49439
5.19249
6.665
7.87712
8.80373
9.43441
9.7799
9.87889
9.80367
9.66288
9.59992
9.78593
10.4073
11.6489
13.6737
16.6033
20.5003
25.3554
31.0828
37.523
44.4542
51.6108
58.7061
65.4566
71.605
76.9378
81.2962
84.5788
86.7358
87.7572
87.6565
86.4551
84.1691
80.8028
76.3491
70.799
64.1558
56.4542
47.7783
38.2754
28.1632
17.7269
7.30735
-2.72103
-11.9779
-20.1082
-26.8129
-31.875
-35.1782
-36.7166
-36.5934
-35.0112
-32.2541
-28.6648
-24.6193
-20.501
-16.6761
-13.4707
-11.1475
-9.88001
-9.72075
-10.5584
-12.0628
-13.619
-14.2591
-12.6066
-6.85729
5.17563
25.929
57.8528
103.073
162.985
237.821
326.283
425.297
529.981
633.856
729.325
808.367
863.379
888.065
878.236
832.416
752.167
642.065
509.326
363.13
213.711
71.3313
-54.734
-157.085
-230.851
-274.046
-287.591
-275.024
-241.934
-195.216
-142.242
-90.0313
-90.0313
-90.0313
-90.0313
-90.0313
-90.0313
-90.0313
-90.0313
-90.0313
-90.0313
-90.0313
-90.0313
-90.0313
-90.0313
-90.0313
-90.0313
-90.0313
-90.0313
-90.0313
-90.0313
