158.686
147.218
134.132
119.742
104.487
88.8955
73.5417
58.995
45.7639
34.2483
24.7027
17.2145
11.7026
7.9331
5.55145
4.12664
3.20096
2.33945
1.17311
-0.568894
-3.04111
-6.27869
-10.2084
-14.6711
-19.4513
-24.3106
-29.0184
-33.379
-37.2492
-40.548
-43.2567
-45.4112
-47.0882
-48.3888
-49.4207
-50.2831
-51.054
-51.7832
-52.489
-53.1603
-53.7613
-54.2391
-54.5318
-54.5763
-54.3153
-53.7013
-52.6993
-51.2872
-49.4539
-47.1985
-44.5277
-41.4565
-38.0084
-34.219
-30.1388
-25.837
-21.4034
-16.9483
-12.5983
-8.49018
-4.76052
-1.53448
1.08639
3.03475
4.28542
4.85905
4.82127
4.27681
3.35959
2.21975
1.00922
-0.132467
-1.09046
-1.7836
-2.16933
-2.24418
-2.03988
-1.61608
-1.05052
-0.428254
0.169072
0.672321
1.03165
1.22027
1.23513
1.09464
0.834075
0.499419
0.1406
-0.195078
-0.468448
-0.65242
-0.733997
-0.714353
-0.607133
-0.435409
-0.227777
-0.0142021
0.177874
0.326681
0.418231
0.447228
0.416792
0.337164
0.223658
0.0941908
-0.0332395
-0.142823
-0.222689
-0.265972
-0.271143
-0.241624
-0.184837
-0.110839
-0.0307761
0.0446292
0.106385
0.148176
0.166869
0.162573
0.138287
0.0992372
0.0520455
0.00387469
-0.0383078
-0.0682593
-0.0807598
-0.0717292
-0.0382651
0.0212831
0.107118
0.217654
0.3491
0.495073
0.646434
0.791474
0.916585
1.00742
1.05048
1.03492
0.954422
0.808715
0.604685
0.356761
0.086584
-0.178039
-0.404786
-0.558901
-0.605518
-0.512038
-0.25042
0.200748
0.854498
1.7141
2.77218
4.01031
5.39918
6.89927
8.46206
10.0316
11.5464
12.9422
14.154
15.12
15.7843
16.1014
16.0394
15.5836
14.7401
13.5365
12.0236
10.2733
8.37604
6.43579
4.56392
2.87186
1.46349
0.42798
-0.166205
-0.275399
0.117394
1.00281
2.34697
4.09369
6.16527
8.45982
10.8434
13.1356
15.09
16.3717
16.5382
15.0317
11.1905
4.28843
-6.39482
-21.473
-41.3297
-65.9872
-94.9857
-127.298
-161.298
-194.814
-225.247
-249.793
-265.711
-270.638
-262.892
-241.74
-207.569
-161.948
-107.555
-47.9681
12.6577
69.9908
119.959
159.161
185.213
196.973
194.634
179.662
154.597
122.741
87.78
53.3737
22.7786
-1.46435
-17.7408
-25.4543
-24.9965
-17.6078
-5.15326
10.1525
26.0357
40.4321
51.7055
58.7933
61.2694
59.3234
53.6689
45.3954
35.7911
26.1588
17.6486
11.1277
7.09854
5.67138
6.58915
9.29624
13.0382
16.9769
20.3048
22.3446
22.6228
20.9107
17.2305
11.8299
5.13099
-2.33807
-10.0176
-17.3874
-24.0265
-29.6535
-34.1454
-37.5353
-39.9884
-41.7651
-43.1744
-44.5261
-46.0874
-48.0497
-50.5094
-53.4626
-56.8146
-60.4009
-64.0146
-67.4379
-70.4701
-72.9512
-74.7754
-75.8963
-76.3225
-76.1056
-75.324
-74.0659
-72.4128
-70.428
-68.15
-65.5925
-62.7482
-59.598
-56.1205
-52.3032
-48.1499
-43.6877
-38.9686
-34.0692
-29.087
-24.1344
-19.3313
-14.7973
-10.6432
-6.96392
-3.83174
-1.29138
0.643022
1.98887
2.79374
3.13166
3.09726
2.79825
2.34659
1.84949
1.40078
1.07356
0.915039
0.943711
1.14947
1.49638
1.92793
2.37419
2.76012
3.01433
3.0772
2.90783
2.48899
1.82953
0.964228
-0.0492256
-1.13561
-2.20952
-3.18394
-3.97908
-4.53061
-4.79623
-4.76
-4.43377
-3.85554
-3.08515
-2.19758
-1.27478
-0.397097
0.364881
0.956989
1.34603
1.52177
1.49629
1.30096
0.981447
0.591655
0.18708
-0.181415
-0.472853
-0.659884
-0.730694
-0.688985
-0.552154
-0.347987
-0.11035
0.125538
0.32765
0.470956
0.54008
0.530563
0.448721
0.310313
0.138356
-0.0394341
-0.193159
-0.292879
-0.310197
-0.219306
0.00237396
0.37373
0.909446
1.61928
2.50711
3.5698
4.79609
6.16594
7.65033
9.2121
10.8076
12.3897
13.9104
15.3255
16.5969
17.6957
18.6033
19.3116
19.8218
20.1421
20.2858
20.2689
20.1083
19.8214
19.4257
18.9397
18.3839
17.7816
17.1596
16.5471
15.9754
15.4746
15.0714
14.7856
14.627
14.5933
14.669
14.8255
15.0226
15.2112
15.3373
15.3461
15.1855
14.8098
14.1805
13.2653
12.0336
10.447
8.44644
5.93442
2.75467
-1.32694
-6.63532
-13.5862
-22.6662
-34.3883
-49.2212
-67.4955
-89.2975
-114.364
-141.996
-171.015
-199.769
-226.214
-248.06
-262.978
-268.852
-264.043
-247.628
-219.58
-180.871
-133.45
-80.1226
-24.3123
30.2518
79.8979
121.375
152.177
170.783
176.792
170.932
154.942
131.354
103.196
73.6522
45.7254
21.9442
4.13714
-6.69851
-10.4249
-7.69473
0.200628
11.5413
24.4182
36.9714
47.599
55.1159
58.8473
58.6532
54.8867
48.2992
39.9068
30.8401
22.1952
14.9038
9.63662
6.74665
6.25646
7.88521
11.1089
15.2434
19.5381
23.2687
25.8183
26.7391
25.789
22.9422
18.3736
12.4236
5.54606
-1.75006
-8.9606
-15.6394
-21.4398
-26.1413
-29.6583
-32.0339
-33.4188
-34.0401
-34.1649
-34.0625
-33.971
-34.0711
-34.4694
-35.1935
-36.1973
-37.3749
-38.5815
-39.657
-40.4492
-40.8337
-40.728
-40.0988
-38.9614
-37.3734
-35.4224
-33.2127
-30.8499
-28.4288
-26.0237
-23.6842
-21.4342
-19.2757
-17.1954
-15.1716
-13.1817
-11.2078
-9.23924
-7.27284
-5.31014
-3.35283
-1.39767
0.567721
2.56689
4.6335
6.80684
9.12424
11.6114
14.2722
17.08
19.9722
22.8494
25.5805
28.0134
29.9909
31.3682
32.0323
31.9178
31.0183
29.3907
27.1522
24.469
21.539
18.5709
15.7614
13.2739
11.2212
9.65287
8.54801
7.8107
7.26646
6.65661
5.63003
3.73414
0.411271
-4.99049
-13.1813
-24.8598
-40.6064
-60.7465
-85.2011
-113.353
-143.959
-175.147
-204.507
-229.293
-246.72
-254.302
-250.219
-233.613
-204.791
-165.296
-117.8
-65.8652
-13.5677
34.944
75.9094
106.369
124.478
129.679
122.722
105.523
80.9002
52.2057
22.9269
-3.71038
-25.0799
-39.3983
-45.8522
-44.6011
-36.6659
-23.7272
-7.86347
8.73202
24.0205
36.3413
44.5682
48.1842
47.2768
42.4597
34.7398
25.3511
15.5781
6.59329
-0.675344
-5.63159
-8.04867
-8.05684
-6.08775
-2.78657
1.09421
4.80443
7.69546
9.29725
9.36558
7.89561
5.10282
1.37601
-2.78939
-6.86765
-10.3781
-12.9496
-14.3663
-14.5894
-13.755
-12.147
-10.1529
-8.20783
-6.73464
-6.08884
-6.51476
-8.11816
-10.8577
-14.5555
-18.9242
-23.6063
-28.2202
-32.4069
-35.8706
-38.4101
-39.9359
-40.4722
-40.1441
-39.1525
-37.7408
-36.1573
-34.6199
-33.2872
-32.2398
-31.4737
-30.9071
-30.3976
-29.7686
-28.8381
-27.449
-25.493
-22.9275
-19.782
-16.1544
-12.1972
-8.09801
-4.05444
-0.25047
3.1652
6.09458
8.49851
10.3968
11.8611
13.0017
13.9509
14.8449
15.807
16.9341
18.2869
19.8867
21.716
23.7244
25.8372
27.9661
30.0205
31.9177
33.5908
34.9952
36.1111
36.9437
37.5206
37.8865
38.0971
38.2112
38.2833
38.3561
38.4549
38.5842
38.7255
38.8388
38.8664
38.7382
38.3791
37.7169
36.6904
35.2563
33.3948
31.1126
28.4444
25.4506
22.2145
18.8363
15.4264
12.0986
8.96163
6.11281
3.63142
1.57407
-0.0284522
-1.17222
-1.87927
-2.19467
-2.18197
-1.91735
-1.48298
-0.960376
-0.424071
0.063532
0.455922
0.724464
0.858562
0.864092
0.760362
0.576019
0.344343
0.0984905
-0.132839
-0.328822
-0.478683
-0.5824
-0.649937
-0.699134
-0.752587
-0.833937
-0.964079
-1.1578
-1.42133
-1.75114
-2.13422
-2.5498
-2.97226
-3.37498
-3.73437
-4.03364
-4.2657
-4.43474
-4.55618
-4.65504
-4.76291
-4.91394
-5.14043
-5.46879
-5.91623
-6.48884
-7.18122
-7.97762
-8.85432
-9.78289
-10.7336
-11.6785
-12.5936
-13.4596
-14.2624
-14.9906
-15.6348
-16.1844
-16.6263
-16.9434
-17.1146
-17.116
-16.9224
-16.5101
-15.86
-14.9605
-13.8096
-12.4168
-10.8031
-9.00089
-7.05188
-5.0049
-2.91264
-0.828259
1.19799
3.12181
4.90728
6.52844
7.96988
9.22638
10.3016
11.2063
11.9554
12.5659
13.0541
13.4337
13.7143
13.901
13.9941
13.9905
13.8851
13.6722
13.3476
12.9093
12.3583
11.6983
10.934
10.069
9.10356
8.03068
6.83224
5.47245
3.88762
1.97032
-0.452688
-3.64668
-7.99386
-14.0072
-22.3213
-33.647
-48.6829
-67.9823
-91.7875
-119.856
-151.308
-184.547
-217.259
-246.551
-269.199
-281.996
-282.171
-267.794
-238.141
-193.912
-137.306
-71.89
-2.29523
66.2426
128.433
179.504
215.721
234.793
236.096
220.709
191.251
151.541
106.137
59.8138
17.0386
-18.4835
-44.1499
-58.6507
-61.9976
-55.3993
-41.0102
-21.5933
-0.14327
20.481
37.872
50.3038
56.8591
57.4456
52.713
43.8885
32.5611
20.4442
9.14865
-0.00643878
-6.12728
-8.81147
-8.14589
-4.64382
0.864913
7.37196
13.8368
19.3224
23.1037
24.7398
24.1022
21.3621
16.9408
11.4343
5.52298
-0.120079
-4.91168
-8.42176
-10.4122
-10.8488
-9.88736
-7.83906
-5.12034
-2.19571
0.479443
2.50912
3.59488
3.55866
2.3493
0.0337761
-3.22424
-7.19426
-11.613
-16.2182
-20.7774
-25.111
-29.1049
-32.7151
-35.9631
-38.9243
-41.7104
-44.4497
-47.2664
-50.262
-53.5003
-56.9979
-60.7204
-64.5847
-68.4655
-72.2063
-75.6323
-78.5636
-80.8283
-82.2735
-82.7746
-82.2414
-80.6231
-77.9108
-74.1386
-69.3843
-63.7672
-57.4464
-50.6154
-43.4949
-36.3228
-29.3416
-22.7834
-16.8549
-11.7219
-7.4975
-4.23349
-1.91764
-0.476725
0.214415
0.318845
0.0200193
-0.497118
-1.06415
-1.54424
-1.8424
-1.91019
-1.74441
-1.38054
-0.882154
-0.328034
0.201146
0.634785
0.921539
1.03482
0.974292
0.763631
0.445323
0.073605
-0.29318
-0.599635
-0.798808
-0.855542
-0.747549
-0.464449
-0.0053762
0.624052
1.41461
2.35545
3.43481
4.63932
5.95205
7.35
8.80154
10.2646
11.6865
13.0047
14.1509
15.0551
15.652
15.8871
15.7228
15.1429
14.1548
12.7905
11.1038
9.16601
7.05977
4.87177
2.68528
0.573371
-1.40654
-3.21601
-4.83663
-6.26862
-7.52733
-8.63791
-9.62913
-10.5268
-11.3482
-12.0969
-12.7614
-13.3139
-13.7135
-13.9105
-13.8523
-13.4907
-12.7882
-11.7238
-10.2961
-8.52525
-6.45112
-4.12978
-1.62797
0.983655
3.63759
6.27612
8.85678
11.3559
13.7701
16.1148
18.4208
20.7275
23.0745
25.4917
27.9888
30.5461
33.1077
35.578
37.8242
39.6828
40.973
41.5135
41.1429
39.7406
37.2464
33.6747
29.1222
23.7678
17.8622
11.7111
5.65014
0.0165018
-4.88218
-8.79988
-11.5839
-13.2059
-13.7912
-13.6439
-13.2654
-13.3573
-14.8027
-18.6167
-25.8582
-37.5044
-54.2916
-76.5399
-103.986
-135.657
-169.81
-203.98
-235.129
-259.914
-275.043
-277.674
-265.818
-238.675
-196.853
-142.431
-78.838
-10.5594
57.3014
119.553
171.472
209.309
230.686
234.833
222.63
196.465
159.916
117.319
73.2619
32.0801
-2.5884
-28.1411
-43.207
-47.6867
-42.6444
-30.0755
-12.5866
6.96512
25.8279
41.6644
52.7811
58.2582
57.9736
52.5298
43.0999
31.222
18.5703
6.73398
-2.97009
-9.63116
-12.8148
-12.5665
-9.35623
-3.97577
2.59289
9.31909
15.2566
19.6529
22.0229
22.183
20.2434
16.566
11.6945
6.26939
0.938754
-3.72335
-7.28221
-9.48508
-10.278
-9.79707
-8.33708
-6.30334
-4.15335
-2.33626
-1.23746
-1.13469
-2.17011
-4.34067
-7.50669
-11.4163
-15.742
-20.1239
-24.214
-27.717
-30.4212
-32.2189
-33.1123
-33.2063
-32.6897
-31.8074
-30.8282
-30.0103
-29.5705
-29.6592
-30.3438
-31.6018
-33.3247
-35.331
-37.3876
-39.2352
-40.6177
-41.3093
-41.1381
-40.0036
-37.8855
-34.8446
-31.0144
-26.586
-21.7876
-16.8615
-12.0411
-7.52994
-3.48557
-0.00966755
2.85574
5.12528
6.86165
8.1627
9.14598
9.93256
10.6319
11.3293
12.0774
12.8916
13.751
14.6029
15.3708
15.9654
16.2959
16.2799
15.8523
14.9679
13.5994
11.7265
9.31747
6.30139
2.53547
-2.22867
-8.37092
-16.41
-26.9807
-40.77
-58.4101
-80.3302
-106.587
-136.702
-169.537
-203.252
-235.367
-262.95
-282.908
-292.366
-289.065
-271.735
-240.364
-196.329
-142.341
-82.2242
-20.5308
37.9448
88.6924
127.984
153.276
163.465
158.967
141.617
114.401
81.069
45.679
12.1289
-16.2612
-37.0721
-48.9782
-51.7989
-46.4107
-34.5424
-18.4882
-0.780242
16.1372
30.1908
39.8889
44.4416
43.7832
38.5042
29.7101
18.8322
7.41719
-3.07492
-11.4423
-16.8634
-18.9606
-17.8036
-13.8589
-7.8968
-0.870507
6.2139
12.4223
16.9972
19.4326
19.5133
17.3172
13.1839
7.65505
1.39724
-4.88495
-10.5332
-15.0087
-17.9464
-19.1851
-18.7725
-16.9453
-14.0887
-10.6823
-7.23881
-4.24309
-2.09984
-1.09399
-1.36816
-2.91817
-5.60575
-9.18533
-13.3407
-17.7265
-22.0082
-25.8982
-29.181
-31.7282
-33.5012
-34.5421
-34.9561
-34.8879
-34.4955
-33.9253
-33.2917
-32.6632
-32.0565
-31.4389
-30.7372
-29.8533
-28.6817
-27.1277
-25.1242
-22.6436
-19.7048
-16.3743
-12.7614
-9.0093
-5.28332
-1.75699
1.40112
4.03985
6.03598
7.30282
7.79667
7.52116
6.52904
4.92104
2.84124
0.46851
-1.99579
-4.34319
-6.37541
-7.92165
-8.85406
-9.09928
-8.6448
-7.53895
-5.88472
-3.82781
-1.54065
0.795912
3.01098
4.95987
6.53648
7.68071
8.3802
8.66677
8.60836
8.29772
7.83962
7.33797
6.88455
6.55044
6.38075
6.39304
6.57911
6.90947
7.33979
7.81819
8.29251
8.7167
9.0556
9.28794
9.40723
9.42082
9.34737
9.21327
9.04837
8.88174
8.73766
8.63257
8.57295
8.55457
8.56301
8.57542
8.56325
8.4957
8.34337
8.0818
7.69448
7.17503
6.52827
5.77023
4.92695
4.03235
3.12528
2.24614
1.43322
0.719325
0.128728
-0.325044
-0.640507
-0.828342
-0.910314
-0.917005
-0.884614
-0.851163
-0.852635
-0.919554
-1.07448
-1.33074
-1.69247
-2.15587
-2.71137
-3.34624
-4.04732
-4.80335
-5.60686
-6.45544
-7.35248
-8.30748
-9.33609
-10.4598
-11.7052
-13.1026
-14.6839
-16.4795
-18.5143
-20.8029
-23.3448
-26.1198
-29.0848
-32.1728
-35.294
-38.3408
-41.1941
-43.7327
-45.8435
-47.4314
-48.4278
-48.7965
-48.536
-47.6776
-46.2792
-44.4165
-42.1715
-39.6213
-36.8289
-33.8377
-30.6706
-27.335
-23.8315
-20.1653
-16.3589
-12.4607
-8.55052
-4.73816
-1.15579
2.05566
4.76378
6.86323
8.29242
9.04545
9.17713
8.79988
8.07237
7.18131
6.31862
5.65703
5.32762
5.40232
5.88401
6.70571
7.73912
8.81163
9.72979
10.3065
10.3883
9.88025
8.76331
7.10313
5.04595
2.80015
0.602409
-1.33109
-2.86496
-4.0099
-4.9827
-6.24734
-8.52202
-12.7382
-19.943
-31.1449
-47.1165
-68.1788
-94.0041
-123.478
-154.662
-184.872
-210.905
-229.361
-237.068
-231.514
-211.247
-176.175
-127.707
-68.7087
-3.27788
63.6578
126.853
181.31
222.83
248.463
256.815
248.172
224.418
188.782
145.433
98.9888
53.9963
14.4534
-16.5791
-37.2317
-46.9253
-46.3164
-37.1038
-21.7338
-3.04486
16.0995
33.1449
46.1106
53.7594
55.6612
52.1524
44.2081
33.2491
20.9161
8.84102
-1.55528
-9.21751
-13.5473
-14.4277
-12.1847
-7.49725
-1.27385
5.4865
11.8284
16.9537
20.3027
21.5967
20.8403
18.2886
14.3869
9.69204
4.78856
0.208931
-3.63233
-6.48388
-8.27837
-9.12788
-9.29654
-9.15489
-9.12306
-9.61043
-10.9599
-13.4038
-17.0361
-21.8052
-27.5257
-33.9082
-40.6017
-47.2421
-53.5008
-59.1248
-63.9649
-67.9866
-71.2639
-73.9574
-76.2804
-78.4588
-80.6907
-83.112
-85.7725
-88.6261
-91.5352
-94.2885
-96.6293
-98.2891
-99.022
-98.6338
-97.0028
-94.088
-89.926
-84.6171
-78.3046
-71.1518
-63.3213
-54.9604
-46.195
-37.132
-27.8682
-18.5039
-9.15556
0.034232
8.89369
17.2265
24.8245
31.4857
37.0368
41.3533
44.3777
46.1288
46.7028
46.2655
45.0349
43.2585
41.1873
39.0502
37.0314
35.2555
33.7788
32.5911
31.6234
30.764
29.8768
28.8219
27.4752
25.7433
23.5746
20.9635
17.949
14.609
11.0498
7.39477
3.77203
0.30383
-2.90202
-5.75794
-8.19982
-10.188
-11.7066
-12.7626
-13.3831
-13.6145
-13.5193
-13.1736
-12.663
-12.0773
-11.5028
-11.0144
-10.6664
-10.4851
-10.4632
-10.5579
-10.6948
-10.7758
-10.6919
-10.3389
-9.63435
-8.53212
-7.03379
-5.1936
-3.1166
-0.949805
1.13278
2.94929
4.33093
5.14193
5.29621
4.76856
3.59916
1.89088
-0.200089
-2.47923
-4.7325
-6.74676
-8.32973
-9.32727
-9.63645
-9.21315
-8.07371
-6.2906
-3.98304
-1.30346
1.57836
4.49191
7.28148
9.81912
12.0136
13.8149
15.2135
16.2355
16.9334
17.3753
17.6324
17.768
17.8276
17.8337
17.7831
17.6495
17.3889
16.9484
16.276
15.3309
14.0921
12.5643
10.7809
8.80173
6.7084
4.59568
2.56132
0.695285
-0.930064
-2.2674
-3.29868
-4.03574
-4.51739
-4.80395
-4.97071
-5.10232
-5.29069
-5.63871
-6.2718
-7.35788
-9.13399
-11.9352
-16.2177
-22.5656
-31.669
-44.2638
-61.0266
-82.4293
-108.568
-138.991
-172.569
-207.432
-241.019
-270.246
-291.798
-302.501
-299.751
-281.909
-248.621
-200.995
-141.603
-74.2951
-3.84943
64.5117
125.666
175.135
209.549
226.991
227.159
211.356
182.287
143.718
100.032
55.7356
14.9852
-18.8176
-43.3212
-57.3796
-61.0613
-55.5232
-42.7729
-25.3574
-6.02025
12.6293
28.3991
39.718
45.7471
46.3918
42.2248
34.3378
24.1474
13.1826
2.88236
-5.57317
-11.3815
-14.1767
-14.0277
-11.3825
-6.97148
-1.68488
3.55633
7.92037
10.7607
11.679
10.5501
7.51061
2.91521
-2.729
-8.84009
-14.8393
-20.2197
-24.597
-27.7399
-29.5764
-30.1804
-29.7409
-28.5219
-26.817
-24.9074
-23.0264
-21.3357
-19.9136
-18.756
-17.7896
-16.8921
-15.9194
-14.734
-13.2313
-11.362
-9.14614
-6.6778
-4.11952
-1.68672
0.376231
1.82558
2.44964
2.09823
0.706183
-1.6924
-4.96123
-8.87107
-13.12
-17.3627
-21.2449
-24.4387
-26.6749
-27.7672
-27.6268
-26.2646
-23.7826
-20.3559
-16.2079
-11.5841
-6.72738
-1.8573
2.84286
7.23217
11.2111
14.7154
17.7068
20.164
22.0739
23.4277
24.2194
24.4481
24.1236
23.2724
21.9428
20.2087
18.1697
15.9475
13.6789
11.5055
9.56187
7.96301
6.79331
6.09762
5.87625
6.08439
6.63617
7.41305
8.27551
9.07671
9.67654
9.95429
9.81859
9.21354
8.12074
6.55725
4.57066
2.23231
-0.369894
-3.13792
-5.96875
-8.75803
-11.4027
-13.8031
-15.8657
-17.5063
-18.6546
-19.2591
-19.2926
-18.7565
-17.6832
-16.1363
-14.2068
-12.0076
-9.66506
-7.30996
-5.06951
-3.06096
-1.3879
-0.138816
0.61266
0.807396
0.401433
-0.631294
-2.29392
-4.55991
-7.36589
-10.606
-14.1296
-17.744
-21.2235
-24.3235
-26.7999
-28.4302
-29.0351
-28.4953
-26.7635
-23.8684
-19.911
-15.0545
-9.50788
-3.50766
2.70117
8.88257
14.8235
20.344
25.3028
29.5989
33.171
35.9929
38.069
39.4278
40.1155
40.1893
39.7104
38.7386
37.3278
35.5229
33.3609
30.8723
28.0876
25.0429
21.7874
18.3896
14.9399
11.551
8.353
5.4848
3.08206
1.26306
0.114297
-0.322259
-0.0584407
0.835804
2.23373
3.95854
5.79405
7.49694
8.80696
9.4517
9.14318
7.56551
4.35621
-0.912353
-8.74155
-19.6927
-34.3395
-53.1803
-76.5118
-104.278
-135.918
-170.249
-205.422
-238.964
-267.949
-289.26
-299.951
-297.624
-280.802
-249.218
-203.977
-147.552
-83.6169
-16.718
48.1784
106.198
153.078
185.613
201.991
201.962
186.827
159.254
122.941
82.188
41.4024
4.63275
-24.8394
-44.7942
-54.2299
-53.3705
-43.5352
-26.894
-6.14744
15.8264
36.3128
53.052
64.4493
69.6902
68.7521
62.3245
51.6541
38.3407
24.1135
10.6152
-0.780645
-9.10124
-13.8452
-14.9892
-12.9377
-8.42693
-2.40029
4.12765
10.2
15.0248
18.0497
18.9982
17.8672
14.8904
10.4761
5.1309
-0.619284
-6.29981
-11.5407
-16.1079
-19.9107
-22.9877
-25.4755
-27.5675
-29.4694
-31.3593
-33.357
-35.5058
-37.7694
-40.0422
-42.1702
-43.9791
-45.3051
-46.023
-46.0684
-45.4502
-44.2526
-42.6265
-40.7712
-38.9102
-37.2634
-36.0206
-35.3185
-35.2242
-35.7276
-36.7421
-38.1141
-39.6398
-41.0867
-42.2178
-42.8153
-42.7
-41.7465
-39.8904
-37.1287
-33.5137
-29.1427
-24.1449
-18.6673
-12.8633
-6.88246
-0.864431
5.0647
10.7934
16.2245
21.2747
25.8746
29.9699
33.5228
36.5129
38.9376
40.8088
42.148
42.9783
43.3153
43.1593
42.4891
41.2619
39.4178
36.891
33.6259
29.5944
24.8114
19.3439
13.307
6.84576
0.0993465
-6.84933
-14.0318
-21.6489
-30.1069
-40.0178
-52.1499
-67.3201
-86.2318
-109.277
-136.331
-166.593
-198.493
-229.73
-257.432
-278.454
-289.76
-288.856
-274.192
-245.474
-203.826
-151.771
-93.0217
-32.1033
26.1429
77.1054
116.927
142.935
153.924
150.251
133.744
107.429
75.1349
41.009
9.03244
-17.4225
-35.9312
-45.2191
-45.2114
-36.9358
-22.3002
-3.78425
15.912
34.2137
48.9706
58.6766
62.5893
60.7449
53.8763
43.2527
30.4694
17.2181
5.06804
-4.71508
-11.2949
-14.3237
-13.9345
-10.6746
-5.39392
0.893118
7.15184
12.4595
16.1101
17.6808
17.0568
14.4147
10.1719
4.91037
-0.711118
-6.04575
-10.5362
-13.773
-15.528
-15.7624
-14.61
-12.3427
-9.32301
-5.95406
-2.63237
0.289173
2.52541
3.86908
4.18894
3.41945
1.54667
-1.40523
-5.38352
-10.3107
-16.0828
-22.563
-29.5752
-36.8978
-44.2633
-51.3639
-57.8648
-63.4244
-67.7192
-70.4717
-71.4772
-70.6262
-67.9198
-63.4756
-57.5233
-50.3892
-42.4718
-34.2105
-26.0504
-18.4068
-11.6332
-5.99583
-1.65684
1.33183
3.02455
3.56825
3.18124
2.12692
0.68538
-0.874027
-2.31656
-3.46029
-4.18717
-4.44666
-4.25203
-3.67047
-2.80862
-1.79546
-0.764555
0.162337
0.888582
1.35185
1.52845
1.43284
1.11272
0.640815
0.104338
-0.4063
-0.808323
-1.03573
-1.04581
-0.822507
-0.376393
0.25847
1.03026
1.87683
2.73383
3.54234
4.25521
4.84102
5.28551
5.59018
5.76858
5.84081
5.82726
5.74262
5.59104
5.3633
5.03654
4.57679
3.94417
3.10047
2.01836
0.690979
-0.859262
-2.57456
-4.3596
-6.08469
-7.59473
-8.72347
-9.31194
-9.22885
-8.39006
-6.77447
-4.43348
-1.4922
1.85832
5.37745
8.79818
11.8544
14.3091
15.9793
16.7559
16.614
15.6152
13.8984
11.6642
9.15149
6.61224
4.28515
2.37288
1.02437
0.324004
0.288328
0.869922
1.96728
3.439
5.12033
6.83999
8.43564
9.76679
10.7243
11.2361
11.27
10.8324
9.96532
8.74089
7.2542
5.61522
3.93993
2.34121
0.919872
-0.243588
-1.09596
-1.61637
-1.81873
-1.75118
-1.49194
-1.14187
-0.81405
-0.621606
-0.665304
-1.02266
-1.74014
-2.82935
-4.26756
-6.00181
-7.95574
-10.0374
-12.1473
-14.185
-16.0543
-17.6664
-18.9422
-19.8131
-20.2222
-20.126
-19.4977
-18.3304
-16.6427
-14.4819
-11.927
-9.08793
-6.10195
-3.12535
-0.321949
2.15097
4.15769
5.59809
6.41876
6.61963
6.25508
5.42916
4.2854
2.99233
1.72655
0.655055
-0.0811331
-0.380466
-0.190332
0.488228
1.6008
3.04478
4.67901
6.33737
7.84521
9.0376
9.77746
9.97156
9.58152
8.62701
7.17811
5.33474
3.19246
0.796228
-1.91304
-5.15109
-9.33076
-15.0771
-23.2038
-34.6409
-50.3098
-70.951
-96.9229
-128
-163.21
-200.748
-238.006
-271.728
-298.31
-314.19
-316.304
-302.539
-272.096
-225.735
-165.823
-96.1835
-21.758
51.8861
119.139
174.945
215.343
237.868
241.788
228.127
199.495
159.744
113.501
65.6361
20.7415
-17.33
-45.8093
-63.2086
-69.3594
-65.3004
-53.039
-35.2265
-14.7909
5.42372
22.9727
36.0455
43.6023
45.4048
41.9491
34.3188
23.9836
12.575
1.66595
-7.41661
-13.7287
-16.7841
-16.5644
-13.4702
-8.22543
-1.75227
4.9657
11.0132
15.6511
18.3902
19.0275
17.6412
14.5522
10.258
5.35176
0.436914
-3.95094
-7.40554
-9.68893
-10.745
-10.6885
-9.77237
-8.34165
-6.77867
-5.44952
-4.65762
-4.61009
-5.39997
-7.00525
-9.30303
-12.0955
-15.1432
-18.2005
-21.0479
-23.5184
-25.5146
-27.0151
-28.0722
-28.801
-29.362
-29.9407
-30.7252
-31.8845
-33.5483
-35.7917
-38.6238
-41.9828
-45.7383
-49.6996
-53.6317
-57.2759
-60.3735
-62.691
-64.0427
-64.3088
-63.4462
-61.4909
-58.551
-54.7925
-50.4191
-45.6488
-40.6913
-35.7289
-30.9033
-26.3085
-21.9923
-17.963
-14.2005
-10.6706
-7.33807
-4.17852
-1.18644
1.62103
4.20463
6.50742
8.46202
9.99953
11.0587
11.5944
11.584
11.0321
9.97258
8.46834
6.60919
4.50772
2.29346
0.105286
-1.91751
-3.64541
-4.96936
-5.81087
-6.13062
-5.934
-5.27276
-4.24188
-2.97173
-1.61593
-0.336152
0.714584
1.40813
1.65509
1.41478
0.699823
-0.424826
-1.84872
-3.42755
-4.99849
-6.39722
-7.47494
-8.11332
-8.23579
-7.81392
-6.86839
-5.46462
-3.70369
-1.71001
0.382682
2.44519
4.3648
6.0541
7.45565
8.54252
9.31489
9.79376
10.0129
10.0106
9.82228
9.47535
8.98645
8.36161
7.5989
6.69279
5.63944
4.44184
3.11397
1.6831
0.19012
-1.31245
-2.76421
-4.10192
-5.26504
-6.20106
-6.86977
-7.24614
-7.32136
-7.1021
-6.60823
-5.86932
-4.92054
-3.79859
-2.53812
-1.16932
0.283256
1.80039
3.36665
4.96803
6.58921
8.21113
9.80943
11.3541
12.8105
14.1416
15.3107
16.2849
17.0368
17.5465
17.8015
17.7956
17.5277
17.0007
16.2212
15.2
13.9541
12.5082
10.8962
9.16125
7.35356
5.52693
3.73367
2.01896
0.415352
-1.06216
-2.42112
-3.69802
-4.96842
-6.363
-8.09011
-10.4627
-13.9232
-19.056
-26.575
-37.2722
-51.9214
-71.1353
-95.1916
-123.851
-156.205
-190.591
-224.609
-255.263
-279.223
-293.186
-294.301
-280.582
-251.258
-207.004
-149.993
-83.7721
-12.9512
57.2511
121.551
175.163
214.318
236.651
241.436
229.618
203.658
167.203
124.641
80.5889
39.3841
4.64057
-21.0827
-36.467
-41.4619
-37.1653
-25.5807
-9.29091
8.90334
26.336
40.776
50.6446
55.1326
54.211
48.5472
39.344
28.1311
16.5367
6.07262
-2.04597
-7.02421
-8.54763
-6.77647
-2.2821
4.06117
11.211
18.0999
23.7674
27.4674
28.7396
27.4394
23.7277
18.0249
10.9384
3.17445
-4.55343
-11.6074
-17.4915
-21.8936
-24.7017
-25.9931
-26.0031
-25.0762
-23.6104
-22
-20.5858
-19.6167
-19.228
-19.4358
-20.1475
-21.1852
-22.3178
-23.2971
-23.8929
-23.9238
-23.2795
-21.9345
-19.9512
-17.4736
-14.7136
-11.9297
-9.40251
-7.40692
-6.18495
-5.92009
-6.71621
-8.58256
-11.4267
-15.0562
-19.1903
-23.4802
-27.5375
-30.9677
-33.4069
-34.5566
-34.2136
-32.2918
-28.8318
-23.9988
-18.0668
-11.3925
-4.38027
2.55652
9.03427
14.7332
19.4228
22.9768
25.3749
26.6941
27.0884
26.763
25.9447
24.8526
23.6733
22.5433
21.5393
20.6778
19.9229
19.2006
18.4168
17.4769
16.3034
14.85
13.1099
11.1182
8.9478
6.6999
4.49137
2.43974
0.648724
-0.804056
-1.87575
-2.56225
-2.89716
-2.94622
-2.798
-2.55227
-2.30763
-2.14998
-2.14317
-2.323
-2.69485
-3.23514
-3.89606
-4.61262
-5.31105
-5.91732
-6.36481
-6.60013
-6.58673
-6.30597
-5.7558
-4.94755
-3.90173
-2.6437
-1.2007
0.399089
2.12456
3.93711
5.78453
7.59491
9.27291
10.7001
11.7407
12.2528
12.1043
11.1907
9.45346
6.89326
3.57876
-0.353442
-4.70675
-9.23977
-13.6866
-17.7792
-21.2689
-23.9439
-25.6417
-26.2552
-25.734
-24.0816
-21.3497
-17.6336
-13.0661
-7.8136
-2.07209
3.93733
9.97406
15.7858
21.1187
25.7296
29.3995
31.9475
33.2434
33.2184
31.872
29.2756
25.5713
20.9663
15.7219
10.139
4.53912
-0.756181
-5.44792
-9.2807
-12.0612
-13.6721
-14.0797
-13.335
-11.5674
-8.97182
-5.79131
-2.29528
1.24278
4.56661
7.45491
9.73313
11.2774
12.0088
11.877
10.8331
8.7942
5.60334
0.991698
-5.44612
-14.2525
-26.0712
-41.5668
-61.2999
-85.565
-114.215
-146.501
-180.969
-215.444
-247.129
-272.827
-289.277
-293.548
-283.465
-257.98
-217.436
-163.672
-99.9455
-30.6649
39.0365
103.833
158.779
199.846
224.354
231.241
221.146
196.286
160.16
117.114
71.8352
28.827
-8.05986
-35.9914
-53.3732
-59.9139
-56.5341
-45.1433
-28.3218
-8.95433
10.1376
26.5194
38.389
44.7223
45.309
40.6878
31.9963
20.7637
8.6775
-2.64478
-11.8513
-17.998
-20.625
-19.7644
-15.8866
-9.79624
-2.49846
4.94696
11.5625
16.5656
19.4445
19.9926
18.3011
14.7142
9.758
4.05327
-1.77364
-7.17142
-11.7256
-15.1959
-17.5261
-18.8286
-19.348
-19.4098
-19.3638
-19.5296
-20.151
-21.3657
-23.1922
-25.534
-28.2004
-30.9385
-33.4715
-35.5381
-36.9275
-37.5055
-37.2293
-36.1493
-34.399
-32.175
-29.7105
-27.2456
-24.9995
-23.1466
-21.8004
-21.0063
-20.7431
-20.9334
-21.4588
-22.1793
-22.9518
-23.646
-24.1552
-24.3997
-24.3245
-23.8909
-23.066
-21.8114
-20.0756
-17.7914
-14.8806
-11.2648
-6.88213
-1.70561
4.23836
10.8563
17.9807
25.3711
32.7253
39.6977
45.9246
51.0541
54.7758
56.8497
57.1294
55.5779
52.2739
47.4081
41.2687
34.2172
26.6575
18.9998
11.6218
4.83135
-1.16943
-6.31531
-10.7043
-14.617
-18.5263
-23.0924
-29.1381
-37.5939
-49.4107
-65.4338
-86.2476
-112.004
-142.261
-175.867
-210.921
-244.844
-274.563
-296.817
-308.538
-307.269
-291.546
-261.199
-217.491
-163.088
-101.844
-38.4172
22.2277
75.3647
117.033
144.468
156.391
153.107
136.422
109.377
75.854
40.1009
6.23525
-22.2024
-42.6018
-53.5015
-54.6581
-46.9665
-32.2535
-12.9793
8.10897
28.327
45.3627
57.5119
63.8189
64.1142
58.9533
49.4755
37.206
23.8323
10.9833
0.0396109
-8.00676
-12.6304
-13.7849
-11.8554
-7.5633
-1.83922
4.31568
9.96265
14.3362
16.9214
17.4921
16.1089
13.0808
8.90086
4.1647
-0.515515
-4.58997
-7.6345
-9.3916
-9.78647
-8.91855
-7.03242
-4.47379
-1.63791
1.08217
3.34085
4.87367
5.51679
5.21146
3.99534
1.98372
-0.655346
-3.72764
-7.03749
-10.4077
-13.6931
-16.7873
-19.6229
-22.1667
-24.4116
-26.367
-28.0488
-29.4717
-30.6431
-31.5603
-32.2101
-32.5705
-32.615
-32.3167
-31.6539
-30.6142
-29.1995
-27.4277
-25.3349
-22.9743
-20.4144
-17.735
-15.0224
-12.3629
-9.83709
-7.5139
-5.4461
-3.66717
-2.19023
-1.00896
-0.100421
0.57077
1.04723
1.37349
1.59104
1.73446
1.82896
1.88955
1.92176
1.92364
1.88857
1.80821
1.67525
1.48537
1.23841
0.938642
0.594677
0.21905
-0.17208
-0.559115
-0.919113
-1.22601
-1.45121
-1.56475
-1.53716
-1.34203
-0.958989
-0.376921
0.40314
1.36583
2.48043
3.7014
4.97051
6.22061
7.3807
8.38175
9.16274
9.67603
9.8916
9.79947
9.41015
8.75287
7.87204
6.8223
5.6628
4.45158
3.24072
2.07296
0.98002
-0.0170934
-0.906193
-1.68084
-2.33682
-2.86883
-3.26808
-3.52119
-3.61053
-3.51605
-3.21824
-2.70181
-1.95958
-0.995954
0.170599
1.50641
2.96326
4.48068
5.98987
7.41865
8.69704
9.76271
10.5658
11.0725
11.2671
11.1521
10.747
10.0849
9.20828
8.16375
6.99715
5.74897
4.45123
3.12639
1.78819
0.444669
-0.897576
-2.22857
-3.53067
-4.77581
-5.92504
-6.93056
-7.74029
-8.30429
-8.58214
-8.55018
-8.20745
-7.57946
-6.71895
-5.7036
-4.63056
-3.60859
-2.74857
-2.1534
-1.90856
-2.07414
-2.67911
-3.71844
-5.15289
-6.91168
-8.89741
-10.9929
-13.0694
-14.9954
-16.6456
-17.9093
-18.6977
-18.9498
-18.6361
-17.7604
-16.359
-14.498
-12.2684
-9.77934
-7.14973
-4.49968
-1.9414
0.429057
2.53856
4.34163
5.82243
6.99381
7.89336
8.57682
9.10964
9.55753
9.97729
10.4092
10.872
11.3618
11.8544
12.3125
12.6951
12.9684
13.1169
13.1507
13.1098
13.062
13.0958
13.3087
13.792
14.6149
15.809
17.3565
19.1809
21.1409
23.0273
24.5591
25.3811
25.0586
23.0757
18.8367
11.6806
0.913464
-14.1312
-34.002
-59.0085
-89.0801
-123.625
-161.414
-200.53
-238.395
-271.918
-297.745
-312.598
-313.678
-299.064
-268.051
-221.38
-161.305
-91.4815
-16.674
57.6873
126.048
183.307
225.352
249.49
254.715
241.788
213.106
172.403
124.303
73.7995
25.7142
-15.7938
-47.6132
-67.9251
-76.285
-73.5451
-61.6382
-43.2581
-21.4831
0.609687
20.2927
35.4626
44.8144
47.9062
45.1144
37.4976
26.5932
14.177
2.02021
-8.32854
-15.7114
-19.464
-19.4475
-16.0129
-9.90859
-2.14926
6.13473
13.8464
20.0514
24.0741
25.5517
24.4444
21.0052
15.7175
9.21157
2.17385
-4.7395
-10.9736
-16.1234
-19.9566
-22.4117
-23.5756
-23.6467
-22.8909
-21.5979
-20.0429
-18.4586
-17.0181
-15.8302
-14.9436
-14.3593
-14.0468
-13.9612
-14.0596
-14.3135
-14.7178
-15.2945
-16.0912
-17.1762
-18.6286
-20.5261
-22.9312
-25.8771
-29.3549
-33.3051
-37.6125
-42.1077
-46.5749
-50.7644
-54.4117
-57.2587
-59.0765
-59.6875
-58.9828
-56.9346
-53.601
-49.1232
-43.7149
-37.6449
-31.216
-24.7409
-18.5181
-12.8103
-7.82727
-3.71294
-0.540005
1.68997
3.04044
3.62899
3.61289
3.17273
2.49566
1.75978
1.12078
0.701775
0.586743
0.81749
1.39396
2.27739
3.39567
4.65053
5.926
7.09771
8.04272
8.64945
8.8272
8.51478
7.68743
6.36146
4.5957
2.48918
0.174753
-2.19138
-4.44352
-6.42236
-7.99104
-9.04909
-9.54213
-9.46583
-8.86331
-7.81667
-6.43402
-4.83447
-3.13341
-1.43068
0.196943
1.698
3.04392
4.22305
5.23315
6.0744
6.74446
7.23657
7.54059
7.64619
7.54681
7.24316
6.74526
6.0724
5.2515
4.31416
3.29365
2.22239
1.13078
0.0473523
-0.999938
-1.98185
-2.86628
-3.61773
-4.19847
-4.5715
-4.70528
-4.57945
-4.19062
-3.55714
-2.72166
-1.7508
-0.731214
0.237631
1.05381
1.62513
1.88175
1.7875
1.34805
0.614273
-0.319861
-1.32535
-2.25124
-2.94129
-3.25206
-3.07017
-2.32618
-1.0035
0.858949
3.17057
5.79872
8.58272
11.3504
13.9349
16.19
18.002
19.2976
20.0463
20.2594
19.9839
19.2944
18.2828
17.0472
15.6824
14.2712
12.8775
11.543
10.2864
9.10498
7.97959
6.88162
5.78143
4.65731
3.5036
2.33655
1.19646
0.144608
-0.746073
-1.40724
-1.79846
-1.93681
-1.9309
-2.0161
-2.58585
-4.21208
-7.64592
-13.7892
-23.628
-38.1239
-58.0633
-83.8775
-115.453
-151.966
-191.77
-232.392
-270.631
-302.812
-325.139
-334.153
-327.197
-302.855
-261.269
-204.284
-135.384
-59.4184
17.868
90.434
152.596
199.655
228.408
237.48
227.441
200.683
161.097
113.583
63.4599
15.8708
-24.7688
-55.1952
-73.5586
-79.501
-74.0524
-59.375
-38.3963
-14.3868
9.46095
30.4015
46.4118
56.3497
59.985
57.915
51.385
42.0475
31.6966
22.0145
14.3607
9.62621
8.16535
9.80528
13.9239
19.5788
25.6657
31.0818
34.8731
36.3468
35.1398
31.2374
24.9454
16.8253
7.60302
-1.93252
-11.0288
-19.0535
-25.5551
-30.2944
-33.2467
-34.5788
-34.6042
-33.7271
-32.3822
-30.9779
-29.8504
-29.232
-29.2367
-29.8611
-30.9998
-32.4716
-34.0513
-35.5037
-36.6149
-37.2177
-37.2095
-36.56
-35.3104
-33.5632
-31.4668
-29.1952
-26.9268
-24.8241
-23.0169
-21.5902
-20.5784
-19.9653
-19.6898
-19.6554
-19.7439
-19.829
-19.7901
-19.5235
-18.9517
-18.0273
-16.7347
-15.0878
-13.125
-10.9042
-8.49601
-5.97858
-3.4328
-0.938588
1.42809
3.59774
5.50974
7.1148
8.37745
9.27841
9.81637
10.0089
9.89193
9.51753
8.95017
8.26133
7.52314
6.80161
6.15008
5.60379
5.17612
4.857
4.61382
4.39479
4.13453
3.76142
3.20622
2.41122
1.33922
-0.0185129
-1.63633
-3.45118
-5.36336
-7.24169
-8.9331
-10.2762
-11.1179
-11.3306
-10.8296
-9.58612
-7.63565
-5.07969
-2.07978
1.1554
4.38866
7.37665
9.89319
11.751
12.8191
13.0345
12.4066
11.0136
8.99364
6.52857
3.82592
1.09852
-1.45482
-3.66602
-5.41033
-6.61391
-7.25598
-7.36581
-7.01523
-6.30754
-5.36444
-4.31206
-3.26792
-2.32994
-1.56863
-1.02327
-0.70219
-0.586783
-0.638508
-0.807427
-1.04079
-1.29011
-1.51556
-1.68707
-1.78227
-1.78206
-1.66515
-1.40304
-0.957012
-0.278031
0.689939
2.00335
3.71005
5.8391
8.39075
11.3284
14.5737
18.0061
21.4672
24.7704
27.7155
30.1067
31.7723
32.5858
32.483
31.4756
29.6567
27.1984
24.339
21.3615
18.5641
16.2269
14.5777
13.7614
13.8189
14.6767
16.1512
17.9676
19.7916
21.2699
22.0755
21.9498
20.7367
18.3999
15.0198
10.7659
5.84452
0.426901
-5.43314
-11.8777
-19.3011
-28.364
-39.9499
-55.0534
-74.6032
-99.2379
-129.065
-163.451
-200.881
-238.945
-274.46
-303.752
-323.055
-328.997
-319.086
-292.143
-248.589
-190.552
-121.747
-47.1567
27.4762
96.2592
153.798
195.791
219.492
223.988
210.253
180.982
140.228
92.9009
44.1858
-1.03296
-38.6796
-65.8663
-81.1082
-84.3592
-76.8792
-60.9624
-39.5708
-15.9267
6.88517
26.2565
40.3034
48.0014
49.2045
44.5582
35.329
23.1804
9.92725
-2.69757
-13.24
-20.6644
-24.4268
-24.4811
-21.2251
-15.4013
-7.96894
0.0331968
7.61598
13.9469
18.4249
20.7185
20.7677
18.7546
15.0498
10.1454
4.58333
-1.11133
-6.48508
-11.1942
-15.024
-17.8901
-19.8233
-20.9426
-21.422
-21.455
-21.2229
-20.8706
-20.4923
-20.1277
-19.7692
-19.3774
-18.9008
-18.2978
-17.5549
-16.7001
-15.8061
-14.9856
-14.3761
-14.1192
-14.3351
-15.0991
-16.4211
-18.2347
-20.3956
-22.6916
-24.8634
-26.6328
-27.7357
-27.9556
-27.1522
-25.2817
-22.4059
-18.688
-14.3768
-9.77891
-5.22513
-1.03293
2.52857
5.2676
7.08899
8.00175
8.11472
7.6214
6.77642
5.86678
5.18132
4.98163
5.47717
6.80668
9.02699
12.1095
15.9441
20.3482
25.0822
29.8671
34.4046
38.4002
41.5844
43.7353
44.697
44.3955
42.8472
40.1604
36.5285
32.2137
27.5239
22.7834
18.3016
14.343
11.1012
8.6821
7.09543
6.25875
6.01094
6.13446
6.38335
6.5135
6.31187
5.62144
4.3596
2.52812
0.214071
-2.41839
-5.14466
-7.703
-9.82262
-11.2537
-11.7964
-11.3263
-9.81239
-7.32674
-4.04269
-0.222332
3.80666
7.68247
11.0459
13.5779
15.0348
15.2745
14.2737
12.1307
9.05547
5.34706
1.36147
-2.52642
-5.96216
-8.64773
-10.3701
-11.0195
-10.5954
-9.2006
-7.02403
-4.31553
-1.35554
1.57645
4.23089
6.41164
7.99165
8.91956
9.21734
8.96985
8.30822
7.38955
6.37548
5.41227
4.61461
4.05477
3.7578
3.70306
3.83108
4.05476
4.27285
4.3841
4.3
3.95478
3.31136
2.36288
1.12992
-0.345968
-2.01095
-3.80862
-5.68877
-7.61418
-9.56403
-11.5338
-13.5319
-15.5729
-17.6704
-19.8286
-22.0365
-24.2634
-26.459
-28.5568
-30.483
-32.1695
-33.5726
-34.6961
-35.6196
-36.5271
-37.7336
-39.702
-43.0413
-48.4772
-56.7866
-68.6942
-84.7351
-105.098
-129.475
-156.943
-185.913
-214.17
-239.018
-257.523
-266.83
-264.531
-249.009
-219.727
-177.408
-124.074
-62.9195
1.95096
65.9183
124.314
172.903
208.33
228.46
232.586
221.477
197.247
163.097
122.932
80.9258
41.073
6.79279
-19.3825
-35.9971
-42.7279
-40.3101
-30.3521
-15.0678
3.03121
21.4486
37.98
50.9273
59.2301
62.5077
61.016
55.5341
47.2011
37.3302
27.2234
18.011
10.533
5.27095
2.33424
1.49552
2.26507
3.99034
5.96509
7.53312
8.17389
7.56084
5.58771
2.36254
-1.82663
-6.5672
-11.3893
-15.8347
-19.5184
-22.1752
-23.6864
-24.0852
-23.5414
-22.3304
-20.7909
-19.2786
-18.1225
-17.5896
-17.8608
-19.0204
-21.0582
-23.8808
-27.3294
-31.1994
-35.259
-39.2655
-42.9779
-46.1678
-48.6279
-50.1816
-50.6921
-50.0732
-48.2978
-45.4059
-41.5074
-36.7793
-31.4559
-25.8133
-20.1471
-14.7482
-9.87721
-5.74218
-2.48153
-0.15432
1.26097
1.85958
1.7966
1.26809
0.489669
-0.325101
-0.984226
-1.33295
-1.26439
-0.724624
0.287767
1.72715
3.51027
5.52833
7.66048
9.78709
11.8016
13.6197
15.1857
16.4743
17.4896
18.2602
18.8318
19.2578
19.5903
19.8704
20.1213
20.3437
20.5146
20.5889
20.5053
20.1937
19.5846
18.6186
17.2545
15.476
13.2949
10.7514
7.91186
4.8633
1.70667
-1.45083
-4.50325
-7.35264
-9.91433
-12.1205
-13.9221
-15.2888
-16.2076
-16.6809
-16.7232
-16.3591
-15.6205
-14.5466
-13.1837
-11.5872
-9.8231
-7.96938
-6.11626
-4.36396
-2.81819
-1.58334
-0.753778
-0.404543
-0.582291
-1.29797
-2.52217
-4.18403
-6.17395
-8.35026
-10.5491
-12.5969
-14.3239
-15.5776
-16.2347
-16.2109
-15.4657
-14.0051
-11.8779
-9.1707
-5.99796
-2.4919
1.20886
4.96982
8.66936
12.2053
15.4986
18.4949
21.1631
23.4925
25.489
27.1699
28.5597
29.6856
30.574
31.2475
31.7236
32.0129
32.1197
32.0422
31.7737
31.3049
30.6254
29.7263
28.6022
27.2531
25.6855
23.9132
21.9572
19.8448
17.6087
15.2847
12.9101
10.5207
8.14904
5.82214
3.55987
1.3738
-0.733515
-2.76894
-4.74986
-6.70712
-8.69166
-10.7867
-13.1265
-15.9197
-19.4736
-24.2105
-30.6652
-39.4528
-51.1964
-66.4157
-85.3813
-107.958
-133.463
-160.58
-187.354
-211.298
-229.605
-239.466
-238.442
-224.837
-198.025
-158.665
-108.752
-51.5035
8.92751
67.8776
120.679
163.179
192.212
205.945
204.065
187.79
159.683
123.329
82.8947
42.6426
6.46178
-22.5338
-42.29
-51.9539
-51.8654
-43.4096
-28.7591
-10.5458
8.49196
25.8424
39.4936
48.1215
51.1745
48.8576
42.0246
32.0026
20.3761
8.76133
-1.40017
-9.0054
-13.3949
-14.3916
-12.2764
-7.70753
-1.60249
5.00186
11.0897
15.79
18.4707
18.7929
16.7248
12.5148
6.63416
-0.303009
-7.62858
-14.7073
-21.0104
-26.1689
-30.0011
-32.5136
-33.879
-34.3937
-34.4246
-34.3513
-34.512
-35.1599
-36.4332
-38.3434
-40.7813
-43.537
-46.3338
-48.8677
-50.8485
-52.0376
-52.2764
-51.5042
-49.7616
-47.1824
-43.9732
-40.3863
-36.6881
-33.1281
-29.9115
-27.1793
-24.9962
-23.3491
-22.1534
-21.2679
-20.5138
-19.6976
-18.6339
-17.1652
-15.1783
-12.6147
-9.47399
-5.81166
-1.73059
2.63157
7.1179
11.5685
15.8355
19.7957
23.3586
26.4703
29.1122
31.296
33.0558
34.4393
35.4988
36.2836
36.8354
37.1864
37.3593
37.3706
37.2342
36.9655
36.5854
36.1215
35.6082
35.0847
34.5907
34.1604
33.817
33.5665
33.3928
33.2554
33.0889
32.8054
32.3004
31.4605
30.1738
28.3413
25.8885
22.7759
19.0071
14.633
9.75205
4.50546
-0.931624
-6.36284
-11.5855
-16.4064
-20.6562
-24.2023
-26.9568
-28.8809
-29.9846
-30.3216
-29.9815
-29.0791
-27.7438
-26.1086
-24.3017
-22.4392
-20.6211
-18.9291
-17.4262
-16.1576
-15.1521
-14.423
-13.9696
-13.7769
-13.8158
-14.0431
-14.4019
-14.8226
-15.2258
-15.5258
-15.6361
-15.4755
-14.9742
-14.08
-12.7631
-11.0186
-8.86774
-6.35632
-3.55123
-0.535529
2.59754
5.75076
8.82882
11.7434
14.4171
16.7859
18.8008
20.4276
21.647
22.4527
22.8506
22.8571
22.4978
21.8067
20.8248
19.5995
18.1836
16.6339
15.0095
13.3693
11.7695
10.2603
8.88307
7.66706
6.62773
5.7656
5.06674
4.50467
4.04362
3.64263
3.25992
2.85637
2.39705
1.84948
1.17732
0.328507
-0.782271
-2.29569
-4.43153
-7.50861
-11.9537
-18.2903
-27.0997
-38.948
-54.2806
-73.2921
-95.7903
-121.079
-147.889
-174.387
-198.272
-216.972
-227.919
-228.869
-218.233
-195.352
-160.69
-115.889
-63.6872
-7.69012
47.977
99.0921
141.784
172.949
190.576
193.951
183.709
161.727
130.888
94.7288
57.0401
21.4494
-8.94977
-31.8873
-46.0929
-51.3474
-48.4102
-38.8418
-24.7499
-8.49541
7.60324
21.5326
31.7848
37.4782
38.3918
34.917
27.9409
18.6836
8.5117
-1.24499
-9.45187
-15.287
-18.307
-18.4595
-16.0459
-11.6461
-6.01702
0.0169544
5.66932
10.2779
13.3649
14.666
14.1292
11.8875
8.21334
3.46345
-1.97714
-7.7435
-13.5265
-19.0927
-24.2879
-29.0279
-33.2791
-37.0352
-40.2959
-43.0497
-45.2664
-46.8982
-47.8894
-48.1919
-47.7827
-46.6809
-44.958
-42.7419
-40.2114
-37.5822
-35.0857
-32.944
-31.3438
-30.4131
-30.2045
-30.6871
-31.7482
-33.2051
-34.8257
-36.3547
-37.5426
-38.1736
-38.0892
-37.2041
-35.5135
-33.0894
-30.0693
-26.6368
-22.9984
-19.359
-15.9004
-12.7639
-10.0399
-7.765
-5.92503
-4.46473
-3.30058
-2.33533
-1.47218
-0.626753
0.264407
1.23921
2.30954
3.4642
4.67459
5.90184
7.1044
8.24489
9.29559
10.2418
11.0833
11.8332
12.5154
13.1611
13.8031
14.4715
15.1884
15.964
16.7932
17.6542
18.5084
19.3022
19.9708
20.4436
20.6501
20.5276
20.027
19.1191
17.7982
16.0838
14.0199
11.6715
9.11933
6.45346
3.76572
1.14295
-1.33893
-3.61914
-5.65445
-7.41963
-8.90621
-10.1202
-11.0787
-11.8071
-12.3353
-12.6956
-12.9198
-13.0383
-13.078
-13.0613
-13.0053
-12.9208
-12.812
-12.6768
-12.507
-12.2907
-12.0138
-11.663
-11.2286
-10.7066
-10.101
-9.42405
-8.69584
-7.9425
-7.19304
-6.47561
-5.81335
-5.22068
-4.70042
-4.2423
-3.82323
-3.40928
-2.95928
-2.42951
-1.77908
-0.975047
0.00310912
1.16037
2.48475
3.94769
5.50635
7.10749
8.6926
10.2037
11.589
12.8082
13.8361
14.6649
15.3039
15.7782
16.1245
16.3864
16.6093
16.8349
17.0969
17.4181
17.809
18.2684
18.7845
19.3373
19.9015
20.4477
20.9443
21.3579
21.6537
21.7954
21.7448
21.4609
20.8981
20.0005
18.6917
16.858
14.3249
10.8315
6.00787
-0.633677
-9.6816
-21.7729
-37.4999
-57.2783
-81.193
-108.843
-139.22
-170.657
-200.868
-227.106
-246.416
-255.977
-253.48
-237.484
-207.7
-165.155
-112.191
-52.3015
10.1815
70.5261
124.095
166.842
195.745
209.12
206.778
190.01
161.403
124.518
83.4628
42.4345
5.26709
-24.9498
-46.144
-57.3997
-58.9556
-52.0699
-38.7801
-21.593
-3.14636
14.1132
28.2013
37.7863
42.2821
41.8432
37.2666
29.8249
21.0539
12.5256
5.63712
1.43849
0.518856
2.95992
8.35736
15.9024
24.5093
32.9689
40.109
44.9392
46.7652
45.2591
40.4804
32.8485
23.0731
12.0525
0.75646
-9.8936
-19.1307
-26.4233
-31.5226
-34.4719
-35.5794
-35.3594
-34.4513
-33.5272
-33.2019
-33.9541
-36.0711
-39.6207
-44.4526
-50.2286
-56.4742
-62.6448
-68.1969
-72.6549
-75.6643
-77.027
-76.7144
-74.8577
-71.7199
-67.6533
-63.0501
-58.293
-53.7121
-49.5529
-45.9586
-42.9671
-40.5214
-38.4907
-36.6976
-34.9484
-33.0622
-30.8945
-28.3547
-25.4148
-22.1099
-18.5316
-14.8141
-11.1179
-7.60964
-4.4432
-1.74252
0.412266
1.99391
3.03174
3.60994
3.86039
3.95107
4.07081
4.4118
5.15149
6.4354
8.36238
10.9736
14.2465
18.0933
22.3655
26.8623
31.344
35.5479
39.2072
42.0704
43.9218
44.5989
44.0076
42.1333
39.0446
34.8924
29.8999
24.3486
18.5568
12.8564
7.56701
2.97209
-0.702664
-3.30514
-4.76632
-5.10254
-4.41063
-2.85676
-0.660311
1.92534
4.63347
7.20398
9.40145
11.0297
11.9423
12.0489
11.3163
9.7662
7.46895
4.53444
1.10116
-2.67587
-6.63719
-10.6299
-14.517
-18.1832
-21.5386
-24.5181
-27.078
-29.1914
-30.8424
-32.0202
-32.7164
-32.9229
-32.6335
-31.8469
-30.571
-28.8277
-26.656
-24.1148
-21.2812
-18.248
-15.1175
-11.9941
-8.97499
-6.1415
-3.55116
-1.23176
0.821692
2.64648
4.30815
5.89299
7.49779
9.21757
11.1328
13.2975
15.7289
18.4021
21.2482
24.1583
26.9924
29.5929
31.8001
33.4692
34.4855
34.7767
34.3204
33.1464
31.3331
28.9991
26.2908
23.3678
20.3878
17.4928
14.7978
12.3837
10.2941
8.53641
7.08574
5.89084
4.87954
3.96138
3.02512
1.92936
0.485798
-1.56294
-4.56653
-8.98381
-15.3838
-24.4204
-36.7736
-53.0527
-73.667
-98.6778
-127.654
-159.56
-192.708
-224.799
-253.06
-274.489
-286.179
-285.682
-271.373
-242.759
-200.673
-147.32
-86.1565
-21.5964
41.4151
97.9208
143.493
174.725
189.613
187.773
170.46
140.404
101.471
58.1966
15.2703
-22.9881
-53.0759
-72.6383
-80.645
-77.4021
-64.4075
-44.0787
-19.3948
6.49713
30.6614
50.6929
64.9437
72.6364
73.8611
69.467
60.8722
49.823
38.1369
27.4644
19.0961
13.8366
11.9527
13.1971
16.8956
22.0818
27.6559
32.5462
35.8511
36.9459
35.5429
31.7008
25.7884
18.4093
10.3025
2.23315
-5.11033
-11.2005
-15.7264
-18.6156
-20.023
-20.2907
-19.8869
-19.3338
-19.1342
-19.7071
-21.3398
-24.16
-28.131
-33.0681
-38.6723
-44.5757
-50.392
-55.766
-60.4143
-64.1549
-66.9202
-68.7551
-69.7993
-70.2576
-70.363
-70.3363
-70.3487
-70.492
-70.7609
-71.0504
-71.1675
-70.8583
-69.8449
-67.8673
-64.7255
-60.3129
-54.6397
-47.8394
-40.1591
-31.9353
-23.5569
-15.4219
-7.89342
-1.26044
4.29132
8.69471
12.0014
14.3675
16.027
17.2574
18.3416
19.5313
21.0172
22.9077
25.2193
27.8793
30.7387
33.5938
36.2136
38.3691
39.8612
40.5442
40.3425
39.2592
37.3754
34.8413
31.8596
28.6632
25.4902
22.5579
20.0398
18.0473
16.6187
15.7176
15.2397
15.0282
14.8963
14.6522
14.1256
13.1898
11.7781
9.89121
7.59514
5.00939
2.28792
-0.404579
-2.91765
-5.13724
-7.00191
-8.51053
-9.72017
-10.7346
-11.6851
-12.7063
-13.9123
-15.3756
-17.114
-19.0879
-21.2075
-23.3511
-25.3876
-27.2025
-28.7203
-29.9184
-30.8319
-31.5453
-32.1745
-32.841
-33.6438
-34.6334
-35.7942
-37.0376
-38.2087
-39.104
-39.4999
-39.1842
-37.9876
-35.809
-32.6317
-28.5269
-23.6461
-18.2034
-12.4505
-6.64867
-1.04219
4.16457
8.82245
12.8446
16.2048
18.9285
21.0776
22.7326
23.9742
24.8671
25.4493
25.727
25.677
25.2554
24.4112
23.1021
21.3107
19.0566
16.4042
13.4632
10.3824
7.33732
4.51356
2.08824
0.211714
-1.00758
-1.51396
-1.30972
-0.454843
0.938472
2.71531
4.69034
6.66131
8.42205
9.77301
10.5273
10.51
9.54947
7.46046
4.02052
-1.05424
-8.1267
-17.6389
-30.0844
-45.9463
-65.5981
-89.1772
-116.447
-146.676
-178.558
-210.213
-239.269
-263.051
-278.844
-284.216
-277.35
-257.336
-224.383
-179.909
-126.482
-67.6294
-7.508
49.5034
99.2556
138.261
164.053
175.435
172.576
156.957
131.17
98.6017
63.036
28.2348
-2.45861
-26.4464
-42.0978
-48.8468
-47.1609
-38.395
-24.5547
-8.00463
8.83962
23.7973
35.1549
41.8211
43.3927
40.1328
32.8705
22.8426
11.5021
0.319615
-9.39745
-16.6471
-20.8234
-21.7494
-19.6538
-15.1011
-8.88737
-1.92008
4.90251
10.796
15.1675
17.6601
18.1611
16.7799
13.8005
9.61975
4.68072
-0.588695
-5.82457
-10.7584
-15.2297
-19.1803
-22.6353
-25.6746
-28.4018
-30.9158
-33.2891
-35.5559
-37.7113
-39.7185
-41.5235
-43.0724
-44.3275
-45.2791
-45.951
-46.3984
-46.6997
-46.9426
-47.2092
-47.561
-48.0278
-48.6019
-49.2374
-49.8564
-50.3589
-50.6351
-50.5779
-50.0943
-49.1133
-47.5897
-45.5057
-42.8689
-39.7082
-36.0701
-32.0138
-27.6071
-22.9233
-18.0375
-13.0246
-7.95645
-2.89957
2.0865
6.95088
11.6522
16.1585
20.446
24.497
28.2966
31.8287
35.0734
38.004
40.5867
42.7811
44.5437
45.832
46.6099
46.8535
46.5556
45.7292
44.4097
42.654
40.5384
38.1533
35.5978
32.9718
30.369
27.8689
25.5317
23.3929
21.4625
19.7244
18.1405
16.6555
15.204
13.7189
12.1388
10.4157
8.51997
6.44361
4.20071
1.82524
-0.6334
-3.11645
-5.56263
-7.91478
-10.1255
-12.1611
-14.0032
-15.6487
-17.1068
-18.396
-19.5387
-20.5574
-21.4706
-22.2904
-23.0215
-23.6619
-24.2037
-24.6359
-24.9453
-25.1184
-25.1414
-25.0006
-24.6825
-24.1734
-23.461
-22.5353
-21.3913
-20.0313
-18.4672
-16.7223
-14.8313
-12.839
-10.797
-8.75984
-6.77931
-4.89989
-3.15424
-1.56038
-0.120545
1.17805
2.36085
3.46231
4.52163
5.57829
6.66795
7.81891
9.04942
10.3658
11.7614
13.2163
14.6987
16.1659
17.5688
18.8553
19.9768
20.8935
21.5798
22.0273
22.2448
22.2549
22.0871
21.7692
21.3171
20.7283
19.9769
19.0158
17.7833
16.2148
14.2582
11.8899
9.12806
6.04019
2.7411
-0.62117
-3.89315
-6.95712
-9.78275
-12.4828
-15.3636
-18.9559
-24.0139
-31.4667
-42.3157
-57.4782
-77.5908
-102.798
-132.567
-165.556
-199.603
-231.822
-258.849
-277.192
-283.672
-275.867
-252.513
-213.797
-161.475
-98.795
-30.2282
38.9733
103.333
157.751
198.066
221.518
227.027
215.289
188.644
150.769
106.217
59.8801
16.4391
-20.1334
-46.9556
-62.4683
-66.4967
-60.147
-45.5629
-25.5814
-3.33766
18.1286
36.2198
49.0404
55.5489
55.5923
49.8295
39.5657
26.524
12.5901
-0.437076
-11.0591
-18.2329
-21.454
-20.7651
-16.6971
-10.1548
-2.26932
5.76365
12.8359
18.0528
20.8195
20.8802
18.3112
13.4723
6.92855
-0.645784
-8.56527
-16.2209
-23.1459
-29.0536
-33.8438
-37.5816
-40.4533
-42.7095
-44.6052
-46.3475
-48.0569
-49.7499
-51.3413
-52.6665
-53.5177
-53.688
-53.0146
-51.416
-48.9157
-45.6499
-41.8578
-37.856
-34.0013
-30.6462
-28.0952
-26.5653
-26.1581
-26.8466
-28.4769
-30.7856
-33.4301
-36.0272
-38.1944
-39.59
-39.9452
-39.0858
-36.9411
-33.5395
-28.9936
-23.4776
-17.2008
-10.3827
-3.23183
4.06841
11.3661
18.5404
25.4952
32.1504
38.432
44.2653
49.5704
54.2626
58.2572
61.4765
63.8584
65.3649
65.9873
65.7482
64.6991
62.9146
60.4832
57.4988
54.0527
50.2286
46.1012
41.7394
37.2112
32.5912
27.9676
23.4458
19.1495
15.216
11.7863
8.99205
6.93964
5.69457
5.26882
5.61313
6.616
8.10989
9.88432
11.7041
13.331
14.5451
15.1648
15.0615
14.1687
12.484
10.0653
7.02136
3.49923
-0.329674
-4.28365
-8.18329
-11.8619
-15.1739
-18.0003
-20.2531
-21.877
-22.8505
-23.1847
-22.9212
-22.1282
-20.8953
-19.3272
-17.5358
-15.6327
-13.7213
-11.8896
-10.2057
-8.71446
-7.43788
-6.37724
-5.51819
-4.83685
-4.30619
-3.90122
-3.60203
-3.39411
-3.266
-3.20522
-3.19372
-3.20439
-3.20001
-3.13551
-2.96346
-2.64216
-2.14457
-1.46592
-0.627644
0.324133
1.3265
2.31323
3.23155
4.05882
4.81484
5.56637
6.42162
7.51428
8.97936
10.9247
13.4031
16.3911
19.7775
23.3662
26.8919
30.0486
32.5251
34.0438
34.3969
33.4737
31.2764
27.9216
23.6276
18.6899
13.4465
8.23912
3.37186
-0.928719
-4.55008
-7.52523
-10.0571
-12.5323
-15.5199
-19.7477
-26.0502
-35.2835
-48.2059
-65.3332
-86.7833
-112.136
-140.335
-169.668
-197.831
-222.107
-239.63
-247.715
-244.213
-227.841
-198.426
-157.041
-105.985
-48.6173
10.9531
68.2756
119.022
159.446
186.776
199.503
197.512
182.067
155.622
121.522
83.6044
45.7664
11.5514
-16.2031
-35.6131
-45.8718
-47.2409
-40.9214
-28.8276
-13.2983
3.21516
18.4444
30.5514
38.2999
41.1396
39.1994
33.199
24.2982
13.9064
3.48129
-5.66006
-12.4933
-16.3882
-17.1516
-15.011
-10.5482
-4.59513
1.89145
7.95765
12.7674
15.6909
16.359
14.6801
10.8225
5.16744
-1.75657
-9.34883
-17.0104
-24.2084
-30.5236
-35.6795
-39.5504
-42.1513
-43.6136
-44.1506
-44.0194
-43.4837
-42.7813
-42.1003
-41.5658
-41.2354
-41.1055
-41.1238
-41.2073
-41.2627
-41.2052
-40.9757
-40.5518
-39.9539
-39.2423
-38.5095
-37.8641
-37.4122
-37.2352
-37.3699
-37.7921
-38.4074
-39.0522
-39.5049
-39.5063
-38.7892
-37.1111
-34.2871
-30.2175
-24.9071
-18.4713
-11.13
-3.18829
4.99239
13.0298
20.5575
27.2587
32.8924
37.3099
40.4598
42.3823
43.1939
43.0657
42.1993
40.8022
39.068
37.1608
35.2077
33.2981
31.4879
29.8088
28.2786
26.911
25.722
24.7329
23.9681
23.4488
23.1842
23.1629
23.3448
23.6578
23.9986
24.2396
24.2398
23.8596
22.9764
21.4999
19.3837
16.633
13.3059
9.50894
5.38699
1.10906
-3.14864
-7.21986
-10.9636
-14.2759
-17.0958
-19.4064
-21.2296
-22.6167
-23.6355
-24.3572
-24.8437
-25.1388
-25.2637
-25.2177
-24.9847
-24.543
-23.8765
-22.9856
-21.8941
-20.6509
-19.3254
-17.9976
-16.7446
-15.6262
-14.674
-13.8848
-13.2212
-12.6199
-12.0049
-11.305
-10.4702
-9.48469
-8.37367
-7.2009
-6.05836
-5.04875
-4.26399
-3.76374
-3.55793
-3.597
-3.77202
-3.92542
-3.871
-3.42033
-2.41134
-0.734838
1.64556
4.68292
8.24782
12.1402
16.1106
19.8877
23.2084
25.8455
27.6316
28.4731
28.3563
27.3429
25.5583
23.1725
20.3793
17.3746
14.3378
11.4183
8.72774
6.33921
4.292
2.60054
1.26548
0.284343
-0.340373
-0.597434
-0.468316
0.0658864
1.01265
2.3522
4.01899
5.88177
7.72413
9.22786
9.96235
9.38433
6.85284
1.66454
-6.8867
-19.4246
-36.3829
-57.8838
-83.6186
-112.75
-143.862
-174.976
-203.653
-227.18
-242.839
-248.218
-241.535
-221.933
-189.681
-146.259
-94.3027
-37.3907
20.2843
74.3418
120.673
155.879
177.628
184.897
178.048
158.758
129.793
94.6768
57.2774
21.389
-9.66207
-33.3314
-48.0629
-53.3697
-49.7918
-38.7422
-22.2712
-2.78163
17.2678
35.6361
50.5215
60.7106
65.6473
65.4191
60.6739
52.4818
42.1645
31.1154
20.6302
11.7684
5.25678
1.44201
0.292874
1.44628
4.28711
8.04892
11.9212
15.1502
17.1213
17.4163
15.8413
12.4252
7.39207
1.11508
-5.94242
-13.2891
-20.464
-27.085
-32.8823
-37.7145
-41.5674
-44.5363
-46.7953
-48.559
-50.0416
-51.4199
-52.8045
-54.2241
-55.624
-56.8785
-57.8153
-58.2473
-58.007
-56.9778
-55.1174
-52.4708
-49.1695
-45.4192
-41.4758
-37.6156
-34.1015
-31.1522
-28.9163
-27.4563
-26.7428
-26.6606
-27.0238
-27.5989
-28.1323
-28.3777
-28.1218
-27.2042
-25.5303
-23.0759
-19.8848
-16.0578
-11.7385
-7.09429
-2.29818
2.48772
7.12502
11.5067
15.5596
19.2416
22.5358
25.4418
27.9678
30.123
31.9129
33.3378
34.3944
35.0799
35.3968
35.3591
34.9959
34.3542
33.498
32.5055
31.4629
30.4565
29.5647
28.8487
28.3455
28.0623
27.9744
28.0243
28.1252
28.1653
28.0148
27.5343
26.5839
25.0333
22.7733
19.727
15.8605
11.1934
5.80594
-0.157559
-6.49073
-12.9341
-19.191
-24.95
-29.9122
-33.8196
-36.483
-37.8034
-37.7856
-36.5411
-34.2787
-31.2853
-27.8968
-24.4646
-21.3192
-18.7383
-16.9194
-15.9633
-15.8681
-16.5349
-17.7842
-19.3805
-21.0628
-22.5756
-23.6986
-24.2697
-24.1993
-23.4755
-22.1571
-20.3586
-18.2282
-15.9217
-13.5778
-11.2963
-9.12402
-7.04957
-5.00722
-2.8899
-0.568715
2.08382
5.17039
8.74864
12.8172
17.3099
22.0988
27.006
31.8217
36.3271
40.3174
43.6235
46.1281
47.7757
48.574
48.5887
47.9312
46.7422
45.1732
43.3684
41.4496
39.5047
37.5817
35.6877
33.7939
31.8427
29.7595
27.4648
24.8864
21.9707
18.6914
15.0545
11.1003
6.90088
2.55419
-1.82608
-6.12392
-10.2386
-14.1064
-17.7268
-21.1912
-24.7113
-28.642
-33.4888
-39.8926
-48.5825
-60.2917
-75.6378
-94.9775
-118.255
-144.866
-173.575
-202.505
-229.223
-250.935
-264.768
-268.118
-259.019
-236.472
-200.694
-153.226
-96.8868
-35.5496
26.22
83.6383
132.223
168.291
189.374
194.482
184.208
160.623
127.019
87.5035
46.5146
8.3223
-23.4315
-46.0926
-58.2182
-59.6457
-51.4066
-35.5088
-14.6206
8.29509
30.3518
49.067
62.613
69.9661
70.9445
66.1423
56.7751
44.4661
31.0039
18.1053
7.21173
-0.65881
-4.99136
-5.78242
-3.4838
1.10433
6.97218
13.0501
18.3489
22.0748
23.7061
23.0267
20.1161
15.3031
9.09105
2.07071
-5.16931
-12.1196
-18.4065
-23.8224
-28.3285
-32.032
-35.1458
-37.9362
-40.6694
-43.5637
-46.7541
-50.2739
-54.0529
-57.9328
-61.6943
-65.0919
-67.8905
-69.8989
-70.995
-71.1402
-70.3822
-68.8461
-66.7159
-64.2101
-61.5538
-58.9526
-56.5701
-54.5125
-52.8211
-51.4723
-50.3865
-49.441
-48.4887
-47.3762
-45.9629
-44.1365
-41.8244
-39.0009
-35.6883
-31.9537
-27.9016
-23.6629
-19.3824
-15.2054
-11.2649
-7.6705
-4.5004
-1.79623
0.437801
2.23239
3.64725
4.7629
5.67095
6.464
7.22634
8.0261
8.90974
9.89903
10.9907
12.1584
13.3565
14.5251
15.5963
16.5
17.1701
17.5496
17.5955
17.2817
16.6016
15.5684
14.2141
12.5872
10.7492
8.76987
6.72199
4.67616
2.69588
0.833567
-0.871995
-2.39669
-3.73041
-4.87502
-5.84124
-6.64502
-7.30403
-7.83455
-8.2495
-8.55741
-8.76273
-8.86691
-8.87016
-8.77331
-8.5794
-8.29482
-7.9299
-7.49915
-7.02129
-6.51924
-6.0203
-5.55606
-5.16203
-4.87629
-4.73701
-4.77852
-5.02631
-5.4914
-6.16506
-7.01486
-7.98321
-8.98889
-9.93215
-10.7029
-11.1914
-11.2998
-10.9535
-10.1107
-8.76787
-6.96209
-4.76774
-2.28925
0.35004
3.02155
5.60622
8.00872
10.1692
12.0713
13.744
15.258
16.7153
18.2328
19.9226
21.8716
24.1218
26.657
29.3967
32.1988
34.8727
37.2003
38.9624
39.9682
40.0824
39.2462
37.49
34.9349
31.7825
28.2949
24.7662
21.4903
18.7278
16.6774
15.454
15.0767
15.4686
16.4669
17.843
19.3286
20.6458
21.5349
21.776
21.2001
19.6852
17.1358
13.4479
8.46299
1.92192
-6.56815
-17.539
-31.624
-49.4696
-71.5966
-98.2255
-129.092
-163.287
-199.171
-234.378
-265.958
-290.631
-305.15
-306.726
-293.444
-264.622
-221.032
-164.956
-100.046
-30.9936
36.9403
98.4913
148.969
184.773
203.78
205.553
191.346
163.912
127.141
85.5796
43.8969
6.36537
-23.5829
-43.6733
-52.9492
-51.7678
-41.6425
-24.9628
-4.63541
16.3044
35.062
49.3904
57.8033
59.6782
55.2474
45.4873
31.9308
16.4318
0.914386
-12.8624
-23.4966
-30.0754
-32.2364
-30.1581
-24.4877
-16.2205
-6.55044
3.28831
12.1687
19.1897
23.7554
25.6079
24.8131
21.7068
16.8108
10.7341
4.07288
-2.67331
-9.16122
-15.2306
-20.8977
-26.3191
-31.7355
-37.404
-43.534
-50.2344
-57.4809
-65.109
-72.8293
-80.2652
-87.0033
-92.6489
-96.8795
-99.4853
-100.394
-99.6766
-97.5312
-94.254
-90.1965
-85.72
-81.1525
-76.7535
-72.692
-69.0387
-65.773
-62.8013
-59.9832
-57.1615
-54.1904
-50.959
-47.406
-43.5266
-39.3694
-35.0262
-30.6169
-26.2716
-22.1134
-18.244
-14.7338
-11.6173
-8.89353
-6.53219
-4.48204
-2.68173
-1.07049
0.402667
1.77244
3.05418
4.24426
5.32372
6.26412
7.0347
7.60953
7.97368
8.12744
8.08816
7.88941
7.5778
7.20772
6.83481
6.50882
6.26669
6.12662
6.08396
6.10953
6.15076
6.13597
5.98142
5.60065
4.91519
3.86539
2.42017
0.584367
-1.59732
-4.04046
-6.62534
-9.20555
-11.6199
-13.7066
-15.3182
-16.3356
-16.6798
-16.3199
-15.2764
-13.6194
-11.4618
-8.9491
-6.2455
-3.51936
-0.928692
1.39135
3.33794
4.84612
5.8902
6.48109
6.6603
6.49138
6.05021
5.41504
4.65778
3.83729
2.99549
2.15659
1.32918
0.510798
-0.306108
-1.12777
-1.95337
-2.77092
-3.55528
-4.2686
-4.86307
-5.28543
-5.48254
-5.40731
-5.02395
-4.31203
-3.26877
-1.90931
-0.265088
1.61943
3.69093
5.89164
8.16328
10.4496
12.6978
14.8574
16.8791
18.712
20.3017
21.5896
22.5141
23.0155
23.0421
22.5603
21.563
20.078
18.1724
15.9519
13.5549
11.1401
8.87051
6.89522
5.33172
4.25168
3.67252
3.55647
3.81752
4.33544
4.97509
5.60786
6.13171
6.48587
6.65658
6.67083
6.57627
6.40731
6.13964
5.63839
4.60829
2.55715
-1.21458
-7.58566
-17.5383
-32.0324
-51.8357
-77.328
-108.307
-143.832
-182.139
-220.668
-256.209
-285.182
-304.009
-309.557
-299.571
-273.048
-230.485
-173.958
-107.003
-34.3161
38.7038
106.512
164.001
207.04
232.898
240.507
230.526
205.213
168.122
123.668
76.6182
31.5747
-7.49158
-37.6049
-57.0106
-65.2467
-63.065
-52.2234
-35.1838
-14.7611
6.23272
25.3059
40.5322
50.7032
55.3784
54.8385
49.9583
42.0228
32.5157
22.9082
14.4747
8.15442
4.47119
3.51467
4.97858
8.24504
12.4994
16.8577
20.4899
22.7233
23.1151
21.4884
17.9301
12.7553
6.4443
-0.435507
-7.31339
-13.6923
-19.21
-23.6779
-27.0924
-29.6213
-31.5653
-33.3043
-35.2333
-37.6997
-40.9481
-45.0816
-50.0429
-55.6179
-61.4611
-67.1379
-72.1788
-76.1377
-78.6469
-79.4622
-78.4913
-75.8045
-71.6255
-66.3039
-60.2743
-54.0073
-47.9576
-42.5171
-37.9773
-34.5049
-32.1334
-30.7699
-30.216
-30.1981
-30.4045
-30.523
-30.2754
-29.445
-27.895
-25.5755
-22.5211
-18.8384
-14.6879
-10.2604
-5.75386
-1.35064
2.80029
6.59616
9.98644
12.9723
15.6004
17.9513
20.1257
22.2282
24.3523
26.5665
28.904
31.3565
33.8726
36.3614
38.7002
40.7461
42.3503
43.373
43.698
43.2456
41.9807
39.9188
37.1247
33.7089
29.8179
25.623
21.3064
17.0473
13.0094
9.32987
6.11251
3.42348
1.29137
-0.289621
-1.35365
-1.95544
-2.16164
-2.04241
-1.66437
-1.0857
-0.353997
0.493075
1.42462
2.41181
3.42283
4.41882
5.35199
6.16669
6.80379
7.20762
7.33471
7.1624
6.69567
5.97034
5.0516
4.02745
2.99783
2.0608
1.29833
0.763812
0.473698
0.404695
0.497158
0.664193
0.805099
0.821098
0.630952
0.184181
-0.53002
-1.47936
-2.59086
-3.75876
-4.85658
-5.75187
-6.32174
-6.46744
-6.12651
-5.28141
-3.96413
-2.25647
-0.286177
1.7809
3.752
5.42154
6.58739
7.06814
6.72036
5.45407
3.24498
0.141611
-3.73375
-8.19133
-12.9872
-17.8428
-22.4689
-26.5921
-29.9796
-32.4619
-33.9475
-34.4315
-33.9942
-32.7909
-31.035
-28.9744
-26.8656
-24.9473
-23.4165
-22.4098
-21.9906
-22.1455
-22.7883
-23.7728
-24.9148
-26.0218
-26.9302
-27.549
-27.9068
-28.1968
-28.8131
-30.3663
-33.6683
-39.674
-49.375
-63.647
-83.0636
-107.702
-136.972
-169.514
-203.191
-235.196
-262.291
-281.145
-288.732
-282.749
-261.971
-226.509
-177.909
-119.079
-54.0496
12.423
75.3402
129.99
172.447
199.976
211.305
206.723
187.999
158.142
121.023
80.9279
42.0775
8.18357
-17.9108
-34.4716
-40.9719
-38.0466
-27.3173
-11.1188
7.83486
26.7991
43.3214
55.5002
62.1552
62.8971
58.0954
48.7593
36.3525
22.5705
9.11229
-2.52708
-11.2189
-16.3027
-17.6215
-15.4933
-10.628
-4.00557
3.26469
10.0873
15.5067
18.8048
19.5605
17.6684
13.32
6.95205
-0.828113
-9.32795
-17.8565
-25.8017
-32.6906
-38.2277
-42.3088
-45.0113
-46.5637
-47.2992
-47.5994
-47.8365
-48.319
-49.2497
-50.6997
-52.6018
-54.7632
-56.8964
-58.6622
-59.7206
-59.7801
-58.641
-56.2249
-52.5884
-47.9185
-42.5108
-36.735
-30.9915
-25.665
-21.0825
-17.4783
-14.972
-13.5603
-13.1234
-13.4441
-14.2382
-15.1905
-15.9929
-16.3805
-16.16
-15.2291
-13.5829
-11.3092
-8.57113
-5.58122
-2.57028
0.245237
2.69233
4.66331
6.12751
7.13144
7.78785
8.25554
8.71328
9.33166
10.2471
11.5417
13.2307
15.2606
17.5162
19.8355
22.0311
23.9135
25.3147
26.1076
26.2201
25.642
24.424
22.6704
20.5257
18.1575
15.7384
13.4281
11.3588
9.62426
8.27413
7.31329
6.70615
6.38463
6.25887
6.22895
6.19648
6.07481
5.79682
5.31986
4.62755
3.7285
2.6524
1.44409
0.156335
-1.15771
-2.45137
-3.68977
-4.85289
-5.93585
-6.94668
-7.90184
-8.82046
-9.71824
-10.6022
-11.4669
-12.2936
-13.051
-13.699
-14.1942
-14.4957
-14.5719
-14.405
-13.995
-13.3605
-12.5377
-11.5769
-10.5374
-9.48091
-8.46504
-7.53724
-6.72971
-6.05623
-5.51088
-5.06891
-4.68947
-4.31986
-3.90093
-3.37288
-2.68115
-1.78176
-0.645868
0.736851
2.35601
4.17973
6.15532
8.21156
10.2626
12.2132
13.9657
15.4273
16.5178
17.177
17.3706
17.0943
16.3755
15.2719
13.8672
12.2647
10.5776
8.91988
7.39555
6.08996
5.06266
4.34313
3.92954
3.79072
3.87089
4.09664
4.38515
4.65279
4.82281
4.83104
4.62851
4.17943
3.45382
2.4135
0.991572
-0.933762
-3.56813
-7.22756
-12.3552
-19.5186
-29.378
-42.6178
-59.8381
-81.4122
-107.327
-137.027
-169.306
-202.265
-233.376
-259.657
-277.967
-285.369
-279.536
-259.129
-224.092
-175.802
-117.043
-51.7949
15.1403
78.6384
133.806
176.517
203.863
214.452
208.533
187.911
155.701
115.931
73.0601
31.4749
-4.97076
-33.33
-51.803
-59.83
-58.0343
-48.0367
-32.1724
-13.1529
6.28287
23.686
37.1496
45.4717
48.2187
45.6913
38.8063
28.9181
17.6047
6.45028
-3.15144
-10.1495
-13.9304
-14.3501
-11.7037
-6.64513
-0.0709581
7.01448
13.6325
18.9468
22.3499
23.5124
22.392
19.206
14.3744
8.44371
2.00348
-4.39228
-10.2901
-15.3807
-19.5183
-22.7151
-25.1154
-26.9536
-28.5044
-30.0327
-31.7498
-33.7813
-36.1513
-38.782
-41.5096
-44.1124
-46.3468
-47.9868
-48.8616
-48.8868
-48.0853
-46.5952
-44.6637
-42.6249
-40.8658
-39.7822
-39.7299
-40.977
-43.6641
-47.7761
-53.1316
-59.39
-66.0777
-72.6283
-78.4363
-82.9145
-85.5515
-85.9621
-83.9249
-79.4035
-72.549
-63.685
-53.2753
-41.8805
-30.1063
-18.5512
-7.75654
1.83342
9.90066
16.2679
20.8988
23.8851
25.4229
25.7816
25.2693
24.1993
22.8589
21.4861
20.2538
19.2634
18.5472
18.0787
17.7893
17.5883
17.383
17.0974
16.6847
16.1336
15.4667
14.7319
13.9895
13.2957
12.6883
12.1753
11.7286
11.2861
10.7585
10.0428
9.03823
7.66323
5.87001
3.65476
1.0618
-1.81894
-4.86061
-7.91291
-10.8181
-13.4272
-15.6144
-17.2873
-18.3931
-18.9201
-18.8951
-18.3782
-17.4555
-16.2317
-14.8223
-13.3466
-11.9213
-10.6541
-9.63897
-8.95022
-8.63816
-8.72493
-9.20186
-10.0286
-11.1349
-12.4248
-13.7832
-15.0854
-16.2066
-17.0318
-17.4645
-17.4329
-16.8929
-15.8285
-14.2481
-12.1803
-9.66764
-6.76111
-3.51618
0.00944439
3.75585
7.65912
11.6485
15.6438
19.5532
23.2739
26.6951
29.7028
32.1885
34.0574
35.238
35.6896
35.4084
34.4291
32.8238
30.697
28.1781
25.4107
22.542
19.7122
17.0444
14.6374
12.5609
10.8537
9.52486
8.55744
7.91439
7.54531
7.3935
7.40201
7.51793
7.6941
7.8881
8.05862
8.15986
8.1352
7.91089
7.39086
6.45262
4.94365
2.67716
-0.573709
-5.08314
-11.1789
-19.2429
-29.6981
-42.975
-59.4505
-79.3583
-102.678
-129.018
-157.513
-186.768
-214.871
-239.494
-258.074
-268.089
-267.357
-254.364
-228.524
-190.376
-141.636
-85.1225
-24.534
35.8934
91.8081
139.195
174.802
196.481
203.407
196.142
176.542
147.511
112.651
75.8372
40.7893
10.679
-12.1728
-26.4801
-32.0413
-29.6579
-20.9412
-8.03976
6.67216
20.9048
32.7226
40.7438
44.2528
43.2175
38.2205
30.3193
20.8602
11.2751
2.88564
-3.25794
-6.48924
-6.57804
-3.72272
1.51054
8.28868
15.6358
22.5622
28.1817
31.8039
32.9922
31.5858
27.687
21.6204
13.8722
5.02128
-4.33102
-13.6216
-22.3733
-30.2257
-36.9487
-42.4403
-46.7119
-49.8652
-52.0642
-53.5068
-54.3983
-54.9288
-55.2566
-55.4975
-55.7195
-55.9439
-56.1505
-56.2876
-56.2843
-56.0649
-55.563
-54.7349
-53.5691
-52.0925
-50.3701
-48.5
-46.6022
-44.8029
-43.2162
-41.9253
-40.9663
-40.317
-39.8931
-39.5536
-39.1143
-38.3687
-37.1145
-35.1798
-32.4471
-28.8709
-24.4853
-19.4021
-13.7976
-7.89171
-1.92186
3.88465
9.335
14.2893
18.6701
22.4633
25.7097
28.4905
30.9086
33.0693
35.0629
36.9517
38.7618
40.4827
42.07
43.4549
44.5549
45.2861
45.5752
45.3684
44.6378
43.3842
41.6362
39.4462
36.8846
34.0329
30.9764
27.7986
24.5756
21.3736
18.2471
15.2387
12.3799
9.69268
7.19037
4.87941
2.76009
0.827391
-0.92852
-2.5217
-3.96979
-5.29301
-6.51305
-7.65154
-8.72854
-9.76105
-10.7618
-11.7384
-12.6931
-13.6229
-14.5207
-15.3759
-16.1767
-16.9114
-17.5701
-18.1462
-18.6377
-19.0475
-19.3836
-19.6588
-19.8894
-20.0934
-20.2878
-20.4854
-20.6908
-20.8973
-21.0838
-21.2137
-21.2359
-21.0882
-20.7024
-20.0115
-18.9576
-17.499
-15.6168
-13.3191
-10.6423
-7.65
-4.42929
-1.08464
2.26945
5.51651
8.54594
11.26
13.5796
15.448
16.8334
17.7291
18.1526
18.1429
17.7573
17.0665
16.1504
15.0922
13.9737
12.8699
11.8451
10.9486
10.2126
9.65075
9.25884
9.01606
8.88828
8.83205
8.79918
8.74163
8.61596
8.38702
8.03054
7.53427
6.89786
6.13136
5.25272
4.28439
3.24902
2.16404
1.03426
-0.158611
-1.4704
-3.01368
-4.98084
-7.66799
-11.4942
-17.007
-24.8647
-35.7843
-50.4489
-69.3775
-92.7658
-120.324
-151.145
-183.635
-215.54
-244.09
-266.254
-279.079
-280.077
-267.606
-241.164
-201.576
-151.007
-92.8094
-31.2111
29.1217
83.5845
128.136
159.735
176.655
178.64
166.886
143.852
112.933
78.041
43.1471
11.8449
-13.0133
-29.5685
-37.072
-35.8631
-27.2208
-13.1185
4.08083
21.9449
38.2682
51.3086
59.9426
63.7263
62.8664
58.1135
50.5995
41.6464
32.5734
24.5272
18.3541
14.526
13.1233
13.8706
16.2144
19.4285
22.7301
25.3895
26.8224
26.6521
24.7388
21.1756
16.2547
10.4123
4.16034
-1.98386
-7.56232
-12.2273
-15.7739
-18.1523
-19.4605
-19.9193
-19.8357
-19.5588
-19.4341
-19.762
-20.7653
-22.5667
-25.1807
-28.5166
-32.3942
-36.5664
-40.7487
-44.6495
-47.9997
-50.5773
-52.2266
-52.8686
-52.5047
-51.2111
-49.128
-46.4429
-43.3712
-40.1361
-36.9489
-33.9928
-31.4097
-29.2922
-27.6803
-26.5626
-25.8808
-25.5379
-25.4074
-25.3443
-25.1961
-24.8135
-24.0609
-22.8256
-21.0255
-18.6158
-15.5924
-11.9941
-7.90121
-3.43068
1.27088
6.03738
10.6951
15.0755
19.0279
22.4301
25.1973
27.287
28.6998
29.4768
29.6931
29.4483
28.856
28.0324
27.0857
26.1072
25.1648
24.3005
23.5289
22.8407
22.2074
21.5873
20.9335
20.2009
19.3527
18.3649
17.2293
15.9536
14.5597
13.0794
11.55
10.0082
8.48482
7.00046
5.5624
4.16366
2.78404
1.39319
-0.0446341
-1.56473
-3.19583
-4.95449
-6.84073
-8.83577
-10.902
-12.9854
-15.0202
-16.9353
-18.6609
-20.1354
-21.3108
-22.1563
-22.6596
-22.8255
-22.6727
-22.2297
-21.5298
-20.6066
-19.4913
-18.2106
-16.7871
-15.2407
-13.5914
-11.8622
-10.0819
-8.28671
-6.5207
-4.83459
-3.28285
-1.91965
-0.794093
0.0546856
0.601967
0.840893
0.78456
0.466505
-0.0605085
-0.727364
-1.45293
-2.14957
-2.7294
-3.11077
-3.22456
-3.01959
-2.46679
-1.56174
-0.325151
1.1986
2.94494
4.83414
6.77752
8.68421
10.4678
12.0523
13.3769
14.3993
15.0974
15.4688
15.5295
15.311
14.8567
14.2171
13.4466
12.5986
11.7221
10.8592
10.0421
9.292
8.618
8.01678
7.47253
6.95672
6.42664
5.82144
5.0539
3.99683
2.46367
0.185439
-3.21125
-8.21697
-15.433
-25.5347
-39.1975
-56.9831
-79.194
-105.715
-135.868
-168.319
-201.056
-231.482
-256.608
-273.355
-278.916
-271.14
-248.885
-212.272
-162.811
-103.354
-37.8881
28.8316
91.7522
146.049
187.64
213.619
222.562
214.661
191.671
156.688
113.774
67.4946
22.4129
-17.3867
-48.6987
-69.4717
-78.9368
-77.5813
-66.9835
-49.5356
-28.0977
-5.62811
15.164
32.1043
43.7485
49.4721
49.4531
44.5594
36.1643
25.919
15.5136
6.45856
-0.0894735
-3.44012
-3.4115
-0.304471
5.18158
12.075
19.2806
25.7301
30.5153
32.989
32.8246
30.0304
24.9207
18.052
10.1346
1.93291
-5.83336
-12.5739
-17.8904
-21.6109
-23.7934
-24.7
-24.7479
-24.4432
-24.3076
-24.8068
-26.2909
-28.9516
-32.8019
-37.6799
-43.2739
-49.165
-54.8813
-59.9555
-63.9788
-66.6451
-67.7807
-67.3556
-65.4779
-62.3718
-58.3438
-53.7408
-48.9081
-44.1501
-39.7002
-35.7026
-32.2076
-29.1795
-26.5159
-24.0744
-21.7027
-19.2673
-16.6769
-13.8978
-10.9582
-7.94335
-4.9794
-2.2121
0.218719
2.20359
3.68331
4.66102
5.20469
5.43961
5.53208
5.66695
6.02229
6.74524
7.93229
9.61702
11.7667
14.2879
17.0403
19.8559
22.5602
24.993
27.0245
28.5654
29.5691
30.0289
29.968
29.4291
28.4627
27.1179
25.4371
23.4551
21.201
18.7041
15.9999
13.1353
10.1725
7.18912
4.2754
1.5283
-0.956556
-3.0939
-4.81733
-6.08623
-6.89
-7.24904
-7.21252
-6.85303
-6.25904
-5.52595
-4.747
-4.00499
-3.36588
-2.87501
-2.55638
-2.41476
-2.44049
-2.61581
-2.92191
-3.34531
-3.8827
-4.54327
-5.34813
-6.32664
-7.51016
-8.92385
-10.5777
-12.4583
-14.5225
-16.6943
-18.8662
-20.9042
-22.6576
-23.9719
-24.7028
-24.7316
-23.9782
-22.4118
-20.0561
-16.9904
-13.3448
-9.28981
-5.02322
-0.752912
3.3203
7.01923
10.2042
12.7825
14.7138
16.0086
16.723
16.949
16.8008
16.4014
15.8686
15.3033
14.7813
14.3485
14.0206
13.7868
13.6158
13.4649
13.2888
13.0482
12.718
12.2913
11.7823
11.2255
10.6714
10.1799
9.81133
9.61553
9.62104
9.82516
10.1871
10.6257
11.0241
11.2404
11.1261
10.5483
9.41207
7.67876
5.37269
2.57275
-0.615165
-4.10381
-7.88361
-12.0852
-17.0319
-23.2654
-31.5308
-42.7089
-57.6933
-77.2206
-101.673
-130.883
-163.983
-199.321
-234.503
-266.537
-292.115
-307.977
-311.326
-300.234
-273.975
-233.225
-180.102
-118.024
-51.3908
14.8593
75.7698
126.897
164.776
187.276
193.781
185.208
163.833
132.985
96.6228
58.8798
23.6057
-6.01925
-27.7683
-40.5194
-44.2683
-40.0119
-29.5277
-15.0834
0.880709
16.0583
28.5349
36.9718
40.7019
39.733
34.6698
26.5707
16.7658
6.66105
-2.4448
-9.5097
-13.8496
-15.1845
-13.63
-9.64207
-3.92675
2.66937
9.27264
15.0855
19.4681
21.9915
22.4599
20.9027
17.5425
12.7446
6.95746
0.651504
-5.7362
-11.8462
-17.4262
-22.3441
-26.5857
-30.2379
-33.4623
-36.4621
-39.4474
-42.6029
-46.0616
-49.8882
-54.0712
-58.5265
-63.1084
-67.6281
-71.8747
-75.6371
-78.7237
-80.9779
-82.2888
-82.5967
-81.8938
-80.2218
-77.6655
-74.3454
-70.4077
-66.0142
-61.3315
-56.52
-51.7243
-47.0654
-42.6345
-38.4911
-34.6631
-31.1507
-27.9316
-24.9687
-22.2176
-19.6338
-17.1791
-14.8248
-12.5546
-10.3633
-8.25501
-6.23951
-4.32782
-2.52861
-0.845589
0.723395
2.18539
3.54976
4.82465
6.01354
7.11289
8.11188
8.99447
9.74389
10.3485
10.8078
11.137
11.3693
11.5536
11.75
12.0208
12.4203
12.9847
13.7232
14.6127
15.5966
16.589
17.4829
18.1627
18.5179
18.4572
17.9206
16.888
15.3829
13.4708
11.2527
8.85504
6.41564
4.0699
1.93702
0.108768
-1.35821
-2.44577
-3.17315
-3.59169
-3.77627
-3.81461
-3.79578
-3.79946
-3.88706
-4.09573
-4.43586
-4.89197
-5.42688
-5.98817
-6.51609
-6.95178
-7.24469
-7.35845
-7.27466
-6.9943
-6.53705
-5.93864
-5.24697
-4.51727
-3.8071
-3.17149
-2.6586
-2.30634
-2.1399
-2.1704
-2.39443
-2.79459
-3.3405
-3.99033
-4.69249
-5.38718
-6.00775
-6.48175
-6.73199
-6.67781
-6.23726
-5.33048
-3.88462
-1.84025
0.841122
4.16888
8.11549
12.6098
17.5331
22.7182
27.9536
32.9928
37.5683
41.4109
44.2714
45.9435
46.2852
45.2354
42.8245
39.1757
34.4984
29.0721
23.2238
17.3001
11.6387
6.54021
2.24583
-1.07895
-3.35165
-4.57121
-4.80828
-4.18911
-2.87599
-1.04808
1.1131
3.42924
5.7185
7.77494
9.33569
10.0411
9.3974
6.75392
1.31053
-7.83312
-21.5783
-40.6794
-65.5612
-96.1262
-131.587
-170.365
-210.08
-247.676
-279.653
-302.426
-312.738
-308.098
-287.162
-250.016
-198.291
-135.105
-64.8131
7.40446
76.0619
135.942
182.645
213.049
225.614
220.519
199.583
166.019
124.04
78.3595
33.6791
-5.80674
-36.8121
-57.234
-66.2758
-64.4138
-53.2263
-35.1122
-12.9435
10.3025
31.888
49.5962
61.9239
68.1703
68.4233
63.4528
54.5369
43.2458
31.2162
19.9433
10.6143
3.99889
0.40397
-0.308606
1.34887
4.59999
8.53508
12.2444
14.937
16.0311
15.2092
12.4333
7.92268
2.10193
-4.47284
-11.197
-17.4987
-22.9088
-27.1116
-29.9716
-31.5356
-32.0126
-31.7344
-31.1046
-30.543
-30.4311
-31.0672
-32.6331
-35.1781
-38.6179
-42.7504
-47.2832
-51.8698
-56.1505
-59.7917
-62.5209
-64.1526
-64.603
-63.8933
-62.141
-59.5414
-56.3417
-52.8111
-49.2103
-45.7632
-42.634
-39.9121
-37.6059
-35.6467
-33.9015
-32.1944
-30.3323
-28.1339
-25.4566
-22.2182
-18.4112
-14.1077
-9.45336
-4.65232
0.0550809
4.41932
8.2095
11.2387
13.3837
14.5967
14.9089
14.4244
13.3071
11.7618
10.0125
8.27985
6.76108
5.61424
4.94757
4.8152
5.21861
6.11303
7.41749
9.02675
10.8236
12.6898
14.515
16.2025
17.6725
18.8623
19.7252
20.2278
20.3472
20.0686
19.3832
18.2876
16.7839
14.8812
12.5972
9.96073
7.01413
3.81468
0.435926
-3.03219
-6.4843
-9.80188
-12.8571
-15.5186
-17.6585
-19.1619
-19.9361
-19.9205
-19.0951
-17.4868
-15.1714
-12.2718
-8.95123
-5.40274
-1.83528
1.54102
4.52903
6.95641
8.68411
9.61111
9.67601
8.85622
7.16596
4.65413
1.40276
-2.4739
-6.83003
-11.4896
-16.2496
-20.8858
-25.1623
-28.8439
-31.7115
-33.5786
-34.3071
-33.8214
-32.117
-29.2649
-25.4077
-20.7506
-15.5457
-10.0723
-4.6143
0.561437
5.22547
9.20151
12.3767
14.7055
16.2075
16.9587
17.0792
16.7168
16.0296
15.1687
14.2637
13.4108
12.6664
12.0459
11.5273
11.0598
10.5749
9.99963
9.26964
8.33994
7.1931
5.84311
4.33517
2.74128
1.15259
-0.330399
-1.60837
-2.5931
-3.21537
-3.43037
-3.22024
-2.59463
-1.5909
-0.27582
1.24848
2.83264
4.26143
5.22994
5.31875
3.97557
0.513061
-5.86645
-16.01
-30.7124
-50.5758
-75.8454
-106.241
-140.818
-177.893
-215.057
-249.313
-277.317
-295.725
-301.595
-292.797
-268.362
-228.725
-175.809
-112.922
-44.4869
24.3874
88.4256
142.744
183.37
207.655
214.541
204.634
180.097
144.368
101.747
56.9044
14.3812
-21.879
-48.8966
-64.896
-69.3961
-63.1535
-47.9745
-26.4287
-1.5031
23.7577
46.5851
64.757
76.7824
81.9862
80.4953
73.138
61.2758
46.5949
30.884
15.826
2.82437
-7.11892
-13.4663
-16.1478
-15.5111
-12.2302
-7.1882
-1.35115
4.3519
9.12898
12.3966
13.8178
13.3059
10.9996
7.2141
2.37874
-3.0302
-8.55286
-13.7979
-18.4787
-22.4312
-25.6136
-28.0904
-30.0055
-31.5475
-32.9154
-34.2869
-35.7942
-37.5092
-39.4401
-41.5367
-43.7038
-45.8199
-47.7566
-49.3972
-50.651
-51.4611
-51.8064
-51.698
-51.1706
-50.272
-49.0524
-47.5552
-45.8111
-43.8362
-41.6337
-39.1986
-36.5241
-33.6083
-30.4606
-27.1048
-23.5808
-19.9427
-16.255
-12.587
-9.00677
-5.57494
-2.34039
0.662718
3.4158
5.91477
8.16747
10.1902
12.0036
13.6295
15.0869
16.3908
17.5504
18.5691
19.4455
20.1746
20.7502
21.1662
21.4191
21.5089
21.4401
21.2217
20.8664
20.3899
19.8084
19.1377
18.391
17.5788
16.7076
15.7813
14.8016
13.7699
12.6881
11.5606
10.3944
9.19927
7.98769
6.77343
5.57053
4.39209
3.24938
2.15125
1.10415
0.112424
-0.82112
-1.69453
-2.50608
-3.25384
-3.93538
-4.54771
-5.08749
-5.55123
-5.93583
-6.23896
-6.4597
-6.599
-6.66025
-6.64966
-6.57647
-6.45298
-6.29431
-6.11782
-5.94248
-5.78793
-5.67369
-5.61839
-5.6392
-5.75137
-5.96786
-6.29871
-6.74993
-7.32183
-8.00665
-8.78607
-9.62879
-10.4893
-11.3078
-12.0132
-12.5268
-12.7695
-12.6688
-12.1672
-11.2292
-9.84644
-8.04021
-5.86123
-3.38585
-0.709732
2.06036
4.81568
7.45433
9.88857
12.05
13.8917
15.3883
16.5331
17.3338
17.8077
17.9773
17.866
17.496
16.8877
16.0606
15.036
13.8398
12.5064
11.0809
9.62051
8.19384
6.87786
5.75296
4.89625
4.37411
4.23468
4.50139
5.16838
6.19853
7.52422
9.05082
10.662
12.2253
13.5966
14.6206
15.1243
14.9042
13.7049
11.1931
6.93314
0.374182
-9.14062
-22.3296
-39.8857
-62.3468
-89.9327
-122.372
-158.752
-197.422
-236.002
-271.491
-300.515
-319.671
-325.935
-317.088
-292.08
-251.287
-196.603
-131.348
-59.994
12.2609
80.0219
138.26
182.838
210.938
221.331
214.466
192.371
158.377
116.716
72.0316
28.8726
-8.77174
-37.849
-56.49
-64.1068
-61.34
-49.8737
-32.1481
-11.0125
10.6368
30.1902
45.5934
55.5243
59.4672
57.6846
51.0982
41.1049
29.3537
17.5161
7.07676
-0.830223
-5.52572
-6.82297
-5.00039
-0.71962
5.09561
11.401
17.1739
21.539
23.8624
23.8075
21.347
16.7359
10.451
3.10905
-4.62526
-12.1276
-18.8884
-24.5649
-29.0058
-32.2471
-34.484
-36.0222
-37.2191
-38.4225
-39.9156
-41.8763
-44.3545
-47.2701
-50.4303
-53.5626
-56.3584
-58.5192
-59.8008
-60.0478
-59.2153
-57.3753
-54.7075
-51.4767
-48.0003
-44.6105
-41.6157
-39.2651
-37.7222
-37.0479
-37.1949
-38.0154
-39.2778
-40.693
-41.9455
-42.7264
-42.765
-41.8556
-39.8773
-36.8052
-32.7119
-27.76
-22.1857
-16.277
-10.3463
-4.70268
0.375792
4.66505
8.01268
10.3478
11.683
12.1079
11.7757
10.8853
9.65913
8.32146
7.07856
6.10261
5.52119
5.41269
5.80757
6.69442
8.02928
9.74641
11.7684
14.0138
16.4017
18.8512
21.2786
23.5921
25.6868
27.4421
28.7238
29.3916
29.3112
28.3716
26.5025
23.6908
19.993
15.5398
10.5327
5.2314
-0.0668189
-5.05308
-9.43596
-12.9693
-15.4758
-16.8633
-17.1319
-16.3714
-14.7492
-12.4909
-9.85568
-7.10982
-4.50081
-2.2354
-0.463361
0.731558
1.33297
1.38577
0.983773
0.252588
-0.669914
-1.65326
-2.5916
-3.41631
-4.10226
-4.66702
-5.16322
-5.6653
-6.2529
-6.99332
-7.92604
-9.05149
-10.3259
-11.6626
-12.9407
-14.0179
-14.7476
-14.9968
-14.6625
-13.685
-12.056
-9.82046
-7.07259
-3.94638
-0.601849
2.79097
6.06845
9.08817
11.7406
13.956
15.707
17.0054
17.8954
18.4434
18.7257
18.8171
18.7799
18.6558
18.4618
18.1886
17.8038
17.2573
16.4908
15.4478
14.0864
12.3906
10.3809
8.12096
5.71947
3.32487
1.1137
-0.72743
-2.02424
-2.63841
-2.48912
-1.56896
0.0483574
2.20993
4.69454
7.22969
9.5103
11.2131
12.0014
11.5177
9.36474
5.08243
-1.86804
-12.0982
-26.2502
-44.9104
-68.4791
-97.0089
-130.039
-166.456
-204.426
-241.423
-274.378
-299.948
-314.885
-316.451
-302.829
-273.462
-229.254
-172.602
-107.235
-37.8733
30.2509
91.9483
142.635
178.829
198.507
201.296
188.465
162.721
127.857
88.2866
48.5305
12.7209
-15.8187
-34.8729
-43.4867
-41.9613
-31.7058
-14.9749
5.46792
26.7159
46.0663
61.3114
70.9429
74.2551
71.3435
63.0103
50.5973
35.7732
20.3053
5.84498
-6.2503
-15.0404
-20.0631
-21.3324
-19.2799
-14.6551
-8.39965
-1.51411
5.06481
10.5641
14.441
16.4125
16.4483
14.7342
11.6122
7.51111
2.876
-1.89266
-6.48357
-10.699
-14.4588
-17.786
-20.7796
-23.5801
-26.3337
-29.1614
-32.1371
-35.2755
-38.5319
-41.8113
-44.9841
-47.9062
-50.4385
-52.4647
-53.9048
-54.7232
-54.9309
-54.5827
-53.7697
-52.6085
-51.227
-49.7499
-48.2827
-46.8991
-45.63
-44.4592
-43.3244
-42.1253
-40.7371
-39.0291
-36.8842
-34.2182
-30.9941
-27.2314
-23.0069
-18.4473
-13.716
-8.99297
-4.45367
-0.247353
3.52046
6.79978
9.60033
11.9877
14.0722
15.9916
17.891
19.9014
22.1204
24.5967
27.3206
30.2212
33.1708
35.9966
38.4979
40.4674
41.7152
42.0903
41.5002
39.9234
37.4151
34.1039
30.1806
25.8803
21.4595
17.1715
13.2419
9.8487
7.10766
5.0646
3.69583
2.91535
2.58814
2.54741
2.61391
2.61508
2.40219
1.86392
0.935296
-0.398694
-2.1046
-4.1068
-6.29745
-8.54872
-10.726
-12.7002
-14.3589
-15.6139
-16.4069
-16.711
-16.711
-16.711
-16.711
-16.711
-16.711
-16.711
-16.711
-16.711
-16.711
-16.711
-16.711
-16.711
-16.711
-16.711
-16.711
-16.711
-16.711
-16.711
-16.711
