158.292
132.681
104.765
75.653
46.6614
19.1975
-5.37887
-25.8929
-41.4746
-51.6467
-56.367
-56.0241
-51.3848
-43.5021
-33.5974
-22.9291
-12.6666
-3.78187
3.02939
7.38964
9.24363
8.82654
6.60351
3.18983
-0.737081
-4.52303
-7.61036
-9.59194
-10.2418
-9.52147
-7.56369
-4.63828
-1.10559
2.63526
6.19706
9.24795
11.5435
12.9446
13.4206
13.039
11.9442
10.3296
8.40652
6.37502
4.39939
2.59136
1.00186
-0.378444
-1.61122
-2.79683
-4.05734
-5.5183
-7.29101
-9.45662
-12.0528
-15.0638
-18.4137
-21.9644
-25.5178
-28.8225
-31.586
-33.4915
-34.2185
-33.4675
-30.9849
-26.5894
-20.1944
-11.8261
-1.63414
10.1086
23.016
36.6108
50.3563
63.6948
76.0895
87.0634
96.2324
103.328
108.204
110.838
111.313
109.798
106.522
101.749
95.7578
88.8265
81.2215
73.1928
64.9679
56.7423
48.6579
40.7645
32.96
24.9082
15.9413
4.96119
-9.63788
-29.9953
-58.7265
-98.756
-153.026
-224.089
-313.617
-421.883
-547.294
-686.068
-832.126
-977.28
-1111.73
-1224.88
-1306.33
-1347.09
-1340.64
-1283.95
-1178.01
-1028.09
-843.376
-636.246
-421.073
-212.823
-25.5598
128.95
242.359
310.463
333.435
315.585
264.658
190.798
105.313
19.3824
-57.1137
-116.54
-154.113
-168.133
-159.848
-132.979
-93.0224
-46.3991
0.407349
41.6355
72.8598
91.3792
96.356
88.7128
70.8263
46.0753
18.3143
-8.65479
-31.5478
-47.9496
-56.5198
-57.0427
-50.3322
-38.0189
-22.2579
-5.40287
10.31
23.0294
31.4792
35.0567
33.8359
28.4858
20.1223
10.1204
-0.0861177
-9.19127
-16.1671
-20.3633
-21.5486
-19.8949
-15.9131
-10.3523
-4.08043
2.03762
7.24837
10.9927
12.9555
13.0793
11.544
8.71925
5.0975
1.21914
-2.4006
-5.33378
-7.28432
-8.1112
-7.82977
-6.59315
-4.65837
-2.34299
0.0212906
2.13185
3.75011
4.72479
5.0016
4.61983
3.69743
2.40784
0.952272
-0.468548
-1.67958
-2.55076
-3.00857
-3.03932
-2.68445
-2.02939
-1.18798
-0.284616
0.563338
1.26107
1.748
2.00472
2.05467
1.96075
1.81742
1.73947
1.84865
2.25961
3.06665
4.33249
6.08017
8.28877
10.8934
13.7895
16.8412
19.8925
22.7811
25.352
27.4711
29.0365
29.9862
30.3019
30.009
29.1715
27.8839
26.2604
24.4234
22.491
20.5673
18.7343
17.0479
15.5367
14.2041
13.0335
11.9942
11.0486
10.1581
9.28846
8.41299
7.51341
6.57899
5.60413
4.58492
3.51559
2.38556
1.17759
-0.132506
-1.57464
-3.18197
-4.98766
-7.0215
-9.30682
-11.8581
-14.6796
-17.7636
-21.0901
-24.6249
-28.3177
-32.0991
-35.8778
-39.538
-42.9379
-45.9116
-48.2734
-49.8266
-50.3772
-49.7497
-47.8069
-44.4686
-39.7285
-33.6659
-26.4507
-18.3385
-9.65686
-0.783261
7.88397
15.9581
23.0965
29.0293
33.5809
36.6821
38.3704
38.7797
38.1194
36.6464
34.6334
32.3374
29.9726
27.6897
25.5635
23.5874
21.6697
19.6262
17.1616
13.8308
8.98054
1.67241
-9.39779
-25.9615
-50.1894
-84.62
-131.981
-194.887
-275.434
-374.712
-492.316
-625.926
-771.034
-920.921
-1066.91
-1198.92
-1306.33
-1379.02
-1408.47
-1388.85
-1317.92
-1197.49
-1033.53
-835.833
-617.116
-391.893
-175.044
19.6306
180.744
300.374
374.708
404.226
393.402
349.992
284.001
206.471
128.239
58.8152
5.49901
-27.1815
-37.665
-27.1982
0.628358
40.5669
86.5206
132.364
172.678
203.321
221.783
227.297
220.734
204.297
181.091
154.627
128.324
105.09
87.0032
75.1463
69.5808
69.4615
73.2558
79.0301
84.7593
88.616
89.2037
85.7099
77.9673
66.4237
52.0342
36.0973
20.0614
5.32859
-6.91691
-15.8388
-21.023
-22.4925
-20.6676
-16.2803
-10.2594
-3.60206
2.74968
8.01368
11.6421
13.3599
13.1648
11.2948
8.16737
4.30325
0.243816
-3.52534
-6.6357
-8.87493
-10.2004
-10.7273
-10.6949
-10.4185
-10.2327
-10.4379
-11.254
-12.79
-15.0308
-17.8427
-20.9951
-24.1937
-27.121
-29.4771
-31.0158
-31.5714
-31.074
-29.5524
-27.1244
-23.9784
-20.3479
-16.4838
-12.6267
-8.98385
-5.71085
-2.90201
-0.587597
1.2613
2.72188
3.90434
4.93412
5.93375
7.00629
8.22187
9.60875
11.1495
12.7826
14.4095
15.9054
17.1338
17.9625
18.2791
18.0046
17.1039
15.5912
13.5298
11.0266
8.22253
5.27793
2.35755
-0.385348
-2.82264
-4.86149
-6.44985
-7.57691
-8.2687
-8.57985
-8.58295
-8.35705
-7.97717
-7.50596
-6.98864
-6.45146
-5.90359
-5.34155
-4.7555
-4.13613
-3.48145
-2.80287
-2.1301
-1.51451
-1.03061
-0.774916
-0.861979
-1.41699
-2.56509
-4.41787
-7.05805
-10.524
-14.7957
-19.785
-25.3303
-31.1991
-37.0969
-42.6829
-47.5918
-51.4581
-53.943
-54.7584
-53.6886
-50.6061
-45.4814
-38.3865
-29.4909
-19.0536
-7.40857
5.05225
17.8993
30.6872
42.9763
54.3538
64.4517
72.9613
79.6433
84.3337
86.9458
87.4711
85.9787
82.6152
77.6036
71.2406
63.8891
55.9636
47.9047
40.1411
33.0362
26.8186
21.4968
16.7602
11.8734
5.57377
-4.0081
-19.3816
-43.65
-80.3522
-133.166
-205.459
-299.711
-416.856
-555.636
-712.093
-879.325
-1047.62
-1205.02
-1338.35
-1434.53
-1482.14
-1472.93
-1403.06
-1273.91
-1092.3
-869.983
-622.642
-368.259
-125.271
89.3558
261.869
383.065
449.067
461.475
426.877
355.834
261.457
157.805
58.277
-25.7921
-86.1888
-118.426
-121.864
-99.3745
-56.6246
-1.10232
58.9739
115.722
162.511
194.631
209.653
207.481
190.107
161.132
125.147
87.0546
51.4224
21.9534
1.12026
-10.0044
-11.7221
-5.51058
6.30146
20.9333
35.5652
47.7116
55.5103
57.9009
54.6794
46.4367
34.4001
20.2086
5.65758
-7.55053
-18.0192
-24.8094
-27.5178
-26.2781
-21.6939
-14.7177
-6.49806
1.78341
9.06296
14.5154
17.6328
18.2552
16.5544
12.9776
8.16274
2.83784
-2.27977
-6.57278
-9.59116
-11.0914
-11.0455
-9.62238
-7.14551
-4.0366
-0.752183
2.27739
4.69916
6.27374
6.89343
6.58175
5.4767
3.80128
1.82649
-0.167799
-1.92897
-3.26047
-4.04061
-4.22992
-3.86736
-3.05713
-1.94864
-0.712942
0.481093
1.48776
2.20037
2.56055
2.56046
2.23835
1.66895
0.950128
0.188118
-0.516779
-1.08238
-1.4534
-1.60634
-1.55018
-1.32362
-0.989226
-0.625791
-0.319564
-0.155499
-0.209249
-0.540583
-1.18871
-2.16976
-3.47652
-5.08019
-6.93399
-8.97798
-11.1446
-13.3641
-15.5696
-17.7012
-19.7077
-21.5481
-23.191
-24.6125
-25.7949
-26.7244
-27.3901
-27.7836
-27.9005
-27.7419
-27.3168
-26.6441
-25.7536
-24.6854
-23.4873
-22.2109
-20.9076
-19.6236
-18.3976
-17.26
-16.2337
-15.3377
-14.5899
-14.0104
-13.6218
-13.4472
-13.5048
-13.8002
-14.3169
-15.0078
-15.7891
-16.5382
-17.0975
-17.283
-16.8989
-15.7551
-13.6864
-10.5701
-6.3405
-0.998468
5.38558
12.6747
20.674
29.1436
37.8144
46.405
54.6376
62.2533
69.0236
74.7597
79.3178
82.6019
84.5634
85.1982
84.5427
82.6677
79.6717
75.6732
70.801
65.1802
58.9118
52.0385
44.4932
36.0243
26.0999
13.796
-2.31169
-24.2243
-54.5245
-96.267
-152.717
-226.924
-321.138
-436.144
-570.603
-720.535
-879.089
-1036.7
-1181.72
-1301.41
-1383.37
-1417.04
-1395.14
-1314.88
-1178.64
-994.048
-773.42
-532.592
-289.311
-61.3665
135.278
288.127
389.358
436.462
432.246
384.238
303.572
203.547
98.0141
-0.17328
-80.4808
-135.643
-162.155
-160.282
-133.637
-88.395
-32.2894
26.4765
80.2668
122.875
150.122
160.152
153.41
132.341
100.88
63.8123
26.0903
-7.78795
-34.2865
-51.1631
-57.607
-54.1844
-42.6195
-25.455
-5.64685
13.8486
30.4445
42.2071
48.0284
47.6771
41.7346
31.4368
18.4496
4.61596
-8.29434
-18.7985
-25.857
-28.9581
-28.1278
-23.8725
-17.0668
-8.80859
-0.26006
7.50157
13.6081
17.4853
18.8931
17.9196
14.9361
10.5211
5.36711
0.183038
-4.39511
-7.87503
-9.95377
-10.5351
-9.71939
-7.77088
-5.06751
-2.04252
0.874833
3.31204
4.99386
5.76698
5.60762
4.61264
2.97708
0.961784
-1.14395
-3.05992
-4.54843
-5.43986
-5.64817
-5.17531
-4.1048
-2.58622
-0.812912
1.00381
2.66077
3.98613
4.85727
5.21145
5.04873
4.42707
3.45115
2.25649
0.991186
-0.202264
-1.20293
-1.92351
-2.31731
-2.37974
-2.14479
-1.6771
-1.06125
-0.389662
0.249184
0.780911
1.15264
1.33704
1.33283
1.16206
0.864881
0.492592
0.100098
-0.261273
-0.54974
-0.737214
-0.811301
-0.775138
-0.645315
-0.448343
-0.216272
0.0179237
0.224571
0.380657
0.472002
0.494083
0.451565
0.356732
0.227125
0.0827774
-0.0565695
-0.173914
-0.256841
-0.298588
-0.298306
-0.26057
-0.194357
-0.111803
-0.0271304
0.0438715
0.0835349
0.0711381
-0.0188636
-0.218588
-0.56758
-1.11181
-1.90001
-2.97708
-4.37493
-6.10192
-8.13278
-10.4012
-12.7972
-15.1699
-17.3385
-19.1074
-20.287
-20.7158
-20.2815
-18.938
-16.7154
-13.7225
-10.1397
-6.20403
-2.18795
1.62651
4.97423
7.63167
9.43669
10.3015
10.2175
9.25184
7.53605
5.2488
2.5946
-0.218858
-3.0021
-5.60163
-7.9124
-9.88405
-11.5212
-12.8794
-14.061
-15.2152
-16.5501
-18.365
-21.1077
-25.46
-32.4455
-43.5435
-60.7801
-86.7576
-124.575
-177.603
-249.081
-341.558
-456.212
-592.159
-745.872
-910.852
-1077.69
-1234.57
-1368.27
-1465.5
-1514.48
-1506.5
-1437.27
-1307.8
-1124.62
-899.449
-648.055
-388.732
-140.367
79.5359
256.662
381.296
449.166
461.634
425.236
350.668
251.341
141.737
35.7463
-54.7904
-121.198
-158.615
-166.149
-146.551
-105.499
-50.6032
9.71328
67.3172
115.319
148.773
165.072
164.012
147.552
119.342
84.0828
46.8324
12.3374
-15.5241
-34.1321
-42.3167
-40.3477
-29.7463
-12.9601
7.04315
27.2042
44.7663
57.5901
64.3577
64.6515
58.9128
48.2963
34.4509
19.2616
4.5892
-7.9592
-17.204
-22.4947
-23.7346
-21.3339
-16.1046
-9.11735
-1.54121
5.51029
11.1087
14.6021
15.6603
14.2746
10.7156
5.4612
-0.893606
-7.73058
-14.4926
-20.7484
-26.2312
-30.849
-34.6681
-37.8757
-40.7294
-43.5022
-46.4314
-49.6787
-53.3058
-57.2666
-61.4175
-65.5397
-69.3714
-72.6442
-75.117
-76.6051
-77
-76.2775
-74.4966
-71.7873
-68.3323
-64.3447
-60.0437
-55.6343
-51.2894
-47.139
-43.2651
-39.7023
-36.4439
-33.4504
-30.6602
-28.0001
-25.3952
-22.7762
-20.0849
-17.2779
-14.3277
-11.223
-7.96765
-4.57991
-1.09053
2.45834
6.01425
9.51517
12.8901
16.0598
18.9383
21.4353
23.4606
24.9308
25.7778
25.9597
25.4714
24.3548
22.7052
20.6723
18.4548
16.2868
14.4188
13.0923
12.5141
12.8312
14.1113
16.3311
19.3744
23.0407
27.0635
31.1347
34.9347
38.1612
40.5557
41.9234
42.1448
41.1783
39.0542
35.8616
31.7312
26.8162
21.2739
15.2519
8.87779
2.25606
-4.53031
-11.4133
-18.3301
-25.2131
-31.979
-38.523
-44.7146
-50.3998
-55.4067
-59.5558
-62.6718
-64.5967
-65.2011
-64.3941
-62.13
-58.412
-53.295
-46.8853
-39.3408
-30.8688
-21.7229
-12.1971
-2.61649
6.6761
15.3374
23.044
29.5145
34.5295
37.9496
39.7256
39.9023
38.6135
36.0702
32.5424
28.3378
23.78
19.1872
14.8549
11.0424
7.96173
5.76927
4.55416
4.32044
4.95681
6.18915
7.51258
8.10374
6.7207
1.60628
-9.57876
-29.7574
-62.332
-110.938
-179.03
-269.32
-383.096
-519.534
-675.118
-843.31
-1014.6
-1177.04
-1317.17
-1421.43
-1477.73
-1477
-1414.58
-1291.12
-1112.85
-891.218
-641.828
-382.888
-133.301
89.3081
270.418
400.034
473.55
491.975
461.5
392.506
298.148
192.727
90.0323
1.88467
-62.9883
-99.6171
-106.962
-87.6108
-47.079
7.16504
66.8105
123.8
171.282
204.317
220.277
218.919
202.16
173.607
137.93
100.166
65.0573
36.4915
17.1067
8.09738
9.219
18.9725
34.9258
54.1183
73.4875
90.2634
102.283
108.194
107.533
100.688
88.7509
73.3028
56.1636
39.1386
23.799
11.3185
2.37938
-2.8467
-4.65158
-3.6907
-0.849949
2.89943
6.63788
9.60985
11.3
11.4681
10.1432
7.58285
4.20705
0.517778
-2.98287
-5.86598
-7.83165
-8.74173
-8.62741
-7.67275
-6.17811
-4.50998
-3.04473
-2.11429
-1.96105
-2.70749
-4.34378
-6.73413
-9.63972
-12.7542
-15.7463
-18.3027
-20.1661
-21.163
-21.2185
-20.3562
-18.6848
-16.3742
-13.6249
-10.6366
-7.58143
-4.58558
-1.72311
0.978478
3.52276
5.9229
8.17939
10.262
12.1
13.5832
14.574
14.9281
14.5214
13.2776
11.1914
8.34319
4.90137
1.11139
-2.72782
-6.29685
-9.29329
-11.4683
-12.6568
-12.7959
-11.9311
-10.2065
-7.8442
-5.11277
-2.29266
0.358822
2.63701
4.41053
5.63068
6.32916
6.6051
6.6038
6.4908
6.42477
6.53303
6.89256
7.51835
8.36009
9.30676
10.1983
10.8428
11.0369
10.5885
9.3378
7.17635
4.06106
0.0218379
-4.83824
-10.3505
-16.2955
-22.4238
-28.4805
-34.2307
-39.4828
-44.1067
-48.0449
-51.314
-53.9973
-56.2274
-58.1636
-59.9639
-61.758
-63.6236
-65.5705
-67.5339
-69.379
-70.9155
-71.9212
-72.1698
-71.4601
-69.6427
-66.6399
-62.4564
-57.1807
-50.9753
-44.0593
-36.6849
-29.1119
-21.5835
-14.3061
-7.43563
-1.07168
4.74109
10.0053
14.759
19.0611
22.9776
26.5688
29.8797
32.9332
35.7268
38.2322
40.3967
42.1474
43.3948
44.0367
43.9571
43.0162
41.0259
37.7028
32.5965
24.9918
13.7958
-2.57037
-26.2436
-59.9114
-106.682
-169.799
-252.175
-355.795
-481.017
-625.922
-785.819
-953.059
-1117.27
-1266.07
-1386.16
-1464.84
-1491.55
-1459.38
-1366.21
-1215.39
-1015.68
-780.593
-527.1
-273.88
-39.3557
160.243
312.543
410.214
451.53
440.278
385.027
297.891
192.965
84.6256
-14.0739
-92.7301
-144.505
-166.547
-159.901
-128.974
-80.6485
-23.1836
34.934
86.0564
124.228
145.744
149.378
136.276
109.57
73.7869
34.1394
-4.18952
-36.6899
-60.0161
-72.2833
-73.1526
-63.715
-46.2091
-23.6271
0.732943
23.7048
42.6299
55.6299
61.7535
60.993
54.1813
42.7964
28.7069
13.897
0.208053
-10.874
-18.3626
-21.8359
-21.4244
-17.7302
-11.6969
-4.45037
2.86483
9.233
13.882
16.3541
16.5288
14.6006
11.0183
6.39898
1.42889
-3.23479
-7.04916
-9.64887
-10.8816
-10.8136
-9.70672
-7.97248
-6.10897
-4.63049
-3.99841
-4.5615
-6.51264
-9.86617
-14.4577
-19.9654
-25.9493
-31.9029
-37.3118
-41.7102
-44.7304
-46.1396
-45.8597
-43.969
-40.6873
-36.3452
-31.3447
-26.1128
-21.0569
-16.5253
-12.7768
-9.9634
-8.12581
-7.20185
-7.04534
-7.4523
-8.1908
-9.03044
-9.76805
-10.247
-10.3682
-10.0935
-9.43996
-8.46902
-7.27125
-5.94939
-4.60235
-3.3118
-2.1329
-1.08991
-0.176456
0.639921
1.41006
2.19372
3.04964
4.02656
5.15613
6.44842
7.89039
9.44708
11.0652
12.6784
14.2138
15.5985
16.7658
17.6605
18.2429
18.4912
18.4023
17.9911
17.2887
16.3389
15.195
13.915
12.5574
11.1768
9.82041
8.52502
7.31502
6.20153
5.18241
4.24292
3.35666
2.48632
1.58411
0.591617
-0.560345
-1.95143
-3.6701
-5.80988
-8.46311
-11.7121
-15.6187
-20.2126
-25.4811
-31.3614
-37.7359
-44.4338
-51.2373
-57.8916
-64.12
-69.6397
-74.1782
-77.4893
-79.3662
-79.6538
-78.2564
-75.1448
-70.3594
-64.0111
-56.2785
-47.4021
-37.675
-27.4298
-17.0215
-6.80888
2.86653
11.7012
19.4487
25.9347
31.0673
34.8396
37.3256
38.6677
39.0581
38.7153
37.8581
36.6806
35.3294
33.8846
32.3431
30.6008
28.4277
25.4293
20.9899
14.1953
3.74402
-12.1387
-35.751
-69.8923
-117.724
-182.477
-266.996
-373.14
-501.099
-648.756
-811.209
-980.594
-1146.34
-1295.87
-1415.73
-1493.07
-1517.2
-1481.12
-1382.64
-1225.06
-1017.2
-772.659
-508.621
-244.063
2.18934
213.428
376.754
484.304
533.864
528.826
477.496
391.894
286.197
175.038
71.8806
-12.352
-70.2387
-98.3367
-97.1504
-70.6429
-25.3868
30.5086
88.5443
140.907
181.346
205.774
212.532
202.33
177.906
143.468
104.007
64.5965
29.7451
2.89659
-13.8891
-20.0458
-16.4121
-4.97528
11.5026
29.9169
47.2504
60.9478
69.1925
71.0614
66.5516
56.4877
42.3347
25.9498
9.3103
-5.74648
-17.738
-25.6862
-29.1878
-28.4074
-23.9988
-16.9758
-8.54965
0.0390386
7.67574
13.4948
16.9583
17.8865
16.4395
13.06
8.38602
3.14928
-1.92698
-6.21827
-9.267
-10.8225
-10.8515
-9.51994
-7.15377
-4.18304
-1.08022
1.70046
3.77515
4.86871
4.8363
3.66726
1.47268
-1.54021
-5.10257
-8.92229
-12.721
-16.2648
-19.3861
-21.9928
-24.0657
-25.6444
-26.8059
-27.6379
-28.2134
-28.5706
-28.7006
-28.5463
-28.0113
-26.9783
-25.3327
-22.9873
-19.9052
-16.1153
-11.7201
-6.89257
-1.86411
3.09576
7.70474
11.6951
14.8397
16.9736
18.0086
17.9402
16.8447
14.87
12.2178
9.12307
5.83083
2.57328
-0.44974
-3.08577
-5.23872
-6.87097
-7.99895
-8.68258
-9.01032
-9.08168
-8.98954
-8.80446
-8.56318
-8.26252
-7.85963
-7.27831
-6.421
-5.18493
-3.48084
-1.25193
1.50918
4.74802
8.34249
12.105
15.7932
19.1285
21.8212
23.598
24.2309
23.5615
21.5191
18.1293
13.5116
7.86666
1.45466
-5.43289
-12.5031
-19.4896
-26.1746
-32.4016
-38.0788
-43.1712
-47.6852
-51.6484
-55.0873
-58.0088
-60.3866
-62.1566
-63.2208
-63.4595
-62.7488
-60.9818
-58.0888
-54.0537
-48.9237
-42.8109
-35.8863
-28.3653
-20.4892
-12.5041
-4.63898
2.91184
10.0035
16.5492
22.5237
27.9609
32.9454
37.5997
42.0666
46.4889
50.9881
55.6455
60.4869
65.4756
70.5123
75.4427
80.0672
84.1479
87.4028
89.4776
89.89
87.9411
82.6043
72.4055
55.3287
28.7862
-10.2998
-65.2607
-139.268
-234.757
-352.732
-492.068
-648.942
-816.532
-985.121
-1142.68
-1275.9
-1371.63
-1418.42
-1408.13
-1337.23
-1207.52
-1026.38
-806.171
-563.085
-315.479
-81.9068
120.861
279.597
385.924
437.016
435.635
389.511
310.178
211.445
107.692
12.224
-64.1205
-113.971
-133.93
-124.561
-89.9203
-36.7011
26.8426
92.0629
151.014
197.355
226.96
238.207
231.914
210.991
179.868
143.786
108.068
77.4448
55.5294
44.4792
44.8736
55.7994
75.1111
99.8158
126.521
151.883
173.001
187.713
194.766
193.862
185.575
171.182
152.423
131.243
109.541
88.9565
70.7236
55.5914
43.8184
35.2283
29.3129
25.3616
22.5965
20.2953
17.887
15.0106
11.5354
7.54416
3.28738
-0.882202
-4.58251
-7.4719
-9.30651
-9.97866
-9.53279
-8.1589
-6.16578
-3.93912
-1.8908
-0.406339
0.202501
-0.265696
-1.88041
-4.57451
-8.15605
-12.3342
-16.7551
-21.0422
-24.8365
-27.8315
-29.7984
-30.6013
-30.2003
-28.6437
-26.0526
-22.5994
-18.4843
-13.9133
-9.0791
-4.14785
0.747342
5.50674
10.0584
14.3483
18.3286
21.9459
25.132
27.8006
29.848
31.1627
31.6387
31.1931
29.7847
27.4295
24.2109
20.2817
15.8578
11.2022
6.6015
2.33732
-1.34453
-4.26427
-6.33407
-7.57671
-8.13431
-8.26505
-8.3266
-8.74657
-9.98167
-12.4691
-16.575
-22.5466
-30.4736
-40.2646
-51.6428
-64.1626
-77.2455
-90.2325
-102.446
-113.257
-122.142
-128.736
-132.861
-134.54
-133.982
-131.555
-127.742
-123.08
-118.103
-113.289
-109.007
-105.491
-102.819
-100.919
-99.5894
-98.5323
-97.3955
-95.82
-93.4843
-90.1404
-85.6388
-79.9391
-73.1075
-65.3009
-56.7429
-47.694
-38.4207
-29.1682
-20.138
-11.4737
-3.25599
4.49499
11.8101
18.7565
25.4213
31.8935
38.2482
44.5336
50.7612
56.9008
62.8803
68.5901
73.8921
78.6327
82.6585
85.8335
88.0552
89.268
89.4722
88.7253
87.1374
84.8576
82.0545
78.8897
75.4849
71.8842
68.0066
63.5916
58.1333
50.8068
40.3917
25.2072
3.08099
-28.6173
-72.8422
-132.607
-210.576
-308.522
-426.711
-563.314
-713.952
-871.518
-1026.39
-1167.03
-1281.09
-1356.68
-1383.88
-1356.16
-1271.42
-1132.68
-948.011
-729.984
-494.432
-258.84
-40.4966
145.326
286.947
377.403
415
403.237
350.138
267.104
167.442
64.7704
-28.4942
-102.403
-150.351
-169.489
-160.666
-127.938
-77.7456
-17.8939
43.5352
99.1892
143.261
172.029
184.092
180.289
163.351
137.361
107.098
77.3662
52.3916
35.3499
28.0772
30.9749
43.1017
62.4205
86.1544
111.195
134.506
153.48
166.199
171.592
169.465
160.433
145.759
127.133
106.436
85.5002
65.9128
48.8706
35.1027
24.8592
17.9591
13.883
11.8934
11.1614
10.8859
10.3883
9.17632
6.97258
3.70995
-0.500548
-5.42093
-10.7468
-16.168
-21.4201
-26.3222
-30.7961
-34.8663
-38.6437
-42.2961
-46.0115
-49.96
-54.26
-58.9547
-63.9993
-69.2628
-74.5415
-79.582
-84.1104
-87.862
-90.6082
-92.1773
-92.4651
-91.4369
-89.1207
-85.5923
-80.9591
-75.3422
-68.8625
-61.6322
-53.7524
-45.3175
-36.4229
-27.1748
-17.699
-8.1458
1.31119
10.4813
19.1693
27.1917
34.3938
40.6659
45.9554
50.2724
53.6884
56.3286
58.3571
59.959
61.3194
62.6045
63.9452
65.4247
67.0729
68.866
70.7309
72.5537
74.1906
75.4795
76.2524
76.3473
75.6193
73.9521
71.2679
67.5368
62.7833
57.0913
50.6037
43.5188
36.0804
28.5638
21.2577
14.443
8.37187
3.24774
-0.790675
-3.67969
-5.43416
-6.14371
-5.96201
-5.09032
-3.75724
-2.19673
-0.627145
0.766583
1.84546
2.52217
2.75938
2.56122
1.95935
0.996371
-0.290307
-1.88076
-3.77845
-6.00817
-8.60599
-11.6028
-15.0043
-18.7721
-22.8088
-26.9519
-30.9779
-34.6175
-37.5807
-39.588
-40.4038
-39.8679
-37.9189
-34.6079
-30.0991
-24.6582
-18.6284
-12.3991
-6.36915
-0.910652
3.66351
7.12428
9.34094
10.2842
10.018
8.68199
6.46657
3.58466
0.243582
-3.37952
-7.15631
-11.0193
-14.9687
-19.079
-23.5099
-28.5303
-34.5607
-42.2372
-52.4944
-66.6565
-86.5154
-114.365
-152.953
-205.317
-274.465
-362.911
-472.079
-601.66
-749.021
-908.795
-1072.79
-1230.31
-1368.9
-1475.55
-1538.1
-1546.78
-1495.67
-1383.7
-1215.22
-999.862
-751.792
-488.347
-228.279
10.2014
211.317
363.318
459.588
499.116
486.325
430.278
343.404
239.908
134.092
38.7815
-35.9594
-83.6805
-101.91
-92.0195
-58.6497
-8.80541
49.2418
107.092
157.256
193.976
213.749
215.529
200.592
172.144
134.721
93.492
53.5551
19.3141
-5.99385
-20.5765
-24.1574
-17.8511
-3.87937
14.8202
35.0337
53.6976
68.2634
76.9591
78.9283
74.2419
63.7934
49.1054
32.078
14.718
-1.11669
-13.9275
-22.7197
-27.0694
-27.1145
-23.4779
-17.1394
-9.27915
-1.11336
6.2547
11.9527
15.4141
16.4054
15.0084
11.5634
6.58794
0.681288
-5.56787
-11.6608
-17.245
-22.1423
-26.3485
-30.0077
-33.3677
-36.7243
-40.3644
-44.5157
-49.3087
-54.7559
-60.7498
-67.0771
-73.4468
-79.5276
-84.9886
-89.5381
-92.9559
-95.1169
-96.0014
-95.6952
-94.3769
-92.2975
-89.7517
-87.047
-84.4718
-82.2658
-80.5964
-79.543
-79.0911
-79.1355
-79.4946
-79.9314
-80.1808
-79.9789
-79.0916
-77.3388
-74.6118
-70.883
-66.2058
-60.7065
-54.5692
-48.0161
-41.2863
-34.6148
-28.215
-22.265
-16.9
-12.209
-8.23643
-4.9869
-2.43231
-0.519769
0.820631
1.66873
2.10854
2.22372
2.09435
1.7946
1.39119
0.942269
0.496558
0.0927745
-0.240761
-0.486207
-0.63589
-0.691524
-0.662928
-0.566269
-0.421954
-0.252302
-0.0792373
0.0778075
0.203575
0.2881
0.327181
0.322203
0.279362
0.208446
0.121328
0.0303729
-0.0530395
-0.119716
-0.163429
-0.181196
-0.17304
-0.141277
-0.0894619
-0.0211727
0.0611791
0.157322
0.26979
0.404303
0.570056
0.780308
1.05389
1.41824
1.91449
2.60439
3.57818
4.96146
6.91875
9.65098
13.3853
18.3564
24.7803
32.8235
42.5708
53.996
66.9422
81.1122
96.0752
111.288
126.133
139.963
152.159
162.182
169.623
174.246
176.004
175.052
171.728
166.527
160.05
152.947
145.857
139.343
133.845
129.637
126.808
125.261
124.716
124.719
124.649
123.692
120.805
114.646
103.501
85.2207
57.2118
16.5185
-39.9627
-115.115
-211.085
-328.671
-466.691
-621.465
-786.531
-952.729
-1108.7
-1241.83
-1339.53
-1390.7
-1387.24
-1325.23
-1205.78
-1035.22
-824.703
-589.208
-345.997
-112.847
93.8201
260.617
378.499
443.527
457.031
425.155
357.886
267.707
168.047
71.7465
-10.2985
-70.1559
-103.444
-109.454
-90.8369
-52.9181
-2.77393
51.8122
103.367
145.601
174.049
186.412
182.61
164.549
135.667
100.35
63.2846
28.8506
0.615528
-19.0144
-28.9603
-29.4537
-21.8592
-8.37507
8.33508
25.5279
40.732
52.0251
58.2114
58.8873
54.3996
45.7148
34.2245
21.5204
9.16994
-1.47953
-9.44536
-14.1916
-15.6446
-14.1485
-10.3724
-5.1873
0.468538
5.7171
9.84585
12.3796
13.114
12.1102
9.65621
6.20393
2.29161
-1.53577
-4.79821
-7.1362
-8.34467
-8.3834
-7.36521
-5.5257
-3.18059
-0.677248
1.6527
3.53377
4.77568
5.28856
5.0838
4.26204
2.99117
1.47804
-0.0616733
-1.43158
-2.4773
-3.1015
-3.27014
-3.01005
-2.3992
-1.55144
-0.598394
0.328986
1.11681
1.68081
1.97375
1.98752
1.74997
1.31758
0.765397
0.175543
-0.37381
-0.817876
-1.11198
-1.23504
-1.18974
-0.999622
-0.703974
-0.351176
0.00833932
0.328642
0.57361
0.72043
0.761054
0.701645
0.560294
0.363479
0.141843
-0.0741038
-0.257803
-0.389571
-0.45835
-0.462174
-0.407459
-0.307303
-0.179126
-0.0420277
0.0858012
0.189266
0.257938
0.286875
0.276655
0.232721
0.164178
0.0822618
-0.00130488
-0.075835
-0.132913
-0.167212
-0.176837
-0.163196
-0.130475
-0.0848168
-0.0333369
0.0168706
0.0596255
0.0903408
0.106431
0.107426
0.0948021
0.0715936
0.0418437
0.00998886
-0.0197404
-0.0438301
-0.059849
-0.0666389
-0.0643255
-0.0541665
-0.0382726
-0.0192519
0.000170966
0.0175102
0.030806
0.0388151
0.0410915
0.0379574
0.0303814
0.0197883
0.00783065
-0.00384242
-0.0137928
-0.0209518
-0.0247153
-0.0249703
-0.0220573
-0.016679
-0.00977378
-0.00237223
0.00454189
0.0101506
0.0138871
0.01548
0.0149566
0.0126074
0.00892181
0.00450525
-9.10827e-06
-0.00404303
-0.00714011
-0.00901023
-0.00954852
-0.00883108
-0.00711007
-0.0049168
-0.00366041
-0.00777184
-0.0306308
-0.108134
-0.325358
-0.862509
-2.0653
-4.54106
-9.27495
-17.7507
-32.0487
-54.8839
-89.539
-139.653
-208.836
-300.117
-415.267
-554.07
-713.695
-888.271
-1068.84
-1243.74
-1399.48
-1522.03
-1598.37
-1618.12
-1575.02
-1468
-1301.69
-1086.24
-836.476
-570.462
-307.652
-66.8672
135.649
287.847
382.977
420.052
403.647
343.072
251.063
142.162
31.0067
-69.2676
-148.326
-199.505
-220.182
-211.646
-178.522
-127.86
-68.0267
-7.56015
45.8872
86.3818
110.248
116.277
105.608
81.3371
47.9274
10.511
-25.8146
-56.6114
-78.5778
-89.8334
-89.9985
-80.0796
-62.1959
-39.1991
-14.2432
9.63565
29.8789
44.6669
53.0606
55.0178
51.297
43.2722
32.6911
21.4138
11.1653
3.33279
-1.17365
-1.98498
0.737145
6.37608
13.9845
22.4368
30.5868
37.4118
42.1253
44.2478
43.632
40.4439
35.1065
28.2178
20.4558
12.4843
4.87139
-1.96978
-7.81303
-12.6221
-16.5274
-19.7826
-22.7086
-25.6342
-28.8411
-32.5211
-36.749
-41.4733
-46.5242
-51.6363
-56.481
-60.7037
-63.9626
-65.962
-66.4805
-65.3899
-62.6659
-58.3896
-52.7413
-45.9872
-38.4606
-30.5378
-22.6116
-15.0635
-8.23688
-2.41251
2.21
5.52455
7.52277
8.2897
7.99149
6.8563
5.15041
3.15198
1.12534
-0.70175
-2.15553
-3.12695
-3.57493
-3.52226
-3.04531
-2.25897
-1.29913
-0.304571
0.599332
1.31366
1.77447
1.95624
1.87047
1.56007
1.0908
0.541525
-0.0048976
-0.468176
-0.773113
-0.847537
-0.616202
0.00751767
1.12936
2.87816
5.40324
8.86348
13.4079
19.1493
26.1343
34.3147
43.5245
53.4681
63.7236
73.762
82.983
90.7642
96.5182
99.7512
100.116
97.4514
91.8055
83.4347
72.7819
60.4343
47.0666
33.3743
20.0075
7.51196
-3.71614
-13.4557
-21.6645
-28.4614
-34.0896
-38.8671
-43.1291
-47.1716
-51.2018
-55.3005
-59.4023
-63.2939
-66.6305
-68.9695
-69.8158
-68.6764
-65.116
-58.8105
-49.5914
-37.4782
-22.6934
-5.65986
13.0218
32.6122
52.2865
71.197
88.5371
103.604
115.85
124.926
130.699
133.264
132.927
130.178
125.643
120.034
114.081
108.477
103.818
100.558
98.9758
99.1588
100.997
104.187
108.237
112.466
115.987
117.67
116.09
109.458
95.5657
71.7703
35.0556
-17.7868
-89.8284
-183.521
-300.094
-438.9
-596.836
-767.96
-943.456
-1112.02
-1260.69
-1376.11
-1446.03
-1460.86
-1415.12
-1308.35
-1145.67
-937.46
-698.52
-446.598
-200.561
21.6024
204.656
337.657
414.958
436.576
407.889
338.738
242.062
132.265
23.5224
-71.7618
-144.176
-188.07
-201.821
-187.606
-150.734
-98.6885
-39.9824
16.9841
64.9465
98.5563
114.848
113.368
95.9772
66.3844
29.5003
-9.30026
-44.9002
-73.0591
-90.862
-96.9593
-91.5858
-76.3801
-54.0457
-27.9113
-1.45607
22.1384
40.3552
51.5915
55.2702
51.8143
42.5007
29.2227
14.2006
-0.319391
-12.3404
-20.3321
-23.3702
-21.1884
-14.1454
-3.11985
10.6461
25.7312
40.7209
54.3721
65.739
74.2485
79.7215
82.343
82.5916
81.1405
78.7461
76.1402
73.9381
72.5742
72.268
73.0235
74.6564
76.8438
79.1864
81.2729
82.7401
83.3182
82.8596
81.347
78.8836
75.6668
71.9515
68.0088
64.0852
60.3687
56.9663
53.8941
51.0824
48.3929
45.646
42.6538
39.2535
35.3374
30.8733
25.9159
20.6039
15.1464
9.79934
4.83544
0.511797
-2.96021
-5.43922
-6.86926
-7.28456
-6.80369
-5.61402
-3.94898
-2.06129
-0.195498
1.43682
2.67629
3.42768
3.66359
3.42007
2.78543
1.88412
0.858014
-0.152411
-1.02476
-1.6675
-2.02758
-2.09271
-1.88832
-1.47033
-0.914886
-0.306834
0.271747
0.751387
1.08249
1.23938
1.22097
1.04832
0.759675
0.403871
0.0331287
-0.303869
-0.567736
-0.732388
-0.786956
-0.735605
-0.595466
-0.393172
-0.160627
0.0692241
0.265783
0.40253
0.45648
0.40514
0.221286
-0.133541
-0.715403
-1.60246
-2.89584
-4.71533
-7.18922
-10.4384
-14.5559
-19.5852
-25.4987
-32.1819
-39.4255
-46.928
-54.3098
-61.1397
-66.9699
-71.378
-74.0096
-74.6178
-73.094
-69.485
-63.9959
-56.9753
-48.8863
-40.2648
-31.6707
-23.6365
-16.6194
-10.9628
-6.86931
-4.39018
-3.42978
-3.76485
-5.07526
-6.98206
-9.08812
-11.0164
-12.442
-13.1153
-12.8743
-11.6481
-9.45231
-6.38058
-2.59846
1.65562
6.0547
10.1471
13.2965
14.5995
12.7879
6.13476
-7.61172
-31.2284
-67.9138
-121.045
-193.779
-288.5
-406.176
-545.695
-703.316
-872.37
-1043.32
-1204.28
-1341.94
-1442.92
-1495.29
-1490.14
-1422.91
-1294.25
-1110.42
-882.84
-627.144
-361.635
-105.408
123.625
310.559
444.955
521.748
541.515
510.103
437.677
337.344
223.532
110.346
10.0778
-67.9476
-118.092
-138.634
-131.527
-101.756
-56.4049
-3.58083
48.6758
93.3502
125.186
141.126
140.437
124.537
96.5806
60.8756
22.2222
-14.7351
-46.0647
-68.9552
-81.9394
-84.9263
-79.0585
-66.4323
-49.7304
-31.8223
-15.3861
-2.59716
5.08584
7.02062
3.3678
-5.02166
-16.7926
-30.3133
-43.9115
-56.0871
-65.6776
-71.9602
-74.6848
-74.0422
-70.5783
-65.0741
-58.4098
-51.4343
-44.8573
-39.1753
-34.6373
-31.2512
-28.8235
-27.0231
-25.4574
-23.7483
-21.5964
-18.8262
-15.4079
-11.4535
-7.19289
-2.93237
0.994252
4.2761
6.66905
8.02754
8.32102
7.63368
6.14913
4.12296
1.84793
-0.38318
-2.31198
-3.74193
-4.55606
-4.7233
-4.29385
-3.38499
-2.16004
-0.803705
0.502747
1.60344
2.38446
2.78353
2.79234
2.4519
1.84224
1.06838
0.24456
-0.520922
-1.13862
-1.54712
-1.7177
-1.65449
-1.39045
-0.980195
-0.490818
0.00781145
0.452116
0.792113
0.99624
1.05335
0.971961
0.777057
0.505236
0.198858
-0.0998827
-0.354243
-0.536968
-0.632708
-0.63868
-0.563682
-0.425749
-0.248863
-0.0591685
0.118915
0.26644
0.373396
0.441838
0.488599
0.54735
0.66963
0.924329
1.39513
2.17554
3.36158
5.04243
7.29001
10.1487
13.6264
17.6891
22.2589
27.2168
32.4106
37.6656
42.7985
47.632
52.0078
55.7983
58.9136
61.3053
62.9658
63.9245
64.2405
63.9955
63.2855
62.2149
60.8921
59.4273
57.933
56.5238
55.3171
54.4307
53.9789
54.0645
54.7691
56.1418
58.1875
60.8582
64.047
67.588
71.2616
74.8056
77.9311
80.343
81.7612
81.9433
80.7048
77.9363
73.6165
67.8192
60.7131
52.5557
43.6787
34.4671
25.3325
16.6834
8.89377
2.27393
-2.95328
-6.66946
-8.86858
-9.65726
-9.25113
-7.97518
-6.27826
-4.77184
-4.29866
-6.02655
-11.5493
-22.9613
-42.8606
-74.2328
-120.178
-183.471
-265.975
-367.993
-487.653
-620.473
-759.234
-894.251
-1014.09
-1106.66
-1160.62
-1166.82
-1119.68
-1018.13
-866.182
-672.73
-450.855
-216.516
13.1146
221.481
394.408
521.558
597.415
621.679
599.038
538.378
451.542
351.826
252.411
164.909
98.2174
57.7798
45.314
59.0067
94.1038
143.791
200.23
255.605
303.056
337.391
355.522
356.594
341.832
314.156
277.635
236.874
196.405
160.157
131.07
110.859
99.9509
97.5863
102.033
110.897
121.471
131.088
137.43
138.775
134.146
123.375
107.053
86.4167
63.1554
39.1908
16.4427
-3.38542
-18.9802
-29.5355
-34.8019
-35.0705
-31.0963
-23.9769
-15.0034
-5.50474
3.29626
10.3976
15.0937
17.0067
16.0743
12.5028
6.69448
-0.835773
-9.54305
-18.922
-28.5564
-38.1446
-47.5013
-56.5404
-65.2434
-73.6233
-81.6892
-89.4188
-96.7421
-103.538
-109.645
-114.876
-119.049
-122.004
-123.635
-123.898
-122.826
-120.526
-117.17
-112.985
-108.227
-103.166
-98.0636
-93.1524
-88.6255
-84.6246
-81.2369
-78.4948
-76.3816
-74.8397
-73.781
-73.0981
-72.6752
-72.3967
-72.1536
-71.8465
-71.3857
-70.6879
-69.6727
-68.2582
-66.3594
-63.8902
-60.7696
-56.9328
-52.3448
-47.015
-41.0096
-34.4588
-27.5564
-20.5508
-13.7275
-7.38501
-1.8064
2.76953
6.17335
8.32342
9.23478
9.01741
7.86398
6.02873
3.80015
1.47089
-0.691398
-2.46895
-3.71176
-4.34677
-4.37784
-3.87722
-2.96998
-1.81381
-0.576614
0.585733
1.54964
2.24075
2.64666
2.82484
2.90512
3.08629
3.62627
4.82577
7.0056
10.4785
15.5176
22.3248
31.0025
41.5333
53.7717
67.4497
82.1978
97.5789
113.132
128.419
143.07
156.819
169.523
181.163
191.823
201.666
210.878
219.633
228.046
236.147
243.871
251.057
257.477
262.857
266.92
269.415
270.153
269.027
266.02
261.215
254.776
246.943
238.008
228.292
218.12
207.791
197.542
187.493
177.587
167.496
156.526
143.498
126.657
103.615
71.3847
26.5308
-34.5179
-114.993
-217.172
-341.686
-486.865
-648.254
-818.423
-987.198
-1142.34
-1270.67
-1359.46
-1398.06
-1379.29
-1300.69
-1165.09
-980.677
-760.367
-520.543
-279.385
-54.9578
136.693
283.186
376.992
416.033
403.634
347.857
260.335
154.765
45.2611
-55.2143
-136.177
-190.548
-215.108
-210.46
-180.547
-131.824
-72.2109
-9.97462
47.3104
93.6128
125.015
139.966
139.208
125.436
102.737
75.9228
49.8336
28.7122
15.7154
12.612
19.6859
35.8348
58.8342
85.7155
113.199
138.123
157.814
170.365
174.784
171.024
159.896
142.888
121.929
99.1238
76.5024
55.8093
38.3493
24.9054
15.7268
10.5801
8.84868
9.66178
12.0346
15.001
17.7237
19.572
20.1624
19.3604
17.2506
14.0804
10.1894
5.93499
1.6229
-2.54767
-6.52007
-10.3928
-14.4057
-18.8957
-24.2207
-30.6507
-38.2353
-46.6641
-55.1474
-62.3489
-66.4021
-65.0305
-55.7765
-36.325
-4.88744
39.3988
96.1145
163.304
237.382
313.236
384.558
444.382
485.797
502.74
490.788
447.83
374.514
274.408
153.827
21.3317
-113.049
-238.797
-345.966
-426.203
-473.617
-485.37
-461.945
-407.03
-327.055
-230.426
-126.56
-24.8385
66.3834
140.585
193.602
223.788
231.803
220.07
191.978
150.972
99.6879
39.2967
-30.8077
-112.876
-210.216
-326.236
-463.268
-621.439
-797.816
-986.075
-1176.8
-1358.43
-1518.6
-1645.81
-1730.89
-1768.16
-1755.92
-1696.5
-1595.56
-1461.15
-1302.55
-1129.18
-949.702
-771.445
-600.153
-440.035
-294.011
-164.058
-51.544
42.5193
117.354
172.427
207.57
223.159
220.287
200.889
167.761
124.463
75.109
24.052
-24.4714
-66.7111
-99.7263
-121.624
-131.68
-130.337
-119.074
-100.174
-76.4216
-50.7691
-26.0057
-4.47789
12.1194
22.8588
27.5981
26.9071
21.919
14.1308
5.18208
-3.3609
-10.1889
-14.3829
-15.4841
-13.5005
-8.85245
-2.27251
5.32414
12.9798
19.8255
25.1882
28.6624
30.1402
29.7986
28.0477
25.4439
22.5752
19.9264
17.7281
15.8016
13.4078
9.12056
0.747587
-14.6678
-40.7274
-81.4087
-140.627
-221.641
-326.34
-454.524
-603.278
-766.602
-935.417
-1098.03
-1241.09
-1350.89
-1414.97
-1423.72
-1371.79
-1259.02
-1090.85
-878.033
-635.609
-381.456
-134.391
87.8046
270.241
402.397
479.062
500.636
472.771
405.445
311.581
205.433
100.92
10.1375
-57.8163
-97.5618
-107.667
-90.3962
-51.0472
3.00141
63.3975
121.925
171.482
206.824
225
225.467
209.893
181.708
145.491
106.277
68.8823
37.3287
14.4338
1.59182
-1.24094
4.62074
16.8999
32.7542
49.2005
63.5121
73.5394
77.9236
76.1865
68.6992
56.5464
41.3151
24.8421
8.95719
-4.74581
-15.0835
-21.3874
-23.5334
-21.8992
-17.2643
-10.6708
-3.2665
3.84779
9.74852
13.783
15.6189
15.2483
12.9507
9.22453
4.69816
0.0353971
-4.15345
-7.38359
-9.34397
-9.91816
-9.17823
-7.35549
-4.79409
-1.89541
0.938857
3.35757
5.09917
6.01523
6.0772
5.3673
4.05642
2.37314
0.568805
-1.11657
-2.48334
-3.39314
-3.77978
-3.64995
-3.07466
-2.17353
-1.09456
0.00734456
0.990414
1.74213
2.18975
2.30456
2.09989
1.62384
0.948283
0.155767
-0.673577
-1.47349
-2.19987
-2.83504
-3.38733
-3.88652
-4.37561
-4.90036
-5.49824
-6.18826
-6.96355
-7.78749
-8.59447
-9.29502
-9.78508
-9.95831
-9.71987
-9.00019
-7.76665
-6.03166
-3.85574
-1.34505
1.35666
4.08084
6.65024
8.89636
10.6761
11.8857
12.4704
12.428
11.8078
10.7027
9.23802
7.55744
5.80752
4.12362
2.61804
1.37168
0.430023
-0.19686
-0.530395
-0.61675
-0.518259
-0.304255
-0.0424947
0.207748
0.400116
0.50266
0.496394
0.371447
0.121842
-0.259789
-0.786175
-1.47701
-2.35758
-3.45456
-4.78956
-6.37163
-8.19002
-10.2087
-12.3635
-14.5632
-16.6941
-18.6284
-20.235
-21.3921
-22.0008
-21.9967
-21.3604
-20.1237
-18.3716
-16.2401
-13.9076
-11.5821
-9.48486
-7.83
-6.80437
-6.54755
-7.13496
-8.56569
-10.7568
-13.5448
-16.6955
-19.9207
-22.9021
-25.3211
-26.8921
-27.4002
-26.7421
-24.9731
-22.3613
-19.4509
-17.1355
-16.7344
-20.0605
-29.4595
-47.7891
-78.3066
-124.432
-189.37
-275.596
-384.246
-514.495
-663.029
-823.738
-987.751
-1143.88
-1279.51
-1381.81
-1439.21
-1442.91
-1388.15
-1275.12
-1109.33
-901.294
-665.644
-419.659
-181.496
31.7204
205.689
330.369
400.901
417.912
387.174
318.695
225.371
121.388
20.569
-65.1109
-126.699
-158.991
-160.761
-134.512
-85.7997
-22.2708
47.4678
114.979
172.993
216.168
241.532
248.596
239.144
216.768
186.225
152.714
121.178
95.7001
79.0779
72.5946
76.0063
87.7201
105.123
125.006
144.022
159.116
167.883
168.815
161.412
146.167
124.438
98.2222
69.8825
41.8527
16.3636
-4.78219
-20.3654
-29.8241
-33.247
-31.2951
-25.0703
-15.9515
-5.423
5.08376
14.3174
21.2929
25.3329
26.0682
23.4061
17.4794
8.58676
-2.86194
-16.3906
-31.4871
-47.6207
-64.2493
-80.823
-96.7894
-111.605
-124.755
-135.782
-144.321
-150.135
-153.141
-153.436
-151.299
-147.178
-141.659
-135.423
-129.188
-123.65
-119.416
-116.958
-116.566
-118.327
-122.114
-127.6
-134.289
-141.557
-148.709
-155.037
-159.876
-162.664
-162.976
-160.562
-155.354
-147.469
-137.19
-124.931
-111.199
-96.541
-81.4929
-66.5319
-52.0351
-38.2534
-25.2994
-13.1542
-1.6918
9.28278
19.9841
30.5944
41.2156
51.8335
62.3007
72.3418
81.5819
89.5964
95.9746
100.389
102.661
102.809
101.072
97.9071
93.9499
89.9509
86.6889
84.876
85.0646
87.5711
92.4244
99.3487
107.783
116.938
125.875
133.616
139.252
142.046
141.52
137.51
130.181
120.012
107.736
94.2523
80.5277
67.483
55.8928
46.3041
38.9842
33.9034
30.7552
29.0092
27.9894
26.968
25.2632
22.3263
17.8112
11.6157
3.89214
-4.97297
-14.4072
-23.7209
-32.188
-39.1289
-43.9861
-46.3835
-46.1642
-43.4017
-38.3858
-31.5856
-23.5938
-15.0611
-6.62768
1.14042
7.80203
13.0749
16.8497
19.1837
20.2763
20.4303
20.0046
19.3632
18.8285
18.6424
18.9404
19.7403
20.9458
22.3623
23.7173
24.676
24.8409
23.7219
20.6719
14.7873
4.78854
-11.0911
-35.168
-70.273
-119.574
-186.227
-272.856
-380.909
-509.976
-657.19
-816.86
-980.459
-1137.04
-1274.1
-1378.84
-1439.64
-1447.56
-1397.66
-1289.9
-1129.5
-926.66
-695.626
-453.312
-217.53
-5.13652
169.697
296.877
371.273
393.008
367.151
302.857
212.112
108.236
4.34952
-88.0176
-160.019
-206.181
-224.637
-216.931
-187.433
-142.498
-89.4756
-35.7116
12.3356
49.771
73.6709
83.2029
79.4732
65.1523
43.9481
20.0104
-2.65178
-20.6691
-31.6727
-34.4876
-29.1523
-16.7813
0.694611
20.8649
41.2
59.3899
73.6174
82.7407
86.3698
84.8396
79.0929
70.4979
60.6295
51.045
43.0839
37.7127
35.4322
36.251
39.7252
45.0522
51.2028
57.0725
61.6315
64.0534
63.8092
60.7171
54.9445
46.9663
37.4883
27.3472
17.4035
8.43885
1.07241
-4.29616
-7.51253
-8.66172
-8.03421
-6.071
-3.29643
-0.248172
2.58679
4.82279
6.20799
6.6364
6.13987
4.86318
3.02687
0.883964
-1.32307
-3.39919
-5.22294
-6.75883
-8.05538
-9.22982
-10.4425
-11.8656
-13.6498
-15.896
-18.6331
-21.8079
-25.2859
-28.8638
-32.2923
-35.3048
-37.649
-39.1171
-39.5707
-38.9574
-37.3167
-34.7761
-31.536
-27.8474
-23.9844
-20.215
-16.774
-13.8407
-11.5242
-9.8568
-8.79646
-8.23739
-8.02659
-7.98473
-7.92822
-7.69021
-7.13803
-6.18541
-4.79835
-2.99436
-0.835722
1.58217
4.14557
6.7382
9.25599
11.619
13.7791
15.7225
17.4668
19.0547
20.5428
21.9902
23.4465
24.9415
26.4781
28.0297
29.5407
30.9319
32.1082
32.9678
33.4118
33.3526
32.7195
31.463
29.5556
26.9911
23.7823
19.9585
15.5628
10.651
5.29066
-0.437995
-6.44032
-12.6052
-18.8034
-24.8866
-30.6892
-36.0326
-40.7327
-44.6108
-47.506
-49.2898
-49.8793
-49.2483
-47.4337
-44.5377
-40.7231
-36.2027
-31.2245
-26.052
-20.9438
-16.1333
-11.8106
-8.1092
-5.09901
-2.78566
-1.11699
0.00457256
0.705258
1.12108
1.37961
1.58481
1.8072
2.0801
2.40157
2.73946
3.0354
3.20195
3.10646
2.53602
1.13965
-1.65214
-6.72512
-15.3844
-29.4424
-51.2638
-83.7315
-130.097
-193.683
-277.433
-383.314
-511.654
-660.492
-825.093
-997.748
-1167.98
-1323.23
-1449.92
-1534.97
-1567.32
-1539.52
-1448.92
-1298.38
-1096.35
-856.256
-595.202
-332.273
-86.5221
125.029
289.137
397.617
448.006
443.548
392.522
307.035
201.445
90.6259
-11.6987
-94.3723
-149.807
-174.487
-168.959
-137.337
-86.4444
-24.7089
39.0202
96.5894
141.46
169.337
178.461
169.558
145.487
110.669
70.3695
29.9633
-5.74532
-33.0581
-49.7252
-55.0712
-49.9119
-36.2929
-17.1021
4.38328
24.9504
41.8495
53.0916
57.6197
55.3435
47.0481
34.2012
18.6935
2.5521
-12.3337
-24.4402
-32.767
-36.9104
-37.0532
-33.8784
-28.4282
-21.9293
-15.6128
-10.5504
-7.5279
-6.96835
-8.90936
-13.033
-18.7391
-25.2482
-31.7191
-37.3637
-41.5462
-43.8542
-44.1364
-42.5049
-39.3027
-35.0459
-30.3466
-25.8287
-22.047
-19.4186
-18.1748
-18.3382
-19.7266
-21.9825
-24.6227
-27.1028
-28.8868
-29.5139
-28.654
-26.1455
-22.0118
-16.4549
-9.82779
-2.58979
4.74808
11.6817
17.7683
22.6708
26.1868
28.2609
28.9778
28.5415
27.2416
25.4132
23.3956
21.4945
19.9522
18.9281
18.4901
18.6173
19.2112
20.1143
21.1323
22.0574
22.6906
22.8618
22.4443
21.365
19.6087
17.2173
14.2841
10.9443
7.3629
3.7206
0.199588
-3.0298
-5.82072
-8.0587
-9.66739
-10.6108
-10.8926
-10.5526
-9.66132
-8.31404
-6.62457
-4.71994
-2.73645
-0.817082
0.889839
2.23174
3.05361
3.20181
2.53072
0.912501
-1.75042
-5.51154
-10.3672
-16.2465
-23.0064
-30.4339
-38.2554
-46.1536
-53.7898
-60.8281
-66.9606
-71.9274
-75.531
-77.6428
-78.2022
-77.2093
-74.7141
-70.805
-65.5999
-59.2391
-51.8843
-43.7194
-34.9531
-25.8213
-16.5857
-7.52811
1.06053
8.8965
15.7227
21.3292
25.5717
28.3852
29.7913
29.8959
28.8793
26.9783
24.4621
21.605
18.6582
15.8209
13.2123
10.8403
8.56479
6.05008
2.70225
-2.40782
-10.6302
-23.815
-44.3574
-75.1743
-119.569
-180.949
-262.381
-365.993
-492.288
-639.478
-802.956
-975.082
-1145.37
-1301.15
-1428.7
-1514.74
-1548.01
-1520.89
-1430.58
-1279.86
-1077.17
-835.899
-573.211
-308.234
-60.086
154.131
321.069
432.41
485.524
483.456
434.267
349.843
244.346
132.505
27.9746
-58.0598
-117.877
-147.727
-147.837
-121.945
-76.4791
-19.4932
40.4786
95.5043
139.152
167.108
177.474
170.737
149.444
117.664
80.3173
42.4695
8.68532
-17.4879
-33.8542
-39.6988
-35.7195
-23.7884
-6.59113
12.7976
31.3441
46.4355
56.1679
59.5166
56.3774
47.4896
34.2605
18.5242
2.27221
-12.6081
-24.5552
-32.4913
-35.9044
-34.8513
-29.8914
-21.9652
-12.2413
-1.95372
7.7488
15.9232
21.9107
25.3695
26.2626
24.8101
21.4161
16.5861
10.8452
4.67018
-1.55795
-7.57837
-13.2518
-18.5432
-23.4918
-28.1748
-32.6721
-37.0373
-41.2776
-45.3454
-49.1409
-52.5235
-55.3305
-57.3982
-58.5833
-58.7814
-57.9406
-56.0677
-53.2283
-49.5401
-45.1602
-40.27
-35.0583
-29.7056
-24.3715
-19.1866
-14.2493
-9.62774
-5.36468
-1.48594
1.9914
5.05166
7.67577
9.83973
11.5164
12.6804
13.3139
13.4141
12.9988
12.1101
10.8154
9.20564
7.38999
5.48889
3.62543
1.91636
0.463662
-0.652601
-1.37938
-1.69337
-1.6011
-1.1364
-0.355676
0.668789
1.85649
3.12669
4.40571
5.6327
6.76326
7.77033
8.6426
9.38031
9.98937
10.4742
10.8301
11.0364
11.0508
10.8059
10.2093
9.14821
7.49742
5.13302
1.94853
-2.12685
-7.11059
-12.9523
-19.5246
-26.622
-33.9675
-41.2288
-48.0418
-54.039
-58.8807
-62.2841
-64.048
-64.0689
-62.3476
-58.9852
-54.1701
-48.1568
-41.2411
-33.7327
-25.9295
-18.0954
-10.4438
-3.12826
3.7601
10.1874
16.1666
21.7426
26.976
31.9271
36.6424
41.1451
45.4299
49.4628
53.1847
56.5172
59.3714
61.6566
63.2886
64.1975
64.3329
63.6649
62.1771
59.8479
56.6133
52.308
46.5815
38.7931
27.8963
12.3316
-10.0412
-41.9343
-86.5046
-147.076
-226.697
-327.55
-450.273
-593.299
-752.337
-920.138
-1086.66
-1239.7
-1365.93
-1452.35
-1487.81
-1464.57
-1379.52
-1234.93
-1038.55
-803.129
-545.155
-283.255
-36.244
178.829
348.423
463.801
521.756
524.67
479.944
398.891
295.253
183.535
77.3757
-11.8551
-76.0942
-111.147
-116.757
-96.2056
-55.5407
-2.55214
54.3579
107.262
149.626
176.962
187.164
180.512
159.383
127.731
90.4201
52.5193
18.6425
-7.58643
-23.8869
-29.4696
-24.9821
-12.2791
5.93401
26.5259
46.3733
62.7471
73.6093
77.7928
75.0561
66.0183
51.9971
34.7806
16.3667
-1.29324
-16.5165
-28.0543
-35.1862
-37.742
-36.0557
-30.8662
-23.1834
-14.1398
-4.84777
3.72146
10.8248
15.9954
19.0507
20.0664
19.3246
17.2453
14.3139
11.0133
7.76775
4.90407
2.63178
1.04096
0.115255
-0.244424
-0.190667
0.100432
0.455918
0.726411
0.798945
0.602143
0.104859
-0.689875
-1.75342
-3.04052
-4.49705
-6.0655
-7.68776
-9.30562
-10.8596
-12.2873
-13.522
-14.4929
-15.1269
-15.3523
-15.1043
-14.3316
-13.0024
-11.1111
-8.68266
-5.77532
-2.48083
1.07786
4.7516
8.37241
11.763
14.7481
17.1662
18.8825
19.8005
19.8712
19.1002
17.5494
15.3349
12.6188
9.59689
6.48213
3.48671
0.803396
-1.41104
-3.04874
-4.05857
-4.44816
-4.27994
-3.66205
-2.73519
-1.65712
-0.586764
0.330461
0.974501
1.2587
1.13351
0.586054
-0.364058
-1.67156
-3.27404
-5.1009
-7.08187
-9.15419
-11.2681
-13.3903
-15.506
-17.6185
-19.7488
-21.9331
-24.2205
-26.6696
-29.3447
-32.3105
-35.6258
-39.3357
-43.4623
-47.996
-52.8861
-58.0354
-63.2974
-68.4785
-73.3459
-77.6406
-81.0945
-83.4509
-84.4857
-84.0275
-81.9755
-78.3112
-73.1051
-66.515
-58.7782
-50.1959
-41.1124
-31.8906
-22.8863
-14.4224
-6.76794
-0.120831
5.40207
9.76779
13.0228
15.2821
16.7125
17.5128
17.8921
18.0482
18.1486
18.3153
18.6147
19.0532
19.5787
20.0847
20.4163
20.3694
19.6793
17.9901
14.7994
9.37808
0.670643
-12.8079
-33.0516
-62.5823
-104.365
-161.581
-237.236
-333.607
-451.59
-590.022
-745.126
-910.21
-1075.75
-1229.93
-1359.64
-1451.82
-1495.07
-1481.13
-1406.24
-1271.94
-1085.27
-858.348
-607.199
-350.199
-106.129
107.798
277.716
394.466
454.389
459.451
416.728
337.334
234.946
124.141
18.734
-69.6643
-132.725
-166.009
-169.073
-145.099
-100.133
-42.0673
20.505
79.393
127.754
160.778
176.05
173.59
155.58
125.861
89.2791
50.9729
15.7035
-12.6973
-31.7029
-40.2656
-38.7841
-28.8945
-13.1261
5.51758
23.9944
39.6169
50.3596
55.05
53.4308
46.0997
34.3463
19.9181
4.75155
-9.29266
-20.6587
-28.2626
-31.5821
-30.668
-26.0803
-18.7689
-9.91618
-0.767871
7.52716
14.048
18.1908
19.7095
18.7072
15.5863
10.9656
5.58082
0.180413
-4.56841
-8.15358
-10.2647
-10.8093
-9.90063
-7.82059
-4.96608
-1.78668
1.27736
3.84929
5.65611
6.55151
6.52033
5.6662
4.18553
2.33271
0.381755
-1.41035
-2.83421
-3.74929
-4.09428
-3.88629
-3.21036
-2.20147
-1.02227
0.160293
1.19629
1.96964
2.40885
2.49089
2.23862
1.71279
1.00026
0.200465
-0.588056
-1.2793
-1.80847
-2.13696
-2.25361
-2.17246
-1.92804
-1.56884
-1.15041
-0.728703
-0.354683
-0.0704032
0.0932517
0.117431
-0.00483165
-0.269403
-0.662195
-1.1606
-1.73527
-2.35251
-2.97716
-3.57616
-4.12228
-4.59747
-4.99515
-5.32076
-5.58987
-5.824
-6.04432
-6.26457
-6.4844
-6.68531
-6.83042
-6.86929
-6.74749
-6.41982
-5.8651
-5.09972
-4.18749
-3.24349
-2.43072
-1.94925
-2.01865
-2.85557
-4.64888
-7.53555
-11.5803
-16.7619
-22.968
-29.9993
-37.5826
-45.3913
-53.07
-60.2609
-66.6291
-71.8831
-75.7911
-78.189
-78.9834
-78.1478
-75.7154
-71.7702
-66.4368
-59.8732
-52.2646
-43.8203
-34.7718
-25.3705
-15.884
-6.59064
2.23087
10.314
17.4198
23.3532
27.9784
31.23
33.1196
33.7347
33.2307
31.8144
29.7234
27.201
24.4721
21.7224
19.0841
16.6295
14.373
12.2775
10.2605
8.19259
5.87925
3.01975
-0.862697
-6.51744
-15.0804
-28.1858
-48.0445
-77.4494
-119.663
-178.148
-256.129
-355.984
-478.552
-622.423
-783.39
-954.171
-1124.56
-1282.04
-1412.88
-1503.58
-1542.55
-1521.66
-1437.54
-1292.4
-1094.17
-855.891
-594.528
-329.236
-79.3431
137.68
308.025
422.885
479.188
479.638
432.103
348.438
242.926
130.548
25.2883
-61.3143
-121.213
-150.411
-149
-120.712
-72.0956
-11.4319
52.4407
111.252
158.24
188.809
200.856
194.763
173.077
139.968
100.533
60.075
23.4147
-5.64998
-24.708
-32.8848
-30.7848
-20.2532
-4.00798
14.8011
33.0415
47.9989
57.6837
61.0143
57.866
48.9927
35.8433
20.3077
4.42957
-9.87167
-21.0373
-28.0364
-30.4491
-28.4646
-22.8002
-14.5616
-5.06651
4.34117
12.4632
18.3835
21.5549
21.8324
19.4501
14.9546
9.10482
2.75457
-3.26391
-8.24267
-11.6747
-13.2981
-13.1052
-11.3205
-8.35311
-4.73247
-1.0366
2.17742
4.43403
5.38505
4.83797
2.76592
-0.699692
-5.29097
-10.6364
-16.3002
-21.8251
-26.7727
-30.7596
-33.4872
-34.7604
-34.4981
-32.7325
-29.5988
-25.3174
-20.1703
-14.4733
-8.5483
-2.69743
2.8185
7.79548
12.0946
15.6431
18.4288
20.4891
21.897
22.7448
23.1296
23.1404
22.849
22.3055
21.5384
20.5578
19.3622
17.9467
16.3108
14.4651
12.4361
10.2672
8.01649
5.75243
3.54661
1.466
-0.434541
-2.11837
-3.57065
-4.79901
-5.83128
-6.71063
-7.48904
-8.22001
-8.95161
-9.72087
-10.5501
-11.4452
-12.3972
-13.3843
-14.3768
-15.342
-16.2494
-17.0758
-17.8085
-18.4484
-19.0118
-19.531
-20.0541
-20.6445
-21.3784
-22.3413
-23.6225
-25.3067
-27.4648
-30.143
-33.3523
-37.0593
-41.1801
-45.5786
-50.0694
-54.4263
-58.3954
-61.7126
-64.1229
-65.401
-65.3693
-63.9141
-60.9953
-56.651
-50.9961
-44.2141
-36.5454
-28.2708
-19.6939
-11.1223
-2.84936
4.86177
11.7917
17.7749
22.7053
26.5375
29.2843
31.0084
31.8114
31.82
31.1712
29.9977
28.417
26.5246
24.3914
22.0661
19.5779
16.9356
14.1159
11.0345
7.49394
3.10428
-2.81959
-11.3746
-24.1797
-43.4482
-71.9842
-113.059
-170.136
-246.42
-344.264
-464.473
-605.627
-763.548
-931.046
-1098.08
-1252.39
-1380.53
-1469.35
-1507.51
-1487.11
-1404.83
-1262.81
-1068.7
-835.132
-578.583
-317.685
-71.3006
143.448
312.927
428.314
486.33
489.318
444.68
363.767
260.389
149.137
43.7346
-44.3869
-107.134
-140.322
-143.743
-120.758
-77.5081
-21.8742
37.6666
93.1401
137.997
167.765
180.369
176.128
157.446
128.273
93.4379
57.9285
26.2381
1.84032
-13.1473
-18.0906
-13.7611
-2.08514
14.231
32.1371
48.6753
61.3599
68.4572
69.1395
63.5072
52.4872
37.6363
20.8819
4.24028
-10.4484
-21.737
-28.7173
-31.0833
-29.1116
-23.5715
-15.5809
-6.43327
2.57924
10.3255
15.9574
18.9842
19.2933
17.1203
12.9779
7.55515
1.60484
-4.16679
-9.19237
-13.1074
-15.7796
-17.302
-17.9543
-18.1407
-18.3137
-18.8972
-20.2203
-22.4684
-25.6599
-29.6482
-34.1473
-38.7758
-43.1105
-46.7431
-49.3295
-50.627
-50.5149
-48.9973
-46.1899
-42.2955
-37.5714
-32.2966
-26.7407
-21.1407
-15.686
-10.5119
-5.70183
-1.29559
2.69901
6.29321
9.50548
12.3526
14.8442
16.9819
18.7611
20.1754
21.2225
21.9092
22.2544
22.2901
22.0595
21.6121
20.9982
20.2625
19.4388
18.5469
17.5923
16.5682
15.4604
14.2528
12.9347
11.5051
9.97737
8.37953
6.75311
5.14892
3.62146
2.22241
0.994384
-0.0341022
-0.85199
-1.46694
-1.90481
-2.20773
-2.43164
-2.64374
-2.92026
-3.34431
-4.00345
-4.98615
-6.37676
-8.24863
-10.6558
-13.6241
-17.143
-21.1598
-25.5768
-30.2539
-35.0152
-39.6604
-43.9795
-47.7691
-50.849
-53.0763
-54.3556
-54.6447
-53.9531
-52.3373
-49.8898
-46.7268
-42.9751
-38.7603
-34.1989
-29.3932
-24.4318
-19.3926
-14.348
-9.37124
-4.54105
0.055772
4.32493
8.16838
11.4907
14.2071
16.2514
17.5832
18.1925
18.1012
17.3628
16.058
14.2894
12.1727
9.82555
7.35031
4.80806
2.18075
-0.682211
-4.1338
-8.81348
-15.7379
-26.384
-42.7424
-67.3126
-103.007
-152.932
-220.034
-306.606
-413.705
-540.542
-683.965
-838.155
-994.646
-1142.74
-1270.37
-1365.25
-1416.34
-1415.25
-1357.51
-1243.45
-1078.49
-872.883
-640.807
-398.959
-164.836
45.0975
217.11
341.567
413.789
434.308
408.534
345.869
258.428
159.524
62.1319
-22.5069
-85.9592
-123.268
-133.157
-117.788
-82.1423
-33.1235
21.4721
73.993
117.847
148.197
162.37
159.967
142.681
113.879
78.0218
40.0037
4.51036
-24.5378
-44.392
-53.6972
-52.5205
-42.2024
-25.0654
-4.03142
17.7974
37.5371
52.8544
62.1971
64.9057
61.2027
52.0749
39.0727
24.0613
8.95749
-4.5112
-14.9999
-21.6714
-24.2455
-22.9737
-18.5515
-11.9842
-4.4297
2.96015
9.18029
13.4783
15.4167
14.8875
12.0841
7.43667
1.5257
-5.01403
-11.584
-17.6956
-23.0191
-27.4034
-30.8663
-33.5615
-35.7274
-37.6277
-39.4943
-41.4793
-43.6243
-45.8506
-47.9702
-49.7149
-50.7795
-50.8703
-49.7528
-47.2902
-43.4685
-38.4043
-32.334
-25.5885
-18.5543
-11.6294
-5.1786
0.50577
5.23292
8.9289
11.6373
13.5054
14.7591
15.6685
16.511
17.5341
18.9252
20.7892
23.138
25.8925
28.8958
31.9352
34.7704
37.1641
38.9096
39.8539
39.9125
39.0745
37.3996
35.0061
32.0535
28.7221
25.1915
21.6224
18.1424
14.8368
11.7469
8.87293
6.1818
3.61803
1.11577
-1.38948
-3.95057
-6.60063
-9.34759
-12.1716
-15.0251
-17.8365
-20.5164
-22.9669
-25.0943
-26.8222
-28.1069
-28.9497
-29.407
-29.5943
-29.6829
-29.8886
-30.4523
-31.6141
-33.5834
-36.5096
-40.456
-45.3825
-51.1384
-57.4678
-64.0266
-70.4106
-76.1878
-80.9356
-84.2739
-85.8942
-85.5808
-83.2234
-78.8214
-72.4808
-64.4058
-54.8851
-44.2757
-32.9849
-21.4491
-10.1135
0.591219
10.2716
18.5935
25.3037
30.2463
33.3749
34.7561
34.5644
33.0665
30.5974
27.5286
24.2326
21.047
18.2421
15.9929
14.3588
13.2663
12.4919
11.64
10.1076
7.0345
1.24058
-8.84194
-25.22
-50.3471
-87.0509
-138.344
-207.097
-295.561
-404.795
-534.045
-680.203
-837.477
-997.375
-1149.1
-1280.39
-1378.7
-1432.63
-1433.42
-1376.19
-1260.95
-1092.86
-882.082
-642.871
-392.203
-148.053
72.4702
254.875
388.726
468.587
494.369
471.065
407.924
317.186
212.564
107.657
14.4889
-57.6585
-103.002
-119.549
-108.921
-75.7796
-26.9432
29.6551
86.0409
135.165
171.659
192.306
196.199
184.603
160.561
128.323
92.6824
58.3216
29.2336
8.29352
-2.98566
-4.50112
2.57401
16.0715
33.2052
50.988
66.6312
77.8789
83.2415
82.1101
74.7485
62.1776
45.9765
28.035
10.293
-5.49932
-17.9722
-26.2606
-30.0537
-29.5719
-25.483
-18.774
-10.6001
-2.13177
5.58292
11.724
15.7662
17.5024
17.0264
14.6823
10.9891
6.55478
1.98967
-2.16991
-5.51909
-7.81857
-9.00384
-9.17121
-8.54503
-7.43223
-6.17142
-5.08326
-4.42833
-4.37688
-4.99294
-6.23334
-7.96028
-9.96433
-11.9942
-13.7887
-15.1072
-15.7555
-15.6039
-14.5983
-12.7627
-10.1945
-7.05379
-3.54824
0.0858157
3.60374
6.7735
9.39537
11.319
12.4563
12.7888
12.3689
11.3136
9.79235
8.00821
6.17603
4.49845
3.14363
2.22708
1.80023
1.84715
2.29004
3.0024
3.82828
4.60455
5.18311
5.44997
5.33841
4.83471
3.97583
2.83999
1.53184
0.165126
-1.15446
-2.34322
-3.34814
-4.14933
-4.75598
-5.1975
-5.51178
-5.73348
-5.88503
-5.9724
-5.98645
-5.90958
-5.72604
-5.43345
-5.05289
-4.63513
-4.26136
-4.03794
-4.08582
-4.5265
-5.46725
-6.98836
-9.13519
-11.9164
-15.3088
-19.2663
-23.7321
-28.6487
-33.9641
-39.6322
-45.6059
-51.8242
-58.1955
-64.5803
-70.7764
-76.5121
-81.4489
-85.1977
-87.3474
-87.5052
-85.3433
-80.6471
-73.3561
-63.5927
-51.6721
-38.09
-23.4892
-8.60683
5.79186
18.9846
30.3604
39.4765
46.0964
50.2045
51.996
51.8427
50.2394
47.7384
44.8801
42.1289
39.8233
38.1455
37.1143
36.6011
36.3623
36.0823
35.4118
33.9911
31.4431
27.3284
21.0589
11.7794
-1.76208
-21.3219
-49.1996
-88.1621
-141.213
-211.19
-300.208
-409.015
-536.345
-678.428
-828.757
-978.244
-1115.8
-1229.35
-1307.11
-1339.07
-1318.38
-1242.46
-1113.63
-939.209
-730.95
-503.912
-274.918
-60.7837
123.466
266.142
360.02
402.925
397.708
351.654
275.411
181.594
83.2662
-7.53151
-81.0171
-130.543
-153.032
-148.962
-121.928
-77.8842
-24.1764
31.4944
82.0467
121.818
147.11
156.434
150.459
131.702
104.017
71.9734
40.2052
12.8269
-7.03258
-17.5211
-18.1663
-9.79574
5.69688
25.6936
47.2487
67.4844
83.9375
94.8185
99.1609
96.8547
88.5711
75.601
59.6352
42.5204
26.0234
11.6317
0.411094
-7.07021
-10.7468
-11.0003
-8.55582
-4.3485
0.618557
5.40758
9.25442
11.6416
12.331
11.3577
8.98913
5.66
1.89367
-1.7786
-4.88992
-7.09358
-8.19743
-8.1751
-7.15521
-5.39241
-3.22534
-1.02769
0.841492
2.08242
2.4895
1.97304
0.566095
-1.5837
-4.23553
-7.08699
-9.8117
-12.0981
-13.6853
-14.3909
-14.1293
-12.9174
-10.8689
-8.17767
-5.09278
-1.88916
1.16303
3.82645
5.91889
7.32781
8.01589
8.01771
7.42882
6.38932
5.06453
3.62564
2.23267
1.02135
0.0948727
-0.479753
-0.671403
-0.481906
0.0583508
0.895327
1.95619
3.15407
4.39288
5.57256
6.59484
7.36944
7.82045
7.89204
7.55306
6.79962
5.65538
4.16934
2.41128
0.465474
-1.57669
-3.62436
-5.59436
-7.4171
-9.04088
-10.4343
-11.5867
-12.5069
-13.2202
-13.7645
-14.186
-14.534
-14.8564
-15.196
-15.5872
-16.0541
-16.6108
-17.262
-18.0067
-18.8432
-19.775
-20.8183
-22.0086
-23.4045
-25.0887
-27.1634
-29.7411
-32.9297
-36.815
-41.4415
-46.7948
-52.7876
-59.2511
-65.9354
-72.5169
-78.6165
-83.8238
-87.728
-89.952
-90.1853
-88.214
-83.9431
-77.4099
-68.7865
-58.3715
-46.5705
-33.8692
-20.8001
-7.90621
4.29452
15.3417
24.8594
32.5761
38.3352
42.097
43.9322
44.0066
42.5611
39.8863
36.2976
32.1105
27.6205
23.0876
18.727
14.7042
11.1327
8.07054
5.50883
3.34833
1.35675
-0.896205
-4.12577
-9.43447
-18.4145
-33.2248
-56.6075
-91.8035
-142.327
-211.579
-302.295
-415.882
-551.721
-706.568
-874.195
-1045.39
-1208.43
-1349.99
-1456.48
-1515.61
-1517.99
-1458.51
-1337.3
-1160.09
-937.937
-686.19
-423.021
-167.519
62.2977
251.345
388.965
469.868
494.436
468.36
401.698
307.492
200.129
93.6752
0.369239
-70.5519
-113.576
-127.145
-113.396
-77.5027
-26.7167
30.7353
86.7575
134.357
168.38
185.939
186.526
171.809
145.187
111.18
74.7372
40.5736
12.6012
-6.47749
-15.3815
-14.2632
-4.53922
11.4197
30.6858
50.1999
67.1691
79.3898
85.4637
84.8906
78.0399
66.0172
50.4532
33.2507
16.3235
1.36315
-10.3432
-18.0247
-21.4636
-20.9601
-17.2372
-11.305
-4.30403
2.64902
8.59524
12.8327
14.9723
14.9481
12.9855
9.53719
5.19557
0.598061
-3.66421
-7.12194
-9.47956
-10.6389
-10.6943
-9.90151
-8.62816
-7.29194
-6.29707
-5.97663
-6.54828
-8.08794
-10.524
-13.6511
-17.1612
-20.6859
-23.8451
-26.2944
-27.7664
-28.0996
-27.2536
-25.3087
-22.4508
-18.9453
-15.1027
-11.2415
-7.65365
-4.57445
-2.16266
-0.490305
0.45647
0.766986
0.588089
0.101515
-0.500378
-1.03756
-1.36145
-1.36839
-1.00647
-0.275557
0.778918
2.07694
3.51801
4.99618
6.41388
7.69289
8.78092
9.65351
10.3114
10.7741
11.0723
11.2382
11.2986
11.2697
11.1545
10.9438
10.6197
10.1612
9.55006
8.77645
7.84364
6.77024
5.59025
4.35079
3.10794
1.92124
0.847641
-0.064384
-0.779825
-1.28079
-1.56839
-1.66277
-1.60123
-1.43481
-1.22373
-1.0323
-0.923944
-0.957255
-1.18353
-1.64641
-2.38366
-3.43085
-4.82609
-6.61469
-8.85251
-11.6064
-14.9514
-18.9628
-23.7057
-29.22
-35.5056
-42.5075
-50.1044
-58.1032
-66.2396
-74.1869
-81.5721
-87.9983
-93.072
-96.4326
-97.7824
-96.9142
-93.7329
-88.2711
-80.6938
-71.2939
-60.4752
-48.7262
-36.5849
-24.5984
-13.2815
-3.07724
5.67604
12.7674
18.1246
21.8116
24.0138
25.0112
25.1437
24.7701
24.2277
23.7946
23.6614
23.9125
24.5211
25.3555
26.194
26.7422
26.6428
25.4697
22.6955
17.628
9.31693
-3.55659
-22.7827
-50.6813
-90.0699
-144.095
-215.897
-308.093
-422.134
-557.593
-711.529
-878.072
-1048.36
-1210.92
-1352.58
-1459.72
-1519.89
-1523.41
-1464.82
-1343.92
-1166.2
-942.564
-688.38
-421.975
-162.718
71.019
263.771
404.528
487.721
513.556
487.676
420.213
324.393
214.873
106.04
10.4582
-62.3333
-106.584
-120.584
-106.419
-69.3117
-16.6546
43.1139
101.641
151.66
187.757
206.822
208.177
193.39
165.836
130.075
91.1652
53.9816
22.6326
0.0392227
-12.2941
-14.307
-7.22843
6.72173
24.7203
43.7605
61.0465
74.3174
82.0665
83.6413
79.226
69.7205
56.5451
41.4035
26.0386
12.0129
0.53813
-7.62962
-12.2254
-13.4439
-11.8542
-8.27714
-3.64732
1.12245
5.25564
8.1937
9.63833
9.55382
8.13411
5.74355
2.84243
-0.0910336
-2.63154
-4.46215
-5.40899
-5.45332
-4.72201
-3.46008
-1.99055
-0.667752
0.169638
0.240442
-0.646704
-2.57331
-5.50436
-9.29438
-13.7044
-18.427
-23.1153
-27.4146
-30.9909
-33.5577
-34.8964
-34.8729
-33.446
-30.6712
-26.6961
-21.7499
-16.1261
-10.1593
-4.19844
1.42222
6.41085
10.5426
13.6774
15.7697
16.8682
17.1049
16.6758
15.8149
14.7637
13.7424
12.9243
12.4182
12.2602
12.4159
12.7916
13.2534
13.6504
13.8385
13.7025
13.1715
12.2288
10.9119
9.30632
7.53245
5.72829
4.03112
2.56015
1.4026
0.604788
0.168973
0.0558506
0.191825
0.47974
0.811488
1.08092
1.19572
1.08711
0.716718
0.079954
-0.794368
-1.84822
-3.00219
-4.16636
-5.2532
-6.19105
-6.93665
-7.48496
-7.87486
-8.18981
-8.55301
-9.11762
-10.0529
-11.5279
-13.6953
-16.6757
-20.5461
-25.3319
-31.0039
-37.4785
-44.6224
-52.2577
-60.1688
-68.1091
-75.8077
-82.9766
-89.3192
-94.5406
-98.3603
-100.528
-100.839
-99.1553
-95.4199
-89.6709
-82.0501
-72.803
-62.2707
-50.8717
-39.0768
-27.3757
-16.2428
-6.10079
2.70989
9.95522
15.5215
19.4179
21.768
22.7902
22.7709
22.0325
20.9003
19.6715
18.5902
17.8299
17.4848
17.5699
18.025
18.7208
19.4573
19.9506
19.7975
18.417
14.9653
8.23687
-3.42993
-22.2111
-50.7768
-92.1517
-149.423
-225.287
-321.467
-438.067
-572.979
-721.459
-876.022
-1026.73
-1161.9
-1269.22
-1337.13
-1356.25
-1320.74
-1229.29
-1085.6
-898.288
-680.178
-447.038
-215.961
-3.57313
175.702
311.096
396.494
430.867
418.109
366.319
286.65
191.878
94.8895
7.26165
-61.8863
-106.668
-124.76
-117.288
-88.3215
-44.0662
8.10999
60.6944
106.957
141.689
161.674
165.87
155.308
132.735
102.099
67.9241
34.6944
6.29673
-14.397
-25.7793
-27.5732
-20.7251
-7.15832
10.5706
29.6562
47.4192
61.6249
70.7126
73.9157
71.2696
63.5188
51.9466
38.1554
23.8328
10.5335
-0.496991
-8.43941
-12.9503
-14.1456
-12.5279
-8.87305
-4.09573
0.886505
5.27292
8.469
10.1376
10.2094
8.85649
6.43637
3.41769
0.299603
-2.46391
-4.52515
-5.68265
-5.89679
-5.28129
-4.07397
-2.59244
-1.1819
-0.16278
0.214898
-0.195386
-1.41969
-3.36418
-5.83243
-8.55642
-11.2367
-13.586
-15.3704
-16.4416
-16.7566
-16.3811
-15.4762
-14.27
-13.0188
-11.9633
-11.2877
-11.0866
-11.3473
-11.9492
-12.68
-13.2684
-13.4253
-12.8906
-11.4754
-9.09496
-5.78779
-1.71643
2.84841
7.55886
12.0313
15.8922
18.8226
20.5947
21.0962
20.3404
18.4604
15.6895
12.3311
8.72198
5.19434
2.04085
-0.512826
-2.32574
-3.34821
-3.61742
-3.24368
-2.38983
-1.247
-0.00984775
1.1457
2.07989
2.7003
2.96618
2.88619
2.51071
1.92029
1.21201
0.485745
-0.168061
-0.67803
-0.998081
-1.11021
-1.02413
-0.774449
-0.416192
-0.0195726
0.33528
0.563066
0.577258
0.293239
-0.369157
-1.48332
-3.11335
-5.311
-8.11194
-11.5315
-15.5603
-20.1602
-25.2622
-30.7659
-36.5421
-42.4388
-48.2892
-53.9229
-59.1778
-63.9113
-68.0099
-71.3956
-74.028
-75.9002
-77.0318
-77.4567
-77.2097
-76.3136
-74.7697
-72.553
-69.6154
-65.8946
-61.3295
-55.879
-49.5407
-42.3672
-34.4762
-26.0526
-17.3421
-8.63636
-0.251643
7.49621
14.3178
19.9735
24.2923
27.1832
28.6388
28.7318
27.6041
25.4519
22.5076
19.0206
15.2391
11.3898
7.65581
4.14626
0.854518
-2.40099
-6.05559
-10.8948
-18.1595
-29.6412
-47.7383
-75.4365
-116.172
-173.541
-250.847
-350.492
-473.28
-617.727
-779.528
-951.297
-1122.73
-1281.25
-1413.07
-1504.68
-1544.48
-1524.36
-1440.96
-1296.52
-1098.96
-861.307
-600.512
-335.682
-86.0874
130.865
301.429
416.845
474.059
475.758
429.745
347.765
243.953
133.113
29.0442
-56.8855
-116.768
-146.694
-146.776
-120.703
-74.9116
-17.5226
42.8231
98.0651
141.642
169.134
178.574
170.432
147.304
113.369
73.7115
33.6064
-2.151
-29.7846
-46.8976
-52.6274
-47.596
-33.6843
-13.6743
9.18321
31.614
50.7251
64.3206
71.1015
70.7341
63.7942
51.6047
35.9984
19.0423
2.76119
-11.1047
-21.2826
-27.0737
-28.3773
-25.6403
-19.7432
-11.8458
-3.21453
4.94458
11.6278
16.135
18.1225
17.6052
14.9154
10.6244
5.44442
0.122283
-4.65961
-8.3638
-10.6515
-11.4057
-10.7234
-8.88138
-6.28277
-3.39232
-0.670494
1.48553
2.78704
3.08095
2.35721
0.737729
-1.5501
-4.21025
-6.91986
-9.37029
-11.3025
-12.5334
-12.97
-12.6129
-11.5468
-9.92387
-7.93932
-5.80548
-3.72589
-1.8732
-0.37309
0.70445
1.34602
1.58849
1.50686
1.19844
0.765738
0.300405
-0.129408
-0.48678
-0.767931
-0.998351
-1.22411
-1.49997
-1.87647
-2.388
-3.04402
-3.82448
-4.68033
-5.53879
-6.31256
-6.91143
-7.25468
-7.28225
-6.96331
-6.30082
-5.33186
-4.12348
-2.76495
-1.35734
-0.00207879
1.21023
2.20914
2.95083
3.42107
3.63447
3.63045
3.46667
3.21102
2.93322
2.69713
2.5546
2.5414
2.67557
2.95789
3.37433
3.89981
4.50268
5.14933
5.80827
6.45326
7.06497
7.63082
8.14257
8.5917
8.96275
9.22533
9.32631
9.18382
8.68518
7.69029
6.04142
3.57907
0.162599
-4.30724
-9.86692
-16.4734
-23.9955
-32.2139
-40.8328
-49.4998
-57.8337
-65.4552
-72.0183
-77.2379
-80.9101
-82.9242
-83.2641
-82.002
-79.2836
-75.3088
-70.3106
-64.5346
-58.2201
-51.587
-44.8266
-38.0973
-31.525
-25.206
-19.2122
-13.5972
-8.40125
-3.65583
0.61401
4.38875
7.65512
10.4078
12.6517
14.4033
15.6918
16.5584
17.0533
17.232
17.1475
16.8414
16.3288
15.5759
14.4657
12.748
9.96913
5.38341
-2.14752
-14.2517
-33.1136
-61.4734
-102.519
-159.632
-235.968
-333.881
-454.248
-595.789
-754.514
-923.435
-1092.68
-1250.07
-1382.13
-1475.53
-1518.64
-1503.15
-1425.33
-1286.88
-1095.14
-862.559
-605.593
-343.018
-93.9752
124.045
297.009
415.719
476.591
481.769
438.574
358.393
255.166
143.682
37.8966
-50.523
-113.276
-146.021
-148.456
-123.923
-78.6185
-20.5506
41.6164
99.6732
146.807
178.276
191.757
187.371
167.396
135.761
97.3762
57.4333
20.7313
-8.86812
-28.8126
-38.0298
-36.8957
-27.0278
-10.947
8.33586
27.7491
44.55
56.6313
62.7153
62.4234
56.2268
45.2957
31.2791
16.0479
1.43868
-10.971
-20.0307
-25.1139
-26.1396
-23.5236
-18.0738
-10.8477
-2.99508
4.39453
10.4193
14.4557
16.2049
15.6927
13.23
9.34079
4.67201
-0.103081
-4.37461
-7.66854
-9.69469
-10.3664
-9.79225
-8.24352
-6.10328
-3.80558
-1.77308
-0.361152
0.184934
-0.244644
-1.61812
-3.77448
-6.45129
-9.32315
-12.0452
-14.296
-15.8138
-16.4234
-16.0498
-14.7191
-12.5469
-9.71742
-6.45655
-3.0025
0.421174
3.62716
6.47818
8.8917
10.8361
12.32
13.3775
14.0525
14.3853
14.4033
14.1183
13.5281
12.6246
11.403
9.87292
8.06601
6.04113
3.88374
1.70052
-0.390316
-2.27163
-3.84071
-5.02136
-5.7729
-6.09473
-6.02579
-5.63919
-5.03274
-4.31673
-3.60077
-2.98116
-2.53057
-2.29091
-2.27033
-2.44434
-2.76082
-3.14812
-3.5255
-3.81451
-3.95013
-3.8905
-3.62359
-3.17021
-2.5823
-1.93645
-1.32313
-0.832887
-0.541194
-0.494543
-0.700175
-1.12172
-1.68217
-2.27436
-2.77786
-3.07989
-3.09707
-2.79439
-2.19848
-1.40271
-0.563175
0.11396
0.39209
0.0280554
-1.20294
-3.4844
-6.94001
-11.6209
-17.4991
-24.4668
-32.3405
-40.8691
-49.7459
-58.6228
-67.1272
-74.8807
-81.5191
-86.7128
-90.186
-91.7343
-91.2387
-88.6747
-84.1159
-77.7314
-69.7767
-60.5789
-50.5173
-40.0003
-29.4416
-19.236
-9.73715
-1.23978
6.03446
11.9449
16.4342
19.5245
21.3092
21.94
21.6106
20.54
18.9552
17.076
15.1025
13.2066
11.5273
10.1696
9.20248
8.65529
8.50407
8.64347
8.83775
8.64762
7.33411
3.74775
-3.77896
-17.5081
-40.3041
-75.5321
-126.809
-197.586
-290.579
-407.081
-546.273
-704.636
-875.62
-1049.7
-1214.85
-1357.58
-1464.19
-1522.45
-1523.11
-1461.32
-1337.55
-1157.88
-933.72
-680.718
-417.261
-162.552
65.3876
251.578
385.554
462.287
482.457
452.066
381.469
283.966
174.148
66.2222
-27.5077
-97.812
-139.258
-150.428
-133.657
-94.3495
-40.0089
20.8861
80.0064
130.162
166.053
184.707
185.595
170.427
142.706
107.099
68.7351
32.525
2.57477
-18.236
-28.4793
-28.1998
-18.7506
-2.48422
17.6482
38.5294
57.282
71.6019
79.9826
81.8155
77.3674
67.6491
54.2065
38.8674
23.4812
9.68676
-1.26769
-8.6335
-12.195
-12.2314
-9.42078
-4.70419
0.866773
6.27872
10.6822
13.481
14.3778
13.3749
10.7344
6.90809
2.44895
-2.08203
-6.20048
-9.56389
-12.01
-13.5654
-14.4247
-14.9066
-15.3934
-16.2648
-17.8356
-20.305
-23.725
-27.9913
-32.8554
-37.9567
-42.8686
-47.1523
-50.4107
-52.3357
-52.7432
-51.5917
-48.9837
-45.1494
-40.417
-35.1728
-29.8173
-24.7226
-20.1962
-16.455
-13.6121
-11.677
-10.5674
-10.1306
-10.171
-10.4792
-10.859
-11.1491
-11.2373
-11.0665
-10.6321
-9.97226
-9.15471
-8.25982
-7.36517
-6.53216
-5.79703
-5.16678
-4.62014
-4.11303
-3.58728
-2.98128
-2.24104
-1.3303
-0.238469
1.01456
2.37738
3.77038
5.09323
6.23633
7.09511
7.58541
7.65808
7.31033
6.59195
5.6048
4.49521
3.43962
2.62524
2.22785
2.39002
3.20236
4.69067
6.81079
9.45184
12.4476
15.5944
18.6731
21.4728
23.8118
25.5543
26.6214
26.9927
26.7021
25.8261
24.4691
22.7457
20.7646
18.6155
16.3604
14.0307
11.6292
9.13746
6.52567
3.76412
0.834092
-2.26365
-5.50402
-8.83717
-12.1925
-15.486
-18.6302
-21.5436
-24.1585
-26.4248
-28.3093
-29.7903
-30.8492
-31.4606
-31.5832
-31.1538
-30.0862
-28.2747
-25.6032
-21.957
-17.2377
-11.3773
-4.35122
3.81093
13.019
23.1197
33.8984
45.0855
56.367
67.398
77.8203
87.2808
95.4518
102.049
106.85
109.704
110.545
109.391
106.349
101.605
95.418
88.109
80.0387
71.5822
63.0883
54.8226
46.89
39.1352
31.0253
21.5249
8.9835
-8.93627
-35.2513
-73.5306
-127.613
-201.151
-296.996
-416.481
-558.7
-719.911
-893.221
-1068.67
-1233.76
-1374.54
-1476.98
-1528.61
-1520.2
-1447.1
-1310.23
-1116.31
-877.51
-610.315
-333.928
-68.2656
168.109
359.896
496.55
573.203
590.893
556.131
479.858
375.974
259.62
145.452
46.089
-29.0643
-74.5389
-88.998
-74.9401
-37.9834
14.1428
72.7537
129.358
176.666
209.339
224.438
221.512
202.397
170.733
131.326
89.4267
50.0295
17.2813
-5.94688
-18.2823
-19.8631
-12.1614
2.34302
20.5807
39.3415
55.6947
67.3309
72.7907
71.5628
64.0538
51.4448
35.4667
18.128
1.43659
-12.8509
-23.4232
-29.5331
-31.0339
-28.3382
-22.311
-14.1176
-5.05074
3.64063
10.8994
15.9685
18.4514
18.3207
15.8808
11.6929
6.47661
1.00255
-4.01026
-7.97886
-10.5149
-11.4524
-10.8445
-8.93352
-6.09969
-2.79882
0.503278
3.39042
5.54315
6.76856
7.0111
6.34485
4.95041
3.08083
1.02199
-0.946785
-2.58726
-3.72785
-4.27811
-4.23151
-3.65733
-2.68387
-1.47603
-0.21069
0.946824
1.86232
2.44631
2.66052
2.51726
2.07251
1.41423
0.647919
-0.118555
-0.788748
-1.28857
-1.57323
-1.62977
-1.47528
-1.15161
-0.717434
-0.239102
0.218527
0.600085
0.86565
0.994131
0.98392
0.851026
0.625189
0.344686
0.0506052
-0.21862
-0.431764
-0.567967
-0.618267
-0.585456
-0.482485
-0.329755
-0.151761
0.0264251
0.182367
0.298792
0.365173
0.378188
0.341029
0.261603
0.149825
0.0144021
-0.140282
-0.316363
-0.522882
-0.77373
-1.08301
-1.45851
-1.89472
-2.36736
-2.83142
-3.22399
-3.47227
-3.50613
-3.27342
-2.75555
-1.98079
-1.03229
-0.0490957
0.781252
1.238
1.08886
0.11491
-1.8646
-4.97146
-9.25427
-14.6825
-21.1491
-28.48
-36.4498
-44.7994
-53.2553
-61.547
-69.4218
-76.6566
-83.0648
-88.5003
-92.8564
-96.062
-98.0746
-98.8713
-98.4405
-96.7749
-93.8693
-89.7229
-84.3468
-77.7757
-70.0814
-61.3859
-51.8708
-41.7809
-31.4205
-21.1417
-11.3246
-2.3511
5.42533
11.7097
16.2926
19.0705
20.0562
19.3793
17.2751
14.0664
10.1369
5.90196
1.77815
-1.84702
-4.64313
-6.36428
-6.8782
-6.20171
-4.54811
-2.39163
-0.550924
-0.286975
-3.40123
-12.3082
-30.0457
-60.1806
-106.57
-172.951
-262.375
-376.513
-514.941
-674.523
-849.025
-1029.1
-1202.76
-1356.23
-1475.36
-1547.17
-1561.47
-1512.37
-1399.3
-1227.44
-1007.48
-754.754
-487.642
-225.748
12.1888
210.219
356.779
445.73
476.756
455.077
390.543
296.268
186.965
77.2264
-20.0595
-94.9683
-141.352
-157.144
-144.162
-107.472
-54.441
6.39653
66.4883
118.299
156.116
176.544
178.673
163.92
135.608
98.3571
57.3845
17.8049
-15.9773
-40.7228
-54.6212
-57.3507
-49.9498
-34.5389
-13.9411
8.7379
30.5155
48.8742
62.0055
68.9372
69.5415
64.4389
54.8214
42.2284
28.31
14.6081
2.38258
-7.50164
-14.621
-18.975
-20.9151
-21.0376
-20.06
-18.6991
-17.5683
-17.1035
-17.5263
-18.8424
-20.8718
-23.3017
-25.753
-27.8476
-29.2686
-29.8048
-29.3759
-28.0362
-25.9595
-23.4087
-20.6953
-18.1362
-16.0123
-14.5353
-13.8259
-13.9043
-14.6947
-16.0409
-17.7305
-19.523
-21.1795
-22.4891
-23.2888
-23.4762
-23.0141
-21.9271
-20.2918
-18.2226
-15.8553
-13.3309
-10.7808
-8.31463
-6.01325
-3.92469
-2.06491
-0.421799
1.03818
2.36172
3.5999
4.79989
5.99807
7.21526
8.45445
9.70125
10.9267
12.0922
13.1553
14.0759
14.8214
15.3697
15.7102
15.8421
15.771
15.5048
15.0498
14.4085
13.5799
12.5619
11.3554
9.97041
8.431
6.77917
5.07617
3.40049
1.84267
0.49734
-0.546516
-1.21568
-1.4618
-1.26818
-0.653309
0.329372
1.59537
3.03629
4.52929
5.94788
7.17279
8.10199
8.6588
8.79761
8.50649
7.80696
6.75068
5.41373
3.88884
2.27647
0.675474
-0.825792
-2.15711
-3.27219
-4.1521
-4.80629
-5.27125
-5.60747
-5.89536
-6.23091
-6.72167
-7.48299
-8.63434
-10.2948
-12.5767
-15.5778
-19.3705
-23.9912
-29.4286
-35.6149
-42.4209
-49.6565
-57.0769
-64.3948
-71.2977
-77.4656
-82.5908
-86.3931
-88.6321
-89.1149
-87.6992
-84.2946
-78.8641
-71.4264
-62.0608
-50.9148
-38.2112
-24.2533
-9.42443
5.82046
20.9726
35.496
48.8608
60.5796
70.2415
77.5419
82.3019
84.4794
84.1691
81.5939
77.09
71.0853
64.0743
56.5889
49.1624
42.2872
36.3615
31.6208
28.0528
25.2944
22.5151
18.301
10.5597
-3.5179
-27.4012
-65.0241
-120.422
-197.193
-297.82
-422.921
-570.562
-735.759
-910.323
-1083.16
-1241.04
-1369.86
-1456.15
-1488.79
-1460.52
-1369.16
-1218.22
-1016.85
-779.109
-522.546
-266.408
-29.5842
171.385
324
420.99
460.852
447.709
390.529
301.828
196.05
87.8294
-9.64114
-85.9459
-134.353
-152.214
-140.843
-104.95
-51.7152
10.3346
72.5006
126.99
167.775
191.143
195.916
183.33
156.625
120.443
80.1013
40.865
7.3001
-17.2204
-30.8107
-33.15
-25.3581
-9.70477
10.7948
32.8338
53.2574
69.4404
79.5586
82.7323
79.036
69.3881
55.3469
38.8489
21.9276
6.45126
-6.09029
-14.7282
-19.0759
-19.3112
-16.0893
-10.406
-3.43355
3.64706
9.79593
14.2291
16.4879
16.4595
14.3508
10.6247
5.91088
0.904663
-3.7314
-7.45225
-9.89163
-10.8952
-10.5239
-9.03015
-6.81197
-4.35193
-2.14983
-0.657023
-0.219964
-1.03909
-3.14697
-6.40744
-10.5349
-15.1308
-19.7323
-23.8675
-27.1094
-29.1234
-29.7025
-28.7864
-26.4632
-22.9538
-18.5828
-13.7381
-8.82712
-4.232
-0.271909
2.82549
4.9399
6.06079
6.27716
5.7569
4.71908
3.40314
2.03905
0.821872
-0.106562
-0.667226
-0.844552
-0.678929
-0.252923
0.326357
0.945993
1.50449
1.92538
2.16568
2.2187
2.11146
1.89757
1.64721
1.43552
1.33117
1.38613
1.62768
2.05337
2.62935
3.29215
3.95402
4.51109
4.85383
4.87856
4.49901
3.65641
2.3273
0.52789
-1.68536
-4.21902
-6.9496
-9.73321
-12.4171
-14.8516
-16.9021
-18.4589
-19.4446
-19.8192
-19.5812
-18.7653
-17.4386
-15.693
-13.6371
-11.3881
-9.06293
-6.772
-4.61377
-2.67185
-1.01435
0.304773
1.2425
1.76222
1.82869
1.40333
0.440923
-1.11108
-3.3099
-6.21102
-9.85822
-14.271
-19.4314
-25.2711
-31.6626
-38.414
-45.2713
-51.926
-58.0313
-63.2233
-67.1478
-69.4888
-69.9977
-68.5183
-65.0054
-59.5343
-52.2993
-43.6006
-33.8208
-23.3923
-12.7598
-2.34114
7.50888
16.5273
24.561
31.5721
37.6295
42.8891
47.5634
51.8875
56.0829
60.3258
64.7235
69.3003
73.995
78.6704
83.1306
87.1454
90.4778
92.9098
94.2628
94.4083
93.2639
90.77
86.8436
81.3053
73.7824
63.5933
49.6268
30.2407
3.21033
-34.2331
-85.2355
-152.996
-240.28
-348.8
-478.534
-627.1
-789.312
-957.07
-1119.67
-1264.55
-1378.53
-1449.25
-1466.73
-1424.84
-1322.35
-1163.47
-957.675
-718.992
-464.577
-212.965
17.8754
212.419
359.15
451.623
488.919
475.442
420.121
335.146
234.405
131.841
39.9157
-31.6272
-76.5875
-92.65
-81.2427
-46.9704
3.27104
61.3647
119.081
169.088
205.749
225.634
227.712
213.226
185.31
148.409
107.597
67.8916
33.6427
8.06909
-7.01974
-11.2987
-5.81124
7.30329
25.1892
44.703
62.8329
77.0573
85.6062
87.601
83.0697
72.8481
58.3922
41.5336
24.2151
8.24136
-4.92634
-14.3105
-19.4829
-20.5548
-18.1021
-13.0419
-6.48062
0.443904
6.7056
11.5035
14.3337
15.0161
13.6774
10.6979
6.63213
2.11743
-2.21825
-5.83627
-8.34703
-9.54418
-9.41185
-8.10736
-5.92442
-3.24385
-0.479429
1.97383
3.78319
4.70936
4.62368
3.51139
1.46306
-1.34275
-4.6621
-8.21024
-11.6856
-14.7919
-17.2569
-18.85
-19.3956
-18.7864
-16.9926
-14.0692
-10.1583
-5.48493
-0.345525
4.91154
9.91366
14.2972
17.7429
20.0091
20.9581
20.5717
18.9529
16.3143
12.953
9.21687
5.46558
2.03158
-0.813552
-2.88403
-4.0932
-4.45451
-4.07069
-3.1135
-1.79711
-0.348991
1.01805
2.12923
2.86431
3.16579
3.03861
2.54233
1.77742
0.867993
-0.0564688
-0.878102
-1.50432
-1.87685
-1.97543
-1.81639
-1.44672
-0.934944
-0.360232
0.198686
0.673365
1.01316
1.18972
1.19818
1.05532
0.795123
0.462728
0.107552
-0.223365
-0.491022
-0.668506
-0.74309
-0.716333
-0.602365
-0.424779
-0.212661
0.00365216
0.196516
0.344172
0.432854
0.457676
0.4223
0.33757
0.219384
0.08616
-0.0437493
-0.154357
-0.233801
-0.2754
-0.27794
-0.24525
-0.185183
-0.108202
-0.0257855
0.0511224
0.113433
0.154859
0.172406
0.166404
0.140108
0.0989794
0.0497658
-0.000493589
-0.0454005
-0.0799798
-0.101246
-0.108533
-0.103603
-0.090576
-0.0757684
-0.0675139
-0.0760639
-0.113637
-0.194662
-0.336238
-0.55881
-0.887034
-1.35078
-1.98617
-2.83651
-3.95294
-5.3947
-7.22877
-9.52875
-12.3726
-15.8389
-20.0015
-24.9221
-30.64
-37.1615
-44.4484
-52.4111
-60.9102
-69.7754
-78.8486
-88.0596
-97.5375
-107.754
-119.681
-134.946
-155.923
-185.737
-228.107
-287.019
-366.191
-468.394
-594.683
-743.671
-910.984
-1089.04
-1267.27
-1432.78
-1571.56
-1669.85
-1715.87
-1701.3
-1622.52
-1481.41
-1285.41
-1047.02
-782.626
-510.885
-250.815
-19.8789
167.751
302.509
380.197
402.129
374.648
308.122
215.559
111.014
8.0143
-81.8417
-149.941
-191.28
-204.617
-192.172
-158.957
-111.846
-58.5226
-6.44931
38.0232
70.3093
87.9487
90.6616
80.1233
59.5178
32.9504
4.80846
-20.842
-40.7519
-52.8239
-56.2618
-51.5337
-40.1746
-24.4691
-7.06913
9.39835
22.6803
31.1631
34.0284
31.2887
23.7108
12.6476
-0.191307
-12.9948
-24.0947
-32.1703
-36.3886
-36.4691
-32.6718
-25.7164
-16.6498
-6.68495
2.96776
11.2515
17.3801
20.9094
21.7568
20.1736
16.6765
11.953
6.75423
1.79151
-2.35123
-5.27867
-6.81394
-6.99622
-6.04967
-4.33058
-2.26206
-0.266323
1.29604
2.17197
2.24221
1.52618
0.166664
-1.6015
-3.49308
-5.21756
-6.52125
-7.22074
-7.22393
-6.53682
-5.25637
-3.55153
-1.63622
0.261709
1.93087
3.20215
3.96707
4.18667
3.89086
3.16886
2.15293
0.998017
-0.139698
-1.12242
-1.84618
-2.25048
-2.32144
-2.08873
-1.61716
-0.994754
-0.319035
0.316464
0.833781
1.17899
1.32687
1.28175
1.07491
0.759468
0.403606
0.0832279
-0.125123
-0.150481
0.0675516
0.575153
1.4019
2.55951
4.04148
5.82355
7.86484
10.1096
12.4899
14.9284
17.3424
19.6479
21.7644
23.6196
25.1536
26.3229
27.1032
27.491
27.5031
27.1757
26.5605
25.7206
24.7251
23.6429
22.537
21.4592
20.4462
19.5169
18.6718
17.895
17.1566
16.4175
15.6351
14.768
13.7814
12.6502
11.3614
9.91368
8.31578
6.58278
4.73126
2.77381
0.713731
-1.45923
-3.77121
-6.26383
-8.99052
-12.0093
-15.3725
-19.1136
-23.2335
-27.6876
-32.3757
-37.1377
-41.7556
-45.9638
-49.4664
-51.9606
-53.1647
-52.8457
-50.8454
-47.0989
-41.6449
-34.6245
-26.2685
-16.875
-6.7789
3.68004
14.1889
24.4863
34.3773
43.7379
52.507
60.6703
68.2384
75.2225
81.6147
87.3727
92.4147
96.6232
99.8591
101.982
102.876
102.471
100.764
97.8151
93.727
88.5905
82.3903
74.8735
65.3883
52.7152
34.9281
9.33415
-27.4545
-79.2682
-149.925
-242.585
-358.983
-498.642
-658.224
-831.164
-1007.73
-1175.57
-1320.78
-1429.31
-1488.68
-1489.61
-1427.42
-1302.94
-1122.82
-899.055
-647.873
-388.105
-139.182
80.9229
257.561
380.855
446.557
456.22
416.703
339.095
237.215
125.898
19.29
-70.6572
-135.309
-169.996
-174.145
-150.913
-106.424
-48.7248
13.3814
71.4765
118.504
149.481
161.882
155.688
133.12
98.129
55.7325
11.285
-30.2073
-64.6565
-89.2858
-102.817
-105.449
-98.6616
-84.8707
-67.0181
-48.1344
-30.9441
-17.5551
-9.26135
-6.47432
-8.77432
-15.0644
-23.7949
-33.2218
-41.6629
-47.7184
-50.431
-49.372
-44.6498
-36.8473
-26.9047
-15.967
-5.22062
4.25973
11.6355
16.3868
18.347
17.69
14.8765
10.5691
5.5309
0.520922
-3.80021
-6.94349
-8.63628
-8.83541
-7.70961
-5.59597
-2.93816
-0.215893
2.12448
3.72907
4.37827
4.00702
2.70256
0.681511
-1.74876
-4.2383
-6.44491
-8.07977
-8.94261
-8.94247
-8.10242
-6.5487
-4.48706
-2.17007
0.139295
2.20312
3.83841
4.93799
5.48065
5.52997
5.2233
4.753
4.34315
4.22492
4.61328
5.68725
7.5746
10.3416
13.9879
18.4459
23.5849
29.2195
35.122
41.0383
46.7058
51.8728
56.3171
59.8625
62.3905
63.8466
64.241
63.6423
62.1669
59.9655
57.2083
54.0721
50.73
47.3451
44.0677
41.036
38.3773
36.2098
34.6424
33.7728
33.6824
34.4294
36.0392
36.0392
36.0392
36.0392
36.0392
36.0392
36.0392
36.0392
36.0392
36.0392
36.0392
36.0392
36.0392
36.0392
36.0392
36.0392
36.0392
36.0392
36.0392
36.0392
