34.9968
93.1525
158.172
227.988
299.963
371.11
438.381
498.963
550.569
591.667
621.628
640.763
650.25
651.961
648.201
641.405
633.818
627.209
622.65
620.391
619.834
619.631
617.87
612.34
600.835
581.466
552.932
514.732
467.277
411.9
350.754
286.611
222.585
161.812
107.122
60.7313
24.0119
-2.65806
-19.928
-29.3946
-33.4123
-34.8158
-36.5863
-41.5002
-51.8014
-68.9365
-93.383
-124.59
-161.039
-200.409
-239.837
-276.231
-306.605
-328.395
-339.733
-339.63
-328.079
-306.042
-275.357
-238.543
-198.563
-158.539
-121.467
-89.9541
-65.9993
-50.84
-44.8734
-47.6582
-57.9902
-74.0459
-93.5751
-114.126
-133.279
-148.872
-159.19
-163.107
-160.165
-150.585
-135.207
-115.379
-92.7871
-69.2702
-46.6232
-26.4162
-9.84764
2.3546
9.97743
13.3091
13.0737
10.3241
6.30675
2.31648
-0.443657
-0.98147
1.39719
7.0402
15.9417
27.7728
41.9433
57.6853
74.1484
90.4955
105.992
120.079
132.434
143.001
152.009
159.954
167.555
175.683
185.253
197.094
211.809
229.63
250.308
273.039
296.467
318.755
337.746
351.183
356.984
353.515
339.845
315.92
282.648
241.861
196.153
148.625
102.555
61.0413
26.6675
1.23257
-14.4227
-20.4687
-18.019
-8.95224
4.34711
19.2944
33.4147
44.6194
51.4162
53.0313
49.4352
41.2764
29.7371
16.3371
2.71361
-9.59402
-19.3271
-25.6392
-28.1637
-27.0165
-22.7372
-16.1843
-8.40053
-0.469194
6.61921
12.0725
15.3626
16.2465
14.743
11.0754
5.59285
-1.31323
-9.28158
-18.0302
-27.3751
-37.2173
-47.5047
-58.1774
-69.1102
-80.0655
-90.6674
-100.404
-108.657
-114.765
-118.093
-118.118
-114.509
-107.18
-96.3265
-82.4257
-66.1995
-48.5537
-30.4923
-13.0214
2.94537
16.67
27.6503
35.6522
40.7111
43.1033
43.2928
41.8607
39.427
36.5724
33.7705
31.3367
29.3993
27.8947
26.5868
25.1069
23.0102
19.8406
15.1978
8.79956
0.531527
-9.51903
-21.0502
-33.5543
-46.3495
-58.6307
-69.537
-78.2295
-83.9717
-86.2052
-84.6131
-79.1616
-70.1175
-58.0359
-43.7202
-28.1571
-12.434
2.35353
15.1917
25.2285
31.8322
34.6258
33.4914
28.5497
20.1175
8.65265
-5.30553
-21.1905
-38.4523
-56.5857
-75.1446
-93.7419
-112.043
-129.754
-146.614
-162.385
-176.854
-189.83
-201.146
-210.659
-218.235
-223.744
-227.04
-227.946
-226.251
-221.709
-214.072
-203.119
-188.713
-170.856
-149.739
-125.781
-99.6346
-72.1726
-44.4354
-17.5574
7.32479
29.1692
47.1168
60.56
69.1829
72.9693
72.1792
67.3005
58.9845
47.9771
35.0561
20.9827
6.47045
-7.82832
-21.3236
-33.4839
-43.8341
-51.9618
-57.5328
-60.3163
-60.2143
-57.288
-51.7746
-44.0885
-34.802
-24.6061
-14.2546
-4.49637
3.994
10.68
15.2124
17.4578
17.5031
15.6363
12.3078
8.07678
3.55323
-0.657307
-3.9992
-5.99767
-6.27404
-4.54694
-0.623283
5.61604
14.2307
25.2316
38.5836
54.2013
71.9351
91.553
112.721
134.99
157.788
180.434
202.162
222.171
239.678
253.992
264.573
271.089
273.457
271.853
266.692
258.584
248.263
236.491
223.968
211.243
198.653
186.29
174.018
161.52
148.388
134.229
118.769
101.949
83.9861
65.3923
46.944
29.6091
14.4365
2.42464
-5.61356
-9.17084
-8.13394
-2.8278
5.99108
17.1922
29.3736
40.998
50.5477
56.6817
58.3769
55.0386
46.5673
33.3727
16.3329
-3.29615
-24.0143
-44.2354
-62.4534
-77.398
-88.1595
-94.2722
-95.745
-93.0398
-86.9995
-78.7371
-69.4989
-60.5172
-52.8693
-47.3557
-44.4109
-44.0505
-45.8613
-49.0325
-52.4268
-54.6878
-54.3781
-50.1401
-40.868
-25.8758
-5.04039
21.1012
51.3221
83.7576
116.044
145.534
169.574
185.801
192.436
188.516
174.051
150.064
118.517
82.1158
44.0275
7.53755
-24.3086
-49.0327
-64.9801
-71.4735
-68.8473
-58.3627
-42.0184
-22.2849
-1.7998
16.9369
31.8286
41.3798
44.804
42.0351
33.6466
20.6978
4.53159
-13.4443
-31.9597
-50.0414
-67.109
-82.9974
-97.9072
-112.294
-126.717
-141.674
-157.443
-173.97
-190.804
-207.108
-221.735
-233.357
-240.643
-242.443
-237.957
-226.867
-209.415
-186.404
-159.142
-129.317
-98.8335
-69.6253
-43.4681
-21.8151
-5.67117
4.48095
8.69761
7.53685
1.97428
-6.71436
-17.0885
-27.6797
-37.1163
-44.2236
-48.0939
-48.1222
-44.0103
-35.7437
-23.5509
-7.85224
10.7909
31.7201
54.214
77.5111
100.825
123.357
144.307
162.894
178.38
190.105
197.524
200.243
198.056
190.966
179.196
163.187
143.573
121.147
96.808
71.5096
46.196
21.746
-1.08043
-21.6842
-39.6592
-54.8098
-67.1551
-76.9171
-84.4945
-90.422
-95.317
-99.8172
-104.514
-109.886
-116.243
-123.68
-132.055
-140.989
-149.885
-157.988
-164.444
-168.397
-169.074
-165.882
-158.485
-146.861
-131.326
-112.528
-91.4048
-69.1027
-46.8794
-25.9873
-7.55764
7.50489
18.6044
25.5058
28.3509
27.6393
24.1755
18.9898
13.2392
8.10044
4.66353
3.83612
6.26742
12.2978
21.9374
34.8754
50.5166
68.0414
86.4837
104.817
122.043
137.27
149.785
159.093
164.95
167.356
166.534
162.895
156.975
149.382
140.734
131.604
122.479
113.731
105.603
98.2099
91.5531
85.5419
80.0214
74.8022
69.6866
64.4916
59.0649
53.295
47.115
40.502
33.4718
26.0723
18.375
10.4662
2.43829
-5.61835
-13.6229
-21.511
-29.2411
-36.7999
-44.2068
-51.5187
-58.8319
-66.2848
-74.0581
-82.3739
-91.4907
-101.693
-113.27
-126.487
-141.545
-158.521
-177.321
-197.615
-218.804
-239.996
-260.023
-277.493
-290.885
-298.682
-299.522
-292.367
-276.651
-252.394
-220.262
-181.56
-138.147
-92.2941
-46.478
-3.15618
35.4667
67.6452
92.2495
108.855
117.755
119.893
116.737
110.094
101.908
94.0486
88.1312
85.3688
86.4864
91.6944
100.721
112.896
127.27
142.748
158.228
172.712
185.392
195.692
203.28
208.033
209.995
209.307
206.152
200.697
193.062
183.306
171.433
157.423
141.261
122.988
102.732
80.7371
57.3662
33.0945
8.4804
-15.8724
-39.3574
-61.4066
-81.5227
-99.3013
-114.44
-126.736
-136.078
-142.438
-145.852
-146.424
-144.317
-139.762
-133.055
-124.556
-114.675
-103.839
-92.4407
-80.7733
-68.957
-56.8715
-44.1175
-30.0258
-13.7335
5.66668
28.9136
56.3308
87.5919
121.554
156.211
188.804
216.092
234.762
241.914
235.55
214.972
181.025
136.123
84.0474
29.5404
-22.2505
-66.4022
-98.8237
-116.758
-119.108
-106.544
-81.3884
-47.2884
-8.74076
29.4727
62.8588
87.7223
101.552
103.238
93.1157
72.8191
45.0042
12.9604
-19.8215
-50.0735
-75.1149
-93.1193
-103.258
-105.714
-101.573
-92.6122
-81.0311
-69.1432
-59.0849
-52.5671
-50.6997
-53.9023
-61.9074
-73.8463
-88.4018
-104.001
-119.023
-131.993
-141.735
-147.481
-148.909
-146.126
-139.598
-130.047
-118.329
-105.309
-91.7638
-78.3067
-65.3526
-53.117
-41.6457
-30.8635
-20.6316
-10.8014
-1.25551
8.0698
17.1823
26.0486
34.6205
42.8639
50.784
58.4388
65.9374
73.4234
81.0445
88.914
97.0692
105.435
113.797
121.797
128.937
134.616
138.179
138.982
136.464
130.215
120.037
105.984
88.3748
67.7818
44.988
20.9229
-3.41685
-27.0542
-49.1126
-68.8832
-85.8704
-99.8119
-110.672
-118.611
-123.937
-127.047
-128.367
-128.293
-127.154
-125.183
-122.511
-119.178
-115.164
-110.415
-104.889
-98.5874
-91.5778
-84.0091
-76.1069
-68.155
-60.4651
-53.339
-47.028
-41.6987
-37.4091
-34.0998
-31.6025
-29.6646
-27.9863
-26.2642
-24.2352
-21.7141
-18.6188
-14.9801
-10.9362
-6.71056
-2.57956
1.16655
4.26339
6.50728
7.78077
8.06574
7.4432
6.08044
4.20791
2.08958
-0.00905854
-1.85119
-3.25326
-4.10137
-4.35806
-4.05936
-3.30332
-2.23214
-1.01065
0.195876
1.24175
2.01658
2.455
2.54002
2.29996
1.80018
1.13111
0.394408
-0.310849
-0.900165
-1.31258
-1.51573
-1.50686
-1.30998
-0.970035
-0.54502
-0.0973734
0.314328
0.642287
0.854324
0.936242
0.891687
0.739791
0.511118
0.242609
-0.0277321
-0.265727
-0.444907
-0.549015
-0.572964
-0.522283
-0.411295
-0.260372
-0.0926968
0.0690671
0.205917
0.305349
0.364004
0.390432
0.408342
0.460557
0.61351
0.96149
1.62925
2.77119
4.56532
7.20101
10.8604
15.6948
21.7995
29.1894
37.7813
47.385
57.7066
68.3637
78.9137
88.8888
97.8369
105.361
111.154
115.021
116.891
116.815
114.947
111.526
106.837
101.186
94.8705
88.1573
81.2719
74.3948
67.6666
61.2002
55.0952
49.454
44.3953
40.0632
36.63
34.2925
33.2592
33.732
35.88
39.809
45.5286
52.9195
61.7074
71.4469
81.5212
91.1635
99.5011
105.623
108.669
107.924
102.922
93.5236
79.9762
62.9247
43.3821
22.6498
2.19848
-16.4791
-32.0247
-43.3625
-49.819
-51.2
-47.8167
-40.4558
-30.301
-18.8121
-7.57681
1.84996
8.10529
10.1616
7.44307
-0.0949091
-11.9295
-26.9842
-43.6969
-60.1422
-74.2085
-83.82
-87.19
-83.0817
-71.0457
-51.5963
-26.2918
2.31442
30.8658
55.5341
72.4623
78.2658
70.5247
48.1914
11.8436
-36.266
-92.3864
-151.656
-208.655
-258.05
-295.235
-316.886
-321.34
-308.763
-281.065
-241.61
-194.737
-145.19
-97.524
-55.58
-22.082
1.58278
15.3947
20.5483
19.1528
13.8396
7.33775
2.08078
-0.105983
1.80011
7.95814
17.7329
29.8725
42.7608
54.7001
64.1833
70.1158
71.9597
69.7857
64.2328
56.3885
47.6141
39.3426
32.8815
29.246
29.0436
32.4214
39.0787
48.3355
59.2451
70.7301
81.7216
91.2824
98.7006
103.542
105.662
105.176
102.405
97.7948
91.8379
85.0015
77.6726
70.1284
62.5323
54.9518
47.3924
39.8374
32.2851
24.7733
17.3859
10.2383
3.44452
-2.92737
-8.90036
-14.6235
-20.386
-26.6042
-33.7813
-42.4433
-53.0623
-65.978
-81.332
-99.0244
-118.701
-139.776
-161.481
-182.95
-203.305
-221.76
-237.709
-250.794
-260.95
-268.412
-273.687
-277.491
-280.659
-284.039
-288.376
-294.211
-301.798
-311.054
-321.555
-332.563
-343.095
-352.021
-358.176
-360.477
-358.033
-350.232
-336.806
-317.855
-293.842
-265.558
-234.049
-200.532
-166.296
-132.604
-100.594
-71.2031
-45.109
-22.6969
-4.05344
11.0113
22.9197
32.2624
39.7238
46.0036
51.7436
57.4679
63.5407
70.1475
77.2985
84.8534
92.5627
100.12
107.218
113.6
119.099
123.666
127.374
130.408
133.032
135.553
138.269
141.427
145.183
149.575
154.515
159.792
165.098
170.055
174.266
177.349
178.982
178.93
177.059
173.335
167.804
160.562
151.72
141.36
129.515
116.153
101.179
84.4696
65.9045
45.4221
23.0645
-0.983672
-26.3788
-52.6251
-79.1089
-105.155
-130.095
-153.344
-174.46
-193.191
-209.49
-223.505
-235.539
-245.989
-255.282
-263.798
-271.819
-279.48
-286.761
-293.486
-299.36
-304.011
-307.047
-308.113
-306.938
-303.377
-297.424
-289.219
-279.032
-267.233
-254.254
-240.544
-226.53
-212.573
-198.944
-185.807
-173.214
-161.114
-149.377
-137.821
-126.25
-114.487
-102.408
-89.9709
-77.2252
-64.3214
-51.5005
-39.0741
-27.3947
-16.82
-7.67512
-0.217332
5.39283
9.10997
11.0102
11.2848
10.2212
8.17529
5.53669
2.69217
-0.00890172
-2.28334
-3.9343
-4.86098
-5.05751
-4.602
-3.6376
-2.34841
-0.933457
0.418205
1.54853
2.34551
2.75118
2.76229
2.42435
1.82054
1.05719
0.248159
-0.50004
-1.10055
-1.49471
-1.65618
-1.59049
-1.33061
-0.929029
-0.447589
0.0539724
0.529335
0.95529
1.3382
1.71571
2.15279
2.73189
3.53838
4.64329
6.08636
7.86273
9.91668
12.1454
14.4157
16.5955
18.6019
20.4622
22.384
24.821
28.5163
34.5044
44.0491
58.5061
79.1089
106.7
141.44
182.562
228.214
275.454
320.434
358.757
385.985
398.221
392.68
368.157
325.309
266.7
196.596
120.53
44.6976
-24.7393
-82.3422
-123.994
-147.329
-151.938
-139.339
-112.726
-76.5195
-35.8117
4.24724
39.0272
64.8994
79.568
82.2234
73.5102
55.3286
30.5061
2.38759
-25.5988
-50.3471
-69.4032
-81.1872
-85.0894
-81.4411
-71.375
-56.6025
-39.143
-21.0443
-4.12784
10.2094
21.1189
28.3418
32.1701
33.3415
32.8879
31.9617
31.6649
32.9017
36.2712
42.0115
49.995
59.7724
70.6556
81.8243
92.4429
101.771
109.259
114.607
117.809
119.14
119.133
118.516
118.131
118.838
121.412
126.441
134.23
144.731
157.493
171.667
186.042
199.142
209.362
215.144
215.158
208.482
194.746
174.213
147.799
117.007
83.792
50.3681
18.98
-8.32871
-29.925
-44.7466
-52.394
-53.1453
-47.894
-38.0211
-25.2183
-11.2883
2.05562
13.3636
21.5804
26.119
26.8725
24.1686
18.676
11.2785
2.93722
-5.44295
-13.1237
-19.6099
-24.6845
-28.4026
-31.0477
-33.0603
-34.9511
-37.2111
-40.2322
-44.2459
-49.2905
-55.2047
-61.6513
-68.162
-74.1984
-79.2201
-82.751
-84.4349
-84.0765
-81.662
-77.3597
-71.5018
-64.5496
-57.0492
-49.5809
-42.7089
-36.9352
-32.6626
-30.167
-29.5828
-30.8988
-33.9658
-38.5118
-44.1656
-50.4834
-56.9787
-63.1515
-68.516
-72.6253
-75.0911
-75.5998
-73.9228
-69.9235
-63.5614
-54.8935
-44.074
-31.3519
-17.0668
-1.63974
14.4394
30.6305
46.3668
61.083
74.2458
85.3845
94.1185
100.18
103.428
103.855
101.584
96.8555
90.0083
81.4573
71.6657
61.1194
50.3032
39.68
29.6746
20.6599
12.9444
6.76142
2.25635
-0.525555
-1.65183
-1.31292
0.173199
2.36563
4.71801
6.61126
7.40172
6.48244
3.35174
-2.31874
-10.6263
-21.3999
-34.1904
-48.2954
-62.8172
-76.75
-89.0868
-98.9329
-105.61
-108.74
-108.285
-104.561
-98.1925
-90.0373
-81.0834
-72.3266
-64.6509
-58.7233
-54.9175
-53.2758
-53.5149
-55.0735
-57.1957
-59.0402
-59.797
-58.7999
-55.6158
-50.1024
-42.4253
-33.0343
-22.603
-11.9418
-1.89492
6.76189
13.4119
17.6639
19.3882
18.7185
16.022
11.8433
6.83121
1.65753
-3.05946
-6.81928
-9.28305
-10.2934
-9.86964
-8.18165
-5.50719
-2.18074
1.4588
5.11394
8.56206
11.6727
14.4077
16.8049
18.9509
20.9466
22.8732
24.764
26.5876
28.2437
29.5735
30.3815
30.465
29.6471
27.807
24.9036
20.9881
16.2051
10.781
5.00219
-0.814489
-6.35387
-11.3343
-15.5344
-18.8123
-21.1148
-22.4764
-23.0094
-22.8852
-22.3099
-21.4972
-20.639
-19.8775
-19.2773
-18.7993
-18.2737
-17.3748
-15.5981
-12.2487
-6.45
2.8124
16.5992
35.8735
61.3115
93.0902
130.689
172.754
217.064
260.637
299.977
331.451
351.737
358.285
349.723
326.119
289.073
241.598
187.824
132.532
80.6134
36.5095
3.7129
-15.6029
-20.784
-12.7031
6.41589
33.3289
64.2042
95.0996
122.418
143.29
155.837
159.292
153.98
141.163
122.79
101.192
78.7582
57.648
39.5621
25.6007
16.2142
11.2431
10.0291
11.5741
14.7183
18.3109
21.3502
23.0801
23.0351
21.0383
17.1604
11.6542
4.87855
-2.77344
-10.9325
-19.2899
-27.6124
-35.736
-43.5448
-50.9417
-57.8172
-64.0242
-69.3633
-73.5815
-76.3856
-77.4692
-76.5494
-73.4076
-67.9295
-60.1367
-50.205
-38.4657
-25.3882
-11.5458
2.43186
15.9139
28.3234
39.1866
48.17
55.1001
59.9666
62.9055
64.1696
64.086
63.0102
61.2798
59.1751
56.89
54.5166
52.0448
49.3743
46.3375
42.7293
38.3385
32.978
26.5104
18.8653
10.0482
0.141436
-10.7042
-22.2825
-34.3496
-46.6434
-58.9019
-70.88
-82.3623
-93.1721
-103.176
-112.283
-120.442
-127.637
-133.872
-139.167
-143.544
-147.018
-149.592
-151.251
-151.968
-151.707
-150.433
-148.13
-144.807
-140.515
-135.356
-129.478
-123.076
-116.378
-109.626
-103.054
-96.8735
-91.2446
-86.2689
-81.9798
-78.3432
-75.2647
-72.6026
-70.185
-67.8273
-65.3498
-62.5922
-59.4259
-55.7617
-51.5556
-46.8109
-41.5782
-35.9532
-30.0714
-24.1005
-18.2297
-12.6572
-7.57529
-3.15503
0.468103
3.20637
5.02798
5.96047
6.08883
5.54858
4.51488
3.18894
1.78337
0.507557
-0.445552
-0.91085
-0.759992
0.0924667
1.68603
4.01454
7.02973
10.6478
14.7582
19.2335
23.9394
28.7433
33.5211
38.1609
42.5647
46.6488
50.3423
53.5862
56.3329
58.5467
60.2052
61.3012
61.8451
61.8662
61.4132
60.5535
59.3705
57.9606
56.4281
54.8796
53.4169
52.128
51.076
50.2862
49.7339
49.3322
48.9251
48.2881
47.1365
45.1457
41.9792
37.3239
30.9271
22.6303
12.394
0.309212
-13.4065
-28.4274
-44.3479
-60.7143
-77.0519
-92.8817
-107.724
-121.094
-132.489
-141.389
-147.262
-149.597
-147.943
-141.979
-131.565
-116.808
-98.0954
-76.1039
-51.7762
-26.2596
-0.813236
23.3094
44.9884
63.361
77.9215
88.5835
95.6919
99.9817
102.486
104.408
106.97
111.264
118.127
128.043
141.106
157.019
175.149
194.61
214.367
233.345
250.527
265.032
276.167
283.45
286.612
285.582
280.46
271.483
259.001
243.446
225.316
205.152
183.534
161.059
138.334
115.956
94.4967
74.4757
56.3386
40.4325
26.9843
16.0848
7.67962
1.56944
-2.58222
-5.23188
-6.93108
-8.2934
-9.95366
-12.519
-16.5126
-22.3102
-30.073
-39.683
-50.6897
-62.2826
-73.3066
-82.3316
-87.7863
-88.1486
-82.1734
-69.1243
-48.9684
-22.4938
8.6808
42.2168
75.2814
104.859
128.105
142.694
147.107
140.819
124.363
99.2538
67.7985
32.8059
-2.75586
-36.1109
-64.9903
-87.8698
-104.102
-113.928
-118.37
-119.028
-117.801
-116.593
-117.023
-120.206
-126.614
-136.046
-147.701
-160.339
-172.511
-182.797
-190.037
-193.513
-193.051
-189.028
-182.308
-174.087
-165.706
-158.435
-153.289
-150.872
-151.297
-154.177
-158.69
-163.701
-167.928
-170.121
-169.231
-164.539
-155.744
-142.982
-126.784
-107.988
-87.6139
-66.711
-46.2229
-26.8651
-9.04409
7.17694
22.0624
36.1423
50.1134
64.719
80.6231
98.2968
117.932
139.396
162.223
185.661
208.743
230.399
249.568
265.317
276.941
284.033
286.521
284.665
279.022
270.374
259.639
247.774
235.672
224.076
213.507
204.224
196.204
189.159
182.568
175.748
167.926
158.336
146.302
131.327
113.159
91.8278
67.6638
41.2694
13.4661
-14.789
-42.5046
-68.763
-92.8205
-114.187
-132.672
-148.397
-161.759
-173.366
-183.939
-194.199
-204.759
-216.023
-228.118
-240.857
-253.749
-266.036
-276.776
-284.945
-289.541
-289.703
-284.802
-274.522
-258.898
-238.334
-213.574
-185.645
-155.777
-125.292
-95.4958
-67.5604
-42.4231
-20.7084
-2.68222
11.7572
23.0487
31.9032
39.2117
45.9383
53.0104
61.2191
71.1412
83.0884
97.0891
112.901
130.048
147.885
165.657
182.584
197.914
210.991
221.289
228.438
232.24
232.657
229.803
223.913
215.314
204.386
191.528
177.123
161.507
144.944
127.618
109.62
90.958
71.5736
51.3643
30.2179
8.04916
-15.1624
-39.3399
-64.2847
-89.6651
-115.02
-139.777
-163.293
-184.892
-203.931
-219.85
-232.231
-240.843
-245.665
-246.902
-244.968
-240.453
-234.066
-226.561
-218.664
-210.985
-203.945
-197.725
-192.238
-187.133
-181.846
-175.669
-167.864
-157.772
-144.93
-129.165
-110.648
-89.9059
-67.7915
-45.3971
-23.9413
-4.63418
11.4592
23.5382
31.1547
34.2575
33.1902
28.6427
21.5647
13.0534
4.22947
-3.88187
-10.4515
-14.9179
-17.0223
-16.8071
-14.5792
-10.8466
-6.23741
-1.41294
3.01462
6.55014
8.86247
9.80676
9.42181
7.90537
5.57265
2.80486
-0.00480084
-2.50057
-4.40295
-5.5327
-5.81791
-5.28446
-4.0329
-2.20635
0.0440553
2.58975
5.34553
8.2765
11.3902
14.7159
18.2747
22.0492
25.9573
29.839
33.4578
36.5211
38.715
39.7489
39.4039
37.5747
34.2983
29.7642
24.3019
18.3477
12.3957
6.93816
2.40684
-0.878673
-2.74608
-3.18488
-2.33827
-0.474076
2.06048
4.8931
7.68168
10.1626
12.1849
13.7271
14.8933
15.8927
17.0056
18.5443
20.8172
24.1044
28.6482
34.659
42.328
51.8358
63.3422
76.9479
92.6271
110.14
128.948
148.15
166.478
182.359
194.047
199.828
198.252
188.37
169.927
143.474
110.38
72.7228
33.0824
-5.74525
-41.069
-70.6137
-92.7753
-106.786
-112.765
-111.656
-105.053
-94.9587
-83.4942
-72.619
-63.8892
-58.289
-56.1554
-57.1967
-60.5994
-65.1987
-69.6857
-72.8195
-73.6124
-71.4677
-66.2506
-58.2905
-48.3185
-37.3523
-26.5502
-17.0535
-9.84135
-5.61317
-4.71392
-7.10655
-12.3917
-19.8688
-28.6268
-37.6526
-45.942
-52.5998
-56.9195
-58.4327
-56.9267
-52.4289
-45.164
-35.4912
-23.8314
-10.5959
3.87172
19.3346
35.6741
52.8755
70.9891
90.0751
110.142
131.089
152.661
174.433
195.813
216.086
234.474
250.227
262.709
271.492
276.425
277.68
275.753
271.428
265.698
259.654
254.359
250.712
249.33
250.47
253.979
259.31
265.582
271.682
276.401
278.576
277.225
271.656
261.539
246.929
228.24
206.193
181.726
155.894
129.772
104.364
80.5408
58.9886
40.1893
24.4184
11.7599
2.13235
-4.67892
-8.98673
-11.1686
-11.6359
-10.8077
-9.08847
-6.85119
-4.425
-2.08857
-0.069248
1.45126
2.32505
2.42108
1.60529
-0.278685
-3.42471
-8.0711
-14.4965
-23.0027
-33.8859
-47.3972
-63.6996
-82.8268
-104.651
-128.864
-154.982
-182.365
-210.259
-237.849
-264.32
-288.916
-310.993
-330.058
-345.781
-357.999
-366.696
-371.971
-374.003
-373.015
-369.248
-362.943
-354.345
-343.7
-331.28
-317.388
-302.374
-286.627
-270.569
-254.623
-239.181
-224.561
-210.972
-198.485
-187.019
-176.354
-166.157
-156.026
-145.549
-134.367
-122.224
-109.011
-94.7949
-79.8121
-64.4545
-49.2279
-34.6988
-21.4333
-9.93632
-0.598416
6.34423
10.8317
12.9826
13.077
11.5231
8.81169
5.46479
1.98424
-1.19403
-3.73516
-5.42697
-6.18647
-6.05202
-5.16311
-3.73116
-2.00571
-0.240037
1.33954
2.55765
3.305
3.54384
3.30412
2.67192
1.77231
0.749387
-0.253768
-1.11279
-1.73541
-2.06938
-2.10451
-1.86934
-1.42323
-0.845562
-0.223576
0.359429
0.834127
1.15235
1.29086
1.25153
1.05846
0.752501
0.384318
0.00698552
-0.330963
-0.591152
-0.749105
-0.795831
-0.737307
-0.592122
-0.387792
-0.156347
0.0701844
0.263803
0.403633
0.477791
0.483924
0.428491
0.32501
0.191612
0.0482631
-0.0859397
-0.195079
-0.268084
-0.299606
-0.290083
-0.245072
-0.174004
-0.0885886
-0.00109469
0.0772491
0.137558
0.174159
0.184965
0.171356
0.137634
0.0901783
0.036416
-0.01622
-0.0612279
-0.0937556
-0.111034
-0.11249
-0.0995225
-0.0749063
-0.041766
-0.00204562
0.0455195
0.107764
0.199403
0.344735
0.57806
0.942236
1.48497
2.25284
3.28352
4.59711
6.18778
8.01735
10.0122
12.0653
14.0449
15.8124
17.2495
18.2969
18.9999
19.5566
20.358
22.0087
25.3127
31.2156
40.6954
54.6087
73.5065
97.4487
125.85
157.398
190.063
221.237
247.963
267.272
276.549
273.896
258.424
230.442
191.483
144.189
92.0438
39.0018
-10.9444
-54.1953
-87.92
-110.33
-120.821
-119.964
-109.368
-91.4272
-68.9924
-45.0212
-22.2407
-2.8684
11.5813
20.3886
23.6161
22.005
16.8001
9.53343
1.7977
-4.96245
-9.61574
-11.4506
-10.2156
-6.09514
0.368384
8.39155
17.0857
25.5924
33.201
39.4338
44.0924
47.26
49.2651
50.613
51.8964
53.6983
56.5004
60.6086
66.1051
72.8315
80.4054
88.2655
95.7398
102.127
106.782
109.188
109.019
106.172
100.771
93.145
83.7886
73.2966
62.3
51.4012
41.1195
31.8523
23.8555
17.2416
11.9951
7.99879
5.06781
2.9844
1.5299
0.509869
-0.229482
-0.794181
-1.24377
-1.59918
-1.85474
-1.99184
-1.99214
-1.8493
-1.57944
-1.23184
-0.901742
-0.746229
-1.00226
-2.0037
-4.19235
-8.11741
-14.4188
-23.7912
-36.9292
-54.4558
-76.8411
-104.32
-136.818
-173.903
-214.765
-258.233
-302.843
-346.936
-388.79
-426.762
-459.443
-485.779
-505.17
-517.517
-523.227
-523.151
-518.493
-510.671
-501.173
-491.397
-482.52
-475.39
-470.462
-467.778
-466.992
-467.44
-468.228
-468.353
-466.813
-462.717
-455.371
-444.339
-429.468
-410.883
-388.95
-364.219
-337.349
-309.024
-279.885
-250.464
-221.148
-192.175
-163.641
-135.55
-107.863
-80.5592
-53.6947
-27.4357
-2.07629
21.9731
44.2209
64.1494
81.2781
95.2278
105.771
112.862
116.644
117.426
115.644
111.797
106.396
99.8956
92.662
84.9429
76.8685
68.4688
59.7067
50.5185
40.8543
30.7118
20.1569
9.33014
-1.56262
-12.2715
-22.532
-32.0962
-40.7623
-48.3959
-54.9413
-60.422
-64.9303
-68.6083
-71.6248
-74.1495
-76.3304
-78.2742
-80.0331
-81.5985
-82.8995
-83.809
-84.1546
-83.7354
-82.3436
-79.7895
-75.9288
-70.6885
-64.0884
-56.2549
-47.4239
-37.9319
-28.1934
-18.6687
-9.82261
-2.0818
4.2068
8.80955
11.6282
12.7073
12.2268
10.4797
7.83861
4.7155
1.51837
-1.38865
-3.71816
-5.28166
-5.99926
-5.89664
-5.09055
-3.76542
-2.14464
-0.460159
1.07569
2.29322
3.08083
3.39203
3.24376
2.70733
1.89369
0.935476
-0.0316655
-0.886125
-1.5338
-1.91671
-2.01628
-1.85129
-1.47149
-0.947942
-0.3616
0.208615
0.697051
1.06114
1.28914
1.40536
1.47225
1.58879
1.88485
2.51137
3.62679
5.38059
7.89559
11.2506
15.4657
20.4912
26.2034
32.4062
38.8404
45.2002
51.1551
56.3759
60.5628
63.4715
64.9361
64.884
63.3438
60.4423
56.3937
51.4804
46.0284
40.3801
34.8674
29.7872
25.382
21.8274
19.2253
17.6043
16.926
17.0951
17.9735
19.398
21.2
23.2298
25.3841
27.6365
30.0661
32.8778
36.4063
41.0934
47.4329
55.8834
66.7579
80.1066
95.6163
112.552
129.763
145.756
158.848
167.367
169.88
165.412
153.621
134.892
110.338
81.7079
51.2013
21.2236
-5.88506
-28.1136
-43.9992
-52.776
-54.4364
-49.7028
-39.9194
-26.8822
-12.6332
0.753213
11.3676
17.6259
18.3808
12.9784
1.26396
-16.4554
-39.4798
-66.8043
-97.2129
-129.371
-161.906
-193.475
-222.823
-248.817
-270.48
-287.012
-297.805
-302.46
-300.797
-292.863
-278.942
-259.545
-235.404
-207.443
-176.743
-144.486
-111.894
-80.1576
-50.3663
-23.4441
-0.0992508
19.2069
34.2672
45.113
51.978
55.2476
55.4024
52.9636
48.4478
42.337
35.0653
27.0217
18.5651
10.0453
1.82295
-5.71835
-12.1728
-17.1283
-20.1965
-21.0537
-19.4845
-15.4226
-8.97879
-0.452642
9.67752
20.7846
32.14
42.9727
52.5319
60.1472
65.2798
67.5585
66.8016
63.0203
56.408
47.316
36.22
23.6804
10.2999
-3.31819
-16.6077
-29.0719
-40.3074
-50.0201
-58.0311
-64.275
-68.7899
-71.7009
-73.2008
-73.5263
-72.935
-71.6832
-70.0053
-68.0976
-66.1048
-64.1127
-62.1447
-60.1655
-58.0894
-55.7955
-53.1471
-50.0151
-46.302
-41.9641
-37.0286
-31.6033
-25.8754
-20.0989
-14.5711
-9.59991
-5.46725
-2.39196
-0.499616
0.196889
-0.197667
-1.47136
-3.3299
-5.43223
-7.43188
-9.01838
-9.95296
-10.094
-9.40898
-7.97259
-5.95076
-3.57464
-1.10774
1.18876
3.08817
4.42376
5.10497
5.12289
4.54514
3.50174
2.16438
0.722293
-0.641957
-1.7737
-2.56211
-2.94926
-2.93188
-2.55623
-1.90738
-1.09485
-0.236575
0.556444
1.19313
1.61146
1.78316
1.71354
1.43739
1.01147
0.505122
-0.00969914
-0.467683
-0.817615
-1.02728
-1.08546
-1.00111
-0.80009
-0.520124
-0.204801
0.102504
0.364053
0.55188
0.650257
0.656369
0.579291
0.437589
0.255999
0.0617332
-0.11901
-0.263841
-0.355892
-0.384328
-0.343768
-0.233017
-0.0536552
0.190957
0.495895
0.854202
1.25632
1.69051
2.14545
2.6158
3.11064
3.66343
4.3409
5.2479
6.52483
8.33594
10.848
14.2015
18.4778
23.6687
29.6534
36.1889
42.9167
49.387
55.0984
59.5482
62.2868
62.9683
61.391
57.5221
51.5029
43.6346
34.3467
24.1514
13.591
3.18296
-6.62896
-15.5131
-23.2724
-29.8484
-35.3064
-39.804
-43.5468
-46.7384
-49.5334
-51.998
-54.088
-55.6458
-56.4189
-56.0959
-54.3567
-50.9288
-45.6404
-38.4642
-29.5437
-19.1989
-7.90904
3.72435
15.0311
25.3356
34.0214
40.5915
44.7149
46.257
45.2877
42.0702
37.0286
30.7017
23.6862
16.5773
9.91323
4.12953
-0.471842
-3.73634
-5.65305
-6.3353
-5.98948
-4.87702
-3.2751
-1.44098
0.41596
2.15249
3.69948
5.06108
6.30776
7.56701
9.01575
10.8783
13.4324
17.0233
22.0828
29.1458
38.8526
51.9254
69.1063
91.052
118.19
150.55
187.605
228.147
270.247
311.309
348.251
377.782
396.759
402.58
393.542
369.124
330.14
278.736
218.225
152.775
86.994
25.455
-27.7683
-69.5064
-97.7847
-111.972
-112.774
-102.074
-82.6588
-57.863
-31.1768
-5.87399
15.3017
30.3599
38.1781
38.5055
31.8693
19.4052
2.64375
-16.7177
-37.0263
-56.8455
-75.0727
-90.9962
-104.293
-114.978
-123.318
-129.731
-134.674
-138.561
-141.684
-144.187
-146.055
-147.139
-147.209
-146.01
-143.325
-139.03
-133.133
-125.787
-117.28
-108.001
-98.3896
-88.8746
-79.8074
-71.4095
-63.7345
-56.6547
-49.8749
-42.9714
-35.453
-26.8331
-16.7057
-4.81204
8.91039
24.3036
40.9937
58.4231
75.9077
92.7089
108.114
121.514
132.462
140.72
146.272
149.31
150.197
149.412
147.479
144.9
142.093
139.34
136.771
134.352
131.907
129.155
125.757
121.372
115.706
108.558
99.8512
89.6461
78.1422
65.6603
52.6138
39.4712
26.7142
14.7962
4.10522
-5.06439
-12.5303
-18.2281
-22.2052
-24.605
-25.6423
-25.5746
-24.6721
-23.1912
-21.3521
-19.3262
-17.2312
-15.1361
-13.0737
-11.059
-9.11027
-7.26812
-5.61092
-4.26131
-3.38248
-3.16315
-3.79193
-5.42369
-8.14208
-11.9239
-16.6114
-21.8985
-27.3365
-32.3597
-36.3334
-38.6176
-38.6417
-35.9797
-30.4161
-21.9932
-11.0303
1.88767
15.9549
30.2172
43.6658
55.3392
64.4239
70.3379
72.7897
71.8036
67.7096
61.0992
52.7529
43.5491
34.3653
25.9841
19.0129
13.8286
10.5495
9.03802
8.93078
9.69235
10.6846
11.2442
10.7599
8.74285
4.88324
-0.910063
-8.49088
-17.4792
-27.2867
-37.1637
-46.2636
-53.7204
-58.7326
-60.6452
-59.0225
-53.703
-44.8304
-32.8582
-18.5256
-2.8075
13.1557
28.1443
40.9531
50.4872
55.8548
56.451
52.029
42.7487
29.1969
12.3674
-6.40202
-25.5402
-43.3912
-58.3881
-69.2305
-75.0403
-75.472
-70.76
-61.6915
-49.5084
-35.749
-22.0533
-9.95744
-0.706744
4.88681
6.52512
4.43295
-0.702915
-7.85287
-15.8029
-23.3289
-29.3611
-33.1193
-34.1991
-32.6044
-28.7219
-23.2473
-17.0751
-11.1695
-6.43287
-3.59195
-3.11157
-5.14746
-9.53999
-15.847
-23.4085
-31.4334
-39.0953
-45.6248
-50.3869
-52.9349
-53.0352
-50.6608
-45.959
-39.1999
-30.7147
-20.8375
-9.85942
1.99782
14.5835
27.7978
41.5538
55.7318
70.1354
84.4595
98.2784
111.059
122.196
131.071
137.122
139.91
139.187
134.937
127.392
117.027
104.516
90.6723
76.3719
62.4699
49.7228
38.7238
29.8595
23.2907
18.9586
16.6136
15.862
16.223
17.1891
18.2823
19.1006
19.3502
18.8615
17.5885
15.5937
13.022
10.0678
6.9408
3.8386
0.931519
-1.63192
-3.6957
-5.04411
-5.33545
-4.03912
-0.399659
6.54727
17.8878
34.6667
57.6617
87.1297
122.574
162.585
204.807
246.058
282.599
310.54
326.314
327.168
311.569
279.496
232.528
173.748
107.445
38.665
-27.3347
-85.6518
-132.258
-164.406
-180.873
-182.023
-169.68
-146.847
-117.293
-85.0866
-54.1188
-27.6789
-8.13432
3.25832
6.39284
2.21164
-7.51575
-20.4973
-34.2625
-46.4999
-55.3477
-59.6038
-58.8358
-53.3847
-44.2681
-33.0032
-21.3757
-11.1879
-4.01804
-1.02046
-2.7885
-9.2935
-19.9027
-33.4694
-48.4807
-63.241
-76.069
-85.4834
-90.357
-90.0239
-84.3307
-73.6288
-58.7143
-40.7226
-20.9963
-0.938013
18.1312
35.0955
49.1374
59.7919
66.9616
70.8916
72.1133
71.3647
69.5
67.3978
65.8789
65.6402
67.208
70.9127
76.8817
85.0492
95.1759
106.878
119.656
132.934
146.088
158.478
169.49
178.557
185.194
189.021
189.784
187.362
181.77
173.15
161.755
147.922
132.053
114.579
95.9455
76.5821
56.8931
37.2435
17.9519
-0.714918
-18.545
-35.3849
-51.1413
-65.7834
-79.3412
-91.9012
-103.597
-114.591
-125.06
-135.162
-145.018
-154.686
-164.145
-173.289
-181.933
-189.828
-196.691
-202.237
-206.216
-208.448
-208.845
-207.43
-204.334
-199.782
-194.071
-187.536
-180.509
-173.295
-166.131
-159.173
-152.485
-146.035
-139.706
-133.31
-126.606
-119.324
-111.189
-101.946
-91.389
-79.3869
-65.9053
-51.0254
-34.9524
-18.0121
-0.633649
16.6808
33.3989
49.0072
63.0624
75.2365
85.3495
93.3865
99.4938
103.957
107.162
109.545
111.539
113.524
115.779
118.458
121.576
125.009
128.515
131.766
134.382
135.976
136.189
134.722
131.364
126.007
118.65
109.393
98.431
86.0308
72.512
58.2244
43.5262
28.7668
14.2734
0.344323
-12.7537
-24.7835
-35.5342
-44.8192
-52.4764
-58.3734
-62.4173
-64.5673
-64.8502
-63.3737
-60.3373
-56.038
-50.8694
-45.3138
-39.9263
-35.3091
-32.0748
-30.7996
-31.9663
-35.9052
-42.7382
-52.3384
-64.313
-78.0162
-92.5941
-107.056
-120.364
-131.529
-139.7
-144.236
-144.758
-141.168
-133.649
-122.636
-108.771
-92.8456
-75.7326
-58.3216
-41.4517
-25.8542
-12.1066
-0.600545
8.47341
15.1234
19.5368
22.0469
23.0879
23.1452
22.7036
22.201
21.9902
22.3139
23.2928
24.9304
27.13
29.7233
32.5062
35.2748
37.8593
40.1491
42.1073
43.7715
45.2436
46.6684
48.2061
50.0029
52.1631
54.7278
57.6632
60.8582
64.1337
67.2602
69.9817
72.0424
73.213
73.3122
72.2218
69.8927
66.3419
61.6422
55.9055
49.2643
41.8552
33.8063
25.2326
16.2394
6.93242
-2.5668
-12.1055
-21.4875
-30.4693
-38.7665
-46.0743
-52.0974
-56.5896
-59.3932
-60.4735
-59.9377
-58.0316
-55.1089
-51.5717
-47.7889
-44.0029
-40.2473
-36.2966
-31.6713
-25.7136
-17.7326
-7.20154
6.027
21.5367
38.2403
54.3902
67.7233
75.734
76.0382
66.7732
46.9637
16.7891
-22.3012
-67.6524
-115.647
-162.097
-202.733
-233.714
-252.105
-256.226
-245.861
-222.27
-188.024
-146.686
-102.38
-59.305
-21.2728
8.69545
28.6502
37.8527
36.7632
26.8901
10.5289
-9.5682
-30.547
-49.7855
-65.1681
-75.2747
-79.4673
-77.876
-71.2954
-61.0132
-48.5984
-35.6793
-23.7393
-13.9519
-7.07226
-3.39013
-2.74446
-4.59025
-8.10373
-12.3085
-16.2043
-18.8816
-19.6091
-17.8866
-13.4606
-6.30581
3.41877
15.4293
29.3802
44.9194
61.729
79.5452
98.1585
117.398
137.104
157.101
177.173
197.054
216.427
234.941
252.243
268.004
281.962
293.947
303.9
311.881
318.057
322.681
326.057
328.503
330.305
331.681
332.745
333.482
333.739
333.228
331.544
328.197
322.665
314.445
303.123
288.422
270.254
248.752
224.278
197.413
168.926
139.728
110.802
83.1389
57.6636
35.1638
16.2326
1.22297
-9.78109
-16.9732
-20.8136
-21.9981
-21.4081
-20.0443
-18.9496
-19.1238
-21.4406
-26.5712
-34.9242
-46.6073
-61.4166
-78.8554
-98.1817
-118.481
-138.756
-158.023
-175.411
-190.238
-202.072
-210.761
-216.43
-219.447
-220.363
-219.838
-218.553
-217.13
-216.06
-215.657
-216.033
-217.096
-218.572
-220.054
-221.046
-221.032
-219.527
-216.135
-210.587
-202.772
-192.741
-180.707
-167.019
-152.127
-136.536
-120.762
-105.282
-90.5024
-76.7284
-64.1573
-52.8794
-42.8938
-34.1314
-26.4833
-19.8271
-14.0493
-9.05987
-4.79656
-1.22165
1.68896
3.95987
5.63028
6.76431
7.45522
7.82219
8.00015
8.12414
8.31109
8.6422
9.1492
9.80741
10.5376
11.2174
11.701
11.8448
11.5351
10.7122
9.38714
7.64734
5.64807
3.59159
1.69588
0.15806
-0.88141
-1.36731
-1.34523
-0.960503
-0.439277
-0.0539321
-0.0779476
-0.737551
-2.16844
-4.38529
-7.26967
-10.579
-13.9757
-17.0717
-19.4822
-20.8798
-21.0407
-19.8758
-17.4419
-13.9314
-9.64152
-4.92916
-0.157094
4.35903
8.39531
11.8492
14.7496
17.2471
19.5843
22.0524
24.9396
28.4783
32.7997
37.9024
43.639
49.7243
55.7628
61.2931
65.8429
68.988
70.4064
69.9238
67.5413
63.4461
58.0002
51.7112
45.1862
39.074
34.0025
30.5161
29.0219
29.7493
32.7288
37.7918
44.5922
52.647
61.3908
70.2377
78.6419
86.1506
92.4411
97.3367
100.802
102.913
103.82
103.688
102.651
100.766
97.9838
94.1454
88.9916
82.1963
73.4129
62.3282
48.717
32.4902
13.7302
-7.29014
-30.107
-54.0828
-78.4386
-102.3
-124.751
-144.896
-161.916
-175.141
-184.099
-188.57
-188.621
-184.617
-177.202
-167.24
-155.711
-143.574
-131.59
-120.152
-109.148
-97.8902
-85.1514
-69.3228
-48.6905
-21.7949
12.183
53.0828
99.5475
148.988
197.761
241.544
275.88
296.786
301.361
288.268
258.028
213.069
157.504
96.6868
36.5874
-16.9182
-58.7462
-85.1989
-94.3733
-86.3376
-63.056
-28.0821
13.9326
57.8424
98.6417
132.047
154.954
165.723
164.259
151.903
131.143
105.213
77.6315
51.7391
30.3026
15.2263
7.39847
6.68122
12.0323
21.7306
33.6677
45.6612
55.7489
62.4271
64.8066
62.6747
56.4617
47.1245
35.9694
24.4425
13.918
5.51384
-0.044777
-2.49681
-2.04911
0.684058
4.79256
9.21453
12.8916
14.9137
14.6356
11.7509
6.31787
-1.26338
-10.3162
-19.9828
-29.3372
-37.4979
-43.7283
-47.5127
-48.6
-47.0135
-43.0275
-37.1174
-29.8915
-22.0133
-14.1259
-6.78583
-0.413843
4.73325
8.56881
11.1617
12.7045
13.4708
13.7662
13.8811
14.0502
14.4219
15.0411
15.8464
16.679
17.3035
17.4354
16.7742
15.0372
11.9923
7.48523
1.46083
-6.02481
-14.8023
-24.5968
-35.0453
-45.7204
-56.159
-65.891
-74.4671
-81.4832
-86.6019
-89.5729
-90.2523
-88.6216
-84.8039
-79.0727
-71.8478
-63.6728
-55.1726
-46.9918
-39.723
-33.8353
-29.6152
-27.1325
-26.2369
-26.5881
-27.7138
-29.0863
-30.2059
-30.6763
-30.2602
-28.9084
-26.7577
-24.0987
-21.322
-18.8495
-17.0639
-16.2457
-16.5274
-17.871
-20.0713
-22.7827
-25.5675
-27.9557
-29.509
-29.8804
-28.8603
-26.4032
-22.6335
-17.8282
-12.3804
-6.74973
-1.40513
3.23156
6.834
9.20657
10.3022
10.2222
9.19824
7.56063
5.6969
4.00595
2.85335
2.5326
3.23624
5.03925
7.89575
11.6482
16.0476
20.781
25.5036
29.8714
33.5714
36.346
38.0105
38.4627
37.6837
35.7317
32.7291
28.8463
24.282
19.245
13.9365
8.53697
3.19671
-1.96864
-6.87776
-11.4793
-15.7444
-19.6572
-23.2056
-26.3716
-29.1256
-31.4228
-33.2037
-34.3983
-34.9344
-34.7471
-33.7905
-32.0481
-29.5411
-26.3325
-22.5266
-18.2621
-13.6996
-9.00518
-4.33042
0.205554
4.52998
8.62202
12.5078
16.2444
19.8952
23.4999
27.0458
30.4463
33.5325
36.0629
37.7496
38.3028
37.4834
35.1591
31.3514
26.2661
20.2977
14.0072
8.07086
3.2074
0.0924959
-0.728593
1.08254
5.60279
12.6232
21.659
31.9946
42.7581
53.0177
61.8871
68.6301
72.7494
74.0516
72.6784
69.1019
64.0806
58.5824
53.6804
50.4327
49.7596
52.3316
58.4813
68.1489
80.8679
95.7934
111.771
127.437
141.349
152.119
158.556
159.782
155.331
145.198
129.855
110.21
87.5219
63.2875
39.094
16.4673
-3.27551
-19.1516
-30.6043
-37.5524
-40.39
-39.9394
-37.3593
-34.0166
-31.3364
-30.6441
-33.0172
-39.1643
-49.345
-63.3402
-80.475
-99.6905
-119.649
-138.857
-155.788
-168.977
-177.098
-179.002
-173.75
-160.639
-139.26
-109.58
-72.0641
-27.7893
21.4563
73.1492
124.107
170.687
209.094
235.781
247.876
243.577
222.456
185.611
135.641
76.4401
12.823
-49.9647
-106.792
-153.181
-185.761
-202.597
-203.344
-189.222
-162.811
-127.71
-88.0931
-48.2249
-11.9995
17.4533
38.0455
48.8705
50.1958
43.3218
30.3329
13.7803
-3.66089
-19.5165
-31.7823
-39.1111
-40.9025
-37.2942
-29.0672
-17.4849
-4.09279
9.49087
21.7696
31.5256
37.9264
40.5757
39.5096
35.1474
28.2072
19.6009
10.3234
1.34655
-6.47015
-12.4479
-16.131
-17.3038
-15.9845
-12.3999
-6.94455
-0.131235
7.46439
15.2595
22.717
29.3923
34.97
39.2885
42.3502
44.314
45.4735
46.2184
46.9863
48.2075
50.2495
53.3682
57.6703
63.0929
69.4028
76.2138
83.0233
89.2603
94.3411
97.7253
98.9667
97.753
93.9312
87.5172
78.6891
67.7645
55.1672
41.3846
26.9227
12.2624
-2.17739
-16.0663
-29.1761
-41.3812
-52.6465
-63.0055
-72.5318
-81.3086
-89.4013
-96.8358
-103.589
-109.588
-114.728
-118.893
-121.987
-123.959
-124.83
-124.702
-123.752
-122.216
-120.351
-118.398
-116.533
-114.832
-113.25
-111.618
-109.664
-107.057
-103.466
-98.6198
-92.3651
-84.7098
-75.8385
-66.1023
-55.9822
-46.0307
-36.8016
-28.7778
-22.3091
-17.568
-14.5302
-12.9818
-12.5516
-12.7636
-13.101
-13.0737
-12.2786
-10.4467
-7.47014
-3.40679
1.53584
7.0351
12.6996
18.1211
22.9238
26.8063
29.5702
31.133
31.5251
30.8731
29.3718
27.2507
24.7394
22.0385
19.2997
16.6193
14.0469
11.6075
9.333
7.29533
5.63114
4.54947
4.31574
5.21125
7.47361
11.2293
16.4333
22.8296
29.9457
37.1248
43.5948
48.5642
51.3302
51.3819
48.4803
42.7029
34.4445
24.373
13.3482
2.31393
-7.81857
-16.2802
-22.53
-26.3078
-27.6457
-26.842
-24.4017
-20.9554
-17.1698
-13.6622
-10.9305
-9.30565
-8.93187
-9.77168
-11.6336
-14.2149
-17.1525
-20.0735
-22.6395
-24.5799
-25.7116
-25.9448
-25.2777
-23.7808
-21.5775
-18.8221
-15.6798
-12.3107
-8.85827
-5.44344
-2.16268
0.910606
3.72287
6.2364
8.42536
10.2723
11.7656
12.8974
13.6625
14.0589
14.0896
13.7656
13.1107
12.1663
10.9953
9.68358
8.3364
7.0702
5.99887
5.21628
4.77751
4.68247
4.86574
5.19599
5.48733
5.52284
5.08836
4.01234
2.20548
-0.30667
-3.36505
-6.67745
-9.84031
-12.3809
-13.8152
-13.714
-11.7677
-7.83923
-1.99764
5.47405
14.0991
23.2529
32.2288
40.315
46.8726
51.4039
53.6019
53.3754
50.8456
46.3179
40.2323
33.1029
25.4544
17.7677
10.439
3.75941
-2.08668
-7.00703
-10.9755
-14.0024
-16.1066
-17.2967
-17.5627
-16.8813
-15.2322
-12.6202
-9.10039
-4.79504
0.100268
5.32976
10.6119
15.6952
20.4313
24.8529
29.2424
34.1684
40.471
49.1791
61.3569
77.8902
99.2434
125.231
154.853
186.246
216.766
243.233
262.286
270.828
266.469
247.923
215.258
169.996
115.001
54.1925
-7.87782
-66.5454
-117.557
-157.537
-184.345
-197.255
-196.979
-185.501
-165.781
-141.349
-115.876
-92.7405
-74.6745
-63.5101
-60.0529
-64.0895
-74.5141
-89.5495
-107.026
-124.68
-140.427
-152.591
-160.046
-162.286
-159.397
-151.974
-140.976
-127.567
-112.945
-98.2072
-84.2356
-71.6401
-60.739
-51.5821
-44.0042
-37.6956
-32.2783
-27.3748
-22.6606
-17.8955
-12.9312
-7.6983
-2.17935
3.62481
9.72577
16.1682
23.0357
30.4406
38.4995
47.3009
56.8713
67.1464
77.9556
89.0219
99.9791
110.405
119.865
127.962
134.381
138.928
141.555
142.363
141.592
139.59
136.768
133.549
130.312
127.345
124.814
122.738
121.001
119.371
117.548
115.212
112.082
107.971
102.813
96.6918
89.8212
82.5215
75.1675
68.1293
61.7144
56.1192
51.4008
47.4712
44.1175
41.0404
37.9074
34.4078
30.3038
25.4671
19.8974
13.7212
7.17195
0.555354
-5.79275
-11.5508
-16.4513
-20.3113
-23.0508
-24.6997
-25.3928
-25.3569
-24.8915
-24.345
-24.0877
-24.4832
-25.8577
-28.4706
-32.4876
-37.9593
-44.8093
-52.8326
-61.7073
-71.0195
-80.2976
-89.0553
-96.8359
-103.255
-108.035
-111.025
-112.215
-111.719
-109.763
-106.646
-102.703
-98.2617
-93.6066
-88.9438
-84.3819
-79.9243
-75.4755
-70.8623
-65.8651
-60.2582
-53.851
-46.5275
-38.2765
-29.2088
-19.5588
-9.66835
0.0447627
9.13135
17.1627
23.7831
28.7561
31.9975
33.5895
33.7742
32.9254
31.5029
29.9943
28.8524
28.4373
28.9701
30.5051
32.9253
35.9601
39.2239
42.27
44.6515
45.9825
45.9896
44.5482
41.6992
37.6437
32.7176
27.3486
22.0026
17.1249
13.0847
10.1285
8.34885
7.67291
7.87104
8.58591
9.37755
9.77898
9.3549
7.75597
4.76143
0.304702
-5.52101
-12.4771
-20.2108
-28.2986
-36.2936
-43.7704
-50.3616
-55.7809
-59.8335
-62.4129
-63.4908
-63.1024
-61.3322
-58.3045
-54.1784
-49.1465
-43.4367
-37.3111
-31.0612
-24.9966
-19.4256
-14.6312
-10.8432
-8.21221
-6.78845
-6.50971
-7.20025
-8.58165
-10.2945
-11.9289
-13.0607
-13.2903
-12.2795
-9.78512
-5.6847
0.00724747
7.13427
15.4055
24.4157
33.6776
42.6633
50.8523
57.7817
63.0917
66.5638
68.1435
67.9469
66.2478
63.4474
60.0282
56.4995
53.3384
50.9359
49.5522
49.2881
50.0748
51.6829
53.7486
55.8139
57.3759
57.9391
57.0663
54.4224
49.8082
43.1811
34.6603
24.5183
13.1578
1.07872
-11.1631
-23.0001
-33.8966
-43.3871
-51.1076
-56.815
-60.3958
-61.8629
-61.3425
-59.0539
-55.2844
-50.3649
-44.6468
-38.4838
-32.2176
-26.1658
-20.6101
-15.7783
-11.8193
-8.76732
-6.49958
-4.6927
-2.7899
0.00633016
4.70075
12.4194
24.2677
41.142
63.517
91.2451
123.41
158.274
193.346
225.588
251.73
268.671
273.9
265.872
244.275
210.154
165.842
114.726
60.8633
8.51306
-38.3609
-76.5366
-103.875
-119.511
-123.874
-118.548
-105.995
-89.1846
-71.196
-54.8326
-42.3076
-35.0312
-33.5202
-37.4287
-45.6868
-56.7171
-68.695
-79.8137
-88.5184
-93.6837
-94.7157
-91.5738
-84.7187
-75.0016
-63.5148
-51.4291
-39.8407
-29.6458
-21.4575
-15.5699
-11.9676
-10.3737
-10.3228
-11.2467
-12.557
-13.7159
-14.2855
-13.9547
-12.5425
-9.98327
-6.29858
-1.56322
4.12868
10.6919
18.0694
26.2414
35.223
45.0535
55.7783
67.4256
79.9825
93.3723
107.437
121.93
136.52
150.805
164.35
176.718
187.522
196.462
203.365
208.199
211.074
212.221
211.942
210.559
208.341
205.445
201.866
197.401
191.656
184.062
173.938
160.559
143.253
121.481
94.9302
63.5622
27.6499
-12.2295
-55.2318
-100.315
-146.329
-192.123
-236.642
-279.019
-318.636
-355.143
-388.438
-418.611
-445.854
-470.361
-492.239
-511.445
-527.757
-540.803
-550.115
-555.229
-555.779
-551.595
-542.767
-529.667
-512.931
-493.393
-471.989
-449.649
-427.18
-405.177
-383.96
-363.555
-343.72
-324.007
-303.863
-282.732
-260.174
-235.95
-210.089
-182.903
-154.973
-127.087
-100.154
-75.1034
-52.7754
-33.8334
-18.6937
-7.48861
-0.0627997
3.99927
5.32026
4.65944
2.83373
0.638703
-1.2232
-2.20152
-1.93958
-0.296398
2.65274
6.63724
11.2323
15.9164
20.1407
23.4015
25.3091
25.6419
24.3804
21.7145
18.0227
13.826
9.72222
6.30911
4.10769
3.49522
4.65714
7.5638
11.9748
17.4695
23.4991
29.4534
34.7326
38.8159
41.3175
42.0252
40.916
38.1494
34.0395
29.0112
23.5454
18.1232
13.1729
9.02933
5.90774
3.89531
2.95899
2.96713
3.72002
4.98406
6.52427
8.13057
9.63541
10.9216
11.9212
12.6083
12.9884
13.0867
12.9391
12.5861
12.0689
11.4276
10.6999
9.91893
9.10893
8.28119
7.42965
6.52921
5.53766
4.40197
3.06824
1.49341
-0.3435
-2.43312
-4.73216
-7.16523
-9.63182
-12.0171
-14.2046
-16.0893
-17.5883
-18.6487
-19.2514
-19.4111
-19.1731
-18.6073
-17.8021
-16.8568
-15.8754
-14.9609
-14.2092
-13.7044
-13.5117
-13.6705
-14.1862
-15.0216
-16.0888
-17.2441
-18.2878
-18.9707
-19.0111
-18.1216
-16.0456
-12.5993
-7.71479
-1.47692
5.8532
13.8331
21.8569
29.1965
35.0629
38.6819
39.3741
36.6289
30.1621
19.9501
6.23472
-10.4991
-29.5712
-50.1706
-71.4282
-92.4896
-112.577
-131.039
-147.377
-161.261
-172.521
-181.134
-187.196
-190.899
-192.499
-192.3
-190.628
-187.819
-184.207
-180.108
-175.816
-171.587
-167.624
-164.064
-160.957
-158.242
-155.72
-153.032
-149.636
-144.806
-137.655
-127.192
-112.432
-92.5345
-66.987
-35.7822
0.423559
40.2183
81.4375
121.284
156.564
184.027
200.755
204.563
194.338
170.266
133.909
88.1012
36.6893
-15.8656
-64.9664
-106.381
-136.699
-153.69
-156.524
-145.829
-123.581
-92.8539
-57.4513
-21.4707
11.1478
37.0403
53.7585
59.9947
55.6707
41.8856
20.7336
-4.98277
-32.1054
-57.4972
-78.3966
-92.7098
-99.2105
-97.6277
-88.6177
-73.6311
-54.6943
-34.1383
-14.3086
2.71022
15.3235
22.5862
24.2792
20.8973
13.5564
3.83125
-6.45039
-15.4347
-21.46
-23.2409
-20
-11.5303
1.81142
19.1782
39.359
60.9388
82.4692
102.63
120.357
134.937
146.035
153.694
158.276
160.389
160.782
160.257
159.58
159.408
160.242
162.393
165.975
170.904
176.923
183.625
190.496
196.954
202.404
206.278
208.087
207.456
204.158
198.126
189.462
178.422
165.389
150.837
135.29
119.272
103.268
87.6805
72.8
58.7833
45.6405
33.2362
21.3029
9.46824
-2.70493
-15.6682
-29.8312
-45.5055
-62.8543
-81.8564
-102.288
-123.729
-145.583
-167.134
-187.598
-206.198
-222.228
-235.108
-244.431
-249.981
-251.73
-249.826
-244.557
-236.309
-225.527
-212.677
-198.222
-182.598
-166.217
-149.463
-132.699
-116.276
-100.531
-85.7793
-72.3065
-60.3435
-50.0446
-41.4647
-34.5432
-29.0985
-24.8374
-21.3805
-18.3026
-15.1828
-11.6589
-7.47803
-2.53438
3.11067
9.23133
15.4628
21.3461
26.3874
30.1218
32.1751
32.3138
30.4779
26.7932
21.561
15.2295
8.34979
1.52256
-4.65725
-9.65296
-13.0306
-14.4919
-13.8947
-11.2596
-6.76381
-0.723368
6.4353
14.212
22.0755
29.5092
36.0558
41.3567
45.1816
47.4444
48.2038
47.6472
46.0593
43.781
41.1622
38.5159
36.0814
33.9997
32.3059
30.9382
29.7588
28.5837
27.213
25.4581
23.1606
20.2032
16.5134
12.0619
6.8603
0.960557
-5.54248
-12.5044
-19.7233
-26.9332
-33.8044
-39.9536
-44.9668
-48.4352
-50.0005
-49.4043
-46.5351
-41.4631
-34.4576
-25.9814
-16.6606
-7.23167
1.52834
8.88068
14.203
17.0564
17.2338
14.7813
9.99311
3.37819
-4.39507
-12.5694
-20.3755
-27.1061
-32.1797
-35.1861
-35.913
-34.3499
-30.6735
-25.2169
-18.4291
-10.829
-2.96044
4.64785
11.5159
17.237
21.4951
24.0746
24.8668
23.8731
21.2055
17.0874
11.8499
5.92516
-0.167944
-5.84593
-10.4932
-13.5039
-14.3315
-12.5422
-7.86763
-0.249254
10.13
22.8341
37.1853
52.2999
67.1475
80.6286
91.6632
99.2836
102.721
101.475
95.369
84.5688
69.5788
51.2065
30.5003
8.66823
-13.0174
-33.3185
-51.1248
-65.5339
-75.9113
-81.9259
-83.5601
-81.0927
-75.0616
-66.208
-55.4094
-43.6094
-31.7467
-20.6917
-11.1902
-3.81701
1.06166
3.31761
3.08214
0.75813
-2.98082
-7.20966
-10.7964
-12.4782
-10.9728
-5.12396
5.92816
22.569
44.551
70.8836
99.8038
128.849
155.044
175.185
186.21
185.594
171.718
144.162
103.863
53.1087
-4.63741
-65.074
-123.51
-175.371
-216.697
-244.565
-257.388
-255.054
-238.889
-211.473
-176.31
-137.428
-98.928
-64.563
-37.3675
-19.3912
-11.5505
-13.6096
-24.2843
-41.4506
-62.4292
-84.3107
-104.284
-119.935
-129.478
-131.908
-127.053
-115.535
-98.6451
-78.1483
-56.0559
-34.3828
-14.9231
0.931961
12.3183
18.9538
21.1234
19.6032
15.5345
10.2681
5.19678
1.59621
0.490034
2.55242
8.05542
16.8637
28.4735
42.0892
56.726
71.3257
84.8732
96.4999
105.564
111.701
114.841
115.193
113.201
109.479
104.736
99.6955
95.0249
91.2796
88.8658
88.026
88.8432
91.2612
95.1145
100.161
106.114
112.662
119.487
126.266
132.673
138.371
143.009
146.221
147.638
146.905
143.718
137.852
129.211
117.863
104.06
88.2526
71.0719
53.2932
35.778
19.4007
4.96956
-6.85024
-15.6002
-21.0716
-23.3228
-22.6687
-19.6458
-14.9559
-9.39865
-3.79978
1.05695
4.48701
5.94819
5.06751
1.65255
-4.31108
-12.6736
-23.1437
-35.3173
-48.7109
-62.7975
-77.0427
-90.9403
-104.044
-115.993
-126.53
-135.512
-142.902
-148.759
-153.218
-156.452
-158.652
-159.987
-160.582
-160.504
-159.752
-158.264
-155.932
-152.628
-148.226
-142.637
-135.832
-127.866
-118.883
-109.12
-98.8968
-88.5949
-78.6296
-69.4181
-61.3449
-54.7292
-49.7957
-46.6514
-45.2706
-45.4895
-47.0114
-49.4242
-52.2302
-54.8862
-56.8514
-57.6401
-56.8714
-54.3116
-49.9033
-43.7754
-36.2345
-27.7344
-18.8293
-10.1147
-2.16218
4.54282
9.65331
12.9962
14.5857
14.6138
13.4168
11.4254
9.10267
6.88111
5.10664
3.99881
3.63274
3.94557
4.76536
5.85737
6.97868
7.93154
8.60566
9.00245
9.2381
9.52629
10.1456
11.3988
13.5718
16.8984
21.5355
27.5479
34.9031
43.4719
53.0315
63.2715
73.8016
84.1643
93.8548
102.349
109.138
113.767
115.873
115.205
111.635
105.152
95.8363
83.8357
69.3354
52.5464
33.7099
13.1195
-8.84163
-31.662
-54.6728
-77.0424
-97.8033
-115.914
-130.354
-140.234
-144.913
-144.098
-137.91
-126.904
-112.036
-94.5755
-75.981
-57.7425
-41.2237
-27.5175
-17.3382
-10.9617
-8.22314
-8.56767
-11.1479
-14.9509
-18.9381
-22.1775
-23.9526
-23.8343
-21.7097
-17.7661
-12.435
-6.30702
-0.0301407
5.79367
10.6982
14.4177
16.9175
18.3892
19.2108
19.8804
20.9331
22.8548
26.0041
30.553
36.4551
43.4429
51.0543
58.6838
65.6508
71.2755
74.9548
76.2277
74.8257
70.7016
64.0364
55.2237
44.8346
33.5667
22.183
11.4452
2.0482
-5.43855
-10.6193
-13.3041
-13.5222
-11.515
-7.70944
-2.67239
2.94863
8.49341
13.3587
17.0629
19.2995
19.976
19.236
17.4673
15.2985
13.5848
13.3827
15.9067
22.4554
34.2974
52.5109
77.783
110.192
149.014
192.595
238.341
282.856
322.229
352.447
369.893
371.834
356.848
325.094
278.394
220.102
154.762
87.6247
24.0583
-31.0402
-73.774
-101.639
-113.741
-110.81
-95.0309
-69.7079
-38.8261
-6.56166
23.1938
47.2377
63.3489
70.4405
68.5678
58.8033
43.0048
23.5163
2.84213
-16.6626
-33.0506
-44.9644
-51.7283
-53.3483
-50.4314
-44.0413
-35.5162
-26.273
-17.6241
-10.6271
-5.98158
-3.98144
-4.52218
-7.15727
-11.1916
-15.7973
-20.1351
-23.4666
-25.2431
-25.1636
-23.1963
-19.5644
-14.7014
-9.18294
-3.64622
1.29309
5.11586
7.45859
8.15081
7.2281
4.92079
1.62139
-2.1644
-5.87673
-8.96366
-10.9393
-11.4325
-10.2204
-7.24542
-2.61427
3.41998
10.4885
18.1462
25.914
33.3195
39.9321
45.3895
49.4151
51.8274
52.5419
51.5682
49.0036
45.0235
39.8706
33.841
27.2684
20.5055
13.9034
7.78935
2.44494
-1.9141
-5.15462
-7.23771
-8.2241
-8.27238
-7.6295
-6.6135
-5.58899
-4.9365
-5.01794
-6.14115
-8.52715
-12.2841
-17.3917
-23.6982
-30.9322
-38.7279
-46.6615
-54.2958
-61.2269
-67.1284
-71.7863
-75.1223
-77.2005
-78.2175
-78.4757
-78.3443
-78.2116
-78.434
-79.2894
-80.9389
-83.404
-86.5598
-90.1467
-93.7998
-97.0901
-99.576
-100.857
-100.622
-98.6937
-95.0463
-89.8175
-83.2906
-75.862
-67.9932
-60.1536
-52.7644
-46.149
-40.4981
-35.8545
-32.1177
-29.0691
-26.4119
-23.8209
-20.994
-17.6993
-13.8103
-9.32658
-4.37548
0.802183
5.8819
10.4954
14.2754
16.8999
18.13
17.8385
16.0252
12.819
8.46665
3.3101
-2.24466
-7.76445
-12.8273
-17.0587
-20.163
-21.9462
-22.3282
-21.3452
-19.1399
-15.9428
-12.0473
-7.77994
-3.47138
0.570852
4.08412
6.86629
8.78464
9.77855
9.85693
9.09172
7.60847
5.57516
3.18995
0.668503
-1.76864
-3.90821
-5.55556
-6.54495
-6.74846
-6.08302
-4.51549
-2.06505
1.19707
5.1508
9.63321
14.447
19.3712
24.1731
28.6213
32.4987
35.6151
37.8181
39.0027
39.1184
38.1743
36.2408
33.4495
29.9879
26.0916
22.0304
18.0899
14.5487
11.6528
9.58905
8.46221
8.27827
8.93782
10.2414
11.9075
13.6023
14.9769
15.7092
15.543
14.3205
12.0027
8.67604
4.54227
-0.104619
-4.91293
-9.51388
-13.5631
-16.7779
-18.9652
-20.038
-20.0177
-19.0226
-17.2445
-14.9155
-12.2705
-9.50914
-6.76255
-4.07103
-1.37519
1.47628
4.70222
8.55034
13.2487
18.954
25.705
33.3875
41.7198
50.2611
58.4441
65.6301
71.1781
74.5211
75.2372
73.1065
68.1462
60.6165
50.9997
39.9518
28.2362
16.6454
5.9236
-3.30324
-10.5801
-15.6544
-18.4843
-19.2256
-18.2
-15.8507
-12.6902
-9.24334
-5.9905
-3.31085
-1.42835
-0.362598
0.111086
0.485019
1.51689
4.1919
9.64144
19.0156
33.3148
53.1968
78.7836
109.504
144.003
180.153
215.179
245.902
269.066
281.729
281.645
267.59
239.584
198.959
148.273
91.0701
31.5129
-26.0549
-77.5656
-119.642
-149.922
-167.248
-171.718
-164.58
-148.022
-124.854
-98.1651
-70.9765
-45.939
-25.1076
-9.80999
-0.611719
2.62736
0.625483
-5.49595
-14.4071
-24.7579
-35.3379
-45.1921
-53.684
-60.5067
-65.6474
-69.3154
-71.8497
-73.6187
-74.9282
-75.9482
-76.6689
-76.8914
-76.2519
-74.2773
-70.4629
-64.3595
-55.6586
-44.2608
-30.3182
-14.2429
3.31833
21.5426
39.5127
56.3125
71.1237
83.3108
92.4855
98.5418
101.659
102.276
101.031
98.6929
96.0746
93.9459
92.9598
93.592
96.1043
100.532
106.696
114.233
122.648
131.369
139.805
147.409
153.718
158.389
161.217
162.133
161.19
158.538
154.386
148.968
142.507
135.191
127.151
118.462
109.147
99.1942
88.5768
77.2747
65.2941
52.6789
39.5164
25.9347
12.0947
-1.82147
-15.6215
-29.1133
-42.1113
-54.4395
-65.9321
-76.4326
-85.7944
-93.8823
-100.578
-105.788
-109.451
-111.552
-112.123
-111.255
-109.091
-105.824
-101.683
-96.9191
-91.7838
-86.5132
-81.3094
-76.3278
-71.6705
-67.386
-63.4759
-59.9066
-56.6248
-53.5734
-50.7073
-48.0035
-45.4682
-43.1365
-41.0672
-39.3321
-38.0029
-37.1357
-36.7579
-36.856
-37.3686
-38.1847
-39.1465
-40.0584
-40.7012
-40.85
-40.2951
-38.8641
-36.4423
-32.9897
-28.552
-23.2632
-17.3397
-11.0651
-4.76586
1.21735
6.56261
10.998
14.3288
16.4557
17.3832
17.2155
16.1399
14.4005
12.2649
9.98866
7.78301
5.78988
4.06934
2.60048
1.29589
0.0270126
-1.34398
-2.93121
-4.79662
-6.93058
-9.24454
-11.5767
-13.7098
-15.3968
-16.3926
-16.484
-15.5153
-13.4057
-10.1557
-5.84309
-0.609995
5.35556
11.8398
18.6208
25.4809
32.2121
38.616
44.4995
49.6705
53.937
57.1117
59.0242
59.5388
58.5766
56.1371
52.3145
47.3055
41.4052
34.9899
28.4884
22.3442
16.9739
12.7264
9.84854
8.46104
8.54784
9.95967
12.4312
15.6093
19.0891
22.4533
25.3109
27.331
28.2696
27.9851
26.4447
23.7183
19.9649
15.4102
10.3206
4.97586
-0.357319
-5.44748
-10.1145
-14.2383
-17.7606
-20.6787
-23.0341
-24.8967
-26.3482
-27.4649
-28.3049
-28.8985
-29.2446
-29.3131
-29.0513
-28.3951
-27.2812
-25.6596
-23.5041
-20.8194
-17.6443
-14.0503
-10.1368
-6.02445
-1.84575
2.26284
6.16843
9.7471
12.8872
15.4911
17.4751
18.7696
19.3189
19.0824
18.0368
16.1785
13.5277
10.1319
6.06864
1.44671
-3.59449
-8.88842
-14.2475
-19.4719
-24.36
-28.7206
-32.3848
-35.2174
-37.1252
-38.062
-38.0297
-37.0731
-35.2692
-32.7101
-29.4772
-25.6065
-21.0471
-15.6146
-8.9498
-0.496584
10.4841
24.8474
43.4357
66.8926
95.4418
128.67
165.367
203.463
240.113
271.929
295.348
307.088
304.628
286.625
253.208
206.091
148.475
84.7432
20.0058
-40.4742
-91.8697
-130.329
-153.388
-160.21
-151.62
-129.942
-98.6651
-61.9922
-24.3244
10.2408
38.3442
57.6804
67.1647
66.941
58.2424
43.1304
24.156
3.98905
-14.9343
-30.7025
-42.1252
-48.8163
-51.1609
-50.1779
-47.3036
-44.1307
-42.1408
-42.4671
-45.7188
-51.8898
-60.3594
-69.9816
-79.2486
-86.5024
-90.1641
-88.9511
-82.0531
-69.2452
-50.9266
-28.0821
-2.17275
25.0268
51.6243
75.8146
96.0674
111.28
120.878
124.855
123.751
118.579
110.702
101.681
93.1091
86.4487
82.8868
83.2219
87.7925
96.454
108.604
123.255
139.144
154.866
169.031
180.401
188.017
191.296
190.074
184.614
175.556
163.831
150.55
136.871
123.865
112.4
103.054
96.0604
91.2997
88.334
86.4792
84.9045
82.7474
79.2266
73.7407
65.938
55.7525
43.4016
29.3483
14.2364
-1.19322
-16.1907
-30.081
-42.3301
-52.5891
-60.7106
-66.7388
-70.8768
-73.4375
-74.7868
-75.2882
-75.256
-74.9246
-74.4353
-73.8427
-73.1356
-72.2683
-71.1962
-69.9062
-68.4391
-66.8973
-65.4381
-64.2519
-63.531
-63.4325
-64.0437
-65.3546
-67.2448
-69.4858
-71.761
-73.6994
-74.9203
-75.0805
-73.9188
-71.2912
-67.1909
-61.7512
-55.2313
-47.9865
-40.4276
-32.9757
-26.0169
-19.8646
-14.7323
-10.7196
-7.81415
-5.90478
-4.80629
-4.28984
-4.11537
-4.06147
-3.94927
-3.65784
-3.12988
-2.36812
-1.42376
-0.379416
0.670283
1.63756
2.45692
3.09528
3.55588
3.876
4.11967
4.36687
4.7011
5.1971
5.91018
6.86806
8.06607
9.46574
10.9967
12.562
14.0454
15.3214
16.2659
16.7674
16.7382
16.1236
14.909
13.125
10.8477
8.19647
5.32748
2.42359
-0.318279
-2.7018
-4.5467
-5.70369
-6.06775
-5.58873
-4.27816
-2.21191
0.471862
3.57942
6.8725
10.0831
12.9315
15.1454
16.4815
16.7457
15.813
13.6441
10.2979
5.93769
0.827662
-4.67989
-10.1695
-15.198
-19.3379
-22.2254
-23.6053
-23.3685
-21.5731
-18.4477
-14.3706
-9.83028
-5.36696
-1.50545
1.31321
2.79105
2.81417
1.46866
-0.971943
-4.08674
-7.36961
-10.3043
-12.4409
-13.4624
-13.2294
-11.7978
-9.406
-6.43322
-3.33823
-0.58662
1.42059
2.40636
2.25645
1.03256
-1.0409
-3.61347
-6.26199
-8.55238
-10.1006
-10.6238
-9.9764
-8.1646
-5.3413
-1.7811
2.159
6.08741
9.62745
12.462
14.3675
15.2348
15.0731
13.9999
12.2181
9.98371
7.5705
5.23491
3.18665
1.56786
0.443047
-0.200074
-0.439764
-0.401988
-0.237826
-0.100106
-0.122524
-0.403741
-0.997839
-1.91111
-3.10391
-4.49521
-5.96699
-7.36549
-8.49711
-9.11744
-8.91393
-7.48447
-4.31678
1.22346
9.88597
22.4998
39.899
62.8074
91.6872
126.569
166.89
211.375
257.994
304.026
346.238
381.174
405.524
416.53
412.362
392.426
357.531
309.902
253.018
191.29
129.626
72.9205
25.545
-9.10377
-28.9404
-33.3745
-23.3219
-1.04804
30.1307
66.2475
103.133
136.859
164.122
182.533
190.783
188.682
177.067
157.619
132.596
104.546
76.0093
49.2589
26.1032
7.75742
-5.20248
-12.812
-15.6271
-14.5887
-10.8635
-5.68129
-0.188666
4.66699
8.21393
10.0892
10.2309
8.8353
6.28956
3.09079
-0.236669
-3.21557
-5.47356
-6.77958
-7.05717
-6.37599
-4.92538
-2.97558
-0.833196
1.20297
2.87986
4.01791
4.52622
4.40461
3.73385
2.65656
1.35235
0.0108446
-1.1935
-2.12206
-2.68583
-2.85148
-2.63968
-2.11671
-1.3813
-0.548614
0.266001
0.961646
1.46308
1.72744
1.74605
1.54109
1.1575
0.650414
0.0686545
-0.564397
-1.27047
-2.13341
-3.30958
-5.02794
-7.57708
-11.2785
-16.4485
-23.3522
-32.1571
-42.8932
-55.4259
-69.4477
-84.4917
-99.965
-115.2
-129.519
-142.296
-153.022
-161.353
-167.14
-170.439
-171.497
-170.717
-168.615
-165.754
-162.69
-159.914
-157.81
-156.623
-156.451
-157.248
-158.849
-161.001
-163.399
-165.728
-167.694
-169.054
-169.625
-169.286
-167.972
-165.659
-162.34
-158.009
-152.652
-146.241
-138.738
-130.116
-120.372
-109.552
-97.7691
-85.2166
-72.1665
-58.9626
-45.9994
-33.6936
-22.4496
-12.6241
-4.49354
1.77114
6.11956
8.62515
9.47593
8.95432
7.40815
5.21663
2.7549
0.36119
-1.69005
-3.20645
-4.08622
-4.31646
-3.96241
-3.14963
-2.04157
-0.815619
0.359584
1.34317
2.0355
2.38521
2.38964
2.08934
1.55801
0.889548
0.184086
-0.465121
-0.982506
-1.3176
-1.44849
-1.38137
-1.14663
-0.792376
-0.376433
0.041952
0.409711
0.685938
0.845701
0.881437
0.80202
0.629866
0.396654
0.138342
-0.109816
-0.317626
-0.463216
-0.534887
-0.531503
-0.461497
-0.340793
-0.189997
-0.0313054
0.114457
0.230312
0.304853
0.333091
0.316394
0.261641
0.179767
0.0839614
-0.012239
-0.0966848
-0.159998
-0.196454
-0.20432
-0.185641
-0.145586
-0.0914658
-0.0315824
0.0259177
0.0740533
0.107762
0.124336
0.123508
0.107231
0.0791915
0.0441664
0.0073034
-0.0265651
-0.0534965
-0.0708394
-0.07743
-0.0735808
-0.0608843
-0.041877
-0.0196198
0.0027426
0.0223859
0.0371279
0.0456346
0.0474978
0.0431885
0.0339041
0.0213406
0.00742652
-0.00594444
-0.0171467
-0.0249896
-0.0287741
-0.0281555
-0.022646
-0.0105
0.0133146
0.0602438
0.152255
0.326359
0.638545
1.16584
2.00531
3.26903
5.07511
7.53512
10.7396
14.7434
19.5536
25.1208
31.3376
38.0413
45.025
52.0509
58.8682
65.2306
70.9128
75.7236
79.5155
82.1894
83.6959
84.0329
83.2409
81.3958
78.6013
74.9792
70.6609
65.7791
60.461
54.8259
48.9856
43.0486
37.1278
31.3482
25.8539
20.8118
16.4106
12.8549
10.3575
9.13192
9.38928
11.3423
15.2139
21.2441
29.6851
40.7734
54.6731
71.3923
90.6857
111.966
134.251
156.166
176.025
191.977
202.215
205.21
199.942
186.082
164.099
135.264
101.554
65.46
29.7221
-2.9642
-30.2429
-50.3466
-62.2722
-65.8618
-61.7817
-51.4062
-36.6264
-19.6106
-2.54987
12.5783
24.2009
31.2749
33.3375
30.4833
23.2781
12.6291
-0.368865
-14.5871
-28.9986
-42.7809
-55.3775
-66.5164
-76.1907
-84.6064
-92.1113
-99.1143
-106.007
-113.094
-120.55
-128.384
-136.44
-144.412
-151.878
-158.347
-163.31
-166.3
-166.94
-164.983
-160.341
-153.095
-143.49
-131.916
-118.867
-104.902
-90.5959
-76.4881
-63.041
-50.6051
-39.3964
-29.4866
-20.8061
-13.1598
-6.25302
0.275123
6.81269
13.7349
21.3658
29.946
39.6083
50.3646
62.1052
74.6092
87.5656
100.603
113.32
125.325
136.258
145.823
153.795
160.034
164.473
167.109
167.986
167.167
164.718
160.686
155.089
147.918
139.144
128.739
116.701
103.08
88.0016
71.6848
54.442
36.6714
18.833
1.41587
-15.1011
-30.2894
-43.8066
-55.4223
-65.0327
-72.6618
-78.4488
-82.6263
-85.4906
-87.3691
-88.5891
-89.4503
-90.2044
-91.0422
-92.089
-93.4053
-94.9934
-96.8063
-98.758
-100.734
-102.6
-104.212
-105.426
-106.101
-106.114
-105.366
-103.791
-101.361
-98.0945
-94.0558
-89.3518
-84.1248
-78.5398
-72.7693
-66.977
-61.302
-55.8463
-50.6681
-45.7802
-41.1553
-36.7376
-32.4575
-28.249
-24.0649
-19.8903
-15.7488
-11.7036
-7.85163
-4.31123
-1.20697
1.34781
3.26724
4.50592
5.06682
5.00312
4.41365
3.43296
2.21723
0.928046
-0.283684
-1.29189
-2.0058
-2.37572
-2.39394
-2.09101
-1.5284
-0.788723
0.0348859
0.84917
1.5697
2.12785
2.47547
2.58729
2.46125
2.11697
1.5927
0.941026
0.223607
-0.494595
-1.15126
-1.69229
-2.07649
-2.279
-2.29294
-2.12909
-1.81354
-1.38343
-0.881089
-0.347377
0.185069
0.697568
1.18918
1.67768
2.19724
2.79277
3.51146
4.39267
5.45743
6.6996
8.08003
9.52514
10.9306
12.17
13.1073
13.6123
13.5755
12.9226
11.6245
9.70187
7.22559
4.31027
1.10429
-2.22301
-5.49492
-8.53988
-11.2016
-13.3459
-14.8646
-15.6772
-15.7298
-14.9956
-13.4735
-11.1896
-8.19814
-4.58326
-0.459807
4.02756
8.70812
13.392
17.8805
21.9788
25.5107
28.3322
30.3448
31.5031
31.8199
31.3634
30.2508
28.6352
26.6905
24.5937
22.5079
20.5681
18.8717
17.474
16.3904
15.6038
15.076
14.7622
14.6242
14.6434
14.8289
15.2212
15.891
16.9314
18.4446
20.5238
23.2314
26.576
30.4925
34.8287
39.3417
43.7066
47.5397
50.4311
51.9876
51.8769
49.8691
45.8695
39.937
32.286
23.2709
13.3551
3.06863
-7.04087
-16.4571
-24.7391
-31.5553
-36.705
-40.125
-41.8835
-42.1603
-41.2184
-39.369
-36.9338
-34.2092
-31.433
-28.7573
-26.2273
-23.7643
-21.1546
-18.0431
-13.9352
-8.21364
-0.177905
10.8871
25.6098
44.4023
67.3185
93.9218
123.194
153.511
182.714
208.268
227.52
238.002
237.757
225.639
201.524
166.413
122.395
72.4768
20.2902
-30.2848
-75.5277
-112.271
-138.223
-152.191
-154.163
-145.259
-127.557
-103.809
-77.111
-50.5407
-26.832
-8.10853
4.29201
9.88789
9.01959
2.72399
-7.46051
-19.7285
-32.2506
-43.3942
-51.8987
-56.9873
-58.4085
-56.4079
-51.6415
-45.0459
-37.686
-30.5998
-24.663
-20.4861
-18.3554
-18.2223
-19.737
-22.3188
-25.2513
-27.7869
-29.2464
-29.102
-27.033
-22.9503
-16.9893
-9.47429
-0.862377
8.32407
17.567
26.4146
34.5291
41.7152
47.9284
53.264
57.9306
62.2121
66.425
70.8744
75.8153
81.4225
87.7709
94.8286
102.462
110.454
118.521
126.351
133.625
140.047
145.368
149.4
152.028
153.21
152.972
151.403
148.636
144.837
140.188
134.867
129.038
122.832
116.34
109.607
102.628
95.3583
87.7217
79.6276
70.9913
61.7555
51.9099
41.5067
30.669
19.5917
8.53181
-2.20818
-12.3048
-21.4416
-29.3379
-35.775
-40.6164
-43.8197
-45.4399
-45.6215
-44.584
-42.6001
-39.9697
-36.9946
-33.9543
-31.0862
-28.5723
-26.5326
-25.0245
-24.0485
-23.5584
-23.4732
-23.6904
-24.0982
-24.5857
-25.0507
-25.404
-25.5721
-25.4969
-25.135
-24.4556
-23.4392
-22.0764
-20.3675
-18.3231
-15.9644
-13.324
-10.4462
-7.38659
-4.20964
-0.986338
2.21017
5.30909
8.24678
10.9709
13.4436
15.643
17.5636
19.2146
20.6167
21.799
22.7943
23.635
24.3496
24.9596
25.4781
25.909
26.2481
26.4847
26.6045
26.5927
26.4375
26.1329
25.6807
25.0917
24.3854
23.588
22.7305
21.844
20.9563
20.0873
19.2456
18.4254
17.6056
16.7503
15.8107
14.7298
13.4471
11.9053
10.0566
7.86949
5.33343
2.46237
-0.70438
-4.10402
-7.65492
-11.2637
-14.8341
-18.2766
-21.5178
-24.5079
-27.2252
-29.6774
-31.8985
-33.9418
-35.8696
-37.7416
-39.6029
-41.4739
-43.3436
-45.1676
-46.8712
-48.3576
-49.52
-50.2562
-50.4834
-50.1514
-49.2515
-47.8207
-45.9399
-43.7265
-41.3216
-38.8754
-36.5299
-34.4041
-32.5809
-31.0988
-29.9489
-29.0769
-28.3903
-27.7692
-27.0792
-26.1859
-24.9668
-23.3205
-21.172
-18.4731
-15.1992
-11.3447
-6.91898
-1.9449
3.53809
9.46669
15.7436
22.2272
28.7253
34.9956
40.7572
45.7129
49.5806
52.131
53.2249
52.8441
51.11
48.2848
44.7551
40.9958
37.5214
34.827
33.3295
33.3137
34.8927
37.987
42.3258
47.4702
52.8573
57.8586
61.8471
64.2639
64.677
62.8252
58.6419
52.2559
43.9714
34.2293
23.5558
12.5061
1.60945
-8.67629
-17.9968
-26.1166
-32.9169
-38.3776
-42.5465
-45.4992
-47.2932
-47.9233
-47.2808
-45.1273
-41.0874
-34.6726
-25.339
-12.5821
3.93646
24.2485
47.9459
74.0867
101.166
127.179
149.772
166.488
175.06
173.729
161.522
138.453
105.61
65.1084
19.9025
-26.5052
-70.4381
-108.442
-137.659
-156.123
-162.952
-158.406
-143.814
-121.376
-93.8789
-64.3634
-35.7771
-10.6664
9.06245
22.2885
28.716
28.8134
23.6667
14.7735
3.80964
-7.59968
-18.074
-26.6159
-32.6806
-36.1756
-37.3982
-36.9268
-35.4866
-33.8115
-32.5218
-32.0325
-32.5028
-33.8286
-35.6745
-37.5379
-38.8318
-38.9755
-37.4776
-34.0035
-28.4178
-20.7977
-11.4182
-0.710636
10.797
22.5518
34.0478
44.8895
54.8382
63.8342
71.9944
79.584
86.9682
94.5507
102.708
111.731
121.775
132.836
144.746
157.191
169.749
181.939
193.275
203.322
211.731
218.271
222.836
225.433
226.166
225.2
222.728
218.938
213.989
207.998
201.033
193.118
184.247
174.401
163.562
151.733
138.951
125.3
110.922
96.0189
80.8524
65.7397
51.0394
37.1323
24.3973
13.1821
3.77434
-3.62553
-8.92597
-12.1579
-13.4784
-13.1638
-11.5922
-9.21774
-6.53693
-4.05158
-2.23022
-1.47177
-2.07471
-4.21445
-7.93122
-13.1295
-19.589
-26.9863
-34.9241
-42.9656
-50.6711
-57.6315
-63.4988
-68.0085
-70.9951
-72.3989
-72.2651
-70.7351
-68.0319
-64.4397
-60.2795
-55.8814
-51.5563
-47.5677
-44.1082
-41.281
-39.0908
-37.4445
-36.1626
-35.0012
-33.6807
-31.9209
-29.4755
-26.1642
-21.8976
-16.6925
-10.6745
-4.07051
2.81182
9.61173
15.9495
21.4619
25.8364
28.839
30.3348
30.2975
28.8082
26.0439
22.2562
17.7435
12.8204
7.78651
2.90006
-1.6419
-5.71395
-9.26277
-12.2981
-14.8761
-17.0782
-18.9885
-20.6732
-22.1652
-23.4554
-24.492
-25.1864
-25.4265
-25.0941
-24.0845
-22.3265
-19.7997
-16.5467
-12.6795
-8.37621
-3.87091
0.564775
4.64584
8.1011
10.7004
12.2785
12.7529
12.1331
10.52
8.09652
5.10911
1.8434
-1.40355
-4.35106
-6.75983
-8.45145
-9.32102
-9.3422
-8.56527
-7.10902
-5.14818
-2.89731
-0.592528
1.52829
3.24583
4.37913
4.80345
4.46427
3.38567
1.67111
-0.504334
-2.91056
-5.28694
-7.37241
-8.93805
-9.81798
-9.93436
-9.31255
-8.083
-6.46856
-4.7574
-3.26445
-2.28626
-2.05565
-2.70306
-4.23062
-6.50313
-9.25755
-12.1299
-14.696
-16.5204
-17.2073
-16.4462
-14.0478
-9.96515
-4.2987
2.71451
10.7255
19.3082
27.9994
36.3404
43.9142
50.3756
55.4722
59.0536
61.0699
61.5613
60.6393
58.4647
55.224
51.1097
46.3054
40.9801
35.2893
29.3852
23.4294
17.606
12.1303
7.24788
3.22213
0.30989
-1.27199
-1.38431
-0.000552472
2.76832
6.66568
11.3028
16.1962
20.8281
24.7242
27.5418
29.155
29.7243
29.7346
29.9886
31.5461
35.6069
43.3422
55.6927
73.1599
95.6224
122.217
151.313
180.6
207.289
228.419
241.213
243.446
233.771
211.944
178.915
136.775
88.5607
37.9403
-11.1733
-55.0361
-90.4631
-115.149
-127.885
-128.65
-118.571
-99.76
-75.0515
-47.6737
-20.8917
2.33589
19.6483
29.493
31.2352
25.16
12.3738
-5.3784
-25.9533
-47.0757
-66.5993
-82.7335
-94.2116
-100.388
-101.257
-97.3976
-89.8578
-79.9905
-69.2686
-59.0978
-50.6497
-44.7331
-41.7151
-41.4992
-43.5586
-47.0191
-50.7786
-53.6504
-54.5107
-52.4354
-46.8102
-37.4016
-24.3825
-8.30959
9.94307
29.2855
48.5356
66.5496
82.3446
95.198
104.715
110.856
113.924
114.518
113.45
111.653
110.073
109.572
110.841
114.342
120.27
128.542
138.817
150.532
162.956
175.256
186.569
196.073
203.059
206.991
207.551
204.666
198.514
189.505
178.242
165.456
151.932
138.429
125.598
113.918
103.649
94.8109
87.191
80.3858
73.8601
67.0262
59.3287
50.3241
39.7465
27.5488
13.9171
-0.745657
-15.862
-30.7438
-44.6679
-56.9559
-67.0457
-74.5486
-79.2851
-81.296
-80.8287
-78.3017
-74.2533
-69.2797
-63.9723
-58.8599
-54.3627
-50.7624
-48.1897
-46.6304
-45.9456
-45.9048
-46.2237
-46.6047
-46.7737
-46.5088
-45.661
-44.1626
-42.0267
-39.3368
-36.2306
-32.8796
-29.467
-26.168
-23.1325
-20.472
-18.2526
-16.4929
-15.166
-14.2065
-13.5205
-12.997
-12.5211
-11.9854
-11.3015
-10.4072
-9.2706
-7.88997
-6.28928
-4.51007
-2.60123
-0.608465
1.43434
3.51007
5.6183
7.77001
9.97795
12.2443
14.5485
16.8374
19.0212
20.9765
22.5564
23.6089
23.9985
23.6303
22.471
20.563
18.0297
15.0698
11.9405
8.93173
6.33511
4.41101
3.35879
3.29391
4.23495
6.10196
8.72608
11.8688
15.2483
18.569
21.5511
23.9566
25.6091
26.4057
26.3204
25.3998
23.7519
21.5298
18.9124
16.0851
13.2207
10.4645
7.92244
5.65528
3.67725
1.96019
0.441773
-0.963011
-2.34861
-3.80535
-5.40717
-7.20194
-9.2054
-11.3995
-13.7348
-16.137
-18.5164
-20.7786
-22.8359
-24.6171
-26.0747
-27.1894
-27.9698
-28.449
-28.6781
-28.7174
-28.6266
-28.4555
-28.2367
-27.9806
-27.6734
-27.2794
-26.745
-26.0056
-24.9931
-23.6426
-21.8983
-19.7162
-17.066
-13.9292
-10.2983
-6.17526
-1.57125
3.49152
8.97662
14.829
20.9707
27.2975
33.6779
39.955
45.9517
51.4789
56.3461
60.3736
63.4047
65.317
66.0322
65.5226
63.8144
60.9879
57.1725
52.5395
47.2901
41.6418
35.8131
30.0086
24.4056
19.1442
14.322
9.9932
6.17419
2.85201
-0.00349529
-2.42664
-4.44362
-6.06271
-7.26771
-8.01491
-8.23234
-7.81945
-6.64488
-4.54053
-1.29141
3.37746
9.81334
18.4418
29.7588
44.3009
62.5864
85.0246
111.796
142.72
177.127
213.767
250.792
285.819
316.096
338.756
351.133
351.103
337.393
309.813
269.377
218.28
159.735
97.6848
36.4188
-19.8545
-67.4304
-103.473
-126.282
-135.429
-131.752
-117.213
-94.6391
-67.3829
-38.9458
-12.6066
8.89952
23.6194
30.5158
29.4902
21.2987
7.38208
-10.3653
-29.8538
-49.052
-66.2064
-80.0045
-89.6673
-94.9687
-96.1855
-93.9926
-89.322
-83.2064
-76.6293
-70.3992
-65.0619
-60.8574
-57.7226
-55.3352
-53.1878
-50.681
-47.2211
-42.309
-35.6103
-26.9985
-16.5686
-4.62034
8.38295
21.8748
35.2552
47.9614
59.5299
69.6438
78.1593
85.1104
90.6919
95.224
99.1039
102.752
106.557
110.833
115.781
121.475
127.859
134.758
141.91
148.992
155.663
161.598
166.513
170.191
172.489
173.34
172.744
170.748
167.432
162.884
157.184
150.396
142.565
133.725
123.907
113.168
101.597
89.3402
76.6042
63.6572
50.8172
38.4294
26.8363
16.342
7.1782
-0.523895
-6.75095
-11.6098
-15.3146
-18.1588
-20.4769
-22.6004
-24.8133
-27.3154
-30.1958
-33.4225
-36.8482
-40.2307
-43.2682
-45.6417
-47.0621
-47.3154
-46.3009
-44.0577
-40.7754
-36.7877
-32.547
-28.5816
-25.4404
-23.6279
-23.5394
-25.4034
-29.2397
-34.8394
-41.7719
-49.4196
-57.0366
-63.8256
-69.0234
-71.9852
-72.2563
-69.6223
-64.1335
-56.0983
-46.0498
-34.6884
-22.8081
-11.2166
-0.65707
8.25911
15.102
19.6511
21.8995
22.0368
20.4129
17.4891
13.783
9.81299
6.04903
2.8743
0.560099
-0.74441
-1.00864
-0.305432
1.21237
3.33994
5.84933
8.51593
11.1402
13.5634
15.6756
17.4186
18.7816
19.7927
20.5081
20.999
21.3389
21.593
21.8094
22.0139
22.2088
22.3741
22.4728
22.4571
22.2766
21.8855
21.2492
20.3493
19.1852
17.7744
16.1507
14.3601
12.4563
10.496
8.53321
6.61575
4.78143
3.0561
1.4528
-0.0279424
-1.39692
-2.67452
-3.88877
-5.07366
-6.26778
-7.51347
-8.85622
-10.3441
-12.0265
-13.9525
-16.1679
-18.7115
-21.6109
-24.8786
-28.5096
-32.4796
-36.7468
-41.2549
-45.9387
-50.73
-55.5638
-60.3825
-65.1373
-69.7864
-74.2893
-78.5995
-82.6551
-86.3718
-89.6377
-92.3142
-94.2423
-95.2549
-95.1938
-93.9289
-91.3779
-87.522
-82.4165
-76.1933
-69.0554
-61.2626
-53.1111
-44.9088
-36.9489
-29.486
-22.7162
-16.7648
-11.6812
-7.44274
-3.96531
-1.11947
1.25041
3.30657
5.20014
7.0571
8.96892
10.9881
13.128
15.3665
17.6513
19.9065
22.0398
23.9485
25.5253
26.6641
27.265
27.2403
26.5203
25.0602
22.8461
19.9007
16.2869
12.1089
7.51014
2.66696
-2.22028
-6.93936
-11.2798
-15.0469
-18.0738
-20.2325
-21.4391
-21.6567
-20.8921
-19.188
-16.6091
-13.222
-9.06756
-4.12574
1.72317
8.73466
17.3223
28.0527
41.6013
58.6618
79.8113
105.346
135.113
168.369
203.705
239.055
271.826
299.117
318.03
326.027
321.28
302.961
271.433
228.296
176.287
119.029
60.6686
5.44055
-42.7795
-80.8821
-106.836
-119.869
-120.499
-110.416
-92.2271
-69.1178
-44.4554
-21.399
-2.55678
10.268
16.2173
15.3948
8.76554
-2.04226
-15.0012
-27.9775
-39.0138
-46.5684
-49.6834
-48.0667
-42.0826
-32.661
-21.1403
-9.07045
1.99835
10.7123
16.0743
17.5495
15.109
9.20803
0.708136
-9.24443
-19.3667
-28.3935
-35.22
-39.0159
-39.3007
-35.9734
-29.2977
-19.8467
-8.4181
4.06887
16.6811
28.5715
39.0599
47.6897
54.2539
58.7934
61.5684
63.0103
63.6603
64.1032
64.9027
66.5458
69.4007
73.6895
79.4777
86.6793
95.0726
104.326
114.028
123.718
132.92
141.165
148.02
153.106
156.114
156.816
155.076
150.854
144.205
135.285
124.34
111.7
97.7671
82.9952
67.8699
52.881
38.4928
25.1127
13.0603
2.53963
-6.38248
-13.7876
-19.9041
-25.09
-29.799
-34.5332
-39.7849
-45.9757
-53.3997
-62.18
-72.2437
-83.3216
-94.9721
-106.628
-117.66
-127.447
-135.45
-141.27
-144.692
-145.705
-144.496
-141.421
-136.958
-131.65
-126.036
-120.594
-115.695
-111.563
-108.266
-105.717
-103.698
-101.893
-99.936
-97.4585
-94.1356
-89.7263
-84.1005
-77.2504
-69.2852
-60.4071
-50.8728
-40.9448
-30.8381
-20.6731
-10.4411
0.00679594
10.9448
22.728
35.7236
50.2265
66.3719
84.0621
102.92
122.283
141.24
158.718
173.589
184.811
191.555
193.321
190.01
181.955
169.893
154.888
138.218
121.236
105.214
91.216
79.9816
71.8587
66.782
64.301
63.6533
63.8735
63.9237
62.8292
59.8027
54.3424
46.2917
35.8551
23.5679
10.2245
-3.22463
-15.7949
-26.5923
-34.9249
-40.3865
-42.9031
-42.7349
-40.4354
-36.7738
-32.6305
-28.8824
-26.2915
-25.4127
-26.5319
-29.6417
-34.4566
-40.4629
-46.9961
-53.3329
-58.7862
-62.7886
-64.9556
-65.1204
-63.338
-59.8612
-55.0931
-49.5236
-43.6618
-37.971
-32.8165
-28.4299
-24.8951
-22.1539
-20.0292
-18.2615
-16.5517
-14.6052
-12.17
-9.06676
-5.20549
-0.590037
4.68985
10.4763
16.5677
22.7457
28.8017
34.5589
39.8877
44.7145
49.0219
52.8434
56.2532
59.3536
62.262
65.0992
67.9801
71.0063
74.2617
77.81
81.6933
85.9313
90.5204
95.432
100.61
105.965
111.373
116.662
121.615
125.962
129.381
131.512
131.972
130.382
126.403
119.771
110.34
98.106
83.2308
66.04
47.008
26.7241
5.84565
-14.9565
-35.0525
-53.9017
-71.0864
-86.3309
-99.5016
-110.592
-119.695
-126.971
-132.607
-136.787
-139.654
-141.288
-141.668
-140.652
-137.94
-133.06
-125.366
-114.071
-98.3275
-77.3586
-50.6352
-18.0724
19.7845
61.6297
105.361
148.168
186.747
217.639
237.633
244.195
235.846
212.435
175.259
126.996
71.47
13.2628
-42.7751
-92.0475
-130.705
-156.043
-166.764
-163.064
-146.553
-120.009
-87.0253
-51.5706
-17.5416
11.6523
33.4224
46.2195
49.6212
44.2874
31.7977
14.3996
-5.29933
-24.6545
-41.2853
-53.3226
-59.5775
-59.62
-53.766
-42.9819
-28.7237
-12.7359
3.16518
17.2972
28.2859
35.1902
37.5699
35.4939
29.4939
20.4732
9.58578
-1.89876
-12.7296
-21.794
-28.2109
-31.3932
-31.0743
-27.3017
-20.4005
-10.9138
0.472428
13.0109
25.9735
38.7222
50.7645
61.7881
71.6731
80.4815
88.425
95.817
103.014
110.355
118.101
126.392
135.213
144.387
153.585
162.357
170.178
176.505
180.836
182.765
182.022
178.502
172.272
163.559
152.723
140.221
126.562
112.261
97.8054
83.6203
70.0532
57.3653
45.7335
35.2575
25.9715
17.8555
10.8465
4.84722
-0.264803
-4.6289
-8.39209
-11.6991
-14.6822
-17.4513
-20.0868
-22.635
-25.1078
-27.4868
-29.7309
-31.7863
-33.5975
-35.1176
-36.3156
-37.1809
-37.7228
-37.9662
-37.9442
-37.687
-37.212
-36.5134
-35.5553
-34.2693
-32.5588
-30.3088
-27.4044
-23.7527
-19.3104
-14.1078
-8.2697
-2.02466
4.29965
10.2969
15.5179
19.5183
21.9119
22.4222
20.9248
17.4736
12.3072
5.83293
-1.40908
-8.7977
-15.692
-21.4946
-25.7086
-27.9839
-28.1451
-26.2026
-22.3441
-16.9103
-10.358
-3.21573
3.96492
10.6569
16.4021
20.849
23.7818
25.1381
25.0142
23.6545
21.4275
18.7859
16.2168
14.1844
13.0733
13.1374
14.4636
16.9542
20.3319
24.1685
27.9322
31.0504
32.978
33.2634
31.6033
27.88
22.1756
14.7634
6.07715
-3.33704
-12.8795
-21.959
-30.0502
-36.7411
-41.7645
-45.0119
-46.5301
-46.5001
-45.2059
-42.9934
-40.2284
-37.2559
-34.3674
-31.776
-29.6047
-27.8848
-26.5661
-25.5353
-24.6398
-23.7147
-22.6093
-21.2088
-19.4518
-17.3382
-14.9299
-12.3433
-9.73394
-7.27756
-5.14742
-3.49254
-2.41869
-1.97457
-2.14483
-2.85083
-3.95881
-5.29458
-6.66268
-7.86767
-8.73481
-9.12765
-8.9604
-8.20394
-6.88489
-5.07831
-2.89535
-0.467614
2.06956
4.59277
7.0032
9.23489
11.2577
13.0749
14.7159
16.2248
17.6476
19.018
20.3457
21.6078
22.7443
23.6596
24.2287
24.308
23.749
22.4145
20.1938
17.0183
12.8736
7.80995
1.94829
-4.51782
-11.3258
-18.1539
-24.6386
-30.3982
-35.0633
-38.3102
-39.8942
-39.6788
-37.6556
-33.9517
-28.8214
-22.6222
-15.7761
-8.71799
-1.83802
4.57847
10.405
15.7143
20.7969
26.15
32.432
40.3814
50.705
63.9453
80.3471
99.7415
121.474
144.391
166.903
187.118
203.041
212.802
214.906
208.44
193.23
169.906
139.873
105.187
68.3428
32.0134
-1.23464
-29.2106
-50.3204
-63.7133
-69.3391
-67.9133
-60.7973
-49.8135
-37.0192
-24.4689
-13.9919
-7.01097
-4.41863
-6.522
-13.0561
-23.2579
-35.9863
-49.866
-63.435
-75.2737
-84.1008
-88.8315
-88.5999
-82.7597
-70.8795
-52.7525
-28.4299
1.71902
36.9333
75.9944
117.196
158.376
197.021
230.456
256.092
271.71
275.74
267.485
247.267
216.447
177.333
132.96
86.7901
42.3494
2.86756
-29.0479
-51.6529
-64.1991
-66.9412
-61.0263
-48.2844
-30.9531
-11.3783
8.27024
26.2313
41.3081
52.9334
61.1456
66.4871
69.8474
72.2784
74.8085
78.2823
83.2445
89.8782
98.0021
107.119
116.506
125.325
132.746
138.051
140.718
140.468
137.278
131.354
123.084
112.974
101.579
89.4426
77.0538
64.8185
53.052
41.9849
31.78
22.5517
14.3849
7.34703
1.49346
-3.13511
-6.5209
-8.68005
-9.67295
-9.61089
-8.65667
-7.01825
-4.9357
-2.66301
-0.447113
1.49298
2.98435
3.91328
4.2319
3.95782
3.16725
1.98261
0.556604
-0.945415
-2.36263
-3.55389
-4.40941
-4.85839
-4.87233
-4.46422
-3.68428
-2.61291
-1.35172
-0.0134905
1.28814
2.44841
3.37988
4.019
4.33037
4.30836
3.97619
3.38252
2.596
1.69828
0.776006
-0.0873228
-0.819033
-1.36374
-1.688
-1.78281
-1.66368
-1.36846
-0.95316
-0.48623
-0.0419134
0.306696
0.494299
0.469189
0.197773
-0.332498
-1.11197
-2.10948
-3.2749
-4.5432
-5.84006
-7.08832
-8.21503
-9.15838
-9.87397
-10.3397
-10.5584
-10.5584
-10.3909
-10.1248
-9.83907
-9.614
-9.5213
-9.61518
-9.92502
-10.4507
-11.1615
-11.9986
-12.8816
-13.7174
-14.4114
-14.8793
-15.0572
-14.9104
-14.4373
-13.6706
-12.6732
-11.5301
-10.3375
-9.19088
-8.17193
-7.33805
-6.71469
-6.29189
-6.02534
-5.84196
-5.6489
-5.34498
-5.34498
-5.34498
-5.34498
-5.34498
-5.34498
-5.34498
-5.34498
-5.34498
-5.34498
-5.34498
-5.34498
-5.34498
-5.34498
-5.34498
-5.34498
-5.34498
-5.34498
-5.34498
-5.34498
