1.48091
1.15288
0.720092
0.187149
-0.425996
-1.08284
-1.73174
-2.31009
-2.75101
-2.99191
-2.9836
-2.69884
-2.13871
-1.33575
-0.353056
0.720777
1.78051
2.71565
3.42281
3.81724
3.84176
3.47199
2.71723
1.61743
0.236992
-1.34309
-3.03342
-4.74331
-6.38588
-7.88075
-9.15437
-10.1384
-10.7669
-10.974
-10.6917
-9.85089
-8.38344
-6.22836
-3.33949
0.305194
4.69397
9.77265
15.4377
21.5323
27.8455
34.1163
40.0426
45.2964
49.5441
52.4727
53.8173
53.3905
51.1063
46.9981
41.227
34.0771
25.9394
17.2842
8.62491
0.476169
-6.68943
-12.4822
-16.6302
-19.0054
-19.638
-18.7179
-16.5817
-13.6868
-10.5719
-7.80977
-5.95274
-5.47801
-6.73676
-9.91259
-14.9939
-21.7638
-29.81
-38.554
-47.297
-55.2797
-61.7484
-66.0226
-67.5573
-65.9954
-61.2064
-53.3094
-42.68
-29.9417
-15.9412
-1.70982
11.5912
22.7409
30.5438
33.9282
32.0509
24.4021
10.896
-8.06372
-31.5592
-58.184
-86.1253
-113.3
-137.539
-156.792
-169.344
-174.003
-170.243
-158.276
-139.05
-114.153
-85.6606
-55.9161
-27.2896
-1.93615
18.4162
32.6246
40.218
41.4068
37.0152
28.3509
17.0284
4.77057
-6.78798
-16.2728
-22.6995
-25.5489
-24.7847
-20.8141
-14.4029
-6.55633
1.61718
9.04289
14.8029
18.233
18.9855
17.0537
12.7589
6.70352
-0.302176
-7.3313
-13.439
-17.7591
-19.5887
-18.4537
-14.1496
-6.75359
3.39116
15.7167
29.4925
43.9004
58.1149
71.3802
83.076
92.7649
100.22
105.43
108.578
110.009
110.178
109.593
108.758
108.119
108.022
108.684
110.179
112.44
115.278
118.41
121.493
124.162
126.068
126.907
126.444
124.522
121.062
116.061
109.575
101.707
92.5934
82.3937
71.2855
59.462
47.1324
34.5223
21.873
9.43646
-2.53282
-13.7907
-24.1184
-33.3392
-41.3321
-48.0439
-53.4931
-57.7686
-61.0202
-63.4432
-65.2573
-66.6834
-67.9212
-69.1282
-70.4056
-71.7909
-73.2577
-74.7246
-76.0687
-77.1454
-77.8086
-77.9305
-77.4187
-76.2267
-74.3591
-71.8696
-68.8532
-65.4338
-61.7499
-57.9397
-54.1287
-50.4193
-46.8862
-43.5745
-40.5018
-37.6632
-35.0369
-32.591
-30.288
-28.0901
-25.9608
-23.868
-21.7839
-19.6872
-17.5637
-15.408
-13.2253
-11.0321
-8.85672
-6.73796
-4.72208
-2.85851
-1.19447
0.230487
1.38925
2.27025
2.87848
3.2342
3.36947
3.32332
3.13618
2.84482
2.47853
2.0575
1.59351
1.09303
0.561985
0.0115599
-0.536264
-1.04441
-1.45881
-1.70962
-1.71615
-1.39506
-0.671401
0.509101
2.16816
4.28543
6.79314
9.57613
12.4779
15.3121
17.8785
19.9809
21.4462
22.14
21.9797
20.9416
19.0624
16.4354
13.2023
9.54038
5.64879
1.73284
-2.01077
-5.40741
-8.3157
-10.6355
-12.3121
-13.3364
-13.7409
-13.5912
-12.9757
-11.9924
-10.7368
-9.29022
-7.71227
-6.03739
-4.27596
-2.42003
-0.452536
1.6416
3.86444
6.1958
8.58776
10.9638
13.2229
15.2494
16.9258
18.1494
18.8494
19.0037
18.6528
17.9083
16.9558
16.0474
15.486
15.5994
16.7073
19.0824
22.9126
28.2658
35.0651
43.0764
51.9121
61.0514
69.8765
77.7217
83.9316
87.9219
89.2381
87.6033
82.9523
75.4457
65.4622
53.5697
40.4777
26.9748
13.8593
1.86905
-8.38072
-16.4466
-22.0867
-25.2693
-26.1597
-25.0888
-22.5066
-18.9275
-14.874
-10.8248
-7.17346
-4.20026
-2.06048
-0.787976
-0.312748
-0.488959
-1.12948
-2.04287
-3.06919
-4.11156
-5.16134
-6.31455
-7.77773
-9.86068
-12.9541
-17.4906
-23.8896
-32.489
-43.4708
-56.7895
-72.1162
-88.81
-105.928
-122.279
-136.518
-147.281
-153.333
-153.725
-147.923
-135.903
-118.19
-95.829
-70.3016
-43.3873
-16.9878
7.06038
27.1669
42.1375
51.2775
54.4382
52.0029
44.8172
34.0753
21.1764
7.57108
-5.38534
-16.5568
-25.1158
-30.5917
-32.8762
-32.19
-29.0187
-24.027
-17.9642
-11.572
-5.50403
-0.265551
3.8225
6.63398
8.22409
8.79661
8.65803
8.16586
7.67818
7.51069
7.90583
9.01622
10.9029
13.5464
16.867
20.7498
25.0713
29.72
34.6123
39.6981
44.9586
50.3959
56.0181
61.8227
67.7811
73.8273
79.8536
85.7126
91.2265
96.2024
100.45
103.799
106.12
107.332
107.413
106.396
104.367
101.443
97.7606
93.4533
88.6335
83.3799
77.7326
71.6973
65.2589
58.4007
51.1275
43.4864
35.5823
27.5839
19.718
12.2533
5.47463
-0.348984
-4.99707
-8.32756
-10.2987
-10.9797
-10.5489
-9.27864
-7.50836
-5.61059
-3.95234
-2.85779
-2.57624
-3.25932
-4.94967
-7.58202
-10.996
-14.9585
-19.1923
-23.4074
-27.3307
-30.7315
-33.4397
-35.3548
-36.4477
-36.754
-36.3627
-35.401
-34.0185
-32.3714
-30.6083
-28.8577
-27.2176
-25.7473
-24.4633
-23.3382
-22.305
-21.2663
-20.1075
-18.7142
-16.9907
-14.8772
-12.3638
-9.49854
-6.38727
-3.18637
-0.0869674
2.70647
5.00114
6.6412
7.52986
7.64556
7.04949
5.88355
4.35827
2.73194
1.28298
0.278665
-0.0561686
0.433197
1.81089
4.03976
6.98214
10.4122
14.0385
17.5351
20.5757
22.8697
24.1932
24.4125
23.498
21.5255
18.666
15.165
11.3148
7.42244
3.77816
0.628503
-1.84369
-3.52977
-4.3964
-4.47845
-3.86643
-2.69199
-1.11538
0.681765
2.49611
4.09457
5.20051
5.47804
4.52009
1.84575
-3.08817
-10.8588
-22.0323
-37.1051
-56.4382
-80.1923
-108.272
-140.288
-175.54
-213.029
-251.495
-289.463
-325.326
-357.416
-384.092
-403.835
-415.333
-417.584
-409.986
-392.419
-365.31
-329.661
-287.029
-239.453
-189.326
-139.225
-91.707
-49.0952
-13.2852
14.413
33.3737
43.6851
46.1063
41.9575
32.9578
21.0314
8.10409
-4.08575
-14.1412
-21.1116
-24.5386
-24.4446
-21.268
-15.7587
-8.84947
-1.51949
5.33107
10.9836
14.9701
17.1038
17.4728
16.4007
14.3835
12.0125
9.89533
8.58315
8.51437
9.97804
13.1001
17.8515
24.0744
31.5216
39.9014
48.9214
58.3238
67.9076
77.5357
87.1273
96.6394
106.044
115.304
124.356
133.104
141.422
149.164
156.186
162.365
167.622
171.929
175.315
177.856
179.657
180.823
181.431
181.503
180.986
179.744
177.562
174.164
169.247
162.519
153.747
142.801
129.69
114.594
97.8723
80.0494
61.7894
43.8435
26.9881
11.9542
-0.641876
-10.3577
-16.9692
-20.4923
-21.1815
-19.5032
-16.089
-11.6716
-7.01237
-2.82636
0.285324
1.89041
1.76136
-0.110852
-3.5261
-8.1059
-13.3419
-18.6563
-23.4674
-27.2527
-29.603
-30.2617
-29.1453
-26.3443
-22.1049
-16.7948
-10.8579
-4.76402
1.04035
6.17488
10.3569
13.4193
15.3139
16.1016
15.9314
15.0128
13.5853
11.889
10.1404
8.51451
7.13525
6.07388
5.35349
4.95837
4.84555
4.95667
5.22816
5.59882
6.01428
6.42865
6.80396
7.10848
7.31484
7.39864
7.3382
7.11531
6.71692
6.13708
5.37859
4.45387
3.38451
2.19969
0.933635
-0.377392
-1.69789
-2.99518
-4.24041
-5.40835
-6.47632
-7.42252
-8.22453
-8.85832
-9.29846
-9.51943
-9.49812
-9.21691
-8.66683
-7.84999
-6.78079
-5.48558
-4.00071
-2.3695
-0.638615
1.14521
2.93748
4.69678
6.384
7.96041
9.38526
10.614
11.5981
12.2866
12.63
12.5862
12.1267
11.2427
9.94952
8.28894
6.32798
4.15491
1.87246
-0.410841
-2.59016
-4.57334
-6.28836
-7.68827
-8.75307
-9.48842
-9.92151
-10.0949
-10.0592
-9.86638
-9.56404
-9.19235
-8.78356
-8.36405
-7.95793
-7.59115
-7.29441
-7.10377
-7.05823
-7.19423
-7.53819
-8.09834
-8.85788
-9.77112
-10.7638
-11.7384
-12.583
-13.1845
-13.4421
-13.2808
-12.6619
-11.5898
-10.113
-8.32049
-6.33223
-4.28699
-2.32739
-0.585
0.832959
1.85377
2.44512
2.61628
2.41458
1.91794
1.22442
0.440345
-0.331627
-1.00305
-1.50773
-1.80652
-1.88862
-1.76954
-1.48626
-1.09046
-0.640763
-0.195003
0.196545
0.496411
0.683172
0.752643
0.717154
0.603323
0.448841
0.298825
0.202227
0.208562
0.364992
0.713514
1.28791
2.11016
3.18614
4.501
6.01482
7.65938
9.33725
10.924
12.2744
13.2323
13.6448
13.3784
12.3368
10.4775
7.82524
4.47986
0.616615
-3.52177
-7.64167
-11.4226
-14.5464
-16.7295
-17.7531
-17.4889
-15.9171
-13.133
-9.34238
-4.8444
-0.0044665
4.78039
9.11977
12.6675
15.1541
16.4111
16.3836
15.1321
12.8217
9.70257
6.08383
2.30369
-1.30022
-4.41796
-6.78949
-8.22091
-8.59376
-7.86771
-6.07698
-3.32135
0.246865
4.43872
9.0459
13.8579
18.6775
23.334
27.6919
31.6563
35.1725
38.2228
40.8184
42.9904
44.7784
46.2207
47.3462
48.1683
48.6827
48.8684
48.691
48.1084
47.0772
45.559
43.5265
40.9669
37.8845
34.3007
30.2527
25.7901
20.9711
15.8585
10.5149
5.00035
-0.629101
-6.31832
-12.0063
-17.6145
-23.0304
-28.0906
-32.5649
-36.1485
-38.4678
-39.102
-37.6262
-33.6709
-26.9967
-17.5735
-5.65445
8.16957
22.9465
37.3842
49.922
58.8554
62.5078
59.4333
48.6291
29.7266
3.12967
-29.928
-67.4273
-106.714
-144.742
-178.389
-204.792
-221.668
-227.572
-222.059
-205.731
-180.156
-147.692
-111.222
-73.8422
-38.5456
-7.92995
16.0333
32.1507
40.0663
40.2301
33.7835
22.3827
7.98195
-7.396
-21.8757
-33.9095
-42.4048
-46.7899
-47.016
-43.5013
-37.0291
-28.6163
-19.3694
-10.3468
-2.4415
3.70323
7.74017
9.62433
9.5831
8.0578
5.62666
2.92043
0.541556
-1.00379
-1.35397
-0.316513
2.1311
5.8621
10.6371
16.1504
22.078
28.1214
34.0414
39.6778
44.9562
49.8799
54.5117
58.9496
63.299
67.6471
72.0429
76.4843
80.9138
85.2229
89.2637
92.8654
95.8531
98.0675
99.3803
99.7068
99.0109
97.3044
94.6412
91.1054
86.7986
81.8266
76.289
70.2728
63.8529
57.0959
50.0703
42.8562
35.556
28.2994
21.2439
14.5676
8.45545
3.08021
-1.41863
-4.95495
-7.51122
-9.14603
-9.99188
-10.2429
-10.1338
-9.91241
-9.81027
-10.0143
-10.645
-11.7428
-13.2669
-15.1048
-17.0929
-19.0446
-20.7813
-22.1632
-23.112
-23.6254
-23.7784
-23.7122
-23.6128
-23.681
-24.0998
-25.003
-26.45
-28.4101
-30.7599
-33.2922
-35.7379
-37.7957
-39.1681
-39.5964
-38.8922
-36.9608
-33.8136
-29.5686
-24.4386
-18.71
-12.7139
-6.79377
-1.27392
3.569
7.52714
10.4741
12.3683
13.247
13.2135
12.4181
11.0381
9.25664
7.24564
5.15323
3.097
1.16311
-0.589874
-2.12419
-3.41533
-4.4459
-5.20255
-5.67669
-5.86876
-5.79468
-5.4926
-5.0274
-4.49103
-3.99721
-3.67035
-3.62989
-3.97207
-4.75244
-5.97212
-7.57065
-9.42729
-11.3711
-13.1993
-14.7009
-15.6829
-15.9958
-15.5535
-14.3462
-12.4434
-9.98669
-7.17467
-4.23972
-1.42188
1.05789
3.02136
4.35069
4.99831
4.98808
4.40806
3.39636
2.12206
0.763984
-0.510068
-1.56107
-2.2917
-2.65323
-2.64609
-2.31456
-1.73683
-1.01199
-0.245789
0.462934
1.03381
1.4133
1.57939
1.54261
1.34366
1.04843
0.74107
0.516086
0.470143
0.694371
1.26773
2.2519
3.68808
5.59571
7.97299
10.7987
14.0346
17.6274
21.5102
25.6018
29.8061
34.0099
38.0824
41.8769
45.2344
47.9925
49.9963
51.1119
51.2413
50.3343
48.398
45.5007
41.7691
37.3797
32.5449
27.4953
22.4612
17.6544
13.2538
9.396
6.17094
3.62315
1.75781
0.54979
-0.045514
-0.0809956
0.392919
1.33826
2.73859
4.60653
6.98854
9.96418
13.6369
18.1128
23.4655
29.6878
36.6353
43.9706
51.1224
57.2739
61.3931
62.3137
58.8643
50.0346
35.1556
14.0671
-12.7613
-44.1805
-78.401
-113.126
-145.767
-173.712
-194.619
-206.693
-208.899
-201.096
-184.059
-159.403
-129.393
-96.6984
-64.098
-34.1834
-9.09946
9.65374
21.3329
25.9709
24.3072
17.6417
7.63837
-3.89692
-15.234
-24.9061
-31.8479
-35.4722
-35.6807
-32.8156
-27.5629
-20.8239
-13.5748
-6.73262
-1.04322
2.99675
5.17782
5.57526
4.5109
2.48786
0.109533
-2.00515
-3.29905
-3.33754
-1.847
1.27142
5.95123
11.9891
19.0864
26.8958
35.0674
43.287
51.3034
58.943
66.1107
72.7804
78.9777
84.7577
90.1827
95.3028
100.141
104.684
108.883
112.651
115.881
118.449
120.231
121.114
121.01
119.854
117.616
114.294
109.916
104.529
98.2007
91.0133
83.0654
74.4731
65.3734
55.9264
46.3167
36.7491
27.4414
18.612
10.465
3.17336
-3.13667
-8.39799
-12.6099
-15.8389
-18.2131
-19.9093
-21.1363
-22.1146
-23.0552
-24.141
-25.5117
-27.2533
-29.3952
-31.9123
-34.7332
-37.752
-40.8429
-43.8754
-46.7281
-49.3007
-51.5217
-53.3532
-54.7909
-55.8615
-56.6162
-57.1225
-57.4543
-57.681
-57.8567
-58.0116
-58.1444
-58.2203
-58.172
-57.906
-57.3133
-56.2831
-54.7181
-52.5489
-49.7467
-46.3304
-42.369
-37.9771
-33.3057
-28.528
-23.8225
-19.3573
-15.2744
-11.6793
-8.63415
-6.15684
-4.22406
-2.77852
-1.73854
-1.00863
-0.489974
-0.0897864
0.270994
0.651894
1.089
1.59292
2.14871
2.71797
3.24347
3.65651
3.88672
3.87381
3.57966
2.99907
2.16698
1.16043
0.0939295
-0.891843
-1.64711
-2.03368
-1.9463
-1.33142
-0.200209
1.36649
3.22264
5.17081
6.98381
8.4317
9.31055
9.46922
8.83044
7.40332
5.28531
2.65328
-0.255462
-3.16958
-5.8145
-7.94352
-9.36527
-9.96429
-9.71204
-8.66735
-6.96646
-4.80414
-2.40862
-0.0135497
2.16936
3.9739
5.29635
6.10434
6.43692
6.39655
6.13439
5.83115
5.67623
5.84762
6.49492
7.72708
9.60559
12.143
15.3057
19.0202
23.1803
27.6549
32.2948
36.9387
41.4177
45.5593
49.1919
52.149
54.2755
55.4339
55.5126
54.4334
52.1596
48.7017
44.1209
38.5297
32.0883
24.9974
17.4881
9.80949
2.2154
-5.04884
-11.7577
-17.7143
-22.756
-26.7563
-29.6234
-31.2955
-31.7345
-30.9182
-28.8344
-25.4775
-20.8515
-14.9811
-7.9337
0.149078
9.01047
18.2358
27.2161
35.1312
40.9643
43.5586
41.7211
34.3687
20.7039
0.396039
-26.2618
-58.2512
-93.8115
-130.524
-165.503
-195.675
-218.118
-230.418
-230.984
-219.287
-195.97
-162.823
-122.611
-78.7865
-35.1147
4.73378
37.5732
61.0289
73.76
75.5573
67.3095
50.8474
28.6919
3.73871
-21.0776
-43.1021
-60.2234
-71.0571
-75.032
-72.3788
-64.0273
-51.4347
-36.3684
-20.6739
-6.05676
6.09867
14.8537
19.7756
20.9317
18.8262
14.2921
8.35626
2.09834
-3.48028
-7.56116
-9.57781
-9.24474
-6.54832
-1.70601
4.89616
12.7763
21.4287
30.3853
39.2617
47.7823
55.7872
63.2214
70.1111
76.5336
82.5835
88.343
93.8579
99.1229
104.077
108.609
112.57
115.795
118.118
119.402
119.545
118.497
116.259
112.877
108.435
103.037
96.7947
89.8165
82.2034
74.0502
65.4528
56.5203
47.3859
38.2161
29.2133
20.6109
12.6601
5.60899
-0.321949
-4.96629
-8.23485
-10.1323
-10.7639
-10.3308
-9.11277
-7.44109
-5.66291
-4.10258
-3.02439
-2.60201
-2.89926
-3.86576
-5.34844
-7.11812
-8.90733
-10.4539
-11.5433
-12.0438
-11.928
-11.2773
-10.2701
-9.15348
-8.20458
-7.68618
-7.80436
-8.6738
-10.2961
-12.5546
-15.2254
-18.0046
-20.5461
-22.5058
-23.5855
-23.5711
-22.3604
-19.9771
-16.569
-12.3931
-7.78712
-3.13266
1.18558
4.82054
7.49826
9.0445
9.39989
8.62231
6.87701
4.416
1.54976
-1.38554
-4.06127
-6.18673
-7.53366
-7.95293
-7.38253
-5.84702
-3.44984
-0.360488
3.2009
6.9789
10.6959
14.0612
16.7764
18.5362
19.0274
17.9279
14.9068
9.62896
1.76408
-8.99779
-22.9259
-40.224
-61.0016
-85.2435
-112.778
-143.244
-176.061
-210.409
-245.212
-279.152
-310.701
-338.193
-359.921
-374.271
-379.867
-375.723
-361.385
-337.026
-303.502
-262.338
-215.64
-165.953
-116.051
-68.7101
-26.459
8.64163
35.1779
52.4955
60.7335
60.7741
54.1169
42.6907
28.6279
14.0285
0.742644
-9.80262
-16.7143
-19.671
-18.8883
-15.0215
-9.02333
-1.9786
5.0597
11.2121
15.8753
18.775
19.9688
19.8007
18.8222
17.6902
17.0617
17.498
19.3912
22.9227
28.0544
34.5532
42.0426
50.0702
58.1832
65.998
73.2544
79.8477
85.8347
91.4138
96.8845
102.593
108.878
116.013
124.177
133.429
143.71
154.857
166.624
178.705
190.752
202.378
213.158
222.626
230.269
235.54
237.881
236.772
231.778
222.617
209.218
191.764
170.715
146.803
120.998
94.436
68.3385
43.9059
22.2149
4.12373
-9.80298
-19.3409
-24.6198
-26.1036
-24.5385
-20.876
-16.1786
-11.5165
-7.86737
-6.02671
-6.53802
-9.64861
-15.2948
-23.1181
-32.5094
-42.6787
-52.7415
-61.8142
-69.1082
-74.0125
-76.157
-75.4479
-72.0734
-66.4785
-59.3119
-51.3517
-43.4165
-36.2748
-30.5597
-26.7008
-24.8794
-25.013
-26.7692
-29.6077
-32.8458
-35.7396
-37.5717
-37.7372
-35.8173
-31.6326
-25.2697
-17.0777
-7.63436
2.31459
11.9361
20.4016
26.979
31.1163
32.5042
31.114
27.2018
21.2809
14.0638
6.38003
-0.918454
-7.05324
-11.4043
-13.5732
-13.4176
-11.0548
-6.83423
-1.28671
4.94437
11.1784
16.7714
21.1793
24.0055
25.0294
24.2141
21.697
17.765
12.8184
7.32898
1.79484
-3.30395
-7.54585
-10.6022
-12.2634
-12.4544
-11.2398
-8.8155
-5.49007
-1.65458
2.25466
5.79804
8.57476
10.2609
10.6395
9.61919
7.23975
3.66484
-0.837228
-5.92116
-11.197
-16.2633
-20.7378
-24.2839
-26.6311
-27.5913
-27.0702
-25.0748
-21.7168
-17.2112
-11.8678
-6.07551
-0.277205
5.0639
9.50445
12.6644
14.2688
14.182
12.4286
9.19761
4.82728
-0.229086
-5.45175
-10.3123
-14.3332
-17.1405
-18.5039
-18.3585
-16.8055
-14.0933
-10.581
-6.69078
-2.85447
0.537648
3.17978
4.88039
5.57552
5.32482
4.29188
2.71214
0.853519
-1.02445
-2.70705
-4.05106
-4.99824
-5.57395
-5.87205
-6.02904
-6.19253
-6.48939
-6.99934
-7.73802
-8.65219
-9.62751
-10.507
-11.1171
-11.2965
-10.9238
-9.93858
-8.35456
-6.26114
-3.81484
-1.22076
1.29347
3.50815
5.24283
6.38423
6.90674
6.88163
6.47239
5.91515
5.48571
5.45699
6.05284
7.40559
9.52496
12.2845
15.4299
18.6093
21.4224
23.4821
24.4782
24.2341
22.7446
20.1911
16.9275
13.4408
10.2902
8.03492
7.16049
8.01479
10.7626
15.3644
21.5823
29.0092
37.1178
45.3203
53.0308
59.722
64.9707
68.4856
70.1176
69.8532
67.7922
64.1175
59.0605
52.8688
45.7806
38.0097
29.7412
21.1377
12.3528
3.54796
-5.09246
-13.3512
-20.977
-27.6939
-33.2193
-37.289
-39.685
-40.26
-38.9558
-35.8097
-30.9517
-24.5908
-16.9974
-8.48649
0.594367
9.86682
18.9153
27.2748
34.4204
39.7652
42.6757
42.508
38.6657
30.6747
18.266
1.45284
-19.4088
-43.5906
-69.9999
-97.2295
-123.647
-147.518
-167.151
-181.05
-188.065
-187.507
-179.239
-163.709
-141.927
-115.387
-85.9331
-55.595
-26.3961
-0.168589
21.6085
37.9272
48.3133
52.8264
52.0042
46.7595
38.2489
27.7315
16.4366
5.45546
-4.33444
-12.3083
-18.1006
-21.5848
-22.8373
-22.0933
-19.7014
-16.084
-11.7027
-7.02906
-2.52012
1.40522
4.38878
6.15578
6.53643
5.48454
3.09088
-0.411243
-4.65032
-9.1324
-13.2692
-16.4181
-17.9332
-17.2236
-13.8158
-7.41353
2.05137
14.3854
29.1228
45.5448
62.7287
79.6258
95.1616
108.347
118.384
124.761
127.312
126.239
122.093
115.708
108.102
100.357
93.4903
88.3312
85.4267
84.9811
86.8381
90.5076
95.2323
100.085
104.082
106.306
106.007
102.697
96.1963
86.6554
74.5333
60.5447
45.5794
30.6062
16.5698
4.29452
-5.59805
-12.7466
-17.0795
-18.8118
-18.4127
-16.5447
-13.9842
-11.5305
-9.9151
-9.72101
-11.3215
-14.8448
-20.1689
-26.9447
-34.6449
-42.6314
-50.2315
-56.8138
-61.8544
-64.9854
-66.0218
-64.9641
-61.9814
-57.3767
-51.5439
-44.9209
-37.947
-31.0276
-24.5086
-18.6618
-13.6787
-9.67233
-6.68349
-4.68955
-3.61474
-3.34042
-3.71547
-4.56691
-5.71107
-6.96576
-8.16297
-9.16159
-9.85858
-10.1972
-10.1701
-9.81722
-9.21581
-8.46612
-7.67218
-6.92163
-6.26744
-5.71495
-5.21695
-4.67839
-3.97096
-2.95586
-1.51135
0.439219
2.90407
5.80853
8.99298
12.2241
15.2191
17.6789
19.3269
19.9464
19.4124
17.7121
14.9515
11.3469
7.20177
2.87404
-1.26467
-4.86998
-7.66173
-9.45227
-10.1625
-9.82459
-8.57083
-6.61172
-4.20557
-1.62407
0.881708
3.1111
4.93608
6.31371
7.28782
7.98018
8.57228
9.27991
10.3232
11.8953
14.1328
17.0909
20.7267
24.8921
29.3381
33.7304
37.6762
40.7594
42.5808
42.801
41.1789
37.6046
32.1207
24.9299
16.3869
6.97497
-2.73227
-12.12
-20.5873
-27.6031
-32.7554
-35.79
-36.6317
-35.387
-32.3271
-27.8528
-22.4448
-16.6063
-10.8038
-5.41329
-0.680067
3.30426
6.60208
9.40692
11.9983
14.6778
17.6932
21.159
24.985
28.8273
32.0721
33.8671
33.2022
29.0402
20.482
6.94646
-11.6666
-34.8597
-61.4943
-89.8389
-117.71
-142.691
-162.409
-174.825
-178.498
-172.788
-157.967
-135.218
-106.517
-74.4251
-41.8006
-11.481
14.0305
32.831
43.8064
46.7196
42.1918
31.5836
16.7948
0.0136713
-16.5523
-30.9291
-41.5824
-47.5559
-48.5295
-44.797
-37.1721
-26.8406
-15.181
-3.5785
6.74408
14.8603
20.2247
22.7029
22.5489
20.3369
16.8612
13.0193
9.69451
7.65191
7.45939
9.43973
13.6563
19.9301
27.8824
36.9954
46.6823
56.357
65.498
73.698
80.6985
86.4059
90.8897
94.3647
97.1579
99.6658
102.303
105.451
109.404
114.331
120.243
126.982
134.223
141.508
148.282
153.951
157.944
159.771
159.074
155.658
149.506
140.775
129.774
116.933
102.763
87.8135
72.6354
57.7474
43.6081
30.5963
18.9979
8.99877
0.684278
-5.95615
-11.0195
-14.6754
-17.1487
-18.7002
-19.6054
-20.1341
-20.5308
-20.9989
-21.6885
-22.6885
-24.0255
-25.6663
-27.5274
-29.4865
-31.399
-33.1147
-34.495
-35.4288
-35.845
-35.7203
-35.082
-34.005
-32.6032
-31.0162
-29.3932
-27.8751
-26.5779
-25.5793
-24.9097
-24.5491
-24.4307
-24.4502
-24.479
-24.3813
-24.0304
-23.3238
-22.1952
-20.6205
-18.6191
-16.2492
-13.5993
-10.7759
-7.89064
-5.04732
-2.33189
0.194776
2.50006
4.57882
6.44944
8.14758
9.71866
11.2101
12.6641
14.1112
15.5646
17.0155
18.4297
19.7442
20.8668
21.6782
22.037
21.7909
20.7915
18.9146
16.082
12.2833
7.59361
2.18312
-3.68438
-9.66543
-15.3633
-20.3647
-24.2816
-26.7946
-27.6898
-26.8855
-24.4446
-20.5703
-15.5862
-9.90295
-3.97582
1.74142
6.84095
10.9985
14
15.7555
16.2984
15.7722
14.4072
12.4896
10.3281
8.22059
6.42649
5.14427
4.49828
4.53376
5.22002
6.46018
8.10571
9.97363
11.8645
13.5793
14.9348
15.7747
15.9789
15.4678
14.2043
12.1923
9.47358
6.12253
2.23958
-2.05555
-6.63088
-11.3483
-16.0687
-20.6547
-24.9733
-28.896
-32.2996
-35.0681
-37.0953
-38.2899
-38.5818
-37.9291
-36.3244
-33.7983
-30.4197
-26.2899
-21.5339
-16.2866
-10.6808
-4.83714
1.13729
7.14015
13.0527
18.7084
23.8549
28.1196
30.9868
31.7997
29.796
24.1803
14.2349
-0.544097
-20.3014
-44.6917
-72.7918
-103.08
-133.502
-161.631
-184.905
-200.931
-207.794
-204.349
-190.418
-166.892
-135.675
-99.5046
-61.6463
-25.5186
5.71176
29.5001
44.2112
49.285
45.2614
33.6647
16.7678
-2.72601
-22.0389
-38.6623
-50.6447
-56.7904
-56.7465
-50.9784
-40.6406
-27.37
-13.0321
0.542746
11.7991
19.6426
23.5527
23.6124
20.4573
15.1566
9.04523
3.53296
-0.0840849
-0.785687
2.05517
8.61156
18.6022
31.3468
45.8675
61.0196
75.6338
88.6532
99.2468
106.889
111.398
112.931
111.942
109.109
105.239
101.174
97.6938
95.44
94.8621
96.1883
99.4242
104.374
110.678
117.867
125.407
132.757
139.4
144.88
148.808
150.874
150.839
148.536
143.863
136.792
127.38
115.777
102.247
87.1737
71.0533
54.4803
38.1103
22.612
8.60947
-3.37686
-12.9825
-20.0368
-24.5805
-26.8598
-27.2972
-26.4421
-24.9089
-23.309
-22.1857
-21.9611
-22.8994
-25.0913
-28.4591
-32.7821
-37.7355
-42.9391
-48.0076
-52.5972
-56.4413
-59.3739
-61.3373
-62.3745
-62.6093
-62.2175
-61.3924
-60.3126
-59.1129
-57.8655
-56.5715
-55.1659
-53.5324
-51.5277
-49.0105
-45.8705
-42.0532
-37.5765
-32.5372
-27.105
-21.5072
-16.0046
-10.8627
-6.32231
-2.57427
0.260508
2.14121
3.10805
3.27385
2.80809
1.91574
0.813912
-0.291056
-1.22339
-1.85282
-2.10339
-1.9558
-1.44349
-0.643406
0.337352
1.37724
2.35661
3.17295
3.75326
4.06251
4.10711
3.93321
3.62016
3.26989
2.99363
2.89757
3.06913
3.56562
4.40648
5.57005
6.99519
8.58752
10.2294
11.7926
13.1519
14.1987
14.8522
15.0683
14.8452
14.2248
13.2909
12.1639
10.9931
9.94551
9.19437
8.90532
9.22291
10.2574
12.0731
14.6786
18.0212
21.9843
26.3905
31.0083
35.5646
39.7612
43.2944
45.8784
47.2691
47.2871
45.8378
42.9258
38.66
33.25
26.9898
20.233
13.3574
6.72701
0.651541
-4.6478
-9.06376
-12.6146
-15.4394
-17.7778
-19.934
-22.2315
-24.963
-28.3413
-32.4603
-37.2686
-42.5627
-47.9993
-53.1268
-57.434
-60.4092
-61.6054
-60.7051
-57.5797
-52.3364
-45.3508
-37.2774
-29.0357
-21.7652
-16.7489
-15.3033
-18.6424
-27.7244
-43.0985
-64.7718
-92.1178
-123.848
-158.062
-192.375
-224.125
-250.634
-269.491
-278.837
-277.584
-265.571
-243.606
-213.402
-177.404
-138.533
-99.8753
-64.3572
-34.4491
-11.9263
2.28026
8.13183
6.42782
-1.33887
-13.1944
-26.9356
-40.3887
-51.6457
-59.2519
-62.3271
-60.6121
-54.4401
-44.6431
-32.4086
-19.108
-6.11879
5.33868
14.3308
20.2956
23.0762
22.9044
20.3398
16.1778
11.3389
6.75492
3.26625
1.54033
2.01926
4.89908
10.1394
17.4985
26.586
36.9248
48.0128
59.3774
70.6161
81.422
91.5916
101.018
109.674
117.585
124.806
131.396
137.397
142.832
147.695
151.959
155.588
158.55
160.824
162.415
163.355
163.698
163.517
162.882
161.849
160.438
158.616
156.288
153.296
149.423
144.412
137.991
129.904
119.951
108.021
94.1211
78.401
61.1573
42.8285
23.9713
5.22392
-12.7415
-29.2726
-43.7906
-55.8379
-65.1157
-71.5052
-75.0731
-76.059
-74.847
-71.9266
-67.8452
-63.1589
-58.3874
-53.9743
-50.26
-47.465
-45.6871
-44.909
-45.0158
-45.8184
-47.0816
-48.5516
-49.982
-51.1564
-51.9041
-52.111
-51.7223
-50.7408
-49.2184
-47.2441
-44.9294
-42.3924
-39.7432
-37.0719
-34.4403
-31.8787
-29.3871
-26.9413
-24.5022
-22.0275
-19.4823
-16.8499
-14.138
-11.3816
-8.64137
-5.99711
-3.53797
-1.35008
0.496457
1.95945
3.03353
3.75481
4.2003
4.48218
4.73738
5.11382
5.75493
6.78402
8.29015
10.3168
12.8542
15.8362
19.1417
22.6013
26.0081
29.1323
31.7396
33.6099
34.5578
34.4502
33.2218
30.8851
27.5353
23.3472
18.5657
13.4891
8.44678
3.7732
-0.219309
-3.26658
-5.17452
-5.83503
-5.2341
-3.45152
-0.652273
2.92958
7.01266
11.2936
15.4737
19.2836
22.5048
24.9851
26.6468
27.4877
27.574
27.0264
26.0018
24.6715
23.2
21.7256
20.3458
19.1092
18.0129
17.0072
16.0045
14.8921
13.5468
11.8489
9.69604
7.01343
3.76299
-0.0509885
-4.37855
-9.12364
-14.1467
-19.2706
-24.2907
-28.9886
-33.1496
-36.5834
-39.1448
-40.7536
-41.409
-41.1974
-40.289
-38.9237
-37.3863
-35.9705
-34.9391
-34.4815
-34.6765
-35.4677
-36.6542
-37.9054
-38.7976
-38.8767
-37.7391
-35.1258
-31.015
-25.6993
-19.8265
-14.3874
-10.6397
-9.96364
-13.6653
-22.7493
-37.6996
-58.3078
-83.5857
-111.786
-140.543
-167.112
-188.692
-202.775
-207.479
-201.815
-185.846
-160.717
-128.544
-92.1826
-54.8972
-19.9864
9.59746
31.5774
44.5913
48.3125
43.4402
31.5659
14.9373
-3.84455
-22.1541
-37.6527
-48.5452
-53.7523
-52.9835
-46.708
-36.0349
-22.5245
-7.95972
5.89137
17.4906
25.699
29.8817
29.9434
26.2948
19.7606
11.4481
2.59362
-5.5906
-12.0511
-15.9955
-16.9541
-14.7968
-9.71046
-2.14212
7.27982
17.835
28.7989
39.5193
49.4731
58.3006
65.815
71.9906
76.9345
80.8456
83.971
86.5631
88.8431
90.9752
93.0518
95.0919
97.0477
98.8217
100.286
101.306
101.759
101.552
100.629
98.977
96.6203
93.6099
90.0103
85.8843
81.2805
76.2251
70.7199
64.7476
58.2821
51.3029
43.8104
35.8396
27.4693
18.8252
10.0765
1.426
-6.90579
-14.6988
-21.753
-27.9066
-33.0496
-37.1323
-40.1672
-42.2238
-43.4179
-43.8961
-43.8175
-43.3365
-42.5872
-41.6736
-40.6659
-39.6037
-38.5056
-37.3825
-36.2513
-35.1473
-34.1292
-33.2786
-32.6901
-32.4549
-32.6409
-33.2722
-34.3128
-35.6573
-37.1327
-38.5098
-39.5256
-39.9126
-39.4307
-37.8992
-35.2222
-31.4047
-26.5572
-20.8877
-14.6818
-8.2742
-2.01436
3.76826
8.79612
12.8683
15.8753
17.8027
18.7243
18.7849
18.1772
17.1145
15.8038
14.4227
13.1029
11.9228
10.9089
10.0468
9.29807
8.61977
7.98351
7.38932
6.87206
6.49873
6.35708
6.53729
7.11026
8.1062
9.49778
11.1912
13.0272
14.7928
16.2423
17.1256
17.219
16.3555
14.4494
11.5121
7.65728
3.09493
-1.88545
-6.93885
-11.6936
-15.7816
-18.8666
-20.6695
-20.9884
-19.7142
-16.8418
-12.4761
-6.83435
-0.244042
6.86647
13.9844
20.539
25.9378
29.6132
31.0752
29.9656
26.1085
19.5486
10.5708
-0.303024
-12.3432
-24.6668
-36.3123
-46.3276
-53.8627
-58.255
-59.0983
-56.2874
-50.0314
-40.8358
-29.4541
-16.8148
-3.93185
8.19166
18.6564
26.7474
31.9944
34.2077
33.486
30.1977
24.9373
18.4621
11.6154
5.24224
0.105905
-3.1884
-4.25459
-2.96582
0.531308
5.83115
12.3114
19.2003
25.6612
30.8864
34.1889
35.0813
33.3339
29.0023
22.4242
14.1824
5.0404
-4.14269
-12.5086
-19.2954
-23.9219
-26.0516
-25.628
-22.8805
-18.2968
-12.5681
-6.51029
-0.968675
3.28311
5.64212
5.76135
3.61105
-0.49384
-5.90858
-11.7209
-16.8608
-20.2515
-20.9853
-18.5032
-12.7479
-4.26114
5.80102
15.7508
23.5508
27.0783
24.4408
14.2945
-3.88159
-29.6067
-61.348
-96.6183
-132.215
-164.574
-190.198
-206.089
-210.141
-201.425
-180.333
-148.555
-108.901
-64.9806
-20.7912
19.7326
53.1522
76.8861
89.457
90.5987
81.2186
63.226
39.2566
12.3318
-14.5007
-38.5019
-57.5121
-70.1326
-75.8014
-74.7664
-67.9667
-56.8464
-43.1295
-28.5881
-14.8306
-3.13569
5.65456
11.1755
13.5178
13.1533
10.825
7.41884
3.83719
0.88825
-0.796659
-0.8122
1.00644
4.59994
9.72536
16.0122
23.0253
30.3256
37.5244
44.3239
50.5439
56.132
61.1592
65.8003
70.3039
74.9531
80.0233
85.739
92.2374
99.5399
107.537
115.988
124.534
132.725
140.056
146.01
150.105
151.934
151.202
147.754
141.59
132.871
121.902
109.118
95.051
80.2888
65.4368
51.0754
37.7205
25.7907
15.5818
7.25038
0.808682
-3.87017
-7.03601
-9.03591
-10.2808
-11.2068
-12.2353
-13.7329
-15.9779
-19.133
-23.2285
-28.1582
-33.6866
-39.4693
-45.0852
-50.076
-53.9927
-56.4421
-57.1303
-55.8978
-52.7421
-47.825
-41.4623
-34.0983
-26.2652
-18.5333
-11.4572
-5.52252
-1.10043
1.58579
2.47904
1.68943
-0.521349
-3.77027
-7.5942
-11.4974
-15.0003
-17.6841
-19.2276
-19.4322
-18.2327
-15.6951
-11.9996
-7.41449
-2.26206
3.11825
8.40485
13.3236
17.6687
21.3129
24.2072
26.3705
27.8722
28.8101
29.2893
29.4026
29.2171
28.7685
28.0625
27.0826
25.803
24.203
22.2806
20.0629
17.6108
15.018
12.4038
9.90094
7.64155
5.74145
4.28675
3.32403
2.85532
2.83854
3.19319
3.81013
4.56409
5.32715
5.9815
6.42993
6.60318
6.46351
6.00462
5.2483
4.23878
3.03567
1.70648
0.319743
-1.06069
-2.37975
-3.59357
-4.6702
-5.58926
-6.34068
-6.92327
-7.34328
-7.61328
-7.75148
-7.78113
-7.73009
-7.62995
-7.51477
-7.41925
-7.37654
-7.41589
-7.56075
-7.82752
-8.22545
-8.75748
-9.42196
-10.2147
-11.1309
-12.1661
-13.3159
-14.5746
-15.9315
-17.3677
-18.8514
-20.3349
-21.7528
-23.023
-24.0506
-24.7348
-24.9779
-24.6958
-23.8284
-22.3475
-20.2623
-17.6209
-14.5069
-11.0324
-7.32762
-3.52929
0.231339
3.83869
7.20049
10.252
12.957
15.3059
17.3117
19.0053
20.4303
21.6382
22.6841
23.6225
24.5033
25.3667
26.2387
27.1257
28.01
28.8479
29.5695
30.0823
30.2794
30.0488
29.2869
27.9109
25.8711
23.1604
19.8189
15.9353
11.6423
7.10781
2.52248
-1.91508
-6.01395
-9.60568
-12.5568
-14.7776
-16.2266
-16.9096
-16.8746
-16.2019
-14.9921
-13.3521
-11.3822
-9.16533
-6.75924
-4.19348
-1.47047
1.42919
4.53747
7.88524
11.4835
15.2985
19.2213
23.0337
26.3774
28.7359
29.4409
27.7151
22.7571
13.8662
0.593334
-17.107
-38.7561
-63.2927
-89.102
-114.142
-136.158
-152.957
-162.705
-164.197
-157.056
-141.826
-119.943
-93.5784
-65.381
-38.1503
-14.4848
3.5431
14.6422
18.4503
15.5556
7.3877
-4.00437
-16.2549
-27.0208
-34.309
-36.7448
-33.7449
-25.5736
-13.2786
1.48155
16.688
30.2529
40.309
45.4593
44.9539
38.7753
27.6273
12.8318
-3.84621
-20.4206
-34.9235
-45.6313
-51.2525
-51.0551
-44.9242
-33.3453
-17.3203
1.76909
22.3335
42.7592
61.5818
77.6308
90.1309
98.7503
103.596
105.16
104.228
101.757
98.7557
96.1576
94.7233
94.9687
97.1304
101.167
106.794
113.547
120.853
128.119
134.806
140.489
144.895
147.918
149.601
150.108
149.664
148.504
146.808
144.665
142.041
138.774
134.602
129.201
122.247
113.478
102.759
90.131
75.8309
60.2954
44.1297
28.0535
12.8292
-0.818673
-12.2822
-21.1355
-27.18
-30.4629
-31.2672
-30.0752
-27.5109
-24.2685
-21.0369
-18.4283
-16.921
-16.8197
-18.2377
-21.1018
-25.1758
-30.0989
-35.4332
-40.7138
-45.496
-49.3944
-52.1112
-53.4521
-53.3297
-51.7569
-48.8324
-44.7218
-39.6374
-33.8207
-27.5264
-21.0124
-14.5314
-8.32636
-2.62503
2.36539
6.46602
9.53587
11.4826
12.2732
11.942
10.5952
8.40914
5.62244
2.52073
-0.583822
-3.3773
-5.57019
-6.92226
-7.26316
-6.50671
-4.65722
-1.80737
1.87181
6.14744
10.7459
15.3762
19.753
23.6171
26.7529
28.9994
30.2571
30.4891
29.7188
28.0234
25.5271
22.3915
18.8074
14.9855
11.1466
7.51167
4.29052
1.66908
-0.203678
-1.2286
-1.36734
-0.649563
0.825118
2.89179
5.33177
7.89053
10.3002
12.3048
13.684
14.2748
13.9856
12.8027
10.7882
8.06914
4.82064
1.24472
-2.45096
-6.07209
-9.45206
-12.4603
-15.005
-17.0302
-18.5106
-19.4443
-19.8467
-19.7458
-19.181
-18.2039
-16.8808
-15.296
-13.5536
-11.7771
-10.105
-8.68253
-7.64846
-7.11976
-7.17406
-7.8332
-9.05016
-10.7026
-12.595
-14.4718
-16.0413
-17.0086
-17.1143
-16.1741
-14.1124
-10.9845
-6.98305
-2.42621
2.27255
6.64897
10.2419
12.649
13.5775
12.8821
10.586
6.88194
2.11327
-3.26255
-8.72283
-13.735
-17.8117
-20.5583
-21.7098
-21.1503
-18.9175
-15.1893
-10.2582
-4.49536
1.69103
7.89653
13.7581
18.9836
23.3719
26.8206
29.3237
30.9576
31.8607
32.2066
32.1769
31.9351
31.606
31.2623
30.9195
30.5398
30.0426
29.3222
28.2667
26.7783
24.7909
22.2825
19.2822
15.8696
12.1669
8.32698
4.51528
0.891874
-2.40647
-5.28074
-7.67873
-9.59756
-11.079
-12.1981
-13.0464
-13.711
-14.2529
-14.6866
-14.9638
-14.9659
-14.507
-13.3505
-11.2395
-7.94073
-3.29731
2.71512
9.93707
17.9881
26.2528
33.8972
39.9195
43.2341
42.7833
37.666
27.2693
11.3864
-9.69575
-35.1538
-63.642
-93.3675
-122.224
-147.978
-168.479
-181.893
-186.903
-182.875
-169.962
-149.118
-122.031
-90.9721
-58.5706
-27.5506
-0.446037
20.6635
34.3681
40.0653
38.0049
29.2334
15.4466
-1.2305
-18.508
-34.2057
-46.5024
-54.1301
-56.4884
-53.6708
-46.4007
-35.8928
-23.6606
-11.2993
-0.274392
8.25767
13.5754
15.4518
14.146
10.332
4.98056
-0.788211
-5.85932
-9.26406
-10.291
-8.55494
-4.01931
3.02768
12.035
22.2782
32.9623
43.3251
52.7265
60.7163
67.0723
71.8072
75.1459
77.4774
79.2898
81.0972
83.3675
86.461
90.586
95.7761
101.891
108.637
115.607
122.332
128.333
133.17
136.49
138.05
137.733
135.546
131.607
126.119
119.339
111.547
103.017
93.993
84.6762
75.219
65.7309
56.2892
46.9543
37.7856
28.8534
20.2471
12.0758
4.46366
-2.46055
-8.577
-13.7889
-18.0354
-21.3002
-23.6159
-25.0622
-25.7593
-25.8566
-25.519
-24.9131
-24.1928
-23.4893
-22.9033
-22.5016
-22.3175
-22.354
-22.5895
-22.9846
-23.4888
-24.047
-24.6047
-25.1119
-25.5259
-25.8128
-25.9478
-25.9148
-25.7053
-25.3168
-24.7504
-24.0094
-23.0974
-22.0166
-20.7677
-19.35
-17.7615
-16.0006
-14.0668
-11.9611
-9.68676
-7.24847
-4.65289
-1.90968
0.965719
3.94757
6.9941
10.0417
13.0004
15.7527
18.1565
20.0536
21.2825
21.6953
21.177
19.6632
17.1556
13.7315
9.54528
4.82257
-0.154899
-5.07105
-9.60219
-13.4458
-16.348
-18.1267
-18.6877
-18.0314
-16.2508
-13.5199
-10.0738
-6.18555
-2.13884
1.79681
5.3879
8.45265
10.8698
12.58
13.5808
13.9167
13.6657
12.9258
11.8024
10.3974
8.80333
7.09899
5.34942
3.60691
1.91318
0.301386
-1.20264
-2.57997
-3.81893
-4.91574
-5.87482
-6.70819
-7.43383
-8.07279
-8.64556
-9.16818
-9.64879
-10.0853
-10.4647
-10.7641
-10.9534
-10.9993
-10.8698
-10.5388
-9.9892
-9.21569
-8.22509
-7.03548
-5.67385
-4.17276
-2.56652
-0.887349
0.838113
2.59151
4.36449
6.15926
7.98784
9.87008
11.8305
13.8939
16.0808
18.4021
20.8538
23.413
26.0349
28.6515
31.173
33.4916
35.4881
37.0402
38.0328
38.3686
37.9781
36.8276
34.924
32.3158
29.0898
25.3641
21.2772
16.9762
12.6037
8.28713
4.13069
0.210823
-3.42361
-6.74732
-9.75159
-12.4356
-14.7976
-16.8279
-18.5046
-19.7925
-20.6462
-21.016
-20.8553
-20.1286
-18.8182
-16.9298
-14.4946
-11.5717
-8.24898
-4.64621
-0.919577
2.73105
6.05412
8.74018
10.4214
10.6811
9.07645
5.17573
-1.3908
-10.8715
-23.3315
-38.5983
-56.2231
-75.4667
-95.3187
-114.55
-131.804
-145.706
-155.007
-158.713
-156.207
-147.341
-132.476
-112.474
-88.6272
-62.5446
-36.0003
-10.7659
11.552
29.6504
42.6303
50.0495
51.9283
48.7104
41.1916
30.4244
17.6114
3.9985
-9.22554
-21.0155
-30.538
-37.2178
-40.7622
-41.1606
-38.6622
-33.7331
-26.9971
-19.1666
-10.9688
-3.07547
3.95745
9.73438
14.0452
16.869
18.358
18.8031
18.5889
18.1412
17.8757
18.1538
19.2483
21.3244
24.4356
28.5329
33.486
39.111
45.2013
51.5565
58.0069
64.4299
70.7581
76.9789
83.125
89.2596
95.4553
101.772
108.233
114.804
121.38
127.771
133.702
138.824
142.73
144.985
145.162
142.891
137.899
130.061
119.428
106.252
90.985
74.2592
56.8455
39.5944
23.3642
8.94499
-3.01355
-12.0614
-17.9887
-20.8417
-20.9135
-18.7098
-14.894
-10.2179
-5.44521
-1.27712
1.71313
3.12925
2.78004
0.684579
-2.94514
-7.74103
-13.23
-18.8926
-24.2229
-28.781
-32.2351
-34.3864
-35.1776
-34.6845
-33.0926
-30.6656
-27.7081
-24.5299
-21.4147
-18.5977
-16.2518
-14.4839
-13.3381
-12.8045
-12.8303
-13.3314
-14.2027
-15.3261
-16.5765
-17.8268
-18.9522
-19.835
-20.3701
-20.4712
-20.0782
-19.1627
-17.7326
-15.8338
-13.5484
-10.9883
-8.28705
-5.58779
-3.03078
-0.741186
1.18144
2.67069
3.6973
4.26937
4.4291
4.24665
3.81202
3.22585
2.59018
1.99986
1.53536
1.25741
1.20377
1.38825
1.80182
2.41577
3.18637
4.06052
4.98177
5.89587
6.7552
7.52146
8.16649
8.67119
9.02296
9.21235
9.22973
9.06278
8.69564
8.11013
7.28948
6.22401
4.91845
3.39961
1.72311
-0.0224649
-1.71567
-3.20808
-4.33684
-4.94364
-4.89881
-4.12716
-2.63153
-0.509032
2.04446
4.74475
7.24536
9.17741
10.1985
10.0441
8.57396
5.80534
1.92857
-2.69981
-7.58586
-12.1467
-15.7732
-17.8999
-18.0735
-16.0124
-11.6496
-5.15252
3.0824
12.4619
22.2525
31.6562
39.8967
46.3081
50.4128
51.9809
51.0595
47.9697
43.2673
37.673
31.9783
26.9423
23.1904
21.1311
20.9015
22.3494
25.0552
28.3877
31.5899
33.8781
34.5453
33.0526
29.0998
22.6657
14.0145
3.66985
-7.64125
-19.0663
-29.7178
-38.7653
-45.5202
-49.5024
-50.483
-48.4996
-43.8423
-37.0142
-28.6719
-19.5539
-10.4064
-1.9169
5.33653
10.9143
14.5203
15.9855
15.2353
12.2501
7.02948
-0.43233
-10.1506
-22.1323
-36.3378
-52.6285
-70.7106
-90.0887
-110.04
-129.618
-147.696
-163.04
-174.411
-180.687
-180.989
-174.792
-162.018
-143.094
-118.953
-90.9934
-60.9832
-30.9124
-2.81664
21.4176
40.2396
52.5917
58.0149
56.6908
49.4106
37.4776
22.553
6.46647
-8.98567
-22.2296
-32.0676
-37.7798
-39.1646
-36.5158
-30.5445
-22.2584
-12.8162
-3.37705
5.03716
11.6501
16.0005
17.9683
17.7574
15.8434
12.8941
9.67692
6.96367
5.44415
5.65739
7.94547
12.4325
19.0283
27.4533
37.2804
47.987
59.0118
69.809
79.8963
88.8906
96.5315
102.689
107.359
110.644
112.73
113.854
114.269
114.216
113.899
113.461
112.977
112.451
111.817
110.95
109.685
107.83
105.191
101.593
96.8983
91.0297
83.981
75.828
66.7306
56.9269
46.7194
36.4538
26.492
17.1816
8.82609
1.65773
-4.18209
-8.65353
-11.8182
-13.8282
-14.9063
-15.319
-15.3461
-15.251
-15.2544
-15.5154
-16.1201
-17.0809
-18.3438
-19.8027
-21.3191
-22.7434
-23.9354
-24.7818
-25.208
-25.1844
-24.726
-23.8866
-22.7488
-21.4112
-19.9758
-18.5352
-17.1633
-15.9087
-14.7925
-13.8088
-12.9291
-12.1084
-11.293
-10.4281
-9.46476
-8.36575
-7.10879
-5.68793
-4.11285
-2.40639
-0.601043
1.26513
3.15245
5.02312
6.84389
8.58796
10.2362
11.7776
13.2096
14.5364
15.7672
16.911
17.9702
18.9326
19.7619
20.3912
20.7192
20.6134
19.9206
18.4856
16.1771
12.9171
8.7098
3.6662
-1.98265
-7.88576
-13.5891
-18.5694
-22.282
-24.2203
-23.9786
-21.3135
-16.1954
-8.84384
0.260467
10.3908
20.6197
29.8935
37.1309
41.3376
41.7246
37.814
29.5216
17.2004
1.63876
-15.9886
-34.2163
-51.4195
-65.97
-76.4005
-81.5602
-80.7463
-73.7956
-61.1254
-43.7168
-23.0394
-0.92123
20.6228
39.5894
54.189
63.0323
65.2766
60.7174
49.8128
33.6368
13.7672
-7.88021
-29.2518
-48.3683
-63.525
-73.4575
-77.4561
-75.4173
-67.8285
-55.6915
-40.3942
-23.5485
-6.81365
8.27562
20.4562
28.8464
33.0078
32.9578
29.1343
22.3199
13.5382
3.93408
-5.34838
-13.2772
-19.0235
-22.025
-22.0177
-19.0375
-13.3926
-5.61366
3.61211
13.5148
23.3166
32.3009
39.8694
45.5835
49.1886
50.6191
49.9859
47.5489
43.6783
38.8089
33.3925
27.8537
22.5522
17.7572
13.6331
10.2386
7.53828
5.42176
3.72992
2.28183
0.899799
-0.570657
-2.24745
-4.20513
-6.47327
-9.03795
-11.844
-14.7965
-17.762
-20.5688
-23.0106
-24.854
-25.8535
-25.774
-24.4216
-21.68
-17.5489
-12.1782
-5.89261
0.801004
7.22825
12.5868
16.0112
16.6581
13.8056
6.95498
-4.0767
-19.0869
-37.4526
-58.139
-79.7587
-100.678
-119.162
-133.551
-142.433
-144.804
-140.184
-128.674
-110.946
-88.1587
-61.8256
-33.6511
-5.35987
21.4502
45.4169
65.4761
80.8795
91.1795
96.1962
95.978
90.7693
80.9884
67.2154
50.1858
30.7825
10.0197
-10.9888
-31.0778
-49.0958
-63.9831
-74.8539
-81.0747
-82.3259
-78.6403
-70.4083
-58.3494
-43.4497
-26.871
-9.84283
6.45323
20.9912
32.9903
41.9755
47.8038
50.6545
50.9863
49.4678
46.8906
44.0766
41.7896
40.6609
41.1351
43.4411
47.5881
53.3846
60.4759
68.395
76.6185
84.6247
91.9443
98.2034
103.152
106.679
108.81
109.693
109.569
108.735
107.498
106.133
104.849
103.754
102.844
101.999
101.002
99.5635
97.3592
94.0736
89.4433
83.2959
75.5792
66.3774
55.9128
44.5311
32.6729
20.8352
9.52565
-0.783449
-9.69672
-16.9286
-22.3234
-25.8613
-27.6498
-27.9024
-26.908
-24.995
-22.4954
-19.7131
-16.9019
-14.253
-11.8956
-9.90569
-8.32226
-7.16554
-6.4532
-6.21096
-6.47533
-7.28758
-8.68041
-10.66
-13.1873
-16.1638
-19.4243
-22.7408
-25.8375
-28.416
-30.1869
-30.9043
-30.3982
-28.5982
-25.5479
-21.4047
-16.427
-10.9493
-5.34852
-0.00611788
4.73011
8.57915
11.3519
12.9653
13.4444
12.9135
11.5759
9.68787
7.52769
5.36514
3.43388
1.9101
0.899271
0.432
0.469001
0.914013
1.63272
2.47493
3.29685
3.98027
4.44576
4.65823
4.6241
4.38103
3.98236
3.47955
2.90584
2.26472
1.52551
0.627047
-0.510577
-1.96847
-3.80834
-6.05274
-8.66963
-11.5645
-14.5817
-17.5152
-20.1287
-22.18
-23.4498
-23.7678
-23.035
-21.2379
-18.4552
-14.8549
-10.6828
-6.24556
-1.88649
2.04104
5.20298
7.31399
8.16491
7.64597
5.76305
2.64485
-1.46102
-6.20371
-11.1562
-15.8515
-19.8257
-22.6621
-24.0333
-23.7352
-21.7107
-18.0577
-13.0233
-6.98151
-0.400073
6.20313
12.3072
17.4351
21.1951
23.3133
23.6544
22.2299
19.1925
14.8197
9.48729
3.63522
-2.26944
-7.7711
-12.4613
-16.0092
-18.1837
-18.8672
-18.0575
-15.8608
-12.4749
-8.16533
-3.2368
1.99685
7.24145
12.2469
16.8251
20.8591
24.3048
27.1827
29.5643
31.5527
33.2614
34.7931
36.2216
37.5777
38.8406
39.935
40.7345
41.0696
40.742
39.5428
37.2762
33.7858
28.9822
22.869
15.5627
7.30236
-1.55364
-10.5462
-19.1486
-26.8122
-33.0187
-37.333
-39.4509
-39.2331
-36.7228
-32.1429
-25.8743
-18.4166
-10.3362
-2.20832
5.44225
12.1928
17.7604
22.0185
24.9859
26.7872
27.5871
27.5112
26.5687
24.5999
21.2653
16.0881
8.54855
-1.78426
-15.11
-31.2738
-49.6923
-69.3506
-88.8763
-106.686
-121.179
-130.955
-135.009
-132.886
-124.754
-111.402
-94.1386
-74.6334
-54.7026
-36.0824
-20.2198
-8.10877
-0.194587
3.64323
4.03141
1.97778
-1.2985
-4.5561
-6.71313
-6.99693
-5.04325
-0.933619
4.83132
11.4166
17.7821
22.8376
25.6031
25.352
21.7211
14.7728
5.00281
-6.70644
-19.1814
-31.0891
-41.0887
-47.9852
-50.8654
-49.2009
-42.9059
-32.3431
-18.2788
-1.79245
15.8463
33.3183
49.3966
63.0723
73.6509
80.81
84.613
85.4799
84.1206
81.4394
78.423
76.025
75.0594
76.1138
79.4909
85.1825
92.8789
102.011
111.816
121.431
129.983
136.689
140.934
142.332
140.755
136.332
129.422
120.558
110.376
99.541
88.6721
78.2845
68.7481
60.2687
52.8921
46.5267
40.9807
36.0064
31.3449
26.7655
22.0953
17.2366
12.1719
6.95821
1.7128
-3.40595
-8.2198
-12.5512
-16.241
-19.1627
-21.2317
-22.4107
-22.7106
-22.1887
-20.9437
-19.1088
-16.8432
-14.3219
-11.7254
-9.22831
-6.98925
-5.14065
-3.78086
-2.96864
-2.72061
-3.01228
-3.78281
-4.9431
-6.38666
-8.00191
-9.68424
-11.346
-12.9226
-14.3732
-15.6763
-16.8196
-17.7869
-18.5445
-19.0303
-19.1477
-18.7688
-17.7457
-15.9315
-13.2072
-9.51232
-4.87245
0.58016
6.59848
12.8282
18.832
24.1285
28.2421
30.7572
31.3696
29.927
26.4548
21.1611
14.4216
6.74639
-1.26858
-8.99821
-15.8471
-21.304
-24.9865
-26.6716
-26.3108
-24.0281
-20.103
-14.9418
-9.03793
-2.92821
2.85305
7.81743
11.5603
13.7901
14.348
13.216
10.5137
6.48461
1.47271
-4.10798
-9.80898
-15.1848
-19.8292
-23.4075
-25.682
-26.5287
-25.9433
-24.0377
-21.0257
-17.2007
-12.9076
-8.51174
-4.36746
-0.790354
1.96588
3.72567
4.40066
3.99145
2.58283
0.333114
-2.54125
-5.78463
-9.1233
-12.2872
-15.0305
-17.1502
-18.5
-18.9998
-18.6388
-17.4737
-15.6202
-13.2411
-10.5293
-7.69076
-4.92552
-2.41149
-0.290472
1.34139
2.43829
3.00447
3.08908
2.77728
2.1785
1.41371
0.602947
-0.145173
-0.740901
-1.11712
-1.22939
-1.05287
-0.577272
0.198763
1.27258
2.64066
4.29941
6.24382
8.46434
10.9427
13.6478
16.5319
19.5279
22.5481
25.4851
28.214
30.5979
32.4956
33.7702
34.3013
33.9953
32.7964
30.6948
27.7315
23.999
19.6378
14.8281
9.7784
4.71123
-0.151875
-4.60515
-8.47145
-11.6121
-13.9328
-15.3846
-15.9607
-15.6881
-14.6153
-12.7977
-10.2817
-7.09125
-3.21882
1.37539
6.75362
12.9785
20.0793
28.009
36.5974
45.5091
54.2133
61.9789
67.8998
70.958
70.1223
64.4762
53.3597
36.5065
14.1534
-12.8988
-43.2897
-75.1755
-106.376
-134.575
-157.558
-173.451
-180.929
-179.375
-168.963
-150.643
-126.051
-97.3367
-66.9378
-37.3259
-10.7594
10.9331
26.5123
35.4143
37.7591
34.2829
26.2089
15.0743
2.53891
-9.80269
-20.5829
-28.7808
-33.7903
-35.4335
-33.9242
-29.7907
-23.7719
-16.7016
-9.39653
-2.56
3.28809
7.8507
11.0609
13.0603
14.154
14.751
15.2984
16.2191
17.8588
20.4504
24.0962
28.77
34.3368
40.5846
47.2636
54.1256
60.9578
67.6061
73.9852
80.0742
85.9013
91.5201
96.983
102.317
107.51
112.502
117.198
121.482
125.241
128.396
130.914
132.821
134.191
135.129
135.736
136.066
136.094
135.684
134.591
132.472
128.926
123.561
116.058
106.24
94.1331
79.9935
64.3127
47.7859
31.2499
15.5992
1.68963
-9.75766
-18.2372
-23.5155
-25.6548
-25.0009
-22.1376
-17.8141
-12.8556
-8.06877
-4.15426
-1.63681
-0.820281
-1.77181
-4.33478
-8.16693
-12.7971
-17.6921
-22.3249
-26.2359
-29.0807
-30.6595
-30.9269
-29.9827
-28.047
-25.423
-22.4547
-19.4839
-16.8115
-14.6672
-13.1903
-12.4217
-12.3076
-12.7125
-13.4403
-14.2588
-14.9269
-15.2199
-14.9516
-13.9921
-12.2785
-9.8204
-6.69845
-3.05739
0.905824
4.95788
8.84743
12.3246
15.1604
17.164
18.1971
18.1848
17.1205
15.0677
12.1562
8.57596
4.56731
0.40911
-3.5959
-7.13869
-9.92457
-11.6965
-12.2596
-11.5046
-9.42709
-6.13857
-1.86754
3.05264
8.20833
13.1415
17.393
20.5491
22.2849
22.3996
20.8397
17.7062
13.2455
7.8248
1.89565
-4.05058
-9.52978
-14.1095
-17.4461
-19.3111
-19.6059
-18.3627
-15.7358
-11.9835
-7.44344
-2.50576
2.41639
6.91572
10.6189
13.2123
14.4652
14.2477
12.5431
9.45287
5.19278
0.0809129
-5.48367
-11.0495
-16.1473
-20.3279
-23.2007
-24.4685
-23.9572
-21.6343
-17.6177
-12.17
-5.68052
1.36498
8.42429
14.9455
20.4165
24.413
26.6415
26.9719
25.4575
22.3393
18.0328
13.0965
8.18456
3.98587
1.15485
0.240364
1.62038
5.44995
11.6296
19.7991
29.3595
39.5227
49.384
58.0113
64.5404
68.2657
68.7166
65.708
59.3609
50.0892
38.5547
25.5953
12.1367
-0.903529
-12.7061
-22.6254
-30.241
-35.3806
-38.114
-38.7197
-37.6308
-35.3671
-32.4639
-29.4041
-26.5629
-24.1685
-22.2827
-20.8015
-19.4755
-17.9457
-15.793
-12.5958
-7.9925
-1.74333
6.20984
15.6917
26.2534
37.1525
47.3607
55.6125
60.4986
60.6097
54.7179
41.9789
22.123
-4.39898
-36.3481
-71.7314
-107.947
-142.028
-170.962
-192.041
-203.19
-203.236
-192.069
-170.674
-141.034
-105.905
-68.503
-32.1451
0.114388
25.8039
43.2716
51.8164
51.7008
44.0521
30.6707
13.7748
-4.28266
-21.2892
-35.407
-45.342
-50.433
-50.6571
-46.5597
-39.1239
-29.6014
-19.3297
-9.55916
-1.30976
4.72836
8.24262
9.29432
8.26957
5.7958
2.638
-0.410558
-2.62918
-3.4511
-2.51758
0.298768
4.90107
11.002
18.1781
25.9361
33.7838
41.2941
48.1579
54.2163
59.4707
64.0693
68.2735
72.4078
76.8022
81.7344
87.38
93.7781
100.816
108.234
115.654
122.618
128.64
133.262
136.099
136.883
135.48
131.903
126.3
118.93
110.133
100.292
89.7962
79.0122
68.2609
57.8055
47.8492
38.5404
29.9828
22.2467
15.3794
9.41084
4.35573
0.21055
-3.05168
-5.48716
-7.18516
-8.26792
-8.88557
-9.20607
-9.40112
-9.63001
-10.0238
-10.6719
-11.6141
-12.8377
-14.2818
-15.8474
-17.4123
-18.8478
-20.0371
-20.8905
-21.3573
-21.4317
-21.153
-20.5994
-19.877
-19.1045
-18.3975
-17.8523
-17.5333
-17.4645
-17.6269
-17.9609
-18.3754
-18.7595
-18.9982
-18.987
-18.6458
-17.9285
-16.8286
-15.3783
-13.6435
-11.7139
-9.69045
-7.67294
-5.74775
-3.97931
-2.40534
-1.03667
0.13874
1.1486
2.02723
2.80636
3.50737
4.1361
4.68105
5.11509
5.40024
5.49462
5.36045
4.9717
4.32037
3.42022
2.30775
1.03995
-0.310453
-1.6618
-2.9313
-4.0429
-4.93416
-5.56164
-5.90402
-5.96305
-5.76214
-5.34313
-4.7614
-4.08007
-3.36363
-2.67177
-2.05379
-1.54424
-1.1602
-0.900512
-0.747243
-0.669039
-0.626149
-0.576322
-0.480723
-0.308938
-0.0422906
0.325058
0.78735
1.33055
1.93706
2.59097
3.28272
4.01241
4.79083
5.63822
6.58086
7.64614
8.85708
10.2274
11.7581
13.4361
15.2358
17.1219
19.0549
20.996
22.912
24.7782
26.5787
28.3037
29.945
31.489
32.9103
34.1659
35.1922
35.9061
36.2092
35.9975
35.1726
33.6549
31.3963
28.3898
24.6752
20.3396
15.5121
10.354
5.04585
-0.227423
-5.29063
-9.99022
-14.2025
-17.8374
-20.8378
-23.1753
-24.8423
-25.8438
-26.1872
-25.8737
-24.892
-23.2138
-20.7956
-17.5857
-13.5382
-8.63535
-2.9156
3.49358
10.3432
17.2367
23.617
28.7738
31.8777
32.0425
28.4141
20.2823
7.20124
-10.8946
-33.5978
-59.9789
-88.5954
-117.57
-144.739
-167.857
-184.836
-193.996
-194.278
-185.404
-167.941
-143.273
-113.464
-81.0432
-48.7299
-19.1347
5.51797
23.6184
34.3185
37.5842
34.1494
25.3824
13.0856
-0.742134
-14.1492
-25.4508
-33.3986
-37.2841
-36.968
-32.8381
-25.7065
-16.6658
-6.92294
2.36361
10.226
15.9909
19.3377
20.3059
19.258
16.805
13.7084
10.7725
8.74127
8.21201
9.57508
12.9839
18.3562
25.4036
33.6825
42.6587
51.7762
60.5218
68.4781
75.3604
81.0335
85.5099
88.9306
91.5337
93.614
95.4825
97.4273
99.6834
102.413
105.695
109.53
113.844
118.51
123.355
128.181
132.769
136.89
140.297
142.732
143.925
143.598
141.481
137.334
130.975
122.318
111.405
98.4275
83.7464
67.8798
51.4779
35.276
20.0314
6.45087
-4.88163
-13.5682
-19.4417
-22.586
-23.3262
-22.1916
-19.8536
-17.0469
-14.4844
-12.7754
-12.3597
-13.4628
-16.0804
-19.9909
-24.7941
-29.9715
-34.9568
-39.2108
-42.2875
-43.8869
-43.8861
-42.3473
-39.5023
-35.7179
-31.4458
-27.1649
-23.3239
-20.2888
-18.3042
-17.4695
-17.7334
-18.9062
-20.6874
-22.7045
-24.5594
-25.8755
-26.3414
-25.7465
-24.0055
-21.1682
-17.4153
-13.0397
-8.41531
-3.95662
-0.0725469
2.87946
4.63462
5.05183
4.13072
2.0122
-1.0376
-4.65819
-8.43656
-11.9546
-14.8359
-16.787
-17.6264
-17.3001
-15.8812
-13.5542
-10.5876
-7.29809
-4.01167
-1.02594
1.42151
3.17594
4.17748
4.46185
4.15058
3.43214
2.53631
1.70452
1.15907
1.07457
1.55488
2.61821
4.19268
6.12319
8.18933
10.1324
11.6888
12.6251
12.7714
12.048
10.4825
8.21467
5.48922
2.63575
0.0394594
-1.89516
-2.78375
-2.3009
-0.214895
3.58432
9.06625
16.0516
24.2156
33.1041
42.161
50.7673
58.2883
64.1258
67.7714
68.8549
67.1844
62.772
55.8435
46.8283
36.3312
25.0852
13.8915
3.54859
-5.2202
-11.8359
-15.9207
-17.3372
-16.2039
-12.8848
-7.95387
-2.13649
3.76526
8.95579
12.7286
14.5392
14.0614
11.2204
6.20097
-0.568898
-8.45681
-16.6824
-24.3863
-30.7078
-34.8658
-36.2412
-34.4572
-29.453
-21.5444
-11.4602
-0.342617
10.3048
18.729
23.1028
21.7519
13.4078
-2.54976
-25.9048
-55.5123
-89.3285
-124.575
-158.02
-186.353
-206.58
-216.411
-214.556
-200.906
-176.56
-143.703
-105.346
-64.9749
-26.146
7.91352
34.6462
52.4119
60.6114
59.6817
50.968
36.5002
18.7051
0.0961717
-17.0194
-30.7834
-39.9521
-43.9733
-42.9717
-37.6556
-29.1622
-18.8685
-8.19296
1.58551
9.47118
14.8445
17.4983
17.6188
15.7203
12.546
8.95143
5.78529
3.78434
3.49205
5.20968
8.98233
14.6188
21.7394
29.8444
38.391
46.8705
54.8724
62.1309
68.5456
74.1767
79.2156
83.9374
88.6413
93.5902
98.9567
104.784
110.97
117.267
123.314
128.677
132.907
135.595
136.431
135.234
131.982
126.807
119.974
111.845
102.83
93.3355
83.7236
74.2773
65.1845
56.5381
48.35
40.5743
33.1343
25.9484
18.9507
12.1047
5.40974
-1.09988
-7.35915
-13.2804
-18.7622
-23.6985
-27.987
-31.5373
-34.2778
-36.1621
-37.1753
-37.3374
-36.7068
-35.3798
-33.4878
-31.191
-28.6692
-26.1098
-23.6944
-21.5851
-19.9117
-18.7622
-18.1758
-18.1408
-18.5968
-19.4407
-20.537
-21.7296
-22.8556
-23.7588
-24.3032
-24.3844
-23.9405
-22.9594
-21.4841
-19.6126
-17.492
-15.306
-13.2546
-11.5274
-10.2738
-9.57339
-9.41222
-9.67062
-10.1262
-10.4748
-10.3685
-9.46587
-7.48864
-4.27508
0.178737
5.69731
11.9289
18.3745
24.4397
29.5032
32.9915
34.4515
33.609
30.406
25.0124
17.8102
9.35252
0.304554
-8.62701
-16.7662
-23.5336
-28.4979
-31.4095
-32.2121
-31.0346
-28.1636
-24.003
-19.025
-13.7184
-8.5409
-3.87851
-0.0168033
2.87474
4.74492
5.65073
5.73733
5.21134
4.311
3.27677
2.32554
1.63091
1.311
1.42446
1.97427
2.91801
4.18268
5.68181
7.33219
9.06792
10.8499
12.6695
14.5458
16.5173
18.6292
20.9183
23.3982
26.0468
28.7993
31.547
34.143
36.4147
38.1802
39.2686
39.5387
38.8959
37.3033
34.787
31.4334
27.3808
22.8054
17.9038
12.8753
7.90513
3.15082
-1.26634
-5.26515
-8.80318
-11.8715
-14.4867
-16.6809
-18.4932
-19.9604
-21.1111
-21.9601
-22.5049
-22.7225
-22.5676
-21.9717
-20.845
-19.0839
-16.5827
-13.2551
-9.0612
-4.04177
1.6458
7.6945
13.6257
18.786
22.3718
23.4854
21.2247
14.8002
3.66728
-12.3454
-32.932
-57.2537
-83.9457
-111.198
-136.909
-158.886
-175.095
-183.888
-184.22
-175.781
-159.062
-135.311
-106.409
-74.6675
-42.5777
-12.5529
13.3139
33.441
46.8796
53.356
53.2369
47.4289
37.2312
24.1645
9.79688
-4.41148
-17.2318
-27.7485
-35.3962
-39.9552
-41.5126
-40.3972
-37.1016
-32.2001
-26.2741
-19.8491
-13.3519
-7.08566
-1.22452
4.17515
9.15189
13.8087
18.2803
22.7027
27.1885
31.8112
36.5989
41.5381
46.5842
51.6783
56.7648
61.8066
66.7959
71.7574
76.7445
81.8277
87.0793
92.5546
98.2758
104.218
110.303
116.401
122.335
127.902
132.889
137.096
140.356
142.552
143.628
143.585
142.474
140.383
137.405
133.622
129.082
123.782
117.674
110.669
102.67
93.5994
83.438
72.2565
60.2362
47.6752
34.9739
22.605
11.0675
0.834856
-7.69893
-14.2641
-18.7469
-21.2022
-21.8468
-21.0328
-19.2074
-16.8623
-14.4817
-12.494
-11.2341
-10.9196
-11.6427
-13.3774
-15.9987
-19.3099
-23.0718
-27.0296
-30.9341
-34.5546
-37.6846
-40.1436
-41.7766
-42.4558
-42.0867
-40.619
-38.061
-34.4947
-30.0874
-25.0943
-19.85
-14.7457
-10.1945
-6.58778
-4.24816
-3.38665
-4.07041
-6.20673
-9.54609
-13.7048
-18.2043
-22.5221
-26.148
-28.6381
-29.6596
-29.0227
-26.6945
-22.7969
-17.5875
-11.4295
-4.7528
1.9867
8.34703
13.9344
18.4302
21.608
23.3426
23.6086
22.4733
20.0822
16.6417
12.3989
7.62195
2.58025
-2.47182
-7.30852
-11.7421
-15.6276
-18.8628
-21.3842
-23.1592
-24.1763
-24.437
-23.9483
-22.7206
-20.7706
-18.1283
-14.8479
-11.0188
-6.77493
-2.29776
2.18699
6.4219
10.138
13.0812
15.0415
15.8808
15.5563
14.1347
11.7949
8.81784
5.56482
2.44408
-0.129013
-1.77484
-2.19047
-1.18378
1.30325
5.18505
10.2382
16.122
22.4128
28.6472
34.3712
39.1883
42.8015
45.0437
45.8909
45.4582
43.9761
41.7524
39.1236
36.4036
33.8381
31.5703
29.6244
27.9091
26.2385
24.3689
22.0434
19.0386
15.2047
10.4945
4.97678
-1.16738
-7.66261
-14.169
-20.3175
-25.7456
-30.1286
-33.2013
-34.7702
-34.7143
-32.9778
-29.5579
-24.4928
-17.8556
-9.75957
-0.377337
10.0257
21.0477
32.1067
42.41
50.9536
56.5652
58.0001
54.0878
43.915
27.0179
3.55026
-25.6105
-58.8485
-93.9008
-128.055
-158.428
-182.295
-197.415
-202.309
-196.455
-180.356
-155.495
-124.16
-89.187
-53.6337
-20.4504
7.82799
29.3235
42.9679
48.5527
46.6794
38.623
26.1314
11.1923
-4.20528
-18.2841
-29.6451
-37.3736
-41.0777
-40.8636
-37.2569
-31.0857
-23.3434
-15.0495
-7.12538
-0.297676
4.963
8.46454
10.2794
10.7002
10.1749
9.23072
8.39971
8.154
8.85885
10.7472
13.9165
18.3443
23.9178
30.4687
37.8058
45.7403
54.0977
62.7182
71.4462
80.1147
88.5309
96.4676
103.665
109.843
114.73
118.087
119.751
119.657
117.865
114.566
110.068
104.777
99.1486
93.6416
88.6629
84.5162
81.3627
79.1964
77.8412
76.9696
76.142
74.8636
72.6509
69.0992
63.9417
57.0918
48.6604
38.9471
28.405
17.5841
7.06227
-2.62686
-11.0578
-17.961
-23.2471
-27.0065
-29.4843
-31.0358
-32.0694
-32.9863
-34.1245
-35.715
-37.8552
-40.5025
-43.4864
-46.5389
-49.3347
-51.5387
-52.8521
-53.0525
-52.0218
-49.7609
-46.3889
-42.1277
-37.2753
-32.1719
-27.1618
-22.558
-18.6119
-15.4916
-13.2713
-11.9315
-11.3693
-11.4172
-11.8668
-12.4955
-13.091
-13.4734
-13.5104
-13.1258
-12.3004
-11.066
-9.49451
-7.68227
-5.73426
-3.74819
-1.8019
0.0550425
1.80422
3.45576
5.04084
6.6006
8.1735
9.78318
11.4289
13.0799
14.6747
16.1258
17.328
18.1704
18.5495
18.3816
17.6132
16.228
14.2489
11.7366
8.78284
5.50161
2.01748
-1.54583
-5.07579
-8.47851
-11.682
-14.635
-17.3012
-19.6509
-21.6512
-23.2586
-24.4142
-25.0452
-25.0721
-24.4201
-23.035
-20.8984
-18.0413
-14.5518
-10.576
-6.31121
-1.9912
2.1348
5.82618
8.87574
11.1318
12.5144
13.0244
12.7434
11.8251
10.4794
8.9514
7.49755
6.36247
5.75913
5.85423
6.76
8.5323
11.1739
14.6412
18.8517
23.6914
29.0193
34.6695
40.4516
46.1492
51.5215
56.3063
60.2293
63.0184
64.4235
64.2401
62.3329
58.6584
53.2802
46.3754
38.2302
29.2228
19.796
10.4211
1.55771
-6.38632
-13.0888
-18.3375
-22.0409
-24.2236
-25.0063
-24.573
-23.1302
-20.8629
-17.8964
-14.27
-9.92952
-4.74179
1.46561
8.84315
17.4416
27.1281
37.5093
47.8801
57.2125
64.2029
67.3817
65.2845
56.6657
40.7276
17.3255
-12.8905
-48.428
-87.0222
-125.821
-161.671
-191.464
-212.498
-222.809
-221.415
-208.441
-185.119
-153.645
-116.93
-78.2657
-40.968
-8.01907
18.2265
36.2512
45.475
46.2426
39.707
27.6308
12.1358
-4.56567
-20.4233
-33.7566
-43.3987
-48.7632
-49.8364
-47.1019
-41.4147
-33.8459
-25.5197
-17.4637
-10.4896
-5.11499
-1.5318
0.379879
0.998835
0.881448
0.665023
0.969464
2.30999
5.03124
9.26953
14.9464
21.7922
29.3953
37.2691
44.9279
51.9607
58.0935
63.2305
67.4704
71.093
74.5195
78.2514
82.7945
88.5795
95.8893
104.802
115.16
126.564
138.405
149.917
160.253
168.575
174.138
176.372
174.942
169.78
161.093
149.339
135.182
119.424
102.924
86.5222
70.9672
56.8552
44.5944
34.3892
26.2485
20.0121
15.3912
12.0159
9.48341
7.40137
5.42327
3.27339
0.761587
-2.21128
-5.65578
-9.50243
-13.6149
-17.807
-21.8612
-25.5501
-28.6568
-30.9948
-32.4255
-32.8715
-32.3241
-30.8457
-28.5639
-25.6612
-22.3578
-18.8926
-15.5016
-12.3985
-9.75705
-7.69995
-6.29204
-5.54056
-5.40087
-5.78678
-6.58395
-7.66463
-8.90196
-10.1822
-11.4136
-12.5308
-13.4939
-14.283
-14.8882
-15.2965
-15.4796
-15.3837
-14.9256
-13.9962
-12.4729
-10.2404
-7.2157
-3.3757
1.22011
6.41487
11.9525
17.4901
22.6247
26.9318
30.0096
31.5256
31.256
29.1154
25.1706
19.638
12.8645
5.29391
-2.57539
-10.2375
-17.2247
-23.1468
-27.7198
-30.7827
-32.3006
-32.3545
-31.1225
-28.8529
-25.8339
-22.3641
-18.7256
-15.1628
-11.8682
-8.97485
-6.55624
-4.63171
-3.17602
-2.13149
-1.42092
-0.959869
-0.666973
-0.471644
-0.318678
-0.169793
-0.00243158
0.193579
0.420757
0.679233
0.971757
1.30775
1.70594
2.19533
2.81446
3.60927
4.6298
5.92613
7.54407
9.52085
11.8811
14.6335
17.7674
21.2509
25.0286
29.021
33.124
37.2103
41.1322
44.7269
47.8242
50.2553
51.8649
52.523
52.1363
50.6579
48.0933
44.5028
39.9987
34.7376
28.9097
22.725
16.399
10.1391
4.13263
-1.46163
-6.51838
-10.9473
-14.6911
-17.7214
-20.0326
-21.6354
-22.5508
-22.8043
-22.4215
-21.4244
-19.8291
-17.6445
-14.8725
-11.5106
-7.55714
-3.02191
2.05827
7.59705
13.4305
19.2865
24.7568
29.282
32.1571
32.5688
29.6685
22.6797
11.0298
-5.51157
-26.712
-51.799
-79.448
-107.849
-134.853
-158.181
-175.683
-185.589
-186.743
-178.765
-162.126
-138.12
-108.738
-76.4592
-43.9905
-13.9774
11.2659
29.9826
41.1311
44.4579
40.4831
30.4041
15.933
-0.911949
-18.0337
-33.4794
-45.6332
-53.3615
-56.0969
-53.8557
-47.1917
-37.0959
-24.8544
-11.8859
0.425021
10.879
18.5825
23.0281
24.1264
22.1927
17.889
12.1332
5.9847
0.521114
-3.28107
-4.64888
-3.08826
1.57479
9.19008
19.3149
31.2765
44.256
57.3845
69.8382
80.9228
90.138
97.2155
102.128
105.072
106.424
106.679
106.386
106.074
106.193
107.062
108.841
111.522
114.937
118.784
122.668
126.145
128.77
130.134
129.904
127.842
123.82
117.826
109.952
100.395
89.4357
77.4266
64.7706
51.9003
39.2522
27.2392
16.2226
6.48542
-1.78987
-8.53519
-13.801
-17.7488
-20.6319
-22.7667
-24.4975
-26.1582
-28.0365
-30.344
-33.1964
-36.6056
-40.4844
-44.6633
-48.9154
-52.9882
-56.6357
-59.6486
-61.8778
-63.2501
-63.7725
-63.5278
-62.6603
-61.3553
-59.8143
-58.2296
-56.7617
-55.5207
-54.556
-53.853
-53.3387
-52.894
-52.3714
-51.6156
-50.4844
-48.8673
-46.6994
-43.9692
-40.7197
-37.0432
-33.0703
-28.9547
-24.8572
-20.9288
-17.2971
-14.0559
-11.2598
-8.92367
-7.02663
-5.51956
-4.33484
-3.39701
-2.63271
-1.979
-1.38914
-0.835503
-0.309535
0.180887
0.616093
0.970527
1.21906
1.34287
1.33416
1.19913
0.95871
0.647176
0.308497
-0.00889445
-0.258319
-0.401135
-0.412145
-0.283281
-0.0249451
0.335269
0.756361
1.18969
1.5859
1.90207
2.10791
2.19031
2.15548
2.02848
1.85036
1.67321
1.55415
1.54887
1.70596
2.06267
2.64305
3.45861
4.51186
5.80197
7.33171
9.114
11.1763
13.5612
16.3223
19.5145
23.1802
27.3322
31.9369
36.8994
42.0548
47.168
51.9429
56.0427
59.1179
60.8415
60.9446
59.2491
55.6931
50.3432
43.3944
35.1553
26.0222
16.4448
6.88843
-2.20307
-10.4398
-17.5105
-23.1988
-27.3886
-30.0618
-31.2874
-31.2051
-30.0058
-27.9099
-25.1463
-21.9338
-18.465
-14.8946
-11.3325
-7.84086
-4.43751
-1.10402
2.1994
5.51215
8.84374
12.1375
15.2305
17.8172
19.4263
19.4245
17.0577
11.5368
2.16391
-11.5137
-29.5493
-51.4724
-76.2271
-102.197
-127.328
-149.335
-165.979
-175.36
-176.189
-167.996
-151.234
-127.258
-98.1921
-66.6854
-35.6039
-7.6945
14.7305
30.0472
37.4807
37.1557
30.0333
17.7504
2.38469
-13.8185
-28.7223
-40.5412
-48.0233
-50.553
-48.1676
-41.4922
-31.6079
-19.8759
-7.74237
3.44863
12.6122
19.0321
22.4139
22.8801
20.9146
17.2671
12.8348
8.53817
5.20653
3.4873
3.78749
6.25152
10.7744
17.0452
24.6118
32.9574
41.5768
50.043
58.0558
65.4668
72.2797
78.6269
84.7278
90.8353
97.1796
103.917
111.094
118.623
126.289
133.766
140.66
146.554
151.063
153.883
154.829
153.858
151.069
146.689
141.038
134.481
127.378
120.031
112.646
105.315
98.0099
90.6047
82.9135
74.7368
65.9123
56.3587
46.1055
35.3064
24.2317
13.2443
2.76112
-6.79269
-15.0302
-21.6445
-26.4394
-29.3471
-30.4306
-29.8728
-27.954
-25.0215
-21.4565
-17.641
-13.9283
-10.6198
-7.94914
-6.07362
-5.07269
-4.95233
-5.65387
-7.06589
-9.03798
-11.3953
-13.9527
-16.5286
-18.9566
-21.0953
-22.8354
-24.1042
-24.8668
-25.1242
-24.9089
-24.2773
-23.3018
-22.0603
-20.6266
-19.0615
-17.4061
-15.6777
-13.8686
-11.9499
-9.87756
-7.60206
-5.0807
-2.29028
0.760706
4.02241
7.3983
10.7455
13.8814
16.5978
18.6796
19.9288
20.1894
19.3707
17.4657
14.5617
10.8404
6.56702
2.06897
-2.29408
-6.16572
-9.2298
-11.2444
-12.0691
-11.6813
-10.1805
-7.77913
-4.781
-1.54965
1.52993
4.09206
5.82946
6.52638
6.08245
4.5246
2.00589
-1.20914
-4.77112
-8.28234
-11.3396
-13.5787
-14.7168
-14.5858
-13.1544
-10.5345
-6.96892
-2.80391
1.55388
5.68879
9.22952
11.8967
13.5369
14.1378
13.8213
12.8161
11.4153
9.92437
8.61239
7.67314
7.20471
7.21094
7.62387
8.34194
9.27511
10.3864
11.7199
13.4071
15.649
18.6751
22.6869
27.7957
33.9677
40.9889
48.4574
55.8073
62.3634
67.4191
70.3254
70.5794
67.8976
62.2628
53.9384
43.4468
31.5155
18.9978
6.78014
-4.31318
-13.6043
-20.6258
-25.1561
-27.2255
-27.0915
-25.1902
-22.0705
-18.3204
-14.4943
-11.0505
-8.30386
-6.3984
-5.3016
-4.81918
-4.62895
-4.3302
-3.50502
-1.78697
1.06812
5.11578
10.1683
15.7611
21.1486
25.3387
27.1707
25.4358
19.0358
7.15997
-10.5404
-33.8117
-61.7201
-92.6612
-124.467
-154.607
-180.458
-199.608
-210.154
-210.943
-201.723
-183.19
-156.907
-125.136
-90.576
-56.0661
-24.2858
2.51474
22.7201
35.4713
40.6959
39.0501
31.7854
20.5629
7.23821
-6.3538
-18.591
-28.2134
-34.4162
-36.8826
-35.7578
-31.5731
-25.1354
-17.3976
-9.32705
-1.78799
4.5495
9.26729
12.2197
13.5193
13.4923
12.6147
11.4362
10.5051
10.3022
11.1911
13.3903
16.9669
21.8512
27.8663
34.7673
42.2815
50.1451
58.1292
66.0543
73.7921
81.2572
88.3915
95.1462
101.466
107.278
112.489
116.989
120.665
123.414
125.162
125.874
125.57
124.317
122.232
119.461
116.16
112.477
108.525
104.366
99.9991
95.3604
90.3336
84.7708
78.5224
71.4715
63.5665
54.8476
45.4613
35.6595
25.782
16.2232
7.38682
-0.365367
-6.76495
-11.6791
-15.1381
-17.3412
-18.6409
-19.5031
-20.4506
-21.9945
-24.5643
-28.4448
-33.7298
-40.2979
-47.8147
-55.7613
-63.4861
-70.274
-75.4249
-78.3327
-78.5563
-75.8749
-70.3218
-62.1928
-52.0296
-40.5777
-28.7246
-17.4214
-7.59641
-0.067191
4.53949
5.8525
3.7984
-1.38464
-9.16344
-18.7564
-29.2056
-39.4681
-48.5155
-55.4323
-59.5018
-60.2714
-57.5891
-51.61
-42.7717
-31.7431
-19.3531
-6.50826
5.89355
17.0415
26.2778
33.1434
37.4023
39.042
38.2531
35.3913
30.9271
25.3889
19.3071
13.164
7.35393
2.15899
-2.26076
-5.86129
-8.69587
-10.8871
-12.5939
-13.9789
-15.1793
-16.2859
-17.3304
-18.2837
-19.0627
-19.5442
-19.5849
-19.043
-17.7996
-15.7787
-12.9622
-9.39925
-5.21064
-0.58615
4.22341
8.91963
13.1747
16.6543
19.0431
20.0734
19.5531
17.3908
13.6148
8.38258
1.97819
-5.20373
-12.6867
-19.9519
-26.4837
-31.817
-35.5794
-37.5239
-37.547
-35.6913
-32.1317
-27.1482
-21.0894
-14.3325
-7.24422
-0.14917
6.69274
13.0966
18.9513
24.2085
28.8652
32.9424
36.465
39.4459
41.8753
43.718
44.9176
45.4062
45.1181
44.0052
42.0504
39.2775
35.7558
31.5988
26.9561
22.0005
16.9122
11.8611
6.99204
2.41372
-1.80588
-5.63731
-9.08104
-12.1542
-14.8753
-17.2507
-19.2639
-20.8722
-22.0092
-22.5945
-22.5478
-21.8052
-20.3347
-18.1486
-15.3088
-11.926
-8.15165
-4.16405
-0.152412
3.69846
7.21865
10.2557
12.6679
14.308
15.002
14.5284
12.6053
8.89474
3.02856
-5.34004
-16.4642
-30.4186
-47.0175
-65.752
-85.7635
-105.867
-124.629
-140.497
-151.964
-157.758
-157.014
-149.412
-135.261
-115.498
-91.6131
-65.4985
-39.245
-14.9106
5.70601
21.2574
30.9793
34.7474
33.0539
26.9102
17.6933
6.9579
-3.75827
-13.1109
-20.0862
-24.0839
-24.9416
-22.9011
-18.5285
-12.6024
-5.9873
0.488512
6.13638
10.4799
13.2909
14.5887
14.6061
13.7311
12.4353
11.1986
10.4425
10.4794
11.4827
13.4805
16.3717
19.9602
24.0017
28.2556
32.5345
36.7423
40.8968
45.1322
49.68
54.8329
60.8944
68.1225
76.675
86.5627
97.6184
109.484
121.621
133.343
143.867
152.385
158.149
160.55
159.205
154.018
145.215
133.353
119.28
104.065
88.892
74.9331
63.217
54.5061
49.2015
47.2898
48.3409
51.557
55.8678
60.0589
62.9158
63.3649
60.5929
54.1322
43.9029
30.2104
13.7024
-4.70622
-23.9275
-42.8028
-60.2011
-75.1043
-86.6759
-94.31
-97.663
-96.6685
-91.5384
-82.7507
-71.0223
-57.2679
-42.5422
-27.9681
-14.6524
-3.59727
4.3867
8.75422
9.2782
6.07355
-0.412142
-9.44114
-20.0571
-31.1775
-41.6965
-50.5864
-56.9875
-60.278
-60.1189
-56.4719
-49.592
-39.9966
-28.4176
-15.7387
-2.92502
9.05108
19.2845
27.0065
31.6456
32.8749
30.6418
25.1773
16.9807
6.78044
-4.52731
-15.9577
-26.5264
-35.3396
-41.6762
-45.0514
-45.2555
-42.3638
-36.7162
-28.8695
-19.53
-9.4735
0.534835
9.8128
17.816
24.1706
28.6817
31.3197
32.1891
31.4866
29.4575
26.3544
22.408
17.8087
12.7032
7.2035
1.40429
-4.59425
-10.6643
-16.6338
-22.2787
-27.3288
-31.4845
-34.4466
-35.9525
-35.8153
-33.9589
-30.4429
-25.4734
-19.3959
-12.6711
-5.83434
0.555139
5.97012
9.96901
12.2406
12.635
11.176
8.05559
3.60991
-1.71857
-7.42844
-13.0103
-17.9956
-21.9974
-24.7405
-26.0762
-25.984
-24.5579
-21.9828
-18.5039
-14.392
-9.9119
-5.29521
-0.721268
3.69209
7.88823
11.8625
15.6463
19.287
22.8261
26.2809
29.6295
32.8039
35.6914
38.1434
39.9919
41.07
41.2345
40.3871
38.4913
35.583
31.7732
27.2428
22.2293
17.0076
11.8671
7.08647
2.91028
-0.472031
-2.94208
-4.46287
-5.08292
-4.9338
-4.22131
-3.21017
-2.20287
-1.51329
-1.43676
-2.21844
-4.02295
-6.90793
-10.8051
-15.5109
-20.6901
-25.8927
-30.5851
-34.1942
-36.1618
-36.0048
-33.3777
-28.1305
-20.3591
-10.4413
0.945988
12.8332
23.9967
33.0315
38.4641
38.8998
33.1966
20.6478
1.14656
-24.6951
-55.5023
-89.1883
-123.107
-154.298
-179.805
-197.013
-203.981
-199.704
-184.274
-158.911
-125.86
-88.1596
-49.3068
-12.8719
17.9005
40.4489
53.166
55.5538
48.2439
32.8839
11.9084
-11.7746
-35.1396
-55.3968
-70.2997
-78.3709
-79.0235
-72.5692
-60.1185
-43.3926
-24.4756
-5.54101
11.4111
24.7769
33.5056
37.179
36.0078
30.7544
22.5976
12.9592
3.3196
-4.95665
-10.7639
-13.3542
-12.384
-7.90943
-0.336214
9.66419
21.259
33.564
45.7449
57.0999
67.1161
75.4954
82.1525
87.1875
90.8409
93.4382
95.3338
96.8593
98.2844
99.7922
101.47
103.313
105.243
107.129
108.814
110.135
110.942
111.115
110.557
109.206
107.018
103.967
100.034
95.204
89.4685
82.8318
75.323
67.0099
58.0127
48.5131
38.7557
29.0404
19.7049
11.0981
3.54848
-2.67046
-7.37097
-10.4753
-12.029
-12.2004
-11.2674
-9.59057
-7.57718
-5.64006
-4.15601
-3.42925
-3.66417
-4.95032
-7.26108
-10.4652
-14.349
-18.6449
-23.0632
-27.3215
-31.1692
-34.4051
-36.8867
-38.5321
-39.3153
-39.2579
-38.4184
-36.881
-34.7463
-32.1238
-29.127
-25.8705
-22.4686
-19.034
-15.6774
-12.5045
-9.61344
-7.0899
-5.00247
-3.3977
-2.2962
-1.69006
-1.54222
-1.78776
-2.33707
-3.08069
-3.89543
-4.65154
-5.22056
-5.48345
-5.33869
-4.7099
-3.55244
-1.85851
0.339906
2.97072
5.92433
9.05935
12.2112
15.2027
17.8567
20.0085
21.518
22.2798
22.231
21.3553
19.684
17.2937
14.3007
10.8534
7.12398
3.29825
-0.433366
-3.88502
-6.8839
-9.27825
-10.9451
-11.7981
-11.7944
-10.9422
-9.30534
-7.00591
-4.22262
-1.18363
1.84622
4.58386
6.75086
8.09877
8.4344
7.64212
5.70049
2.69077
-1.20422
-5.71138
-10.4884
-15.1524
-19.3145
-22.6145
-24.7553
-25.5296
-24.8391
-22.7018
-19.2478
-14.7046
-9.3717
-3.59027
2.29064
7.9465
13.1049
17.5658
21.2116
24.0082
25.9958
27.2727
27.9739
28.2481
28.2353
28.0488
27.7626
27.4063
26.9663
26.3944
25.6204
24.5675
23.1674
21.3744
19.1748
16.5913
13.683
10.5387
7.26774
3.9867
0.806743
-2.17838
-4.90091
-7.32325
-9.4371
-11.2576
-12.8139
-14.1363
-15.2443
-16.1344
-16.7719
-17.0871
-16.9763
-16.3103
-14.9483
-12.7598
-9.65179
-5.60202
-0.694386
4.84797
10.6386
16.1206
20.583
23.2067
23.1378
19.5861
11.9351
-0.149122
-16.6268
-37.0269
-60.4334
-85.522
-110.646
-133.967
-153.617
-167.883
-175.388
-175.255
-167.235
-151.766
-129.976
-103.589
-74.7707
-45.9069
-19.3503
2.83446
19.094
28.5477
31.0654
27.2535
18.3513
6.05518
-7.70379
-20.9995
-32.1344
-39.8208
-43.2995
-42.3854
-37.4399
-29.2807
-19.0429
-8.01556
2.52718
11.4787
18.0201
21.6978
22.4519
20.598
16.7659
11.8069
6.68222
2.34508
-0.367974
-0.825924
1.33704
6.19589
13.5438
22.9328
33.7381
45.2388
56.702
67.4627
76.9885
84.9248
91.116
95.6032
98.6008
100.455
101.595
102.474
103.516
105.071
107.375
110.528
114.486
119.073
123.994
128.874
133.293
136.831
139.108
139.818
138.762
135.858
131.143
124.768
116.971
108.05
98.3302
88.1317
77.7461
67.4195
57.3454
47.6679
38.4912
29.8925
21.9365
14.6854
8.20508
2.56448
-2.17086
-5.94951
-8.74697
-10.5778
-11.5043
-11.64
-11.1461
-10.2216
-9.08809
-7.97006
-7.07542
-6.57717
-6.59935
-7.2086
-8.41169
-10.1587
-12.3506
-14.8501
-17.4937
-20.1045
-22.505
-24.5276
-26.0257
-26.8822
-27.0164
-26.3896
-25.0078
-22.9223
-20.2268
-17.0526
-13.56
-9.92847
-6.34454
-2.98955
-0.0272284
2.40721
4.21592
5.34414
5.78225
5.564
4.76088
3.47357
1.82161
-0.0673124
-2.06702
-4.06044
-5.94452
-7.63267
-9.05505
-10.1577
-10.9012
-11.2596
-11.2203
-10.7845
-9.96883
-8.80648
-7.34869
-5.66481
-3.84091
-1.97641
-0.178576
1.44477
2.79378
3.78555
4.36236
4.49816
4.20239
3.52036
2.52989
1.33448
0.0533716
-1.1903
-2.28209
-3.12811
-3.66469
-3.86464
-3.73921
-3.33538
-2.72884
-2.01344
-1.28873
-0.647049
-0.162205
0.118952
0.180921
0.0394981
-0.262464
-0.662682
-1.08915
-1.47039
-1.74467
-1.86682
-1.81155
-1.57296
-1.16036
-0.591276
0.116891
0.955045
1.92854
3.05997
4.3877
5.96006
7.82572
10.0219
12.5621
15.4257
18.551
21.8339
25.1329
28.279
31.0917
33.3975
35.0492
35.9428
36.0308
35.3277
33.9092
31.9026
29.4718
26.7969
24.0526
21.3876
18.9082
16.6679
14.6646
12.8459
11.1208
9.37695
7.50066
5.39627
3.00278
0.305504
-2.65821
-5.79874
-8.9777
-12.0132
-14.6848
-16.7379
-17.8896
-17.8377
-16.28
-12.9455
-7.64135
-0.311113
8.90035
19.5893
31.0564
42.3048
52.0843
58.986
61.5825
58.6025
49.1189
32.7262
9.67898
-19.0343
-51.7017
-85.9937
-119.162
-148.317
-170.75
-184.259
-187.444
-179.906
-162.335
-136.462
-104.874
-70.7137
-37.3163
-7.81161
15.2352
30.107
36.1021
33.5694
23.8091
8.86092
-8.78857
-26.5367
-41.9879
-53.2294
-59.0267
-58.9203
-53.2198
-42.9022
-29.4371
-14.5656
-0.0639591
12.4768
21.8304
27.2558
28.5493
26.029
20.4591
12.9291
4.70608
-2.92073
-8.78385
-11.9557
-11.8297
-8.16003
-1.05829
9.04626
21.4764
35.3955
49.9033
64.1285
77.3095
88.8543
98.3778
105.714
110.905
114.172
115.868
116.429
116.319
115.979
115.786
116.022
116.857
118.343
120.42
122.932
125.647
128.286
130.542
132.108
132.695
132.043
129.94
126.224
120.798
113.634
104.787
94.3986
82.7032
70.028
56.7825
43.4406
30.5123
18.5081
7.89828
-0.926714
-7.69213
-12.2646
-14.6649
-15.0661
-13.776
-11.2079
-7.84087
-4.17573
-0.690852
2.19794
4.16931
5.01778
4.66309
3.14742
0.621523
-2.67812
-6.45837
-10.4015
-14.197
-17.57
-20.3037
-22.2542
-23.3565
-23.622
-23.1285
-22.0043
-20.4084
-18.5107
-16.4722
-14.4302
-12.4873
-10.7065
-9.11195
-7.69435
-6.42018
-5.24296
-4.11486
-2.99728
-1.8689
-0.730537
0.393648
1.45857
2.40375
3.16112
3.6641
3.85665
3.70129
3.185
2.32241
1.15599
-0.246702
-1.7981
-3.3975
-4.93876
-6.31795
-7.44041
-8.22654
-8.61638
-8.57301
-8.08513
-7.16904
-5.8704
-4.26521
-2.45982
-0.588656
1.19132
2.71037
3.80045
4.31373
4.14344
3.24425
1.64866
-0.524146
-3.06989
-5.71289
-8.13169
-9.99453
-11.0007
-10.9225
-9.64172
-7.17578
-3.68805
0.519022
5.02889
9.3514
12.9746
15.4223
16.3096
15.3918
12.598
8.04815
2.04957
-4.92668
-12.2866
-19.3682
-25.5038
-30.0861
-32.6279
-32.8137
-30.5341
-25.9018
-19.2462
-11.0862
-2.08417
7.01524
15.4554
22.5398
27.699
30.5449
30.9068
28.846
24.6463
18.7822
11.8691
4.59972
-2.32466
-8.26126
-12.6838
-15.2255
-15.7021
-14.1154
-10.635
-5.56415
0.706476
7.75008
15.1529
22.5545
29.6728
36.312
42.3519
47.7237
52.3767
56.2454
59.2243
61.1564
61.8402
61.0531
58.5893
54.3036
48.1546
40.2374
30.8004
20.2413
9.08231
-2.07326
-12.5973
-21.8983
-29.48
-34.9894
-38.2483
-39.2648
-38.2228
-35.4526
-31.3855
-26.4976
-21.2504
-16.0334
-11.1179
-6.62707
-2.52913
1.34331
5.24775
9.464
14.2124
19.5694
25.3932
31.2746
36.5227
40.1981
41.1941
38.3666
30.6997
17.4882
-1.49024
-25.8427
-54.4979
-85.7308
-117.285
-146.584
-171.006
-188.191
-196.335
-194.428
-182.406
-161.184
-132.574
-99.0875
-63.6604
-29.3223
1.13441
25.4506
42.1235
50.5323
50.9547
44.4781
32.8215
18.0962
2.53655
-11.7646
-23.0835
-30.2323
-32.6511
-30.4178
-24.1827
-15.0418
-4.36779
6.37756
15.8263
22.8622
26.7379
27.1421
24.2125
18.5
10.8882
2.48353
-5.51447
-11.9456
-15.8125
-16.3826
-13.2581
-6.4092
3.83272
16.8197
31.6637
47.3358
62.7763
77.0036
89.2097
98.8326
105.598
109.529
110.923
110.298
108.326
105.748
103.291
101.593
101.144
102.242
104.979
109.241
114.733
121.016
127.555
133.774
139.103
143.026
145.119
145.068
142.687
137.918
130.826
121.586
110.471
97.8356
84.1034
69.7457
55.2649
41.1715
27.9591
16.0766
5.90011
-2.29317
-8.34558
-12.2321
-14.0629
-14.0746
-12.6104
-10.0908
-6.977
-3.73182
-0.781386
1.51831
2.90653
3.23262
2.45964
0.657201
-2.01455
-5.32756
-9.01194
-12.7826
-16.3636
-19.5087
-22.0163
-23.7377
-24.5813
-24.5104
-23.5387
-21.7243
-19.1626
-15.9809
-12.3335
-8.3971
-4.36667
-0.449129
3.1447
6.21108
8.56698
10.0652
10.61
10.1705
8.78986
6.58937
3.76379
0.569643
-2.69427
-5.71206
-8.17921
-9.83138
-10.4702
-9.98308
-8.35527
-5.67203
-2.11145
2.07156
6.56837
11.0442
15.1676
18.6383
21.2121
22.719
23.0747
22.2834
20.4332
17.684
14.2499
10.378
6.32533
2.33672
-1.37468
-4.6427
-7.35782
-9.47075
-10.99
-11.9738
-12.518
-12.7411
-12.7681
-12.7155
-12.6788
-12.7234
-12.8806
-13.1478
-13.493
-13.8626
-14.1917
-14.4144
-14.474
-14.3309
-13.9683
-13.394
-12.6392
-11.755
-10.806
-9.86277
-8.99478
-8.26321
-7.71558
-7.382
-7.27328
-7.38081
-7.67791
-8.12234
-8.65962
-9.22688
-9.75716
-10.1839
-10.4456
-10.4906
-10.2813
-9.79771
-9.0398
-8.02712
-6.79583
-5.39198
-3.86159
-2.23821
-0.530223
1.28955
3.28886
5.57317
8.27349
11.5254
15.4414
20.0813
25.4244
31.3501
37.631
43.94
49.8742
54.991
58.8544
61.0838
61.4003
59.6629
55.8902
50.2646
43.1175
34.8982
26.13
17.3587
9.10105
1.79723
-4.22513
-8.77325
-11.7954
-13.3712
-13.6892
-13.0139
-11.6479
-9.89457
-8.02345
-6.24439
-4.69051
-3.41164
-2.37698
-1.48574
-0.583572
0.516887
2.01251
4.08368
6.86547
10.4159
14.6821
19.4661
24.3971
28.9169
32.287
33.6274
31.9898
26.464
16.309
1.09197
-19.1859
-43.9991
-72.2623
-102.364
-132.27
-159.697
-182.329
-198.064
-205.254
-202.908
-190.833
-169.698
-140.994
-106.91
-70.1229
-33.5374
0.00753793
28.0203
48.5994
60.6081
63.763
58.6268
46.5115
29.3039
9.23871
-11.3544
-30.2986
-45.7845
-56.5306
-61.8732
-61.7815
-56.8014
-47.9396
-36.5064
-23.9385
-11.6237
-0.748625
7.8163
13.5833
16.4623
16.7286
14.9497
11.8867
8.38313
5.25717
3.20993
2.75933
4.20461
7.62187
12.8868
19.7179
27.7308
36.4965
45.5928
54.6464
63.3593
71.5204
79.0034
85.7547
91.7742
97.0953
101.765
105.832
109.332
112.291
114.722
116.627
118.008
118.862
119.186
118.97
118.196
116.829
114.811
112.062
108.479
103.951
98.3715
91.6617
83.7942
74.8148
64.8589
54.1577
43.0328
31.8767
21.1214
11.1981
2.4935
-4.69198
-10.1778
-13.9234
-16.0324
-16.7393
-16.381
-15.3574
-14.0844
-12.9483
-12.2651
-12.2506
-13.0043
-14.5084
-16.641
-19.2009
-21.9403
-24.6006
-26.9466
-28.7944
-30.0319
-30.6266
-30.6242
-30.1366
-29.3219
-28.3604
-27.4298
-26.6812
-26.2211
-26.0998
-26.3074
-26.7774
-27.3979
-28.0266
-28.5099
-28.7018
-28.4813
-27.7655
-26.518
-24.751
-22.521
-19.9196
-17.0606
-14.0647
-11.0458
-8.09866
-5.29181
-2.66557
-0.235094
2.00217
4.05624
5.93374
7.62834
9.11435
10.3448
11.2545
11.7676
11.8091
11.3178
10.2602
8.64091
6.51008
3.96519
1.1468
-1.77128
-4.59666
-7.13611
-9.21429
-10.6912
-11.4764
-11.5376
-10.9035
-9.65977
-7.93901
-5.90593
-3.7397
-1.61554
0.312102
1.92289
3.1391
3.92852
4.30191
4.30565
4.01108
3.50216
2.8632
2.1683
1.47372
0.813843
0.201037
-0.371184
-0.922317
-1.47756
-2.06025
-2.68519
-3.3538
-4.05174
-4.74895
-5.40227
-5.95971
-6.36594
-6.56824
-6.52193
-6.19496
-5.57097
-4.65053
-3.45049
-2.00142
-0.343375
1.4795
3.4249
5.45795
7.55563
9.70905
11.923
14.2126
16.5969
19.0911
21.6968
24.3943
27.1358
29.8429
32.4079
34.6995
36.5728
37.8816
38.4922
38.2974
37.2282
35.2635
32.4359
28.834
24.5997
19.9215
15.0224
10.1432
5.52159
1.36864
-2.15445
-4.95637
-7.02836
-8.4467
-9.36286
-9.9817
-10.5296
-11.2173
-12.2024
-13.5578
-15.2519
-17.1427
-18.9881
-20.4702
-21.2313
-20.915
-19.2104
-15.8929
-10.8617
-4.17101
3.94323
13.0441
22.4839
31.4112
38.8008
43.5169
44.4118
40.4584
30.9057
15.4359
-5.70333
-31.6201
-60.7763
-91.0765
-120.046
-145.083
-163.749
-174.069
-174.785
-165.534
-146.921
-120.475
-88.4863
-53.7588
-19.294
12.0381
37.8069
56.2667
66.5129
68.5327
63.1493
51.8729
36.6809
19.7602
19.7602
19.7602
19.7602
19.7602
19.7602
19.7602
19.7602
19.7602
19.7602
19.7602
19.7602
19.7602
19.7602
19.7602
19.7602
19.7602
19.7602
19.7602
19.7602
19.7602
