58.5299
64.0622
67.7133
68.2764
64.5369
55.431
40.2143
18.6191
-9.02521
-41.7268
-77.8375
-115.135
-150.984
-182.55
-207.071
-222.128
-225.906
-217.41
-196.602
-164.446
-122.852
-74.5192
-22.7062
29.0667
77.3319
118.983
151.54
173.352
183.703
182.838
171.88
152.678
127.591
99.2298
70.203
42.8741
19.167
0.432564
-12.6143
-19.8852
-21.8445
-19.386
-13.6783
-6.00112
2.40761
10.4767
17.3867
22.6093
25.9043
27.279
26.9242
25.1371
22.2478
18.5564
14.2909
9.58718
4.49064
-1.02514
-7.02926
-13.601
-20.8003
-28.6463
-37.1058
-46.0913
-55.4668
-65.0587
-74.6661
-84.0695
-93.0347
-101.313
-108.635
-114.713
-119.235
-121.877
-122.319
-120.275
-115.527
-107.962
-97.6077
-84.6474
-69.4179
-52.376
-34.0318
-14.8569
4.82344
24.9326
45.7151
67.7551
91.9226
119.238
150.666
186.853
227.858
272.916
320.278
367.187
409.998
444.463
466.154
470.984
455.764
418.707
359.818
281.095
186.504
81.7069
-26.4202
-130.439
-223.09
-298.029
-350.477
-377.697
-379.241
-356.939
-314.647
-257.762
-192.607
-125.723
-63.1882
-10.0259
30.2297
55.7673
66.5187
63.978
50.8583
30.6391
7.06845
-16.3149
-36.5845
-51.7109
-60.7046
-63.6139
-61.3885
-55.6407
-48.3408
-41.4903
-36.8163
-35.522
-38.1223
-44.3781
-53.3337
-63.4468
-72.7912
-79.3066
-81.0625
-76.5049
-64.6576
-45.2556
-18.7956
13.4988
49.7924
87.82
125.112
159.236
188.036
209.828
223.549
228.835
226.019
216.071
200.465
181.008
159.651
138.29
118.594
101.866
88.9543
80.2093
75.4962
74.2478
75.5517
78.26
81.1097
82.8446
82.3281
78.6409
71.1586
59.6031
44.068
25.0146
3.24121
-20.1748
-43.9573
-66.7296
-87.124
-103.893
-116.015
-122.782
-123.864
-119.348
-109.738
-95.9288
-79.1483
-60.869
-42.6996
-26.2566
-13.0282
-4.23641
-0.712513
-2.79624
-10.2719
-22.3525
-37.7197
-54.6221
-71.0287
-84.8266
-94.0438
-97.0734
-92.8719
-81.1038
-62.2114
-37.3962
-8.50923
22.1376
52.0175
78.6622
99.9268
114.214
120.63
119.051
110.105
95.0593
75.6497
53.8593
31.6893
10.9442
-6.94311
-21.0269
-30.8967
-36.6577
-38.8512
-38.3317
-36.118
-33.2403
-30.602
-28.872
-28.4183
-29.2868
-31.2251
-33.7429
-36.2015
-37.9165
-38.2614
-36.7582
-33.143
-27.3974
-19.7393
-10.5712
-0.390171
10.3326
21.2847
32.438
44.1381
57.1363
72.5409
91.6815
115.892
146.231
183.189
226.408
274.497
324.961
374.294
418.245
452.228
471.85
473.48
454.775
415.096
355.735
279.915
192.544
99.7573
8.29461
-75.21
-144.927
-196.437
-227.16
-236.569
-226.154
-199.16
-160.137
-114.368
-67.2556
-23.7382
12.1857
37.7788
51.703
53.9744
45.7595
29.0569
6.3214
-19.9109
-47.3444
-74.1527
-99.0932
-121.505
-141.21
-158.335
-173.118
-185.712
-196.049
-203.767
-208.229
-208.621
-204.101
-193.985
-177.919
-156.017
-128.93
-97.8284
-64.3073
-30.2225
2.52361
32.2076
57.4898
77.5677
92.253
101.962
107.622
110.508
112.033
113.539
116.096
120.371
126.556
134.389
143.235
152.237
160.482
167.17
171.741
173.95
173.87
171.828
168.289
163.712
158.413
152.466
145.647
137.467
127.259
114.323
98.098
78.325
55.1787
29.3307
1.93544
-25.4652
-51.1062
-73.2092
-90.2062
-100.942
-104.826
-101.909
-92.8729
-78.9436
-61.7284
-43.0165
-24.564
-7.8992
5.82841
15.9356
22.2235
24.9308
24.635
22.1232
18.2546
13.8369
9.534
5.81478
2.94594
1.02299
0.0278452
-0.102846
0.585256
2.10772
4.5564
8.08292
12.8537
18.9849
26.4675
35.098
44.4255
53.7291
62.034
68.1712
70.8798
68.9436
61.3476
47.4371
27.0557
0.644006
-30.719
-65.3444
-101.035
-135.256
-165.358
-188.838
-203.599
-208.188
-201.972
-185.237
-159.194
-125.88
-87.9728
-48.5412
-10.7483
22.4471
48.5656
65.8265
73.2923
70.9278
59.5733
40.8444
16.9755
-9.37076
-35.3052
-57.9098
-74.4187
-82.3811
-79.8053
-65.2908
-38.1488
1.48976
52.5854
113.138
180.19
249.908
317.757
378.778
427.959
460.673
473.142
462.87
428.997
372.497
296.211
204.673
103.746
0.103197
-99.3892
-188.32
-261.331
-314.597
-346.129
-355.871
-345.588
-318.561
-279.146
-232.239
-182.745
-135.083
-92.8077
-58.3649
-33.0053
-16.844
-9.04318
-8.07775
-12.04
-18.9392
-26.9573
-34.6363
-40.9815
-45.4828
-48.0637
-48.9793
-48.6849
-47.7017
-46.4978
-45.4007
-44.5499
-43.8904
-43.2023
-42.1576
-40.393
-37.585
-33.5179
-28.1336
-21.5601
-14.1131
-6.27149
1.37118
8.17595
13.5417
16.9947
18.2751
17.4095
14.7599
11.0391
7.28533
4.79208
4.9954
9.32566
19.0384
35.0429
57.7515
86.9698
121.848
160.9
202.102
243.053
281.187
314.013
339.362
355.592
361.758
357.692
344.015
322.059
293.714
261.231
226.982
193.227
161.903
134.457
111.753
94.0477
81.0314
71.9405
65.7053
61.1209
57.0163
52.3994
46.5627
39.1389
30.1055
19.7424
8.55398
-2.82808
-13.7467
-23.6085
-31.9487
-38.4645
-43.015
-45.5919
-46.2715
-45.1581
-42.3341
-37.8274
-31.6047
-23.5916
-13.718
-1.97877
11.5024
26.4198
42.2561
58.2851
73.611
87.2416
98.1864
105.567
108.723
107.3
101.305
91.1137
77.4446
61.2821
43.7742
26.1114
9.40499
-5.41882
-17.698
-27.0767
-33.5088
-37.2245
-38.6686
-38.4195
-37.1016
-35.3027
-33.5065
-32.0487
-31.1008
-30.6834
-30.7061
-31.0267
-31.521
-32.1476
-32.9968
-34.3097
-36.4576
-39.8797
-44.98
-51.9929
-60.835
-70.9654
-81.2794
-90.0643
-95.0403
-93.5035
-82.5775
-59.5679
-22.3907
29.9691
97.0345
176.526
264.242
354.189
439
510.607
561.128
583.838
574.097
530.092
453.272
348.379
223.077
87.1893
-48.3413
-172.649
-276.13
-351.466
-394.36
-403.901
-382.513
-335.528
-270.438
-195.948
-120.949
-53.5403
-0.214062
34.7086
49.3534
44.2676
22.124
-12.7841
-55.1806
-99.4889
-140.474
-173.777
-196.284
-206.311
-203.601
-189.159
-164.959
-133.582
-97.8346
-60.4003
-23.5565
11.01
42.2852
69.91
94.0823
115.404
134.705
152.867
170.682
188.75
207.426
226.822
246.84
267.235
287.683
307.848
327.427
346.182
363.934
380.552
395.914
409.862
422.161
432.462
440.284
445.02
445.96
442.35
433.457
418.66
397.531
369.918
335.994
296.282
251.638
203.194
152.268
100.253
48.4968
-1.80795
-49.7076
-94.5372
-135.929
-173.779
-208.186
-239.363
-267.552
-292.947
-315.635
-335.574
-352.596
-366.441
-376.807
-383.402
-385.995
-384.457
-378.776
-369.06
-355.521
-338.451
-318.194
-295.121
-269.62
-242.082
-212.909
-182.516
-151.35
-119.89
-88.6568
-58.2047
-29.1088
-1.94167
22.7558
44.5086
62.9402
77.8021
88.9944
96.575
100.757
101.893
100.445
96.9486
91.9702
86.0598
79.7087
73.3127
67.1462
61.3501
55.9351
50.8013
45.7714
40.6338
35.1908
29.3036
22.9301
16.1475
9.15775
2.27353
-4.11318
-9.5763
-13.7085
-16.1748
-16.7591
-15.3982
-12.1986
-7.43348
-1.52091
5.0132
11.5839
17.6021
22.5313
25.9444
27.5797
27.3982
25.6428
22.8968
20.1345
18.7474
20.5247
27.5636
42.0893
66.1761
101.384
148.348
206.383
273.184
344.708
415.304
478.12
525.777
551.237
548.745
514.718
448.419
352.307
231.987
95.7487
-46.2585
-183.109
-304.299
-400.906
-466.554
-498.063
-495.708
-463.065
-406.466
-334.158
-255.271
-178.743
-112.322
-61.7867
-30.4475
-18.9863
-25.6265
-46.5885
-76.7519
-110.425
-142.114
-167.195
-182.411
-186.145
-178.452
-160.875
-136.082
-107.391
-78.262
-51.8182
-30.4661
-15.6484
-7.75477
-6.18541
-9.54393
-15.9196
-23.2107
-29.4389
-33.0105
-32.8919
-28.6842
-20.5953
-9.32669
4.09844
18.5333
32.8972
46.3288
58.2826
68.5596
77.274
84.7685
91.4951
97.8855
104.232
110.595
116.758
122.223
126.261
128
126.546
121.12
111.194
96.6132
77.6798
55.1925
30.4259
5.04713
-19.0262
-39.8152
-55.4982
-64.6313
-66.3458
-60.4934
-47.7171
-29.4333
-7.71889
14.8852
35.6377
51.8947
61.4075
62.5821
54.6685
37.855
13.2562
-17.2023
-50.9895
-85.2368
-117.037
-143.738
-163.194
-173.954
-175.352
-167.515
-151.269
-127.978
-99.3417
-67.1686
-33.1806
1.14486
34.6659
66.596
96.4578
123.986
149.005
171.309
190.571
206.301
217.871
224.594
225.847
221.218
210.649
194.531
173.748
149.641
123.903
98.4036
74.9818
55.229
40.2986
30.7704
26.5911
27.0978
31.1225
37.1575
43.5611
48.7692
51.4876
50.8369
46.4338
38.4007
27.3068
14.0519
-0.286902
-14.6218
-28.0089
-39.7694
-49.5611
-57.3916
-63.5739
-68.6323
-73.1727
-77.7371
-82.6596
-87.9455
-93.1875
-97.5333
-99.7113
-98.1221
-90.9917
-76.5837
-53.4519
-20.7084
21.728
72.9481
130.973
192.812
254.675
312.315
361.484
398.412
420.263
425.484
413.988
387.16
347.666
299.113
245.616
191.324
139.989
94.6191
57.2565
28.8992
9.5477
-1.6395
-6.12225
-5.72319
-2.37719
2.08645
6.11093
8.51965
8.56533
5.92674
0.663048
-6.86346
-16.0848
-26.3341
-36.9512
-47.376
-57.2211
-66.3137
-74.7039
-82.6341
-90.4746
-98.63
-107.431
-117.025
-127.295
-137.801
-147.793
-156.261
-162.055
-164.028
-161.211
-152.97
-139.132
-120.054
-96.6261
-70.1897
-42.3985
-15.022
10.2751
32.1485
49.7545
62.8672
71.9143
77.923
82.3811
87.0314
93.6256
103.671
118.201
137.608
161.541
188.912
217.974
246.495
271.983
291.953
304.199
307.034
299.487
281.421
253.569
217.472
175.341
129.848
83.867
40.2075
1.35297
-30.7572
-54.8832
-70.5626
-78.1057
-78.5109
-73.314
-64.3912
-53.7387
-43.256
-34.5549
-28.8145
-26.6939
-28.3105
-33.2781
-40.799
-49.7936
-59.0498
-67.3735
-73.7232
-77.3138
-77.6819
-74.7092
-68.6047
-59.8544
-49.1479
-37.2918
-25.1234
-13.4342
-2.9089
5.914
12.6621
17.1312
19.2751
19.1892
17.0923
13.3097
8.25759
2.42598
-3.64354
-9.39024
-14.2786
-17.8532
-19.7983
-19.9921
-18.544
-15.8022
-12.3263
-8.82067
-6.03432
-4.64089
-5.11557
-7.63151
-11.9964
-17.6452
-23.6971
-29.0717
-32.6494
-33.4522
-30.8129
-24.5065
-14.8172
-2.52807
11.1676
24.8252
36.9536
46.2399
51.7616
53.1571
50.7342
45.5009
39.1168
33.7702
31.9918
36.4212
49.5428
73.407
109.355
157.763
217.836
287.471
363.228
440.435
513.453
576.097
622.195
646.229
643.997
613.182
553.778
468.259
361.479
240.288
112.905
-11.8901
-125.621
-220.955
-292.397
-336.766
-353.401
-344.085
-312.712
-264.745
-206.548
-144.675
-85.1959
-33.1399
7.89536
35.9402
50.6507
53.1287
45.6043
31.0314
12.6535
-6.40837
-23.499
-36.6723
-44.819
-47.676
-45.7316
-40.0498
-32.0433
-23.2286
-14.993
-8.40051
-4.05391
-2.02608
-1.86223
-2.64968
-3.14406
-1.93623
2.35976
10.919
24.5388
43.511
67.5463
95.759
126.715
158.538
189.07
216.067
237.421
251.38
256.754
253.078
240.702
220.812
195.356
166.878
138.271
112.477
92.1612
79.3894
75.3693
80.2739
93.1835
112.158
134.438
156.746
175.667
188.048
191.375
184.071
165.691
136.978
99.7833
56.857
11.5395
-32.6052
-72.1727
-104.27
-126.796
-138.624
-139.668
-130.829
-113.841
-91.0365
-65.0611
-38.5805
-14.0061
6.72647
22.308
32.1226
36.233
35.293
30.4043
22.9429
14.3773
6.10384
-0.683755
-5.07966
-6.50272
-4.69013
0.341535
8.35355
18.9461
31.6105
45.7651
60.7721
75.9394
90.5156
103.689
114.604
122.395
126.252
125.498
119.683
108.666
92.6741
72.3315
48.6335
22.8776
-3.44928
-28.8141
-51.7918
-71.2109
-86.2718
-96.6204
-102.369
-104.063
-102.596
-99.0918
-94.7619
-90.766
-88.0852
-87.4282
-89.1762
-93.3722
-99.7507
-107.802
-116.86
-126.197
-135.122
-143.059
-149.606
-154.561
-157.908
-159.768
-160.3
-159.574
-157.416
-153.256
-146.021
-134.101
-115.442
-87.7833
-49.0341
2.24419
66.3264
141.882
225.711
312.737
396.32
468.869
522.71
551.071
549.055
514.446
448.202
354.554
240.679
115.98
-8.94183
-123.468
-218.158
-285.786
-322.092
-326.167
-300.412
-250.119
-182.721
-106.842
-31.2464
36.1399
89.0579
123.477
137.856
133.082
112.138
79.5441
40.6731
1.02749
-34.4262
-61.7922
-78.5961
-83.927
-78.3741
-63.7876
-42.9104
-18.9407
4.9139
25.8352
41.7012
51.2739
54.2581
51.2384
43.5159
32.8757
21.3222
10.8188
3.06167
-0.686707
0.307849
6.23166
16.7719
31.2187
48.601
67.834
87.8584
107.754
126.815
144.587
160.859
175.625
189.016
201.229
212.445
222.764
232.158
240.44
247.264
252.142
254.486
253.662
249.057
240.159
226.618
208.314
185.399
158.309
127.759
94.7007
60.2612
25.6595
-7.87832
-39.202
-67.3047
-91.3691
-110.79
-125.175
-134.328
-138.227
-136.998
-130.907
-120.346
-105.85
-88.1037
-67.9529
-46.4053
-24.6091
-3.8093
14.7213
29.7709
40.2879
45.4796
44.8965
38.4913
26.6443
10.1507
-9.82944
-31.8558
-54.3183
-75.5657
-94.0401
-108.406
-117.664
-121.237
-119.018
-111.385
-99.166
-83.5633
-66.0472
-48.2203
-31.6721
-17.8354
-7.86033
-2.51778
-2.14094
-6.60877
-15.3702
-27.5036
-41.8024
-56.8772
-71.2636
-83.5269
-92.3575
-96.6512
-95.5744
-88.6106
-75.5909
-56.707
-32.5076
-3.87701
28.0027
61.7074
95.6425
128.129
157.499
182.205
200.924
212.663
216.856
213.44
202.907
186.329
165.348
142.129
119.282
99.7435
86.627
83.0376
91.847
115.432
155.381
212.195
284.997
371.327
467.053
566.457
662.543
747.557
813.697
853.932
862.841
837.341
777.208
685.281
567.324
431.523
287.673
146.17
16.9092
-91.7456
-173.798
-226.152
-248.78
-244.517
-218.525
-177.513
-128.832
-79.5602
-35.7175
-1.68208
20.1185
29.2306
26.9344
15.7995
-0.882
-19.6931
-37.6307
-52.5151
-63.2218
-69.7205
-72.9337
-74.4539
-76.1759
-79.907
-87.0195
-98.1934
-113.285
-131.329
-150.676
-169.222
-184.705
-195.021
-198.502
-194.136
-181.686
-161.711
-135.472
-104.766
-71.6913
-38.397
-6.83812
21.4243
45.3592
64.5249
79.0507
89.5505
96.9846
102.494
107.23
112.197
118.136
125.449
134.171
143.992
154.316
164.344
173.164
179.85
183.53
183.453
179.033
169.867
155.762
136.739
113.046
85.1623
53.8033
19.9089
-15.3801
-50.7667
-84.8652
-116.287
-143.742
-166.137
-182.674
-192.925
-196.866
-194.89
-187.769
-176.584
-162.624
-147.273
-131.887
-117.684
-105.657
-96.5086
-90.6286
-88.1058
-88.7709
-92.2654
-98.1245
-105.86
-115.026
-125.265
-136.308
-147.953
-159.998
-172.167
-184.027
-194.933
-204.003
-210.15
-212.171
-208.883
-199.295
-182.788
-159.275
-129.306
-94.1032
-55.5068
-15.8366
22.3227
56.3829
84.0275
103.466
113.632
114.299
106.099
90.4484
69.3761
45.2988
20.7553
-1.86013
-20.5347
-33.8191
-40.9367
-41.812
-37.0203
-27.6705
-15.2375
-1.36948
12.3087
24.3715
33.7308
39.7239
42.145
41.2235
37.5587
32.0249
25.6687
19.616
15.0069
12.9669
14.611
21.0679
33.4973
53.0704
80.8846
117.797
164.178
219.622
282.664
350.577
419.329
483.741
537.883
575.67
591.6
581.518
543.288
477.262
386.459
276.404
154.642
29.997
-88.343
-191.781
-273.187
-327.593
-352.617
-348.6
-318.425
-267.091
-201.076
-127.605
-53.8785
13.6169
69.6708
110.723
135.028
142.612
135.051
115.107
86.2861
52.371
16.9869
-16.7571
-46.5152
-70.8288
-89.1244
-101.603
-109.046
-112.572
-113.383
-112.529
-110.733
-108.275
-104.982
-100.277
-93.322
-83.1893
-69.0659
-50.4382
-27.2372
0.082359
30.5423
62.7225
94.9146
125.326
152.309
174.575
191.374
202.596
208.797
211.13
211.191
210.809
211.802
215.728
223.673
236.094
252.742
272.666
294.31
315.673
334.522
348.638
356.057
355.278
345.435
326.388
298.751
263.838
223.537
180.138
136.115
93.9046
55.6881
23.2103
-2.35288
-20.4643
-31.2301
-35.3401
-33.9549
-28.5553
-20.771
-12.2102
-4.3076
1.79551
5.32648
5.91009
3.55151
-1.41934
-8.43098
-16.7679
-25.6688
-34.4131
-42.3871
-49.1236
-54.3148
-57.8021
-59.5485
-59.6022
-58.0609
-55.0421
-50.6673
-45.0574
-38.3422
-30.6765
-22.2584
-13.3435
-4.24916
4.65244
12.9555
20.2521
26.1699
30.4112
32.7857
33.232
31.8225
28.7507
24.3024
18.8141
12.6274
6.04707
-0.688148
-7.41783
-14.0518
-20.545
-26.8613
-32.935
-38.6397
-43.7733
-48.063
-51.1935
-52.8533
-52.7927
-50.8815
-47.1571
-41.8517
-35.3904
-28.3608
-21.4517
-15.3718
-10.753
-8.05231
-7.4593
-8.81898
-11.5763
-14.7488
-16.9337
-16.3573
-10.9744
1.37445
22.7445
54.8125
98.5631
153.968
219.705
292.979
369.498
443.661
508.96
558.607
586.296
587.026
557.852
498.457
411.423
302.162
178.471
49.7741
-73.8671
-182.841
-269.032
-326.685
-352.98
-348.243
-315.785
-261.397
-192.573
-117.589
-44.5385
19.5283
69.2869
101.554
115.415
112.073
94.4624
66.6953
33.431
-0.749825
-31.8864
-57.0382
-74.5082
-83.8827
-85.902
-82.1976
-74.9456
-66.4888
-58.9798
-54.0901
-52.8154
-55.3938
-61.3353
-69.5498
-78.546
-86.6694
-92.3436
-94.2842
-91.658
-84.1729
-72.0911
-56.1712
-37.5526
-17.6006
2.26269
20.7208
36.6967
49.4461
58.6001
64.1595
66.4459
66.0206
63.5874
59.892
55.6329
51.3908
47.5851
44.4555
42.0667
40.333
39.0545
37.9595
36.749
35.1366
32.8832
29.8223
25.877
21.0667
15.5054
9.39141
2.99073
-3.3846
-9.40114
-14.7296
-19.0691
-22.17
-23.8523
-24.0216
-22.6811
-19.9396
-16.0146
-11.23
-6.00619
-0.840284
3.7233
7.13407
8.88669
8.5792
5.9727
1.04478
-5.97228
-14.5769
-24.0136
-33.3206
-41.4079
-47.1602
-49.5513
-47.7606
-41.274
-29.9576
-14.0951
5.61913
28.1284
52.1
76.0378
98.4099
117.775
132.898
142.843
147.036
145.301
137.855
125.285
108.493
88.6248
66.9839
44.9425
23.8483
4.93706
-10.7459
-22.4116
-29.5767
-32.0949
-30.1661
-24.3243
-15.4011
-4.46578
7.25555
18.479
27.9726
34.6679
37.7629
36.8047
31.7418
22.9363
11.1351
-2.60218
-17.0097
-30.7451
-42.5278
-51.2677
-56.1655
-56.7696
-52.9759
-44.9662
-33.0905
-17.711
0.960896
22.9944
48.7918
79.0298
114.475
155.691
202.681
254.543
309.225
363.455
412.897
452.541
477.293
482.677
465.542
424.652
361.059
278.183
181.57
78.3577
-23.489
-116.065
-192.416
-247.311
-277.798
-283.477
-266.458
-231.02
-183.031
-129.209
-76.3107
-30.3713
3.93402
23.7268
28.1219
18.1745
-3.40031
-32.6872
-65.1414
-96.1941
-121.815
-138.967
-145.902
-142.272
-129.065
-108.36
-82.9792
-56.0551
-30.5969
-9.10047
6.74539
16.2246
19.6174
18.0871
13.4553
7.90207
3.63727
2.58909
6.15122
15.0186
29.1279
47.7037
69.3962
92.4869
115.128
135.587
152.451
164.789
172.23
174.97
173.704
169.503
163.647
157.453
152.102
148.502
147.196
148.316
151.605
156.47
162.086
167.509
171.803
174.155
173.955
170.855
164.781
155.901
144.56
131.193
116.213
99.9211
82.4342
63.657
43.3065
20.9878
-3.68487
-30.9414
-60.7071
-92.4798
-125.26
-157.553
-187.461
-212.847
-231.573
-241.768
-242.091
-231.955
-211.672
-182.488
-146.504
-106.486
-65.5869
-27.0107
6.33439
32.1497
48.9871
56.3883
54.9042
45.996
31.831
15.0026
-1.78982
-16.0604
-25.8161
-29.7633
-27.4207
-19.1266
-5.94854
10.4916
28.2477
45.3042
59.8229
70.3506
75.9653
76.3483
71.7765
63.0444
51.3293
38.021
24.54
12.1673
1.9055
-5.61412
-10.1715
-11.9447
-11.45
-9.4473
-6.82705
-4.49309
-3.25774
-3.76001
-6.41385
-11.3888
-18.6201
-27.8431
-38.6428
-50.5088
-62.8866
-75.2145
-86.9382
-97.4983
-106.289
-112.594
-115.514
-113.909
-106.377
-91.302
-66.9948
-31.9288
14.9415
73.8166
143.704
222.164
305.21
387.444
462.42
523.248
563.358
577.329
561.679
515.465
440.618
341.926
226.653
103.83
-16.71
-125.417
-214.102
-276.852
-310.665
-315.723
-295.262
-255.076
-202.707
-146.456
-94.3345
-53.1037
-27.5206
-19.8782
-29.8852
-54.8802
-90.3329
-130.548
-169.468
-201.463
-222.015
-228.211
-219.002
-195.218
-159.351
-115.156
-67.1232
-19.9153
22.1882
55.752
78.5182
89.5794
89.3869
79.6063
62.8495
42.3225
21.4346
3.41408
-9.02835
-13.9557
-10.3595
1.79699
21.6427
47.5553
77.3875
108.732
139.195
166.643
189.407
206.409
217.216
222.013
221.505
216.766
209.055
199.632
189.592
179.735
170.503
161.969
153.885
145.775
137.058
127.168
115.67
102.338
87.1897
70.4822
52.6662
34.3113
16.0208
-1.64846
-18.2473
-33.4641
-47.1215
-59.1442
-69.5055
-78.1692
-85.0396
-89.9344
-92.586
-92.6766
-89.8988
-84.0342
-75.0335
-63.0832
-48.644
-32.4505
-15.4674
1.19488
16.3961
29.0977
38.4912
44.1037
45.862
44.1037
39.5305
33.1092
25.9336
19.068
13.396
9.4998
7.5864
7.47457
8.64263
10.3294
11.6712
11.8532
10.2502
6.53512
0.739526
-6.74331
-15.2114
-23.7543
-31.3842
-37.1787
-40.4137
-40.6691
-37.8916
-32.4091
-24.8944
-16.285
-7.66852
-0.151176
5.27682
7.86007
7.16754
3.14187
-3.89706
-13.2944
-24.1423
-35.3912
-45.9756
-54.9386
-61.5389
-65.328
-66.1862
-64.3159
-60.1906
-54.4662
-47.8652
-41.0424
-34.4468
-28.1914
-21.9441
-14.8528
-5.52347
7.93482
27.7798
56.411
96.0505
148.348
213.952
292.107
380.352
474.412
568.316
654.812
726.025
774.325
793.274
778.535
728.592
645.168
533.254
400.731
257.622
115.058
-15.9131
-125.509
-206.253
-253.725
-266.953
-248.392
-203.505
-140.023
-66.9722
6.39074
71.6175
121.947
152.934
162.772
152.278
124.586
84.5793
38.171
-8.48411
-49.7446
-81.1172
-99.7079
-104.451
-96.1098
-77.0581
-50.8958
-21.942
5.32298
26.8023
39.2533
40.6365
30.3123
9.0713
-20.9941
-56.7552
-94.4139
-129.928
-159.445
-179.706
-188.365
-184.205
-167.226
-138.599
-100.496
-55.8261
-7.89571
39.9441
84.6411
123.726
155.51
179.178
194.769
203.058
205.362
203.291
198.504
192.473
186.311
180.669
175.71
171.162
166.432
160.757
153.369
143.647
131.234
116.102
98.5653
79.2339
58.93
38.5747
19.0673
1.17325
-14.5624
-27.8667
-38.7497
-47.4754
-54.4997
-60.3836
-65.697
-70.9264
-76.3986
-82.2319
-88.3185
-94.3424
-99.8253
-104.196
-106.874
-107.347
-105.251
-100.422
-92.9233
-83.0523
-71.3123
-58.3652
-44.965
-31.8844
-19.8403
-9.42879
-1.07569
4.9928
8.75647
10.3859
10.2084
8.66115
6.23604
3.42532
0.672322
-1.66708
-3.34907
-4.25157
-4.36937
-3.79714
-2.70357
-1.30053
0.188565
1.55764
2.64119
3.3298
3.57733
3.3997
2.86655
2.08742
1.19455
0.324646
-0.398483
-0.87843
-1.05677
-0.918917
-0.495117
0.143047
0.889981
1.61636
2.18156
2.44776
2.29549
1.64076
0.454045
-1.21903
-3.23541
-5.33171
-7.1014
-7.97354
-7.19468
-3.81692
3.30274
15.4835
34.1708
60.8399
96.8432
143.191
200.281
267.592
343.411
424.629
506.712
583.864
649.443
696.599
719.064
712.012
672.836
601.724
501.922
379.617
243.43
103.577
-29.2075
-144.832
-234.955
-293.875
-319.111
-311.577
-275.369
-217.173
-145.416
-69.2329
2.56939
62.4661
104.951
126.991
128.165
110.482
77.9389
35.8668
-9.81422
-53.3559
-89.8551
-115.768
-129.212
-130.045
-119.714
-100.926
-77.1901
-52.2943
-29.7941
-12.5711
-2.51285
-0.344962
-5.62233
-16.8691
-31.8367
-47.8369
-62.1032
-72.1321
-75.9646
-72.3785
-60.9778
-42.1765
-17.0906
12.6403
45.0734
78.1923
110.118
139.279
164.516
185.127
200.849
211.777
218.263
220.794
219.877
215.954
209.359
200.304
188.921
175.317
159.647
142.183
123.355
103.771
84.1879
65.4566
48.4358
33.8922
22.4038
14.2789
9.50668
7.7463
8.358
10.4731
13.0936
15.2092
15.9147
14.514
10.5969
4.07857
-4.80086
-15.5165
-27.331
-39.3896
-50.824
-60.8521
-68.8615
-74.4673
-77.5387
-78.1929
-76.7597
-73.7235
-69.6512
-65.1157
-60.6247
-56.5633
-53.1534
-50.4345
-48.2645
-46.3386
-44.2246
-41.4082
-37.3483
-31.5353
-23.5498
-13.1181
-0.157628
15.1892
32.5392
51.2716
70.553
89.3844
106.668
121.291
132.219
138.597
139.837
135.697
126.328
112.289
94.5239
74.2922
53.0715
32.4263
13.8655
-1.29994
-12.0812
-17.9045
-18.6616
-14.7118
-6.83629
3.8497
16.016
28.2543
39.2168
47.7435
52.9636
54.3645
51.8237
45.6036
36.3156
24.8606
12.3573
0.0683757
-10.6648
-18.4734
-21.9966
-19.9051
-10.9268
6.11028
32.1993
68.0244
113.779
168.944
232.07
300.601
370.819
437.948
496.454
540.547
564.814
564.938
538.36
484.798
406.517
308.284
197
81.0445
-30.602
-129.322
-207.803
-260.821
-285.771
-282.884
-255.093
-207.604
-147.209
-81.4521
-17.7576
37.3793
79.0362
104.279
112.316
104.384
83.4155
53.5242
19.4083
-14.266
-43.415
-64.965
-77.1143
-79.4147
-72.6788
-58.7425
-40.1257
-19.6427
-0.0164755
16.4569
28.1574
34.2823
34.8731
30.7393
23.2958
14.3448
5.83138
-0.396485
-2.79829
-0.300638
7.60596
20.8384
38.7581
60.265
83.9341
108.178
131.414
152.224
169.476
182.42
190.725
194.474
194.112
190.367
184.139
176.389
168.028
159.826
152.346
145.907
140.576
136.194
132.41
128.746
124.656
119.596
113.078
104.729
94.318
81.7838
67.2315
50.9207
33.2343
14.6377
-4.37066
-23.3077
-41.7504
-59.3683
-75.9407
-91.3548
-105.586
-118.658
-130.601
-141.395
-150.929
-158.971
-165.166
-169.058
-170.139
-167.923
-162.029
-152.258
-138.666
-121.596
-101.685
-79.8307
-57.1237
-34.7503
-13.8845
4.42225
19.3388
30.3256
37.1736
40.0057
39.2426
35.5388
29.6972
22.5746
14.9884
7.63707
1.0413
-4.48754
-8.85013
-12.1345
-14.5681
-16.4547
-18.1041
-19.7654
-21.572
-23.5079
-25.3981
-26.927
-27.6807
-27.209
-25.0988
-21.0476
-14.9284
-6.83445
2.90258
13.7258
24.8979
35.5742
44.8947
52.0852
56.5529
57.9633
56.2859
51.801
45.0637
36.8319
27.968
19.3359
11.715
5.75439
1.98313
0.877508
2.97221
8.98194
19.8895
36.9526
61.5937
95.1579
138.558
191.864
253.908
322.018
391.952
458.099
513.96
552.869
568.859
557.539
516.85
447.562
353.408
240.84
118.399
-4.21121
-117.213
-211.878
-281.515
-322.202
-333.165
-316.763
-278.091
-224.27
-163.515
-104.116
-53.469
-17.2581
1.10106
0.711993
-16.8734
-48.0173
-87.5858
-129.68
-168.408
-198.598
-216.376
-219.542
-207.719
-182.271
-146.018
-102.808
-56.9898
-12.8799
25.7285
55.9509
76.0578
85.564
85.1661
76.5484
62.0948
44.5503
26.6771
10.9476
-0.693264
-6.9766
-7.36126
-1.99507
8.39825
22.683
39.4993
57.4487
75.2553
91.8858
106.62
119.07
129.152
137.025
143.001
147.453
150.723
153.05
154.519
155.05
154.406
152.23
148.109
141.639
132.493
120.484
105.607
88.0573
68.2339
46.7097
24.1884
1.44609
-20.7322
-41.6154
-60.5797
-77.148
-91.0109
-102.03
-110.22
-115.725
-118.773
-119.641
-118.61
-115.94
-111.844
-106.484
-99.9749
-92.398
-83.8209
-74.3193
-63.9962
-52.9948
-41.5023
-29.7462
-17.9815
-6.47353
4.5212
14.7712
24.0806
32.2911
39.2779
44.9392
49.1851
51.9312
53.098
52.6217
50.4748
46.6935
41.4096
34.8774
27.4907
19.7813
12.3958
6.04802
1.45086
-0.766405
-0.143569
3.53401
10.1806
19.3869
30.4358
42.3559
54.0113
64.2157
71.8586
76.0276
76.1116
71.8708
63.4657
51.4395
36.658
20.2129
3.3031
-12.894
-27.3426
-39.248
-48.1234
-53.8186
-56.5078
-56.6396
-54.8558
-51.8856
-48.4256
-45.0128
-41.9016
-38.9557
-35.5666
-30.6192
-22.5193
-9.30557
11.1464
40.8269
81.2234
132.923
195.249
265.997
341.353
416.039
483.7
537.535
571.072
579.023
558.066
507.443
429.27
328.494
212.471
90.24
-28.4537
-134.223
-219.076
-277.266
-305.871
-305.009
-277.689
-229.33
-167.013
-98.5868
-31.7399
26.8414
72.1312
101.17
113.191
109.471
92.9523
67.7028
38.2923
9.17645
-15.8397
-33.9986
-43.8128
-45.1025
-38.8643
-27.005
-11.9881
3.55227
17.1769
26.9441
31.6152
30.7503
24.6923
14.456
1.54769
-12.254
-25.1224
-35.3852
-41.6832
-43.0741
-39.079
-29.6769
-15.2564
3.46074
25.5123
49.7927
75.1452
100.444
124.66
146.913
166.51
182.959
195.983
205.505
211.631
214.618
214.83
212.693
208.641
203.073
196.305
188.548
179.893
170.318
159.713
147.922
134.791
120.22
104.214
86.9177
68.6276
49.7911
30.9764
12.826
-4.00334
-18.9053
-31.3857
-41.1127
-47.9477
-51.9556
-53.3906
-52.6623
-50.285
-46.8183
-42.8055
-38.7193
-34.9184
-31.6228
-28.9064
-26.7099
-24.8679
-23.1481
-21.2944
-19.0708
-16.2973
-12.8765
-8.80677
-4.1809
0.827045
5.98556
11.0357
15.7228
19.8266
23.1841
25.7037
27.3685
28.2287
28.3845
27.9627
27.0912
25.8755
24.3805
22.6214
20.5647
18.1397
15.2578
11.8391
7.83895
3.27203
-1.77205
-7.12748
-12.5693
-17.8523
-22.7728
-27.2499
-31.4187
-35.7212
-40.976
-48.4047
-59.5953
-76.3869
-100.672
-134.127
-177.89
-232.24
-296.312
-367.915
-443.494
-518.279
-586.611
-642.448
-679.971
-694.225
-681.703
-640.784
-571.941
-477.719
-362.462
-231.862
-92.4015
49.2157
186.556
313.82
426.06
519.255
590.302
636.967
657.857
652.441
621.127
565.384
487.853
392.41
284.116
169.032
53.8827
-54.4179
-149.324
-225.245
-278.069
-305.581
-307.673
-286.359
-245.546
-190.613
-127.837
-63.7326
-4.39561
45.0874
81.0869
101.694
106.781
97.8581
77.7623
50.2231
19.3631
-10.8002
-36.7958
-56.0353
-67.0144
-69.3694
-63.7924
-51.8329
-35.617
-17.5285
0.108136
15.3029
26.6059
33.2255
35.0528
32.6004
26.871
19.1803
10.9601
3.5703
-1.85839
-4.53123
-4.03775
-0.340006
6.29083
15.3743
26.3374
38.6273
51.8021
65.5848
79.8764
94.7257
110.266
126.63
143.86
161.828
180.185
198.337
215.47
230.603
242.675
250.645
253.603
250.867
242.064
227.183
206.594
181.036
151.564
119.484
86.2523
53.3733
22.2963
-5.6845
-29.5115
-48.426
-62.0038
-70.1658
-73.161
-71.5264
-66.0273
-57.5845
-47.1939
-35.8479
-24.4623
-13.8176
-4.51656
3.03816
8.64606
12.2929
14.12
14.3832
13.4085
11.5489
9.14779
6.51334
3.90391
1.52552
-0.461955
-1.93339
-2.7868
-2.93574
-2.30923
-0.860237
1.41829
4.47327
8.17251
12.2926
16.5188
20.4606
23.6829
25.7506
26.2814
24.9984
21.7757
16.6682
9.92073
1.95359
-6.6749
-15.3245
-23.3417
-30.1315
-35.225
-38.3333
-39.3818
-38.5196
-36.1047
-32.6629
-28.8286
-25.2706
-22.6132
-21.3616
-21.838
-24.1378
-28.1098
-33.3631
-39.3011
-45.1796
-50.1823
-53.5063
-54.4464
-52.466
-47.2421
-38.6748
-26.8535
-11.9809
5.73673
26.2157
49.608
76.3705
107.256
143.205
185.127
233.604
288.538
348.833
412.173
474.971
532.534
579.457
610.207
619.835
604.697
563.088
495.67
405.616
298.441
181.522
63.362
-47.3005
-142.427
-215.539
-262.388
-281.366
-273.595
-242.713
-194.375
-135.552
-73.7089
-15.9711
31.6257
64.7203
80.9853
80.2332
64.2717
36.5401
1.58244
-35.5726
-70.0454
-97.6798
-115.492
-121.951
-117.059
-102.25
-80.1047
-53.9563
-27.4171
-3.90553
13.7742
23.7501
25.2632
18.6991
5.47434
-12.1975
-31.6224
-49.979
-64.6607
-73.5635
-75.2899
-69.2495
-55.655
-35.426
-10.022
18.7658
49.0337
78.9672
107.004
131.94
152.982
169.739
182.17
190.501
195.127
196.52
195.143
191.398
185.598
177.964
168.655
157.802
145.55
132.105
117.749
102.853
87.86
73.2497
59.4938
47.0023
36.0755
26.8686
19.3756
13.4366
8.76739
5.00927
1.78883
-1.21986
-4.24228
-7.36871
-10.5443
-13.5861
-16.2252
-18.1667
-19.1585
-19.0567
-17.877
-15.8225
-13.2821
-10.798
-9.00536
-8.55144
-10.0043
-13.7641
-19.9889
-28.546
-38.9973
-50.6222
-62.4781
-73.492
-82.5756
-88.7483
-91.2568
-89.6746
-83.9691
-74.5284
-62.1401
-47.9249
-33.2295
-19.4915
-8.08973
-0.200065
3.32982
2.07046
-3.94293
-14.2119
-27.8234
-43.5384
-59.9119
-75.4285
-88.6412
-98.2978
-103.444
-103.493
-98.2624
-87.9735
-73.2185
-54.9016
-34.1601
-12.2727
9.43787
29.6994
47.3766
61.5437
71.538
76.9936
77.8531
74.359
67.0286
56.616
44.0707
30.4988
17.1367
5.33954
-3.41208
-7.49606
-5.13747
5.57544
26.621
59.8949
106.968
168.758
245.146
334.603
433.9
537.997
640.184
732.504
806.458
853.93
868.197
844.899
782.806
684.249
555.122
404.442
243.502
84.7056
-59.7407
-179.137
-265.414
-313.944
-323.936
-298.38
-243.563
-168.228
-82.5041
3.27429
79.6885
139.186
176.75
190.233
180.331
150.248
105.086
51.0881
-5.19279
-57.6699
-101.372
-132.891
-150.601
-154.635
-146.66
-129.485
-106.579
-81.5595
-57.7247
-37.6751
-23.07
-14.5284
-11.6751
-13.3083
-17.6558
-22.6787
-26.3768
-27.0587
-23.5445
-15.2816
-2.36848
14.5085
34.208
55.3127
76.3279
95.8727
112.841
126.512
136.61
143.289
147.082
148.788
149.339
149.665
150.553
152.539
155.838
160.306
165.453
170.496
174.449
176.233
174.811
169.313
159.152
144.114
124.399
100.627
73.7914
45.1689
16.2009
-11.6472
-37.0263
-58.8313
-76.2992
-89.068
-97.1911
-101.107
-101.567
-99.5401
-96.0929
-92.274
-89.0067
-87.0054
-86.7218
-88.3247
-91.7126
-96.5528
-102.342
-108.478
-114.331
-119.314
-122.934
-124.835
-124.809
-122.806
-118.914
-113.334
-106.349
-98.2864
-89.4861
-80.2708
-70.9251
-61.6821
-52.7184
-44.1564
-36.0731
-28.5116
-21.4947
-15.0362
-9.14909
-3.84828
0.851853
4.9451
8.44438
11.3939
13.8797
16.0354
18.0414
20.1157
22.4951
25.4097
29.0517
33.5431
38.9074
45.0493
51.7469
58.6593
65.3495
71.3228
76.0742
79.1416
80.1568
78.8884
75.2699
69.4113
61.5913
52.2349
41.8803
31.1438
20.6912
11.2225
3.47474
-1.75929
-3.60354
-1.07707
6.9024
21.4693
43.6985
74.4235
113.994
162
217.01
276.381
336.218
391.513
436.515
465.296
472.48
454.027
407.955
334.88
238.266
124.304
1.42145
-120.541
-231.393
-321.744
-384.096
-413.723
-409.219
-372.633
-309.191
-226.639
-134.297
-41.9581
41.2186
107.698
152.309
172.665
169.228
145.039
105.157
55.907
4.03903
-44.095
-83.2436
-109.765
-121.898
-119.779
-105.232
-81.3707
-52.0893
-21.5022
6.58317
29.1055
44.0537
50.6143
49.1598
41.0969
28.605
14.3096
0.93128
-9.04407
-13.6405
-11.5861
-2.41139
13.5502
35.2517
61.0958
89.1466
117.366
143.842
166.994
185.721
199.487
208.338
212.839
213.959
212.9
210.91
209.09
208.226
208.667
210.267
212.395
214.013
213.818
210.422
202.554
189.252
170.028
144.963
114.752
80.6552
44.3869
7.94641
-26.589
-57.2792
-82.5196
-101.197
-112.788
-117.383
-115.646
-108.705
-98.0005
-85.1059
-71.5418
-58.6135
-47.285
-38.1056
-31.1964
-26.2947
-22.8476
-20.1411
-17.4439
-14.1453
-9.86823
-4.54075
1.58253
7.95235
13.804
18.2721
20.5246
19.8954
15.9985
8.80478
-1.32676
-13.6708
-27.2058
-40.7241
-52.967
-62.7676
-69.1823
-71.5946
-69.7789
-63.9177
-54.571
-42.6041
-29.0841
-15.1596
-1.93748
9.627
18.8157
25.2003
28.6596
29.3596
27.7059
24.2722
19.718
14.7055
9.82408
5.53254
2.12215
-0.295186
-1.77526
-2.50923
-2.77648
-2.88964
-3.13956
-3.74751
-4.83021
-6.38103
-8.26764
-10.243
-11.9641
-13.01
-12.8931
-11.0563
-6.85716
0.456617
11.7665
28.0803
50.4853
80.0412
117.603
163.585
217.686
278.629
343.973
410.057
472.129
524.683
561.991
578.776
570.946
536.257
474.823
389.352
285.062
169.261
50.6347
-61.6668
-159.034
-234.347
-282.753
-302.158
-293.384
-259.977
-207.695
-143.758
-75.9691
-11.8128
42.3492
81.8937
104.301
109.243
98.4039
75.0818
43.6289
8.8237
-24.7485
-53.2296
-73.8792
-85.2874
-87.4
-81.3712
-69.2789
-53.7523
-37.5666
-23.2604
-12.8215
-7.47523
-7.5905
-12.7053
-21.6545
-32.7739
-44.1458
-53.8502
-60.1901
-61.8649
-58.0756
-48.5586
-33.5521
-13.7068
10.0383
36.596
64.8666
93.8503
122.726
150.889
177.948
203.687
228.001
250.821
272.04
291.449
308.7
323.303
334.65
342.07
344.912
342.63
334.865
321.522
302.811
279.258
251.688
221.173
188.954
156.349
124.66
95.0826
68.6361
46.1127
28.0536
14.7464
6.2395
2.36806
2.78175
6.97098
14.2875
23.96
35.1087
46.7637
57.8944
67.4532
74.4375
77.9654
77.3598
72.2289
62.5318
48.6152
31.2127
11.4009
-9.4859
-29.9757
-48.6002
-64.0408
-75.2619
-81.6151
-82.9013
-79.3835
-71.7506
-61.0351
-48.4979
-35.4918
-23.3225
-13.1209
-5.74094
-1.69384
-1.12216
-3.8153
-9.26068
-16.7226
-25.3372
-34.2121
-42.5184
-49.5661
-54.8562
-58.1058
-59.2469
-58.4022
-55.8426
-51.9345
-47.0827
-41.6762
-36.0422
-30.4113
-24.898
-19.497
-14.0937
-8.48976
-2.43806
4.31477
11.9843
20.7074
30.5102
41.29
52.8168
64.7579
76.7296
88.3747
99.4644
110.015
120.403
131.46
144.511
161.335
184.007
214.628
254.947
305.905
367.204
436.945
511.466
585.431
652.206
704.516
735.304
738.683
710.833
650.7
560.379
445.097
312.781
173.263
37.2096
-85.059
-184.73
-255.46
-294.031
-300.611
-278.602
-234.105
-175.085
-110.351
-48.5
3.06496
38.9033
56.0228
54.036
34.9928
2.92873
-36.7916
-78.2439
-115.722
-144.427
-160.995
-163.805
-153.046
-130.566
-99.5148
-63.87
-27.8877
4.43184
29.8069
46.0132
52.0686
48.2564
35.9979
17.6033
-4.0572
-25.9174
-45.0688
-59.0638
-66.1407
-65.35
-56.5816
-40.4967
-18.3845
8.03327
36.8229
66.0572
94.0095
119.304
141.013
158.693
172.366
182.45
189.649
194.824
198.85
202.486
206.266
210.416
214.82
219.02
222.274
223.639
222.092
216.674
206.624
191.511
171.322
146.516
118.015
87.1468
55.5292
24.9239
-2.93782
-26.5279
-44.6758
-56.6842
-62.3949
-62.1952
-56.9669
-47.984
-36.7738
-24.9564
-14.083
-5.48956
-0.181617
1.24019
-1.3916
-7.82829
-17.4616
-29.41
-42.6232
-55.9913
-68.448
-79.0578
-87.0815
-92.0179
-93.6207
-91.8938
-87.0683
-79.5658
-69.9523
-58.887
-47.0695
-35.189
-23.8796
-13.682
-5.01558
1.83871
6.74483
9.70713
10.8569
10.432
8.75244
6.19519
3.17065
0.10298
-2.58527
-4.48528
-5.21302
-4.42215
-1.82121
2.80361
9.56094
18.4248
29.2081
41.5455
54.8918
68.541
81.668
93.3933
102.864
109.346
112.308
111.5
107.002
99.2386
88.9618
77.1969
65.1621
54.176
45.5649
40.5875
40.3847
45.9556
58.1538
77.683
105.073
140.613
184.237
235.354
292.673
354.037
416.351
475.627
527.198
566.099
587.59
587.742
564.025
515.781
444.506
353.882
249.531
138.514
28.6298
-72.3958
-157.725
-222.122
-262.476
-278.064
-270.539
-243.64
-202.677
-153.86
-103.575
-57.6705
-20.8695
3.65099
14.4672
11.8954
-2.21967
-24.8732
-52.3653
-80.7985
-106.546
-126.639
-139.031
-142.736
-137.819
-125.271
-106.793
-84.5198
-60.7258
-37.5491
-16.7601
0.403032
13.3221
22.0103
27.0534
29.4971
30.6946
32.1355
35.2726
41.3636
51.341
65.7198
84.552
107.428
133.522
161.682
190.545
218.671
244.681
267.382
285.87
299.598
308.401
312.482
312.356
308.767
302.57
294.626
285.687
276.315
266.826
257.274
247.477
237.074
225.603
212.6
197.69
180.663
161.534
140.56
118.234
95.2448
72.4044
50.5711
30.5592
13.0598
-1.42389
-12.6156
-20.4783
-25.1986
-27.1469
-26.8207
-24.7799
-21.5816
-17.7252
-13.6136
-9.53321
-5.65485
-2.05193
1.26963
4.33593
7.17127
9.77168
12.0898
14.0329
15.4729
16.2659
16.2772
15.4072
13.6124
10.9204
7.43395
3.32572
-1.17622
-5.80999
-10.3052
-14.4092
-17.9104
-20.6576
-22.5719
-23.651
-23.9672
-23.6574
-22.9081
-21.9373
-20.9736
-20.2358
-19.9136
-20.1513
-21.0353
-22.5867
-24.7576
-27.4336
-30.4405
-33.5557
-36.5235
-39.0747
-40.9478
-41.912
-41.7891
-40.4733
-37.9462
-34.2843
-29.6598
-24.3318
-18.6289
-12.9243
-7.6035
-3.02684
0.513909
2.84327
3.95371
4.05911
3.64563
3.51226
4.78967
8.92277
17.6009
32.622
55.6849
88.1154
130.552
182.634
242.749
307.905
373.789
435.032
485.69
519.895
532.592
520.262
481.509
417.421
331.627
230.036
120.263
10.8367
-89.7271
-173.856
-235.732
-271.887
-281.503
-266.393
-230.68
-180.218
-121.844
-62.5623
-8.75899
34.4524
63.6925
77.5378
76.4952
62.7518
39.7477
11.6389
-17.2761
-43.0918
-62.7316
-74.2379
-76.895
-71.1833
-58.5865
-41.2905
-21.8217
-2.67743
14.0039
26.6935
34.6188
37.7963
36.9562
33.3791
28.6724
24.5225
22.4559
23.6399
28.7469
37.8938
50.6585
66.166
83.2267
100.506
116.699
130.692
141.685
149.265
153.429
154.549
153.291
150.5
147.067
143.796
141.292
139.865
139.495
139.831
140.232
139.861
137.795
133.149
125.204
113.507
97.9419
78.7631
56.5795
32.2986
7.03522
-18.0021
-41.6341
-62.8262
-80.7845
-95.0203
-105.377
-112.021
-115.393
-116.139
-115.018
-112.813
-110.247
-107.912
-106.231
-105.439
-105.597
-106.621
-108.325
-110.469
-112.803
-115.091
-117.13
-118.741
-119.755
-119.995
-119.257
-117.304
-113.877
-108.722
-101.628
-92.4759
-81.283
-68.2351
-53.7016
-38.2258
-22.4903
-7.25983
6.69016
18.6514
28.0565
34.5377
37.9651
38.4565
36.3609
32.2158
26.6853
20.487
14.3162
8.77715
4.32894
1.2515
-0.365833
-0.613309
0.269628
1.93873
3.99685
6.04649
7.73652
8.79845
9.06914
8.49924
7.1486
5.17082
2.79012
0.273543
-2.09906
-4.06482
-5.40525
-5.96853
-5.68296
-4.55659
-2.65772
-0.0711138
3.17195
7.18614
12.3353
19.3253
29.257
43.6095
64.1242
92.5793
130.463
178.583
236.665
303.039
374.462
446.181
512.236
566.025
601.052
611.778
594.438
547.705
473.073
374.894
260.049
137.265
16.1886
-93.6846
-184.063
-248.768
-284.377
-290.519
-269.797
-227.366
-170.222
-106.304
-43.5512
10.9982
51.9251
75.911
81.9293
71.1478
46.5788
12.5388
-25.9961
-64.0521
-97.2514
-122.273
-137.133
-141.273
-135.461
-121.536
-102.049
-79.8545
-57.7042
-37.9027
-22.0555
-10.934
-4.46214
-1.81398
-1.59866
-2.10114
-1.5439
1.66475
8.72497
20.304
36.471
56.7105
80.0069
104.985
130.089
153.766
174.655
191.728
204.399
212.57
216.618
217.323
215.754
213.11
210.559
209.071
209.292
211.448
215.322
220.277
225.347
229.369
231.141
229.595
223.939
213.774
199.156
180.588
158.969
135.48
111.448
88.1853
66.853
48.3403
33.1931
21.5894
13.364
8.07461
5.09601
3.72695
3.29297
3.23042
3.14166
2.81614
2.21814
1.44672
0.677319
0.0961072
-0.161123
-0.0556295
0.329429
0.789434
1.02349
0.679939
-0.585382
-3.04741
-6.85673
-12
-18.2824
-25.336
-32.6526
-39.6382
-45.6803
-50.2198
-52.818
-53.209
-51.3327
-47.3434
-41.5948
-34.6034
-26.9963
-19.4478
-12.6147
-7.07485
-3.27638
-1.50183
-1.84964
-4.23389
-8.40107
-13.961
-20.4284
-27.2695
-33.9503
-39.9807
-44.9514
-48.5601
-50.6259
-51.0914
-50.0134
-47.5436
-43.9035
-39.3544
-34.1686
-28.6022
-22.8743
-17.1528
-11.548
-6.11251
-0.846938
4.29401
9.39803
14.6001
20.1003
26.1964
33.3303
42.1396
53.4993
68.533
88.5683
115.017
149.167
191.905
243.377
302.677
367.593
434.517
498.56
553.898
594.353
614.135
608.654
575.269
513.859
427.098
320.375
201.338
79.122
-36.6527
-136.967
-214.428
-264.096
-283.993
-275.243
-241.826
-189.995
-127.447
-62.351
-2.39341
46.0718
78.6452
93.2236
90.0376
71.4029
41.2396
4.44008
-33.8242
-68.764
-96.5214
-114.549
-121.787
-118.631
-106.724
-88.6003
-67.2579
-45.7096
-26.5781
-11.7841
-2.35918
1.60384
0.869163
-3.13137
-8.55973
-13.4635
-16.0568
-14.953
-9.32527
1.02172
15.6684
33.6755
53.7389
74.3782
94.132
111.735
126.256
137.18
144.436
148.361
149.621
149.096
147.747
146.488
146.068
146.99
149.457
153.36
158.304
163.659
168.635
172.374
174.034
172.88
168.352
160.112
148.079
132.426
113.567
92.1189
68.856
44.6525
20.4274
-2.9091
-24.5025
-43.5934
-59.5488
-71.8865
-80.2941
-84.643
-84.997
-81.614
-74.9391
-65.5861
-54.306
-41.9416
-29.3702
-17.4379
-6.89137
1.68541
7.92177
11.6913
13.1186
12.5588
10.5537
7.76611
4.90252
2.63191
1.51003
1.91807
4.02206
7.75734
12.8393
18.7987
25.0384
30.9034
35.7586
39.0626
40.4305
39.676
36.829
32.1253
25.9711
18.8885
11.4483
4.20166
-2.38193
-7.96174
-12.3533
-15.5341
-17.6294
-18.8798
-19.5987
-20.1244
-20.7739
-21.8039
-23.3837
-25.582
-28.367
-31.62
-35.1582
-38.7635
-42.2123
-45.3041
-47.8836
-49.8546
-51.1847
-51.8985
-52.0611
-51.7497
-51.016
-49.8375
-48.0603
-45.3383
-41.0746
-34.3803
-24.0672
-8.69699
13.2957
43.3963
82.7269
131.715
189.769
255.014
324.182
392.685
454.924
504.815
536.477
545.005
527.197
482.135
411.505
319.602
212.994
99.8844
-10.7538
-110.15
-190.689
-246.728
-275.155
-275.651
-250.603
-204.723
-144.409
-76.9568
-9.72172
50.6681
98.9519
131.669
147.347
146.456
131.138
104.782
71.5067
35.614
1.0875
-28.8128
-51.8216
-66.7907
-73.663
-73.3205
-67.3382
-57.6842
-46.4098
-35.3677
-25.9888
-19.1405
-15.0732
-13.4535
-13.4704
-13.9947
-13.7663
-11.5838
-6.4725
2.18882
14.5948
30.4989
49.2563
69.9125
91.326
112.305
131.744
148.733
162.647
173.183
180.36
184.483
186.068
185.761
184.233
182.099
179.839
177.751
175.919
174.224
172.36
169.885
166.273
160.983
153.525
143.521
130.757
115.225
97.1413
76.948
55.2961
33.0059
11.0115
-9.70816
-28.2059
-43.6438
-55.3644
-62.9484
-66.2533
-65.427
-60.8971
-53.334
-43.5925
-32.6373
-21.4584
-10.986
-2.01146
4.87694
9.33764
11.2941
10.9262
8.63465
4.98452
0.63267
-3.75054
-7.55606
-10.2981
-11.6561
-11.4919
-9.8425
-6.89067
-2.92071
1.73271
6.73325
11.7812
16.6365
21.1232
25.1192
28.5344
31.285
33.2716
34.3662
34.4142
33.2498
30.724
26.7395
21.2867
14.4724
6.53676
-2.14709
-11.0927
-19.7376
-27.4947
-33.8129
-38.2375
-40.4646
-40.3796
-38.0766
-33.8536
-28.1843
-21.6702
-14.9771
-8.76639
-3.62689
-0.0182045
1.76928
1.63315
-0.343459
-3.91173
-8.68657
-14.1755
-19.7966
-24.8771
-28.6311
-30.1218
-28.2227
-21.6023
-8.75919
11.8679
41.7017
81.745
132.249
192.389
260.008
331.522
402.028
465.641
516.06
547.289
554.417
534.346
486.345
412.333
316.839
206.619
89.993
-24.0342
-126.741
-210.62
-270.163
-302.389
-307.075
-286.658
-245.841
-190.962
-129.212
-67.8074
-13.213
29.4965
57.0687
68.2661
63.8152
46.1365
18.9049
-13.4938
-46.5366
-76.0993
-98.8928
-112.759
-116.803
-111.365
-97.8447
-78.4191
-55.6962
-32.3514
-10.7937
7.10047
20.1597
27.9845
30.9103
29.8804
26.2549
21.5852
17.3869
14.9396
15.1394
18.4171
24.7292
33.6137
44.2996
55.8485
67.305
77.8344
86.8289
93.9704
99.2438
102.904
105.404
107.298
109.132
111.34
114.16
117.579
121.316
124.843
127.447
128.317
126.651
121.761
113.178
100.714
84.5033
64.994
42.9075
19.1611
-5.22778
-29.2443
-51.9709
-72.6622
-90.7924
-106.07
-118.428
-127.984
-134.993
-139.794
-142.759
-144.252
-144.599
-144.075
-142.893
-141.206
-139.107
-136.629
-133.754
-130.412
-126.488
-121.842
-116.318
-109.774
-102.11
-93.2913
-83.3731
-72.5159
-60.9888
-49.1608
-37.4801
-26.4415
-16.546
-8.25518
-1.94557
2.13341
3.89212
3.42041
0.990591
-2.95851
-7.8566
-13.0539
-17.8853
-21.7402
-24.1288
-24.7374
-23.464
-20.4293
-15.9602
-10.5482
-4.78645
0.705741
5.36155
8.73773
10.5687
10.7966
9.57318
7.23424
4.25029
1.1608
-1.49844
-3.26502
-3.80732
-2.96226
-0.748938
2.64336
6.89112
11.5927
16.3385
20.7895
24.7569
28.2756
31.6652
35.5687
40.9595
49.1061
61.4834
79.6252
104.919
138.354
180.245
229.976
285.806
344.782
402.812
454.917
495.663
519.739
522.623
501.244
454.536
383.795
292.764
187.399
75.3414
-34.8627
-134.685
-216.571
-274.79
-306.068
-309.923
-288.65
-246.977
-191.435
-129.534
-68.8592
-16.2055
23.1483
45.9357
51.126
39.8628
15.1456
-18.6888
-56.6058
-93.5453
-125.042
-147.719
-159.612
-160.289
-150.773
-133.298
-110.936
-87.1506
-65.3462
-48.4508
-38.5931
-36.8937
-43.3886
-57.082
-76.1125
-98.0045
-119.971
-139.231
-153.301
-160.237
-158.803
-148.55
-129.808
-103.602
-71.5014
-35.4305
2.53991
40.3933
76.3437
108.969
137.291
160.805
179.451
193.542
203.661
210.538
214.921
217.463
218.629
218.648
217.493
214.912
210.498
203.776
194.317
181.833
166.269
147.852
127.099
104.792
81.9025
59.4944
38.6064
20.1385
4.75424
-7.18788
-15.6635
-20.9695
-23.6719
-24.5214
-24.3499
-23.9611
-24.0306
-25.027
-27.1652
-30.3942
-34.4209
-38.7642
-42.8305
-46.0002
-47.7122
-47.5369
-45.2266
-40.7412
-34.2435
-26.0703
-16.6824
-6.60323
3.64417
13.5929
22.872
31.2264
38.515
44.6918
49.7729
53.8001
56.806
58.7903
59.7098
59.486
58.0276
55.2644
51.1846
45.8679
39.505
32.3996
24.9485
17.6021
10.8106
4.96521
0.342634
-2.93608
-4.92526
-5.84852
-6.06719
-6.02773
-6.19661
-6.99295
-8.72952
-11.5711
-15.516
-20.4022
-25.9372
-31.7442
-37.4188
-42.5858
-46.9474
-50.316
-52.6254
-53.9173
-54.3033
-53.9028
-52.7625
-50.7659
-47.5427
-42.3965
-34.2691
-21.7635
-3.24578
22.9632
58.3069
103.647
158.893
222.68
292.159
362.98
429.51
485.305
523.787
539.073
526.805
484.886
413.964
317.601
202.05
75.6802
-51.9006
-170.9
-272.431
-349.488
-397.68
-415.633
-405.007
-370.157
-317.486
-254.593
-189.342
-128.966
-79.3249
-44.3809
-25.9589
-23.7742
-35.7101
-58.2811
-87.2057
-118.007
-146.562
-169.542
-184.701
-190.987
-188.503
-178.318
-162.189
-142.228
-120.574
-99.1033
-79.2179
-61.7293
-46.8419
-34.2272
-23.1673
-12.7394
-2.01113
9.78522
23.1206
38.0969
54.4384
71.5443
88.5896
104.656
118.876
130.56
139.31
145.073
148.167
149.247
149.226
149.171
150.17
153.197
158.987
167.943
180.063
194.931
211.737
229.345
246.399
261.444
273.068
280.027
281.365
276.501
265.275
247.97
225.279
198.25
168.197
136.593
104.958
74.7406
47.2209
23.4211
4.04946
-10.5298
-20.2961
-25.5427
-26.8234
-24.8801
-20.5618
-14.7413
-8.24055
-1.76961
4.11404
9.02525
12.7501
15.2275
16.5193
16.7736
16.1874
14.9739
13.3355
11.446
9.44077
7.41406
5.42174
3.4876
1.61122
-0.22417
-2.04494
-3.88221
-5.76939
-7.74223
-9.84127
-12.1162
-14.6314
-17.4705
-20.7381
-24.557
-29.0578
-34.3616
-40.5561
-47.6677
-55.6351
-64.2879
-73.3361
-82.3752
-90.9088
-98.388
-104.266
-108.062
-109.42
-108.172
-104.366
-98.2875
-90.444
-81.5226
-72.3273
-63.6987
-56.4278
-51.174
-48.399
-48.322
-50.903
-55.8532
-62.6705
-70.6913
-79.1487
-87.2248
-94.0858
-98.8906
-100.774
-98.8078
-91.9603
-79.0737
-58.8928
-30.1642
8.17702
56.742
115.374
182.839
256.594
332.7
405.945
470.198
518.987
546.237
547.075
518.582
460.37
374.888
267.374
145.464
18.4703
-103.576
-210.996
-295.507
-351.119
-374.75
-366.499
-329.542
-269.683
-194.609
-112.969
-33.3871
36.4705
90.6537
125.446
139.587
134.193
112.413
78.8824
39.0431
-1.55735
-37.9195
-66.116
-83.6367
-89.5324
-84.3561
-69.9316
-48.9923
-24.749
-0.443215
21.0541
37.5577
47.7644
51.3195
48.7582
41.3403
30.8118
19.1271
8.17473
-0.462287
-5.68022
-6.94745
-4.30962
1.68593
10.1293
19.926
29.9837
39.3812
47.493
54.0563
59.1712
63.2416
66.8665
70.7031
75.3242
81.0918
88.066
95.9618
104.16
111.767
117.718
120.903
120.302
115.115
104.86
89.4439
69.1875
44.8071
17.3597
-11.8457
-41.3563
-69.6949
-95.476
-117.51
-134.887
-147.028
-153.717
-155.086
-151.59
-143.939
-133.03
-119.857
-105.424
-90.6594
-76.3474
-63.0726
-51.1889
-40.8133
-31.8443
-24.0028
-16.8918
-10.0647
-3.0965
4.35229
12.4869
21.3503
30.8187
40.6199
50.372
59.6339
67.9631
74.9692
80.3596
83.9691
85.7722
85.8783
84.5101
81.972
78.6113
74.7782
70.7901
66.9026
63.291
60.0419
57.1561
54.5597
52.1232
49.6842
47.0722
44.1327
40.7474
36.8496
32.4331
27.5538
22.325
16.9057
11.4852
6.26374
1.4333
-2.84127
-6.43734
-9.28491
-11.371
-12.7378
-13.4741
-13.7019
-13.5588
-13.1782
-12.6703
-12.103
-11.4854
-10.7505
-9.73574
-8.15916
-5.58985
-1.41712
5.17275
15.1971
29.8362
50.3339
77.8277
113.113
156.363
206.845
262.694
320.81
376.924
425.874
462.087
480.215
475.85
446.21
390.698
311.212
212.163
100.171
-16.5413
-128.986
-228.365
-307.03
-359.324
-382.184
-375.449
-341.819
-286.493
-216.525
-139.99
-65.0663
0.853685
51.9158
84.3417
96.6957
89.8662
66.7824
31.9165
-9.35324
-51.4335
-89.1747
-118.422
-136.402
-141.912
-135.313
-118.334
-93.7327
-64.8778
-35.2852
-8.18935
13.8148
29.0208
36.7313
37.2496
31.7538
22.08
10.4483
-0.831509
-9.63756
-14.2662
-13.5924
-7.14743
4.88692
21.7586
42.2837
65.02
88.4506
111.156
131.952
149.982
164.763
176.168
184.374
189.78
192.894
194.235
194.234
193.164
191.104
187.937
183.38
177.046
168.529
157.491
143.746
127.327
108.526
87.8916
66.2024
44.3964
23.4816
4.4311
-11.922
-24.9762
-34.4272
-40.3003
-42.9425
-42.9778
-41.2307
-38.6271
-36.0865
-34.4188
-34.2381
-35.9035
-39.4926
-44.81
-51.4265
-58.7429
-66.0695
-72.7091
-78.0343
-81.5498
-82.9325
-82.0477
-78.9413
-73.8121
-66.9702
-58.79
-49.6644
-39.9685
-30.0359
-20.1506
-10.553
-1.45568
6.93687
14.4101
20.7305
25.6485
28.9163
30.318
29.7089
27.0558
22.4712
16.2336
8.78691
0.715489
-7.30408
-14.5709
-20.439
-24.3969
-26.1367
-25.6003
-22.996
-18.7797
-13.6018
-8.22639
-3.43087
0.0980296
1.85875
1.60499
-0.61929
-4.48564
-9.42779
-14.7225
-19.5928
-23.3184
-25.3361
-25.3138
-23.1874
-19.1514
-13.6025
-7.04227
0.0509567
7.36536
14.8934
23.0423
32.693
45.1844
62.2031
85.5713
116.938
157.402
207.12
264.964
328.312
393.035
453.729
504.199
538.142
549.965
535.598
493.193
423.573
330.368
219.771
99.9638
-19.7473
-129.947
-222.163
-289.797
-328.829
-338.196
-319.812
-278.229
-220.009
-152.887
-84.8392
-23.1855
26.1789
59.3264
74.5707
72.4551
55.4793
27.6186
-6.28834
-41.198
-72.4823
-96.4382
-110.636
-114.075
-107.155
-91.4702
-69.4843
-44.1283
-18.3821
5.10558
24.3169
38.0537
46.0039
48.6879
47.3056
43.5122
39.1574
36.0257
35.6086
38.9357
46.4781
58.131
73.2699
90.8664
109.644
128.254
145.44
160.187
171.82
180.056
185.002
187.105
187.061
185.693
183.828
182.176
181.231
181.208
182.023
183.307
184.47
184.781
183.474
179.853
173.386
163.774
150.997
135.315
117.243
97.4942
76.9064
56.355
36.671
18.569
2.59451
-10.9054
-21.7864
-30.0893
-36.0053
-39.829
-41.9092
-42.6022
-42.2329
-41.0697
-39.3116
-37.0895
-34.4774
-31.5113
-28.211
-24.6001
-20.7224
-16.6512
-12.4907
-8.37057
-4.43497
-0.827351
2.32503
4.9253
6.91745
8.29184
9.08486
9.37297
9.26141
8.86883
8.30943
7.67459
7.01668
6.33776
5.5853
4.65669
3.41245
1.69719
-0.634683
-3.69189
-7.5221
-12.0944
-17.2911
-22.9108
-28.6824
-34.2881
-39.393
-43.6779
-46.8702
-48.7705
-49.2709
-48.3637
-46.1396
-42.776
-38.5175
-33.651
-28.4778
-23.2875
-18.3346
-13.8201
-9.88117
-6.58571
-3.93444
-1.86592
-0.262822
1.04469
2.28246
3.74618
5.82717
9.04826
14.1033
21.8881
33.5052
50.2228
73.3694
104.154
143.418
191.343
247.158
308.91
373.365
436.08
491.699
534.444
558.777
560.129
535.603
484.535
408.806
312.847
203.306
88.4123
-22.8837
-121.892
-201.148
-255.231
-281.339
-279.532
-252.636
-205.815
-145.889
-80.4845
-17.1371
37.5417
78.5347
102.854
109.706
100.38
77.9066
46.5319
11.0995
-23.5846
-53.3215
-74.9614
-86.6748
-88.0364
-79.9298
-64.2997
-43.7998
-21.3866
0.0835193
18.2065
31.2924
38.5145
39.9366
36.4273
29.4814
20.9782
12.9118
7.12912
5.10562
7.78499
15.4959
27.9512
44.3224
63.3762
83.6494
103.639
121.981
137.598
149.796
158.305
163.259
165.129
164.614
162.507
159.564
156.38
153.304
150.384
147.371
143.756
138.853
131.909
122.223
109.255
92.7247
72.659
49.4149
23.6495
-3.74306
-31.7234
-59.2109
-85.1873
-108.784
-129.345
-146.452
-159.924
-169.785
-176.216
-179.494
-179.942
-177.888
-173.638
-167.471
-159.638
-150.377
-139.926
-128.527
-116.428
-103.87
-91.0728
-78.2183
-65.432
-52.7772
-40.2591
-27.8409
-15.4718
-3.12085
9.1879
21.3472
33.1509
44.2958
54.4029
63.0568
69.8584
74.4844
76.7427
76.6169
74.2891
70.1361
64.6979
58.6193
52.5737
47.1789
42.9169
40.0716
38.6923
38.5896
39.3636
40.4599
41.2458
41.0951
39.4709
35.9959
30.5026
23.0579
13.9609
3.71378
-7.02774
-17.5212
-27.0126
-34.8128
-40.369
-43.3233
-43.5534
-41.1908
-36.6111
-30.3977
-23.2753
-16.0196
-9.34516
-3.78124
0.455029
3.57563
6.31238
9.96296
16.3714
27.8235
46.8423
75.8833
116.942
171.12
238.198
316.309
401.781
489.212
571.828
642.1
692.565
716.752
710.081
670.59
599.375
500.662
381.476
250.95
119.352
-3.02839
-107.006
-185.468
-234.086
-251.673
-240.158
-204.206
-150.537
-87.0473
-21.8628
37.5725
85.2519
117.132
131.386
128.369
110.341
80.9877
44.8292
6.59318
-29.3664
-59.5389
-81.5712
-94.4055
-98.2428
-94.3577
-84.8022
-72.048
-58.6177
-46.7518
-38.1475
-33.7963
-33.9287
-38.0619
-45.1356
-53.7076
-62.1807
-69.0271
-72.982
-73.1842
-69.2493
-61.2712
-49.7587
-35.5203
-19.5199
-2.7247
14.0285
30.1323
45.2594
59.36
72.6137
85.343
97.9092
110.605
123.566
136.708
149.704
162.002
172.879
181.523
187.128
188.997
186.629
179.784
168.514
153.166
134.345
112.848
89.5798
65.46
41.3348
17.9036
-4.32832
-25.0658
-44.208
-61.8049
-77.9938
-92.9271
-106.703
-119.312
-130.604
-140.287
-147.958
-153.152
-155.418
-154.395
-149.884
-141.9
-130.699
-116.773
-100.818
-83.6681
-66.2171
-49.3341
-33.7794
-20.1364
-8.76456
0.220909
6.94078
11.7176
15.0197
17.391
19.3745
21.4396
23.9203
26.9736
30.5611
34.4578
38.2868
41.5761
43.8299
44.6059
43.5883
40.645
35.8618
29.5457
22.1983
14.4581
7.02104
0.547569
-4.43157
-7.5975
-8.90165
-8.59066
-7.19215
-5.46086
-4.28981
-4.59649
-7.1974
-12.6867
-21.3341
-33.016
-47.19
-62.9169
-78.9319
-93.7581
-105.851
-113.76
-116.284
-112.611
-102.411
-85.872
-63.673
-36.8792
-6.77532
25.3503
58.4411
91.8887
125.686
160.474
197.455
238.151
284.039
336.093
394.32
457.38
522.371
584.879
639.298
679.428
699.27
693.909
660.331
598.057
509.454
399.671
276.191
148.05
24.8359
-84.4021
-172.172
-233.355
-265.713
-270.022
-249.842
-210.954
-160.558
-106.347
-55.5879
-14.3082
13.2961
25.1897
21.5347
4.45662
-22.409
-54.5137
-87.0491
-115.571
-136.515
-147.558
-147.783
-137.661
-118.856
-93.9022
-65.8131
-37.6611
-12.1986
8.44488
22.9575
30.919
32.7576
29.6073
23.0928
15.0778
7.4107
1.70003
-0.854999
0.436029
5.7307
14.6997
26.6286
40.5569
55.4299
70.2441
84.1663
96.613
107.287
116.165
123.452
129.503
134.729
139.506
144.091
148.565
152.8
156.466
159.064
159.989
158.61
154.356
146.803
135.745
121.237
103.617
83.4899
61.6841
39.1801
17.0244
-3.76439
-22.2866
-37.8377
-49.9639
-58.4911
-63.5247
-65.4234
-64.7488
-62.1998
-58.5377
-54.512
-50.7915
-47.9106
-46.2312
-45.9252
-46.9761
-49.1976
-52.2677
-55.7712
-59.2488
-62.2447
-64.3504
-65.2398
-64.6935
-62.6098
-59.0039
-53.9958
-47.7893
-40.6468
-32.861
-24.7307
-16.5404
-8.54791
-0.979681
5.96633
12.1132
17.2958
21.3535
24.1278
25.4674
25.2394
23.3483
19.7565
14.5059
7.73446
-0.313662
-9.28897
-18.7483
-28.1782
-37.0281
-44.7515
-50.8504
-54.9205
-56.6895
-56.0471
-53.0605
-47.9734
-41.1885
-33.233
-24.7119
-16.2524
-8.44722
-1.80042
3.31523
6.68737
8.27576
8.20679
6.75319
4.30393
1.33113
-1.6378
-4.03529
-5.25005
-4.60328
-1.30871
5.57228
17.1621
34.7616
59.7827
93.6017
137.325
191.483
255.685
328.308
406.271
484.999
558.607
620.349
663.291
681.15
669.179
624.956
548.961
444.804
319.072
180.771
40.4315
-91.0102
-203.411
-288.539
-340.959
-358.581
-342.801
-298.219
-232.001
-152.963
-70.5047
6.46052
70.454
116.15
140.792
144.271
128.894
98.8814
59.6866
17.2305
-22.8479
-55.8353
-78.4116
-88.9041
-87.3139
-75.1373
-55.0209
-30.312
-4.56904
18.9038
37.4426
49.2915
53.7314
51.0677
42.494
29.8609
15.3874
1.35675
-10.1645
-17.5533
-19.7803
-16.4729
-7.89444
5.15076
21.4656
39.6382
58.2244
75.9122
91.6502
104.727
114.801
121.875
126.239
128.378
128.868
128.278
127.081
125.594
123.946
122.075
119.76
116.665
112.409
106.633
99.0661
89.5751
78.1917
65.118
50.7074
35.4263
19.8043
4.37989
-10.3501
-23.9703
-36.1729
-46.7667
-55.672
-62.902
-68.5377
-72.6992
-75.5187
-77.1202
-77.6066
-77.0559
-75.5253
-73.0619
-69.7154
-65.5517
-60.6625
-55.1708
-49.2297
-43.015
-36.714
-30.5101
-24.5678
-19.0194
-13.9548
-9.41809
-5.408
-1.88491
1.21869
3.98517
6.49827
8.83078
11.0348
13.1356
15.1288
16.982
18.6385
20.025
21.0588
21.6577
21.7479
21.2718
20.1947
18.5097
16.242
13.4513
10.234
6.72177
3.07921
-0.503389
-3.8203
-6.6648
-8.8468
-10.2122
-10.6626
-10.1718
-8.79829
-6.68871
-4.07309
-1.24914
1.44272
3.65145
5.05136
5.37734
4.45537
2.22452
-1.25127
-5.78153
-11.0548
-16.6467
-22.0239
-26.5389
-29.413
-29.7084
-26.3011
-17.8692
-2.91948
20.1254
52.762
96.1609
150.859
216.425
291.167
371.941
454.132
531.869
598.471
647.104
671.586
667.221
631.544
564.853
470.429
354.384
225.144
92.616
-32.8528
-141.6
-225.697
-279.788
-301.626
-292.225
-255.631
-198.352
-128.526
-54.9474
13.9264
70.8685
110.57
130.058
128.817
108.617
73.1027
27.2054
-23.5284
-73.6132
-118.219
-153.624
-177.493
-188.955
-188.507
-177.764
-159.11
-135.303
-109.09
-82.8762
-58.488
-37.0483
-18.9641
-4.01496
8.48466
19.4816
29.9732
40.8224
52.6219
65.622
79.7263
94.5447
109.491
123.902
137.157
148.776
158.489
166.259
172.269
176.873
180.519
183.675
186.745
190.004
193.566
197.366
201.171
204.624
207.283
208.684
208.39
206.042
201.385
194.294
184.777
172.965
159.096
143.489
126.518
108.582
90.0929
71.4548
53.0621
35.2959
18.5243
3.10021
-10.6427
-22.4001
-31.9106
-38.9742
-43.4715
-45.3825
-44.8013
-41.9435
-37.1439
-30.8425
-23.5591
-15.8583
-8.30684
-1.42835
4.33976
8.68252
11.4322
12.5788
12.2646
10.7635
8.44652
5.73793
3.06589
0.813161
-0.727092
-1.38552
-1.137
-0.104762
1.45258
3.16984
4.61691
5.3486
4.95699
3.12015
-0.358368
-5.52387
-12.2617
-20.3059
-29.2656
-38.6634
-47.9849
-56.7309
-64.467
-70.8662
-75.7369
-79.0343
-80.8536
-81.4032
-80.9631
-79.8319
-78.2702
-76.448
-74.4048
-72.0292
-69.065
-65.1435
-59.8419
-52.7608
-43.6104
-32.2926
-18.9636
-4.06449
11.6928
27.3899
42.0178
54.6356
64.5575
71.5424
75.9569
78.8748
82.0832
87.966
99.257
118.671
148.445
189.848
242.733
305.218
373.568
442.34
504.815
553.68
581.893
583.629
555.144
495.455
406.688
294.047
165.38
30.3862
-100.426
-216.908
-310.395
-374.65
-406.506
-406.117
-376.819
-324.615
-257.361
-183.788
-112.465
-50.8516
-4.5368
23.2406
31.7629
22.6901
-0.355386
-32.4035
-67.8615
-101.251
-127.863
-144.268
-148.613
-140.711
-121.903
-94.7637
-62.6622
-29.28
1.87429
27.8841
46.7348
57.4869
60.3035
56.3413
47.5306
36.2787
25.1399
16.4933
12.266
13.7308
21.3977
35.0028
53.5909
75.6732
99.4365
122.976
144.52
162.622
176.302
185.114
189.146
188.955
185.445
179.711
172.872
165.912
159.551
154.159
149.727
145.889
141.993
137.213
130.684
121.635
109.517
94.0908
75.4862
54.2013
31.0614
7.13407
-16.3882
-38.3225
-57.6308
-73.5386
-85.6209
-93.8435
-98.5539
-100.422
-100.339
-99.29
-98.2139
-97.8771
-98.7738
-101.068
-104.588
-108.866
-113.222
-116.878
-119.084
-119.228
-116.935
-112.117
-104.983
-96.0055
-85.8442
-75.2512
-64.9636
-55.6057
-47.6156
-41.2046
-36.3557
-32.8578
-30.3699
-28.5002
-26.8891
-25.2785
-23.559
-21.7842
-20.152
-18.9566
-18.5181
-19.1056
-20.8648
-23.7668
-27.5852
-31.9081
-36.1829
-39.7869
-42.113
-42.6563
-41.0906
-37.3205
-31.5041
-24.0417
-15.5319
-6.70067
1.6876
8.92595
14.4558
17.941
19.3147
18.7924
16.8474
14.1502
11.4806
9.62147
9.25169
10.854
14.6545
20.6056
28.423
37.6736
47.9099
58.8324
70.4551
83.2438
98.1922
116.805
140.964
172.668
213.672
265.047
326.749
397.256
473.381
550.301
621.871
681.187
721.362
736.4
722.059
676.552
600.978
499.409
378.594
247.313
115.464
-7.00412
-111.172
-190.097
-239.517
-258.229
-248.095
-213.698
-161.706
-100.025
-36.8676
20.1662
64.8652
92.9775
102.514
93.7684
69.0825
32.3904
-11.3711
-56.9144
-99.2289
-134.114
-158.565
-170.978
-171.174
-160.255
-140.328
-114.146
-84.721
-54.9512
-27.3117
-3.63615
14.9966
28.2716
36.5556
40.7469
42.0845
41.9474
41.6675
42.3778
44.9073
49.7281
56.9507
66.3617
77.4907
89.6946
102.247
114.422
125.563
135.141
142.781
148.28
151.603
152.866
152.303
150.238
147.039
143.078
138.691
134.144
129.598
125.096
120.554
115.773
110.464
104.288
96.9041
88.0219
77.4504
65.1355
51.1822
35.8567
19.5698
2.84175
-13.7437
-29.5922
-44.1502
-56.9473
-67.6273
-75.9613
-81.8468
-85.2911
-86.3876
-85.2874
-82.1733
-77.2403
-70.6848
-62.7026
-53.4946
-43.2763
-32.2865
-20.7934
-9.0929
2.50022
13.6678
24.1078
33.5543
41.7936
48.6736
54.1053
58.0568
60.5414
61.6036
61.307
59.7255
56.9409
53.0461
48.1531
42.4019
35.9691
29.0704
21.9579
14.9092
8.20934
2.12791
-3.10597
-7.32781
-10.4577
-12.5134
-13.6145
-13.9763
-13.8944
-13.7192
-13.8237
-14.5677
-16.2617
-19.1346
-23.3098
-28.792
-35.4661
-43.1082
-51.4076
-59.9982
-68.4936
-76.5254
-83.7789
-90.0223
-95.1268
-99.072
-101.936
-103.868
-105.036
-105.561
-105.437
-104.439
-102.04
-97.3515
-89.1086
-75.7166
-55.3787
-26.3086
12.98
63.3328
124.607
195.375
272.753
352.395
428.719
495.356
545.793
574.142
575.932
548.806
492.996
411.512
309.977
196.119
78.9859
-32.0262
-128.2
-202.445
-250.042
-269.093
-260.625
-228.349
-178.112
-117.13
-53.0972
6.69584
56.1439
90.9103
108.758
109.609
95.3384
69.3612
36.0714
0.217306
-33.7023
-61.9493
-81.9096
-92.2756
-93.0447
-85.3529
-71.1811
-52.9886
-33.3284
-14.4982
1.73138
14.2816
22.8155
27.6768
29.742
30.2144
30.3991
31.4929
34.4191
39.726
47.5571
57.6872
69.613
82.6745
96.1859
109.553
122.357
134.399
145.69
156.408
166.815
177.166
187.618
198.16
208.571
218.42
227.097
233.882
238.028
238.855
235.839
228.682
217.358
202.134
183.546
162.367
139.538
116.088
93.0505
71.3789
51.8671
35.0898
21.3599
10.7108
2.90521
-2.52859
-6.23615
-8.95543
-11.4235
-14.2812
-17.9882
-22.7599
-28.5356
-34.9852
-41.5542
-47.5437
-52.2137
-54.8974
-55.1085
-52.6252
-47.5381
-40.252
-31.4422
-21.9686
-12.7624
-4.70076
1.51067
5.4299
6.93171
6.21437
3.75971
0.253689
-3.51974
-6.79484
-8.9328
-9.50699
-8.3535
-5.58125
-1.54316
3.22453
8.08263
12.3753
15.5088
17.0125
16.5758
14.0601
9.48949
3.02651
-5.05918
-14.4216
-24.6642
-35.3577
-46.0528
-56.2891
-65.6058
-73.5569
-79.7341
-83.7942
-85.4911
-84.7042
-81.4613
-75.9471
-68.4979
-59.5792
-49.75
-39.6175
-29.7879
-20.819
-13.1785
-7.20791
-3.09327
-0.836016
-0.222
-0.785203
-1.76813
-2.08664
-0.313973
5.29567
16.7215
36.0103
65.024
105.113
156.751
219.193
290.218
366.043
441.45
510.156
565.41
600.749
610.818
592.14
543.706
467.306
367.509
251.306
127.433
5.46636
-105.199
-196.36
-261.864
-298.219
-304.881
-284.189
-240.972
-181.886
-114.58
-46.8034
14.4378
63.5726
96.9351
112.973
112.197
96.8956
70.6846
37.949
3.26554
-29.1303
-55.7749
-74.2685
-83.4125
-83.196
-74.6506
-59.6077
-40.3939
-19.5074
0.688241
18.2218
31.7002
40.4095
44.329
44.0643
40.7136
35.6888
30.5147
26.631
25.2193
27.0743
32.5302
41.4465
53.2522
67.0373
81.6779
95.9781
108.81
119.233
126.587
130.538
131.084
128.523
123.376
116.305
108.006
99.1182
90.1509
81.4297
73.0791
65.0309
57.0589
48.8314
39.973
30.1296
19.0263
6.51423
-7.39916
-22.5389
-38.5703
-55.0244
-71.3386
-86.9067
-101.133
-113.488
-123.548
-131.039
-135.85
-138.037
-137.814
-135.525
-131.608
-126.553
-120.856
-114.983
-109.33
-104.201
-99.793
-96.196
-93.3971
-91.2997
-89.7475
-88.5522
-87.5217
-86.4845
-85.3068
-83.8989
-82.2112
-80.2216
-77.9173
-75.2762
-72.254
-68.7802
-64.7647
-60.1168
-54.7701
-48.7115
-42.0051
-34.8056
-27.3562
-19.9683
-12.9851
-6.7326
-1.46833
2.66513
5.67137
7.71029
9.0838
10.1984
11.5097
13.4572
16.3992
20.5572
25.9789
32.5234
39.873
47.5669
55.0544
61.758
67.1398
70.7611
72.3304
71.7322
69.0367
64.4899
58.4866
51.5313
44.1925
37.0561
30.684
25.5838
22.1937
20.8889
22.0104
25.9166
33.0505
44.007
59.5793
80.7543
108.632
144.251
188.328
240.927
301.126
366.744
434.212
498.65
554.184
594.504
613.602
606.596
570.506
504.878
412.105
297.417
168.475
34.6455
-93.9788
-207.675
-298.157
-359.474
-388.623
-385.806
-354.295
-299.958
-230.492
-154.491
-80.4626
-15.9173
33.362
63.7978
74.2025
65.6736
41.2367
5.30112
-36.9883
-80.4155
-120.293
-152.934
-175.945
-188.339
-190.457
-183.748
-170.43
-153.115
-134.424
-116.655
-101.537
-90.0878
-82.5804
-78.6066
-77.2192
-77.124
-76.892
-75.1649
-70.8307
-63.1514
-51.8356
-37.0515
-19.3861
0.240949
20.6944
40.7571
59.2638
75.2203
87.896
96.8817
102.107
103.821
102.531
98.9278
93.7804
87.8412
81.7548
75.9888
70.7943
66.1975
62.0234
57.9447
53.5493
48.415
42.1811
34.6094
25.6271
15.3481
4.07308
-7.73226
-19.4764
-30.4957
-40.1174
-47.7253
-52.8232
-55.0895
-54.4161
-50.9297
-44.9895
-37.1635
-28.1825
-18.8758
-10.0951
-2.63177
2.86313
5.94764
6.43956
4.4417
0.338244
-5.23883
-11.4706
-17.4335
-22.1937
-24.9038
-24.8895
-21.7174
-15.2349
-5.58004
6.8412
21.4033
37.33
53.7733
69.8921
84.9213
98.224
109.322
117.904
123.816
127.034
127.631
125.75
121.566
115.276
107.078
97.1777
85.785
73.1254
59.447
45.026
30.1688
15.2075
0.490346
-13.6336
-26.8333
-38.816
-49.3475
-58.2687
-65.5076
-71.0847
-75.1114
-77.7807
-79.3523
-80.1312
-80.4434
-80.6106
-80.9239
-81.6218
-82.8711
-84.7521
-87.2473
-90.2304
-93.4532
-96.5266
-98.8968
-99.8163
-98.3208
-93.2229
-83.1397
-66.5745
-42.0646
-8.40188
35.0882
88.241
149.774
217.097
286.283
352.241
409.109
450.861
472.031
468.488
438.111
381.265
300.979
202.776
94.1692
-16.1291
-119.161
-206.724
-272.272
-311.608
-323.26
-308.534
-271.219
-217.02
-152.798
-85.7254
-22.468
31.5069
72.4215
98.4335
109.628
107.781
95.9356
77.8756
57.5564
38.5776
23.7565
14.8491
12.4383
15.9897
24.0507
34.5549
45.1794
53.7064
58.3365
57.9197
52.0785
41.2156
26.4167
9.26888
-8.37391
-24.6413
-37.8788
-46.8322
-50.763
-49.4873
-43.3386
-33.0706
-19.7165
-4.43253
11.6532
27.5655
42.5671
56.1966
68.2616
78.7924
87.9696
96.0391
103.229
109.684
115.421
120.319
124.133
126.541
127.196
125.797
122.143
116.183
108.035
97.9959
86.5116
74.1404
61.4975
49.1954
37.7868
27.7168
19.2899
12.654
7.80274
4.594
2.78027
2.04702
2.05303
2.46819
3.00447
3.43761
3.61808
3.47185
2.99231
2.22583
1.25366
0.17302
-0.920413
-1.94682
-2.8523
-3.61421
-4.24154
-4.77046
-5.2555
-5.75712
-6.32718
-6.99439
-7.75236
-8.55334
-9.31006
-9.90708
-10.2213
-10.1488
-9.63468
-8.69789
-7.44818
-6.08824
-4.89982
-4.21401
-4.36935
-5.66333
-8.30457
-12.3728
-17.793
-24.3277
-31.5898
-39.0753
-46.211
-52.4139
-57.1526
-60.0048
-60.7025
-59.1608
-55.4846
-49.9552
-42.9971
-35.1299
-26.9115
-18.8806
-11.5051
-5.14284
-0.0198211
3.77326
6.26642
7.582
7.89793
7.40967
6.2972
4.70289
2.72434
0.424551
-2.13925
-4.86839
-7.55896
-9.82694
-11.0327
-10.2223
-6.10823
2.88236
18.4724
42.3014
75.6069
118.861
171.421
231.279
294.973
357.734
413.867
457.354
482.604
485.231
462.756
415.087
344.721
256.592
157.599
55.859
-40.2066
-122.824
-185.732
-224.853
-238.67
-228.293
-197.205
-150.741
-95.38
-37.9482
15.1678
58.6944
88.9624
104.172
104.412
91.4611
68.4016
39.1205
7.76039
-21.8044
-46.4083
-63.9048
-73.3217
-74.8569
-69.7291
-59.9169
-47.8261
-35.9333
-26.4518
-21.0578
-20.7062
-25.5507
-34.9697
-47.6872
-61.9658
-75.8449
-87.3909
-94.9299
-97.2353
-93.6525
-84.1504
-69.2975
-50.1731
-28.2263
-5.10547
17.5224
38.1388
55.5118
68.7905
77.551
81.7921
81.8884
78.5084
72.5117
64.8391
56.4071
48.0188
40.2973
33.6449
28.2288
23.9898
20.67
17.8554
15.0285
11.6271
7.10567
0.995339
-7.04128
-17.1655
-29.3325
-43.2796
-58.5359
-74.4532
-90.2576
-105.116
-118.209
-128.81
-136.35
-140.471
-141.061
-138.261
-132.453
-124.229
-114.338
-103.623
-92.956
-83.1683
-74.9842
-68.9666
-65.4728
-64.6267
-66.3075
-70.1574
-75.6093
-81.9318
-88.2912
-93.8251
-97.7209
-99.2934
-98.0518
-93.7494
-86.4099
-76.3266
-64.034
-50.2548
-35.8287
-21.63
-8.48483
2.90421
12.016
18.5472
22.424
23.7881
22.963
20.4046
16.6437
12.2287
7.67426
3.42152
-0.187613
-2.92178
-4.65851
-5.37279
-5.11967
-4.01443
-2.2133
0.103426
2.74521
5.52214
8.25371
10.7763
12.9501
14.6659
15.8513
16.4766
16.5592
16.1672
15.424
14.5158
13.7054
13.3565
13.9671
16.2098
20.967
29.344
42.6387
62.248
89.498
125.4
170.355
223.853
284.221
348.49
412.441
470.854
517.974
548.142
556.52
539.807
496.819
428.852
339.735
235.548
124.047
13.8338
-86.5895
-169.77
-230.123
-264.516
-272.534
-256.418
-220.67
-171.418
-115.612
-60.1716
-11.2008
26.6435
50.5525
59.7068
55.1586
39.4917
16.3224
-10.2823
-36.3845
-58.6794
-74.8632
-83.8278
-85.6732
-81.5511
-73.3769
-63.4604
-54.1143
-47.296
-44.3287
-45.7377
-51.212
-59.6917
-69.5579
-78.8931
-85.7711
-88.5356
-86.0273
-77.7335
-63.8413
-45.1925
-23.1516
0.592682
24.2598
46.2131
65.164
80.3197
91.4564
98.9116
103.499
106.362
108.788
112.009
117.019
124.426
134.366
146.476
159.938
173.578
186.006
195.781
201.575
202.318
197.317
186.316
169.522
147.571
121.46
92.4473
61.9314
31.3333
1.98354
-24.969
-48.6214
-68.3503
-83.8161
-94.9412
-101.869
-104.912
-104.494
-101.099
-95.225
-87.3468
-77.8954
-67.2465
-55.7209
-43.5937
-31.1098
-18.5027
-6.01353
6.09395
17.5237
27.9479
37.0181
44.3891
49.7535
52.8839
53.6765
52.1877
48.655
43.4963
37.2805
30.6737
24.3624
18.9664
14.9529
12.5663
11.7854
12.3181
13.6364
15.0497
15.8064
15.2109
12.737
8.12047
1.41676
-6.98811
-16.4146
-25.9707
-34.667
-41.5474
-45.8206
-46.971
-44.8349
-39.6318
-31.9456
-22.6577
-12.8421
-3.63535
3.9013
8.90899
10.8315
9.47502
5.02098
-2.00983
-10.8342
-20.5119
-30.0617
-38.5677
-45.2574
-49.5382
-50.9873
-49.2994
-44.2084
-35.4057
-22.4832
-4.92727
17.8193
46.2208
80.4505
120.161
164.268
210.796
256.842
298.685
332.068
352.619
356.389
340.418
303.262
245.378
169.321
79.6886
-17.1849
-113.759
-201.98
-274.068
-323.284
-344.611
-335.268
-294.989
-226.068
-133.144
-22.7696
97.1942
218.288
332.202
431.483
510.131
564.047
591.27
592.026
568.553
524.771
465.806
397.443
325.56
255.593
192.099
138.436
96.5979
67.1927
49.5698
42.0541
42.2613
47.4474
54.855
62.0178
66.996
68.5259
66.0767
59.82
50.5234
39.3887
27.8582
17.4102
9.36862
4.74378
4.11897
7.59177
14.7729
24.8403
36.6398
48.821
59.991
68.8702
74.4314
76.0074
73.3556
66.6737
56.565
43.9595
30.002
15.9198
2.88849
-8.09117
-16.2892
-21.3071
-23.0982
-21.947
-18.4133
-13.2495
-7.30038
-1.40068
3.72058
7.51566
9.66652
10.1012
8.97809
6.64208
3.56081
0.250713
-2.79603
-5.17405
-6.60938
-6.98205
-6.3261
-4.80955
-2.69954
-0.31927
1.99613
3.93853
5.25581
5.76886
5.37659
4.05139
1.82888
-1.20402
-4.91942
-9.15523
-13.7186
-18.3876
-22.9143
-27.0314
-30.4659
-32.9581
-34.2876
-34.2996
-32.9307
-30.2268
-26.3508
-21.5768
-16.2702
-10.8557
-5.77593
-1.44672
1.78647
3.68493
4.14142
3.1904
1.00243
-2.13631
-5.85669
-9.74757
-13.4002
-16.4506
-18.6158
-19.7193
-19.704
-18.6301
-16.6611
-14.0369
-11.0414
-7.96626
-5.07908
-2.5983
-0.680021
0.583371
1.15412
1.03406
0.249689
-1.15552
-3.11512
-5.5153
-8.15078
-10.6639
-12.4758
-12.723
-10.2203
-3.47156
9.24855
29.7269
59.555
99.8015
150.653
211.087
278.643
349.369
417.997
478.354
523.994
548.976
548.68
520.539
464.563
383.557
282.989
170.496
55.1049
-53.7569
-147.308
-218.39
-262.243
-276.987
-263.748
-226.43
-171.165
-105.538
-37.6643
24.735
75.1612
108.976
123.78
119.506
98.2371
63.784
21.1006
-24.3875
-67.451
-103.64
-129.722
-143.931
-146.024
-137.146
-119.55
-96.2215
-70.4495
-45.4225
-23.8755
-7.8314
1.5469
3.99269
0.0695519
-8.97524
-21.4118
-35.2547
-48.4897
-59.2769
-66.1143
-67.9498
-64.2373
-54.9394
-40.4811
-21.6665
0.430403
24.5851
49.5408
74.1127
97.2705
118.193
136.296
151.232
162.869
171.255
176.572
179.089
179.112
176.94
172.83
166.962
159.421
150.183
139.125
126.039
110.67
92.7692
72.1504
48.7538
22.7015
-5.66279
-35.7568
-66.7725
-97.7192
-127.493
-154.969
-179.097
-199.002
-214.062
-223.967
-228.733
-228.698
-224.475
-216.88
-206.849
-195.348
-183.279
-171.412
-160.327
-150.375
-141.675
-134.126
-127.435
-121.174
-114.836
-107.899
-99.9
-90.4908
-79.4928
-66.9324
-53.0565
-38.3228
-23.3664
-8.94235
4.14916
15.1464
23.4096
28.4933
30.1992
28.6025
24.0494
17.1248
8.59598
-0.662953
-9.7561
-17.8512
-24.2564
-28.4795
-30.2652
-29.6057
-26.7255
-22.0421
-16.1097
-9.55107
-2.98703
3.02887
8.06342
11.8397
14.253
15.3666
15.3894
14.6404
13.504
12.3845
11.6641
11.6723
12.6715
14.8633
18.4186
23.5297
30.4807
39.7234
51.943
68.089
89.3481
117.037
152.403
196.341
249.053
309.708
376.172
444.883
510.934
568.402
610.916
632.397
627.894
594.361
531.277
440.972
328.602
201.752
69.7058
-57.5208
-170.268
-260.287
-321.625
-351.245
-349.279
-318.923
-265.975
-198.098
-123.901
-51.9592
10.1053
56.3891
83.223
89.4031
76.1223
46.6325
5.69428
-41.1063
-88.0823
-130.122
-163.237
-184.929
-194.337
-192.169
-180.443
-162.084
-140.441
-118.791
-99.9068
-85.7234
-77.1582
-74.083
-75.4463
-79.5134
-84.1842
-87.3358
-87.1436
-82.3372
-72.3607
-57.4239
-38.4422
-16.8817
5.46899
26.7702
45.4133
60.285
70.9862
77.9802
82.6529
87.2671
94.8041
108.692
132.435
169.178
221.237
289.68
373.982
471.856
579.26
690.63
799.311
898.143
980.152
1039.24
1070.79
1072.17
1042.98
985.081
902.413
800.586
686.326
566.837
449.143
339.488
242.852
162.625
100.461
56.3151
28.6487
14.7596
11.1977
14.2136
20.1869
25.9929
29.2727
28.5869
23.4478
14.2397
2.04626
-11.5846
-24.9053
-36.2289
-44.1554
-47.7402
-46.5905
-40.886
-31.3272
-19.0253
-5.3519
8.22816
20.3207
29.741
35.6151
37.4333
35.0579
28.6883
18.7952
6.03734
-8.82656
-25.0171
-41.7958
-58.5046
-74.5818
-89.5596
-103.049
-114.719
-124.286
-131.498
-136.147
-138.078
-137.21
-133.56
-127.259
-118.565
-107.848
-95.5828
-82.3051
-68.5739
-54.9207
-41.8036
-29.5685
-18.4257
-8.44475
0.431449
8.35326
15.519
22.1257
28.3276
34.2175
39.8394
45.2433
50.5767
56.2007
62.8043
71.4801
83.7228
101.316
126.093
159.576
202.552
254.633
313.925
376.873
438.365
492.127
531.382
549.698
541.901
504.912
438.363
344.888
230.023
101.711
-30.5116
-156.562
-266.926
-353.712
-411.495
-437.845
-433.493
-402.114
-349.778
-284.15
-213.547
-145.988
-88.3304
-45.6146
-20.662
-13.9648
-23.8526
-46.8937
-78.4631
-113.394
-146.627
-173.784
-191.602
-198.192
-193.111
-177.257
-152.613
-121.901
-88.1729
-54.4188
-23.2216
3.49916
24.6327
39.9081
49.8181
55.4576
58.3066
59.9897
62.045
65.7302
71.8848
80.8617
92.5265
106.32
121.37
136.63
151.032
163.624
173.686
180.805
184.904
186.227
185.279
182.738
179.346
175.793
172.612
170.096
168.247
166.769
165.099
162.483
158.073
151.056
140.77
126.816
109.137
88.0523
64.2509
38.7328
12.7126
-12.5055
-35.6665
-55.698
-71.8218
-83.631
-91.1203
-94.6684
-94.9741
-92.956
-89.6281
-85.9705
-82.8094
-80.7248
-79.9941
-80.5796
-82.1575
-84.1832
-85.9799
-86.8384
-86.1125
-83.2971
-78.0806
-70.3665
-60.2649
-48.0589
-34.1543
-19.0227
-3.14799
13.0143
29.0619
44.6527
59.496
73.3353
85.9275
97.0255
106.37
113.692
118.727
121.237
121.041
118.045
112.266
103.851
93.083
80.3742
66.2504
51.3211
36.2461
21.6971
8.32111
-3.29398
-12.6484
-19.3551
-23.1595
-23.9554
-21.7973
-16.9082
-9.68112
-0.671249
9.42388
19.7985
29.5875
37.9283
44.0313
47.2515
47.1548
43.5702
36.6216
26.7385
14.6441
1.3287
-11.9854
-23.8812
-32.7811
-36.9828
-34.7055
-24.1633
-3.68385
28.116
72.094
128.305
195.72
271.994
353.349
434.645
509.648
571.548
613.642
630.156
617.047
572.699
498.367
398.292
279.427
150.805
22.6016
-94.9692
-192.799
-263.898
-304.146
-312.688
-291.923
-247.098
-185.586
-115.931
-46.812
13.9443
60.1916
88.0276
96.0505
85.298
58.9017
21.524
-21.3346
-64.0631
-101.609
-130.015
-146.772
-150.963
-143.2
-125.388
-100.359
-71.4317
-41.9637
-14.9456
7.31386
23.3846
32.7835
35.9184
33.9296
28.4601
21.3901
14.5751
9.61815
7.70283
9.49873
15.144
24.2961
36.2369
50.0095
64.5686
78.921
92.2414
103.951
113.756
121.638
127.815
132.668
136.656
140.23
143.746
147.412
151.245
155.068
158.526
161.127
162.308
161.503
158.213
152.077
142.92
130.785
115.946
98.8916
80.2852
60.906
41.5753
23.0754
6.07126
-8.95557
-21.7518
-32.3099
-40.8544
-47.799
-53.678
-59.0616
-64.4658
-70.268
-76.642
-83.5199
-90.5882
-97.3199
-103.039
-107.008
-108.533
-107.06
-102.259
-94.0854
-82.7997
-68.9487
-53.3129
-36.8218
-20.4529
-5.12561
8.39277
19.5585
28.0897
33.9673
37.4022
38.7733
38.5498
37.2097
35.1669
32.7187
30.0183
27.0756
23.7829
19.9596
15.4075
9.96642
3.56285
-3.75642
-11.8099
-20.288
-28.7781
-36.8069
-43.8905
-49.5891
-53.5565
-55.5797
-55.6029
-53.7333
-50.2285
-45.4662
-39.9005
-34.0107
-28.2476
-22.9853
-18.4858
-14.8797
-12.1682
-10.2437
-8.92588
-8.00522
-7.28139
-6.5856
-5.77522
-4.69461
-3.10359
-0.585283
3.54498
10.2996
21.0155
37.2592
60.6282
92.4534
133.438
183.289
240.413
301.761
362.884
418.233
461.7
487.356
490.266
467.284
417.673
343.448
249.367
142.542
31.7089
-73.7356
-164.822
-234.051
-276.261
-289.195
-273.703
-233.558
-174.921
-105.533
-33.7629
32.3796
86.1294
122.645
139.413
136.343
115.571
81.0046
37.7027
-8.82764
-53.3197
-91.3359
-119.692
-136.681
-142.089
-137.029
-123.625
-104.618
-82.9448
-61.351
-42.0784
-26.6639
-15.8551
-9.63934
-7.36562
-7.93127
-9.99926
-12.2136
-13.385
-12.6265
-9.42794
-3.66852
4.42735
14.3758
25.5442
37.2679
48.9542
60.161
70.6391
80.3383
89.3778
97.9919
106.46
115.036
123.885
133.045
142.405
151.713
160.601
168.636
175.363
180.359
183.273
183.853
181.958
177.556
170.712
161.567
150.324
137.231
122.575
106.684
89.9208
72.6929
55.4449
38.6508
22.7946
8.34401
-4.28154
-14.7445
-22.8188
-28.4119
-31.5737
-32.4927
-31.4767
-28.9216
-25.2711
-20.9718
-16.4298
-11.972
-7.81967
-4.07366
-0.715803
2.37562
5.3979
8.58702
12.1763
16.3552
21.2334
26.8129
32.9726
39.4668
45.9384
51.9458
57.0023
60.6228
62.3735
61.919
59.0613
53.7661
46.173
36.5888
25.464
13.3554
0.87912
-11.3404
-22.7206
-32.7638
-41.0903
-47.458
-51.7693
-54.0641
-54.5035
-53.3452
-50.9157
-47.5807
-43.7196
-39.702
-35.8706
-32.5282
-29.9289
-28.2725
-27.6991
-28.2861
-30.0448
-32.9173
-36.7758
-41.4234
-46.5973
-51.9723
-57.1644
-61.7267
-65.1371
-66.7724
-65.8724
-61.5021
-52.5298
-37.6419
-15.4222
15.4898
56.156
107.032
167.638
236.271
309.835
383.848
452.683
510.032
549.577
565.765
554.597
514.299
445.76
352.66
241.243
119.748
-2.4349
-115.775
-211.649
-283.29
-326.504
-340.075
-325.808
-288.211
-233.872
-170.612
-106.545
-49.139
-4.4165
23.6283
33.3376
25.4023
2.59787
-30.7052
-69.1808
-107.25
-139.757
-162.546
-172.87
-169.602
-153.248
-125.756
-90.1832
-50.2628
-9.92852
27.1385
57.8919
80.1935
92.958
96.1649
90.7508
78.4085
61.3263
41.9049
22.4866
5.12747
-8.56959
-17.5487
-21.3238
-19.9375
-13.8722
-3.93007
8.89926
23.5658
39.0689
54.5401
69.2938
82.8474
94.9123
105.363
114.19
121.446
127.194
131.459
134.201
135.293
134.532
131.663
126.417
118.565
107.969
94.6349
78.7483
60.6893
41.0287
20.4969
-0.06734
-19.7841
-37.8078
-53.4014
-66.0014
-75.2642
-81.0912
-83.6276
-83.2371
-80.4561
-75.9327
-70.3579
-64.3978
-58.6333
-53.5134
-49.3266
-46.1923
-44.0703
-42.7871
-42.0723
-41.6001
-41.0306
-40.0448
-38.3707
-35.7999
-32.1952
-27.4915
-21.6929
-14.8693
-7.154
1.25761
10.1081
19.0802
27.8045
35.8754
42.8781
48.427
52.2112
54.0432
53.9009
51.956
48.58
44.3237
39.8687
35.9562
33.299
32.4887
33.9104
37.6774
43.5956
51.1653
59.6208
68.0051
75.2711
80.3969
82.5011
80.9434
75.3998
65.9007
52.8297
36.8831
18.9948
0.237911
-18.2869
-35.5609
-50.7425
-63.2377
-72.7359
-79.208
-82.8652
-84.0816
-83.2873
-80.8409
-76.8956
-71.2741
-63.3741
-52.1266
-36.0307
-13.2845
17.9784
59.3552
111.773
175.077
247.681
326.364
406.288
481.28
544.382
588.624
607.918
597.949
556.916
486
389.457
274.317
149.694
25.8101
-87.1443
-180.162
-246.426
-282.031
-286.356
-262.013
-214.43
-151.104
-80.6606
-11.8214
47.5676
91.3481
115.608
118.94
102.396
69.1673
24.0449
-27.2434
-78.7447
-124.947
-161.331
-184.758
-193.668
-188.081
-169.437
-140.291
-103.931
-63.9556
-23.8622
13.3057
45.2291
70.4783
88.5665
99.8995
105.637
107.488
107.472
107.665
109.968
115.907
126.494
142.139
162.646
187.255
214.751
243.606
272.148
298.734
321.904
340.518
353.835
361.556
363.804
361.068
354.1
343.798
331.082
316.784
301.559
285.837
269.813
253.467
236.621
219.007
200.346
180.423
159.147
136.588
112.993
88.7801
64.5114
40.848
18.4981
-1.8407
-19.5387
-34.0874
-45.1434
-52.5615
-56.4117
-56.9792
-54.7453
-50.3489
-44.5325
-38.0751
-31.7204
-26.1067
-21.708
-18.7925
-17.4059
-17.381
-18.3731
-19.9166
-21.4954
-22.6178
-22.8844
-22.0419
-20.0148
-16.9121
-13.0083
-8.70309
-4.46657
-0.775895
1.94549
3.37959
3.34965
1.83627
-1.027
-4.97638
-9.65426
-14.6529
-19.5585
-23.9901
-27.6283
-30.2328
-31.6478
-31.7994
-30.686
-28.3673
-24.955
-20.6059
-15.5192
-9.93574
-4.13734
1.55807
6.80733
11.2612
14.592
16.5275
16.888
15.6204
12.8243
8.7631
3.85687
-1.34586
-6.21563
-10.1042
-12.4131
-12.6587
-10.5211
-5.869
1.25214
10.669
22.1685
35.6142
51.0774
68.9553
90.0476
115.558
146.992
185.937
233.734
291.077
357.597
431.521
509.493
586.613
656.751
713.118
749.041
758.835
738.656
687.194
606.079
499.934
376.032
243.601
112.849
-6.15386
-104.592
-175.875
-216.325
-225.504
-206.153
-163.744
-105.733
-40.6146
23.0982
77.8335
117.748
139.254
141.247
125.013
93.8703
52.5908
6.70674
-38.2161
-77.24
-106.581
-123.941
-128.638
-121.514
-104.684
-81.1425
-54.3205
-27.626
-4.04534
14.1605
25.6377
29.9908
27.7136
20.0252
8.64131
-4.48001
-17.3864
-28.3437
-35.9944
-39.4517
-38.3301
-32.7187
-23.1097
-10.2972
4.73938
20.9522
37.3317
52.9931
67.2393
79.595
89.8133
97.8574
103.861
108.075
110.804
112.348
112.951
112.757
111.802
110.008
107.216
103.221
97.8249
90.8924
82.3933
72.4368
61.284
49.3387
37.1173
25.2009
14.1774
4.57978
-3.16942
-8.80125
-12.2244
-13.5276
-12.9595
-10.8906
-7.76172
-4.02757
-0.103371
3.67731
7.08819
10.0161
12.4475
14.439
16.0772
17.4364
18.5407
19.3374
19.6878
19.3772
18.1429
15.7191
11.8896
6.54289
-0.281859
-8.36388
-17.2936
-26.492
-35.257
-42.8344
-48.5037
-51.6721
-51.9603
-49.2698
-43.8181
-36.1359
-27.0209
-17.4549
-8.49195
-1.13312
3.79494
5.74039
4.49142
0.196696
-6.6616
-15.3383
-24.9295
-34.4952
-43.1841
-50.3422
-55.5908
-58.864
-60.4007
-60.6942
-60.4075
-60.2667
-60.95
-62.9861
-66.6778
-72.0592
-78.8924
-86.7005
-94.8336
-102.554
-109.131
-113.927
-116.465
-116.465
-113.838
-108.636
-100.955
-90.8114
-77.9969
-61.9541
-41.6982
-15.8242
17.3712
59.6418
112.429
176.424
251.128
334.489
422.727
510.389
590.715
656.263
699.761
715.054
698.02
647.299
564.718
455.312
326.947
189.541
54.0194
-68.8896
-169.84
-241.888
-281.212
-287.449
-263.606
-215.584
-151.372
-80.0422
-10.6668
48.699
91.8506
114.994
116.98
99.2153
65.2729
20.287
-29.7862
-78.9375
-121.807
-154.242
-173.658
-179.178
-171.552
-152.9
-126.317
-95.4062
-63.8122
-34.7953
-10.9071
6.21436
15.9157
18.476
14.9528
6.95846
-3.59661
-14.7582
-24.7505
-32.1433
-35.9545
-35.6824
-31.2781
-23.068
-11.6457
2.24963
17.8493
34.4518
51.4894
68.56
85.4241
101.971
118.163
133.968
149.293
163.925
177.499
189.489
199.231
205.978
208.976
207.56
201.249
189.833
173.437
152.554
128.032
101.032
72.9434
45.2686
19.5029
-2.99535
-21.1176
-34.0941
-41.5494
-43.5182
-40.4251
-33.0283
-22.3396
-9.52688
4.1874
17.6234
29.7279
39.6397
46.7338
50.6423
51.2559
48.7072
43.3399
35.6687
26.3331
16.0493
5.56187
-4.40203
-13.1748
-20.1864
-24.997
-27.3223
-27.0514
-24.2537
-19.1752
-12.2218
-3.93096
5.06835
14.1032
22.5094
29.684
35.1333
38.5107
39.6427
38.5389
35.3852
30.5228
24.4124
17.5904
10.6183
4.0325
-1.70226
-6.23192
-9.34117
-10.9688
-11.2095
-10.3024
-8.60726
-6.57085
-4.68637
-3.44953
-3.315
-4.65666
-7.7346
-12.6707
-19.4337
-27.8341
-37.5282
-48.0316
-58.7427
-68.9742
-77.9941
-85.0739
-89.5382
-90.8118
-88.454
-82.169
-71.7867
-57.2076
-38.3192
-14.9009
13.4552
47.3727
87.6344
135.021
190.046
252.616
321.683
394.962
468.797
538.253
597.456
640.17
660.547
653.943
617.682
551.629
458.474
343.666
214.985
81.8025
-45.8856
-158.524
-248.021
-308.599
-337.375
-334.584
-303.45
-249.716
-180.906
-105.425
-31.6059
33.1745
83.2146
114.962
127.21
121.006
99.3098
66.4675
27.5678
-12.2211
-48.256
-76.8966
-95.8105
-104.084
-102.149
-91.5451
-74.5826
-53.9398
-32.27
-11.8606
5.61431
19.2272
28.8125
34.8751
38.4201
40.735
43.1614
46.8902
52.804
61.3835
72.6821
86.3631
101.785
118.117
134.467
149.994
164.006
176.019
185.778
193.251
198.582
202.036
203.924
204.537
204.085
202.655
200.194
196.511
191.306
184.22
174.895
163.039
148.495
131.286
111.654
90.0647
67.1912
43.866
21.0161
-0.418357
-19.5699
-35.7246
-48.3877
-57.327
-62.5888
-64.4853
-63.5551
-60.5024
-56.1224
-51.2212
-46.5408
-42.695
-40.1244
-39.0731
-39.5881
-41.5396
-44.6577
-48.5794
-52.9005
-57.2247
-61.2042
-64.5699
-67.1464
-68.8535
-69.6953
-69.7399
-69.0932
-67.8709
-66.1728
-64.0608
-61.5459
-58.5826
-55.0744
-50.8882
-45.8782
-39.9156
-32.9216
-24.8991
-15.9583
-6.33229
3.62079
13.4319
22.5515
30.3948
36.3991
40.0859
41.1229
39.3745
34.9361
28.143
19.5522
9.89553
0.00970432
-9.24954
-17.099
-22.9128
-26.2898
-27.0941
-25.463
-21.7828
-16.6346
-10.7185
-4.76647
0.544627
4.66855
7.24542
8.13145
7.40113
5.32451
2.32603
-1.06519
-4.2619
-6.65039
-7.59813
-6.43327
-2.39988
5.3977
18.039
36.7911
63.0435
98.1518
143.189
198.62
263.951
337.415
415.776
494.325
567.111
627.43
668.524
684.42
670.785
625.665
549.986
447.717
325.64
192.744
59.3176
-64.171
-168.226
-245.375
-290.979
-303.68
-285.459
-241.281
-178.408
-105.459
-31.3634
35.666
89.0103
124.27
139.578
135.585
115.142
82.7371
43.7839
3.86151
-32.0005
-59.8988
-77.4359
-83.8718
-80.0463
-68.1017
-51.0595
-32.318
-15.143
-2.21991
4.67777
4.86944
-1.21485
-12.1688
-25.8658
-39.7931
-51.4119
-58.4948
-59.398
-53.2365
-39.9503
-20.2601
4.46992
32.4387
61.649
90.1514
116.258
138.706
156.752
170.19
179.313
184.801
187.586
188.683
189.037
189.38
190.135
191.361
192.753
193.694
193.342
190.753
185.013
175.374
161.366
142.882
120.219
94.0786
65.5149
35.8485
6.54627
-20.9146
-45.1856
-65.1734
-80.1386
-89.7579
-94.1412
-93.8023
-89.5879
-82.5726
-73.9333
-64.818
-56.2265
-48.9149
-43.3374
-39.6303
-37.6381
-36.9761
-37.1185
-37.4965
-37.5919
-37.0108
-35.528
-33.096
-29.821
-25.9115
-21.6111
-17.13
-12.5877
-7.97901
-3.16978
2.07596
8.0424
14.9911
23.0859
32.3264
42.5046
53.191
63.7571
73.431
81.3806
86.8131
89.0765
87.7498
82.7076
74.1507
62.5976
48.8374
33.8503
18.7061
4.45344
-7.98577
-17.9045
-24.871
-28.7544
-29.7166
-28.1701
-24.7116
-20.0401
-14.8698
-9.84946
-5.49664
-2.15389
0.0296975
1.09128
1.22411
0.729798
-0.039305
-0.738765
-1.08191
-0.871347
-0.00384704
1.55702
3.84159
6.96278
11.2199
17.1964
25.8244
38.3868
56.4318
81.585
115.266
158.332
210.709
271.067
336.625
403.151
465.196
516.566
550.995
562.934
548.343
505.367
434.782
340.133
227.523
105.072
-17.8987
-131.844
-228.021
-299.428
-341.538
-352.741
-334.445
-290.835
-228.325
-154.781
-78.6112
-7.85375
50.6592
91.9437
113.263
114.251
96.7565
64.4646
22.3355
-24.0458
-69.1332
-108.019
-136.904
-153.401
-156.649
-147.242
-127.007
-98.6602
-65.4056
-30.5193
3.02303
32.8412
57.3387
75.7755
88.2296
95.4658
98.7388
99.5631
99.4823
99.8659
101.756
105.776
112.105
120.512
130.441
141.124
151.711
161.395
169.512
175.621
179.535
181.326
181.289
179.881
177.645
175.125
172.79
170.964
169.786
169.182
168.868
168.374
167.09
164.33
159.406
151.706
140.779
126.397
108.606
87.7499
64.4607
39.6176
14.2775
-10.4187
-33.3523
-53.5336
-70.1969
-82.8724
-91.4249
-96.0557
-97.2663
-95.7888
-92.4913
-88.2692
-83.9375
-80.1347
-77.2519
-75.3951
-74.3849
-73.7935
-73.0153
-71.3588
-68.1518
-62.8423
-55.0842
-44.7966
-32.188
-17.7449
-2.18477
13.618
28.7243
42.2288
53.3518
61.5149
66.3916
67.9287
66.3377
62.0587
55.7031
47.9823
39.6316
31.3382
23.6804
17.0838
11.7982
7.89457
5.28219
3.74064
2.96247
2.60056
2.31439
1.81019
0.87097
-0.625955
-2.70471
-5.29906
-8.27083
-11.4354
-14.5904
-17.5439
-20.138
-22.2667
-23.8846
-25.0073
-25.7043
-26.0842
-26.2775
-26.414
-26.6003
-26.893
-27.2687
-27.5871
-27.5481
-26.644
-24.1145
-18.9164
-9.72485
5.01455
26.9646
57.6967
98.4157
149.633
210.831
280.183
354.403
428.78
497.453
553.914
591.719
605.296
590.755
546.564
473.972
377.1
262.665
139.356
16.9325
-94.8312
-187.225
-253.56
-289.875
-295.318
-272.145
-225.357
-162.028
-90.4246
-19.0267
44.416
93.6864
124.669
135.637
127.236
102.202
64.8543
20.458
-25.4716
-67.8244
-102.442
-126.497
-138.682
-139.196
-129.554
-112.262
-90.4043
-67.2067
-45.628
-28.0278
-15.9419
-9.98237
-9.86025
-14.5158
-22.3275
-31.3662
-39.6586
-45.4261
-47.2746
-44.3184
-36.2319
-23.2314
-6.0006
14.4274
36.8099
59.8394
82.2766
103.058
121.369
136.688
148.784
157.692
163.668
167.118
168.533
168.423
167.255
165.415
163.173
160.679
157.961
154.945
151.479
147.369
142.408
136.409
129.23
120.799
111.123
100.297
88.4985
75.9832
63.0674
50.1091
37.4856
25.5689
14.7014
5.17482
-2.78713
-9.03967
-13.5206
-16.2462
-17.2998
-16.8151
-14.9558
-11.8969
-7.80842
-2.84823
2.83799
9.10696
15.8018
22.733
29.6622
36.2937
42.2777
47.229
50.7598
52.5231
52.2611
49.8497
45.3307
38.924
31.0156
22.1205
12.8242
3.71188
-4.70608
-12.0589
-18.1616
-23.0334
-26.8869
-30.0873
-33.0874
-36.3486
-40.2576
-45.0518
-50.7653
-57.2027
-63.9474
-70.4034
-75.8659
-79.6122
-81.0007
-79.564
-75.0854
-67.6462
-57.6385
-45.7397
-32.8523
-20.0151
-8.2988
1.30265
7.96909
11.1288
10.5022
6.11148
-1.74162
-12.5233
-25.5298
-39.9522
-54.9318
-69.5964
-83.0697
-94.4539
-102.789
-106.997
-105.838
-97.8905
-81.5892
-55.3417
-17.7357
32.1695
94.496
168.197
250.774
338.146
424.723
503.75
567.89
610.02
624.132
606.206
554.927
472.105
362.724
234.578
97.5219
-37.5668
-159.983
-260.389
-331.843
-370.53
-376.1
-351.572
-302.845
-237.872
-165.635
-95.05
-33.9545
11.71
38.4209
45.2632
33.7849
7.56369
-28.4348
-68.6081
-107.471
-140.317
-163.71
-175.765
-176.198
-166.167
-147.944
-124.485
-98.9501
-74.2587
-52.7225
-35.8003
-23.9962
-16.8998
-13.3494
-11.6853
-10.0508
-6.69395
-0.231045
10.1637
24.6607
42.7775
63.4726
85.3119
106.681
126.008
141.977
153.683
160.739
163.296
162.001
157.885
152.208
146.284
141.3
138.163
137.384
139.021
142.665
147.505
152.42
156.12
157.304
154.808
147.744
135.603
118.3
96.1867
70.0034
40.7943
9.79678
-21.6838
-52.3942
-81.2368
-107.344
-130.119
-149.24
-164.638
-176.448
-184.951
-190.517
-193.554
-194.471
-193.655
-191.461
-188.217
-184.22
-179.738
-175.003
-170.192
-165.405
-160.639
-155.773
-150.557
-144.627
-137.541
-128.833
-118.085
-105.002
-89.4804
-71.6583
-51.9397
-30.9815
-9.64751
11.0675
30.135
46.5988
59.6747
68.8345
73.8598
74.8633
72.2739
66.7884
59.2988
50.7997
42.2908
34.6805
28.7017
24.8475
23.3319
24.0792
26.7433
30.7536
35.3849
39.8418
43.3516
45.2538
45.0776
42.5989
37.8694
31.2148
23.2017
14.5759
6.17993
-1.14362
-6.65049
-9.78683
-10.2644
-8.11066
-3.68731
2.32798
8.99882
15.2267
19.8836
21.9741
20.8154
16.2193
8.65372
-0.642145
-9.6192
-15.4849
-14.898
-4.30068
19.6223
59.3966
116.191
189.315
275.893
370.788
466.855
555.518
627.65
674.627
689.447
667.723
608.419
514.194
391.301
249.022
98.7234
-47.3651
-177.48
-281.597
-352.489
-386.433
-383.499
-347.382
-284.834
-204.764
-117.141
-31.8381
42.4459
99.0498
133.925
145.864
136.383
109.298
70.0677
25.0057
-19.5454
-57.9641
-85.9494
-100.907
-102.097
-90.5454
-68.7519
-40.247
-9.06606
20.7893
45.8359
63.4853
72.2769
71.9497
63.3616
48.2769
29.0641
8.34935
-11.3252
-27.7939
-39.479
-45.5011
-45.6867
-40.4842
-30.8118
-17.8676
-2.93399
12.7955
28.3449
43.0294
56.4704
68.5601
79.39
89.1576
98.0717
106.27
113.758
120.382
125.823
129.624
131.233
130.057
125.525
117.155
104.615
87.7763
66.7633
41.9791
14.1169
-15.8545
-46.7297
-77.1317
-105.597
-130.675
-151.039
-165.592
-173.557
-174.555
-168.643
-156.326
-138.527
-116.522
-91.8498
-66.1944
-41.2568
-18.6257
0.343022
14.6273
23.6117
27.1275
25.4559
19.2961
9.7001
-2.0206
-14.4092
-25.9899
-35.3952
-41.485
-43.444
-40.8506
-33.7094
-22.4446
-7.85605
8.95858
26.7066
44.0183
59.5683
72.1892
80.9659
85.3027
84.9575
80.0404
70.9803
58.4635
43.3541
26.6052
9.17038
-8.07442
-24.3925
-39.2275
-52.2219
-63.2145
-72.2205
-79.3971
-85.001
-89.342
-92.7358
-95.4608
-97.7213
-99.6196
-101.14
-102.146
-102.395
-101.566
-99.3019
-95.2675
-89.2068
-81.0009
-70.7154
-58.6276
-45.2287
-31.1943
-17.3217
-4.43654
6.72886
15.6743
22.2766
26.9211
30.598
34.9369
42.153
54.8852
75.9149
107.777
152.298
210.111
280.244
359.852
444.178
526.804
600.188
656.456
688.355
690.237
658.925
594.321
499.651
381.277
248.108
110.659
-20.1051
-133.993
-222.701
-280.691
-305.695
-298.832
-264.297
-208.712
-140.235
-67.5329
1.21431
59.186
101.554
125.828
131.89
121.747
99.0513
68.4729
35.0163
3.36623
-22.655
-40.4661
-48.9099
-48.2378
-39.9188
-26.3137
-10.2693
5.30923
17.8524
25.4399
27.0034
22.4028
12.3811
-1.58713
-17.5221
-33.207
-46.462
-55.3916
-58.582
-55.2283
-45.1876
-28.9552
-7.57435
17.5069
44.6133
72.032
98.1943
121.826
142.056
158.465
171.076
180.293
186.789
191.367
194.806
197.717
200.431
202.93
204.835
205.454
203.879
199.134
190.329
176.813
158.308
134.982
107.479
76.8729
44.574
12.1878
-18.6518
-46.4513
-70.0082
-88.5256
-101.676
-109.61
-112.908
-112.49
-109.492
-105.116
-100.502
-96.596
-94.0621
-93.2283
-94.072
-96.2439
-99.1234
-101.897
-103.651
-103.471
-100.536
-94.2107
-84.1188
-70.2017
-52.7497
-32.4059
-10.1356
12.8374
35.1277
55.3096
72.0525
84.2573
91.1756
92.4988
88.4014
79.534
66.9612
52.0514
36.331
21.3193
8.36513
-1.49439
-7.63649
-9.90423
-8.60227
-4.43905
1.57542
8.26218
14.4192
18.9624
21.0467
20.1535
16.1373
9.2287
-0.00440574
-10.7303
-21.9531
-32.6263
-41.7681
-48.5674
-52.4687
-53.2292
-50.9415
-46.0211
-39.1582
-31.2424
-23.2644
-16.208
-10.9414
-8.1174
-8.09037
-10.8542
-16.003
-22.7155
-29.7619
-35.5354
-38.1119
-35.3434
-24.9931
-4.91652
26.7097
71.1224
128.688
198.638
278.861
365.805
454.538
538.983
612.349
667.733
698.834
700.7
670.423
607.658
514.904
397.469
263.102
121.318
-17.516
-143.23
-246.899
-321.766
-363.916
-372.619
-350.301
-302.157
-235.466
-158.694
-80.5142
-8.86601
49.8394
91.2771
113.48
116.816
103.693
78.0568
44.7607
8.89495
-24.8369
-52.6235
-71.8834
-81.4134
-81.3502
-72.9743
-58.3984
-40.1949
-21.0165
-3.2577
11.2063
21.1812
26.2107
26.5369
22.9843
16.7924
9.42652
2.39225
-2.92544
-5.38444
-4.16262
1.20977
10.8569
24.5943
41.9849
62.4044
85.1061
109.279
134.095
158.743
182.451
204.504
224.246
241.097
254.555
264.213
269.769
271.039
267.968
260.629
249.231
234.102
215.681
194.503
171.175
146.359
120.747
95.0341
69.8979
45.967
23.796
3.83999
-13.5677
-28.2317
-40.1025
-49.2729
-55.9622
-60.4883
-63.2284
-64.5732
-64.8811
-64.4354
-63.4136
-61.8707
-59.74
-56.8516
-52.9654
-47.8164
-41.1655
-32.8502
-22.8294
-11.2151
1.71189
15.5067
29.5854
43.2689
55.8407
66.6128
74.991
80.5326
82.9876
82.3196
78.7023
72.4931
64.1878
54.364
43.6193
32.5154
21.5321
11.0381
1.27776
-7.62597
-15.6565
-22.881
-29.4242
-35.4424
-41.0998
-46.5485
-51.9119
-57.2719
-62.6585
-68.0427
-73.3332
-78.3772
-82.9661
-86.8478
-89.745
-91.3786
-91.495
-89.8953
-86.4618
-81.1815
-74.1603
-65.6289
-55.9374
-45.5375
-34.9536
-24.7413
-15.4344
-7.47877
-1.15644
3.50009
6.79465
9.44427
12.6281
17.986
27.5442
43.5494
68.2064
103.332
149.962
207.957
275.698
349.918
425.756
497.056
556.909
598.396
615.448
603.683
561.129
488.675
390.191
272.275
143.636
14.1928
-105.999
-207.849
-284.215
-330.656
-345.841
-331.581
-292.494
-235.355
-168.218
-99.4402
-36.7298
13.6751
47.5946
63.2118
61.075
43.8188
15.6583
-18.2637
-52.5866
-82.4069
-103.839
-114.404
-113.209
-100.924
-79.5574
-52.0987
-22.0594
7.0081
31.9608
50.4323
61.0784
63.6824
59.1163
49.1751
36.3095
23.2967
12.8891
7.48188
8.83671
17.8877
34.6489
58.2284
86.9446
118.527
150.378
179.862
204.598
222.705
232.992
235.067
229.348
216.982
199.688
179.537
158.703
139.208
122.705
110.309
102.5
99.1066
99.3735
102.086
105.751
108.795
109.761
107.484
101.211
90.6703
76.0775
58.0844
37.6856
16.0948
-5.38976
-25.515
-43.1843
-57.5417
-68.0238
-74.3798
-76.6632
-75.2004
-70.5432
-63.4107
-54.6281
-45.0637
-35.5686
-26.9202
-19.7696
-14.5969
-11.6744
-11.0424
-12.5003
-15.6169
-19.7627
-24.1634
-27.9741
-30.3673
-30.6258
-28.2314
-22.9354
-14.802
-4.21717
8.14189
21.372
34.4387
46.2885
55.9638
62.7081
66.0461
65.8307
62.251
55.8006
47.2129
37.3699
27.1985
17.5665
9.1906
2.56767
-2.06429
-4.73253
-5.7044
-5.43606
-4.50323
-3.52361
-3.08123
-3.66119
-5.60102
-9.06177
-14.019
-20.2713
-27.4634
-35.1198
-42.6864
-49.5785
-55.2324
-59.1609
-61.0077
-60.5977
-57.9756
-53.4238
-47.4522
-40.7496
-34.095
-28.2298
-23.7001
-20.6916
-18.8819
-17.3452
-14.544
-8.43408
3.30538
22.924
52.1728
91.857
141.448
198.834
260.291
320.695
374
413.919
434.732
432.095
403.74
349.93
273.613
180.219
77.1243
-27.1429
-123.864
-205.116
-264.659
-298.607
-305.802
-287.849
-248.826
-194.709
-132.607
-69.9035
-13.4195
31.3068
60.5429
72.6407
68.0571
49.1327
19.6736
-15.602
-51.6776
-83.8397
-108.2
-122.08
-124.238
-114.901
-95.6378
-69.0773
-38.5273
-7.53868
20.5299
42.8969
57.6509
63.9244
61.936
52.9042
38.8524
22.3349
6.11978
-7.13152
-15.1533
-16.3033
-9.70926
4.67597
26.1092
53.1724
83.9504
116.248
147.82
176.589
200.833
219.313
231.349
236.818
236.11
230.01
219.573
205.966
190.321
173.615
156.576
139.637
122.936
106.35
89.575
72.2143
53.8863
34.3188
13.4259
-8.64427
-31.4979
-54.5175
-76.9157
-97.8103
-116.312
-131.611
-143.056
-150.211
-152.892
-151.181
-145.407
-136.118
-124.025
-109.943
-94.7263
-79.2057
-64.1323
-50.1346
-37.69
-27.1118
-18.5511
-12.0111
-7.36925
-4.40214
-2.80844
-2.22697
-2.24885
-2.42614
-2.28059
-1.31786
0.94916
4.96583
11.0913
19.549
30.3781
43.3968
58.1827
74.0797
90.2339
105.657
119.314
130.224
137.564
140.762
139.561
134.061
124.711
112.264
97.703
82.1371
66.6845
52.3612
39.9821
30.0904
22.92
18.3953
16.1654
15.6669
16.2062
17.0493
17.5099
17.0223
15.1954
11.8404
6.97271
0.789466
-6.3713
-14.0842
-21.8939
-29.3694
-36.1454
-41.9459
-46.5837
-49.9315
-51.8678
-52.1981
-50.5651
-46.3601
-38.66
-26.2139
-7.50442
19.0966
55.0746
101.439
158.35
224.776
298.254
374.821
449.185
515.131
566.15
596.201
600.513
576.307
523.303
443.957
343.35
228.754
108.911
-6.87159
-109.706
-192.06
-248.525
-276.338
-275.578
-249.052
-201.873
-140.792
-73.3951
-7.23589
50.9676
95.9944
124.567
135.542
129.844
110.16
80.4507
45.3576
9.56912
-22.7575
-48.4591
-65.664
-73.8976
-73.9983
-67.8689
-58.1067
-47.5697
-38.94
-34.3401
-35.0508
-41.3605
-52.5583
-67.0652
-82.6793
-96.8962
-107.261
-111.706
-108.824
-98.0523
-79.7472
-55.1325
-26.1478
4.79056
35.078
62.2245
84.1315
99.3117
107.024
107.316
100.967
89.3498
74.2307
57.5395
41.1342
26.5966
15.076
7.19834
3.04476
2.19481
3.82377
6.83658
10.0196
12.1909
12.3329
9.69226
3.8401
-5.31137
-17.5342
-32.3441
-49.0833
-67.0127
-85.4017
-103.6
-121.087
-137.488
-152.566
-166.181
-178.238
-188.632
-197.192
-203.656
-207.663
-208.784
-206.571
-200.629
-190.692
-176.696
-158.829
-137.556
-113.61
-87.9552
-61.7135
-36.078
-12.213
8.84506
26.2771
39.5533
48.4816
53.2282
54.3081
52.5435
48.9922
44.8498
41.3328
39.5532
40.3984
44.429
51.8078
62.2716
75.1483
89.422
103.838
117.035
127.694
134.682
137.169
134.725
127.354
115.499
99.9833
81.9222
62.6033
43.3509
25.3936
9.74638
-2.87848
-12.124
-18.0002
-20.855
-21.3096
-20.1667
-18.3025
-16.5557
-15.6262
-15.9947
-17.8723
-21.1854
-25.5953
-30.551
-35.3636
-39.2944
-41.6399
-41.7982
-39.3042
-33.8213
-25.0882
-12.8305
3.34121
24.0118
49.984
82.2084
121.605
168.785
223.716
285.392
351.586
418.773
482.261
536.554
575.934
595.163
590.235
559.04
501.829
421.409
323.004
213.789
102.165
-3.15828
-94.1196
-164.204
-209.141
-227.33
-219.931
-190.628
-145.097
-90.2694
-33.4729
18.4144
59.7104
86.4812
96.845
91.0086
71.0498
40.4924
3.74272
-34.5323
-70.0007
-99.1647
-119.706
-130.65
-132.338
-126.238
-114.617
-100.151
-85.5014
-72.9507
-64.1098
-59.7526
-59.7817
-63.3204
-68.9099
-74.7753
-79.1188
-80.3958
-77.537
-70.0883
-58.2545
-42.8462
-25.1418
-6.69124
10.9118
26.2529
38.286
46.4625
50.7867
51.7909
50.4379
47.9674
45.7086
44.8863
46.4463
50.9232
58.3661
68.3305
79.9355
91.9754
103.072
111.844
117.076
117.858
113.694
104.546
90.8345
73.3812
53.3074
31.905
10.4941
-9.71606
-27.7453
-42.9295
-54.967
-63.9211
-70.181
-74.3868
-77.3277
-79.828
-82.6327
-86.3082
-91.1691
-97.2407
-104.26
-111.713
-118.906
-125.058
-129.393
-131.243
-130.12
-125.769
-118.192
-107.638
-94.5691
-79.6025
-63.4468
-46.8293
-30.4335
-14.8464
-0.524383
12.2228
23.2295
32.4562
39.9597
45.8574
50.2915
53.397
55.2791
56.0006
55.5812
54.0077
51.251
47.2875
42.1206
35.7981
28.4233
20.157
11.2116
1.83766
-7.69448
-17.1136
-26.1648
-34.6212
-42.2888
-49.0047
-54.6305
-59.0433
-62.1293
-63.7825
-63.9098
-62.4445
-59.3649
-54.7153
-48.6252
-41.3214
-33.1298
-24.4641
-15.7987
-7.62753
-0.408162
5.50731
9.95131
13.0257
15.1845
17.3023
20.7107
27.1809
38.8316
57.9445
86.684
126.735
178.895
242.691
316.075
395.298
475.013
548.638
608.975
649.015
662.837
646.467
598.566
520.822
417.977
297.459
168.657
41.9167
-72.5907
-166.003
-231.737
-266.177
-268.997
-243.086
-194.094
-129.673
-58.5181
10.6609
70.1115
113.833
138.111
141.747
125.968
94.0646
50.8131
1.77205
-47.4456
-91.8365
-127.531
-152.122
-164.784
-166.178
-158.183
-143.504
-125.22
-106.33
-89.3667
-76.1055
-67.4139
-63.2325
-62.6859
-64.2924
-66.2373
-66.6662
-63.9598
-56.9524
-45.0733
-28.3961
-7.59892
16.1527
41.3796
66.4923
89.9963
110.674
127.721
140.827
150.185
156.444
160.603
163.86
167.447
172.453
179.675
189.494
201.812
216.034
231.122
245.695
258.176
266.966
270.618
268.004
258.443
241.784
218.433
189.321
155.822
119.629
82.5992
46.5924
13.3153
-15.8149
-39.7701
-57.971
-70.2998
-77.0695
-78.9554
-76.898
-71.9885
-65.3518
-58.0365
-50.9242
-44.6652
-39.646
-35.9877
-33.5753
-32.1099
-31.1777
-30.3257
-29.1343
-27.2782
-24.5699
-20.9786
-16.6259
-11.7582
-6.70139
-1.80553
2.61288
6.32156
9.20908
11.3022
12.7623
13.8614
14.9423
16.3693
18.4754
21.5148
25.6257
30.8096
36.9264
43.7092
50.7916
57.7472
64.1328
69.5307
73.585
76.0262
76.6839
75.4848
72.4399
67.6234
61.1467
53.1348
43.7068
32.9658
20.9992
7.8868
-6.28259
-21.3936
-37.2883
-53.7581
-70.545
-87.3561
-103.888
-119.856
-135.028
-149.248
-162.441
-174.61
-185.788
-195.983
-205.082
-212.759
-218.37
-220.878
-218.824
-210.373
-193.456
-166.02
-126.377
-73.6157
-8.02611
68.5585
152.573
238.768
320.539
390.524
441.431
466.962
462.731
426.989
361.057
269.374
159.129
39.5232
-79.2324
-187.061
-275.135
-336.826
-368.36
-369.119
-341.555
-290.762
-223.766
-148.647
-73.6135
-6.127
47.8097
84.1442
101.007
98.6894
79.3913
46.8014
5.56734
-39.2697
-82.8137
-120.775
-149.818
-167.771
-173.709
-167.901
-151.659
-127.103
-96.8869
-63.8992
-30.9792
-0.667152
24.9936
44.5907
57.4067
63.4171
63.2255
57.9508
49.0789
38.2963
27.3234
17.762
10.9713
7.98207
9.45168
15.6608
26.5444
41.7477
60.6954
82.6645
106.848
132.408
158.512
184.349
209.148
232.171
252.72
270.146
283.858
293.345
298.21
298.192
293.194
283.302
268.793
250.124
227.913
202.909
175.948
147.905
119.649
91.9984
65.682
41.314
19.3772
0.21691
-15.9559
-29.0554
-39.107
-46.2324
-50.6343
-52.5809
-52.3925
-50.4272
-47.0666
-42.7011
-37.7131
-32.4598
-27.2569
-22.3622
-17.9632
-14.1687
-11.0056
-8.42163
-6.29282
-4.43657
-2.62809
-0.620512
1.83191
4.94739
8.8877
13.7286
19.4324
25.8282
32.6032
39.3114
45.4009
50.2601
53.2801
53.9258
51.8086
46.7492
38.8216
28.3695
15.9893
2.48035
-11.2346
-24.2075
-35.5704
-44.6322
-50.9545
-54.3953
-55.1148
-53.5447
-50.3239
-46.2136
-42.0006
-38.4053
-36.0041
-35.1762
-36.0786
-38.6515
-42.6503
-47.6963
-53.3409
-59.1307
-64.6678
-69.6564
-73.9295
-77.4515
-80.2928
-82.574
-84.3795
-85.6471
-86.0443
-84.8532
-80.8923
-72.5098
-57.6787
-34.2151
-0.117738
46.0006
104.451
174.059
251.902
333.285
411.995
480.86
532.55
560.516
559.943
528.547
467.088
379.497
272.577
155.31
37.8537
-69.6262
-158.14
-220.898
-254.052
-257.051
-232.586
-186.14
-125.217
-58.3688
5.85513
59.8925
97.9727
116.653
115.036
94.6745
59.1851
13.6533
-36.085
-84.1888
-125.489
-156.022
-173.373
-176.798
-167.144
-146.582
-118.224
-85.6571
-52.4833
-21.9014
3.61632
22.5273
34.2902
39.3114
38.7857
34.4617
28.3662
22.5253
18.7135
18.2585
21.9192
29.8427
41.601
56.2936
72.7006
89.4615
105.258
118.974
129.819
137.395
141.705
143.109
142.229
139.831
136.692
133.479
130.657
128.428
126.724
125.23
123.452
120.804
116.694
110.621
102.241
91.4185
78.2438
63.0317
46.2914
28.6839
10.9671
-6.06244
-21.6276
-35.0244
-45.669
-53.1363
-57.1892
-57.797
-55.1422
-49.6161
-41.8005
-32.4369
-22.3822
-12.5516
-3.85133
2.8961
7.02787
8.1105
5.9947
0.846398
-6.85293
-16.3405
-26.6402
-36.659
-45.3009
-51.5858
-54.758
-54.3709
-50.3361
-42.932
-32.7691
-20.718
-7.80875
4.88565
16.3661
25.8112
32.6554
36.6327
37.7835
36.4243
33.089
28.448
23.2196
18.0828
13.603
10.1777
8.00739
7.09209
7.25208
8.16797
9.43357
10.614
11.3016
11.1626
9.97007
7.62043
4.13247
-0.368074
-5.67522
-11.5359
-17.6848
-23.8752
-29.9043
-35.6289
-40.9704
-45.9106
-50.4786
-54.7303
-58.7227
-62.484
-65.9793
-69.0724
-71.4807
-72.7269
-72.091
-68.5728
-60.8839
-47.4886
-26.7171
3.03597
43.029
93.8304
154.963
224.607
299.427
374.609
444.132
501.282
539.375
552.583
536.764
490.157
413.822
311.762
190.657
59.2627
-72.4806
-194.503
-297.692
-374.873
-421.55
-436.331
-420.973
-380.062
-320.38
-250.041
-177.511
-110.647
-55.8639
-17.517
2.4244
4.4018
-8.99604
-33.5314
-63.9737
-94.8206
-120.993
-138.419
-144.451
-138.068
-119.873
-91.8883
-57.2029
-19.5177
17.3404
49.8808
75.3352
91.9286
99.0158
97.0803
87.6078
72.8601
55.5835
38.6873
24.9307
16.6487
15.5426
22.5506
37.8061
60.6797
89.8944
123.695
160.054
196.879
232.216
264.411
292.226
314.898
332.13
344.041
351.059
353.79
352.889
348.928
342.308
333.2
321.544
307.09
289.474
268.326
243.385
214.6
182.213
146.804
109.286
70.8574
32.9184
-3.05024
-35.6188
-63.5403
-85.8649
-102.023
-111.87
-115.681
-114.113
-108.124
-98.8625
-87.5608
-75.4123
-63.4739
-52.5878
-43.3354
-36.0222
-30.6942
-27.1788
-25.1437
-24.1639
-23.7891
-23.6024
-23.2649
-22.5433
-21.3186
-19.5786
-17.3965
-14.9013
-12.2447
-9.56947
-6.9834
-4.54181
-2.24043
-0.0183982
2.22949
4.6339
7.32816
10.4249
13.9954
18.0533
22.5454
27.3499
32.2818
37.1063
41.557
45.3585
48.2515
50.0167
50.4959
49.6079
47.3577
43.8369
39.2168
33.7336
27.6685
21.3242
15.0005
8.97171
3.46712
-1.34418
-5.36349
-8.56773
-11.0098
-12.8137
-14.1651
-15.295
-16.4583
-17.9053
-19.8464
-22.4099
-25.5927
-29.2047
-32.8097
-35.6688
-36.6982
-34.4583
-27.1938
-12.9458
10.2535
44.1021
89.6885
147.132
215.26
291.403
371.351
449.548
519.511
574.469
608.133
615.521
593.694
542.294
463.791
363.379
248.514
128.153
11.7824
-91.6263
-174.6
-231.949
-261.262
-263.044
-240.503
-199.023
-145.407
-87.0062
-30.8411
17.1632
52.7481
73.6423
79.6122
72.2623
54.6312
30.6551
4.57571
-19.6256
-38.7014
-50.4686
-53.9698
-49.4622
-38.2539
-22.4235
-4.47155
13.0459
27.8534
38.2223
43.1412
42.38
36.45
26.4764
14.0082
0.795478
-11.4353
-21.1808
-27.3138
-29.1751
-26.6022
-19.8945
-9.72827
2.96558
17.1423
31.7838
46.0212
59.2251
71.052
81.4438
90.5812
98.7989
106.477
113.923
121.27
128.396
134.89
140.063
143.015
142.731
138.228
128.689
113.609
92.8973
66.9426
36.6124
3.19893
-31.6922
-66.2945
-98.8537
-127.8
-151.899
-170.356
-182.873
-189.64
-191.274
-188.713
-183.082
-175.548
-167.183
-158.86
-151.179
-144.443
-138.669
-133.642
-128.991
-124.277
-119.083
-113.087
-106.122
-98.1992
-89.511
-80.4044
-71.3361
-62.8151
-55.3408
-49.3457
-45.1473
-42.9156
-42.6564
-44.2104
-47.2655
-51.3791
-56.0054
-60.5266
-64.2832
-66.6052
-66.8438
-64.4046
-58.7846
-49.6116
-36.6855
-20.0163
0.144633
23.2878
48.6479
75.229
101.855
127.243
150.096
169.206
183.558
192.421
195.425
192.592
184.347
171.474
155.049
136.335
116.672
97.3498
79.5033
64.0263
51.5155
42.2523
36.2198
33.1537
32.6179
34.0984
37.105
41.2726
46.4529
52.7884
60.7602
71.1995
85.253
104.292
129.756
162.932
204.678
255.116
313.341
377.194
443.171
506.518
561.541
602.13
622.446
617.695
584.867
523.323
435.124
325.036
200.178
69.3516
-57.8643
-172.143
-265.42
-331.755
-367.936
-373.744
-351.869
-307.482
-247.543
-179.932
-112.528
-52.3465
-4.83108
26.61
40.7974
38.6928
23.0657
-2.02717
-31.8678
-61.7241
-87.4362
-105.873
-115.214
-115.041
-106.234
-90.7154
-71.0823
-50.1789
-30.6796
-14.728
-3.67625
2.04822
2.9428
0.304839
-3.99196
-7.78414
-8.92611
-5.57767
3.56394
19.113
40.9381
68.199
99.4654
132.898
166.463
198.157
226.205
249.229
266.35
277.23
282.062
281.493
276.513
268.326
258.199
247.336
236.755
227.213
219.148
212.667
207.563
203.361
199.387
194.853
188.954
180.962
170.317
156.697
140.07
120.717
99.2142
76.3933
53.2701
30.9528
10.54
-6.9802
-20.8207
-30.4655
-35.714
-36.6956
-33.8533
-27.9002
-19.7519
-10.4438
-1.03891
7.464
14.2137
18.5749
20.1759
18.9314
15.0384
8.94687
1.30708
-7.10053
-15.4464
-22.9356
-28.8847
-32.7858
-34.3494
-33.523
-30.4851
-25.6142
-19.44
-12.5804
-5.67372
0.686955
6.00973
9.94515
12.3088
13.0839
12.4062
10.5322
7.7977
4.57096
1.206
-1.99803
-4.82762
-7.17249
-9.02878
-10.4882
-11.7152
-12.9157
-14.3016
-16.0569
-18.3081
-21.1045
-24.4096
-28.1048
-32.0037
-35.8767
-39.4818
-42.5979
-45.0579
-46.7755
-47.7647
-48.1448
-48.1328
-48.0173
-48.1161
-48.7172
-50.0047
-51.9724
-54.3335
-56.4358
-57.1988
-55.0941
-48.191
-34.29
-11.1554
23.1582
69.9112
129.268
199.942
278.973
361.706
442.025
512.843
566.811
597.172
598.646
568.219
505.709
414.021
299.029
169.078
34.1715
-95.0801
-208.591
-297.89
-357.013
-383.097
-376.602
-341.141
-282.953
-210.097
-131.472
-55.8004
9.31479
58.1398
87.2947
95.9318
85.6085
59.8938
23.7741
-17.0528
-56.9037
-90.7685
-114.828
-126.783
-125.972
-113.286
-90.9077
-61.9175
-29.8393
1.82744
30.0248
52.46
67.8059
75.7654
77.0055
72.9807
65.677
57.3142
50.0461
45.6953
45.5521
50.2549
59.762
73.4084
90.0347
108.166
126.213
142.673
156.303
166.239
172.071
173.845
172.01
167.321
160.711
153.154
145.534
138.538
132.588
127.81
124.047
120.906
117.836
114.219
109.469
103.113
94.8684
84.6801
72.7356
59.446
45.4011
31.3023
17.8846
5.83627
-4.2743
-12.055
-17.3246
-20.1226
-20.6933
-19.4508
-16.9268
-13.7128
-10.4021
-7.53928
-5.58105
-4.87134
-5.62887
-7.94519
-11.7899
-17.0202
-23.3923
-30.5749
-38.1649
-45.7058
-52.7117
-58.6952
-63.2002
-65.8366
-66.3147
-64.4749
-60.3092
-53.9714
-45.7733
-36.1665
-25.7098
-15.0255
-4.74818
4.52839
12.3015
18.2001
22.0127
23.6982
23.3803
21.3242
17.9016
13.5463
8.70583
3.79661
-0.834704
-4.93847
-8.37628
-11.1217
-13.2484
-14.9086
-16.3044
-17.6554
-19.1665
-20.998
-23.2415
-25.902
-28.8891
-32.0175
-35.0189
-37.5639
-39.2953
-39.8683
-38.9964
-36.4944
-32.3138
-26.561
-19.4921
-11.4762
-2.92817
5.79049
14.4912
23.2829
32.6788
43.6558
57.6365
76.3701
101.7
135.227
177.911
229.672
289.06
353.106
417.378
476.306
523.741
553.691
561.126
542.742
497.542
427.156
335.817
229.999
117.745
7.78493
-91.4522
-172.784
-231.06
-263.686
-270.808
-255.162
-221.609
-176.423
-126.461
-78.2997
-37.4823
-7.94583
8.29794
11.2106
2.51878
-14.7007
-36.5698
-59.0074
-78.2935
-91.5273
-96.931
-93.9726
-83.3103
-66.5842
-46.0972
-24.4383
-4.10365
12.8356
24.98
31.74
33.3576
30.8204
25.6871
19.8544
15.2972
13.8146
16.8131
25.148
39.0384
58.0605
81.216
107.062
133.884
159.891
183.406
203.034
217.787
227.157
231.125
230.121
224.931
216.569
206.137
194.679
183.055
171.849
161.311
151.362
141.629
131.532
120.395
107.57
92.5611
75.1211
55.3214
33.5726
10.6021
-12.6127
-34.9432
-55.2286
-72.3981
-85.5805
-94.1891
-97.9709
-97.0183
-91.7425
-82.8166
-71.0949
-57.5218
-43.0402
-28.5087
-14.6377
-1.94644
9.2547
18.8591
26.9387
33.7046
39.4584
44.5418
49.2891
53.9863
58.841
63.9629
69.356
74.9211
80.4675
85.7327
90.4082
94.1681
96.6995
97.7304
97.0528
94.5392
90.1518
83.9439
76.055
66.7011
56.1611
44.7621
32.8645
20.8473
9.09522
-2.01351
-12.1196
-20.8967
-28.067
-33.421
-36.8366
-38.299
-37.9145
-35.9181
-32.6689
-28.6337
-24.3576
-20.4223
-17.3966
-15.782
-15.9606
-18.1487
-22.3639
-28.4086
-35.8732
-44.1619
-52.5397
-60.1989
-66.3404
-70.2608
-71.4363
-69.5902
-64.7315
-57.1521
-47.3761
-36.0564
-23.8283
-11.1336
1.95468
15.872
31.6238
50.7316
75.04
106.384
146.15
194.786
251.373
313.323
376.333
434.624
481.488
510.083
514.383
490.124
435.595
352.138
244.247
119.254
-13.4025
-143.19
-259.666
-353.656
-418.269
-449.629
-447.215
-413.812
-355.062
-278.712
-193.668
-108.961
-32.7795
28.3385
70.0634
90.5396
90.349
72.2053
40.4372
0.340709
-42.5109
-82.9168
-116.584
-140.499
-153.112
-154.324
-145.312
-128.226
-105.807
-80.98
-56.4887
-34.5853
-16.8281
-3.98671
3.94469
7.64215
8.27954
7.31986
6.30101
6.64333
9.49954
15.659
25.5093
39.0501
55.948
75.6175
97.3127
120.214
143.5
166.397
188.205
208.299
226.126
241.184
253.018
261.219
265.441
265.43
261.059
252.368
239.588
223.145
203.649
181.847
158.564
134.623
110.775
87.6258
65.5962
44.9022
25.57
7.47579
-9.59355
-25.8715
-41.5456
-56.7042
-71.3049
-85.1672
-97.9906
-109.392
-118.956
-126.289
-131.073
-133.099
-132.297
-128.739
-122.629
-114.284
-104.1
-92.5182
-79.9942
-66.9677
-53.8424
-40.9714
-28.6508
-17.1183
-6.55549
2.90752
11.1875
18.244
24.0756
28.718
32.2407
34.7433
36.3493
37.1962
37.4227
37.1525
36.4775
35.4412
34.0261
32.1471
29.6539
26.3436
21.9848
16.3499
9.25611
0.60713
-9.56692
-21.0785
-33.5654
-46.4922
-59.1723
-70.8123
-80.5764
-87.6639
-91.3952
-91.2938
-87.155
-79.092
-67.5501
-53.2858
-37.3116
-20.8089
-5.02018
8.86874
19.843
27.1566
30.4027
29.5501
24.9447
17.2789
7.53861
-3.05983
-13.1317
-21.1756
-25.6145
-24.8314
-17.2173
-1.24946
24.3811
60.5826
107.625
164.876
230.566
301.629
373.7
441.302
498.247
538.239
555.605
546.063
507.41
440.016
347.018
234.173
109.371
-18.1479
-138.775
-243.564
-325.198
-378.743
-402.112
-396.169
-364.485
-312.789
-248.194
-178.321
-110.424
-50.6328
-3.40026
28.8024
45.5206
48.1069
39.3175
22.7861
2.45559
-17.9561
-35.3912
-47.7449
-53.995
-54.1721
-49.1945
-40.6065
-30.2673
-20.0387
-11.5129
-5.81234
-3.47978
-4.46207
-8.17901
-13.6578
-19.7072
-25.1043
-28.766
-29.8846
-28.0139
-23.0966
-15.4391
-5.63886
5.51892
17.1799
28.5368
38.9294
47.9157
55.3098
61.1824
65.8289
69.709
73.3684
77.3523
82.1207
87.9777
95.0212
103.12
111.919
120.877
129.322
136.529
141.798
144.534
144.311
140.915
134.369
124.923
113.026
99.2822
84.3887
69.072
54.0249
39.8522
27.0294
15.8771
6.55175
-0.94718
-6.75667
-11.12
-14.3504
-16.7939
-18.7929
-20.6561
-22.6346
-24.9057
-27.565
-30.624
-34.0143
-37.5939
-41.1562
-44.4401
-47.1418
-48.9294
-49.4619
-48.4138
-45.5043
-40.5304
-33.4007
-24.1645
-13.0321
-0.381561
13.2522
27.2058
40.7336
53.0652
63.471
71.3256
76.1641
77.7221
75.958
71.0531
63.3911
53.5204
42.1027
29.8553
17.4913
5.66504
-5.07391
-14.3131
-21.7948
-27.4189
-31.2293
-33.3905
-34.1535
-33.8179
-32.6945
-31.0704
-29.1819
-27.1971
-25.2074
-23.2309
-21.2228
-19.0937
-16.7313
-14.0237
-10.8813
-7.2546
-3.14742
1.37815
6.20631
11.1854
16.1628
21.0391
25.842
30.8136
36.4967
43.7985
54.0041
68.7113
89.6676
118.506
156.4
203.683
259.505
321.588
386.172
448.189
501.677
540.41
558.664
552.024
518.09
456.983
371.554
267.239
151.57
33.4044
-78.0489
-174.252
-248.291
-295.618
-314.498
-306.102
-274.244
-224.813
-164.982
-102.312
-43.8655
4.55126
38.9375
57.3757
60.0287
48.8795
27.2685
-0.690898
-30.7322
-59.0042
-82.5192
-99.4324
-109.134
-112.161
-109.954
-104.524
-98.0599
-92.5625
-89.5374
-89.7911
-93.3493
-99.497
-106.925
-113.954
-118.793
-119.805
-115.73
-105.848
-90.0641
-68.9097
-43.4658
-15.2268
14.075
42.6606
68.8872
91.4012
109.249
121.934
129.424
132.104
130.698
126.154
119.524
111.839
103.997
96.6749
90.2757
84.9055
80.395
76.3528
72.2473
67.5056
61.6156
54.2181
45.1766
34.6148
22.9172
10.6935
-1.28892
-12.1933
-21.2115
-27.6576
-31.046
-31.1447
-28.0003
-21.934
-13.5117
-3.49435
7.22595
17.6977
26.9838
34.2323
38.7413
40.0131
37.7966
32.115
23.2762
11.8648
-1.28778
-15.1543
-28.584
-40.3918
-49.4578
-54.8291
-55.8127
-52.0488
-43.5566
-30.7445
-14.3827
4.45967
24.5084
44.3974
62.7913
78.5024
90.5902
98.4327
101.763
100.667
95.5505
87.0706
76.0527
63.3956
49.9791
36.5832
23.8274
12.1349
1.72431
-7.37339
-15.2767
-22.2015
-28.4038
-34.1252
-39.5504
-44.7806
-49.8275
-54.6263
-59.0645
-63.0202
-66.4005
-69.1748
-71.3934
-73.1902
-74.7666
-76.3616
-78.2114
-80.5062
-83.351
-86.7346
-90.5103
-94.3866
-97.9233
-100.529
-101.456
-99.7923
-94.4589
-84.228
-67.7759
-43.791
-11.1453
30.8747
82.2993
142.209
208.53
277.938
345.942
407.163
455.802
486.276
493.932
475.743
430.877
361.043
270.529
165.919
55.4853
-51.6513
-146.513
-221.256
-270.053
-289.722
-280.053
-243.772
-186.165
-114.412
-36.7355
38.5398
103.889
153.346
183.046
191.491
179.532
150.097
107.698
57.8104
6.19053
-41.7731
-81.6132
-110.18
-125.853
-128.558
-119.605
-101.39
-76.9886
-49.7275
-22.7556
1.31131
20.6483
34.3553
42.4619
45.8145
45.8694
44.4269
43.3448
44.2698
48.4203
56.4442
68.3627
83.6018
101.097
119.456
137.144
152.675
164.781
172.531
175.409
173.322
166.576
155.794
141.831
125.662
108.284
90.6327
73.5182
57.5829
43.2835
30.8897
20.4956
12.0384
5.32179
0.040418
-4.19278
-7.81712
-11.291
-15.0558
-19.4977
-24.9111
-31.4675
-39.1939
-47.965
-57.5099
-67.4351
-77.26
-86.4607
-94.517
-100.956
-105.387
-107.525
-107.202
-104.367
-99.0771
-91.4855
-81.8306
-70.4244
-57.6457
-43.9344
-29.7855
-15.7396
-2.36719
9.75699
20.088
28.153
33.5964
36.2228
36.03
33.2253
28.221
21.6062
14.0971
6.46873
-0.521223
-6.21059
-10.1009
-11.9079
-11.5879
-9.33709
-5.56266
-0.831912
4.19592
8.84542
12.4992
14.6617
15.0051
13.394
9.88536
4.70783
-1.77711
-9.12488
-16.8613
-24.5335
-31.7507
-38.2138
-43.7281
-48.203
-51.6391
-54.1066
-55.7189
-56.6067
-56.8928
-56.6735
-56.005
-54.897
-53.3134
-51.1777
-48.3844
-44.8089
-40.3148
-34.7501
-27.9278
-19.5871
-9.33905
3.39363
19.4239
39.809
65.7955
98.6793
139.578
189.131
247.169
312.412
382.275
452.84
519.046
575.098
615.081
633.68
626.922
592.827
531.84
446.988
343.709
229.372
112.53
2.01515
-94.0088
-168.928
-218.368
-240.611
-236.703
-210.229
-166.815
-113.409
-57.441
-5.9776
35.0414
61.3921
70.9228
63.6493
41.5945
8.40687
-31.1838
-71.998
-109.045
-138.094
-156.11
-161.522
-154.289
-135.788
-108.536
-75.8054
-41.1723
-8.07564
20.576
42.6978
57.1984
64.0147
64.0207
58.8334
50.5472
41.4383
33.6759
29.0759
28.9226
33.873
43.9466
58.5931
76.8208
97.3624
118.853
139.995
159.695
177.148
191.877
203.718
212.766
219.282
223.604
226.043
226.814
225.985
223.471
219.057
212.451
203.354
191.532
176.879
159.469
139.57
117.642
94.302
70.2685
46.2968
23.1082
1.32656
-18.5705
-36.2799
-51.6789
-64.8084
-75.8383
-85.0199
-92.6343
-98.9419
-104.141
-108.341
-111.549
-113.682
-114.579
-114.042
-111.872
-107.909
-102.067
-94.3602
-84.9125
-73.958
-61.8245
-48.9078
-35.6386
-22.448
-9.73311
2.16997
13.0065
22.6131
30.9174
37.9297
43.7256
48.4241
52.1638
55.0785
57.2759
58.8232
59.7388
59.9943
59.5248
58.2481
56.0886
53.0049
49.0143
44.2121
38.7807
32.9855
27.1572
21.6611
16.8565
13.0506
10.4559
9.15419
9.07603
9.99773
11.5579
13.2917
14.6787
15.1981
14.3845
11.8781
7.46304
1.0906
-7.11364
-16.8589
-27.7115
-39.1271
-50.4874
-61.1359
-70.4077
-77.6475
-82.2107
-83.4491
-80.6811
-73.1585
-60.0439
-40.4202
-13.3539
21.9723
66.056
118.818
179.334
245.607
314.456
381.567
441.748
489.389
519.081
526.313
508.155
463.809
394.927
305.634
202.234
92.6152
-14.5692
-110.846
-188.86
-243.195
-270.947
-272.005
-248.978
-206.808
-152.11
-92.3388
-34.896
13.7179
48.5922
66.8649
67.9062
53.2222
26.1084
-8.885
-46.5978
-81.9256
-110.425
-128.786
-135.133
-129.124
-111.858
-85.6227
-53.5251
-19.0604
14.3208
43.5959
66.4638
81.5238
88.3326
87.345
79.7628
67.3179
52.0261
35.9419
20.9434
8.56609
-0.101278
-4.4587
-4.37819
-0.140379
7.66121
18.2324
30.6921
44.1754
57.9152
71.2985
83.8928
95.4447
105.853
115.124
123.312
130.459
136.541
141.421
144.831
146.375
145.563
141.865
134.79
123.967
109.228
90.6759
68.7188
44.0748
17.7365
-9.10085
-35.139
-59.0933
-79.8113
-96.3791
-108.202
-115.051
-117.066
-114.726
-108.776
-100.14
-89.8108
-78.7452
-67.7755
-57.5406
-48.4515
-40.6902
-34.2407
-28.9435
-24.5641
-20.8625
-17.652
-14.8382
-12.4312
-10.5315
-9.29162
-8.86207
-9.33311
-10.6834
-12.7469
-15.2044
-17.6044
-19.4092
-20.0609
-19.0572
-16.0248
-10.7809
-3.37126
5.918
16.5786
27.9242
39.1544
49.4311
57.9575
64.0512
67.2056
67.132
63.7818
57.3452
48.2292
37.0151
24.4026
11.1441
-2.02216
-14.4341
-25.5559
-35.0109
-42.5951
-48.2698
-52.1367
-54.4
-55.321
-55.1732
-54.2041
-52.6086
-50.5163
-47.9943
-45.0616
-41.7121
-37.9392
-33.7569
-29.2109
-24.3727
-19.3144
-14.0619
-8.52895
-2.44023
4.74507
13.8898
26.1942
43.1475
66.396
97.5202
137.729
187.505
246.253
312.027
381.412
449.624
510.855
558.858
587.695
592.557
570.522
521.12
446.605
351.877
244.042
131.669
23.8396
-70.8763
-145.386
-194.842
-217.128
-212.994
-185.85
-141.246
-86.1313
-27.9842
26.0579
69.9715
99.4296
112.137
107.899
88.4326
56.978
17.7591
-24.6081
-65.6927
-101.736
-130.001
-148.947
-158.245
-158.627
-151.628
-139.259
-123.673
-106.853
-90.3817
-75.3034
-62.0811
-50.6501
-40.5405
-31.041
-21.3737
-10.8507
1.01063
14.4277
29.3496
45.5052
62.4877
79.855
97.2255
114.351
131.151
147.71
164.231
180.955
198.078
215.651
233.518
251.268
268.242
283.575
296.279
305.351
309.899
309.256
303.079
291.41
274.693
253.744
229.678
203.799
177.476
152.006
128.502
107.794
90.375
76.3908
65.6601
57.736
51.9892
47.7027
44.1667
40.7617
37.0211
32.668
27.6247
21.9959
16.0312
10.0725
4.49524
-0.348798
-4.18069
-6.82918
-8.24842
-8.51776
-7.82507
-6.43705
-4.66157
-2.80728
-1.14624
0.116028
0.859608
1.05669
0.765577
0.113771
-0.727137
-1.57114
-2.24822
-2.63164
-2.65896
-2.34428
-1.78035
-1.13059
-0.612058
-0.471828
-0.959831
-2.30193
-4.67682
-8.19967
-12.9143
-18.7941
-25.7497
-33.6418
-42.2939
-51.5038
-61.0504
-70.6956
-80.1815
-89.2275
-97.5272
-104.751
-110.558
-114.613
-116.616
-116.335
-113.641
-108.536
-101.179
-91.8869
-81.1276
-69.4902
-57.6424
-46.2769
-36.0527
-27.5385
-21.1628
-17.1736
-15.608
-16.269
-18.7051
-22.1907
-25.7072
-27.9292
-27.231
-21.7285
-9.37767
11.8529
43.7293
87.4302
143.189
209.957
285.152
364.579
442.574
512.404
566.904
599.301
604.105
577.949
520.222
433.409
323.038
197.228
65.8889
-60.3416
-171.272
-258.291
-315.318
-339.43
-331.113
-294.09
-234.783
-161.471
-83.2769
-9.10509
53.3303
98.278
122.441
125.145
108.197
75.4537
32.2054
-15.5666
-61.9383
-101.717
-130.968
-147.336
-150.159
-140.367
-120.203
-92.8251
-61.8387
-30.8283
-2.94278
19.423
34.8221
42.8176
43.9205
39.426
31.1794
21.3076
11.95
5.01752
2.00372
3.85873
10.9327
22.985
39.2504
58.5487
79.4224
100.288
119.586
135.916
148.148
155.513
157.647
154.609
146.857
135.194
120.682
104.531
87.9845
72.1908
58.0959
46.352
37.2594
30.7456
26.386
23.4622
21.0545
18.1554
