80.3339
76.4543
72.0853
67.3188
62.2763
57.0969
51.9217
46.8765
42.0553
37.5091
33.2401
29.2043
25.3213
21.4905
17.611
13.6011
9.41647
5.06087
0.590731
-3.88919
-8.23733
-12.2926
-15.8945
-18.9031
-21.2161
-22.78
-23.5954
-23.7139
-23.2294
-22.2651
-20.9566
-19.4363
-17.8193
-16.1929
-14.6116
-13.096
-11.6372
-10.2031
-8.74694
-7.21642
-5.56089
-3.7376
-1.71562
0.521801
2.97605
5.63247
8.45955
11.408
14.4097
17.3776
20.2062
22.7758
24.9576
26.6231
27.6546
27.957
27.4685
26.1703
24.0908
21.3068
17.9383
14.1387
10.0816
5.94486
1.8947
-1.92828
-5.41922
-8.51418
-11.1897
-13.4573
-15.3539
-16.9299
-18.2369
-19.3162
-20.19
-20.8543
-21.272
-21.3652
-21.0024
-19.98
-17.9983
-14.6371
-9.33874
-1.41068
9.94044
25.533
46.0894
72.0748
103.513
139.807
179.598
220.701
260.145
294.347
319.404
331.502
327.38
304.806
262.991
202.868
127.192
40.4202
-51.6284
-142.302
-224.781
-292.796
-341.309
-367.074
-368.997
-348.254
-308.151
-253.743
-191.26
-127.417
-68.6932
-20.658
12.5664
28.6623
27.2575
9.84761
-20.4773
-59.4578
-102.185
-143.649
-179.26
-205.277
-219.116
-219.516
-206.545
-181.477
-146.556
-104.688
-59.0938
-12.9704
30.8127
69.9494
102.853
128.722
147.527
159.919
167.079
170.541
171.99
173.069
175.208
179.491
186.568
196.618
209.366
224.138
239.963
255.686
270.1
282.072
290.648
295.137
295.154
290.634
281.806
269.14
253.275
234.933
214.842
193.663
171.939
150.068
128.3
106.756
85.4667
64.4165
43.5965
23.046
2.88336
-16.6802
-35.346
-52.7511
-68.506
-82.2403
-93.6493
-102.535
-108.836
-112.638
-114.172
-113.79
-111.93
-109.07
-105.681
-102.182
-98.9026
-96.0551
-93.7263
-91.8782
-90.3637
-88.9517
-87.3597
-85.288
-82.4531
-78.6173
-73.6097
-67.3401
-59.8023
-51.0699
-41.2844
-30.6399
-19.3656
-7.71008
4.07019
15.7178
26.9755
37.5841
47.2782
55.7838
62.8216
68.1168
71.4179
72.5228
71.3092
67.7659
62.0173
54.3383
45.1545
35.0243
24.605
14.6049
5.72528
-1.39841
-6.25248
-8.48892
-7.95297
-4.69053
1.06639
8.93575
18.4412
29.083
40.4193
52.148
64.1811
76.6968
90.1579
105.282
122.957
144.091
169.422
199.288
233.399
270.656
309.043
345.644
376.8
398.415
406.382
397.094
367.969
317.922
247.7
160.028
59.5145
-47.676
-154.366
-253.064
-336.726
-399.501
-437.343
-448.432
-433.339
-394.922
-337.966
-268.619
-193.705
-119.986
-53.4767
1.11646
40.7717
64.3102
72.3355
66.9746
51.4714
29.6906
5.60167
-17.1925
-35.8311
-48.4357
-54.2023
-53.3463
-46.9254
-36.5746
-24.1975
-11.6593
-0.522054
8.14797
13.8806
16.8074
17.5805
17.225
16.9525
17.9643
21.274
27.5703
37.1363
49.8287
65.1152
82.1577
99.9246
117.316
133.281
146.912
157.512
164.621
168.018
167.689
163.789
156.598
146.482
133.863
119.207
103.019
85.8391
68.2462
50.847
34.2593
19.0825
5.85986
-4.96345
-13.0808
-18.3557
-20.8396
-20.7711
-18.5566
-14.7323
-9.91416
-4.73971
0.188181
4.34913
7.33773
8.87684
8.8116
7.08716
3.71664
-1.25291
-7.76884
-15.7892
-25.2841
-36.2221
-48.5459
-62.1424
-76.8152
-92.2645
-108.082
-123.762
-138.725
-152.359
-164.072
-173.337
-179.748
-183.055
-183.194
-180.298
-174.681
-166.821
-157.315
-146.827
-136.034
-125.572
-115.982
-107.679
-100.922
-95.8117
-92.2916
-90.1719
-89.1564
-88.8765
-88.9271
-88.8998
-88.4126
-87.1337
-84.8006
-81.2327
-76.3394
-70.1225
-62.6736
-54.1649
-44.8337
-34.9571
-24.8184
-14.6628
-4.64385
5.23346
15.1683
25.6051
37.2481
51.0347
68.0555
89.4169
116.05
148.482
186.601
229.449
275.094
320.606
362.187
395.453
415.848
419.172
402.145
362.929
301.551
220.117
122.811
15.6228
-94.1549
-198.621
-290.065
-361.774
-408.752
-428.25
-420.05
-386.462
-332.039
-263.042
-186.741
-110.611
-41.5437
14.834
54.6782
76.2099
79.7517
67.5251
43.2484
11.5941
-22.4201
-54.0305
-79.2466
-95.2339
-100.527
-95.0581
-80.0186
-57.5764
-30.5035
-1.76429
25.8796
50.1996
69.729
83.8698
92.8751
97.7194
99.884
101.093
103.04
107.137
114.324
124.96
138.789
155.005
172.375
189.418
204.607
216.56
224.21
226.926
224.57
217.494
206.477
192.619
177.192
161.491
146.679
133.665
122.999
114.833
108.904
104.574
100.906
96.7667
90.95
82.3049
69.8623
52.9458
31.2572
4.93143
-25.4468
-58.8648
-93.9428
-129.029
-162.32
-192.003
-216.397
-234.096
-244.082
-245.813
-239.275
-224.98
-203.922
-177.487
-147.329
-115.208
-82.8247
-51.6504
-22.769
3.24652
26.4123
47.3532
67.2491
87.7016
110.518
137.42
169.701
207.865
251.31
298.102
344.92
387.208
419.554
436.287
432.213
403.417
347.99
266.567
162.578
42.1325
-86.4578
-213.489
-328.895
-423.378
-489.471
-522.403
-520.643
-486.049
-423.611
-340.827
-246.8
-151.174
-63.0535
9.95837
62.4996
91.8793
98.1703
83.9721
53.898
13.8669
-29.6992
-70.6676
-103.883
-125.679
-134.159
-129.247
-112.509
-86.7941
-55.7603
-23.3397
6.77341
31.5596
48.9886
58.1844
59.4331
54.0482
44.1193
32.185
20.8762
12.5749
9.12928
11.6559
20.4465
34.9829
54.0508
75.9304
98.635
120.164
138.74
152.996
162.104
165.825
164.478
158.854
150.064
139.373
128.022
117.068
107.266
98.9983
92.2667
86.7319
81.8042
76.7619
70.8826
63.5669
54.4388
43.4108
30.7045
16.8287
2.51859
-11.3547
-23.8892
-34.2591
-41.8099
-46.1292
-47.0865
-44.8394
-39.8056
-32.6079
-23.9994
-14.7801
-5.71398
2.54157
9.4888
14.8187
18.4159
20.3403
20.7911
20.0591
18.475
16.3599
13.9864
11.5506
9.16101
6.84053
4.54136
2.16829
-0.393824
-3.25272
-6.48565
-10.1233
-14.1426
-18.4679
-22.9807
-27.535
-31.9753
-36.1558
-39.9567
-43.296
-46.1363
-48.4848
-50.387
-51.9161
-53.1584
-54.1965
-55.093
-55.8751
-56.5223
-56.9601
-57.0592
-56.6423
-55.4996
-53.4091
-50.1627
-45.5906
-39.5809
-32.0874
-23.1199
-12.7145
-0.883527
12.449
27.5132
44.7426
64.7846
88.4493
116.581
149.852
188.487
231.968
278.767
326.173
370.295
406.268
428.689
432.249
412.489
366.569
293.92
196.663
79.698
-49.5818
-181.936
-307.215
-415.461
-498.04
-548.638
-563.981
-544.205
-492.802
-416.174
-322.854
-222.498
-124.79
-38.3903
29.9383
75.9365
98.1231
97.7297
78.3254
45.1992
4.59362
-37.1076
-74.1342
-101.942
-117.621
-120.07
-109.935
-89.3413
-61.4791
-30.0917
1.04808
28.6156
50.1102
64.0927
70.2667
69.4104
63.1771
53.8044
43.7734
35.4667
30.8672
31.3322
37.4655
49.0945
65.3475
84.8115
105.747
126.323
144.85
159.971
170.796
176.976
178.693
176.593
171.661
165.072
158.023
151.578
146.54
143.364
142.116
142.483
143.824
145.261
145.793
144.413
140.238
132.605
121.157
105.885
87.1435
65.6173
42.2681
18.2493
-5.19137
-26.8122
-45.4679
-60.1798
-70.1766
-74.9026
-73.9953
-67.2377
-54.4998
-35.6864
-10.7098
20.4938
57.8908
101.217
149.793
202.321
256.695
309.879
357.911
396.066
419.193
422.217
400.758
351.769
274.127
169.046
40.2492
-106.151
-262.075
-418.162
-564.63
-692.222
-793.095
-861.564
-894.604
-892.047
-856.483
-792.869
-707.926
-609.395
-505.237
-402.898
-308.674
-227.274
-161.574
-112.595
-79.6692
-60.7588
-52.8727
-52.5286
-56.1999
-60.7004
-63.4722
-62.7552
-57.6359
-47.9855
-34.3108
-17.5509
1.14726
20.641
39.9628
58.4334
75.7084
91.7608
106.812
121.229
135.409
149.668
164.166
178.854
193.476
207.602
220.696
232.197
241.606
248.555
252.852
254.501
253.68
250.696
245.926
239.749
232.48
224.329
215.378
205.584
194.803
182.839
169.489
154.6
138.11
120.08
100.705
80.3091
59.3235
38.2559
17.6525
-1.93997
-20.0097
-36.1088
-49.8758
-61.0505
-69.482
-75.1303
-78.0626
-78.4445
-76.5272
-72.6307
-67.1245
-60.406
-52.8789
-44.9324
-36.9233
-29.1633
-21.911
-15.3715
-9.70061
-5.01422
-1.39969
1.07326
2.3448
2.36232
1.08398
-1.51215
-5.41457
-10.5633
-16.8357
-24.0358
-31.8887
-40.0399
-48.0598
-55.449
-61.6444
-66.0217
-67.8933
-66.5044
-61.0312
-50.5926
-34.2876
-11.2743
19.1003
57.1176
102.465
154.006
209.593
265.971
318.839
363.103
393.318
404.303
391.858
353.464
288.868
200.44
93.2063
-25.4677
-146.528
-260.156
-356.834
-428.436
-469.159
-476.209
-450.114
-394.644
-316.345
-223.753
-126.398
-33.7231
45.9366
106.199
143.208
155.876
145.796
116.84
74.5391
25.3025
-24.384
-68.7051
-103.112
-124.709
-132.413
-126.864
-110.154
-85.3999
-56.2359
-26.3068
1.18943
23.8484
40.2671
50.1008
53.9783
53.3026
49.9733
46.0773
43.5878
44.111
48.7063
57.7944
71.1563
88.0126
107.165
127.178
146.566
163.973
178.317
188.876
195.331
197.743
196.489
192.167
185.486
177.155
167.798
157.888
147.723
137.43
126.996
116.315
105.253
93.6941
81.588
68.9742
55.9895
42.8556
29.8543
17.2929
5.46732
-5.37209
-15.0467
-23.4656
-30.63
-36.6256
-41.606
-45.7694
-49.3321
-52.5018
-55.4557
-58.3234
-61.1789
-64.0389
-66.8695
-69.5964
-72.1156
-74.3003
-75.9988
-77.0186
-77.0976
-75.8626
-72.7837
-67.1368
-57.9915
-44.242
-24.6992
1.74546
35.8876
77.9271
127.174
181.794
238.666
293.399
340.565
374.151
388.213
377.657
339.037
271.266
176.094
58.2592
-74.7333
-213.23
-346.363
-463.211
-554.008
-611.274
-630.679
-611.548
-556.923
-473.187
-369.298
-255.736
-143.313
-41.9818
40.1896
97.7775
128.408
132.782
114.344
78.6594
32.5871
-16.6179
-62.1757
-98.5131
-121.782
-130.124
-123.661
-104.262
-75.108
-40.1553
-3.5564
30.8775
60.1115
82.1773
96.2972
102.844
103.163
99.2863
93.5966
88.4802
86.0169
87.7417
94.4983
106.394
122.849
142.727
164.516
186.541
207.17
224.989
238.941
248.396
253.163
253.448
249.767
242.829
233.418
222.274
210.006
197.036
183.583
169.681
155.229
140.059
124.011
106.996
89.0503
70.3586
51.2537
32.1899
13.6972
-3.67638
-19.4255
-33.1413
-44.5526
-53.5485
-60.1821
-64.6553
-67.2887
-68.4815
-68.6664
-68.2657
-67.6532
-67.1256
-66.8857
-67.0372
-67.5912
-68.4802
-69.5762
-70.7084
-71.676
-72.2502
-72.1648
-71.0941
-68.6203
-64.1999
-57.1369
-46.5824
-31.5721
-11.1206
15.622
49.1542
89.3681
135.291
184.881
234.926
281.114
318.301
340.985
343.951
323.009
275.73
202.037
104.563
-11.3247
-137.866
-265.597
-384.313
-484.182
-556.864
-596.489
-600.345
-569.207
-507.24
-421.513
-321.169
-216.379
-117.209
-32.5335
30.8659
68.9204
80.5545
67.6091
34.4394
-12.7461
-66.7104
-120.069
-166.12
-199.533
-216.826
-216.593
-199.477
-167.914
-125.696
-77.42
-27.8996
18.3969
57.8122
87.8284
107.234
116.124
115.752
108.261
96.3471
82.8818
70.5656
61.6304
57.629
59.3269
66.6969
79.0074
94.9839
113.017
131.386
148.47
162.921
173.784
180.551
183.153
181.9
177.375
170.313
161.479
151.552
141.054
130.308
119.434
108.384
97.0027
85.0945
72.4994
59.1521
45.1215
30.626
16.0219
1.76907
-11.6198
-23.6379
-33.8432
-41.9071
-47.6489
-51.051
-52.2537
-51.5321
-49.2587
-45.8567
-41.7513
-37.3249
-32.8805
-28.6184
-24.6278
-20.8931
-17.3151
-13.7426
-10.012
-5.9896
-1.61143
3.08477
7.94009
12.6718
16.8901
20.1359
21.9373
21.8841
19.7135
15.3998
9.23887
1.91361
-5.47487
-11.427
-14.1317
-11.6312
-2.06662
16.0109
43.2933
79.3855
122.554
169.621
216.067
256.355
284.491
294.744
282.457
244.813
181.441
94.745
-10.1104
-125.594
-242.536
-351.117
-441.97
-507.275
-541.67
-542.874
-511.936
-453.075
-373.147
-280.804
-185.478
-96.302
-21.1199
34.3039
66.7879
75.9036
63.8154
34.8284
-5.27817
-50.0378
-93.0995
-128.949
-153.467
-164.28
-160.862
-144.416
-117.562
-83.876
-47.3721
-11.9704
18.9658
42.9842
58.7531
66.1156
65.9977
60.1939
51.0685
41.2166
33.1279
28.8943
29.9911
37.1502
50.3313
68.7857
91.1955
115.865
140.938
164.611
185.323
201.895
213.617
220.265
222.067
219.615
213.749
205.416
195.546
184.934
174.165
163.575
153.25
143.069
132.768
122.019
110.513
98.0311
84.4897
69.9687
54.7066
39.0745
23.5324
8.57553
-5.32142
-17.7534
-28.4235
-37.165
-43.9483
-48.8706
-52.1332
-54.0078
-54.7977
-54.7946
-54.2352
-53.2577
-51.8594
-49.8577
-46.8559
-42.2219
-35.0863
-24.3741
-8.88056
12.5965
41.066
77.1024
120.578
170.411
224.38
279.066
329.97
371.83
399.137
406.797
390.863
349.222
282.125
192.448
85.6306
-30.7412
-147.667
-255.691
-345.959
-411.246
-446.787
-450.825
-424.789
-373.078
-302.505
-221.456
-138.893
-63.3282
-1.89983
40.3504
60.9085
59.8989
39.8795
5.36438
-37.8471
-83.441
-125.359
-158.473
-179.1
-185.288
-176.892
-155.414
-123.671
-85.3403
-44.4452
-4.84817
30.185
58.3083
78.2776
89.9844
94.3522
93.1224
88.5668
83.1668
79.3015
78.9776
83.6275
93.9896
110.076
131.219
156.187
183.342
210.825
236.748
259.361
277.196
289.165
294.619
293.362
285.624
272.01
253.419
230.964
205.871
179.394
152.726
126.934
102.896
81.266
62.4503
46.6045
33.648
23.2929
15.0851
8.45472
2.77044
-2.60324
-8.25118
-14.6574
-22.1631
-30.9355
-40.9512
-51.9956
-63.6806
-75.4799
-86.7802
-96.9449
-105.382
-111.612
-115.317
-116.38
-114.882
-111.077
-105.326
-98.0066
-89.3995
-79.5841
-68.3492
-55.1534
-39.1516
-19.3058
5.41732
35.776
71.9406
113.19
157.681
202.356
243.038
274.751
292.244
290.675
266.354
217.446
144.492
50.6621
-58.336
-174.705
-289.323
-392.725
-476.181
-532.718
-557.94
-550.542
-512.446
-448.545
-366.087
-273.808
-180.901
-95.991
-26.213
23.4767
50.6958
55.7045
41.1606
11.6146
-27.1763
-69.0173
-108.029
-139.293
-159.326
-166.336
-160.251
-142.539
-115.859
-83.6089
-49.417
-16.6699
11.8904
34.4463
50.2421
59.5759
63.6598
64.3803
63.9959
64.816
68.901
77.8184
92.4786
113.062
139.039
169.27
202.166
235.889
268.557
298.441
324.115
344.565
359.236
368.021
371.208
369.381
363.31
353.833
341.749
327.738
312.304
295.76
278.24
259.735
240.148
219.359
197.277
173.895
149.318
123.779
97.6335
71.337
45.4142
20.4172
-3.11562
-24.6988
-43.9322
-60.5229
-74.2966
-85.1974
-93.2784
-98.6848
-101.633
-102.389
-101.246
-98.505
-94.4626
-89.3927
-83.5367
-77.091
-70.1931
-62.9051
-55.1941
-46.9099
-37.7626
-27.3045
-14.9226
0.148983
18.786
41.8912
70.2639
104.422
144.388
189.466
238.043
287.472
334.085
373.376
400.369
410.161
398.575
362.847
302.231
218.404
115.607
0.430769
-118.717
-232.438
-331.344
-407.121
-453.49
-466.952
-447.206
-397.185
-322.706
-231.791
-133.744
-38.1031
46.3879
112.675
156.047
174.49
168.707
141.835
98.9006
46.1162
-9.90975
-62.9306
-107.71
-140.492
-159.253
-163.723
-155.207
-136.234
-110.099
-80.3704
-50.4169
-23.0183
-0.0953746
17.4191
29.5668
37.2259
41.8792
45.3284
49.3974
55.6633
65.2479
78.6895
95.9048
116.235
138.566
161.493
183.516
203.226
219.463
231.435
238.777
241.549
240.185
235.398
228.065
219.098
209.332
199.437
189.855
180.786
172.203
163.893
155.526
146.722
137.124
126.453
114.553
101.408
87.1412
72.0017
56.3294
40.5197
24.9834
10.1104
-3.7597
-16.3571
-27.4909
-37.0462
-44.9718
-51.2567
-55.8991
-58.868
-60.0595
-59.2516
-56.0623
-49.9192
-40.0506
-25.5117
-5.25818
21.7225
56.2212
98.5665
148.361
204.234
263.664
322.929
377.231
421.027
448.553
454.505
434.791
387.242
312.167
212.643
94.4703
-34.2409
-163.816
-284.012
-385.13
-459.114
-500.465
-506.864
-479.412
-422.463
-343.073
-250.143
-153.374
-62.171
15.368
73.2597
108.148
119.478
109.331
81.9659
43.1349
-0.714425
-43.2551
-79.0098
-103.911
-115.642
-113.728
-99.4002
-75.263
-44.8203
-11.9438
19.6543
46.8744
67.5605
80.679
86.3381
85.6603
80.5393
73.322
66.4629
62.1949
62.2574
67.7075
78.831
95.153
115.539
138.367
161.735
183.691
202.441
216.524
224.927
227.15
223.198
213.522
198.927
180.442
159.194
136.284
112.691
89.1986
66.3698
44.544
23.8689
4.34977
-14.0914
-31.5573
-48.126
-63.8176
-78.5778
-92.2813
-104.749
-115.778
-125.171
-132.773
-138.494
-142.324
-144.335
-144.674
-143.543
-141.172
-137.797
-133.627
-128.831
-123.525
-117.764
-111.557
-104.872
-97.6631
-89.8875
-81.5315
-72.6291
-63.2764
-53.6375
-43.9425
-34.4755
-25.5555
-17.5099
-10.6458
-5.21938
-1.40912
0.706637
1.16359
0.116089
-2.16853
-5.32565
-8.91778
-12.4654
-15.4818
-17.5088
-18.1506
-17.1043
-14.1835
-9.33623
-2.65405
5.62726
15.1359
25.3821
35.7848
45.7087
54.5081
61.5758
66.3935
68.5791
67.9245
64.4199
58.2606
49.8345
39.6904
28.4899
16.9484
5.77036
-4.41287
-13.0964
-19.9403
-24.7881
-27.6643
-28.7503
-28.3432
-26.8017
-24.4886
-21.716
-18.7033
-15.551
-12.2374
-8.63524
-4.54724
0.245952
5.93345
12.6254
20.3164
28.8661
38.0025
47.3458
56.4511
64.8637
72.1772
78.0872
82.4295
85.1984
86.5401
86.7229
86.0891
84.9995
83.7816
82.6951
81.9272
81.6222
81.946
83.1747
85.7868
90.5327
98.4508
110.803
128.915
153.918
186.43
226.204
271.84
320.605
368.449
410.249
440.289
452.924
443.364
408.434
347.218
261.44
155.526
36.3015
-87.6513
-206.893
-312.174
-395.478
-450.937
-475.469
-469.092
-434.845
-378.36
-307.137
-229.629
-154.258
-88.4855
-38.05
-6.45416
5.25242
-1.61154
-23.7141
-56.2723
-93.7386
-130.518
-161.63
-183.233
-192.975
-190.122
-175.487
-151.179
-120.211
-86.0394
-52.0906
-21.3379
4.0281
22.7973
34.7971
40.8118
42.3878
41.5577
40.526
41.3584
45.7137
54.6483
68.5126
86.9441
108.952
133.074
157.579
180.692
200.809
216.665
227.464
232.931
233.298
229.243
221.764
212.038
201.269
190.546
180.724
172.354
165.64
160.459
156.406
152.875
149.152
144.525
138.372
130.238
119.889
107.33
92.7948
76.7126
59.6499
42.2431
25.1268
8.86866
-6.08197
-19.4262
-31.0253
-40.8886
-49.1426
-55.9879
-61.6504
-66.3353
-70.1906
-73.2854
-75.6055
-77.0662
-77.5388
-76.8868
-75.0034
-71.8422
-67.4352
-61.8894
-55.3597
-47.9983
-39.8831
-30.9362
-20.8453
-9.00788
5.48204
23.783
47.1758
76.8482
113.606
157.538
207.695
261.837
316.331
366.264
405.785
428.706
429.27
403.014
347.586
263.377
153.844
25.4472
-112.834
-250.354
-375.936
-479.122
-551.389
-587.145
-584.385
-544.906
-474.061
-380.097
-273.155
-164.084
-63.2148
20.7452
81.5765
116.067
124.152
108.68
74.8582
29.4747
-19.9956
-66.2819
-103.096
-125.714
-131.32
-119.073
-89.9496
-46.3878
8.19037
69.8953
134.857
199.62
261.407
318.232
368.884
412.785
449.798
479.999
503.484
520.227
530.028
532.531
527.327
514.089
492.724
463.512
427.182
384.935
338.388
289.454
240.177
192.537
148.264
108.678
74.5807
46.2106
23.2616
4.96811
-9.76194
-22.1817
-33.53
-44.8684
-56.9493
-70.1309
-84.3481
-99.14
-113.728
-127.133
-138.318
-146.33
-150.436
-150.218
-145.636
-137.039
-125.129
-110.88
-95.4336
-79.9712
-65.5909
-53.1967
-43.4169
-36.5575
-32.5954
-31.2107
-31.8496
-33.8116
-36.3465
-38.7504
-40.4489
-41.0576
-40.4145
-38.5796
-35.8023
-32.46
-28.9712
-25.6938
-22.816
-20.2547
-17.5741
-13.9436
-8.15062
1.31552
16.099
37.7328
67.3289
105.238
150.727
201.741
254.815
305.182
347.126
374.549
381.715
364.072
319.037
246.611
149.697
34.0745
-92.0385
-218.763
-335.608
-432.646
-501.662
-537.115
-536.785
-502.021
-437.554
-350.917
-251.534
-149.625
-55.0549
23.7365
80.5728
112.08
117.867
100.343
64.2319
15.8448
-37.7751
-89.7216
-134.009
-166.173
-183.645
-185.853
-174.081
-151.111
-120.721
-87.1105
-54.3275
-25.7796
-3.87151
10.193
16.4367
15.977
10.7672
3.25787
-3.97206
-8.56463
-8.67031
-3.14396
8.36623
25.437
46.9821
71.4349
96.9715
121.743
144.085
162.69
176.706
185.787
190.06
190.051
186.566
180.554
172.964
164.631
156.179
147.97
140.1
132.419
124.602
116.221
106.842
96.107
83.8071
69.9292
54.6747
38.4483
21.8195
5.46212
-9.91761
-23.6573
-35.2072
-44.1842
-50.4052
-53.8963
-54.8791
-53.7368
-50.9645
-47.1129
-42.7298
-38.3079
-34.2434
-30.8097
-28.1468
-26.2667
-25.0725
-24.3873
-23.9884
-23.643
-23.1396
-22.3127
-21.0582
-19.3387
-17.1791
-14.6544
-11.8732
-8.95856
-6.03045
-3.19242
-0.52377
1.92137
4.1085
6.01246
7.60545
8.84774
9.68627
10.0665
9.96157
9.42059
8.63286
7.99998
8.20082
10.2296
15.384
25.1825
41.1969
64.8014
96.8564
137.368
185.183
237.785
291.263
340.503
379.608
402.534
403.874
379.67
328.142
250.21
149.684
33.098
-90.8464
-212.153
-320.62
-406.997
-464.062
-487.463
-476.21
-432.768
-362.72
-274.073
-176.293
-79.192
8.1635
78.4157
126.619
150.617
151.072
131.158
95.9789
51.8132
5.27774
-37.4734
-71.4223
-93.1616
-101.129
-95.5986
-78.4446
-52.7419
-22.2555
9.09903
37.7575
60.9125
76.7827
84.7269
85.2051
79.608
69.9878
58.7366
48.2531
40.6428
37.4816
39.667
47.3649
60.0487
76.6181
95.5745
115.226
133.895
150.106
162.725
171.049
174.833
174.255
169.842
162.354
152.656
141.593
129.878
118.021
106.285
94.6914
83.0625
71.0859
58.4027
44.696
29.7717
13.617
-3.56715
-21.3672
-39.1882
-56.3108
-71.9668
-85.4213
-96.0518
-103.414
-107.285
-107.686
-104.87
-99.2924
-91.5576
-82.3574
-72.4023
-62.3586
-52.7947
-44.1447
-36.688
-30.5488
-25.7104
-22.043
-19.3395
-17.3539
-15.8386
-14.5761
-13.4026
-12.2228
-11.0144
-9.82393
-8.75384
-7.94168
-7.5312
-7.63542
-8.29185
-9.41122
-10.7238
-11.7302
-11.6685
-9.51098
-4.00602
6.22043
22.4981
45.8838
76.8892
115.201
159.443
207.033
254.194
296.158
327.563
343.038
337.893
308.841
254.635
176.499
78.2879
-33.6937
-151.213
-264.914
-365.319
-443.887
-494.005
-511.753
-496.369
-450.324
-379.02
-290.147
-192.776
-96.3347
-9.56587
60.3805
108.628
132.954
133.839
114.205
78.8908
33.9457
-14.1561
-59.2835
-96.3078
-121.584
-133.21
-131.061
-116.602
-92.5374
-62.345
-29.7669
1.6773
29.0984
50.5228
65.0344
72.7678
74.7713
72.7684
68.8597
65.2071
63.7423
65.9337
72.6332
84.015
99.6034
118.379
138.941
159.699
179.075
195.679
208.449
216.74
220.346
219.478
214.688
206.763
196.605
185.112
173.075
161.104
149.586
138.68
128.338
118.356
108.436
98.2508
87.509
76.0053
63.6551
50.5093
36.7516
22.6778
8.66428
-4.87222
-17.5153
-28.8868
-38.6772
-46.6654
-52.7274
-56.8354
-59.0472
-59.4918
-58.352
-55.8474
-52.2206
-47.7256
-42.62
-37.1585
-31.5864
-26.1294
-20.979
-16.2691
-12.0446
-8.22283
-4.55155
-0.570901
4.41016
11.3107
21.2346
35.3765
54.871
80.5885
112.893
151.391
194.717
240.401
284.871
323.63
351.621
363.764
355.607
324.018
267.803
188.142
88.7624
-24.2176
-142.776
-257.762
-359.867
-440.669
-493.598
-514.713
-503.158
-461.257
-394.23
-309.564
-216.14
-123.219
-39.421
28.1721
74.6968
97.8926
98.1655
78.341
43.1594
-1.41194
-48.9507
-93.3403
-129.43
-153.524
-163.656
-159.64
-142.905
-116.157
-82.927
-47.0629
-12.2395
18.4627
42.862
59.8397
69.3567
72.3357
70.4371
65.7665
60.5566
56.8667
56.3335
60.0013
68.2415
80.7653
96.7168
114.827
133.603
151.528
167.245
179.695
188.216
192.572
192.93
189.796
183.901
176.088
167.183
157.895
148.738
139.986
131.675
123.636
115.551
107.034
97.7146
87.3089
75.6806
62.8735
49.1172
34.8056
20.4524
6.6308
-6.09453
-17.2336
-26.4269
-33.4839
-38.4001
-41.3521
-42.6702
-42.7954
-42.224
-41.4481
-40.8979
-40.8901
-41.5859
-42.9595
-44.7771
-46.5846
-47.7053
-47.2502
-44.145
-37.1837
-25.1184
-6.79218
18.6805
51.6954
91.9218
138.087
187.825
237.651
283.094
319.026
340.166
341.73
320.129
273.626
202.828
110.918
3.56195
-111.523
-225.311
-328.419
-412.16
-469.537
-496.061
-490.263
-453.848
-391.465
-310.127
-218.376
-125.293
-39.4863
31.8079
83.4232
112.674
119.453
106.026
76.5731
36.5411
-8.08309
-51.4986
-88.7233
-116.066
-131.402
-134.23
-125.535
-107.493
-83.0602
-55.5198
-28.042
-3.30785
16.763
31.1583
39.7898
43.3928
43.3329
41.3559
39.3169
38.924
41.5287
47.9811
58.5634
72.9982
90.5259
110.031
130.197
149.674
167.227
181.855
192.873
199.944
203.064
202.515
198.789
192.491
184.255
174.664
164.192
153.174
141.807
130.165
118.24
105.992
93.3919
80.4666
67.3203
54.1452
41.2104
28.8365
17.3587
7.08525
-1.74197
-8.97992
-14.6039
-18.7124
-21.5167
-23.3166
-24.4653
-25.3289
-26.2435
-27.4753
-29.1861
-31.4051
-34.0073
-36.6961
-38.9901
-40.214
-39.4991
-35.7997
-27.9384
-14.6923
5.06967
32.1948
67.0116
109.076
156.943
208.02
258.553
303.799
338.403
356.96
354.707
328.262
276.274
199.889
102.922
-8.31921
-125.561
-239.389
-340.271
-419.64
-470.888
-490.144
-476.714
-433.14
-364.869
-279.582
-186.278
-94.2276
-11.9527
53.6718
98.067
119.296
118.082
97.513
62.4965
19.0467
-26.5004
-68.2405
-101.336
-122.47
-130.071
-124.318
-106.93
-80.7961
-49.4977
-16.8
13.8301
39.6204
58.7636
70.5414
75.3022
74.308
69.4827
63.1027
57.4724
54.6251
56.0856
62.7148
74.6495
91.3349
111.638
134.019
156.738
178.065
196.471
210.777
220.249
224.627
224.103
219.236
210.846
199.877
187.276
173.874
160.311
146.992
134.089
121.565
109.241
96.8681
84.2019
71.0708
57.4231
43.3487
29.0755
14.9407
1.34534
-11.3005
-22.6322
-32.376
-40.3785
-46.6174
-51.193
-54.3026
-56.2046
-57.1764
-57.4727
-57.29
-56.7376
-55.8178
-54.4131
-52.2768
-49.0261
-44.1358
-36.9362
-26.6224
-12.2853
7.01992
32.157
63.7367
101.898
146.061
194.707
245.218
293.861
335.945
366.184
379.255
370.48
336.566
276.263
190.837
84.2566
-36.9741
-164.331
-288.094
-398.381
-486.243
-544.691
-569.5
-559.692
-517.621
-448.669
-360.585
-262.567
-164.204
-74.4202
-0.542357
52.3885
82.0052
88.6639
75.1754
46.2705
7.88539
-33.6344
-72.3077
-103.178
-122.792
-129.449
-123.217
-105.737
-79.8484
-49.1126
-17.291
12.1462
36.4256
53.7494
63.4237
65.836
62.2996
54.7974
45.6668
37.2697
31.6908
30.498
34.5882
44.1291
58.5948
76.8814
97.4804
118.683
138.788
156.286
170.003
179.185
183.532
183.169
178.571
170.465
159.713
147.194
133.713
119.927
106.312
93.1556
80.579
68.5817
57.0922
46.0204
35.3012
24.9239
14.9444
5.47985
-3.31042
-11.2534
-18.1944
-24.0267
-28.7134
-32.2997
-34.9117
-36.7443
-38.0396
-39.0582
-40.0486
-41.2166
-42.6987
-44.5397
-46.6741
-48.9101
-50.9143
-52.1958
-52.0915
-49.7568
-44.1728
-34.1797
-18.5532
3.86582
33.9834
72.2148
118.222
170.667
227.042
283.625
335.621
377.512
403.603
408.714
388.94
342.344
269.49
173.686
60.887
-60.7678
-181.737
-292.092
-382.621
-445.895
-477.123
-474.7
-440.378
-379.017
-297.987
-206.28
-113.463
-28.6067
40.6784
88.9912
113.587
114.493
94.2966
57.6583
10.6176
-40.2006
-88.3819
-128.428
-156.29
-169.691
-168.206
-153.123
-127.11
-93.7621
-57.0725
-20.9182
11.3914
37.4504
55.9482
66.7088
70.5875
69.2514
64.8839
59.8534
56.3935
56.3296
60.882
70.5621
85.1635
103.842
125.261
147.791
169.709
189.406
205.546
217.184
223.826
225.421
222.318
215.168
204.817
192.184
178.153
163.485
148.762
134.361
120.458
107.063
94.0656
81.2944
68.5739
55.7736
42.843
29.8294
16.8768
4.20957
-7.89693
-19.1528
-29.2913
-38.1027
-45.4594
-51.3307
-55.7837
-58.9736
-61.1231
-62.4962
-63.3679
-63.9955
-64.5933
-65.3145
-66.241
-67.383
-68.6855
-70.043
-71.3187
-72.3653
-73.046
-73.2523
-72.9168
-72.0191
-70.5865
-68.6862
-66.4148
-63.8825
-61.1982
-58.454
-55.7139
-53.0067
-50.3233
-47.6211
-44.8321
-41.8757
-38.6741
-35.1672
-31.327
-27.167
-22.7472
-18.1725
-13.5847
-9.14947
-5.03927
-1.41531
1.59005
3.88761
5.44082
6.26928
6.44626
6.09058
5.35418
4.40703
3.42139
2.557
1.94889
1.6989
1.87117
2.4919
3.55278
5.01721
6.82849
8.9186
11.2165
13.6549
16.1748
18.727
21.2714
23.7732
26.1982
28.5072
30.6512
32.5691
34.189
35.4358
36.2469
36.5979
36.54
36.2488
36.0789
36.6186
38.7301
43.5589
52.4934
67.0576
88.7279
118.677
157.463
204.713
258.844
316.906
374.59
426.471
466.467
488.514
487.352
459.338
403.133
320.166
214.752
93.8452
-33.5854
-157.476
-267.768
-355.548
-414.06
-439.472
-431.278
-392.3
-328.291
-247.203
-158.216
-70.6721
6.96425
67.9814
108.04
125.472
121.253
98.6578
62.6836
19.3169
-25.2511
-65.361
-96.4885
-115.654
-121.605
-114.776
-97.0461
-71.3449
-41.1776
-10.1268
18.5979
42.515
60.0945
70.8367
75.2127
74.4883
70.4672
65.195
60.6646
58.5626
60.0802
65.8096
75.725
89.2449
105.356
122.78
140.148
156.178
169.812
180.316
187.32
190.821
191.125
188.764
184.394
178.687
172.231
165.462
158.616
151.721
144.62
137.022
128.574
118.937
107.87
95.2843
81.2922
66.2121
50.5528
34.9643
20.1698
6.88352
-4.27218
-12.8393
-18.5777
-21.4916
-21.8266
-20.0382
-16.7359
-12.6116
-8.36144
-4.61105
-1.85323
-0.405287
-0.389828
-1.73995
-4.22639
-7.50181
-11.1554
-14.7702
-17.9759
-20.4913
-22.1508
-22.9144
-22.8598
-22.1606
-21.0531
-19.7976
-18.6399
-17.7783
-17.3392
-17.3651
-17.8151
-18.5771
-19.4888
-20.365
-21.0257
-21.3213
-21.1527
-20.4821
-19.3347
-17.7914
-15.9741
-14.0262
-12.0915
-10.2948
-8.72574
-7.4303
-6.40773
-5.61497
-4.97649
-4.39766
-3.77972
-3.034
-2.09349
-0.92057
0.489733
2.11093
3.88996
5.75478
7.62339
9.41309
11.0488
12.4697
13.6338
14.5197
15.1264
15.4702
15.5804
15.4936
15.2476
14.8763
14.4051
13.8493
13.2134
12.4933
11.6801
10.765
9.74396
8.62215
7.41715
6.15977
4.89278
3.66752
2.53866
1.55786
0.767335
0.19401
-0.154581
-0.292174
-0.252973
-0.088195
0.13964
0.363943
0.521832
0.561376
0.447278
0.164181
-0.282877
-0.87098
-1.56452
-2.32244
-3.1067
-3.89091
-4.66765
-5.45303
-6.28599
-7.22002
-8.30412
-9.55101
-10.8914
-12.1163
-12.814
-12.3113
-9.63713
-3.52661
7.51289
25.0585
50.5459
84.9716
128.556
180.419
238.334
298.634
356.324
405.436
439.613
452.866
440.418
399.498
329.963
234.629
119.232
-8.00049
-137.137
-257.589
-359.29
-433.846
-475.499
-481.784
-453.781
-395.945
-315.534
-221.719
-124.502
-33.5803
42.707
98.2095
129.497
136.04
120.037
85.9451
39.7745
-11.73
-61.9272
-105.029
-136.677
-154.302
-157.226
-146.544
-124.788
-95.4736
-62.5625
-29.9335
-0.919337
22.041
37.6038
45.567
46.7709
42.8808
36.0898
28.7863
23.229
21.2706
24.1557
32.4129
45.843
63.5959
84.3193
106.353
127.943
147.448
163.515
175.204
182.059
184.111
181.827
176.019
167.712
158.008
147.946
138.392
129.95
122.922
117.302
112.816
108.986
105.218
100.901
95.4936
88.5987
80.0156
69.7576
58.0426
45.2553
31.8905
18.4853
5.55063
-6.48775
-17.3323
-26.8348
-34.9944
-41.9344
-47.8623
-53.0197
-57.6296
-61.8494
-65.7336
-69.2102
-72.0701
-73.9668
-74.4208
-72.8256
-68.4534
-60.4613
-47.9089
-29.798
-5.15235
26.8495
66.682
114.23
168.525
227.507
287.881
345.114
393.651
427.34
440.065
426.529
383.055
308.326
203.902
74.4231
-72.5567
-227.133
-377.95
-513.344
-622.579
-697.032
-731.153
-723.093
-674.905
-592.295
-483.963
-360.608
-233.75
-114.484
-12.3452
65.5975
115.322
136.053
130.085
102.27
59.2579
8.58836
-42.2326
-86.5758
-119.35
-137.421
-139.759
-127.324
-102.728
-69.7234
-32.6229
4.30218
37.3477
63.7789
82.0696
91.9651
94.3777
91.1458
84.6984
77.6775
72.569
71.3872
75.4486
85.2542
100.485
120.102
142.526
165.87
188.19
207.714
223.035
233.233
237.931
237.272
231.836
222.519
210.382
196.497
181.824
167.109
152.831
139.195
126.162
113.515
100.931
88.0741
74.6682
60.5546
45.7258
30.3308
14.6562
-0.912422
-15.9397
-29.9926
-42.6867
-53.7212
-62.8991
-70.1307
-75.4233
-78.8578
-80.5558
-80.6401
-79.1893
-76.1894
-71.4855
-64.7381
-55.3942
-42.6874
-25.6804
-3.36834
25.1519
60.4476
102.474
150.298
201.875
253.946
302.113
341.122
365.365
369.543
349.434
302.629
229.125
131.668
15.7527
-110.749
-238.296
-356.665
-456.063
-528.247
-567.477
-571.184
-540.257
-478.925
-394.232
-295.201
-191.782
-93.736
-9.58477
54.2452
93.9861
108.751
100.409
73.1483
32.8034
-13.9503
-60.4361
-100.737
-130.298
-146.307
-147.836
-135.733
-112.325
-80.9589
-45.4833
-9.71303
23.0345
50.2919
70.6469
83.7907
90.4199
92.0195
90.5683
88.2125
86.9523
88.3817
93.5095
102.675
115.56
131.289
148.586
165.973
181.974
195.295
204.965
210.426
211.554
208.629
202.254
193.245
182.508
170.913
159.192
147.871
137.23
127.306
117.932
108.794
99.5072
89.7006
79.0847
67.5091
54.9948
41.7415
28.1082
14.5731
1.67758
-10.0371
-20.0918
-28.1225
-33.9179
-37.4371
-38.8081
-38.307
-36.3231
-33.3142
-29.7594
-26.1132
-22.7667
-20.0167
-18.044
-16.8987
-16.4887
-16.5694
-16.7313
-16.3872
-14.762
-10.8949
-3.6648
8.14553
25.7362
50.1208
81.9063
121.042
166.573
216.45
267.446
315.237
354.673
380.249
386.734
369.893
327.192
258.386
165.866
54.6928
-67.7153
-192.237
-308.963
-408.272
-481.91
-523.951
-531.485
-504.957
-448.107
-367.524
-271.863
-170.854
-74.2091
9.41977
73.3138
113.29
127.974
118.74
89.3259
45.2218
-7.10318
-61.0132
-110.463
-150.61
-178.228
-191.877
-191.858
-179.948
-159.007
-132.487
-103.936
-76.5512
-52.826
-34.335
-21.6578
-14.4413
-11.5728
-11.4307
-12.171
-12.0079
-9.45596
-3.50415
6.28961
19.7879
36.3383
54.8967
74.1868
92.8715
109.714
123.706
134.16
140.741
143.462
142.632
138.777
132.545
124.614
115.605
106.019
96.2078
86.3597
76.5219
66.6373
56.595
46.2836
35.6395
24.6836
13.5413
2.44405
-8.28723
-18.2729
-27.1156
-34.445
-39.9609
-43.4676
-44.8974
-44.319
-41.9309
-38.0401
-33.0311
-27.3266
-21.3471
-15.4728
-10.0125
-5.18288
-1.09809
2.2287
4.87564
6.99749
8.81101
10.5858
12.6448
15.3771
19.2605
24.8886
32.9914
44.433
60.1722
81.1695
108.235
141.819
181.771
227.093
275.752
324.589
369.403
405.205
426.686
428.832
407.631
360.764
288.176
192.401
78.5847
-45.8484
-171.853
-289.679
-389.936
-464.648
-508.178
-517.879
-494.385
-441.522
-365.824
-275.751
-180.703
-89.9526
-11.6484
48.0103
85.3215
99.3091
91.6192
66.1215
28.2825
-15.5969
-59.1773
-96.8119
-124.132
-138.424
-138.781
-126.018
-102.394
-71.1885
-36.1999
-1.23121
30.3675
56.054
74.3115
84.7174
87.87
85.1984
78.6911
70.5854
63.0609
57.9726
56.653
59.799
67.4474
79.0333
93.5141
109.537
125.628
140.368
152.55
161.289
166.08
166.8
163.666
157.156
147.907
136.609
123.907
110.333
96.2572
81.884
67.2691
52.3658
37.0849
21.3578
5.19551
-11.2694
-27.7608
-43.8618
-59.0417
-72.7035
-84.2462
-93.1342
-98.9648
-101.525
-100.833
-97.151
-90.9772
-83.0081
-74.079
-65.0874
-56.9087
-50.3131
-45.8931
-44.0091
-44.7583
-47.9678
-53.2095
-59.8323
-67.0028
-73.7492
-79.0003
-81.6198
-80.437
-74.2841
-62.0493
-42.7621
-15.7192
19.3466
62.0646
111.221
164.591
218.864
269.708
312.023
340.371
349.579
335.437
295.394
229.137
138.957
29.7989
-91.0335
-214.511
-330.785
-430.249
-504.628
-547.932
-557.161
-532.643
-477.98
-399.604
-306
-206.709
-111.244
-28.0533
36.3463
77.9539
95.5466
90.5985
66.8904
29.8819
-14.0635
-58.4916
-97.6091
-126.888
-143.457
-146.265
-135.996
-114.791
-85.8208
-52.7711
-19.324
11.3076
36.7366
55.6153
67.6939
73.7312
75.284
74.414
73.3575
74.2049
78.6293
87.6956
101.765
120.501
142.962
167.763
193.281
217.864
240.031
258.618
272.882
282.527
287.679
288.805
286.596
281.842
275.303
267.608
259.185
250.228
240.712
230.438
219.101
206.375
191.993
175.812
157.862
138.357
117.688
96.3871
75.0741
54.396
34.9638
17.2993
1.79496
-11.3078
-21.9212
-30.0959
-35.994
-39.852
-41.9443
-42.5492
-41.9242
-40.2917
-37.8358
-34.7086
-31.0429
-26.9672
-22.6195
-18.1565
-13.7569
-9.61671
-5.9393
-2.92043
-0.731792
0.494101
0.675054
-0.215679
-2.15102
-5.05772
-8.82775
-13.3296
-18.4149
-23.9155
-29.6263
-35.2737
-40.4696
-44.6584
-47.0696
-46.6918
-42.2899
-32.484
-15.9054
8.57145
41.5344
82.7164
130.71
182.786
234.874
281.769
317.573
336.338
332.863
303.508
246.916
164.498
60.592
-57.7682
-181.47
-300.258
-403.866
-483.207
-531.442
-544.794
-522.984
-469.244
-389.9
-293.596
-190.26
-89.9497
-1.74059
67.2259
112.41
132.196
127.857
103.171
63.7887
16.4153
-32.0541
-75.3504
-108.499
-128.269
-133.375
-124.417
-103.606
-74.3084
-40.5051
-6.22289
24.9785
50.4085
68.4948
78.8648
82.2633
80.3349
75.3106
69.6495
65.6851
65.3218
69.8142
79.6519
94.551
113.547
135.164
157.636
179.14
198.023
212.974
223.155
228.241
228.409
224.26
216.693
206.764
195.535
183.943
172.696
162.218
152.629
143.78
135.312
126.744
117.572
107.362
95.8272
82.8772
68.6414
53.4562
37.8253
22.3584
7.69866
-5.55217
-16.8993
-26.0041
-32.7112
-37.052
-39.2266
-39.5673
-38.4923
-36.4537
-33.8903
-31.1876
-28.6505
-26.4901
-24.8227
-23.6812
-23.0331
-22.8029
-22.8941
-23.2093
-23.6647
-24.1985
-24.7742
-25.3786
-26.0165
-26.7052
-27.4691
-28.3364
-29.3396
-30.5169
-31.9146
-33.5864
-35.5868
-37.953
-40.6748
-43.6498
-46.6267
-49.1448
-50.4798
-49.6153
-45.257
-35.9111
-20.0383
3.71268
36.2083
77.5031
126.537
180.922
236.884
289.417
332.667
360.533
367.433
349.115
303.41
230.795
134.642
21.1101
-101.353
-222.841
-333.047
-422.432
-483.313
-510.756
-503.138
-462.302
-393.309
-303.807
-203.12
-101.167
-7.37191
70.3289
126.245
157.388
163.593
147.303
113.081
66.9152
15.4282
-34.9199
-78.5295
-111.195
-130.425
-135.526
-127.479
-108.622
-82.2213
-51.9693
-21.496
6.06071
28.3777
44.1344
53.0597
55.846
53.9556
49.355
44.2154
40.6193
40.3089
44.5011
53.7837
68.0982
86.8002
108.784
132.646
156.87
180.001
200.793
218.315
232.007
241.683
247.484
249.802
249.182
246.212
241.43
235.258
227.952
219.6
210.148
199.444
187.306
173.586
158.231
141.322
123.093
103.925
84.3177
64.8446
46.0959
28.6213
12.8781
-0.808204
-12.2666
-21.484
-28.5905
-33.8291
-37.5144
-39.9847
-41.5523
-42.4557
-42.8156
-42.5966
-41.5731
-39.3047
-35.1208
-28.1251
-17.2285
-1.22381
21.0853
50.6966
88.1664
133.334
185.054
240.989
297.527
349.881
392.407
419.131
424.461
403.979
355.213
278.251
176.08
54.5744
-77.9103
-211.301
-334.846
-438.299
-513.083
-553.285
-556.345
-523.336
-458.821
-370.282
-267.234
-160.111
-59.0962
26.9715
91.4816
130.626
143.615
132.529
101.846
57.7375
7.20937
-42.7678
-86.0553
-117.969
-135.674
-138.317
-126.913
-104.016
-73.2378
-38.6855
-4.4005
26.138
50.3865
66.9539
75.6502
77.3777
73.8945
67.4933
60.6442
55.6499
54.3569
57.9527
66.8656
80.7699
98.6859
119.151
140.436
160.773
178.564
192.554
201.936
206.398
206.099
201.594
193.719
183.453
171.783
159.585
147.535
136.06
125.325
115.266
105.641
96.1108
86.3142
75.948
64.8248
52.9108
40.3375
27.3877
14.4602
2.01938
-9.46355
-19.568
-27.9736
-34.4953
-39.1011
-41.9099
-43.1718
-43.2341
-42.4972
-41.3659
-40.2004
-39.2716
-38.7203
-38.5221
-38.4573
-38.0852
-36.7265
-33.4587
-27.1351
-16.439
0.0122078
23.5051
55.0097
94.9128
142.738
196.897
254.535
311.53
362.682
402.138
423.995
423.064
395.654
340.284
258.185
153.491
33.0557
-94.1107
-217.73
-327.364
-413.596
-469.125
-489.628
-474.261
-425.749
-350.038
-255.575
-152.304
-50.5194
40.2741
112.365
160.575
182.658
179.343
154.017
112.136
60.4248
6.00648
-44.4475
-85.4375
-113.153
-125.741
-123.317
-107.744
-82.2165
-50.7379
-17.5459
13.4265
38.9978
57.0457
66.6528
68.0894
62.6521
52.3943
39.7936
27.4029
17.5318
11.9926
11.9358
17.7843
29.2624
45.5055
65.2245
86.9008
108.98
130.044
148.941
164.861
177.361
186.338
191.963
194.595
194.684
192.679
188.961
183.795
177.316
169.539
160.388
149.746
137.507
123.621
108.136
91.2244
73.1876
54.4477
35.5208
16.9788
-0.596935
-16.6638
-30.7634
-42.5583
-51.8573
-58.626
-62.9826
-65.1798
-65.5745
-64.5903
-62.6759
-60.2636
-57.7334
-55.3842
-53.416
-51.9229
-50.8979
-50.2468
-49.8103
-49.3899
-48.7764
-47.7764
-46.2353
-44.0545
-41.2011
-37.7095
-33.6723
-29.2218
-24.4993
-19.6115
-14.5756
-9.25262
-3.27832
3.99994
13.5614
26.7044
44.9717
69.9891
103.215
145.614
197.286
257.127
322.571
389.518
452.482
505.006
540.324
552.188
535.772
488.504
410.682
305.776
180.313
43.3609
-94.3595
-221.616
-327.916
-404.693
-446.284
-450.546
-419.061
-356.881
-271.883
-173.805
-73.1022
20.2255
97.693
153.156
183.311
187.84
169.193
132.074
82.709
28.0049
-25.2988
-71.3721
-105.858
-126.207
-131.755
-123.578
-104.142
-76.8273
-45.3983
-13.4802
15.8816
40.5377
59.3982
72.4401
80.5714
85.387
88.8566
92.9933
99.5478
109.766
124.233
142.824
164.748
188.681
212.956
235.784
255.478
270.639
280.305
284.019
281.845
274.312
262.307
246.942
229.407
210.829
192.16
174.106
157.084
141.242
126.497
112.61
99.2697
86.1776
73.121
60.0234
46.9678
34.191
22.0517
10.9786
1.40728
-6.28365
-11.8293
-15.1189
-16.2155
-15.3527
-12.9106
-9.37295
-5.27488
-1.14513
2.54732
5.43707
7.29103
8.01972
7.67043
6.40422
4.46076
2.11619
-0.3598
-2.74195
-4.87766
-6.70229
-8.24042
-9.59413
-10.9209
-12.4047
-14.2258
-16.5314
-19.4133
-22.8932
-26.9173
-31.3606
-36.0382
-40.723
-45.1654
-49.1129
-52.3287
-54.6057
-55.7768
-55.7223
-54.3731
-51.7129
-47.7782
-42.6584
-36.4939
-29.4736
-21.83
-13.8319
-5.77309
2.04076
9.30941
15.7562
21.1472
25.3083
28.1404
29.6288
29.8469
28.9529
27.1787
24.8112
22.167
19.5615
17.2765
15.5269
14.4332
14.0023
14.1208
14.5619
15.0087
15.0898
14.4246
12.6731
9.58251
5.0256
-0.976096
-8.24689
-16.471
-25.2238
-34.0172
-42.3516
-49.7688
-55.8996
-60.4995
-63.4701
-64.8654
-64.8818
-63.8367
-62.1364
-60.2394
-58.6138
-57.6946
-57.8365
-59.2653
-62.0248
-65.922
-70.4744
-74.8665
-77.9298
-78.1582
-73.7785
-62.8875
-43.6622
-14.6391
24.9625
74.9106
133.681
198.291
264.308
326.074
377.162
411.027
421.805
405.131
358.876
283.674
183.14
63.7199
-65.8317
-195.299
-314.077
-412.328
-482.083
-518.127
-518.567
-485.001
-422.279
-337.885
-241.039
-141.622
-49.0842
28.5488
85.4489
118.454
127.199
113.919
82.9641
40.1115
-8.22266
-55.7768
-97.14
-128.278
-146.843
-152.243
-145.503
-128.936
-105.702
-79.308
-53.1299
-29.9997
-11.9118
0.132854
6.14005
7.00667
4.30537
0.00692556
-3.81814
-5.27969
-2.89713
4.24476
16.4245
33.2965
53.9771
77.1857
101.419
125.133
146.915
165.617
180.453
191.042
197.396
199.875
199.096
195.83
190.893
185.04
178.882
172.834
167.088
161.627
156.256
150.664
144.489
137.388
129.099
119.483
108.55
96.4606
83.5085
70.088
56.6497
43.6538
31.525
20.6149
11.1752
3.34369
-2.85751
-7.51082
-10.7836
-12.9017
-14.1208
-14.6976
-14.8657
-14.8171
-14.6908
-14.5691
-14.4794
-14.3988
-14.2584
-13.9415
-13.2725
-11.9945
-9.73567
-5.97022
0.0143292
9.12917
22.4558
41.1598
66.3343
98.7738
138.696
185.448
237.252
291.059
342.567
386.454
416.832
427.899
414.719
374.008
304.825
209.033
91.4254
-40.5199
-177.262
-308.136
-422.492
-510.888
-566.174
-584.326
-564.913
-511.138
-429.441
-328.736
-219.37
-111.947
-16.1695
60.1667
111.904
136.91
136.092
113.054
73.4786
24.2989
-27.1936
-74.2155
-111.22
-134.415
-142.023
-134.279
-113.185
-82.0819
-45.095
-6.54536
29.6049
60.2059
83.2255
97.8834
104.614
104.878
100.862
95.1153
90.1709
88.211
90.8031
98.741
112
129.798
150.753
173.091
194.901
214.365
229.971
240.655
245.883
245.649
240.418
231.009
218.455
203.848
188.204
172.352
156.868
142.051
127.944
114.39
101.108
87.7868
74.1596
60.0774
45.5478
30.7489
16.014
1.79219
-11.4066
-23.075
-32.7686
-40.1563
-45.0557
-47.4485
-47.478
-45.4289
-41.695
-36.7397
-31.0527
-25.1107
-19.3431
-14.108
-9.67746
-6.23464
-3.87909
-2.63924
-2.48752
-3.35402
-5.13398
-7.68495
-10.8108
-14.2323
-17.5468
-20.1853
-21.3766
-20.135
-15.2878
-5.55675
10.2957
33.2578
63.8126
101.667
145.512
192.874
240.105
282.562
314.985
332.054
329.067
302.651
251.398
176.309
80.9712
-28.6026
-144.459
-257.48
-358.355
-438.612
-491.592
-513.218
-502.461
-461.446
-395.179
-310.944
-217.446
-123.81
-38.5775
31.1877
80.579
107.237
111.423
95.7843
64.8639
24.4265
-19.3011
-60.378
-93.799
-115.975
-125.001
-120.703
-104.47
-78.9216
-47.46
-13.7732
18.643
46.8915
68.9637
83.8906
91.7502
93.5435
90.9692
86.1341
81.2404
78.2919
78.8529
83.8841
93.6681
107.826
125.412
145.073
165.235
184.31
200.873
213.813
222.424
226.441
226.016
221.65
214.085
204.181
192.798
180.685
168.407
156.299
144.464
132.804
121.069
108.938
96.0902
82.279
67.3892
51.4702
34.7461
17.6006
0.540969
-15.8521
-30.9821
-44.2937
-55.3232
-63.7367
-69.3548
-72.1615
-72.2991
-70.0511
-65.8154
-60.0709
-53.3401
-46.1513
-39.0024
-32.3289
-26.478
-21.6909
-18.095
-15.7042
-14.4303
-14.1014
-14.487
-15.3267
-16.3603
-17.3556
-18.1308
-18.5687
-18.6191
-18.286
-17.5987
-16.5655
-15.1143
-13.0262
-9.8739
-4.9809
2.58048
13.9338
30.2732
52.6642
81.7839
117.63
159.248
204.535
250.182
291.805
324.285
342.306
341.032
316.839
267.991
195.133
101.522
-7.08621
-122.891
-236.807
-339.441
-422.148
-478.036
-502.772
-495.09
-456.917
-393.127
-310.936
-219.044
-126.622
-42.2864
26.8096
75.6755
101.884
105.654
89.6126
58.3068
17.5171
-26.5089
-67.8162
-101.399
-123.686
-132.809
-128.646
-112.644
-87.4769
-56.586
-23.6749
7.77417
34.9051
55.7729
69.4838
76.1891
76.9486
73.4944
67.9347
62.4414
58.9625
58.9918
63.4194
72.4727
85.7453
102.301
120.834
139.852
157.873
173.588
185.996
194.476
198.818
199.186
196.05
190.087
182.059
172.713
162.68
152.418
142.18
132.019
121.827
111.39
100.461
88.8261
76.3658
63.0921
49.1666
34.892
20.6824
7.01789
-5.61048
-16.7558
-26.0641
-33.3096
-38.4142
-41.448
-42.6134
-42.2147
-40.619
-38.2119
-35.3532
-32.3355
-29.3477
-26.4429
-23.5101
-20.2495
-16.1526
-10.4909
-2.32226
9.47373
26.1173
48.7953
78.4685
115.627
160.018
210.389
264.305
318.092
366.971
405.405
427.645
428.439
403.807
351.76
272.855
170.468
50.7009
-78.0681
-205.984
-322.753
-418.783
-486.287
-520.188
-518.695
-483.498
-419.528
-334.342
-237.212
-138.035
-46.2215
30.315
85.9322
117.726
125.648
112.272
82.283
41.7488
-2.70907
-44.7374
-78.9691
-101.557
-110.477
-105.577
-88.4012
-61.8165
-29.5223
4.49846
36.5049
63.4412
83.2487
95.023
99.0106
96.4618
89.3727
80.1583
71.3037
65.0394
63.0771
66.4342
75.3589
89.3574
107.309
127.648
148.581
168.315
185.257
198.18
206.317
209.396
207.609
201.529
191.991
179.953
166.364
152.053
137.646
123.538
109.885
96.6509
83.6667
70.7009
57.5323
44.0069
30.0751
15.806
1.37922
-12.9396
-26.8351
-39.9806
-52.0738
-62.863
-72.1629
-79.858
-85.8963
-90.2769
-93.0338
-94.2221
-93.907
-92.16
-89.0603
-84.7019
-79.204
-72.7208
-65.4488
-57.6291
-49.5421
-41.495
-33.8027
-26.7648
-20.6406
-15.6268
-11.8403
-9.30919
-7.97263
-7.69139
-8.26625
-9.46339
-11.0431
-12.7886
-14.5309
-16.1666
-17.6631
-19.0502
-20.3941
-21.7539
-23.1202
-24.3436
-25.0589
-24.6209
-22.069
-16.1403
-5.34997
11.8473
36.8163
70.436
112.767
162.743
217.964
274.634
327.724
371.357
399.412
406.286
387.703
341.462
267.996
170.625
55.4483
-69.1447
-193.294
-306.727
-399.906
-465.131
-497.422
-495.087
-459.886
-396.779
-313.302
-218.647
-122.593
-34.3967
38.1824
89.6409
117.171
120.757
102.939
68.2901
22.7058
-27.4062
-75.9162
-117.653
-148.897
-167.644
-173.63
-168.133
-153.61
-133.221
-110.322
-87.9883
-68.6341
-53.7593
-43.8501
-38.4276
-36.2228
-35.4437
-34.0884
-30.2602
-22.4415
-9.69608
8.22298
30.8629
57.1541
85.5672
114.319
141.596
165.771
185.582
200.252
209.551
213.782
213.709
210.434
205.243
199.448
194.231
190.524
188.923
189.652
192.573
197.235
202.957
208.922
214.278
218.232
220.118
219.45
215.941
209.497
200.192
188.224
173.876
157.461
139.291
119.648
98.7699
76.8535
54.0592
30.5266
6.38968
-18.2114
-43.1226
-68.1755
-93.1938
-118.005
-142.454
-166.415
-189.806
-212.581
-234.73
-256.25
-277.116
-297.233
-316.381
-334.155
-349.911
-362.73
-371.401
-374.464
-370.298
-357.288
-334.056
-299.748
-254.354
-198.996
-136.146
-69.6879
-4.78846
52.4665
95.655
118.774
117.073
87.844
31.0438
-50.3806
-150.533
-261.009
-371.699
-471.867
-551.354
-601.76
-617.434
-596.14
-539.312
-451.863
-341.587
-218.23
-92.3606
25.8165
127.546
206.387
258.762
284.135
284.824
265.502
232.448
192.685
153.095
119.63
96.7054
86.8331
90.5171
106.401
131.624
162.328
194.236
223.221
245.807
259.539
263.193
256.817
241.607
219.666
193.662
166.457
140.741
118.725
101.91
90.9708
85.7428
85.3162
88.209
92.5961
96.5597
98.3297
96.486
90.101
78.8121
62.8202
42.8224
19.8948
-4.65635
-29.4538
-53.1967
-74.7818
-93.387
-108.512
-119.978
-127.895
-132.603
-134.596
-134.457
-132.779
-130.121
-126.964
-123.691
-120.585
-117.828
-115.523
-113.706
-112.368
-111.468
-110.949
-110.746
-110.793
-111.024
-111.375
-111.782
-112.182
-112.505
-112.67
-112.568
-112.046
-110.874
-108.71
-105.067
-99.2792
-90.4913
-77.6811
-59.7321
-35.5657
-4.33737
34.3163
80.0074
131.35
185.793
239.596
287.99
325.552
346.767
346.742
321.948
270.901
194.646
96.9527
-15.8506
-135.394
-252.099
-356.219
-438.944
-493.432
-515.606
-504.626
-462.953
-396.017
-311.533
-218.551
-126.394
-43.5982
22.9941
68.8942
92.3025
94.1026
77.5358
47.6181
10.3902
-27.8938
-61.5348
-86.0224
-98.4669
-97.7938
-84.6975
-61.3808
-31.1323
2.19088
34.7034
62.9848
84.4689
97.692
102.38
99.3828
90.4687
78.0305
64.7331
53.1596
45.4951
43.2844
47.2865
57.4344
72.8967
92.2243
113.558
134.866
154.183
169.817
180.51
185.535
184.714
178.389
167.32
152.562
135.32
116.799
98.0871
80.0565
63.311
48.1699
34.6898
22.7152
11.9485
2.02842
-7.39432
-16.5925
-25.7163
-34.77
-43.6117
-51.9761
-59.5156
-65.8534
-70.6418
-73.6175
-74.646
-73.7479
-71.1062
-67.0498
-62.0193
-56.5172
-51.0504
-46.0739
-41.9407
-38.8667
-36.9131
-35.9888
-35.871
-36.2386
-36.7134
-36.8991
-36.4082
-34.8714
-31.9231
-27.1651
-20.1167
-10.1648
3.46361
21.6835
45.4682
75.6865
112.865
156.902
206.773
260.297
314.038
363.387
402.885
426.757
429.636
407.362
357.742
281.146
180.803
62.7381
-64.6829
-191.559
-307.511
-402.856
-469.725
-502.99
-500.853
-465.035
-400.526
-314.963
-217.695
-118.683
-27.3773
48.2966
102.711
132.999
139.157
123.812
91.6937
48.9068
2.10082
-42.3495
-79.0557
-104.142
-115.538
-113.027
-98.0673
-73.42
-42.67
-9.68835
21.8787
49.0391
69.7561
83.0994
89.2403
89.3109
85.1562
79.0215
73.2213
69.8308
70.4375
75.9769
86.6643
102.022
120.989
142.092
163.649
183.979
201.589
215.324
224.45
228.684
228.167
223.38
215.039
203.968
190.983
176.787
161.905
146.648
131.12
115.254
98.8758
81.7744
63.7794
44.8224
24.9823
4.50676
-16.1917
-36.5616
-55.9578
-73.6999
-89.1369
-101.712
-111.018
-116.842
-119.192
-118.298
-114.599
-108.706
-101.352
-93.3224
-85.3889
-78.232
-72.3696
-68.0899
-65.3936
-63.9495
-63.0682
-61.7004
-58.4709
-51.7572
-39.8229
-21.0138
5.98998
41.8793
86.4132
138.157
194.318
250.745
302.129
342.431
365.512
365.905
339.627
284.911
202.726
96.9864
-25.6162
-156.163
-284.388
-399.774
-492.738
-555.722
-584.067
-576.531
-535.405
-466.196
-376.942
-277.249
-177.174
-86.1079
-11.7883
40.4424
68.0549
71.3985
53.4281
19.1495
-25.1293
-72.6365
-116.956
-152.73
-176.176
-185.362
-180.243
-162.46
-134.966
-101.524
-66.1632
-32.6536
-4.0721
17.5057
31.1562
37.0998
36.5517
31.4628
24.1948
17.1762
12.5836
12.0856
16.6742
26.5975
41.3897
59.9881
80.9108
102.47
122.986
140.982
155.329
165.334
170.761
171.795
168.96
162.999
154.751
145.03
134.525
123.744
112.987
102.362
91.8288
81.2658
70.5394
59.5698
48.3789
37.1144
26.0478
15.5468
6.02933
-2.09384
-8.47824
-12.897
-15.2775
-15.7179
-14.4825
-11.9763
-8.70312
-5.21332
-2.04749
0.316611
1.5082
1.29379
-0.408634
-3.53262
-7.88191
-13.1621
-19.0207
-25.0913
-31.0347
-36.5711
-41.4988
-45.6912
-49.0711
-51.5607
-53.0113
-53.1221
-51.3649
-46.9326
-38.7383
-25.4831
-5.8099
21.4585
57.0148
100.735
151.379
206.391
261.863
312.723
353.145
377.172
379.481
356.185
305.553
228.518
128.88
13.1407
-110.038
-230.694
-338.639
-424.615
-481.369
-504.497
-492.959
-449.178
-378.728
-289.646
-191.475
-94.1564
-6.91649
62.7099
109.611
131.509
129.009
105.324
65.7027
16.6725
-34.8072
-82.1747
-119.977
-144.389
-153.495
-147.323
-127.641
-97.5743
-61.0982
-22.4764
14.2762
45.8479
69.9568
85.5207
92.6668
92.5949
87.3254
79.3717
71.3839
65.8079
64.5984
69.0148
79.516
95.759
116.69
140.715
165.91
190.267
211.913
229.307
241.376
247.589
247.962
243.002
233.597
220.883
206.091
190.397
174.806
160.055
146.57
134.462
123.558
113.467
103.666
93.5933
82.7349
70.7004
57.276
42.4527
26.4282
9.58516
-7.54896
-24.3555
-40.183
-54.4062
-66.4772
-75.9684
-82.6022
-86.2676
-87.0241
-85.094
-80.8422
-74.747
-67.3604
-59.2597
-50.9901
-43.001
-35.5768
-28.7693
-22.3386
-15.714
-7.98723
2.04559
15.7834
34.6525
59.874
92.1849
131.541
176.85
225.794
274.786
319.128
353.365
371.844
369.414
342.188
288.247
208.169
105.293
-14.3763
-142.612
-269.742
-385.658
-480.93
-547.877
-581.451
-579.814
-544.53
-480.357
-394.657
-296.525
-195.739
-101.668
-22.2885
36.5957
71.8342
83.0742
72.573
44.7236
5.37036
-38.9857
-81.9901
-118.147
-143.364
-155.279
-153.35
-138.714
-113.865
-82.1971
-47.4887
-13.3935
16.996
41.4681
58.8668
69.1132
73.0898
72.4129
69.1379
65.4377
63.3014
64.2862
69.35
78.777
92.1954
108.677
126.894
145.318
162.415
176.829
187.53
193.893
195.738
193.3
187.153
178.108
167.084
154.992
142.628
130.599
119.282
108.818
99.1431
90.038
81.1938
72.282
63.0159
53.1996
42.7577
31.7457
20.3409
8.81866
-2.48121
-13.1934
-22.9652
-31.4896
-38.5304
-43.9387
-47.6585
-49.7247
-50.2542
-49.4317
-47.4922
-44.7036
-41.3477
-37.7034
-34.0317
-30.5626
-27.4846
-24.9367
-23.0019
-21.701
-20.9845
-20.7221
-20.6851
-20.5241
-19.7441
-17.6817
-13.4962
-6.18798
5.34258
22.1828
45.238
75.0113
111.357
153.243
198.581
244.166
285.789
318.529
337.241
337.181
314.696
267.877
197.072
105.147
-2.56127
-118.623
-234.21
-340.004
-427.229
-488.655
-519.437
-517.684
-484.673
-424.687
-344.49
-252.529
-157.952
-69.5808
5.0351
60.37
93.4
103.759
93.5758
67.032
29.7119
-12.1603
-52.4952
-86.0314
-108.868
-118.789
-115.349
-99.75
-74.5174
-43.0585
-9.15129
23.5597
52.0008
73.9935
88.4353
95.3303
95.6787
91.2538
84.3051
77.2291
72.2542
71.1745
75.1603
84.6622
99.409
118.493
140.523
163.819
186.623
207.297
224.493
237.259
245.099
247.964
246.193
240.42
231.451
220.142
207.287
193.536
179.34
164.938
150.377
135.557
120.297
104.409
87.759
70.3276
52.2375
33.7646
15.323
-2.56972
-19.3409
-34.4196
-47.2935
-57.5602
-64.9668
-69.4356
-71.0715
-70.1534
-67.1085
-62.4743
-56.8509
-50.8499
-45.0437
-39.9209
-35.8522
-33.0685
-31.6545
-31.5564
-32.6017
-34.5299
-37.0282
-39.7694
-42.4472
-44.8056
-46.6598
-47.9063
-48.5216
-48.5498
-48.0785
-47.2022
-45.9761
-44.3585
-42.1488
-38.9276
-34.0117
-26.4426
-15.0256
1.56057
24.5774
54.9661
93.0399
138.173
188.547
241.028
291.23
333.8
362.94
373.099
359.771
320.265
254.327
164.494
56.0918
-63.1406
-183.788
-295.756
-389.413
-456.709
-492.124
-493.325
-461.422
-400.814
-318.636
-223.894
-126.393
-35.6203
40.2981
95.4231
126.531
133.29
118.084
85.5313
41.7671
-6.39166
-52.3029
-90.2629
-116.093
-127.493
-124.137
-107.519
-80.5922
-47.2641
-11.8154
21.6708
49.8066
70.2662
81.9893
85.2098
81.3209
72.6063
61.8822
52.0987
45.9539
45.5653
52.2338
66.3222
87.2535
113.622
143.392
174.164
203.451
228.964
248.838
261.801
267.259
265.303
256.631
242.418
224.137
203.375
181.646
160.244
140.134
121.892
105.701
91.3996
78.5538
66.5652
54.7799
42.593
29.5368
15.3415
-0.032727
-16.394
-33.3439
-50.3239
-66.676
-81.7108
-94.7747
-105.312
-112.912
-117.352
-118.606
-116.856
-112.472
-105.983
-98.0365
-89.3436
-80.6247
-72.5491
-65.6779
-60.4109
-56.9395
-55.2067
-54.8768
-55.3155
-55.5863
-54.4675
-50.4999
-42.0737
-27.5638
-5.51901
25.0993
64.6444
112.509
166.895
224.682
281.459
331.752
369.475
388.571
383.79
351.491
290.35
201.848
90.4312
-36.7018
-170.208
-299.524
-414.006
-504.129
-562.584
-585.129
-571.068
-523.301
-447.941
-353.556
-250.135
-147.927
-56.2936
17.2731
67.8604
93.4987
95.1528
76.3693
42.6447
0.613372
-42.832
-81.3745
-109.963
-125.288
-126.001
-112.674
-87.5324
-54.0103
-16.1973
21.7355
56.0658
83.9405
103.646
114.71
117.833
114.687
107.602
99.2103
92.075
88.373
89.6482
96.6685
109.39
127.024
148.185
171.1
193.838
214.542
231.618
243.887
250.657
251.744
247.424
238.341
225.388
209.57
191.886
173.221
154.276
135.535
117.269
99.5618
82.3667
65.5667
49.0383
32.7056
16.5799
0.781915
-14.4553
-28.8009
-41.8558
-53.1914
-62.3954
-69.1172
-73.1099
-74.2628
-72.6225
-68.3992
-61.9574
-53.7931
-44.4971
-34.7103
-25.0748
-16.1852
-8.54707
-2.54486
1.5762
3.7143
3.90249
2.29109
-0.873393
-5.26595
-10.4909
-16.0743
-21.4405
-25.8745
-28.4836
-28.1735
-23.6608
-13.5471
3.53143
28.6727
62.413
104.404
153.127
205.708
257.916
304.386
339.088
356.001
349.932
317.342
257.062
170.757
63.0531
-58.7369
-185.267
-306.124
-410.977
-490.763
-538.745
-551.297
-528.313
-473.189
-392.385
-294.636
-189.909
-88.2669
1.23988
71.5026
118.007
139.142
136.158
112.784
74.5996
28.2295
-19.5082
-62.4059
-95.5238
-115.636
-121.429
-113.452
-93.843
-65.8979
-33.5316
-0.72529
28.9805
52.8857
69.3851
78.0588
79.6054
75.6398
68.395
60.3744
54.0022
51.3163
53.7378
61.9367
75.804
94.52
116.703
140.614
164.38
186.218
204.621
218.497
227.239
230.738
229.332
223.707
214.775
203.539
190.96
177.862
164.847
152.275
140.255
128.69
117.335
105.872
93.983
81.4238
68.0707
53.9514
39.2494
24.285
9.47765
-4.70484
-17.8021
-29.4145
-39.2476
-47.1414
-53.0824
-57.1981
-59.7344
-61.0209
-61.4279
-61.3197
-61.0107
-60.725
-60.5639
-60.4809
-60.2623
-59.5147
-57.6564
-53.9174
-47.3494
-36.8581
-21.2653
0.586455
29.6795
66.6171
111.384
163.1
219.813
278.382
334.51
382.968
418.024
434.051
426.265
391.473
328.742
239.834
129.347
4.48201
-125.559
-250.474
-359.969
-444.914
-498.408
-516.58
-499.052
-448.97
-372.615
-278.649
-177.094
-78.1854
8.76704
76.3497
119.754
137.141
129.64
101.002
56.9727
4.48023
-49.2541
-97.5656
-135.061
-158.12
-165.143
-156.537
-134.459
-102.381
-64.528
-25.2908
11.3308
42.1774
65.2307
79.7423
86.1894
86.0828
81.6622
75.5315
70.2838
68.1653
70.8163
79.1122
93.1162
112.135
134.864
159.585
184.405
207.479
227.21
242.4
252.33
256.786
256.013
250.629
241.51
229.652
216.046
201.577
186.939
172.6
158.794
145.545
132.717
120.077
107.36
94.3292
80.8287
66.8134
52.3652
37.6892
23.0935
8.95764
-4.30726
-16.3002
-26.6693
-35.1439
-41.5563
-45.8518
-48.088
-48.4218
-47.0887
-44.373
-40.5706
-35.9453
-30.6781
-24.8127
-18.1997
-10.4502
-0.907685
11.3431
27.4155
48.4943
75.6377
109.517
150.12
196.468
246.396
296.481
342.149
378.012
398.418
398.162
373.269
321.735
244.085
143.653
26.4944
-99.0729
-223.273
-335.914
-427.54
-490.532
-520.005
-514.381
-475.561
-408.678
-321.46
-223.311
-124.213
-33.61
40.5977
92.8268
120.271
123.009
103.773
67.4294
20.2469
-30.9299
-79.5066
-119.859
-147.871
-161.25
-159.581
-144.173
-117.7
-83.7248
-46.1691
-8.79728
25.2204
53.6217
75.2162
89.8974
98.5161
102.647
104.29
105.554
108.354
114.176
123.915
137.808
155.454
175.916
197.869
219.789
240.138
257.532
270.868
279.411
282.818
281.126
274.691
264.111
250.129
233.548
215.144
195.614
175.538
155.368
135.432
115.955
97.0931
78.9571
61.6445
45.2583
29.9179
15.7611
2.93706
-8.40616
-18.1386
-26.1648
-32.4376
-36.9676
-39.8248
-41.1349
-41.0692
-39.831
-37.6403
-34.7193
-31.2799
-27.5145
-23.5874
-19.6276
-15.7174
-11.8755
-8.0311
-3.98958
0.607243
6.31977
13.9363
24.4706
39.1153
59.1351
85.6922
119.607
161.076
209.381
262.649
317.728
370.234
414.811
445.614
456.977
444.194
404.288
336.66
243.481
129.757
3.00521
-127.425
-251.313
-358.689
-440.966
-491.934
-508.461
-490.838
-442.694
-370.52
-282.862
-189.296
-99.3238
-21.3271
38.2925
75.6898
89.8162
82.3157
57.1109
19.7533
-23.3678
-65.8484
-102.024
-127.568
-139.873
-138.191
-123.532
-98.3615
-66.1444
-30.8163
3.75521
34.2448
58.2288
74.3949
82.5914
83.725
79.5361
72.291
64.4403
58.2887
55.7166
57.9835
65.6283
78.4689
95.69
115.999
137.821
159.509
179.531
196.629
209.916
218.921
223.575
224.149
221.166
215.29
207.223
197.611
186.984
175.717
164.028
152.004
139.638
126.887
113.719
100.157
86.3105
72.382
58.6592
45.491
33.2512
22.2974
12.9313
5.3638
-0.30758
-4.10952
-6.18938
-6.79927
-6.26995
-4.97813
-3.3111
-1.6327
-0.25413
0.587846
0.743638
0.154204
-1.15433
-3.0833
-5.47943
-8.15576
-10.9135
-13.5627
-15.9408
-17.9264
-19.4497
-20.4973
-21.1114
-21.3843
-21.448
-21.4593
-21.5827
-21.9717
-22.7506
-23.9998
-25.7451
-27.9535
-30.5347
-33.3495
-36.2233
-38.9626
-41.3736
-43.2796
-44.537
-45.0457
-44.7567
-43.673
-41.8475
-39.376
-36.3895
-33.0437
-29.5105
-25.9671
-22.5853
-19.5161
-16.8679
-14.6747
-12.8522
-11.1459
-9.07399
-5.87913
-0.50525
8.38135
22.3067
42.8265
71.2844
108.508
154.478
208.027
266.628
326.357
382.049
427.707
457.112
464.594
445.848
398.686
323.59
223.958
105.994
-21.7949
-149.426
-266.506
-363.392
-432.291
-468.16
-469.27
-437.372
-377.445
-297.063
-205.472
-112.498
-27.435
41.9557
90.2147
114.638
115.382
95.2256
59.0404
13.0593
-35.9604
-81.5644
-118.321
-142.356
-151.649
-146.082
-127.256
-98.114
-62.4447
-24.3296
12.3841
44.529
69.9314
87.5683
97.5654
101.05
99.8966
96.3999
92.9343
91.6342
94.1388
101.423
113.731
130.601
150.983
173.41
196.208
217.711
236.449
251.302
261.585
267.081
268.01
264.94
258.68
250.142
240.215
229.658
219.019
208.6
198.454
188.42
178.188
167.369
155.579
142.515
128.007
112.056
94.8419
76.7076
58.1256
39.6478
21.8492
5.27225
-9.62147
-22.4879
-33.1223
-41.4649
-47.5929
-51.6995
-54.0647
-55.0222
-54.925
-54.1131
-52.8877
-51.4909
-50.0943
-48.7948
-47.6183
-46.5288
-45.4418
-44.241
-42.7943
-40.9706
-38.6538
-35.7544
-32.2179
-28.0304
-23.22
-17.856
-12.045
-5.92476
0.343243
6.58307
12.6133
18.2562
23.3455
27.733
31.293
33.9256
35.5583
36.1492
35.6919
34.2276
31.8642
28.8059
25.3918
22.1391
19.7814
19.2903
21.8618
28.8499
41.6354
61.4231
88.9795
124.34
166.531
213.366
261.384
305.971
341.702
362.883
364.249
341.731
293.169
218.86
121.838
7.80592
-115.291
-238.015
-350.434
-443.216
-508.704
-541.8
-540.554
-506.376
-443.846
-360.149
-264.219
-165.703
-73.8781
3.33897
60.1764
93.5021
102.983
90.9119
61.7381
21.388
-23.5389
-66.5864
-102.174
-126.164
-136.209
-131.855
-114.409
-86.608
-52.145
-15.1254
20.4775
51.299
74.9387
90.1636
96.9457
96.346
90.272
81.1513
71.569
63.9198
60.1142
61.3747
68.1361
80.0556
96.1201
114.829
134.42
153.112
169.32
181.83
189.909
193.341
192.394
187.729
180.267
171.037
161.027
151.057
141.687
133.177
125.484
118.313
111.195
103.581
94.951
84.8997
73.2093
59.8889
45.1813
29.5394
13.5754
-2.0075
-16.4925
-29.2247
-39.6774
-47.5007
-52.549
-54.885
-54.762
-52.5876
-48.8732
-44.1776
-39.0501
-33.9792
-29.353
-25.4341
-22.351
-20.1053
-18.5923
-17.6319
-17.0044
-16.4873
-15.888
-15.0694
-13.9653
-12.5859
-11.0125
-9.38391
-7.87695
-6.68348
-5.98692
-5.94015
-6.64575
-8.13802
-10.3654
-13.171
-16.2696
-19.2213
-21.4051
-21.9986
-19.9771
-14.1437
-3.20756
14.0802
38.7304
71.2705
111.478
158.133
208.857
260.071
307.147
344.754
367.391
370.062
348.999
302.335
230.603
136.978
27.1801
-90.9533
-208.216
-314.995
-402.336
-462.966
-492.132
-488.15
-452.587
-390.046
-307.606
-213.973
-118.475
-30.0191
43.8508
97.6902
128.603
136.367
123.24
93.4989
52.7741
7.28941
-36.9027
-74.5944
-101.931
-116.71
-118.447
-108.236
-88.4243
-62.1719
-32.9612
-4.11814
21.5916
42.2498
56.9318
65.7071
69.5107
69.9139
68.8354
68.236
69.8372
74.8991
84.0793
97.3848
114.213
133.469
153.739
173.487
191.256
205.835
216.391
222.527
224.295
222.142
216.814
209.229
200.347
191.043
181.998
173.64
166.108
159.272
152.776
146.119
138.744
130.131
119.882
107.786
93.8565
78.34
61.6946
44.5453
27.6187
11.6696
-2.59501
-14.5834
-23.8729
-30.2435
-33.6898
-34.4106
-32.7802
-29.3035
-24.5637
-19.1657
-13.6838
-8.61629
-4.35258
-1.15256
0.859855
1.69068
1.45936
0.374094
-1.29795
-3.26271
-5.23088
-6.94669
-8.2115
-8.9008
-8.97327
-8.47133
-7.51354
-6.27943
-4.98838
-3.87457
-3.16028
-3.02991
-3.6067
-4.93301
-6.95429
-9.50515
-12.2956
-14.896
-16.7202
-17.0106
-14.8321
-9.08726
1.43366
17.9532
41.5482
72.9356
112.217
158.618
210.276
264.128
315.966
360.683
392.734
406.768
398.364
364.758
305.451
222.575
120.938
7.70312
-108.268
-217.342
-310.191
-378.869
-417.743
-424.152
-398.708
-345.188
-270.063
-181.7
-89.3786
-2.23086
71.7515
126.526
158.534
166.921
153.417
121.943
77.9866
27.8468
-22.1419
-66.3258
-100.3
-121.276
-128.222
-121.781
-104.002
-77.9241
-47.0966
-15.0816
14.9843
40.7284
60.7452
74.6559
83.0299
87.1937
88.9619
90.3333
93.1945
99.0667
108.925
123.105
141.302
162.649
185.863
209.431
231.805
251.587
267.681
279.387
286.441
288.999
287.566
282.889
275.836
267.268
257.929
248.368
238.892
229.567
220.245
210.624
200.328
188.985
176.302
162.123
146.467
129.533
111.686
93.4256
75.3315
58.0077
42.0244
27.8665
15.8939
6.31588
-0.81742
-5.6085
-8.29176
-9.20248
-8.73942
-7.32533
-5.36944
-3.23559
-1.2185
0.470296
1.70653
2.44802
2.72212
2.60795
2.21617
1.66889
1.08194
0.55109
0.143384
-0.106386
-0.194365
-0.142475
0.00931765
0.211852
0.415368
0.576631
0.663749
0.658221
0.554299
0.356104
0.0733659
-0.283241
-0.70616
-1.19363
-1.75049
-2.38713
-3.11666
-3.9512
-4.89761
-5.95368
-7.10519
-8.32442
-9.57018
-10.7895
-11.9208
-12.8983
-13.6573
-14.1396
-14.2998
-14.1096
-13.5624
-12.6752
-11.4891
-10.0668
-8.48847
-6.84547
-5.23218
-3.73766
-2.43741
-1.38637
-0.613965
-0.121774
0.115864
0.148487
0.0437942
-0.119717
-0.260979
-0.30473
-0.189506
0.125056
0.651738
1.37022
2.22292
3.11304
3.9063
4.43863
4.53205
4.02145
2.79373
0.839503
-1.68562
-4.39641
-6.62102
-7.36677
-5.32697
1.0526
13.4328
33.3608
61.9792
99.6948
145.853
198.483
254.186
308.216
354.806
387.717
400.98
389.732
351.014
284.428
192.493
80.6576
-43.0993
-169.022
-286.612
-385.806
-458.135
-497.719
-501.942
-471.742
-411.464
-328.305
-231.44
-130.933
-36.5947
43.0847
101.791
135.938
144.868
130.696
97.8476
52.3548
1.03065
-49.3818
-92.9739
-125.267
-143.581
-147.154
-137.019
-115.678
-86.6323
-53.8402
-21.1762
8.04257
31.4096
47.6314
56.5672
59.1171
56.9875
52.3744
47.6131
44.8413
45.7187
51.2334
61.6124
76.3392
94.2673
113.807
133.156
150.537
164.425
173.713
177.825
176.751
171.01
161.552
149.612
136.546
123.659
112.053
102.515
95.4499
90.8604
88.3869
87.3821
87.0183
86.4081
84.724
81.3012
75.7129
67.8093
57.7193
45.8156
32.6519
18.8805
5.16366
-7.90944
-19.8904
-30.5149
-39.7175
-47.6187
-54.4864
-60.6802
-66.585
-72.5448
-78.8031
-85.4562
-92.4208
-99.4163
-105.958
-111.359
-114.737
-115.03
-111.025
-101.418
-84.9046
-60.3324
-26.9084
15.5455
66.3161
123.549
184.091
243.478
296.137
335.808
356.181
351.675
318.273
254.274
160.842
42.2335
-94.3583
-239.357
-381.712
-510.044
-613.899
-684.922
-717.811
-710.903
-666.337
-589.753
-489.581
-376.032
-259.906
-151.391
-58.9866
11.3015
56.4356
76.4338
74.0965
54.4272
23.8442
-10.7066
-42.6195
-66.375
-78.0838
-75.783
-59.4705
-30.9003
6.81391
49.7194
93.5944
134.493
169.201
195.557
212.613
220.626
220.906
215.542
207.066
198.081
190.929
187.406
188.584
194.725
205.311
219.165
234.639
249.848
262.914
272.178
276.379
274.761
267.111
253.73
235.343
212.974
187.799
161.002
133.65
106.606
80.4775
55.6131
32.1325
9.98755
-10.9612
-30.8645
-49.812
-67.7786
-84.5958
-99.9502
-113.41
-124.472
-132.626
-137.424
-138.546
-135.855
-129.431
-119.584
-106.842
-91.9103
-75.6155
-58.8327
-42.4018
-27.0431
-13.2751
-1.34242
8.84208
17.7343
26.1699
35.3406
46.7284
61.9881
82.7722
110.499
146.071
189.577
240.009
295.061
351.052
403.05
445.203
471.3
475.491
453.106
401.44
320.384
212.779
84.4165
-56.3597
-199.407
-333.823
-449.132
-536.46
-589.545
-605.443
-584.835
-531.906
-453.805
-359.772
-260.049
-164.717
-82.6096
-20.4223
17.87
31.2453
21.507
-7.16382
-48.8966
-96.9605
-144.621
-185.917
-216.277
-232.905
-234.914
-223.224
-200.241
-169.402
-134.633
-99.8149
-68.3108
-42.6102
-24.1247
-13.1402
-8.91581
-9.8996
-14.022
-19.0192
-22.7439
-23.4235
-19.8419
-11.4289
1.74113
19.0307
39.3795
61.478
83.9482
105.508
125.099
141.967
155.695
166.183
173.592
178.264
180.629
181.117
180.082
177.765
174.268
169.567
163.549
156.057
146.948
136.148
123.689
109.736
94.5966
78.6997
62.5677
46.7694
31.868
18.3684
6.67124
-2.96047
-10.4172
-15.738
-19.0823
-20.6812
-20.7681
-19.4974
-16.8601
-12.6097
-6.21709
3.12731
16.4454
34.8257
59.1995
90.0568
127.137
169.155
213.615
256.805
293.981
319.798
328.93
316.817
280.442
218.988
134.269
30.8333
-84.313
-202.339
-313.519
-408.331
-478.577
-518.364
-524.818
-498.419
-442.925
-364.899
-272.901
-176.465
-84.9938
-6.7225
52.1348
87.9484
99.898
89.8507
61.9315
21.8593
-23.8518
-68.7174
-107.031
-134.452
-148.369
-148.027
-134.409
-109.929
-77.9726
-42.3717
-6.88156
25.2793
51.7703
71.3233
83.7793
89.9808
91.5469
90.573
89.2991
89.7939
93.691
102.006
115.048
132.432
153.171
175.841
198.778
220.293
238.86
253.273
262.748
266.959
266.02
260.421
250.922
238.438
223.918
208.244
192.153
176.189
160.695
145.826
131.585
117.88
104.577
91.5489
78.7176
66.0763
53.6955
41.7141
30.316
19.7007
10.0513
1.50644
-5.85904
-12.0428
-17.112
-21.1896
-24.4337
-27.0135
-29.0858
-30.7763
-32.1677
-33.2952
-34.1515
-34.6962
-34.8707
-34.6142
-33.8789
-32.6415
-30.9109
-28.7302
-26.1733
-23.3386
-20.3381
-17.2863
-14.2902
-11.4397
-8.80232
-6.42099
-4.31482
-2.48321
-0.911765
0.420317
1.53253
2.43559
3.12522
3.57827
3.75293
3.59497
3.05286
2.10412
0.794862
-0.707981
-2.05571
-2.65732
-1.63412
2.19105
10.2486
24.1021
45.2455
74.8217
113.292
160.104
213.418
269.975
325.153
373.257
408.053
423.482
414.485
377.813
312.7
221.266
108.58
-17.6751
-147.892
-271.534
-378.286
-459.23
-507.868
-520.872
-498.457
-444.318
-365.164
-269.905
-168.598
-71.3027
13.0114
77.3844
117.496
131.956
122.235
92.2715
47.8272
-4.3184
-57.2218
-104.572
-141.339
-164.218
-171.817
-164.611
-144.676
-115.262
-80.2715
-43.7184
-9.23244
20.3325
43.1511
58.5236
66.8211
69.3033
67.8451
64.6146
61.7511
61.0808
63.9048
70.8772
81.9804
96.589
113.607
131.651
149.251
165.044
177.935
187.203
192.552
194.1
192.319
187.926
181.765
174.671
167.362
160.347
153.883
147.957
142.329
136.586
130.233
122.781
113.839
103.184
90.8048
76.9151
61.9365
46.4497
31.1267
16.6511
3.63758
-7.43715
-16.2851
-22.832
-27.2151
-29.7544
-30.9029
-31.1828
-31.1166
-31.1609
-31.6516
-32.7649
-34.4952
-36.6491
-38.852
-40.5602
-41.0756
-39.5595
-35.0488
-26.4814
-12.7442
7.24212
34.3897
69.2556
111.81
161.188
215.471
271.551
325.144
370.996
403.3
416.31
405.08
366.249
298.729
204.182
87.1862
-44.977
-182.912
-316.022
-433.637
-526.205
-586.385
-609.903
-596.035
-547.673
-470.955
-374.52
-268.484
-163.283
-68.5241
8.01151
61.0997
88.4659
90.8103
71.4882
35.907
-9.26702
-56.9825
-100.647
-134.844
-155.842
-161.863
-153.089
-131.436
-100.14
-63.2265
-24.9311
10.8418
40.9723
63.4341
77.4378
83.4051
82.7925
77.8002
71.0127
65.0217
62.0821
63.8393
71.158
84.0639
101.797
122.961
145.736
168.135
188.25
204.476
215.674
221.26
221.227
216.081
206.73
194.333
180.132
165.294
150.782
137.269
125.095
114.285
104.597
95.6131
86.8393
77.8098
68.1755
57.7668
46.6225
34.9838
23.2565
11.9486
1.59525
-7.31814
-14.4227
-19.5143
-22.5774
-23.7822
-23.4576
-22.0442
-20.0364
-17.9196
-16.1146
-14.9321
-14.5473
-14.9919
-16.1669
-17.8706
-19.8367
-21.7776
-23.4249
-24.5634
-25.0525
-24.8365
-23.9405
-22.4563
-20.5213
-18.2929
-15.9246
-13.5466
-11.2523
-9.09401
-7.08538
-5.21097
-3.43937
-1.7377
-0.0849983
1.51772
3.04163
4.429
5.59628
6.44091
6.85118
6.71918
5.9574
4.52033
2.43246
-0.176554
-3.03028
-5.66148
-7.37328
-7.21744
-4.00507
3.63372
17.1278
37.7746
66.4881
103.51
148.125
198.435
251.26
302.201
345.923
376.64
388.764
377.655
340.356
276.205
187.209
78.1118
-43.8952
-169.802
-289.676
-393.731
-473.411
-522.367
-537.18
-517.742
-467.247
-391.784
-299.611
-200.186
-103.096
-17.0169
51.1759
97.0351
118.855
117.647
96.8027
61.5069
17.9907
-27.2748
-68.3404
-100.411
-120.277
-126.524
-119.494
-101.055
-74.193
-42.5265
-9.78301
20.6767
46.2397
65.2882
77.2956
82.7746
83.0993
80.2353
76.4212
73.8461
74.363
79.2716
89.189
104.017
123.004
144.873
168.018
190.71
211.303
228.422
241.084
248.774
251.453
249.506
243.645
234.783
223.897
211.903
199.549
187.345
175.539
164.126
152.898
141.512
129.576
116.733
102.732
87.4832
71.0822
53.8124
36.1181
18.5593
1.75144
-13.6981
-27.2515
-38.4905
-47.1519
-53.1441
-56.5467
-57.5943
-56.6483
-54.1601
-50.6312
-46.5715
-42.4622
-38.7218
-35.6811
-33.5657
-32.488
-32.4485
-33.3447
-34.9861
-37.1104
-39.3979
-41.4771
-42.9194
-43.2198
-41.7672
-37.8144
-30.4606
-18.6682
-1.33141
22.5867
53.8471
92.6716
138.46
189.536
243
294.728
339.585
371.862
385.895
376.823
341.356
278.454
189.779
79.8301
-44.2844
-173.445
-297.425
-405.986
-490.034
-542.661
-559.959
-541.462
-490.188
-412.261
-316.175
-211.793
-109.225
-17.7169
55.3029
104.921
129.101
128.689
107.087
69.6543
22.9283
-26.2264
-71.4315
-107.477
-130.803
-139.732
-134.459
-116.818
-89.8675
-57.3763
-23.2783
8.83725
36.135
56.8039
70.1691
76.6486
77.5742
74.9157
70.9509
67.9286
67.7683
71.8303
80.7771
94.537
112.363
132.969
154.729
175.887
194.783
210.029
220.652
226.161
226.557
222.278
214.101
203.003
190.023
176.126
162.092
148.443
135.416
122.976
110.866
98.6876
85.9928
72.3776
57.5651
41.4647
24.2022
6.11872
-12.2622
-30.2915
-47.2676
-62.517
-75.4682
-85.7142
-93.0516
-97.4969
-99.2751
-98.7857
-96.5503
-93.1488
-89.1521
-85.0601
-81.251
-77.9484
-75.2089
-72.9304
-70.8791
-68.7316
-66.1259
-62.7152
-58.2182
-52.4596
-45.3963
-37.1274
-27.8834
-17.9981
-7.86069
2.14794
11.7314
20.7614
29.3582
37.9553
47.3304
58.5821
73.0359
92.0656
116.836
147.988
185.309
227.451
271.767
314.332
350.181
373.786
379.724
363.454
322.097
255.083
164.553
55.4177
-64.9525
-187.404
-301.951
-398.893
-469.935
-509.169
-513.776
-484.36
-424.859
-342.073
-244.847
-143.049
-46.4498
36.3265
98.6789
136.623
149.049
137.636
106.447
61.2912
8.92871
-43.7634
-90.5656
-126.544
-148.473
-155.013
-146.658
-125.473
-94.6712
-58.1111
-19.7638
16.767
48.6288
73.9675
92.0247
103.087
108.314
109.47
108.616
107.796
108.756
112.739
120.357
131.563
145.715
161.698
178.107
193.445
206.316
215.588
220.507
220.759
216.469
208.147
196.59
182.768
167.69
152.288
137.324
123.328
110.576
99.1024
88.7497
79.2291
70.1987
61.335
52.3945
43.2527
33.9208
24.5374
15.3396
6.61907
-1.3274
-8.24685
-13.9693
-18.4328
-21.6905
-23.9014
-25.3053
-26.1887
-26.8451
-27.5385
-28.4726
-29.7713
-31.4722
-33.533
-35.8491
-38.2802
-40.6801
-42.9266
-44.9449
-46.7224
-48.309
-49.8028
-51.3189
-52.9417
-54.6665
-56.3326
-57.5615
-57.7089
-55.8498
-50.8108
-41.265
-25.8982
-3.64224
26.0417
62.8679
105.47
151.248
196.374
236.002
264.697
277.041
268.376
235.548
177.557
95.9946
-4.84276
-118.184
-235.374
-346.752
-442.716
-514.818
-556.764
-565.163
-539.927
-484.281
-404.367
-308.514
-206.264
-107.295
-20.3592
47.6064
92.1246
111.495
106.774
81.4412
40.8184
-8.67911
-60.3463
-107.955
-146.393
-172.114
-183.358
-180.148
-164.078
-137.939
-105.252
-69.7637
-34.978
-3.77071
21.8725
40.9768
53.5605
60.4951
63.2769
63.7496
63.8174
65.1887
69.1783
76.5852
87.6543
102.113
119.272
138.164
157.697
176.81
194.588
210.354
223.705
234.507
242.85
248.98
253.213
255.855
257.127
257.122
255.784
252.918
248.226
241.36
231.992
219.873
204.889
187.105
166.776
144.347
120.42
95.716
71.0142
47.094
24.6764
4.37496
-13.3407
-28.1653
-39.9612
-48.7469
-54.6725
-57.9865
-58.9986
-58.0415
-55.4343
-51.4487
-46.2767
-39.9995
-32.5556
-23.7113
-13.0376
0.0963434
16.5019
37.1055
62.8284
94.4077
132.163
175.739
223.857
274.137
323.05
366.045
397.884
413.176
407.057
375.941
318.206
234.721
129.087
7.53144
-121.559
-248.433
-362.999
-455.947
-519.822
-549.89
-544.693
-506.206
-439.583
-352.531
-254.396
-155.086
-63.967
11.12
64.6242
93.732
98.4731
81.4885
47.5142
2.66328
-46.3921
-93.2318
-132.394
-159.901
-173.559
-173.009
-159.563
-135.842
-105.308
-71.7374
-38.7134
-9.20761
14.7199
32.0677
42.8884
48.1477
49.482
48.8939
48.434
49.9104
54.6604
63.4081
76.2169
92.5326
111.302
131.146
150.552
168.068
182.469
192.87
198.796
200.182
197.336
190.85
181.502
170.146
157.611
144.628
131.776
119.464
107.935
97.292
87.5381
78.6161
70.4483
62.9669
56.1313
49.9334
44.3918
39.5372
35.3936
31.9606
29.1986
27.0215
25.299
23.8657
22.5391
21.1406
19.5187
17.5685
15.246
12.574
9.63936
6.58138
3.57354
0.800719
-1.56463
-3.38436
-4.57175
-5.10198
-5.0148
-4.40966
-3.43414
-2.2675
-1.10169
-0.122116
0.509346
0.6672
0.269641
-0.720208
-2.29881
-4.43129
-7.06311
-10.1323
-13.58
-17.3572
-21.4273
-25.7637
-30.3435
-35.1379
-40.1023
-45.1666
-50.2292
-55.1541
-59.7741
-63.8994
-67.3299
-69.8718
-71.3554
-71.6518
-70.6872
-68.4526
-65.0068
-60.4741
-55.0352
-48.9122
-42.3513
-35.6016
-28.8956
-22.4309
-16.3562
-10.763
-5.68267
-1.091
3.08161
6.93501
10.5808
14.1226
17.6367
21.1558
24.6569
28.0565
31.2127
33.9399
36.0339
37.3128
37.6706
37.1443
35.9869
34.7373
34.2741
35.8329
40.9707
51.4576
69.0876
95.4098
131.401
177.117
231.386
291.603
353.698
412.331
461.317
494.273
505.413
490.379
446.988
375.765
280.157
166.374
42.8549
-80.5949
-193.871
-287.713
-354.761
-390.387
-393.191
-365.101
-311.069
-238.417
-155.923
-72.7769
2.46699
62.7981
103.426
122.151
119.405
97.9779
62.4952
18.7155
-27.2411
-69.6396
-103.762
-126.358
-135.876
-132.467
-117.78
-94.5941
-66.357
-36.6793
-8.86844
14.4525
31.5993
41.9364
45.8419
44.5498
39.899
34.0346
29.1006
26.9664
29.0154
36.0173
48.0891
64.7404
84.987
107.512
130.846
153.549
174.358
192.304
206.775
217.525
224.643
228.486
229.582
228.537
225.933
222.255
217.832
212.817
207.19
200.784
193.337
184.549
174.142
161.914
147.776
131.781
114.125
95.1358
75.2458
54.9552
34.7895
15.2578
-3.18322
-20.1559
-35.3773
-48.662
-59.9151
-69.1164
-76.3008
-81.5374
-84.9119
-86.5148
-86.4354
-84.7641
-81.6002
-77.0629
-71.3037
-64.5155
-56.9377
-48.8537
-40.5809
-32.4537
-24.8014
-17.9233
-12.0646
-7.39546
-3.99691
-1.85443
-0.859889
-0.820301
-1.47077
-2.48729
-3.49481
-4.06636
-3.71078
-1.84985
2.21006
9.3017
20.4014
36.5968
59.0012
88.6032
126.052
171.395
223.8
281.323
340.773
397.748
446.869
482.25
498.145
489.716
453.819
389.656
299.204
187.292
61.3149
-69.4286
-194.693
-304.409
-389.832
-444.551
-465.221
-451.921
-408.093
-340.076
-256.305
-166.284
-79.4775
-4.25911
52.9562
88.2955
100.674
91.6966
65.2474
26.8445
-17.1483
-60.3416
-97.0727
-123.002
-135.497
-133.773
-118.799
-93.0025
-59.8219
-23.1881
13.0061
45.3757
71.4024
89.6493
99.8199
102.669
99.7897
93.3235
85.6245
78.9358
75.1116
75.4158
80.4146
89.9664
103.302
119.171
136.04
152.298
166.451
177.292
184.002
186.204
183.956
177.687
168.097
156.041
142.399
127.97
113.383
99.0503
85.1495
71.6465
58.3428
44.942
31.1235
16.6116
1.23304
-15.0461
-32.1058
-49.6801
-67.3855
-84.7622
-101.321
-116.586
-130.125
-141.557
-150.537
-156.715
-159.678
-158.894
-153.667
-143.148
-143.148
-143.148
-143.148
-143.148
-143.148
-143.148
-143.148
-143.148
-143.148
-143.148
-143.148
-143.148
-143.148
-143.148
-143.148
-143.148
-143.148
-143.148
-143.148
-143.148
-143.148
