-3.1673
-13.3762
-24.5253
-36.1658
-47.7498
-58.6738
-68.3307
-76.1666
-81.7328
-84.7294
-85.0333
-82.7084
-77.9972
-71.2942
-63.1061
-54.0024
-44.5624
-35.3264
-26.7529
-19.1885
-12.8523
-7.83372
-4.10423
-1.5391
0.0538789
0.902905
1.24192
1.28467
1.20553
1.12825
1.12274
1.20904
1.36689
1.54875
1.69418
1.74344
1.64875
1.382
0.938456
0.336629
-0.385315
-1.17547
-1.97544
-2.72771
-3.38217
-3.90105
-4.26169
-4.45713
-4.49468
-4.39292
-4.17779
-3.87844
-3.52344
-3.13796
-2.74199
-2.34978
-1.97034
-1.60863
-1.26714
-0.947488
-0.65161
-0.382548
-0.14457
0.0572347
0.217767
0.332933
0.40064
0.421556
0.399504
0.3414
0.256741
0.156716
0.0530821
-0.0430484
-0.122324
-0.17804
-0.206678
-0.208049
-0.185041
-0.143023
-0.0890058
-0.03067
0.0245942
0.0705346
0.102669
0.118645
0.118307
0.103492
0.0776029
0.0450293
0.0105094
-0.0214873
-0.0472816
-0.0643551
-0.0715385
-0.0690139
-0.0581489
-0.0412011
-0.0209431
-0.000262399
0.0182105
0.0324029
0.0409993
0.0435249
0.0403156
0.0323897
0.0212473
0.00863136
-0.00371661
-0.0142749
-0.0219089
-0.0259721
-0.0263356
-0.0233487
-0.0177443
-0.0105061
-0.0027184
0.00458121
0.0105269
0.0145151
0.0162528
0.015761
0.0133389
0.00949635
0.00486789
0.000119228
-0.00413955
-0.00742484
-0.00942687
-0.0100302
-0.00930763
-0.00749091
-0.00492485
-0.00201184
0.000844819
0.00329176
0.00506471
0.00601223
0.00610279
0.00541603
0.00412088
0.00244489
0.000639307
-0.00105496
-0.00243662
-0.00336506
-0.00377162
-0.00366056
-0.00310083
-0.00221048
-0.00113659
-3.37579e-05
0.000956232
0.00172083
0.00218778
0.00232995
0.00216395
0.00174337
0.00114814
0.000471692
-0.000192275
-0.000761561
-0.00117461
-0.00139605
-0.00141838
-0.00125992
-0.0009598
-0.000570812
-0.000151323
0.000242664
0.000564298
0.000780801
0.000876104
0.000851084
0.000721666
0.000515211
0.000265868
9.55492e-06
-0.000220747
-0.000398831
-0.00050784
-0.000541395
-0.000503287
-0.000405918
-0.000267827
-0.000110708
4.36556e-05
0.000176139
0.0002724
0.000324177
0.000329679
0.000293128
0.000223585
0.000133302
3.58363e-05
-5.57893e-05
-0.000130669
-0.000181163
-0.000203507
-0.000197881
-0.000167961
-0.00012009
-6.21961e-05
-2.62512e-06
5.09514e-05
9.24307e-05
0.00011788
0.000125799
0.000117053
9.4527e-05
6.27504e-05
2.85287e-05
5.85608e-06
3.27282e-05
0.000212862
0.000798348
0.0023254
0.00580214
0.0129269
0.0262931
0.049521
0.0872517
0.144951
0.228498
0.34359
0.495008
0.685871
0.916978
1.18637
1.48918
1.81786
2.16272
2.51283
2.85705
3.18514
3.48885
3.76271
4.00452
4.21539
4.3994
4.56283
4.7131
4.85772
5.00314
5.15396
5.31247
5.47859
5.65022
5.82394
5.99587
6.16254
6.32162
6.47231
6.61542
6.75297
6.88746
7.02098
7.15408
7.28494
7.40868
7.51714
7.59913
7.64115
7.62846
7.54653
7.38247
7.1265
6.77325
6.32263
5.78044
5.15845
4.47401
3.74919
3.00949
2.28218
1.59447
0.971462
0.434334
-0.00128542
-0.326483
-0.53965
-0.646437
-0.659057
-0.595006
-0.475337
-0.322665
-0.159123
-0.00447142
0.125441
0.219724
0.272913
0.284856
0.260058
0.206611
0.134843
0.055879
-0.0197366
-0.0831909
-0.12823
-0.151593
-0.153052
-0.135077
-0.102229
-0.0603604
-0.0157556
0.0256886
0.0591356
0.0812622
0.0904373
0.0866055
0.0708892
0.044967
0.0103326
-0.0324254
-0.0841586
-0.147354
-0.225876
-0.324217
-0.446313
-0.594079
-0.76589
-0.955305
-1.15031
-1.33339
-1.48251
-1.57324
-1.58169
-1.4881
-1.28056
-0.958309
-0.534071
-0.0352733
0.495782
1.00188
1.40968
1.62606
1.53148
0.97169
-0.249106
-2.36898
-5.65785
-10.3924
-16.8156
-25.0832
-35.2053
-46.9911
-60.0098
-73.5786
-86.7855
-98.5518
-107.731
-113.237
-114.179
-109.998
-100.565
-86.2428
-67.8829
-46.7658
-24.4819
-2.77105
16.6608
32.3241
43.1029
48.3693
48.0373
42.5552
32.835
20.133
5.89531
-8.40877
-21.4471
-32.1581
-39.8442
-44.2161
-45.3864
-43.8173
-40.2324
-35.506
-30.5443
-26.1751
-23.0573
-21.6186
-22.0283
-24.2024
-27.839
-32.4762
-37.5632
-42.5343
-46.878
-50.1923
-52.2209
-52.8697
-52.2011
-50.4109
-47.7902
-44.6801
-41.4227
-38.3168
-35.5816
-33.3341
-31.5818
-30.2306
-29.1076
-27.9935
-26.6611
-24.9135
-22.6162
-19.7198
-16.2698
-12.4017
-8.32466
-4.29359
-0.576735
2.57867
4.97704
6.49763
7.10756
6.86329
5.90112
4.41814
2.64687
0.826812
-0.823055
-2.12764
-2.9722
-3.31023
-3.16257
-2.60822
-1.7688
-0.789103
0.183502
1.01812
1.61545
1.91748
1.91092
1.62456
1.12146
0.487404
-0.182381
-0.796547
-1.2791
-1.57783
-1.66883
-1.55692
-1.2724
-0.864767
-0.394623
0.07508
0.487229
0.79721
0.977336
1.01868
0.93039
0.736732
0.472587
0.178018
-0.107255
-0.348774
-0.52111
-0.610104
-0.613452
-0.539716
-0.40598
-0.234516
-0.04887
0.130187
0.288415
0.421132
0.535159
0.649378
0.793775
1.00695
1.33233
1.81339
2.48854
3.38615
4.52039
5.88841
7.46924
9.22453
11.1011
13.0351
14.9571
16.7977
18.4933
19.9908
21.2516
22.2538
22.9931
23.4814
23.7454
23.8223
23.7563
23.5941
23.3807
23.1556
22.9498
22.7842
22.6685
22.6013
22.5717
22.5605
22.5432
22.4927
22.3819
22.1859
21.8848
21.4639
20.9152
20.2369
19.4326
18.5098
17.4792
16.3523
15.1411
13.8572
12.5119
11.1171
9.68646
8.23675
6.78904
5.3691
4.00705
2.73585
1.58874
0.595692
-0.220798
-0.850212
-1.29819
-1.58975
-1.77104
-1.90891
-2.08842
-2.40811
-2.97357
-3.89005
-5.2547
-7.14921
-9.63347
-12.7405
-16.4728
-20.8009
-25.6628
-30.9659
-36.5908
-42.3968
-48.2291
-53.9284
-59.3401
-64.3252
-68.7694
-72.5904
-75.7433
-78.2216
-80.055
-81.3038
-82.0505
-82.3892
-82.4154
-82.2163
-81.8634
-81.4077
-80.8788
-80.2864
-79.6246
-78.8786
-78.033
-77.0842
-76.056
-75.0212
-74.1259
-73.6115
-73.8262
-75.2136
-78.2688
-83.4587
-91.1113
-101.294
-113.702
-127.596
-141.804
-154.803
-164.889
-170.396
-169.942
-162.659
-148.359
-127.616
-101.738
-72.6401
-42.6224
-14.1011
10.6799
29.9125
42.4271
47.8107
46.4269
39.3402
28.158
14.8151
1.33109
-10.4275
-18.9514
-23.2358
-22.8567
-17.972
-9.25309
2.23867
15.2118
28.3176
40.3142
50.2024
57.3195
61.3825
62.4826
61.0337
57.688
53.2315
48.4742
44.1501
40.8375
38.9074
38.5032
39.552
41.7999
44.8668
48.3096
51.6867
54.6137
56.8053
58.1005
58.4683
57.9971
56.8691
55.3269
53.635
52.0422
50.7496
49.8866
49.4966
49.5346
49.8745
50.3255
50.6549
50.6153
49.9731
48.5347
46.17
42.8282
38.5468
33.4513
27.7461
21.6972
15.608
9.79187
4.54271
0.108003
-3.33337
-5.68605
-6.94422
-7.18836
-6.57335
-5.30939
-3.63834
-1.80808
-0.0479791
1.4519
2.55588
3.19058
3.34557
3.06693
2.44538
1.6006
0.663862
-0.238638
-1.00017
-1.54391
-1.82872
-1.85
-1.63607
-1.24099
-0.734989
-0.194049
0.310136
0.718524
0.990638
1.10753
1.07176
0.904705
0.641826
0.326704
0.00469852
-0.282917
-0.503679
-0.637049
-0.67569
-0.624969
-0.500903
-0.327009
-0.130538
0.0613478
0.224977
0.342772
0.404803
0.40922
0.36162
0.273547
0.160405
0.0391099
-0.0742005
-0.166113
-0.227338
-0.253433
-0.244853
-0.206364
-0.145992
-0.0736609
0.000256547
0.0662898
0.116968
0.147544
0.156308
0.144474
0.115718
0.0754562
0.0299755
-0.0144475
-0.0523363
-0.0796182
-0.093987
-0.0950064
-0.0839655
-0.0635338
-0.0372788
-0.00912148
0.017194
0.0385527
0.0527942
0.0588825
0.0569175
0.0480012
0.0339934
0.0171966
1.98782e-05
-0.0153358
-0.0271321
-0.0342631
-0.0363271
-0.0336024
-0.0269402
-0.0175965
-0.00703132
0.00329662
0.0121134
0.0184704
0.0218291
0.0220854
0.0195364
0.0148006
0.00870586
0.00216309
-0.00395714
-0.00892984
-0.0122516
-0.0136822
-0.0132554
-0.011277
-0.00834229
-0.005421
-0.00405376
-0.00667842
-0.0170584
-0.0407292
-0.0853383
-0.160738
-0.278723
-0.452357
-0.694922
-1.0186
-1.43304
-1.94402
-2.55243
-3.25362
-4.0374
-4.88841
-5.78718
-6.7113
-7.6369
-8.54005
-9.39799
-10.1901
-10.8986
-11.5089
-12.01
-12.3942
-12.658
-12.8016
-12.83
-12.7534
-12.5876
-12.3546
-12.0824
-11.8039
-11.5558
-11.3754
-11.2975
-11.351
-11.5545
-11.9133
-12.417
-13.0385
-13.7354
-14.452
-15.1247
-15.6869
-16.0759
-16.2388
-16.1375
-15.7525
-15.084
-14.1515
-12.9913
-11.6521
-10.1912
-8.66885
-7.14417
-5.67127
-4.29654
-3.05679
-1.97846
-1.07755
-0.360116
0.176746
0.543695
0.757736
0.84071
0.817728
0.715585
0.561188
0.380069
0.195037
0.0250654
-0.115529
-0.217536
-0.276903
-0.294388
-0.274849
-0.226242
-0.158438
-0.0819834
-0.00691252
0.0582519
0.107239
0.136445
0.145019
0.134625
0.108953
0.0730494
0.0325679
-0.00697144
-0.0408235
-0.0654974
-0.0790331
-0.0810645
-0.0726821
-0.0561355
-0.0344266
-0.0108563
0.011416
0.0297478
0.0422829
0.0480972
0.0472183
0.0405439
0.0297114
0.0169903
0.00529062
-0.0016317
0.0012736
0.021019
0.0673483
0.153396
0.29596
0.515114
0.832944
1.27135
1.84904
2.57816
3.46089
4.48686
5.63175
6.85755
8.11452
9.34466
10.4861
11.4777
12.2635
12.7958
13.0378
12.9642
12.562
11.8307
10.7824
9.44282
7.85328
6.07238
4.17791
2.26751
0.457194
-1.12301
-2.33675
-3.05224
-3.15535
-2.56375
-1.23997
0.798474
3.47392
6.64979
10.1388
13.7183
17.15
20.2043
22.6828
24.4373
25.3795
25.4772
24.7347
23.1557
20.6966
17.2178
12.451
5.99907
-2.61853
-13.8692
-28.0694
-45.2301
-64.919
-86.1788
-107.532
-127.086
-142.742
-152.463
-154.579
-148.067
-132.751
-109.398
-79.6833
-46.0197
-11.2926
21.4805
49.5047
70.5321
83.1101
86.7252
81.8239
69.7155
52.3748
32.1738
11.5836
-7.11782
-22.0922
-32.1171
-36.6736
-35.9422
-30.7149
-22.2411
-12.0325
-1.65463
7.4691
14.2159
17.8708
18.1726
15.2999
9.80435
2.50446
-5.64284
-13.6749
-20.7437
-26.2097
-29.7007
-31.1313
-30.6833
-28.7543
-25.8827
-22.6597
-19.6422
-17.2762
-15.8409
-15.4194
-15.8977
-16.9923
-18.2992
-19.3588
-19.7255
-19.0333
-17.0492
-13.7059
-9.11229
-3.54021
2.61037
8.86111
14.7138
19.7095
23.4807
25.7904
26.5539
25.8415
23.863
20.9363
17.4464
13.7983
10.3716
7.48109
5.34752
4.0818
3.68289
4.04882
4.99826
6.2995
7.70257
8.9706
9.90677
10.374
10.3059
9.70779
8.64981
7.25226
5.66666
4.05474
2.56824
1.33181
0.430673
-0.0957373
-0.254208
-0.092609
0.309617
0.853838
1.43574
1.95825
2.34246
2.53526
2.51329
2.28288
1.87647
1.34612
0.755381
0.170433
-0.348242
-0.752696
-1.0122
-1.11539
-1.06984
-0.899389
-0.639751
-0.333078
-0.0223036
0.254063
0.466079
0.595051
0.634577
0.589974
0.476349
0.315659
0.133257
-0.0456154
-0.198947
-0.310337
-0.370424
-0.377286
-0.335876
-0.256654
-0.153684
-0.0424848
0.0620687
0.147543
0.205242
0.230892
0.224709
0.190886
0.136641
0.070986
0.00340424
-0.0573932
-0.104479
-0.133392
-0.14243
-0.132575
-0.10708
-0.0708201
-0.0295033
0.0111324
0.0460461
0.071453
0.0851672
0.0867063
0.0771708
0.0589378
0.0352256
0.00959999
-0.0145117
-0.0342367
-0.0475592
-0.0534836
-0.0520521
-0.0442351
-0.0317292
-0.0167105
-0.00160061
0.0111073
0.0189318
0.0193907
0.00992117
-0.0122139
-0.0499665
-0.106428
-0.184601
-0.287015
-0.415235
-0.569338
-0.747474
-0.945593
-1.15746
-1.37497
-1.58884
-1.78947
-1.96809
-2.11781
-2.23453
-2.31754
-2.36958
-2.39645
-2.40603
-2.40701
-2.40723
-2.41214
-2.42352
-2.43864
-2.45013
-2.44665
-2.41424
-2.33825
-2.20563
-2.00726
-1.7399
-1.40772
-1.02295
-0.605662
-0.182758
0.213812
0.549354
0.789022
0.900497
0.85653
0.63723
0.231999
-0.358949
-1.12352
-2.03723
-3.06325
-4.15336
-5.24959
-6.2869
-7.19676
-7.91134
-8.36826
-8.51539
-8.31515
-7.7481
-6.81524
-5.53869
-3.96082
-2.14165
-0.154823
1.9177
3.9917
5.98725
7.83498
9.48151
10.8927
12.0535
12.9615
13.6138
13.9838
13.9901
13.4608
12.102
9.48314
5.05299
-1.80103
-11.6483
-24.8733
-41.5209
-61.1614
-82.8117
-104.945
-125.603
-142.603
-153.817
-157.482
-152.481
-138.553
-116.396
-87.6325
-54.6461
-20.3138
12.3342
40.4735
61.8134
74.8506
79.0147
74.6934
63.1365
46.2603
26.3818
5.9225
-12.8798
-28.2144
-38.8701
-44.32
-44.7159
-40.8015
-33.7608
-25.0282
-16.0862
-8.27774
-2.65398
0.125639
-0.164906
-3.33471
-8.84252
-15.9
-23.5949
-31.0171
-37.3709
-42.0614
-44.7468
-45.3541
-44.06
-41.2431
-37.4168
-33.152
-29.0005
-25.4273
-22.7593
-21.1549
-20.5967
-20.9068
-21.7817
-22.8405
-23.6809
-23.9356
-23.3208
-21.6724
-18.9649
-15.3122
-10.9508
-6.20712
-1.45658
2.92321
6.59672
9.30785
10.906
11.358
10.746
9.25106
7.1272
4.66787
2.17075
-0.095407
-1.91783
-3.15804
-3.75994
-3.74753
-3.21355
-2.30122
-1.18181
-0.0311759
0.991867
1.763
2.20392
2.28723
2.03465
1.50952
0.804998
0.029791
-0.706564
-1.30714
-1.69823
-1.83613
-1.70969
-1.3386
-0.768198
-0.061531
0.709909
1.47568
2.17484
2.76246
3.21342
3.52343
3.70708
3.79365
3.82121
3.83005
3.85622
3.92619
4.05319
4.2355
4.45703
4.68964
4.89712
5.04004
5.08097
4.98941
4.74601
4.34555
3.79834
3.12993
2.37909
1.59412
0.828061
0.133177
-0.444597
-0.870521
-1.12467
-1.20383
-1.12144
-0.905635
-0.595618
-0.23689
0.124034
0.444786
0.691521
0.842027
0.887233
0.831028
0.688476
0.482753
0.24126
-0.00854541
-0.243027
-0.445466
-0.607979
-0.73208
-0.827842
-0.911863
-1.00434
-1.12571
-1.29335
-1.51875
-1.80558
-2.14893
-2.53569
-2.94612
-3.3563
-3.74118
-4.07775
-4.34794
-4.54097
-4.65462
-4.69557
-4.67858
-4.62472
-4.55888
-4.50688
-4.49251
-4.53486
-4.64623
-4.83082
-5.08438
-5.39471
-5.74301
-6.10582
-6.45731
-6.77171
-7.02557
-7.19966
-7.28034
-7.2604
-7.13913
-6.92195
-6.61945
-6.24605
-5.81849
-5.35427
-4.87007
-4.38061
-3.89772
-3.43
-2.98283
-2.55891
-2.15896
-1.78274
-1.42982
-1.10026
-0.794743
-0.51424
-0.258993
-0.0269223
0.188374
0.399666
0.627677
0.901616
1.25813
1.73835
2.38312
3.22674
4.29022
5.57495
7.05818
8.69111
10.4005
12.0935
13.6659
15.012
16.0356
16.6601
16.8366
16.5487
15.8134
14.679
13.2183
11.5206
9.68227
7.79722
5.94957
4.20868
2.62746
1.24371
0.083916
-0.831659
-1.4838
-1.85046
-1.90507
-1.61758
-0.958329
0.0959634
1.55499
3.40769
5.61646
8.11396
10.803
13.5594
16.2366
18.6693
20.6735
22.0393
22.5167
21.7967
19.4967
15.1613
8.29214
-1.58396
-14.809
-31.4621
-51.2288
-73.3037
-96.3613
-118.618
-137.991
-152.339
-159.754
-158.847
-148.994
-130.478
-104.522
-73.1784
-39.1158
-5.30805
25.3126
50.1965
67.4639
76.1005
76.0387
68.1197
53.9449
35.6448
15.5963
-3.86909
-20.7307
-33.4857
-41.2766
-43.929
-41.9032
-36.1734
-28.0554
-19.0092
-10.444
-3.549
0.831202
2.26572
0.747715
-3.34896
-9.35606
-16.4247
-23.6498
-30.1877
-35.354
-38.6916
-40.0024
-39.3454
-37.0035
-33.4262
-29.1589
-24.7662
-20.7602
-17.5402
-15.3507
-14.262
-14.1725
-14.8339
-15.8924
-16.9417
-17.5807
-17.4666
-16.3589
-14.148
-10.8662
-6.67953
-1.8642
3.23021
8.22421
12.7533
16.5086
19.2678
20.9148
21.445
20.9574
19.6359
17.7214
15.4816
13.1786
11.0423
9.24843
7.90668
7.05682
6.67381
6.6799
6.96153
7.38837
7.8321
8.18247
8.35907
8.31774
8.05153
7.58662
6.97448
6.28142
5.57755
4.92636
4.37642
3.95601
3.6711
3.50667
3.43077
3.40064
3.36977
3.29494
3.14232
2.89182
2.53925
2.09627
1.58814
1.04987
0.521247
0.0416069
-0.355086
-0.644166
-0.812793
-0.860862
-0.800293
-0.652911
-0.447287
-0.215016
0.0130841
0.210355
0.356907
0.441194
0.460453
0.420071
0.332037
0.212771
0.0806473
-0.0464611
-0.153311
-0.228872
-0.267223
-0.267719
-0.234501
-0.175454
-0.100821
-0.021671
0.0515698
0.11035
0.148859
0.164457
0.157663
0.131749
0.0920342
0.0449996
-0.00265251
-0.0448618
-0.076902
-0.0958314
-0.100672
-0.09232
-0.073237
-0.0469697
-0.0175899
0.0108734
0.0349363
0.0520398
0.0607729
0.0609279
0.0533984
0.0399494
0.0229028
0.00478619
-0.0120072
-0.0255051
-0.0343594
-0.0379497
-0.0363837
-0.0304061
-0.0212379
-0.0103713
0.000646039
0.0104121
0.0178312
0.0222191
0.0233456
0.0214135
0.0169817
0.0108404
0.00384968
-0.00324243
-0.00997784
-0.0163257
-0.0227411
-0.0301159
-0.0396177
-0.0524438
-0.0695524
-0.0914516
-0.118128
-0.149173
-0.184133
-0.223041
-0.267072
-0.319193
-0.384678
-0.471362
-0.589525
-0.751378
-0.970176
-1.25908
-1.62996
-2.09225
-2.65216
-3.31217
-4.07093
-4.9233
-5.86047
-6.86983
-7.93457
-9.03289
-10.137
-11.2126
-12.2181
-13.1056
-13.8228
-14.3155
-14.5315
-14.4256
-13.9638
-13.1272
-11.9151
-10.3461
-8.4581
-6.30618
-3.95945
-1.49687
0.997335
3.43816
5.74378
7.83842
9.65327
11.1245
12.1864
12.7584
12.7254
11.9122
10.0585
6.80349
1.69252
-5.78327
-16.1067
-29.6181
-46.3788
-66.0424
-87.7671
-110.202
-131.563
-149.807
-162.874
-168.972
-166.854
-156.032
-136.901
-110.749
-79.6322
-46.1563
-13.1763
16.5338
40.5974
57.2955
65.7382
65.9277
58.7114
45.6343
28.7179
10.1957
-7.7571
-23.2669
-34.9489
-42.0204
-44.332
-42.3201
-36.8932
-29.2726
-20.8106
-12.8114
-6.37564
-2.28609
-0.944041
-2.35918
-6.18873
-11.8161
-18.4554
-25.2658
-31.4615
-36.4033
-39.663
-41.0551
-40.6347
-38.6668
-35.5716
-31.8561
-28.0416
-24.5944
-21.8708
-20.0788
-19.2626
-19.3083
-19.9705
-20.9139
-21.7645
-22.1638
-21.8175
-20.5339
-18.2473
-15.0241
-11.0507
-6.60814
-2.03433
2.31786
6.12293
9.11924
11.1357
12.1059
12.0691
11.1583
9.57851
7.57834
5.41864
3.34278
1.55154
0.185455
-0.684108
-1.05487
-0.985417
-0.580631
0.0267813
0.696117
1.29726
1.72592
1.91399
1.83423
1.49939
0.956328
0.276445
-0.455927
-1.15558
-1.74733
-2.1744
-2.40368
-2.42729
-2.26086
-1.93894
-1.50864
-1.02227
-0.530333
-0.0755237
0.311525
0.614347
0.830631
0.970307
1.05223
1.10005
1.13799
1.18701
1.26194
1.36981
1.50947
1.67244
1.84477
2.00949
2.14934
2.24932
2.29876
2.29258
2.23177
2.12304
1.97777
1.81057
1.63754
1.47457
1.33568
1.23175
1.16945
1.15057
1.1717
1.22437
1.2956
1.36905
1.42649
1.44984
1.42329
1.33545
1.18117
0.962777
0.690522
0.382006
0.0606985
-0.246404
-0.51171
-0.710227
-0.822606
-0.837647
-0.753923
-0.580254
-0.334955
-0.0439004
0.262349
0.55201
0.795681
0.969627
1.05834
1.05602
0.96692
0.804414
0.589047
0.345834
0.101155
-0.12033
-0.298387
-0.419236
-0.476711
-0.472481
-0.415392
-0.32003
-0.204749
-0.0893858
0.00705909
0.0685311
0.0835875
0.0464582
-0.0426041
-0.177703
-0.348341
-0.540981
-0.74091
-0.934164
-1.10927
-1.2586
-1.37916
-1.47283
-1.54589
-1.60813
-1.67143
-1.74822
-1.84979
-1.98486
-2.1584
-2.37104
-2.61898
-2.89448
-3.18681
-3.48347
-3.77155
-4.03903
-4.27569
-4.47382
-4.62849
-4.73744
-4.80069
-4.82009
-4.79864
-4.73997
-4.64783
-4.52564
-4.37629
-4.20194
-4.00409
-3.78372
-3.54164
-3.2788
-2.99674
-2.69789
-2.38581
-2.06516
-1.7416
-1.42144
-1.11123
-0.817262
-0.545235
-0.299917
-0.0849902
0.0970299
0.244826
0.35832
0.438764
0.488884
0.513046
0.517385
0.509813
0.499842
0.498154
0.515936
0.564004
0.651817
0.786483
0.971907
1.20818
1.49129
1.81328
2.16272
2.52556
2.88632
3.22935
3.54014
3.80651
4.01953
4.17404
4.26877
4.30598
4.2908
4.23028
4.13232
4.00482
3.85485
3.68833
3.50988
3.3231
3.13099
2.9364
2.74258
2.55337
2.37325
2.20707
2.05941
1.9338
1.83177
1.75194
1.68933
1.63506
1.57641
1.49749
1.38025
1.20593
0.956585
0.616574
0.173707
-0.380195
-1.04936
-1.83464
-2.73429
-3.74447
-4.8592
-6.0693
-7.36052
-8.71098
-10.0885
-11.4488
-12.7344
-13.8764
-14.7973
-15.4175
-15.6621
-15.4689
-14.7969
-13.6325
-11.9942
-9.9333
-7.53198
-4.89782
-2.1553
0.564312
3.13368
5.43872
7.38455
8.89525
9.9052
10.3401
10.0883
8.96729
6.69381
2.87086
-2.99353
-11.4257
-22.8817
-37.6099
-55.5057
-75.9925
-97.9635
-119.813
-139.567
-155.103
-164.427
-165.97
-158.843
-143.015
-119.38
-89.6948
-56.3984
-22.3369
9.56564
36.646
56.8024
68.7185
71.9841
67.1002
55.3747
38.7263
19.4266
-0.181816
-17.9568
-32.1834
-41.7318
-46.1324
-45.5657
-40.7758
-32.924
-23.4072
-13.6648
-5.00097
1.55981
5.36754
6.18641
4.17966
-0.152827
-6.07179
-12.7151
-19.2175
-24.8183
-28.9457
-31.2694
-31.7183
-30.4649
-27.8802
-24.4683
-20.7887
-17.3769
-14.6728
-12.9658
-12.3616
-12.7749
-13.9474
-15.4892
-16.9355
-17.8135
-17.7079
-16.3187
-13.502
-9.29084
-3.89139
2.34171
8.94907
15.4221
21.2632
26.0427
29.4452
31.3011
31.5984
30.4758
28.1988
25.1213
21.6411
18.1522
15.0017
12.456
10.6785
9.72236
9.5365
9.98311
10.8643
11.953
13.024
13.8814
14.38
14.4372
14.0363
13.2211
12.083
10.744
9.33736
7.98912
6.80247
5.84707
5.15379
4.71523
4.49114
4.41762
4.41837
4.41649
4.34501
4.15517
3.82138
3.34274
2.7412
2.05689
1.34151
0.650841
0.037317
-0.456342
-0.801773
-0.987442
-1.01886
-0.916692
-0.71319
-0.447558
-0.160881
0.108697
0.329995
0.481609
0.553278
0.5458
0.469633
0.342497
0.186365
0.024272
-0.122654
-0.237589
-0.309623
-0.33445
-0.314172
-0.256327
-0.172342
-0.0756736
0.0200967
0.102984
0.163927
0.197612
0.20273
0.181711
0.140014
0.0851137
0.0253451
-0.0312389
-0.0778488
-0.109678
-0.124295
-0.121694
-0.104039
-0.0751568
-0.039881
-0.00333355
0.0297486
0.0555693
0.0716504
0.0770031
0.0720943
0.0586325
0.0392208
0.0169343
-0.00511672
-0.0241825
-0.038181
-0.0458888
-0.0470044
-0.0420872
-0.0323967
-0.0196589
-0.00580006
0.0073173
0.0181216
0.0254991
0.0288856
0.0282787
0.0241788
0.0174724
0.00928005
0.000789958
-0.00689822
-0.0129027
-0.0166488
-0.0179141
-0.0168374
-0.013906
-0.00994179
-0.00610094
-0.00388829
-0.00516943
-0.0121514
-0.0272983
-0.053159
-0.0921027
-0.145985
-0.215788
-0.301303
-0.40091
-0.511513
-0.628673
-0.746924
-0.860253
-0.96269
-1.04892
-1.11487
-1.15811
-1.17815
-1.17647
-1.15637
-1.12267
-1.08128
-1.03878
-1.00201
-0.977717
-0.972423
-0.992326
-1.04339
-1.13152
-1.2628
-1.44371
-1.68128
-1.9832
-2.35776
-2.81363
-3.35946
-4.00322
-4.75109
-5.60592
-6.56495
-7.61722
-8.74076
-9.90014
-11.0451
-12.1111
-13.0216
-13.6931
-14.0419
-13.9923
-13.4853
-12.4858
-10.9892
-9.0239
-6.6518
-3.96448
-1.07702
1.88076
4.77433
7.47472
9.86762
11.86
13.3824
14.3854
14.8272
14.6533
13.7672
11.998
9.07459
4.61765
-1.83668
-10.7718
-22.5845
-37.4506
-55.1865
-75.1414
-96.154
-116.598
-134.524
-147.888
-154.824
-153.935
-144.526
-126.767
-101.729
-71.3024
-37.9954
-4.65216
25.8788
51.0745
69.0209
78.6148
79.6584
72.841
59.6135
41.9783
22.226
2.65525
-14.6888
-28.2255
-36.9772
-40.6249
-39.479
-34.3792
-26.5385
-17.3586
-8.24085
-0.415355
5.19032
8.03263
7.97762
5.27349
0.478815
-5.64029
-12.2281
-18.4563
-23.6264
-27.2449
-29.0671
-29.1044
-27.6007
-24.9805
-21.7801
-18.569
-15.8733
-14.108
-13.5278
-14.1991
-15.9978
-18.6306
-21.6782
-24.6529
-27.0644
-28.4837
-28.5984
-27.2515
-24.4596
-20.408
-15.426
-9.94364
-4.43844
0.621903
4.8331
7.89767
9.65315
10.0827
9.30756
7.56403
5.16799
2.47306
-0.172586
-2.46528
-4.17624
-5.17049
-5.41297
-4.96214
-3.95314
-2.57338
-1.0344
0.456396
1.72051
2.62705
3.10363
3.13897
2.77773
2.10901
1.25069
0.331874
-0.524144
-1.21431
-1.66623
-1.8437
-1.74719
-1.40975
-0.889316
-0.258846
0.404438
1.02914
1.55801
1.95363
2.20107
2.30744
2.2988
2.21503
2.10344
2.01218
1.98403
2.0515
2.23352
2.53407
2.94258
3.43612
3.98262
4.54499
5.08535
5.5689
5.9671
6.25987
6.43658
6.49595
6.44495
6.29694
6.06942
5.78154
5.45186
5.09636
4.72726
4.35235
3.9752
3.59597
3.2127
2.82297
2.42537
2.02094
1.61389
1.21187
0.825504
0.4674
0.150673
-0.11268
-0.313372
-0.446129
-0.510526
-0.511215
-0.457549
-0.36263
-0.241934
-0.111693
0.0127577
0.118463
0.195982
0.240065
0.24981
0.228324
0.181952
0.119211
0.0495715
-0.0177558
-0.0748814
-0.116034
-0.138024
-0.140347
-0.124959
-0.0957644
-0.0579322
-0.017124
0.0212559
0.0526989
0.0740521
0.0837623
0.0818951
0.0699525
0.0505301
0.0268763
0.00241638
-0.0196944
-0.0369376
-0.0476859
-0.0513356
-0.0483402
-0.0401868
-0.0293716
-0.0194148
-0.0149267
-0.0216921
-0.0467037
-0.0980672
-0.184717
-0.31593
-0.500699
-0.747049
-1.06147
-1.44854
-1.91082
-2.44898
-3.06197
-3.74706
-4.49946
-5.31155
-6.17153
-7.06188
-7.95788
-8.82667
-9.62731
-10.312
-10.8288
-11.1252
-11.1529
-10.8726
-10.2586
-9.3024
-8.01486
-6.42713
-4.58943
-2.56833
-0.442809
1.70064
3.77306
5.68753
7.36209
8.7195
9.68187
10.1586
10.0265
9.10504
7.13103
3.74439
-1.50348
-9.10667
-19.5213
-33.0466
-49.6877
-69.0297
-90.1572
-111.649
-131.668
-148.143
-159.028
-162.585
-157.667
-143.924
-121.923
-93.1355
-59.8056
-24.7089
9.16162
38.9402
62.2145
77.2913
83.3676
80.5883
69.987
53.3226
32.8394
10.9813
-9.89725
-27.7911
-41.2428
-49.4601
-52.3455
-50.4388
-44.7898
-36.7799
-27.922
-19.6621
-13.21
-9.41458
-8.69684
-11.0417
-16.0449
-23.0032
-31.032
-39.194
-46.6203
-52.6107
-56.7028
-58.7032
-58.6822
-56.9351
-53.9182
-50.1709
-46.2334
-42.5725
-39.5245
-37.2607
-35.7789
-34.9216
-34.4135
-33.9151
-33.0811
-31.6166
-29.3226
-26.1253
-22.0851
-17.3876
-12.316
-7.21243
-2.43209
1.70122
4.93389
7.10993
8.18465
8.22359
7.38804
5.9099
4.05998
2.11411
0.321584
-1.12047
-2.08403
-2.51723
-2.44152
-1.94027
-1.141
-0.194171
0.748589
1.55403
2.12238
2.39668
2.36561
2.06032
1.54611
0.910587
0.250077
-0.343757
-0.795514
-1.05453
-1.09945
-0.938651
-0.606856
-0.158618
0.340166
0.821508
1.22408
1.50041
1.62166
1.57964
1.38604
1.06922
0.669131
0.231409
-0.198768
-0.582051
-0.889016
-1.10255
-1.21842
-1.24413
-1.19642
-1.09783
-0.973026
-0.845287
-0.733695
-0.65135
-0.604702
-0.593963
-0.614399
-0.658156
-0.716258
-0.780376
-0.84409
-0.903446
-0.956808
-1.00414
-1.04595
-1.08222
-1.11158
-1.1309
-1.13551
-1.11984
-1.07846
-1.00727
-0.904608
-0.771985
-0.614402
-0.440064
-0.259548
-0.0845184
0.0738193
0.206315
0.307259
0.375338
0.414026
0.431329
0.438956
0.45102
0.482475
0.547491
0.657977
0.822393
1.04499
1.3255
1.65925
2.03764
2.44894
2.87917
3.31313
3.73539
4.1312
4.48726
4.79231
5.03747
5.21643
5.32536
5.36269
5.32881
5.22565
5.05628
4.82455
4.53475
4.19147
3.79943
3.36353
2.8889
2.38112
1.84632
1.29137
0.723955
0.152578
-0.413605
-0.965006
-1.49191
-1.98483
-2.43484
-2.83384
-3.17485
-3.45218
-3.66159
-3.80045
-3.86788
-3.86496
-3.79482
-3.66279
-3.47627
-3.24446
-2.97769
-2.68651
-2.38049
-2.06695
-1.74986
-1.4292
-1.10093
-0.757765
-0.390647
0.00928765
0.448557
0.929401
1.44844
1.99617
2.55746
3.11299
3.64139
4.12184
4.5366
4.87319
5.12574
5.29537
5.38954
5.42035
5.40227
5.34941
5.27298
5.1791
5.06749
4.93107
4.75666
4.52656
4.22077
3.81962
3.30637
2.66962
1.90542
1.01903
0.0262112
-1.04584
-2.15829
-3.26128
-4.29563
-5.19586
-5.89428
-6.32621
-6.43556
-6.1805
-5.53827
-4.50873
-3.1161
-1.40856
0.544263
2.65573
4.82807
6.95914
8.94911
10.7064
12.1511
13.2152
13.8366
13.9463
13.4465
12.1842
9.92329
6.32672
0.961417
-6.66259
-17.0119
-30.4123
-46.9112
-66.1478
-87.2658
-108.9
-129.257
-146.288
-157.937
-162.432
-158.555
-145.869
-124.837
-96.8299
-64.0041
-29.0737
4.99576
35.328
59.4641
75.6344
82.9403
81.4237
72.0213
56.4124
36.787
15.5656
-4.8905
-22.5418
-35.8757
-44.0335
-46.8484
-44.7981
-38.8847
-30.4623
-21.0384
-12.0762
-4.82084
-0.17038
1.39893
-0.152372
-4.46697
-10.8756
-18.512
-26.4406
-33.7808
-39.8119
-44.0485
-46.2798
-46.5696
-45.2224
-42.7201
-39.6408
-36.5706
-34.0193
-32.3523
-31.7453
-32.1682
-33.3982
-35.0596
-36.6834
-37.7784
-37.9031
-36.7286
-34.0839
-29.9791
-24.6031
-18.2983
-11.5156
-4.75753
1.4824
6.77696
10.8108
13.41
14.5523
14.3589
13.0689
11.0026
8.5177
5.96479
3.64843
1.79702
0.545103
-0.0712129
-0.106385
0.312702
1.01181
1.79756
2.48496
2.92087
3.00097
2.67872
1.96604
0.926542
-0.337175
-1.69991
-3.03147
-4.21312
-5.15092
-5.78459
-6.09114
-6.08358
-5.80523
-5.32104
-4.70725
-4.04105
-3.39136
-2.81178
-2.33636
-1.97818
-1.73065
-1.57095
-1.46503
-1.37339
-1.25683
-1.08173
-0.824141
-0.472493
-0.0286464
0.492643
1.0657
1.65706
2.22925
2.74497
3.17096
3.48146
3.66059
3.70376
3.61781
3.41998
3.13584
2.79653
2.43542
2.08477
1.77256
1.51982
1.33878
1.23189
1.19184
1.20249
1.24073
1.27892
1.28783
1.23975
1.11141
0.886503
0.557513
0.12661
-0.394452
-0.985448
-1.61966
-2.26645
-2.89413
-3.47268
-3.97608
-4.38391
-4.68221
-4.86345
-4.92594
-4.87293
-4.71145
-4.45144
-4.10502
-3.6861
-3.21024
-2.69443
-2.15684
-1.61614
-1.09053
-0.596336
-0.146398
0.251469
0.595739
0.89184
1.15204
1.39442
1.64106
1.91555
2.2401
2.63272
3.10473
3.659
4.2891
4.97956
5.70702
6.44237
7.15335
7.80746
8.37477
8.83035
9.15605
9.34153
9.3845
9.29019
9.07022
8.74109
8.32243
7.83525
7.30038
6.73707
6.16204
5.58887
5.02773
4.48548
3.96603
3.47096
3.00012
2.55242
2.12634
1.72039
1.33331
0.964069
0.611684
0.274899
-0.0481752
-0.36042
-0.666016
-0.970652
-1.2816
-1.60761
-1.95864
-2.34536
-2.7785
-3.26809
-3.82253
-4.44777
-5.14649
-5.91755
-6.75561
-7.6511
-8.59025
-9.55519
-10.5238
-11.4694
-12.3595
-13.1558
-13.8129
-14.2792
-14.4986
-14.4136
-13.9702
-13.1234
-11.8431
-10.1197
-7.96818
-5.42957
-2.57082
0.518607
3.73211
6.95309
10.0629
12.9485
15.5093
17.6604
19.3324
20.4642
20.9873
20.8027
19.7513
17.5856
13.9535
8.40729
0.449943
-10.3769
-24.3685
-41.5157
-61.3776
-83.0024
-104.928
-125.278
-141.952
-152.891
-156.364
-151.249
-137.242
-114.961
-85.932
-52.4453
-17.3081
16.4747
46.0471
69.0261
83.7633
89.5092
86.4633
75.7081
59.0397
38.7235
17.2072
-3.1681
-20.4255
-33.147
-40.5876
-42.6998
-40.0731
-33.8026
-25.3092
-16.1363
-7.75078
-1.3724
2.1514
2.41277
-0.549156
-6.29617
-14.0829
-22.9774
-31.9918
-40.2077
-46.8789
-51.5031
-53.8558
-53.9865
-52.1807
-48.8973
-44.6904
-40.1272
-35.7133
-31.833
-28.7123
-26.4064
-24.8118
-23.6994
-22.7623
-21.6706
-20.1257
-17.9064
-14.9007
-11.1208
-6.6992
-1.86874
3.07024
7.7904
11.9794
15.3781
17.8094
19.1962
19.565
19.0369
17.8083
16.123
14.2412
12.4094
10.8335
9.65952
8.96285
8.74698
8.95068
9.46225
10.1384
10.8252
11.378
11.6783
11.6464
11.2473
10.4915
9.42982
8.1445
6.73725
5.31618
3.98337
2.82421
1.8995
1.2411
0.851
0.703775
0.751702
0.93184
1.17409
1.40935
1.57681
1.62989
1.54001
1.29832
0.915003
0.416716
-0.157643
-0.762135
-1.34936
-1.87573
-2.30595
-2.61608
-2.79528
-2.84578
-2.78155
-2.62588
-2.40802
-2.1597
-1.9115
-1.68968
-1.51372
-1.3946
-1.33421
-1.32566
-1.35459
-1.40123
-1.44301
-1.45737
-1.42445
-1.32946
-1.16423
-0.928055
-0.6275
-0.275471
0.110498
0.510369
0.903889
1.27271
1.60209
1.88197
2.10735
2.27808
2.39811
2.47439
2.51563
2.53103
2.52912
2.51671
2.49817
2.47491
2.44529
2.40492
2.34732
2.26502
2.15085
1.99929
1.80776
1.57753
1.31419
1.02749
0.730638
0.439074
0.168868
-0.0650048
-0.25032
-0.378946
-0.447705
-0.458657
-0.418762
-0.338995
-0.23303
-0.115679
-0.0012732
0.0977964
0.172233
0.216552
0.229307
0.212846
0.172641
0.116331
0.0525924
-0.00999302
-0.0639506
-0.103688
-0.125966
-0.130036
-0.117459
-0.0916691
-0.0573455
-0.0197049
0.0162001
0.0460875
0.0668919
0.0770133
0.0763574
0.0661849
0.0488076
0.0271876
0.00449681
-0.0163016
-0.0328015
-0.0433949
-0.0473876
-0.0449884
-0.0371859
-0.0255408
-0.0119295
0.00172603
0.0137037
0.0226765
0.0278371
0.0289433
0.0262889
0.0206089
0.0129404
0.00446015
-0.00367847
-0.0104879
-0.015253
-0.0175918
-0.0174682
-0.0151599
-0.011192
-0.00625294
-0.00112038
0.00336692
0.00624861
0.0062631
0.00154787
-0.0107345
-0.0347511
-0.0762087
-0.142292
-0.241235
-0.381505
-0.570653
-0.813984
-1.11327
-1.46575
-1.86368
-2.29461
-2.74235
-3.18876
-3.61579
-4.00768
-4.35273
-4.6444
-4.88136
-5.06663
-5.20588
-5.30508
-5.36818
-5.39499
-5.37979
-5.31097
-5.17169
-4.94178
-4.60037
-4.12936
-3.5169
-2.76083
-1.87145
-0.873531
0.192628
1.2706
2.28679
3.14749
3.7321
3.8813
3.38044
1.94153
-0.809145
-5.32712
-12.1182
-21.6709
-34.3519
-50.2758
-69.1735
-90.2892
-112.342
-133.574
-151.9
-165.142
-171.313
-168.922
-157.225
-136.393
-107.566
-72.769
-34.7054
3.53853
38.8467
68.4268
90.12
102.626
105.613
99.7121
86.3892
67.7275
46.1492
24.1154
3.84364
-12.9227
-25.0689
-32.1738
-34.486
-32.8203
-28.3965
-22.6448
-17.0045
-12.7434
-10.8158
-11.7745
-15.7411
-22.4326
-31.2358
-41.3144
-51.7336
-61.5837
-70.0892
-76.6899
-81.0881
-83.2579
-83.4205
-81.9897
-79.4987
-76.5176
-73.5723
-71.077
-69.2846
-68.2632
-67.8994
-67.9252
-67.9664
-67.603
-66.4344
-64.1401
-60.5274
-55.5612
-49.3712
-42.2376
-34.557
-26.7938
-19.4246
-12.8825
-7.50849
-3.51656
-0.975616
0.190025
0.182689
-0.700743
-2.1101
-3.6866
-5.10502
-6.10837
-6.53126
-6.30993
-5.47897
-4.15608
-2.5181
-0.771952
0.875351
2.24367
3.20069
3.6747
3.65839
3.20419
2.41232
1.41405
0.352552
-0.635857
-1.43784
-1.97472
-2.20867
-2.14324
-1.81862
-1.30291
-0.680706
-0.040882
0.534923
0.981726
1.25754
1.34622
1.2567
1.01927
0.679592
0.291556
-0.0895596
-0.412296
-0.631072
-0.704006
-0.586076
-0.218206
0.485937
1.65264
3.457
6.12468
9.92422
15.149
22.09
31.0014
42.0648
55.3545
70.8122
88.2313
107.257
127.402
148.073
168.616
188.361
206.674
223.006
236.931
248.175
256.631
262.354
265.548
266.536
265.721
263.55
260.468
256.885
253.149
249.523
246.18
243.203
240.594
238.29
236.178
234.112
231.928
229.452
226.513
222.94
218.568
213.238
206.801
199.12
190.077
179.586
167.604
154.149
139.313
123.274
106.308
88.7832
71.1513
53.9252
37.6464
22.8446
9.99425
-0.528461
-8.48163
-13.7824
-16.5167
-16.933
-15.4186
-12.4637
-8.6139
-4.4202
-0.38902
3.06026
5.62661
7.14438
7.58506
7.0444
5.71747
3.86533
1.77776
-0.263401
-2.01611
-3.30195
-4.02001
-4.15008
-3.74598
-2.92097
-1.82789
-0.637603
0.481284
1.3786
1.93301
2.05614
1.69122
0.807779
-0.605509
-2.54773
-5.01095
-7.98284
-11.4467
-15.3794
-19.7482
-24.5069
-29.5935
-34.9282
-40.4133
-45.934
-51.3613
-56.5549
-61.3686
-65.6554
-69.2754
-72.104
-74.0426
-75.0283
-75.0445
-74.129
-72.3784
-69.9487
-67.0495
-63.9321
-60.8719
-58.1459
-56.0067
-54.6552
-54.2153
-54.7121
-56.0569
-58.0436
-60.3576
-62.6011
-64.3351
-65.1384
-64.6761
-62.7702
-59.4562
-55.0112
-49.9371
-44.8907
-40.5638
-37.5288
-36.0778
-36.0908
-36.9672
-37.6444
-36.7112
-32.6046
-23.8585
-9.36394
11.4061
38.2466
70.1728
105.486
141.942
177.004
208.138
233.105
250.227
258.571
258.042
249.372
234.008
213.926
191.38
168.643
147.75
130.289
117.258
109
105.215
105.054
107.265
110.372
112.873
113.41
110.919
104.725
94.5728
80.6219
63.3766
43.5904
22.1488
-0.0519387
-22.2149
-43.7301
-64.2314
-83.6189
-102.047
-119.882
-137.634
-155.879
-175.167
-195.939
-218.457
-242.752
-268.601
-295.529
-322.846
-349.7
-375.163
-398.313
-418.324
-434.546
-446.562
-454.224
-457.654
-457.217
-453.464
-447.062
-438.702
-429.014
-418.485
-407.4
-395.811
-383.528
-370.15
-355.128
-337.843
-317.71
-294.279
-267.34
-236.991
-203.687
-168.244
-131.79
-95.6889
-61.4178
-30.4281
-4.00222
16.8762
31.6234
40.1138
42.689
40.1169
33.5057
24.1845
13.5648
3.0003
-6.34018
-13.5713
-18.1529
-19.9093
-19.0073
-15.8991
-11.2383
-5.7816
-0.289181
4.56507
8.26369
10.4898
11.1426
10.3252
8.30922
5.48305
2.29101
-0.82731
-3.49076
-5.41722
-6.44762
-6.55197
-5.81845
-4.42848
-2.62198
-0.657875
1.22483
2.84051
4.081
4.92761
5.45008
5.79347
6.15521
6.75649
7.81237
9.50555
11.9676
15.2701
19.4272
24.4061
30.1456
36.575
43.6321
51.2749
59.4851
68.2647
77.625
87.573
98.0971
109.157
120.679
132.558
144.665
156.858
168.99
180.924
192.529
203.681
214.254
224.11
233.087
240.995
247.617
252.721
256.072
257.466
256.75
253.848
248.782
241.672
232.73
222.238
210.512
197.868
184.579
170.85
156.802
142.478
127.867
112.934
97.6714
82.1333
66.472
50.9506
35.9373
21.8787
9.25533
-1.474
-9.92968
-15.8633
-19.1952
-20.0325
-18.6644
-15.5354
-11.2009
-6.26942
-1.34098
3.05226
6.49468
8.72049
9.6282
9.27568
7.85766
5.66956
3.06296
0.398349
-1.99945
-3.87929
-5.09285
-5.61483
-5.55517
-5.16447
-4.83265
-5.07772
-6.51894
-9.82657
-15.6426
-24.472
-36.5549
-51.7394
-69.3832
-88.3164
-106.888
-123.106
-134.863
-140.22
-137.699
-126.538
-106.871
-79.7768
-47.207
-11.7861
23.4863
55.587
81.8254
100.156
109.402
109.37
100.836
85.4137
65.3322
43.1463
21.4287
2.47853
-11.9182
-20.6508
-23.3552
-20.3936
-12.7524
-1.87709
10.5306
22.727
33.1257
40.461
43.9002
43.0964
38.1826
29.7127
18.562
5.80141
-7.43618
-20.0838
-31.2468
-40.2797
-46.8266
-50.8249
-52.4755
-52.1854
-50.4927
-47.983
-45.2084
-42.6182
-40.5086
-38.9966
-38.0198
-37.3607
-36.69
-35.6242
-33.7867
-30.8669
-26.6663
-21.1299
-14.3555
-6.58436
1.82696
10.4484
18.8255
26.5289
33.1992
38.5806
42.5406
45.0744
46.2935
46.403
45.6686
44.3807
42.8169
41.2109
39.7275
38.4496
37.3753
36.4265
35.4676
34.3308
32.845
30.8651
28.297
25.1153
21.3725
17.1961
12.7772
8.349
4.16
0.44405
-2.60883
-4.87748
-6.3274
-7.01925
-7.10668
-6.8236
-6.46214
-6.34367
-6.78605
-8.07093
-10.4148
-13.9468
-18.6967
-24.5923
-31.4685
-39.0845
-47.1488
-55.3474
-63.3722
-70.9473
-77.8504
-83.9262
-89.0926
-93.3391
-96.7178
-99.3292
-101.305
-102.787
-103.913
-104.797
-105.519
-106.118
-106.592
-106.9
-106.969
-106.707
-106.014
-104.798
-102.98
-100.513
-97.3801
-93.6001
-89.2266
-84.342
-79.0501
-73.4667
-67.7093
-61.8882
-56.0982
-50.4139
-44.8876
-39.5511
-34.42
-29.5001
-24.7953
-20.3149
-16.0788
-12.1207
-8.48743
-5.23526
-2.42323
-0.104865
1.68054
2.91575
3.61108
3.80682
3.57194
2.99932
2.19805
1.28367
0.367766
-0.451904
-1.09955
-1.52678
-1.71484
-1.67356
-1.43725
-1.05829
-0.599284
-0.124788
0.306365
0.647321
0.867415
0.954036
0.91216
0.761812
0.533996
0.265717
-0.00519238
-0.244796
-0.4268
-0.534961
-0.563992
-0.519025
-0.413847
-0.268239
-0.104871
0.0538401
0.188494
0.28481
0.334852
0.337346
0.297115
0.223823
0.130243
0.0303221
-0.0626942
-0.137849
-0.187604
-0.20842
-0.200775
-0.168672
-0.118763
-0.0592275
0.00141602
0.0554196
0.0966961
0.121408
0.128209
0.118152
0.0942955
0.0611114
0.0237765
-0.0125355
-0.0432597
-0.0648591
-0.0750034
-0.072496
-0.056982
-0.0285167
0.0128928
0.0676477
0.136709
0.221473
0.323361
0.443189
0.580417
0.732445
0.894102
1.05749
1.21228
1.34647
1.44759
1.5042
1.50754
1.45303
1.34155
1.18017
0.982361
0.76744
0.559488
0.385694
0.274387
0.253026
0.346441
0.575625
0.957293
1.50424
2.22637
3.13194
4.22859
5.52349
7.02221
8.7262
10.629
12.7119
14.9399
17.259
19.5957
21.8587
23.9434
25.7385
27.1333
28.0245
28.3194
27.9327
26.7754
24.7335
21.6415
17.2573
11.2516
3.22563
-7.23251
-20.4506
-36.546
-55.2936
-76.022
-97.571
-118.335
-136.403
-149.776
-156.643
-155.658
-146.177
-128.413
-103.47
-73.2626
-40.3109
-7.45305
22.488
47.0371
64.3505
73.4146
74.1343
67.3041
54.4705
37.7084
19.3466
1.67786
-13.3061
-24.1244
-29.939
-30.5982
-26.5924
-18.9368
-8.99897
1.69994
11.6854
19.7048
24.86
26.6822
25.1487
20.6424
13.8656
5.7241
-2.80256
-10.7861
-17.4558
-22.2744
-24.9785
-25.5828
-24.3501
-21.7371
-18.3215
-14.7236
-11.5277
-9.21434
-8.10854
-8.34816
-9.87581
-12.454
-15.701
-19.1433
-22.2777
-24.635
-25.8381
-25.6472
-23.9861
-20.9479
-16.7793
-11.8467
-6.58973
-1.46682
3.09725
6.75765
9.28304
10.5735
10.6615
9.69744
7.92212
5.63149
3.13784
0.733031
-1.34205
-2.91869
-3.91056
-4.31272
-4.19086
-3.66326
-2.87842
-1.9918
-1.14455
-0.446747
0.0335177
0.274454
0.298704
0.166227
-0.03655
-0.209574
-0.252267
-0.0753244
0.389972
1.18569
2.3247
3.79149
5.54578
7.52821
9.66716
11.8858
14.1085
16.2662
18.3003
20.1647
21.8259
23.2629
24.465
25.4294
26.1592
26.6611
26.9432
27.0147
26.8846
26.5623
26.0573
25.3805
24.5438
23.5608
22.4468
21.2182
19.892
18.4854
17.0154
15.4982
13.9496
12.3849
10.8198
9.27029
7.75346
6.28756
4.89214
3.58784
2.39592
1.33753
0.432633
-0.301316
-0.850873
-1.20819
-1.37254
-1.3516
-1.16239
-0.831701
-0.395895
0.0999181
0.603485
1.05772
1.40369
1.58427
1.54802
1.25341
0.672577
-0.205344
-1.37205
-2.79922
-4.43934
-6.22824
-8.0893
-9.93899
-11.6933
-13.2744
-14.6174
-15.6753
-16.4241
-16.864
-17.0204
-16.942
-16.6962
-16.3642
-16.0335
-15.7912
-15.7166
-15.875
-16.3131
-17.0558
-18.1043
-19.4369
-21.0092
-22.757
-24.5983
-26.4374
-28.1678
-29.6769
-30.8512
-31.5814
-31.7688
-31.3319
-30.2127
-28.3817
-25.8426
-22.6337
-18.8279
-14.5297
-9.86937
-4.99585
-0.0670593
4.76013
9.34013
13.5477
17.2848
20.4837
23.1042
25.1239
26.518
27.2304
27.1378
26.0147
23.5132
19.1713
12.4633
2.89683
-9.85121
-25.7832
-44.446
-64.8515
-85.4823
-104.4
-119.45
-128.541
-129.947
-122.596
-106.276
-81.7386
-50.6678
-15.519
20.7499
55.0178
84.3619
106.391
119.509
123.073
117.427
103.825
84.2397
61.0997
36.9931
14.369
-4.71887
-18.7988
-27.08
-29.4591
-26.4406
-18.993
-8.3646
4.10945
17.1833
29.8352
41.348
51.3302
59.6816
66.5175
72.0699
76.584
80.2315
83.052
84.932
85.6198
84.7723
82.0215
77.0488
69.6549
59.8146
47.708
33.7269
18.4543
2.62127
-12.952
-27.4265
-40.0155
-50.052
-57.0444
-60.7164
-61.0271
-58.1712
-52.5575
-44.7701
-35.5165
-25.5674
-15.6956
-6.61913
1.04694
6.82616
10.4028
11.6298
10.524
7.24949
2.09212
-4.57237
-12.3138
-20.6838
-29.2497
-37.6248
-45.4922
-52.6211
-58.875
-64.2109
-68.6712
-72.3677
-75.4603
-78.1326
-80.5667
-82.9194
-85.3029
-87.7703
-90.3087
-92.8387
-95.2208
-97.268
-98.7635
-99.4817
-99.2115
-97.7793
-95.0689
-91.0368
-85.7206
-79.2394
-71.7861
-63.613
-55.0116
-46.2908
-37.7531
-29.6746
-22.2877
-15.769
-10.2336
-5.73334
-2.26148
0.240215
1.87088
2.75883
3.04941
2.89335
2.4365
1.81139
1.13094
0.484455
-0.0641212
-0.475891
-0.734932
-0.844848
-0.824382
-0.702562
-0.513818
-0.293472
-0.0739173
0.118282
0.264249
0.353594
0.384229
0.361368
0.295923
0.202529
0.097424
-0.00362076
-0.0871316
-0.143367
-0.167225
-0.158528
-0.121672
-0.0646723
0.00232403
0.0689301
0.126706
0.171441
0.205254
0.238093
0.288158
0.380779
0.545426
0.810838
1.19867
1.71651
2.35144
3.06576
3.79611
4.45722
4.95053
5.17749
5.05606
4.53845
3.62744
2.38833
0.953375
-0.48339
-1.68257
-2.38655
-2.35507
-1.40465
0.554114
3.48829
7.22935
11.4794
15.8377
19.8464
23.0485
25.0513
25.5843
24.5437
22.0142
18.2654
13.7215
8.90961
4.39283
0.699426
-1.74282
-2.65735
-1.94844
0.293515
3.81044
8.21466
13.0403
17.8002
22.0404
25.3853
27.57
28.4556
28.0295
26.3932
23.7393
20.3252
16.4443
12.4003
8.48487
4.96105
2.05112
-0.0709551
-1.28359
-1.51886
-0.761325
0.955499
3.55501
6.92553
10.9299
15.4152
20.2218
25.1896
30.1603
34.9763
39.4758
43.4874
46.825
49.2878
50.6634
50.7361
49.2959
46.1455
41.1026
33.9974
24.6709
12.9812
-1.17218
-17.7996
-36.75
-57.6281
-79.7205
-101.957
-122.928
-140.981
-154.374
-161.497
-161.102
-152.518
-135.812
-111.848
-82.2522
-49.2687
-15.5259
16.2498
43.538
64.3025
77.2081
81.7487
78.2729
67.9071
52.3907
33.8481
14.5283
-3.45288
-18.3381
-28.8948
-34.5077
-35.1912
-31.5269
-24.5402
-15.5348
-5.91049
3.01369
10.1497
14.7483
16.4556
15.3155
11.7249
6.34824
0.00888308
-6.42925
-12.1738
-16.5965
-19.297
-20.1321
-19.2095
-16.8505
-13.5282
-9.79064
-6.18
-3.15853
-1.04978
-0.00206084
0.0224843
-0.76679
-2.02625
-3.33185
-4.24189
-4.36032
-3.39209
-1.18391
2.25455
6.75102
11.9918
17.5601
22.9863
27.8027
31.5961
34.0523
34.9858
34.354
32.2545
28.9061
24.6182
19.7524
14.6809
9.74673
5.23107
1.32883
-1.86385
-4.35073
-6.22583
-7.65496
-8.8513
-10.0479
-11.4707
-13.3139
-15.721
-18.7723
-22.4794
-26.7877
-31.5845
-36.7128
-41.9883
-47.2175
-52.2145
-56.816
-60.8912
-64.3478
-67.1329
-69.2299
-70.652
-71.4344
-71.6262
-71.2833
-70.4636
-69.2243
-67.6219
-65.7135
-63.5597
-61.2266
-58.787
-56.3193
-53.9044
-51.6196
-49.5314
-47.6864
-46.1031
-44.764
-43.612
-42.5498
-41.4444
-40.1375
-38.4597
-36.2487
-33.3688
-29.73
-25.3031
-20.1303
-14.3276
-8.08004
-1.62884
4.74772
10.7582
16.1236
20.6024
24.0116
26.2429
27.2706
27.153
26.0247
24.0838
21.5727
18.7579
15.9071
13.2699
11.06
9.44341
8.53051
8.37413
8.97217
10.2743
12.1913
14.6066
17.3871
20.3932
23.4872
26.5381
29.4231
32.0273
34.2407
35.9537
37.0537
37.423
36.9387
35.4775
32.924
29.1826
24.1928
17.9456
10.4981
1.98511
-7.37535
-17.2841
-27.3711
-37.2145
-46.3649
-54.3759
-60.8353
-65.3951
-67.7984
-67.8997
-65.6773
-61.2375
-54.8087
-46.7266
-37.4116
-27.3393
-17.007
-6.8987
2.54865
10.974
18.1145
23.8184
28.0484
30.8751
32.461
33.0379
32.8803
32.277
31.5044
30.8043
30.3678
30.3264
30.7503
31.6537
33.0042
34.7363
36.7648
38.9982
41.3484
43.7375
46.1006
48.3846
50.5442
52.537
54.3172
55.8315
57.0154
57.7939
58.0828
57.7949
56.8462
55.1651
52.7019
49.4374
45.3908
40.6248
35.2476
29.4111
23.3041
17.1432
11.1585
5.57877
0.615073
-3.55464
-6.79866
-9.04122
-10.2678
-10.5257
-9.91927
-8.60153
-6.76103
-4.6069
-2.35228
-0.19802
1.68211
3.15318
4.12663
4.56197
4.46115
3.85406
2.77422
1.22573
-0.854927
-3.63453
-7.40535
-12.5812
-19.6565
-29.1227
-41.3487
-56.4412
-74.1139
-93.5976
-113.623
-132.494
-148.252
-158.915
-162.758
-158.584
-145.94
-125.246
-97.8005
-65.6695
-31.4645
1.95424
31.8085
55.7216
71.9823
79.7202
78.9739
70.6448
56.3508
38.201
18.5255
-0.403802
-16.6272
-28.6948
-35.7887
-37.7605
-35.0853
-28.7455
-20.0642
-10.5125
-1.51729
5.70755
10.2881
11.7633
10.1008
5.65779
-0.900665
-8.71449
-16.8533
-24.4377
-30.7411
-35.2632
-37.7656
-38.2725
-37.0355
-34.4749
-31.1032
-27.4456
-23.9664
-21.0107
-18.7688
-17.2642
-16.3668
-15.8268
-15.3228
-14.5177
-13.1135
-10.8988
-7.78175
-3.80614
0.851939
5.90458
10.987
15.7016
19.6653
22.5539
24.1385
24.3095
23.0857
20.609
17.125
12.9527
8.44882
3.96856
-0.169715
-3.71414
-6.49922
-8.45481
-9.60377
-10.0495
-9.95537
-9.51968
-8.94843
-8.43026
-8.11582
-8.10375
-8.43439
-9.09118
-10.0089
-11.0869
-12.2055
-13.2425
-14.0893
-14.6621
-14.9103
-14.8193
-14.4083
-13.7248
-12.8358
-11.8178
-10.7469
-9.68969
-8.69737
-7.80175
-7.01472
-6.33027
-5.72862
-5.18179
-4.65949
-4.13476
-3.58845
-3.01208
-2.40889
-1.79301
-1.18703
-0.618504
-0.115806
0.295916
0.598231
0.781877
0.847929
0.807599
0.680769
0.493559
0.275304
0.0554162
-0.139398
-0.287198
-0.371871
-0.383137
-0.315602
-0.167153
0.0629143
0.375558
0.773053
1.25914
1.83809
2.51284
3.28234
4.13864
5.06417
6.02987
6.99462
7.90626
8.70443
9.32502
9.70579
9.79248
9.54473
8.94095
7.98156
6.6903
5.11354
3.31794
1.38679
-0.584412
-2.493
-4.23447
-5.70822
-6.82362
-7.50628
-7.70408
-7.39263
-6.57933
-5.30525
-3.64446
-1.7002
0.402179
2.52491
4.52972
6.29069
7.70662
8.71179
9.28337
9.44489
9.26472
8.84991
8.33549
7.87055
7.60228
7.65985
8.1399
9.09531
10.5288
12.3921
14.5914
16.9972
19.4589
21.8192
23.9263
25.6391
26.8222
27.3282
26.9703
25.4916
22.5415
17.6769
10.3993
0.236216
-13.1379
-29.7595
-49.2434
-70.6958
-92.7039
-113.423
-130.762
-142.637
-147.27
-143.472
-130.858
-109.969
-82.2606
-49.9728
-15.8805
17.0262
45.8919
68.3274
82.6763
88.1834
85.0469
74.3512
57.8952
37.9437
16.9381
-2.79662
-19.3085
-31.2127
-37.8019
-39.0659
-35.6261
-28.6
-19.417
-9.61449
-0.640114
6.31654
10.4437
11.3695
9.16301
4.2821
-2.52267
-10.3301
-18.1795
-25.1936
-30.6796
-34.1959
-35.5831
-34.9544
-32.6543
-29.19
-25.1481
-21.1075
-17.5598
-14.8469
-13.1235
-12.347
-12.2962
-12.6138
-12.8658
-12.61
-11.4622
-9.15306
-5.56649
-0.756708
5.05849
11.5257
18.2006
24.6027
30.2729
34.8256
37.9903
39.6363
39.7808
38.5785
36.2954
33.2726
29.8829
26.4883
23.401
20.8546
18.9866
17.8337
17.3394
17.3724
17.7514
18.2736
18.7431
18.9943
18.9106
18.4333
17.563
16.3535
14.8984
13.3156
11.7284
10.2499
8.96816
7.93814
7.17731
6.6673
6.35977
6.18576
6.06672
5.92587
5.69831
5.33878
4.82623
4.16498
3.38252
2.5246
1.64831
0.814342
0.0791993
-0.511397
-0.927415
-1.15715
-1.20747
-1.10188
-0.876709
-0.576125
-0.24667
0.0680653
0.331925
0.519409
0.617348
0.624983
0.552596
0.418978
0.248179
0.0659783
-0.103457
-0.240349
-0.331244
-0.369955
-0.35751
-0.301218
-0.213058
-0.10767
-0.000230887
0.0954967
0.168733
0.212705
0.225055
0.207658
0.165926
0.107747
0.0422236
-0.0215968
-0.0758567
-0.114746
-0.135012
-0.136097
-0.119915
-0.0903479
-0.0525497
-0.0121581
0.0254643
0.0558755
0.0760149
0.0844407
0.0813389
0.0683267
0.0480959
0.0239608
-0.000626066
-0.0225222
-0.0392581
-0.0492758
-0.0520287
-0.0479426
-0.0382623
-0.0248225
-0.00980525
0.00443511
0.0153828
0.0201246
0.0148293
-0.00600458
-0.0503776
-0.129451
-0.257769
-0.452827
-0.733906
-1.12026
-1.6289
-2.27238
-3.05686
-3.98087
-5.03475
-6.201
-7.45513
-8.7669
-10.1016
-11.4212
-12.6852
-13.8514
-14.8763
-15.716
-16.3277
-16.6712
-16.7115
-16.4213
-15.7841
-14.7962
-13.4687
-11.8272
-9.91166
-7.77382
-5.47424
-3.07853
-0.653588
1.73582
4.02949
6.17277
8.11539
9.80708
11.1886
12.177
12.6448
12.3954
11.1413
8.49422
3.98044
-2.90966
-12.6329
-25.4729
-41.407
-59.9902
-80.2883
-100.889
-120.002
-135.652
-145.927
-149.255
-144.659
-131.947
-111.792
-85.7005
-55.8657
-24.9162
4.38933
29.488
48.3093
59.5039
62.5759
57.9051
46.6603
30.6211
11.9354
-7.15194
-24.5641
-38.6182
-48.1856
-52.7741
-52.5254
-48.1372
-40.7254
-31.6485
-22.3186
-14.0254
-7.79142
-4.27447
-3.72482
-5.99624
-10.6047
-16.8222
-23.7916
-30.6444
-36.6082
-41.0922
-43.7404
-44.4529
-43.3725
-40.8448
-37.3561
-33.4595
-29.6981
-26.5342
-24.2934
-23.1286
-23.0084
-23.7305
-24.9565
-26.2647
-27.2115
-27.3941
-26.5061
-24.3777
-20.9975
-16.5125
-11.2074
-5.46782
0.268701
5.56496
10.0345
13.3831
15.4364
16.1528
15.6185
14.029
11.6594
8.82777
5.85658
3.03781
0.604552
-1.28757
-2.56808
-3.24852
-3.41018
-3.18495
-2.73237
-2.21609
-1.78254
-1.54421
-1.56895
-1.87606
-2.4388
-3.19241
-4.04605
-4.89691
-5.6443
-6.20229
-6.50926
-6.5336
-6.27519
-5.76298
-5.0493
-4.20197
-3.29547
-2.40222
-1.58514
-0.892043
-0.352539
0.0227487
0.240649
0.322181
0.298131
0.204137
0.0759364
-0.0547033
-0.162975
-0.232749
-0.256989
-0.236997
-0.18076
-0.10071
-0.0112718
0.0734718
0.141727
0.185348
0.200519
0.187767
0.15139
0.0984449
0.0374995
-0.0226802
-0.074313
-0.111524
-0.130912
-0.131736
-0.11573
-0.0866198
-0.0494351
-0.00972567
0.0272048
0.0569517
0.0764786
0.0843614
0.0808011
0.0674286
0.0469479
0.0226812
-0.0019171
-0.0237112
-0.0402471
-0.0499912
-0.0524275
-0.0480152
-0.0380287
-0.0243108
-0.0089803
0.00586402
0.0184057
0.0273099
0.0318402
0.0318888
0.0279233
0.0208686
0.0119479
0.00251542
-0.00608349
-0.0125902
-0.0158257
-0.0145918
-0.00750144
0.00721925
0.0318914
0.0694366
0.123266
0.19698
0.293898
0.41649
0.565823
0.741134
0.939652
1.15673
1.38628
1.62149
1.85559
2.08267
2.29817
2.49914
2.68401
2.85198
3.00215
3.13254
3.23923
3.31586
3.35363
3.3419
3.26935
3.12568
2.90338
2.59957
2.21738
1.76673
1.26432
0.732809
0.199144
-0.30755
-0.758402
-1.12717
-1.39224
-1.5381
-1.55598
-1.44371
-1.20481
-0.846881
-0.379699
0.186849
0.84449
1.58767
2.41379
3.32233
4.31311
5.38361
6.52589
7.72343
8.94798
10.1565
11.2873
12.2538
12.9344
13.1582
12.6864
11.1961
8.27482
3.43652
-3.82922
-13.9714
-27.2603
-43.657
-62.6969
-83.4219
-104.387
-123.76
-139.508
-149.654
-152.557
-147.178
-133.279
-111.523
-83.4473
-51.3204
-17.8941
13.9132
41.3565
62.1804
74.8698
78.8026
74.2887
62.4934
45.2608
24.8653
3.72498
-15.8831
-32.0716
-43.5267
-49.6096
-50.3683
-46.4675
-39.0499
-29.5538
-19.5111
-10.3545
-3.25474
0.994723
2.03507
-0.0584295
-4.83003
-11.5381
-19.2749
-27.095
-34.1352
-39.7118
-43.3862
-44.993
-44.6302
-42.6162
-39.4217
-35.5877
-31.6409
-28.0175
-25.0072
-22.721
-21.0883
-19.8806
-18.7582
-17.3305
-15.2229
-12.1375
-7.90272
-2.50099
3.92457
11.0874
18.5936
25.9925
32.8323
38.7144
43.3393
46.5367
48.2783
48.6724
47.9413
46.3859
44.3443
42.1476
40.0809
38.3533
37.08
36.2771
35.8706
35.7146
35.6179
35.3736
34.7882
33.7071
32.0328
29.7351
26.8523
23.4842
19.7785
15.9118
12.0694
8.42402
5.11786
2.24853
-0.139389
-2.05657
-3.56503
-4.76878
-5.80025
-6.80413
-7.92047
-9.26892
-10.9357
-12.9649
-15.3544
-18.0576
-20.9893
-24.0363
-27.07
-29.9602
-32.5881
-34.8574
-36.7014
-38.0871
-39.0142
-39.5108
-39.6268
-39.4252
-38.9727
-38.3319
-37.5542
-36.6753
-35.7131
-34.6677
-33.5231
-32.2508
-30.8143
-29.1733
-27.2892
-25.1287
-22.6676
-19.893
-16.8047
-13.4152
-9.74836
-5.83772
-1.72391
2.54792
6.93045
11.3758
15.8363
20.2645
24.6124
28.8308
32.8693
36.6766
40.2028
43.4024
46.2375
48.682
50.7242
52.3682
53.6339
54.554
55.1705
55.5293
55.6749
55.6452
55.4683
55.1605
54.7259
54.1579
53.442
52.5594
51.4898
50.2156
48.7229
47.0029
45.0494
42.8537
40.3948
37.6254
34.4547
30.7294
26.2196
20.6148
13.5371
4.57654
-6.64753
-20.4049
-36.7613
-55.4899
-76.0091
-97.3643
-118.268
-137.203
-152.577
-162.912
-167.036
-164.246
-154.422
-138.062
-116.238
-90.4753
-62.5756
-34.4039
-7.67342
16.2425
36.4472
52.5892
64.8542
73.8886
80.665
86.3132
91.9408
98.4684
106.5
116.244
127.498
139.685
151.945
163.26
172.601
179.062
181.989
181.054
176.301
168.128
157.234
144.522
130.988
117.596
105.167
94.2865
85.2514
78.0509
72.3878
67.7355
63.4204
58.7203
52.9646
45.6249
36.3845
25.1792
12.2041
-2.11263
-17.1661
-32.2526
-46.6592
-59.7533
-71.0592
-80.3126
-87.4844
-92.7721
-96.5585
-99.3462
-101.677
-104.046
-106.831
-110.237
-114.27
-118.744
-123.316
-127.539
-130.936
-133.074
-133.626
-132.42
-129.462
-124.938
-119.183
-112.637
-105.787
-99.1032
-92.9806
-87.6935
-83.3648
-79.956
-77.278
-75.02
-72.7923
-70.1793
-66.7932
-62.3244
-56.5803
-49.5101
-41.2105
-31.9137
-21.9586
-11.7493
-1.70646
7.78307
16.4105
23.9786
30.4189
35.7922
40.2704
44.1049
47.5848
50.9919
54.5585
58.4352
62.6709
67.2094
71.9004
76.5243
80.8253
84.5488
87.4762
89.4541
90.4124
90.3709
89.433
87.7683
85.5875
83.1132
80.5502
78.0603
75.7446
73.6343
71.6921
69.8224
67.8889
65.7361
63.2121
60.1898
56.583
52.3563
47.5279
42.1657
36.3781
30.3017
24.0873
17.8872
11.8438
6.08183
0.702925
-4.21775
-8.63238
-12.5203
-15.8867
-18.7599
-21.1881
-23.2346
-24.972
-26.4759
-27.8179
-29.0596
-30.2474
-31.4098
-32.5561
-33.6787
-34.7574
-35.7647
-36.6727
-37.4599
-38.1168
-38.6507
-39.0892
-39.4849
-39.9213
-40.5235
-41.4722
-43.0179
-45.4897
-49.2871
-54.8456
-62.5706
-72.7415
-85.4002
-100.247
-116.571
-133.245
-148.794
-161.54
-169.813
-172.181
-167.68
-155.982
-137.491
-113.34
-85.2778
-55.4826
-26.3098
-0.0206506
21.4741
36.8202
45.3503
47.1256
42.8871
33.9276
21.9057
8.62998
-4.1601
-14.9861
-22.7761
-26.9477
-27.4258
-24.5961
-19.2089
-12.2469
-4.77929
2.18041
7.79428
11.4856
12.9824
12.319
9.79742
5.92017
1.30403
-3.41153
-7.64921
-10.962
-13.0776
-13.9151
-13.576
-12.3108
-10.4694
-8.44111
-6.59443
-5.22271
-4.50351
-4.47563
-5.03642
-5.95874
-6.92478
-7.57179
-7.54342
-6.53987
-4.36017
-0.931596
3.67771
9.26385
15.5092
22.0181
28.3615
34.1246
38.9521
42.5845
44.8825
45.8367
45.5612
44.2743
42.2674
39.8683
37.4015
35.1526
33.3393
32.092
31.4468
31.3498
31.6707
32.2256
32.8032
33.1923
33.2065
32.7047
31.6032
29.8806
27.5745
24.7716
21.5926
18.1751
14.6557
11.1556
7.76875
4.55615
1.54499
-1.2673
-3.90525
-6.40535
-8.80563
-11.1364
-13.4132
-15.6335
-17.7762
-17.7762
-17.7762
-17.7762
-17.7762
-17.7762
-17.7762
-17.7762
-17.7762
-17.7762
-17.7762
-17.7762
-17.7762
-17.7762
-17.7762
-17.7762
-17.7762
-17.7762
-17.7762
-17.7762
