101.165
103.252
105.569
108.019
110.469
112.751
114.674
116.026
116.589
116.15
114.514
111.527
107.082
101.143
93.7544
85.0455
75.2323
64.6072
53.5222
42.3653
31.532
21.3973
12.2892
4.46819
-1.88478
-6.67286
-9.87879
-11.554
-11.8036
-10.7694
-8.61494
-5.51317
-1.63975
2.82872
7.7115
12.8168
17.9329
22.82
27.2033
30.7712
33.179
34.0586
33.0366
29.7581
23.9173
15.2919
3.77933
-10.5708
-27.5306
-46.6822
-67.4226
-88.9903
-110.511
-131.062
-149.748
-165.779
-178.54
-187.653
-193.009
-194.772
-193.361
-189.397
-183.634
-176.878
-169.904
-163.382
-157.823
-153.543
-150.664
-149.13
-148.743
-149.215
-150.22
-151.441
-152.606
-153.511
-154.025
-154.079
-153.639
-152.678
-151.126
-148.833
-145.526
-140.773
-133.957
-124.274
-110.75
-92.294
-67.7846
-36.1991
3.22742
50.8234
106.301
168.606
235.819
305.143
372.993
435.202
487.322
525.02
544.512
542.994
519.014
472.727
405.999
322.336
226.626
124.73
22.9544
-72.5306
-156.263
-223.982
-272.988
-302.334
-312.822
-306.823
-287.938
-260.554
-229.342
-198.765
-172.642
-153.82
-143.977
-143.566
-151.903
-167.359
-187.643
-210.125
-232.162
-251.389
-265.954
-274.667
-277.063
-273.375
-264.435
-251.517
-236.139
-219.869
-204.127
-190.037
-178.318
-169.231
-162.593
-157.83
-154.088
-150.36
-145.63
-139.013
-129.872
-117.902
-103.168
-86.1037
-67.4567
-48.205
-29.443
-12.2576
2.3919
13.7755
21.4647
25.3681
25.7268
23.0735
18.1604
11.8678
5.104
-1.29112
-6.62699
-10.4204
-12.4251
-12.6314
-11.2388
-8.60538
-5.18338
-1.44757
2.17367
5.35768
7.93119
9.89478
11.4268
12.8674
14.6852
17.4306
21.6794
27.9725
36.7563
48.3293
62.7987
80.0533
99.754
121.346
144.092
167.125
189.51
210.326
228.737
244.06
255.822
263.788
267.978
268.644
266.24
261.363
254.694
246.924
238.695
230.546
222.876
215.924
209.766
204.332
199.43
194.788
190.089
185.016
179.286
172.683
165.071
156.408
146.739
136.184
124.923
113.169
101.146
89.0737
77.1524
65.5566
54.4359
43.9191
34.1206
25.1465
17.0973
10.0668
4.13724
-0.629726
-4.20351
-6.59449
-7.86147
-8.11466
-7.51358
-6.25986
-4.58618
-2.74281
-0.983612
0.447362
1.32802
1.46896
0.723065
-1.00596
-3.75631
-7.50279
-12.1544
-17.5562
-23.496
-29.7163
-35.9311
-41.8462
-47.1809
-51.6888
-55.1756
-57.5111
-58.6354
-58.5579
-57.3497
-55.1311
-52.056
-48.2942
-44.0148
-39.3723
-34.4957
-29.4836
-24.4031
-19.2954
-14.1846
-9.09026
-4.04102
0.9134
5.69303
10.184
14.2413
17.6989
20.3857
22.1471
22.8688
22.5001
21.0734
18.7166
15.6554
12.2043
8.74629
5.70188
3.49097
2.49119
2.99727
5.18621
9.09238
14.5958
21.4248
29.1743
37.3361
45.34
52.6006
58.5653
62.7587
64.819
64.5222
61.7934
56.703
49.451
40.3404
29.7451
18.0749
5.74314
-6.8615
-19.3958
-31.5753
-43.1795
-54.0512
-64.091
-73.2488
-81.5155
-88.914
-95.4932
-101.323
-106.489
-111.093
-115.25
-119.081
-122.711
-126.262
-129.844
-133.547
-137.433
-141.531
-145.833
-150.295
-154.838
-159.357
-163.724
-167.798
-171.43
-174.469
-176.771
-178.197
-178.622
-177.944
-176.084
-173
-168.688
-163.19
-156.595
-149.031
-140.659
-131.655
-122.197
-112.445
-102.531
-92.5507
-82.5658
-72.6135
-62.7219
-52.9284
-43.296
-33.9242
-24.9495
-16.5351
-8.84805
-2.02818
3.84682
8.79269
12.9392
16.5332
19.9212
23.5091
27.7054
32.8519
39.1549
46.6262
55.0455
63.9524
72.6725
80.3772
86.1703
89.1931
88.732
84.3156
75.7869
63.3409
47.5209
29.1749
9.37779
-10.6716
-29.7633
-46.7869
-60.8263
-71.2294
-77.6463
-80.0349
-78.6359
-73.9216
-66.5279
-57.1755
-46.5907
-35.4324
-24.2319
-13.3507
-2.95959
6.96044
16.5947
26.253
36.3143
47.1645
59.1367
72.4631
87.2474
103.464
120.988
139.654
159.333
180.024
201.924
225.476
251.366
280.451
313.634
351.673
394.958
443.291
495.693
550.297
604.342
654.303
696.145
725.698
739.097
733.258
706.294
657.851
589.272
503.597
405.349
300.162
194.265
93.8929
4.69646
-68.7852
-123.523
-158.225
-173.367
-171.036
-154.604
-128.279
-96.6053
-63.9467
-34.0435
-9.6698
7.56506
17.2615
20.126
17.7433
12.2628
6.04412
1.3099
-0.152536
2.79325
10.5189
22.6249
38.0324
55.1549
72.1197
87.01
98.0951
104.024
103.961
97.6559
85.4414
68.1714
47.1059
23.7637
-0.240546
-23.354
-44.2247
-61.8077
-75.4306
-84.8171
-90.0688
-91.6119
-90.1184
-86.4102
-81.3605
-75.8007
-70.4425
-65.822
-62.2697
-59.905
-58.6548
-58.2893
-58.4683
-58.79
-58.8356
-58.2029
-56.5268
-53.4867
-48.8038
-42.2349
-33.567
-22.6199
-9.25964
6.5772
24.851
45.3843
67.8319
91.6651
116.174
140.496
163.665
184.678
202.585
216.566
226.012
230.582
230.232
225.222
216.078
203.539
188.475
171.801
154.385
136.975
120.144
104.264
89.5056
75.8719
63.2447
51.4494
40.3192
29.7514
19.7483
10.435
2.05318
-5.06781
-10.5583
-14.067
-15.3228
-14.19
-10.7106
-5.12634
2.12265
10.4238
19.0399
27.1745
34.0467
38.968
41.4116
41.0653
37.8636
31.9929
23.8708
14.1018
3.41327
-7.41846
-17.6454
-26.619
-33.8471
-39.032
-42.0855
-43.1212
-42.426
-40.4153
-37.5785
-34.4215
-31.4126
-28.9379
-27.2703
-26.5539
-26.8044
-27.9227
-29.7198
-31.9469
-34.329
-36.5946
-38.5024
-39.8588
-40.5284
-40.437
-39.5671
-37.949
-35.6493
-32.7573
-29.3733
-25.5981
-21.5261
-17.2421
-12.8219
-8.33645
-3.85813
0.531684
4.73627
8.63973
12.1072
14.9896
17.1334
18.3939
18.65
17.8204
15.8759
12.8488
8.83658
3.9992
-1.44899
-7.25278
-13.1331
-18.8061
-24.0019
-28.4825
-32.0553
-34.5837
-35.9922
-36.2673
-35.4537
-33.6483
-30.9905
-27.6525
-23.8277
-19.7199
-15.5323
-11.4571
-7.66656
-4.30431
-1.47911
0.739864
2.3253
3.29154
3.6921
3.61537
3.17924
2.52547
1.81433
1.21986
0.92565
1.12033
1.9922
3.72198
6.47312
10.3795
15.5315
21.9607
29.6275
38.4109
48.106
58.4284
69.0278
79.5094
89.4618
98.4877
106.234
112.42
116.854
119.443
120.196
119.211
116.658
112.758
107.759
101.914
95.462
88.6184
81.5679
74.466
67.4443
60.6194
54.1017
48.0033
42.4406
37.5336
33.3973
30.1282
27.7864
26.3741
25.8166
25.9468
26.4982
27.1093
27.3423
26.7136
24.7376
20.9762
15.091
6.8892
-3.64198
-16.3184
-30.7629
-46.4314
-62.6575
-78.7119
-93.8696
-107.476
-119.006
-128.105
-134.614
-138.57
-140.185
-139.809
-137.877
-134.85
-131.153
-127.126
-122.977
-118.76
-114.367
-109.541
-103.906
-97.0148
-88.4005
-77.6419
-64.4217
-48.5799
-30.1548
-9.40686
13.1772
36.9024
60.9037
84.2018
105.772
124.621
139.858
150.767
156.857
157.899
153.943
145.31
132.564
116.468
97.9222
77.9015
57.3801
37.2671
18.3475
1.23698
-13.645
-26.0836
-36.0543
-43.688
-49.2149
-52.8918
-54.9164
-55.3369
-53.9679
-50.3246
-43.5919
-32.6442
-16.1289
7.3785
39.1522
80.0425
130.184
188.732
253.676
321.789
388.739
449.396
498.297
530.24
540.926
527.557
489.307
427.576
345.992
250.137
147.022
44.3853
-50.1113
-129.681
-189.101
-225.216
-237.191
-226.498
-196.638
-152.655
-100.503
-46.3472
4.09944
46.1501
76.5478
93.6747
97.553
89.6568
72.5719
49.5579
24.0736
-0.67378
-22.1029
-38.518
-49.2319
-54.5497
-55.6272
-54.2306
-52.4369
-52.3131
-55.6163
-63.5482
-76.5899
-94.4319
-116.003
-139.591
-163.033
-183.958
-200.05
-209.289
-210.171
-201.85
-184.222
-157.912
-124.202
-84.8824
-42.0659
2.02739
45.2797
85.8642
122.392
154.004
180.401
201.815
218.924
232.731
244.407
255.141
265.983
277.728
290.822
305.32
320.885
336.836
352.226
365.949
376.871
383.951
386.363
383.589
375.484
362.296
344.651
323.495
300.002
275.454
251.118
228.119
207.332
189.305
174.219
161.889
151.815
143.259
135.361
127.254
118.184
107.611
95.2763
81.236
65.8476
49.7233
33.649
18.4846
5.05768
-5.93571
-14.0105
-18.9439
-20.7934
-19.8808
-16.7459
-12.078
-6.63437
-1.15555
3.71036
7.46795
9.81207
10.6407
10.0436
8.26958
5.67935
2.68972
-0.282707
-2.87178
-4.80055
-5.90507
-6.14179
-5.57957
-4.37872
-2.76102
-0.975564
0.735238
2.16502
3.16523
3.65734
3.63505
3.1572
2.33337
1.30467
0.222627
-0.770869
-1.56038
-2.0686
-2.2622
-2.15219
-1.79018
-1.26273
-0.686566
-0.206899
0.000178368
-0.278207
-1.29851
-3.36462
-6.82445
-12.056
-19.4415
-29.3308
-41.998
-57.5976
-76.126
-97.395
-121.022
-146.44
-172.922
-199.624
-225.631
-250.012
-271.867
-290.366
-304.781
-314.508
-319.088
-318.216
-311.764
-299.797
-282.589
-260.644
-234.698
-205.711
-174.831
-143.344
-112.593
-83.8847
-58.3808
-36.9981
-20.3203
-8.5391
-1.43288
1.61011
1.5254
-0.532057
-3.31867
-5.64405
-6.50652
-5.20534
-1.41536
4.78519
12.9371
22.2697
31.8078
40.5025
47.3693
51.6149
52.7391
50.598
45.422
37.7881
28.5502
18.7368
9.43006
1.64018
-3.80945
-6.37328
-5.84096
-2.3554
3.60917
11.3053
19.7987
28.0716
35.1321
40.1155
42.3681
41.5044
37.433
30.3506
20.7051
9.13545
-3.60509
-16.7317
-29.5072
-41.3092
-51.6759
-60.3283
-67.166
-72.2385
-75.6997
-77.7526
-78.5947
-78.3736
-77.1605
-74.9435
-71.642
-67.1362
-61.3057
-54.068
-45.411
-35.4124
-24.2451
-12.1682
0.494514
13.3819
26.1266
38.3838
49.8536
60.2968
69.5404
77.4756
84.0484
89.2453
93.0781
95.569
96.7405
96.6106
95.1947
92.5132
88.6042
83.5372
77.427
70.4419
62.8065
54.7955
46.7174
38.8916
31.6182
25.147
19.6487
15.1928
11.7369
9.12863
7.12124
5.40125
3.6247
1.45789
-1.38291
-5.09744
-9.7778
-15.3981
-21.8189
-28.8062
-36.0612
-43.2587
-50.084
-56.264
-61.5817
-65.8688
-68.9715
-70.6901
-70.7
-68.4664
-63.1739
-53.6932
-38.6092
-16.3278
14.7326
55.8724
107.795
170.287
241.949
320.044
400.505
478.141
547.033
601.102
634.77
643.643
625.103
578.743
506.55
412.818
303.783
187.022
70.6942
-37.2897
-130.061
-202.451
-251.445
-276.368
-278.814
-262.311
-231.803
-193.003
-151.712
-113.189
-81.6361
-59.8621
-49.142
-49.2728
-58.7995
-75.3671
-96.1403
-118.232
-139.084
-156.759
-170.109
-178.821
-183.332
-184.65
-184.111
-183.112
-182.853
-184.141
-187.257
-191.919
-197.329
-202.301
-205.438
-205.342
-200.821
-191.067
-175.779
-155.224
-130.218
-102.041
-72.2936
-42.7165
-14.9947
9.42864
29.5069
44.6962
55.0029
60.9674
63.5902
64.2081
64.3364
65.495
69.0384
76.0057
87.0082
102.164
121.086
142.922
166.441
190.158
212.48
231.864
246.96
256.74
260.586
258.343
250.321
237.255
220.226
200.55
179.651
158.931
139.648
122.813
109.122
98.9201
92.1988
88.6328
87.6386
88.4546
90.2295
92.1109
93.3252
93.242
91.4183
87.6213
81.8297
74.2163
65.1155
54.9796
44.3306
33.7099
23.6314
14.5419
6.78941
0.603493
-3.91354
-6.78378
-8.14073
-8.20801
-7.27213
-5.65231
-3.67012
-1.62189
0.243917
1.74258
2.76127
3.25948
3.26224
2.84774
2.13089
1.24524
0.325065
-0.510367
-1.16921
-1.59545
-1.77348
-1.7293
-1.52923
-1.2767
-1.10707
-1.18038
-1.67124
-2.75535
-4.5928
-7.30887
-10.9741
-15.5865
-21.0584
-27.2109
-33.7788
-40.4246
-46.7634
-52.3947
-56.9385
-60.0707
-61.5556
-61.2694
-59.2136
-55.516
-50.4197
-44.2609
-37.4373
-30.3718
-23.474
-17.1029
-11.536
-6.94468
-3.38095
-0.773925
1.06202
2.40874
3.61647
5.06842
7.14036
10.1581
14.3568
19.8457
26.5827
34.3633
42.8242
51.4658
59.6904
66.8553
72.3343
75.5827
76.1982
73.9699
68.9092
61.2582
51.4741
40.1891
28.1517
16.1555
4.96207
-4.77084
-12.5496
-18.0856
-21.3127
-22.3798
-21.6208
-19.5046
-16.5739
-13.3797
-10.4186
-8.08307
-6.62629
-6.14791
-6.59887
-7.80369
-9.4956
-11.3588
-13.0715
-14.3446
-14.9508
-14.7431
-13.66
-11.7213
-9.01457
-5.6778
-1.88001
2.19557
6.36467
10.4501
14.2853
17.7136
20.5867
22.762
24.1021
24.4763
23.7653
21.8692
18.7166
14.2755
8.5641
1.65885
-6.30024
-15.1094
-24.5066
-34.1828
-43.799
-53.0075
-61.4762
-68.913
-75.0886
-79.8544
-83.1539
-85.0258
-85.5983
-85.0739
-83.7083
-81.7828
-79.5755
-77.3331
-75.2477
-73.4409
-71.9567
-70.7646
-69.7727
-68.8472
-67.837
-66.5983
-65.0167
-63.0215
-60.5933
-57.7616
-54.5949
-51.1851
-47.6287
-44.0096
-40.384
-36.7708
-33.149
-29.4601
-25.6168
-21.515
-17.0491
-12.127
-6.68537
-0.702569
5.79086
12.706
19.8941
27.1499
34.2217
40.8265
46.6701
51.4711
54.9859
57.0333
57.5163
56.4402
53.9267
50.2262
45.7302
40.9856
36.7122
33.8208
33.4251
36.8383
45.5407
61.1036
85.0604
118.72
162.931
217.823
282.552
355.107
432.227
509.462
581.421
642.185
685.877
707.302
702.597
669.777
609.112
523.256
417.106
297.395
172.076
49.5512
-62.1429
-156.096
-227.152
-272.325
-290.974
-284.715
-257.117
-213.199
-158.833
-100.1
-42.684
8.63258
50.3256
80.3168
97.986
104.028
100.186
88.9068
72.9617
55.0888
37.6828
22.5698
10.8792
3.01543
-1.27919
-2.7891
-2.64291
-2.11095
-2.4099
-4.53746
-9.154
-16.5205
-26.4939
-38.5747
-51.9948
-65.83
-79.121
-90.9875
-100.72
-107.844
-112.147
-113.676
-112.703
-109.675
-105.14
-99.6864
-93.8752
-88.1886
-82.9931
-78.5196
-74.8603
-71.98
-69.7396
-67.9288
-66.302
-64.6158
-62.6619
-60.2928
-57.4377
-54.1057
-50.3781
-46.3902
-42.3064
-38.2921
-34.4875
-30.9879
-27.8324
-25.0026
-22.4324
-20.0248
-17.6733
-15.2845
-12.797
-10.1943
-7.50983
-4.82288
-2.24744
0.0849124
2.04476
3.5242
4.45296
4.8091
4.62281
3.97322
2.97884
1.78326
0.538244
-0.613423
-1.55313
-2.19784
-2.50646
-2.48084
-2.16152
-1.61929
-0.943864
-0.231232
0.42861
0.96239
1.32181
1.48901
1.47926
1.34127
1.15531
1.02958
1.09456
1.49557
2.38309
3.90127
6.17495
9.29622
13.3119
18.2132
23.9303
30.331
37.2266
44.3829
51.5374
58.4193
64.7706
70.3671
75.0351
78.6632
81.207
82.6877
83.1837
82.8168
81.736
80.0992
78.057
75.7384
73.2413
70.6279
67.9248
65.1272
62.2066
59.1208
55.8242
52.2785
48.4612
44.3723
40.0382
35.5126
30.8739
26.2205
21.6636
17.3191
13.2984
9.70018
6.60281
4.05883
2.09116
0.691782
-0.17722
-0.5802
-0.602457
-0.343093
0.0931529
0.604335
1.09921
1.50385
1.76634
1.85912
1.77882
1.54374
1.18926
0.761993
0.313128
-0.107967
-0.459399
-0.710966
-0.846608
-0.864969
-0.778157
-0.609031
-0.387461
-0.146112
0.0836902
0.275533
0.410541
0.47883
0.479726
0.420847
0.316279
0.184148
0.0439572
-0.0859547
-0.190552
-0.2596
-0.288408
-0.277812
-0.233469
-0.164632
-0.0826081
0.000876651
0.0751838
0.131971
0.165961
0.175179
0.160578
0.124997
0.071442
0.000755092
-0.091048
-0.215308
-0.392451
-0.652188
-1.03161
-1.57093
-2.30722
-3.26685
-4.45818
-5.86573
-7.44738
-9.13553
-10.8424
-12.469
-13.9168
-15.0992
-15.9528
-16.4438
-16.5706
-16.3608
-15.8629
-15.1345
-14.2298
-13.1872
-12.0213
-10.7201
-9.24854
-7.55883
-5.60511
-3.36102
-0.83655
1.90862
4.75829
7.54111
10.0409
12.0149
13.2189
13.4337
12.4921
10.3003
6.85034
2.22365
-3.41746
-9.84718
-16.8006
-24.0011
-31.187
-38.1333
-44.6676
-50.6767
-56.107
-60.9575
-65.2683
-69.1067
-72.5517
-75.6782
-78.5417
-81.1638
-83.5163
-85.5047
-86.9479
-87.5532
-86.8872
-84.3442
-79.1192
-70.195
-56.3571
-36.252
-8.49913
28.1362
74.516
130.87
196.533
269.74
347.509
425.676
499.112
562.107
608.916
634.395
634.647
607.588
553.34
474.39
375.472
263.176
145.331
30.226
-74.2255
-161.275
-225.989
-265.684
-280.088
-271.241
-243.138
-201.174
-151.48
-100.217
-52.9254
-13.9977
13.6702
28.8283
31.8164
24.33
9.0512
-10.7976
-31.9176
-51.3566
-66.8423
-76.9956
-81.407
-80.5806
-75.7651
-68.7023
-61.3345
-55.5098
-52.7238
-53.929
-59.4282
-68.8618
-81.2804
-95.289
-109.238
-121.437
-130.355
-134.799
-134.037
-127.864
-116.6
-101.033
-82.3152
-61.8188
-40.9859
-21.1785
-3.55148
11.0411
22.0969
29.4725
33.3506
34.1748
32.564
29.2181
24.8299
20.0096
15.2332
10.8162
6.9123
3.5357
0.598689
-2.04116
-4.53294
-6.9905
-9.46228
-11.9165
-14.2424
-16.2664
-17.7788
-18.5671
-18.4497
-17.3059
-15.0968
-11.8765
-7.79157
-3.07065
1.99427
7.07176
11.8173
15.8998
19.0252
20.9581
21.5378
20.6901
18.4346
14.8854
10.2474
4.80479
-1.09532
-7.06571
-12.7067
-17.6366
-21.523
-24.1102
-25.2422
-24.8741
-23.074
-20.0115
-15.9357
-11.1444
-5.94966
-0.643792
4.52939
9.39408
13.8507
17.8722
21.4906
24.7751
27.8086
30.664
33.3867
35.9843
38.4272
40.6579
42.6075
44.2178
45.4622
46.3639
47.0052
47.5272
48.1176
48.988
50.343
52.3453
55.0818
58.537
62.5764
66.9463
71.2882
75.1698
78.1286
79.7222
79.5816
77.459
73.2641
67.0851
59.1892
50.0041
40.0808
30.0412
20.5184
12.0945
5.24336
0.285437
-2.64088
-3.58817
-2.78811
-0.620433
2.43326
5.84536
9.10086
11.752
13.4625
14.0367
13.4309
11.7465
9.20666
6.12076
2.8409
-0.283009
-2.94439
-4.91273
-6.05452
-6.34075
-5.84132
-4.70809
-3.14972
-1.40235
0.299576
1.74816
2.7794
3.28099
3.19027
2.48372
1.1607
-0.77468
-3.3298
-6.53414
-10.442
-15.1264
-20.6649
-27.12
-34.5164
-42.8205
-51.9248
-61.6396
-71.6949
-81.752
-91.4231
-100.297
-107.969
-114.07
-118.288
-120.396
-120.257
-117.836
-113.194
-106.48
-97.9197
-87.7964
-76.4306
-64.1601
-51.3195
-38.2231
-25.1509
-12.3397
0.0207629
11.7856
22.8492
33.1362
42.5909
51.1678
58.8248
65.5182
71.2031
75.8352
79.3754
81.794
83.0754
83.2197
82.2433
80.1778
77.0675
72.9676
67.9424
62.0663
55.4249
48.1188
40.2675
32.0126
23.5196
14.9758
6.58571
-1.43936
-8.89406
-15.5951
-21.3979
-26.2123
-30.0146
-32.8537
-34.85
-36.1866
-37.0913
-37.8129
-38.5925
-39.6344
-41.0796
-42.9858
-45.316
-47.9381
-50.6351
-53.1225
-55.0711
-56.1278
-55.9289
-54.1002
-50.2394
-43.8837
-34.4663
-21.2756
-3.43375
20.0869
50.3906
88.5196
135.25
190.845
254.787
325.559
400.504
475.825
546.766
607.961
653.942
679.748
681.55
657.211
606.678
532.161
438.033
330.479
216.908
105.216
2.97992
-83.3089
-148.879
-191.107
-209.697
-206.588
-185.619
-152.006
-111.689
-70.6526
-34.2766
-6.81777
8.9495
11.892
2.47793
-17.4411
-44.9852
-76.6854
-108.947
-138.48
-162.653
-179.725
-188.953
-190.563
-185.608
-175.737
-162.922
-149.166
-136.244
-125.502
-117.728
-113.11
-111.278
-111.411
-112.395
-113.008
-112.098
-108.746
-102.378
-92.8329
-80.37
-65.6218
-49.5052
-33.1018
-17.5249
-3.79014
7.29462
15.2089
19.7605
21.0864
19.6152
15.9992
11.0261
5.52085
0.25236
-4.14663
-7.23648
-8.79994
-8.84247
-7.56578
-5.32019
-2.54348
0.305176
2.80755
4.63773
5.59756
5.63347
4.83487
3.41639
1.68772
0.0157772
-1.21633
-1.64899
-0.981159
1.00213
4.4115
9.2454
15.3929
22.6466
30.7251
39.3027
48.044
56.642
64.8552
72.5398
79.6745
86.3712
92.8709
99.5207
106.734
114.935
124.498
135.683
148.578
163.065
178.793
195.199
211.532
226.922
240.451
251.238
258.525
261.75
260.6
255.045
245.341
232.007
215.779
197.543
178.258
158.873
140.252
123.104
107.932
95.0131
84.384
75.8663
69.1031
63.6159
58.8698
54.3429
49.5886
44.2874
38.2796
31.5764
24.3503
16.9036
9.62363
2.92773
-2.79288
-7.22346
-10.1645
-11.5545
-11.4743
-10.134
-7.84505
-4.98104
-1.93415
0.928476
3.30225
4.9727
5.8305
5.87304
5.19351
3.95977
2.38647
0.704349
-0.869391
-2.15601
-3.03294
-3.4426
-3.39221
-2.94533
-2.20722
-1.30651
-0.375963
0.465005
1.12394
1.54381
1.70573
1.6262
1.3498
0.938549
0.459728
-0.0264507
-0.477515
-0.876531
-1.23603
-1.5976
-2.02721
-2.60685
-3.42366
-4.55793
-6.0716
-7.99885
-10.34
-13.0596
-16.089
-19.3325
-22.6769
-26.0026
-29.195
-32.1538
-34.801
-37.0847
-38.9798
-40.4859
-41.6215
-42.4178
-42.9113
-43.1359
-43.1169
-42.8665
-42.3802
-41.6369
-40.5997
-39.2205
-37.4452
-35.2211
-32.5044
-29.2675
-25.5051
-21.2379
-16.5125
-11.3993
-5.98663
-0.373468
5.33848
11.0513
16.6751
22.128
27.3338
32.2151
36.6869
40.6497
43.9867
46.5652
48.2445
48.8892
48.3872
46.6695
43.7294
39.6357
34.5405
28.6756
22.3398
15.8762
9.6422
3.97621
-0.836345
-4.59205
-7.19063
-8.64508
-9.07926
-8.71313
-7.8371
-6.77848
-5.86402
-5.38297
-5.55496
-6.50644
-8.2583
-10.7254
-13.7269
-17.0051
-20.2452
-23.0925
-25.1572
-26.003
-25.1174
-21.8683
-15.4576
-4.88925
11.0282
33.6227
64.2307
103.996
153.61
213.024
281.185
355.836
433.462
509.402
578.15
633.841
670.866
684.538
671.73
631.366
564.711
475.383
369.085
253.075
135.444
24.2865
-73.1354
-151.115
-206.037
-236.662
-244.125
-231.67
-204.156
-167.409
-127.51
-90.1035
-59.8058
-39.7897
-31.5674
-34.99
-48.4431
-69.1967
-93.8543
-118.836
-140.834
-157.192
-166.158
-167.012
-160.042
-146.407
-127.902
-106.666
-84.8804
-64.4858
-46.9621
-33.1859
-23.3805
-17.1572
-13.6346
-11.6152
-9.79062
-6.94809
-2.15015
5.13469
14.964
26.9219
40.1841
53.6355
66.0228
76.1199
82.8858
85.5922
83.9091
77.9372
68.186
55.5039
40.9703
25.7659
11.0386
-2.21917
-13.2657
-21.6696
-27.3271
-30.4395
-31.4555
-30.9889
-29.7229
-28.316
-27.3185
-27.1122
-27.8761
-29.5825
-32.0196
-34.8365
-37.6028
-39.8735
-41.2511
-41.4371
-40.2672
-37.727
-33.9488
-29.1896
-23.7959
-18.161
-12.6787
-7.70137
-3.50529
-0.26792
1.94197
3.16094
3.51583
3.19972
2.44248
1.47983
0.524808
-0.255124
-0.75297
-0.927844
-0.801344
-0.445676
0.0345523
0.524314
0.920972
1.1549
1.20509
1.10759
0.955374
0.889421
1.082
1.714
2.94916
4.90845
7.6479
11.1429
15.2815
19.8674
24.6336
29.2652
33.4281
36.8018
39.1116
40.1572
39.8333
38.1416
35.1908
31.1867
26.4121
21.1986
15.895
10.8339
6.30098
2.50998
-0.413918
-2.44144
-3.63623
-4.14258
-4.16534
-3.94455
-3.72741
-3.74067
-4.1661
-5.12128
-6.64743
-8.70517
-11.1784
-13.8856
-16.5979
-19.0606
-21.0187
-22.2413
-22.5442
-21.8081
-19.9908
-17.1317
-13.3479
-8.82305
-3.78918
1.49661
6.77761
11.8228
16.449
20.5373
24.0423
26.9917
29.4775
31.6391
33.64
35.6418
37.7777
40.13
42.7134
45.4674
48.2571
50.885
53.1091
54.6684
55.311
54.8228
53.0531
49.9343
45.4941
39.8581
33.2422
25.9358
18.2773
10.6243
3.32162
-3.32898
-9.09418
-13.8267
-17.4735
-20.0728
-21.7427
-22.6607
-23.0391
-23.0973
-23.0365
-23.018
-23.148
-23.4707
-23.9691
-24.5734
-25.1757
-25.647
-25.8572
-25.692
-25.0674
-23.9395
-22.309
-20.2202
-17.7554
-15.0269
-12.1662
-9.31293
-6.60499
-4.17006
-2.11929
-0.543268
0.489854
0.934565
0.766698
-0.0188816
-1.41131
-3.38705
-5.91291
-8.94822
-12.4452
-16.3468
-20.5815
-25.0552
-29.6394
-34.1587
-38.3773
-41.9892
-44.6126
-45.7933
-45.0198
-41.7507
-35.4556
-25.6671
-12.0408
5.58623
27.143
52.2909
80.4134
110.638
141.89
172.98
202.715
230.028
254.115
274.555
291.416
305.32
317.455
329.521
343.619
362.047
387.045
420.475
463.489
516.206
577.463
644.677
713.881
779.939
836.965
878.894
900.155
896.37
864.958
805.583
720.357
613.754
492.255
363.731
236.67
119.314
18.8318
-59.3768
-112.169
-138.879
-141.256
-123.139
-89.9169
-47.851
-3.34309
37.7563
70.7254
92.3737
101.234
97.5435
83.0225
60.5117
33.5076
5.6699
-19.6392
-39.7336
-52.8595
-58.3131
-56.4173
-48.3761
-36.0357
-21.5919
-7.28399
4.88513
13.3717
17.2346
16.1911
10.5852
1.28332
-10.485
-23.3146
-35.8155
-46.7843
-55.3354
-60.9822
-63.6604
-63.6981
-61.7403
-58.6392
-55.3284
-52.6941
-51.4603
-52.0983
-54.7704
-59.3127
-65.2562
-71.8845
-78.3203
-83.6296
-86.9337
-87.5147
-84.9026
-78.9353
-69.7839
-57.9408
-44.1724
-29.4421
-14.8124
-1.33746
10.0417
18.5879
23.8342
25.6193
24.0907
19.6735
13.0129
4.89731
-3.82928
-12.3527
-19.9643
-26.1176
-30.4621
-32.8528
-33.3364
-32.1197
-29.5258
-25.9441
-21.7818
-17.4197
-13.1769
-9.2849
-5.87091
-2.95005
-0.425273
1.90554
4.33573
7.22953
10.9956
16.0557
22.8096
31.5995
42.675
56.1633
72.0464
90.1479
110.132
131.515
153.688
175.951
197.557
217.755
235.838
251.188
263.312
271.87
276.694
277.795
275.356
269.724
261.378
250.901
238.938
226.157
213.205
200.666
189.03
178.662
169.789
162.493
156.72
152.292
148.937
146.319
144.068
141.816
139.222
135.993
131.903
126.793
120.576
113.234
104.809
95.3984
85.1511
74.2617
62.9669
51.5403
40.2834
29.5136
19.5472
10.6792
3.16059
-2.82279
-7.16863
-9.8698
-11.0178
-10.7966
-9.46747
-7.34599
-4.77327
-2.0856
0.414942
2.48517
3.95827
4.75246
4.87014
4.38841
3.44224
2.20307
0.855347
-0.426037
-1.49492
-2.24779
-2.63132
-2.64356
-2.32939
-1.77171
-1.08021
-0.379473
0.202262
0.542693
0.533085
0.0840122
-0.870464
-2.36986
-4.42537
-7.01891
-10.1034
-13.6044
-17.4236
-21.4441
-25.5371
-29.5708
-33.4197
-36.9733
-40.1451
-42.8786
-45.1517
-46.9778
-48.4033
-49.5026
-50.3705
-51.1127
-51.8366
-52.6427
-53.6192
-54.8392
-56.3624
-58.2385
-60.5121
-63.2261
-66.422
-70.135
-74.3844
-79.1595
-84.405
-90.0062
-95.7791
-101.468
-106.751
-111.255
-114.582
-116.336
-116.159
-113.767
-108.977
-101.728
-92.0956
-80.2887
-66.6383
-51.5747
-35.598
-19.2426
-3.04145
12.5082
26.9744
40.0138
51.3867
60.964
68.7275
74.7645
79.2595
82.488
84.8138
86.6941
88.6923
91.4979
95.9471
103.037
113.918
129.859
152.167
182.052
220.452
267.814
323.87
387.435
456.277
527.093
595.63
656.963
705.913
737.575
747.889
734.173
695.548
633.182
550.298
451.953
344.58
235.375
131.571
39.7287
-34.9119
-88.904
-120.862
-131.488
-123.369
-100.581
-68.1481
-31.445
4.39892
35.0127
57.1676
68.9955
70.0311
61.0929
44.0304
21.3837
-3.99601
-29.3157
-52.1567
-70.7076
-83.8943
-91.4066
-93.6291
-91.4971
-86.3049
-79.496
-72.4621
-66.3759
-62.0742
-59.9978
-60.1908
-62.3501
-65.9126
-70.1659
-74.3625
-77.8247
-80.0269
-80.6464
-79.5812
-76.9361
-72.9816
-68.0972
-62.7056
-57.2112
-51.9484
-47.148
-42.9225
-39.2707
-36.0991
-33.2535
-30.5557
-27.8394
-24.9789
-21.9089
-18.632
-15.2148
-11.7745
-8.4592
-5.42427
-2.81015
-0.723207
0.777245
1.68478
2.04445
1.94499
1.50633
0.864731
0.157828
-0.488095
-0.967017
-1.19743
-1.12203
-0.703743
0.0803569
1.24542
2.80379
4.76728
7.14596
9.94367
13.1508
16.736
20.6376
24.7581
28.9614
33.0752
36.8991
40.217
42.8143
44.4985
45.1194
44.5899
42.9015
40.1355
36.4653
32.1503
27.5199
22.9494
18.8277
15.5227
13.3445
12.5133
13.1332
15.1772
18.4842
22.769
27.6459
32.6632
37.3452
41.2389
43.9584
45.2236
44.8882
42.9532
39.5642
34.9937
29.6091
23.8317
18.0909
12.7796
8.2159
4.61601
2.0799
0.591656
0.0329816
0.207336
0.870972
1.76646
2.6544
3.33961
3.68901
3.63989
3.19829
2.42862
1.4366
0.348136
-0.712712
-1.64385
-2.38079
-2.906
-3.25105
-3.49167
-3.73649
-4.11137
-4.74121
-5.732
-7.15505
-9.03559
-11.347
-14.0114
-16.9057
-19.8739
-22.742
-25.3357
-27.497
-29.0999
-30.0615
-30.349
-29.9807
-29.0221
-27.5768
-25.7738
-23.7535
-21.6524
-19.59
-17.6588
-15.9175
-14.3898
-13.0662
-11.9107
-10.8697
-9.88271
-8.89289
-7.85735
-6.75469
-5.58978
-4.39473
-3.22604
-2.15812
-1.27386
-0.653364
-0.362238
-0.440995
-0.896896
-1.69942
-2.78002
-4.03641
-5.34078
-6.55126
-7.52507
-8.13176
-8.26514
-7.85217
-6.85817
-5.28763
-3.1807
-0.6062
2.34805
5.58602
9.01402
12.5495
16.1271
19.7011
23.2444
26.7438
30.1932
33.5857
36.9059
40.124
43.1929
46.0485
48.6135
50.8039
52.538
53.7459
54.3782
54.4134
53.8615
52.7652
51.196
49.2474
47.0252
44.6355
42.1722
39.7052
37.2716
34.8694
32.457
29.9572
27.2669
24.2708
20.8574
16.9362
12.4539
7.40691
1.84973
-4.10198
-10.2726
-16.4303
-22.2905
-27.5153
-31.7059
-34.3856
-34.975
-32.7634
-26.8854
-16.3142
0.112915
23.6237
55.3842
96.3152
146.862
206.744
274.721
348.425
424.314
497.771
563.394
615.441
648.412
657.695
640.179
594.761
522.65
427.418
314.776
192.088
67.6751
-49.9951
-153.153
-235.484
-292.72
-322.991
-326.904
-307.349
-269.071
-218.06
-160.857
-103.839
-52.5879
-11.3991
17.0243
31.671
33.1224
23.2861
5.00873
-18.3736
-43.4889
-67.3324
-87.5763
-102.759
-112.344
-116.654
-116.698
-113.936
-110.003
-106.442
-104.473
-104.837
-107.711
-112.72
-119.015
-125.421
-130.614
-133.316
-132.474
-127.393
-117.833
-104.034
-86.6853
-66.8413
-45.799
-24.952
-5.64113
10.9805
24.0537
33.0799
37.944
38.893
36.4783
31.4693
24.7519
17.2247
9.70544
2.85652
-2.86164
-7.20835
-10.1515
-11.8322
-12.5122
-12.5118
-12.1483
-11.6795
-11.2613
-10.9201
-10.5437
-9.89084
-8.61708
-6.31584
-2.56952
2.99376
10.6444
20.503
32.5057
46.3887
61.6934
77.7955
93.9522
109.366
123.255
134.926
143.835
149.638
152.218
151.688
148.371
142.762
135.468
127.15
118.452
109.947
102.09
95.1881
89.3935
84.7096
81.0147
78.0963
75.6907
73.5241
71.3481
68.9685
66.2625
63.1856
59.7671
56.0966
52.3042
48.5376
44.9384
41.6217
38.6604
36.0759
33.8356
31.8575
30.0214
28.1842
26.1986
23.9327
21.2879
18.2133
14.7147
10.8574
6.76183
2.59313
-1.45459
-5.17733
-8.38151
-10.9033
-12.6251
-13.4872
-13.494
-12.714
-11.2741
-9.34838
-7.14338
-4.88059
-2.77861
-1.03621
0.182021
0.756297
0.617737
-0.250205
-1.81469
-4.00002
-6.69664
-9.77137
-13.0776
-16.4647
-19.7856
-22.9031
-25.6939
-28.0522
-29.8922
-31.1506
-31.7888
-31.7954
-31.188
-30.0141
-28.3504
-26.2998
-23.9866
-21.5482
-19.1253
-16.8503
-14.8338
-13.1513
-11.8288
-10.8299
-10.045
-9.28377
-8.27411
-6.6693
-4.06514
-0.0280847
5.86657
13.989
24.6062
37.8372
53.6178
71.6821
91.5645
112.625
134.098
155.149
174.959
192.79
208.053
220.359
229.544
235.671
238.999
239.946
239.019
236.749
233.629
230.052
226.28
222.424
218.449
214.2
209.438
203.888
197.286
189.423
180.176
169.522
157.545
144.426
130.413
115.798
100.883
85.953
71.246
56.9431
43.1588
29.9435
17.2926
5.1617
-6.51623
-17.8119
-28.7821
-39.455
-49.8191
-59.816
-69.3404
-78.2438
-86.3451
-93.4461
-99.351
-103.887
-106.928
-108.409
-108.341
-106.816
-104.003
-100.132
-95.4725
-90.2968
-84.8399
-79.247
-73.5182
-67.4497
-60.5805
-52.1518
-41.0923
-26.0432
-5.43714
22.3592
58.8365
105.078
161.467
227.401
301.073
379.37
457.933
531.419
593.941
639.665
663.491
661.717
632.605
576.742
497.136
399.027
289.414
176.356
68.1458
-27.5652
-104.548
-158.609
-187.955
-193.266
-177.487
-145.377
-102.863
-56.3183
-11.8248
25.467
51.8249
65.2167
65.369
53.6168
32.5769
5.70283
-23.2167
-50.5487
-73.2375
-89.114
-97.0646
-97.054
-90.0138
-77.6233
-62.0222
-45.496
-30.1771
-17.7958
-9.50928
-5.81902
-6.58019
-11.0909
-18.2421
-26.7034
-35.1168
-42.2738
-47.2549
-49.5177
-48.9278
-45.7344
-40.4987
-33.9901
-27.0641
-20.5418
-15.1046
-11.217
-9.08462
-8.65041
-9.6263
-11.5527
-13.8762
-16.0331
-17.5281
-17.9969
-17.2468
-15.2708
-12.2358
-8.44928
-4.30871
-0.244147
3.33988
6.11447
7.86291
8.50014
8.07392
6.74925
4.77941
2.46853
0.131049
-1.94642
-3.53659
-4.49302
-4.76001
-4.37083
-3.43554
-2.12087
-0.625132
0.848392
2.11633
3.03562
3.51743
3.53337
3.11401
2.34035
1.32995
0.219745
-0.852094
-1.76294
-2.41924
-2.76531
-2.78677
-2.5085
-1.98788
-1.3043
-0.546754
0.198969
0.861669
1.39332
1.77387
2.01187
2.14106
2.21373
2.29194
2.43801
2.7056
3.13273
3.73732
4.51587
5.44504
6.48576
7.58886
8.70166
9.77408
10.7639
11.6403
12.3851
12.9924
13.4664
13.8176
14.0593
14.2034
14.2577
14.2239
14.0978
13.8705
13.5314
13.0714
12.4874
11.785
10.9816
10.1065
9.20009
8.31049
7.48886
6.78351
6.2336
5.86325
5.67689
5.65655
5.7615
5.93063
6.0873
6.1464
6.02273
5.6399
4.93876
3.88418
2.46968
0.718968
-1.31545
-3.55675
-5.91073
-8.2744
-10.5454
-12.6308
-14.4554
-15.967
-17.1395
-17.9736
-18.4939
-18.7445
-18.7825
-18.6711
-18.4721
-18.2399
-18.0162
-17.8268
-17.68
-17.5666
-17.4612
-17.3239
-17.1025
-16.7341
-16.1469
-15.2625
-13.9982
-12.2718
-10.0068
-7.14076
-3.63376
0.522583
5.29738
10.6155
16.3568
22.3598
28.4311
34.3586
39.9283
44.9422
49.2357
52.6926
55.2544
56.9252
57.7694
57.9021
57.4747
56.6557
55.6076
54.4653
53.316
52.184
51.0235
49.7211
48.1064
45.9736
43.1082
39.3185
34.4657
28.4893
21.4245
13.4075
4.6688
-4.48525
-13.701
-22.6114
-30.8723
-38.194
-44.3667
-49.2745
-52.897
-55.3003
-56.617
-57.0213
-56.7008
-55.831
-54.5535
-52.9621
-51.0964
-48.9413
-46.4306
-43.4506
-39.8376
-35.3672
-29.7321
-22.5106
-13.1301
-0.838021
15.3064
36.4031
63.6305
98.1033
140.674
191.693
250.757
316.496
386.447
457.047
523.803
581.618
625.275
650.004
652.086
629.384
581.733
511.12
421.61
319.021
210.381
103.228
4.84031
-78.4997
-142.128
-183.421
-201.979
-199.554
-179.734
-147.444
-108.323
-68.0615
-31.7791
-3.51798
14.1045
20.0474
14.8026
0.176976
-21.0605
-45.6109
-70.0989
-91.4915
-107.434
-116.469
-118.128
-112.89
-102.025
-87.3647
-71.0145
-55.0682
-41.3477
-31.2028
-25.3886
-24.0288
-26.6612
-32.3514
-39.8537
-47.7953
-54.858
-59.9357
-62.2497
-61.414
-57.4462
-50.7286
-41.9307
-31.9048
-21.5714
-11.8077
-3.35318
3.25901
7.73991
10.0502
10.3763
9.08408
6.65599
3.62331
0.500011
-2.27315
-4.3694
-5.5983
-5.90934
-5.3785
-4.18139
-2.55783
-0.773066
0.919182
2.30763
3.24524
3.6603
3.55669
3.00465
2.12412
1.06389
-0.0206463
-0.987881
-1.72618
-2.16413
-2.27392
-2.06808
-1.59044
-0.903194
-0.0723049
0.846354
1.81787
2.83457
3.917
5.10968
6.4727
8.07101
9.96305
12.191
14.7736
17.7033
20.9468
24.4488
28.1395
31.9414
35.7778
39.5794
43.2886
46.8625
50.2724
53.5016
56.5421
59.3895
62.0382
64.4773
66.6874
68.6394
70.2949
71.6088
72.5332
73.0219
73.0364
72.5496
71.5497
70.0411
68.0443
65.5937
62.7346
59.5197
56.0058
52.2513
48.3148
44.2538
40.1247
35.9827
31.8811
27.8707
23.999
20.3088
16.8366
13.6112
10.6524
7.96957
5.5611
3.41365
1.50226
-0.209043
-1.76598
-3.22201
-4.63561
-6.06705
-7.57467
-9.21093
-11.0182
-13.0245
-15.239
-17.6475
-20.2077
-22.8459
-25.4539
-27.8896
-29.9804
-31.5317
-32.3403
-32.2121
-30.9837
-28.5442
-24.8552
-19.965
-14.016
-7.24136
0.0479005
7.48454
14.6742
21.2283
26.797
31.0996
33.948
35.262
35.0738
33.5225
30.8383
27.3191
23.3015
19.1287
15.1206
11.5459
8.60211
6.40249
4.9731
4.25835
4.13493
4.43185
4.95419
5.50774
5.92147
6.06566
5.8636
5.29602
4.39822
3.25072
1.96514
0.667138
-0.521056
-1.49653
-2.18816
-2.5643
-2.63528
-2.4506
-2.09166
-1.66156
-1.27363
-1.04096
-1.06873
-1.45083
-2.27103
-3.60809
-5.54317
-8.16703
-11.5845
-15.9138
-21.2797
-27.7991
-35.5609
-44.6018
-54.8818
-66.2628
-78.4953
-91.2165
-103.962
-116.194
-127.337
-136.834
-144.193
-149.043
-151.17
-150.548
-147.346
-141.909
-134.73
-126.398
-117.543
-108.77
-100.605
-93.4445
-87.5251
-82.907
-79.4739
-76.9459
-74.8985
-72.7815
-69.931
-65.5716
-58.8089
-48.6196
-33.8518
-13.2513
14.4677
50.495
95.7363
150.575
214.612
286.432
363.442
441.84
516.752
582.566
633.418
663.825
669.344
647.199
596.761
519.813
420.529
305.178
181.562
58.2543
-56.2597
-154.442
-230.45
-280.681
-304.062
-302.038
-278.29
-238.218
-188.264
-135.158
-85.1944
-43.601
-14.0868
1.40643
2.7298
-8.65185
-30.0047
-57.7802
-88.1154
-117.315
-142.258
-160.696
-171.404
-174.199
-169.821
-159.721
-145.78
-130.01
-114.276
-100.065
-88.3403
-79.4812
-73.3085
-69.1892
-66.1923
-63.2723
-59.4506
-53.9707
-46.4077
-36.7208
-25.246
-12.6359
0.241259
12.4263
22.9984
31.1919
36.4847
38.6515
37.7741
34.2145
28.5544
21.5136
13.8583
6.31092
-0.524983
-6.2197
-10.5448
-13.4732
-15.1529
-15.8618
-15.948
-15.767
-15.6223
-15.7184
-16.13
-16.793
-17.5159
-18.0102
-17.9354
-16.951
-14.7706
-11.2073
-6.20771
0.132517
7.57164
15.7439
24.197
32.4394
39.9921
46.4376
51.4602
54.8728
56.6284
56.8139
55.6305
53.3614
50.3335
46.877
43.2883
39.8009
36.5665
33.6476
31.0227
28.6005
26.2421
23.7867
21.0777
17.986
14.4274
10.3734
5.85341
0.950737
-4.20864
-9.47085
-14.6713
-19.6517
-24.275
-28.4367
-32.0716
-35.1551
-37.7002
-39.7502
-41.3693
-42.6314
-43.6086
-44.3621
-44.9337
-45.3401
-45.5701
-45.5843
-45.3178
-44.6858
-43.593
-41.944
-39.6552
-36.6648
-32.9398
-28.478
-23.3054
-17.4694
-11.03
-4.05142
3.40269
11.2697
19.4822
27.9574
36.5836
45.2054
53.613
61.5368
68.6509
74.5875
78.9603
81.3979
81.5815
79.2843
74.4058
66.9971
57.2732
45.6078
32.5126
18.6005
4.5383
-9.008
-21.427
-32.2098
-40.9863
-47.5453
-51.8377
-53.9617
-54.1353
-52.6587
-49.8726
-46.1205
-41.7162
-36.9241
-31.95
-26.9436
-22.0104
-17.228
-12.6637
-8.38898
-4.48852
-1.06124
1.78605
3.95149
5.35495
5.95577
5.76806
4.87085
3.41094
1.59776
-0.309542
-2.02119
-3.23992
-3.68545
-3.11789
-1.3578
1.69878
6.0713
11.6923
18.4118
26.0075
34.201
42.6779
51.1101
59.1792
66.5982
73.129
78.5959
82.8914
85.9765
87.8729
88.6513
88.4131
87.2722
85.3349
82.6843
79.3692
75.4005
70.7562
65.3938
59.2686
52.3553
44.6688
36.2808
27.3281
18.012
8.58622
-0.66384
-9.44886
-17.5062
-24.6289
-30.6888
-35.6498
-39.5704
-42.5929
-44.9226
-46.799
-48.4623
-50.1208
-51.923
-53.9374
-56.1434
-58.4326
-60.6203
-62.4634
-63.6807
-63.9694
-63.0131
-60.4767
-55.9866
-49.097
-39.2505
-25.7426
-7.70581
15.8706
46.0685
83.9078
130.155
185.083
248.223
318.139
392.282
466.983
537.592
598.808
645.157
671.583
674.073
650.227
599.69
524.368
428.384
317.773
199.928
82.8816
-25.4981
-118.301
-190.248
-238.172
-261.247
-260.956
-240.789
-205.754
-161.731
-114.787
-70.5125
-33.4681
-6.79475
7.9807
10.936
3.55997
-11.5863
-31.2998
-52.1973
-71.1511
-85.6482
-94.0374
-95.6446
-90.7563
-80.4846
-66.5428
-50.9673
-35.826
-22.9502
-13.7216
-8.9353
-8.74979
-12.7206
-19.9069
-29.0298
-38.6588
-47.3998
-54.0623
-57.7865
-58.1185
-55.0313
-48.8917
-40.3842
-30.4046
-19.9392
-9.94415
-1.24085
5.5632
10.1209
12.3571
12.4483
10.7747
7.85432
4.2688
0.589469
-2.6866
-5.18466
-6.6804
-7.10689
-6.54217
-5.18079
-3.29493
-1.19061
0.834813
2.52909
3.71156
4.2876
4.25068
3.67312
2.68814
1.46633
0.190321
-0.969122
-1.87257
-2.42531
-2.58385
-2.35561
-1.79301
-0.983295
-0.0358509
0.931438
1.80531
2.48863
2.90944
3.02693
2.83409
2.35686
1.65004
0.79044
-0.132019
-1.02427
-1.79997
-2.38799
-2.73847
-2.8252
-2.64393
-2.20657
-1.53219
-0.636612
0.477425
1.827
3.45103
5.40651
7.75935
10.571
13.8834
17.7041
21.9955
26.6687
31.5843
36.5601
41.3844
45.8343
49.6961
52.7853
54.9645
56.1556
56.347
55.5934
54.0089
51.7548
49.0234
46.0196
42.9427
39.97
37.2438
34.8633
32.8813
31.3055
30.1049
29.2192
28.5702
28.0744
27.6537
27.2445
26.8032
26.3077
25.7558
25.1597
24.5388
23.9117
23.2877
22.6614
22.0089
21.2874
20.4386
19.3949
18.0875
16.4561
14.4586
12.0785
9.33088
6.26358
2.95565
-0.488922
-3.95047
-7.30512
-10.437
-13.2501
-15.6773
-17.6873
-19.287
-20.5202
-21.4628
-22.2145
-22.8885
-23.6
-24.4548
-25.5386
-26.9086
-28.5877
-30.5627
-32.7848
-35.1741
-37.6263
-40.0216
-42.234
-44.141
-45.6326
-46.6186
-47.0335
-46.84
-46.0285
-44.6161
-42.642
-40.1635
-37.2498
-33.9763
-30.4193
-26.6502
-22.7301
-18.7047
-14.5996
-10.4175
-6.13739
-1.71657
2.90307
7.78601
12.9913
18.5599
24.5019
30.7875
37.34
44.0346
50.7019
57.135
63.1003
68.3493
72.6294
75.6942
77.311
77.2674
75.378
71.4928
65.5092
57.3865
47.1623
34.9688
21.0442
5.73624
-10.5041
-27.1408
-43.582
-59.2173
-73.4588
-85.783
-95.7669
-103.116
-107.682
-109.464
-108.603
-105.359
-100.079
-93.1558
-84.9705
-75.8346
-65.9195
-55.1874
-43.3287
-29.719
-13.4106
6.82563
32.3954
64.7063
104.93
153.718
210.919
275.322
344.516
414.877
481.745
539.784
583.498
607.853
608.916
584.425
534.201
460.322
367.044
260.44
147.819
36.989
-64.5515
-150.375
-215.758
-258.105
-277.114
-274.684
-254.569
-221.853
-182.301
-141.682
-105.138
-76.6802
-58.8521
-52.5957
-57.3129
-71.102
-91.1233
-114.039
-136.466
-155.389
-168.485
-174.327
-172.462
-163.36
-148.256
-128.918
-107.375
-85.6488
-65.5107
-48.3075
-34.8565
-25.4204
-19.7561
-17.2197
-16.9093
-17.8215
-18.9996
-19.6556
-19.253
-17.5442
-14.5638
-10.5838
-6.04203
-1.45574
2.66455
5.89081
7.9329
8.66884
8.14855
6.57359
4.25821
1.57892
-1.07938
-3.37335
-5.04094
-5.92673
-5.99104
-5.30338
-4.02249
-2.36705
-0.58173
1.09661
2.46828
3.39232
3.79856
3.68947
3.13302
2.24842
1.18748
0.114589
-0.812241
-1.45705
-1.71726
-1.53001
-0.873944
0.233042
1.73888
3.56424
5.61027
7.76641
9.91772
11.9516
13.7638
15.2632
16.3765
17.0513
17.2587
16.9949
16.2807
15.1603
13.6989
11.9776
10.0888
8.12962
6.1956
4.3745
2.7409
1.35219
0.246348
-0.558357
-1.06162
-1.27773
-1.23095
-0.950268
-0.464278
0.203397
1.03737
2.03209
3.19156
4.52707
6.05323
7.78282
9.72102
11.8599
14.1738
16.6161
19.118
21.5894
23.9225
25.997
27.6883
28.8767
29.4574
29.3511
28.5134
26.9418
24.6804
21.8195
18.4922
14.8655
11.1278
7.47397
4.08872
1.13044
-1.2826
-3.08235
-4.25629
-4.84742
-4.94907
-4.69537
-4.24861
-3.78487
-3.4796
-3.4941
-3.96406
-4.99061
-6.63395
-8.90983
-11.7887
-15.1975
-19.024
-23.1231
-27.3262
-31.4512
-35.3142
-38.7418
-41.5826
-43.7177
-45.0698
-45.609
-45.3558
-44.3808
-42.8002
-40.7685
-38.4671
-36.0917
-33.8372
-31.8833
-30.3801
-29.4368
-29.1122
-29.4096
-30.2756
-31.6016
-33.2297
-34.9604
-36.5633
-37.7902
-38.3897
-38.1242
-36.788
-34.2255
-30.3493
-25.154
-18.7252
-11.2412
-2.9649
5.77311
14.6008
23.1375
31.0299
37.9878
43.8136
48.4239
51.8569
54.266
55.8982
57.0604
58.0753
59.235
60.7565
62.7461
65.1786
67.8933
70.6094
72.9591
74.5332
74.9349
73.8332
71.0093
66.3895
60.0602
52.2621
43.3663
33.834
24.1667
14.8529
6.31854
-1.11304
-7.24684
-12.0256
-15.5225
-17.9194
-19.4745
-20.4832
-21.2389
-21.9963
-22.9432
-24.1809
-25.7145
-27.4518
-29.2052
-30.695
-31.546
-31.2768
-29.2794
-24.7941
-16.8879
-4.44909
13.7856
39.1548
72.9372
116.153
169.318
232.173
303.439
380.647
460.093
536.968
605.668
660.284
695.219
705.849
689.155
644.215
572.479
477.775
366.034
244.751
122.252
6.85294
-93.9785
-174.361
-230.542
-261.19
-267.396
-252.419
-221.188
-179.657
-134.092
-90.3659
-53.3628
-26.5454
-11.7224
-9.03153
-17.1192
-33.4794
-54.895
-77.9195
-99.3358
-116.539
-127.801
-132.401
-130.606
-123.536
-112.923
-100.818
-89.2814
-80.0968
-74.5501
-73.2888
-76.2771
-82.8436
-91.8074
-101.661
-110.781
-117.641
-120.996
-120.024
-114.4
-104.316
-90.4349
-73.7883
-55.6479
-37.3732
-20.2626
-5.42227
6.33344
14.5417
19.1075
20.2794
18.5899
14.7715
9.65992
4.09541
-1.16519
-5.51817
-8.55788
-10.0945
-10.1456
-8.9044
-6.69154
-3.89635
-0.915914
1.90123
4.30055
6.15162
7.46011
8.36127
9.0961
9.97381
11.3252
13.4534
16.5872
20.8447
26.2099
32.527
39.5127
46.7841
53.9003
60.4116
65.9105
70.0772
72.716
73.7767
73.3588
71.6989
69.143
66.1069
63.03
60.3276
58.3479
57.3365
57.4141
58.5675
60.6548
63.4234
66.5389
69.6204
72.2799
74.1603
74.9701
74.5104
72.6922
69.5429
65.2008
59.8991
53.9397
47.6616
41.4046
35.4756
30.1186
25.4943
21.6701
18.6226
16.2505
14.3969
12.8772
11.5077
10.1321
8.6412
6.98462
5.17298
3.27082
1.38236
-0.36766
-1.85474
-2.97411
-3.65626
-3.87656
-3.65817
-3.06828
-2.20858
-1.20177
-0.176137
0.749738
1.47994
1.95058
2.13446
2.04091
1.71117
1.2102
0.616296
0.00983358
-0.537194
-0.9698
-1.25572
-1.38774
-1.38257
-1.27654
-1.11894
-0.96398
-0.862478
-0.854424
-0.963419
-1.19365
-1.52979
-1.93966
-2.37945
-2.80046
-3.15658
-3.41141
-3.54398
-3.55231
-3.45429
-3.28587
-3.0966
-2.94324
-2.88223
-2.96187
-3.21532
-3.65512
-4.27022
-5.02568
-5.86536
-6.71721
-7.50077
-8.13576
-8.55096
-8.69214
-8.52814
-8.05425
-7.29252
-6.28904
-5.10826
-3.82537
-2.51734
-1.25385
-0.0891428
0.944343
1.83953
2.61487
3.31045
3.98004
4.67907
5.44977
6.30483
7.21198
8.08192
8.7622
9.03893
8.64764
7.29318
4.67755
0.533112
-5.34252
-13.0538
-22.5813
-33.7656
-46.3043
-59.7625
-73.5963
-87.1887
-99.8927
-111.08
-120.193
-126.784
-130.56
-131.408
-129.403
-124.812
-118.069
-109.744
-100.498
-91.0299
-82.0189
-74.0704
-67.6672
-63.1286
-60.5819
-59.9417
-60.8987
-62.9135
-65.2136
-66.7939
-66.4237
-62.6663
-53.922
-38.5073
-14.7788
18.6901
62.8851
118.098
183.674
257.806
337.428
418.244
494.939
561.567
612.093
641.04
644.156
619.004
565.396
485.588
384.19
267.805
144.419
22.6099
-89.3071
-184.115
-256.392
-302.996
-323.28
-319.025
-294.102
-253.928
-204.782
-153.075
-104.657
-64.2524
-35.0564
-18.5542
-14.5445
-21.3553
-36.2094
-55.6789
-76.1703
-94.3776
-107.653
-114.262
-113.495
-105.652
-91.9004
-74.0422
-54.229
-34.6623
-17.3187
-3.72967
5.16196
9.0586
8.28024
3.66392
-3.58976
-12.0989
-20.4862
-27.5442
-32.3645
-34.4148
-33.5645
-30.0569
-24.4406
-17.4698
-9.99141
-2.8326
3.29747
7.88052
10.6313
11.5068
10.6854
8.52052
5.47951
2.07415
-1.20591
-3.9497
-5.86565
-6.80299
-6.75349
-5.83519
-4.26188
-2.30306
-0.239755
1.67899
3.27404
4.46494
5.28639
5.89058
6.53448
7.55281
9.31885
12.1969
16.4918
22.4009
29.9758
39.0973
49.4693
60.632
71.994
82.8808
92.5949
100.48
105.986
108.722
108.498
105.345
99.5133
91.4523
81.7641
71.1478
60.3328
50.0111
40.777
33.0784
27.1864
23.1846
20.9788
20.3243
20.8668
22.1911
23.8724
25.5227
26.8289
27.5779
27.6665
27.0981
25.9651
24.4229
22.6581
20.8564
19.1743
17.7177
16.5313
15.5973
14.8448
14.1665
13.4402
12.5516
11.4145
9.98566
8.27258
6.3333
4.26843
2.20721
0.289539
-1.3532
-2.61613
-3.43535
-3.79731
-3.74215
-3.36084
-2.78679
-2.18301
-1.72644
-1.59144
-1.93407
-2.87889
-4.50947
-6.86324
-9.93094
-13.6602
-17.9623
-22.7218
-27.8063
-33.0767
-38.3964
-43.6389
-48.6935
-53.469
-57.8964
-61.9294
-65.544
-68.7372
-71.5247
-73.938
-76.0208
-77.8257
-79.4096
-80.8303
-82.1426
-83.395
-84.6265
-85.864
-87.1203
-88.392
-89.6581
-90.8789
-91.9961
-92.9332
-93.5968
-93.8793
-93.6616
-92.8183
-91.2217
-88.7482
-85.284
-80.731
-75.0113
-68.0704
-59.8782
-50.4276
-39.7318
-27.8221
-14.7469
-0.575282
14.5967
30.6342
47.35
64.4917
81.7318
98.6661
114.822
129.677
142.692
153.35
161.204
165.92
167.317
165.397
160.354
152.563
142.559
130.986
118.542
105.92
93.7432
82.5178
72.5945
64.1505
57.1909
51.5676
47.013
43.1842
39.7104
36.2392
32.4759
28.2121
23.3423
17.8674
11.8881
5.59093
-0.767232
-6.87087
-12.3487
-16.764
-19.5916
-20.1858
-17.7474
-11.3032
0.285986
18.2725
43.9114
78.2886
122.097
175.384
237.306
305.947
378.238
450.031
516.349
571.791
611.086
629.695
624.408
593.833
538.697
461.912
368.38
264.552
157.794
55.6446
-34.9546
-108.345
-160.681
-190.24
-197.483
-184.872
-156.475
-117.425
-73.2938
-29.4697
9.38959
39.7775
59.5883
68.1838
66.2871
55.7302
39.1016
19.3448
-0.638968
-18.3371
-31.8836
-40.2078
-43.0681
-40.9776
-35.0454
-26.761
-17.7552
-9.57129
-3.47295
-0.309491
-0.449094
-3.781
-9.77884
-17.6105
-26.2753
-34.7488
-42.1146
-47.6693
-50.989
-51.9527
-50.7255
-47.7059
-43.4505
-38.5851
-33.7183
-29.3657
-25.8952
-23.497
-22.1803
-21.7933
-22.0625
-22.6428
-23.1727
-23.3252
-22.8496
-21.5993
-19.5442
-16.7666
-13.4436
-9.81871
-6.16796
-2.76442
0.154061
2.41022
3.90355
4.616
4.60753
4.00296
2.97241
1.70825
0.401749
-0.778033
-1.70054
-2.28397
-2.49873
-2.36444
-1.94151
-1.31879
-0.599265
0.11427
0.731922
1.18633
1.43845
1.47918
1.32711
1.02332
0.624171
0.193784
-0.202439
-0.502151
-0.647668
-0.585093
-0.261925
0.375444
1.38279
2.8165
4.72869
7.15925
10.1258
13.6128
17.5627
21.8693
26.3773
30.8872
35.1661
38.9652
42.0401
44.1732
45.1955
45.0046
43.5766
40.9714
37.3293
32.8611
27.8314
22.5376
17.2883
12.3804
8.07945
4.60329
2.11048
0.693162
0.374699
1.11122
2.7964
5.26869
8.32055
11.7094
15.1698
18.4282
21.2178
23.2956
24.4589
24.5614
23.5256
21.3518
18.1209
13.9904
9.18425
3.97627
-1.3313
-6.43158
-11.0374
-14.9035
-17.8446
-19.748
-20.5781
-20.3755
-19.2476
-17.3551
-14.8934
-12.0728
-9.09907
-6.15528
-3.38883
-0.90278
1.24704
3.04954
4.53141
5.74692
6.76601
7.66231
8.50223
9.33619
10.1924
11.0738
11.9572
12.7964
13.5269
14.0731
14.3579
14.312
13.8838
13.0473
11.8075
10.2013
8.29553
6.18007
3.95799
1.73409
-0.397042
-2.36151
-4.11409
-5.64267
-6.96921
-8.14732
-9.25738
-10.4
-11.6885
-13.2421
-15.1784
-17.6082
-20.6299
-24.3255
-28.7561
-33.9574
-39.9351
-46.6584
-54.0537
-61.999
-70.3188
-78.7831
-87.1109
-94.9795
-102.04
-107.94
-112.344
-114.968
-115.596
-114.108
-110.491
-104.847
-97.3897
-88.4314
-78.3642
-67.6324
-56.7017
-46.0267
-36.019
-27.018
-19.2642
-12.875
-7.82106
-3.9013
-0.714682
2.36938
6.23815
12.0511
21.2311
35.4159
56.3551
85.7438
124.993
174.952
235.616
305.86
383.261
464.055
543.279
615.105
673.353
712.146
726.605
713.512
671.823
602.966
510.843
401.547
282.798
163.18
51.2581
-45.3002
-120.496
-170.571
-194.304
-193.026
-170.33
-131.557
-83.1105
-31.6952
16.423
56.051
83.5312
96.989
96.3568
83.1876
60.301
31.3178
0.149363
-29.4946
-54.5212
-72.7515
-83.0771
-85.4688
-80.8555
-70.8987
-57.7021
-43.4996
-30.3612
-19.9511
-13.3642
-11.0502
-12.8283
-17.9795
-25.3969
-33.7702
-41.7764
-48.2532
-52.3332
-53.5291
-51.7602
-47.3262
-40.8348
-33.0973
-25.0086
-17.4285
-11.0782
-6.46421
-3.83586
-3.17922
-4.24377
-6.5959
-9.68972
-12.9449
-15.8212
-17.8804
-18.8306
-18.5466
-17.0697
-14.5856
-11.3879
-7.83148
-4.28414
-1.08058
1.51415
3.32912
4.29818
4.45691
3.92804
2.89842
1.59165
0.24015
-0.939489
-1.76567
-2.10373
-1.87063
-1.03317
0.398736
2.38165
4.84912
7.72152
10.914
14.3423
17.9258
21.589
25.2616
28.8777
32.3746
35.6924
38.774
41.565
44.015
46.0793
47.7208
48.912
49.6371
49.8932
49.6914
49.0559
48.0224
46.6356
44.9449
43.001
40.8518
38.5396
36.0991
33.5582
30.9385
28.2587
25.537
22.7944
20.0562
17.3524
14.7162
12.1814
9.77809
7.5289
5.44499
3.52378
1.74834
0.0886986
-1.49483
-3.04683
-4.61112
-6.22481
-7.9132
-9.68576
-11.5342
-13.4323
-15.3383
-17.1985
-18.9528
-20.5402
-21.9043
-22.9985
-23.7892
-24.2578
-24.4012
-24.2302
-23.7677
-23.045
-22.0989
-20.968
-19.6902
-18.3001
-16.8278
-15.2984
-13.7322
-12.1459
-10.5539
-8.97013
-7.40965
-5.88974
-4.43061
-3.05533
-1.78901
-0.657387
0.315036
1.10717
1.70351
2.09618
2.28656
2.28642
2.1184
1.81574
1.42131
0.985886
0.566001
0.22139
0.0125798
-0.00110274
0.237309
0.782248
1.68632
3.00145
4.77971
7.07301
9.93091
13.396
17.4971
22.241
27.6035
33.5224
39.8927
46.5665
53.3578
60.0517
66.4173
72.2224
77.2477
81.2988
84.2148
85.8724
86.1875
85.1137
82.6402
78.7904
73.6215
67.2253
59.7298
51.2999
42.1358
32.4687
22.5521
12.6486
3.01505
-6.11492
-14.5469
-22.1392
-28.8112
-34.5454
-39.3829
-43.4115
-46.7497
-49.5262
-51.8604
-53.8441
-55.5292
-56.9214
-57.9813
-58.6306
-58.7613
-58.243
-56.9243
-54.624
-51.1095
-46.0633
-39.0412
-29.4312
-16.425
0.982521
23.9497
53.688
91.2998
137.56
192.659
255.95
325.738
399.166
472.246
540.065
597.164
638.064
657.884
652.97
621.439
563.556
481.877
381.13
267.821
149.625
34.6225
-69.5175
-156.309
-221.079
-261.376
-277.125
-270.506
-245.591
-207.787
-163.166
-117.769
-76.9625
-44.9304
-24.3358
-16.1941
-19.9472
-33.7131
-54.668
-79.4983
-104.864
-127.815
-146.107
-158.399
-164.313
-164.357
-159.747
-152.157
-143.43
-135.298
-129.148
-125.851
-125.68
-128.311
-132.903
-138.25
-142.957
-145.645
-145.132
-140.588
-131.635
-118.389
-101.44
-81.7778
-60.6706
-39.5209
-19.7098
-2.45355
11.3151
21.026
26.5071
27.9731
25.9735
21.3087
14.9254
7.80622
0.865433
-5.13763
-9.65915
-12.4013
-13.312
-12.5578
-10.4742
-7.5033
-4.12593
-0.796794
2.1095
4.33686
5.76716
6.42038
6.43703
6.04669
5.5278
5.16411
5.20365
5.82481
7.11315
9.05111
11.5209
14.3197
17.1847
19.824
21.9511
23.317
23.7373
23.1114
21.4319
18.7829
15.3293
11.297
6.94842
2.55486
-1.62988
-5.39246
-8.57692
-11.0942
-12.9234
-14.106
-14.7329
-14.9275
-14.8273
-14.5644
-14.2501
-13.9636
-13.7455
-13.5979
-13.4898
-13.3662
-13.1604
-12.8061
-12.2491
-11.4567
-10.4225
-9.16834
-7.74202
-6.21159
-4.6576
-3.16405
-1.80935
-0.658391
0.243475
0.873905
1.23436
1.34827
1.25707
1.01474
0.681667
0.318631
-0.0184037
-0.282322
-0.437533
-0.461394
-0.3446
-0.0908054
0.284323
0.754514
1.28474
1.83351
2.35569
2.80565
3.14086
3.32555
3.33433
3.15544
2.79342
2.2707
1.62804
0.923391
0.229108
-0.372484
-0.794972
-0.954802
-0.77867
-0.210659
0.781668
2.20291
4.02774
6.20146
8.64314
11.2511
13.9104
16.5011
18.9078
21.027
22.7752
24.0936
24.951
25.3451
25.3004
24.8656
24.1087
23.1117
21.9657
20.7645
19.5999
18.557
17.7095
17.1174
16.8236
16.8534
17.2135
17.8929
18.8627
20.0761
21.4674
22.9492
24.4094
25.707
26.6707
27.0988
26.7633
25.4194
22.8193
18.73
12.9556
5.36058
-4.1076
-15.3975
-28.3389
-42.6353
-57.8671
-73.5068
-88.9455
-103.532
-116.617
-127.607
-136.014
-141.495
-143.89
-143.236
-139.771
-133.912
-126.222
-117.364
-108.044
-98.9523
-90.7052
-83.7995
-78.5745
-75.1897
-73.6162
-73.6389
-74.8673
-76.7483
-78.5772
-79.5047
-78.54
-74.5542
-66.2941
-52.4182
-31.5664
-2.47687
35.8502
83.9465
141.649
207.89
280.538
356.352
431.073
499.679
556.802
597.261
616.662
611.975
582.004
527.672
452.075
360.269
258.822
155.17
56.8591
-29.2274
-97.5658
-144.523
-168.661
-170.785
-153.733
-121.954
-80.9219
-36.4742
5.84648
41.3666
66.711
80.0472
81.128
71.1473
52.4397
28.0759
1.41308
-24.3428
-46.5081
-63.1882
-73.4177
-77.1698
-75.2464
-69.0771
-60.4607
-51.2886
-43.2859
-37.8025
-35.6739
-37.1631
-41.9812
-49.3777
-58.2799
-67.4614
-75.7129
-81.9961
-85.5611
-86.0181
-83.3568
-77.9178
-70.323
-61.378
-51.9605
-42.9103
-34.9328
-28.5283
-23.9519
-21.2068
-20.0693
-20.1392
-20.9084
-21.8362
-22.4233
-22.2738
-21.1387
-18.9381
-15.7584
-11.8297
-7.48531
-3.11187
0.904399
4.22716
6.60977
7.92127
8.15646
7.43042
5.95919
4.03032
1.96736
0.0928138
-1.30626
-2.0065
-1.86789
-0.843444
1.02129
3.59794
6.69259
10.0682
13.4696
16.648
19.3835
21.5023
22.8883
23.4884
23.3115
22.4213
20.9256
18.9625
16.6853
14.2486
11.7951
9.44604
7.29474
5.40328
3.80276
2.49613
1.46307
0.66607
0.056897
-0.417244
-0.808477
-1.16426
-1.52477
-1.92159
-2.37744
-2.90662
-3.51585
-4.20506
-4.96815
-5.7934
-6.66381
-7.55735
-8.44761
-9.30481
-10.0974
-10.7945
-11.368
-11.7959
-12.0643
-12.1692
-12.118
-11.9285
-11.6281
-11.2505
-10.8324
-10.4086
-10.0078
-9.64766
-9.33282
-9.05303
-8.78452
-8.49317
-8.13975
-7.68623
-7.10244
-6.37187
-5.49582
-4.49509
-3.40891
-2.29128
-1.20504
-0.214746
0.620955
1.25615
1.66295
1.83448
1.78527
1.5491
1.17465
0.71952
0.243613
-0.197472
-0.558073
-0.806583
-0.92764
-0.922237
-0.805887
-0.605109
-0.352647
-0.0818595
0.179247
0.413796
0.621036
0.819898
1.05055
1.37361
1.86695
2.62053
3.72981
5.28845
7.38102
10.0761
13.4198
17.4308
22.0953
27.364
33.1501
39.3302
45.7469
52.2158
58.5346
64.4961
69.9032
74.5845
78.4086
81.2958
83.225
84.2342
84.4145
83.8985
82.8422
81.4047
79.7263
77.9081
75.997
73.9774
71.7719
69.2525
66.2601
62.6309
58.227
52.9648
46.8388
39.9351
32.4339
24.5982
16.7507
9.24141
2.40872
-3.45899
-8.15838
-11.5971
-13.8076
-14.9465
-15.2801
-15.1558
-14.9653
-15.1011
-15.914
-17.6742
-20.5429
-24.554
-29.6087
-35.4797
-41.8222
-48.1855
-54.0213
-58.6833
-61.4182
-61.3502
-57.4659
-48.612
-33.5188
-10.8654
20.6024
61.8987
113.575
175.472
246.486
324.387
405.757
486.07
559.956
621.635
665.486
686.693
681.87
649.586
590.689
508.387
408.044
296.708
182.431
73.4556
-22.6289
-99.653
-153.462
-182.269
-186.736
-169.77
-136.079
-91.5578
-42.5658
4.78659
45.2774
75.0593
91.9486
95.4986
86.8662
68.5054
43.7397
16.276
-10.2774
-32.8308
-49.1268
-57.9201
-59.0169
-53.1812
-41.9356
-27.2906
-11.4436
3.51175
15.832
24.2998
28.315
27.8996
23.6246
16.4764
7.68686
-1.44898
-9.74295
-16.2513
-20.3664
-21.8562
-20.8518
-17.7904
-13.3264
-8.22351
-3.24635
0.937824
3.83356
5.16225
4.87483
3.13415
0.272589
-3.26716
-6.99879
-10.4572
-13.2539
-15.116
-15.9077
-15.6306
-14.4085
-12.4581
-10.0515
-7.47695
-5.00188
-2.84284
-1.1447
0.0299201
0.701136
0.963659
0.97182
0.91993
1.0202
1.48045
2.4838
4.17238
6.63699
9.91377
13.9884
18.8071
24.2924
30.3608
36.9393
43.9769
51.4492
59.3543
67.7012
76.4914
85.6971
95.2407
104.977
114.686
124.071
132.773
140.395
146.533
150.817
152.946
152.728
150.102
145.156
138.12
129.357
119.329
108.56
97.5873
86.9189
76.9877
68.1187
60.5065
54.2068
49.1419
45.1189
41.8591
39.0332
36.2995
33.3407
29.8953
25.78
20.9033
15.2671
8.95889
2.13517
-5.00057
-12.2233
-19.3119
-26.0709
-32.3491
-38.05
-43.1366
-47.6292
-51.5973
-55.1478
-58.4092
-61.5162
-64.5944
-67.7476
-71.0481
-74.5324
-78.2
-82.0169
-85.9233
-89.8417
-93.6886
-97.3837
-100.86
-104.071
-106.994
-109.631
-112.011
-114.175
-116.174
-118.05
-119.824
-121.473
-122.916
-123.994
-124.454
-123.948
-122.027
-118.161
-111.762
-102.226
-88.9875
-71.5832
-49.7227
-23.3539
7.28128
41.6129
78.7369
117.443
156.28
193.648
227.925
257.597
281.394
298.409
308.183
310.751
306.642
296.828
282.627
265.574
247.274
229.248
212.797
198.891
188.102
180.58
176.07
173.985
173.491
173.625
173.412
171.973
168.61
162.869
154.561
143.756
130.741
115.969
99.976
83.316
66.4898
49.8971
33.8065
18.3498
3.53708
-10.7112
-24.5207
-38.0151
-51.271
-64.2818
-76.9355
-89.0098
-100.186
-110.079
-118.28
-124.408
-128.161
-129.356
-127.961
-124.11
-118.1
-110.362
-101.432
-91.8981
-82.345
-73.301
-65.1818
-58.2399
-52.5207
-47.8242
-43.6752
-39.3055
-33.6526
-25.383
-12.9505
5.30156
30.9877
65.4767
109.649
163.639
226.595
296.51
370.16
443.197
510.413
566.17
604.958
622.028
613.997
579.364
518.827
435.374
334.088
221.713
106.004
-5.05334
-104.049
-184.892
-243.389
-277.608
-287.961
-277.042
-249.209
-210.011
-165.503
-121.563
-83.2679
-54.4179
-37.2397
-32.2979
-38.6046
-53.8983
-75.0434
-98.4923
-120.747
-138.77
-150.287
-153.982
-149.537
-137.561
-119.414
-96.9551
-72.2654
-47.3785
-24.0478
-3.58016
13.2535
26.2282
35.6036
42.0096
46.298
49.3863
52.1133
55.1248
58.801
63.2304
68.2277
73.3896
78.1755
82.0016
84.3329
84.7619
83.0644
79.2276
73.4484
66.105
57.7075
48.8359
40.0734
31.9448
24.8667
19.1143
14.8081
11.9198
10.2946
9.68602
9.7969
10.3218
10.9843
11.5655
11.9218
11.989
11.7767
11.3515
10.8156
10.2816
9.84934
9.587
9.51882
9.62146
9.82848
10.042
10.1495
10.0423
9.63397
8.8746
7.75961
6.33186
4.67691
2.91222
1.17228
-0.408335
-1.71147
-2.64929
-3.17379
-3.28093
-3.0092
-2.43294
-1.65179
-0.777693
0.0786745
0.820323
1.37381
1.6955
1.77369
1.62682
1.29822
0.848293
0.345555
-0.142558
-0.557743
-0.85698
-1.01617
-1.03109
-0.915795
-0.69891
-0.418565
-0.116637
0.166846
0.398479
0.554932
0.624777
0.608638
0.517827
0.371785
0.194777
0.0123455
-0.152043
-0.279748
-0.358889
-0.38536
-0.362986
-0.302949
-0.222635
-0.143987
-0.0914312
-0.0893872
-0.159457
-0.317451
-0.570545
-0.91497
-1.33464
-1.80107
-2.27482
-2.70845
-3.05082
-3.25233
-3.27055
-3.07572
-2.65528
-2.01707
-1.19043
-0.225048
0.812622
1.84508
2.79117
3.57438
4.13091
4.41668
4.41225
4.12486
3.58723
2.85279
1.98777
1.06069
0.130513
-0.764921
-1.61836
-2.4586
-3.35064
-4.38976
-5.69001
-7.36827
-9.52629
-12.2331
-15.5109
-19.3264
-23.589
-28.1571
-32.8503
-37.4679
-41.8093
-45.6958
-48.9895
-51.6087
-53.5372
-54.8272
-55.5951
-56.0108
-56.2807
-56.6255
-57.2538
-58.3352
-59.9733
-62.1841
-64.8825
-67.8791
-70.8916
-73.5692
-75.53
-76.4082
-75.9046
-73.8345
-70.1672
-65.0474
-58.7973
-51.8936
-44.9222
-38.5134
-33.2651
-29.6628
-28.0083
-28.3659
-30.5365
-34.0635
-38.2746
-42.3525
-45.4307
-46.6998
-45.5127
-41.4731
-34.4968
-24.8351
-13.0584
-0.000209442
13.3316
25.8632
36.571
44.5892
49.2962
50.3684
47.7984
41.8744
33.1309
22.2781
10.1265
-2.47994
-14.7076
-25.7479
-34.7991
-41.0226
-43.4889
-41.1333
-32.745
-17.0142
7.35029
41.4278
85.834
140.442
204.122
274.567
348.239
420.499
485.919
538.766
573.607
585.96
572.894
533.499
469.136
383.432
281.995
171.9
60.9777
-42.974
-132.981
-203.576
-251.292
-274.922
-275.509
-256.094
-221.255
-176.508
-127.65
-80.1203
-38.4575
-5.90915
15.7808
26.3896
27.0569
19.985
8.04497
-5.65422
-18.1789
-27.1185
-30.8327
-28.5778
-20.5086
-7.56881
8.70578
26.4393
43.6854
58.6801
70.0479
76.9397
79.092
76.8081
70.8691
62.3945
52.6732
42.9883
34.4596
27.9201
23.8395
22.2995
23.0198
25.4262
28.7495
32.139
34.7771
35.9791
35.2677
32.4159
27.4548
20.6494
12.4477
3.41298
-5.85196
-14.7769
-22.8852
-29.8373
-35.4522
-39.7075
-42.7201
-44.7112
-45.9621
-46.7659
-47.3822
-47.9986
-48.7029
-49.4684
-50.153
-50.5117
-50.2209
-48.913
-46.2177
-41.8065
-35.4363
-26.9871
-16.4906
-4.14501
9.68591
24.4897
39.6382
54.4333
68.1611
80.1503
89.8282
96.7685
100.728
101.664
99.7395
95.3032
88.8569
81.0092
72.4203
63.744
55.5732
48.3932
42.5477
38.2206
35.4334
34.0581
33.8437
34.4514
35.4951
36.5834
37.3568
37.5201
36.8642
35.2794
32.7573
29.384
25.3247
20.8021
16.0709
11.3899
6.99501
3.07462
-0.25
-2.93711
-5.02856
-6.64452
-7.96929
-9.22949
-10.6669
-12.5094
-14.9429
-18.088
-21.9844
-26.584
-31.7538
-37.2889
-42.9321
-48.3996
-53.409
-57.7062
-61.0888
-63.4238
-64.6575
-64.8176
-64.0082
-62.3987
-60.2083
-57.6881
-55.1022
-52.7095
-50.7461
-49.4095
-48.8457
-49.1371
-50.2948
-52.2537
-54.8723
-57.9378
-61.1769
-64.2728
-66.8878
-68.689
-69.3771
-68.7136
-66.5443
-62.8166
-57.5876
-51.0219
-43.3779
-34.9845
-26.2098
-17.4244
-8.96495
-1.10007
5.99477
12.2521
17.7143
22.522
26.8915
31.0832
35.3659
39.9803
45.1083
50.8491
57.2063
64.0871
71.312
78.6344
85.7671
92.4118
98.2892
103.165
106.873
109.324
110.515
110.523
109.494
107.625
105.145
102.286
99.2654
96.2625
93.4021
90.7437
88.2762
85.9186
83.5268
80.9056
77.8265
74.0487
69.3434
63.5192
56.4453
48.0725
38.4469
27.7159
16.1239
3.99833
-8.27425
-20.2791
-31.6085
-41.8962
-50.8484
-58.2659
-64.0548
-68.2256
-70.8802
-72.1891
-72.3636
-71.6263
-70.1846
-68.2101
-65.8273
-63.1096
-60.0833
-56.7342
-53.015
-48.8456
-44.1043
-38.6062
-32.0676
-24.0614
-13.9698
-0.947631
16.0881
38.4252
67.4645
104.56
150.795
206.707
272
345.29
423.939
504.03
580.526
647.621
699.27
729.833
734.771
711.282
658.777
579.138
476.682
357.833
230.536
103.474
-14.8047
-116.754
-196.569
-250.719
-278.209
-280.546
-261.435
-226.234
-181.271
-133.089
-87.7261
-50.1084
-23.6203
-9.889
-8.79147
-18.6643
-36.6748
-59.2941
-82.8071
-103.793
-119.523
-128.23
-129.238
-122.935
-110.621
-94.2572
-76.1492
-58.6257
-43.739
-33.0296
-27.3767
-26.9432
-31.2141
-39.1131
-49.1747
-59.747
-69.1955
-76.0862
-79.329
-78.2688
-72.7216
-62.958
-49.6407
-33.7296
-16.3671
1.24143
17.9411
32.7219
44.7896
53.608
58.9127
60.6986
59.1873
54.7788
47.995
39.4232
29.6624
19.28
8.77973
-1.41729
-10.9791
-19.6589
-27.283
-33.7345
-38.936
-42.8341
-45.3895
-46.5729
-46.3674
-44.7769
-41.8375
-37.6301
-32.2907
-26.0154
-19.0586
-11.7237
-4.34578
2.73106
9.18029
14.7194
19.1332
22.2916
24.1589
24.7932
24.3373
23.0008
21.0364
18.7128
16.2875
13.9829
11.967
10.342
9.14091
8.33103
7.82526
7.4978
7.20293
6.79445
6.1436
5.15371
3.77022
1.98538
-0.162532
-2.595
-5.20318
-7.86042
-10.4361
-12.8085
-14.8764
-16.5665
-17.837
-18.6773
-19.1031
-19.1481
-18.8536
-18.2565
-17.3779
-16.2124
-14.7214
-12.8301
-10.4311
-7.39486
-3.587
1.10808
6.76013
13.3658
20.8255
28.9294
37.3559
45.6854
53.4295
60.0743
65.1324
68.1978
68.9973
67.4298
63.5881
57.7606
50.4094
42.1296
33.5914
25.4741
18.3989
12.8678
9.21675
7.58783
7.92249
9.97697
13.3567
17.5652
22.0607
26.3146
29.8637
32.3523
33.5579
33.4018
31.9418
29.3524
25.8936
21.8751
17.619
13.4258
9.54758
6.16861
3.39671
1.26315
-0.269133
-1.29121
-1.92984
-2.32778
-2.62468
-2.94075
-3.36442
-3.94498
-4.69036
-5.56991
-6.52137
-7.46088
-8.29478
-8.93173
-9.29371
-9.32481
-8.99691
-8.31168
-7.29918
-6.01322
-4.52454
-2.91282
-1.25867
0.363212
1.88903
3.26854
4.46529
5.45467
6.22039
6.74984
7.02893
7.03701
6.74238
6.09916
5.04625
3.50918
1.40544
-1.34687
-4.81737
-9.05038
-14.0522
-19.7813
-26.1425
-32.9879
-40.1243
-47.3265
-54.3559
-60.9822
-67.0045
-72.2715
-76.6961
-80.264
-83.0337
-85.1295
-86.7257
-88.0253
-89.2354
-90.5405
-92.0788
-93.922
-96.0612
-98.3977
-100.738
-102.792
-104.165
-104.352
-102.72
-98.5004
-90.772
-78.4727
-60.4322
-35.4492
-2.41761
39.4957
90.6343
150.62
218.144
290.829
365.2
436.815
500.548
551.033
583.216
592.952
577.56
536.264
470.433
383.585
281.135
169.915
57.5119
-48.4775
-141.204
-215.221
-266.977
-295.079
-300.305
-285.384
-254.574
-213.094
-166.498
-120.064
-78.2573
-44.3456
-20.1788
-6.1579
-1.37356
-3.88409
-11.0853
-20.1193
-28.2684
-33.2882
-33.6449
-28.6379
-18.4041
-3.81503
13.7087
32.4345
50.5711
66.5052
78.9922
87.2813
91.1661
90.9603
87.4095
81.5553
74.5753
67.6198
61.6685
57.4223
55.2413
55.1333
56.7887
59.653
63.0247
66.1624
68.3879
69.1709
68.1873
65.345
60.7785
54.8141
47.9144
40.6098
33.4284
26.831
21.1618
16.6169
13.2346
10.9069
9.40777
8.43568
7.66133
6.77654
5.53663
3.79194
1.5047
-1.24991
-4.29814
-7.39469
-10.2586
-12.6128
-14.2219
-14.9241
-14.6522
-13.4426
-11.4307
-8.83456
-5.9289
-3.01364
-0.380655
1.71678
3.08851
3.62337
3.29519
2.15891
0.338189
-1.99352
-4.63535
-7.3821
-10.045
-12.4679
-14.5376
-16.1872
-17.3934
-18.1679
-18.5456
-18.5707
-18.2824
-17.7031
-16.829
-15.6254
-14.027
-11.9429
-9.26801
-5.89829
-1.75023
3.21801
8.98599
15.4539
22.4322
29.6411
36.7216
43.2584
48.8146
52.9733
55.3823
55.7963
54.1101
50.3789
44.8211
37.8039
29.8118
21.4016
13.1494
5.59616
-0.802867
-5.71844
-8.97275
-10.5479
-10.5772
-9.32069
-7.12877
-4.39886
-1.53012
1.1183
3.26096
4.70864
5.378
5.28838
4.54732
3.32742
1.83827
0.297044
-1.09854
-2.19193
-2.88204
-3.12936
-2.95378
-2.42549
-1.65061
-0.754106
0.137852
0.913701
1.48877
1.81286
1.87276
1.68983
1.31354
0.812103
0.261663
-0.264659
-0.706567
-1.02426
-1.20324
-1.25587
-1.21951
-1.15163
-1.12238
-1.2055
-1.4687
-1.96458
-2.72318
-3.74713
-5.00975
-6.45655
-8.00963
-9.57462
-11.0492
-12.3321
-13.332
-13.975
-14.2099
-14.0115
-13.3811
-12.3446
-10.9485
-9.25412
-7.33198
-5.2555
-3.09658
-0.923048
1.20139
3.21456
5.05123
6.63754
7.88586
8.69157
8.93316
8.47652
7.18358
4.92469
1.59331
-2.87908
-8.51
-15.2572
-23.0156
-31.6195
-40.8516
-50.455
-60.1485
-69.6416
-78.6495
-86.9057
-94.1723
-100.248
-104.974
-108.238
-109.975
-110.169
-108.851
-106.094
-102.004
-96.7189
-90.3927
-83.1873
-75.2602
-66.7509
-57.7641
-48.3483
-38.4683
-27.9717
-16.5505
-3.70476
11.2831
29.3495
51.6127
79.2831
113.514
155.197
204.716
261.696
324.786
391.533
458.386
520.868
573.922
612.395
631.631
628.069
599.778
546.839
471.501
378.085
272.636
162.343
54.8257
-42.6512
-123.918
-184.512
-222.083
-236.549
-229.994
-206.326
-170.742
-129.087
-87.1784
-50.1741
-22.0714
-5.37171
-0.945894
-8.09748
-24.8011
-48.0723
-74.4138
-100.278
-122.492
-138.592
-147.046
-147.338
-139.929
-126.099
-107.715
-86.9499
-65.9935
-46.7974
-30.873
-19.1647
-12.0068
-9.15735
-9.89802
-13.1807
-17.7965
-22.546
-26.3873
-28.5485
-28.5936
-26.4388
-22.3225
-16.7394
-10.3478
-3.86799
2.01745
6.74757
9.94298
11.4367
11.2752
9.69263
7.06394
3.84561
0.511909
-2.50436
-4.85997
-6.33338
-6.83838
-6.41969
-5.23282
-3.51247
-1.5344
0.423522
2.11637
3.35927
4.0441
4.14466
3.7112
2.85576
1.73145
0.50882
-0.647529
-1.59896
-2.24749
-2.54373
-2.48795
-2.12468
-1.53242
-0.810146
-0.0626176
0.61342
1.14074
1.46976
1.58308
1.4967
1.25881
0.946803
0.663268
0.530888
0.686116
1.27121
2.42455
4.26973
6.90458
10.3922
14.7561
19.9812
26.0224
32.8193
40.3159
48.4814
57.3265
66.9125
77.347
88.7667
101.306
115.059
130.033
146.108
163.01
180.298
197.37
213.494
227.866
239.667
248.149
252.702
252.921
248.657
240.032
227.441
211.515
193.066
173.016
152.312
131.848
112.395
94.5484
78.6993
65.0283
53.5235
44.0161
36.2287
29.8278
24.4746
19.8672
15.7711
12.0341
8.58744
5.43452
2.63029
0.255948
-1.60685
-2.89856
-3.59803
-3.73096
-3.37005
-2.62766
-1.64284
-0.565013
0.463142
1.32105
1.92198
2.21985
2.21057
1.92819
1.43682
0.819607
0.166535
-0.437444
-0.922418
-1.24064
-1.37014
-1.31482
-1.10121
-0.772805
-0.382897
0.0130761
0.364541
0.631365
0.787409
0.821865
0.738508
0.553287
0.29087
-0.0191988
-0.346157
-0.661075
-0.939094
-1.16086
-1.31331
-1.39006
-1.39168
-1.32603
-1.20899
-1.0657
-0.932432
-0.859327
-0.913754
-1.18391
-1.78182
-2.84451
-4.53184
-7.01962
-10.4871
-15.0991
-20.9832
-28.206
-36.7499
-46.4957
-57.2141
-68.5685
-80.1316
-91.4137
-101.902
-111.106
-118.607
-124.101
-127.435
-128.628
-127.881
-125.557
-122.154
-118.258
-114.486
-111.42
-109.555
-109.241
-110.651
-113.763
-118.357
-124.036
-130.253
-136.353
-141.603
-145.225
-146.413
-144.333
-138.119
-126.856
-109.579
-85.2892
-53.0065
-11.8745
38.6879
98.7892
167.848
244.387
325.89
408.761
488.43
559.623
616.793
654.67
668.879
656.523
616.667
550.625
462.002
356.47
241.29
124.629
14.7678
-80.7302
-155.756
-206.236
-230.471
-229.212
-205.465
-164.061
-111.052
-53.0107
3.67983
53.4632
92.1062
117.01
127.31
123.782
108.565
84.7651
55.9943
25.8941
-2.28341
-26.0048
-43.6602
-54.6337
-59.2463
-58.5906
-54.2908
-48.2254
-42.2496
-37.9544
-36.4854
-38.4389
-43.8383
-52.1852
-62.5694
-73.8176
-84.6577
-93.8772
-100.458
-103.673
-103.145
-98.857
-91.1259
-80.5471
-67.9145
-54.1292
-40.1056
-26.683
-14.5494
-4.18423
4.17639
10.5482
15.1805
18.5122
21.1068
23.5726
26.4777
30.2688
35.2048
41.314
48.3801
55.9614
63.4394
70.0934
75.1901
78.0773
78.2701
75.5168
69.838
61.5316
51.1458
39.4214
27.213
15.3982
4.78669
-3.9602
-10.39
-14.2932
-15.7083
-14.8986
-12.3041
-8.47662
-4.00576
0.554304
4.74844
8.2673
10.9722
12.8964
14.2239
15.2494
16.3263
17.809
19.9984
23.0959
27.1725
32.1556
37.8338
43.8794
49.8833
55.3984
59.9862
63.26
64.9213
64.7851
62.7943
59.0204
53.654
46.9861
39.3817
31.2506
23.0162
15.0849
7.82012
1.51939
-3.60097
-7.41489
-9.88826
-11.0736
-11.0988
-10.1509
-8.45646
-6.26154
-3.81118
-1.3319
0.98235
2.97994
4.55654
5.65572
6.26577
6.41355
6.15639
5.57304
4.75445
3.79506
2.78527
1.80526
0.920514
0.178984
-0.390006
-0.775366
-0.982507
-1.03055
-0.948802
-0.772839
-0.540536
-0.288388
-0.0483887
0.154298
0.302754
0.388767
0.41238
0.380679
0.306008
0.203868
0.0907351
-0.0179419
-0.109385
-0.174622
-0.209044
-0.212398
-0.188262
-0.14315
-0.0853808
-0.0239208
0.0326469
0.076852
0.102683
0.105526
0.0817807
0.0283004
-0.0581065
-0.180887
-0.343464
-0.548361
-0.795794
-1.08194
-1.39724
-1.72525
-2.04241
-2.31917
-2.52258
-2.62019
-2.58491
-2.40016
-2.06452
-1.59512
-1.02915
-0.423187
0.149626
0.604033
0.847999
0.788056
0.333881
-0.598344
-2.08387
-4.18832
-6.96705
-10.4642
-14.7108
-19.7214
-25.4894
-31.9805
-39.1258
-46.8156
-54.8937
-63.1561
-71.3534
-79.1987
-86.3823
-92.5908
-97.5308
-100.955
-102.684
-102.63
-100.805
-97.3284
-92.4145
-86.3604
-79.5169
-72.2578
-64.944
-57.8889
-51.3259
-45.3798
-40.0421
-35.1503
-30.3684
-25.1694
-18.8217
-10.3828
1.28916
17.4968
39.623
69.0009
106.73
153.446
209.075
272.596
341.875
413.611
483.429
546.164
596.296
628.524
638.392
622.901
580.993
513.842
424.899
319.655
205.153
89.3063
-19.9054
-115.248
-190.959
-243.292
-270.826
-274.495
-257.358
-224.145
-180.63
-132.944
-86.8856
-47.3266
-17.7756
-0.131521
5.35142
-0.0939416
-14.0643
-33.408
-54.6917
-74.6518
-90.5766
-100.58
-103.745
-100.133
-90.6649
-76.9189
-60.8556
-44.5314
-29.8266
-18.2252
-10.6663
-7.48008
-8.40736
-12.6911
-19.2218
-26.7124
-33.8782
-39.5974
-43.0363
-43.7244
-41.5781
-36.8729
-30.1757
-22.2466
-13.9287
-6.03836
0.729637
5.87205
9.11694
10.4312
9.99858
8.17414
5.42312
2.25343
-0.849434
-3.47725
-5.33834
-6.27794
-6.27922
-5.44672
-3.97582
-2.11339
-0.115193
1.79403
3.45291
4.78412
5.80151
6.60307
7.35181
8.24737
9.49313
11.2634
13.6753
16.7694
20.5007
24.7416
29.296
33.921
38.3551
42.3465
45.6803
48.1989
49.8157
50.5184
50.3642
49.4673
47.9804
46.0742
43.9163
41.6539
39.4004
37.2282
35.1681
33.2138
31.331
29.469
27.5732
25.5961
23.5059
21.2919
18.965
16.5553
14.1061
11.6662
9.28175
6.98884
4.80831
2.74337
0.780303
-1.10791
-2.95568
-4.79766
-6.66138
-8.56086
-10.4919
-12.4298
-14.3298
-16.1296
-17.754
-19.1214
-20.15
-20.7645
-20.9025
-20.5188
-19.5893
-18.1125
-16.1098
-13.6243
-10.7177
-7.46691
-3.95884
-0.285848
3.45895
7.18539
10.8086
14.2498
17.4358
20.2978
22.7695
24.7865
26.2868
27.2132
27.5177
27.167
26.1492
24.4785
22.1999
19.3901
16.1548
12.6232
8.93876
5.24801
1.68783
-1.6264
-4.61083
-7.21997
-9.44947
-11.3343
-12.9431
-14.3686
-15.7161
-17.0914
-18.5885
-20.2804
-22.212
-24.3966
-26.8159
-29.4236
-32.15
-34.9095
-37.6069
-40.1447
-42.4277
-44.3676
-45.8845
-46.9082
-47.3774
-47.2389
-46.4461
-44.9585
-42.7424
-39.7732
-36.0403
-31.5531
-26.3485
-20.4975
-14.1094
-7.33283
-0.351477
6.62516
13.3756
19.6835
25.3553
30.2366
34.2252
37.2772
39.4078
40.6849
41.217
41.1377
40.5882
39.6999
38.5804
37.3028
35.9016
34.3728
32.6813
30.7719
28.5837
26.0656
23.1904
19.9657
16.44
12.7035
8.88235
5.12887
1.60833
-1.51534
-4.09225
-5.99519
-7.1217
-7.38722
-6.70776
-4.97129
-1.99886
2.50148
8.98162
18.0915
30.6956
47.8522
70.7428
100.541
138.221
184.32
238.679
300.208
366.728
434.93
500.5
558.419
603.422
630.568
635.852
616.775
572.763
505.401
418.396
317.288
208.934
100.814
0.267723
-86.2638
-153.875
-199.651
-222.876
-224.996
-209.323
-180.564
-144.201
-105.842
-70.5942
-42.549
-24.422
-17.3857
-21.096
-33.8929
-53.1382
-75.6359
-98.078
-117.46
-131.416
-138.447
-138.016
-130.518
-117.142
-99.6471
-80.0915
-60.5567
-42.8949
-28.5319
-18.343
-12.6098
-11.0542
-12.9371
-17.2026
-22.6456
-28.0772
-32.4711
-35.0711
-35.4538
-33.5422
-29.5744
-24.0374
-17.5763
-10.8958
-4.66456
0.564447
4.40964
6.68924
7.42132
6.79904
5.14702
2.86653
0.377481
-1.93511
-3.764
-4.90793
-5.28323
-4.91921
-3.93967
-2.534
-0.922574
0.679029
2.09234
3.20113
3.96655
4.43071
4.70873
4.97056
5.41526
6.24126
7.61678
9.65427
12.3924
15.7881
19.7193
23.9978
28.3915
32.6511
36.5391
39.8562
42.463
44.2925
45.3544
45.7286
45.5514
44.9953
44.2461
43.4797
42.8421
42.4351
42.3082
42.4577
42.8331
43.3477
43.8929
44.3539
44.6239
44.6159
44.2711
43.5624
42.4937
41.0962
39.4209
37.5306
35.4908
33.362
31.1929
29.017
26.8509
24.6957
22.5411
20.3704
18.1671
15.9215
13.6355
11.3266
9.029
6.7916
4.67418
2.74069
1.05121
-0.346798
-1.42675
-2.18969
-2.66843
-2.92835
-3.06438
-3.19436
-3.44922
-3.96116
-4.85107
-6.21682
-8.12382
-10.599
-13.6292
-17.1634
-21.1194
-25.3933
-29.8707
-34.438
-38.9929
-43.4519
-47.7552
-51.8669
-55.7729
-59.4747
-62.982
-66.3047
-69.4447
-72.3907
-75.1142
-77.5691
-79.6935
-81.4146
-82.6545
-83.337
-83.395
-82.7763
-81.4487
-79.4026
-76.6519
-73.2323
-69.199
-64.6215
-59.5795
-54.1568
-48.4362
-42.4947
-36.3981
-30.1969
-23.922
-17.5818
-11.1596
-4.61408
2.11921
9.12178
16.4837
24.2916
32.6145
41.4892
50.9061
60.7995
71.0418
81.4446
91.766
101.724
111.015
119.334
126.394
131.948
135.798
137.81
137.916
136.117
132.476
127.118
120.213
111.972
102.63
92.438
81.6434
70.4817
59.164
47.8688
36.7377
25.8748
15.35
5.20586
-4.53276
-13.8492
-22.7254
-31.135
-39.0386
-46.3832
-53.1034
-59.126
-64.3755
-68.7809
-72.282
-74.8362
-76.4238
-77.0506
-76.7477
-75.5652
-73.5572
-70.7562
-67.1358
-62.5611
-56.7319
-49.1268
-38.9593
-25.1634
-6.42494
18.724
51.7407
93.8374
145.697
207.174
277.026
352.739
430.499
505.343
571.516
622.995
654.144
660.397
638.899
588.98
512.402
413.331
298.006
174.167
50.2808
-65.314
-165.259
-243.902
-297.826
-326.107
-330.291
-314.099
-282.898
-243.031
-201.067
-163.079
-134.034
-117.341
-114.614
-125.658
-148.651
-180.502
-217.313
-254.891
-289.244
-317.001
-335.727
-344.096
-341.924
-330.071
-310.246
-284.731
-256.081
-226.824
-199.193
-174.927
-155.132
-140.241
-130.038
-123.757
-120.23
-118.071
-115.865
-112.347
-106.553
-97.9195
-86.3358
-72.1319
-56.0186
-38.984
-22.1613
-6.68714
6.43367
16.4399
22.8909
25.7016
25.1335
21.746
16.3166
9.74122
2.92893
-3.29673
-8.2774
-11.5725
-12.9802
-12.5268
-10.4292
-7.03598
-2.76017
1.98977
6.86878
11.6378
16.1849
20.525
24.7777
29.1311
33.796
38.9579
44.7362
51.1544
58.1259
65.458
72.8711
80.0311
86.5891
92.223
96.6748
99.7784
101.475
101.816
100.948
99.0965
96.53
93.5315
90.3661
87.2559
84.3613
81.773
79.5125
77.5408
75.7746
74.1042
72.4143
70.6012
68.5869
66.3275
63.8149
61.0739
58.1529
55.1131
52.015
48.9071
45.8167
42.7453
39.6689
36.544
33.3175
29.94
26.3787
22.6302
18.7275
14.7436
10.7873
6.99422
3.5125
0.486086
-1.96252
-3.74754
-4.83099
-5.22817
-5.00678
-4.27988
-3.19372
-1.91204
-0.598994
0.597379
1.55888
2.20681
2.50657
2.46693
2.13455
1.58463
0.90919
0.204509
-0.440654
-0.95479
-1.29032
-1.4267
-1.36998
-1.14914
-0.810097
-0.408202
-0.000436614
0.361788
0.638372
0.804264
0.85093
0.785624
0.62876
0.409888
0.162833
-0.079458
-0.289936
-0.451994
-0.563306
-0.638704
-0.711802
-0.835005
-1.07754
-1.52118
-2.25367
-3.35993
-4.91188
-6.95783
-9.51289
-12.5516
-16.0042
-19.7572
-23.6584
-27.5261
-31.1616
-34.3635
-36.9423
-38.7348
-39.615
-39.5033
-38.371
-36.2407
-33.1839
-29.3142
-24.7781
-19.7441
-14.3908
-8.8957
-3.42437
1.87809
6.89317
11.5322
15.7365
19.4738
22.7322
25.511
27.8104
29.6209
30.9131
31.6315
31.6915
30.982
29.3742
26.7345
22.942
17.9079
11.5935
4.02541
-4.69472
-14.3879
-24.803
-35.6291
-46.514
-57.0862
-66.9789
-75.8534
-83.4203
-89.457
-93.8211
-96.4582
-97.4046
-96.7847
-94.8012
-91.7213
-87.8567
-83.5401
-79.0999
-74.8335
-70.9826
-67.7111
-65.0853
-63.0562
-61.4415
-59.906
-57.9397
-54.8339
-49.6623
-41.2749
-28.3181
-9.29511
17.3198
52.9079
98.477
154.395
220.121
293.983
373.045
453.133
529.028
594.848
644.601
672.824
675.264
649.474
595.25
514.829
412.811
295.789
171.736
49.2224
-63.4543
-159.101
-232.331
-280.05
-301.667
-299.023
-276.053
-238.226
-191.856
-143.362
-98.5634
-62.1043
-37.054
-24.7204
-24.6828
-35.0217
-52.7035
-74.0604
-95.3024
-112.997
-124.46
-128.026
-123.164
-110.452
-91.4105
-68.2455
-43.521
-19.8214
0.56109
15.8778
25.0869
27.9183
24.8401
16.9407
5.74704
-6.99202
-19.5287
-30.3183
-38.1776
-42.3863
-42.7232
-39.4408
-33.1868
-24.8875
-15.6101
-6.42316
1.72817
8.11956
12.308
14.1524
13.7967
11.62
8.16495
4.0545
-0.0920579
-3.73266
-6.45863
-8.02816
-8.37569
-7.59874
-5.92622
-3.67423
-1.19622
1.16581
3.12315
4.47067
5.10344
5.0187
4.30498
3.12081
1.66709
0.157154
-1.21122
-2.2785
-2.93819
-3.14245
-2.89845
-2.25696
-1.29518
-0.0972822
1.26426
2.74323
4.32772
6.04045
7.93144
10.0645
12.4998
15.2762
18.3957
21.813
25.4321
29.1112
32.6742
35.9286
38.6862
40.7851
42.1085
42.5987
42.2644
41.1791
39.4732
37.3184
34.9087
32.4386
30.0828
27.9795
26.2185
24.8357
23.815
23.095
22.5815
22.1619
21.7205
21.1525
20.3752
19.3345
18.0078
16.4021
14.5489
12.4965
10.3022
8.02392
5.71433
3.41614
1.16061
-1.03199
-3.14987
-5.18593
-7.13352
-8.98246
-10.7161
-12.3096
-13.7306
-14.9413
-15.9022
-16.5777
-16.9412
-16.9813
-16.7064
-16.1479
-15.3623
-14.4305
-13.4545
-12.5532
-11.854
-11.484
-11.5597
-12.175
-13.3907
-15.2234
-17.6365
-20.533
-23.751
-27.0638
-30.1848
-32.7802
-34.4886
-34.9485
-33.831
-30.8768
-25.9324
-18.9811
-10.1658
0.203378
11.6564
23.5894
35.3079
46.0823
55.2131
62.0961
66.2823
67.5234
65.7991
61.32
54.5087
45.9576
36.3704
26.4936
17.0452
8.64846
1.77976
-3.26684
-6.39301
-7.68816
-7.40188
-5.90128
-3.61885
-0.997703
1.5594
3.73149
5.30717
6.19646
6.42651
6.12293
5.48015
4.72533
4.08046
3.72752
3.78032
4.26569
5.1154
6.16914
7.1876
7.8743
7.90387
6.95424
4.73994
1.04327
-4.25927
-11.1781
-19.6006
-29.2919
-39.9052
-51.0025
-62.0829
-72.6164
-82.0814
-90.0007
-95.9752
-99.7115
-101.041
-99.9309
-96.4841
-90.9311
-83.6115
-74.9501
-65.4268
-55.5435
-45.7919
-36.6226
-28.4177
-21.468
-15.9531
-11.9228
-9.27717
-7.74384
-6.85128
-5.90197
-3.95131
0.19724
7.96748
20.9425
40.742
68.8416
106.339
153.689
210.445
275.043
344.694
415.415
482.241
539.603
581.865
603.943
601.946
573.728
519.281
440.9
343.078
232.142
115.66
1.70067
-101.977
-188.697
-253.502
-293.597
-308.533
-300.132
-272.16
-229.819
-179.101
-126.106
-76.4004
-34.4782
-3.39585
15.4049
22.0736
18.1489
6.21688
-10.5169
-28.6834
-45.1768
-57.5041
-64.0231
-64.0513
-57.8455
-46.4675
-31.5644
-15.0987
-15.0987
-15.0987
-15.0987
-15.0987
-15.0987
-15.0987
-15.0987
-15.0987
-15.0987
-15.0987
-15.0987
-15.0987
-15.0987
-15.0987
-15.0987
-15.0987
-15.0987
-15.0987
-15.0987
