70.6705
43.8737
14.6103
-15.9588
-46.4531
-75.403
-101.4
-123.246
-140.082
-151.475
-157.46
-158.525
-155.546
-149.68
-142.231
-134.507
-127.688
-122.707
-120.174
-120.338
-123.083
-127.976
-134.334
-141.32
-148.049
-153.685
-157.529
-159.09
-158.112
-154.589
-148.73
-140.918
-131.638
-121.406
-110.698
-99.898
-89.2577
-78.8876
-68.7672
-58.7768
-48.7417
-38.4816
-27.8572
-16.8065
-5.36483
6.3313
18.0583
29.5325
40.4457
50.5034
59.4588
67.1392
73.4601
78.4265
82.1223
84.6891
86.2988
87.1241
87.3108
86.9562
86.0949
84.6956
82.667
79.8737
76.1584
71.3682
65.3823
58.1362
49.6417
39.9975
29.3918
18.0946
6.44141
-5.19051
-16.4102
-26.8429
-36.1587
-44.0969
-50.4838
-55.2424
-58.393
-60.0454
-60.3832
-59.6426
-58.0875
-55.9842
-53.5772
-51.0706
-48.6137
-46.295
-44.1424
-42.1313
-40.1967
-38.2501
-36.1968
-33.9534
-31.4617
-28.6982
-25.6788
-22.4574
-19.1196
-15.7725
-12.5321
-9.5103
-6.80327
-4.48227
-2.58843
-1.13146
-0.092156
0.571866
0.918541
1.01292
0.919269
0.694808
0.385693
0.0256312
-0.363095
-0.766742
-1.17618
-1.58288
-1.97562
-2.33866
-2.65163
-2.89112
-3.03365
-3.05941
-2.9559
-2.72096
-2.3645
-1.90848
-1.38531
-0.834618
-0.299036
0.180505
0.569297
0.842579
0.987985
1.00648
0.911725
0.728252
0.48875
0.231249
-0.00332599
-0.172808
-0.234543
-0.145476
0.137919
0.659206
1.4604
2.57882
4.04228
5.86319
8.03229
10.5134
13.2402
16.1163
19.0193
21.8079
24.3326
26.448
28.0259
28.9664
29.2073
28.7291
27.5564
25.755
23.4258
20.6949
17.7037
14.5965
11.5106
8.56705
5.86363
3.47142
1.43379
-0.231623
-1.52868
-2.47702
-3.10575
-3.4474
-3.53296
-3.3887
-3.03475
-2.4857
-1.75273
-0.846739
0.218064
1.42071
2.73034
4.10344
5.48111
6.78647
7.92229
8.76978
9.18991
9.02908
8.13115
6.35784
3.61915
-0.0856418
-4.61809
-9.64605
-14.5931
-18.6034
-20.5365
-19.0052
-12.4669
0.628936
21.6429
51.5161
90.5345
138.125
192.72
251.724
311.606
368.138
416.745
452.958
472.903
473.771
454.201
414.528
356.835
284.818
203.455
118.524
36.0249
-38.421
-100.129
-145.792
-173.755
-184.101
-178.541
-160.129
-132.846
-101.106
-69.2517
-41.0939
-19.5501
-6.41303
-2.26926
-6.56381
-17.7902
-33.7725
-51.9978
-69.9532
-85.4282
-96.7478
-102.916
-103.662
-99.3885
-91.048
-79.9583
-67.5952
-55.3861
-44.532
-35.8771
-29.8374
-26.3923
-25.1332
-25.3568
-26.187
-26.7067
-26.0808
-23.6559
-19.0273
-12.0663
-2.91121
8.07387
20.3631
33.3445
46.3965
58.9558
70.5688
80.9234
89.8588
97.3566
103.515
108.516
112.58
115.931
118.761
121.204
123.319
125.09
126.429
127.192
127.202
126.273
124.236
120.956
116.359
110.433
103.242
94.9126
85.6317
75.63
65.1661
54.5095
43.9248
33.6577
23.9246
14.9047
6.73506
-0.490922
-6.72388
-11.9563
-16.219
-19.5764
-22.12
-23.9617
-25.2253
-26.0383
-26.5232
-26.7895
-26.9268
-27.0003
-27.0476
-27.0787
-27.0784
-27.0118
-26.8304
-26.4805
-25.9114
-25.0826
-23.9702
-22.5706
-20.9021
-19.0038
-16.9324
-14.7572
-12.5539
-10.398
-8.35886
-6.49416
-4.84655
-3.44156
-2.28757
-1.37748
-0.691751
-0.202349
0.122791
0.315481
0.403534
0.408014
0.341752
0.209296
0.00830338
-0.267815
-0.626366
-1.07147
-1.60038
-2.20069
-2.84881
-3.51021
-4.14144
-4.69385
-5.11852
-5.37189
-5.42128
-5.24945
-4.85768
-4.26667
-3.5151
-2.65585
-1.75018
-0.860472
-0.0423618
0.662908
1.23485
1.67802
2.02362
2.32801
2.66837
3.13572
3.82642
4.83301
6.23555
8.09448
10.4457
13.2982
16.6336
20.4089
24.5592
29.0028
33.6463
38.3899
43.1328
47.777
52.231
56.4101
60.2359
63.6325
66.5217
68.8177
70.4234
71.2291
71.1163
69.9671
67.6776
64.1753
59.4375
53.5066
46.5012
38.6179
30.1255
21.348
12.641
4.36251
-3.15758
-9.64635
-14.9102
-18.8492
-21.461
-22.8354
-23.139
-22.5938
-21.4523
-19.971
-18.3879
-16.9032
-15.6675
-14.776
-14.269
-14.1381
-14.3352
-14.7841
-15.3918
-16.0589
-16.6869
-17.1822
-17.4537
-17.4017
-16.896
-15.7432
-13.643
-10.1434
-4.60437
3.81462
16.1271
33.4416
56.8302
87.1485
124.829
169.675
220.689
275.982
332.779
387.558
436.313
474.92
499.576
507.254
496.103
465.747
417.427
353.96
279.517
199.228
118.679
43.3534
-21.9228
-73.4437
-108.958
-127.83
-131.016
-120.861
-100.764
-74.7346
-46.9198
-21.1487
-0.548636
12.727
17.6352
14.2406
3.58497
-12.5439
-31.9055
-52.122
-70.9742
-86.6447
-97.8843
-104.089
-105.291
-102.066
-95.3964
-86.485
-76.5762
-66.7858
-57.9703
-50.6439
-44.9491
-40.68
-37.3488
-34.2837
-30.7416
-26.0222
-19.566
-11.0284
-0.319133
12.3919
26.7035
42.0382
57.7166
73.039
87.3646
100.178
111.135
120.089
127.086
132.339
136.189
139.047
141.337
143.442
145.654
148.146
150.957
153.995
157.052
159.836
162.006
163.215
163.14
161.523
158.188
153.061
146.17
137.644
127.7
116.623
104.751
92.4441
80.067
67.9663
56.452
45.7836
36.16
27.7142
20.5127
14.5592
9.80228
6.14556
3.45967
1.59503
0.394193
-0.29727
-0.621788
-0.703375
-0.64378
-0.521102
-0.390496
-0.28647
-0.226219
-0.213471
-0.242402
-0.301284
-0.375649
-0.450843
-0.513929
-0.554966
-0.567716
-0.549853
-0.502785
-0.431199
-0.342429
-0.245787
-0.151926
-0.0723272
-0.0189345
-0.00394101
-0.0396972
-0.138688
-0.313516
-0.576837
-0.941178
-1.41862
-2.02032
-2.75582
-3.63225
-4.65346
-5.81899
-7.12325
-8.55472
-10.0955
-11.721
-13.4004
-15.0973
-16.7712
-18.3796
-19.8803
-21.235
-22.4122
-23.3902
-24.1597
-24.7249
-25.1033
-25.324
-25.4243
-25.445
-25.425
-25.3954
-25.3748
-25.3651
-25.3498
-25.2939
-25.1475
-24.8494
-24.3345
-23.5404
-22.4138
-20.9167
-19.0279
-16.7435
-14.0728
-11.0331
-7.64261
-3.9145
0.147561
4.55014
9.30705
14.4326
19.9321
25.7911
31.9652
38.3733
44.8945
51.3707
57.6147
63.4224
68.5878
72.9188
76.2517
78.4625
79.4747
79.2623
77.849
75.304
71.7354
67.2819
62.1045
56.3774
50.2807
43.9931
37.6859
31.5182
25.6329
20.1531
15.1803
10.7924
7.0421
3.95723
1.54036
-0.230155
-1.39863
-2.02977
-2.20566
-2.02202
-1.58404
-1.00172
-0.385347
0.158733
0.531546
0.643686
0.416037
-0.220993
-1.3293
-2.9649
-5.17799
-8.00866
-11.475
-15.5499
-20.1243
-24.9559
-29.6058
-33.374
-35.2468
-33.8788
-27.6318
-14.6922
6.72218
38.0755
80.1746
132.83
194.585
262.573
332.579
399.303
456.842
499.334
521.67
520.184
493.215
441.435
367.91
277.849
178.084
76.3493
-19.5628
-102.636
-167.366
-210.296
-230.301
-228.58
-208.387
-174.538
-132.763
-89.0033
-48.7278
-16.365
5.10232
14.3347
11.6227
-1.32064
-21.7181
-46.1814
-71.1942
-93.5621
-110.776
-121.254
-124.435
-120.737
-111.396
-98.2039
-83.215
-68.4391
-55.574
-45.8045
-39.6883
-37.1347
-37.4703
-39.5756
-42.0678
-43.5037
-42.5738
-38.2656
-29.9778
-17.5757
-1.38475
17.8694
39.1658
61.3188
83.1195
103.467
121.479
136.562
148.45
157.196
163.128
166.783
168.817
169.916
170.712
171.712
173.255
175.486
178.36
181.663
185.056
188.121
190.418
191.531
191.114
188.917
184.808
178.77
170.899
161.383
150.483
138.508
125.789
112.664
99.4509
86.4439
73.8981
62.026
50.9962
40.9336
31.9221
24.0089
17.2083
11.5062
6.8642
3.22277
0.504381
-1.38376
-2.54697
-3.09996
-3.16331
-2.8593
-2.30725
-1.61875
-0.892902
-0.212213
0.36053
0.783978
1.03833
1.12376
1.05722
0.868076
0.592874
0.269903
-0.0658905
-0.387065
-0.676482
-0.928435
-1.14805
-1.34905
-1.55032
-1.77163
-2.02932
-2.33244
-2.67992
-3.05932
-3.44737
-3.81223
-4.11737
-4.32653
-4.40913
-4.34534
-4.13016
-3.77583
-3.31209
-2.7843
-2.24928
-1.76965
-1.40706
-1.21536
-1.23447
-1.48575
-1.96948
-2.66471
-3.53149
-4.51526
-5.55271
-6.57862
-7.53267
-8.36537
-9.04267
-9.54835
-9.88436
-10.0688
-10.1323
-10.1125
-10.0486
-9.9752
-9.91684
-9.88394
-9.87021
-9.85187
-9.78898
-9.62843
-9.30866
-8.76522
-7.93697
-6.77191
-5.23224
-3.29795
-0.96883
1.7352
4.77519
8.0953
11.6256
15.2852
18.9857
22.6343
26.137
29.4011
32.338
34.8647
36.9054
38.3938
39.2751
39.5087
39.0716
37.9625
36.2051
33.8505
30.9783
27.6949
24.1298
20.4285
16.7438
13.2251
10.0077
7.20203
4.88577
3.09798
1.83737
1.06411
0.705414
0.663976
0.828325
1.08385
1.32323
1.45505
1.40989
1.14323
0.63523
-0.112328
-1.08143
-2.24472
-3.57302
-5.04254
-6.64034
-8.3664
-10.2299
-12.2368
-14.3661
-16.5313
-18.5286
-19.9745
-20.2427
-18.4171
-13.2789
-3.35326
12.97
37.2333
70.6367
113.723
166.074
226.076
290.823
356.198
417.157
468.199
503.976
519.957
513.057
482.126
428.229
354.656
266.653
170.911
74.8569
-14.1354
-89.5356
-146.334
-181.529
-194.365
-186.304
-160.748
-122.547
-77.3744
-31.0512
11.102
44.8037
67.1881
76.9843
74.4952
61.3951
40.3855
14.7666
-12.0183
-36.806
-57.0563
-71.0809
-78.143
-78.4287
-72.907
-63.1091
-50.8616
-38.0129
-26.1874
-16.5956
-9.9179
-6.26963
-5.24385
-6.01808
-7.50577
-8.52849
-7.9851
-4.99633
0.991174
10.151
22.2758
36.8233
53.0004
69.8712
86.4725
101.923
115.512
126.764
135.46
141.639
145.562
147.652
148.429
148.435
148.169
148.029
148.28
149.038
150.272
151.828
153.463
154.882
155.78
155.878
154.943
152.808
149.372
144.595
138.485
131.086
122.468
112.721
101.954
90.3051
77.9466
65.097
52.0257
39.0511
26.5297
14.8364
4.33673
-4.64495
-11.8577
-17.1515
-20.4955
-21.9856
-21.8369
-20.3646
-17.9535
-15.0195
-11.9702
-9.16595
-6.88874
-5.32096
-4.53623
-4.50304
-5.09983
-6.13891
-7.39587
-8.64053
-9.6655
-10.3093
-10.4715
-10.1194
-9.28504
-8.05562
-6.55733
-4.93663
-3.34093
-1.9012
-0.71853
0.144275
0.665552
0.8625
0.784625
0.50425
0.105603
-0.326057
-0.714015
-0.997472
-1.1362
-1.11235
-0.929714
-0.610764
-0.192297
0.279856
0.756319
1.18939
1.53754
1.76892
1.86371
1.8151
1.62908
1.32308
0.923604
0.463218
-0.0228153
-0.499964
-0.937502
-1.31096
-1.60367
-1.80728
-1.92118
-1.95086
-1.90539
-1.7941
-1.62284
-1.38997
-1.08267
-0.674069
-0.1219
0.630841
1.65268
3.01793
4.7987
7.05548
9.8274
13.1235
16.9164
21.1396
25.6885
30.4264
35.1936
39.8194
44.1355
47.9885
51.2511
53.829
55.6652
56.7393
57.064
56.6783
55.6402
54.0189
51.8885
49.3231
46.3945
43.1721
39.7236
36.1167
32.4205
28.7055
25.0428
21.5017
18.1457
15.0285
12.1905
9.65562
7.43001
5.50313
3.85007
2.4357
1.21961
0.161012
-0.777062
-1.62501
-2.40566
-3.13503
-3.8247
-4.48539
-5.13148
-5.7862
-6.48701
-7.29057
-8.27582
-9.54328
-11.2076
-13.3805
-16.1404
-19.4869
-23.2808
-27.1728
-30.5314
-32.387
-31.4107
-25.9532
-14.1619
5.81593
35.5497
75.9924
127.145
187.779
255.289
325.718
393.995
454.371
501.025
528.744
533.607
513.553
468.753
401.714
317.106
221.311
121.754
26.1092
-58.5248
-126.369
-173.539
-198.38
-201.533
-185.726
-155.341
-115.809
-72.9289
-32.1875
1.82948
25.8724
38.2677
38.9487
29.291
11.7902
-10.3663
-33.7685
-55.2342
-72.1858
-82.9135
-86.7025
-83.8221
-75.3901
-63.1427
-49.1459
-35.4927
-24.0245
-16.1098
-12.5036
-13.2989
-17.966
-25.4691
-34.4368
-43.3606
-50.794
-55.526
-56.711
-53.941
-47.2589
-37.1144
-24.2763
-9.71377
5.53339
20.48
34.3
46.4007
56.4596
64.4241
70.4786
74.9851
78.4106
81.2491
83.9509
86.8662
90.2094
94.0454
98.2968
102.77
107.192
111.254
114.654
117.132
118.495
118.631
117.51
115.171
111.708
107.246
101.923
95.8706
89.2063
82.0289
74.4231
66.4693
58.2552
49.8874
41.4999
33.2562
25.3459
17.9734
11.342
5.63489
0.995256
-2.49008
-4.80239
-5.99549
-6.19236
-5.57416
-4.36309
-2.80107
-1.12696
0.445038
1.74323
2.65081
3.11151
3.12832
2.75605
2.0888
1.24441
0.347781
-0.484781
-1.15868
-1.61018
-1.81106
-1.76851
-1.52088
-1.12997
-0.671062
-0.221986
0.147367
0.383984
0.458049
0.365951
0.129635
-0.207687
-0.589054
-0.95367
-1.24806
-1.43703
-1.51293
-1.50174
-1.46483
-1.49577
-1.71212
-2.24286
-3.213
-4.727
-6.85345
-9.61285
-12.9705
-16.8355
-21.0661
-25.4815
-29.8776
-34.0464
-37.7954
-40.9651
-43.4436
-45.1743
-46.1579
-46.4475
-46.1378
-45.3485
-44.2065
-42.8262
-41.2918
-39.6444
-37.8736
-35.9175
-33.6689
-30.9899
-27.7312
-23.7559
-18.9631
-13.3094
-6.8245
0.381384
8.11995
16.1372
24.1342
31.7944
38.8132
44.9262
49.9327
53.7106
56.2212
57.5032
57.6569
56.8196
55.1378
52.7388
49.7071
46.0694
41.7923
36.7916
30.9551
24.1727
16.3711
7.54579
-2.21348
-12.7096
-23.6388
-34.6067
-45.1563
-54.8077
-63.1009
-69.6408
-74.1355
-76.4258
-76.5012
-74.5015
-70.703
-65.492
-59.3276
-52.699
-46.081
-39.8942
-34.4724
-30.0414
-26.7126
-24.4889
-23.285
-22.9564
-23.3334
-24.2547
-25.5918
-27.2607
-29.2131
-31.4044
-33.7379
-35.9901
-37.7234
-38.206
-36.3548
-30.7307
-19.6052
-1.1173
26.4783
64.4897
113.432
172.698
240.315
312.873
385.646
452.942
508.647
546.915
562.894
553.405
517.448
456.471
374.336
276.987
171.855
67.0728
-29.3976
-110.611
-171.351
-208.628
-221.897
-212.99
-185.78
-145.628
-98.6937
-51.2064
-8.77641
24.1672
44.7579
51.8612
46.0296
29.2676
4.6496
-24.1474
-53.3368
-79.477
-99.8392
-112.652
-117.208
-113.829
-103.714
-88.6981
-70.9575
-52.7086
-35.9318
-22.155
-12.3151
-6.70676
-5.0148
-6.41772
-9.74197
-13.6431
-16.7886
-18.021
-16.4833
-11.6958
-3.58085
7.56186
21.1218
36.2728
52.0837
67.6286
82.0855
94.8116
105.391
113.65
119.646
123.627
125.981
127.171
127.673
127.914
128.233
128.847
129.839
131.167
132.673
134.12
135.22
135.674
135.2
133.566
130.612
126.255
120.504
113.448
105.25
96.1326
86.3579
76.2103
65.9771
55.9322
46.3223
37.357
29.2016
21.9742
15.7454
10.5404
6.34333
3.10285
0.738455
-0.852427
-1.78728
-2.19146
-2.19151
-1.90901
-1.45532
-0.927202
-0.403702
0.0557246
0.411715
0.644191
0.750338
0.741605
0.639999
0.47403
0.274661
0.0716133
-0.109677
-0.250265
-0.338946
-0.372593
-0.355702
-0.299339
-0.219756
-0.136868
-0.072816
-0.0506984
-0.0935266
-0.223377
-0.460679
-0.823578
-1.32735
-1.98388
-2.80123
-3.78334
-4.93001
-6.23701
-7.69632
-9.29652
-11.0231
-12.8584
-14.782
-16.77
-18.7955
-20.8278
-22.8337
-24.7779
-26.6252
-28.3431
-29.9039
-31.2887
-32.4884
-33.5059
-34.3555
-35.0607
-35.6504
-36.1544
-36.5969
-36.9916
-37.3369
-37.614
-37.7866
-37.8043
-37.6079
-37.1367
-36.3367
-35.1688
-33.615
-31.6823
-29.404
-26.8358
-24.0506
-21.1288
-18.1478
-15.1714
-12.2406
-9.36781
-6.53516
-3.69847
-0.795464
2.24183
5.47253
8.93215
12.6199
16.4898
20.4477
24.3534
28.0299
31.2766
33.8861
35.6626
36.4396
36.0956
34.5657
31.8496
28.0139
23.1908
17.572
11.3981
4.94638
-1.48621
-7.60033
-13.1134
-17.7785
-21.4011
-23.8527
-25.0802
-25.1088
-24.0385
-22.0345
-19.3116
-16.1148
-12.6972
-9.29845
-6.12475
-3.33369
-1.02469
0.763444
2.04782
2.8898
3.37768
3.60556
3.65113
3.55571
3.31048
2.85337
2.0806
0.876517
-0.836484
-3.02873
-5.47952
-7.6891
-8.80229
-7.56548
-2.3413
8.7967
27.8754
56.7416
96.7136
148.209
210.414
281.065
356.406
431.365
499.956
555.874
593.214
607.216
594.929
555.693
491.347
406.148
306.375
199.69
94.3179
-1.83946
-82.0362
-141.37
-177.232
-189.48
-180.312
-153.884
-115.723
-72.0141
-28.8691
8.35024
35.5663
50.3275
51.9326
41.3395
20.8879
-6.11418
-35.8789
-64.6358
-89.079
-106.713
-116.07
-116.776
-109.489
-95.7103
-77.5176
-57.2546
-37.219
-19.3863
-5.2002
4.55195
9.77019
10.9845
9.22312
5.82978
2.25652
-0.139116
-0.267258
2.57079
8.62085
17.6792
29.1553
42.1811
55.7483
68.8523
80.6236
90.4289
97.9308
103.102
106.197
107.685
108.163
108.256
108.528
109.402
111.114
113.687
116.946
120.545
124.027
126.882
128.613
128.793
127.111
123.398
117.638
109.96
100.616
89.9514
78.3691
66.2911
54.1269
42.2468
30.9632
20.5206
11.0934
2.79012
-4.33817
-10.2862
-15.083
-18.7805
-21.4453
-23.1519
-23.9794
-24.0105
-23.3319
-22.0355
-20.2202
-17.9924
-15.4651
-12.756
-9.98402
-7.2644
-4.70352
-2.39353
-0.407663
1.20341
2.41359
3.2216
3.64938
3.73882
3.54712
3.14117
2.59163
1.96709
1.32898
0.727803
0.200895
-0.227908
-0.546845
-0.753321
-0.850014
-0.840729
-0.726747
-0.504428
-0.164661
0.305546
0.919412
1.68515
2.60002
3.64476
4.77956
5.9426
7.05173
8.00964
8.71197
9.05765
8.96003
8.35754
7.22217
5.56475
3.43599
0.923023
-1.85812
-4.77354
-7.68442
-10.4605
-12.9919
-15.1986
-17.0353
-18.4916
-19.5879
-20.3663
-20.8801
-21.1806
-21.3061
-21.2723
-21.0667
-20.6477
-19.9486
-18.8856
-17.3689
-15.3156
-12.6624
-9.37567
-5.45922
-0.956091
4.05417
9.46349
15.1474
20.9792
26.8449
32.6549
38.352
43.9133
49.3457
54.6757
59.9346
65.1403
70.2799
75.2922
80.0557
84.3817
88.0146
90.6415
91.9102
91.4547
88.9279
84.0384
76.5877
66.5048
53.8746
38.9542
22.1768
4.13858
-14.4296
-32.7061
-49.8336
-64.9825
-77.4158
-86.5507
-92.0112
-93.6652
-91.643
-86.3328
-78.3529
-68.502
-57.6907
-46.8614
-36.903
-28.571
-22.4204
-18.76
-17.632
-18.8213
-21.892
-26.2479
-31.2102
-36.1025
-40.3337
-43.4683
-45.2733
-45.7336
-45.0308
-43.4796
-41.4279
-39.1246
-36.5751
-33.4045
-28.7625
-21.3002
-9.24943
9.3805
36.4928
73.5126
120.972
178.147
242.83
311.296
378.519
438.62
485.512
513.653
518.806
498.673
453.317
385.296
299.47
202.519
102.217
6.57395
-77.0525
-142.747
-186.64
-207.242
-205.488
-184.494
-149.071
-105.065
-58.6277
-15.4969
19.618
43.4786
54.5501
53.0092
40.5463
20.0038
-5.09139
-31.0329
-54.4114
-72.5062
-83.5509
-86.8518
-82.7598
-72.5126
-57.9814
-41.3623
-24.8592
-10.3965
0.602906
7.35399
9.75102
8.31903
4.08998
-1.57322
-7.17769
-11.2994
-12.7554
-10.7319
-4.85605
4.79104
17.7158
33.0987
49.911
67.0451
83.4421
98.2019
110.665
120.458
127.503
131.991
134.328
135.062
134.8
134.129
133.547
133.41
133.906
135.042
136.661
138.47
140.083
141.067
140.992
139.476
136.222
131.042
123.872
114.778
103.94
91.641
78.2387
64.1405
49.7743
35.5613
21.892
9.10636
-2.52145
-12.7926
-21.5886
-28.8706
-34.6747
-39.103
-42.3106
-44.4906
-45.8563
-46.6242
-46.9961
-47.1447
-47.2017
-47.2509
-47.326
-47.4131
-47.4583
-47.378
-47.0719
-46.4364
-45.3779
-43.8245
-41.7353
-39.1067
-35.9755
-32.4182
-28.5461
-24.4979
-20.4289
-16.4985
-12.8567
-9.63195
-6.91985
-4.77572
-3.21074
-2.19264
-1.65058
-1.48374
-1.57256
-1.79124
-2.02007
-2.1563
-2.12244
-1.87118
-1.38682
-0.683197
0.201132
1.20983
2.2767
3.33377
4.31851
5.17976
5.88179
6.40635
6.75293
6.9371
6.9877
6.9429
6.84585
6.74022
6.66607
6.65638
6.73459
6.91321
7.19371
7.56765
8.01882
8.52608
9.0664
9.61738
10.1589
10.6731
11.1437
11.5531
11.8802
12.098
12.1724
12.0631
11.7266
11.1205
10.2097
8.9729
7.40794
5.53628
3.40463
1.08399
-1.33417
-3.74418
-6.03424
-8.09538
-9.83034
-11.1613
-12.036
-12.4311
-12.3534
-11.8377
-10.9437
-9.7493
-8.34475
-6.82484
-5.28222
-3.80112
-2.4524
-1.29001
-0.349063
0.354559
0.823122
1.07482
1.14064
1.06068
0.88021
0.645677
0.400972
0.184027
0.0239127
-0.0614233
-0.0666771
0.000171979
0.118192
0.254841
0.368257
0.410273
0.329761
0.0757123
-0.400554
-1.14452
-2.19886
-3.60424
-5.39853
-7.61145
-10.251
-13.2778
-16.5663
-19.8518
-22.6701
-24.2999
-23.7226
-19.6205
-10.4334
5.51074
29.7851
63.585
107.412
160.77
221.939
287.884
354.345
416.142
467.657
503.462
518.999
511.217
479.065
423.762
348.789
259.601
163.081
66.8102
-21.7493
-96.0583
-151.183
-184.275
-194.793
-184.456
-156.923
-117.283
-71.4005
-25.217
15.9083
47.7399
67.5358
74.2145
68.3134
51.7649
27.5301
-0.85166
-29.7347
-55.8032
-76.4221
-89.8683
-95.4291
-93.3684
-84.7792
-71.3546
-55.1117
-38.1087
-22.1898
-8.78592
1.21173
7.49677
10.3165
10.3762
8.6981
6.45749
4.81791
4.78637
7.10337
12.1775
20.0672
30.5066
42.9666
56.7407
71.0409
85.092
98.2129
109.877
119.75
127.693
133.754
138.135
141.138
143.121
144.44
145.408
146.255
147.108
147.98
148.779
149.317
149.343
148.57
146.711
143.516
138.798
132.462
124.513
115.066
104.335
92.6197
80.2796
67.7082
55.3018
43.4311
32.4167
22.5095
13.8788
6.60747
0.69448
-3.93598
-7.4204
-9.93815
-11.692
-12.8884
-13.7199
-14.3504
-14.9044
-15.4613
-16.055
-16.6778
-17.2882
-17.8226
-18.2068
-18.3692
-18.2518
-17.8188
-17.0617
-16.0009
-14.6837
-13.1779
-11.5643
-9.92724
-8.34455
-6.87978
-5.57584
-4.45187
-3.50338
-2.7055
-2.01878
-1.39677
-0.794168
-0.174457
0.484095
1.18477
1.91159
2.63134
3.29813
3.85986
4.26557
4.47282
4.45397
4.20063
3.72558
3.06191
2.25959
1.37989
0.488264
-0.353079
-1.09222
-1.69312
-2.13904
-2.43346
-2.59821
-2.66927
-2.69055
-2.70669
-2.75566
-2.86215
-3.03268
-3.25298
-3.48793
-3.68416
-3.77475
-3.68543
-3.34158
-2.67506
-1.63022
-0.168507
1.72857
4.0583
6.79727
9.90326
13.3181
16.9711
20.783
24.6697
28.5451
32.3247
35.9273
39.277
42.3041
44.9463
47.1492
48.8665
50.0605
50.7027
50.7732
50.2609
49.1626
47.4817
45.2275
42.4135
39.0575
35.1831
30.8221
26.0184
20.8332
15.3487
9.6708
3.92917
-1.72669
-7.1343
-12.128
-16.5506
-20.2653
-23.1662
-25.1874
-26.3079
-26.5542
-25.9979
-24.7513
-22.9601
-20.7935
-18.4351
-16.0716
-13.8846
-12.0427
-10.6966
-9.9775
-9.99691
-10.8487
-12.6098
-15.3378
-19.0611
-23.7592
-29.3295
-35.5397
-41.9686
-47.9413
-52.4727
-54.2364
-51.5828
-42.6264
-25.4178
1.79922
40.2641
90.3508
151.252
220.766
295.247
369.766
438.487
495.233
534.184
550.598
541.464
505.981
445.785
364.877
269.261
166.333
64.0887
-29.7313
-108.46
-167.178
-203.164
-216.076
-207.845
-182.318
-144.695
-100.858
-56.6557
-17.2601
13.3519
32.7291
40.0668
36.1193
22.9343
3.45616
-18.9399
-40.9187
-59.6013
-72.8801
-79.6021
-79.611
-73.6559
-63.192
-50.1102
-36.4352
-24.037
-14.3891
-8.40174
-6.34481
-7.86163
-12.0648
-17.6942
-23.3111
-27.5016
-29.0603
-27.1348
-21.3137
-11.6526
1.36025
16.8895
33.8745
51.169
67.6792
82.4841
94.9234
104.646
111.616
116.081
118.507
119.499
119.703
119.725
120.053
121.007
122.712
125.09
127.889
130.716
133.094
134.523
134.537
132.762
128.955
123.029
115.064
105.295
94.087
81.8932
69.2118
56.5365
44.3123
32.8994
22.5498
13.3978
5.46446
-1.32498
-7.11474
-12.0869
-16.4294
-20.3079
-23.8447
-27.1069
-30.1048
-32.7986
-35.1125
-36.9526
-38.2261
-38.8585
-38.8072
-38.0702
-36.6877
-34.7401
-32.3398
-29.6209
-26.7266
-23.7969
-20.9579
-18.3128
-15.9372
-13.876
-12.1449
-10.7339
-9.61206
-8.73452
-8.04859
-7.50006
-7.03825
-6.61983
-6.21113
-5.78909
-5.34097
-4.86311
-4.35907
-3.8374
-3.3095
-2.78765
-2.28351
-1.80713
-1.36645
-0.967323
-0.613732
-0.308312
-0.0528094
0.151574
0.304099
0.404721
0.454603
0.456827
0.417131
0.344508
0.25149
0.153988
0.0706396
0.0216674
0.0273677
0.106422
0.274284
0.541937
0.915253
1.39515
1.97854
2.66008
3.43432
4.29822
5.25346
6.30844
7.47971
8.79265
10.2813
11.9875
13.9584
16.2435
18.8897
21.9355
25.4041
29.2967
33.5855
38.2093
43.0706
48.0362
52.9415
57.5972
61.7995
65.3418
68.0276
69.6838
70.1734
69.4071
67.3525
64.0406
59.5682
54.0959
47.8406
41.0631
34.0509
27.0983
20.4838
14.4486
9.17734
4.78297
1.29859
-1.32396
-3.20751
-4.53589
-5.53439
-6.44651
-7.50939
-8.9304
-10.8673
-13.4137
-16.5907
-20.3461
-24.5603
-29.0586
-33.6291
-38.0456
-42.0922
-45.5892
-48.4156
-50.5263
-51.959
-52.8262
-53.2899
-53.5143
-53.5976
-53.4865
-52.8832
-51.1596
-47.3026
-39.9139
-27.2875
-7.58026
20.9249
59.4866
108.544
167.394
233.969
304.785
375.098
439.279
491.379
525.808
538.053
525.311
486.95
424.72
342.674
246.796
144.39
43.3019
-48.9198
-125.823
-182.7
-217.02
-228.586
-219.425
-193.417
-155.748
-112.238
-68.6507
-30.0642
-0.371214
18.0388
24.3926
19.4461
5.22536
-15.3562
-38.9477
-62.2146
-82.242
-96.843
-104.743
-105.634
-100.098
-89.4341
-75.4087
-59.9792
-45.0185
-32.0817
-22.2368
-15.975
-13.2047
-13.3207
-15.3334
-18.0356
-20.1815
-20.6551
-18.6068
-13.544
-5.36773
5.6432
18.896
33.5814
48.791
63.6357
77.3513
89.3776
99.4035
107.376
113.472
118.05
121.574
124.539
127.397
130.495
134.037
138.064
142.457
146.963
151.232
154.859
157.437
158.597
158.047
155.599
151.186
144.861
136.795
127.255
116.584
105.166
93.4004
81.6704
70.3168
59.6205
49.7898
40.9563
33.1784
26.4502
20.7152
15.8815
11.8376
8.46674
5.65767
3.31264
1.35114
-0.289307
-1.65504
-2.77964
-3.68796
-4.39993
-4.93348
-5.30643
-5.53717
-5.64453
-5.6469
-5.56123
-5.40219
-5.18163
-4.90867
-4.59022
-4.232
-3.83958
-3.41939
-2.97943
-2.52948
-2.08085
-1.64586
-1.23703
-0.866452
-0.545232
-0.283298
-0.0894558
0.0283144
0.0624879
0.00574144
-0.148978
-0.407881
-0.775176
-1.25137
-1.83123
-2.5018
-3.24083
-4.01619
-4.78658
-5.5037
-6.11592
-6.57304
-6.83169
-6.86044
-6.64414
-6.18647
-5.51048
-4.65681
-3.67978
-2.64176
-1.6065
-0.632214
0.234712
0.964799
1.54865
1.99802
2.34477
2.63802
2.94
3.32121
3.85546
4.61519
5.66726
7.06926
8.86624
11.0878
13.7455
16.8305
20.3121
24.1368
28.2281
32.4885
36.8019
41.0375
45.055
48.7103
51.8623
54.3779
56.1387
57.0448
57.0198
56.0141
54.0079
51.0146
47.0825
42.2971
36.7804
30.6888
24.2081
17.5449
10.916
4.53458
-1.40332
-6.73255
-11.3298
-15.1214
-18.0861
-20.2537
-21.6987
-22.5305
-22.8809
-22.8898
-22.6913
-22.4011
-22.1064
-21.859
-21.6727
-21.525
-21.364
-21.1194
-20.7167
-20.0955
-19.227
-18.1297
-16.8806
-15.6152
-14.5163
-13.7842
-13.5896
-14.0072
-14.9348
-16.0064
-16.5159
-15.3693
-11.0918
-1.9108
14.0707
38.6108
72.9976
117.692
172.008
233.894
299.891
365.29
424.513
471.688
501.33
509.067
492.267
450.498
385.724
302.206
206.114
104.886
6.43157
-81.7263
-153.259
-203.68
-230.764
-234.687
-217.884
-184.646
-140.536
-91.6904
-44.0966
-2.95059
27.8507
46.0215
50.9853
43.7644
26.6911
2.99304
-23.6874
-49.7745
-72.1823
-88.6333
-97.8451
-99.5729
-94.519
-84.1326
-70.3377
-55.2277
-40.772
-28.5676
-19.6646
-14.4793
-12.7982
-13.8632
-16.5207
-19.4076
-21.1501
-20.5468
-16.7151
-9.18697
2.05589
16.6041
33.6941
52.3191
71.3613
89.7275
106.471
120.889
132.578
141.458
147.744
151.894
154.526
156.322
157.932
159.889
162.544
166.031
170.257
174.924
179.575
183.652
186.567
187.765
186.79
183.325
177.223
168.513
157.399
144.231
129.473
113.661
97.3561
81.1047
65.3959
50.6327
37.1102
25.0067
14.3849
5.20471
-2.65672
-9.37799
-15.1647
-20.2212
-24.7267
-28.8178
-32.5792
-36.043
-39.1959
-41.9919
-44.3687
-46.2649
-47.6349
-48.4602
-48.7551
-48.5671
-47.972
-47.0652
-45.9503
-44.7278
-43.4837
-42.2821
-41.1599
-40.1263
-39.165
-38.24
-37.3034
-36.3032
-35.192
-33.9336
-32.5074
-30.9108
-29.1583
-27.2791
-25.3123
-23.3013
-21.2889
-19.3122
-17.3991
-15.567
-13.8224
-12.1634
-10.5823
-9.0694
-7.61712
-6.22288
-4.8913
-3.63483
-2.47277
-1.42898
-0.528551
0.20601
0.758475
1.12192
1.30065
1.31069
1.17888
0.940668
0.637062
0.31126
0.00559497
-0.240627
-0.39201
-0.416561
-0.284044
0.0362731
0.57769
1.37719
2.47501
3.91232
5.72737
7.95054
10.5992
13.6735
17.1534
20.9981
25.147
29.5223
34.032
38.5732
43.0339
47.2942
51.2254
54.6905
57.5447
59.6391
60.8275
60.9769
59.982
57.7807
54.369
49.8126
44.253
37.9055
31.0485
24.005
17.1174
10.7186
5.10299
0.499907
-2.94551
-5.18345
-6.26036
-6.30988
-5.53531
-4.1857
-2.52866
-0.823172
0.704549
1.87968
2.59014
2.78995
2.49509
1.77279
0.726223
-0.523261
-1.85423
-3.16145
-4.36866
-5.43591
-6.36023
-7.16757
-7.89441
-8.55742
-9.11023
-9.38848
-9.04728
-7.50021
-3.87396
3.00235
14.5521
32.3332
57.8387
92.2268
136.008
188.743
248.804
313.281
378.058
438.1
487.928
522.23
536.531
527.825
495.06
439.41
364.272
274.983
178.284
81.6096
-7.71673
-83.269
-140.186
-175.64
-189.053
-182.039
-158.102
-122.126
-79.7394
-36.6384
2.05118
32.2928
51.488
58.6269
54.2369
40.1547
19.1657
-5.43439
-30.2924
-52.41
-69.4675
-80.0293
-83.617
-80.6561
-72.3148
-60.2683
-46.4243
-32.6488
-20.5271
-11.1859
-5.19254
-2.53681
-2.68869
-4.71773
-7.4528
-9.65861
-10.2052
-8.20973
-3.13597
5.1583
16.4265
30.0868
45.313
61.1492
76.6313
90.9005
103.295
113.408
121.113
126.551
130.08
132.209
133.513
134.553
135.794
137.555
139.973
142.999
146.414
149.869
152.937
155.17
156.155
155.556
153.151
148.845
142.672
134.781
125.412
114.868
103.486
91.6086
79.5634
67.6462
56.1128
45.1748
34.9997
25.7119
17.3951
10.0945
3.81786
-1.46167
-5.80264
-9.29008
-12.0283
-14.132
-15.7159
-16.8853
-17.7273
-18.3057
-18.6584
-18.7996
-18.7251
-18.4201
-17.8685
-17.0619
-16.0071
-14.7309
-13.2813
-11.7249
-10.1423
-8.61935
-7.23886
-6.07137
-5.16763
-4.55314
-4.22573
-4.15621
-4.29196
-4.563
-4.88965
-5.19082
-5.39202
-5.43198
-5.26743
-4.8753
-4.2525
-3.41347
-2.38612
-1.20704
0.0831765
1.44383
2.83657
4.22634
5.58096
6.86971
8.06159
9.12387
10.0215
10.7178
11.1767
11.366
11.2613
10.8507
10.1378
9.14468
7.91218
6.4984
4.97521
3.423
1.92434
0.557596
-0.608829
-1.52057
-2.13927
-2.44224
-2.42013
-2.07305
-1.40627
-0.426239
0.862141
2.45647
4.3559
6.55843
9.05716
11.836
14.8656
18.1002
21.4752
24.9063
28.2903
31.5073
34.4244
36.9009
38.7952
39.9728
40.3144
39.7256
38.1449
35.5519
31.9731
27.4852
22.2147
16.3339
10.0527
3.60658
-2.75909
-8.80515
-14.3153
-19.1107
-23.0604
-26.0879
-28.1715
-29.3405
-29.6673
-29.2557
-28.2294
-26.7195
-24.8543
-22.7508
-20.5091
-18.2098
-15.9139
-13.6637
-11.4862
-9.39789
-7.40961
-5.53395
-3.79295
-2.22615
-0.897226
0.103349
0.662923
0.662307
0.00612023
-1.32976
-3.23384
-5.38234
-7.16059
-7.59944
-5.34925
1.28383
14.2181
35.3826
66.4178
108.321
161.089
223.424
292.583
364.406
433.582
494.121
539.996
565.87
567.808
543.853
494.399
422.268
332.495
231.829
128.023
28.998
-58.0067
-127.185
-174.728
-199.139
-201.265
-184.056
-152.102
-111.006
-66.6878
-24.7087
10.3137
35.1248
48.0576
49.049
39.4655
21.7757
-0.875121
-25.1274
-47.8461
-66.4834
-79.3301
-85.6322
-85.5759
-80.153
-70.9379
-59.8129
-48.6817
-39.209
-32.6167
-29.5589
-30.0826
-33.6726
-39.3664
-45.9179
-51.9842
-56.308
-57.8748
-56.0232
-50.502
-41.4693
-29.4405
-15.1961
0.334243
16.1943
31.5145
45.601
57.9921
68.4788
77.0886
84.042
89.6879
94.4307
98.6604
102.693
106.728
110.835
114.949
118.895
122.425
125.257
127.121
127.794
127.134
125.093
121.719
117.147
111.579
105.258
98.4386
91.3601
84.226
77.1903
70.3525
63.7609
57.4228
51.3188
45.4194
39.6997
34.1517
28.7916
23.6614
18.8255
14.3626
10.3551
6.87736
3.98463
1.70473
0.0330002
-1.06849
-1.6676
-1.85533
-1.73656
-1.41956
-1.00583
-0.581368
-0.21049
0.0672726
0.236998
0.305257
0.294727
0.237475
0.167962
0.116742
0.105646
0.144919
0.23242
0.354653
0.489139
0.607499
0.678633
0.671496
0.557191
0.310338
-0.0901513
-0.660594
-1.41209
-2.34985
-3.4723
-4.76997
-6.22451
-7.80817
-9.48411
-11.2078
-12.9297
-14.5987
-16.167
-17.594
-18.8515
-19.9261
-20.8218
-21.5596
-22.1756
-22.7176
-23.2405
-23.7999
-24.4473
-25.2239
-26.1563
-27.2528
-28.5008
-29.8663
-31.294
-32.7091
-34.0211
-35.1288
-35.9255
-36.3071
-36.1783
-35.4608
-34.0995
-32.0677
-29.3703
-26.0446
-22.1577
-17.8006
-13.0805
-8.10983
-2.99674
2.1646
7.30006
12.3579
17.3067
22.1288
26.8108
31.3328
35.6574
39.7218
43.4345
46.6764
49.3082
51.1827
52.1603
52.1256
51.0031
48.7701
45.4645
41.1868
36.0954
30.3978
24.3351
18.1655
12.1449
6.50913
1.45793
-2.85706
-6.34011
-8.95405
-10.7181
-11.7012
-12.0124
-11.7878
-11.1777
-10.3327
-9.39113
-8.46924
-7.65316
-6.99509
-6.51312
-6.19542
-6.00861
-5.90992
-5.862
-5.84813
-5.88505
-6.02987
-6.37699
-7.04158
-8.12649
-9.67145
-11.586
-13.5719
-15.045
-15.0737
-12.3541
-5.24374
8.12566
29.6478
60.9591
103.101
156.171
219.032
289.136
362.531
434.077
497.876
547.878
578.58
585.74
566.985
522.22
453.78
366.281
266.187
161.145
59.1733
-32.1944
-106.694
-159.957
-189.896
-196.811
-183.228
-153.478
-113.105
-68.1718
-24.5542
12.6863
39.7878
54.5806
56.5705
46.819
27.6542
2.26063
-25.7896
-53.0041
-76.3789
-93.704
-103.74
-106.258
-101.947
-92.2225
-78.9606
-64.2075
-49.8954
-37.6049
-28.3969
-22.7287
-20.4567
-20.9173
-23.0669
-25.6587
-27.4301
-27.2744
-24.3789
-18.3122
-9.05649
3.01536
17.2107
32.6224
48.2525
63.1388
76.4664
87.6533
96.4004
102.703
106.822
109.234
110.542
111.394
112.389
114.006
116.541
120.082
124.502
129.489
134.586
139.261
142.968
145.219
145.635
143.988
140.215
134.421
126.849
117.851
107.841
97.2496
86.4806
75.882
65.7234
56.1897
47.3854
39.3484
32.0698
25.5144
19.6408
14.4153
9.82054
5.85649
2.53639
-0.122219
-2.10833
-3.42806
-4.11292
-4.22427
-3.85306
-3.11504
-2.14202
-1.07061
-0.0300269
0.869423
1.54547
1.94968
2.06912
1.92396
1.56136
1.0467
0.453218
-0.148263
-0.698525
-1.15671
-1.50407
-1.74439
-1.90127
-2.01283
-2.12479
-2.28284
-2.52551
-2.8783
-3.34997
-3.93117
-4.59563
-5.30356
-6.00671
-6.65443
-7.19988
-7.60557
-7.84754
-7.91771
-7.82417
-7.58942
-7.24692
-6.83647
-6.39897
-5.97143
-5.58271
-5.25076
-4.98153
-4.76984
-4.60189
-4.45908
-4.32241
-4.17684
-4.01472
-3.83788
-3.65791
-3.49442
-3.3717
-3.31412
-3.34094
-3.46144
-3.67114
-3.94962
-4.26053
-4.55352
-4.768
-4.83793
-4.69713
-4.28405
-3.54577
-2.44065
-0.939795
0.972513
3.29888
6.02908
9.14004
12.5957
16.3464
20.3289
24.4664
28.6703
32.843
36.8827
40.6893
44.1711
47.2515
49.8738
52.0029
53.6243
54.7372
55.3459
55.4488
55.0276
54.0412
52.4244
50.0938
46.9609
42.951
38.0241
32.1954
25.5514
18.257
10.5534
2.74527
-4.82235
-11.7933
-17.8331
-22.6614
-26.0783
-27.9832
-28.3826
-27.3866
-25.1948
-22.0738
-18.3292
-14.2765
-10.2142
-6.40135
-3.04358
-0.286947
1.77993
3.11661
3.71683
3.59222
2.75698
1.2168
-1.0347
-4.00862
-7.69963
-12.0488
-16.8902
-21.8828
-26.4361
-29.6418
-30.2305
-26.5785
-16.7881
1.14199
29.0512
68.2774
119.283
181.311
252.147
328.053
403.923
473.678
530.866
569.402
584.344
572.586
533.378
468.553
382.454
281.531
173.677
67.3761
-29.2189
-109.157
-167.402
-201.304
-210.771
-198.134
-167.746
-125.359
-77.3904
-30.1532
10.8388
41.4201
59.118
63.2697
54.9135
36.4891
11.3983
-16.5078
-43.4454
-66.1551
-82.2488
-90.4144
-90.4655
-83.246
-70.4152
-54.1512
-36.8189
-20.6475
-7.45656
1.53926
5.82979
5.61062
1.69517
-4.64238
-11.8672
-18.3972
-22.803
-23.9694
-21.204
-14.2846
-3.44546
10.6886
27.2074
45.0424
63.0982
80.3718
96.0471
109.556
120.604
129.156
135.401
139.689
142.458
144.165
145.222
145.949
146.547
147.089
147.532
147.744
147.54
146.715
145.082
142.498
138.881
134.212
128.536
121.941
114.545
106.478
97.8611
88.8022
79.3878
69.6883
59.7669
49.6924
39.552
29.4617
19.5715
10.0637
1.14388
-6.97468
-14.0904
-20.0348
-24.6926
-28.0163
-30.0353
-30.8559
-30.6534
-29.6561
-28.1247
-26.328
-24.5184
-22.9106
-21.6645
-20.8756
-20.5714
-20.7158
-21.2191
-21.9534
-22.7691
-23.5143
-24.0507
-24.2686
-24.096
-23.5044
-22.5082
-21.1601
-19.5425
-17.7556
-15.9049
-14.0886
-12.3866
-10.8536
-9.51506
-8.36807
-7.38637
-6.52816
-5.74605
-4.99723
-4.25226
-3.501
-2.75459
-2.0431
-1.40914
-0.898566
-0.549884
-0.384246
-0.39791
-0.5586
-0.806548
-1.06023
-1.22597
-1.21005
-0.931367
-0.332887
0.609895
1.8846
3.44228
5.20221
7.06048
8.90095
10.6073
12.0745
13.2184
13.9827
14.343
14.3072
13.9146
13.2324
12.3517
11.3834
10.4534
9.69801
9.258
9.2714
9.86472
11.1426
13.1771
15.9972
19.5814
23.8536
28.6849
33.901
39.295
44.6447
49.7317
54.3596
58.3692
61.6468
64.1269
65.7855
66.6295
66.6804
65.9579
64.4664
62.1854
59.0694
55.0549
50.0761
44.0862
37.0803
29.1171
20.3337
10.9514
1.26996
-8.34868
-17.5068
-25.8032
-32.8681
-38.3962
-42.1742
-44.0995
-44.1889
-42.5757
-39.4966
-35.2692
-30.2643
-24.8739
-19.4798
-14.425
-9.9913
-6.38321
-3.72094
-2.04123
-1.30565
-1.41489
-2.227
-3.57719
-5.29647
-7.22607
-9.2241
-11.1607
-12.8981
-14.2536
-14.9461
-14.5316
-12.3397
-7.42984
1.41106
15.6058
36.6435
65.8536
104.115
151.542
207.197
268.909
333.245
395.68
450.964
493.672
518.849
522.672
503.026
459.9
395.536
314.29
222.23
126.509
34.5897
-46.559
-111.208
-155.454
-177.573
-178.112
-159.712
-126.697
-84.4903
-38.9462
4.33026
40.5812
66.3503
79.749
80.5173
69.8878
50.2879
24.9287
-2.65743
-29.0714
-51.4379
-67.6916
-76.7343
-78.4565
-73.6358
-63.7365
-50.6458
-36.386
-22.8405
-11.5263
-3.43627
1.03642
2.09097
0.437068
-2.84351
-6.46968
-9.14385
-9.72137
-7.34738
-1.54716
7.73665
20.1601
35.0409
51.4565
68.3634
84.7216
99.6094
112.315
122.397
129.709
134.388
136.811
137.525
137.17
136.394
135.772
135.747
136.589
138.38
141.015
144.234
147.662
150.859
153.374
154.792
154.775
153.085
149.599
144.304
137.291
128.728
118.845
107.912
96.2152
84.0509
71.7115
59.4822
47.6364
36.4324
26.108
16.8728
8.89905
2.3104
-2.82786
-6.51654
-8.82585
-9.8931
-9.91401
-9.12824
-7.80022
-6.19736
-4.56806
-3.12203
-2.01527
-1.34124
-1.12917
-1.34933
-1.92428
-2.74448
-3.68587
-4.62715
-5.46449
-6.12203
-6.5571
-6.76011
-6.74964
-6.56409
-6.2516
-5.85981
-5.42738
-4.97827
-4.51953
-4.04261
-3.52786
-2.95092
-2.29016
-1.53366
-0.684595
0.235723
1.18774
2.1165
2.95714
3.64213
4.10944
4.31047
4.21646
3.82283
3.15058
2.24472
1.16988
0.00377191
-1.17076
-2.27407
-3.2374
-4.00911
-4.55861
-4.87788
-4.98021
-4.89656
-4.6701
-4.34961
-3.98262
-3.60919
-3.25706
-2.93869
-2.65044
-2.37386
-2.07862
-1.72665
-1.2766
-0.687873
0.0763315
1.04761
2.25261
3.71474
5.4568
7.50345
9.88253
12.6243
15.7579
19.3055
23.2739
27.6463
32.3743
37.3724
42.5172
47.6491
52.5802
57.1045
61.0113
64.0986
66.1874
67.1331
66.8357
65.2465
62.3727
58.278
53.0816
46.9532
40.1054
32.7838
25.2539
17.7867
10.6432
4.05855
-1.77176
-6.70361
-10.6517
-13.5922
-15.5605
-16.6437
-16.9689
-16.6896
-15.9701
-14.972
-13.8423
-12.7051
-11.6576
-10.7695
-10.0861
-9.6328
-9.42181
-9.45813
-9.74497
-10.2876
-11.0954
-12.1809
-13.5569
-15.2287
-17.1802
-19.3521
-21.6099
-23.6997
-25.197
-25.4532
-23.555
-18.3144
-8.31108
7.99605
32.0782
65.0756
107.495
158.909
217.729
281.098
344.966
404.364
453.867
488.194
502.874
494.871
463.081
408.605
334.765
246.826
151.482
56.1383
-31.8856
-106.15
-161.772
-195.905
-207.967
-199.593
-174.327
-137.114
-93.6566
-49.7159
-10.4667
20.0377
39.2239
46.1507
41.4551
27.1129
6.0618
-18.2575
-42.376
-63.2284
-78.4926
-86.8023
-87.8192
-82.1688
-71.2608
-57.0276
-41.6228
-27.1195
-15.2489
-7.20644
-3.54384
-4.15312
-8.33475
-14.9342
-22.5229
-29.5977
-34.771
-36.9307
-35.3512
-29.748
-20.2736
-7.46315
7.86095
24.7061
42.0341
58.8752
74.4217
88.0892
99.5457
108.707
115.703
120.828
124.474
127.067
129.007
130.619
132.127
133.637
135.142
136.541
137.667
138.316
138.284
137.388
135.492
132.513
128.425
123.253
117.063
109.95
102.032
93.439
84.3131
74.8062
65.0819
55.3154
45.6925
36.4051
27.6434
19.5856
12.3859
6.16326
0.990537
-3.11138
-6.17599
-8.28817
-9.57635
-10.2006
-10.3379
-10.166
-9.84786
-9.51857
-9.27517
-9.17143
-9.21736
-9.38359
-9.60992
-9.81689
-9.91892
-9.83746
-9.51245
-8.91096
-8.03178
-6.90591
-5.59273
-4.17273
-2.73785
-1.38075
-0.184446
0.78633
1.49108
1.91619
2.07424
2.00021
1.74534
1.36977
0.934692
0.495486
0.0962358
-0.233551
-0.479999
-0.643799
-0.737445
-0.781364
-0.799579
-0.815524
-0.848545
-0.911437
-1.0092
-1.13896
-1.29096
-1.45016
-1.5984
-1.71652
-1.78645
-1.79295
-1.72502
-1.57673
-1.34768
-1.04289
-0.672195
-0.249183
0.210342
0.690356
1.17696
1.66095
2.14024
2.62203
3.12416
3.67555
4.31552
5.09211
6.05935
7.27393
8.79115
10.6606
12.9217
15.5992
18.6988
22.2036
26.0715
30.2332
34.592
39.0251
43.3867
47.5127
51.2271
54.3498
56.7058
58.1351
58.5028
57.7086
55.6959
52.4584
48.0455
42.5639
36.1758
29.0939
21.5713
13.8885
6.33663
-0.800816
-7.26709
-12.8494
-17.3931
-20.8106
-23.0843
-24.2639
-24.4563
-23.8129
-22.5128
-20.7459
-18.6972
-16.5337
-14.396
-12.3932
-10.6025
-9.07246
-7.82821
-6.87844
-6.2225
-5.85703
-5.78117
-5.99974
-6.52375
-7.36726
-8.5392
-10.0282
-11.7785
-13.6541
-15.3929
-16.5509
-16.4471
-14.1202
-8.31802
2.46137
19.8563
45.4476
80.4909
125.602
180.445
243.479
311.835
381.374
446.943
502.841
543.429
563.821
560.543
532.077
479.183
404.951
314.562
214.782
113.256
17.6848
-64.9926
-129.323
-171.864
-191.469
-189.281
-168.476
-133.782
-90.8497
-45.5648
-3.38178
31.237
55.2202
67.0878
66.9469
56.2996
37.706
14.3541
-10.3985
-33.4545
-52.3257
-65.368
-71.8827
-72.0873
-66.972
-58.0741
-47.2051
-36.1736
-26.5381
-19.4199
-15.3936
-14.4621
-16.1114
-19.4281
-23.2606
-26.3965
-27.732
-26.4129
-21.9299
-14.1608
-3.35988
9.90022
24.8216
40.4928
56.0043
70.5504
83.5084
94.485
103.33
110.119
115.107
118.674
121.254
123.273
125.094
126.98
129.073
131.389
133.836
136.232
138.339
139.897
140.651
140.381
138.922
136.174
132.106
126.759
120.228
112.66
104.232
95.1434
85.603
75.8174
65.9856
56.2937
46.9107
37.9859
29.6459
21.992
15.0968
9.00208
3.71755
-0.778532
-4.53567
-7.62454
-10.1277
-12.1285
-13.7002
-14.8968
-15.7472
-16.2547
-16.402
-16.1609
-15.506
-14.43
-12.9584
-11.1591
-9.14683
-7.07908
-5.14416
-3.54209
-2.46102
-2.0521
-2.40676
-3.5397
-5.38057
-7.77588
-10.5017
-13.2855
-15.8353
-17.8719
-19.1597
-19.5343
-18.9203
-17.3396
-14.9083
-11.8224
-8.33504
-4.72799
-1.28046
1.76
4.20176
5.92559
6.89183
7.13796
6.76739
5.9316
4.80809
3.57724
2.40098
1.40574
0.671407
0.227247
0.0545583
0.0952547
0.264674
0.466613
0.60847
0.614541
0.435974
0.0564286
-0.506819
-1.20602
-1.96946
-2.71017
-3.33535
-3.7553
-3.8906
-3.67696
-3.06757
-2.03334
-0.561707
1.34501
3.67096
6.38733
9.45193
12.8082
16.3843
20.0927
23.8311
27.4859
30.9362
34.0603
36.7422
38.878
40.3804
41.1821
41.2368
40.5183
39.0191
36.7492
33.7354
30.0219
25.6719
20.7695
15.4206
9.75256
3.91054
-1.94875
-7.66607
-13.0903
-18.0897
-22.5613
-26.4387
-29.6944
-32.3393
-34.4168
-35.9941
-37.1506
-37.9666
-38.5123
-38.8392
-38.9752
-38.9229
-38.6621
-38.1547
-37.3529
-36.2086
-34.6837
-32.7614
-30.4563
-27.824
-24.9668
-22.0349
-19.2192
-16.7335
-14.7817
-13.5105
-12.9436
-12.9056
-12.9407
-12.2428
-9.61668
-3.49384
7.97528
26.7399
54.5796
92.7695
141.724
200.681
267.49
338.575
409.103
473.374
525.391
559.551
571.365
558.088
519.174
456.479
374.164
278.314
176.31
76.0404
-14.9465
-90.2431
-145.231
-177.504
-187.017
-175.96
-148.376
-109.594
-65.5492
-22.0789
15.7134
43.959
60.3384
64.1862
56.3922
39.1268
15.4428
-11.19
-37.3509
-60.0795
-77.1864
-87.4337
-90.5781
-87.2834
-78.9275
-67.3395
-54.5063
-42.2903
-32.1921
-25.1855
-21.6381
-21.3204
-23.4932
-27.0552
-30.7255
-33.2335
-33.4909
-30.7245
-24.5565
-15.0259
-2.55517
12.1294
28.1081
44.3925
60.0473
74.2934
86.5822
96.6337
104.438
110.222
114.394
117.465
119.973
122.407
125.144
128.408
132.249
136.549
141.045
145.366
149.087
151.783
153.075
152.675
150.416
146.261
140.305
132.753
123.897
114.08
103.659
92.9702
82.3067
71.8989
61.9083
52.4305
43.5057
35.1345
27.295
19.9599
13.1092
6.73915
0.865713
-4.47657
-9.23948
-13.3684
-16.8111
-19.5255
-21.4879
-22.6981
-23.1833
-22.9985
-22.2252
-20.9668
-19.343
-17.4817
-15.5106
-13.549
-11.7004
-10.0464
-8.64337
-7.52053
-6.68139
-6.1067
-5.75941
-5.59062
-5.54591
-5.57139
-5.61882
-5.64939
-5.63577
-5.56261
-5.42545
-5.22843
-4.98137
-4.6966
-4.38612
-4.05948
-3.72263
-3.37785
-3.02456
-2.66071
-2.2845
-1.89583
-1.49722
-1.0939
-0.693102
-0.302558
0.0713056
0.425202
0.760296
1.08268
1.40278
1.73371
2.0888
2.47869
2.90838
3.37501
3.86653
4.36184
4.83259
5.2465
5.57239
5.78631
5.87838
5.85952
5.76688
5.66697
5.65521
5.85119
6.38932
7.40555
9.02127
11.3264
14.3642
18.1195
22.5131
27.4037
32.596
37.8571
42.9368
47.5914
51.6065
54.8174
57.1233
58.4934
58.9651
58.6331
57.6312
56.1102
54.2146
52.0609
49.7217
47.2187
44.5231
41.5662
38.2567
34.5025
30.2332
25.4204
20.0922
14.3394
8.31285
2.21209
-3.73318
-9.28616
-14.2273
-18.3765
-21.6107
-23.8744
-25.1826
-25.6159
-25.3099
-24.4396
-23.2022
-21.8003
-20.4268
-19.2534
-18.4231
-18.0467
-18.2028
-18.9399
-20.2815
-22.2298
-24.7693
-27.8672
-31.4689
-35.4857
-39.7731
-44.0978
-48.0928
-51.2049
-52.6431
-51.3412
-45.9546
-34.9124
-16.5434
10.7158
48.0399
95.8912
153.704
219.644
290.503
361.789
428.033
483.289
521.796
538.694
530.698
496.635
437.74
357.659
262.152
158.531
54.8817
-40.8
-121.468
-181.759
-218.518
-231.049
-221.071
-192.398
-150.399
-101.304
-51.462
-6.62751
28.6227
51.2986
60.1859
55.8139
40.2212
16.5659
-11.3617
-39.6549
-64.772
-83.9274
-95.3518
-98.4045
-93.5349
-82.1145
-66.1704
-48.0634
-30.1568
-14.515
-2.67031
4.52272
6.93371
5.10831
0.140563
-6.51067
-13.2328
-18.4699
-20.9057
-19.6019
-14.0775
-4.32718
9.21631
25.7672
44.3023
63.6906
82.8212
100.713
116.601
129.979
140.622
148.563
154.052
157.493
159.376
160.205
160.445
160.466
160.523
160.74
161.117
161.544
161.834
161.746
161.02
159.405
156.678
152.665
147.251
140.388
132.096
122.465
111.651
99.8716
87.396
74.5364
61.633
49.0377
37.0949
26.1217
16.387
8.09442
1.3673
-3.75921
-7.34003
-9.51437
-10.4929
-10.539
-9.94522
-9.00886
-8.00702
-7.17547
-6.69238
-6.66874
-7.14595
-8.10055
-9.45497
-11.0927
-12.8758
-14.6629
-16.3248
-17.7572
-18.8884
-19.6822
-20.1361
-20.2754
-20.1443
-19.7963
-19.2845
-18.6537
-17.9345
-17.1415
-16.2734
-15.3164
-14.2497
-13.0514
-11.7054
-10.207
-8.56745
-6.81617
-5.00098
-3.18578
-1.44599
0.13758
1.48612
2.53035
3.2176
3.51744
3.42535
2.96397
2.18174
1.14924
-0.0463925
-1.30821
-2.5368
-3.63727
-4.5254
-5.1324
-5.40795
-5.32141
-4.86121
-4.03266
-2.85448
-1.35463
0.434333
2.47961
4.75205
7.2291
9.89664
12.7496
15.7912
19.0309
22.4817
26.156
30.0615
34.1965
38.5451
43.0735
47.726
52.4229
57.0588
61.5034
65.6044
69.1917
72.0856
74.1063
75.0868
74.8863
73.4057
70.6003
66.4917
61.1737
54.8133
47.6445
39.9546
32.0657
24.3101
17.0051
10.4268
4.78913
0.226877
-3.21221
-5.56747
-6.95672
-7.56029
-7.59966
-7.31316
-6.93137
-6.65512
-6.63801
-6.97543
-7.70063
-8.78797
-10.1625
-11.7141
-13.3155
-14.8394
-16.1765
-17.2483
-18.0163
-18.483
-18.6845
-18.6708
-18.4732
-18.057
-17.2618
-15.7346
-12.8687
-7.76389
0.769928
14.1451
33.8508
61.2288
97.1873
141.892
194.49
252.923
313.902
373.058
425.305
465.356
488.361
490.557
469.837
426.157
361.69
280.715
189.223
94.3024
3.37484
-76.6175
-139.963
-182.774
-203.359
-202.312
-182.341
-147.851
-104.351
-57.7666
-13.7468
22.9442
48.8905
62.2889
63.0015
52.4048
33.0725
8.34229
-18.166
-43.0204
-63.3758
-77.2595
-83.72
-82.8318
-75.5721
-63.5952
-48.9452
-33.7476
-19.9218
-8.94779
-1.71196
1.55564
1.25309
-1.70112
-6.03502
-10.3229
-13.1897
-13.4939
-10.4657
-3.78814
6.38729
19.4866
34.6109
50.6697
66.5289
81.1547
93.7332
103.753
111.04
115.753
118.322
119.374
119.627
119.784
120.443
122.022
124.719
128.498
133.113
138.151
143.093
147.381
150.488
151.974
151.524
148.976
144.327
137.715
129.4
119.724
109.076
97.8522
86.4191
75.0903
64.1074
53.6332
43.7545
34.4936
25.8253
17.6975
10.0517
2.84129
-3.95576
-10.3297
-16.2391
-21.6168
-26.3812
-30.4504
-33.7566
-36.2598
-37.9574
-38.8887
-39.1346
-38.8109
-38.0572
-37.0221
-35.8475
-34.6536
-33.5257
-32.5075
-31.5982
-30.7565
-29.9107
-28.9716
-27.8491
-26.468
-24.7823
-22.7849
-20.5118
-18.0399
-15.48
-12.9635
-10.6274
-8.59769
-6.9746
-5.82098
-5.15544
-4.95096
-5.1387
-5.61627
-6.25898
-6.93248
-7.5053
-7.86
-7.90195
-7.56543
-6.81661
-5.6538
-4.10501
-2.22353
-0.0818603
2.23539
4.63888
7.04175
9.3661
11.5483
13.5431
15.3253
16.8915
18.2582
19.4604
20.5481
21.582
22.6292
23.7576
25.0309
26.5031
28.2138
30.1842
32.4139
34.8791
37.5323
40.3026
43.0982
45.8093
48.3124
50.4756
52.165
53.2522
53.6221
53.1808
51.8637
49.6417
46.5255
42.567
37.8571
32.5205
26.7066
20.5787
14.3019
8.03169
1.90317
-3.97575
-9.52854
-14.7103
-19.5043
-23.9161
-27.9652
-31.6764
-35.0708
-38.1588
-40.9356
-43.3789
-45.4503
-47.0995
-48.271
-48.9127
-48.9855
-48.4722
-47.3863
-45.7778
-43.7362
-41.39
-38.9016
-36.4563
-34.2461
-32.4444
-31.1718
-30.4517
-30.1542
-29.9345
-29.1707
-26.9168
-21.8889
-12.5057
2.99751
26.3708
59.075
101.957
154.923
216.67
284.543
354.576
421.732
480.354
524.767
549.962
552.268
529.896
483.287
415.188
330.445
235.53
137.855
44.9817
-36.1953
-100.168
-143.357
-164.414
-164.247
-145.796
-113.575
-73.0712
-30.0634
10.0356
42.7474
64.94
75.048
73.0896
60.4967
39.795
14.1872
-12.9016
-38.2559
-59.2316
-74.0071
-81.7077
-82.3988
-76.9643
-66.8965
-54.0334
-40.2828
-27.3681
-16.6269
-8.88282
-4.39745
-2.90243
-3.69721
-5.79374
-8.08393
-9.50558
-9.18509
-6.54036
-1.33414
6.32442
16.0253
27.1394
38.9219
50.6218
61.5802
71.3071
79.5273
86.1908
91.4528
95.6253
99.1128
102.34
105.684
109.418
113.673
118.425
123.499
128.596
133.332
137.286
140.053
141.281
140.711
138.198
133.715
127.354
119.309
109.854
99.3174
88.0577
76.4407
64.8189
53.5164
42.8172
32.9572
24.1186
16.4267
9.94853
4.69379
0.617249
-2.37594
-4.42275
-5.6923
-6.37408
-6.66482
-6.75529
-6.81779
-6.99552
-7.3946
-8.0794
-9.07125
-10.3506
-11.8622
-13.5225
-15.2284
-16.8678
-18.3285
-19.5077
-20.3197
-20.7014
-20.6164
-20.0564
-19.0402
-17.6112
-15.833
-13.7836
-11.5504
-9.22358
-6.8913
-4.63548
-2.52861
-0.631667
1.0069
2.35152
3.37928
4.07941
4.45262
4.51026
4.27347
3.77218
3.044
2.13293
1.08802
-0.0380912
-1.19064
-2.31419
-3.354
-4.25731
-4.97448
-5.46008
-5.67378
-5.58135
-5.15547
-4.37663
-3.234
-1.7263
0.137359
2.3368
4.84041
7.60519
10.5775
13.6948
16.8875
20.0829
23.2079
26.1926
28.9735
31.4947
33.7084
35.5728
37.0488
38.0963
38.6696
38.7149
38.171
36.9722
35.056
32.3733
28.8994
24.646
19.6691
14.0738
8.01185
1.67445
-4.72218
-10.9551
-16.8154
-22.1295
-26.7761
-30.6989
-33.9104
-36.4879
-38.5607
-40.2896
-41.8424
-43.3683
-44.9731
-46.7017
-48.5269
-50.3487
-52.0036
-53.2821
-53.9545
-53.7997
-52.6357
-50.3475
-46.9088
-42.3959
-36.9917
-30.9789
-24.7215
-18.6366
-13.1548
-8.67046
-5.48187
-3.72251
-3.28627
-3.75322
-4.3273
-3.80228
-0.57625
7.26474
21.779
44.9154
78.1891
122.325
176.926
240.231
309.031
378.781
443.942
498.51
536.686
553.603
545.988
512.68
454.9
376.238
282.347
180.367
78.1724
-16.4758
-96.7591
-157.502
-195.666
-210.576
-203.866
-179.164
-141.559
-96.9408
-51.2876
-9.99716
22.6609
43.916
52.6595
49.3956
36.0055
15.3687
-9.09926
-33.9275
-56.0275
-73.0382
-83.5422
-87.1403
-84.3865
-76.6076
-65.6395
-53.5242
-42.2081
-33.2827
-27.7953
-26.1497
-28.1013
-32.8385
-39.1347
-45.5429
-50.6063
-53.0547
-51.9636
-46.8566
-37.7443
-25.0967
-9.76052
7.16684
24.4845
41.0381
55.8509
68.2232
77.787
84.5151
88.6851
90.8093
91.5411
91.5729
91.5394
91.9391
93.0814
95.064
97.7801
100.951
104.177
106.997
108.947
109.613
108.668
105.9
101.214
94.6324
86.2808
76.3682
65.1681
52.9985
40.2046
27.1435
14.1705
1.6266
-10.1734
-20.9535
-30.4884
-38.6144
-45.2383
-50.3423
-53.9848
-56.2943
-57.4587
-57.7078
-57.2923
-56.4599
-55.4311
-54.378
-53.4076
-52.553
-51.7735
-50.9643
-49.9746
-48.6324
-46.7725
-44.2646
-41.0361
-37.0884
-32.5029
-27.4358
-22.1043
-16.7633
-11.6785
-7.09742
-3.22379
-0.196606
1.92233
3.15196
3.58642
3.38122
2.73327
1.85707
0.959834
0.218478
-0.239071
-0.346139
-0.101761
0.433144
1.14743
1.89777
2.53079
2.90639
2.91917
2.51507
1.70089
0.545643
-0.826495
-2.25044
-3.53963
-4.50777
-4.99008
-4.861
-4.0462
-2.52758
-0.34077
2.43388
5.68529
9.28811
13.1192
17.0714
21.0634
25.0434
28.9881
32.8963
36.7792
40.6499
44.5128
48.3558
52.145
55.8238
59.3145
62.5227
65.342
67.6596
69.3606
70.3325
70.4698
69.6796
67.8884
65.0516
61.1629
56.2633
50.4492
43.8742
36.7469
29.3213
21.8808
14.7173
8.10737
2.28801
-2.56426
-6.34878
-9.04836
-10.728
-11.5248
-11.6304
-11.2681
-10.6673
-10.0391
-9.55504
-9.33193
-9.42494
-9.82819
-10.4833
-11.2942
-12.1458
-12.9244
-13.5378
-13.9322
-14.1043
-14.1073
-14.0499
-14.085
-14.3894
-15.1313
-16.4261
-18.2795
-20.5216
-22.7353
-24.1924
-23.8102
-20.1497
-11.477
4.09677
28.3893
62.8476
108.207
164.16
229.104
300.024
372.569
441.345
500.404
543.886
566.723
565.321
538.093
485.782
411.496
320.463
219.507
116.334
18.71
-66.3685
-133.39
-178.858
-201.566
-202.601
-185.081
-153.677
-113.986
-71.8455
-32.6659
-0.872513
20.4957
29.9888
27.7449
15.3015
-4.73971
-29.1407
-54.4883
-77.6278
-96.0195
-107.983
-112.808
-110.734
-102.817
-90.7028
-76.3528
-61.7622
-48.6996
-38.5046
-31.9607
-29.2519
-29.9995
-33.3663
-38.2085
-43.2505
-47.2586
-49.1921
-48.3152
-44.2591
-37.0332
-26.9886
-14.7441
-1.08844
13.1271
27.0913
40.1194
51.7146
61.6007
69.7254
76.2369
81.4398
85.7372
89.5667
93.3387
97.3815
101.9
106.953
112.44
118.118
123.624
128.513
132.306
134.541
134.822
132.863
128.518
121.802
112.891
102.112
89.9175
76.8437
63.472
50.381
38.1023
27.0829
17.6562
10.0246
4.25422
0.28135
-2.07022
-3.06378
-3.0189
-2.27851
-1.17711
-0.0130411
0.972929
1.61104
1.80753
1.54134
0.853897
-0.166402
-1.40253
-2.72773
-4.02266
-5.18908
-6.1587
-6.89689
-7.4013
-7.69635
-7.82473
-7.83763
-7.78509
-7.7079
-7.63202
-7.56601
-7.50144
-7.41603
-7.27849
-7.05448
-6.71258
-6.22975
-5.59565
-4.81569
-3.91262
-2.92682
-1.91512
-0.948413
-0.107884
0.519848
0.848656
0.799541
0.3076
-0.671148
-2.15358
-4.12448
-6.53325
-9.29285
-12.2815
-15.347
-18.3147
-20.9976
-23.209
-24.7766
-25.5564
-25.4457
-24.393
-22.4043
-19.5438
-15.93
-11.7254
-7.12335
-2.32993
2.4538
7.04969
11.3173
15.1642
18.5511
21.4904
24.0396
26.2899
28.352
30.34
32.3561
34.4775
36.7467
39.1663
41.6979
44.266
46.7649
49.0676
51.0359
52.5298
53.4153
53.5714
52.8954
51.3082
48.7599
45.2364
40.7661
35.4266
29.3494
22.7205
15.7763
8.79268
2.06774
-4.10145
-9.44517
-13.7481
-16.8729
-18.7771
-19.5198
-19.2573
-18.2262
-16.7167
-15.0387
-13.4845
-12.2939
-11.6252
-11.5379
-11.9881
-12.8388
-13.8834
-14.8803
-15.5937
-15.8344
-15.4966
-14.5812
-13.2042
-11.581
-9.98787
-8.69575
-7.88239
-7.52776
-7.30685
-6.49854
-3.93435
1.98711
13.1978
31.7578
59.5588
97.9588
147.4
207.074
274.71
346.543
417.507
481.661
532.797
565.173
574.252
557.366
514.162
446.798
359.812
259.702
154.252
51.6943
-40.1783
-114.841
-167.697
-196.495
-201.463
-185.142
-151.977
-107.705
-58.6424
-10.9538
30.001
60.1806
77.1788
80.3287
70.5987
50.312
22.7392
-8.37578
-39.2947
-66.7112
-88.0804
-101.823
-107.391
-105.21
-96.5076
-83.0675
-66.9514
-50.2163
-34.6681
-21.6756
-12.0597
-6.06177
-3.387
-3.30615
-4.79756
-6.70656
-7.90112
-7.40542
-4.49839
1.22989
9.8648
21.1925
34.7552
49.9264
65.9926
82.234
97.9922
112.721
126.018
137.633
147.464
155.531
161.946
166.882
170.532
173.083
174.693
175.479
175.509
174.807
173.362
171.141
168.101
164.207
159.437
153.798
147.321
140.07
132.133
123.613
114.622
105.271
95.6637
85.8907
76.0343
66.1725
56.3878
46.7765
37.4554
28.5656
20.2692
12.7407
6.1528
0.658591
-3.6275
-6.64632
-8.40615
-8.98782
-8.54188
-7.27767
-5.44571
-3.31522
-1.14984
0.815669
2.39489
3.46331
3.96451
3.90877
3.36463
2.44484
1.2888
0.0436238
-1.15372
-2.19136
-2.99294
-3.5229
-3.78625
-3.82357
-3.70216
-3.50483
-3.31783
-3.21957
-3.27126
-3.51055
-3.94859
-4.57059
-5.33952
-6.20219
-7.09677
-7.96071
-8.73811
-9.3856
-9.8764
-10.202
-10.3715
-10.4093
-10.3509
-10.2378
-10.1117
-10.0099
-9.96051
-9.97937
-10.0686
-10.2165
-10.3991
-10.5832
-10.7298
-10.7985
-10.7517
-10.5582
-10.1965
-9.65644
-8.93992
-8.05991
-7.03762
-5.898
-4.66411
-3.35096
-1.96021
-0.476668
1.13209
2.91257
4.9187
7.20237
9.80258
12.735
15.9834
19.4949
23.1795
26.9141
30.5508
33.9271
36.8787
39.2505
40.9076
41.7433
41.6859
40.7023
38.8008
36.0315
32.4856
28.2924
23.6143
18.6399
13.574
8.62601
3.99686
-0.134294
-3.62279
-6.36885
-8.32473
-9.49801
-9.9503
-9.7919
-9.17243
-8.26871
-7.27067
-6.36665
-5.72916
-5.50237
-5.79213
-6.65928
-8.11675
-10.1306
-12.6247
-15.4887
-18.5884
-21.7772
-24.9065
-27.8342
-30.4254
-32.5443
-34.0319
-34.6678
-34.1194
-31.8831
-27.2335
-19.1987
-6.58269
11.9431
37.6715
71.6173
114.228
165.094
222.71
284.369
346.21
403.478
450.963
483.585
497.047
488.454
456.802
403.259
331.169
245.786
153.741
62.3375
-21.2544
-90.7847
-141.594
-171.078
-178.899
-166.92
-138.878
-99.8587
-55.6398
-11.9911
25.9744
54.3277
70.6698
74.2704
65.9949
48.0497
23.5876
-3.76233
-30.3791
-53.0869
-69.4952
-78.2105
-78.9046
-72.2462
-59.7167
-43.3446
-25.3995
-8.08662
6.71918
17.6722
24.0692
25.8711
23.6418
18.4171
11.5299
4.41572
-1.57436
-5.33191
-6.1035
-3.54834
2.26034
10.8848
21.612
33.5668
45.834
57.5718
68.1036
76.9792
84.0003
89.2113
92.8593
95.3332
97.0905
98.5829
100.191
102.175
104.645
107.554
110.718
113.838
116.554
118.484
119.273
118.634
116.371
112.399
106.74
99.5237
90.9635
81.3408
70.9812
60.2331
49.4478
38.9629
29.0875
20.0908
12.1912
5.54919
0.260686
-3.64595
-6.2101
-7.53518
-7.78086
-7.15125
-5.87971
-4.21143
-2.3851
-0.615664
0.920501
2.09627
2.83948
3.13316
3.01052
2.54548
1.83993
1.00941
0.168763
-0.580621
-1.16074
-1.52318
-1.65129
-1.55846
-1.28303
-0.880904
-0.416784
0.0446096
0.446391
0.745556
0.916675
0.953045
0.865425
0.678753
0.427471
0.15014
-0.115937
-0.339467
-0.498807
-0.584207
-0.598538
-0.556594
-0.483203
-0.410498
-0.374727
-0.412982
-0.560168
-0.846408
-1.29502
-1.92106
-2.73033
-3.71885
-4.87252
-6.16705
-7.56815
-9.03194
-10.5059
-11.9301
-13.24
-14.3688
-15.2512
-15.8281
-16.0504
-15.8831
-15.3086
-14.3285
-12.9638
-11.2535
-9.25128
-7.02105
-4.63189
-2.15273
0.352227
2.82679
5.22436
7.50752
9.64589
11.6124
13.3789
14.9112
16.165
17.083
17.5939
17.6139
17.0506
15.8107
13.8092
10.9807
7.29171
2.7509
-2.58183
-8.59082
-15.1045
-21.901
-28.7182
-35.2699
-41.2646
-46.4274
-50.5211
-53.3665
-54.8576
-54.972
-53.7726
-51.4027
-48.0728
-44.042
-39.5939
-35.0124
-30.5574
-26.4446
-22.8305
-19.8057
-17.394
-15.56
-14.2226
-13.2723
-12.5912
-12.0727
-11.6382
-11.2495
-10.9126
-10.6717
-10.5892
-10.7099
-11.0093
-11.3262
-11.2881
-10.2422
-7.20791
-0.876103
10.3264
28.0898
53.9915
89.1977
134.136
188.194
249.502
314.87
379.92
439.412
487.77
519.718
530.958
518.783
482.533
423.806
346.399
255.96
159.414
64.2106
-22.4762
-94.5192
-147.463
-178.935
-188.801
-179.046
-153.428
-116.935
-75.1514
-33.5919
2.89829
30.6156
47.295
52.2122
46.0952
30.8744
9.31749
-15.3962
-40.1031
-62.0334
-79.0975
-90.0572
-94.5712
-93.1239
-86.8583
-77.345
-66.3226
-55.447
-46.079
-39.136
-35.0183
-33.6114
-34.3579
-36.3802
-38.6325
-40.0616
-39.751
-37.0343
-31.564
-23.3328
-12.6483
-0.0697477
13.6806
27.8183
41.5945
54.3786
65.7166
75.3614
83.2725
89.5905
94.5917
98.6311
102.083
105.286
108.502
111.886
115.481
119.22
122.947
126.45
129.485
131.816
133.236
133.584
132.762
130.725
127.487
123.102
117.661
111.275
104.072
96.1905
87.7793
78.9959
70.0083
60.9944
52.1391
43.6283
35.6406
28.3366
21.8476
16.2662
11.6387
7.9622
5.18595
3.2174
1.93207
1.18605
0.829594
0.720173
0.733628
0.772211
0.768946
0.688154
0.522513
0.287377
0.0133701
-0.261654
-0.500241
-0.671685
-0.756537
-0.748976
-0.657092
-0.501357
-0.311713
-0.123834
0.0249171
0.0992989
0.0693766
-0.0872267
-0.384155
-0.826228
-1.4103
-2.12686
-2.96197
-3.89933
-4.92201
-6.01352
-7.15824
-8.34106
-9.54647
-10.7575
-11.9549
-13.1172
-14.221
-15.2433
-16.1633
-16.9654
-17.6413
-18.1911
-18.6227
-18.9507
-19.1924
-19.364
-19.4768
-19.533
-19.5238
-19.4289
-19.218
-18.8541
-18.2979
-17.5132
-16.4715
-15.1566
-13.5659
-11.7112
-9.61577
-7.31032
-4.82664
-2.19121
0.580847
3.48993
6.55328
9.8028
13.2792
17.023
21.0636
25.4073
30.0267
34.852
39.7666
44.6062
49.1639
53.1994
56.4527
58.6624
59.5855
59.0184
56.818
52.9193
47.3498
40.2369
31.8095
22.3895
12.3763
2.22184
-7.60026
-16.6302
-24.4583
-30.7575
-35.3105
-38.0255
-38.9408
-38.216
-36.1123
-32.9629
-29.138
-25.0084
-20.9123
-17.1283
-13.8582
-11.219
-9.24702
-7.90931
-7.12254
-6.7754
-6.75226
-6.95519
-7.32211
-7.83864
-8.54102
-9.50715
-10.8327
-12.5897
-14.7663
-17.1906
-19.446
-20.7919
-20.1103
-15.9021
-6.3586
10.4769
36.453
72.9786
120.656
178.941
245.894
318.107
390.827
458.322
514.441
553.316
570.111
561.691
527.138
467.987
388.18
293.697
191.942
90.9331
-1.56428
-78.8761
-136.104
-170.583
-182.059
-172.579
-146.124
-108.033
-64.3189
-20.9498
16.8089
44.9148
60.8856
63.9244
54.8381
35.7762
9.83841
-19.3908
-48.3179
-73.7682
-93.3183
-105.504
-109.889
-107.002
-98.158
-85.2086
-70.246
-55.3121
-42.1453
-31.9924
-25.5044
-22.7185
-23.1225
-25.782
-29.5085
-33.0421
-35.2244
-35.1379
-32.2008
-26.2068
-17.3123
-5.97904
7.11729
21.1943
35.4712
49.2632
62.0501
73.5143
83.5443
92.2106
99.7168
106.34
112.367
118.037
123.502
128.801
133.856
138.49
142.457
145.479
147.285
147.656
146.442
143.588
139.134
133.208
126.011
117.796
108.842
99.4335
89.8428
80.314
71.055
62.2342
53.9792
46.3798
39.4912
33.3378
27.9176
23.2054
19.1569
15.7125
12.8022
10.3501
8.2798
6.51954
5.00603
3.68767
2.52588
1.49483
0.579657
-0.226476
-0.925825
-1.51941
-2.00968
-2.40205
-2.70519
-2.93024
-3.08914
-3.19275
-3.24912
-3.26238
-3.23257
-3.15646
-3.02925
-2.84675
-2.60775
-2.31589
-1.98074
-1.61779
-1.24723
-0.891791
-0.573984
-0.313123
-0.122779
-0.00901142
0.0302654
0.00464014
-0.0706395
-0.177439
-0.298003
-0.418192
-0.530189
-0.634267
-0.739385
-0.862555
-1.02712
-1.26019
-1.58975
-2.0416
-2.63675
-3.38926
-4.30453
-5.37787
-6.5931
-7.92107
-9.31807
-10.7247
-12.0657
-13.251
-14.1799
-14.7462
-14.8474
-14.394
-13.3199
-11.5921
-9.21767
-6.24734
-2.77418
1.07214
5.1357
9.24811
13.2442
16.9775
20.3347
23.2456
25.6895
27.6948
29.335
30.7178
31.971
33.2259
34.599
36.1741
37.9874
40.0159
42.1718
44.3034
46.2036
47.6255
48.3057
47.9912
46.47
43.6005
39.3357
33.7403
26.9956
19.3928
11.3127
3.1939
-4.50594
-11.3537
-16.9825
-21.1265
-23.646
-24.5382
-23.9333
-22.0768
-19.3005
-15.9853
-12.5217
-9.27144
-6.53602
-4.53348
-3.3871
-3.12532
-3.6923
-4.96692
-6.78755
-8.97926
-11.38
-13.862
-16.3453
-18.7978
-21.2206
-23.6134
-25.9204
-27.9586
-29.3365
-29.3761
-27.0574
-21.0098
-9.57349
9.05293
36.574
74.2846
122.72
181.327
248.221
320.102
392.361
459.418
515.244
554.035
570.927
562.668
528.131
468.588
387.703
291.22
186.395
81.2331
-16.3605
-99.4205
-162.631
-202.828
-219.242
-213.443
-189.037
-151.135
-105.685
-58.764
-15.8936
18.5116
41.5282
51.898
49.9909
37.5807
17.4765
-6.93082
-32.1448
-55.0004
-73.0135
-84.6084
-89.2068
-87.1825
-79.7006
-68.4736
-55.4731
-42.6395
-31.6263
-23.6089
-19.1764
-18.3121
-20.4571
-24.6394
-29.6458
-34.2082
-37.179
-37.6721
-35.1535
-29.4755
-20.8543
-9.80226
2.97323
16.6845
30.5752
44.0129
56.5518
67.9598
78.2099
87.4419
95.9037
103.883
111.64
119.356
127.098
134.805
142.297
149.302
155.492
160.529
164.103
165.968
165.965
164.031
160.203
154.603
147.42
138.891
129.281
118.859
107.894
96.6362
85.3227
74.1697
63.3755
53.1187
43.5564
34.8191
27.0056
20.1762
14.3478
9.49142
5.53414
2.36493
-0.154242
-2.17397
-3.84084
-5.28102
-6.58632
-7.80468
-8.93673
-9.93892
-10.7329
-11.2201
-11.2991
-10.8838
-9.92028
-8.39885
-6.36133
-3.90143
-1.1588
1.69268
4.46083
6.95347
8.99684
10.4522
11.2284
11.29
10.6586
9.40901
7.66005
5.56107
3.27642
0.969306
-1.21305
-3.15136
-4.76233
-6.00216
-6.8656
-7.38092
-7.60205
-7.5989
-7.44736
-7.22024
-6.98004
-6.77424
-6.63328
-6.57107
-6.58746
-6.67213
-6.80906
-6.98073
-7.1717
-7.37092
-7.57279
-7.77706
-7.98765
-8.21101
-8.45403
-8.72213
-9.01735
-9.33696
-9.67222
-10.0074
-10.3191
-10.5756
-10.7363
-10.7522
-10.5658
-10.1131
-9.32555
-8.13421
-6.47454
-4.293
-1.55428
1.75126
5.60092
9.93474
14.653
19.6168
24.6512
29.5518
34.0932
38.0392
41.1558
43.2242
44.0559
43.5073
41.4942
38.0041
33.1058
26.9531
19.7838
11.9104
3.70379
-4.42946
-12.0757
-18.8451
-24.4032
-28.498
-30.981
-31.8187
-31.0941
-28.9957
-25.7986
-21.8363
-17.4689
-13.0507
-8.90015
-5.27599
-2.36185
-0.260006
1.00575
1.47924
1.25543
0.460823
-0.766419
-2.29431
-4.01072
-5.83172
-7.70335
-9.59619
-11.4914
-13.3569
-15.1118
-16.5793
-17.4294
-17.1182
-14.8357
-9.48103
0.315227
16.0985
39.4174
71.5713
113.304
164.483
223.835
288.788
355.492
419.043
473.912
514.531
535.974
534.632
508.767
458.873
387.763
300.368
203.263
103.974
10.1631
-71.1978
-134.571
-176.408
-195.455
-192.78
-171.528
-136.447
-93.2584
-47.9532
-6.1102
27.6892
50.2814
60.1408
57.3896
43.6142
21.5277
-5.46611
-33.7452
-59.9182
-81.1973
-95.6574
-102.364
-101.365
-93.5668
-80.5201
-64.1497
-46.4735
-29.3427
-14.2334
-2.11017
6.62925
12.1327
15.0052
16.1738
16.7273
17.7543
20.1991
24.7521
31.7846
41.3289
53.1038
66.5741
81.0355
95.7095
109.837
122.761
133.982
143.2
150.318
155.427
158.771
160.7
161.611
161.895
161.889
161.838
161.869
161.983
162.061
161.884
161.158
159.555
156.753
152.472
146.511
138.772
129.276
118.163
105.688
92.2016
78.1247
63.9204
50.0612
36.9972
25.1265
14.7697
6.1506
-0.615905
-5.52723
-8.68821
-10.2977
-10.6284
-10.0008
-8.75479
-7.2209
-5.69396
-4.41181
-3.54094
-3.1699
-3.31097
-3.90916
-4.85715
-6.0141
-7.22599
-8.3451
-9.24666
-9.84098
-10.0803
-9.96024
-9.51552
-8.81232
-7.93716
-6.98479
-6.04619
-5.19839
-4.49681
-3.97115
-3.62463
-3.4366
-3.36767
-3.36657
-3.37786
-3.34924
-3.23797
-3.01547
-2.66983
-2.20619
-1.64502
-1.01874
-0.367235
0.267105
0.844254
1.33073
1.70266
1.94754
2.06445
2.06308
1.96161
1.78386
1.55624
1.30475
1.05251
0.818108
0.61486
0.451269
0.332543
0.263078
0.24956
0.304188
0.447418
0.709632
1.13124
1.76105
2.65293
3.86133
5.43622
7.41823
9.83452
12.6958
15.9948
19.705
23.7813
28.1599
32.7589
37.4787
42.2023
46.7959
51.1112
54.9875
58.257
60.752
62.3136
62.8028
62.1119
60.176
56.9818
52.5734
47.0543
40.584
33.3696
25.6538
17.6992
9.77119
2.12089
-5.0305
-11.5038
-17.1697
-21.9512
-25.8214
-28.7962
-30.9239
-32.2733
-32.9221
-32.9471
-32.4175
-31.3925
-29.9222
-28.0524
-25.8307
-23.315
-20.5804
-17.7262
-14.8798
-12.1982
-9.86532
-8.08445
-7.06458
-6.99843
-8.03076
-10.2152
-13.4594
-17.4616
-21.6442
-25.0979
-26.5527
-24.3968
-16.7642
-1.70351
22.5695
57.3551
103.126
159.214
223.591
292.81
362.148
425.968
478.268
513.369
526.634
515.128
478.099
417.221
336.522
242.031
141.155
41.8875
-48.063
-122.097
-175.405
-205.423
-212.009
-197.325
-165.473
-121.917
-72.7871
-24.1643
18.5867
51.3402
71.5479
78.3627
72.553
56.2368
32.4836
4.84609
-23.1141
-48.2491
-68.1487
-81.336
-87.325
-86.5488
-80.1807
-69.8834
-57.5275
-44.9162
-33.553
-24.4764
-18.1753
-14.5883
-13.1763
-13.0522
-13.1439
-12.3651
-9.7721
-4.68459
3.23972
13.9833
27.1968
42.2684
58.4202
74.8167
90.6687
105.32
118.306
129.384
138.522
145.876
151.73
156.443
160.38
163.859
167.114
170.273
173.35
176.262
178.85
180.915
182.243
182.636
181.932
180.01
176.797
172.259
166.395
159.229
150.806
141.191
130.47
118.761
106.219
93.0422
79.4746
65.8021
52.3425
39.4294
27.39
16.5208
7.06353
-0.816593
-7.04528
-11.646
-14.737
-16.519
-17.2547
-17.2423
-16.7864
-16.1691
-15.6248
-15.3221
-15.3526
-15.7302
-16.3979
-17.2428
-18.1158
-18.8542
-19.3037
-19.3381
-18.8734
-17.8765
-16.3675
-14.4153
-12.129
-9.64542
-7.11534
-4.6894
-2.50571
-0.679917
0.701591
1.58509
1.94984
1.80577
1.18947
0.159138
-1.21058
-2.83334
-4.6153
-6.45856
-8.2644
-9.93643
-11.3841
-12.5268
-13.2981
-13.6508
-13.5604
-13.0287
-12.0852
-10.7857
-9.20913
-7.45193
-5.61976
-3.81865
-2.14555
-0.679783
0.523837
1.4394
2.07145
2.45386
2.64643
2.73033
2.80304
2.97386
3.35988
4.08234
5.26241
7.01543
9.44305
12.6229
16.5965
21.3565
26.8357
32.8997
39.3448
45.9051
52.2661
58.0872
63.0297
66.7879
69.1193
69.8703
68.9939
66.5565
62.7338
57.7939
52.0722
45.9383
39.7605
33.8725
28.5436
23.9586
20.2075
17.2861
15.1061
13.5134
12.3118
11.2877
10.2346
8.97321
7.36731
5.33259
2.84008
-0.0859639
-3.37427
-6.91556
-10.573
-14.1932
-17.6167
-20.6887
-23.2687
-25.2411
-26.5258
-27.0882
-26.9485
-26.1869
-24.9418
-23.3983
-21.7611
-20.2108
-18.8413
-17.583
-16.1172
-13.8003
-9.61358
-2.16685
10.2252
29.3767
56.9757
94.2598
141.667
198.517
262.798
331.115
398.843
460.496
510.284
542.787
553.651
540.219
501.974
440.737
360.576
267.427
168.479
71.3996
-16.4975
-89.0338
-141.794
-172.529
-181.295
-170.31
-143.573
-106.299
-64.246
-23.0325
12.4815
38.6708
53.4367
56.292
48.247
31.5268
9.17079
-15.4265
-38.9709
-58.6641
-72.497
-79.4133
-79.3373
-73.0752
-62.1156
-48.3648
-33.8565
-20.4752
-9.72765
-2.58485
0.591001
0.0349239
-3.50745
-8.92288
-14.906
-20.142
-23.4719
-24.0222
-21.2851
-15.1462
-5.85984
6.01654
19.7172
34.3765
49.1347
63.2297
76.0641
87.2428
96.5808
104.085
109.914
114.331
117.642
120.152
122.119
123.729
125.081
126.187
126.987
127.361
127.157
126.211
124.366
121.49
117.488
112.31
105.959
98.4899
90.0064
80.6579
70.6294
60.1297
49.3773
38.5858
27.9487
17.6275
7.74184
-1.6343
-10.4724
-18.7836
-26.609
-34.0075
-41.0429
-47.7713
-54.2316
-60.4379
-66.3761
-72.0032
-77.2494
-82.0234
-86.219
-89.7253
-92.4365
-94.2633
-95.1441
-95.0537
-94.0099
-92.0761
-89.3595
-86.0042
-82.1806
-78.0711
-73.8536
-69.6847
-65.6849
-61.9265
-58.4275
-55.1518
-52.016
-48.9028
-45.6789
-42.216
-38.4105
-34.2013
-29.5816
-24.604
-19.3781
-14.0603
-8.83849
-3.91229
0.527815
4.32018
7.34824
9.5515
10.9303
11.5438
11.5024
10.9548
10.0722
9.03096
7.9968
7.11029
6.47702
6.16207
6.18945
6.54627
7.19064
8.06232
9.09465
10.2261
11.4103
12.6229
13.8645
15.1597
16.5519
18.0949
19.8421
21.836
24.0979
26.6206
29.3644
32.2574
35.1982
38.0632
40.7139
43.0061
44.7983
45.959
46.3734
45.9485
44.618
42.3457
39.1295
35.0033
30.0387
24.3441
18.0608
11.3575
4.42123
-2.5541
-9.37905
-15.8802
-21.9099
-27.3525
-32.1272
-36.1877
-39.5179
-42.1259
-44.0366
-45.2848
-45.9092
-45.9493
-45.4435
-44.4308
-42.9532
-41.06
-38.811
-36.2797
-33.5545
-30.7376
-27.9416
-25.2848
-22.8842
-20.8488
-19.2726
-18.2284
-17.761
-17.8803
-18.5492
-19.666
-21.0361
-22.3327
-23.0485
-22.4452
-19.5158
-12.9776
-1.31778
17.0901
43.7898
79.9761
126.186
181.995
245.781
314.616
384.336
449.811
505.403
545.575
565.554
561.976
533.399
480.606
406.653
316.623
217.14
115.681
19.7844
-63.7467
-129.54
-174.171
-196.436
-197.365
-179.972
-148.796
-109.302
-67.2066
-27.8319
4.44758
26.6033
37.1611
36.2087
25.2204
6.73318
-16.0719
-39.8257
-61.404
-78.2882
-88.8147
-92.2934
-88.9932
-80.0071
-67.028
-52.0687
-37.1705
-24.1349
-14.3128
-8.47161
-6.7485
-8.6886
-13.354
-19.483
-25.6751
-30.5754
-33.0371
-32.2429
-27.776
-19.636
-8.20563
5.82496
21.5604
38.0147
54.2237
69.341
82.7098
93.905
102.744
109.268
113.707
116.422
117.85
118.441
118.614
118.716
118.997
119.603
120.572
121.848
123.295
124.714
125.867
126.495
126.337
125.154
122.742
118.95
113.697
106.978
98.8669
89.5211
79.168
68.0932
56.6214
45.0949
33.8499
23.1952
13.3931
4.64463
-2.91848
-9.23685
-14.32
-18.2379
-21.1084
-23.0817
-24.3242
-25.0021
-25.2674
-25.2465
-25.033
-24.6848
-24.2252
-23.649
-22.9313
-22.0378
-20.9377
-19.614
-18.0728
-16.3487
-14.506
-12.6359
-10.8487
-9.26332
-7.99405
-7.13699
-6.7572
-6.87855
-7.47766
-8.48289
-9.77887
-11.2162
-12.6258
-13.8355
-14.6883
-15.0588
-14.867
-14.0871
-12.75
-10.9408
-8.78859
-6.45292
-4.10639
-1.91618
-0.0266718
1.45512
2.46952
3.00874
3.11551
2.87638
2.4104
1.85497
1.35042
1.02536
0.98439
1.2997
2.00727
3.10805
4.57362
6.35518
8.39462
10.6355
13.0328
15.5591
18.2074
20.9892
23.9295
27.0584
30.4016
33.9712
37.7584
41.7287
45.8218
49.955
54.0299
57.9422
61.5917
64.8916
67.7749
70.1959
72.1278
73.5547
74.4611
74.8201
74.5842
73.6806
72.0141
69.4775
65.9689
61.4141
55.7887
49.1386
41.5919
33.3611
24.734
16.0523
7.6823
-0.0206028
-6.748
-12.2705
-16.4616
-19.3103
-20.921
-21.4999
-21.3313
-20.7437
-20.0738
-19.6284
-19.6524
-20.3037
-21.64
-23.6168
-26.0984
-28.8785
-31.7087
-34.3312
-36.5109
-38.0639
-38.8778
-38.92
-38.2309
-36.8988
-35.0155
-32.6124
-29.5822
-25.595
-20.0253
-11.9103
0.0375101
17.3396
41.5736
74.1107
115.796
166.614
225.413
289.738
355.841
418.903
473.449
513.934
535.419
534.239
508.567
458.776
387.551
299.696
201.691
101.015
5.35114
-78.2373
-144.05
-188.318
-209.538
-208.526
-188.207
-153.173
-109.079
-61.9466
-17.4868
19.4996
45.5651
58.8675
59.214
47.9113
27.4584
1.13184
-27.4758
-54.9043
-78.2096
-95.2441
-104.811
-106.69
-101.54
-90.7121
-75.9979
-59.3594
-42.6657
-27.4763
-14.8869
-5.45172
0.817934
4.38777
6.08246
6.9366
8.03635
10.3725
14.7218
21.5681
31.0685
43.0631
57.1224
72.621
88.826
104.986
120.412
134.538
146.961
157.452
165.952
172.543
177.406
180.778
182.908
184.016
184.269
183.763
182.523
180.509
177.637
173.798
168.883
162.804
155.514
147.019
137.387
126.744
115.274
103.204
90.7905
78.3021
66.0028
54.1349
42.9051
32.4752
22.9568
14.4107
6.85058
0.249855
-5.44914
-10.3253
-14.4693
-17.975
-20.9336
-23.4286
-25.5342
-27.3135
-28.8191
-30.0937
-31.17
-32.0716
-32.8132
-33.4002
-33.8294
-34.09
-34.1645
-34.0316
-33.6691
-33.0572
-32.1821
-31.0391
-29.6347
-27.9873
-26.1267
-24.0923
-21.9305
-19.6921
-17.4302
-15.1977
-13.0471
-11.0298
-9.19658
-7.59763
-6.28172
-5.2947
-4.67623
-4.45499
-4.6427
-5.22765
-6.16883
-7.39203
-8.78924
-10.2224
-11.5317
-12.5485
-13.1113
-13.0833
-12.3694
-10.9304
-8.79128
-6.04446
-2.8444
0.6043
4.06537
7.29393
10.0621
12.1843
13.5395
14.0877
13.8785
13.05
11.8178
10.4551
9.26561
8.55277
8.58788
9.58193
11.6639
14.8678
19.1305
24.2994
30.1497
36.4082
42.7803
48.9787
54.7466
59.8773
64.2244
67.7047
70.2922
72.007
72.8992
73.0318
72.4653
71.2454
69.3968
66.9221
63.8077
60.0334
55.5857
50.472
44.7332
38.4522
31.7583
24.8241
17.8576
11.0878
4.74718
-0.948272
-5.81767
-9.73169
-12.624
-14.4967
-15.4193
-15.5206
-14.9763
-13.9911
-12.7802
-11.5497
-10.4799
-9.71172
-9.33852
-9.40311
-9.90062
-10.7861
-11.9861
-13.4114
-14.9695
-16.5718
-18.1338
-19.5612
-20.7226
-21.4047
-21.2564
-19.7276
-16.0195
-9.0655
2.43674
19.9224
44.7782
78.0886
120.339
171.119
228.889
290.87
353.104
410.717
458.373
490.87
503.8
494.189
460.995
405.397
330.81
242.611
147.609
53.3187
-32.8603
-104.455
-156.612
-186.589
-193.978
-180.654
-150.452
-108.633
-61.2105
-14.2362
26.8811
57.9259
76.2491
80.927
72.7051
53.7504
27.2584
-3.02464
-33.2986
-60.1634
-80.9788
-94.0958
-98.9428
-95.9729
-86.4909
-72.3953
-55.8748
-39.1028
-23.966
-11.8598
-3.56605
0.777645
1.62479
-0.102734
-3.18395
-6.28861
-8.16181
-7.7807
-4.46678
2.05596
11.6586
23.8554
37.892
52.8581
67.8105
81.8874
94.4043
104.918
113.257
119.509
123.986
127.157
129.567
131.755
134.182
137.167
140.859
145.22
150.046
154.995
159.641
163.525
166.213
167.34
166.646
163.989
159.356
152.843
144.636
134.98
124.151
112.429
100.077
87.3296
74.3949
61.4551
48.6779
36.2266
24.2686
12.9786
2.53704
-6.8795
-15.1111
-22.0311
-27.5621
-31.6894
-34.4683
-36.0249
-36.5485
-36.2775
-35.4793
-34.4273
-33.3771
-32.5456
-32.0947
-32.1211
-32.6538
-33.6586
-35.0484
-36.6988
-38.4652
-40.2009
-41.7727
-43.0736
-44.0308
-44.6083
-44.8055
-44.6515
-44.1968
-43.5033
-42.6346
-41.6468
-40.5815
-39.4609
-38.286
-37.0361
-35.6721
-34.1406
-32.381
-30.3321
-27.9411
-25.1713
-22.0096
-18.4715
-14.6045
-10.4875
-6.22781
-1.95348
2.1957
6.07983
9.57091
12.564
14.9861
16.8027
18.0195
18.6811
18.8659
18.6783
18.2395
17.6765
17.1136
16.6635
16.4222
16.4654
16.8484
17.6071
18.7608
20.3154
22.2663
24.5992
27.2913
30.3096
33.6088
37.1287
40.7916
44.5
48.1357
51.5612
54.622
57.1522
58.9821
59.9484
59.906
58.7407
56.3816
52.812
48.0764
42.2834
35.6029
28.2586
20.5144
12.6579
4.98132
-2.23817
-8.75576
-14.3735
-18.9498
-22.4043
-24.7167
-25.9221
-26.1023
-25.3751
-23.8835
-21.7842
-19.2383
-16.403
-13.4253
-10.4383
-7.55812
-4.88324
-2.49486
-0.458543
1.1728
2.35486
3.04738
3.21012
2.80157
1.78305
0.131751
-2.13361
-4.9123
-7.96616
-10.8538
-12.8646
-12.9694
-9.80833
-1.74141
13.0221
36.2055
69.1702
112.576
166.054
227.947
295.205
363.468
427.368
481.034
518.748
535.666
528.483
495.968
439.251
361.827
269.259
168.613
67.7066
-25.7465
-104.966
-164.812
-202.287
-216.759
-209.908
-185.403
-148.367
-104.705
-60.3879
-20.7779
9.91918
29.0246
35.5455
30.1208
14.7797
-7.44293
-32.974
-58.1887
-79.8551
-95.4874
-103.573
-103.659
-96.3012
-82.8918
-65.4066
-46.1016
-27.2067
-10.6529
2.13804
10.3807
13.963
13.3971
9.6997
4.22004
-1.5554
-6.1983
-8.50914
-7.6449
-3.19217
4.81829
15.952
29.4564
44.3762
59.6823
74.3963
87.696
98.9909
107.961
114.558
118.976
121.589
122.885
123.382
123.558
123.793
124.332
125.269
126.551
128.002
129.359
130.314
130.551
129.782
127.773
124.363
119.467
113.077
105.259
96.1428
85.9105
74.788
63.0336
50.929
38.7681
26.8467
15.4503
4.84099
-4.75541
-13.1624
-20.263
-26.0072
-30.4144
-33.5701
-35.6179
-36.7458
-37.1683
-37.1069
-36.7705
-36.3373
-35.9413
-35.6639
-35.5318
-35.5214
-35.5684
-35.5813
-35.4574
-35.0983
-34.4243
-33.3844
-31.963
-30.1809
-28.0921
-25.7772
-23.3337
-20.8655
-18.4724
-16.2407
-14.2361
-12.4994
-11.045
-9.86203
-8.9178
-8.16354
-7.54077
-6.98842
-6.44957
-5.87734
-5.23928
-4.51991
-3.7212
-2.86108
-1.9701
-1.08689
-0.252921
0.4927
1.11765
1.59953
1.92732
2.10109
2.13018
2.03044
1.82109
1.52222
1.15342
0.734118
0.285462
-0.166437
-0.586788
-0.928796
-1.13173
-1.12114
-0.811774
-0.112961
1.06377
2.79598
5.14162
8.13149
11.7641
16.0033
20.7796
25.9941
31.5252
37.2365
42.9855
48.6309
54.0385
59.0853
63.6606
67.6658
71.013
73.6231
75.4252
76.3564
76.3643
75.4103
73.4743
70.5602
66.7006
61.9609
56.4411
50.2762
43.6333
36.7062
29.7069
22.8552
16.3663
10.4375
5.23572
0.886435
-2.53452
-5.0052
-6.55746
-7.27241
-7.27179
-6.70628
-5.74198
-4.54644
-3.27589
-2.06472
-1.01843
-0.210283
0.317947
0.551727
0.49646
0.168131
-0.416915
-1.25148
-2.34418
-3.72076
-5.41665
-7.45775
-9.82643
-12.4116
-14.945
-16.9307
-17.5794
-15.7678
-10.0419
1.31046
20.1061
48.0264
86.3092
135.409
194.679
262.148
334.439
406.9
473.936
529.542
567.972
584.446
575.821
541.081
481.612
401.165
305.544
202.017
98.5524
2.96607
-77.9101
-138.926
-177.096
-191.821
-184.818
-159.794
-121.908
-77.1078
-31.4127
9.74518
42.0665
62.7497
70.6503
66.2323
51.3361
28.8073
2.04531
-25.4667
-50.5904
-70.873
-84.7649
-91.7032
-92.0628
-86.9949
-78.1866
-67.5776
-57.0753
-48.3051
-42.4229
-40.0086
-41.0457
-44.9812
-50.8497
-57.4388
-63.4713
-67.7776
-69.4385
-67.8827
-62.9309
-54.7871
-43.9817
-31.28
-17.5692
-3.74191
9.41082
21.2823
31.5024
39.954
46.7568
52.2208
56.7808
60.9207
65.0971
69.6741
74.8753
80.7574
87.2082
93.966
100.657
106.844
112.081
115.96
118.158
118.462
116.784
113.159
107.736
100.751
92.505
83.3319
73.5767
63.5727
53.6262
44.0057
34.9366
26.5985
19.1255
12.6079
7.09433
2.59493
-0.915492
-3.49308
-5.21972
-6.19674
-6.53765
-6.36053
-5.78069
-4.90427
-3.82367
-2.61501
-1.338
-0.0378332
1.25123
2.50146
3.68724
4.78134
5.75281
6.56659
7.18514
7.57168
7.69448
7.53145
7.07414
6.3305
5.32583
4.10171
2.71285
1.22256
-0.303045
-1.80093
-3.2168
-4.50959
-5.6545
-6.64416
-7.48799
-8.2098
-8.84401
-9.43108
-10.0126
-10.6265
-11.3033
-12.0628
-12.9127
-13.8479
-14.8511
-15.8946
-16.9424
-17.953
-18.8819
-19.6847
-20.319
-20.7468
-20.937
-20.8669
-20.5245
-19.9105
-19.0404
-17.9449
-16.6699
-15.2735
-13.8215
-12.3793
-11.0024
-9.72585
-8.55505
-7.4591
-6.36918
-5.18285
-3.77448
-2.01104
0.228881
3.03534
6.44967
10.4524
14.958
19.8188
24.8358
29.7772
34.4007
38.4769
41.811
44.2595
45.74
46.2323
45.7734
44.444
42.3532
39.62
36.3576
32.6611
28.6007
24.2205
19.544
14.5822
9.34582
3.85683
-1.8419
-7.68009
-13.5585
-19.352
-24.9182
-24.9182
-24.9182
-24.9182
-24.9182
-24.9182
-24.9182
-24.9182
-24.9182
-24.9182
-24.9182
-24.9182
-24.9182
-24.9182
-24.9182
-24.9182
-24.9182
-24.9182
-24.9182
-24.9182
