29.2974
20.9465
11.1821
0.175728
-11.7914
-24.3427
-37.033
-49.3846
-60.9286
-71.2466
-80.0084
-86.9999
-92.1394
-95.4798
-97.1959
-97.5598
-96.907
-95.5957
-93.9661
-92.3022
-90.8007
-89.5501
-88.5223
-87.5788
-86.4896
-84.9646
-82.6934
-79.389
-74.8308
-68.8998
-61.6037
-53.086
-43.6199
-33.5853
-23.4337
-13.6437
-4.67318
3.08613
9.34616
13.9481
16.8735
18.2392
18.2785
17.3109
15.7032
13.829
12.0298
10.5824
9.67544
9.39887
9.7441
10.6162
11.8549
13.2615
14.6277
15.7636
16.5209
16.8083
16.5999
15.9331
14.8999
13.6313
12.2781
10.9907
9.90016
9.10305
8.65171
8.55028
8.75689
9.1911
9.74537
10.2987
10.731
10.936
10.8319
10.368
9.52832
8.33009
6.81956
5.06456
3.14537
1.14486
-0.860777
-2.80927
-4.65664
-6.37775
-7.96325
-9.41326
-10.7292
-11.9055
-12.9222
-13.7419
-14.3092
-14.5558
-14.409
-13.8025
-12.6892
-11.0519
-8.91202
-6.33356
-3.42273
-0.321786
2.80126
5.76649
8.3976
10.5375
12.0621
12.8911
12.9946
12.3943
11.1606
9.40457
7.26678
4.90401
2.47538
0.129617
-2.00536
-3.82941
-5.27358
-6.29981
-6.89775
-7.0796
-6.87411
-6.32096
-5.46652
-4.36145
-3.06032
-1.62272
-0.115025
1.3882
2.80424
4.04436
5.01843
5.64166
5.84288
5.57324
4.81393
3.58195
1.93257
-0.0419362
-2.21751
-4.44729
-6.57329
-8.43984
-9.90705
-10.8629
-11.2328
-10.9847
-10.1305
-8.72282
-6.84722
-4.61257
-2.13921
0.452403
3.05115
5.56177
7.90751
10.0293
11.882
13.4295
14.6394
15.4801
15.9197
15.9283
15.4827
14.5725
13.207
11.4211
9.27772
6.86851
4.30951
1.73397
-0.717995
-2.91144
-4.72913
-6.08304
-6.9235
-7.24497
-7.08769
-6.53498
-5.70639
-4.74748
-3.81695
-3.07271
-2.658
-2.6892
-3.24657
-4.36888
-6.05252
-8.2552
-10.9034
-13.9029
-17.15
-20.5432
-23.9918
-27.4219
-30.7781
-34.0208
-37.1209
-40.0513
-42.7783
-45.2546
-47.4134
-49.1677
-50.4122
-51.0287
-50.8953
-49.8967
-47.9357
-44.9452
-40.8982
-35.816
-29.773
-22.8977
-15.3693
-7.40942
0.729448
8.77869
16.4701
23.5527
29.8078
35.0613
39.1926
42.1369
43.882
44.4575
43.9163
42.3094
39.6547
35.907
30.9334
24.5023
16.2944
5.93925
-6.92049
-22.5419
-40.9804
-61.9893
-84.9388
-108.773
-132.02
-152.872
-169.323
-179.371
-181.249
-173.664
-156.01
-128.52
-92.3284
-49.4341
-2.5527
45.1224
90.2274
129.568
160.45
180.955
190.14
188.115
176.016
155.856
130.283
102.28
74.8372
50.6372
31.7895
19.6449
14.7027
16.6192
24.3082
36.1162
50.0493
64.02
76.0871
84.6601
88.6506
87.5549
81.4657
71.0163
57.2689
41.5638
25.3495
10.0142
-3.26246
-13.6229
-20.6003
-24.1385
-24.566
-22.5287
-18.895
-14.643
-10.7456
-8.06413
-7.26297
-8.75098
-12.6557
-18.8296
-26.8868
-36.2625
-46.2893
-56.2783
-65.5975
-73.7369
-80.3549
-85.3004
-88.6112
-90.4884
-91.2539
-91.2958
-91.0103
-90.7472
-90.766
-91.2063
-92.076
-93.2563
-94.5215
-95.5695
-96.0598
-95.6523
-94.0449
-91.0064
-86.4016
-80.208
-72.5231
-63.5617
-53.6429
-43.1684
-32.5926
-22.3871
-13.0036
-4.83619
1.8104
6.74546
9.90611
11.3591
11.2902
9.98318
7.78933
5.09258
2.2728
-0.328192
-2.43475
-3.85699
-4.50019
-4.36389
-3.5312
-2.15041
-0.411371
1.48029
3.32816
4.96627
6.27465
7.18777
7.69564
7.83807
7.69364
7.36513
6.96368
6.59375
6.34063
6.26187
6.38313
6.69848
7.17454
7.75738
8.38081
8.97494
9.47387
9.82169
9.97654
9.91265
9.62056
9.10593
8.38735
7.49336
6.45907
5.32246
4.12065
2.88631
1.64463
0.411174
-0.80882
-2.01939
-3.23091
-4.45535
-5.70033
-6.96267
-8.22263
-9.43994
-10.5525
-11.4786
-12.1225
-12.3836
-12.1674
-11.3971
-10.0255
-8.04324
-5.4842
-2.42656
1.01106
4.67741
8.39997
11.9983
15.2982
18.1448
20.4143
22.0214
22.9239
23.1223
22.6564
21.5979
20.0418
18.0966
15.876
13.4921
11.0511
8.65192
6.38565
4.33623
2.58013
1.18447
0.202868
-0.33048
-0.407442
-0.0514514
0.680094
1.69822
2.8904
4.1337
5.31155
6.33116
7.13853
7.72756
8.14114
8.46304
8.8013
9.26562
9.94247
10.8723
12.0335
13.3354
14.6238
15.6972
16.3316
16.3123
15.4643
13.6802
10.9389
7.31378
2.96781
-1.86238
-6.89205
-11.8196
-16.3592
-20.2707
-23.3829
-25.6079
-26.9454
-27.4768
-27.3513
-26.7656
-25.9411
-25.1009
-24.4488
-24.1527
-24.3338
-25.0605
-26.3481
-28.1617
-30.4235
-33.0202
-35.8121
-38.6416
-41.3414
-43.7413
-45.6748
-46.9841
-47.5264
-47.1786
-45.8438
-43.4577
-39.9955
-35.4778
-29.9752
-23.6103
-16.5552
-9.02538
-1.26877
6.44864
13.8597
20.7138
26.7924
31.9219
35.9807
38.8991
40.6516
41.2395
40.666
38.9039
35.8626
31.3581
25.0976
16.6851
5.65741
-8.44509
-25.9747
-47.0483
-71.4119
-98.3229
-126.478
-154.012
-178.593
-197.606
-208.428
-208.752
-196.927
-172.254
-135.195
-87.4547
-31.9042
27.6426
86.7879
140.998
186.085
218.662
236.507
238.8
226.188
200.688
165.43
124.286
81.4256
40.8613
6.03365
-20.513
-37.3332
-44.1438
-41.7505
-31.856
-16.782
0.855967
18.4778
33.8322
45.2225
51.6448
52.8279
49.1816
41.6676
31.6154
20.5131
9.798
0.676291
-6.01236
-9.87075
-10.958
-9.74488
-7.02123
-3.77068
-1.03053
0.245347
-0.695925
-4.32076
-10.7639
-19.8259
-31.011
-43.5982
-56.7337
-69.5343
-81.1863
-91.0304
-98.6218
-103.762
-106.498
-107.095
-105.987
-103.708
-100.822
-97.8579
-95.2492
-93.2967
-92.1489
-91.8024
-92.1213
-92.8697
-93.7526
-94.4584
-94.6977
-94.2338
-92.9017
-90.6151
-87.3623
-83.1929
-78.1993
-72.497
-66.2065
-59.4402
-52.2967
-44.8604
-37.2083
-29.419
-21.5838
-13.8147
-6.24835
0.955647
7.62278
13.5769
18.657
22.7344
25.7284
27.6177
28.4448
28.3145
27.3846
25.8512
23.9305
21.8389
19.7739
17.8988
16.3315
15.139
14.3383
13.9014
13.7646
13.8399
14.0275
14.2268
14.3463
14.3101
14.063
13.572
12.8263
11.8357
10.6281
9.24545
7.74015
6.1702
4.59423
3.06628
1.63067
0.317467
-0.860694
-1.91001
-2.85442
-3.73182
-4.5879
-5.46798
-6.40815
-7.42695
-8.51897
-9.6517
-10.7663
-11.7829
-12.6088
-13.1503
-13.3249
-13.0725
-12.3646
-11.2095
-9.65381
-7.77947
-5.69794
-3.54204
-1.45657
0.411523
1.92274
2.95435
3.40904
3.22302
2.37293
0.881426
-1.17984
-3.69039
-6.48539
-9.36464
-12.1062
-14.4838
-16.286
-17.3364
-17.5107
-16.7506
-15.0705
-12.5579
-9.36647
-5.70188
-1.8032
2.07901
5.70509
8.86676
11.4036
13.2141
14.2599
14.5638
14.2022
13.2922
11.9766
10.4072
8.7299
7.07105
5.52851
4.16648
3.01495
2.07317
1.3163
0.703983
0.189731
-0.270303
-0.710147
-1.14924
-1.59045
-2.02097
-2.41553
-2.74154
-2.96495
-3.05626
-2.99547
-2.77574
-2.4049
-1.90516
-1.31082
-0.664556
-0.0128529
0.59884
1.1305
1.55101
1.84029
1.99017
2.00389
1.89459
1.68318
1.39572
1.06088
0.707377
0.361788
0.046687
-0.220777
-0.42971
-0.575554
-0.659268
-0.685516
-0.66
-0.586257
-0.46244
-0.278748
-0.0161281
0.353231
0.86338
1.5501
2.44481
3.56755
4.91989
6.47881
8.19244
9.97867
11.7271
13.3046
14.5647
15.3598
15.5544
15.0401
13.7479
11.6582
8.80613
5.28123
1.22159
-3.19767
-7.78003
-12.3259
-16.6514
-20.6046
-24.0788
-27.0193
-29.4238
-31.3366
-32.8367
-34.0224
-34.9933
-35.8341
-36.6007
-37.311
-37.9431
-38.4383
-38.7114
-38.6645
-38.203
-37.2523
-35.7704
-33.7572
-31.257
-28.355
-25.1679
-21.8302
-18.4783
-15.2344
-12.1932
-9.41294
-6.91186
-4.67047
-2.63928
-0.750298
1.06946
2.88427
4.73736
6.64047
8.56507
10.4341
12.113
13.3993
14.0115
13.5797
11.6437
7.66543
1.06225
-8.73227
-22.1799
-39.5269
-60.6836
-85.115
-111.767
-139.052
-164.909
-186.957
-202.715
-209.888
-206.665
-192.005
-165.844
-129.21
-84.197
-33.8143
18.2969
68.2312
112.234
147.108
170.558
181.428
179.809
166.991
145.283
117.72
87.6977
58.5794
33.3323
14.2274
2.63955
-1.03484
2.65961
12.3811
26.2164
41.9541
57.3701
70.4881
79.7874
84.3367
83.8444
78.6283
69.5143
57.6847
44.4987
31.3103
19.3055
9.37768
2.0508
-2.54294
-4.63566
-4.7544
-3.6226
-2.04788
-0.810888
-0.56907
-1.7853
-4.68781
-9.26305
-15.2793
-22.335
-29.9242
-37.5086
-44.5891
-50.7655
-55.7817
-59.5491
-62.1489
-63.8136
-64.8908
-65.795
-66.9532
-68.7507
-71.4827
-75.3186
-80.2785
-86.2287
-92.8906
-99.8663
-106.674
-112.791
-117.701
-120.936
-122.12
-120.993
-117.436
-111.475
-103.275
-93.1289
-81.4282
-68.6369
-55.2566
-41.7931
-28.7243
-16.4727
-5.38364
4.28992
12.3944
18.8754
23.7703
27.1953
29.3278
30.3874
30.615
30.2544
29.5355
28.6618
27.8008
27.079
26.5801
26.3464
26.3832
26.6644
27.1398
27.743
28.3994
29.0338
29.5766
29.9698
30.1702
30.1515
29.9044
29.435
28.7612
27.9094
26.9091
25.7889
24.5725
23.2763
21.9082
20.4682
18.9501
17.345
15.645
13.8468
11.9551
9.98537
7.96451
5.93074
3.93152
2.0204
0.252789
-1.31861
-2.64831
-3.7018
-4.45814
-4.91113
-5.06896
-4.95248
-4.59252
-4.02669
-3.29619
-2.44312
-1.50855
-0.531477
0.45145
1.40566
2.29826
3.09778
3.77447
4.30125
4.65538
4.82053
4.78902
4.56378
4.1595
3.60267
2.93019
2.18675
1.42097
0.681018
0.0101364
-0.557267
-0.998358
-1.30316
-1.4742
-1.52467
-1.47544
-1.35145
-1.17803
-0.97778
-0.768502
-0.562286
-0.365955
-0.182534
-0.0133666
0.139651
0.272211
0.376499
0.441028
0.451347
0.391409
0.245294
-0.000991835
-0.357842
-0.830567
-1.41813
-2.11208
-2.89566
-3.74313
-4.61959
-5.48115
-6.27605
-6.94661
-7.43226
-7.67369
-7.6178
-7.22331
-6.46627
-5.34508
-3.88409
-2.13529
-0.177511
1.88715
3.93967
5.85283
7.50165
8.7745
9.58365
9.87416
9.62968
8.87461
7.67189
6.11681
4.32728
2.43182
0.556854
-1.1852
-2.70539
-3.94411
-4.87286
-5.49174
-5.82355
-5.90549
-5.77997
-5.48609
-5.05318
-4.49752
-3.82269
-3.02358
-2.09336
-1.03239
0.142737
1.39132
2.64368
3.80025
4.73553
5.30668
5.36625
4.77765
3.43158
1.26123
-1.74576
-5.5404
-10.0117
-14.9928
-20.2729
-25.6146
-30.7741
-35.5215
-39.6607
-43.0443
-45.584
-47.255
-48.0939
-48.1913
-47.6805
-46.7229
-45.4919
-44.157
-42.8691
-41.7478
-40.8718
-40.2741
-39.9405
-39.8131
-39.7977
-39.7744
-39.6103
-39.1724
-38.3407
-37.018
-35.138
-32.6695
-29.6176
-26.0222
-21.9541
-17.5103
-12.8076
-7.97774
-3.16153
1.49617
5.85162
9.76746
13.1183
15.7962
17.7147
18.8112
19.0436
18.3808
16.7851
14.1868
10.4548
5.37004
-1.39028
-10.2459
-21.6768
-36.1514
-54.0223
-75.3996
-100.02
-127.14
-155.474
-183.206
-208.096
-227.664
-239.464
-241.386
-231.973
-210.682
-178.052
-135.751
-86.4708
-33.6981
18.6398
66.5878
106.591
135.884
152.778
156.831
148.859
130.805
105.487
76.2453
46.5589
19.6611
-1.78981
-15.9523
-21.9322
-19.7944
-10.4656
4.45255
22.9283
42.768
61.8739
78.4615
91.2148
99.3699
102.723
101.575
96.6197
88.8103
79.2054
68.8311
58.5664
49.0644
40.7152
33.6473
27.7639
22.8023
18.4066
14.2008
9.85406
5.12885
-0.09161
-5.79766
-11.8677
-18.0983
-24.2452
-30.0666
-35.3649
-40.0195
-44.0067
-47.4051
-50.3849
-53.1832
-56.0689
-59.3007
-63.0859
-67.5424
-72.6732
-78.3532
-84.3342
-90.2656
-95.7302
-100.291
-103.541
-105.153
-104.923
-102.792
-98.86
-93.3755
-86.7073
-79.3042
-71.6439
-64.1798
-57.2919
-51.2476
-46.1774
-42.0685
-38.7762
-36.0517
-33.5828
-31.0407
-28.1275
-24.6187
-20.3936
-15.4515
-9.91104
-3.9935
2.00685
7.76145
12.9495
17.2976
20.6127
22.8031
23.8862
23.9827
23.2977
22.0924
20.6502
19.2418
18.0939
17.3645
17.1296
17.3797
18.0286
18.9306
19.9048
20.7627
21.3338
21.4883
21.1521
20.3132
19.0192
17.3673
15.4876
13.5235
11.6123
9.86765
8.36718
7.14654
6.1994
5.48348
4.93063
4.4594
3.98796
3.44575
2.7826
1.97463
1.0265
-0.0296379
-1.13834
-2.22737
-3.21582
-4.02304
-4.57732
-4.82366
-4.72975
-4.28978
-3.52543
-2.48443
-1.23655
0.132343
1.52739
2.8525
4.01791
4.94681
5.58069
5.883
5.84096
5.46563
4.79034
3.86785
2.76645
1.56538
0.349787
-0.794538
-1.78659
-2.55562
-3.04649
-3.22453
-3.07943
-2.62748
-1.91149
-0.998175
0.0273067
1.06916
2.03038
2.82271
3.37589
3.64504
3.61513
3.30199
2.74974
2.02499
1.20858
0.38594
-0.362664
-0.97097
-1.39351
-1.60978
-1.62545
-1.47071
-1.19609
-0.8664
-0.553637
-0.329516
-0.258518
-0.39208
-0.764445
-1.39052
-2.26585
-3.36866
-4.66369
-6.10735
-7.65382
-9.26125
-10.8975
-12.5449
-14.2029
-15.8885
-17.6349
-19.4866
-21.494
-23.7058
-26.1618
-28.8863
-31.8826
-35.1305
-38.5854
-42.1804
-45.83
-49.4348
-52.8875
-56.0777
-58.8971
-61.2437
-63.0268
-64.1704
-64.6181
-64.3368
-63.3203
-61.5918
-59.2041
-56.2377
-52.7954
-48.9937
-44.9518
-40.7783
-36.5589
-32.3462
-28.1542
-23.9586
-19.7035
-15.3141
-10.7132
-5.84048
-0.669522
4.77725
10.42
16.1194
21.6825
26.874
31.4343
35.0977
37.6101
38.74
38.2804
36.0403
31.8268
25.4229
16.5709
4.97062
-9.6957
-27.7055
-49.2044
-74.0908
-101.893
-131.668
-161.945
-190.748
-215.71
-234.268
-243.953
-242.704
-229.192
-203.083
-165.207
-117.586
-63.314
-6.28465
49.1881
98.8259
138.85
166.393
179.813
178.851
164.636
139.521
106.787
70.2473
33.8099
1.05334
-25.1376
-42.8318
-51.1843
-50.4354
-41.7851
-27.1681
-8.96482
10.3119
28.3155
43.1147
53.3682
58.412
58.2574
53.5082
45.2182
34.7096
23.381
12.5282
3.19876
-3.90576
-8.47315
-10.5704
-10.5869
-9.14424
-6.98663
-4.86856
-3.45425
-3.24006
-4.50733
-7.30829
-11.4831
-16.7027
-22.5282
-28.4797
-34.1014
-39.0185
-42.9774
-45.8663
-47.7162
-48.6831
-49.0163
-49.0175
-48.9976
-49.2353
-49.9441
-51.2498
-53.1817
-55.675
-58.586
-61.7125
-64.82
-67.6646
-70.0135
-71.6589
-72.4255
-72.1741
-70.8029
-68.2491
-64.4919
-59.5576
-53.5259
-46.5342
-38.7796
-30.514
-22.0339
-13.6625
-5.72785
1.46274
7.6467
12.627
16.2864
18.5944
19.6051
19.4496
18.3215
16.4601
14.1326
11.6162
9.18215
7.08064
5.52825
4.69648
4.70235
5.60115
7.38237
9.96947
13.2243
16.9566
20.9379
24.9195
28.6519
31.9055
34.4883
36.2605
37.1445
37.1279
36.262
34.6533
32.4518
29.8354
26.9935
24.1102
21.3499
18.845
16.6884
14.9292
13.5732
12.5879
11.9092
11.452
11.1207
10.8197
10.4628
9.97945
9.31824
8.44715
7.35067
6.02546
4.47545
2.70819
0.73356
-1.43436
-3.77237
-6.24112
-8.77772
-11.2902
-13.6559
-15.7258
-17.3348
-18.3184
-18.533
-17.878
-16.315
-13.8823
-10.7002
-6.96596
-2.93856
1.08653
4.80866
7.95582
10.3159
11.7612
12.2614
11.8845
10.7836
9.17283
7.29553
5.38944
3.65479
2.22958
1.17602
0.479621
0.060674
-0.204262
-0.454796
-0.817839
-1.38229
-2.1814
-3.18564
-4.307
-5.414
-6.35477
-6.98482
-7.19503
-6.936
-6.23489
-5.20247
-4.02898
-2.96884
-2.31588
-2.37164
-3.41052
-5.6458
-9.201
-14.0901
-20.2093
-27.3421
-35.1766
-43.3333
-51.4009
-58.9732
-65.686
-71.2459
-75.45
-78.1945
-79.4698
-79.3471
-77.9559
-75.4589
-72.027
-67.8184
-62.9653
-57.5679
-51.6974
-45.4054
-38.7377
-31.7497
-24.52
-17.1602
-9.81829
-2.67657
4.05798
10.1677
15.4421
19.696
22.787
24.6289
25.1996
24.542
22.7573
19.9909
16.4103
12.176
7.40874
2.15392
-3.65068
-10.1983
-17.8199
-26.9665
-38.16
-51.9098
-68.5967
-88.3357
-110.836
-135.287
-160.295
-183.907
-203.734
-217.176
-221.732
-215.356
-196.803
-165.913
-123.772
-72.7168
-16.1735
41.6652
96.277
143.308
179.064
200.926
207.636
199.424
177.946
146.063
107.487
66.3433
26.7039
-7.84046
-34.5292
-51.66
-58.6787
-56.13
-45.4865
-28.8877
-8.82693
12.1687
31.828
48.3608
60.5989
68.0442
70.8278
69.5958
65.344
59.2292
52.3822
45.7496
39.9799
35.3657
31.8438
29.0476
26.3997
23.2272
18.8833
12.8565
4.85311
-5.15613
-16.9293
-29.9852
-43.6668
-57.2254
-69.9137
-81.0737
-90.2097
-97.0366
-101.5
-103.766
-104.187
-103.249
-101.501
-99.4925
-97.7074
-96.5176
-96.151
-96.6809
-98.0337
-100.014
-102.339
-104.688
-106.735
-108.2
-108.867
-108.609
-107.389
-105.249
-102.294
-98.6604
-94.4908
-89.9053
-84.9827
-79.7519
-74.1943
-68.2579
-61.8795
-55.0103
-47.6416
-39.8235
-31.6752
-23.3827
-15.1854
-7.3528
-0.155291
6.16755
11.4352
15.5473
18.4951
20.3602
21.3025
21.5375
21.3081
20.8527
20.3759
20.0247
19.8745
19.9243
20.1041
20.2907
20.3307
20.066
19.3597
18.1166
16.298
13.9269
11.0858
7.90544
4.54897
1.19182
-1.99805
-4.8778
-7.34305
-9.33525
-10.8429
-11.8967
-12.5603
-12.9174
-13.0585
-13.0675
-13.0114
-12.9336
-12.8512
-12.7564
-12.6221
-12.4089
-12.0739
-11.5794
-10.8987
-10.021
-8.95176
-7.71111
-6.32938
-4.8416
-3.28189
-1.67889
-0.053396
1.58158
3.21815
4.84896
6.46166
8.03368
9.52856
10.8948
12.0676
12.974
13.5403
13.7007
13.4073
12.6381
11.4049
9.75642
7.78004
5.59848
3.36334
1.24504
-0.579925
-1.94329
-2.69955
-2.73936
-2.00026
-0.473847
1.79162
4.69326
8.08017
11.7639
15.5315
19.1608
22.4354
25.1588
27.1673
28.3391
28.6007
27.9294
26.3523
23.9418
20.8095
17.0977
12.9705
8.60552
4.18528
-0.109906
-4.10854
-7.65376
-10.6086
-12.861
-14.3279
-14.9593
-14.741
-13.6962
-11.8855
-9.40445
-6.37952
-2.96144
0.682741
4.37878
7.95466
11.2495
14.1216
16.4541
18.1601
19.184
19.5021
19.1213
18.0754
16.4222
14.2384
11.6154
8.65455
5.4631
2.14971
-1.1793
-4.42375
-7.49332
-10.3111
-12.8167
-14.9693
-16.7492
-18.1593
-19.2248
-19.9925
-20.5289
-20.9182
-21.259
-21.6604
-22.2372
-23.1028
-24.361
-26.0967
-28.3655
-31.1847
-34.5263
-38.3127
-42.4186
-46.6758
-50.8851
-54.83
-58.2947
-61.0812
-63.0255
-64.0095
-63.9678
-62.8891
-60.8106
-57.8085
-53.9849
-49.4547
-44.333
-38.7264
-32.7292
-26.4233
-19.8836
-13.1852
-6.41205
0.335261
6.93457
13.2401
19.0845
24.283
28.6403
31.9554
34.0244
34.6394
33.5814
30.6108
25.4567
17.8125
7.3432
-6.28794
-23.3699
-44.0693
-68.3369
-95.8051
-125.696
-156.758
-187.261
-215.055
-237.713
-252.751
-257.898
-251.396
-232.276
-200.581
-157.481
-105.266
-47.199
12.759
70.321
121.307
162.077
189.916
203.318
202.138
187.579
162.045
128.845
91.8179
54.9007
21.7119
-4.81313
-22.6891
-31.0251
-30.0361
-20.9298
-5.68892
13.2172
33.1523
51.6248
66.5549
76.4702
80.6122
78.9495
72.1055
61.2155
47.7396
33.2556
19.2602
7.00111
-2.64306
-9.22602
-12.7379
-13.5568
-12.3587
-10.0014
-7.39945
-5.40523
-4.71053
-5.77768
-8.80533
-13.7294
-20.2554
-27.9151
-36.1381
-44.3293
-51.9407
-58.5318
-63.8098
-67.6492
-70.0893
-71.3109
-71.6002
-71.3019
-70.7713
-70.33
-70.2302
-70.6316
-71.5901
-73.0603
-74.9074
-76.9271
-78.869
-80.4627
-81.4417
-81.565
-80.6343
-78.507
-75.1045
-70.4169
-64.5029
-57.4867
-49.5515
-40.9297
-31.8903
-22.7234
-13.7234
-5.17096
2.68445
9.64029
15.5534
20.3479
24.0178
26.6238
28.2839
29.1596
29.4385
29.3147
28.9709
28.5621
28.2043
27.9692
27.8842
27.9384
28.0926
28.2918
28.4786
28.6046
28.6391
28.5741
28.4241
28.2224
28.0148
27.85
27.7717
27.8098
27.9751
28.2565
28.6215
29.0199
29.3893
29.6626
29.7753
29.6725
29.3134
28.6742
27.7477
26.5414
25.0726
23.364
21.4385
19.3157
17.0106
14.5347
11.8985
9.11633
6.2114
3.2199
0.194108
-2.79693
-5.66914
-8.32763
-10.6728
-12.6078
-14.0465
-14.9209
-15.1873
-14.8306
-13.8671
-12.3443
-10.3394
-7.95589
-5.31852
-2.5671
0.150755
2.68771
4.90523
6.68215
7.92263
8.56286
8.57585
7.97371
6.80707
5.16159
3.15171
0.912172
-1.41192
-3.6756
-5.74419
-7.5023
-8.86077
-9.76126
-10.1781
-10.1178
-9.61513
-8.72871
-7.53368
-6.11421
-4.55571
-2.93739
-1.32598
0.229007
1.69798
3.07175
4.35963
5.58513
6.77955
7.97394
9.19045
10.4341
11.6862
12.9019
14.0103
14.9211
15.5345
15.7541
15.5017
14.731
13.4378
11.6657
9.50583
7.08966
4.57708
2.13994
-0.0561358
-1.86947
-3.19731
-3.98616
-4.23642
-4.00073
-3.37657
-2.49399
-1.50017
-0.542367
0.248628
0.773009
0.972755
0.837542
0.40499
-0.245005
-1.00135
-1.73702
-2.3266
-2.66373
-2.67602
-2.33523
-1.66137
-0.719953
0.386896
1.53431
2.59133
3.43798
3.98038
4.16193
3.96929
3.43253
2.61985
1.62783
0.568718
-0.443564
-1.30672
-1.94125
-2.29822
-2.36292
-2.15417
-1.71989
-1.12945
-0.464469
0.19056
0.75598
1.16129
1.34501
1.24981
0.814075
-0.0378779
-1.40359
-3.405
-6.18292
-9.88237
-14.6296
-20.5037
-27.5075
-35.5429
-44.3971
-53.7425
-63.1531
-72.1364
-80.1782
-86.7934
-91.5779
-94.2524
-94.6941
-92.9499
-89.2298
-83.8821
-77.3524
-70.1326
-62.706
-55.496
-48.8248
-42.8861
-37.7365
-33.304
-29.4142
-25.8276
-22.2855
-18.5554
-14.4727
-9.97084
-5.09727
-0.0131589
5.02325
9.68672
13.6239
16.4941
18.005
17.9348
16.1365
12.5207
7.02119
-0.450385
-10.045
-21.998
-36.6152
-54.2143
-75.0197
-99.0234
-125.834
-154.546
-183.67
-211.144
-234.458
-250.879
-257.769
-252.941
-235.017
-203.714
-160.024
-106.232
-45.781
17.0377
77.5034
130.965
173.346
201.59
213.992
210.37
192.06
161.735
123.074
80.3324
37.8572
-0.377224
-31.1693
-52.3767
-63.0626
-63.4939
-55.0022
-39.733
-20.3232
0.448933
19.9971
36.2055
47.6223
53.5544
54.0598
49.85
42.1217
32.3474
22.0537
12.6163
5.09609
0.131942
-2.10217
-1.87603
0.172765
3.15536
6.07064
7.94752
7.97271
5.5891
0.555313
-7.03828
-16.7954
-28.0754
-40.0806
-51.9562
-62.8908
-72.2051
-79.4185
-84.2886
-86.82
-87.2448
-85.9782
-83.5576
-80.5728
-77.5964
-75.122
-73.518
-72.9978
-73.612
-75.2581
-77.7072
-80.6407
-83.6944
-86.5011
-88.7288
-90.1095
-90.4562
-89.6678
-87.7237
-84.6694
-80.599
-75.6364
-69.9196
-63.5896
-56.7852
-49.6427
-42.2986
-34.8932
-27.5725
-20.4877
-13.7894
-7.61978
-2.10171
2.67193
6.6471
9.81354
12.2049
13.8939
14.9821
15.5878
15.8313
15.8213
15.6442
15.3562
14.981
14.5115
13.916
13.1469
12.1522
10.8863
9.31995
7.44854
5.29644
2.91822
0.396288
-2.16468
-4.64579
-6.92347
-8.87966
-10.4114
-11.4393
-11.9134
-11.8169
-11.167
-10.0132
-8.43316
-6.52757
-4.41369
-2.21866
-0.07279
1.89686
3.57247
4.85095
5.64884
5.90658
5.59208
4.70335
3.27019
1.35469
-0.949794
-3.52128
-6.21398
-8.86544
-11.3061
-13.371
-14.9127
-15.8151
-16.0048
-15.4603
-14.2172
-12.3663
-10.0477
-7.43875
-4.737
-2.14206
0.163749
2.03256
3.36407
4.11338
4.29246
3.96554
3.23908
2.24775
1.13823
0.0529125
-0.884809
-1.58193
-1.98297
-2.07222
-1.87128
-1.43241
-0.828811
-0.143113
0.544272
1.16563
1.67394
2.04762
2.29145
2.43401
2.52185
2.61152
2.76046
3.01805
3.41791
3.97255
4.67095
5.4793
6.34477
7.20172
7.97944
8.6105
9.03848
9.2243
9.15029
8.82181
8.26608
7.52883
6.66905
5.75273
4.84624
4.01033
3.29513
2.73685
2.35617
2.15848
2.13542
2.2675
2.52713
2.88168
3.29606
3.73473
4.16302
4.54781
4.85781
5.06349
5.137
5.05201
4.78368
4.30876
3.60563
2.65441
1.43705
-0.0626329
-1.85871
-3.96256
-6.38174
-9.11822
-12.1662
-15.5093
-19.1188
-22.9511
-26.9475
-31.034
-35.1228
-39.1146
-42.9004
-46.3648
-49.388
-51.8484
-53.6256
-54.6036
-54.676
-53.7521
-51.7657
-48.6838
-44.5163
-39.3235
-33.2213
-26.3809
-19.0233
-11.4077
-3.81446
3.47486
10.1998
16.1415
21.1394
25.1024
28.0127
29.9215
30.9386
31.2153
30.9245
30.237
29.2987
28.2051
26.9767
25.5334
23.6694
21.0349
17.1288
11.3139
2.86197
-8.96207
-24.7788
-44.9432
-69.3839
-97.4611
-127.876
-158.666
-187.296
-210.874
-226.445
-231.361
-223.652
-202.36
-167.774
-121.517
-66.4784
-6.56987
53.6515
109.459
156.467
191.106
211.014
215.272
204.485
180.667
146.983
107.359
66.0224
27.036
-6.12966
-30.9263
-45.931
-50.9069
-46.7224
-35.1504
-18.5804
0.315081
18.9158
34.9507
46.7242
53.2513
54.2941
50.305
42.2925
31.6336
19.8614
8.4561
-1.33594
-8.63472
-13.0005
-14.445
-13.3859
-10.5539
-6.87088
-3.31499
-0.791369
-0.0239435
-1.47931
-5.32931
-11.4533
-19.4759
-28.8328
-38.8538
-48.8507
-58.1999
-66.4092
-73.1626
-78.339
-82.006
-84.3908
-85.8349
-86.7383
-87.5023
-88.4773
-89.9207
-91.9704
-94.6342
-97.7956
-101.234
-104.656
-107.729
-110.12
-111.529
-111.715
-110.511
-107.835
-103.682
-98.1169
-91.2595
-83.2678
-74.3231
-64.6189
-54.3535
-43.7267
-32.9399
-22.1977
-11.7075
-1.67934
7.67986
16.1734
23.6254
29.8927
34.8756
38.5274
40.859
41.9402
41.8949
40.8924
39.1353
36.8444
34.2438
31.5456
28.9379
26.5746
24.5696
22.9942
21.8785
21.2147
20.9636
21.0612
21.4259
21.9656
22.5832
23.1816
23.6676
23.9551
23.9676
23.6405
22.9239
21.7842
20.2072
18.1994
15.7896
13.0289
9.98936
6.76087
3.44636
0.155448
-3.00287
-5.92777
-8.53352
-10.7551
-12.5517
-13.9079
-14.8321
-15.3531
-15.5142
-15.3671
-14.9645
-14.3546
-13.5752
-12.6522
-11.5983
-10.4163
-9.1033
-7.65725
-6.08365
-4.4014
-2.64664
-0.873779
0.846947
2.43498
3.8075
4.88889
5.6201
5.96678
5.92468
5.52178
4.81665
3.89339
2.85365
1.80688
0.859859
0.106689
-0.379744
-0.554001
-0.401557
0.0607058
0.786882
1.70694
2.73358
3.77031
4.71997
5.49284
6.01356
6.22623
6.09731
5.61634
4.7949
3.66462
2.27524
0.693571
-0.996556
-2.69352
-4.27763
-5.61291
-6.55261
-6.94973
-6.67289
-5.62664
-3.77359
-1.1548
2.09612
5.74925
9.48803
12.9331
15.6787
17.3377
17.5897
16.224
13.1727
8.52751
2.5372
-4.41372
-11.8435
-19.2231
-26.0321
-31.8118
-36.211
-39.017
-40.1696
-39.7572
-37.9956
-35.1935
-31.7095
-27.9062
-24.1073
-20.5629
-17.4272
-14.7507
-12.4866
-10.5115
-8.6543
-6.73177
-4.58396
-2.10516
0.733616
3.87415
7.17376
10.4215
13.3657
15.7494
17.3495
18.012
17.6812
16.4138
14.3778
11.8328
9.09301
6.47564
4.24064
2.52859
1.3055
0.324076
-0.889649
-3.01621
-6.88421
-13.3725
-23.2781
-37.1625
-55.1944
-77.0153
-101.653
-127.512
-152.446
-173.937
-189.347
-196.233
-192.671
-177.559
-150.837
-113.594
-68.0353
-17.3121
34.7848
84.2176
127.138
160.307
181.454
189.506
184.69
168.465
143.32
112.458
79.4072
47.6133
20.0672
-0.993213
-14.2726
-19.4825
-17.2827
-9.11394
3.04703
16.9756
30.4908
41.7134
49.2636
52.3769
50.9338
45.4063
36.7358
26.1661
15.054
4.68597
-3.87832
-9.91814
-13.1101
-13.5309
-11.6102
-8.04461
-3.68704
0.570739
3.90839
5.6663
5.4054
2.93326
-1.70293
-8.25161
-16.3122
-25.4012
-35.0181
-44.704
-54.0844
-62.8941
-70.983
-78.3053
-84.8956
-90.8379
-96.2327
-101.167
-105.691
-109.805
-113.452
-116.527
-118.886
-120.365
-120.798
-120.043
-117.996
-114.606
-109.887
-103.917
-96.8387
-88.8494
-80.1853
-71.1073
-61.882
-52.7652
-43.9877
-35.744
-28.186
-21.4199
-15.506
-10.4616
-6.26403
-2.8556
-0.148643
1.96854
3.62472
4.95748
6.10386
7.19014
8.32181
9.57449
10.9873
12.5596
14.2515
15.9892
17.6732
19.1905
20.4271
21.2814
21.6754
21.5631
20.9353
19.8207
18.2829
16.4153
14.3331
12.1648
10.0428
8.09336
6.42711
5.12974
4.25374
3.81207
3.77467
4.06872
4.58305
5.177
5.69291
5.97129
5.86693
5.26422
4.08981
2.32127
-0.0094431
-2.81786
-5.97401
-9.31372
-12.6529
-15.8034
-18.5883
-20.8567
-22.4944
-23.4319
-23.6483
-23.1701
-22.0668
-20.4427
-18.4254
-16.1539
-13.7656
-11.3843
-9.11099
-7.01733
-5.14322
-3.49831
-2.06709
-0.816829
0.292979
1.3009
2.23506
3.107
3.90862
4.61262
5.176
5.54632
5.66975
5.50018
5.00837
4.19027
3.07348
1.72077
0.230077
-1.26996
-2.62862
-3.68556
-4.28612
-4.29768
-3.62532
-2.22483
-0.111264
2.63809
5.88706
9.44994
13.106
16.6175
19.7492
22.2876
24.0575
24.9349
24.8549
23.8151
21.8735
19.1426
15.7807
11.9804
7.95666
3.93396
0.134307
-3.23477
-5.99137
-7.98948
-9.12816
-9.35892
-8.69057
-7.1907
-4.98268
-2.23773
0.838098
4.02128
7.09106
9.85017
12.1434
13.8713
14.9963
15.5411
15.5776
15.2099
14.5525
13.7078
12.7475
11.6996
10.5443
9.21948
7.63311
5.68194
3.27113
0.331867
-3.16687
-7.21406
-11.7605
-16.7287
-22.0268
-27.5613
-33.2465
-39.0077
-44.7768
-50.4824
-56.0364
-61.3211
-66.1801
-70.4173
-73.8042
-76.0965
-77.0581
-76.488
-74.248
-70.285
-64.6456
-57.4812
-49.0417
-39.6599
-29.7279
-19.6684
-9.90424
-0.828785
7.22041
13.9823
19.2861
23.0582
25.3199
26.1798
25.8181
24.4672
22.3885
19.8476
17.0894
14.3142
11.655
9.15708
6.75803
4.27199
1.37806
-2.38091
-7.58283
-14.8866
-24.9615
-38.3847
-55.5119
-76.3367
-100.361
-126.507
-153.099
-177.936
-198.461
-212.023
-216.196
-209.118
-189.796
-158.33
-116.013
-65.2856
-9.54421
47.179
100.628
146.773
182.244
204.692
213.031
207.534
189.772
162.403
128.842
92.8572
58.1376
27.8973
4.55244
-10.4876
-16.8956
-15.3691
-7.45391
4.71893
18.7459
32.2695
43.2623
50.2451
52.4165
49.6858
42.6143
32.2801
20.0913
7.57416
-3.83211
-12.952
-19.0005
-21.6502
-21.036
-17.7025
-12.506
-6.48672
-0.729437
3.7706
6.22007
6.10736
3.24283
-2.24213
-9.93379
-19.2051
-29.304
-39.4504
-48.9271
-57.1577
-63.7597
-68.5718
-71.6508
-73.244
-73.7405
-73.6098
-73.3354
-73.353
-73.999
-75.475
-77.8314
-80.9703
-84.6644
-88.5904
-92.3685
-95.6063
-97.9382
-99.0586
-98.7458
-96.8739
-93.4162
-88.4385
-82.0875
-74.5748
-66.1595
-57.1314
-47.7939
-38.4488
-29.3813
-20.8464
-13.0572
-6.1738
-0.297073
4.5352
8.34669
11.2161
13.2662
14.6486
15.5266
16.0577
16.3778
16.589
16.7524
16.8874
16.9765
16.9761
16.8315
16.4927
15.9316
15.1542
14.2094
13.1885
12.2188
11.4482
11.0248
11.073
11.671
12.832
14.4933
16.5165
18.6972
20.7862
22.5181
23.6443
23.9653
23.3588
21.7986
19.3625
16.2269
12.6496
8.94139
5.43111
2.42752
0.182336
-1.14083
-1.48787
-0.923107
0.375843
2.13727
4.02686
5.68806
6.78666
7.054
6.32314
4.55305
1.83717
-1.60523
-5.45423
-9.32814
-12.831
-15.6025
-17.3646
-17.9568
-17.3571
-15.6852
-13.1868
-10.2019
-7.12139
-4.33663
-2.1907
-0.936003
-0.704679
-1.49502
-3.17532
-5.50413
-8.16359
-10.8012
-13.0744
-14.6919
-15.4467
-15.238
-14.0782
-12.0865
-9.46873
-6.4894
-3.43667
-0.587489
1.82402
3.6308
4.74728
5.17275
4.98405
4.31918
3.35457
2.27928
1.26971
0.467984
-0.0335476
-0.200016
-0.0536894
0.333835
0.855266
1.38482
1.79642
1.98041
1.85684
1.38412
0.562816
-0.56511
-1.92064
-3.39466
-4.8566
-6.16421
-7.17383
-7.75103
-7.78101
-7.17839
-5.89572
-3.92997
-1.32622
1.82215
5.37708
9.16329
12.9794
16.6116
19.8494
22.5005
24.406
25.4513
25.5738
24.7663
23.0757
20.597
17.466
13.8487
9.93098
5.90877
1.97843
-1.67155
-4.86815
-7.46079
-9.3278
-10.3824
-10.5779
-9.91191
-8.42834
-6.21764
-3.41365
-0.187438
3.26213
6.72062
9.97224
12.815
15.0754
16.6211
17.3707
17.2984
16.4351
14.8631
12.7069
10.1202
7.27121
4.32609
1.43442
-1.28388
-3.74819
-5.9231
-7.82027
-9.49624
-11.0464
-12.5958
-14.287
-16.2665
-18.6703
-21.6096
-25.1587
-29.346
-34.1485
-39.49
-45.2439
-51.2388
-57.2665
-63.0922
-68.4657
-73.1335
-76.8527
-79.4052
-80.6121
-80.3485
-78.5552
-75.2473
-70.5178
-64.5344
-57.5292
-49.7821
-41.5991
-33.2875
-25.1316
-17.3711
-10.1856
-3.68721
2.07812
7.12056
11.4891
15.2499
18.4636
21.1653
23.3501
24.9667
25.9186
26.0707
25.2599
23.3037
20.0045
15.1479
8.49641
-0.215908
-11.2808
-24.9952
-41.6161
-61.2871
-83.943
-109.203
-136.276
-163.903
-190.354
-213.515
-231.046
-240.621
-240.212
-228.377
-204.527
-169.1
-123.63
-70.6821
-13.663
43.4912
96.6962
142.134
176.645
198.052
205.37
198.893
180.124
151.588
116.538
78.5852
41.3254
7.97473
-18.9232
-37.6995
-47.6513
-49.0216
-42.8761
-30.9015
-15.1542
2.20733
19.1737
34.0905
45.8004
53.7098
57.7797
58.4492
56.5085
52.9398
48.7504
44.8194
41.7756
39.9214
39.2084
39.2646
39.4673
39.0492
37.2206
33.2926
26.7827
17.4909
5.53547
-8.65224
-24.3747
-40.747
-56.7968
-71.5725
-84.2451
-94.1916
-101.051
-104.749
-105.486
-103.698
-99.998
-95.0945
-89.7143
-84.528
-80.088
-76.7871
-74.8378
-74.2727
-74.9651
-76.6625
-79.0303
-81.6979
-84.3024
-86.525
-88.1163
-88.909
-88.8179
-87.8287
-85.9786
-83.334
-79.9682
-75.9448
-71.3082
-66.0822
-60.2768
-53.9005
-46.975
-39.5489
-31.7078
-23.5782
-15.3245
-7.13913
0.771487
8.20477
14.979
20.9478
26.0103
30.1149
33.257
35.472
36.8241
37.3936
37.2644
36.5136
35.2048
33.3857
31.0891
28.3391
25.1595
21.5837
17.6647
13.4836
9.15276
4.81624
0.642876
-3.1847
-6.48525
-9.09615
-10.8902
-11.7901
-11.7777
-10.8982
-9.2577
-7.01441
-4.36574
-1.53177
1.26248
3.80424
5.90811
7.42776
8.26355
8.3658
7.73371
6.41047
4.47536
2.03349
-0.795437
-3.88842
-7.12897
-10.4144
-13.6595
-16.7963
-19.7696
-22.5311
-25.0311
-27.212
-29.0049
-30.3297
-31.1007
-31.2354
-30.6672
-29.3584
-27.3121
-24.5801
-21.2661
-17.5219
-13.5382
-9.52931
-5.71437
-2.29724
0.552539
2.71543
4.13224
4.80794
4.80853
4.25164
3.29197
2.10354
0.861034
-0.277492
-1.18462
-1.77269
-1.9973
-1.85518
-1.37712
-0.617456
0.35824
1.48527
2.70988
3.99582
5.32657
6.70301
8.13701
9.64217
11.2233
12.8664
14.5316
16.1491
17.6209
18.8265
19.6342
19.915
19.5593
18.4933
16.6941
14.201
11.1212
7.62888
3.95645
0.379078
-2.80726
-5.31175
-6.87611
-7.30051
-6.46496
-4.34374
-1.01107
3.3628
8.5246
14.159
19.915
25.4353
30.3853
34.4786
37.4968
39.3014
39.8374
39.1275
37.2601
34.372
30.6292
26.209
21.2855
16.0215
10.5666
5.06017
-0.361617
-5.55796
-10.378
-14.6595
-18.2341
-20.9374
-22.6258
-23.194
-22.5943
-20.851
-18.0696
-14.4377
-10.2169
-5.72695
-1.32326
2.62986
5.78654
7.84518
8.5702
7.80838
5.49864
1.67528
-3.53526
-9.9234
-17.2104
-25.0659
-33.1284
-41.0265
-48.3996
-54.9178
-60.2974
-64.3138
-66.8089
-67.6953
-66.956
-64.6406
-60.8609
-55.7825
-49.6173
-42.6136
-35.0457
-27.202
-19.3728
-11.8365
-4.84648
1.38154
6.68047
10.9397
14.1095
16.2004
17.2786
17.4568
16.8814
15.7167
14.129
12.2683
10.2519
8.14669
5.95168
3.57963
0.839466
-2.578
-7.10527
-13.2866
-21.741
-33.0934
-47.8719
-66.3776
-88.5427
-113.802
-141.006
-168.408
-193.745
-214.411
-227.733
-231.288
-223.255
-202.712
-169.858
-126.107
-74.0323
-17.1607
40.358
94.1757
140.205
175.057
196.405
203.222
195.874
176.046
146.527
110.874
72.9986
36.733
5.42817
-18.376
-33.1663
-38.5415
-35.165
-24.5976
-9.0405
8.97483
26.9092
42.5102
54.0461
60.4557
61.4043
57.2472
48.913
37.73
25.2215
12.8969
2.06722
-6.29783
-11.656
-13.9177
-13.414
-10.8159
-7.02072
-3.02181
0.220962
1.89496
1.42091
-1.49592
-6.85198
-14.3673
-23.5373
-33.7052
-44.1463
-54.1519
-63.1049
-70.5381
-76.1708
-79.9215
-81.8964
-82.3585
-81.6808
-80.2919
-78.6197
-77.041
-75.8412
-75.1896
-75.1299
-75.5878
-76.3915
-77.3024
-78.0503
-78.3698
-78.0308
-76.8621
-74.7644
-71.714
-67.7565
-62.9945
-57.5715
-51.6548
-45.421
-39.044
-32.6872
-26.4998
-20.6142
-15.1456
-10.1907
-5.82644
-2.10678
0.939983
3.31407
5.04564
6.19405
6.84453
7.10231
7.08439
6.91011
6.69128
6.52321
6.47761
6.59819
6.89941
7.3683
7.96901
8.64941
9.34869
10.0051
10.563
10.9781
11.2211
11.2793
11.1559
10.8681
10.4441
9.91919
9.33216
8.7216
8.12262
7.56422
7.0672
6.64285
6.29237
6.00726
5.7705
5.55876
5.34528
5.10332
4.80976
4.44831
4.012
3.50446
2.93967
2.34025
1.7344
1.15179
0.619207
0.156414
-0.227045
-0.533525
-0.777229
-0.982423
-1.18025
-1.40471
-1.68837
-2.0584
-2.5333
-3.1205
-3.81494
-4.59868
-5.4414
-6.30196
-7.13077
-7.87298
-8.47232
-8.87525
-9.03507
-8.91576
-8.49498
-7.76605
-6.73881
-5.43912
-3.9074
-2.19643
-0.368524
1.50734
3.35862
5.11219
6.69755
8.05005
9.11431
9.8478
10.2242
10.236
9.89688
9.24165
8.32512
7.21858
6.00451
4.76964
3.59723
2.55939
1.71046
1.08229
0.682091
0.493149
0.478339
0.585955
0.757069
0.933414
1.06473
1.11459
1.06397
0.912123
0.674806
0.380199
0.0632481
-0.240643
-0.501575
-0.699885
-0.828982
-0.895985
-0.920217
-0.930001
-0.958454
-1.03911
-1.20222
-1.4724
-1.86808
-2.40304
-3.08962
-3.9433
-4.98743
-6.25707
-7.80052
-9.67768
-11.9547
-14.6949
-17.9478
-21.7365
-26.0467
-30.8191
-35.9457
-41.2727
-46.6089
-51.7388
-56.4401
-60.5016
-63.7411
-66.0197
-67.2512
-67.4062
-66.5088
-64.6292
-61.8721
-58.3628
-54.235
-49.6194
-44.6365
-39.3931
-33.9826
-28.487
-22.9816
-17.5387
-12.2311
-7.13308
-2.32
2.13462
6.16302
9.70793
12.727
15.1959
17.11
18.4833
19.3441
19.728
19.6649
19.1627
18.185
16.6254
14.2831
10.8429
5.87085
-1.1681
-10.8617
-23.7679
-40.3008
-60.5964
-84.3769
-110.841
-138.609
-165.744
-189.868
-208.378
-218.73
-218.768
-207.057
-183.148
-147.754
-102.779
-51.1993
3.19966
56.2091
103.646
141.816
167.924
180.383
178.975
164.855
140.384
108.839
74.0112
39.7714
9.64
-13.5797
-28.0648
-33.1081
-29.1145
-17.4709
-0.310881
19.7893
40.1416
58.2643
72.1491
80.4511
82.5844
78.7205
69.6978
56.8613
41.856
26.4053
12.0998
0.222026
-8.37521
-13.3279
-14.7559
-13.2003
-9.51736
-4.74522
0.0376997
3.84413
5.88503
5.64207
2.90039
-2.25744
-9.49157
-18.2702
-27.9498
-37.8585
-47.3737
-55.9838
-63.3306
-69.2283
-73.6603
-76.7565
-78.7572
-79.9672
-80.7091
-81.2803
-81.9175
-82.7742
-83.9107
-85.2965
-86.8244
-88.3322
-89.6286
-90.52
-90.8327
-90.4306
-89.2243
-87.1728
-84.2787
-80.5787
-76.1334
-71.0166
-65.3082
-59.0903
-52.447
-45.4662
-38.2422
-30.8783
-23.4877
-16.1911
-9.11439
-2.3824
3.88624
9.58506
14.6247
18.9365
22.4747
25.2176
27.1671
28.3477
28.8043
28.6006
27.8149
26.5371
24.8642
22.8947
20.7236
18.4365
16.1039
13.7766
11.4819
9.22136
6.97122
4.68484
2.29841
-0.260439
-3.06134
-6.15785
-9.57345
-13.2886
-17.2311
-21.2718
-25.2267
-28.8684
-31.9435
-34.197
-35.4008
-35.381
-34.0422
-31.3852
-27.5138
-22.6312
-17.0254
-11.0443
-5.06491
0.541238
5.44166
9.37173
12.1557
13.7182
14.084
13.3687
11.7602
9.49363
6.8246
4.00221
1.2463
-1.26904
-3.42411
-5.15409
-6.44241
-7.30888
-7.79511
-7.9499
-7.81697
-7.4269
-6.79391
-5.91772
-4.7893
-3.39929
-1.74708
0.151162
2.2571
4.50838
6.82084
9.09426
11.221
13.0962
14.6279
15.7466
16.4115
16.6139
16.3778
15.7558
14.8232
13.6692
12.3879
11.0684
9.78699
8.60041
7.54243
6.6229
5.83009
5.13581
4.50299
3.89479
3.28421
2.66267
2.04645
1.4792
1.02988
0.785569
0.839382
1.27501
2.14975
3.47871
5.22306
7.28453
9.50806
11.6929
13.6116
15.0345
15.7575
15.6283
14.5688
12.5895
9.79409
6.37285
2.58635
-1.25996
-4.84645
-7.87201
-10.085
-11.3087
-11.4594
-10.554
-8.70869
-6.12723
-3.0827
0.106156
3.10053
5.56668
7.19834
7.73508
6.97615
4.79014
1.12114
-4.0079
-10.4939
-18.1548
-26.7334
-35.9051
-45.2908
-54.4745
-63.0274
-70.5352
-76.6281
-81.0096
-83.4805
-83.9549
-82.4659
-79.1594
-74.276
-68.125
-61.0518
-53.4059
-45.5116
-37.6462
-30.028
-22.8138
-16.1055
-9.96274
-4.41903
0.502909
4.77893
8.3767
11.2553
13.3706
14.6847
15.178
14.8596
13.7752
12.0101
9.68421
6.93991
3.92104
0.743493
-2.54075
-5.98257
-9.771
-14.2559
-19.947
-27.4794
-37.5378
-50.7406
-67.4917
-87.8213
-111.244
-136.664
-162.364
-186.09
-205.248
-217.186
-219.54
-210.595
-189.588
-156.927
-114.258
-64.3709
-10.9489
41.8192
89.7031
128.915
156.544
170.881
171.591
159.718
137.512
108.129
75.2221
42.5041
13.3223
-9.69137
-24.8619
-31.5788
-30.2675
-22.2395
-9.44818
5.80983
21.2067
34.6691
44.6037
50.0422
50.6927
46.9032
39.5478
29.86
19.2367
9.04259
0.438511
-5.74723
-9.09186
-9.59244
-7.6252
-3.86068
0.850367
5.6028
9.55772
12.0431
12.6237
11.1343
7.67595
2.57869
-3.66092
-10.4574
-17.2177
-23.4161
-28.6534
-32.6947
-35.4839
-37.1352
-37.9056
-38.1535
-38.2901
-38.7286
-39.8371
-41.8976
-45.0755
-49.4001
-54.7569
-60.8935
-67.4379
-73.9287
-79.8551
-84.7041
-88.0104
-89.4043
-88.6512
-85.6804
-80.5953
-73.6668
-65.3072
-56.0282
-46.3883
-36.9347
-28.1493
-20.4026
-13.9239
-8.78947
-4.92957
-2.15327
-0.185956
1.28564
2.56752
3.9177
5.51597
7.44727
9.70009
12.1787
14.7266
17.1559
19.2797
20.9397
22.029
22.5035
22.3841
21.7493
20.7204
19.441
18.0568
16.6956
15.453
14.3826
13.4945
12.759
12.116
11.4877
10.7926
9.95887
8.93462
7.69502
6.24479
4.61649
2.86557
1.06294
-0.713364
-2.38613
-3.88566
-5.15431
-6.14885
-6.84063
-7.21431
-7.26554
-6.99848
-6.42372
-5.55711
-4.41956
-3.03813
-1.44775
0.306669
2.16856
4.06909
5.92822
7.65773
9.16614
10.3652
11.1773
11.5427
11.4258
10.8199
9.74871
8.26637
6.45348
4.41165
2.25606
0.107168
-1.91773
-3.71236
-5.18826
-6.28009
-6.94914
-7.18509
-7.0058
-6.45525
-5.59967
-4.52211
-3.31575
-2.07632
-0.894354
0.152212
1.00432
1.62631
2.00815
2.16506
2.13456
1.97115
1.73919
1.50492
1.32839
1.25639
1.3172
1.51765
1.84295
2.25917
2.71797
3.163
3.53707
3.78925
3.88087
3.78997
3.51346
3.06698
2.48259
1.80462
1.08436
0.374205
-0.277908
-0.833313
-1.26607
-1.5648
-1.73287
-1.78688
-1.75379
-1.66699
-1.56178
-1.47073
-1.41941
-1.42308
-1.48444
-1.59305
-1.72627
-1.85173
-1.93101
-1.92419
-1.79454
-1.51288
-1.06101
-0.433834
0.35992
1.29798
2.34533
3.45464
4.56581
5.6044
6.47936
7.08132
7.28289
6.94259
5.9134
4.05611
1.25652
-2.55573
-7.38946
-13.1786
-19.776
-26.9568
-34.431
-41.866
-48.915
-55.2492
-60.5876
-64.7226
-67.5355
-69.002
-69.1857
-68.2232
-66.3007
-63.6293
-60.4198
-56.8622
-53.1109
-49.2787
-45.4373
-41.6241
-37.8538
-34.1304
-30.4595
-26.8565
-23.3514
-19.9878
-16.8179
-13.8941
-11.2585
-8.93231
-6.90781
-5.14302
-3.56188
-2.06002
-0.51708
1.18427
3.1327
5.35657
7.78792
10.2255
12.3022
13.4654
12.9788
9.95762
3.44226
-7.48604
-23.5538
-45.1236
-72.0252
-103.421
-137.737
-172.685
-205.393
-232.648
-251.223
-258.263
-251.669
-230.438
-194.883
-146.72
-88.9765
-25.7317
38.2765
98.1435
149.318
188.089
211.973
219.954
212.559
191.742
160.623
123.092
83.3572
45.4748
12.9263
-11.7091
-26.9566
-32.5064
-29.1366
-18.5183
-2.9349
15.0418
32.8779
48.3663
59.8473
66.3409
67.5837
63.9764
56.4559
46.3166
35.0075
23.933
14.2805
6.89439
2.20647
0.225455
0.580826
2.60958
5.47044
8.26826
10.172
10.512
8.84792
5.0004
-0.950961
-8.70073
-17.7735
-27.5934
-37.5573
-47.1029
-55.7644
-63.2108
-69.2648
-73.9022
-77.2352
-79.4823
-80.9307
-81.8969
-82.6881
-83.5709
-84.7461
-86.3349
-88.3721
-90.8084
-93.5194
-96.3186
-98.9747
-101.231
-102.826
-103.515
-103.089
-101.396
-98.3512
-93.9508
-88.2707
-81.4632
-73.7447
-65.3778
-56.6491
-47.8462
-39.2341
-31.0367
-23.422
-16.4955
-10.3001
-4.82256
-0.0066698
4.23127
7.98497
11.342
14.3706
17.1119
19.5761
21.7454
23.581
25.0324
26.0499
26.5946
26.6482
26.219
25.3437
24.0857
22.5302
20.7763
18.928
17.0848
15.3335
13.7412
12.351
11.1796
10.2179
9.43326
8.77379
8.17479
7.5662
6.88124
6.06531
5.08425
3.93078
2.62788
1.22824
-0.190731
-1.53605
-2.71155
-3.63175
-4.23523
-4.49542
-4.42699
-4.0868
-3.569
-2.99486
-2.49866
-2.21156
-2.24551
-2.67944
-3.54935
-4.84364
-6.50395
-8.43138
-10.4971
-12.5561
-14.4618
-16.0808
-17.3049
-18.0601
-18.3118
-18.0642
-17.3575
-16.2593
-14.8553
-13.2371
-11.4912
-9.68784
-7.87359
-6.06633
-4.25488
-2.40293
-0.457497
1.63886
3.93318
6.4466
9.16035
12.0059
14.8611
17.5539
19.8741
21.592
22.4821
22.349
21.0525
18.5283
14.8017
9.99369
4.31661
-1.93831
-8.42142
-14.7508
-20.5412
-25.4343
-29.1255
-31.3869
-32.084
-31.1844
-28.7581
-24.9702
-20.0664
-14.352
-8.16818
-1.86557
4.22069
9.79336
14.6106
18.4975
21.3514
23.1404
23.8961
23.7034
22.6855
20.99
18.7748
16.1965
13.4019
10.5228
7.67504
4.95904
2.46355
0.269524
-1.54605
-2.90773
-3.74142
-3.97702
-3.55368
-2.42752
-0.580619
1.96953
5.16168
8.88467
12.9746
17.2168
21.3528
25.0931
28.136
30.1908
31.0029
30.38
28.2144
24.4991
19.3346
12.9258
5.5681
-2.37682
-10.5107
-18.4319
-25.7679
-32.2014
-37.4893
-41.471
-44.0671
-45.2705
-45.132
-43.7457
-41.2348
-37.7427
-33.4269
-28.4586
-23.0222
-17.3159
-11.5492
-5.93673
-0.687991
4.00624
7.98924
11.1529
13.4491
14.8957
15.576
15.6297
15.2378
14.6009
13.9146
13.3431
12.994
12.8958
12.9795
13.0641
12.8473
11.902
9.68287
5.54489
-1.21824
-11.3121
-25.3526
-43.7533
-66.597
-93.5111
-123.568
-155.237
-186.418
-214.557
-236.862
-250.592
-253.394
-243.63
-220.671
-185.071
-138.622
-84.2509
-25.764
32.5237
86.2384
131.415
164.923
184.791
190.398
182.501
163.104
135.184
102.323
68.2831
36.5832
10.1356
-9.02886
-19.9121
-22.5678
-17.9959
-7.93393
5.42223
19.7283
32.7918
42.8273
48.6372
49.7034
46.1854
38.8325
28.8303
17.6046
6.61402
-2.84364
-9.78614
-13.6471
-14.314
-12.1043
-7.69018
-1.98443
3.99152
9.24044
12.9053
14.356
13.2394
9.49185
3.31563
-4.87081
-14.5013
-24.9376
-35.5429
-45.7451
-55.0834
-63.2374
-70.0352
-75.4456
-79.5554
-82.5381
-84.6182
-86.0353
-87.0136
-87.7376
-88.3372
-88.8818
-89.3831
-89.8043
-90.0742
-90.1033
-89.7983
-89.0759
-87.8707
-86.1402
-83.8644
-81.043
-77.6896
-73.8261
-69.4772
-64.6674
-59.42
-53.7595
-47.7155
-41.3288
-34.6564
-27.7762
-20.7881
-13.8125
-6.9846
-0.446105
5.66601
11.2311
16.1559
20.3836
23.8984
26.7268
28.9322
30.6065
31.857
32.7924
33.508
34.0745
34.5297
34.8764
35.0852
35.1026
34.8622
34.2984
33.3591
32.0168
30.2758
28.1755
25.7888
23.2166
20.5791
18.0054
15.6224
13.5436
11.8614
10.6392
9.90849
9.66741
9.88238
10.4922
11.4137
12.549
13.793
15.0405
16.1929
17.1623
17.8753
18.2742
18.318
17.9824
17.2604
16.1626
14.7177
12.9732
10.9944
8.8626
6.67121
4.52023
2.50918
0.729152
-0.744963
-1.86113
-2.59479
-2.95068
-2.9616
-2.68425
-2.19262
-1.56973
-0.899029
-0.25613
0.29777
0.720365
0.990153
1.10581
1.08339
0.951873
0.747876
0.510146
0.274627
0.0705575
-0.0820343
-0.173344
-0.203383
-0.180401
-0.118504
-0.0348761
0.0529921
0.129707
0.183746
0.208439
0.202061
0.167073
0.108561
0.0320564
-0.0590139
-0.165913
-0.296796
-0.468121
-0.704948
-1.03996
-1.51138
-2.16009
-3.02666
-4.14874
-5.55943
-7.28648
-9.35223
-11.7735
-14.5611
-17.7179
-21.2364
-25.0945
-29.2518
-33.6462
-38.1924
-42.7827
-47.2909
-51.5783
-55.5026
-58.9269
-61.7293
-63.8109
-65.1007
-65.5584
-65.172
-63.9534
-61.9309
-59.1405
-55.6182
-51.3943
-46.4911
-40.9259
-34.7167
-27.8927
-20.5052
-12.6389
-4.41994
3.98059
12.3484
20.4337
27.9639
34.6582
40.2421
44.4583
47.0705
47.8599
46.6135
43.108
37.095
28.2961
16.4155
1.17866
-17.5987
-39.9155
-65.4733
-93.5689
-123.014
-152.114
-178.721
-200.38
-214.563
-218.96
-211.801
-192.153
-160.144
-117.076
-65.3959
-8.51922
49.4737
104.238
151.608
188.038
210.969
219.096
212.487
192.559
161.894
123.944
82.6488
42.0085
5.68134
-23.369
-43.1285
-52.6698
-52.1638
-42.7715
-26.4392
-5.62543
17.0033
38.8709
57.7533
71.9747
80.5254
83.0943
80.0208
72.1805
60.8234
47.3888
33.3197
19.8988
8.12247
-1.37682
-8.35516
-12.9326
-15.5273
-16.7612
-17.3519
-18.0056
-19.325
-21.7412
-25.4756
-30.535
-36.7337
-43.74
-51.1359
-58.482
-65.3776
-71.5094
-76.6828
-80.8348
-84.0264
-86.4212
-88.2518
-89.7808
-91.2627
-92.9104
-94.8708
-97.21
-99.9097
-102.872
-105.931
-108.87
-111.44
-113.38
-114.431
-114.361
-112.969
-110.107
-105.687
-99.6927
-92.1845
-83.3054
-73.2796
-62.4067
-51.0488
-39.6116
-28.5193
-18.1867
-8.98924
-1.2352
4.85699
9.17486
11.7191
12.6009
12.031
10.299
7.74742
4.74206
1.64043
-1.23694
-3.63083
-5.36059
-6.33304
-6.54243
-6.06185
-5.02758
-3.61831
-2.03188
-0.462097
0.921834
1.99116
2.66747
2.92591
2.79214
2.33372
1.64769
0.845957
0.0405554
-0.669584
-1.20888
-1.53145
-1.62328
-1.50024
-1.20279
-0.788273
-0.321928
0.131982
0.518008
0.79539
0.941483
0.952563
0.842205
0.63769
0.375091
0.0938129
-0.168706
-0.381462
-0.523073
-0.583417
-0.563677
-0.474979
-0.33592
-0.169426
0.000592832
0.152356
0.268746
0.339002
0.359505
0.333649
0.270977
0.185766
0.0953377
0.0183296
-0.0268455
-0.0232026
0.0440231
0.186988
0.415192
0.735678
1.1534
1.67162
2.29235
3.01641
3.84325
4.76997
5.78971
6.88926
8.04642
9.22761
10.3869
11.4673
12.405
13.1374
13.6135
13.8057
13.7216
13.412
12.9743
12.5483
12.3056
12.4311
13.1003
14.4539
16.5742
19.4656
23.0438
27.1348
31.4844
35.7791
39.6734
42.8236
44.9215
45.7254
45.0845
42.9525
39.3906
34.5588
28.6964
22.0959
15.0726
7.93474
0.957132
-5.63793
-11.6916
-17.1106
-21.8607
-25.955
-29.4378
-32.3679
-34.8031
-36.7884
-38.3471
-39.4777
-40.1526
-40.322
-39.9189
-38.8664
-37.0867
-34.5113
-31.0917
-26.8097
-21.6864
-15.7896
-9.23622
-2.19081
5.14113
12.5251
19.7137
26.4645
32.5591
37.8188
42.1171
45.3853
47.6121
48.8359
49.1332
48.6006
47.3361
45.4158
42.8703
39.6595
35.6482
30.5872
24.1059
15.7253
4.89881
-8.91276
-26.1327
-46.9352
-71.1044
-97.9131
-126.049
-153.618
-178.24
-197.249
-207.975
-208.083
-195.924
-170.842
-133.387
-85.3897
-29.8806
29.1596
87.1823
139.549
182.042
211.338
225.386
223.636
207.09
178.17
140.418
98.0797
55.6091
17.1763
-13.7743
-34.8585
-44.9463
-44.1987
-33.9525
-16.4775
5.35801
28.4656
49.9111
67.2396
78.7178
83.4691
81.4962
73.5966
61.1922
46.0999
30.2771
15.5741
3.52375
-4.81151
-8.92084
-8.85284
-5.15566
1.23667
9.15249
17.344
24.6408
30.0777
32.9836
33.0246
30.2014
24.8066
17.3532
8.48541
-1.11252
-10.7983
-20.035
-28.4306
-35.7522
-41.9162
-46.962
-51.0134
-54.2367
-56.8008
-58.8466
-60.4661
-61.6953
-62.5179
-62.8788
-62.7038
-61.9206
-60.4792
-58.3666
-55.6158
-52.3058
-48.5549
-44.5081
-40.3196
-36.1351
-32.0744
-28.2179
-24.5984
-21.1992
-17.9581
-14.7776
-11.5395
-8.12215
-4.41865
-0.353531
4.1034
8.92827
14.0403
19.3056
24.5472
29.5604
34.1319
38.0604
41.1764
43.3586
44.5453
44.7396
44.0074
42.469
40.286
37.6442
34.735
31.7384
28.8076
26.0584
23.5625
21.3467
19.3962
17.6621
16.072
14.5424
12.9918
11.3526
9.58141
7.6654
5.62554
3.5149
1.41315
-0.58239
-2.368
-3.84574
-4.93508
-5.58257
-5.76847
-5.50959
-4.85809
-3.89647
-2.72938
-1.47332
-0.245425
0.847455
1.71802
2.30534
2.57857
2.53737
2.20932
1.64479
0.910151
0.0800405
-0.770252
-1.57165
-2.26673
-2.81332
-3.18624
-3.37705
-3.39232
-3.25059
-2.97874
-2.60792
-2.16987
-1.69367
-1.20332
-0.716293
-0.242949
0.213262
0.654956
1.0896
1.52811
1.98343
2.46914
2.99811
3.5808
4.22325
4.9242
5.67158
6.43858
7.18014
7.83095
8.30611
8.5058
8.32432
7.66328
6.44784
4.64358
2.27135
-0.582835
-3.76557
-7.06281
-10.2159
-12.9459
-14.9825
-16.0958
-16.1245
-14.9982
-12.7501
-9.51803
-5.53298
-1.09751
3.44467
7.74362
11.4785
14.3889
16.2991
17.1315
16.9096
15.749
13.8391
11.4186
8.7465
6.07379
3.61843
1.54598
-0.0419502
-1.111
-1.68956
-1.8578
-1.73222
-1.44809
-1.14226
-0.938149
-0.934751
-1.20024
-1.77044
-2.65155
-3.82631
-5.26228
-6.92123
-8.76845
-10.7812
-12.9554
-15.3099
-17.8876
-20.7527
-23.9842
-27.6654
-31.8709
-36.6513
-42.0188
-47.9345
-54.2993
-60.9511
-67.6672
-74.1735
-80.1604
-85.3029
-89.2851
-91.8261
-92.7054
-91.7865
-89.0337
-84.5228
-78.4412
-71.0783
-62.8052
-54.0454
-45.2393
-36.806
-29.1059
-22.4105
-16.8799
-12.5535
-9.35357
-7.10088
-5.54113
-4.37812
-3.30978
-2.06264
-0.420732
1.75388
4.51071
7.81044
11.5329
15.4901
19.4402
23.0985
26.1412
28.2011
28.8577
27.6264
23.9558
17.244
6.88331
-7.66106
-26.7409
-50.3939
-78.2134
-109.244
-141.936
-174.177
-203.42
-226.904
-241.944
-246.265
-238.316
-217.543
-184.546
-141.112
-90.0922
-35.1511
19.6027
70.045
112.476
144.011
162.876
168.568
161.866
144.69
119.844
90.6588
60.5996
32.8814
10.1379
-5.8198
-14.1308
-14.8931
-9.06044
1.74973
15.508
30.0488
43.3352
53.6834
59.9244
61.4886
58.4137
51.2806
41.0924
29.1174
16.7166
5.17805
-4.42405
-11.3317
-15.1595
-15.9034
-13.9065
-9.78882
-4.35531
1.50806
6.93536
11.1693
13.6291
13.9528
12.012
7.90256
1.91203
-5.52675
-13.8918
-22.6296
-31.209
-39.1652
-46.1324
-51.8621
-56.2279
-59.2183
-60.9201
-61.4948
-61.1528
-60.1267
-58.6471
-56.9233
-55.129
-53.3941
-51.8031
-50.397
-49.18
-48.1282
-47.1981
-46.335
-45.4796
-44.5709
-43.5481
-42.3504
-40.9167
-39.1868
-37.1046
-34.6239
-31.717
-28.3827
-24.6546
-20.6058
-16.3484
-12.0289
-7.81684
-3.89012
-0.417062
2.46127
4.64662
6.09458
6.81962
6.89327
6.43589
5.60283
4.56698
3.49984
2.55349
1.84565
1.44963
1.3901
1.64499
2.15304
2.8255
3.56051
4.25792
4.83263
5.22488
5.40613
5.38019
5.17955
4.85791
4.48013
4.11114
3.80564
3.59994
3.50713
3.51616
3.5947
3.69525
3.76341
3.74681
3.60347
3.30816
2.85587
2.26206
1.55969
0.793759
0.0142541
-0.731114
-1.40333
-1.97656
-2.44012
-2.79778
-3.0647
-3.26265
-3.4145
-3.53892
-3.6462
-3.73597
-3.79714
-3.80996
-3.74992
-3.59271
-3.31943
-2.92103
-2.40146
-1.77873
-1.08386
-0.357871
0.352932
1.00238
1.55002
1.96586
2.23369
2.35254
2.336
2.20961
2.00672
1.76327
1.51246
1.27977
1.07939
0.912236
0.766098
0.617766
0.436804
0.190429
-0.151246
-0.610407
-1.19786
-1.91101
-2.73384
-3.6387
-4.58981
-5.54764
-6.47365
-7.33445
-8.1048
-8.7689
-9.3199
-9.75771
-10.0856
-10.3065
-10.4192
-10.4165
-10.2837
-10.0004
-9.54249
-8.88691
-8.01561
-6.92027
-5.6057
-4.09195
-2.41458
-0.623155
1.22206
3.05462
4.80721
6.41707
7.83075
9.00779
9.92282
10.5659
10.941
11.064
10.9591
10.657
10.1932
9.60926
8.9555
8.29535
7.70974
7.29972
7.18526
7.4986
8.37122
9.91506
12.2
15.2307
18.9278
23.1166
27.5279
31.8128
35.5704
38.3868
39.8805
39.7478
37.8018
34.0008
28.4587
21.4387
13.3288
4.60232
-4.23085
-12.677
-20.3082
-26.8033
-31.9738
-35.7748
-38.2964
-39.7403
-40.3839
-40.537
-40.4977
-40.5122
-40.7449
-41.2605
-42.0217
-42.8992
-43.6952
-44.1734
-44.093
-43.2417
-41.463
-38.6746
-34.8782
-30.1571
-24.6661
-18.6138
-12.2407
-5.79609
0.483591
6.3928
11.7695
16.5015
20.5273
23.8313
26.4348
28.3848
29.7418
30.5655
30.9013
30.7634
30.1159
28.8495
26.7574
23.5146
18.6681
11.6491
1.81613
-11.4644
-28.702
-50.1398
-75.6065
-104.389
-135.158
-165.973
-194.379
-217.613
-232.883
-237.705
-230.251
-209.65
-176.199
-131.442
-78.1068
-19.8762
38.9567
93.9287
140.878
176.388
198.15
205.192
197.957
178.212
148.81
113.339
75.7029
39.6846
8.55128
-15.2582
-30.33
-36.34
-33.9886
-24.8226
-10.9753
5.13987
21.1381
34.9401
44.9848
50.3589
50.8346
46.8208
39.2409
29.3601
18.5883
8.2853
-0.407075
-6.68881
-10.1691
-10.8752
-9.20718
-5.84996
-1.65768
2.47159
5.71394
7.41614
7.16015
4.79073
0.406273
-5.68191
-13.0133
-21.0537
-29.2713
-37.2033
-44.5038
-50.9707
-56.5482
-61.3084
-65.4166
-69.0871
-72.5362
-75.9398
-79.4007
-82.9299
-86.4435
-89.7734
-92.691
-94.9392
-96.2671
-96.4646
-95.3895
-92.9871
-89.2972
-84.4496
-78.649
-72.151
-65.2338
-58.1678
-51.189
-44.4771
-38.1425
-32.2212
-26.6799
-21.4286
-16.3405
-11.2763
-6.10899
-0.748292
4.84044
10.624
16.4976
22.291
27.7832
32.725
36.867
39.9894
41.9307
42.6112
42.0485
40.3618
37.7646
34.5459
31.0418
27.6005
24.5458
22.1428
20.5704
19.9044
20.1126
21.0631
22.544
24.2915
26.0243
27.4778
28.4355
28.7536
28.3753
27.3347
25.7486
23.7985
21.7042
19.6931
17.9688
16.6821
15.9103
15.6463
15.7999
16.2111
16.6742
16.9688
16.8937
16.2978
15.1034
13.3181
11.0325
8.40443
5.633
2.92561
0.465123
-1.61759
-3.26089
-4.47664
-5.34108
-5.97452
-6.51373
-7.08231
-7.76419
-8.58502
-9.50415
-10.4188
-11.1792
-11.6119
-11.5487
-10.8543
-9.45059
-7.33335
-4.5782
-1.33618
2.18077
5.72219
9.02613
11.8473
13.9829
15.2924
15.7108
15.2519
14.0034
12.1148
9.77892
7.21021
4.62273
2.20952
0.125923
-1.52172
-2.68135
-3.35425
-3.58864
-3.46893
-3.10217
-2.6035
-2.08227
-1.63033
-1.31361
-1.16755
-1.19656
-1.37709
-1.66375
-1.99722
-2.31314
-2.55078
-2.66057
-2.61018
-2.38887
-2.01044
-1.51527
-0.971592
-0.476002
-0.152486
-0.148896
-0.629776
-1.76477
-3.71267
-6.60207
-10.5108
-15.4468
-21.3339
-28.0044
-35.2028
-42.5991
-49.8125
-56.4437
-62.1112
-66.4879
-69.3337
-70.5187
-70.0355
-67.9972
-64.6223
-60.2079
-55.0947
-49.6267
-44.1135
-38.7967
-33.8266
-29.2523
-25.0248
-21.014
-17.0372
-12.8943
-8.40558
-3.44668
2.02436
7.95168
14.1803
20.469
26.5157
31.9924
36.5824
40.0173
42.104
42.7383
41.9003
39.6301
35.9852
30.9882
24.5735
16.5491
6.58733
-5.74226
-20.8915
-39.2074
-60.7761
-85.2636
-111.787
-138.852
-164.383
-185.868
-200.601
-206.016
-200.048
-181.489
-150.263
-107.581
-55.9323
1.088
59.1153
113.468
159.661
193.919
213.603
217.519
206.042
181.053
145.7
104.013
60.4233
19.2611
-15.72
-41.7202
-57.1391
-61.665
-56.2068
-42.6873
-23.7327
-2.30487
18.6757
36.6688
49.7769
56.9069
57.8177
53.061
43.8295
31.7414
18.593
6.11249
-4.25383
-11.4995
-15.1457
-15.2545
-12.3715
-7.41351
-1.51908
4.11552
8.39221
10.4406
9.70705
5.99645
-0.534152
-9.42403
-19.9892
-31.4217
-42.8935
-53.652
-63.0968
-70.8302
-76.6784
-80.6847
-83.0778
-84.2229
-84.5623
-84.5551
-84.6205
-85.0932
-86.1926
-88.0075
-90.4966
-93.5033
-96.7804
-100.023
-102.905
-105.114
-106.382
-106.511
-105.388
-102.985
-99.3566
-94.6215
-88.9429
-82.5053
-75.4934
-68.0764
-60.4002
-52.5865
-44.7385
-36.951
-29.3215
-21.9584
-14.9866
-8.54499
-2.77975
2.16839
6.17947
9.16995
11.106
12.0119
11.9723
11.1277
9.6628
7.79065
5.73346
3.70272
1.8813
0.409132
-0.625731
-1.19026
-1.30364
-1.0293
-0.463033
0.281322
1.08672
1.84668
2.47655
2.9211
3.15795
3.19687
3.07522
2.85065
2.59207
2.37016
2.2487
2.27768
2.48877
2.8934
3.48303
4.23107
5.09559
6.02231
6.94734
7.79974
8.50416
8.98405
9.16598
8.98515
8.39211
7.36005
5.89157
4.02379
1.83045
-0.579872
-3.07
-5.48444
-7.66303
-9.45624
-10.7404
-11.431
-11.4918
-10.9392
-9.84059
-8.30732
-6.4825
-4.52585
-2.59703
-0.839615
0.63238
1.744
2.46387
2.80365
2.81267
2.56894
2.16798
1.71094
1.29379
0.998533
0.887563
1.0011
1.35768
1.95691
2.78375
3.81311
5.01417
6.35357
7.79716
9.3106
10.8587
12.4048
13.909
15.3287
16.6175
17.7268
18.6069
19.2092
19.4888
19.408
18.9393
18.0687
16.7986
15.1496
13.1611
10.8906
8.41188
5.81078
3.18124
0.619731
-1.78028
-3.93368
-5.76853
-7.22993
-8.28276
-8.91313
-9.12845
-8.95613
-8.4411
-7.64212
-6.62743
-5.46988
-4.24203
-3.01193
-1.83977
-0.776202
0.137635
0.868284
1.3866
1.66352
1.66575
1.35238
0.673353
-0.429417
-2.01798
-4.1513
-6.87597
-10.2158
-14.1619
-18.6648
-23.6311
-28.924
-34.3704
-39.7724
-44.9238
-49.6275
-53.7138
-57.0557
-59.5796
-61.2706
-62.17
-62.3673
-61.9863
-61.1677
-60.0502
-58.7523
-57.3566
-55.8983
-54.3599
-52.672
-50.7224
-48.3704
-45.4683
-41.8848
-37.5298
-32.3746
-26.4674
-19.938
-12.9939
-5.90444
1.02306
7.47302
13.1539
17.8284
21.3373
23.6155
24.6949
24.6967
23.8091
22.2546
20.2448
17.9299
15.3444
12.3593
8.64806
3.67936
-3.25373
-12.9605
-26.2335
-43.6919
-65.6045
-91.722
-121.15
-152.3
-182.935
-210.336
-231.563
-243.803
-244.734
-232.884
-207.9
-170.696
-123.447
-69.4214
-12.6653
42.4157
91.5329
130.98
158.028
171.207
170.43
156.952
133.183
102.369
68.2007
34.386
4.25837
-19.5501
-35.3273
-42.3776
-40.9937
-32.3188
-18.1268
-0.554876
18.1736
36.0021
51.2421
62.7046
69.7569
72.3064
70.7269
65.7418
58.2869
49.3717
39.9548
30.8477
22.6515
15.73
10.2146
6.03644
2.97584
0.720665
-1.07464
-2.73687
-4.53358
-6.64722
-9.16453
-12.0801
-15.3116
-18.7229
-22.1514
-25.4364
-28.4433
-31.0826
-33.3221
-35.19
-36.7711
-38.1959
-39.6257
-41.234
-43.1878
-45.6298
-48.6626
-52.3366
-56.6421
-61.5044
-66.7848
-72.2851
-77.7575
-82.9175
-87.4624
-91.0896
-93.5186
-94.5096
-93.8816
-91.526
-87.4151
-81.6058
-74.2369
-65.5208
-55.7306
-45.1828
-34.2174
-23.1773
-12.3886
-2.14304
7.31509
15.7975
23.175
29.3748
34.3733
38.1853
40.8514
42.426
42.9679
42.5347
41.1827
38.9704
35.9673
32.2629
27.9761
23.261
18.3087
13.342
8.60547
4.34857
0.806789
-1.8192
-3.38264
-3.80594
-3.09
-1.31645
1.35752
4.71132
8.47851
12.368
16.0862
19.359
21.9497
23.6738
24.409
24.0993
22.7556
20.4509
17.3133
13.5147
9.25873
4.76662
0.262887
-4.03864
-7.94745
-11.3068
-14.0015
-15.9619
-17.1654
-17.6331
-17.4249
-16.6316
-15.3656
-13.7511
-11.9148
-9.97744
-8.04693
-6.21384
-4.5485
-3.10024
-1.89799
-0.952155
-0.25714
0.205629
0.464624
0.555144
0.516427
0.388991
0.212275
0.0226033
-0.148418
-0.274977
-0.337509
-0.322464
-0.221422
-0.0296972
0.25536
0.636076
1.11593
1.70056
2.39816
3.21909
4.17488
5.27632
6.53104
7.94054
9.49699
11.1801
12.9545
14.7684
16.5535
18.2269
19.6952
20.8607
21.6285
21.9154
21.658
20.8199
19.3972
17.4217
14.9607
12.1142
9.00934
5.79225
2.61857
-0.357049
-2.99131
-5.16183
-6.77487
-7.7708
-8.12679
-7.85678
-7.00907
-5.6621
-3.91925
-1.90328
0.249143
2.39259
4.37797
6.05785
7.29233
7.95582
7.9444
7.18355
5.63522
3.30343
0.237212
-3.46992
-7.68444
-12.2413
-16.9558
-21.6378
-26.1067
-30.2056
-33.8134
-36.8532
-39.2971
-41.1656
-42.5239
-43.4743
-44.1453
-44.6791
-45.2166
-45.883
-46.7726
-47.9361
-49.3703
-51.0137
-52.7478
-54.4057
-55.7881
-56.6847
-56.899
-56.2732
-54.7104
-52.1893
-48.7704
-44.5923
-39.8561
-34.8025
-29.6825
-24.7256
-20.1119
-15.9501
-12.2661
-9.00349
-6.03613
-3.19098
-0.277651
2.8792
6.40927
10.3718
14.7398
19.3949
24.1342
28.6868
32.7383
35.9594
38.0322
38.6694
37.6223
34.6741
29.6216
22.2506
12.3157
-0.462192
-16.3704
-35.6426
-58.3625
-84.3453
-113.017
-143.324
-173.692
-202.074
-226.082
-243.213
-251.129
-247.979
-232.694
-205.214
-166.614
-119.093
-65.811
-10.6074
42.3879
89.1893
126.385
151.507
163.288
161.777
148.308
125.308
95.9918
63.9782
32.8696
5.85932
-14.5947
-26.9904
-30.8771
-26.8211
-16.2546
-1.23471
15.8528
32.6032
46.8794
57.0399
62.0884
61.7303
56.3408
46.8538
34.5944
21.0802
7.81879
-3.87226
-13.0037
-18.9976
-21.711
-21.4021
-18.6515
-14.2513
-9.08013
-3.98317
0.33003
3.35688
4.83669
4.74838
3.27499
0.743389
-2.45009
-5.91602
-9.33905
-12.5266
-15.4329
-18.1573
-20.9168
-24.0002
-27.7105
-32.3047
-37.9412
-44.6407
-52.2679
-60.5356
-69.03
-77.2539
-84.6819
-90.8194
-95.2569
-97.7145
-98.0686
-96.3591
-92.7769
-87.6334
-81.3184
-74.251
-66.8329
-59.4083
-52.237
-45.483
-39.2181
-33.4384
-28.0902
-23.0993
-18.3983
-13.9488
-9.75375
-5.85975
-2.34922
0.67486
3.1089
4.86949
5.91141
6.23998
5.916
5.05257
3.80448
2.35201
0.881259
-0.43585
-1.45949
-2.09538
-2.30223
-2.09257
-1.52727
-0.704579
0.254402
1.22203
2.07999
2.73285
3.11779
3.20951
3.02008
2.59415
2.00042
1.32078
0.638697
0.0283804
-0.453873
-0.775223
-0.928185
-0.92893
-0.812518
-0.625979
-0.420421
-0.243337
-0.132184
-0.10997
-0.183262
-0.342627
-0.565175
-0.81863
-1.0662
-1.2715
-1.40286
-1.43655
-1.3586
-1.16533
-0.862571
-0.464004
0.01094
0.539321
1.09666
1.65841
2.20099
2.70222
3.14169
3.50095
3.76384
3.91718
3.95152
3.86215
3.64999
3.32218
2.89225
2.37943
1.80736
1.20193
0.588863
-0.00880432
-0.572805
-1.09087
-1.55691
-1.97009
-2.33301
-2.64929
-2.92117
-3.14739
-3.32199
-3.43406
-3.46873
-3.40908
-3.23883
-2.94515
-2.52138
-1.96899
-1.29852
-0.529441
0.311413
1.19228
2.07973
2.94208
3.75263
4.49213
5.15025
5.72587
6.22618
6.66485
7.05957
7.42927
7.7915
8.1602
8.54429
8.94697
9.36593
9.79415
10.221
10.6336
11.0175
11.3574
11.637
11.8386
11.9425
11.9265
11.7659
11.4341
10.9042
10.1512
9.15412
7.89873
6.37938
4.60005
2.57428
0.32398
-2.12297
-4.73599
-7.48573
-10.3481
-13.3081
-16.3624
-19.5207
-22.8045
-26.2438
-29.8707
-33.7113
-37.7758
-42.0482
-46.4775
-50.9708
-55.3917
-59.5632
-63.2766
-66.3059
-68.4265
-69.4357
-69.1736
-67.5405
-64.5093
-60.1314
-54.5348
-47.9137
-40.5141
-32.6128
-24.4966
-16.4413
-8.69343
-1.457
5.11535
10.9254
15.9274
20.1217
23.5448
26.2563
28.3235
29.8042
30.7282
31.0772
30.7637
29.611
27.3346
23.533
17.692
9.21285
-2.52878
-18.0883
-37.8257
-61.7595
-89.4227
-119.753
-151.044
-180.997
-206.869
-225.727
-234.788
-231.789
-215.344
-185.231
-142.554
-89.7456
-30.4019
31.0445
89.7739
141.095
180.963
206.425
215.946
209.56
188.842
156.694
116.989
74.1064
32.4405
-4.08211
-32.396
-50.571
-57.9358
-55.0484
-43.5254
-25.7628
-4.58832
17.1053
36.7021
52.14
62.0943
66.0556
64.3006
57.7698
47.8769
36.2775
24.6312
14.3864
6.61244
1.89517
0.303211
1.42305
4.4521
8.33327
11.9111
14.0883
13.9636
10.9357
4.76263
-4.42543
-16.1604
-29.7077
-44.1644
-58.5703
-72.0169
-83.7424
-93.2027
-100.11
-104.441
-106.414
-106.436
-105.045
-102.831
-100.366
-98.1466
-96.5437
-95.7786
-95.915
-96.8696
-98.438
-100.33
-102.211
-103.743
-104.62
-104.6
-103.522
-101.317
-98.0044
-93.6837
-88.513
-82.6882
-76.4183
-69.903
-63.3146
-56.7864
-50.4081
-44.23
-38.2711
-32.5338
-27.0174
-21.7324
-16.7092
-12.0023
-7.68833
-3.85749
-0.601829
1.99979
3.89636
5.07711
5.57956
5.49169
4.94749
4.11627
3.1866
2.34674
1.76409
1.56608
1.82518
2.55001
3.68373
5.1103
6.66771
8.16673
9.413
10.2297
10.4783
10.0746
8.99875
7.29803
5.08199
2.51104
-0.220153
-2.90248
-5.33309
-7.33476
-8.77185
-9.56132
-9.67797
-9.15344
-8.0696
-6.54717
-4.73102
-2.77403
-0.82129
1.00344
2.60735
3.93338
4.95972
5.69468
6.16789
6.41984
6.49147
6.41566
6.21217
5.88647
5.43281
4.8405
4.10229
3.22309
2.22719
1.16275
0.102239
-0.86127
-1.62188
-2.07163
-2.11306
-1.67171
-0.707237
0.778632
2.73823
5.0789
7.66895
10.3483
12.9429
15.2822
17.2172
18.6378
19.4865
19.767
19.5463
18.9476
18.1372
17.3035
16.6314
16.2761
16.3366
16.8365
17.7113
18.8083
19.8975
20.6951
20.8964
20.2139
18.4167
15.3656
11.0379
5.53968
-0.897864
-7.93751
-15.1686
-22.1492
-28.4531
-33.7155
-37.6713
-40.1821
-41.2486
-41.0057
-39.7023
-37.6677
-35.2699
-32.8701
-30.7804
-29.2291
-28.3383
-28.1157
-28.4604
-29.1824
-30.0312
-30.7299
-31.0106
-30.6462
-29.4753
-27.4179
-24.4802
-20.7498
-16.3818
-11.5777
-6.56182
-1.55602
3.24318
7.6829
11.6662
15.1566
18.1751
20.7886
23.0896
25.1696
27.0842
28.8145
30.2288
31.0478
30.8249
28.9478
24.6727
17.1955
5.7645
-10.1743
-30.8136
-55.8274
-84.2516
-114.434
-144.08
-170.408
-190.411
-201.196
-200.366
-186.391
-158.899
-118.85
-68.5456
-11.4692
48.0382
105.225
155.446
194.675
219.956
229.721
223.952
204.143
173.103
134.595
92.8915
52.2803
16.5977
-11.1618
-29.1155
-36.6159
-34.2244
-23.5457
-6.95567
12.7393
32.6642
50.2146
63.3342
70.7035
71.8234
66.995
57.2051
43.9404
28.9599
14.0552
0.829911
-9.47713
-16.1082
-18.8335
-17.9298
-14.1004
-8.35138
-1.84431
4.25511
8.91346
11.3364
11.0362
7.85608
1.95332
-6.25271
-16.157
-27.0581
-38.248
-49.0909
-59.0833
-67.8899
-75.3537
-81.4827
-86.4174
-90.3874
-93.6618
-96.5037
-99.1314
-101.693
-104.255
-106.799
-109.24
-111.44
-113.233
-114.447
-114.921
-114.525
-113.165
-110.788
-107.384
-102.982
-97.6471
-91.4714
-84.5714
-77.0791
-69.1362
-60.8876
-52.4764
-44.0399
-35.7078
-27.6014
-19.8356
-12.5219
-5.77112
0.304431
5.59114
9.97818
13.3654
15.6755
16.8687
16.9582
16.0247
14.2246
11.7917
9.02838
6.28666
3.93939
2.3448
1.80805
2.54504
4.65321
8.09406
12.6901
18.1378
24.0347
29.9186
35.3137
39.7785
42.949
44.5742
44.5372
42.8632
39.7115
35.3546
30.1467
24.4862
18.7755
13.3843
8.6178
4.6951
1.73711
-0.234037
-1.28571
-1.55734
-1.23748
-0.538242
0.329709
1.17909
1.86265
2.28337
2.39766
2.21212
1.77493
1.16353
0.470609
-0.209787
-0.794347
-1.2195
-1.4467
-1.46388
-1.2834
-0.937342
-0.471181
0.0631346
0.613656
1.13375
1.58578
1.9431
2.19039
2.32276
2.34392
2.26383
2.09605
1.85501
1.55317
1.19825
0.790691
0.321666
-0.227846
-0.886496
-1.69013
-2.67741
-3.88355
-5.33287
-7.03078
-8.9565
-11.0576
-13.2481
-15.4098
-17.3998
-19.0609
-20.2374
-20.7918
-20.6229
-19.6817
-17.9827
-15.6096
-12.7135
-9.50317
-6.22858
-3.15848
-0.555261
1.35035
2.38188
2.43404
1.48219
-0.416865
-3.13299
-6.47876
-10.2317
-14.1602
-18.0503
-21.7292
-25.0838
-28.0713
-30.7192
-33.117
-35.3978
-37.7138
-40.2078
-42.9851
-46.0884
-49.48
-53.0337
-56.5385
-59.7131
-62.2321
-63.7594
-63.9861
-62.6679
-59.6573
-54.926
-48.5748
-40.8296
-32.0237
-22.5683
-12.9157
-3.5186
5.20914
12.9262
19.3886
24.4632
28.1294
30.4679
31.6401
31.8587
31.3528
30.3293
28.9339
27.2139
25.0856
22.3106
18.487
13.0607
5.36495
-5.30915
-19.6093
-37.9921
-60.5802
-87.0268
-116.413
-147.206
-177.299
-204.146
-224.984
-237.135
-238.338
-227.074
-202.839
-166.307
-119.365
-64.993
-7.00763
50.313
102.668
146.188
177.841
195.744
199.34
189.419
167.987
138.004
103.028
66.8042
32.8619
4.16111
-17.1757
-30.0156
-34.2451
-30.6818
-20.889
-6.92285
8.95227
24.5436
37.9722
47.8531
53.3968
54.4301
51.3393
44.9538
36.3883
26.8683
17.5626
9.44126
3.17651
-0.908358
-2.83879
-2.94402
-1.7777
-0.0180402
1.63742
2.56828
2.30728
0.588077
-2.63851
-7.2188
-12.8362
-19.0689
-25.4565
-31.5652
-37.0442
-41.6652
-45.3426
-48.1319
-50.2093
-51.8363
-53.3145
-54.9382
-56.9508
-59.5092
-62.6622
-66.3423
-70.3736
-74.4915
-78.3735
-81.6753
-84.0688
-85.2773
-85.1037
-83.4501
-80.3253
-75.8415
-70.2007
-63.6721
-56.5654
-49.201
-41.8826
-34.8741
-28.3833
-22.5532
-17.4607
-13.1223
-9.50387
-6.53369
-4.116
-2.1441
-0.51158
0.878446
2.10652
3.23206
4.29062
5.2931
6.22711
7.06093
7.75015
8.2469
8.51088
8.52069
8.28331
7.83977
7.26499
6.66101
6.14414
5.82752
5.80201
6.11885
6.77722
7.71944
8.83497
9.97314
10.9628
11.6359
11.8521
11.5193
10.6087
9.16038
7.28005
5.12612
2.88967
0.769892
-1.05173
-2.4347
-3.29722
-3.626
-3.47685
-2.9661
-2.25413
-1.52323
-0.952663
-0.694329
-0.852112
-1.4675
-2.51333
-3.8964
-5.46838
-7.04372
-8.42191
-9.41143
-9.85216
-9.63364
-8.70695
-7.08919
-4.86017
-2.15236
0.864419
4.00126
7.06906
9.89578
12.3402
14.301
15.7208
16.5856
16.9191
16.7757
16.2303
15.3687
14.2787
13.0426
11.7319
10.4034
9.09843
7.84269
6.64803
5.51542
4.43885
3.4099
2.42262
1.47823
0.58908
-0.219029
-0.906706
-1.42383
-1.71559
-1.73159
-1.43684
-0.823393
0.0797464
1.20029
2.42179
3.58914
4.52053
5.02471
4.92152
4.06297
2.35185
-0.244889
-3.69008
-7.87878
-12.6489
-17.7987
-23.109
-28.3666
-33.3858
-38.0258
-42.2009
-45.8827
-49.0944
-51.8979
-54.3761
-56.613
-58.673
-60.5852
-62.3318
-63.8438
-65.0052
-65.663
-65.6447
-64.7786
-62.9154
-59.9484
-55.8303
-50.5833
-44.3032
-37.1562
-29.3694
-21.2146
-12.9887
-4.99173
2.49668
9.23818
15.0538
19.8368
23.5588
26.2687
28.0826
29.1658
29.7043
29.8694
29.7741
29.4266
28.6857
27.2248
24.5159
19.8416
12.3476
1.13955
-14.5753
-35.3123
-61.12
-91.409
-124.835
-159.272
-191.906
-219.456
-238.508
-245.937
-239.347
-217.478
-180.497
-130.127
-69.5817
-3.29514
63.517
125.418
177.355
215.225
236.335
239.682
226.037
197.81
158.727
113.367
66.6193
23.1279
-13.1962
-39.5524
-54.4717
-57.867
-50.9195
-35.8266
-15.453
7.06525
28.7111
46.926
59.8602
66.514
66.7614
61.2653
51.3064
38.5535
24.8121
11.7814
0.851491
-7.03939
-11.4767
-12.5677
-10.8754
-7.30101
-2.93682
1.09076
3.76757
4.31054
2.2474
-2.54867
-9.86934
-19.2211
-29.9048
-41.1135
-52.0342
-61.9415
-70.2729
-76.678
-81.0391
-83.4616
-84.2404
-83.8066
-82.6635
-81.3208
-80.2342
-79.7569
-80.1083
-81.3612
-83.4469
-86.1766
-89.2735
-92.4117
-95.2556
-97.4954
-98.8743
-99.2048
-98.3744
-96.3408
-93.1196
-88.7694
-83.3764
-77.0424
-69.8792
-62.0077
-53.5632
-44.7019
-35.6075
-26.4936
-17.6012
-9.1886
-1.51544
5.17781
10.6922
14.891
17.7155
19.193
19.4364
18.6338
17.0303
14.9041
12.5388
10.197
8.09719
6.39693
5.18384
4.47524
4.22582
4.34169
4.69867
5.16222
5.6063
5.92891
6.06264
5.9793
5.68877
5.23252
4.67354
4.08422
3.53407
3.07906
2.75382
2.56746
2.50334
2.52247
2.56962
2.58134
2.49451
2.25437
1.82103
1.17372
0.31243
-0.743268
-1.95778
-3.28487
-4.67379
-6.07514
-7.44517
-8.74791
-9.95466
-11.0412
-11.9838
-12.754
-13.3158
-13.6235
-13.6235
-13.2582
-12.4737
-11.2286
-9.50378
-7.31121
-4.69999
-1.75883
1.38617
4.57846
7.64213
10.396
12.6694
14.3171
15.2334
15.362
14.7016
13.3075
11.287
8.79117
6.00246
3.11945
0.340622
-2.15207
-4.20813
-5.72064
-6.63447
-6.94956
-6.71895
-6.04121
-5.04788
-3.88699
-2.7042
-1.62387
-0.732402
-0.0663983
0.392501
0.714766
1.01201
1.41891
2.07038
3.07692
4.50203
6.34512
8.5328
10.9204
13.3037
15.4402
17.0764
17.9777
17.9573
16.8998
14.7758
11.6461
7.65572
3.0162
-2.01827
-7.18017
-12.2182
-16.9237
-21.151
-24.8284
-27.9605
-30.6198
-32.9309
-35.0485
-37.1326
-39.3231
-41.7176
-44.3544
-47.2022
-50.1577
-53.0515
-55.6612
-57.732
-59.001
-59.2252
-58.2087
-55.8268
-52.0448
-46.927
-40.6371
-33.4274
-25.6186
-17.5721
-9.65805
-2.22201
4.44479
10.1291
14.7103
18.1637
20.5542
22.0179
22.7374
22.9093
22.7086
22.2512
21.5575
20.5195
18.8769
16.2067
11.9344
5.37406
-4.19944
-17.4429
-34.8103
-56.4032
-81.8302
-110.1
-139.58
-168.04
-192.802
-210.984
-219.824
-217.055
-201.252
-172.133
-130.729
-79.4022
-21.6907
38.0124
94.9071
144.308
182.173
205.559
212.957
204.456
181.708
147.712
106.452
62.4168
20.0932
-16.5267
-44.3505
-61.4643
-67.2577
-62.3882
-48.602
-28.4423
-4.88779
19.0277
40.5686
57.5826
68.69
73.361
71.8847
65.2411
54.9027
42.5958
30.055
18.8013
9.96959
4.20107
1.60935
1.81635
4.04828
7.27414
10.3659
12.2584
12.0894
9.30266
3.70579
-4.52308
-14.8751
-26.5899
-38.7601
-50.4487
-60.8006
-69.139
-75.0317
-78.3257
-79.1449
-77.8565
-75.0105
-71.2643
-67.2998
-63.7462
-61.1157
-59.7585
-59.842
-61.3524
-64.1175
-67.8445
-72.1661
-76.6892
-81.0379
-84.8876
-87.9854
-90.1584
-91.309
-91.4013
-90.4434
-88.4678
-85.5163
-81.6306
-76.8499
-71.2164
-64.7857
-57.6399
-49.8993
-41.7292
-33.3394
-24.9749
-16.8991
-9.37044
-2.61733
3.18496
7.93179
11.5977
14.2351
15.9627
16.947
17.3781
17.4453
17.3147
17.1126
16.9164
16.7538
16.6085
16.433
16.1633
15.7351
15.0981
14.2261
13.1231
11.823
10.3856
8.88816
7.41499
6.04631
4.84816
3.86437
3.11178
2.57888
2.22816
2.00161
1.82881
1.63659
1.35912
0.94725
0.375857
-0.351653
-1.2024
-2.11682
-3.01491
-3.80529
-4.39603
-4.70601
-4.67546
-4.27439
-3.50795
-2.41794
-1.08021
0.401727
1.90622
3.30518
4.47658
5.31641
5.74897
5.73436
5.27257
4.40382
3.20529
1.78435
0.26909
-1.20333
-2.49956
-3.50327
-4.12739
-4.3244
-4.09313
-3.48104
-2.58109
-1.52277
-0.457776
0.458445
1.08732
1.32717
1.12973
0.510336
-0.45038
-1.61422
-2.80231
-3.81911
-4.48056
-4.64219
-4.22307
-3.2219
-1.72255
0.111973
2.05658
3.84967
5.2237
5.93626
5.79703
4.68698
2.56731
-0.522514
-4.47644
-9.14035
-14.3338
-19.8709
-25.5771
-31.299
-36.9072
-42.2912
-47.3499
-51.9789
-56.0595
-59.4516
-61.9928
-63.5068
-63.8178
-62.7731
-60.2667
-56.2633
-50.817
-44.0808
-36.3063
-27.8304
-19.0516
-10.3978
-2.28858
4.90152
10.8763
15.4421
18.5206
20.1494
20.4693
19.7006
18.1116
15.98
13.5531
11.0063
8.40545
5.67434
2.57178
-1.31541
-6.55736
-13.8366
-23.8687
-37.2883
-54.5066
-75.5571
-99.9551
-126.601
-153.756
-179.121
-200.012
-213.643
-217.473
-209.566
-188.927
-155.745
-111.49
-58.8604
-1.55781
56.0792
109.534
154.605
187.872
207.065
211.293
201.11
178.407
146.153
108.028
67.9928
29.8474
-3.15352
-28.6011
-45.1107
-52.3695
-51.0575
-42.6636
-29.2265
-13.041
3.63404
18.8288
31.0521
39.3997
43.5785
43.8516
40.9218
35.7745
29.5041
23.1494
17.5568
13.2869
10.5705
9.31557
9.15757
9.54154
9.82237
9.36731
7.64723
4.3058
-0.800414
-7.59304
-15.7925
-24.9625
-34.5714
-44.0599
-52.9078
-60.6912
-67.1234
-72.077
-75.5852
-77.8249
-79.0833
-79.7153
-80.0952
-80.5707
-81.4229
-82.8375
-84.8887
-87.537
-90.6396
-93.9705
-97.2477
-100.163
-102.414
-103.728
-103.888
-102.748
-100.242
-96.3861
-91.2753
-85.0703
-77.9827
-70.2554
-62.1419
-53.8862
-45.7056
-37.7771
-30.2293
-23.1412
-16.5459
-10.4413
-4.80404
0.394372
5.17186
9.52344
13.4143
16.7798
19.5331
21.5791
22.8327
23.2389
22.7909
21.5435
19.6183
17.2001
14.5237
11.8523
9.45051
7.55477
6.34572
5.92638
6.3092
7.41393
9.07678
11.0696
13.1266
14.9754
16.3675
17.1061
17.0661
16.2051
14.5651
12.2633
9.47517
6.41201
3.29505
0.330319
-2.31303
-4.51831
-6.22893
-7.44747
-8.22653
-8.65322
-8.82966
-8.85272
-8.79609
-8.69733
-8.55178
-8.31406
-7.9067
-7.23452
-6.20225
-4.73286
-2.7835
-0.356886
2.49374
5.66656
9.01971
12.3848
15.5836
18.4447
20.8196
22.5939
23.6957
24.0979
23.8168
22.9073
21.455
19.5672
17.3636
14.9673
12.4971
10.0611
7.75227
5.64482
3.79282
2.22946
0.967376
-6.89276e-05
-0.696785
-1.16113
-1.4424
-1.59677
-1.68297
-1.75796
-1.87308
-2.07093
-2.38313
-2.82938
-3.4174
-4.144
-4.99688
-5.95686
-7.00047
-8.1024
-9.23775
-10.3838
-11.5215
-12.6356
-13.7155
-14.7547
-15.7504
-16.704
-17.6205
-18.5101
-19.3888
-20.2799
-21.215
-22.2353
-23.3909
-24.7391
-26.3417
-28.2594
-30.5454
-33.2373
-36.3489
-39.8626
-43.7222
-47.8289
-52.0388
-56.1641
-59.977
-63.2189
-65.6132
-66.8846
-66.7814
-65.1027
-61.725
-56.6265
-49.9052
-41.786
-32.6155
-22.8427
-12.9853
-3.58481
4.84557
11.8745
17.2006
20.689
22.3885
22.5272
21.4833
19.7335
17.7839
16.09
14.9776
14.5727
14.7524
15.1237
15.0366
13.6335
9.93372
2.94955
-8.17469
-24.0122
-44.7077
-69.8552
-98.4204
-128.73
-158.538
-185.188
-205.848
-217.812
-218.838
-207.461
-183.261
-147.015
-100.723
-47.4733
8.82908
63.8575
113.325
153.458
181.412
195.58
195.755
183.111
160.032
129.791
96.1423
62.8771
33.3944
10.3491
-4.58975
-10.8465
-8.90772
-0.167636
13.3213
29.1548
44.8966
58.3738
67.9115
72.4861
71.7841
66.1698
56.574
44.3242
30.9431
17.9431
6.64217
-1.97833
-7.36093
-9.39853
-8.40315
-5.02653
-0.146891
5.26051
10.2517
14.0254
16.0056
15.8877
13.6463
9.5074
3.89094
-2.66583
-9.59322
-16.3702
-22.5918
-28.0136
-32.57
-36.3642
-39.6347
-42.7023
-45.9095
-49.5586
-53.8601
-58.8965
-64.607
-70.7924
-77.1404
-83.2635
-88.7455
-93.1884
-96.2532
-97.6916
-97.3643
-95.2465
-91.4228
-86.0724
-79.4496
-71.8606
-63.6406
-55.1319
-46.6637
-38.5352
-31.0008
-24.2588
-18.4432
-13.6189
-9.78219
-6.86486
-4.74402
-3.25639
-2.21644
-1.43666
-0.747843
-0.0167362
0.84123
1.85632
3.00699
4.23053
5.44025
6.54636
7.47691
8.19441
8.70497
9.0577
9.33451
9.63201
10.0394
10.6166
11.3774
12.2813
13.235
14.1056
14.741
14.9953
14.7555
13.9632
12.6289
10.8365
8.73581
6.52569
4.42888
2.66241
1.40782
0.785276
0.835091
1.50941
2.67517
4.1281
5.61599
6.86837
7.62901
7.68707
6.90352
5.22941
2.71415
-0.497213
-4.17719
-8.03796
-11.7599
-15.0231
-17.5398
-19.082
-19.5053
-18.7636
-16.9148
-14.1178
-10.6188
-6.73074
-2.80552
0.797855
3.7464
5.76494
6.66344
6.35698
4.87612
2.36609
-0.925638
-4.67255
-8.50075
-12.0259
-14.8911
-16.8023
-17.5559
-17.0566
-15.3239
-12.4854
-8.76017
-4.43289
0.177
4.74763
8.98494
12.6475
15.5641
17.6417
18.8657
19.2914
19.0291
18.2262
17.047
15.6538
14.1905
12.7712
11.473
10.3345
9.35872
8.52009
7.77443
7.07012
6.35944
5.6086
4.80528
3.9628
3.12047
2.33981
1.69703
1.27223
1.13651
1.33803
1.88886
2.75414
3.84538
5.01954
6.08487
6.8141
6.96415
6.30089
4.6262
1.80395
-2.21867
-7.39767
-13.5892
-20.5577
-27.9953
-35.5498
-42.8581
-49.5801
-55.4283
-60.1896
-63.7345
-66.0137
-67.044
-66.8858
-65.6176
-63.3138
-60.0291
-55.7946
-50.6239
-44.5304
-37.5492
-29.7612
-21.3113
-12.4189
-3.37588
5.46884
13.735
21.0454
27.0631
31.5257
34.2729
35.2604
34.56
32.3427
28.8464
24.3305
19.0211
13.055
6.42773
-1.04117
-9.71847
-20.1313
-32.8999
-48.6269
-67.7524
-90.3902
-116.171
-144.128
-172.65
-199.536
-222.159
-237.73
-243.641
-237.83
-219.133
-187.543
-144.341
-92.0721
-34.3526
24.475
79.7907
127.198
163.009
184.657
190.971
182.288
160.392
128.282
89.8076
49.2233
10.7119
-22.0587
-46.2966
-60.326
-63.6863
-57.0852
-42.2249
-21.528
2.19514
26.094
47.599
64.6799
76.018
81.0784
80.0842
73.9057
63.8849
51.6238
38.7653
26.7924
16.8704
9.74404
5.6978
4.57705
5.8606
8.77038
12.4007
15.8485
18.329
19.2625
18.325
15.4601
10.8528
4.87523
-1.98823
-9.22225
-16.3567
-23.0272
-29.0126
-34.246
-38.7999
-42.8502
-46.6258
-50.3534
-54.2059
-58.262
-62.4846
-66.718
-70.7063
-74.1283
-76.6436
-77.9432
-77.7983
-76.0984
-72.8754
-68.3098
-62.7179
-56.5222
-50.2076
-44.2697
-39.1597
-35.2337
-32.7109
-31.6465
-31.9222
-33.2561
-35.2307
-37.337
-39.0297
-39.787
-39.1695
-36.8696
-32.7471
-26.8458
-19.3897
-10.7589
-1.44825
7.98535
16.9816
25.0334
31.7348
36.8151
40.1552
41.7857
41.8674
40.6581
38.4717
35.6336
32.4408
29.1299
25.858
22.6965
19.6396
16.6235
13.5526
10.3302
6.88627
3.20047
-0.684806
-4.66211
-8.56811
-12.2025
-15.3541
-17.8298
-19.4829
-20.2357
-20.0947
-19.1545
-17.592
-15.6491
-13.6091
-11.7665
-10.3967
-9.72606
-9.90796
-11.0055
-12.9839
-15.7123
-18.976
-22.497
-25.9613
-29.0498
-31.47
-32.9848
-33.4349
-32.7537
-30.9714
-28.2097
-24.6666
-20.5945
-16.2735
-11.9834
-7.97732
-4.4604
-1.57509
0.605804
2.07803
2.89777
3.16824
3.02297
2.60833
2.06725
1.52599
1.08516
0.815322
0.757089
0.924841
1.31289
1.90274
2.6702
3.59124
4.64611
5.82138
7.11013
8.51085
10.0254
11.6564
13.4057
15.2716
17.2478
19.3223
21.4761
23.6822
25.9051
28.0994
30.2096
32.1704
33.9079
35.3421
36.3907
36.9747
37.0244
36.4857
35.3259
33.5386
31.1454
28.1962
24.7664
20.951
16.8582
12.6003
8.28575
4.01127
-0.144125
-4.1232
-7.89218
-11.4403
-14.777
-17.9283
-20.9302
-23.8234
-26.6456
-29.4249
-32.1737
-34.8835
-37.5207
-40.0254
-42.3115
-44.2697
-45.7727
-46.6832
-46.8648
-46.1934
-44.5711
-41.9379
-38.2835
-33.6533
-28.1509
-21.9343
-15.2059
-8.19747
-1.15093
5.70235
12.1619
18.0751
23.349
27.9547
31.9239
35.3372
38.3054
40.9446
43.3453
45.5384
47.4575
47.4575
47.4575
47.4575
47.4575
47.4575
47.4575
47.4575
47.4575
47.4575
47.4575
47.4575
47.4575
47.4575
47.4575
47.4575
47.4575
47.4575
47.4575
47.4575
