61.2703
50.6354
38.798
26.2583
13.6499
1.68087
-8.94241
-17.5979
-23.8255
-27.3886
-28.3099
-26.8768
-23.6136
-19.2252
-14.5176
-10.3067
-7.32562
-6.14207
-7.09597
-10.2631
-15.4492
-22.213
-29.9164
-37.7923
-45.0247
-50.8281
-54.5186
-55.5647
-53.6116
-48.4737
-40.096
-28.4917
-13.6701
4.42797
25.9641
51.19
80.3766
113.687
151.005
191.754
234.735
278.032
319.015
354.468
380.845
394.636
392.803
373.223
335.087
279.162
207.898
125.315
36.6921
-51.9114
-134.262
-204.592
-258.205
-291.963
-304.59
-296.776
-271.039
-231.407
-182.924
-131.08
-81.2102
-37.9463
-4.78452
16.1978
24.4443
20.8454
7.50698
-12.5973
-36.0434
-59.3878
-79.5612
-94.1827
-101.763
-101.785
-94.6586
-81.572
-64.2632
-44.7477
-25.0403
-6.90464
8.3392
19.9335
27.7183
32.0886
33.8857
34.2436
34.4126
35.5859
38.7484
44.5649
53.3173
64.8935
78.8246
94.3616
110.579
126.489
141.155
153.786
163.81
170.906
175.008
176.278
175.051
171.762
166.876
160.811
153.893
146.314
138.124
129.248
119.52
108.731
96.6879
83.2676
68.4617
52.4059
35.3883
17.8355
0.279264
-16.6927
-32.4949
-46.6036
-58.6103
-68.2621
-75.4846
-80.3848
-83.2346
-84.4367
-84.4793
-83.8829
-83.1481
-82.7073
-82.8872
-83.8839
-85.7525
-88.4101
-91.6517
-95.1749
-98.61
-101.554
-103.605
-104.395
-103.62
-101.066
-96.6323
-90.3405
-82.3436
-72.9186
-62.4507
-51.4067
-40.2998
-29.648
-19.9317
-11.5524
-4.8005
0.168147
3.34042
4.84066
4.91143
3.8831
2.13603
0.0597093
-1.98615
-3.70461
-4.88493
-5.41471
-5.27996
-4.55422
-3.37896
-1.93809
-0.430419
0.956731
2.06958
2.80351
3.1109
3.00117
2.53373
1.80545
0.934869
0.0452653
-0.750994
-1.36506
-1.73972
-1.85231
-1.71224
-1.35371
-0.824663
-0.173693
0.563592
1.37689
2.29088
3.37135
4.72709
6.50732
8.89452
12.0925
16.3098
21.7386
28.5309
36.7728
46.4604
57.4806
69.5997
82.4627
95.6058
108.481
120.495
131.051
139.598
145.681
148.975
149.315
146.712
141.345
133.552
123.797
112.642
100.704
88.6155
76.9925
66.3978
57.3148
50.1252
45.0917
42.3459
41.8812
43.5509
47.0718
52.0349
57.9231
64.1368
70.027
74.9334
78.2263
79.3479
77.8509
73.43
65.9448
55.4312
42.1021
26.3359
8.65521
-10.3013
-29.8093
-49.0871
-67.3157
-83.649
-97.2154
-107.113
-112.409
-112.154
-105.421
-91.3784
-69.3997
-39.2101
-1.04504
44.1954
94.8313
148.358
201.499
250.376
290.788
318.594
330.153
322.772
295.105
247.438
181.813
101.956
13.0047
-78.9446
-167.423
-246.238
-310.103
-355.179
-379.451
-382.893
-367.413
-336.58
-295.166
-248.575
-202.219
-160.925
-128.438
-107.081
-97.6006
-99.2055
-109.791
-126.302
-145.185
-162.869
-176.21
-182.856
-181.475
-171.852
-154.828
-132.121
-106.046
-79.179
-54.0206
-32.6849
-16.6613
-6.66683
-2.60159
-3.60436
-8.19546
-14.4844
-20.4141
-24.0115
-23.6155
-18.0562
-6.76827
10.1713
32.082
57.7851
85.76
114.329
141.847
166.875
188.315
205.494
218.191
226.608
231.293
233.022
232.663
231.045
228.837
226.463
224.054
221.45
218.249
213.879
207.714
199.179
187.865
173.61
156.551
137.138
116.099
94.376
73.0214
53.0908
35.5269
21.0604
10.1364
2.87389
-0.935553
-1.79409
-0.432917
2.27365
5.40448
8.08727
9.58349
9.35463
7.10488
2.79797
-3.35099
-10.9059
-19.258
-27.6865
-35.4271
-41.7415
-45.9835
-47.6563
-46.4566
-42.3025
-35.3425
-25.9449
-14.6701
-2.22545
10.5904
22.9515
34.0696
43.2564
49.976
53.8853
54.8568
52.9839
48.5667
42.0806
34.1304
25.394
16.5616
8.27601
1.07967
-4.62624
-8.60711
-10.8029
-11.3183
-10.3982
-8.38977
-5.69855
-2.74146
0.0967119
2.4995
4.24407
5.21381
5.39811
4.88028
3.81633
2.40787
0.87276
-0.582755
-1.78738
-2.62132
-3.02472
-2.99804
-2.59497
-1.90974
-1.06086
-0.173711
0.635765
1.27442
1.68093
1.8299
1.73108
1.42421
0.970809
0.444006
-0.081953
-0.54141
-0.885229
-1.08647
-1.14372
-1.08242
-0.954444
-0.836334
-0.825754
-1.03566
-1.58524
-2.58715
-4.1315
-6.26831
-8.99125
-12.2264
-15.8291
-19.5928
-23.269
-26.5993
-29.3555
-31.3816
-32.6321
-33.199
-33.3204
-33.3673
-33.8063
-35.1424
-37.8464
-42.2789
-48.6208
-56.8242
-66.5919
-77.3917
-88.5056
-99.1088
-108.368
-115.544
-120.089
-121.719
-120.457
-116.632
-110.85
-103.916
-96.7463
-90.2505
-85.221
-82.2277
-81.5309
-83.0186
-86.1707
-90.0549
-93.3589
-94.4666
-91.5884
-82.9528
-67.0562
-42.956
-10.5687
29.0786
73.7065
119.807
162.871
197.816
219.579
223.796
207.464
169.482
110.957
35.2452
-52.3289
-145.02
-235.414
-316.283
-381.418
-426.334
-448.754
-448.805
-428.917
-393.454
-348.115
-299.222
-252.957
-214.673
-188.351
-176.243
-178.758
-194.562
-220.871
-253.886
-289.303
-322.835
-350.681
-369.897
-378.64
-376.262
-363.268
-341.154
-312.152
-278.926
-244.255
-210.733
-180.527
-155.198
-135.607
-121.902
-113.579
-109.604
-108.575
-108.917
-109.068
-107.658
-103.648
-96.4239
-85.84
-72.2016
-56.2024
-38.821
-21.1919
-4.46888
10.3054
22.3073
31.0071
36.2061
38.0326
36.9022
33.4491
28.4395
22.6776
16.9167
11.7837
7.72434
4.97342
3.55024
3.27753
3.82015
4.73822
5.54875
5.7897
5.08016
3.17088
-0.0205635
-4.39388
-9.67233
-15.4311
-21.1449
-26.2501
-30.2127
-32.5949
-33.1096
-31.6578
-28.3421
-23.4561
-17.4495
-10.876
-4.32896
1.6251
6.50825
9.97938
11.8643
12.1649
11.0466
8.80869
5.83985
2.56755
-0.593656
-3.28792
-5.25309
-6.34158
-6.52582
-5.88892
-4.60314
-2.89975
-1.03489
0.744153
2.2283
3.26858
3.78897
3.78957
3.34081
2.56999
1.64209
0.737174
0.0267915
-0.348105
-0.29545
0.215431
1.1485
2.40364
3.82717
5.22937
6.40732
7.17047
7.36601
6.90094
5.75809
4.00409
1.78855
-0.665492
-3.07849
-5.13686
-6.51865
-6.91994
-6.07936
-3.79847
0.0442531
5.48722
12.4882
20.9354
30.6662
41.4912
53.2205
65.6879
78.7691
92.3903
106.525
121.178
136.367
152.086
168.289
184.867
201.638
218.357
234.733
250.451
265.209
278.737
290.825
301.324
310.139
317.206
322.466
325.831
327.159
326.244
322.829
316.625
307.358
294.817
278.897
259.634
237.224
212.017
184.493
155.228
124.84
93.9414
63.0966
32.7853
3.38413
-24.8405
-51.7252
-77.1949
-101.241
-123.897
-145.219
-165.261
-184.065
-201.646
-217.991
-233.055
-246.769
-259.043
-269.777
-278.868
-286.225
-291.765
-295.422
-297.137
-296.84
-294.424
-289.702
-282.357
-271.894
-257.598
-238.524
-213.546
-181.463
-141.193
-92.0437
-34.0136
31.9013
103.483
177.213
248.388
311.474
360.66
390.573
397.039
377.779
332.921
265.227
179.983
84.5405
-12.4332
-101.911
-175.531
-226.566
-250.692
-246.465
-215.445
-161.946
-92.4642
-14.8544
62.6309
132.312
187.943
225.356
242.827
241.118
223.221
193.845
158.728
123.869
94.7779
75.838
69.8491
77.7922
98.8299
130.523
169.223
210.572
250.053
283.508
307.579
320.022
319.862
307.41
284.121
252.358
215.064
175.417
136.48
100.911
70.7354
47.2129
30.801
21.2049
17.5027
18.324
22.0557
27.0498
31.8117
35.1479
36.263
34.7995
30.822
24.7539
17.2769
9.20903
1.3763
-5.50862
-10.9461
-14.7183
-16.9196
-17.9471
-18.4528
-19.2645
-21.2884
-25.404
-32.3673
-42.7326
-56.8016
-74.6023
-95.8967
-120.211
-146.882
-175.111
-204.013
-232.665
-260.135
-285.511
-307.923
-326.559
-340.695
-349.737
-353.269
-351.111
-343.369
-330.482
-313.23
-292.718
-270.318
-247.569
-226.048
-207.227
-192.318
-182.138
-177.004
-176.675
-180.351
-186.737
-194.156
-200.713
-204.487
-203.722
-197.008
-183.414
-162.578
-134.735
-100.682
-61.6875
-19.3636
24.4933
68.0692
109.687
147.937
181.762
210.499
233.871
251.94
265.027
273.617
278.266
279.519
277.862
273.691
267.327
259.039
249.097
237.813
225.586
212.918
200.42
188.779
178.717
170.925
165.984
164.298
166.021
171.011
178.8
188.598
199.324
209.676
218.228
223.555
224.374
219.686
208.901
191.934
169.248
141.84
111.171
79.0343
47.3872
18.1568
-6.95249
-26.6277
-40.0731
-47.0779
-48.0196
-43.8046
-35.7549
-25.4568
-14.5923
-4.77231
2.60724
6.47284
6.13598
1.3097
-7.91608
-21.1307
-37.6789
-56.745
-77.4357
-98.8528
-120.153
-140.594
-159.56
-176.58
-191.332
-203.633
-213.421
-220.729
-225.65
-228.302
-228.787
-227.162
-223.422
-217.492
-209.245
-198.533
-185.23
-169.28
-150.742
-129.826
-106.9
-82.4894
-57.2367
-31.8521
-7.04275
16.5656
38.5078
58.552
76.7577
93.5076
109.507
125.741
143.381
163.643
187.608
216.012
249.029
286.087
325.74
365.63
402.566
432.736
452.037
456.506
442.798
408.652
353.282
277.62
184.376
77.8853
-36.2546
-151.707
-262.03
-361.341
-444.919
-509.685
-554.485
-580.158
-589.382
-586.325
-576.158
-564.494
-556.83
-558.048
-572.041
-601.477
-647.725
-710.906
-790.044
-883.256
-987.919
-1100.77
-1217.91
-1334.72
-1445.74
-1544.65
-1624.27
-1676.94
-1695.07
-1671.88
-1602.43
-1484.49
-1319.36
-1112.33
-872.622
-612.94
-348.422
-95.2636
130.888
316.546
451.801
531.329
554.889
527.227
457.418
357.73
242.18
124.949
18.8683
-65.847
-122.488
-148.275
-144.292
-114.987
-67.3231
-9.70947
49.1387
101.267
140.357
162.319
165.561
150.924
121.339
81.2533
35.941
-9.22505
-49.4345
-80.9669
-101.532
-110.399
-108.325
-97.305
-80.1974
-60.2844
-40.8218
-24.6395
-13.8347
-9.58506
-12.0931
-20.655
-33.8315
-49.6915
-66.089
-80.939
-92.4584
-99.3485
-100.904
-97.0424
-88.2636
-75.545
-60.1964
-43.6917
-27.4996
-12.9309
-1.01813
7.56344
12.5287
13.9717
12.3163
8.239
2.57608
-3.7722
-9.92891
-15.1102
-18.673
-20.1383
-19.1954
-15.689
-9.59901
-1.01786
9.86999
22.8023
37.448
53.4114
70.2356
87.4092
104.378
120.563
135.395
148.342
158.955
166.902
172.003
174.247
173.803
171.004
166.327
160.35
153.707
147.04
140.959
136.013
132.686
131.41
132.605
136.731
144.336
156.087
172.76
195.162
223.985
259.595
301.775
349.473
400.614
452.028
499.564
538.382
563.445
570.135
554.916
515.949
453.543
370.361
271.337
163.281
54.2324
-47.3819
-133.656
-198.076
-236.236
-246.31
-229.224
-188.507
-129.856
-60.4545
11.843
79.3806
135.507
175.235
195.67
196.193
178.361
145.583
102.594
54.8327
7.77235
-33.6904
-65.7367
-85.9604
-93.5115
-89.0479
-74.5158
-52.8005
-27.2983
-1.46955
21.5734
39.396
50.458
54.2
51.0039
42.0439
29.0576
14.0737
-0.865493
-13.9533
-23.8114
-29.6086
-31.0993
-28.5862
-22.818
-14.8444
-5.84959
3.01191
10.7553
16.6666
20.3563
21.7628
21.1138
18.8542
15.5555
11.8214
8.203
5.13329
2.88743
1.57063
1.13117
1.39337
2.10303
2.97736
3.75177
4.21749
4.24567
3.79627
2.9119
1.69893
0.299906
-1.13785
-2.49211
-3.68906
-4.7166
-5.62583
-6.52085
-7.53926
-8.8267
-10.5098
-12.6717
-15.3335
-18.444
-21.8796
-25.4532
-28.9327
-32.0652
-34.606
-36.3488
-37.1529
-36.9659
-35.8384
-33.9275
-31.4901
-28.8637
-26.4367
-24.6116
-23.7628
-24.1945
-26.1021
-29.5414
-34.4081
-40.4321
-47.1878
-54.1207
-60.5922
-65.9371
-69.5315
-70.862
-69.5912
-65.6079
-59.0576
-50.3463
-40.1142
-29.1808
-18.4642
-8.88269
-1.24945
3.82766
6.0271
5.36418
2.20238
-2.77808
-8.65211
-14.3541
-18.802
-21.0262
-20.2871
-16.1665
-8.62403
1.98841
14.9546
29.2592
43.6818
56.9097
67.6566
74.7762
77.3599
74.8134
66.9039
53.7789
35.9558
14.2845
-10.1139
-35.9257
-61.7374
-86.1341
-107.798
-125.597
-138.663
-146.443
-148.728
-145.658
-137.692
-125.565
-110.221
-92.7333
-74.2245
-55.7823
-38.3873
-22.8517
-9.77414
0.485031
7.8104
12.3183
14.3268
14.3123
12.8562
10.5873
8.12403
6.02376
4.74094
4.5996
5.78088
8.32537
12.148
17.0616
22.8041
29.0653
35.5098
41.7946
47.5821
52.5489
56.3955
58.8555
59.7086
58.7964
56.0397
51.4565
45.1767
37.4502
28.6461
19.2395
9.78651
0.889288
-6.84436
-12.8395
-16.5822
-17.6309
-15.6042
-10.1486
-0.891126
12.6075
30.8791
54.532
84.1736
120.263
162.897
211.565
264.912
320.562
375.092
424.162
462.856
486.196
489.772
470.412
426.758
359.676
272.385
170.297
60.5376
-48.7661
-149.36
-233.772
-296.136
-332.815
-342.754
-327.513
-290.986
-238.86
-177.885
-115.064
-56.8614
-8.53481
26.3411
46.1135
51.0405
43.056
25.3568
1.88097
-23.2487
-46.243
-64.0671
-74.7195
-77.3497
-72.2159
-60.5033
-44.0424
-24.9731
-5.40552
12.8769
28.6341
41.2858
50.9186
58.1959
64.1902
70.1732
77.3959
86.8941
99.346
114.998
133.662
154.78
177.538
201.006
224.278
246.599
267.453
286.596
304.052
320.058
334.974
349.183
362.982
376.499
389.628
402.009
413.048
421.965
427.878
429.902
427.24
419.278
405.651
386.281
361.389
331.477
297.282
259.719
219.813
178.631
137.22
96.5653
57.552
20.9498
-12.5955
-42.5617
-68.5477
-90.2709
-107.568
-120.396
-128.841
-133.116
-133.563
-130.642
-124.919
-117.038
-107.684
-97.5484
-87.2719
-77.4005
-68.3332
-60.281
-53.2378
-46.9724
-41.0455
-34.8546
-27.7045
-18.8977
-7.83501
5.88764
22.3977
41.4928
62.623
84.9132
107.224
128.244
146.61
161.028
170.408
173.969
171.324
162.532
148.102
128.958
106.364
81.8091
56.8762
33.0973
11.8138
-5.94195
-19.532
-28.7563
-33.8482
-35.4248
-34.396
-31.8463
-28.901
-26.5938
-25.7504
-26.901
-30.2304
-35.5695
-42.4289
-50.0673
-57.5864
-64.0411
-68.5512
-70.4028
-69.1292
-64.5626
-56.8527
-46.452
-34.0688
-20.5955
-7.01862
5.67757
16.6059
25.0576
30.5633
32.9268
32.2304
28.8107
23.211
16.1145
8.26845
0.407054
-6.81745
-12.8891
-17.4625
-20.3753
-21.6387
-21.4106
-19.9545
-17.5924
-14.6562
-11.445
-8.19174
-5.04233
-2.04893
0.823607
3.67907
6.66196
9.92383
13.5882
17.7189
22.2955
27.2011
32.2222
37.0638
41.3755
44.7879
46.9525
47.5814
46.4811
43.5759
38.9183
32.6842
25.1551
16.688
7.67832
-1.47856
-10.4231
-18.8575
-26.5587
-33.375
-39.2056
-43.964
-47.5288
-49.6885
-50.0899
-48.2057
-43.3355
-34.6579
-21.3414
-2.71506
21.5182
51.0554
84.7995
120.748
156.012
186.993
209.722
220.339
215.638
193.608
153.864
97.9095
29.1403
-47.3963
-125.489
-198.426
-259.751
-304.008
-327.372
-328.085
-306.64
-265.688
-209.694
-144.385
-76.0744
-10.9398
45.6389
89.6171
118.632
132.13
131.276
118.667
97.9014
73.0675
48.2171
26.8941
11.7651
4.39307
5.16492
13.3704
27.4069
45.0739
63.9116
81.5384
95.9446
105.71
110.126
109.212
103.64
94.5813
83.5052
71.959
61.3614
52.8333
47.0826
44.3519
44.4275
46.702
50.2756
54.0809
57.0134
58.0537
56.3696
51.3911
42.854
30.8125
15.6235
-2.09425
-21.5203
-41.7054
-61.6526
-80.3992
-97.0961
-111.078
-121.923
-129.489
-133.941
-135.742
-135.624
-134.53
-133.529
-133.716
-136.096
-141.478
-150.376
-162.943
-178.945
-197.765
-218.466
-239.873
-260.69
-279.622
-295.493
-307.347
-314.519
-316.674
-313.808
-306.221
-294.457
-279.241
-261.402
-241.797
-221.248
-200.489
-180.133
-160.646
-142.345
-125.399
-109.85
-95.6393
-82.6348
-70.6703
-59.5778
-49.2171
-39.4991
-30.3979
-21.9527
-14.2584
-7.44723
-1.6638
2.96225
6.34203
8.44816
9.3273
9.10288
7.96781
6.16824
3.98062
1.68531
-0.459929
-2.2432
-3.51571
-4.20129
-4.29729
-3.86739
-3.0276
-1.92764
-0.730154
0.409527
1.36078
2.03046
2.36989
2.37587
2.0861
1.57013
0.917465
0.224399
-0.418484
-0.936842
-1.27997
-1.4245
-1.37426
-1.15668
-0.816093
-0.404501
0.0299899
0.456626
0.876598
1.33712
1.94243
2.8585
4.30834
6.55562
9.87602
14.5183
20.6591
28.3574
37.5171
47.8645
58.9456
70.1491
80.752
89.9845
97.1072
101.488
102.673
100.43
94.7748
85.9578
74.4262
60.7611
45.6023
29.5717
13.208
-3.07582
-19.0066
-34.4331
-49.28
-63.4835
-76.9205
-89.3486
-100.367
-109.412
-115.783
-118.702
-117.393
-111.173
-99.5307
-82.201
-59.2023
-30.8474
2.28187
39.3902
79.5495
121.793
165.21
209.03
252.684
295.838
338.391
380.456
422.31
464.348
507.036
550.874
596.376
644.061
694.432
747.937
804.894
865.355
928.932
994.575
1060.38
1123.42
1179.77
1224.61
1252.6
1258.38
1237.3
1186.12
1103.67
991.361
853.383
696.602
530.062
364.199
209.806
76.9161
-26.281
-94.3359
-125.131
-120.092
-83.9951
-24.3894
49.2883
126.791
198.203
254.996
290.891
302.414
289.107
253.372
199.998
135.442
66.9656
1.73328
-54.0019
-95.5478
-120.185
-127.313
-118.331
-96.2952
-65.4104
-30.4283
3.95828
33.6565
55.5895
67.9473
70.2607
63.3059
48.8709
29.4263
7.75209
-13.4297
-31.771
-45.5303
-53.7025
-56.0422
-52.9906
-45.5274
-34.9762
-22.7961
-10.3874
1.06422
10.6895
17.9803
22.7789
25.2242
25.6709
24.5958
22.5089
19.88
17.0879
14.3951
11.9464
9.78586
7.88566
6.18007
4.59702
3.08299
1.61793
0.219555
-1.06201
-2.1566
-2.99013
-3.50111
-3.65432
-3.44957
-2.92431
-2.1501
-1.22379
-0.255201
0.646799
1.38752
1.89728
2.13836
2.1075
1.83378
1.3726
0.796799
0.18607
-0.383891
-0.851787
-1.18014
-1.36363
-1.43627
-1.47696
-1.61232
-2.01521
-2.8972
-4.49376
-7.04211
-10.7533
-15.7815
-22.1953
-29.9553
-38.9027
-48.7619
-59.1577
-69.6458
-79.7536
-89.0256
-97.0683
-103.588
-108.419
-111.538
-113.062
-113.235
-112.407
-110.996
-109.457
-108.25
-107.808
-108.519
-110.714
-114.659
-120.561
-128.567
-138.779
-151.252
-166.003
-183.01
-202.211
-223.503
-246.737
-271.706
-298.146
-325.715
-353.983
-382.405
-410.305
-436.844
-461.007
-481.592
-497.231
-506.434
-507.673
-499.497
-480.676
-450.359
-408.214
-354.558
-290.419
-217.544
-138.328
-55.662
27.2704
107.249
181.282
246.848
302.095
345.962
378.209
399.362
410.575
413.436
409.741
401.279
389.638
376.079
361.47
346.296
330.726
314.732
298.216
281.142
263.64
246.061
228.984
213.169
199.464
188.681
181.459
178.141
178.677
182.565
188.857
196.21
202.995
207.441
207.801
202.52
190.384
170.638
143.052
107.946
66.1535
18.9469
-32.071
-85.0984
-138.271
-189.792
-238.043
-281.663
-319.605
-351.14
-375.846
-393.552
-404.267
-408.101
-405.179
-395.579
-379.3
-356.284
-326.492
-290.056
-247.47
-199.806
-148.902
-97.4766
-49.0987
-8.00102
21.2879
34.4568
28.01
-0.137553
-50.1675
-120.06
-205.557
-300.424
-396.983
-486.875
-561.951
-615.176
-641.429
-638.099
-605.385
-546.275
-466.2
-372.408
-273.154
-176.785
-90.8606
-21.3878
27.7241
54.9464
61.1279
49.2213
23.7891
-9.6391
-45.2729
-77.7414
-102.67
-117.093
-119.664
-110.654
-91.7632
-65.7742
-36.1063
-6.33583
20.2608
41.0874
54.4922
59.8957
57.7779
49.5379
37.2547
23.3839
10.433
0.65432
-4.20792
-3.09101
4.30765
17.5491
35.5593
56.8035
79.5027
101.862
122.281
139.526
152.836
161.966
167.164
169.083
168.654
166.939
164.972
163.624
163.501
164.874
167.672
171.507
175.742
179.583
182.194
182.794
180.751
175.646
167.3
155.778
141.352
124.447
105.572
85.2572
63.9926
42.1905
20.1677
-1.84851
-23.6967
-45.2453
-66.3536
-86.8377
-106.449
-124.867
-141.716
-156.586
-169.076
-178.837
-185.607
-189.242
-189.733
-187.194
-181.846
-173.979
-163.908
-151.933
-138.306
-123.207
-106.746
-88.9741
-69.9151
-49.5994
-28.1005
-5.56527
17.7696
41.5764
65.4514
88.9448
111.597
132.979
152.724
170.55
186.267
199.77
211.013
219.992
226.707
231.151
233.3
233.122
230.593
225.734
218.637
209.496
198.615
186.408
173.375
160.061
147.003
134.676
123.439
113.499
104.888
97.4735
90.9775
85.0261
79.2048
73.1212
66.4622
59.0398
50.8185
41.9219
32.6172
23.2808
14.3497
6.26565
-0.581198
-5.90107
-9.53992
-11.4968
-11.9212
-11.0918
-9.3781
-7.19267
-4.93902
-2.96282
-1.51311
-0.718475
-0.58111
-0.989288
-1.74612
-2.61039
-3.34377
-3.75807
-3.75651
-3.36364
-2.7399
-2.1783
-2.08207
-2.92445
-5.19336
-9.3263
-15.6426
-24.2813
-35.1538
-47.9185
-61.9839
-76.5416
-90.6295
-103.218
-113.314
-120.065
-122.856
-121.393
-115.74
-106.335
-93.9596
-79.6697
-64.7032
-50.3642
-37.9013
-28.3935
-22.6525
-21.1552
-24.0088
-30.9542
-41.4044
-54.5131
-69.2636
-84.5678
-99.3617
-112.685
-123.735
-131.878
-136.631
-137.599
-134.389
-126.524
-113.379
-94.1675
-68.0127
-34.1115
8.01503
58.2134
115.388
177.261
240.274
299.699
349.967
385.235
400.084
390.301
353.582
290.068
202.589
96.5807
-20.3556
-139.189
-250.407
-345.051
-415.701
-457.277
-467.565
-447.391
-400.442
-332.761
-251.986
-166.447
-84.2307
-12.328
44.0316
81.7997
100.244
100.807
86.7199
62.4503
33.0515
3.5077
-21.8472
-39.7746
-48.3982
-47.2769
-37.2956
-20.403
0.753394
23.2421
44.2534
61.4486
73.2128
78.7915
78.3034
72.6425
63.2917
52.0801
40.921
31.564
25.3912
23.2782
25.53
31.8921
41.6288
53.6514
66.6764
79.3909
90.6051
99.374
105.076
107.445
106.552
102.752
96.597
88.7467
79.8705
70.5712
61.3314
52.4865
44.2262
36.6169
29.6395
23.2323
17.3307
11.898
6.94276
2.52056
-1.27674
-4.34178
-6.57749
-7.92306
-8.37566
-8.00521
-6.96006
-5.46345
-3.8011
-2.3012
-1.30857
-1.15527
-2.13015
-4.4502
-8.23632
-13.4962
-20.1162
-27.8629
-36.3958
-45.2889
-54.0596
-62.204
-69.2326
-74.7061
-78.2654
-79.6564
-78.7442
-75.5195
-70.0942
-62.6897
-53.6175
-43.2551
-32.0197
-20.3408
-8.63355
2.72321
13.4057
23.1576
31.7962
39.2123
45.365
50.2709
53.9911
56.6161
58.2515
59.0057
58.9802
58.2638
56.9308
55.0419
52.6466
49.7883
46.5079
42.8479
38.8564
34.5896
30.1138
25.5079
20.8639
16.2873
11.8948
7.81077
4.15999
1.05864
-1.39668
-3.14025
-4.14703
-4.43917
-4.08798
-3.21029
-1.95948
-0.511935
0.949455
2.25268
3.2529
3.84563
3.97552
3.63974
2.8859
1.80468
0.518329
-0.834
-2.1123
-3.19185
-3.97788
-4.4174
-4.50706
-4.29578
-3.88166
-3.40284
-3.02284
-2.91172
-3.22512
-4.0836
-5.55511
-7.64309
-10.2823
-13.3429
-16.6437
-19.9713
-23.1043
-25.8373
-28.0025
-29.4851
-30.23
-30.2409
-29.5711
-28.3098
-26.5668
-24.4575
-22.0931
-19.5747
-16.9926
-14.4293
-11.9638
-9.67497
-7.64305
-5.9477
-4.66321
-3.85218
-3.55941
-3.80764
-4.59655
-5.90525
-7.69768
-9.9293
-12.553
-15.522
-18.7858
-22.2785
-25.8943
-29.4509
-32.6404
-34.9749
-35.7375
-33.9559
-28.4202
-17.7635
-0.62161
24.1314
57.0894
98.0043
145.521
197.026
248.666
295.588
332.394
353.766
355.201
333.719
288.447
220.95
135.263
37.5688
-64.4144
-162.29
-247.94
-314.468
-356.983
-373.133
-363.314
-330.537
-279.979
-218.296
-152.788
-90.5334
-37.5987
1.5786
24.5714
31.0776
22.7718
2.93246
-24.0939
-53.5129
-80.7048
-101.772
-113.954
-115.86
-107.524
-90.2693
-66.4297
-38.9692
-11.0548
14.3582
34.8795
48.937
55.9046
56.1021
50.6762
41.3886
30.3459
19.7109
11.4319
7.0257
7.43397
12.9656
23.3238
37.705
54.9492
73.7172
92.6679
110.613
126.632
140.135
150.876
158.918
164.554
168.214
170.364
171.403
171.593
171.008
169.526
166.844
162.535
156.114
147.132
135.254
120.335
102.474
82.0325
59.6276
36.0872
12.3825
-10.4607
-31.4564
-49.7505
-64.6981
-75.9165
-83.3099
-87.0635
-87.6079
-85.5611
-81.6549
-76.6553
-71.2872
-66.1697
-61.7708
-58.3819
-56.1145
-54.9166
-54.6037
-54.8995
-55.4804
-56.0181
-56.2148
-55.8305
-54.6985
-52.7311
-49.9168
-46.3109
-42.0221
-37.1977
-32.0091
-26.639
-21.2696
-16.0739
-11.2074
-6.80128
-2.95612
0.263376
2.8324
4.76809
6.12884
7.01045
7.53877
7.85923
8.12373
8.47639
9.03931
9.90036
11.1042
12.6482
14.4828
16.5178
18.6324
20.6879
22.5425
24.0648
25.1465
25.7111
25.7186
25.1655
24.0814
22.5206
20.5519
18.2478
15.673
12.8764
9.8849
6.70266
3.31402
-0.308849
-4.19473
-8.35997
-12.7946
-17.45
-22.2299
-26.9874
-31.5279
-35.6202
-39.0134
-41.4599
-42.7415
-42.6947
-41.2335
-38.3653
-34.1977
-28.9351
-22.8643
-16.3301
-9.70422
-3.35031
2.41055
7.32974
11.2525
14.1286
16.0102
17.0378
17.4166
17.3849
17.181
17.0118
17.0284
17.3105
17.864
18.6282
19.4946
20.3303
21.0053
21.4159
21.5033
21.2621
20.738
20.0167
19.204
18.4034
17.6937
17.1122
16.6467
16.2374
15.7894
15.1944
14.357
13.2253
11.8217
10.2731
8.84128
7.95294
8.22621
10.4886
15.7741
25.2849
40.3003
62.0237
91.3644
128.675
173.476
224.232
278.227
331.605
379.611
417.031
438.784
440.608
419.715
375.327
308.981
224.544
127.918
26.4615
-71.8068
-159.1
-228.747
-275.938
-298.233
-295.785
-271.229
-229.293
-176.159
-118.697
-63.6481
-16.8727
17.244
36.176
39.3911
28.2412
5.63904
-24.4205
-57.4234
-88.9087
-114.98
-132.697
-140.321
-137.384
-124.609
-103.694
-77.0064
-47.2378
-17.0586
11.1798
35.667
55.2618
69.5226
78.6488
83.3527
84.6872
83.8573
82.0422
80.249
79.2137
79.3541
80.7746
83.3127
86.6153
90.2279
93.6831
96.5752
98.6108
99.6328
99.6161
98.6413
96.8515
94.4044
91.4269
87.9828
84.0589
79.5713
74.3906
68.3811
61.4453
53.5658
44.8358
35.4724
25.8094
16.2699
7.32192
-0.576385
-7.03458
-11.7823
-14.7088
-15.8827
-15.5509
-14.1135
-12.0808
-10.0158
-8.4709
-7.92712
-8.74258
-11.1172
-15.077
-20.4787
-27.033
-34.3428
-41.9494
-49.3827
-56.2066
-62.0565
-66.6653
-69.8753
-71.6382
-72.0031
-71.0975
-69.1041
-66.2371
-62.7209
-58.7748
-54.602
-50.3854
-46.2876
-42.4534
-39.013
-36.0835
-33.7677
-32.1497
-31.2872
-31.2024
-31.8736
-33.229
-35.1452
-37.451
-39.9372
-42.3724
-44.5213
-46.1648
-47.1187
-47.2478
-46.4751
-44.7841
-42.2153
-38.858
-34.8385
-30.3083
-25.4317
-20.3776
-15.3121
-10.3954
-5.77987
-1.608
1.98936
4.89745
7.02393
8.30715
8.72498
8.30253
7.11698
5.29757
3.01993
0.494445
-2.0506
-4.38908
-6.31801
-7.67667
-8.36133
-8.33366
-7.6222
-6.31671
-4.55684
-2.51654
-0.38643
1.64408
3.4033
4.75108
5.5893
5.86837
5.58968
4.80384
3.60512
2.12229
0.506705
-1.08169
-2.48925
-3.58332
-4.26527
-4.48052
-4.22423
-3.54165
-2.5227
-1.29094
0.0119155
1.24413
2.28238
3.03787
3.46765
3.57962
3.43016
3.11515
2.75561
2.48061
2.41004
2.64
3.23289
4.2134
5.57031
7.2633
9.2329
11.4114
13.7326
16.1389
18.5846
21.0346
23.4613
25.8377
28.1312
30.2977
32.2787
34.0008
35.3784
36.3205
36.7385
36.5575
35.7278
34.2412
32.1501
29.5949
26.8399
24.3169
22.6723
22.8067
25.8904
33.3329
46.6882
67.4789
96.9428
135.72
183.525
238.87
298.898
359.414
415.124
460.115
488.51
495.237
476.781
431.806
361.545
269.864
162.987
48.8971
-63.5086
-165.396
-248.979
-308.371
-340.205
-343.933
-321.784
-278.395
-220.178
-154.501
-88.8174
-29.8263
17.2093
48.932
64.0969
63.5105
49.7333
26.5991
-1.37268
-29.5909
-53.9546
-71.2987
-79.6791
-78.4776
-68.3307
-50.9099
-28.594
-4.08839
19.9576
41.2847
58.2718
70.0768
76.661
78.7089
77.4624
74.5014
71.5029
70.012
71.2519
75.9939
84.4951
96.5077
111.35
128.021
145.351
162.148
177.338
190.074
199.81
206.317
209.671
210.192
208.364
204.736
199.828
194.049
187.638
180.64
172.916
164.189
154.11
142.35
128.684
113.068
95.6887
76.9822
57.611
38.4087
20.294
4.16939
-9.1846
-19.2038
-25.6107
-28.4517
-28.0959
-25.1956
-20.6139
-15.3281
-10.3217
-6.47851
-4.4905
-4.79195
-7.52558
-12.5441
-19.4454
-27.6354
-36.4097
-45.0427
-52.8729
-59.3744
-64.2067
-67.237
-68.5369
-68.3523
-67.0557
-65.0863
-62.8874
-60.849
-59.2631
-58.2957
-57.9783
-58.2177
-58.8214
-59.5333
-60.0748
-60.1843
-59.6506
-58.3369
-56.1928
-53.2546
-49.635
-45.5051
-41.071
-36.549
-32.1427
-28.0228
-24.3135
-21.0848
-18.3515
-16.0779
-14.188
-12.5786
-11.1344
-9.74375
-8.31261
-6.77576
-5.10422
-3.30796
-1.43367
0.441792
2.22167
3.8017
5.08315
5.98494
6.4533
6.46788
6.04373
5.22921
4.10016
2.75154
1.28765
-0.187561
-1.57895
-2.80647
-3.80891
-4.54486
-4.99162
-5.14249
-5.00347
-4.5903
-3.92631
-3.04161
-1.97343
-0.767217
0.522429
1.83166
3.08899
4.21894
5.14758
5.8095
6.15507
6.15701
5.81502
5.15765
4.24096
3.14395
1.96132
0.794325
-0.258947
-1.11287
-1.70175
-1.9846
-1.94657
-1.59683
-0.963443
-0.0859821
0.992732
2.23424
3.61001
5.10395
6.71109
8.43275
10.2687
12.2079
14.2184
16.2406
18.1825
19.9214
21.3102
22.19
22.4074
21.8341
20.3869
18.0451
14.8627
10.9732
6.58601
1.97464
-2.54244
-6.62392
-9.92658
-12.1189
-12.8812
-11.8888
-8.77644
-3.09058
5.75905
18.5293
36.1318
59.5571
89.7212
127.236
172.127
223.546
279.54
336.949
391.481
438.013
471.088
485.573
477.384
444.159
385.776
304.611
205.481
95.2588
-17.8016
-124.942
-217.864
-289.653
-335.542
-353.402
-343.925
-310.456
-258.526
-195.137
-127.915
-64.2235
-10.3611
29.0698
51.5549
56.7871
46.5176
24.174
-5.69037
-38.0374
-67.9902
-91.4056
-105.309
-108.151
-99.8678
-81.7536
-56.1822
-26.2167
4.82999
33.8274
58.2008
76.2048
87.0718
91.0288
89.1915
83.3593
75.7445
68.673
64.2952
64.3401
69.937
81.52
98.8193
120.932
146.461
173.69
200.787
225.995
247.801
265.059
277.065
283.573
284.763
281.172
273.59
262.942
250.176
236.156
221.578
206.918
192.409
178.044
163.62
148.787
133.124
116.219
97.7362
77.4829
55.4499
31.8304
7.01433
-18.4427
-43.8696
-68.543
-91.7568
-112.887
-131.45
-147.136
-159.834
-169.626
-176.766
-181.645
-184.736
-186.551
-187.582
-188.259
-188.917
-189.772
-190.921
-192.343
-193.921
-195.469
-196.761
-197.565
-197.671
-196.915
-195.195
-192.481
-188.811
-184.293
-179.083
-173.38
-167.398
-161.351
-155.432
-149.791
-144.521
-139.639
-135.08
-130.695
-126.256
-121.478
-116.046
-109.652
-102.041
-93.0523
-82.6553
-70.9736
-58.2909
-45.0363
-31.7489
-19.025
-7.45231
2.46035
10.3496
16.0516
19.6358
21.4134
21.9176
21.8564
22.0422
23.3055
26.4013
31.92
40.2126
51.3406
65.057
80.8218
97.8499
115.188
131.812
146.725
159.062
168.168
173.659
175.445
173.725
168.948
161.754
152.892
143.14
133.22
123.731
115.107
107.585
101.212
95.8663
91.2972
87.178
83.1605
78.9261
74.2274
68.9156
62.9513
56.3997
49.4127
42.2005
34.9983
28.0336
21.496
15.5164
10.1544
5.39631
1.16373
-2.67064
-6.26109
-9.76457
-13.317
-17.0131
-20.8921
-24.931
-29.0458
-33.0999
-36.9199
-40.3145
-43.0972
-45.1076
-46.2314
-46.4152
-45.6761
-44.1035
-41.8546
-39.1418
-36.2148
-33.3386
-30.7686
-28.728
-27.387
-26.8487
-27.1421
-28.2227
-29.9808
-32.256
-34.8527
-37.5543
-40.128
-42.3175
-43.8187
-44.2394
-43.0495
-39.5328
-32.7608
-21.6069
-4.82596
18.7916
50.1889
89.7583
137.044
190.49
247.308
303.508
354.148
393.789
417.116
419.655
398.456
352.661
283.82
195.914
95.0524
-11.1232
-114.251
-206.171
-279.827
-330.03
-353.986
-351.525
-325.009
-278.954
-219.416
-153.237
-87.2544
-27.5639
21.0698
55.6015
74.8613
79.4803
71.6156
54.5278
32.0743
8.18996
-13.5843
-30.4708
-40.6901
-43.5476
-39.3781
-29.3699
-15.3049
0.744779
16.7203
30.8428
41.8144
48.935
52.1311
51.9004
49.1912
45.2353
41.362
38.817
38.608
41.3932
47.421
56.5247
68.1659
81.519
95.5808
109.291
121.651
131.815
139.166
143.349
144.269
142.063
137.047
129.651
120.354
109.614
97.8297
85.2979
72.2048
58.6257
44.5408
29.8617
14.4625
-1.78587
-18.9843
-37.1782
-56.3372
-76.3436
-96.9891
-117.982
-138.959
-159.514
-179.215
-197.641
-214.407
-229.193
-241.763
-251.976
-259.797
-265.286
-268.589
-269.915
-269.508
-267.622
-264.489
-260.292
-255.155
-249.126
-242.185
-234.253
-225.218
-214.962
-203.391
-190.463
-176.21
-160.745
-144.259
-127.004
-109.266
-91.3325
-73.4578
-55.8402
-38.606
-21.8089
-5.44303
10.5324
26.1626
41.4659
56.4071
70.8814
84.7108
97.6542
109.429
119.74
128.315
134.935
139.465
141.866
142.206
140.656
137.475
132.985
127.55
121.542
115.314
109.177
103.38
98.1017
93.4412
89.4247
86.0128
83.114
80.6009
78.3271
76.144
73.9143
71.5236
68.8873
65.9548
62.7084
59.1602
55.3453
51.3138
47.1226
42.8275
38.4786
34.1178
29.7796
25.4947
21.2943
17.2151
13.3022
9.61048
6.20247
3.14385
0.49656
-1.68917
-3.38264
-4.57917
-5.30395
-5.61271
-5.58875
-5.33672
-4.97381
-4.61933
-4.38384
-4.35905
-4.60926
-5.16545
-6.02235
-7.13902
-8.44273
-9.83622
-11.2074
-12.441
-13.4308
-14.0922
-14.3722
-14.2582
-13.783
-13.0254
-12.1074
-11.1857
-10.4394
-10.0547
-10.2064
-11.0406
-12.6574
-15.0993
-18.3433
-22.3014
-26.8266
-31.727
-36.7843
-41.7747
-46.4898
-50.751
-54.4136
-57.3553
-59.4465
-60.502
-60.2199
-58.1167
-53.4778
-45.3408
-32.5381
-13.8121
11.9878
45.6377
87.2354
135.91
189.615
245.063
297.862
342.865
374.714
388.516
380.556
348.935
294.01
218.577
127.721
28.3572
-71.4893
-163.569
-240.344
-295.838
-326.297
-330.572
-310.173
-269.01
-212.854
-148.605
-83.4542
-24.0705
24.1097
57.398
74.1272
74.6675
61.2008
37.3004
7.38296
-23.8901
-52.1851
-73.9744
-86.8714
-89.7947
-82.9578
-67.7023
-46.2103
-21.1445
4.73448
28.921
49.4493
65.0807
75.3799
80.6824
81.9693
80.674
78.4522
76.9474
77.5811
81.3918
88.9349
100.252
114.905
132.062
150.626
169.379
187.127
202.827
215.686
225.218
231.26
233.95
233.666
230.948
226.403
220.614
214.058
207.047
199.698
191.931
183.5
174.051
163.199
150.608
136.074
119.589
101.373
81.8826
61.7748
41.8458
22.9425
5.86409
-8.73303
-20.4146
-29.0196
-34.6763
-37.7817
-38.9473
-38.9193
-38.4845
-38.3741
-39.1791
-41.2863
-44.8428
-49.7526
-55.7025
-62.2142
-68.7128
-74.6039
-79.3478
-82.5223
-83.8683
-83.3121
-80.9654
-77.1024
-72.1219
-66.4956
-60.7144
-55.2351
-50.4364
-46.5874
-43.8304
-42.1799
-41.5355
-41.7054
-42.4374
-43.4529
-44.4785
-45.273
-45.6471
-45.4738
-44.6909
-43.2955
-41.3334
-38.8851
-36.0513
-32.9388
-29.6504
-26.2774
-22.896
-19.568
-16.343
-13.2623
-10.3629
-7.68088
-5.25231
-3.11301
-1.29606
0.171865
1.27467
2.0107
2.39541
2.46235
2.26206
1.85886
1.32586
0.738789
0.169283
-0.321509
-0.688163
-0.904435
-0.964486
-0.881746
-0.685603
-0.416411
-0.119525
0.160844
0.387136
0.532667
0.58411
0.542087
0.419963
0.241186
0.0356955
-0.164054
-0.326897
-0.426152
-0.441926
-0.362427
-0.18435
0.0874752
0.440935
0.85774
1.31463
1.78454
2.23784
2.64349
2.97047
3.18943
3.27467
3.20651
2.97396
2.57739
2.03108
1.36509
0.626009
-0.123759
-0.808534
-1.34388
-1.64286
-1.62356
-1.21717
-0.375528
0.922558
2.66716
4.81567
7.29398
10.0004
12.8121
15.5931
18.2047
20.5157
22.4139
23.8159
24.6762
24.9926
24.8094
24.2175
23.3532
22.3985
21.5861
21.2124
21.6599
23.4275
27.1609
33.6718
43.9296
59.0059
79.9587
107.65
142.509
184.265
231.712
282.54
333.321
379.671
416.611
439.111
442.737
424.332
382.596
318.486
235.332
138.646
35.6224
-65.609
-156.881
-230.92
-282.175
-307.445
-306.208
-280.628
-235.23
-176.309
-111.141
-47.1202
9.08363
52.2287
78.9982
88.2351
80.9058
59.8152
29.1253
-6.24833
-41.2794
-71.4327
-93.1542
-104.201
-103.786
-92.5305
-72.2616
-45.6745
-15.9284
13.7779
40.5937
62.3258
77.6391
86.1337
88.3021
85.382
79.1333
71.5728
64.7036
60.2713
59.5737
63.3427
71.7049
84.2173
99.9683
117.724
136.099
153.728
169.418
182.263
191.715
197.601
200.094
199.642
196.872
192.48
187.118
181.306
175.365
169.385
163.229
156.573
148.977
139.959
129.089
116.064
100.762
83.2768
63.9151
43.1671
21.6553
0.0688828
-20.9073
-40.6578
-58.6883
-74.659
-88.3967
-99.8857
-109.242
-116.676
-122.447
-126.82
-130.032
-132.265
-133.633
-134.187
-133.925
-132.817
-130.828
-127.946
-124.202
-119.68
-114.521
-108.916
-103.09
-97.2791
-91.7062
-86.5577
-81.9619
-77.9755
-74.5773
-71.6715
-69.0983
-66.6535
-64.1118
-61.2531
-57.8885
-53.8825
-49.1697
-43.7631
-37.7539
-31.3032
-24.6248
-17.9639
-11.5713
-5.67879
-0.475908
3.90702
7.40965
10.0442
11.8907
13.0843
13.7994
14.2285
14.5623
14.9706
15.587
16.4983
17.7396
19.2946
21.1014
23.0614
25.0517
26.9378
28.5873
29.8807
30.7214
31.0416
30.8055
30.0095
28.6796
26.8673
24.6437
22.0936
19.3092
16.3844
13.4104
10.4713
7.64108
4.98209
2.54336
0.360596
-1.5433
-3.15688
-4.47816
-5.5121
-6.26793
-6.75654
-6.98842
-6.97224
-6.71456
-6.22048
-5.4953
-4.54687
-3.3883
-2.04059
-0.534684
1.08738
2.77272
4.45933
6.07933
7.56346
8.84637
9.87191
10.5978
10.9991
11.069
10.8189
10.2752
9.475
8.46139
7.27779
5.96331
4.54885
3.05473
1.48972
-0.148335
-1.87054
-3.6938
-5.63681
-7.71576
-9.93997
-12.3083
-14.8066
-17.4063
-20.0655
-22.7308
-25.342
-27.8371
-30.1583
-32.2578
-34.1019
-35.6735
-36.9707
-38.0027
-38.7811
-39.3057
-39.5454
-39.4108
-38.7194
-37.1546
-34.222
-29.214
-21.1961
-9.03383
8.52239
32.681
64.3824
104.02
151.149
204.239
260.537
316.1
366.035
404.942
427.536
429.344
407.402
360.818
291.1
202.2
100.222
-7.15672
-111.491
-204.494
-278.954
-329.525
-353.286
-350.006
-322.079
-274.157
-212.535
-144.375
-76.8739
-16.4744
31.7759
64.6636
80.9989
81.5562
68.7903
46.3821
18.6837
-9.86308
-35.2594
-54.3766
-65.2333
-67.1057
-60.4724
-46.8186
-28.3363
-7.56961
12.9475
31.0128
45.0035
54.0247
57.9505
57.3644
53.4148
47.613
41.6052
36.947
34.9114
36.3475
41.6051
50.527
62.5045
76.5822
91.5962
106.324
119.625
130.561
138.472
143.02
144.178
142.19
137.502
130.678
122.313
112.962
103.08
93.0003
82.9239
72.9447
63.0836
53.3333
43.7007
34.2406
25.0745
16.3915
8.43304
1.46367
-4.26577
-8.55638
-11.2943
-12.473
-12.2024
-10.7014
-8.27766
-5.29536
-2.13683
0.837181
3.32329
5.10314
6.05971
6.18102
5.5515
4.33297
2.7382
1.00094
-0.6538
-2.03554
-3.00752
-3.4975
-3.49967
-3.06836
-2.30504
-1.34084
-0.317336
0.631984
1.39733
1.90365
2.1162
2.04051
1.71745
1.21428
0.613497
0.00089514
-0.545496
-0.96433
-1.21682
-1.28921
-1.19176
-0.954949
-0.623479
-0.249136
0.116452
0.428275
0.652886
0.771368
0.780158
0.689852
0.522346
0.306812
0.0750786
-0.143036
-0.323948
-0.45369
-0.53014
-0.563874
-0.577544
-0.603855
-0.682426
-0.856045
-1.16702
-1.65438
-2.35271
-3.29281
-4.50415
-6.01843
-7.87298
-10.1126
-12.7884
-15.9537
-19.6554
-23.9233
-28.7585
-34.1222
-39.9284
-46.0419
-52.2823
-58.4354
-64.2703
-69.5601
-74.1044
-77.7502
-80.4083
-82.0621
-82.7693
-82.6536
-81.8899
-80.6832
-79.2442
-77.7654
-76.4007
-75.2491
-74.3475
-73.6697
-73.1348
-72.6209
-71.984
-71.0784
-69.7766
-67.9851
-65.654
-62.7797
-59.4003
-55.5856
-51.4229
-47.0039
-42.4123
-37.7155
-32.9611
-28.1772
-23.3765
-18.5634
-13.7431
-8.93122
-4.16211
0.504338
4.98023
9.15181
12.8867
16.0457
18.4985
20.1398
20.9059
20.7877
19.8392
18.1804
15.9952
13.5232
11.0481
8.88232
7.34972
6.7665
7.42131
9.55538
13.3445
18.8862
26.1955
35.215
45.8439
57.9865
71.6192
86.8658
104.063
123.796
146.873
174.22
206.692
244.803
288.416
336.456
386.705
435.76
479.197
511.95
528.89
525.515
498.663
447.117
372.007
276.915
167.661
51.7623
-62.3395
-166.212
-252.379
-315.159
-351.282
-360.211
-344.118
-307.541
-256.768
-199.037
-141.674
-91.2564
-52.9346
-29.9623
-23.4933
-32.6449
-54.8007
-86.0934
-121.991
-157.901
-189.716
-214.232
-229.406
-234.433
-229.654
-216.333
-196.345
-171.833
-144.879
-117.24
-90.174
-64.3663
-39.9529
-16.6275
6.19721
29.2047
52.995
77.938
104.078
131.097
158.342
184.897
209.697
231.658
249.797
263.343
271.806
275.014
273.105
266.483
255.757
241.654
224.938
206.338
186.492
165.92
145.02
124.085
103.336
82.967
63.1819
44.2238
26.39
10.0262
-4.49466
-16.8098
-26.6101
-33.6857
-37.9634
-39.5322
-38.6507
-35.7352
-31.3291
-26.0568
-20.5672
-15.4719
-11.2865
-8.37965
-6.93726
-6.94469
-8.19078
-10.293
-12.7419
-14.9592
-16.3647
-16.442
-14.7968
-11.1998
-5.61037
1.82367
10.7869
20.8364
31.4538
42.1038
52.2886
61.5938
69.7186
76.4868
81.8382
85.8042
88.4707
89.9371
90.28
89.5273
87.6498
84.5708
80.1928
74.4352
67.2769
58.7934
49.182
38.7684
27.993
17.3776
7.47599
-1.18346
-8.15568
-13.129
-15.9604
-16.6906
-15.5378
-12.8708
-9.16551
-4.9505
-0.749185
2.97454
5.86059
7.68224
8.35839
7.94809
6.6296
4.6674
2.37228
0.0598265
-1.98759
-3.55103
-4.49456
-4.77278
-4.42657
-3.56889
-2.36311
-0.997567
0.340314
1.48708
2.32085
2.77197
2.82598
2.5195
1.93015
1.16232
0.330984
-0.454637
-1.10578
-1.56612
-1.82011
-1.89736
-1.87247
-1.86044
-2.00733
-2.47681
-3.43326
-5.02296
-7.35521
-10.4858
-14.405
-19.0315
-24.2141
-29.7402
-35.3506
-40.7589
-45.674
-49.8222
-52.9678
-54.9301
-55.5961
-54.9268
-52.9587
-49.7995
-45.6193
-40.6381
-35.1109
-29.3107
-23.5117
-17.9717
-12.9164
-8.5249
-4.91811
-2.151
-0.209285
0.988311
1.58219
1.75841
1.7305
1.71806
1.92413
2.51349
3.59444
5.20587
7.31145
9.8017
12.504
15.1997
17.6463
19.6028
20.8541
21.2327
20.6348
19.0284
16.4551
13.0252
8.91112
4.34259
-0.391353
-4.9284
-8.80597
-11.4234
-12.002
-9.55702
-2.90291
9.28868
28.3591
55.4554
91.2579
135.674
187.556
244.503
302.825
357.702
403.582
434.756
446.085
433.744
395.88
333.064
248.46
147.643
38.0956
-71.5652
-172.538
-256.826
-318.133
-352.556
-358.974
-339.095
-297.165
-239.384
-173.12
-106.011
-45.1025
3.91031
37.2206
53.1917
52.3612
37.1856
11.5782
-19.6887
-51.6332
-79.6811
-100.179
-110.75
-110.461
-99.7953
-80.464
-55.0739
-26.7221
1.4337
26.5743
46.5411
60.0491
66.7746
67.3192
63.0627
55.9351
48.1388
41.8601
39.0043
40.9839
48.5804
61.8891
80.3484
102.841
127.85
153.651
178.504
200.84
219.407
233.363
242.328
246.363
245.913
241.712
234.656
225.686
215.667
205.296
195.037
185.1
175.446
165.833
155.881
145.153
133.242
119.842
104.814
88.2148
70.3044
51.5265
32.4612
13.7634
-3.90788
-19.96
-33.9267
-45.512
-54.6132
-61.3215
-65.9004
-68.7477
-70.3445
-71.1991
-71.7923
-72.5295
-73.7053
-75.4832
-77.8908
-80.8302
-84.1015
-87.4341
-90.5229
-93.0644
-94.7892
-95.4877
-95.0273
-93.3602
-90.5225
-86.6249
-81.8378
-76.3724
-70.4594
-64.3294
-58.1951
-52.2377
-46.5975
-41.3704
-36.6078
-32.321
-28.4877
-25.0607
-21.9774
-19.1687
-16.5681
-14.119
-11.7809
-9.5327
-7.37457
-5.32647
-3.4249
-1.71732
-0.255263
0.913428
1.7521
2.24182
2.38593
2.21206
1.7712
1.13381
0.383509
-0.391042
-1.10493
-1.6854
-2.07881
-2.25529
-2.21055
-1.96479
-1.55878
-1.04784
-0.49458
0.0388477
0.497845
0.841134
1.04458
1.10276
1.02815
0.848178
0.600581
0.327622
0.0700801
-0.138201
-0.27443
-0.329121
-0.306244
-0.221388
-0.0983402
0.0352884
0.152662
0.231849
0.258906
0.229547
0.14925
0.0318695
-0.102958
-0.233181
-0.337935
-0.400804
-0.41224
-0.370787
-0.282915
-0.161541
-0.0234785
0.113736
0.235071
0.330714
0.397756
0.440516
0.469478
0.49906
0.544759
0.620356
0.735896
0.896981
1.10565
1.36266
1.67074
2.03772
2.47881
3.01688
3.68029
4.49823
5.4941
6.67824
8.04135
9.55013
11.1465
12.7508
14.2691
15.6036
16.6646
17.3825
17.7176
17.6663
17.2623
16.5729
15.6913
14.7274
13.7999
13.0349
12.5755
12.6046
13.3822
15.2932
18.8969
24.9626
34.4734
48.5786
68.4772
95.2277
129.494
171.256
219.539
272.219
325.966
376.386
418.365
446.606
456.301
443.833
407.408
347.498
267.015
171.164
66.9832
-37.3807
-133.569
-213.951
-272.491
-305.41
-311.577
-292.566
-252.387
-196.939
-133.258
-68.6692
-9.95119
37.3869
69.6283
85.1244
84.305
69.4417
44.2131
13.1391
-19.0333
-47.915
-69.961
-82.8065
-85.4275
-78.1213
-62.3281
-40.3314
-14.887
11.1668
35.267
55.4108
70.3403
79.6148
83.5736
83.2064
79.9565
75.4891
71.4569
69.2923
70.0482
74.3039
82.1374
93.1638
106.625
121.514
136.718
151.16
163.911
174.284
181.88
186.596
188.593
188.242
186.044
182.54
178.234
173.516
168.616
163.579
158.269
152.4
145.593
137.447
127.616
115.881
102.209
86.7792
69.9875
52.4121
34.7564
17.7702
2.1647
-11.4692
-22.7269
-31.4315
-37.6455
-41.6528
-43.9125
-44.9944
-45.5019
-45.9968
-46.9323
-48.6045
-51.1266
-54.4275
-58.2744
-62.3139
-66.126
-69.2835
-71.4092
-72.2234
-71.5782
-69.4728
-66.0509
-61.5807
-56.4204
-50.975
-45.6492
-40.8033
-36.7164
-33.5615
-31.3946
-30.1581
-29.6971
-29.7861
-30.1611
-30.554
-30.7242
-30.4833
-29.7118
-28.3647
-26.467
-24.1014
-21.3889
-18.4675
-15.4718
-12.516
-9.68315
-7.02191
-4.5491
-2.25787
-0.12878
1.85863
3.71612
5.44043
7.01153
8.3951
9.54875
10.4301
11.0051
11.2549
11.1792
10.797
10.1425
9.2594
8.194
6.98819
5.67506
4.27744
2.80995
1.28402
-0.285131
-1.87139
-3.43228
-4.90675
-6.21715
-7.27576
-7.99497
-8.29984
-8.14073
-7.50404
-6.41867
-4.95694
-3.22936
-1.37365
0.460455
2.12839
3.50756
4.51118
5.09732
5.27195
5.08556
4.62403
3.99503
3.31179
2.67661
2.16622
1.82112
1.64031
1.58205
1.57047
1.50714
1.28589
0.80897
0.00260274
-1.17013
-2.70036
-4.52955
-6.5512
-8.61798
-10.5539
-12.1702
-13.2839
-13.7366
-13.4124
-12.2526
-10.2656
-7.53051
-4.19508
-0.465495
3.40958
7.16053
10.5217
13.2574
15.1862
16.2
16.2771
15.4851
13.9747
11.9646
9.71828
7.51759
5.63577
4.31691
3.76657
4.15924
5.6655
8.49833
12.973
19.5681
28.9699
42.0779
59.9487
83.6636
114.117
151.741
196.21
246.179
299.119
351.327
398.13
434.312
454.708
454.906
431.941
384.87
315.128
226.585
125.276
18.8297
-84.3348
-175.945
-248.81
-297.634
-319.595
-314.623
-285.336
-236.663
-175.201
-108.402
-43.6974
12.3309
54.6292
80.1314
87.9536
79.3199
57.2459
26.0369
-9.32537
-43.8239
-72.9975
-93.414
-102.98
-101.062
-88.425
-67.0106
-39.5918
-9.36456
20.4759
47.1188
68.4399
83.194
91.0831
92.7048
89.3961
83.002
75.6015
69.2297
65.6278
66.0497
71.1441
80.9199
94.7913
111.693
130.241
148.923
166.287
181.101
192.482
199.959
203.491
203.414
200.359
195.126
188.556
181.396
174.201
167.261
160.581
153.904
146.777
138.649
128.984
117.367
103.599
87.7469
70.155
51.4155
32.2967
13.6482
-3.70558
-19.065
-31.9352
-42.0752
-49.5105
-54.5107
-57.5364
-59.1662
-60.0135
-60.6474
-61.5266
-62.9542
-65.0582
-67.7979
-70.9914
-74.3603
-77.5821
-80.3428
-82.3827
-83.5287
-83.7122
-82.9688
-81.425
-79.2731
-76.7394
-74.0523
-71.4122
-68.9693
-66.8097
-64.9518
-63.3505
-61.91
-60.5006
-58.9782
-57.2031
-55.0577
-52.4587
-49.3668
-45.789
-41.7783
-37.4272
-32.859
-28.2155
-23.6442
-19.285
-15.2578
-11.6533
-8.52561
-5.89001
-3.72354
-1.97022
-0.549437
0.63321
1.67357
2.65671
3.64624
4.67637
5.74797
6.82905
7.85957
8.76018
9.44356
9.82715
9.84544
9.46039
8.6687
7.5049
6.03998
4.37552
2.63414
0.947162
-0.55905
-1.77656
-2.62763
-3.07338
-3.11843
-2.81073
-2.23666
-1.51174
-0.767933
-0.138972
0.254696
0.319547
-0.000339802
-0.716766
-1.79579
-3.16113
-4.70207
-6.2851
-7.76761
-9.01243
-9.90122
-10.3455
-10.2943
-9.7373
-8.70451
-7.26149
-5.50223
-3.53995
-1.49731
0.503165
2.3475
3.93717
5.19413
6.064
6.51766
6.55125
6.1851
5.46158
4.44204
3.20307
1.83198
0.421689
-0.934697
-2.14947
-3.14554
-3.86091
-4.252
-4.29536
-3.98775
-3.3444
-2.39577
-1.18319
0.246088
1.84367
3.56397
5.36674
7.21779
9.08805
10.9511
12.7802
14.5451
16.2103
17.7341
19.0705
20.1727
20.9981
21.5154
21.7133
21.6113
21.2745
20.8344
20.5171
20.6791
21.8478
24.7594
30.3782
39.8828
54.5962
75.848
104.762
141.981
187.373
239.75
296.693
354.521
408.47
453.082
482.784
492.595
478.849
439.83
376.199
291.142
190.181
80.6785
-28.9295
-130.052
-214.901
-277.355
-313.614
-322.573
-305.851
-267.51
-213.484
-150.825
-86.8518
-28.3214
19.282
52.256
68.9432
69.7322
56.8174
33.7645
4.9531
-25.028
-51.9521
-72.4276
-84.2225
-86.4142
-79.3629
-64.5285
-44.1691
-20.9691
2.34714
23.3691
40.2766
52.0134
58.3461
59.8103
57.5648
53.1791
48.3906
44.8636
43.9825
46.7015
53.4646
64.1987
78.3727
95.1076
113.318
131.863
149.682
165.909
179.943
191.47
200.455
207.084
211.691
214.673
216.398
217.138
217.017
215.986
213.832
210.213
204.709
196.898
186.429
173.098
156.905
138.09
117.148
94.8014
71.9528
49.6086
28.7852
10.4105
-4.76962
-16.2667
-23.8984
-27.803
-28.4191
-26.432
-22.6936
-18.1269
-13.6262
-9.96445
-7.72043
-7.23121
-8.57589
-11.5898
-15.906
-21.017
-26.3481
-31.3326
-35.48
-38.4297
-39.984
-40.1199
-38.9782
-36.8338
-34.052
-31.0378
-28.1827
-25.8188
-24.1816
-23.3882
-23.4313
-24.1881
-25.4431
-26.9205
-28.3218
-29.3633
-29.8095
-29.4991
-28.3594
-26.4105
-23.7582
-20.5769
-17.0866
-13.5261
-10.1259
-7.08376
-4.54708
-2.60127
-1.26715
-0.505918
-0.230543
-0.321664
-0.64536
-1.07036
-1.48256
-1.79514
-1.9537
-1.93618
-1.74848
-1.41688
-0.97902
-0.474839
0.0610101
0.604248
1.14306
1.67715
2.2143
2.76517
3.3375
3.9308
4.53249
5.11616
5.64243
6.0622
6.32204
6.37092
6.16723
5.68531
4.92037
3.89107
2.63948
1.22813
-0.265336
-1.75536
-3.1566
-4.39197
-5.39944
-6.13696
-6.5849
-6.74584
-6.64209
-6.31144
-5.80189
-5.16614
-4.45649
-3.72069
-2.99877
-2.3212
-1.70804
-1.1691
-0.704952
-0.308742
0.0314119
0.329558
0.598911
0.849116
1.08419
1.30151
1.49207
1.64196
1.73487
1.75528
1.69177
1.5402
1.30634
1.00769
0.674431
0.349281
0.0861882
-0.0523531
0.000638386
0.311269
0.938434
1.92707
3.3017
5.06119
7.17522
9.58337
12.1967
14.9024
17.5701
20.061
22.2373
23.9726
25.1609
25.7256
25.6249
24.8555
23.4528
21.4882
19.0629
16.301
13.3409
10.3299
7.42343
4.79414
2.65181
1.27728
1.06778
2.58784
6.61401
14.1563
26.4356
44.7955
70.5369
104.673
147.627
198.917
256.891
318.574
379.71
435.016
478.667
504.954
509.041
487.705
439.93
367.261
273.84
166.09
52.0935
-59.268
-159.298
-240.453
-297.172
-326.454
-328.112
-304.689
-261.042
-203.681
-139.942
-77.1144
-21.6281
21.5924
49.5536
61.3517
58.0712
42.4563
18.4143
-9.57208
-37.0442
-60.1039
-75.8268
-82.5158
-79.7768
-68.4285
-50.2716
-27.761
-3.63135
19.474
39.3259
54.3481
63.7528
67.5657
66.5491
62.0422
55.7463
49.4857
44.9755
43.6229
46.3823
53.6765
65.3856
80.8995
99.2213
119.105
139.206
158.231
175.065
188.863
199.104
205.598
208.455
208.028
204.819
199.399
192.313
184.017
174.829
164.911
154.283
142.854
130.478
117.009
102.352
86.5083
69.593
51.8367
33.5649
15.1623
-2.97089
-20.463
-37.0077
-52.3889
-66.4891
-79.2831
-90.8187
-101.189
-110.501
-118.85
-126.294
-132.85
-138.484
-143.131
-146.704
-149.119
-150.318
-150.281
-149.037
-146.666
-143.289
-139.05
-134.094
-128.544
-122.482
-115.932
-108.86
-101.182
-92.7842
-83.5518
-73.405
-62.332
-50.4166
-37.8554
-24.9586
-12.1351
0.137815
11.3577
21.0463
28.8
34.3343
37.516
38.3795
37.1247
34.0967
29.7494
24.5991
19.1718
13.9526
9.34197
5.62366
2.94816
1.33173
0.670279
0.765368
1.35811
2.16648
2.92139
3.39745
3.43535
2.95389
1.951
0.494459
-1.29596
-3.27191
-5.28218
-7.19692
-8.92711
-10.4366
-11.7455
-12.9239
-14.0786
-15.3328
-16.8037
-18.5801
-20.7032
-23.1528
-25.8425
-28.6215
-31.2868
-33.6013
-35.3193
-36.2133
-36.1025
-34.8761
-32.5115
-29.0826
-24.7576
-19.7869
-14.4798
-9.17617
-4.21247
0.110988
3.55926
5.98475
7.33963
7.67754
7.14497
5.96362
4.40628
2.76906
1.34309
0.388522
0.113014
0.656321
2.08178
4.37472
7.44722
11.1481
15.277
19.6006
23.87
27.8376
31.2734
33.9779
35.7936
36.6132
36.3847
35.114
32.864
29.7512
25.9398
21.6335
17.065
12.4843
8.14498
4.28989
1.1368
-1.13594
-2.4019
-2.59668
-1.72442
0.14
2.85379
6.21398
9.96993
13.8396
17.5283
20.7486
23.2394
24.782
25.2131
24.4333
22.4107
19.1819
14.8515
9.59208
3.64894
-2.64977
-8.87438
-14.4679
-18.7164
-20.7232
-19.3985
-13.4809
-1.60759
17.553
45.1003
81.6449
127.024
180.044
238.299
298.15
354.885
403.098
437.245
452.327
444.603
412.208
355.583
277.634
183.565
80.4073
-23.7093
-120.446
-202.187
-262.888
-298.731
-308.504
-293.657
-258.045
-207.396
-148.576
-88.7656
-34.6367
8.35809
36.5121
48.1518
43.6681
25.3062
-3.24293
-37.3841
-72.22
-103.135
-126.294
-139.007
-139.926
-129.064
-107.658
-77.8924
-42.5485
-4.60622
33.1318
68.3585
99.4869
125.76
147.243
164.711
179.443
192.983
206.866
222.382
240.384
261.17
284.452
309.403
334.78
359.091
380.785
398.451
410.974
417.657
418.285
413.119
402.846
388.477
371.212
352.303
332.907
313.974
296.161
279.781
264.809
250.913
237.529
223.962
209.497
193.509
175.567
155.506
133.47
109.912
85.5569
61.3255
38.2343
17.2813
-0.668332
-14.979
-25.3149
-31.6726
-34.3745
-34.0245
-31.4325
-27.5192
-23.2132
-19.3543
-16.6124
-15.4326
-16.0098
-18.2935
-22.0199
-26.7661
-32.0155
-37.2295
-41.9126
-45.6678
-48.2331
-49.5001
-49.5116
-48.4431
-46.5695
-44.2253
-41.7615
-39.5054
-37.7285
-36.623
-36.2909
-36.7421
-37.9018
-39.6239
-41.7067
-43.9104
-45.9733
-47.6275
-48.6132
-48.6939
-47.6707
-45.3981
-41.7986
-36.876
-30.7239
-23.5293
-15.5679
-7.19148
1.19282
9.14999
16.249
22.0962
26.3667
28.8317
29.3775
28.0158
24.8833
20.2319
14.4086
7.82903
0.945344
-5.78756
-11.946
-17.1681
-21.1797
-23.8119
-25.0115
-24.8404
-23.4664
-21.1445
-18.1913
-14.9545
-11.78
-8.9801
-6.80642
-5.42815
-4.91917
-5.25355
-6.3095
-7.88026
-9.69015
-11.414
-12.6982
-13.1837
-12.5286
-10.4337
-6.66703
-1.08988
6.32012
15.4502
26.0415
37.6899
49.8598
61.9135
73.1541
82.8801
90.4462
95.325
97.1613
95.813
91.3729
84.1669
74.7288
63.7527
52.0288
40.3684
29.5284
20.1421
12.6646
7.33989
4.19013
3.03013
3.50217
5.12718
7.36516
9.67745
11.5837
12.7074
12.806
11.7827
9.68131
6.66532
2.98505
-1.06153
-5.16995
-9.06715
-12.5421
-15.4661
-17.8023
-19.6022
-20.9923
-22.1517
-23.2824
-24.5749
-26.171
-28.1245
-30.3606
-32.636
-34.5014
-35.2724
-34.0159
-29.5654
-20.5783
-5.64978
16.5099
46.8392
85.6508
132.36
185.268
241.464
296.894
346.626
385.312
407.798
409.808
388.602
343.499
276.168
190.636
92.9747
-9.27906
-107.927
-195.01
-263.692
-309.012
-328.41
-321.947
-292.222
-243.986
-183.518
-117.862
-54.006
1.88117
45.0661
72.6626
83.7979
79.5342
62.5727
36.7936
6.69998
-23.1587
-48.7148
-66.8024
-75.4308
-73.8916
-62.7047
-43.4245
-18.3447
9.85267
38.4563
65.0483
87.7552
105.406
117.585
124.592
127.313
127.04
125.263
123.455
122.892
124.515
128.843
135.958
145.532
156.913
169.227
181.505
192.797
202.276
209.313
213.517
214.743
213.072
208.765
202.202
193.819
184.048
173.262
161.747
149.688
137.177
124.238
110.865
97.0622
82.8878
68.4818
54.0809
40.015
26.6839
14.5187
3.93295
-4.73027
-11.2449
-15.537
-17.7004
-17.9926
-16.8084
-14.6361
-12.0028
-9.41473
-7.30184
-5.9739
-5.5931
-6.16655
-7.55889
-9.52233
-11.7394
-13.8721
-15.6108
-16.7162
-17.0502
-16.591
-15.4329
-13.771
-11.874
-10.0476
-8.59533
-7.77853
-7.78209
-8.68801
-10.4604
-12.9432
-15.8722
-18.8989
-21.6262
-23.6506
-24.6071
-24.2126
-22.3017
-18.8507
-13.9886
-7.99145
-1.26225
5.70254
12.3564
18.1517
22.5898
25.2667
25.9112
24.4101
20.8192
15.3586
8.39143
0.391008
-8.10318
-16.5337
-24.3732
-31.1679
-36.5708
-40.3632
-42.4633
-42.9207
-41.9006
-39.6591
-36.5131
-32.809
-28.8917
-25.0775
-21.6329
-18.7587
-16.5818
-15.1533
-14.4524
-14.3954
-14.8478
-15.6393
-16.5793
-17.472
-18.1316
-18.3946
-18.1312
-17.2541
-15.7244
-13.5552
-10.812
-7.60925
-4.10352
-0.483179
3.04485
6.27051
8.99683
11.0555
12.3208
12.7197
12.2379
10.9214
8.87295
6.24365
3.22157
0.0174504
-3.15065
-6.07268
-8.56041
-10.4588
-11.6539
-12.0771
-11.705
-10.556
-8.68387
-6.16975
-3.11331
0.374972
4.17996
8.18577
12.2775
16.3417
20.2654
23.9372
27.2483
30.0967
32.3934
34.0697
35.0864
35.4403
35.1703
34.3588
33.1289
31.6377
30.0651
28.6001
27.4259
26.706
26.5735
27.127
28.4345
30.5488
33.5356
37.5129
42.7004
49.4704
58.3898
70.2366
85.973
106.658
133.288
166.572
206.652
252.837
303.368
355.327
404.701
446.661
476.039
487.954
478.503
445.416
388.554
310.162
214.814
109.047
0.712473
-101.871
-190.842
-259.679
-303.928
-321.659
-313.623
-283.073
-235.3
-176.933
-115.127
-56.7268
-7.51465
28.358
48.7092
53.4022
44.1705
24.2326
-2.23901
-30.7169
-56.9053
-77.2427
-89.2663
-91.8035
-84.9861
-70.0985
-49.2972
-25.2476
-0.73249
21.7176
40.1261
53.2743
60.7899
63.121
61.4083
57.2821
52.6136
49.2578
48.8181
52.46
60.7921
73.8228
90.9915
111.265
133.281
155.521
176.484
194.849
209.6
220.109
226.16
227.931
225.924
220.865
213.587
204.905
195.516
185.916
176.361
166.86
157.215
147.088
136.086
123.859
110.183
95.0228
78.5655
61.2122
43.5358
26.2096
9.91745
-4.73779
-17.3149
-27.5898
-35.5793
-41.5287
-45.8681
-49.1439
-51.9374
-54.7826
-58.0955
-62.124
-66.9241
-72.3646
-78.1568
-83.9045
-89.1648
-93.512
-96.5942
-98.177
-98.1676
-96.6204
-93.7214
-89.759
-85.083
-80.0609
-75.0351
-70.2892
-66.0238
-62.3465
-59.2742
-56.7463
-54.6459
-52.8248
-51.1292
-49.422
-47.5989
-45.5985
-43.4038
-41.0377
-38.5529
-36.0189
-33.5077
-31.0806
-28.7783
-26.6148
-24.5769
-22.6274
-20.7136
-18.7775
-16.7677
-14.6494
-12.4127
-10.0768
-7.68866
-5.31883
-3.05273
-0.980155
0.815681
2.26806
3.33421
3.99952
4.27809
4.20989
3.85522
3.28718
2.58351
1.81874
1.05765
0.350788
-0.267658
-0.779596
-1.18079
-1.47729
-1.68123
-1.8069
-1.86759
-1.87355
-1.83137
-1.74451
-1.6146
-1.44329
-1.23394
-0.992896
-0.730127
-0.458933
-0.194957
0.0454081
0.246904
0.397275
0.488802
0.519276
0.492267
0.416653
0.305503
0.174469
0.0399341
-0.0828483
-0.181359
-0.246962
-0.275431
-0.266743
-0.224143
-0.152531
-0.0564297
0.0621641
0.205584
0.381532
0.603009
0.887001
1.25207
1.71524
2.28882
2.97781
3.77853
4.67894
5.66052
6.7015
7.78082
8.88175
9.99458
11.1176
12.2557
13.418
14.6124
15.841
17.0946
18.3487
19.5615
20.6751
21.6189
22.317
22.6967
22.6988
22.2879
21.4608
20.2533
18.7448
17.0619
15.3849
13.9572
13.1032
13.2538
14.9776
19.0111
26.2749
37.8598
54.9633
78.7622
110.215
149.807
197.264
251.299
309.436
367.989
422.239
466.814
496.264
505.744
491.722
452.592
389.085
304.406
204.037
95.2415
-13.6857
-114.324
-199.062
-261.938
-299.273
-310.023
-295.802
-260.588
-210.162
-151.359
-91.2383
-36.2765
8.31373
39.0668
54.5018
55.1046
43.0768
21.9008
-4.20815
-30.8871
-54.1711
-70.9359
-79.1939
-78.2183
-68.5001
-51.557
-29.6345
-5.34729
18.6897
40.1914
57.4584
69.5327
76.2443
78.1548
76.4139
72.5562
68.2692
65.1643
64.5778
67.4249
74.1176
84.5532
98.1649
114.026
130.985
147.823
163.391
176.744
187.217
194.478
198.522
199.632
198.302
195.143
190.778
185.748
180.432
174.998
169.386
163.335
156.435
148.211
138.221
126.146
111.876
95.5544
77.5956
58.6578
39.578
21.2792
4.66152
-9.50764
-20.687
-28.6269
-33.3979
-35.3772
-35.198
-33.6668
-31.6619
-30.0261
-29.4676
-30.4813
-33.2999
-37.8786
-43.9147
-50.8963
-58.1735
-65.0408
-70.8205
-74.9372
-76.9749
-76.7123
-74.1333
-69.4158
-62.9005
-55.0468
-46.3804
-37.4413
-28.7356
-20.6966
-13.6578
-7.8391
-3.34603
-0.179433
1.74584
2.57729
2.49916
1.70791
0.39144
-1.28648
-3.19536
-5.24059
-7.36001
-9.51528
-11.6799
-13.8256
-15.9098
-17.8651
-19.5948
-20.973
-21.8513
-22.0713
-21.4813
-19.9555
-17.4124
-13.8314
-9.264
-3.83757
2.2477
8.73052
15.3068
21.6528
27.4519
32.4198
36.329
39.0263
40.4453
40.6106
39.6338
37.7027
35.0648
32.0058
28.8263
25.8181
23.2422
21.3113
20.1758
19.9164
20.5422
21.9939
24.1511
26.8425
29.858
32.9616
35.903
38.4311
40.3052
41.3079
41.2582
40.0247
37.5378
33.8007
28.8959
22.9866
16.31
9.16411
1.88588
-5.17551
-11.689
-17.3718
-22.0151
-25.5033
-27.8223
-29.0581
-29.3829
-29.0326
-28.2778
-27.3908
-26.615
-26.1374
-26.07
-26.4396
-27.1886
-28.1851
-29.2409
-30.1355
-30.6422
-30.5547
-29.7099
-28.0055
-25.4109
-21.9698
-17.7953
-13.0577
-7.96796
-2.75699
2.34452
7.12509
11.4075
15.0587
17.9944
20.1782
21.6169
22.3522
22.4521
22.0004
21.0889
19.8098
18.2505
16.4914
14.6066
12.6689
10.7609
8.99251
7.52657
6.61327
6.63027
8.12425
11.8441
18.7517
29.9933
46.8144
70.4047
101.676
140.988
187.862
240.735
296.823
352.154
401.797
440.311
462.356
463.405
440.444
392.547
321.22
230.443
126.392
16.8451
-89.6349
-184.646
-260.888
-312.97
-337.987
-335.785
-308.885
-262.103
-201.9
-135.576
-70.4116
-12.8562
32.1248
61.4839
74.2643
71.5115
55.9545
31.5144
2.71666
-25.914
-50.3994
-67.7323
-76.1403
-75.1707
-65.6041
-49.2241
-28.4857
-6.1336
15.1775
33.2137
46.4076
53.9969
56.0491
53.3801
47.3865
39.822
32.5473
27.29
25.4389
27.8977
35.0079
46.5443
61.7785
79.595
98.6427
117.501
134.839
149.548
160.841
168.301
171.88
171.866
168.795
163.362
156.305
148.307
139.912
131.471
123.125
114.818
106.349
97.4391
87.8107
77.2632
65.7294
53.3057
40.2517
26.959
13.896
1.53959
-9.69412
-19.5087
-27.7657
-34.498
-39.8957
-44.2696
-47.9978
-51.4659
-55.0084
-58.8622
-63.1369
-67.8054
-72.7164
-77.624
-82.2299
-86.2319
-89.3697
-91.4636
-92.4387
-92.3345
-91.2967
-89.5559
-87.3943
-85.1084
-82.9705
-81.1955
-79.9172
-79.1753
-78.9152
-78.9988
-79.2238
-79.3502
-79.1276
-78.3228
-76.7433
-74.2554
-70.7959
-66.3764
-61.0811
-55.0587
-48.5094
-41.6682
-34.7864
-28.1126
-21.8744
-16.2626
-11.4194
-7.4306
-4.32325
-2.06841
-0.588329
0.232639
0.534622
0.467922
0.179187
-0.200581
-0.565155
-0.838688
-0.977586
-0.968856
-0.825505
-0.579808
-0.275409
0.0408456
0.326636
0.55101
0.700234
0.782719
0.833208
0.916245
1.12872
1.60089
2.49502
4.00057
6.32492
9.6791
14.2588
20.2214
27.6617
36.5887
46.9068
58.4046
70.7537
83.5184
96.1766
108.151
118.849
127.703
134.219
138.018
138.867
136.709
131.668
124.048
114.309
103.033
90.8757
78.5122
66.5816
55.6345
46.0912
38.2131
32.0905
27.6481
24.6659
22.8132
21.6914
20.8812
19.9878
18.68
16.7206
13.9834
10.4581
6.24244
1.52333
-3.44901
-8.39183
-13.0212
-17.0807
-20.3646
-22.734
-24.1241
-24.5433
-24.0653
-22.8149
-20.9513
-18.649
-16.082
-13.4092
-10.7658
-8.25905
-5.96914
-3.95381
-2.25568
-0.910175
0.0475381
0.577994
0.636422
0.175725
-0.846504
-2.4573
-4.65438
-7.38931
-10.5476
-13.9257
-17.2042
-19.9192
-21.4334
-20.9153
-17.3344
-9.48885
3.92065
24.1582
52.2571
88.7714
133.506
185.268
241.706
299.281
353.435
398.955
430.507
443.307
433.793
400.235
343.142
265.414
172.176
70.3212
-32.2047
-127.265
-207.439
-266.847
-301.782
-311.074
-296.139
-260.721
-210.367
-151.714
-91.6786
-36.6711
8.09091
39.0765
54.7012
55.3361
43.0833
21.3633
-5.61985
-33.4609
-58.1066
-76.3157
-85.9754
-86.2503
-77.5591
-61.3986
-40.0503
-16.2174
7.35743
28.244
44.6053
55.3801
60.353
60.1129
55.9169
49.4819
42.7371
37.5694
35.593
37.9692
45.2917
57.5481
74.1541
94.0508
115.85
138.005
158.984
177.432
192.29
202.886
208.957
210.641
208.412
202.994
195.252
186.074
176.268
166.474
157.102
148.311
140.019
131.942
123.668
114.738
104.735
93.3591
80.484
66.1865
50.7422
34.5941
18.2979
2.45362
-12.3657
-25.6784
-37.1428
-46.5854
-54.0057
-59.5602
-63.5278
-66.2648
-68.155
-69.5622
-70.7911
-72.0596
-73.4865
-75.0923
-76.8129
-78.5225
-80.0616
-81.2661
-81.9932
-82.1424
-81.6672
-80.5794
-78.9443
-76.87
-74.4914
-71.9517
-69.3848
-66.8994
-64.5675
-62.4177
-60.4341
-58.56
-56.7066
-54.7655
-52.6223
-50.1717
-47.3314
-44.0536
-40.3323
-36.2073
-31.7616
-27.1155
-22.4161
-17.8236
-13.4971
-9.5804
-6.18919
-3.40217
-1.2557
0.257116
1.18306
1.60187
1.61665
1.34283
0.896941
0.386388
-0.0987479
-0.491203
-0.748926
-0.854418
-0.811428
-0.639728
-0.368915
-0.0322545
0.338537
0.716902
1.08312
1.42409
1.73166
2.00001
2.22299
2.39194
2.49465
2.51569
2.43813
2.24643
1.92983
1.48588
0.923175
0.262938
-0.461092
-1.20458
-1.91625
-2.54282
-3.03474
-3.35184
-3.46819
-3.37546
-3.08432
-2.62358
-2.03726
-1.3798
-0.71026
-0.0859305
0.443544
0.841038
1.08517
1.17161
1.1123
0.933024
0.669437
0.362387
0.0529992
-0.221779
-0.432701
-0.560452
-0.59646
-0.542334
-0.40819
-0.210216
0.0321256
0.29883
0.571723
0.836225
1.08244
1.30562
1.50612
1.68912
1.86424
2.04522
2.24971
2.49898
2.81746
3.23178
3.76916
4.45503
5.31007
6.34688
7.5668
8.95736
10.491
12.1254
13.8056
15.4695
17.0549
18.5118
19.8195
21.01
22.1998
23.6278
25.6962
29.0074
34.3823
42.8473
55.5697
73.7315
98.3366
129.964
168.5
212.893
260.999
309.562
354.382
390.668
413.568
418.797
403.272
365.668
306.778
229.616
139.225
42.2122
-53.9456
-141.725
-214.401
-266.79
-295.815
-300.788
-283.412
-247.492
-198.406
-142.419
-85.9283
-34.7408
6.53123
34.8876
49.1346
49.8481
39.1286
20.1962
-3.11181
-26.8693
-47.5484
-62.4099
-69.7557
-69.028
-60.7557
-46.3708
-27.9302
-7.78683
11.7432
28.676
41.5848
49.7328
53.1077
52.3619
48.6772
43.5756
38.7061
35.6337
35.6562
39.667
48.075
60.7863
77.2427
96.509
117.393
138.586
158.796
176.876
191.92
203.32
210.79
214.349
214.272
211.021
205.158
197.265
187.868
177.382
166.086
154.12
141.509
128.209
114.158
99.3335
83.7901
67.6883
51.2935
34.9548
19.0662
4.01596
-9.86367
-22.3399
-33.307
-42.7948
-50.9563
-58.0387
-64.341
-70.1675
-75.7828
-81.3759
-87.0371
-92.7517
-98.4083
-103.821
-108.761
-112.99
-116.297
-118.527
-119.594
-119.499
-118.321
-116.204
-113.341
-109.949
-106.241
-102.408
-98.5996
-94.913
-91.392
-88.0303
-84.7815
-81.5733
-78.3233
-74.9538
-71.4041
-67.6391
-63.6528
-59.467
-55.1266
-50.6911
-46.2255
-41.7905
-37.4342
-33.1864
-29.0551
-25.0274
-21.0731
-17.1505
-13.2153
-9.2293
-5.17004
-1.03846
3.13475
7.28564
11.3166
15.099
18.4794
21.2883
23.352
24.5053
24.6067
23.5525
21.2909
17.8347
13.2707
7.76511
1.56299
-5.01906
-11.6087
-17.8019
-23.1933
-27.4117
-30.1559
-31.2257
-30.5468
-28.1818
-24.3286
-19.3041
-13.5152
-7.42029
-1.48549
3.85896
8.25756
11.4594
13.3363
13.8868
13.2285
11.5769
9.21702
6.46873
3.65122
1.04972
-1.11181
-2.68948
-3.628
-3.9584
-3.78561
-3.26749
-2.58836
-1.93034
-1.44635
-1.23828
-1.34322
-1.72927
-2.30135
-2.91582
-3.40168
-3.58521
-3.31448
-2.48064
-1.03293
1.01395
3.58112
6.53464
9.70115
12.8876
15.9022
18.575
20.7731
22.4127
23.4629
23.9442
23.9204
23.4877
22.7592
21.8508
20.8673
19.8919
18.9795
18.1548
17.4142
16.7315
16.0666
15.3758
14.6225
13.7891
12.8903
11.9888
11.2153
10.7951
11.0798
12.5829
16.0102
22.273
32.4684
47.8059
69.4696
98.4106
135.085
179.172
229.328
283.034
336.606
385.401
424.228
447.931
452.076
433.626
391.511
326.974
243.635
147.233
45.0756
-54.7426
-144.241
-216.458
-266.233
-290.765
-289.872
-265.931
-223.511
-168.759
-108.62
-50.0124
0.953138
39.6079
63.1426
70.7746
63.6611
44.5861
17.4805
-13.1557
-42.8467
-67.6782
-84.715
-92.2601
-89.9361
-78.5969
-60.0951
-36.9478
-11.9525
12.1948
33.2319
49.5759
60.46
65.9533
66.8729
64.6089
60.8909
57.5324
56.1848
58.1327
64.1508
74.4361
88.6172
105.833
124.865
144.303
162.724
178.853
191.697
200.635
205.455
206.335
203.789
198.562
191.522
183.533
175.344
167.501
160.289
153.718
147.544
141.325
134.508
126.529
116.907
105.336
91.737
76.2812
59.3761
41.6143
23.6992
6.35729
-9.74954
-24.0972
-36.3502
-46.3839
-54.277
-60.2787
-64.7573
-68.1387
-70.8447
-73.2401
-75.5938
-78.0583
-80.6684
-83.3559
-85.9776
-88.3507
-90.289
-91.6363
-92.291
-92.2213
-91.4677
-90.1348
-88.3748
-86.3631
-84.272
-82.2445
-80.3715
-78.6765
-77.1097
-75.552
-73.8302
-71.7405
-69.0788
-65.6725
-61.4096
-56.2624
-50.2992
-43.685
-36.6685
-29.5587
-22.692
-16.3963
-10.955
-6.57699
-3.37509
-1.35683
-0.42754
-0.405452
-1.04624
-2.07359
-3.21171
-4.21553
-4.89519
-5.13195
-4.88437
-4.18465
-3.1264
-1.84604
-0.500784
0.753852
1.7841
2.49328
2.83099
2.79549
2.42975
1.81216
1.04369
0.233399
-0.515736
-1.11881
-1.51762
-1.68513
-1.62561
-1.37088
-0.973557
-0.498301
-0.0125908
0.42198
0.756744
0.960659
1.02231
0.949275
0.76514
0.504884
0.209303
-0.0806691
-0.329016
-0.508497
-0.602952
-0.607951
-0.529934
-0.384151
-0.191812
0.0231105
0.237044
0.429659
0.58619
0.699106
0.769046
0.804965
0.823421
0.846989
0.90181
1.01439
1.20787
1.49812
1.89006
2.37491
2.92861
3.51216
4.07381
4.55325
4.88753
5.01797
4.89756
4.49775
3.81395
2.86881
1.71279
0.421741
-0.908512
-2.17014
-3.25302
-4.05511
-4.49238
-4.50687
-4.07197
-3.19425
-1.9115
-0.287595
1.59518
3.64499
5.76916
7.88149
9.90736
11.7861
13.4707
14.926
16.1254
17.0478
17.6762
17.9979
18.0089
17.7228
17.1857
16.4994
15.855
15.5741
16.1561
18.322
23.0412
31.5218
45.1439
65.321
93.2815
129.786
174.812
227.265
284.782
343.693
399.189
445.724
477.599
489.685
478.168
441.198
379.333
295.697
195.793
87.0069
-22.1717
-123.076
-207.838
-270.262
-306.501
-315.425
-298.665
-260.322
-206.386
-143.972
-80.4545
-22.6208
24.0428
55.8682
71.2655
70.7169
56.5239
32.3603
2.70061
-27.7953
-54.86
-75.0933
-86.2836
-87.5507
-79.3108
-63.0836
-41.1832
-16.3417
8.67939
31.4407
50.0981
63.5712
71.5971
74.6737
73.912
70.8256
67.0908
64.3107
63.813
66.5037
72.7885
82.5663
95.2858
110.054
125.777
141.309
155.594
167.785
177.319
183.949
187.736
188.995
188.214
185.963
182.787
179.123
175.233
171.167
166.768
161.704
155.531
147.777
138.035
126.049
111.776
95.426
77.464
58.5706
39.5745
21.3614
4.77227
-9.49215
-20.9493
-29.3839
-34.8615
-37.708
-38.4571
-37.7749
-36.3738
-34.9249
-33.9834
-33.9325
-34.9542
-37.0271
-39.9499
-43.3861
-46.922
-50.1292
-52.625
-54.1204
-54.4539
-53.6043
-51.6863
-48.9277
-45.635
-42.1508
-38.8114
-35.9075
-33.6544
-32.1733
-31.4857
-31.5198
-32.1267
-33.1038
-34.2208
-35.2466
-35.9713
-36.2246
-35.8864
-34.8914
-33.2286
-30.9358
-28.0911
-24.8036
-21.2028
-17.4292
-13.6255
-9.92871
-6.46431
-3.34135
-0.648856
1.54658
3.20226
4.30009
4.84674
4.87329
4.43417
3.60537
2.4813
1.17025
-0.211675
-1.54791
-2.72933
-3.66179
-4.272
-4.5109
-4.35399
-3.79862
-2.85929
-1.56198
0.0608208
1.97338
4.13745
6.51058
9.04254
11.6711
14.3187
16.8906
19.2772
21.3586
23.0139
24.1314
24.6213
24.4268
23.5334
21.9743
19.8307
17.2278
14.3255
11.3047
8.35207
5.64322
3.32727
1.51388
0.264489
-0.411622
-0.555966
-0.254612
0.372121
1.18275
2.02899
2.76979
3.28371
3.47841
3.29667
2.71843
1.75922
0.465178
-1.09431
-2.83558
-4.66993
-6.51227
-8.28789
-9.93668
-11.4145
-12.6914
-13.7479
-14.5696
-15.1412
-15.443
-15.4476
-15.1212
-14.4272
-13.3317
-11.8121
-9.86512
-7.51423
-4.81478
-1.8558
1.24227
4.33383
7.25799
9.85097
11.9597
13.4551
14.2435
14.2752
13.5495
12.1155
10.0699
7.5528
4.74191
1.8503
-0.871642
-3.12589
-4.54664
-4.6705
-2.90101
1.52383
9.54716
22.2742
40.8998
66.5688
100.165
142.047
191.756
247.766
307.327
366.466
420.198
462.95
489.164
494.015
474.14
428.251
357.535
265.754
159.008
45.1829
-66.8672
-168.275
-251.145
-309.43
-339.577
-340.877
-315.467
-267.998
-205.022
-134.185
-63.3336
0.353224
51.1015
85.0704
100.619
98.303
80.6124
51.5159
15.8687
-21.2261
-55.0253
-81.6519
-98.4506
-104.163
-98.9214
-84.0765
-61.9016
-35.2164
-6.98659
20.0503
43.6898
62.4668
75.7473
83.7068
87.2094
87.615
86.5435
85.6334
86.3227
89.6797
96.2974
106.259
119.172
134.257
150.475
166.679
181.757
194.764
205.013
212.133
216.075
217.083
215.625
212.31
207.786
202.641
197.329
192.102
186.992
181.807
176.174
169.602
161.566
151.597
139.371
124.779
107.971
89.3637
69.6125
49.5481
30.0872
12.1294
-3.54632
-16.3703
-26.0435
-32.5644
-36.2176
-37.5275
-37.1842
-35.9525
-34.5768
-33.6955
-33.7729
-35.0595
-37.5805
-41.1539
-45.4333
-49.9666
-54.2641
-57.8645
-60.3922
-61.5992
-61.3873
-59.8105
-57.0585
-53.4259
-49.2701
-44.9673
-40.8684
-37.2628
-34.352
-32.2356
-30.9108
-30.2826
-30.1845
-30.4045
-30.7141
-30.896
-30.7681
-30.2003
-29.1241
-27.5341
-25.4814
-23.0624
-20.4022
-17.6381
-14.9029
-12.3117
-9.95219
-7.87989
-6.11819
-4.66204
-3.48458
-2.5452
-1.79781
-1.19802
-0.708562
-0.302351
0.0366931
0.31488
0.53144
0.681987
0.762065
0.770173
0.709815
0.590353
0.426643
0.237631
0.0442199
-0.133189
-0.277084
-0.374792
-0.419736
-0.411852
-0.357166
-0.266625
-0.154408
-0.0359495
0.0740284
0.163244
0.223143
0.24963
0.243225
0.208672
0.154085
0.0897613
0.0267855
-0.0244305
-0.0555235
-0.0613149
-0.0405606
0.00380747
0.065016
0.133351
0.19752
0.246294
0.270178
0.262865
0.222233
0.150737
0.0551362
-0.0544043
-0.165685
-0.266115
-0.344386
-0.391922
-0.403932
-0.379906
-0.323519
-0.241951
-0.1447
-0.0420315
0.0567874
0.145263
0.221273
0.28829
0.356058
0.4406
0.563522
0.750611
1.02986
1.42911
1.97341
2.68256
3.56876
4.6348
5.87287
7.26417
8.77935
10.3798
12.0197
13.6486
15.2144
16.6659
17.9558
19.0426
19.8926
20.4806
20.7909
20.8175
20.5637
20.0415
19.2715
18.2821
17.1096
15.7994
14.4094
13.0168
11.7308
10.7114
10.1969
10.5379
12.2354
15.9735
22.6372
33.2965
49.1416
71.3534
100.905
138.308
183.326
234.721
290.08
345.791
397.22
439.092
466.056
473.372
457.614
417.274
353.17
268.569
168.988
61.6914
-45.068
-142.947
-224.445
-283.732
-317.277
-324.18
-306.187
-267.391
-213.661
-151.895
-89.1905
-32.0464
14.3172
46.4337
62.8241
63.9764
52.0944
30.665
3.91356
-23.7767
-48.407
-66.8036
-76.9125
-77.9272
-70.2494
-55.3055
-35.2556
-12.6423
9.97049
30.3229
46.7119
58.1476
64.4031
65.9638
63.8929
59.6386
54.8151
50.9847
49.4703
51.2163
56.7087
65.9587
78.5429
93.6895
110.395
127.555
144.089
159.048
171.7
181.568
188.443
192.363
193.559
192.391
189.276
184.621
178.761
171.925
164.22
155.64
146.09
135.437
123.564
110.418
96.059
80.6851
64.6369
48.3773
32.4498
17.421
3.81499
-7.94828
-17.6037
-25.0717
-30.4647
-34.0695
-36.3077
-37.6804
-38.7052
-39.8546
-41.5023
-43.8859
-47.0876
-51.036
-55.5256
-60.2511
-64.8512
-68.9557
-72.2298
-74.4112
-75.3366
-74.9546
-73.325
-70.607
-67.0359
-62.894
-58.4791
-54.0729
-49.9142
-46.1795
-42.9718
-40.3192
-38.1818
-36.4663
-35.045
-33.7765
-32.5262
-31.183
-29.6704
-27.9523
-26.0322
-23.9468
-21.7559
-19.5309
-17.3425
-15.2509
-13.2987
-11.5079
-9.8808
-8.40367
-7.05316
-5.80321
-4.63161
-3.52512
-2.48214
-1.51302
-0.637797
0.117857
0.727768
1.17055
1.43417
1.51906
1.43939
1.22231
0.905374
0.532562
0.149507
-0.201373
-0.485206
-0.677915
-0.768006
-0.756783
-0.657037
-0.490494
-0.284414
-0.0678422
0.132025
0.2929
0.399587
0.445084
0.430591
0.364502
0.260632
0.135952
0.00816509
-0.106546
-0.195363
-0.250058
-0.267527
-0.249631
-0.202435
-0.135007
-0.0579644
0.018014
0.0835275
0.131494
0.157791
0.161493
0.144808
0.113019
0.0749899
0.0449824
0.0465404
0.118832
0.325085
0.761776
1.56627
2.92011
5.04528
8.19163
12.6151
18.5485
26.1672
35.5561
46.6807
59.3692
73.3081
88.0546
103.064
117.731
131.44
143.615
153.773
161.556
166.765
169.362
169.463
167.312
163.247
157.655
150.925
143.407
135.378
127.023
118.432
109.606
100.485
90.9808
81.0195
70.5797
59.7347
48.6867
37.7964
27.6058
18.8533
12.4754
9.58889
11.4414
19.318
34.3949
57.5383
89.0646
128.491
174.325
223.951
273.66
318.867
354.516
375.631
377.973
358.669
316.748
253.461
172.336
78.9218
-19.7336
-115.833
-201.691
-270.601
-317.588
-339.943
-337.48
-312.487
-269.372
-214.084
-153.365
-93.9527
-41.8253
-1.58403
23.9624
33.9718
29.4975
13.1986
-11.1167
-39.0467
-66.1737
-88.5938
-103.337
-108.639
-104.037
-90.3118
-69.2683
-43.4267
-15.647
11.2499
34.8213
53.2649
65.5778
71.6043
71.9763
67.9646
61.2674
53.7677
47.2917
43.3978
43.2163
47.3553
55.8764
68.3347
83.8737
101.355
119.509
137.08
152.953
166.254
176.406
183.141
186.479
186.672
184.126
179.32
172.726
164.744
155.661
145.643
134.744
122.951
110.232
96.5931
82.1307
67.0617
51.7336
36.6077
22.2173
9.10749
-2.23347
-11.4406
-18.3249
-22.9041
-25.4057
-26.2413
-25.957
-25.1654
-24.4711
-24.3983
-25.3317
-27.477
-30.8467
-35.2703
-40.4275
-45.8981
-51.2213
-55.9568
-59.7386
-62.3169
-63.5826
-63.5727
-62.4574
-60.5117
-58.0754
-55.5083
-53.1441
-51.251
-50.0018
-49.4572
-49.5631
-50.1627
-51.02
-51.8522
-52.367
-52.299
-51.4418
-49.6715
-46.9595
-43.3724
-39.0614
-34.2415
-29.1647
-24.0903
-19.2575
-14.8617
-11.0397
-7.86254
-5.33762
-3.41837
-2.01924
-1.03343
-0.350531
0.12848
0.480531
0.755185
0.974704
1.13872
1.2321
1.2342
1.12782
0.906283
0.577612
0.165344
-0.293842
-0.755004
-1.17131
-1.50068
-1.71164
-1.78736
-1.72751
-1.54768
-1.27662
-0.952
-0.615206
-0.306147
-0.0585784
0.103464
0.167814
0.134784
0.0162923
-0.166292
-0.38524
-0.610085
-0.811336
-0.963843
-1.04946
-1.05871
-0.991405
-0.856024
-0.668238
-0.448581
-0.219702
-0.00350647
0.181461
0.322075
0.41188
0.4514
0.447485
0.411852
0.35906
0.304299
0.261397
0.2414
0.252026
0.298106
0.382989
0.510674
0.688308
0.928547
1.25127
1.68411
2.26144
3.02162
4.00262
5.23627
6.74208
8.52112
10.5512
12.7841
15.1454
17.5372
19.8444
21.9425
23.7081
25.0293
25.816
26.0082
25.5817
24.5511
22.9692
20.9238
18.5332
15.9418
13.3179
10.8578
8.79754
7.43617
7.16933
8.52989
12.2265
19.1647
30.4319
47.2244
70.7034
101.776
140.822
187.399
239.995
295.885
351.16
400.959
439.915
462.766
465.06
443.838
398.192
329.593
241.923
141.19
34.9451
-68.5078
-161.031
-235.554
-286.854
-312.108
-311.145
-286.383
-242.463
-185.636
-122.989
-61.6144
-7.82753
33.4795
59.2738
68.5713
62.374
43.3803
15.5219
-16.6058
-48.341
-75.5078
-94.8624
-104.386
-103.408
-92.5525
-73.5385
-48.8655
-21.4339
5.8473
30.4183
50.3506
64.5271
72.7062
75.4731
74.0938
70.2972
66.0185
63.1382
63.2479
67.4698
76.3467
89.8101
107.224
127.492
149.212
170.857
190.947
208.214
221.721
230.932
235.731
236.389
233.486
227.807
220.216
211.542
202.47
193.471
184.76
176.302
167.843
158.982
149.252
138.218
125.559
111.133
95.0219
77.5304
59.1621
40.5631
22.4476
5.51519
-9.62696
-22.5289
-32.9397
-40.8228
-46.3451
-49.8416
-51.7632
-52.6151
-52.8942
-53.0342
-53.3632
-54.0806
-55.2507
-56.8159
-58.6227
-60.4577
-62.0874
-63.2951
-63.913
-63.8428
-63.0659
-61.6414
-59.694
-57.3948
-54.9373
-52.5123
-50.2858
-48.3805
-46.8651
-45.7493
-44.9867
-44.4833
-44.1107
-43.7216
-43.1663
-42.3084
-41.0381
-39.2817
-37.0083
-34.231
-31.0051
-27.4223
-23.6021
-19.6816
-15.8035
-12.1052
-8.70759
-5.70713
-3.16918
-1.12516
0.427382
1.52153
2.21508
2.5826
2.70642
2.66759
2.53774
2.37294
2.21006
2.06602
1.93983
1.817
1.67538
1.49162
1.24704
0.93211
0.548862
0.111046
-0.357867
-0.828245
-1.26869
-1.65041
-1.95087
-2.15614
-2.26177
-2.27223
-2.19921
-2.05918
-1.87086
-1.65272
-1.42119
-1.18944
-0.967021
-0.759983
-0.571583
-0.403122
-0.254841
-0.12664
-0.0185482
0.0691117
0.13582
0.18115
0.205146
0.208682
0.193705
0.163313
0.121633
0.0735195
0.0241186
-0.0216338
-0.0595021
-0.0863471
-0.100357
-0.101054
-0.0890366
-0.0654374
-0.0310927
0.0145291
0.074571
0.156062
0.271025
0.437173
0.677903
1.02134
1.49825
2.13885
2.9686
4.00357
5.24583
6.6797
8.26959
9.95993
11.6776
13.3365
14.8447
16.112
17.0585
17.622
17.764
17.4728
16.7646
15.681
14.285
12.655
10.8781
9.04448
7.24288
5.56041
4.0877
2.93205
2.24065
2.23449
3.2518
5.79549
10.5746
18.5243
30.7852
48.6232
73.2759
105.725
146.411
194.937
249.802
308.255
366.312
418.982
460.712
486.008
490.161
469.957
424.28
354.473
264.402
160.191
49.6342
-58.6193
-156.022
-235.086
-290.217
-318.312
-319.055
-294.86
-250.504
-192.48
-128.186
-65.0445
-9.66594
32.8345
59.3024
68.7435
62.2523
42.6995
14.2325
-18.3337
-50.153
-76.9322
-95.3956
-103.584
-100.965
-88.3645
-67.7304
-41.7887
-13.6317
13.6992
37.5873
56.128
68.3026
74.0286
74.0896
69.9656
63.5924
57.086
52.4669
51.4188
55.1059
64.0659
78.1847
96.749
118.564
142.116
165.763
187.916
207.208
222.616
233.535
239.797
241.637
239.614
234.508
227.191
218.514
209.198
199.759
190.466
181.34
172.18
162.63
152.258
140.645
127.473
112.591
96.0561
78.1419
59.3183
40.1992
21.4733
3.82603
-12.1363
-25.9487
-37.3297
-46.1984
-52.6672
-57.0111
-59.6219
-60.9527
-61.4607
-61.5566
-61.5652
-61.7015
-62.0632
-62.639
-63.3297
-63.9779
-64.4024
-64.4309
-63.9285
-62.8174
-61.0875
-58.7958
-56.0576
-53.029
-49.8859
-46.801
-43.9221
-41.3551
-39.1534
-37.3135
-35.7794
-34.4524
-33.2065
-31.9055
-30.4211
-28.6483
-26.5169
-23.998
-21.1047
-17.8881
-14.4284
-10.8248
-7.18316
-3.60569
-0.182536
3.01342
5.92818
8.52502
10.7807
12.6802
14.212
15.3643
16.1232
16.4735
16.4012
15.8975
14.9639
13.6153
11.8835
9.81735
7.48139
4.95282
2.31672
-0.3391
-2.92924
-5.37502
-7.60775
-9.57068
-11.2198
-12.524
-13.464
-14.0325
-14.2326
-14.0776
-13.5907
-12.8039
-11.7573
-10.498
-9.07872
-7.55599
-5.98823
-4.43378
-2.94903
-1.58642
-0.392709
0.59287
1.34023
1.82999
2.05471
2.01966
1.74296
1.25485
0.596147
-0.184117
-1.03169
-1.89042
-2.70567
-3.42747
-4.01336
-4.43045
-4.65696
-4.68269
-4.50869
-4.14591
-3.61284
-2.93249
-2.12884
-1.2233
-0.231746
0.837427
1.98376
3.21349
4.53661
5.96264
7.49554
9.12872
10.8408
12.5931
14.3295
15.9783
17.4574
18.6805
19.5655
20.0423
20.0609
19.5975
18.6577
17.2785
15.5254
13.4884
11.2745
8.99926
6.77777
4.71619
2.90515
1.41664
0.306015
-0.378614
-0.577758
-0.190915
0.964151
3.20072
7.0146
13.1264
22.4983
36.3059
55.8461
82.3686
116.833
159.613
210.187
266.882
326.74
385.558
438.158
478.87
502.193
503.548
479.999
430.837
357.911
265.63
160.63
51.12
-53.9977
-146.123
-217.931
-264.19
-282.323
-272.635
-238.188
-184.351
-184.351
-184.351
-184.351
-184.351
-184.351
-184.351
-184.351
-184.351
-184.351
-184.351
-184.351
-184.351
-184.351
-184.351
-184.351
-184.351
-184.351
-184.351
