-174.907
-179.51
-182.197
-182.664
-180.695
-176.182
-169.14
-159.71
-148.15
-134.818
-120.139
-104.578
-88.5991
-72.6376
-57.072
-42.2072
-28.2666
-15.3939
-3.66279
6.90875
16.3415
24.679
31.9743
38.2814
43.6516
48.1339
51.7793
54.6455
56.8025
58.3354
59.3453
59.9463
60.2593
60.4038
60.4886
60.602
60.8044
61.1232
61.5515
62.0498
62.5526
62.9759
63.2286
63.2222
62.8816
62.153
61.0088
59.4506
57.5066
55.228
52.6812
49.9397
47.0743
44.1459
41.1986
38.257
35.3254
32.392
29.4342
26.4271
23.3522
20.2051
17.0022
13.7832
10.611
7.56694
4.74373
2.23518
0.125632
-1.52039
-2.66645
-3.30943
-3.48092
-3.24466
-2.69033
-1.92449
-1.05991
-0.204569
0.548388
1.12853
1.49309
1.62854
1.54892
1.29118
0.908513
0.462368
0.0144377
-0.380636
-0.680939
-0.86087
-0.912398
-0.844078
-0.678175
-0.44643
-0.18513
0.0698515
0.287426
0.444602
0.528445
0.536583
0.476345
0.362797
0.21602
0.0580637
-0.0900211
-0.210706
-0.291798
-0.327387
-0.317913
-0.269425
-0.19222
-0.0990969
-0.00347816
0.0823387
0.148606
0.189079
0.201422
0.187087
0.150728
0.0992696
0.0407973
-0.0165828
-0.0657666
-0.101438
-0.120547
-0.122451
-0.108742
-0.0828056
-0.0492054
-0.0129843
0.0210217
0.0487694
0.0674326
0.0756286
0.0734383
0.0622407
0.0444015
0.0228705
0.000748632
-0.0191184
-0.0344716
-0.0438672
-0.0468003
-0.0437679
-0.0363623
-0.0275318
-0.0221495
-0.0279927
-0.0571506
-0.127775
-0.266002
-0.507794
-0.900376
-1.50288
-2.38572
-3.62831
-5.31467
-7.52703
-10.3375
-13.7983
-17.9321
-22.7222
-28.1051
-33.9648
-40.1311
-46.3808
-52.4439
-58.0129
-62.7573
-66.3416
-68.4473
-68.7977
-67.1841
-63.4911
-57.7177
-49.9929
-40.5808
-29.8752
-18.3824
-6.69134
4.56462
14.7528
23.2878
29.6758
33.5509
34.6999
33.0736
28.7819
22.0745
13.3084
2.906
-8.69349
-21.0844
-33.9438
-47.0768
-60.4521
-74.2271
-88.7532
-104.559
-122.303
-142.691
-166.363
-193.752
-224.928
-259.459
-296.294
-333.722
-369.408
-400.528
-424.005
-436.831
-436.428
-421.025
-389.975
-343.977
-285.147
-216.92
-143.782
-70.852
-3.37234
53.8468
96.9405
123.403
132.346
124.566
102.418
69.5126
30.2767
-10.5646
-48.5149
-79.7814
-101.641
-112.662
-112.754
-103.068
-85.7465
-63.5843
-39.6365
-16.8309
2.3704
16.2206
23.8269
25.1704
21.0159
12.733
2.05928
-9.15865
-19.2117
-26.7324
-30.8341
-31.176
-27.9504
-21.8044
-13.7105
-4.80909
3.75452
10.978
16.1161
18.7513
18.8151
16.5632
12.512
7.34849
1.82731
-3.33004
-7.5219
-10.3292
-11.5491
-11.1977
-9.48561
-6.77103
-3.49975
-0.140056
2.87819
5.21338
6.64562
7.09148
6.60002
5.33265
3.53095
1.47793
-0.541919
-2.2785
-3.54383
-4.22909
-4.3099
-3.84038
-2.93807
-1.76241
-0.49023
0.708274
1.69026
2.35529
2.65346
2.58644
2.20214
1.58478
0.842628
0.0959667
-0.532631
-0.924278
-0.965893
-0.549471
0.429573
2.07272
4.47536
7.71947
11.8622
16.9219
22.8643
29.5917
36.9387
44.6755
52.5203
60.1607
67.2798
73.5859
78.8404
82.8812
85.637
87.1326
87.4819
86.8732
85.5445
83.7566
81.7638
79.7883
77.9994
76.5008
75.3266
74.4457
73.7733
73.1878
72.5504
71.7244
70.5927
69.0704
67.1125
64.7157
61.9149
58.7755
55.3835
51.8336
48.2188
44.6209
41.1039
37.7105
34.4605
31.3536
28.373
25.4914
22.678
19.9058
17.1579
14.4325
11.7457
9.13193
6.64126
4.33435
2.27562
0.525419
-0.867855
-1.87438
-2.48763
-2.72636
-2.63372
-2.27353
-1.72426
-1.07141
-0.399327
0.21657
0.716319
1.0599
1.22929
1.22807
1.07863
0.81761
0.490165
0.143837
-0.177245
-0.437153
-0.611506
-0.689082
-0.671701
-0.572559
-0.413355
-0.220714
-0.0223806
0.156311
0.295289
0.381641
0.410431
0.384436
0.312959
0.209964
0.0918224
-0.0249826
-0.125931
-0.200066
-0.240982
-0.247129
-0.221493
-0.170723
-0.103911
-0.0311871
0.0376666
0.0944021
0.133179
0.151041
0.147977
0.126608
0.0915784
0.0487542
0.00435571
-0.0358621
-0.0672837
-0.086892
-0.0934772
-0.0875968
-0.0713172
-0.0477932
-0.0207552
0.00602109
0.0291943
0.0462317
0.0556418
0.0570511
0.0511324
0.0394088
0.0239721
0.00715876
-0.00876979
-0.0219036
-0.0308871
-0.035031
-0.0343278
-0.0293808
-0.0212629
-0.0113321
-0.00103005
0.00830776
0.0156091
0.0201717
0.0217123
0.0203576
0.0165801
0.0110816
0.00459975
-0.00242682
-0.0104629
-0.0219192
-0.0427888
-0.0849269
-0.168831
-0.326529
-0.603952
-1.06201
-1.77563
-2.83015
-4.31486
-6.314
-8.89584
-12.1011
-15.932
-20.3433
-25.2371
-30.4617
-35.8158
-41.0581
-45.9214
-50.131
-53.4256
-55.5788
-56.419
-55.8453
-53.8387
-50.4648
-45.87
-40.2697
-33.93
-27.1452
-20.2142
-13.4172
-6.99649
-1.14271
4.01177
8.39273
11.9777
14.7846
16.858
18.2537
19.0237
19.201
18.7845
17.7212
15.8857
13.0574
8.89736
2.93567
-5.42308
-16.8596
-32.0545
-51.5514
-75.5767
-103.838
-135.337
-168.253
-199.936
-227.051
-245.883
-252.789
-244.726
-219.791
-177.67
-119.914
-49.9663
27.0704
104.922
176.826
236.314
277.989
298.182
295.404
270.519
226.634
168.702
102.923
35.9995
-25.6309
-76.5009
-112.667
-132.053
-134.546
-121.858
-97.183
-64.7035
-29.0202
5.4164
34.8076
56.383
68.6188
71.2849
65.3312
52.644
35.7129
17.2604
-0.118461
-14.2618
-23.6606
-27.5749
-26.0417
-19.7872
-10.0633
1.56352
13.4379
24.0287
32.1023
36.8417
37.8998
35.3903
29.8228
21.9963
12.8696
3.4265
-5.44745
-13.0612
-18.9805
-23.0504
-25.3813
-26.3031
-26.2974
-25.9183
-25.7135
-26.1559
-27.5923
-30.2146
-34.0553
-39.0026
-44.8338
-51.2581
-57.963
-64.6567
-71.1022
-77.1388
-82.6891
-87.7525
-92.388
-96.6888
-100.754
-104.661
-108.444
-112.077
-115.472
-118.476
-120.885
-122.46
-122.947
-122.101
-119.709
-115.614
-109.735
-102.08
-92.7632
-82.0063
-70.1326
-57.5538
-44.7445
-32.2074
-20.4311
-9.84474
-0.774602
6.59125
12.2249
16.2627
18.99
20.807
22.1805
23.587
25.4543
28.1105
31.7463
36.3958
41.9368
48.1115
54.5631
60.8822
66.6584
71.5282
75.2144
77.5526
78.5023
78.1424
76.6526
74.2854
71.3319
68.0865
64.8155
61.732
58.9804
56.631
54.6833
53.0777
51.7124
50.4623
49.1991
47.8067
46.1951
44.307
42.121
39.6491
36.9313
34.0276
31.0088
27.9485
24.9155
21.9684
19.1525
16.4994
14.0274
11.7446
9.65167
7.74577
6.02323
4.48178
3.12145
1.94437
0.953459
0.150548
-0.465752
-0.901865
-1.17036
-1.29013
-1.28548
-1.18442
-1.01627
-0.809215
-0.587994
-0.372265
-0.175754
-0.00627832
0.133462
0.24456
0.330339
0.394839
0.441615
0.472989
0.489819
0.491732
0.477703
0.446799
0.398908
0.335301
0.258914
0.174288
0.0872051
0.00407257
-0.0688332
-0.126135
-0.164018
-0.180697
-0.176625
-0.154421
-0.118544
-0.0747458
-0.0293713
0.011399
0.0422921
0.0595727
0.0614875
0.0484648
0.023033
-0.0105363
-0.0468252
-0.0800263
-0.104755
-0.116805
-0.113737
-0.0952319
-0.0631806
-0.0215336
0.0240309
0.0665513
0.0982884
0.11127
0.0978748
0.0514695
-0.032907
-0.15784
-0.322888
-0.524101
-0.75382
-1.00089
-1.25137
-1.48967
-1.70013
-1.86868
-1.98446
-2.04098
-2.03677
-1.97522
-1.86363
-1.71176
-1.5299
-1.32695
-1.10882
-0.877446
-0.63071
-0.36328
-0.0683544
0.259982
0.624179
1.02088
1.43932
1.86077
2.2593
2.60358
2.85966
2.994
2.97641
2.78217
2.39332
1.79865
0.992619
-0.0264568
-1.25862
-2.70422
-4.36494
-6.24347
-8.34132
-10.6549
-13.1702
-15.8565
-18.6613
-21.5061
-24.2855
-26.8701
-29.1132
-30.8615
-31.9682
-32.3075
-31.7886
-30.3667
-28.0505
-24.9044
-21.0459
-16.637
-11.872
-6.9628
-2.12251
2.44983
6.5825
10.1409
13.0327
15.2084
16.6554
17.3866
17.4209
16.7552
15.3297
12.9872
9.43575
4.22378
-3.25495
-13.712
-27.8579
-46.237
-69.0175
-95.7695
-125.279
-155.451
-183.36
-205.462
-217.987
-217.445
-201.201
-168.003
-118.374
-54.7863
18.4407
95.5106
169.76
234.424
283.448
312.232
318.208
301.156
263.227
208.674
143.321
73.8652
7.08493
-50.9216
-95.3841
-123.314
-133.722
-127.581
-107.561
-77.5878
-42.2783
-6.34893
25.9402
51.2359
67.3927
73.5994
70.3331
59.1628
42.4401
22.9276
3.41566
-13.6232
-26.3046
-33.5013
-34.901
-30.9578
-22.7542
-11.8006
0.19689
11.5679
20.8798
27.0893
29.6289
28.4257
23.8561
16.6494
7.75674
-1.79415
-11.0396
-19.1983
-25.7555
-30.5051
-33.5486
-35.2553
-36.1913
-37.0296
-38.4531
-41.0639
-45.3081
-51.4248
-59.4245
-69.0947
-80.0333
-91.7008
-103.486
-114.775
-125.016
-133.771
-140.751
-145.832
-149.052
-150.585
-150.705
-149.747
-148.052
-145.93
-143.62
-141.268
-138.912
-136.486
-133.831
-130.721
-126.889
-122.069
-116.026
-108.591
-99.6958
-89.3855
-77.8358
-65.347
-52.3292
-39.2729
-26.7104
-15.1687
-5.12268
3.05012
9.10457
12.9507
14.6602
14.4569
12.6913
9.80277
6.27451
2.58547
-0.834512
-3.64174
-5.60411
-6.61279
-6.67983
-5.92288
-4.53985
-2.7771
-0.895514
0.86155
2.29489
3.268
3.71628
3.64657
3.12831
2.278
1.2397
0.164329
-0.809679
-1.57204
-2.05112
-2.21856
-2.08801
-1.70882
-1.15602
-0.518088
0.115491
0.66555
1.07201
1.29935
1.33837
1.2045
0.933263
0.573573
0.180219
-0.193676
-0.503135
-0.71611
-0.816121
-0.80266
-0.689546
-0.501658
-0.270625
-0.0301283
0.188553
0.360219
0.468272
0.505884
0.47582
0.389061
0.262558
0.116455
-0.0287782
-0.154959
-0.248235
-0.300367
-0.309166
-0.278129
-0.215393
-0.132214
-0.0412062
0.0454414
0.117588
0.168508
0.195956
0.202946
0.198266
0.196709
0.218975
0.291144
0.443611
0.709431
1.12206
1.71264
2.50699
3.5227
4.76657
6.23289
7.90268
9.74424
11.7149
13.7641
15.8367
17.8777
19.8359
21.6677
23.3396
24.8301
26.1296
27.24
28.173
28.9478
29.5885
30.122
30.5751
30.9735
31.3395
31.6914
32.0427
32.401
32.7682
33.1398
33.5047
33.8451
34.1373
34.3519
34.4556
34.4125
34.1865
33.744
33.0561
32.1012
30.8666
29.3497
27.5588
25.5129
23.2412
20.783
18.1863
15.5075
12.8091
10.1587
7.6259
5.27878
3.18031
1.38386
-0.0709283
-1.16166
-1.88558
-2.26047
-2.32385
-2.13064
-1.7495
-1.25826
-0.738955
-0.272825
0.0644839
0.207237
0.10336
-0.282485
-0.966598
-1.94486
-3.19241
-4.66444
-6.29837
-8.01713
-9.73368
-11.3563
-12.7947
-13.9656
-14.7988
-15.2421
-15.2645
-14.8588
-14.0416
-12.8517
-11.347
-9.59934
-7.68908
-5.69871
-3.70723
-1.78535
0.00791194
1.62677
3.03852
4.22175
5.16325
5.8542
6.28571
6.44385
6.30381
5.82187
4.92417
3.49075
1.33462
-1.82246
-6.37261
-12.8341
-21.8413
-34.0981
-50.2843
-70.9103
-96.1299
-125.535
-157.974
-191.441
-223.087
-249.388
-266.469
-270.574
-258.613
-228.705
-180.631
-116.096
-38.7545
46.0378
131.725
211.245
277.828
325.782
351.175
352.29
329.831
286.811
228.182
160.226
89.8226
23.6593
-32.4879
-74.3352
-99.462
-107.44
-99.7199
-79.3106
-50.2952
-17.2656
15.2565
43.3372
64.0318
75.629
77.725
71.1325
57.6526
39.7496
20.179
1.61757
-13.6599
-24.0211
-28.6154
-27.4029
-21.0832
-10.941
1.36344
14.0274
25.3334
33.8437
38.5419
38.9104
34.9424
27.0924
16.1781
3.25092
-10.5468
-24.1202
-36.5403
-47.1298
-55.5115
-61.6159
-65.6531
-68.0545
-69.3956
-70.3096
-71.4044
-73.1912
-76.0329
-80.116
-85.4469
-91.8705
-99.1064
-106.796
-114.555
-122.019
-128.887
-134.946
-140.083
-144.279
-147.6
-150.163
-152.111
-153.582
-154.682
-155.467
-155.932
-156.007
-155.565
-154.434
-152.409
-149.275
-144.822
-138.872
-131.299
-122.048
-111.16
-98.7813
-85.1715
-70.7007
-55.831
-41.087
-27.0157
-14.1384
-2.90272
6.36214
13.4779
18.435
21.3912
22.6522
22.6359
21.8246
20.7121
19.7517
19.3112
19.6411
20.8577
22.9432
25.7608
29.0826
32.625
36.0871
39.1874
41.6939
43.4454
44.3622
44.4459
43.7702
42.4646
40.6934
38.6347
36.4591
34.3139
32.3111
30.5215
28.9734
27.6573
26.5322
25.5355
24.5934
23.6299
22.5763
21.3775
19.997
18.4188
16.6477
14.708
12.6394
10.4932
8.32707
6.1992
4.16363
2.26552
0.537748
-1.00115
-2.34757
-3.51189
-4.51611
-5.39047
-6.16948
-6.88772
-7.57602
-8.25836
-8.94973
-9.65509
-10.3696
-11.0797
-11.7655
-12.4033
-12.9685
-13.4392
-13.7984
-14.0362
-14.1513
-14.1506
-14.0493
-13.8686
-13.6335
-13.3701
-13.1028
-12.8519
-12.631
-12.4464
-12.2964
-12.1712
-12.0546
-11.9254
-11.7597
-11.5329
-11.2225
-10.8097
-10.2817
-9.63278
-8.8652
-7.98955
-7.02432
-5.99499
-4.9325
-3.87111
-2.8459
-1.89003
-1.03195
-0.292933
0.314873
0.789613
1.13989
1.38391
1.54756
1.66165
1.75847
1.86812
2.01502
2.21495
2.47315
2.78372
3.13035
3.48847
3.82836
4.11899
4.33189
4.44475
4.44407
4.32671
4.09998
3.78058
3.39224
2.96283
2.52106
2.09351
1.70216
1.36282
1.08446
0.86939
0.714145
0.61082
0.548593
0.51522
0.498343
0.486502
0.469827
0.440439
0.39261
0.322735
0.229144
0.11179
-0.0282011
-0.189086
-0.369123
-0.567211
-0.783483
-1.01982
-1.28023
-1.57111
-1.90135
-2.28223
-2.72716
-3.25122
-3.87023
-4.59944
-5.45146
-6.43339
-7.54325
-8.76593
-10.0693
-11.4014
-12.6894
-13.841
-14.7496
-15.3021
-15.3894
-14.9185
-13.8246
-12.0811
-9.707
-6.76859
-3.37712
0.319347
4.14788
7.92539
11.4741
14.6361
17.2847
19.3321
20.732
21.4756
21.5825
21.0851
20.0051
18.3243
15.9502
12.6796
8.16809
1.91738
-6.70791
-18.418
-33.8823
-53.563
-77.5126
-105.171
-135.209
-165.462
-193.006
-214.392
-226.031
-224.684
-207.997
-174.978
-126.343
-64.644
5.85859
79.5701
150.155
211.261
257.285
284.053
289.343
273.157
237.715
187.172
127.109
63.8474
3.71444
-47.6771
-86.0225
-108.734
-115.12
-106.328
-85.0731
-55.1979
-21.1341
12.664
42.2422
64.563
77.7767
81.3246
75.8774
63.1312
45.4982
25.7403
6.5964
-9.55294
-20.9432
-26.5842
-26.308
-20.7125
-11.0164
1.14738
13.9684
25.6951
34.8409
40.3391
41.6319
38.6892
31.9626
22.2852
10.7349
-1.51803
-13.3597
-23.8596
-32.3635
-38.543
-42.4017
-44.2402
-44.5902
-44.1265
-43.5716
-43.6039
-44.7802
-47.4798
-51.8752
-57.9286
-65.4141
-73.9579
-83.0922
-92.3142
-101.143
-109.169
-116.088
-121.724
-126.027
-129.069
-131.008
-132.063
-132.471
-132.45
-132.165
-131.706
-131.074
-130.183
-128.869
-126.912
-124.07
-120.103
-114.814
-108.074
-99.8458
-90.1994
-79.3167
-67.4828
-55.0672
-42.4935
-30.2027
-18.6122
-8.07714
1.14164
8.89873
15.1716
20.0534
23.7333
26.4656
28.5345
30.2174
31.7528
33.3159
35.0058
36.8425
38.7769
40.7068
42.501
44.0225
45.1525
45.8079
45.9528
45.6025
44.8199
43.7049
42.3806
40.9762
39.611
38.3804
37.3457
36.5295
35.9146
35.4488
35.0525
34.628
34.0716
33.2839
32.181
30.7021
28.8166
26.5269
23.8686
20.9078
17.7357
14.4602
11.1974
8.06136
5.15514
2.56273
0.343227
-1.47252
-2.88257
-3.91183
-4.6079
-5.03508
-5.26754
-5.38218
-5.45205
-5.54064
-5.69781
-5.95718
-6.33544
-6.83311
-7.43671
-8.12188
-8.85707
-9.6073
-10.3377
-11.0163
-11.6161
-12.1165
-12.5031
-12.7674
-12.9061
-12.9199
-12.8123
-12.589
-12.2574
-11.8258
-11.3039
-10.7021
-10.0313
-9.30239
-8.52554
-7.70917
-6.85926
-5.97884
-5.06796
-4.12436
-3.14476
-2.12681
-1.0713
0.0156309
1.12083
2.22336
3.29501
4.30222
5.20925
5.98239
6.59436
7.0285
7.28176
7.36617
7.30818
7.14611
6.9258
6.69512
6.49809
6.36939
6.33016
6.38564
6.52507
6.72383
6.94746
7.15705
7.31504
7.39062
7.36391
7.22832
6.99071
6.66963
6.29164
5.88671
5.48325
5.10367
4.76116
4.45823
4.18712
3.93196
3.67243
3.38798
3.06218
2.68625
2.26123
1.79846
1.31837
0.847648
0.415495
0.0493737
-0.228958
-0.406593
-0.481366
-0.462232
-0.368147
-0.225642
-0.0655016
0.0809399
0.1853
0.224915
0.184458
0.0561498
-0.161486
-0.466204
-0.855644
-1.3315
-1.90361
-2.59316
-3.43422
-4.47288
-5.76345
-7.36169
-9.31541
-11.6534
-14.3738
-17.4345
-20.7456
-24.1682
-27.5174
-30.574
-33.1008
-34.8647
-35.6615
-35.3409
-33.8272
-31.134
-27.3702
-22.7345
-17.5003
-11.991
-6.54945
-1.50425
2.86174
6.33812
8.80493
10.2402
10.7161
10.3854
9.45839
8.17523
6.77508
5.46504
4.39053
3.60763
3.05709
2.54034
1.6987
0.000751366
-3.25389
-8.90243
-17.8458
-30.9257
-48.7528
-71.5009
-98.6996
-129.069
-160.446
-189.856
-213.727
-228.281
-230.025
-216.3
-185.781
-138.859
-77.8032
-6.67939
68.9985
142.838
208.289
259.421
291.64
302.25
290.783
259.042
210.868
151.662
87.7245
25.5096
-29.1087
-71.4671
-98.5664
-109.3
-104.442
-86.4142
-58.8743
-26.1868
7.14595
37.0219
60.1839
74.5239
79.2219
74.7174
62.5332
44.9843
24.8199
4.84727
-12.4153
-25.0176
-31.7605
-32.2721
-26.9765
-16.971
-3.83536
10.5981
24.4816
36.1682
44.3833
48.3367
47.7675
42.9228
34.4799
23.4258
10.9123
-1.89451
-13.9518
-24.4507
-32.888
-39.0954
-43.225
-45.6983
-47.1257
-48.2115
-49.6556
-52.0645
-55.8828
-61.3497
-68.4861
-77.1083
-86.8658
-97.2959
-107.886
-118.134
-127.607
-135.975
-143.039
-148.735
-153.12
-156.353
-158.653
-160.267
-161.428
-162.321
-163.06
-163.666
-164.066
-164.094
-163.513
-162.034
-159.349
-155.166
-149.245
-141.431
-131.68
-120.074
-106.837
-92.3173
-76.9799
-61.3705
-46.0783
-31.6902
-18.7432
-7.67942
1.19102
7.71629
11.9141
13.9666
14.1998
13.0485
11.0115
8.60189
6.29721
4.49657
3.48771
3.42821
4.34195
6.13042
8.59654
11.4774
14.4818
17.3265
19.7694
21.6332
22.8196
23.3122
23.1693
22.5083
21.4846
20.2678
19.0196
17.8742
16.9256
16.2209
15.7605
15.5041
15.382
15.3075
15.1909
14.9513
14.5258
13.8759
12.9898
11.8824
10.5922
9.17734
7.70962
6.2689
4.93657
3.78911
2.89163
2.2915
2.01258
2.0503
2.36865
2.89962
3.54597
4.18746
4.69053
4.92061
4.75583
4.10051
2.89672
1.13228
-1.15589
-3.88383
-6.92757
-10.1347
-13.3387
-16.3747
-19.0942
-21.3781
-23.1454
-24.358
-25.0204
-25.1758
-24.8978
-24.2805
-23.4274
-22.4405
-21.4107
-20.4111
-19.4929
-18.6837
-17.9896
-17.3984
-16.8854
-16.4186
-15.9648
-15.4945
-14.9859
-14.427
-13.8164
-13.162
-12.4797
-11.7893
-11.1118
-10.4645
-9.85816
-9.29337
-8.75848
-8.22867
-7.66659
-7.02487
-6.25036
-5.29
-4.09758
-2.64069
-0.906768
1.09252
3.31958
5.71198
8.18667
10.6466
12.9895
15.1169
16.9434
18.4042
19.4608
20.1032
20.3498
20.2438
19.8484
19.2392
18.4969
17.7003
16.9198
16.2133
15.6233
15.1768
14.886
14.7508
14.7612
14.9003
15.1464
15.4745
15.8576
16.2664
16.6696
17.0341
17.3256
17.5093
17.5527
17.427
17.1103
16.5899
15.8635
14.9408
13.8419
12.5969
11.2425
9.81899
8.36672
6.92198
5.51351
4.15937
2.8648
1.6212
0.406591
-0.812405
-2.07697
-3.43116
-4.9159
-6.56246
-8.38601
-10.3801
-12.5129
-14.7255
-16.9332
-19.0305
-20.8977
-22.4112
-23.4545
-23.9295
-23.7672
-22.9357
-21.4452
-19.349
-16.74
-13.7443
-10.5101
-7.19644
-3.95948
-0.940675
1.74393
4.01128
5.81531
7.14717
8.0316
8.51988
8.67999
8.58409
8.29375
7.84224
7.2136
6.31817
4.96567
2.8393
-0.52237
-5.72536
-13.4895
-24.5745
-39.6567
-59.1587
-83.0509
-110.659
-140.522
-170.347
-197.11
-217.302
-227.334
-224.031
-205.161
-169.9
-119.155
-55.6663
16.144
90.5677
161.217
221.754
266.647
291.843
295.266
277.075
239.634
187.222
125.508
60.872
-0.332549
-52.4879
-91.2994
-114.197
-120.508
-111.401
-89.6109
-59.004
-24.0427
10.7786
41.4544
64.8858
79.1547
83.6325
78.9258
66.6795
49.2747
29.4672
10.0162
-6.65092
-18.702
-25.065
-25.486
-20.4827
-11.21
0.737349
13.5559
25.4662
34.9208
40.764
42.3308
39.4785
32.5551
22.3133
9.78725
-3.85186
-17.4407
-29.9545
-40.6082
-48.9213
-54.7411
-58.226
-59.7954
-60.0532
-59.6983
-59.4309
-59.8692
-61.4826
-64.5495
-69.1426
-75.1411
-82.2647
-90.1253
-98.2858
-106.32
-113.862
-120.645
-126.52
-131.457
-135.526
-138.875
-141.683
-144.126
-146.341
-148.392
-150.252
-151.804
-152.84
-153.087
-152.231
-149.956
-145.978
-140.078
-132.14
-122.168
-110.303
-96.8263
-82.1487
-66.7876
-51.3333
-36.4058
-22.605
-10.4603
-0.384242
7.36514
12.7076
15.7471
16.7599
16.1643
14.4764
12.2557
10.0474
8.32821
7.46159
7.66725
9.00849
11.3977
14.6185
18.361
22.2653
25.9673
29.1416
31.5356
32.9936
33.4652
33.0025
31.7435
29.8879
27.667
25.3128
23.03
20.9738
19.2368
17.8446
16.7604
15.8977
15.1382
14.3516
13.4161
12.2354
10.7506
8.94664
6.85177
4.5317
2.07917
-0.399087
-2.79604
-5.01697
-6.98937
-8.66907
-10.0424
-11.1239
-11.9516
-12.5787
-13.0654
-13.4698
-13.8409
-14.2124
-14.6004
-15.0024
-15.3993
-15.7596
-16.0442
-16.2126
-16.2285
-16.0644
-15.7053
-15.1501
-14.412
-13.5164
-12.4982
-11.3977
-10.257
-9.11524
-8.00611
-6.95518
-5.97893
-5.08498
-4.2732
-3.53764
-2.86874
-2.25555
-1.68755
-1.15586
-0.653856
-0.17702
0.277599
0.71223
1.12918
1.5314
1.92269
2.30752
2.69054
3.07595
3.46695
3.86532
4.27133
4.68408
5.1021
5.52424
5.95063
6.38337
6.82683
7.28733
7.77217
8.28811
8.83955
9.42662
10.0437
10.6783
11.3114
11.9178
12.4684
12.9321
13.2792
13.4838
13.5262
13.3948
13.0869
12.6081
11.9723
11.1995
10.314
9.34285
8.31384
7.25413
6.18943
5.14347
4.13785
3.19202
2.32333
1.54681
0.874919
0.316923
-0.121697
-0.439913
-0.641608
-0.735729
-0.736017
-0.660264
-0.529147
-0.364719
-0.188719
-0.0208965
0.122472
0.229696
0.294289
0.314995
0.295202
0.241697
0.162817
0.0661017
-0.0443204
-0.170212
-0.321097
-0.515001
-0.777684
-1.1402
-1.63497
-2.29073
-3.12726
-4.15053
-5.34917
-6.69295
-8.13342
-9.60693
-11.0396
-12.3533
-13.473
-14.3327
-14.8816
-15.0875
-14.9397
-14.4488
-13.645
-12.5748
-11.2963
-9.87426
-8.3739
-6.85604
-5.3724
-3.96217
-2.64993
-1.44513
-0.343244
0.671447
1.62118
2.52815
3.40545
4.24497
5.00115
5.57014
5.76411
5.28302
3.68821
0.386303
-5.36513
-14.4166
-27.6385
-45.7796
-69.2773
-98.0412
-131.244
-167.171
-203.174
-235.779
-260.959
-274.57
-272.896
-253.236
-214.433
-157.253
-84.5348
-1.06139
86.8418
171.951
246.942
305.237
341.787
353.671
340.445
304.179
249.2
181.551
108.276
36.6021
-26.8685
-76.8491
-109.871
-124.542
-121.547
-103.405
-74.0273
-38.1499
-0.715153
33.7183
61.4666
80.0628
88.4209
86.8179
76.714
60.4463
40.8468
20.8392
3.06477
-10.4186
-18.3341
-20.2673
-16.631
-8.53153
2.43893
14.4494
25.6828
34.5622
39.9245
41.1272
38.0786
31.1991
21.3218
9.55303
-2.88695
-14.8223
-25.2588
-33.4866
-39.1383
-42.2019
-42.9888
-42.0681
-40.1761
-38.1152
-36.6548
-36.4455
-37.9554
-41.4333
-46.9003
-54.168
-62.878
-72.5557
-82.671
-92.6985
-102.169
-110.71
-118.065
-124.108
-128.826
-132.304
-134.695
-136.182
-136.949
-137.149
-136.883
-136.182
-135.009
-133.256
-130.764
-127.342
-122.791
-116.936
-109.656
-100.909
-90.753
-79.3597
-67.0118
-54.0887
-41.0382
-28.3362
-16.4398
-5.73994
3.47982
11.0723
17.0381
21.5185
24.7698
27.1238
28.9398
30.5556
32.2431
34.1764
36.415
38.9035
41.4879
43.9445
46.017
47.4565
48.0584
47.6914
46.3159
43.9889
40.8567
37.1362
33.088
28.986
25.0862
21.6001
18.6744
16.3804
14.7128
13.5971
12.905
12.4746
12.1312
11.7088
11.0663
10.0993
8.74605
6.98674
4.83906
2.34989
-0.414384
-3.37736
-6.46087
-9.59097
-12.7013
-15.7342
-18.6392
-21.3708
-23.8857
-26.1403
-28.0893
-29.6868
-30.8882
-31.6547
-31.9577
-31.7842
-31.141
-30.0566
-28.5824
-26.7893
-24.7636
-22.6002
-20.3944
-18.2344
-16.194
-14.3272
-12.6656
-11.2177
-9.97117
-8.8971
-7.95551
-7.10158
-6.29155
-5.48769
-4.66177
-3.79687
-2.88739
-1.93772
-0.959789
0.0299474
1.01359
1.97448
2.89919
3.77854
4.60767
5.38535
6.11273
6.7919
7.42468
8.0117
8.55211
9.04383
9.48419
9.87083
10.2026
10.48
10.7054
10.8826
11.016
11.1093
11.1646
11.1815
11.1567
11.0846
10.9578
10.7684
10.5098
10.1774
9.77
9.28955
8.74096
8.13127
7.46879
6.76256
6.02248
5.26016
4.49045
3.73304
3.01346
2.36286
1.81593
1.40699
1.16474
1.10649
1.23317
1.52614
1.94686
2.43954
2.93691
3.36801
3.66714
3.78243
3.68277
3.36214
2.84047
2.16124
1.38587
0.586029
-0.165221
-0.802196
-1.27405
-1.5501
-1.62236
-1.50522
-1.2324
-0.851906
-0.419865
0.00559351
0.369419
0.622811
0.724113
0.637644
0.331162
-0.226898
-1.06918
-2.22904
-3.73743
-5.61697
-7.87384
-10.4889
-13.4095
-16.5446
-19.7632
-22.8995
-25.7632
-28.1546
-29.8838
-30.7913
-30.7664
-29.7621
-27.8039
-24.9906
-21.4865
-17.5074
-13.2996
-9.11648
-5.19395
-1.72925
1.13599
3.32551
4.83058
5.70451
6.05056
6.00479
5.71616
5.32559
4.94567
4.6417
4.41358
4.1779
3.7493
2.8218
0.953389
-2.43884
-8.06238
-16.6991
-29.1106
-45.8953
-67.3071
-93.0575
-122.143
-152.743
-182.229
-207.332
-224.448
-230.082
-221.359
-196.527
-155.371
-99.4519
-32.1135
41.7513
116.172
184.745
241.367
280.961
300.092
297.382
273.68
231.954
176.923
114.493
51.0554
-7.24518
-55.1844
-88.9936
-106.695
-108.208
-95.2219
-70.8706
-39.2613
-4.92095
27.7629
55.0387
74.1706
83.6644
83.3253
74.1553
58.116
37.7996
16.0542
-4.38528
-21.2164
-32.8057
-38.3207
-37.7516
-31.8315
-21.874
-9.55645
3.31885
15.0553
24.2562
29.9627
31.725
29.6028
24.1046
16.077
6.56392
-3.34492
-12.6558
-20.5875
-26.6504
-30.6814
-32.8356
-33.538
-33.4057
-33.1526
-33.4887
-35.0275
-38.2132
-43.2725
-50.198
-58.7611
-68.55
-79.0286
-89.6044
-99.6986
-108.809
-116.559
-122.727
-127.254
-130.236
-131.891
-132.521
-132.467
-132.056
-131.565
-131.181
-130.983
-130.931
-130.873
-130.56
-129.671
-127.853
-124.755
-120.075
-113.595
-105.217
-94.992
-83.1234
-69.9695
-56.0205
-41.8616
-28.1238
-15.4264
-4.31729
4.78049
11.6103
16.1059
18.3944
18.778
17.6969
15.6774
13.2731
11.0043
9.30606
8.48691
8.70605
9.96828
12.1372
14.9633
18.1231
21.2634
24.0445
26.1795
27.4626
27.7864
27.1459
25.631
23.4083
20.6958
17.7352
14.7631
11.9866
9.56434
7.59533
6.11611
5.10505
4.49309
4.1787
4.04471
3.97487
3.86801
3.64838
3.27139
2.72444
2.02353
1.20656
0.324622
-0.567181
-1.41818
-2.18873
-2.85426
-3.40656
-3.85247
-4.21045
-4.50579
-4.76543
-5.01311
-5.26567
-5.53088
-5.80702
-6.08417
-6.34668
-6.57656
-6.75694
-6.87515
-6.92486
-6.90697
-6.82916
-6.70419
-6.54738
-6.37362
-6.19453
-6.01624
-5.83809
-5.65262
-5.44673
-5.20393
-4.90729
-4.54261
-4.10126
-3.58227
-2.99313
-2.34936
-1.67257
-0.987628
-0.319126
0.312174
0.892352
1.41634
1.88864
2.32253
2.73811
3.15918
3.60965
4.10984
4.67325
5.3042
5.9967
6.73469
7.4937
8.24359
8.95217
9.589
10.1291
10.5556
10.8618
11.0512
11.1365
11.1373
11.0774
10.9812
10.8709
10.7636
10.6699
10.5931
10.5295
10.4691
10.3975
10.2972
10.1494
9.93545
9.63841
9.24413
8.74258
8.129
7.40508
6.5798
5.67003
4.70031
3.70202
2.71158
1.76791
0.909326
0.170148
-0.42252
-0.851459
-1.11108
-1.20802
-1.16045
-0.996248
-0.75017
-0.460416
-0.164979
0.101836
0.312364
0.447735
0.499035
0.467419
0.363207
0.20411
0.0128298
-0.18569
-0.367052
-0.509966
-0.598335
-0.622719
-0.58109
-0.478899
-0.32859
-0.148758
0.036804
0.199982
0.309071
0.329403
0.224075
-0.0449914
-0.515419
-1.22208
-2.19421
-3.45208
-5.00372
-6.84209
-8.94306
-11.2646
-13.7474
-16.3163
-18.8839
-21.3537
-23.6247
-25.5966
-27.1746
-28.2745
-28.828
-28.7869
-28.1272
-26.8511
-24.9888
-22.5972
-19.7576
-16.5713
-13.1535
-9.62676
-6.11272
-2.7253
0.436269
3.29276
5.78853
7.89308
9.60045
10.9262
11.902
12.5671
12.9563
13.0819
12.9111
12.3348
11.1344
8.94823
5.24988
-0.648037
-9.54943
-22.2763
-39.5124
-61.5992
-88.3127
-118.665
-150.784
-181.925
-208.643
-227.138
-233.731
-225.427
-200.449
-158.679
-101.888
-33.7237
40.5797
114.73
182.087
236.449
272.808
287.962
280.911
252.964
207.566
149.856
86.037
22.6324
-34.2653
-79.6578
-110.14
-124.177
-122.147
-106.149
-79.6171
-46.8186
-12.2797
19.762
45.8263
63.5246
71.7324
70.5936
61.3705
46.1734
27.6147
8.43591
-8.84241
-22.2085
-30.3555
-32.7705
-29.7183
-22.1303
-11.4237
0.720296
12.588
22.6455
29.7064
33.0413
32.4195
28.0866
20.6861
11.1415
0.516041
-10.1296
-19.8648
-27.9875
-34.085
-38.0538
-40.0796
-40.5845
-40.1513
-39.4355
-39.0782
-39.629
-41.4884
-44.8737
-49.8109
-56.15
-63.6005
-71.7792
-80.2641
-88.6464
-96.5748
-103.786
-110.123
-115.528
-120.038
-123.75
-126.793
-129.297
-131.357
-133.016
-134.251
-134.971
-135.028
-134.23
-132.375
-129.264
-124.737
-118.693
-111.104
-102.032
-91.6304
-80.1444
-67.9008
-55.2912
-42.7482
-30.7158
-19.6168
-9.81801
-1.59923
4.8717
9.55426
12.5382
14.0336
14.3482
13.8551
12.9539
12.0304
11.4191
11.3731
12.0443
13.4764
15.6092
18.2949
21.3218
24.444
27.411
29.9957
32.017
33.3549
33.9574
33.839
33.0733
31.7785
30.1013
28.1991
26.2229
24.3035
22.5411
20.999
19.7017
18.6375
17.7632
17.0126
16.3059
15.5598
14.6971
13.6553
12.3932
10.8952
9.17232
7.26105
5.21936
3.12042
1.04489
-0.927571
-2.72648
-4.29768
-5.60846
-6.65014
-7.43793
-8.00785
-8.41143
-8.70862
-8.95994
-9.21882
-9.52517
-9.90086
-10.3478
-10.8485
-11.3696
-11.8664
-12.29
-12.593
-12.7362
-12.6924
-12.45
-12.0125
-11.3978
-10.6343
-9.75699
-8.80228
-7.80383
-6.78895
-5.77648
-4.77637
-3.79074
-2.81615
-1.84676
-0.877478
0.0931852
1.06118
2.01619
2.94217
3.81908
4.62541
5.34122
5.95107
6.44656
6.82791
7.10454
7.29446
7.4226
7.51832
7.6123
7.73334
7.90528
8.14436
8.45739
8.8408
9.28053
9.75308
10.2272
10.6665
11.0323
11.2873
11.3983
11.3395
11.0952
10.6608
10.044
9.26447
8.35187
7.34406
6.2838
5.21538
4.18123
3.21882
2.35818
1.6203
1.0164
0.548151
0.208724
-0.0155736
-0.143246
-0.195417
-0.193708
-0.15841
-0.107051
-0.0534711
-0.00739791
0.025503
0.0431927
0.0465431
0.0384662
0.0230055
0.00449648
-0.0131261
-0.0268213
-0.0347162
-0.0361693
-0.0316533
-0.0225056
-0.0105997
0.00200437
0.0133828
0.0219992
0.0268469
0.0274265
0.0234734
0.0143095
-0.00231374
-0.0319433
-0.0856241
-0.182241
-0.350455
-0.629551
-1.06855
-1.72313
-2.65028
-3.90092
-5.51132
-7.4943
-9.8315
-12.4681
-15.3109
-18.2311
-21.0714
-23.6574
-25.8125
-27.3741
-28.2097
-28.2312
-27.4048
-25.7558
-23.3668
-20.3711
-16.9403
-13.2682
-9.5538
-5.98353
-2.71677
0.125472
2.46694
4.27749
5.56972
6.39162
6.81644
6.93081
6.82201
6.56458
6.20594
5.74971
5.1355
4.21439
2.72115
0.247699
-3.77358
-10.0638
-19.4539
-32.7902
-50.7841
-73.8136
-101.701
-133.512
-167.421
-200.701
-229.873
-251.025
-260.273
-254.312
-230.98
-189.719
-131.867
-60.7112
18.7393
100.221
176.887
242.09
290.154
317.051
320.875
302.049
263.257
209.088
145.476
78.9885
16.0702
-37.6585
-77.9735
-102.419
-110.449
-103.336
-83.8706
-55.9113
-23.8431
7.97931
35.7341
56.5257
68.6312
71.582
66.0881
53.8275
37.139
18.6675
1.00581
-13.6202
-23.591
-28.0355
-26.8684
-20.7282
-10.8341
1.21432
13.6634
24.8301
33.2964
38.0548
38.5904
34.8985
27.4385
17.0388
4.76621
-8.21894
-20.8057
-32.0548
-41.289
-48.144
-52.5773
-54.8396
-55.415
-54.9411
-54.1209
-53.6356
-54.0709
-55.8613
-59.2573
-64.3164
-70.9161
-78.7847
-87.5435
-96.7565
-105.979
-114.8
-122.879
-129.965
-135.91
-140.662
-144.256
-146.79
-148.4
-149.235
-149.424
-149.061
-148.182
-146.76
-144.701
-141.855
-138.031
-133.022
-126.636
-118.728
-109.233
-98.1958
-85.7846
-72.2998
-58.1624
-43.8878
-30.0456
-17.2097
-5.90391
3.45028
10.576
15.3694
17.9086
18.4437
17.3677
15.1725
12.3955
9.56385
7.1416
5.4873
4.82548
5.23483
6.6534
8.89917
11.7024
14.745
17.7025
20.2822
22.2546
23.4743
23.8885
23.5346
22.5261
21.0316
19.2489
17.3778
15.5965
14.0416
12.7968
11.8885
11.2895
10.9293
10.7087
10.5167
10.2471
9.81317
9.15726
8.25632
7.1217
5.79424
4.33579
2.81861
1.3143
-0.115979
-1.42884
-2.60265
-3.63781
-4.55375
-5.38332
-6.16565
-6.93873
-7.73274
-8.56513
-9.43793
-10.3375
-11.2366
-12.0981
-12.8797
-13.5394
-14.0401
-14.3531
-14.4608
-14.3573
-14.0475
-13.5455
-12.8724
-12.0528
-11.1131
-10.0793
-8.976
-7.82585
-6.65003
-5.46851
-4.30044
-3.16417
-2.07688
-1.05365
-0.10623
0.75829
1.53861
2.23984
2.87342
3.45607
4.00798
4.55027
5.10202
5.67752
6.28375
6.91894
7.57212
8.22395
8.84877
9.41754
9.90131
10.2749
10.5197
10.6266
10.5965
10.44
10.1765
9.83088
9.43055
9.00177
8.56645
8.13971
7.72852
7.33166
6.94087
6.54304
6.12308
5.66693
5.16444
4.61146
4.01125
3.3746
2.71908
2.06732
1.44459
0.876086
0.38424
-0.0136842
-0.307323
-0.494169
-0.579629
-0.576225
-0.502078
-0.378865
-0.229531
-0.0760085
0.0627817
0.172458
0.244092
0.274455
0.265624
0.224054
0.159233
0.0821175
0.00345354
-0.0678712
-0.126405
-0.171599
-0.209136
-0.252051
-0.32151
-0.447019
-0.665839
-1.02137
-1.56037
-2.32913
-3.36869
-4.70957
-6.36654
-8.33383
-10.5816
-13.0538
-15.6684
-18.32
-20.8845
-23.2271
-25.2113
-26.71
-27.6164
-27.8542
-27.3853
-26.2149
-24.3919
-22.006
-19.1803
-16.0607
-12.8038
-9.56341
-6.47879
-3.66406
-1.20131
0.862962
2.51771
3.78389
4.70827
5.35549
5.79901
6.11164
6.35577
6.57283
6.77092
6.90942
6.87933
6.4796
5.39178
3.15853
-0.824713
-7.29243
-17.0531
-30.8844
-49.3784
-72.7472
-100.618
-131.853
-164.458
-195.596
-221.775
-239.179
-244.133
-233.641
-205.914
-160.796
-100.007
-27.1531
52.5313
132.682
206.483
267.447
310.172
330.994
328.423
303.322
258.789
199.78
132.513
63.7349
-0.0411495
-53.2423
-91.7973
-113.491
-118.079
-107.171
-83.8924
-52.4109
-17.3642
16.713
45.9021
67.2956
79.2344
81.3749
74.5911
60.7394
42.3293
22.1466
2.88239
-13.1886
-24.4452
-30.0512
-29.9763
-24.9142
-16.1199
-5.19306
6.15797
16.3412
24.0668
28.4751
29.1954
26.336
20.4141
12.2408
2.78095
-6.99071
-16.2173
-24.2571
-30.74
-35.5811
-38.9541
-41.2328
-42.9138
-44.5308
-46.5755
-49.4336
-53.3421
-58.372
-64.4347
-71.3089
-78.6812
-86.1949
-93.4984
-100.288
-106.34
-111.529
-115.835
-119.326
-122.144
-124.474
-126.507
-128.413
-130.306
-132.229
-134.137
-135.899
-137.306
-138.086
-137.933
-136.534
-133.604
-128.914
-122.321
-113.793
-103.421
-91.4297
-78.165
-64.0803
-49.7026
-35.5917
-22.2922
-10.2842
0.06076
8.51345
15.0052
19.6284
22.6191
24.3235
25.1528
25.5335
25.8579
26.4416
27.4938
29.102
31.233
33.7484
36.432
39.0251
41.2633
42.9119
43.7947
43.8125
42.9519
41.2822
38.9426
36.1225
33.0372
29.9029
26.9133
24.2211
21.9262
20.07
18.6376
17.5662
16.757
16.0909
15.4447
14.7049
13.7804
12.6104
11.1677
9.45869
7.51863
5.40466
3.18675
0.938217
-1.27295
-3.39118
-5.37789
-7.21324
-8.89513
-10.4357
-11.856
-13.1799
-14.428
-15.6126
-16.7345
-17.7816
-18.73
-19.5474
-20.1968
-20.6428
-20.8557
-20.8166
-20.5205
-19.9769
-19.2099
-18.2555
-17.1579
-15.9654
-14.7255
-13.4806
-12.265
-11.1023
-10.0049
-8.9746
-8.00418
-7.07998
-6.18496
-5.30173
-4.41539
-3.51563
-2.59816
-1.6651
-0.724607
0.210286
1.12337
1.99726
2.81541
3.56402
4.23346
4.81925
5.32227
5.74837
6.10726
6.4109
6.67158
6.89992
7.1031
7.28369
7.43919
7.56242
7.64298
7.66919
7.63065
7.52063
7.3381
7.08888
6.7857
6.4471
6.09526
5.75309
5.44101
5.17397
4.95911
4.79459
4.66969
4.56628
4.46133
4.33026
4.1505
3.90476
3.58361
3.18703
2.72463
2.21468
1.68199
1.15501
0.662436
0.229738
-0.123943
-0.388179
-0.562605
-0.657036
-0.690287
-0.687852
-0.678747
-0.691962
-0.753053
-0.881373
-1.08834
-1.37696
-1.74249
-2.174
-2.6562
-3.17107
-3.69856
-4.21636
-4.6986
-5.11417
-5.42525
-5.58719
-5.55041
-5.26512
-4.68878
-3.79618
-2.59044
-1.11357
0.546125
2.25181
3.82302
5.04842
5.70605
5.58906
4.53396
2.44752
-0.671962
-4.72253
-9.49835
-14.7024
-19.9715
-24.9106
-29.1325
-32.2987
-34.1551
-34.5579
-33.4883
-31.052
-27.4649
-23.0276
-18.0914
-13.0207
-8.15564
-3.78143
-0.104854
2.75769
4.78116
6.02252
6.60302
6.68515
6.44736
6.05951
5.6611
5.34331
5.13402
4.98418
4.75316
4.19192
2.92518
0.43831
-3.92101
-10.9125
-21.3307
-35.8816
-55.0113
-78.7049
-106.292
-136.301
-166.426
-193.621
-214.364
-225.067
-222.57
-204.676
-170.602
-121.292
-59.4946
10.398
82.7635
151.358
210.036
253.491
277.896
281.367
264.19
228.76
179.274
121.206
60.6421
3.57293
-44.7765
-80.4857
-101.294
-106.734
-98.0507
-77.9142
-49.9952
-18.4521
12.5938
39.5334
59.6398
71.2995
74.0871
68.6916
56.7153
40.3838
22.2095
4.65565
-10.1594
-20.6855
-26.0717
-26.1989
-21.6197
-13.4231
-3.04787
7.92806
17.993
25.8783
30.6878
31.9681
29.7192
24.3474
16.574
7.31496
-2.45251
-11.8162
-20.0351
-26.6139
-31.3389
-34.2749
-35.7284
-36.1832
-36.2207
-36.4374
-37.368
-39.4267
-42.869
-47.7795
-54.0811
-61.5639
-69.9256
-78.8176
-87.8883
-96.8197
-105.352
-113.298
-120.536
-127.007
-132.691
-137.588
-141.698
-145.004
-147.463
-148.999
-149.512
-148.886
-146.998
-143.74
-139.033
-132.838
-125.171
-116.109
-105.798
-94.4437
-82.3159
-69.7331
-57.0511
-44.6447
-32.8863
-22.1227
-12.6504
-4.69342
1.61543
6.24636
9.27611
10.8816
11.3239
10.9237
10.031
8.99168
8.11547
7.64851
7.75366
8.50076
9.86734
11.7495
13.9809
16.3577
18.665
20.7033
22.3104
23.3767
23.8538
23.7546
23.1462
22.1372
20.8623
19.4638
18.0761
16.811
15.7486
14.9318
14.3661
14.0233
13.8484
13.7691
13.7051
13.5774
13.3165
12.8678
12.195
11.2817
10.13
8.75861
7.19936
5.49349
3.68766
1.83027
-0.0318576
-1.85619
-3.6065
-5.25413
-6.77836
-8.16609
-9.41066
-10.5103
-11.4659
-12.2795
-12.9523
-13.4835
-13.8707
-14.1095
-14.1955
-14.1254
-13.8994
-13.5224
-13.0056
-12.3661
-11.6267
-10.814
-9.95623
-9.08044
-8.2099
-7.36205
-6.54712
-5.7678
-5.01988
-4.29379
-3.57667
-2.85468
-2.11512
-1.34801
-0.54697
0.290681
1.16452
2.07204
3.00976
3.97423
4.96261
5.97267
7.00231
8.04856
9.10635
10.1673
11.2185
12.2424
13.2166
14.1147
14.908
15.5671
16.0649
16.3786
16.4921
16.3978
16.0978
15.6033
14.9351
14.1207
13.1931
12.1876
11.1391
10.0799
9.03706
8.03115
7.07572
6.1775
5.33751
4.55277
3.81836
3.12947
2.48319
1.87964
1.32242
0.818293
0.376099
0.0052556
-0.286027
-0.492444
-0.612957
-0.651609
-0.617654
-0.525
-0.391076
-0.235304
-0.0774888
0.063581
0.171002
0.229851
0.226365
0.146212
-0.027945
-0.319154
-0.758516
-1.38639
-2.2518
-3.40951
-4.91476
-6.816
-9.14649
-11.9157
-15.1023
-18.6486
-22.4599
-26.4059
-30.3274
-34.0457
-37.3753
-40.1371
-42.1725
-43.3552
-43.6014
-42.8762
-41.1959
-38.6271
-35.2813
-31.3066
-26.8775
-22.1819
-17.4094
-12.738
-8.3239
-4.29256
-0.732493
2.30767
4.81905
6.82932
8.39691
9.60308
10.5426
11.3136
12.0082
12.703
13.451
14.2738
15.1532
16.0204
16.7415
17.0984
16.7666
15.2945
12.0927
6.44618
-2.43829
-15.3379
-32.869
-55.3013
-82.3554
-113.023
-145.455
-176.976
-204.232
-223.52
-231.225
-224.36
-201.079
-161.114
-106.021
-39.1954
34.3742
108.597
176.949
233.23
272.314
290.769
287.279
262.79
220.389
164.906
102.325
39.0673
-18.7482
-65.9752
-98.9611
-115.86
-116.713
-103.298
-78.7905
-47.2735
-13.1918
19.1995
46.3126
65.5818
75.6636
76.4699
69.0463
55.3249
37.7935
19.1307
1.85374
-11.977
-20.9672
-24.4934
-22.702
-16.4121
-6.94457
4.09345
15.0383
24.383
30.9487
33.9988
33.2843
29.0246
21.8301
12.583
2.29536
-8.03464
-17.5503
-25.6318
-31.9498
-36.4745
-39.4435
-41.2964
-42.5885
-43.8989
-45.7453
-48.5176
-52.438
-57.5504
-63.7364
-70.7547
-78.2927
-86.0224
-93.6517
-100.963
-107.835
-114.246
-120.258
-125.989
-131.582
-137.158
-142.79
-148.471
-154.104
-159.498
-164.381
-168.42
-171.252
-172.515
-171.882
-169.091
-163.967
-156.445
-146.578
-134.544
-120.638
-105.267
-88.9273
-72.1815
-55.625
-39.849
-25.4002
-12.7405
-2.21106
5.9959
11.8528
15.4979
17.2209
17.4329
16.6247
15.3162
14.0051
13.1177
12.9709
13.7465
15.4824
18.0805
21.3297
24.9395
28.5814
31.931
34.7063
36.6973
37.7856
37.9497
37.2588
35.8563
33.9352
31.7104
29.3906
27.1551
25.1354
23.4062
21.9841
20.8342
19.8822
19.0307
18.1763
17.2251
16.1054
14.7758
13.2277
11.4834
9.59037
7.6119
5.61754
3.67331
1.83356
0.135379
-1.40409
-2.78728
-4.03319
-5.17233
-6.24051
-7.27232
-8.2953
-9.32543
-10.3646
-11.4
-12.4062
-13.3481
-14.1861
-14.8807
-15.3981
-15.7136
-15.8149
-15.7027
-15.3906
-14.9026
-14.2703
-13.5288
-12.713
-11.8536
-10.9747
-10.092
-9.21214
-8.33339
-7.44764
-6.54273
-5.6053
-4.62351
-3.58931
-2.49995
-1.35867
-0.17443
1.03906
2.26478
3.48399
4.67781
5.82842
6.91984
7.9384
8.87275
9.71385
10.4548
11.0907
11.619
12.0393
12.354
12.5682
12.69
12.7299
12.7002
12.6142
12.4841
12.3203
12.1288
11.911
11.6624
11.3728
11.0276
10.6092
10.0999
9.485
8.75552
7.91124
6.96255
5.93113
4.84923
3.75735
2.7006
1.72398
0.867294
0.160161
-0.38189
-0.759833
-0.991496
-1.1097
-1.15834
-1.18683
-1.24367
-1.36993
-1.59372
-1.92623
-2.3602
-2.87089
-3.41975
-3.96003
-4.44396
-4.8302
-5.09079
-5.21659
-5.22048
-5.13811
-5.02609
-4.95791
-5.01819
-5.29559
-5.87516
-6.83061
-8.21701
-10.0646
-12.3742
-15.1137
-18.2179
-21.5896
-25.1031
-28.6101
-31.9475
-34.9466
-37.443
-39.2879
-40.3581
-40.5653
-39.8629
-38.2511
-35.7781
-32.5378
-28.6643
-24.323
-19.6988
-14.9834
-10.361
-5.99529
-2.01877
1.47572
4.43893
6.86519
8.78814
10.2727
11.4046
12.2776
12.9809
13.5868
14.1382
14.6374
15.0337
15.2083
14.9572
13.9715
11.8187
7.93186
1.61715
-7.90811
-21.4342
-39.6286
-62.8602
-90.9978
-123.216
-157.856
-192.389
-223.519
-247.45
-260.298
-258.603
-239.881
-203.11
-149.073
-80.4887
-1.88201
80.8049
160.815
231.321
286.212
320.812
332.434
320.692
287.532
236.982
174.653
107.071
40.9181
-17.7082
-63.9354
-94.5749
-108.358
-105.931
-89.6278
-63.0641
-30.6088
3.1838
34.1173
58.8043
74.9802
81.6539
79.0917
68.6525
52.5085
33.2958
13.7449
-3.66249
-16.9721
-24.9426
-27.1259
-23.8437
-16.0727
-5.26289
6.88335
18.6394
28.4629
35.1607
37.9956
36.7274
31.5915
23.2226
12.5391
0.606899
-11.5005
-22.8268
-32.6305
-40.4461
-46.1052
-49.7202
-51.6358
-52.359
-52.4771
-52.5766
-53.1722
-54.6538
-57.2561
-61.052
-65.9673
-71.8124
-78.3251
-85.2157
-92.2105
-99.0851
-105.686
-111.938
-117.838
-123.432
-128.791
-133.978
-139.016
-143.864
-148.398
-152.412
-155.622
-157.693
-158.265
-156.995
-153.601
-147.891
-139.805
-129.427
-116.994
-102.887
-87.6085
-71.7479
-55.9344
-40.7886
-26.8709
-14.6359
-4.39521
3.70503
9.69109
13.7509
16.2072
17.4775
18.026
18.3124
18.7438
19.6356
21.1843
23.4567
26.3929
29.825
33.5061
37.1462
40.4501
43.1529
45.0494
46.013
46.0052
45.0736
43.3405
40.9837
38.2138
35.2489
32.2916
29.5097
27.0223
24.8935
23.132
21.6978
20.5126
19.4743
18.472
17.4002
16.1708
14.7207
13.0163
11.0528
8.85058
6.44886
3.89837
1.25401
-1.43113
-4.10998
-6.74346
-9.30052
-11.7567
-14.0918
-16.2875
-18.3255
-20.1865
-21.8501
-23.2962
-24.5062
-25.4652
-26.164
-26.5999
-26.7772
-26.7069
-26.4052
-25.8916
-25.1874
-24.3138
-23.2907
-22.1362
-20.8666
-19.4969
-18.0418
-16.5161
-14.9358
-13.3181
-11.681
-10.0431
-8.42272
-6.83624
-5.29767
-3.81748
-2.40218
-1.05413
0.228091
1.44899
2.61511
3.7337
4.81145
5.85325
6.86128
7.83464
8.76949
9.65975
10.4984
11.2788
11.9964
12.6501
13.2426
13.7811
14.2763
14.741
15.1886
15.6307
16.0756
16.5263
16.9802
17.4285
17.8574
18.2483
18.5788
18.8237
18.9555
18.9452
18.7638
18.3836
17.7807
16.9381
15.8488
14.5184
12.9681
11.2351
9.37241
7.44639
5.53247
3.70959
2.05364
0.630846
-0.508314
-1.33369
-1.83811
-2.0377
-1.96986
-1.68899
-1.26082
-0.755598
-0.241399
0.221928
0.587254
0.822644
0.911543
0.850761
0.646687
0.310448
-0.14713
-0.719839
-1.40895
-2.2241
-3.18204
-4.30344
-5.60823
-7.11014
-8.81118
-10.6969
-12.7332
-14.8649
-17.0167
-19.0969
-21.0028
-22.6281
-23.8717
-24.646
-24.8851
-24.5512
-23.638
-22.1721
-20.2107
-17.8369
-15.1526
-12.2702
-9.30369
-6.36067
-3.53554
-0.904884
1.47496
3.56815
5.3577
6.84259
8.03408
8.95179
9.61998
10.0641
10.3079
10.3693
10.2568
9.9614
9.44598
8.6275
7.3535
5.3734
2.31024
-2.35765
-9.2915
-19.2481
-32.985
-51.1104
-73.8885
-101.028
-131.494
-163.4
-194.02
-219.962
-237.503
-243.057
-233.712
-207.756
-165.098
-107.497
-38.5476
36.5995
111.75
180.354
236.273
274.514
291.837
287.144
261.595
218.456
162.677
100.287
37.676
-19.1354
-65.1523
-96.9006
-112.715
-112.796
-99.0392
-74.6841
-43.8227
-10.8536
20.0575
45.4419
62.8679
71.1256
70.2481
61.3813
46.5321
28.2371
9.19894
-8.06159
-21.4974
-29.7409
-32.2074
-29.0929
-21.2779
-10.1577
2.5738
15.1542
25.9696
33.7323
37.6022
37.243
32.8135
24.9003
14.4079
2.42171
-9.93558
-21.6371
-31.8595
-40.0553
-45.9853
-49.7108
-51.5526
-52.0237
-51.7487
-51.38
-51.5204
-52.6628
-55.1482
-59.1467
-64.6581
-71.5304
-79.49
-88.18
-97.2004
-106.147
-114.645
-122.376
-129.094
-134.638
-138.928
-141.962
-143.8
-144.547
-144.33
-143.279
-141.503
-139.083
-136.05
-132.393
-128.055
-122.948
-116.968
-110.018
-102.031
-92.9923
-82.9592
-72.0734
-60.5635
-48.7371
-36.961
-25.6324
-15.1424
-5.83766
2.01567
8.26053
12.866
15.9304
17.6689
18.3879
18.4489
18.2264
18.0655
18.2444
18.9465
20.246
22.1065
24.3944
26.9026
29.3826
31.5786
33.2614
34.2552
34.4573
33.8469
32.4834
30.4958
28.0647
25.4001
22.718
20.2183
18.0666
16.382
15.2306
14.6249
14.5292
14.8686
15.5394
16.4213
17.3879
18.3158
19.0908
19.6133
19.8001
19.5861
18.9256
17.7924
16.1815
14.1094
11.6158
8.76298
5.63503
2.33507
-1.01951
-4.3034
-7.3911
-10.1651
-12.5241
-14.3894
-15.7105
-16.4682
-16.6749
-16.3744
-15.6385
-14.563
-13.2619
-11.8612
-10.4903
-9.27341
-8.31962
-7.71335
-7.50558
-7.7073
-8.2863
-9.16813
-10.2417
-11.3694
-12.4007
-13.1881
-13.6031
-13.5513
-12.9833
-11.9011
-10.3584
-8.45575
-6.32948
-4.13725
-2.04103
-0.189733
1.2964
2.33799
2.9039
3.01301
2.73029
2.15777
1.42147
0.656109
-0.0106428
-0.472376
-0.655009
-0.523443
-0.0831885
0.623023
1.52298
2.52592
3.53505
4.46007
5.22799
5.79093
6.13016
6.25597
6.20374
6.02689
5.78801
5.54938
5.36428
5.27023
5.28489
5.40502
5.60843
5.85836
6.10948
6.31465
6.43134
6.42688
6.28206
5.99253
5.56835
5.03165
4.41322
3.74844
3.07327
2.42078
1.81861
1.28747
0.840676
0.484544
0.219326
0.0404246
-0.0604095
-0.094115
-0.0737007
-0.0140263
0.0680425
0.15317
0.218856
0.238573
0.180822
0.0082705
-0.322768
-0.862079
-1.66407
-2.78469
-4.27656
-6.18267
-8.52907
-11.3178
-14.5206
-18.076
-21.888
-25.8293
-29.7484
-33.478
-36.8469
-39.6917
-41.8678
-43.2593
-43.7862
-43.4085
-42.1281
-39.9871
-37.0652
-33.4739
-29.3505
-24.8504
-20.1388
-15.3816
-10.7374
-6.34803
-2.33138
1.22512
4.26888
6.78419
8.79149
10.3438
11.5207
12.419
13.1429
13.7915
14.4451
15.1511
15.9064
16.6372
17.1762
17.2356
16.3836
14.0307
9.43811
1.76373
-9.84242
-26.089
-47.3484
-73.4421
-103.447
-135.573
-167.168
-194.866
-214.918
-223.645
-217.979
-195.999
-157.37
-103.599
-38.0504
34.3051
107.382
174.658
229.939
268.108
285.755
281.589
256.592
213.877
158.301
95.8597
32.9736
-24.2556
-70.7136
-102.792
-118.695
-118.519
-104.095
-78.6432
-46.2859
-11.4945
21.4596
48.9828
68.5134
78.7194
79.5311
72.0168
58.135
40.4014
21.5223
4.04122
-9.95863
-19.0652
-22.6445
-20.8403
-14.4781
-4.89427
6.28067
17.3531
26.7821
33.354
36.2989
35.3407
30.6802
22.9221
12.9587
1.83028
-9.41765
-19.8638
-28.8113
-35.85
-40.8775
-44.0794
-45.8774
-46.8534
-47.662
-48.9427
-51.2432
-54.9593
-60.2999
-67.2753
-75.7103
-85.2761
-95.5373
-106.005
-116.194
-125.667
-134.077
-141.193
-146.904
-151.221
-154.252
-156.183
-157.237
-157.645
-157.609
-157.28
-156.733
-155.956
-154.856
-153.256
-150.923
-147.588
-142.974
-136.838
-128.997
-119.367
-107.985
-95.0288
-80.816
-65.7949
-50.5148
-35.5845
-21.6201
-9.18772
1.25057
9.38289
15.0779
18.3963
19.5812
19.0292
17.2447
14.784
12.1963
9.96783
8.47603
7.95916
8.50313
10.0465
12.4016
15.2884
18.3762
21.3264
23.8339
25.6597
26.6531
26.7618
26.0295
24.582
22.6057
20.3203
17.9505
15.6997
13.7285
12.1401
10.9747
10.2112
9.77619
9.55904
9.4293
9.25539
8.9215
8.34086
7.4643
6.28317
4.82706
3.15682
1.35433
-0.489478
-2.2866
-3.96241
-5.46333
-6.7609
-7.85208
-8.75606
-9.50832
-10.153
-10.7346
-11.2909
-11.8467
-12.4103
-12.9731
-13.5109
-13.9883
-14.3636
-14.5948
-14.6457
-14.4901
-14.1152
-13.5229
-12.7289
-11.7606
-10.6531
-9.44543
-8.17583
-6.87813
-5.57898
-4.29647
-3.04013
-1.81233
-0.610573
0.56947
1.73105
2.87387
3.99256
5.07645
6.11064
7.07806
7.9624
8.75111
9.43809
10.0255
10.5244
10.9536
11.3377
11.7032
12.0748
12.4708
12.8997
13.3575
13.8268
14.2777
14.6702
14.9585
15.096
15.0413
14.7625
14.2426
13.4814
12.4965
11.3222
10.0067
8.60689
7.18387
5.79713
4.49981
3.33472
2.33181
1.50715
0.863289
0.390906
0.0713189
-0.120465
-0.212586
-0.233388
-0.208979
-0.16145
-0.10783
-0.0597683
-0.023818
-0.00220154
0.0061382
0.0043682
-0.00336356
-0.0128942
-0.0207735
-0.0247292
-0.0239024
-0.0189304
-0.0119897
-0.00691766
-0.00950985
-0.0280312
-0.0738966
-0.162378
-0.31311
-0.550128
-0.901184
-1.39619
-2.06477
-2.93317
-4.0208
-5.33699
-6.87836
-8.62741
-10.5525
-12.6094
-14.7444
-16.8981
-19.0097
-21.0218
-22.883
-24.5503
-25.9889
-27.1709
-28.073
-28.6736
-28.9503
-28.8791
-28.4351
-27.5944
-26.3388
-24.6602
-22.5652
-20.0786
-17.2457
-14.1312
-10.8171
-7.39719
-3.97101
-0.636758
2.51556
5.40994
7.98855
10.214
12.0694
13.5566
14.6925
15.5036
16.0199
16.2651
16.2459
15.9357
15.2543
14.0412
12.026
8.7997
3.79805
-3.69118
-14.4799
-29.3789
-49.0392
-73.7485
-103.207
-136.332
-171.137
-204.746
-233.568
-253.635
-261.094
-252.766
-226.701
-182.634
-122.246
-49.18
31.226
112.451
187.499
249.706
293.532
315.224
313.273
288.583
244.349
185.653
118.843
50.7791
-11.9511
-63.7541
-100.594
-120.341
-122.875
-109.947
-84.8258
-51.7983
-15.5879
19.2299
48.7434
70.0952
81.7116
83.3566
76.0202
61.6703
42.911
22.5979
3.46098
-12.2182
-22.8427
-27.6286
-26.6199
-20.6003
-10.9228
0.714529
12.5131
22.8065
30.2546
33.9781
33.6232
29.3552
21.7884
11.8669
0.716317
-10.5139
-20.7956
-29.3399
-35.6733
-39.6697
-41.5357
-41.7565
-41.0135
-40.0844
-39.741
-40.6566
-43.3323
-48.0498
-54.8535
-63.5599
-73.7917
-85.0302
-96.6784
-108.126
-118.812
-128.275
-136.186
-142.373
-146.813
-149.623
-151.022
-151.297
-150.753
-149.671
-148.262
-146.644
-144.814
-142.653
-139.932
-136.35
-131.568
-125.267
-117.2
-107.242
-95.4314
-81.9883
-67.3164
-51.9775
-36.646
-22.046
-8.87858
2.25183
10.9022
16.8395
20.0649
20.8127
19.5215
16.7832
13.2754
9.68581
6.63889
4.63242
3.99214
4.84853
7.13762
10.624
14.9418
19.6479
24.2788
28.4059
31.6804
33.8659
34.8536
34.6613
33.4184
31.3384
28.6858
25.7404
22.7646
19.9761
17.531
15.5147
13.944
12.7762
11.9246
11.277
10.7148
10.1295
9.43626
8.58166
7.54647
6.34331
5.01029
3.60206
2.17976
0.801562
-0.485133
-1.64877
-2.67562
-3.56883
-4.34486
-5.02825
-5.64563
-6.22004
-6.76636
-7.28863
-7.77948
-8.22176
-8.5919
-8.86439
-9.01658
-9.03298
-8.90838
-8.64925
-8.27337
-7.80758
-7.28428
-6.73706
-6.19636
-5.68569
-5.21909
-4.80005
-4.42218
-4.07115
-3.72779
-3.37156
-2.984
-2.55153
-2.06727
-1.53162
-0.951718
-0.339767
0.28918
0.919783
1.53881
2.137
2.71024
3.25971
3.79131
4.31422
4.83899
5.37537
5.93031
6.50623
7.09994
7.70224
8.29819
8.86813
9.38916
9.83711
10.1887
10.4237
10.5271
10.4903
10.3126
10.0013
9.57139
9.04383
8.44409
7.7994
7.13617
6.47751
5.84118
5.23837
4.67345
4.1447
3.64592
3.16857
2.70427
2.24692
1.79449
1.34984
0.920718
0.518828
0.158185
-0.146985
-0.384438
-0.545882
-0.628413
-0.635234
-0.575571
-0.463842
-0.318246
-0.159027
-0.00671451
0.119375
0.202105
0.226792
0.180705
0.051856
-0.172712
-0.508787
-0.976551
-1.60136
-2.41331
-3.44543
-4.73038
-6.29606
-8.16064
-10.3276
-12.7817
-15.4863
-18.3828
-21.392
-24.4181
-27.3533
-30.085
-32.502
-34.5008
-35.9918
-36.9025
-37.1803
-36.7936
-35.7317
-34.0041
-31.6392
-28.6841
-25.2032
-21.2775
-17.0032
-12.4903
-7.85984
-3.24001
1.23832
5.44722
9.26769
12.5956
15.3471
17.4625
18.9081
19.6755
19.777
19.2361
18.0726
16.2824
13.8099
10.5175
6.15472
0.335551
-7.46644
-17.8909
-31.6203
-49.2581
-71.1602
-97.2357
-126.753
-158.195
-189.212
-216.716
-237.137
-246.814
-242.506
-221.923
-184.196
-130.213
-62.7282
13.7764
93.4846
169.845
236.302
287.057
317.754
326.002
311.652
276.799
225.52
163.373
96.7368
32.0761
-24.7682
-69.1844
-98.2175
-110.778
-107.618
-91.0989
-64.7872
-32.9413
0.0371528
30.1217
54.0884
69.8086
76.3838
74.1214
64.3674
49.2326
31.253
13.0334
-3.08062
-15.2659
-22.3941
-24.1015
-20.7572
-13.3449
-3.28047
7.80531
18.2891
26.7541
32.1441
33.8574
31.7747
26.2248
17.8967
7.71676
-3.29168
-14.1455
-24.0194
-32.3299
-38.7796
-43.3598
-46.3156
-48.0832
-49.2097
-50.2682
-51.7807
-54.1566
-57.6531
-62.3615
-68.2151
-75.0178
-82.4835
-90.2834
-98.0902
-105.616
-112.64
-119.023
-124.705
-129.7
-134.076
-137.927
-141.35
-144.422
-147.172
-149.568
-151.51
-152.823
-153.272
-152.576
-150.432
-146.55
-140.692
-132.701
-122.546
-110.337
-96.3452
-80.9949
-64.8438
-48.5433
-32.7849
-18.2378
-5.48477
5.03574
13.0728
18.5863
21.7461
22.9081
22.569
21.3065
19.7125
18.3282
17.5882
17.7811
19.0295
21.2919
24.3836
28.0131
31.8284
35.4665
38.5993
40.9713
42.4242
42.907
42.472
41.2575
39.4627
37.3162
35.0456
32.8492
30.8762
29.2139
27.8857
26.8571
26.0485
25.3529
24.6549
23.8486
22.8521
21.6168
20.1318
18.422
16.5414
14.5644
12.5739
10.6505
8.8631
7.26178
5.8741
4.70466
3.73754
2.94107
2.27395
1.69182
1.15343
0.625567
0.0863539
-0.473324
-1.05026
-1.63096
-2.19482
-2.718
-3.17756
-3.55505
-3.83943
-4.02864
-4.12987
-4.15827
-4.13454
-4.08163
-4.02118
-3.97018
-3.93846
-3.92726
-3.92914
-3.92935
-3.90823
-3.84453
-3.71896
-3.51753
-3.2341
-2.87183
-2.44335
-1.96944
-1.47673
-0.994528
-0.55127
-0.171176
0.128553
0.339568
0.463053
0.5092
0.495605
0.444876
0.381817
0.330608
0.312361
0.343354
0.434091
0.58919
0.807949
1.08533
1.41305
1.78058
2.17573
2.58499
2.99349
3.385
3.74191
4.04572
4.27794
4.42155
4.46283
4.39338
4.21184
3.92511
3.54855
3.105
2.62273
2.13231
1.6631
1.23961
0.878513
0.586737
0.361009
0.188885
0.0511468
-0.0748801
-0.211672
-0.378147
-0.587129
-0.843981
-1.14644
-1.48549
-1.84678
-2.21234
-2.56193
-2.87393
-3.12576
-3.29374
-3.35317
-3.27869
-3.04576
-2.63316
-2.02675
-1.22381
-0.237368
0.900601
2.13799
3.40411
4.61434
5.67754
6.50552
7.02329
7.17867
6.94975
6.34903
5.4235
4.25043
2.92937
1.57117
0.28555
-0.831295
-1.7073
-2.30197
-2.60957
-2.65757
-2.50049
-2.21024
-1.86405
-1.53222
-1.26743
-1.09755
-1.02327
-1.02107
-1.05131
-1.06985
-1.04158
-0.953108
-0.822545
-0.704249
-0.687502
-0.888873
-1.43906
-2.46586
-4.07547
-6.33466
-9.2562
-12.7896
-16.8182
-21.1643
-25.5996
-29.8631
-33.6822
-36.7956
-38.9766
-40.0532
-39.9242
-38.5684
-36.0473
-32.5001
-28.1316
-23.1942
-17.9661
-12.7272
-7.73624
-3.20988
0.69231
3.87713
6.31982
8.0592
9.18663
9.83021
10.1354
10.2437
10.2697
10.2775
10.2547
10.0859
9.52556
8.1756
5.47527
0.714963
-6.91295
-18.2159
-33.8523
-54.1426
-78.8653
-107.079
-137.02
-166.115
-191.152
-208.599
-215.052
-207.746
-185.055
-146.885
-94.8858
-32.4311
35.6551
103.59
165.285
215.07
248.377
262.305
255.968
230.59
189.337
136.91
78.9685
21.4458
-30.1287
-71.2325
-98.7978
-111.46
-109.586
-95.0965
-71.1162
-41.5069
-10.3527
18.5387
42.0567
58.0886
65.6704
64.9866
57.2289
44.3477
28.733
12.874
-0.962848
-10.9966
-16.1114
-15.9377
-10.8345
-1.78537
9.77364
22.1652
33.6933
42.8497
48.4799
49.8948
46.9163
39.8604
29.4628
16.761
2.95139
-10.7607
-23.3
-33.8337
-41.8458
-47.1695
-49.9757
-50.724
-50.0839
-48.8396
-47.7892
-47.6522
-48.994
-52.1755
-57.3305
-64.37
-73.0114
-82.8251
-93.2918
-103.863
-114.018
-123.311
-131.402
-138.08
-143.264
-146.99
-149.393
-150.672
-151.058
-150.779
-150.025
-148.923
-147.521
-145.78
-143.578
-140.728
-137
-132.153
-125.97
-118.295
-109.059
-98.3075
-86.2137
-73.078
-59.315
-45.4263
-31.9623
-19.4754
-8.47164
0.636418
7.56751
12.1974
14.5689
14.8843
13.4825
10.8023
7.33696
3.58538
0.00500179
-3.02789
-5.24678
-6.50972
-6.79983
-6.21231
-4.93062
-3.19547
-1.27064
0.590006
2.17073
3.31461
3.93505
4.01773
3.6139
2.82664
1.7927
0.66228
-0.420313
-1.33318
-1.98876
-2.34029
-2.38266
-2.1482
-1.69848
-1.11347
-0.479851
0.120297
0.618822
0.968153
1.14467
1.14876
1.00199
0.741947
0.415734
0.073062
-0.240232
-0.487427
-0.644442
-0.701391
-0.662196
-0.54252
-0.366436
-0.162394
0.0410148
0.218964
0.353577
0.436112
0.467961
0.460448
0.433506
0.413444
0.430075
0.513585
0.691486
0.986019
1.41228
1.97726
2.67979
3.51142
4.4578
5.5006
6.61922
7.79246
8.99959
10.2209
11.4376
12.6315
13.7844
14.8772
15.89
16.8017
17.5907
18.2358
18.7179
19.0213
19.1355
19.0568
18.7892
18.3451
17.745
17.0167
16.194
15.3138
14.4145
13.532
12.6976
11.9349
11.2579
10.6699
10.1631
9.71978
9.31403
8.91467
8.48879
8.00549
7.43958
6.77485
6.00639
5.14176
4.20065
3.21291
2.21504
1.24537
0.338486
-0.480468
-1.20085
-1.83014
-2.39559
-2.9434
-3.53548
-4.24388
-5.14361
-6.30459
-7.78375
-9.61827
-11.8208
-14.3772
-17.2468
-20.3653
-23.6491
-27.0016
-30.3184
-33.4939
-36.425
-39.0153
-41.1773
-42.8339
-43.9194
-44.3808
-44.1789
-43.2901
-41.7085
-39.4481
-36.5451
-33.0585
-29.0705
-24.6843
-20.0196
-15.2071
-10.3808
-5.66905
-1.18678
2.97258
6.74266
10.0874
13.0012
15.5058
17.6446
19.4747
21.0563
22.4427
23.6679
24.7333
25.5928
26.1346
26.1597
25.3599
23.2986
19.4033
12.981
3.26769
-10.4752
-28.8177
-51.9774
-79.6213
-110.69
-143.295
-174.728
-201.624
-220.28
-227.105
-219.141
-194.587
-153.224
-96.6582
-28.335
46.7112
122.344
191.993
249.413
289.429
308.559
305.438
280.972
238.219
182
118.312
53.6176
-5.89487
-54.9876
-89.8989
-108.666
-111.219
-99.2373
-75.8242
-45.0263
-11.2881
21.0969
48.4684
68.1628
78.7239
79.9493
72.7816
59.0726
41.262
22.0172
3.88304
-11.0172
-21.1977
-25.9259
-25.2332
-19.8309
-10.9527
-0.148656
10.9368
20.7752
28.1275
32.1639
32.5208
29.2945
22.98
14.3671
4.41241
-5.89655
-15.6658
-24.1957
-31.0468
-36.069
-39.3913
-41.3797
-42.5717
-43.5956
-45.0881
-47.6176
-51.6237
-57.3757
-64.9551
-74.2589
-85.0233
-96.8615
-109.31
-121.879
-134.097
-145.55
-155.912
-164.954
-172.556
-178.688
-183.4
-186.796
-189.008
-190.172
-190.404
-189.786
-188.352
-186.086
-182.921
-178.748
-173.43
-166.82
-158.781
-149.212
-138.072
-125.405
-111.356
-96.1822
-80.2497
-64.0226
-48.0351
-32.854
-19.0328
-7.06338
2.67014
9.9293
14.6453
16.9264
17.0472
15.4199
12.5531
8.9997
5.30291
1.94549
-0.692374
-2.3615
-2.95634
-2.51112
-1.18116
0.787317
3.09469
5.42755
7.49593
9.06385
9.97051
10.1406
9.58392
8.3849
6.68557
4.66359
2.5091
0.403055
-1.50074
-3.08826
-4.29182
-5.09082
-5.50715
-5.59668
-5.43829
-5.12194
-4.73721
-4.36352
-4.06271
-3.8745
-3.81484
-3.87699
-4.0349
-4.24817
-4.46811
-4.64415
-4.72981
-4.688
-4.49489
-4.1423
-3.63836
-3.00649
-2.28285
-1.51249
-0.744734
-0.0281212
0.594319
1.08909
1.435
1.62446
1.66313
1.56818
1.36534
1.08539
0.760465
0.420844
0.0925459
-0.203957
-0.453888
-0.647313
-0.777614
-0.839667
-0.828169
-0.736449
-0.556015
-0.276894
0.11133
0.618
1.24972
2.00889
2.89268
3.89264
4.99505
6.18169
7.43107
8.71965
10.023
11.3165
12.5759
13.7773
14.8972
15.9126
16.8013
17.5423
18.1176
18.5129
18.7199
18.7375
18.5726
18.2406
17.7646
17.1739
16.5012
15.7801
15.0422
14.3143
13.6167
12.9622
12.3561
11.797
11.2786
10.791
10.323
9.86385
9.40367
8.93452
8.45022
7.94602
7.4182
6.8637
6.28018
5.66629
5.02246
4.35177
3.66087
2.96061
2.26608
1.59608
0.971813
0.414985
-0.054454
-0.420636
-0.673808
-0.811773
-0.840508
-0.773874
-0.632485
-0.441966
-0.23093
-0.0291017
0.134072
0.230031
0.230877
0.108482
-0.166674
-0.626374
-1.30465
-2.23643
-3.45464
-4.9859
-6.84534
-9.03129
-11.5207
-14.266
-17.1947
-20.211
-23.1999
-26.0344
-28.5829
-30.7186
-32.3285
-33.3217
-33.6362
-33.2433
-32.1504
-30.3998
-28.0661
-25.2501
-22.0716
-18.6603
-15.1472
-11.6554
-8.29327
-5.1488
-2.28685
0.251757
2.44883
4.30587
5.83997
7.07933
8.05863
8.81472
9.38243
9.78997
10.0528
10.1644
10.082
9.70642
8.85568
7.2348
4.40849
-0.214077
-7.36908
-17.8883
-32.5985
-52.167
-76.903
-106.54
-140.044
-175.486
-210.05
-240.18
-261.903
-271.291
-265.002
-240.832
-198.178
-138.331
-64.5344
18.2248
103.665
184.862
255.014
308.213
340.128
348.496
333.371
297.087
243.962
179.766
111.041
44.3643
-14.3653
-60.5217
-91.1641
-105.23
-103.497
-88.3413
-63.3216
-32.6708
-0.747975
28.4723
51.8179
67.2014
73.7464
71.7561
62.5438
48.1595
31.0558
13.7407
-1.54079
-13.0571
-19.7522
-21.3066
-18.1007
-11.0957
-1.65466
8.66742
18.3358
26.0239
30.7556
31.9906
29.6461
24.0607
15.9092
6.08556
-4.42979
-14.6985
-23.9349
-31.5854
-37.371
-41.2914
-43.5946
-44.7194
-45.2212
-45.6933
-46.6918
-48.6752
-51.9612
-56.7061
-62.9035
-70.4017
-78.9342
-88.1579
-97.6946
-107.17
-116.245
-124.644
-132.163
-138.678
-144.137
-148.548
-151.959
-154.441
-156.065
-156.886
-156.927
-156.178
-154.588
-152.074
-148.533
-143.851
-137.924
-130.675
-122.07
-112.138
-100.978
-88.7718
-75.7818
-62.3445
-48.8534
-35.7349
-23.4161
-12.291
-2.68604
5.16908
11.1621
15.3076
17.7434
18.715
18.5483
17.6156
16.2979
14.9475
13.8564
13.2324
13.1869
13.7331
14.7961
16.2315
17.851
19.4499
20.8348
21.8465
22.3769
22.3781
21.8625
20.8963
19.5862
18.0626
16.4622
14.9105
13.5083
12.3221
11.3803
10.6733
10.1594
9.77246
9.43285
9.05763
8.57068
7.91071
7.0369
5.93187
4.60187
3.07456
1.39483
-0.380695
-2.19002
-3.97211
-5.67274
-7.2493
-8.67405
-9.93568
-11.0388
-12.0018
-12.8528
-13.6248
-14.3494
-15.052
-15.7463
-16.4309
-17.0884
-17.6855
-18.1766
-18.509
-18.6294
-18.4912
-18.0617
-17.3276
-16.2985
-15.0081
-13.5114
-11.8799
-10.1941
-8.53491
-6.9749
-5.57073
-4.35778
-3.34783
-2.53001
-1.87478
-1.34035
-0.880369
-0.451758
-0.0214646
0.428866
0.900888
1.3804
1.84077
2.24825
2.56831
2.7719
2.84067
2.77047
2.5725
2.27224
1.90625
1.51762
1.15064
0.845594
0.634397
0.53754
0.562666
0.704786
0.947892
1.26759
1.63427
2.01637
2.38331
2.70785
2.96779
3.1469
3.23523
3.22895
3.12978
2.94414
2.68212
2.35619
1.97989
1.56647
1.12776
0.673323
0.210248
-0.256503
-0.723149
-1.18572
-1.63852
-2.07273
-2.47539
-2.82913
-3.11261
-3.30188
-3.37244
-3.3019
-3.073
-2.67646
-2.11351
-1.39762
-0.555128
0.375427
1.3453
2.29879
3.17754
3.92536
4.49321
4.84381
4.95527
4.8234
4.46251
3.9043
3.19523
2.39238
1.55832
0.755429
0.0403881
-0.540811
-0.956644
-1.19233
-1.25038
-1.14933
-0.920967
-0.606247
-0.250499
0.10156
0.410429
0.645551
0.787794
0.830469
0.778872
0.648471
0.461956
0.245412
0.023845
-0.183713
-0.369216
-0.54028
-0.723869
-0.968128
-1.34149
-1.92833
-2.82083
-4.10737
-5.8585
-8.11217
-10.8605
-14.0405
-17.5303
-21.1534
-24.6899
-27.8947
-30.5204
-32.3432
-33.1867
-32.9428
-31.5852
-29.1748
-25.8556
-21.8424
-17.3999
-12.8181
-8.38373
-4.35411
-0.933558
1.74352
3.6219
4.7261
5.15248
5.05379
4.61805
4.04397
3.51519
3.17559
3.10702
3.3102
3.68862
4.03449
4.01683
3.17258
0.905197
-3.50145
-10.8429
-21.916
-37.396
-57.671
-82.6502
-111.579
-142.904
-174.238
-202.465
-223.996
-235.172
-232.771
-214.531
-179.62
-128.95
-65.2739
6.97004
82.0642
153.62
215.309
261.609
288.477
293.829
277.787
242.646
192.575
133.101
70.4347
10.7548
-40.4845
-79.1179
-102.651
-110.42
-103.529
-84.575
-57.2306
-25.7217
5.70924
33.2981
54.1514
66.4995
69.7916
64.6349
52.6013
35.9372
17.2197
-0.991258
-16.4642
-27.5361
-33.258
-33.4399
-28.598
-19.8217
-8.58446
3.4722
14.7534
23.8971
29.913
32.2617
30.8708
26.0928
18.6161
9.34473
-0.734454
-10.6806
-19.7073
-27.26
-33.0565
-37.0894
-39.5944
-40.9925
-41.8156
-42.628
-43.9517
-46.2063
-49.6682
-54.4522
-60.514
-67.6728
-75.6469
-84.0966
-92.6691
-101.038
-108.934
-116.165
-122.621
-128.268
-133.134
-137.288
-140.812
-143.783
-146.244
-148.198
-149.598
-150.345
-150.299
-149.294
-147.154
-143.715
-138.844
-132.46
-124.546
-115.16
-104.439
-92.6007
-79.9372
-66.8016
-53.592
-40.7289
-28.6276
-17.6699
-8.17452
-0.371286
5.61864
9.79357
12.2714
13.2785
13.1275
12.1875
10.8479
9.48208
8.41243
7.88285
8.03974
8.92428
10.476
12.547
14.9245
17.3592
19.5956
21.4018
22.5937
23.0532
22.7376
21.6798
19.9803
17.792
15.3004
12.7015
10.1809
7.89532
5.9592
4.43766
3.34533
2.65108
2.28736
2.16251
2.17419
2.22243
2.22054
2.10305
1.82996
1.38744
0.78513
0.0511944
-0.774263
-1.64612
-2.52064
-3.36066
-4.1389
-4.83947
-5.45742
-5.99679
-6.46759
-6.88236
-7.25274
-7.58671
-7.8867
-8.14884
-8.36338
-8.51606
-8.59017
-8.5691
-8.43873
-8.18953
-7.818
-7.32725
-6.7267
-6.03097
-5.25811
-4.42751
-3.55778
-2.66494
-1.76127
-0.854914
0.0495374
0.94981
1.84414
2.72939
3.59947
4.44441
5.2504
6.0008
6.67808
7.26635
7.75402
8.13622
8.41636
8.60658
8.72675
8.80217
8.86019
8.92613
9.01923
9.14917
9.31382
9.49862
9.67777
9.81711
9.87842
9.82435
9.62349
9.25474
8.71048
7.99804
7.13946
6.16954
5.1325
4.07772
3.05512
2.11061
1.28229
0.597531
0.0713508
-0.293919
-0.507795
-0.58988
-0.567613
-0.474095
-0.346548
-0.22584
-0.157214
-0.191899
-0.388886
-0.815815
-1.54787
-2.6638
-4.23874
-6.33396
-8.98466
-12.1874
-15.8896
-19.9821
-24.299
-28.6236
-32.702
-36.2632
-39.0437
-40.8133
-41.4006
-40.7124
-38.747
-35.5978
-31.4472
-26.5516
-21.2177
-15.7748
-10.5444
-5.81119
-1.79853
1.34879
3.57352
4.90554
5.45272
5.38441
4.90975
4.2534
3.63126
3.22871
3.18313
3.57169
4.40431
5.62039
7.08684
8.59435
9.84919
10.4598
9.92096
7.60243
2.75504
-5.45167
-17.8458
-35.1164
-57.6296
-85.2195
-116.993
-151.198
-185.206
-215.643
-238.689
-250.52
-247.833
-228.4
-191.521
-138.329
-71.8563
3.16489
80.7413
154.262
217.252
264.134
290.891
295.548
278.39
241.906
190.468
129.784
66.2131
6.0303
-45.2689
-83.5317
-106.322
-113.069
-104.987
-84.7894
-56.2513
-23.6813
8.62486
36.881
58.202
70.8512
74.3276
69.2963
57.3857
40.8881
22.4107
4.52276
-10.5567
-21.1972
-26.499
-26.3319
-21.2761
-12.4818
-1.47323
10.074
20.5519
28.6094
33.2918
34.1187
31.0962
24.6694
15.6264
4.96939
-6.22624
-16.949
-26.3663
-33.9075
-39.3062
-42.6023
-44.1067
-44.3375
-43.9365
-43.5806
-43.897
-45.3939
-48.4119
-53.1009
-59.4214
-67.168
-76.0092
-85.536
-95.3141
-104.931
-114.033
-122.355
-129.728
-136.08
-141.422
-145.829
-149.405
-152.262
-154.486
-156.116
-157.128
-157.427
-156.855
-155.199
-152.216
-147.664
-141.335
-133.093
-122.903
-110.859
-97.1956
-82.2906
-66.6449
-50.8527
-35.556
-21.3893
-8.92213
1.39683
9.28462
14.6539
17.6225
18.5004
17.7564
15.9657
13.7467
11.6931
10.3098
9.96113
10.8365
12.9379
16.091
19.9761
24.1755
28.2311
31.7029
34.2233
35.5383
35.5334
34.2407
31.8274
28.5698
24.8147
20.9363
17.2922
14.1849
11.8323
10.3512
9.7526
9.95057
10.7811
12.0279
13.4525
14.823
15.9403
16.6568
16.8882
16.6158
15.8817
14.7761
13.4217
11.9547
10.5065
9.18814
8.07901
7.22005
6.61306
6.22476
5.99503
5.8478
5.703
5.48804
5.14713
4.6478
3.9836
3.17335
2.25701
1.28919
0.331164
-0.557407
-1.326
-1.93908
-2.3797
-2.65041
-2.77162
-2.77771
-2.71149
-2.61786
-2.53746
-2.50123
-2.52643
-2.61484
-2.75305
-2.91497
-3.06594
-3.16809
-3.18594
-3.09168
-2.86934
-2.51744
-2.04961
-1.49334
-0.88685
-0.274526
0.298394
0.791338
1.1733
1.42651
1.54842
1.5517
1.46227
1.31576
1.15263
1.01284
0.930699
0.930508
1.02366
1.20746
1.46583
1.77175
2.09105
2.38709
2.62563
2.7793
2.83097
2.77574
2.62108
2.38541
2.09513
1.78077
1.4727
1.1971
0.972742
0.808934
0.705033
0.651358
0.631412
0.624991
0.611674
0.574163
0.500982
0.388178
0.239821
0.067287
-0.112534
-0.279812
-0.414748
-0.50052
-0.525774
-0.486331
-0.385863
-0.235506
-0.0524654
0.142101
0.325601
0.476497
0.576381
0.611319
0.572294
0.454807
0.257899
-0.0169222
-0.366321
-0.784867
-1.26365
-1.78798
-2.33464
-2.86979
-3.34837
-3.71601
-3.91379
-3.88572
-3.58786
-2.99758
-2.12119
-0.998113
0.299436
1.67186
3.00213
4.16904
5.0619
5.59446
5.71611
5.41853
4.73703
3.74624
2.55088
1.27291
0.0369337
-1.0443
-1.88219
-2.42116
-2.64295
-2.56629
-2.2423
-1.74661
-1.16974
-0.607086
-0.150091
0.120448
0.138342
-0.146674
-0.769748
-1.75294
-3.10748
-4.8354
-6.9299
-9.37433
-12.1401
-15.1839
-18.4454
-21.8455
-25.287
-28.657
-31.8317
-34.6827
-37.0857
-38.9286
-40.1195
-40.5941
-40.3199
-39.2988
-37.5671
-35.1925
-32.2687
-28.9092
-25.2389
-21.3853
-17.4711
-13.6062
-9.88276
-6.37109
-3.11839
-0.149445
2.5308
4.93317
7.07925
8.99593
10.71
12.2427
13.6039
14.7857
15.7519
16.4252
16.6664
16.25
14.8347
11.9375
6.92092
-0.992384
-12.6621
-28.9183
-50.3929
-77.3082
-109.253
-144.991
-182.357
-218.284
-249.005
-270.408
-278.542
-270.184
-243.395
-197.971
-135.688
-60.3054
22.7127
106.725
184.626
249.661
296.208
320.452
320.824
298.175
255.646
198.271
132.352
64.7146
1.92446
-50.4245
-88.2716
-109.437
-113.726
-102.793
-79.7999
-48.9229
-14.7805
18.1411
45.997
65.9696
76.4974
77.3312
69.429
54.7155
35.7507
15.353
-3.76978
-19.3399
-29.7455
-34.1721
-32.6254
-25.8532
-15.185
-2.31911
10.9145
22.7834
31.8482
37.1041
38.058
34.7375
27.6381
17.621
5.77737
-6.72019
-18.7621
-29.4247
-38.059
-44.3398
-48.2709
-50.1517
-50.5122
-50.0263
-49.4166
-49.3628
-50.423
-52.9784
-57.2036
-63.0661
-70.3497
-78.6997
-87.6792
-96.8304
-105.731
-114.039
-121.521
-128.067
-133.675
-138.435
-142.493
-146.011
-149.13
-151.937
-154.44
-156.556
-158.114
-158.868
-158.52
-156.754
-153.275
-147.844
-140.312
-130.651
-118.969
-105.521
-90.6946
-74.9974
-59.0205
-43.398
-28.758
-15.6733
-4.61411
4.08959
10.2746
13.9546
15.3144
14.6876
12.5205
9.32711
5.63886
1.95531
-1.29899
-3.80719
-5.37957
-5.95822
-5.60755
-4.49264
-2.84879
-0.946395
0.94443
2.58553
3.79526
4.46379
4.55836
4.11872
3.24451
2.07675
0.776382
-0.497219
-1.60526
-2.44392
-2.95293
-3.11786
-2.96659
-2.56099
-1.98531
-1.3332
-0.694984
-0.146832
0.256994
0.488288
0.545221
0.449289
0.239612
-0.034347
-0.320569
-0.571684
-0.750746
-0.834995
-0.817323
-0.705544
-0.519763
-0.288431
-0.0437161
0.183126
0.365797
0.485971
0.535058
0.514693
0.436134
0.318866
0.188752
0.0760189
0.0132744
0.0336375
0.168955
0.448043
0.894904
1.52691
2.35304
3.37243
4.57332
5.93279
7.41747
8.9852
10.5877
12.1742
13.6953
15.107
16.3747
17.4755
18.4003
19.1536
19.7521
20.2219
20.5949
20.9038
21.1782
21.4403
21.7024
21.965
22.2168
22.4364
22.5949
22.6595
22.5978
22.3816
21.9907
21.4151
20.6563
19.7274
18.6511
17.4575
16.1804
14.8534
13.5066
12.1623
10.8332
9.51981
8.21
6.87924
5.4923
4.0063
2.37489
0.55357
-1.49458
-3.79315
-6.34753
-9.14144
-12.1355
-15.2682
-18.4588
-21.613
-24.6291
-27.4053
-29.8468
-31.8716
-33.4151
-34.4322
-34.8983
-34.8076
-34.1706
-33.0109
-31.3612
-29.26
-26.7494
-23.8731
-20.676
-17.2051
-13.5097
-9.64255
-5.66056
-1.62465
2.4005
6.34724
10.1458
13.725
17.013
19.9379
22.4289
24.4165
25.834
26.6167
26.6978
26.0002
24.4194
21.7987
17.8984
12.365
4.71382
-5.65999
-19.4259
-37.2055
-59.404
-86.0029
-116.347
-148.979
-181.57
-211.001
-233.602
-245.562
-243.445
-224.752
-188.422
-135.198
-67.7651
9.37512
90.2945
168.252
236.452
288.84
320.831
329.865
315.705
280.459
228.309
164.991
97.1072
31.3565
-26.212
-70.835
-99.4829
-111.077
-106.464
-88.1652
-59.9506
-26.2961
8.19368
39.3301
63.786
79.3984
85.3032
81.9017
70.6778
53.9036
34.279
14.5558
-2.80498
-15.9057
-23.5879
-25.4991
-22.0548
-14.3107
-3.76921
7.8474
18.8286
27.6815
33.2895
35.0093
32.701
26.6942
17.7009
6.69169
-5.24682
-17.0538
-27.8177
-36.8699
-43.8384
-48.6609
-51.5595
-52.9835
-53.5313
-53.8623
-54.6103
-56.3093
-59.3384
-63.8925
-69.9772
-77.4284
-85.9509
-95.1681
-104.677
-114.101
-123.125
-131.529
-139.191
-146.084
-152.246
-157.758
-162.702
-167.127
-171.022
-174.301
-176.795
-178.265
-178.425
-176.972
-173.622
-168.154
-160.436
-150.454
-138.331
-124.322
-108.814
-92.2996
-75.347
-58.5641
-42.5531
-27.8661
-14.963
-4.17596
4.31496
10.4936
14.5036
16.63
17.2671
16.8768
15.9417
14.918
14.1941
14.0578
14.6773
16.0957
18.2399
20.9414
23.9656
27.047
29.9227
32.3638
34.1988
35.3279
35.7273
35.4438
34.5818
33.2842
31.7116
30.0209
28.3474
26.7919
25.4135
24.2287
23.2165
22.3269
21.4933
20.644
19.7141
18.654
17.4348
16.0506
14.5167
12.8656
11.1414
9.39281
7.66776
6.00793
4.44553
3.0017
1.68653
0.500453
-0.563566
-1.51742
-2.37545
-3.15243
-3.86235
-4.51767
-5.12926
-5.70644
-6.25706
-6.78735
-7.30136
-7.80022
-8.28116
-8.73661
-9.15356
-9.51349
-9.79289
-9.96451
-9.99953
-9.87045
-9.55479
-9.03924
-8.32393
-7.42605
-6.38218
-5.24849
-4.09824
-3.01635
-2.09121
-1.40448
-1.02016
-0.974296
-1.26712
-1.85907
-2.67172
-3.59412
-4.49408
-5.23328
-5.68429
-5.74713
-5.36328
-4.52483
-3.27757
-1.71751
0.019055
1.77053
3.36828
4.65596
5.50751
5.84155
5.63054
4.90357
3.7425
2.27194
0.644474
-0.97704
-2.43791
-3.60839
-4.39692
-4.75816
-4.69528
-4.25625
-3.52497
-2.6087
-1.62338
-0.678945
0.133546
0.751407
1.14547
1.32042
1.31072
1.17279
0.974942
0.786527
0.66782
0.662054
0.790526
1.05124
1.42099
1.86038
2.32072
2.75175
3.10905
3.35999
3.48766
3.49228
3.39005
3.20996
2.98897
2.76643
2.57866
2.45431
2.41115
2.45452
2.57756
2.76297
2.98589
3.21744
3.42835
3.59229
3.68848
3.70333
3.6312
3.47407
3.24052
2.94422
2.60207
2.2324
1.8533
1.4812
1.12984
0.809325
0.525452
0.279007
0.0652
-0.126742
-0.313609
-0.517698
-0.765545
-1.08581
-1.50626
-2.04989
-2.73045
-3.54774
-4.48343
-5.49813
-6.53078
-7.50102
-8.31525
-8.87614
-9.0951
-8.90643
-8.2813
-7.23954
-5.85725
-4.26845
-2.65957
-1.25675
-0.306336
-0.0506517
-0.701339
-2.4134
-5.26306
-9.23229
-14.2021
-19.9561
-26.1935
-32.5526
-38.6398
-44.0634
-48.468
-51.5654
-53.1595
-53.1618
-51.5964
-48.5952
-44.3814
-39.2466
-33.5216
-27.5452
-21.6347
-16.0598
-11.0234
-6.64995
-2.983
0.00949028
2.42212
4.39349
6.08422
7.65378
9.23884
10.9351
12.7846
14.7686
16.8077
18.7653
20.4551
21.6473
22.0712
21.4115
19.2999
15.3035
8.92227
-0.394323
-13.1967
-29.9405
-50.8482
-75.7409
-103.87
-133.79
-163.323
-189.643
-209.51
-219.628
-217.105
-199.929
-167.388
-120.36
-61.3968
5.41822
74.8377
141.004
198.114
241.1
266.241
271.604
257.272
225.315
179.523
124.935
67.2281
12.0591
-35.5633
-71.7977
-94.3198
-102.47
-97.1962
-80.8056
-56.5819
-28.3136
0.195357
25.5715
45.2254
57.576
62.1303
59.4221
50.8312
38.3165
24.1047
10.3788
-0.996544
-8.68042
-11.9739
-10.8453
-5.86828
1.91025
11.1489
20.4099
28.3502
33.8821
36.2863
35.2685
30.9577
23.8527
14.7278
4.51445
-5.82621
-15.4211
-23.5823
-29.8723
-34.1338
-36.4834
-37.2737
-37.0311
-36.3791
-35.958
-36.349
-38.0134
-41.2503
-46.177
-52.731
-60.691
-69.7129
-79.3746
-89.2231
-98.8201
-107.78
-115.797
-122.663
-128.271
-132.61
-135.75
-137.821
-138.992
-139.444
-139.346
-138.839
-138.016
-136.912
-135.494
-133.665
-131.262
-128.079
-123.881
-118.436
-111.549
-103.1
-93.0747
-81.5904
-68.907
-55.4219
-41.6471
-28.1694
-15.5988
-4.50911
4.61954
11.4513
15.8301
17.7962
17.5813
15.5833
12.3226
8.38718
4.37115
0.81577
-1.84161
-3.30466
-3.43773
-2.26687
0.0368044
3.18861
6.83191
10.5845
14.0841
17.0281
19.2021
20.4969
20.911
20.5393
19.5526
18.1682
16.6184
15.1189
13.843
12.9025
12.3389
12.124
12.1698
12.3455
12.4993
12.4814
12.1653
11.4655
10.3477
8.8328
6.99267
4.93959
2.81085
0.750666
-1.10802
-2.65932
-3.83606
-4.61568
-5.02022
-5.11047
-4.97556
-4.71942
-4.4463
-4.2471
-4.18838
-4.3052
-4.59865
-5.03784
-5.56598
-6.1094
-6.58807
-6.92631
-7.06215
-6.9544
-6.58666
-5.96793
-5.1303
-4.1238
-3.00975
-1.85315
-0.71532
0.352376
1.31308
2.14684
2.85079
3.43725
3.9302
4.36068
4.76181
5.16382
5.59
6.05355
6.55593
7.0866
7.62423
8.13914
8.59675
8.96158
9.20144
9.29131
9.21651
8.97462
8.57619
8.04386
7.41015
6.71413
5.99738
5.29962
4.65475
4.08754
3.61155
3.22848
2.92897
2.69477
2.50193
2.32451
2.13837
1.9243
1.67033
1.37269
1.03543
0.668796
0.286705
-0.096398
-0.468704
-0.823849
-1.16302
-1.49617
-1.84232
-2.22901
-2.69103
-3.26854
-4.00455
-4.94191
-6.11977
-7.56976
-9.31205
-11.3516
-13.675
-16.2481
-19.015
-21.8979
-24.7995
-27.606
-30.1926
-32.4305
-34.1942
-35.371
-35.8687
-35.6247
-34.6114
-32.8408
-30.3657
-27.2776
-23.701
-19.7855
-15.6942
-11.5914
-7.62982
-3.93832
-0.611991
2.29456
4.76972
6.8427
8.57656
10.0573
11.3795
12.6311
13.8778
15.1496
16.4291
17.6428
18.6531
19.2487
19.1334
17.9125
15.0802
10.0189
2.01986
-9.65724
-25.6781
-46.478
-72.0707
-101.853
-134.448
-167.638
-198.432
-223.286
-238.48
-240.603
-227.086
-196.695
-149.889
-88.98
-18.0354
57.4634
131.188
196.672
248.066
280.842
292.334
282.055
251.739
205.114
147.435
84.8435
23.6496
-30.3828
-72.6462
-100.132
-111.659
-107.868
-91.008
-64.5429
-32.6512
0.321227
30.3802
54.3154
69.9992
76.529
74.2085
64.3857
49.1797
31.1417
12.8959
-3.19198
-15.2823
-22.2374
-23.6936
-20.0307
-12.2531
-1.80488
9.65064
20.4575
29.1703
34.7119
36.4703
34.3295
28.6356
20.1104
9.72716
-1.43217
-12.3188
-22.0413
-29.9581
-35.732
-39.3418
-41.0567
-41.3777
-40.9584
-40.5148
-40.7368
-42.2104
-45.3594
-50.4096
-57.3791
-66.091
-76.2061
-87.2697
-98.7644
-110.165
-120.987
-130.825
-139.381
-146.474
-152.037
-156.107
-158.801
-160.283
-160.74
-160.342
-159.227
-157.47
-155.078
-151.987
-148.068
-143.148
-137.036
-129.555
-120.579
-110.069
-98.0963
-84.8627
-70.701
-56.0605
-41.4766
-27.5252
-14.77
-3.70545
5.29358
12.0119
16.4158
18.6547
19.0422
18.018
16.0974
13.8135
11.6598
10.0414
9.23819
9.3859
10.475
12.3666
14.8223
17.5431
20.2114
22.5319
24.2647
25.2494
25.4163
24.7861
23.4583
21.5917
19.3802
17.0266
14.7192
12.6123
10.8133
9.37751
8.30903
7.56836
7.08384
6.76558
6.51958
6.2604
5.92094
5.45844
4.85659
4.12375
3.28824
2.39146
1.48026
0.599528
-0.21403
-0.936025
-1.55628
-2.07835
-2.51705
-2.89446
-3.23526
-3.562
-3.89114
-4.23024
-4.57674
-4.91842
-5.23525
-5.50259
-5.69492
-5.78988
-5.77179
-5.6344
-5.38224
-5.03063
-4.60419
-4.13402
-3.65408
-3.19709
-2.79058
-2.45364
-2.19464
-2.01047
-1.88715
-1.80193
-1.72646
-1.63076
-1.48728
-1.27469
-0.980754
-0.603841
-0.152969
0.353764
0.892066
1.43526
1.9584
2.44214
2.87569
3.25838
3.59975
3.91782
4.23612
4.57959
4.97015
5.42246
5.94058
6.51594
7.12702
7.74072
8.31539
8.80492
9.16365
9.35132
9.33751
9.1052
8.65297
7.99558
7.16302
6.19798
5.15211
4.08154
3.04191
2.08374
1.24838
0.565059
0.0492057
-0.297773
-0.487371
-0.541713
-0.490435
-0.367126
-0.205725
-0.0372631
0.112745
0.226039
0.292387
0.309408
0.281578
0.218603
0.133434
0.0401779
-0.0478449
-0.11968
-0.167824
-0.188741
-0.182827
-0.153879
-0.108215
-0.0535828
0.00195206
0.0509483
0.0871678
0.105593
0.101742
0.0702355
0.00277487
-0.114146
-0.301245
-0.587589
-1.01029
-1.61248
-2.43937
-3.53289
-4.92525
-6.63225
-8.64728
-10.9367
-13.4376
-16.0582
-18.6817
-21.173
-23.388
-25.1852
-26.4377
-27.045
-26.9426
-26.1095
-24.5709
-22.3972
-19.6986
-16.6164
-13.31
-9.94435
-6.67568
-3.63943
-0.940593
1.35229
3.20921
4.6367
5.67232
6.37645
6.82247
7.08652
7.23785
7.33063
7.39741
7.44403
7.44473
7.33604
7.0072
6.2857
4.91755
2.54436
-1.31682
-7.28117
-16.0778
-28.4913
-45.252
-66.8748
-93.4579
-124.472
-158.584
-193.569
-226.35
-253.203
-270.127
-273.341
-259.849
-227.985
-177.843
-111.503
-33.0075
51.9446
136.549
213.632
276.471
319.59
339.41
334.684
306.634
258.791
196.557
126.553
55.842
-8.87321
-61.9706
-99.4671
-119.352
-121.669
-108.35
-82.8401
-49.5765
-13.3882
21.0971
49.9705
70.4281
80.9885
81.5313
73.1686
57.9797
38.6551
18.1021
-0.936807
-16.2059
-26.1659
-30.1123
-28.178
-21.2332
-10.7034
1.66198
14.0381
24.7575
32.4996
36.4196
36.2049
32.061
24.6347
14.8908
3.96113
-7.01278
-17.0233
-25.3106
-31.4357
-35.3067
-37.1586
-37.4942
-36.9954
-36.4192
-36.4927
-37.8201
-40.8142
-45.6574
-52.2955
-60.4635
-69.7346
-79.5861
-89.471
-98.8844
-107.418
-114.796
-120.886
-125.696
-129.345
-132.028
-133.971
-135.388
-136.45
-137.254
-137.817
-138.075
-137.899
-137.111
-135.516
-132.921
-129.164
-124.124
-117.741
-110.018
-101.027
-90.9082
-79.8625
-68.1469
-56.0606
-43.9292
-32.0848
-20.8449
-10.4907
-1.24704
6.73201
13.3726
18.6823
22.7449
25.7068
27.7602
29.1215
30.0096
30.6265
31.1401
31.674
32.3015
33.0472
33.8926
34.7864
35.6578
36.4289
37.0279
37.3987
37.5078
37.3466
36.9308
36.2958
35.4898
34.5658
33.573
32.5501
31.5194
30.4848
29.4321
28.3313
27.1422
25.8203
24.3231
22.6159
20.6769
18.4999
16.0959
13.4928
10.7334
7.87207
4.97113
2.09603
-0.689003
-3.32515
-5.7626
-7.96321
-9.90218
-11.5684
-12.964
-14.102
-15.004
-15.697
-16.2093
-16.5672
-16.7925
-16.9004
-16.8988
-16.7888
-16.5666
-16.2257
-15.7595
-15.1644
-14.4408
-13.5942
-12.6345
-11.5748
-10.4296
-9.21293
-7.93771
-6.61561
-5.2581
-3.87816
-2.49209
-1.12099
0.208809
1.46643
2.61853
3.63242
4.47975
5.14025
5.6048
5.87724
5.97462
5.92563
5.76753
5.54173
5.28891
5.04406
4.83229
4.66592
4.54301
4.4477
4.35199
4.21897
4.00704
3.67497
3.18731
2.51983
1.66429
0.632112
-0.543915
-1.81014
-3.09521
-4.31564
-5.38342
-6.21469
-6.73856
-6.90491
-6.69016
-6.10031
-5.17084
-3.96369
-2.56159
-1.06058
0.438287
1.83727
3.04932
4.00387
4.65062
4.96108
4.96108
4.96108
4.96108
4.96108
4.96108
4.96108
4.96108
4.96108
4.96108
4.96108
4.96108
4.96108
4.96108
4.96108
4.96108
4.96108
4.96108
4.96108
4.96108
4.96108
4.96108
4.96108
4.96108
4.96108
4.96108
4.96108
4.96108
4.96108
4.96108
