11.0043
11.419
11.9627
12.6702
13.588
14.7751
16.3031
18.2525
20.7063
23.741
27.4147
31.7554
36.7508
42.3404
48.4124
54.8066
61.3215
67.7265
73.776
79.2249
83.8421
87.4214
89.7879
90.8014
90.3562
88.3804
84.8342
79.7109
73.0396
64.8898
55.379
44.6791
33.0223
20.7027
8.07195
-4.47164
-16.5019
-27.5899
-37.3335
-45.3884
-51.4966
-55.5089
-57.3994
-57.2677
-55.3313
-51.9068
-47.382
-42.1831
-36.7387
-31.4449
-26.6344
-22.5528
-19.3438
-17.044
-15.59
-14.834
-14.5696
-14.5618
-14.5809
-14.4335
-13.9873
-13.1877
-12.0607
-10.7039
-9.26402
-7.90386
-6.76074
-5.90058
-5.27076
-4.65614
-3.64284
-1.59602
2.34056
9.21447
20.1953
36.4611
59.0411
88.6242
125.354
168.637
217.003
268.047
318.489
364.37
401.368
425.236
432.293
419.921
387
334.194
264.057
180.905
90.4739
-0.622478
-85.5591
-158.015
-212.845
-246.621
-257.972
-247.69
-218.577
-175.074
-122.713
-67.4686
-15.0911
29.4954
62.6642
82.377
88.2704
81.5437
64.6744
41.0094
14.2911
-11.8195
-34.1665
-50.42
-59.2688
-60.4696
-54.763
-43.6769
-29.2544
-13.7451
0.697536
12.2761
19.7388
22.482
20.5619
14.6229
5.76017
-4.65996
-15.1952
-24.5122
-31.5394
-35.5718
-36.3206
-33.9054
-28.7991
-21.734
-13.5886
-5.26791
2.40361
8.7673
13.3838
16.053
16.8021
15.8485
13.5472
10.3321
6.66177
2.97598
-0.332532
-2.93178
-4.55176
-4.97819
-4.04399
-1.62301
2.37086
7.97818
15.1832
23.9008
33.9644
45.1192
57.0242
69.2635
81.3694
92.8527
103.24
112.109
119.13
124.083
126.886
127.591
126.385
123.566
119.518
114.679
109.504
104.433
99.8551
96.0897
93.366
91.8158
91.4739
92.286
94.1232
96.8007
100.1
103.792
107.655
111.492
115.143
118.48
121.406
123.842
125.708
126.905
127.305
126.74
125.008
121.882
117.141
110.598
102.139
91.758
79.5871
65.9085
51.1552
35.8901
20.7686
6.48609
-6.28198
-16.942
-25.0381
-30.2942
-32.6396
-32.2116
-29.3385
-24.503
-18.2918
-11.3381
-4.26278
2.37686
8.12641
12.6569
15.7691
17.3806
17.4988
16.1873
13.5307
9.60621
4.46708
-1.859
-9.35643
-17.9959
-27.7013
-38.316
-49.5762
-61.0971
-72.3777
-82.826
-91.8037
-98.6854
-102.927
-104.13
-102.1
-96.8811
-88.7669
-78.2851
-66.1531
-53.2114
-40.3431
-28.3874
-18.0597
-9.88541
-4.15727
-0.919316
0.0211021
-0.944026
-3.28018
-6.37872
-9.6281
-12.4792
-14.4976
-15.3982
-15.0597
-13.5186
-10.9474
-7.61914
-3.8658
-0.0348814
3.55008
6.6212
8.98763
10.5455
11.2772
11.2412
10.5552
9.37563
7.87557
6.22451
4.5712
3.03134
1.68059
0.553011
-0.355689
-1.0809
-1.67923
-2.21724
-2.76021
-3.36216
-4.05809
-4.8592
-5.75133
-6.69661
-7.63796
-8.50569
-9.22536
-9.72579
-9.94622
-9.84167
-9.38584
-8.57128
-7.40704
-5.9145
-4.12231
-2.06144
0.238568
2.75153
5.45427
8.32413
11.3349
14.4523
17.6292
20.804
23.8999
26.8281
29.4941
31.8056
33.6814
35.0609
35.9111
36.2319
36.0575
35.4548
34.5171
33.3552
32.0845
30.8105
29.6146
28.5409
27.5881
26.709
25.8185
24.8143
23.6097
22.1789
20.6122
19.1756
18.3653
18.9425
21.9339
28.5816
40.2317
58.16
83.3466
116.225
156.44
202.665
252.511
302.578
348.656
386.079
410.203
416.957
403.398
368.186
311.91
237.203
148.61
52.2268
-44.8802
-135.382
-212.451
-270.478
-305.659
-316.37
-303.297
-269.299
-219.034
-158.4
-93.8522
-31.7067
22.5138
64.5977
91.9827
103.884
101.213
86.3081
62.534
33.7925
4.02452
-23.2448
-45.2641
-60.2836
-67.6378
-67.6875
-61.6423
-51.2993
-38.7385
-26.0195
-14.9163
-6.72117
-2.13408
-1.24315
-3.58777
-8.28751
-14.2122
-20.1666
-25.0634
-28.0637
-28.6688
-26.7577
-22.5697
-16.6411
-9.70815
-2.5932
3.9102
9.13768
12.6285
14.1667
13.7875
11.751
8.48935
4.53863
0.463405
-3.21363
-6.0692
-7.81788
-8.3283
-7.61779
-5.82841
-3.1898
0.0246512
3.54177
7.12681
10.6115
13.9093
17.0175
20.0069
23.0025
26.158
29.6289
33.5472
38.0019
43.0263
48.5943
54.6241
60.9888
67.532
74.0852
80.4853
86.5894
92.2861
97.5015
102.201
106.387
110.091
113.361
116.259
118.84
121.145
123.194
124.977
126.453
127.552
128.181
128.234
127.605
126.2
123.954
120.84
116.871
112.109
106.653
100.627
94.1693
87.4122
80.4664
73.4125
66.2978
59.1414
51.9466
44.7177
37.4777
30.2827
23.2308
16.4623
10.1506
4.48595
-0.347136
-4.19385
-6.95144
-8.58601
-9.14111
-8.73662
-7.55804
-5.83752
-3.82945
-1.78386
0.0786651
1.58739
2.63468
3.18085
3.25046
2.92131
2.30814
1.5435
0.758637
0.0665925
-0.450496
-0.748974
-0.825793
-0.715618
-0.483874
-0.217025
-0.0114746
0.0375721
-0.153852
-0.6504
-1.49185
-2.69033
-4.23036
-6.0714
-8.15263
-10.3991
-12.7292
-15.0614
-17.3216
-19.4483
-21.3966
-23.14
-24.6704
-25.9961
-27.1381
-28.1256
-28.9905
-29.7631
-30.4673
-31.1185
-31.7217
-32.2721
-32.7571
-33.1584
-33.4562
-33.6318
-33.6714
-33.5673
-33.3193
-32.9342
-32.4244
-31.8057
-31.0946
-30.3058
-29.4504
-28.5339
-27.5563
-26.5117
-25.3904
-24.1794
-22.8651
-21.4353
-19.8809
-18.1987
-16.3929
-14.477
-12.4739
-10.4153
-8.33979
-6.28817
-4.29859
-2.40034
-0.608367
1.08069
2.68993
4.26052
5.84678
7.50863
9.30227
11.2704
13.4331
15.781
18.2714
20.8279
23.3443
25.6923
27.7321
29.3257
30.3503
30.7112
30.3529
29.2651
27.4855
25.0972
22.2214
19.0065
15.6149
12.2084
8.93517
5.91776
3.24546
0.969998
-0.894232
-2.36606
-3.49023
-4.32795
-4.94656
-5.40943
-5.76677
-6.04766
-6.25255
-6.34506
-6.24142
-5.7959
-4.78137
-2.86525
0.416643
5.68304
13.7184
25.4597
41.9455
64.2122
93.1316
129.192
172.248
221.267
274.151
327.662
377.528
418.748
446.087
454.714
440.9
402.667
340.278
256.463
156.345
47.0206
-63.1309
-165.345
-251.449
-314.786
-350.961
-358.316
-338.065
-294.086
-232.401
-160.425
-86.0801
-16.8969
40.7863
82.4373
105.69
110.427
98.5922
73.7755
40.6437
4.29108
-30.3995
-59.3098
-79.4955
-89.413
-88.9549
-79.3074
-62.6644
-41.8479
-19.8902
0.366217
16.6035
27.2627
31.6593
29.9767
23.1522
12.6793
0.361529
-11.9483
-22.5873
-30.2739
-34.2309
-34.2325
-30.5775
-23.9985
-15.5258
-6.32712
2.45448
9.84357
15.1414
17.9902
18.389
16.664
13.4023
9.35825
5.34919
2.15236
0.415668
0.591672
2.90021
7.32122
13.6156
21.3689
30.0508
39.0809
47.8947
55.9998
63.0193
68.7172
73.0061
75.9376
77.679
78.4797
78.6332
78.439
78.1679
78.0357
78.1849
78.6785
79.5013
80.5715
81.7571
82.897
83.8221
84.3754
84.4288
83.8943
82.7293
80.9364
78.5577
75.6644
72.3446
68.6902
64.7847
60.6947
56.4647
52.1166
47.6545
43.0723
38.3644
33.5364
28.615
23.6543
18.7381
13.9768
9.49959
5.44271
1.93494
-0.916981
-3.0415
-4.41187
-5.0509
-5.03017
-4.46374
-3.49711
-2.29294
-1.01521
0.186254
1.18892
1.90717
2.29726
2.35738
2.12301
1.65853
1.0461
0.373494
-0.277816
-0.842735
-1.27986
-1.57535
-1.74318
-1.82208
-1.86986
-1.95603
-2.15384
-2.53266
-3.15177
-4.0559
-5.27296
-6.8136
-8.67238
-10.8298
-13.2548
-15.9068
-18.7379
-21.6941
-24.7168
-27.7441
-30.7125
-33.5587
-36.2213
-38.6425
-40.7684
-42.5483
-43.9337
-44.8764
-45.3285
-45.2429
-44.5765
-43.2961
-41.3846
-38.8497
-35.7304
-32.1014
-28.075
-23.7968
-19.4381
-15.184
-11.2174
-7.70387
-4.77529
-2.51804
-0.964789
-0.0922473
0.175074
-0.0444222
-0.603145
-1.34074
-2.10122
-2.74868
-3.17989
-3.3324
-3.18734
-2.76713
-2.12849
-1.35213
-0.530476
0.244936
0.894685
1.36025
1.60941
1.63786
1.4673
1.14046
0.714045
0.250569
-0.189604
-0.555128
-0.808501
-0.92833
-0.90883
-0.756751
-0.486228
-0.112317
0.35587
0.921417
1.60422
2.44294
3.49348
4.82338
6.50225
8.58872
11.1157
14.0755
17.4085
20.9957
24.6603
28.1761
31.2863
33.7277
35.2608
35.7005
34.9431
32.9863
29.9377
26.0117
21.5122
16.8044
12.2785
8.30891
5.21569
3.23061
2.4738
2.94259
4.51377
6.95873
9.96918
13.1904
16.2588
18.8396
20.6634
21.5594
21.4855
20.5559
19.0664
17.5171
16.6273
17.3373
20.7839
28.2372
40.9848
60.1576
86.5037
120.132
160.266
205.066
251.573
295.822
333.148
358.678
367.936
357.512
325.646
272.671
201.185
115.935
23.4048
-68.8678
-153.125
-222.288
-270.78
-295.17
-294.544
-270.57
-227.234
-170.311
-106.633
-43.2641
13.3131
57.8984
87.0762
99.4732
95.7529
78.3664
51.1089
18.5498
-14.5826
-43.9819
-66.2427
-79.1858
-82.006
-75.2364
-60.5542
-40.4637
-17.9088
4.13164
23.0131
36.718
44.0417
44.6616
39.0892
28.5264
14.6504
-0.636818
-15.4603
-28.1939
-37.6283
-43.0689
-44.3605
-41.8441
-36.2572
-28.5983
-19.9757
-11.4606
-3.96348
1.85494
5.63081
7.30177
7.07368
5.3585
2.69455
-0.338455
-3.19841
-5.44446
-6.77925
-7.06708
-6.32864
-4.71605
-2.47373
0.108107
2.74036
5.17659
7.24445
8.86448
10.0554
10.9265
11.6597
12.4834
13.6417
15.3627
17.8296
21.1561
25.3701
30.4071
36.1125
42.2547
48.545
54.6635
60.2885
65.1251
68.9307
71.535
72.8529
72.8888
71.7325
69.5473
66.5523
63.0001
59.1533
55.2609
51.5384
48.152
45.2091
42.7554
40.7779
39.2133
37.9612
36.8976
35.8897
34.808
33.5353
31.9718
30.0366
27.6656
24.8092
21.4284
17.494
12.9875
7.9056
2.26629
-3.88294
-10.4582
-17.3343
-24.3445
-31.2846
-37.9237
-44.0186
-49.3333
-53.6585
-56.8314
-58.7515
-59.3922
-58.8051
-57.1176
-54.5237
-51.2687
-47.6302
-43.8958
-40.3413
-37.2106
-34.6989
-32.9407
-32.0039
-31.8896
-32.5367
-33.8316
-35.6212
-37.7268
-39.959
-42.1312
-44.0707
-45.6273
-46.6789
-47.1346
-46.9348
-46.0511
-44.4833
-42.2586
-39.428
-36.0656
-32.2657
-28.1406
-23.8174
-19.4339
-15.1327
-11.0542
-7.32868
-4.06835
-1.35933
0.744409
2.22517
3.10269
3.43218
3.29942
2.81333
2.09683
1.27703
0.475665
-0.199366
-0.660752
-0.846579
-0.723096
-0.285519
0.442956
1.41378
2.55716
3.78743
5.00952
6.12609
7.04505
7.68697
7.99185
7.92464
7.47911
6.67941
5.57921
4.2581
2.81561
1.36315
0.0147192
-1.12299
-1.95991
-2.43064
-2.50011
-2.16654
-1.4612
-0.44495
0.797871
2.16767
3.55899
4.86995
6.01096
6.91173
7.52593
7.83342
7.83981
7.57369
7.08215
6.42503
5.66882
4.88074
4.12348
3.45116
2.90634
2.51843
2.30298
2.26192
2.38439
2.64795
3.0201
3.45983
3.91936
4.34583
4.68294
4.87249
4.85568
4.57407
3.97024
2.98835
1.57471
-0.320997
-2.74358
-5.72872
-9.29768
-13.4503
-18.1561
-23.3449
-28.8959
-34.6273
-40.284
-45.5253
-49.9097
-52.8777
-53.7346
-51.6381
-45.6
-34.5168
-17.2428
7.27783
39.817
80.6155
129.113
183.709
241.609
298.837
350.436
390.893
414.739
417.267
395.25
347.551
275.508
183.015
76.2724
-36.7873
-147.32
-246.534
-326.664
-381.83
-408.668
-406.651
-378.069
-327.681
-262.091
-188.941
-116.022
-50.4222
2.19229
38.0832
55.6881
55.5975
40.2866
13.6512
-19.5797
-54.4733
-86.4872
-111.958
-128.436
-134.844
-131.45
-119.683
-101.829
-80.6471
-58.9777
-39.376
-23.8238
-13.5432
-8.92594
-9.57537
-14.4441
-22.0395
-30.6647
-38.6605
-44.6178
-47.5367
-46.917
-42.7765
-35.6015
-26.2419
-15.7715
-5.33179
4.0167
11.4197
16.3163
18.4822
18.0259
15.3452
11.0513
5.87522
0.567608
-4.19295
-7.87366
-10.1353
-10.851
-10.0959
-8.11269
-5.25915
-1.94655
1.42199
4.50529
7.06364
8.98023
10.2634
11.0312
11.4825
11.8592
12.4062
13.3347
14.7937
16.8534
19.5019
22.655
26.1763
29.9035
33.6776
37.3684
40.8935
44.2272
47.3993
50.4836
53.5792
56.7871
60.1882
63.8233
67.6812
71.6941
75.7426
79.6684
83.292
86.434
88.936
90.6779
91.5899
91.6574
90.9183
89.4539
87.374
84.7995
81.8439
78.5971
75.1126
71.4012
67.4306
63.1328
58.4178
53.1925
47.3818
40.9502
33.9199
26.3819
18.4999
10.5043
2.67764
-4.66806
-11.2179
-16.6828
-20.827
-23.4899
-24.6014
-24.1886
-22.3728
-19.3578
-15.4114
-10.8416
-5.97112
-1.11359
3.44697
7.47046
10.7685
13.2059
14.6981
15.2056
14.7293
13.3072
11.0149
7.96766
4.32433
0.288907
-3.89169
-7.93639
-11.546
-14.4262
-16.3149
-17.0113
-16.402
-14.4809
-11.3575
-7.2545
-2.49061
2.54705
7.44006
11.78
15.2095
17.4571
18.3634
17.8934
16.1358
13.288
9.63089
5.49489
1.22339
-2.86315
-6.49791
-9.49009
-11.7372
-13.2264
-14.0259
-14.2681
-14.1266
-13.7906
-13.4398
-13.2209
-13.2307
-13.5048
-14.0152
-14.6758
-15.3556
-15.8991
-16.1514
-15.9842
-15.3216
-14.1592
-12.5755
-10.7318
-8.86036
-7.24002
-6.1634
-5.89825
-6.64841
-8.51968
-11.4955
-15.4264
-20.0346
-24.9351
-29.6704
-33.7553
-36.7274
-38.1964
-37.8882
-35.677
-31.6015
-25.8646
-18.8149
-10.9128
-2.68461
5.32895
12.6253
18.7864
23.5143
26.6521
28.1884
28.2459
27.0558
24.9227
22.1848
19.1746
16.1857
13.4483
11.1166
9.2673
7.90858
6.99555
6.44954
6.17683
6.08405
6.08805
6.11978
6.12283
6.04845
5.84969
5.47674
4.8758
3.99224
2.77824
1.20407
-0.728325
-2.97091
-5.41538
-7.87975
-10.0954
-11.694
-12.1937
-10.9849
-7.31862
-0.304214
11.0743
27.908
51.2654
82.0363
120.718
167.162
220.316
278.019
336.913
392.524
439.553
472.38
485.721
475.371
438.916
376.279
290.016
185.271
69.3852
-48.8166
-159.964
-255.191
-327.141
-370.813
-384.105
-368.014
-326.45
-265.709
-193.675
-118.86
-49.4128
7.78322
47.8093
68.1385
68.748
51.9246
21.8051
-16.2716
-56.5095
-93.3961
-122.348
-140.189
-145.415
-138.229
-120.361
-94.7174
-64.9132
-34.7582
-7.76629
13.2543
26.4856
31.2343
27.9141
17.8921
3.23036
-13.6341
-30.2249
-44.3355
-54.2747
-59.0247
-58.301
-52.5164
-42.6625
-30.1325
-16.5123
-3.36912
7.93653
16.394
21.429
22.9277
21.203
16.9122
10.9422
4.27963
-2.11695
-7.42685
-11.0477
-12.6402
-12.1351
-9.70643
-5.71844
-0.655329
4.9546
10.6103
15.8963
20.5218
24.3382
27.3358
29.6214
31.3842
32.8549
34.2645
35.8089
37.6234
39.7696
42.2339
44.9382
47.7589
50.55
53.1683
55.4952
57.453
59.0153
60.2071
61.0998
61.7974
62.4195
63.0808
63.8714
64.8391
65.977
67.2179
68.4359
69.4569
70.0752
70.0763
69.2621
67.4752
64.6202
60.6787
55.7158
49.8777
43.3803
36.4914
29.5067
22.7244
16.4202
10.8255
6.11029
2.37403
-0.35774
-2.12908
-3.04371
-3.25082
-2.92835
-2.26588
-1.44847
-0.642943
0.0126919
0.416509
0.506484
0.26125
-0.301885
-1.13126
-2.14713
-3.24947
-4.32685
-5.26597
-5.96123
-6.32376
-6.28938
-5.82484
-4.93188
-3.64866
-2.04821
-0.233817
1.66869
3.52114
5.18517
6.53483
7.46861
7.91902
7.85868
7.30167
6.30015
4.93634
3.3112
1.53146
-0.303082
-2.10992
-3.83041
-5.43168
-6.90368
-8.2524
-9.49043
-10.6271
-11.6595
-12.5673
-13.3105
-13.8326
-14.0676
-13.9493
-13.4231
-12.4559
-11.0452
-9.22334
-7.05858
-4.65085
-2.12419
0.384004
2.735
4.80091
6.4754
7.68204
8.37939
8.56254
8.2613
7.53542
6.46749
5.15457
3.69924
2.20104
0.74907
-0.583805
-1.74468
-2.70225
-3.44633
-3.9857
-4.34445
-4.55749
-4.66553
-4.7102
-4.72953
-4.75432
-4.80558
-4.89314
-5.0157
-5.16203
-5.31333
-5.44634
-5.53701
-5.56406
-5.51216
-5.37413
-5.15198
-4.85638
-4.50477
-4.11817
-3.71734
-3.31877
-2.93138
-2.55463
-2.17857
-1.78609
-1.35717
-0.874636
-0.330222
0.270255
0.904015
1.53185
2.10262
2.56147
2.86071
2.97152
2.89435
2.66553
2.35853
2.07843
1.94991
2.09986
2.63678
3.63021
5.09345
6.97296
9.14697
11.4349
13.6178
15.4682
16.787
17.4429
17.4114
16.8083
15.9157
15.1979
15.3072
17.0766
21.4955
29.6625
42.7054
61.6605
87.305
119.951
159.221
203.841
251.505
298.858
341.651
375.08
394.288
394.989
374.126
330.446
264.901
180.798
83.6257
-19.41
-120.114
-210.192
-282.192
-330.364
-351.32
-344.419
-311.811
-258.149
-190.005
-115.08
-41.3033
24.055
75.152
108.131
121.416
115.717
93.7684
59.8507
19.1652
-22.8479
-61.1616
-91.7084
-111.762
-120.127
-117.121
-104.384
-84.5383
-60.7736
-36.3941
-14.4042
2.82963
13.8031
17.9697
15.7075
8.17495
-2.91573
-15.5708
-27.795
-37.8436
-44.4175
-46.7837
-44.8128
-38.938
-30.047
-19.3292
-8.09938
2.37707
11.0352
17.1226
20.2621
20.462
18.0783
13.738
8.23698
2.42815
-2.88642
-7.04549
-9.59204
-10.305
-9.1985
-6.49258
-2.56197
2.12825
7.09035
11.8763
16.1273
19.6064
22.2106
23.9657
25.0043
25.5336
25.7977
26.0397
26.4699
27.2409
28.4356
30.0639
32.0709
34.3514
36.7696
39.18
41.4462
43.4559
45.1312
46.4318
47.3538
47.9231
48.1869
48.2032
48.0308
47.7216
47.3141
46.8304
46.2744
45.6325
44.8742
43.9546
42.8167
41.396
39.6259
37.446
34.8112
31.7018
28.1325
24.1593
19.8813
15.4381
11.0013
6.76053
2.90645
-0.388207
-2.98656
-4.80229
-5.80907
-6.04341
-5.60056
-4.62397
-3.28962
-1.78732
-0.301232
1.00811
2.01807
2.6532
2.88857
2.74728
2.2928
1.6174
0.828338
0.0337204
-0.670408
-1.21014
-1.54007
-1.64553
-1.54075
-1.26382
-0.869221
-0.419277
0.024216
0.40712
0.687963
0.840349
0.852738
0.725953
0.469118
0.0949018
-0.385031
-0.963596
-1.64037
-2.42197
-3.32078
-4.3524
-5.53228
-6.87203
-8.37608
-10.0389
-11.8435
-13.7606
-15.7499
-17.7614
-19.7389
-21.6235
-23.3578
-24.89
-26.178
-27.1928
-27.9208
-28.3651
-28.5453
-28.4965
-28.2662
-27.9107
-27.4905
-27.0654
-26.6894
-26.4066
-26.2474
-26.2263
-26.3414
-26.5743
-26.8926
-27.2528
-27.6041
-27.8927
-28.0662
-28.0768
-27.8845
-27.4592
-26.7806
-25.8389
-24.6335
-23.1725
-21.4716
-19.5542
-17.4517
-15.2041
-12.86
-10.4769
-8.11978
-5.85842
-3.7636
-1.90217
-0.331536
0.90565
1.78591
2.30777
2.49259
2.38312
2.0399
1.53597
0.950293
0.360834
-0.162147
-0.561803
-0.798865
-0.853891
-0.727418
-0.438072
-0.0189139
0.487541
1.03506
1.57955
2.08445
2.52502
2.89116
3.18841
3.43701
3.66911
3.92441
4.2447
4.66795
5.22264
5.92311
6.76654
7.73212
8.78251
9.86772
10.9308
11.9146
12.7695
13.4599
13.9699
14.3078
14.5086
14.6371
14.7906
15.1066
15.773
17.0462
19.2736
22.9202
28.5928
37.052
49.1983
66.0168
88.4668
117.31
152.885
194.859
241.987
291.963
341.389
385.941
420.717
440.782
441.809
420.763
376.483
310.082
225.054
127.08
23.5097
-77.4004
-167.406
-239.217
-287.343
-308.714
-303.01
-272.645
-222.424
-158.925
-89.6905
-22.3352
36.3023
80.8741
108.018
116.585
107.594
83.9344
49.8756
10.4529
-29.1797
-64.3548
-91.3833
-107.886
-112.938
-107.03
-91.8664
-70.0382
-44.6277
-18.7951
4.60125
23.3078
35.874
41.7336
41.1711
35.189
25.3041
13.3039
0.99713
-10.0095
-18.4849
-23.6813
-25.3688
-23.8024
-19.6304
-13.7637
-7.22616
-1.00655
4.06784
7.42313
8.78728
8.19373
5.94434
2.54115
-1.40102
-5.24734
-8.42866
-10.5096
-11.232
-10.5313
-8.52619
-5.48546
-1.78005
2.17351
5.96937
9.26153
11.8008
13.4561
14.2201
14.199
13.5916
12.6595
11.6942
10.9844
10.7872
11.3057
12.6736
14.9484
18.1114
22.075
26.6949
31.786
37.1414
42.5511
47.8212
52.7889
57.3342
61.3849
64.9147
67.9331
70.4699
72.5554
74.2001
75.378
76.0174
76.0014
75.1787
73.3856
70.4752
66.3493
60.9897
54.4803
47.0171
38.9034
30.527
22.3254
14.7395
8.16665
2.91537
-0.828007
-3.01839
-3.75327
-3.25667
-1.84838
0.0969403
2.19511
4.09591
5.5194
6.28069
6.30093
5.60406
4.30113
2.56502
0.599798
-1.39113
-3.23409
-4.80801
-6.05878
-7.00341
-7.72374
-8.3501
-9.03714
-9.93457
-11.1571
-12.7582
-14.7112
-16.9029
-19.1393
-21.1652
-22.6952
-23.451
-23.202
-21.8017
-19.2159
-15.5368
-10.9824
-5.87915
-0.630178
4.32703
8.56854
11.7315
13.5553
13.9118
12.8202
10.4455
7.08002
3.1104
-1.02646
-4.89362
-8.1042
-10.3653
-11.5101
-11.5135
-10.4897
-8.67098
-6.37096
-3.93757
-1.7022
0.0670939
1.2011
1.64816
1.47315
0.837339
-0.0374128
-0.913581
-1.58443
-1.91405
-1.86462
-1.50648
-1.00999
-0.620801
-0.622628
-1.29365
-2.86282
-5.47236
-9.15109
-13.8014
-19.2009
-25.0166
-30.8307
-36.1739
-40.5641
-43.5469
-44.737
-43.8565
-40.768
-35.501
-28.2653
-19.4517
-9.61518
0.558723
10.3048
18.8418
25.4436
29.5109
30.6363
28.6539
23.6685
16.0598
6.45857
-4.30349
-15.2664
-25.4304
-33.8521
-39.7357
-42.5131
-41.8996
-37.9233
-30.9219
-21.5092
-10.5134
1.10461
12.3457
22.2691
30.0802
35.2024
37.3237
36.4151
32.7205
26.7187
19.065
10.5173
1.85822
-6.18218
-12.9915
-18.1247
-21.3325
-22.5686
-21.975
-19.8501
-16.6029
-12.6999
-8.61182
-4.76325
-1.49328
0.972039
2.53321
3.21809
3.17318
2.65043
1.99528
1.6416
2.11672
4.05695
8.2281
15.5401
27.0391
43.8563
67.0956
97.6496
135.95
181.682
233.509
288.892
344.047
394.127
433.629
457.006
459.415
437.486
389.985
318.241
226.259
120.465
9.10517
-98.6318
-193.647
-267.98
-315.735
-333.744
-321.903
-283.124
-222.935
-148.768
-69.0645
7.70748
73.9884
123.903
153.793
162.465
151.13
123.078
83.1323
36.9784
-9.55468
-51.1675
-83.6429
-104.226
-111.8
-106.858
-91.2928
-68.0442
-40.6594
-12.8272
12.0598
31.266
42.9641
46.3579
41.677
30.0552
13.3208
-6.27111
-26.3269
-44.5887
-59.1672
-68.7106
-72.4987
-70.4602
-63.1191
-51.4842
-36.8991
-20.8725
-4.91036
9.63438
21.6789
30.4863
35.6967
37.3143
35.6587
31.2887
24.9126
17.2965
9.18319
1.23008
-6.02825
-12.1922
-16.9867
-20.235
-21.8239
-21.6714
-19.7029
-15.8427
-10.0229
-2.20772
7.57164
19.1794
32.3437
46.6405
61.4968
76.2193
90.0441
102.204
112.006
118.904
122.564
122.908
120.13
114.685
107.25
98.6661
89.859
81.7546
75.1958
70.8675
69.238
70.5205
74.6579
81.3307
89.9876
99.8932
110.191
119.974
128.361
134.565
137.957
138.118
134.867
128.274
118.656
106.538
92.6189
77.6987
62.6171
48.1791
35.0896
23.8972
14.9558
8.40496
4.17188
1.99339
1.45512
2.04296
3.20105
4.39001
5.13923
5.08821
4.01331
1.83779
-1.37451
-5.44018
-10.0883
-14.9994
-19.8455
-24.3279
-28.2072
-31.3237
-33.6057
-35.068
-35.7992
-35.9424
-35.672
-35.1691
-34.5996
-34.0967
-33.7495
-33.5988
-33.6379
-33.8209
-34.0725
-34.3011
-34.4114
-34.3158
-33.943
-33.2438
-32.1931
-30.7892
-29.0511
-27.0135
-24.7218
-22.2271
-19.5821
-16.8382
-14.0431
-11.2405
-8.46997
-5.76728
-3.16546
-0.695174
1.61475
3.73723
5.64707
7.32136
8.74011
9.88691
10.7499
11.3227
11.6055
11.6064
11.3422
10.8399
10.1368
9.28041
8.32793
7.3441
6.39857
5.56234
4.90342
4.48208
4.34571
4.52381
5.02334
5.82516
6.88196
8.11837
9.43345
10.7057
11.8003
12.5783
12.9063
12.6672
11.7686
10.1518
7.79704
4.72806
1.01345
-3.23355
-7.85763
-12.6664
-17.4382
-21.9323
-25.9026
-29.1133
-31.3568
-32.4709
-32.3554
-30.9844
-28.4135
-24.7798
-20.2942
-15.2264
-9.88378
-4.58594
0.36158
4.6923
8.19924
10.7489
12.2876
12.8394
12.4972
11.4078
9.75273
7.72932
5.53172
3.33603
1.2899
-0.492418
-1.92997
-2.97085
-3.58528
-3.75781
-3.48046
-2.74828
-1.55838
0.0872688
2.17549
4.67328
7.51847
10.6115
13.8107
16.9325
19.7582
22.0474
23.5573
24.067
23.4036
21.4671
18.2527
13.8675
8.54105
2.63199
-3.36854
-8.83301
-12.992
-14.9285
-13.578
-7.74604
3.84001
22.4288
49.0801
84.4376
128.461
180.157
237.368
296.689
353.56
402.581
438.033
454.556
447.904
415.65
357.726
276.694
177.683
67.9709
-43.7359
-148.247
-236.922
-302.657
-340.694
-349.13
-329.087
-284.507
-221.611
-148.115
-72.2968
-2.04502
55.995
97.0751
118.732
120.881
105.618
76.7855
39.3674
-1.20121
-39.7133
-71.7803
-94.2687
-105.544
-105.507
-95.4487
-77.7382
-55.4219
-31.7754
-9.87382
7.76718
19.4451
24.3962
22.7922
15.6198
4.47246
-8.71247
-21.9317
-33.3735
-41.6245
-45.8064
-45.631
-41.378
-33.8035
-23.9992
-13.2247
-2.73502
6.37394
13.2843
17.5287
19.0116
17.9809
14.9583
10.6418
5.79552
1.14242
-2.7248
-5.4041
-6.70952
-6.66111
-5.44419
-3.34741
-0.691782
2.23646
5.23786
8.22872
11.2439
14.4146
17.9279
21.9751
26.7004
32.1588
38.29
44.9126
51.74
58.4129
64.5455
69.775
73.8097
76.466
77.6914
77.5698
76.3087
74.2123
71.6429
68.9777
66.5661
64.6931
63.5524
63.233
63.7184
64.8981
66.5889
68.5613
70.5677
72.3693
73.7571
74.5667
74.686
74.056
72.666
70.5454
67.7533
64.3687
60.4813
56.184
51.5679
46.7202
41.723
36.6543
31.5901
26.6059
21.7785
17.1865
12.9083
9.02002
5.59011
2.67416
0.308813
-1.49336
-2.74721
-3.49579
-3.80792
-3.77268
-3.49123
-3.06686
-2.59471
-2.15244
-1.79306
-1.54124
-1.39322
-1.32077
-1.27825
-1.21202
-1.07061
-0.814278
-0.422502
0.101711
0.731219
1.4179
2.09905
2.70596
3.1734
3.44866
3.49873
3.31469
2.91267
2.33138
1.62633
0.861904
0.102134
-0.598235
-1.20122
-1.69034
-2.07201
-2.37316
-2.63561
-2.90792
-3.2362
-3.65522
-4.18156
-4.80973
-5.51228
-6.24359
-6.94656
-7.56104
-8.03208
-8.31648
-8.38663
-8.23103
-7.85191
-7.26084
-6.47382
-5.50725
-4.37594
-3.09378
-1.67702
-0.149265
1.45321
3.07719
4.65092
6.086
7.28311
8.14112
8.56842
8.49486
7.88258
6.73393
5.09515
3.05525
0.739752
-1.6999
-4.10016
-6.30097
-8.16114
-9.57196
-10.4675
-10.8302
-10.6918
-10.1289
-9.2541
-8.204
-7.12485
-6.15818
-5.42764
-5.02856
-5.02123
-5.4284
-6.23659
-7.40051
-8.84921
-10.4928
-12.2289
-13.9476
-15.5364
-16.8833
-17.881
-18.431
-18.4485
-17.8684
-16.6514
-14.7897
-12.3113
-9.28213
-5.80467
-2.01374
1.93155
5.8583
9.59209
12.9697
15.8508
18.1275
19.7316
20.6375
20.8634
20.4687
19.5505
18.2381
16.6861
15.0674
13.5632
12.3519
11.5956
11.424
11.9179
13.0941
14.8924
17.1709
19.708
22.2158
24.3621
25.802
26.215
25.3444
23.0351
19.267
14.1803
8.09293
1.50949
-4.87679
-10.1878
-13.371
-13.2211
-8.42005
2.3904
20.492
46.919
82.2358
126.281
177.917
234.845
293.539
349.363
396.897
430.463
444.805
435.825
401.27
341.25
258.476
158.18
47.6793
-64.3504
-168.811
-257.201
-322.583
-360.36
-368.768
-349.02
-305.082
-243.139
-170.806
-96.214
-27.0698
30.1699
70.9352
92.9126
96.1246
82.7281
56.5775
22.6214
-13.7793
-47.5248
-74.3598
-91.304
-96.8914
-91.2055
-75.7249
-53.0147
-26.3158
0.909525
25.4162
44.5471
56.4985
60.4563
56.6018
45.996
30.3713
11.863
-7.27973
-24.9668
-39.4927
-49.6926
-55.0171
-55.5261
-51.8109
-44.861
-35.8996
-26.2097
-16.9732
-9.14222
-3.35314
0.109597
1.30204
0.568543
-1.53981
-4.36203
-7.22525
-9.53104
-10.8204
-10.8116
-9.40991
-6.69053
-2.86234
1.78137
6.9158
12.2333
17.4818
22.4882
27.1668
31.5121
35.5806
39.4654
43.2683
47.0743
50.9327
54.8455
58.766
62.6053
66.2463
69.5614
72.432
74.7665
76.5144
77.6746
78.298
78.4831
78.3666
78.1097
77.8832
77.8514
78.1577
78.9137
80.1906
82.0149
84.3663
87.1782
90.3389
93.6941
97.0478
100.166
102.779
104.593
105.299
104.596
102.216
97.9538
91.6981
83.4624
73.4024
61.8235
49.1716
36.0067
22.9611
10.6863
-0.205771
-9.19968
-15.9255
-20.1927
-22.0051
-21.5557
-19.2008
-15.418
-10.7533
-5.76361
-0.961288
3.23138
6.51458
8.72656
9.84219
9.95623
9.25501
7.98111
6.39632
4.74746
3.2392
2.01608
1.15489
0.666858
0.507908
0.59452
0.822271
1.08421
1.28666
1.3606
1.26784
1.00178
0.583436
0.0540347
-0.53437
-1.12866
-1.68339
-2.16745
-2.56794
-2.89109
-3.16022
-3.41144
-3.6876
-4.0314
-4.47858
-5.0519
-5.75655
-6.57754
-7.47932
-8.40761
-9.29348
-10.0591
-10.6247
-10.9163
-10.8729
-10.4534
-9.6419
-8.45128
-6.92482
-5.13538
-3.18209
-1.18461
0.724809
2.41095
3.74623
4.62131
4.95486
4.70137
3.8562
2.45733
0.583312
-1.65233
-4.10998
-6.6351
-9.07084
-11.2707
-13.1099
-14.4951
-15.3702
-15.7192
-15.5654
-14.9662
-14.0061
-12.787
-11.4178
-10.004
-8.63936
-7.39843
-6.33281
-5.4695
-4.81205
-4.3436
-4.03151
-3.83254
-3.69814
-3.57915
-3.42971
-3.21003
-2.88826
-2.44159
-1.85685
-1.13088
-0.270777
0.70588
1.77114
2.88733
4.00871
5.08435
6.06231
6.89492
7.54453
7.98886
8.22511
8.27181
8.16804
7.96966
7.74303
7.55696
7.47407
7.54281
7.79139
8.22462
8.82419
9.55227
10.3579
11.1855
11.9831
12.7108
13.346
13.8859
14.346
14.7556
15.149
15.5562
15.9917
16.4461
16.8794
17.2199
17.3676
17.2036
16.6056
15.4677
13.7248
11.3803
8.53618
5.42434
2.43745
0.156576
-0.62968
1.07756
6.46278
16.8308
33.4886
57.5672
89.7889
130.199
177.904
230.872
285.852
338.475
383.558
415.612
429.497
421.151
388.267
330.811
251.278
154.622
47.8527
-60.6607
-162.102
-248.196
-312.157
-349.453
-358.294
-339.78
-297.702
-238.02
-168.108
-95.8615
-28.7915
26.7889
66.3819
87.6691
90.592
77.1599
51.0287
16.9205
-20.0324
-54.9327
-83.6736
-103.348
-112.47
-111.008
-100.233
-82.4304
-60.5116
-37.5948
-16.5996
0.0917215
10.8732
15.0346
12.7602
5.01758
-6.63712
-20.3063
-34.014
-45.9526
-54.6838
-59.2751
-59.3632
-55.1422
-47.2872
-36.8295
-25.0017
-13.0753
-2.21034
6.66663
12.9444
16.3634
17.0077
15.2569
11.7094
7.08925
2.14812
-2.42234
-6.06043
-8.37861
-9.18015
-8.44947
-6.3211
-3.03455
1.11661
5.83328
10.8503
15.9622
21.0335
25.994
30.8231
35.5267
40.1123
44.5679
48.8478
52.8685
56.5151
59.6561
62.1654
63.9458
64.9502
65.198
64.781
63.8596
62.6479
61.3908
60.3346
59.6968
59.6381
60.2411
61.4987
63.3144
65.5123
67.859
70.0905
71.9439
73.1874
73.6463
73.2209
71.895
69.7337
66.8713
63.4917
59.8021
56.0064
52.2783
48.7408
45.4531
42.407
39.534
36.7215
33.8355
30.7475
27.3599
23.6267
19.5668
15.2672
10.8753
6.58193
2.59798
-0.873221
-3.66275
-5.65886
-6.8225
-7.19355
-6.88692
-6.07912
-4.98703
-3.84166
-2.86024
-2.22033
-2.03919
-2.36107
-3.15379
-4.31505
-5.68721
-7.07852
-8.28788
-9.12994
-9.45738
-9.17788
-8.26396
-6.75479
-4.75047
-2.39954
0.118154
2.61111
4.89597
6.81523
8.251
9.13371
9.4452
9.21626
8.51948
7.45848
6.15489
4.73479
3.31603
1.99773
0.853129
-0.0737766
-0.767664
-1.2378
-1.5113
-1.62497
-1.61705
-1.5203
-1.35762
-1.14088
-0.873187
-0.553991
-0.185809
0.219031
0.633416
1.0138
1.30287
1.43663
1.35507
1.01447
0.398956
-0.471449
-1.53846
-2.70995
-3.87104
-4.9002
-5.68789
-6.1544
-6.26388
-6.03214
-5.52674
-4.85945
-4.17195
-3.61725
-3.33919
-3.45328
-4.03122
-5.0912
-6.59506
-8.45226
-10.53
-12.6681
-14.6958
-16.4501
-17.7922
-18.62
-18.8777
-18.5593
-17.7071
-16.4057
-14.7716
-12.9411
-11.0564
-9.25176
-7.64222
-6.31421
-5.32004
-4.67606
-4.3645
-4.33861
-4.53021
-4.85858
-5.23961
-5.59382
-5.85235
-5.96042
-5.87793
-5.57784
-5.04282
-4.26136
-3.22419
-1.92196
-0.344612
1.51716
3.66883
6.10781
8.8188
11.77
14.9107
18.1712
21.4654
24.6956
27.7598
30.5595
33.0089
35.0424
36.6204
37.7314
38.3912
38.6366
38.5159
38.0766
37.3531
36.3559
35.0661
33.436
31.3984
28.8824
25.8369
22.2579
18.2173
13.8919
9.58793
5.76124
3.031
2.18482
4.17213
10.0796
21.0793
38.3394
62.8871
95.4229
136.094
184.253
238.252
295.311
351.532
402.096
441.655
464.895
467.217
445.43
398.352
327.207
235.739
129.995
17.7872
-92.0963
-190.849
-270.625
-325.423
-351.745
-348.951
-319.27
-267.461
-200.199
-125.252
-50.5754
16.5707
70.3643
106.951
124.704
124.207
107.983
80.0111
45.1275
8.37414
-25.6115
-53.098
-71.603
-80.0494
-78.7359
-69.1423
-53.6111
-34.9562
-16.0552
0.522496
12.8095
19.6271
20.6529
16.3722
7.93166
-3.0758
-14.8622
-25.6951
-34.1163
-39.1043
-40.1658
-37.3502
-31.1947
-22.6127
-12.7449
-2.79653
6.119
13.1091
17.5916
19.3372
18.4641
15.3895
10.7506
5.30685
-0.162187
-4.94803
-8.48508
-10.3954
-10.5047
-8.83206
-5.55785
-0.978784
4.54285
10.6274
16.9179
23.1075
28.9541
34.2828
38.978
42.9715
46.2276
48.7316
50.4813
51.485
51.7636
51.3569
50.3312
48.7852
46.8534
44.7041
42.5324
40.5476
38.9573
37.9491
37.673
38.2268
39.6457
41.8983
44.8898
48.4707
52.4513
56.6198
60.7619
64.6789
68.2037
71.212
73.6276
75.4216
76.606
77.2214
77.322
76.958
76.1593
74.923
73.2074
70.9339
67.9985
64.2909
59.7199
54.2395
47.8729
40.7281
33.0039
24.9816
17.0049
9.44951
2.68493
-2.96412
-7.25343
-10.0462
-11.3282
-11.208
-9.90412
-7.71931
-5.00644
-2.13028
0.570008
2.81307
4.39887
5.22137
5.26978
4.61952
3.41483
1.84607
0.124643
-1.54148
-2.96944
-4.01872
-4.60317
-4.69757
-4.33855
-3.62012
-2.68376
-1.70331
-0.865387
-0.346644
-0.290279
-0.78473
-1.84794
-3.42028
-5.36809
-7.49863
-9.58484
-11.3971
-12.7373
-13.4701
-13.5464
-13.0145
-12.0176
-10.7757
-9.55568
-8.63294
-8.24996
-8.57834
-9.68991
-11.5414
-13.9753
-16.7368
-19.505
-21.9331
-23.6936
-24.5201
-24.2421
-22.8069
-20.2857
-16.865
-12.8234
-8.4976
-4.24279
-0.392761
2.77574
5.06964
6.39459
6.75721
6.25503
5.05624
3.37235
1.42747
-0.571504
-2.46026
-4.13454
-5.55765
-6.75707
-7.81075
-8.82544
-9.91033
-11.1503
-12.5835
-14.1862
-15.8682
-17.4804
-18.8312
-19.7125
-19.9287
-19.3269
-17.8217
-15.4126
-12.1905
-8.33312
-4.0893
0.245095
4.3571
7.94806
10.7629
12.6137
13.3952
13.0913
11.7722
9.58385
6.73185
3.46187
0.039281
-3.27005
-6.21651
-8.5801
-10.1803
-10.8828
-10.6036
-9.31114
-7.02716
-3.82621
0.166197
4.77729
9.79331
14.9689
20.0398
24.7392
28.8155
32.0515
34.2826
35.4112
35.4157
34.3538
32.3571
29.6194
26.3782
22.892
19.4156
16.1761
13.353
11.0633
9.35477
8.20751
7.54361
7.24408
7.17126
7.1948
7.21938
7.21302
7.23505
7.46335
8.22007
9.99317
13.4492
19.4286
28.9132
42.9519
62.5364
88.4243
120.919
159.638
203.302
249.612
295.252
336.062
367.388
384.597
383.68
361.875
318.204
253.832
172.159
78.6312
-19.7436
-115.11
-199.627
-266.358
-310.07
-327.832
-319.338
-286.905
-235.16
-170.455
-100.1
-31.5058
28.6366
75.0602
104.412
115.49
109.214
88.3474
57.0231
20.1494
-17.2289
-50.5303
-76.127
-91.6784
-96.2792
-90.422
-75.7949
-54.9557
-30.9326
-6.80993
14.6515
31.3131
41.849
45.8154
43.6032
36.2914
25.4317
12.7981
0.137655
-11.0469
-19.6573
-25.0894
-27.2486
-26.496
-23.5412
-19.3003
-14.7414
-10.7399
-7.96222
-6.79
-7.29267
-9.2467
-12.1951
-15.5349
-18.6183
-20.8515
-21.7778
-21.1347
-18.8789
-15.1784
-10.3758
-4.92991
0.654455
5.89753
10.4068
13.9224
16.3404
17.7127
18.2252
18.1586
17.8397
17.5893
17.6768
18.2853
19.4928
21.2721
23.505
26.011
28.5825
31.0222
33.1757
34.9553
36.3514
37.4311
38.3241
39.199
40.2344
41.5879
43.3698
45.6226
48.3108
51.3214
54.474
57.5404
60.2688
62.4117
63.7514
64.122
63.4257
61.6404
58.8193
55.0837
50.609
45.6058
40.3005
34.9145
29.6469
24.6604
20.0717
15.948
12.3068
9.12099
6.32728
3.83707
1.54889
-0.638752
-2.81533
-5.04803
-7.37411
-9.79637
-12.2821
-14.7652
-17.1514
-19.3263
-21.1647
-22.5417
-23.3433
-23.4776
-22.8833
-21.5371
-19.4576
-16.7065
-13.3854
-9.6298
-5.59953
-1.46685
2.59671
6.43334
9.91035
12.9286
15.427
17.3824
18.8054
19.7325
20.2158
20.3122
20.0732
19.5373
18.7249
17.6383
16.2645
14.5817
12.5683
10.2132
7.52629
4.54628
1.34691
-1.96194
-5.23767
-8.31347
-11.0113
-13.1579
-14.6027
-15.2345
-14.9955
-13.8909
-11.992
-9.43327
-6.40267
-3.12664
0.148597
3.17749
5.73522
7.63513
8.74193
8.97953
8.33312
6.84596
4.61173
1.76394
-1.53631
-5.1128
-8.78595
-12.3833
-15.748
-18.7463
-21.2721
-23.2513
-24.643
-25.4403
-25.6691
-25.3843
-24.6657
-23.6112
-22.3297
-20.9327
-19.5258
-18.2011
-17.0301
-16.0594
-15.3078
-14.7663
-14.4012
-14.159
-13.9735
-13.7739
-13.4929
-13.0747
-12.4805
-11.6925
-10.714
-9.56811
-8.29243
-6.93305
-5.53699
-4.14517
-2.78665
-1.47518
-0.208529
1.02923
2.26282
3.51916
4.81991
6.17471
7.57599
8.99641
10.3894
11.6931
12.8359
13.7455
14.3564
14.6183
14.503
14.008
13.1595
12.0114
10.6433
9.15556
7.66296
6.28626
5.14254
4.3345
3.93952
3.99956
4.51299
5.42976
6.65114
8.03467
9.40487
10.5693
11.3389
11.551
11.0934
9.92665
8.1039
5.7858
3.25122
0.90305
-0.729856
-0.99437
0.881034
5.77311
14.6371
28.4569
48.1606
74.4926
107.84
148.028
194.108
244.185
295.346
343.725
384.747
413.552
425.561
417.113
386.082
332.353
258.087
167.693
67.4943
-34.8731
-131.273
-213.971
-276.51
-314.44
-325.803
-311.312
-274.204
-219.799
-154.821
-86.5891
-22.1716
32.3822
72.6418
96.1649
102.606
93.5672
72.2315
42.8366
10.0698
-21.5372
-48.1372
-66.9638
-76.5551
-76.7961
-68.7879
-54.5791
-36.8048
-18.2873
-1.65366
10.9846
18.2539
19.6251
15.4018
6.60284
-5.23428
-18.2982
-30.759
-41.0021
-47.8117
-50.4872
-48.8829
-43.3762
-34.7735
-24.1738
-12.8112
-1.89762
7.51526
14.6399
19.0153
20.5248
19.3731
16.0292
11.147
5.47376
-0.241154
-5.32708
-9.25484
-11.6766
-12.4411
-11.585
-9.30473
-5.91421
-1.79419
2.65893
7.07941
11.1688
14.7194
17.624
19.8723
21.5354
22.7442
23.6616
24.4575
25.2842
26.2602
27.4594
28.9081
30.5895
32.452
34.4221
36.4187
38.3657
40.2047
41.903
43.4587
44.9025
46.294
47.7162
49.2658
51.041
53.1281
55.5871
58.4375
61.6465
65.1207
68.7029
72.1764
75.2764
77.7085
79.1742
79.4
78.1674
75.3399
70.8849
64.8847
57.5382
49.1498
40.1077
30.8526
21.8414
13.5083
6.22782
0.284314
-4.14963
-7.02341
-8.40643
-8.47464
-7.48733
-5.75708
-3.6165
-1.38532
0.658543
2.30122
3.40643
3.91965
3.86318
3.32351
2.43305
1.34886
0.23109
-0.77644
-1.56145
-2.05289
-2.22464
-2.09332
-1.71127
-1.15587
-0.517154
0.114803
0.661077
1.06244
1.2845
1.31924
1.18306
0.912013
0.555134
0.166859
-0.200392
-0.502572
-0.708618
-0.802945
-0.785725
-0.671161
-0.484211
-0.256338
-0.02097
0.19069
0.352958
0.447686
0.464837
0.401691
0.260931
0.0480607
-0.231322
-0.573881
-0.980061
-1.45446
-2.00496
-2.6407
-3.36916
-4.193
-5.10696
-6.09565
-7.13257
-8.18068
-9.19468
-10.1247
-10.9208
-11.5387
-11.9441
-12.1173
-12.0558
-11.7754
-11.3093
-10.7054
-10.0223
-9.32391
-8.67401
-8.13088
-7.74278
-7.54488
-7.55781
-7.78808
-8.23012
-8.86957
-9.68711
-10.662
-11.7747
-13.0068
-14.3396
-15.7499
-17.2036
-18.6502
-20.0179
-21.2125
-22.1198
-22.6143
-22.5717
-21.8848
-20.4808
-18.3362
-15.4886
-12.041
-8.15857
-4.05803
0.01059
3.78689
7.02532
9.51974
11.1241
11.7673
11.4597
10.2915
8.42334
6.06914
3.47499
0.895194
-1.4311
-3.30066
-4.56204
-5.12528
-4.96468
-4.11484
-2.66079
-0.72357
1.55652
4.03687
6.5873
9.1006
11.4977
13.7268
15.7582
17.5746
19.1606
20.4938
21.5379
22.2413
22.5407
22.3693
21.6694
20.4061
18.5821
16.2509
13.5289
10.6085
7.77144
5.40708
4.03522
4.33092
7.14478
13.5054
24.5865
41.6187
65.7326
97.73
137.804
185.245
238.205
293.573
347.043
393.405
427.052
442.661
435.954
404.415
347.852
268.671
171.833
64.4378
-44.9927
-147.449
-234.463
-299.086
-336.679
-345.42
-326.449
-283.66
-223.16
-152.485
-79.6809
-12.3715
43.0725
82.1611
102.647
104.597
90.1785
63.217
28.5899
-8.45241
-42.9502
-70.8011
-89.1698
-96.7043
-93.5496
-81.1761
-62.0617
-39.2801
-16.0568
4.65037
20.4956
29.9788
32.5508
28.5892
19.2615
6.30197
-8.25925
-22.3776
-34.2499
-42.5149
-46.3797
-45.6635
-40.7609
-32.5389
-22.1856
-11.034
-0.385966
8.64195
15.2354
18.9499
19.7263
17.8578
13.9178
8.66004
2.9084
-2.55094
-7.0606
-10.1574
-11.6059
-11.4002
-9.73542
-6.95653
-3.49364
0.207586
3.74988
6.83511
9.29626
11.1081
12.3775
13.3155
14.1986
15.3232
16.9615
19.3238
22.532
26.6065
31.4671
36.9464
42.814
48.8054
54.6541
60.121
65.0182
69.2253
72.696
75.4563
77.5942
79.244
80.5664
81.7287
82.8859
84.165
85.6533
87.3914
89.3704
91.5315
93.7697
95.9386
97.858
99.3236
100.119
100.031
98.8648
96.4657
92.7338
87.6408
81.2403
73.6713
65.1545
55.9799
46.4874
37.042
28.0058
19.7104
12.4313
6.36904
1.63572
-1.74848
-3.8514
-4.81703
-4.84759
-4.18183
-3.07176
-1.76047
-0.463012
0.647711
1.44941
1.87273
1.89801
1.54758
0.874878
-0.0476889
-1.14083
-2.32881
-3.54729
-4.74806
-5.90052
-6.99021
-8.01516
-8.98076
-9.89442
-10.7606
-11.5772
-12.334
-13.0124
-13.5873
-14.0303
-14.313
-14.4103
-14.3039
-13.9842
-13.451
-12.7139
-11.7912
-10.7081
-9.49515
-8.18508
-6.81119
-5.40534
-3.99717
-2.61469
-1.28636
-0.0445945
1.07004
2.00504
2.69377
3.05613
3.00294
2.4443
1.30167
-0.477527
-2.90436
-5.93428
-9.45699
-13.2926
-17.196
-20.8703
-23.9894
-26.2273
-27.292
-26.96
-25.1071
-21.7313
-16.9653
-11.0743
-4.44025
2.46741
9.13228
15.0377
19.7151
22.7892
24.0134
23.2933
20.6949
16.4365
10.8663
4.42823
-2.38082
-9.05629
-15.1302
-20.2096
-24.0054
-26.3499
-27.2026
-26.6426
-24.8521
-22.0912
-18.6677
-14.9056
-11.1152
-7.56636
-4.46972
-1.96408
-0.112731
1.09269
1.72169
1.88942
1.73833
1.41922
1.07377
0.820405
0.744752
0.895346
1.28453
1.89388
2.68305
3.60047
4.59434
5.62253
6.65995
7.70277
8.76883
9.89462
11.129
12.5247
14.1286
15.9724
18.0638
20.3807
22.8688
25.442
27.9873
30.3725
32.4561
34.0984
35.171
35.5658
35.2001
34.0198
32.0002
29.1459
25.4907
21.0992
16.0697
10.54
4.69443
-1.22832
-6.92774
-12.0346
-16.1048
-18.6132
-18.9479
-16.4038
-10.1825
0.596734
16.861
39.5104
69.2951
106.639
151.42
202.739
258.717
316.383
371.713
419.845
455.502
473.576
469.808
441.478
387.963
311.093
215.199
106.825
-5.86469
-113.932
-208.646
-282.473
-329.936
-348.228
-337.503
-300.806
-243.657
-173.351
-98.0698
-25.9312
35.9172
82.0353
109.186
116.541
105.581
79.7394
43.8322
3.37336
-36.1403
-69.8804
-94.2029
-106.975
-107.689
-97.3705
-78.3086
-53.6543
-26.9546
-1.68055
19.1914
33.4989
40.0839
38.8439
30.6506
17.1574
0.530906
-16.856
-32.7286
-45.1764
-52.8529
-55.0908
-51.9272
-44.0421
-32.6267
-19.2006
-5.4055
7.19969
17.3171
24.0434
26.9461
26.0772
21.9289
15.341
7.37434
-0.831184
-8.19566
-13.8194
-17.0716
-17.6387
-15.5323
-11.0559
-4.74172
2.73578
10.6547
18.3382
25.2331
30.966
35.3719
38.4926
40.5489
41.8905
42.9326
44.0875
45.7019
48.0078
51.0916
54.8877
59.1923
63.6983
68.0418
71.8562
74.8236
76.7182
77.4353
77.003
75.576
73.4129
70.8412
68.2154
65.8738
64.0988
63.0871
62.9299
63.607
64.9922
66.8684
68.9514
70.9165
72.4284
73.1688
72.8632
71.3027
68.3619
64.0107
58.3199
51.4596
43.6896
35.3419
26.7962
18.449
10.6795
3.81558
-1.89708
-6.31872
-9.42836
-11.3242
-12.2102
-12.3704
-12.1327
-11.827
-11.7426
-12.0904
-12.9748
-14.3803
-16.1734
-18.1213
-19.9228
-21.2498
-21.7917
-21.2978
-19.6121
-16.6966
-12.6393
-7.6481
-2.03101
3.83414
9.53609
14.6679
18.8617
21.817
23.3191
23.2476
21.5753
18.358
13.7201
7.83899
0.930385
-6.76113
-14.9671
-23.3964
-31.7351
-39.6493
-46.792
-52.8186
-57.4086
-60.2933
-61.2851
-60.3041
-57.3978
-52.7482
-46.6669
-39.5751
-31.9718
-24.3936
-17.3703
-11.381
-6.81726
-3.95472
-2.93699
-3.77208
-6.34041
-10.4125
-15.6737
-21.752
-28.2479
-34.7613
-40.9156
-46.3766
-50.8669
-54.1744
-56.1568
-56.7422
-55.9266
-53.7695
-50.3876
-45.9478
-40.6577
-34.756
-28.4995
-22.149
-15.954
-10.1359
-4.87311
-0.287967
3.56122
6.68289
9.14816
11.0803
12.6386
13.9986
15.3302
16.7776
18.4419
20.3693
22.5457
24.8988
27.3071
29.613
31.6419
33.2206
34.1966
34.4537
33.9243
32.5959
30.5125
27.7712
24.5144
20.9183
17.1791
13.4972
10.0614
7.0322
4.52805
2.61402
1.29582
0.520048
0.181411
0.136824
0.224992
0.289204
0.200229
-0.124051
-0.705462
-1.50123
-2.40982
-3.28666
-3.96802
-4.29982
-4.16729
-3.52083
-2.39372
-0.908453
0.730236
2.25533
3.36843
3.77765
3.23745
1.58507
-1.23132
-5.13606
-9.92213
-15.2586
-20.7058
-25.7322
-29.7294
-32.0195
-31.8552
-28.4171
-20.8165
-8.11773
10.6031
36.1502
69.0429
109.302
156.213
208.113
262.255
314.819
361.108
395.951
414.281
411.83
385.822
335.569
262.829
171.868
69.1702
-37.1703
-138.311
-225.66
-291.877
-331.73
-342.7
-325.241
-282.685
-220.783
-146.978
-69.5028
3.5891
65.3099
110.457
136.071
141.608
128.799
101.264
63.9281
22.3286
-18.0882
-52.5972
-77.6813
-91.3274
-93.1119
-84.0872
-66.4999
-43.3931
-18.1526
5.94164
26.1037
40.3284
47.5518
47.6784
41.4865
30.4365
16.4159
1.46026
-12.5134
-23.9279
-31.7009
-35.3201
-34.8398
-30.8075
-24.1377
-15.9552
-7.43075
0.369611
6.60435
10.7341
12.5525
12.1724
9.97374
6.52611
2.49671
-1.44115
-4.68853
-6.78182
-7.42973
-6.52558
-4.13769
-0.482769
4.11171
9.25028
14.5125
19.4922
23.8317
27.2479
29.5518
30.6593
30.5945
29.4841
27.5447
25.0619
22.3642
19.793
17.6715
16.2752
15.8081
16.3861
18.029
20.6638
24.1359
28.2297
32.6939
37.2699
41.7197
45.8495
49.5275
52.6921
55.3519
57.5751
59.4712
61.1663
62.7753
64.3736
65.9741
67.5113
68.8373
69.7311
69.9218
69.1226
67.0723
63.5782
58.5545
52.049
44.2549
35.5032
26.2376
16.9741
8.2486
0.562519
-5.67027
-10.1658
-12.7979
-13.6084
-12.798
-10.7014
-7.74856
-4.41735
-1.18438
1.52197
3.36056
4.10518
3.65873
2.05321
-0.563296
-3.95023
-7.80526
-11.7981
-15.6036
-18.9307
-21.5448
-23.2822
-24.0565
-23.857
-22.7409
-20.8204
-18.2473
-15.1964
-11.8502
-8.3847
-4.95945
-1.71009
1.25513
3.8559
6.03798
7.76957
9.03698
9.84024
10.1893
10.101
9.59771
8.7065
7.45936
5.89401
4.05479
1.99333
-0.231318
-2.55328
-4.90128
-7.20079
-9.37687
-11.3574
-13.0762
-14.4768
-15.5147
-16.1605
-16.4008
-16.2398
-15.6988
-14.8145
-13.6377
-12.2291
-10.6558
-8.98684
-7.28921
-5.62377
-4.04239
-2.58599
-1.28364
-0.152902
0.799136
1.57411
2.18048
2.6317
2.94461
3.13822
3.23279
3.24895
3.20693
3.12544
3.02045
2.90366
2.78094
2.65111
2.50514
2.32635
2.09152
1.77311
1.34224
0.772046
0.0409654
-0.864675
-1.9491
-3.20677
-4.62311
-6.17604
-7.83755
-9.57488
-11.3507
-13.1226
-14.8409
-16.4478
-17.8757
-19.0479
-19.8812
-20.2905
-20.1961
-19.5318
-18.2533
-16.3462
-13.8308
-10.7648
-7.24117
-3.38347
0.663308
4.7436
8.70345
12.4026
15.725
18.5869
20.9415
22.7806
24.1319
25.0545
25.6307
25.9568
26.1326
26.2508
26.3865
26.5896
26.8776
27.2334
27.6057
27.9136
28.0546
27.9162
27.3891
26.3816
24.8335
22.7279
20.1005
17.0453
13.7173
10.335
7.18269
4.61856
3.08835
3.14625
5.47862
10.9218
20.4592
35.1791
56.1745
84.3759
120.318
163.868
213.959
268.389
323.759
375.595
418.686
447.626
457.493
444.587
407.09
345.54
263.028
165.051
59.0375
-46.4247
-142.534
-221.283
-276.385
-303.991
-303.105
-275.643
-226.147
-161.177
-88.5033
-16.1706
48.4082
99.2423
132.334
145.979
140.773
119.355
85.9166
45.5854
3.73869
-34.6448
-65.528
-86.194
-95.4302
-93.514
-82.0201
-63.4912
-41.0261
-17.8443
3.11756
19.5303
29.8869
33.592
30.9305
22.9301
11.1493
-2.57636
-16.3926
-28.6568
-38.1146
-44.0076
-46.1052
-44.6673
-40.3486
-34.0648
-26.8426
-19.6723
-13.3854
-8.56647
-5.50947
-4.21763
-4.44223
-5.75058
-7.61064
-9.479
-10.8801
-11.467
-11.0571
-9.64174
-7.37002
-4.51244
-1.41128
1.57429
4.12027
5.98046
7.01454
7.19951
6.62441
5.47119
3.98581
2.44511
1.12474
0.272506
0.089997
0.723179
2.26115
4.74075
8.15434
12.458
17.5784
23.4174
29.8542
36.7466
43.9319
51.2296
58.446
65.3819
71.8426
77.649
82.6488
86.7263
89.8084
91.8669
92.917
93.0111
92.2307
90.6764
88.4575
85.6835
82.4573
78.8713
75.0057
70.9296
66.7036
62.3831
58.0216
53.6726
49.3895
45.2234
41.2189
37.4075
33.8018
30.3904
27.136
23.9781
20.8393
17.6364
14.2937
10.7567
7.0044
3.05656
-1.02336
-5.13237
-9.13766
-12.8908
-16.2448
-19.0706
-21.2726
-22.7984
-23.6443
-23.8541
-23.5121
-22.732
-21.6425
-20.3723
-19.036
-17.7235
-16.492
-15.3642
-14.3294
-13.3498
-12.3687
-11.3217
-10.1483
-8.80248
-7.26249
-5.53681
-3.66676
-1.72481
0.1913
1.96796
3.48757
4.64148
5.34224
5.53388
5.19885
4.36079
3.08301
1.46274
-0.377988
-2.3038
-4.17843
-5.8768
-7.29548
-8.36057
-9.03231
-9.30625
-9.21092
-8.80265
-8.15796
-7.36454
-6.51175
-5.68148
-4.94041
-4.33432
-3.88509
-3.59057
-3.42722
-3.35522
-3.32525
-3.28599
-3.19153
-3.00751
-2.71549
-2.31483
-1.82217
-1.2686
-0.694943
-0.14614
0.334788
0.712147
0.961782
1.07359
1.05215
0.91542
0.691941
0.416871
0.127501
-0.141161
-0.360189
-0.50952
-0.579424
-0.570625
-0.49315
-0.364176
-0.205223
-0.0390974
0.113008
0.233929
0.312201
0.342859
0.327355
0.272694
0.189975
0.0925769
-0.00574366
-0.0926024
-0.158373
-0.197067
-0.206618
-0.188564
-0.147146
-0.0879406
-0.0161344
0.0653513
0.157688
0.267676
0.408776
0.601442
0.872665
1.25469
1.78301
2.49392
3.42173
4.5962
6.04031
7.76842
9.78499
12.0836
14.6458
17.4409
20.4248
23.5398
26.7154
29.869
32.9078
35.7323
38.2392
40.3264
41.8976
42.8682
43.1713
42.7652
41.6413
39.8328
37.4253
34.5679
31.4878
28.5069
26.0619
24.7261
25.2287
28.4653
35.4862
47.4507
65.5297
90.7495
123.775
164.654
212.554
265.549
320.526
373.251
418.644
451.254
465.9
458.39
426.211
369.08
289.242
191.454
82.6262
-28.8408
-133.951
-224.115
-292.13
-332.998
-344.482
-327.315
-285.058
-223.615
-150.494
-73.8995
-1.79185
58.9806
103.364
128.531
134.019
121.584
94.8063
58.5095
18.0869
-21.1816
-54.7362
-79.2017
-92.6644
-94.7473
-86.4919
-70.0797
-48.4439
-24.8299
-2.3619
16.3285
29.3751
35.8252
35.6595
29.6933
19.3843
6.58047
-6.75352
-18.7957
-28.0807
-33.6458
-35.0994
-32.6094
-26.8241
-18.74
-9.54103
-0.430893
7.51956
13.4919
16.9958
17.8957
16.3909
12.9565
8.25707
3.04637
-1.93149
-6.0289
-8.75942
-9.83548
-9.17771
-6.89833
-3.26399
1.355
6.54111
11.8843
17.0289
21.7081
25.7638
29.152
31.9346
34.2597
36.3354
38.3986
40.6834
43.3931
46.6758
50.6091
55.1915
60.3436
65.9166
71.7075
77.4795
82.9843
87.9844
92.2731
95.6893
98.1269
99.5368
99.9233
99.3361
97.8582
95.5945
92.661
89.1765
85.258
81.0183
76.5654
72.0031
67.4298
62.9352
58.5948
54.463
50.5655
46.8944
43.4066
40.0291
36.6683
33.2261
29.6171
25.7866
21.7247
17.4746
13.1332
8.84294
4.7762
1.11417
-1.977
-4.36915
-5.9909
-6.83933
-6.98285
-6.55479
-5.73833
-4.74502
-3.78962
-3.06467
-2.71801
-2.83618
-3.43549
-4.46183
-5.79885
-7.28323
-8.72499
-9.92998
-10.722
-10.9621
-10.5627
-9.49571
-7.79487
-5.55093
-2.90235
-0.0217645
2.89974
5.66926
8.10784
10.0642
11.4257
12.1249
12.1434
11.5111
10.3025
8.63084
6.6395
4.49165
2.35854
0.406309
-1.21792
-2.39981
-3.07007
-3.21369
-2.87442
-2.15321
-1.19986
-0.198083
0.654975
1.1723
1.20074
0.641419
-0.536568
-2.29137
-4.51367
-7.04145
-9.68192
-12.2374
-14.5311
-16.4289
-17.8542
-18.7931
-19.2908
-19.4386
-19.3555
-19.1661
-18.9794
-18.8711
-18.872
-18.9643
-19.0855
-19.1394
-19.0125
-18.5928
-17.7889
-16.5459
-14.857
-12.7683
-10.3776
-7.8247
-5.27847
-2.91844
-0.915939
0.584277
1.47942
1.71955
1.31305
0.326255
-1.12225
-2.87208
-4.73498
-6.51101
-8.00539
-9.04472
-9.49116
-9.25327
-8.29287
-6.62714
-4.32606
-1.50543
1.68381
5.06868
8.46852
11.7092
14.6359
17.1229
19.0809
20.4594
21.2467
21.4655
21.1663
20.4198
19.3076
17.9151
16.326
14.6192
12.87
11.1534
9.54873
8.1449
7.04296
6.35484
6.19675
6.67678
7.87752
9.8357
12.5221
15.8254
19.5448
23.3933
27.0149
30.0145
31.9982
32.6193
31.6254
28.8992
24.4904
18.6339
11.7548
4.46176
-2.46861
-8.11181
-11.4193
-11.2481
-6.40282
4.29601
21.9065
47.2116
80.5207
121.445
168.688
219.895
271.635
319.543
358.659
383.935
390.874
376.191
338.405
278.256
198.851
105.505
5.27185
-93.7772
-183.445
-256.341
-306.724
-331.16
-328.886
-301.843
-254.394
-192.746
-124.187
-56.2177
4.29216
51.8312
82.769
95.6266
91.076
71.6904
41.4898
5.35392
-31.6184
-64.7225
-90.1627
-105.416
-109.413
-102.531
-86.4145
-63.6617
-37.4257
-10.9846
12.663
31.1318
42.8784
47.3067
44.7495
36.3385
23.7908
9.14393
-5.52188
-18.3407
-27.8667
-33.2095
-34.0883
-30.8078
-24.1631
-15.2955
-5.51794
3.86363
11.7121
17.185
19.8129
19.5242
16.6187
11.6983
5.56619
-0.888111
-6.80382
-11.449
-14.2954
-15.0609
-13.7184
-10.4735
-5.71626
0.0435332
6.24804
12.3612
17.9282
22.6186
26.2498
28.7912
30.3492
31.1388
31.4454
31.5835
31.8568
32.5242
33.7757
35.7188
38.376
41.6924
45.5502
49.789
54.2268
58.6811
62.9857
67.0044
70.637
73.8215
76.5297
78.7595
80.5247
81.844
82.7315
83.1896
83.2055
82.7521
81.7921
80.2855
78.1979
75.5092
72.2211
68.3607
63.9815
59.1608
53.9938
48.5866
43.049
37.4879
32.0033
26.6858
21.6166
16.8681
12.5052
8.5857
5.15986
2.26792
-0.0633103
-1.8247
-3.0289
-3.7133
-3.94089
-3.79848
-3.39204
-2.83927
-2.26042
-1.76812
-1.45795
-1.40058
-1.63691
-2.17637
-2.99842
-4.05649
-5.28353
-6.59795
-7.90934
-9.12332
-10.1458
-10.8865
-11.2633
-11.2058
-10.6613
-9.59972
-8.01978
-5.95326
-3.46785
-0.666729
2.31539
5.31997
8.17578
10.7122
12.7738
14.2337
15.0047
15.0471
14.3705
13.0321
11.1285
8.78534
6.14401
3.34836
0.532893
-2.18618
-4.71616
-6.98925
-8.96053
-10.6036
-11.905
-12.8591
-13.464
-13.7195
-13.6277
-13.1951
-12.4365
-11.3795
-10.0683
-8.56571
-6.95361
-5.32994
-3.8036
-2.48703
-1.48742
-0.897504
-0.787046
-1.1959
-2.12943
-3.55673
-5.41204
-7.59913
-9.99835
-12.4758
-14.8937
-17.1208
-19.0426
-20.5687
-21.6391
-22.226
-22.3335
-21.9937
-21.2605
-20.2023
-18.8929
-17.404
-15.7981
-14.1234
-12.4114
-10.6771
-8.92165
-7.13813
-5.31787
-3.45807
-1.56835
0.324568
2.17546
3.92295
5.49579
6.82236
7.84194
8.51589
8.83681
8.83376
8.57241
8.14967
7.68344
7.29868
7.11179
7.21569
7.66754
8.48107
9.62459
11.0251
12.5776
14.1595
15.6466
16.9305
17.9331
18.6188
18.9997
19.1356
19.1272
19.1026
19.1997
19.5454
20.2341
21.3088
22.7464
24.4505
26.2532
27.9263
29.2018
29.8
29.4622
27.9844
25.2479
21.243
16.0838
10.0124
3.39455
-3.2904
-9.46142
-14.4441
-17.4731
-17.6883
-14.1309
-5.74985
8.56379
29.8974
59.1768
96.9625
143.197
196.939
256.143
317.548
376.741
428.426
466.917
486.786
483.614
454.698
399.618
320.544
222.222
111.604
-2.82735
-111.961
-207.075
-280.818
-328.029
-346.292
-336.141
-300.915
-246.281
-179.494
-108.51
-41.0569
16.2102
58.3768
82.6858
88.6707
78.0089
54.1339
21.6713
-14.2177
-48.4992
-76.8547
-96.129
-104.597
-102.029
-89.578
-69.4949
-44.7519
-18.6069
5.82255
25.9249
39.8632
46.7213
46.5224
40.1314
29.0631
15.2306
0.671511
-12.7137
-23.3789
-30.2827
-32.9622
-31.5266
-26.582
-19.1025
-10.2701
-1.30615
6.68452
12.8374
16.6094
17.8116
16.5937
13.389
8.82935
3.6449
-1.43714
-5.78253
-8.91816
-10.5722
-10.6845
-9.38806
-6.96914
-3.81085
-0.331222
3.07705
6.09736
8.52541
10.2878
11.4422
12.1612
12.7018
13.3666
14.4602
16.2479
18.9198
22.5665
27.1669
32.5906
38.6138
44.9459
51.2631
57.2457
62.6121
67.1486
70.7286
73.3214
74.9905
75.8803
76.1959
76.1776
76.0722
76.1064
76.4629
77.2624
78.552
80.3019
82.4091
84.7091
86.9926
89.0267
90.5786
91.438
91.4371
90.465
88.4749
85.483
81.5603
76.8186
71.3941
65.4309
59.0685
52.4342
45.6407
38.7891
31.975
25.2951
18.8524
12.7582
7.12967
2.08297
-2.2765
-5.8661
-8.63734
-10.5851
-11.753
-12.2332
-12.1614
-11.7063
-11.0546
-10.3946
-9.898
-9.70381
-9.90531
-10.5414
-11.5935
-12.9882
-14.6057
-16.2921
-17.8755
-19.1835
-20.0603
-20.3812
-20.0645
-19.0779
-17.4399
-15.2168
-12.5149
-9.47039
-6.23749
-2.97678
0.155497
3.01618
5.48168
7.4523
8.85462
9.64248
9.79697
9.32574
8.26191
6.66238
4.6058
2.18967
-0.473207
-3.25922
-6.03917
-8.68412
-11.0716
-13.0915
-14.652
-15.6834
-16.1419
-16.0108
-15.3003
-14.0455
-12.3037
-10.15
-7.67322
-4.97156
-2.14863
0.68981
3.43879
5.99669
8.26782
10.1651
11.6132
12.5518
12.939
12.7551
12.0048
10.7193
8.95626
6.79859
4.35077
1.73382
-0.921411
-3.48186
-5.82029
-7.82307
-9.39705
-10.4751
-11.0203
-11.0281
-10.5275
-9.58032
-8.2793
-6.74485
-5.11987
-3.56274
-2.23787
-1.3038
-0.89915
-1.12724
-2.04105
-3.63053
-5.81454
-8.43962
-11.2868
-14.0868
-16.5434
-18.3615
-19.2783
-19.0927
-17.6894
-15.0557
-11.2862
-6.57765
-1.21165
4.47045
10.0993
15.3112
19.7802
23.2453
25.5302
26.5529
26.3272
24.9534
22.6037
19.5017
15.9003
12.0599
8.22886
4.62818
1.44036
-1.197
-3.19331
-4.50349
-5.1237
-5.08525
-4.44743
-3.28999
-1.70575
0.206432
2.34841
4.62967
6.9753
9.33618
11.7028
14.124
16.7302
19.7622
23.6014
28.7965
36.0787
46.3536
60.6538
80.0407
105.446
137.455
176.057
220.393
268.56
317.528
363.226
400.815
425.165
431.471
415.947
376.487
313.177
228.578
127.684
17.5571
-93.3362
-196.021
-282.012
-344.29
-378.119
-381.589
-355.826
-304.825
-234.946
-154.142
-71.0202
6.13511
70.2598
116.215
141.226
145.02
129.656
99.1013
58.608
13.9973
-29.068
-65.7259
-92.4054
-107.115
-109.517
-100.79
-83.3294
-60.322
-35.2731
-11.5402
8.06568
21.5706
27.9934
27.3624
20.6045
9.33376
-4.4236
-18.5274
-31.0048
-40.2819
-45.3417
-45.7957
-41.871
-34.321
-24.2798
-13.0844
-2.08913
7.50262
14.7719
19.1686
20.5423
19.1207
15.4445
10.2702
4.45682
-1.1477
-5.80747
-8.97475
-10.3351
-9.81892
-7.58157
-3.95769
0.601825
5.60031
10.5637
15.0983
18.9313
21.931
24.1064
25.5882
26.5956
27.3952
28.2586
29.4228
31.0609
33.2633
36.0327
39.2912
42.8963
46.6644
50.3951
53.8958
57.0005
59.5825
61.5612
62.9017
63.6102
63.727
63.3187
62.4713
61.2848
59.8689
58.3382
56.8059
55.375
54.1257
53.1028
52.3019
51.6609
51.0578
50.3186
49.2339
47.5857
45.1789
41.8736
37.6132
32.4429
26.5144
20.0761
13.4473
6.98191
1.02429
-4.13412
-8.29201
-11.3625
-13.3811
-14.4954
-14.9383
-14.9892
-14.9284
-14.9928
-15.3385
-16.0173
-16.9693
-18.0325
-18.9686
-19.4998
-19.3522
-18.2988
-16.1959
-13.0093
-8.82505
-3.84548
1.62999
7.23572
12.5784
17.2781
21.0073
23.5224
24.6852
24.4724
22.9716
20.3669
16.915
12.9156
8.68102
4.50641
0.646403
-2.70174
-5.40647
-7.40231
-8.68354
-9.2932
-9.30991
-8.83461
-7.97906
-6.85695
-5.57795
-4.24414
-2.94814
-1.77186
-0.78519
-0.0442205
0.411126
0.55962
0.400852
-0.0437077
-0.731309
-1.60052
-2.57582
-3.57388
-4.51082
-5.30969
-5.90723
-6.25922
-6.34383
-6.163
-5.74159
-5.12497
-4.37494
-3.56435
-2.7705
-2.06758
-1.51852
-1.1672
-1.03207
-1.10252
-1.33914
-1.6786
-2.04314
-2.35369
-2.5448
-2.57894
-2.45728
-2.2247
-1.96706
-1.80064
-1.85441
-2.24777
-3.06714
-4.34524
-6.04698
-8.06468
-10.2242
-12.3017
-14.0494
-15.2261
-15.6294
-15.1237
-13.6609
-11.2904
-8.15637
-4.48313
-0.55072
3.33683
6.88578
9.84534
12.0346
13.3606
13.8248
13.5187
12.6068
11.3019
9.83353
8.41503
7.21385
6.32856
5.7768
5.49605
5.35766
5.19271
4.82626
4.11483
2.98128
1.44092
-0.386215
-2.28032
-3.94448
-5.04282
-5.24923
-4.29929
-2.03753
1.54773
6.30811
11.9407
18.0155
24.021
29.4229
33.7261
36.5339
37.5945
36.8316
34.3556
30.4571
25.5865
20.3264
15.3645
11.4723
9.49348
10.3405
14.9896
24.4603
39.7606
61.7801
91.1246
127.898
171.461
220.216
271.478
321.493
365.64
398.848
416.164
413.436
387.982
339.147
268.633
180.529
81.021
-22.214
-120.834
-206.781
-273.22
-315.325
-330.823
-320.208
-286.608
-235.342
-173.21
-107.65
-45.8493
6.05975
43.6243
64.4536
68.3237
57.0125
33.905
3.43785
-29.5378
-60.3865
-85.2356
-101.379
-107.499
-103.697
-91.3394
-72.7712
-50.9213
-28.8784
-9.48287
5.01313
13.1817
14.5305
9.48711
-0.730553
-14.3311
-29.22
-43.2842
-54.6563
-61.926
-64.2785
-61.5487
-54.1921
-43.1818
-29.8522
-15.7104
-2.24415
9.25329
17.8187
22.9035
24.401
22.618
18.1996
12.0206
5.05982
-1.72532
-7.50824
-11.6746
-13.8681
-13.9978
-12.2113
-8.83954
-4.32491
0.855475
6.26068
11.5408
16.4705
20.9578
25.0316
28.8107
32.4624
36.1582
40.0342
44.1606
48.5272
53.0421
57.5456
61.8349
65.6942
68.9269
71.3834
72.9821
73.7201
73.6735
72.9867
71.8546
70.4985
69.1413
67.9826
67.1793
66.8323
66.9808
67.6039
68.6302
69.9514
71.4387
72.9596
74.391
75.6282
76.5866
77.1984
77.4046
77.1449
76.349
74.9326
72.7997
69.8516
66.0029
61.2012
55.4472
48.8114
41.4436
33.5728
25.4961
17.5569
10.1153
3.51366
-1.95745
-6.0895
-8.77741
-10.0299
-9.96711
-8.80631
-6.83704
-4.38941
-1.79938
0.624829
2.63119
4.04416
4.77513
4.8222
4.26058
3.22509
1.88787
0.434287
-0.959984
-2.1479
-3.02431
-3.53254
-3.66434
-3.45409
-2.96879
-2.29567
-1.52931
-0.760008
-0.064456
0.500351
0.899984
1.12241
1.17541
1.0825
0.87797
0.601997
0.296228
0.000117827
-0.251879
-0.432348
-0.52233
-0.512224
-0.402214
-0.202181
0.0689817
0.384755
0.713037
1.01871
1.26649
1.42362
1.46228
1.36117
1.10648
0.691978
0.11849
-0.606999
-1.47244
-2.46175
-3.55564
-4.73215
-5.96681
-7.23269
-8.50022
-9.73715
-10.9088
-11.9789
-12.9105
-13.6687
-14.2226
-14.5488
-14.6336
-14.4762
-14.089
-13.4987
-12.7437
-11.8721
-10.9374
-9.99505
-9.0986
-8.29745
-7.63528
-7.14952
-6.87128
-6.82482
-7.02615
-7.4803
-8.17733
-9.08798
-10.1599
-11.3157
-12.4546
-13.4567
-14.1926
-14.535
-14.3724
-13.6231
-12.2465
-10.2515
-7.69916
-4.7
-1.40593
2.00246
5.33151
8.39139
11.0124
13.0593
14.4414
15.1192
15.1055
14.4618
13.2907
11.7248
9.91372
8.01033
6.1574
4.47673
3.06124
1.97121
1.23526
0.855758
0.818241
1.10308
1.69748
2.60518
3.85158
5.48209
7.55283
10.1141
13.1884
16.7466
20.6867
24.8197
28.8678
32.4764
35.2411
36.7478
36.622
34.581
30.4823
24.3643
16.4728
7.27311
-2.55217
-12.1175
-20.3579
-26.0592
-27.8955
-24.4786
-14.4263
3.53849
30.4475
66.9033
112.858
167.384
228.47
292.917
356.365
413.521
458.583
485.847
490.422
468.964
420.304
345.848
249.691
138.364
20.2543
-95.2471
-198.766
-281.994
-338.618
-365.025
-360.663
-328.042
-272.367
-200.857
-121.864
-43.8939
25.3424
79.7239
115.281
130.464
126.113
105.144
72.0267
32.1136
-9.06217
-46.4502
-76.0218
-95.1327
-102.682
-99.07
-85.9771
-66.0145
-42.2993
-18.0167
3.97497
21.4524
33.0196
38.1747
37.2557
31.2892
21.7706
10.4144
-1.0919
-11.2969
-19.1374
-24.0196
-25.8288
-24.8752
-21.7913
-17.4004
-12.5763
-8.1161
-4.63879
-2.52162
-1.87791
-2.57411
-4.2794
-6.53704
-8.84538
-10.736
-11.8383
-11.9226
-10.9184
-8.90611
-6.0874
-2.73981
0.836079
4.3679
7.65339
10.5869
13.1675
15.4887
17.7123
20.0322
22.6345
25.6601
29.1763
33.1618
37.5064
42.0249
46.4834
50.6324
54.2421
57.1346
59.2079
60.4496
60.9372
60.8275
60.335
59.7042
59.1792
58.9748
59.2528
60.1059
61.5521
63.5369
65.9455
68.6199
71.38
74.0442
76.4479
78.4576
79.9785
80.9563
81.3732
81.2398
80.5836
79.4371
77.8269
75.7659
73.2481
70.2492
66.7307
62.6477
57.9593
52.6407
46.6934
40.1546
33.1029
25.6597
17.9872
10.2804
2.75663
-4.3586
-10.8476
-16.5162
-21.2085
-24.8182
-27.2952
-28.6475
-28.9375
-28.2732
-26.7953
-24.6625
-22.0352
-19.0614
-15.8648
-12.5383
-9.14308
-5.71294
-2.2646
1.18937
4.6266
8.00289
11.2446
14.2471
16.8803
19.0002
20.4654
21.1566
20.9941
19.9539
18.0757
15.4652
12.2872
8.75164
5.09365
1.55051
-1.66191
-4.37006
-6.45839
-7.87803
-8.64747
-8.84566
-8.59841
-8.06022
-7.39387
-6.75044
-6.25208
-5.97958
-5.96583
-6.19563
-6.6115
-7.12434
-7.62773
-8.01411
-8.19123
-8.09715
-7.71205
-7.06547
-6.23748
-5.35336
-4.5715
-4.06544
-4.00182
-4.51663
-5.69305
-7.54396
-10.0022
-12.9202
-16.0809
-19.217
-22.0389
-24.2663
-25.6597
-26.0487
-25.3519
-23.5874
-20.8713
-17.4056
-13.4562
-9.32438
-5.31518
-1.70616
1.27918
3.49093
4.86317
5.41447
5.23931
4.49187
3.36489
2.06638
0.797249
-0.267694
-0.993602
-1.29329
-1.12879
-0.50752
0.525574
1.89833
3.5224
5.30367
7.15111
8.98352
10.7341
12.3528
13.8072
15.0813
16.1729
17.0907
17.8493
18.4645
18.9486
19.3061
19.5314
19.6069
19.5051
19.1912
18.6294
17.7899
16.6574
15.2389
13.571
11.7234
9.7993
7.93094
6.26908
4.96767
4.16388
3.95578
4.3805
5.39668
6.8748
8.5985
10.2789
11.5818
12.1661
11.7287
10.0526
7.05021
2.79802
-2.44206
-8.21641
-13.888
-18.6568
-21.5884
-21.6478
-17.7385
-8.75132
6.36891
28.5252
58.3308
95.9301
140.793
191.515
245.67
299.775
349.414
389.553
415.028
421.182
404.549
363.489
298.652
213.196
112.673
4.58126
-102.366
-199.187
-277.651
-331.246
-355.947
-350.687
-317.471
-261.105
-188.589
-108.27
-28.8415
41.6441
96.6557
131.833
145.344
137.923
112.598
74.1672
28.5031
-18.2208
-60.2775
-93.0219
-113.343
-119.896
-113.1
-94.9278
-68.5249
-37.727
-6.53653
21.3691
43.0436
56.5495
61.0884
56.9796
45.5085
28.6734
8.87342
-11.4185
-29.9562
-44.9613
-55.2803
-60.4489
-60.6652
-56.685
-49.6606
-40.9483
-31.9119
-23.7466
-17.3424
-13.2021
-11.4175
-11.7025
-13.475
-15.9705
-18.372
-19.9352
-20.0932
-18.5279
-15.1991
-10.3315
-4.3642
2.12764
8.52534
14.2592
18.8875
22.152
24.0034
24.5951
24.2499
23.4046
22.5428
22.1263
22.5337
24.0146
26.6633
30.415
35.0614
40.2839
45.6975
50.8985
55.5121
59.2309
61.8438
63.2497
63.4593
62.5821
60.8059
58.3683
55.5267
52.5289
49.5882
46.8649
44.4554
42.3893
40.6341
39.1061
37.6857
36.2352
34.6175
32.7132
30.4355
27.7409
24.635
21.1733
17.456
13.6181
9.81511
6.20569
2.93324
0.108546
-2.20422
-3.99613
-5.31527
-6.26089
-6.97061
-7.60192
-8.31049
-9.22823
-10.444
-11.9901
-13.8356
-15.8891
-18.0087
-20.0193
-21.734
-22.9776
-23.608
-23.5336
-22.7244
-21.2155
-19.1027
-16.5319
-13.6823
-10.7474
-7.91489
-5.34898
-3.17576
-1.47432
-0.273485
0.445729
0.74272
0.70629
0.441635
0.0570486
-0.348119
-0.693002
-0.92145
-1.00466
-0.940321
-0.748892
-0.467754
-0.144264
0.171345
0.432382
0.600773
0.650438
0.568831
0.356796
0.0270433
-0.398313
-0.890692
-1.41803
-1.9475
-2.4477
-2.89034
-3.25121
-3.51082
-3.65451
-3.67246
-3.55949
-3.31498
-2.9428
-2.45121
-1.8528
-1.16416
-0.40538
0.400636
1.22914
2.05452
2.85128
3.5948
4.26193
4.83117
5.28261
5.59772
5.75908
5.75033
5.55634
5.16401
4.56366
3.7511
2.73045
1.51736
0.142062
-1.34837
-2.88953
-4.40159
-5.79397
-6.97268
-7.84957
-8.35245
-8.43449
-8.08156
-7.31617
-6.1972
-4.81524
-3.28405
-1.729
-0.274122
0.970714
1.92082
2.5246
2.76742
2.67124
2.2902
1.7031
1.00394
0.292163
-0.336411
-0.796567
-1.01833
-0.949099
-0.553732
0.186679
1.27657
2.70746
4.45899
6.49913
8.78402
11.2578
13.8533
16.4932
19.0935
21.5675
23.8309
25.8068
27.4301
28.6504
29.4341
29.7637
29.6372
29.0655
28.0706
26.683
24.9407
22.8888
20.579
18.0704
15.4304
12.7346
10.0667
7.51873
5.19068
3.19376
1.65763
0.744916
0.674875
1.75621
4.42578
9.28538
17.1233
28.9033
45.7016
68.5773
98.3721
135.451
179.423
228.884
281.266
332.84
378.919
414.281
433.768
432.999
409.072
361.158
290.862
202.27
101.672
-3.05208
-103.271
-190.583
-257.788
-299.722
-313.836
-300.459
-262.693
-205.981
-137.409
-64.8357
4.02652
62.4673
105.462
130.114
135.817
124.128
98.4065
63.2578
23.8838
-14.5823
-47.6718
-72.042
-85.7567
-88.3715
-80.8301
-65.2026
-44.3141
-21.3192
0.719491
19.1976
32.241
38.8585
38.9707
33.3215
23.2978
10.688
-2.58439
-14.7158
-24.2363
-30.1589
-32.0533
-30.0424
-24.7296
-17.0737
-8.2323
0.603525
8.36192
14.212
17.643
18.4954
16.9445
13.4445
8.64357
3.28357
-1.90013
-6.26699
-9.33726
-10.8298
-10.6699
-8.97039
-5.99053
-2.08199
2.36991
7.00122
11.5136
15.7034
19.4732
22.8268
25.8506
28.6856
31.4942
34.4294
37.6076
41.0912
44.8802
48.9145
53.0842
57.2474
61.2502
64.9479
68.2233
71.0005
73.2521
75.0003
76.3116
77.2863
78.0446
78.7109
79.3987
80.1976
81.1633
82.3123
83.6213
85.0307
86.4515
87.7755
88.8854
89.6643
90.0039
89.8082
88.9952
87.4956
85.2507
82.2109
78.337
73.6046
68.0126
61.5934
54.4232
46.6303
38.3975
29.958
21.5837
13.5664
6.19445
-0.272188
-5.62503
-9.7247
-12.5109
-14.0032
-14.2943
-13.5355
-11.9196
-9.66254
-6.98698
-4.10998
-1.23453
1.45486
3.79422
5.64148
6.87896
7.4178
7.20478
6.23019
4.53524
2.21655
-0.574606
-3.63971
-6.74773
-9.65609
-12.1357
-13.9965
-15.1099
-15.4236
-14.9672
-13.8461
-12.2254
-10.3053
-8.29229
-6.37059
-4.67808
-3.29054
-2.21644
-1.40258
-0.749505
-0.133792
0.566722
1.44877
2.5645
3.91015
5.42409
6.99424
8.47345
9.70019
10.5214
10.814
10.5023
9.56839
8.05544
6.06255
3.73319
1.23859
-1.24143
-3.5375
-5.50751
-7.04909
-8.10672
-8.67316
-8.78533
-8.51584
-7.96139
-7.22986
-6.42742
-5.64739
-4.96174
-4.41595
-4.02755
-3.78802
-3.66765
-3.62242
-3.60205
-3.55796
-3.45029
-3.25309
-2.9571
-2.57015
-2.11533
-1.62751
-1.14884
-0.724241
-0.39718
-0.206474
-0.184014
-0.353334
-0.728541
-1.31314
-2.09835
-3.06096
-4.16088
-5.33938
-6.51858
-7.60331
-8.48567
-9.0526
-9.19563
-8.82215
-7.86643
-6.29906
-4.13309
-1.4259
1.72388
5.18413
8.80079
12.4117
15.861
19.0119
21.7567
24.0227
25.7739
27.0078
27.7505
28.0487
27.9619
27.5562
26.8993
26.0585
25.1011
24.0952
23.1118
22.225
21.5107
21.0421
20.8825
21.0758
21.6363
22.5385
23.709
25.0237
26.3099
27.3555
27.9258
27.787
26.7344
24.6238
21.4031
17.1407
12.051
6.51316
1.08581
-3.48488
-6.26281
-6.13007
-1.8127
8.06366
24.8737
49.8349
83.7887
126.931
178.53
236.677
298.15
358.457
412.091
453.034
475.444
474.456
446.967
392.271
312.427
212.263
99.0128
-18.4062
-130.361
-227.599
-302.309
-349.011
-365.152
-351.327
-311.123
-250.594
-177.471
-100.208
-26.9897
35.1658
81.1056
107.973
115.334
105.002
80.6159
47.0349
9.64213
-26.3487
-56.4996
-77.6028
-87.9391
-87.3305
-76.9977
-59.261
-37.1355
-13.8825
7.42439
24.2649
34.9321
38.6647
35.6481
26.8976
14.0501
-0.899913
-15.8828
-29.0164
-38.8194
-44.3539
-45.2867
-41.8703
-34.8544
-25.3451
-14.6359
-4.03197
5.30741
12.4936
16.9868
18.6238
17.597
14.3929
9.70186
4.31359
-0.986866
-5.5094
-8.72612
-10.3101
-10.1444
-8.30566
-5.026
-0.643721
4.45102
9.86734
15.256
20.3398
24.93
28.9306
32.3317
35.1959
37.6393
39.8119
41.8773
43.9958
46.3085
48.9266
51.9233
55.3293
59.1325
63.2794
67.6799
72.2134
76.7373
81.0965
85.1345
88.7067
91.6934
94.0136
95.636
96.587
96.9527
96.8737
96.5325
96.1325
95.8725
95.9177
96.3714
97.2534
98.4855
99.89
101.2
102.081
102.165
101.089
98.534
94.2679
88.1768
80.2891
70.7844
59.9878
48.3486
36.405
24.7373
13.9157
4.44822
-3.26726
-8.97843
-12.5997
-14.2155
-14.0658
-12.5161
-10.0148
-7.0447
-4.07276
-1.50546
0.346332
1.28919
1.25424
0.28991
-1.45728
-3.77043
-6.39423
-9.06679
-11.5477
-13.6394
-15.2003
-16.1499
-16.4654
-16.1734
-15.3374
-14.0442
-12.391
-10.4755
-8.38897
-6.21314
-4.02012
-1.87465
0.162695
2.03247
3.67456
5.02817
6.03398
6.63793
6.79638
6.4814
5.68572
4.4262
2.7456
0.712098
-1.58326
-4.031
-6.5093
-8.89109
-11.0517
-12.8766
-14.2683
-15.1527
-15.4833
-15.2442
-14.4506
-13.1478
-11.4075
-9.32256
-7.00094
-4.55755
-2.10634
0.247566
2.41453
4.32501
5.93139
7.20669
8.14057
8.7332
8.98846
8.90776
8.48589
7.70972
6.56029
5.01786
3.06914
0.715324
-2.0206
-5.0888
-8.41088
-11.8822
-15.3778
-18.7612
-21.8939
-24.6444
-26.8954
-28.5473
-29.5204
-29.7545
-29.209
-27.8646
-25.7263
-22.8295
-19.2466
-15.0934
-10.5327
-5.77302
-1.06143
3.33134
7.13161
10.0883
12
12.7405
12.278
10.6858
8.14134
4.91336
1.3376
-2.21632
-5.38308
-7.84039
-9.3437
-9.75247
-9.04492
-7.31938
-4.7818
-1.72074
1.52752
4.61992
7.24872
9.17992
10.2827
10.5462
10.0804
9.10141
7.90109
6.80596
6.13005
6.12812
6.95609
8.64418
11.0869
14.052
17.207
20.1602
22.5121
23.9084
24.0901
22.9342
20.4806
16.9439
12.7119
8.33127
4.48827
1.98547
1.71952
4.6579
11.8099
24.1812
42.6996
68.0993
100.76
140.506
186.4
236.56
288.071
337.028
378.765
408.268
420.74
412.267
380.465
325.016
247.978
153.801
49.0184
-58.3601
-159.694
-246.672
-312.264
-351.531
-362.185
-344.821
-302.803
-241.811
-169.136
-92.8027
-20.6455
40.5404
85.6828
111.87
118.505
107.182
81.3151
45.5842
5.28691
-34.3282
-68.6584
-94.2106
-108.89
-112.093
-104.621
-88.4283
-66.2695
-41.2847
-16.5866
5.104
21.735
32.0892
35.8313
33.4446
26.0765
15.323
2.98458
-9.17323
-19.6271
-27.2492
-31.3946
-31.9205
-29.1425
-23.7412
-16.6357
-8.84328
-1.34446
5.03218
9.69255
12.3215
12.8881
11.6156
8.92435
5.35742
1.50127
-2.08898
-4.95012
-6.75189
-7.31572
-6.61229
-4.74116
-1.89786
1.66514
5.67778
9.88682
14.0817
18.1102
21.8832
25.3711
28.5923
31.5983
34.4573
37.2385
40.0005
42.7828
45.6025
48.4552
51.3186
54.1586
56.9356
59.6106
62.149
64.5232
66.7123
68.6997
70.4699
72.0047
73.2792
74.2602
74.905
75.1633
74.9801
74.3007
73.0764
71.2705
68.8644
65.8622
62.2936
58.215
53.7078
48.8743
43.8315
38.704
33.6153
28.6808
24.0008
19.656
15.7046
12.1814
9.09767
6.44263
4.18399
2.26924
0.627014
-0.830805
-2.20549
-3.60588
-5.14048
-6.90753
-8.98364
-11.412
-14.1918
-17.27
-20.5369
-23.8277
-26.9286
-29.5907
-31.5487
-32.5443
-32.3524
-30.8073
-27.8251
-23.4209
-17.7165
-10.9391
-3.40815
4.48617
12.3131
19.6361
26.0486
31.2079
34.8626
36.8723
37.2158
35.9883
33.3889
29.6984
25.2511
20.4038
15.5047
10.8658
6.74063
3.30964
0.673552
-1.1453
-2.19455
-2.57789
-2.43773
-1.93645
-1.23841
-0.494353
0.170406
0.663304
0.927195
0.938732
0.703312
0.247694
-0.388436
-1.16077
-2.02753
-2.95476
-3.91934
-4.90965
-5.92407
-6.96786
-8.0488
-9.17252
-10.338
-11.534
-12.7367
-13.9095
-15.0045
-15.9654
-16.7331
-17.2516
-17.4743
-17.3699
-16.9273
-16.1578
-15.0954
-13.7944
-12.3241
-10.7632
-9.19185
-7.6849
-6.30543
-5.1002
-4.09701
-3.30437
-2.71319
-2.3002
-2.03248
-1.87232
-1.78189
-1.72706
-1.6799
-1.61993
-1.53386
-1.41427
-1.25753
-1.06149
-0.823375
-0.538282
-0.198551
0.205998
0.68716
1.25714
1.92752
2.70884
3.61104
4.64462
5.82197
7.1581
8.66983
10.373
12.2776
14.3816
16.6642
19.0812
21.5625
24.0132
26.3191
28.3558
29.9998
31.1418
31.6978
31.6189
30.8974
29.568
27.7048
25.4139
22.8224
20.0662
17.276
14.5659
12.0235
9.7048
7.63363
5.80688
4.20428
2.80251
1.59167
0.592667
-0.126244
-0.434309
-0.124465
1.10033
3.64175
8.02154
14.8943
25.0491
39.3883
58.8647
84.3665
116.54
155.561
200.882
251.004
303.335
354.191
398.99
432.652
450.165
447.27
421.146
370.978
298.326
207.183
103.718
-4.30236
-108.326
-199.961
-271.931
-318.904
-338.079
-329.468
-295.831
-242.285
-175.642
-103.585
-33.7672
27.0205
73.5433
102.581
113.119
106.27
84.9513
53.3759
16.4409
-20.9107
-54.2714
-80.2286
-96.6592
-102.838
-99.3629
-87.9333
-71.0094
-51.4207
-31.9693
-15.0808
-2.54037
4.66106
6.36339
3.1642
-3.74337
-12.7919
-22.2854
-30.6367
-36.5651
-39.2352
-38.3243
-34.016
-26.9304
-18.0039
-8.3407
0.943248
8.86282
14.6762
17.9558
18.613
16.8779
13.241
8.36839
3.00354
-2.13075
-6.41738
-9.40777
-10.8568
-10.7281
-9.17187
-6.4813
-3.03411
0.770699
4.57291
8.10003
11.1995
13.8509
16.1588
18.3273
20.6226
23.3278
26.6979
30.92
36.0821
42.157
48.9983
56.3523
63.8812
71.1955
77.8928
83.5971
87.995
90.8659
92.1018
91.7161
89.8414
86.7162
82.6631
78.0618
73.3195
68.8405
65
62.1198
60.4497
60.1522
61.2915
63.8263
67.607
72.3788
77.7901
83.4098
88.7506
93.3005
96.5592
98.0778
97.4985
94.5909
89.2803
81.6646
72.0169
60.7718
48.4951
35.84
23.4922
12.1108
2.27023
-5.58967
-11.2005
-14.4843
-15.5529
-14.6881
-12.3056
-8.90598
-5.02058
-1.15667
2.25057
4.87479
6.52039
7.12813
6.76509
5.6014
3.87785
1.86892
-0.153713
-1.95279
-3.3491
-4.23499
-4.57755
-4.4123
-3.82958
-2.95608
-1.93476
-0.905479
0.0110881
0.724994
1.18313
1.37006
1.30419
1.0306
0.611879
0.118496
-0.380099
-0.822627
-1.16095
-1.36274
-1.41206
-1.30834
-1.06426
-0.703158
-0.256198
0.240173
0.746572
1.22273
1.62936
1.93004
2.09302
2.09311
1.91334
1.54623
0.994432
0.27045
-0.60454
-1.60269
-2.69207
-3.83937
-5.01249
-6.18242
-7.32438
-8.41801
-9.44676
-10.3967
-11.2553
-12.0099
-12.6475
-13.1544
-13.5175
-13.7256
-13.7719
-13.6562
-13.387
-12.9832
-12.474
-11.8984
-11.3024
-10.7359
-10.2474
-9.87968
-9.66453
-9.61884
-9.74179
-10.0137
-10.3969
-10.8385
-11.2747
-11.6363
-11.8551
-11.8694
-11.6293
-11.1003
-10.2654
-9.1265
-7.7039
-6.03567
-4.17657
-2.19663
-0.179291
1.78139
3.58484
5.12988
6.32248
7.08527
7.36789
7.15724
6.48585
5.4366
4.14219
2.77821
1.54947
0.670506
0.342054
0.72633
1.92432
3.9584
6.76307
10.1856
13.9972
17.9139
21.6249
24.8253
27.2498
28.702
29.0775
28.3769
26.7073
24.2714
21.3465
18.2544
15.3257
12.8626
11.1032
10.1926
10.1637
10.9301
12.2936
13.9656
15.6018
16.8472
17.3878
17.0039
15.6215
13.3568
10.5522
7.79918
5.948
6.09821
9.56412
17.8048
32.3071
54.4131
85.0906
124.663
172.529
226.937
284.851
342.008
393.166
432.582
454.655
454.68
429.573
378.477
303.109
207.795
99.158
-14.524
-124.192
-221.011
-297.365
-347.705
-369.143
-361.722
-328.316
-274.218
-206.439
-132.857
-61.2915
1.342
49.7321
80.6281
93.0245
88.068
68.7201
39.236
4.53764
-30.4336
-61.3033
-84.7241
-98.6648
-102.509
-96.9721
-83.8583
-65.7142
-45.4227
-25.7997
-9.24161
2.53648
8.64868
9.06523
4.52705
-3.62991
-13.7092
-23.9117
-32.5822
-38.4143
-40.5914
-38.8525
-33.4814
-25.2265
-15.1693
-4.55977
5.35479
13.4883
19.0411
21.5797
21.0637
17.8224
12.486
5.88536
-1.06567
-7.48796
-12.6408
-15.9989
-17.2958
-16.5301
-13.9381
-9.93792
-5.05726
0.146585
5.16141
9.58079
13.1441
15.7523
17.4607
18.4509
18.9896
19.3796
19.9121
20.8253
22.2756
24.3223
26.9287
29.9753
33.2843
36.6492
39.866
42.7625
45.22
47.1873
48.6845
49.7971
50.6622
51.4481
52.3308
53.4708
54.9925
56.9684
59.4102
62.2676
65.4327
68.7515
72.0385
75.0939
77.7205
79.7393
81.0021
81.4004
80.8695
79.3887
76.9778
73.6905
69.6066
64.8238
59.4512
53.605
47.406
40.9804
34.4607
27.9868
21.7059
15.7693
10.3264
5.51545
1.45269
-1.7789
-4.1396
-5.63962
-6.34096
-6.35376
-5.82712
-4.93539
-3.86135
-2.77858
-1.83514
-1.14065
-0.758214
-0.702143
-0.941352
-1.4078
-2.00859
-2.63987
-3.20088
-3.60616
-3.79472
-3.73533
-3.4277
-2.89988
-2.20265
-1.40208
-0.571209
0.217811
0.900495
1.42495
1.7548
1.87012
1.76655
1.45308
0.948774
0.279051
-0.528061
-1.4451
-2.44727
-3.51315
-4.62371
-5.75988
-6.89917
-8.01189
-9.05816
-9.98636
-10.7339
-11.2304
-11.4037
-11.1878
-10.5317
-9.40869
-7.82351
-5.81777
-3.47121
-0.898982
1.75516
4.32942
6.65719
8.5816
9.96964
10.7245
10.7943
10.1769
8.91934
7.11366
4.88828
2.39706
-0.193015
-2.71426
-5.00977
-6.94312
-8.40625
-9.3254
-9.66551
-9.43331
-8.67902
-7.4964
-6.02031
-4.42107
-2.89487
-1.65024
-0.890934
-0.796862
-1.50481
-3.09156
-5.56175
-8.84232
-12.7848
-17.1753
-21.7514
-26.2233
-30.2974
-33.6994
-36.1937
-37.599
-37.798
-36.7422
-34.4516
-31.0112
-26.5645
-21.3055
-15.4693
-9.32124
-3.1449
2.77152
8.1502
12.7397
16.3308
18.7719
19.9805
19.9516
18.7602
16.5577
13.5622
10.0429
6.30006
2.64309
-0.632659
-3.26676
-5.05116
-5.84264
-5.56961
-4.23339
-1.90465
1.28387
5.14704
9.45824
13.9606
18.3783
22.4287
25.835
28.3405
29.7244
29.8195
28.5294
25.8453
21.8596
16.778
10.9269
4.75945
-1.13982
-6.05055
-9.11301
-9.32966
-5.58009
3.33808
18.6277
41.3577
72.2712
111.548
158.551
211.598
267.837
323.254
372.892
411.263
432.948
433.298
409.159
359.474
285.683
191.811
84.2257
-28.9424
-138.634
-235.855
-312.696
-363.228
-384.178
-375.27
-339.206
-281.293
-208.773
-129.935
-53.1546
14.0475
65.7888
98.3771
110.569
103.527
80.4853
46.2108
6.30785
-33.5134
-68.1239
-93.5354
-107.275
-108.544
-98.1633
-78.3226
-52.1925
-23.4492
4.21663
27.5491
44.0812
52.3619
52.0397
43.8076
29.2281
10.4719
-9.98977
-29.6993
-46.495
-58.7314
-65.4188
-66.2737
-61.6821
-52.5911
-40.3461
-26.499
-12.6128
-0.0847424
9.99326
16.9242
20.4406
20.6867
18.1538
13.5837
7.85356
1.85755
-3.59937
-7.88515
-10.5941
-11.5667
-10.878
-8.79788
-5.73281
-2.15646
1.46055
4.71397
7.31548
9.12412
10.1573
10.5817
10.6854
10.8361
11.43
12.8382
15.3564
19.1643
24.3002
30.6522
37.9685
45.8847
53.9635
61.7435
68.7894
74.7381
79.3348
82.4558
84.1141
84.449
83.701
82.175
80.1986
78.0792
76.0671
74.3285
72.9316
71.8466
70.959
70.0935
69.0437
67.6035
65.5957
62.8944
59.4381
55.2346
50.3568
44.9322
39.1281
33.1352
27.15
21.3604
15.9325
11.0008
6.66226
2.97311
-0.0501969
-2.42745
-4.20822
-5.46347
-6.27599
-6.7308
-6.9062
-6.86683
-6.65901
-6.30918
-5.82528
-5.20101
-4.42227
-3.47508
-2.3537
-1.06795
0.351549
1.85113
3.35548
4.77259
6.00194
6.94464
7.51441
7.64767
7.31148
6.50825
5.27656
3.68819
1.84175
-0.146165
-2.15124
-4.05175
-5.73811
-7.12048
-8.13407
-8.74181
-8.93435
-8.72775
-8.15929
-7.28209
-6.15906
-4.85694
-3.4409
-1.97031
-0.495937
0.941107
2.3086
3.58094
4.73575
5.75018
6.59768
7.24614
7.6579
7.79201
7.60867
7.07526
6.17316
4.90435
3.29658
1.4062
-0.682199
-2.85953
-4.99936
-6.96794
-8.63617
-9.89248
-10.6551
-10.8822
-10.579
-9.7999
-8.64577
-7.25614
-5.79663
-4.44326
-3.365
-2.7067
-2.57408
-3.02273
-4.05205
-5.60498
-7.57331
-9.80818
-12.1343
-14.3667
-16.3273
-17.8614
-18.8496
-19.2173
-18.9377
-18.0315
-16.5604
-14.619
-12.324
-9.80303
-7.18578
-4.59644
-2.14955
0.0518267
1.91611
3.36264
4.32168
4.73632
4.56664
3.79618
2.43974
0.5509
-1.77268
-4.3882
-7.11215
-9.73089
-12.0167
-13.7479
-14.7301
-14.8171
-13.9266
-12.051
-9.25935
-5.69184
-1.54662
2.93929
7.51278
11.9282
15.9695
19.4678
22.3142
24.4645
25.9377
26.8074
27.1875
27.2135
27.0227
26.7339
26.4313
26.152
25.882
25.5582
25.0788
24.3193
23.1528
21.4723
19.2116
16.363
12.9885
9.22536
5.28509
1.44774
-1.94461
-4.49215
-5.73541
-5.14522
-2.10506
4.10855
14.3368
29.5243
50.6611
78.6646
114.194
157.408
207.694
263.423
321.789
378.81
429.524
468.406
489.974
489.518
463.842
411.891
335.168
237.821
126.396
9.23698
-104.375
-205.246
-285.304
-338.525
-361.602
-354.282
-319.338
-262.167
-190.101
-111.505
-34.8037
32.457
84.3842
117.271
129.838
123.168
100.373
66.0433
25.5757
-15.5375
-52.3642
-81.057
-99.1963
-105.927
-101.888
-88.9705
-69.9452
-48.0181
-26.3815
-7.81289
5.63295
12.8083
13.5233
8.47045
-0.955932
-12.9106
-25.3814
-36.466
-44.6078
-48.7651
-48.4981
-43.9716
-35.8801
-25.3142
-13.5884
-2.05764
8.05395
15.7923
20.5656
22.1833
20.8412
17.0609
11.5954
5.31433
-0.911903
-6.31739
-10.3213
-12.577
-12.9855
-11.6762
-8.96013
-5.26403
-1.05709
3.21978
7.21215
10.691
13.5685
15.89
17.8067
19.5339
21.304
23.3211
25.7259
28.5748
31.8356
35.3995
39.1046
42.7673
46.2135
49.3061
51.9637
54.1673
55.956
57.4134
58.6468
59.7643
60.8545
61.9715
63.1285
64.301
65.4383
66.48
67.376
68.103
68.6761
69.151
69.6171
70.1806
70.9418
71.9677
73.2675
74.7733
76.3316
77.7079
78.6049
78.6935
77.6519
75.2099
71.1891
65.536
58.342
49.8459
40.4194
30.536
20.7267
11.5288
3.43232
-3.16802
-8.00985
-10.9856
-12.1474
-11.695
-9.94777
-7.3064
-4.20732
-1.07695
1.70981
3.86234
5.19533
5.63671
5.22281
4.08239
2.41219
0.447583
-1.56808
-3.41201
-4.90545
-5.92998
-6.43556
-6.44008
-6.02117
-5.30185
-4.43197
-3.56796
-2.8532
-2.40132
-2.28411
-2.52529
-3.10041
-3.94271
-4.95383
-6.01782
-7.01666
-7.8453
-8.42435
-8.70905
-8.69357
-8.41033
-7.92454
-7.32495
-6.71192
-6.18438
-5.82738
-5.70157
-5.8359
-6.22435
-6.82685
-7.57433
-8.37695
-9.13475
-9.74906
-10.1336
-10.2238
-9.98358
-9.40831
-8.52496
-7.38826
-6.07432
-4.67233
-3.27522
-1.97059
-0.832613
0.0840783
0.748133
1.15255
1.3132
1.2651
1.05709
0.74557
0.388028
0.0371533
-0.263946
-0.48498
-0.609955
-0.63693
-0.576221
-0.447449
-0.275882
-0.0885888
0.089112
0.236511
0.339421
0.391046
0.391875
0.348761
0.273461
0.180896
0.0874164
0.00928315
-0.0384686
-0.0427169
0.00749931
0.121088
0.305241
0.565852
0.907903
1.3357
1.85293
2.46246
3.16599
3.9635
4.85264
5.82826
6.88208
8.0028
9.17666
10.3884
11.6227
12.8654
14.1049
15.3327
16.5432
17.7326
18.8974
20.0314
21.1239
22.1572
23.1058
23.9369
24.6119
25.0899
25.3316
25.304
24.985
24.3664
23.4564
22.2798
20.8762
19.2971
17.6007
15.8465
14.0893
12.3729
10.7256
9.15641
7.65375
6.18751
4.71461
3.18909
1.57674
-0.126103
-1.87051
-3.53099
-4.88131
-5.57178
-5.1104
-2.85111
2.00539
10.3902
23.3131
41.7677
66.5854
98.2412
136.627
180.825
228.931
277.981
324.032
362.431
388.26
396.923
384.799
349.857
292.128
213.954
119.938
16.5946
-88.2734
-186.393
-269.928
-332.359
-369.203
-378.506
-361.015
-320.038
-261.007
-190.803
-116.951
-46.7632
13.4284
58.8962
86.9068
96.8566
90.1503
69.857
40.2016
5.96641
-28.1179
-57.918
-80.3189
-93.4824
-96.9247
-91.4229
-78.7772
-61.4727
-42.2929
-23.9357
-8.68212
1.84922
6.8383
6.2853
0.926457
-7.93447
-18.6497
-29.4718
-38.7874
-45.3105
-48.2161
-47.204
-42.4896
-34.7326
-24.9156
-14.1958
-3.74739
5.38232
12.388
16.7806
18.4165
17.4808
14.4335
9.92695
4.70887
-0.476067
-4.97389
-8.28842
-10.1218
-10.3866
-9.19061
-6.79996
-3.58697
0.0289178
3.63912
6.89586
9.54905
11.467
12.6405
13.172
13.2522
13.1294
13.0752
13.3512
14.1806
15.7267
18.0798
21.2532
25.1866
29.7554
34.7856
40.0698
45.3857
50.5125
55.247
59.4161
62.887
65.5729
67.4351
68.4818
68.7626
68.3607
67.3822
65.9447
64.1651
62.1475
59.9736
57.6954
55.3318
52.8693
50.2677
47.4687
44.4088
41.0325
37.3056
33.2264
28.833
24.2057
19.4636
14.7554
10.246
6.09845
2.45587
-0.576446
-2.94488
-4.65543
-5.77426
-6.42025
-6.75033
-6.93956
-7.1585
-7.55123
-8.21699
-9.1978
-10.4736
-11.9653
-13.5444
-15.0481
-16.2978
-17.1182
-17.3554
-16.8922
-15.6602
-13.6469
-10.8989
-7.52072
-3.66956
0.453962
4.61802
8.57472
12.0772
14.898
16.8464
17.7856
17.6452
16.4305
14.2259
11.1912
7.55206
3.58412
-0.40837
-4.11686
-7.25418
-9.57903
-10.917
-11.176
-10.3552
-8.54545
-5.92256
-2.73272
0.72798
4.1382
7.17828
9.55683
11.0349
11.4454
10.7068
8.82834
5.90862
2.1254
-2.28091
-7.02914
-11.8222
-16.372
-20.4227
-23.768
-26.2635
-27.83
-28.4513
-28.1649
-27.049
-25.2086
-22.7611
-19.8265
-16.5201
-12.9512
-9.22516
-5.44755
-1.72943
1.80935
5.03995
7.82837
10.0435
11.5684
12.3127
12.2253
11.3037
9.59908
7.21619
4.30673
1.05787
-2.32349
-5.62864
-8.66496
-11.2719
-13.3329
-14.7831
-15.6101
-15.8505
-15.5816
-14.9089
-13.9534
-12.8373
-11.6725
-10.5515
-9.54097
-8.68021
-7.98225
-7.43803
-7.02245
-6.7013
-6.43793
-6.19886
-5.95769
-5.69692
-5.40787
-5.08876
-4.74173
-4.36923
-3.97048
-3.53856
-3.05853
-2.50682
-1.85198
-1.05671
-0.0810626
1.11353
2.55986
4.28051
6.28407
8.56238
11.0893
13.821
16.6982
19.6495
22.5954
25.452
28.1348
30.5603
32.6482
34.321
35.5059
36.1356
36.1525
35.5131
34.1957
32.2082
29.5972
26.4576
22.9417
19.2697
15.7421
12.7551
10.82
10.5844
12.8498
18.5764
28.8591
44.8595
67.6778
98.1578
136.636
182.664
234.753
290.214
345.144
394.627
433.145
455.19
455.995
432.282
382.894
309.211
215.251
107.413
-6.11174
-116.198
-213.8
-290.979
-341.816
-363.069
-354.507
-318.871
-261.48
-189.545
-111.286
-34.9685
32.0108
83.8842
117.032
130.217
124.517
102.996
70.1654
31.3255
-8.13334
-43.3715
-70.6158
-87.4971
-93.1853
-88.3239
-74.7922
-55.3394
-33.1498
-11.3986
7.14572
20.4272
27.2878
27.5212
21.8018
11.5097
-1.51498
-15.2513
-27.7722
-37.4789
-43.2724
-44.6439
-41.6839
-35.0137
-25.6591
-14.8846
-4.01485
5.73413
13.3935
18.3361
20.3192
19.4758
16.2604
11.3608
5.59052
-0.223229
-5.34122
-9.19239
-11.4246
-11.9224
-10.7942
-8.33131
-4.94977
-1.12135
2.69469
6.11125
8.8574
10.8027
11.9603
12.4709
12.5711
12.5513
12.7118
13.3203
14.5798
16.6081
19.4316
22.9921
27.1651
31.7834
36.664
41.631
46.5344
51.2597
55.7301
59.9014
63.7518
67.2691
70.4394
73.2372
75.6211
77.5334
78.9045
79.6607
79.7332
79.0684
77.6357
75.4339
72.4941
68.88
64.6841
60.0221
55.0247
49.8279
44.5636
39.3512
34.2907
29.4596
24.9119
20.681
16.7842
13.2283
10.0158
7.14914
4.63361
2.47786
0.691952
-0.716215
-1.74563
-2.407
-2.7267
-2.7491
-2.53658
-2.16692
-1.72842
-1.31301
-1.00844
-0.890359
-1.01537
-1.41591
-2.09753
-3.03891
-4.19459
-5.50013
-6.87921
-8.25184
-9.54281
-10.6894
-11.6472
-12.3929
-12.9243
-13.256
-13.4128
-13.4217
-13.3034
-13.066
-12.7016
-12.187
-11.4888
-10.5718
-9.40914
-7.99326
-6.34444
-4.51624
-2.59572
-0.698138
1.04388
2.49531
3.53609
4.07813
4.0791
3.55075
2.55959
1.21964
-0.32239
-1.90727
-3.38621
-4.64284
-5.61105
-6.2854
-6.72223
-7.0307
-7.3545
-7.84669
-8.64144
-9.82702
-11.4246
-13.3765
-15.5471
-17.7346
-19.6957
-21.1757
-21.9437
-21.8241
-20.7228
-18.6427
-15.687
-12.0496
-7.99495
-3.82894
0.134036
3.60443
6.34674
8.20139
9.09704
9.05245
8.16835
6.61095
4.58972
2.33227
0.0596299
-2.03543
-3.80474
-5.15437
-6.0469
-6.49701
-6.56135
-6.3247
-5.88457
-5.3364
-4.76108
-4.21625
-3.73175
-3.3095
-2.92696
-2.54355
-2.10854
-1.56957
-0.880246
-0.00625215
1.07094
2.35277
3.82453
5.45782
7.21369
9.04553
10.9011
12.7236
14.4518
16.0198
17.3582
18.3955
19.0626
19.2976
19.0538
18.3064
17.06
15.353
13.2598
10.8895
8.37995
5.88914
3.5837
1.62615
0.162229
-0.690619
-0.852607
-0.288543
0.987897
2.91257
5.37207
8.20799
11.2245
14.1997
16.8999
19.0979
20.591
21.2207
20.8887
19.5703
17.3224
14.2879
10.697
6.86845
3.21447
0.249391
-1.39607
-0.959386
2.46324
9.90834
22.5036
41.3778
67.5117
101.53
143.452
192.43
246.547
302.705
356.701
403.483
437.631
453.986
448.368
418.265
363.378
285.914
190.565
84.149
-25.0626
-128.228
-216.928
-284.131
-324.983
-337.343
-321.971
-282.37
-224.294
-155.014
-82.4294
-14.1538
43.3178
85.255
109.087
114.514
103.342
79.0776
46.362
10.312
-24.1323
-52.7802
-72.6178
-82.0526
-80.9623
-70.5587
-53.1025
-31.5167
-8.95701
11.6048
27.734
37.7855
41.0328
37.6719
28.7093
15.7605
0.792076
-14.1547
-27.2232
-36.9524
-42.4198
-43.303
-39.8625
-32.8539
-23.3883
-12.7629
-2.28592
6.88314
13.8581
18.1053
19.4719
18.1643
14.6855
9.74348
4.14313
-1.32082
-5.95875
-9.25778
-10.9239
-10.8928
-9.31116
-6.49433
-2.86778
1.09838
4.95312
8.31875
10.9302
12.656
13.5008
13.5906
13.1454
12.4429
11.7804
11.4377
11.6468
12.5714
14.2954
16.8229
20.0867
23.9636
28.2929
32.8978
37.6033
42.2525
46.7167
50.9017
54.7478
58.2261
61.3315
64.0743
66.4712
68.5374
70.281
71.6996
72.7789
73.4939
73.8109
73.69
73.0874
71.9576
70.255
67.9368
64.966
61.3172
56.9833
51.9837
46.3726
40.2456
33.7427
27.0467
20.3751
13.9673
8.06597
2.89651
-1.35444
-4.55756
-6.6545
-7.66455
-7.68316
-6.87244
-5.4447
-3.64097
-1.70714
0.129534
1.68075
2.81221
3.45186
3.59068
3.27641
2.60125
1.68531
0.657758
-0.362063
-1.28168
-2.04888
-2.6601
-3.16281
-3.65138
-4.25652
-5.12903
-6.4193
-8.25467
-10.7173
-13.8255
-17.5209
-21.6649
-26.044
-30.3856
-34.3824
-37.7224
-40.1218
-41.3566
-41.2878
-39.8789
-37.2017
-33.4303
-28.824
-23.7011
-18.4066
-13.2793
-8.62009
-4.66721
-1.5805
0.564538
1.77243
2.11499
1.71286
0.714693
-0.722821
-2.45105
-4.33997
-6.2826
-8.19382
-10.0054
-11.659
-13.1001
-14.2738
-15.1235
-15.5944
-15.6388
-15.224
-14.3398
-13.0051
-11.2714
-9.22229
-6.96902
-4.64257
-2.38238
-0.323791
1.41475
2.74298
3.60742
3.99619
3.93963
3.50652
2.79655
1.92984
1.03479
0.235771
-0.358163
-0.662259
-0.622319
-0.218026
0.536282
1.59289
2.87351
4.27327
5.66606
6.91135
7.86309
8.38083
8.34296
7.66126
6.29509
4.26329
1.65142
-1.38768
-4.64123
-7.85192
-10.7403
-13.0319
-14.4852
-14.9182
-14.2283
-12.4043
-9.52797
-5.76543
-1.34938
3.44543
8.33014
13.0296
17.3067
20.9803
23.9355
26.1249
27.563
28.3137
28.4742
28.158
27.4784
26.5351
25.4058
24.142
22.7701
21.296
19.7132
18.0113
16.1845
14.2383
12.1932
10.0862
7.96746
5.89606
3.93329
2.13623
0.55247
-0.78291
-1.84746
-2.62859
-3.11813
-3.30498
-3.16578
-2.65367
-1.68417
-0.116984
2.26701
5.79248
10.9163
18.2453
28.5325
42.636
61.4238
85.6187
115.586
151.088
191.051
233.4
275.02
311.901
339.473
353.125
348.838
323.854
277.242
210.287
126.593
31.8666
-66.6024
-160.713
-242.47
-304.918
-342.967
-353.988
-338.11
-298.168
-239.323
-168.413
-93.1286
-21.1116
40.8869
87.7027
116.223
125.581
117.069
93.8086
60.2303
21.444
-17.4154
-51.7849
-78.1465
-94.329
-99.6199
-94.6898
-81.3594
-62.2506
-40.378
-18.7364
0.0654804
14.0836
22.2045
24.1914
20.6147
12.6911
2.05835
-9.47801
-20.1914
-28.6447
-33.842
-35.3086
-33.0971
-27.7263
-20.0684
-11.2031
-2.26106
5.72287
11.9294
15.835
17.2471
16.2944
13.3783
9.09587
4.14665
-0.762399
-5.0024
-8.08838
-9.71947
-9.79125
-8.38181
-5.71627
-2.11673
2.05425
6.44847
10.7779
14.8464
18.5631
21.9391
25.0671
28.0899
31.1624
34.4143
37.9195
41.6757
45.5997
49.5367
53.2834
56.6202
59.3471
61.3175
62.4638
62.8115
62.4773
61.6544
60.5841
59.521
58.6959
58.2824
58.3725
58.9645
59.965
61.2031
62.4568
63.4838
64.0561
63.9894
63.1669
61.5519
59.1893
56.195
52.7369
49.0083
45.1999
41.4736
37.9418
34.6566
31.6089
28.737
25.9438
23.1179
20.1559
16.9819
13.5608
9.90469
6.07165
2.15747
-1.71742
-5.42356
-8.83809
-11.8582
-14.4106
-16.4568
-17.9925
-19.0444
-19.6621
-19.9098
-19.8572
-19.5706
-19.1065
-18.5061
-17.7927
-16.9701
-16.0234
-14.9216
-13.6216
-12.074
-10.2297
-8.04821
-5.505
-2.5993
0.640225
4.15172
7.83945
11.5765
15.2109
18.5751
21.498
23.818
25.3972
26.1337
25.971
24.9048
22.9842
20.3091
17.0229
13.3015
9.3407
5.34143
1.49609
-2.02385
-5.07749
-7.56092
-9.40992
-10.5995
-11.1403
-11.0739
-10.4661
-9.40176
-7.97913
-6.30571
-4.49483
-2.66245
-0.923885
0.610212
1.83872
2.67568
3.05628
2.94234
2.32651
1.23428
-0.276831
-2.12121
-4.19191
-6.36948
-8.53171
-10.5628
-12.3609
-13.8427
-14.945
-15.6244
-15.8539
-15.6204
-14.9226
-13.7716
-12.1938
-10.2364
-7.97418
-5.51448
-2.9994
-0.602106
1.48316
3.05754
3.93876
3.98449
3.11417
1.32577
-1.29587
-4.58108
-8.28827
-12.1266
-15.7853
-18.9668
-21.4175
-22.9542
-23.481
-22.9969
-21.5905
-19.4266
-16.7237
-13.7276
-10.6842
-7.81392
-5.2915
-3.233
-1.68997
-0.651583
-0.0530454
0.210933
0.269861
0.260308
0.309778
0.523179
0.97298
1.69365
2.68053
3.89279
5.2598
6.69022
8.08255
9.33654
10.3643
11.1003
11.5096
11.593
11.3885
10.9691
10.4361
9.90797
9.50726
9.3452
9.50698
10.0389
10.9398
12.1566
13.5872
15.0878
16.4863
17.6001
18.2562
18.3127
17.6793
16.3362
14.3497
11.8841
9.21142
6.71815
4.91065
4.41919
5.99902
10.524
18.9647
32.3397
51.6272
77.6269
110.773
150.912
197.076
247.302
298.56
346.823
387.34
415.084
425.361
414.476
380.377
323.15
245.27
151.549
48.7618
-55.0232
-151.31
-232.137
-290.997
-323.583
-328.276
-306.286
-261.462
-199.781
-128.597
-55.7629
11.2694
66.2556
104.772
124.576
125.684
110.173
81.7638
45.2301
5.74561
-31.7637
-63.1734
-85.5647
-97.4397
-98.7419
-90.6968
-75.5106
-55.9815
-35.0785
-15.5469
0.413339
11.3645
16.7254
16.746
12.3776
5.06785
-3.48724
-11.5958
-17.7966
-21.034
-20.7635
-16.9843
-10.2
-1.32012
8.48024
17.9232
25.7917
31.0749
33.0809
31.505
26.4501
18.3995
8.14853
-3.29441
-14.8241
-25.3584
-33.9482
-39.866
-42.6662
-42.2127
-38.6725
-32.4808
-24.2815
-14.8513
-5.01658
4.42884
12.7975
19.5672
24.4213
27.2673
28.2345
27.6514
26.006
23.8926
21.9491
20.7918
20.9512
22.8171
26.5963
32.2874
39.6767
48.3555
57.7566
67.209
76.0036
83.4652
89.0214
92.2626
92.9853
91.2144
87.2008
81.3955
74.401
66.907
59.6157
53.1657
48.064
44.6316
42.9721
42.9646
44.2829
46.4388
48.8434
50.8798
51.9778
51.6811
49.6999
45.9422
40.5215
33.7389
26.0447
17.984
10.1323
3.03105
-2.87063
-7.2611
-9.99341
-11.0923
-10.7412
-9.25151
-7.01944
-4.47539
-2.03324
-0.0450785
1.23329
1.66275
1.22593
0.0174269
-1.77821
-3.91709
-6.13066
-8.16003
-9.78588
-10.8509
-11.2727
-11.0471
-10.2422
-8.98413
-7.43887
-5.79031
-4.21911
-2.88364
-1.90527
-1.35878
-1.26866
-1.61075
-2.3187
-3.29392
-4.41774
-5.56434
-6.61313
-7.45949
-8.02302
-8.25276
-8.12911
-7.66261
-6.88973
-5.86648
-4.66035
-3.34186
-1.9766
-0.619066
0.690871
1.92834
3.08071
4.14232
5.10783
5.96559
6.6925
7.25147
7.5923
7.65602
7.38235
6.71903
5.63188
4.11382
2.19153
-0.0714881
-2.57615
-5.19343
-7.77403
-10.1611
-12.2048
-13.7767
-14.7824
-15.1715
-14.9422
-14.1411
-12.8576
-11.2136
-9.34998
-7.4112
-5.5302
-3.81574
-2.34336
-1.15134
-0.241776
0.413484
0.863339
1.16585
1.37657
1.53858
1.67564
1.78957
1.86164
1.85786
1.7366
1.45755
0.990196
0.320988
-0.541906
-1.56665
-2.69878
-3.86519
-4.98055
-5.95568
-6.70681
-7.16479
-7.28314
-7.04387
-6.46032
-5.57646
-4.4628
-3.20915
-1.91511
-0.679546
0.409914
1.28598
1.9085
2.2683
2.38774
2.31799
2.1334
1.92334
1.78238
1.79955
2.04773
2.57433
3.39414
4.48576
5.79226
7.22679
8.68308
10.0501
11.2292
12.1518
12.7941
13.187
13.4193
13.6314
14.0019
14.726
15.9903
17.9453
20.6801
24.2025
28.427
33.1717
38.1666
43.0711
47.5014
51.0648
53.3997
54.218
53.3474
50.7716
46.6648
41.4195
35.6651
30.2751
26.3603
25.2422
28.3996
37.3771
53.646
78.4113
112.369
155.434
206.48
263.151
321.8
377.626
425.019
458.129
471.577
461.23
424.912
362.925
278.273
176.533
65.3676
-46.2732
-149.15
-234.795
-296.494
-330.048
-334.211
-310.767
-264.219
-201.172
-129.482
-57.2959
7.88545
60.0122
95.0607
111.326
109.417
91.9674
63.1407
27.9834
-8.26399
-40.8171
-65.8811
-81.0123
-85.2788
-79.2204
-64.6312
-44.2079
-21.1233
1.41895
20.5878
34.2428
41.1354
40.9791
34.3944
22.7465
7.90712
-8.02369
-22.9961
-35.2565
-43.5336
-47.147
-46.0342
-40.699
-32.0967
-21.4757
-10.1996
0.427596
9.31055
15.6722
19.1133
19.6203
17.5257
13.4309
8.10464
2.37224
-2.98937
-7.33859
-10.2285
-11.4343
-10.949
-8.95085
-5.75204
-1.73597
2.70508
7.22401
11.5579
15.5479
19.141
22.3734
25.3442
28.1806
31.0053
33.9075
36.9247
40.0349
43.1612
46.1859
48.9716
51.3851
53.3207
54.7183
55.575
55.947
55.9442
55.7166
55.4362
55.2769
55.3942
55.9096
56.8986
58.3856
60.3432
62.6977
65.3363
68.1166
70.8762
73.4415
75.6346
77.2804
78.2131
78.2836
77.3679
75.3773
72.2679
68.0497
62.7927
56.6288
49.7483
42.3906
34.8297
27.3558
20.2539
13.7829
8.15587
3.525
-0.0288743
-2.50014
-3.95591
-4.52752
-4.39687
-3.77912
-2.90323
-1.99237
-1.24583
-0.824238
-0.839164
-1.34781
-2.35292
-3.80742
-5.62273
-7.67963
-9.84023
-11.9599
-13.8981
-15.5272
-16.7395
-17.4522
-17.6101
-17.1875
-16.1894
-14.6514
-12.6398
-10.2499
-7.60376
-4.84496
-2.13214
0.370465
2.5039
4.12646
5.12534
5.42681
5.00352
3.87811
2.12243
-0.147657
-2.78138
-5.60523
-8.43696
-11.1
-13.4367
-15.3201
-16.6612
-17.414
-17.5757
-17.1832
-16.3073
-15.0431
-13.5007
-11.7941
-10.0314
-8.30655
-6.69315
-5.2407
-3.9741
-2.89546
-1.98837
-1.22367
-0.566227
0.0183899
0.557837
1.06838
1.55209
1.99614
2.37415
2.64923
2.77839
2.71761
2.42711
1.87641
1.0489
-0.054032
-1.40977
-2.97214
-4.67067
-6.41206
-8.08433
-9.56391
-10.7255
-11.4538
-11.6563
-11.2749
-10.2947
-8.74978
-6.72281
-4.33988
-1.76017
0.83842
3.27591
5.38724
7.03755
8.13393
8.63226
8.53854
7.90487
6.82091
5.40235
3.77801
2.07743
0.420466
-1.09007
-2.37217
-3.3649
-4.02603
-4.3278
-4.25235
-3.7877
-2.92519
-1.65876
0.0138141
2.08828
4.55025
7.37125
10.5052
13.8859
17.4261
21.0187
24.5397
27.8532
30.819
33.3007
35.1748
36.3404
36.7284
36.3088
35.0978
33.1613
30.6158
27.6258
24.3958
21.1587
18.1579
15.6261
13.7613
12.7024
12.5085
13.1441
14.474
16.2705
18.232
20.0146
21.2716
21.7
21.0863
19.3509
16.5849
13.0766
9.32934
6.06647
4.22536
4.93687
9.48494
19.2376
35.5387
59.5516
92.0525
133.187
182.218
237.313
295.431
352.364
402.979
441.663
462.941
462.204
436.425
384.756
308.896
213.145
104.112
-9.90049
-119.769
-216.554
-292.514
-341.982
-361.992
-352.572
-316.668
-259.727
-188.993
-112.616
-38.705
25.5724
74.7172
105.388
116.601
109.635
87.6834
55.3055
17.764
-19.6602
-52.2928
-76.5593
-90.2992
-92.8783
-85.1058
-68.9843
-47.339
-23.3851
-0.290456
19.2109
33.1117
40.3054
40.6303
34.7927
24.1903
10.6685
-3.75361
-17.1513
-27.9218
-34.9498
-37.6945
-36.198
-31.0197
-23.1142
-13.6733
-3.95459
4.87974
11.8956
16.4779
18.3718
17.6763
14.794
10.3487
5.08566
-0.233493
-4.92524
-8.45848
-10.5009
-10.9344
-9.84109
-7.46405
-4.15182
-0.294596
3.73759
7.64661
11.2414
14.4534
17.3308
20.0154
22.7057
25.6134
28.9198
32.7388
37.0925
41.901
46.989
52.107
56.9636
61.2646
64.7529
67.2435
68.65
68.9968
68.4186
67.1443
65.4706
63.727
62.237
61.2822
61.0711
61.7181
63.2346
65.5319
68.4358
71.71
75.0842
78.2844
81.0592
83.2006
84.5567
85.0349
84.5974
83.2502
81.029
77.9839
74.1681
69.6314
64.4198
58.5822
52.1805
45.3019
38.0693
30.6472
23.2399
16.0819
9.42103
3.49519
-1.4926
-5.39815
-8.15492
-9.78467
-10.3977
-10.1821
-9.38296
-8.27332
-7.12136
-6.15734
-5.54538
-5.36377
-5.59693
-6.14003
-6.81614
-7.40348
-7.66937
-7.40618
-6.46459
-4.7794
-2.38447
0.585461
3.90624
7.2879
10.4071
12.9442
14.621
15.233
14.6732
12.945
10.161
6.53053
2.33504
-2.10252
-6.4526
-10.4127
-13.7359
-16.252
-17.8773
-18.6145
-18.5427
-17.7986
-16.554
-14.9905
-13.2781
-11.5571
-9.92803
-8.44968
-7.14337
-6.00342
-5.0104
-4.14476
-3.39822
-2.78104
-2.32414
-2.07604
-2.09541
-2.44107
-3.16105
-4.28313
-5.80812
-7.70713
-9.92278
-12.3741
-14.9636
-17.5858
-20.1355
-22.5147
-24.6383
-26.437
-27.8595
-28.872
-29.4569
-29.6112
-29.3434
-28.6715
-27.6201
-26.2187
-24.4994
-22.496
-20.2435
-17.7779
-15.1369
-12.3611
-9.49545
-6.59032
-3.70266
-0.896182
1.75915
4.18881
6.31652
8.06817
9.37673
10.1876
10.4645
10.1938
9.38959
8.09516
6.38383
4.35687
2.13916
-0.127327
-2.29184
-4.20426
-5.72481
-6.73333
-7.13724
-6.87769
-5.93368
-4.32406
-2.1074
0.620037
3.72827
7.0596
10.4368
13.6741
16.5901
19.0238
20.8519
22.0049
22.4815
22.3567
21.7815
20.9724
20.1902
19.7081
19.7749
20.575
22.1933
24.591
27.5958
30.9112
34.1445
36.851
38.5893
38.9808
37.7645
34.8414
30.3018
24.433
17.708
10.7591
4.3415
-0.703427
-3.48114
-3.06695
1.47921
11.0995
26.7135
49.1641
79.1185
116.914
162.355
214.485
271.379
330.016
386.296
435.231
471.359
489.33
484.607
454.19
397.238
315.474
213.277
97.4357
-23.4565
-139.872
-242.394
-322.786
-374.943
-395.594
-384.654
-345.191
-283.013
-205.931
-122.81
-42.5288
27.0082
79.6985
111.802
122.188
112.254
85.5535
47.1945
3.10185
-40.7544
-79.068
-107.762
-124.353
-128.087
-119.854
-101.912
-77.4601
-50.1564
-23.6118
-0.949786
15.532
24.5621
25.9474
20.486
9.7642
-4.12398
-18.8924
-32.3705
-42.7654
-48.8505
-50.0634
-46.5123
-38.8965
-28.3625
-16.3171
-4.22873
6.56113
14.9903
20.3792
22.4768
21.4487
17.8161
12.358
5.9927
-0.34413
-5.80981
-9.74091
-11.7081
-11.5369
-9.29591
-5.25848
0.153763
6.43689
13.0704
19.5754
25.5589
30.742
34.97
38.2076
40.5206
42.0498
42.9812
43.5164
43.8469
44.1345
44.499
45.0133
45.7051
46.5634
47.5487
48.6048
49.67
50.6886
51.6183
52.4362
53.1414
53.7542
54.3127
54.867
55.4712
56.175
57.0153
58.0083
59.1449
60.3874
61.6713
62.9082
63.993
64.8115
65.2488
65.1959
64.5563
63.2493
61.2139
58.4117
54.8308
50.4906
45.4466
39.7947
33.673
27.259
20.7632
14.4164
8.45373
3.09483
-1.47515
-5.12308
-7.7805
-9.44984
-10.203
-10.1726
-9.53677
-8.49927
-7.26805
-6.03424
-4.95459
-4.13917
-3.64535
-3.47836
-3.59753
-3.9268
-4.36773
-4.81299
-5.15886
-5.31549
-5.21424
-4.81192
-4.09217
-3.06453
-1.76174
-0.235994
1.44532
3.20401
4.95539
6.61246
8.09007
9.30907
10.2005
10.7094
10.7984
10.4501
9.66811
8.47707
6.92098
5.0605
2.96961
0.731776
-1.56378
-3.82582
-5.96462
-7.89543
-9.54196
-10.8398
-11.74
-12.2119
-12.2459
-11.8549
-11.0748
-9.96281
-8.59547
-7.06371
-5.46764
-3.91008
-2.48972
-1.2945
-0.395603
0.157227
0.338814
0.149718
-0.384583
-1.21645
-2.28061
-3.50002
-4.79273
-6.07895
-7.28783
-8.36303
-9.26674
-9.98141
-10.5093
-10.8696
-11.0941
-11.2216
-11.2911
-11.3365
-11.3814
-11.436
-11.4956
-11.5415
-11.5431
-11.4609
-11.2498
-10.8626
-10.2517
-9.37095
-8.17678
-6.62992
-4.69817
-2.36085
0.385127
3.51819
6.98513
10.6958
14.5211
18.2956
21.8255
24.9021
27.3194
28.8945
29.4874
29.0189
27.4828
24.9518
21.5742
17.5645
13.1853
8.72585
4.47749
0.709087
-2.35432
-4.54835
-5.77974
-6.02975
-5.35051
-3.85502
-1.70219
0.92122
3.81966
6.80659
9.71905
12.4274
14.8395
16.8993
18.5802
19.8756
20.7872
21.3143
21.4452
21.1528
20.3954
19.1218
17.2807
14.8335
11.7664
8.10345
3.91498
-0.675511
-5.48894
-10.2905
-14.7909
-18.6468
-21.4582
-22.7617
-22.0191
-18.6028
-11.7862
-0.74767
15.3958
37.5107
66.3135
102.18
144.916
193.518
245.987
299.244
349.203
391.037
419.636
430.21
418.964
383.745
324.549
243.778
146.212
38.6447
-70.766
-173.357
-260.919
-326.626
-365.808
-376.458
-359.42
-318.229
-258.633
-187.874
-113.809
-44.0127
15.0473
58.6578
84.2559
91.5472
82.345
60.1726
29.6905
-3.96485
-35.8461
-61.7799
-78.8074
-85.4358
-81.6881
-68.9582
-49.709
-27.062
-4.33961
15.3777
29.6273
36.8303
36.4243
28.8576
15.4567
-1.80489
-20.6004
-38.5636
-53.5823
-64.0365
-68.9577
-68.0937
-61.8823
-51.3416
-37.9012
-23.1967
-8.85846
3.67953
13.33
19.4465
21.8556
20.8291
17.0064
11.2799
4.66304
-1.84249
-7.36347
-11.244
-13.0984
-12.8256
-10.5876
-6.75903
-1.85621
3.54294
8.87729
13.6701
17.5789
20.4228
22.1873
23.0077
23.1359
22.8958
22.6349
22.6778
23.2883
24.6421
26.814
29.779
33.4248
37.5736
42.0084
46.5005
50.8347
54.828
58.3429
61.2925
63.6392
65.3888
66.5814
67.2809
67.566
67.5219
67.234
66.7829
66.2403
65.6631
65.0885
64.526
63.9515
63.3016
62.4731
61.3275
59.7026
57.4318
54.3671
50.405
45.5098
39.7317
33.2143
26.191
18.9685
11.9004
5.35229
-0.336097
-4.8871
-8.11483
-9.94462
-10.4197
-9.69424
-8.01454
-5.68995
-3.05838
-0.450274
1.84445
3.6029
4.68634
5.0468
4.72315
3.82787
2.52696
1.01577
-0.506071
-1.85776
-2.89593
-3.52714
-3.71344
-3.47114
-2.86345
-1.98867
-0.965651
0.0816998
1.03876
1.81209
2.33778
2.58549
2.55835
2.28887
1.83187
1.25506
0.628864
0.016292
-0.535907
-1.00393
-1.39082
-1.72729
-2.06929
-2.49265
-3.08494
-3.93508
-5.12131
-6.69837
-8.68523
-11.0549
-13.7285
-16.5742
-19.4139
-22.0361
-24.2151
-25.735
-26.4143
-26.1303
-24.8367
-22.5758
-19.4792
-15.7596
-11.693
-7.59299
-3.78115
-0.555701
1.83665
3.2232
3.51919
2.73203
0.955492
-1.64472
-4.85208
-8.42388
-12.1164
-15.7073
-19.0133
-21.9005
-24.2882
-26.1447
-27.4783
-28.3238
-28.7275
-28.7331
-28.3696
-27.6438
-26.5389
-25.0178
-23.0333
-20.5412
-17.5167
-13.9709
-9.96362
-5.61228
-1.09322
3.3652
7.49774
11.0249
13.6808
15.2433
15.5626
14.5846
12.3659
9.07713
4.99417
0.477655
-4.05775
-8.18058
-11.4822
-13.6142
-14.3195
-13.4539
-10.9956
-7.04309
-1.80144
4.43921
11.3309
18.497
25.5594
32.1634
37.9968
42.8044
46.3978
48.6609
49.5516
49.101
47.4092
44.6388
41.005
36.7637
32.1969
27.5961
23.2443
19.3982
16.2701
14.0126
12.7056
12.3477
12.8529
14.0543
15.7147
17.5447
19.2286
20.4551
20.9533
20.5287
19.0997
16.7292
13.6513
10.2902
7.27108
5.42193
5.76454
9.48999
17.911
32.3796
54.1577
84.2329
123.082
170.407
224.874
283.937
343.782
399.474
445.324
475.46
484.558
468.62
425.68
356.324
263.905
154.397
35.8949
-82.2043
-190.223
-279.298
-342.392
-375.094
-376.098
-347.3
-293.504
-221.798
-140.676
-59.027
14.8613
74.1867
114.281
132.97
130.615
109.857
75.1112
31.8996
-13.8932
-56.736
-92.0592
-116.69
-129.077
-129.296
-118.854
-100.349
-77.0222
-52.2853
-29.2772
-10.5057
2.39282
8.75503
8.85864
3.77359
-4.87079
-15.1641
-25.1979
-33.3169
-38.3097
-39.5209
-36.8793
-30.8474
-22.3069
-12.4018
-2.36451
6.65268
13.718
18.2186
19.9083
18.9041
15.6368
10.7667
5.07988
-0.621708
-5.61962
-9.35697
-11.4869
-11.8879
-10.6487
-8.02626
-4.38859
-0.149365
4.29343
8.60766
12.56
16.0288
18.9986
21.5373
23.7641
25.8122
27.7947
29.7771
31.7617
33.686
35.4331
36.8535
37.7941
38.1289
37.7885
36.7812
35.2054
33.2485
31.1748
29.3009
27.9635
27.4836
28.1295
30.0863
33.4328
38.1309
44.027
50.8659
58.3143
65.9914
73.5015
80.4644
86.5416
91.453
94.9862
96.9972
97.4052
96.1858
93.3625
89.0024
83.2136
76.1467
67.9969
59.0056
49.4582
39.6758
30.0007
20.7739
12.3083
4.85932
-1.40179
-6.40837
-10.2082
-12.9603
-14.9182
-16.3996
-17.7472
-19.2832
-21.2652
-23.8479
-27.0568
-30.7787
-34.7697
-38.6811
-42.1002
-44.6008
-45.7963
-45.3892
-43.2108
-39.2454
-33.6365
-26.676
-18.7766
-10.4321
-2.17043
5.49426
12.1068
17.3072
20.8561
22.6474
22.7072
21.1821
18.3168
14.4266
9.86506
4.99238
0.146846
-4.37862
-8.3521
-11.61
-14.0558
-15.652
-16.4066
-16.3586
-15.5637
-14.0849
-11.9875
-9.3414
-6.22693
-2.74411
0.97893
4.7809
8.46821
11.8231
14.6188
16.6401
17.7074
17.6987
16.5692
14.3622
11.2119
7.33455
3.0113
-1.4382
-5.68643
-9.43024
-12.4205
-14.4854
-15.5457
-15.618
-14.8091
-13.2992
-11.3188
-9.12035
-6.94991
-5.02076
-3.49281
-2.45974
-1.94491
-1.90605
-2.24746
-2.83777
-3.53051
-4.18478
-4.68332
-4.94584
-4.93639
-4.66412
-4.17791
-3.55611
-2.89292
-2.28375
-1.81131
-1.53443
-1.48087
-1.64467
-1.98813
-2.44785
-2.94348
-3.38801
-3.69802
-3.8025
-3.6495
-3.20963
-2.47657
-1.46451
-0.203254
1.26809
2.90794
4.6782
6.54851
8.49788
10.5137
12.5882
14.713
16.8734
19.0435
21.182
23.2323
25.1244
26.7801
28.1201
29.0727
29.5816
29.6129
29.1593
28.242
26.9094
25.232
23.2972
21.2004
19.0368
16.8937
14.843
12.9362
11.2012
9.64279
8.24469
6.97597
5.79959
4.68403
3.6177
2.62653
1.79509
1.29187
1.398
2.53767
5.30466
10.4764
19.0021
31.9503
50.4014
75.2777
107.118
145.817
190.379
238.728
287.652
332.921
369.603
392.576
397.174
379.888
339.009
275.096
191.18
92.6499
-13.2025
-117.912
-212.77
-289.819
-342.781
-367.789
-363.828
-332.816
-279.34
-210.06
-132.901
-56.1101
12.6762
67.2485
103.426
119.384
115.681
95.006
61.6923
21.0791
-21.195
-59.8715
-90.6468
-110.581
-118.306
-114.028
-99.3434
-76.9014
-49.9834
-22.0441
3.71724
24.71
39.1937
46.3908
46.4695
40.415
29.8139
16.5912
2.73519
-9.95377
-20.0613
-26.686
-29.4877
-28.6589
-24.8325
-18.9448
-12.0755
-5.28909
0.503458
4.64644
6.79598
6.92936
5.31151
2.42801
-1.10263
-4.6238
-7.52936
-9.33554
-9.72855
-8.58479
-5.9642
-2.08074
2.7431
8.12992
13.7008
19.121
24.1335
28.5759
32.3826
35.5726
38.2276
40.4648
42.4096
44.1721
45.8306
47.4231
48.948
50.3715
51.6398
52.6939
53.4834
53.9782
54.1758
54.1029
53.8136
53.3828
52.8973
52.4459
52.1103
51.9571
52.0327
52.3597
52.9365
53.7375
54.714
55.7954
56.8902
57.8876
58.6588
59.0616
58.946
58.1644
56.584
54.1018
50.6604
46.2627
40.9815
34.9639
28.4272
21.6463
14.9331
8.61048
2.98229
-1.69509
-5.23782
-7.55213
-8.64236
-8.6086
-7.63402
-5.96378
-3.87804
-1.66249
0.420205
2.1547
3.39051
4.05114
4.13441
3.70447
2.87718
1.80092
0.635741
-0.466862
-1.3809
-2.01805
-2.3339
-2.3283
-2.04015
-1.53819
-0.909123
-0.244908
0.369087
0.863781
1.19294
1.33619
1.29847
1.10648
0.802821
0.438859
0.0673442
-0.264298
-0.519248
-0.674649
-0.722871
-0.670772
-0.537348
-0.350296
-0.142132
0.053528
0.205041
0.28487
0.270689
0.145601
-0.10225
-0.480315
-0.992201
-1.6379
-2.41364
-3.31134
-4.31799
-5.41502
-6.57813
-7.77764
-8.97956
-10.1475
-11.2449
-12.2383
-13.1002
-13.8119
-14.3658
-14.7667
-15.0318
-15.1895
-15.2763
-15.3332
-15.4003
-15.5121
-15.6925
-15.951
-16.2811
-16.6601
-17.0521
-17.4121
-17.6919
-17.8473
-17.8434
-17.6602
-17.2955
-16.7651
-16.1009
-15.3466
-14.5513
-13.7628
-13.0205
-12.3501
-11.7599
-11.2396
-10.7626
-10.2896
-9.77571
-9.17687
-8.45776
-7.59775
-6.59523
-5.46925
-4.25835
-3.01667
-1.80792
-0.698061
0.252444
0.995646
1.50165
1.76199
1.79052
1.62187
1.30781
0.911939
0.503678
0.151983
-0.0803842
-0.141644
0.00547121
0.381568
0.989815
1.81643
2.83226
3.99534
5.25412
6.55133
7.82824
9.02907
10.1055
11.0207
11.7528
12.2971
12.6669
12.8921
13.0159
13.09
13.1677
13.2967
13.5116
13.8277
14.2367
14.705
15.1761
15.5751
15.8189
15.8279
15.5427
14.9432
14.0727
13.0671
12.1877
11.8602
12.7102
15.5905
21.583
31.9573
48.0673
71.1737
102.192
141.39
188.079
240.365
295.029
347.609
392.715
424.569
437.722
427.852
392.508
331.678
248.065
147.011
36.045
-75.8911
-179.435
-265.885
-328.22
-361.912
-365.428
-340.35
-291.117
-224.424
-148.367
-71.4606
-1.6523
54.5389
92.6606
110.676
108.999
90.2351
58.6838
19.6742
-21.1596
-58.5771
-88.3179
-107.514
-114.893
-110.769
-96.8375
-75.8249
-51.0446
-25.9269
-3.58229
13.5511
23.9407
27.0567
23.3353
14.0262
0.955158
-13.7596
-27.9987
-39.9019
-48.0715
-51.6962
-50.5925
-45.1639
-36.2937
-25.19
-13.2079
-1.67234
8.27639
15.798
20.4186
22.0448
20.9301
17.6028
12.7685
7.2041
1.6562
-3.24266
-7.03161
-9.44907
-10.4307
-10.0824
-8.63467
-6.38848
-3.65987
-0.731844
2.18089
4.9514
7.54348
10
12.4205
14.9324
17.6616
20.7063
24.1189
27.8957
31.9779
36.261
40.6098
44.8789
48.9321
52.6602
55.9935
58.9086
61.4275
63.6118
65.5508
67.3483
69.1069
70.9147
72.834
74.8933
77.0844
79.3623
81.6495
83.8414
85.8133
87.4277
88.5402
89.0058
88.6856
87.4541
85.2083
81.879
77.442
71.9291
65.4353
58.1222
50.2136
41.9841
33.7417
25.8034
18.4699
11.9993
6.58433
2.33562
-0.726654
-2.67224
-3.65069
-3.87333
-3.58911
-3.05755
-2.5219
-2.18553
-2.19415
-2.62526
-3.4856
-4.71599
-6.20255
-7.79262
-9.31348
-10.5922
-11.4747
-11.8427
-11.627
-10.8163
-9.46068
-7.66836
-5.59748
-3.44187
-1.41296
0.280716
1.45428
1.96535
1.72905
0.727482
-0.987104
-3.29596
-6.02376
-8.95394
-11.8479
-14.4659
-16.5889
-18.0366
-18.6839
-18.47
-17.4032
-15.5583
-13.0685
-10.1118
-6.89497
-3.63406
-0.536493
2.21578
4.47943
6.15843
7.2078
7.63229
7.48069
6.83657
5.80689
4.50973
3.06254
1.57223
0.127789
-1.20373
-2.37809
-3.37166
-4.17713
-4.7978
-5.24185
-5.51727
-5.62844
-5.57469
-5.35105
-4.9508
-4.36929
-3.60828
-2.68003
-1.61014
-0.438881
0.779562
1.97992
3.09042
4.03876
4.75866
5.1963
5.31584
5.10323
4.56791
3.74204
2.67744
1.44052
0.105887
-1.25066
-2.55878
-3.75916
-4.80732
-5.67539
-6.35155
-6.83767
-7.14543
-7.2918
-7.29454
-7.16847
-6.92302
-6.56142
-6.08138
-5.47711
-4.7422
-3.87257
-2.86917
-1.73956
-0.498316
0.833843
2.23212
3.67029
5.12341
6.57006
7.99359
9.3822
10.7278
12.0243
13.2651
14.4411
15.5399
16.5448
17.4366
18.1954
18.803
19.2458
19.5175
19.6203
19.5656
19.3731
19.0695
18.6857
18.2539
17.8047
17.3631
16.9457
16.5578
16.1912
15.8229
15.4153
14.9184
14.2741
13.4229
12.3127
10.9099
9.21317
7.26992
5.19581
3.19908
1.60951
0.911084
1.77478
5.08317
11.9339
23.6043
41.4591
66.7854
100.553
143.118
193.906
251.141
311.689
371.097
423.856
463.914
485.382
483.353
454.691
398.682
317.399
215.716
100.936
-17.9332
-131.154
-229.369
-304.676
-351.537
-367.383
-352.855
-311.641
-249.951
-175.714
-97.5998
-23.997
37.9077
82.8595
107.984
112.921
99.654
72.0647
35.3067
-4.92563
-43.1279
-74.6281
-96.0691
-105.687
-103.367
-90.4956
-69.6384
-44.1065
-17.4726
6.899
26.2498
38.711
43.4495
40.6702
31.4902
17.712
1.53324
-14.7624
-29.0959
-39.8281
-45.9189
-46.995
-43.3305
-35.7485
-25.466
-13.9061
-2.50351
7.47059
15.0466
19.6426
21.0946
19.6318
15.8071
10.3943
4.27078
-1.70158
-6.77883
-10.4123
-12.2925
-12.3588
-10.7761
-7.88623
-4.1429
-0.0389854
3.96248
7.48623
10.2854
12.2617
13.4649
14.0735
14.3618
14.6578
15.298
16.5854
18.7545
21.9459
26.1939
31.4255
37.4712
44.0846
50.9686
57.8054
64.2865
70.1397
75.1518
79.1833
82.1755
84.1494
85.1968
85.4654
85.1393
84.4178
83.4945
82.5385
81.68
81.0015
80.5344
80.2615
80.124
80.0321
79.8763
79.539
78.9037
77.8606
76.3109
74.1677
71.3579
67.8242
63.5306
58.4697
52.6721
46.2149
39.2285
31.8974
24.4551
17.1713
10.3322
4.21613
-0.932543
-4.92836
-7.66463
-9.12552
-9.38858
-8.61715
-7.0435
-4.94469
-2.61427
-0.333136
1.65693
3.1741
4.10956
4.43168
4.1814
3.45997
2.41095
1.19907
-0.0113793
-1.07606
-1.8859
-2.37667
-2.53232
-2.38208
-1.99236
-1.45489
-0.872812
-0.346833
0.0370968
0.217039
0.160404
-0.135001
-0.644055
-1.32086
-2.10769
-2.94488
-3.7804
-4.57752
-5.31962
-6.01152
-6.67718
-7.3542
-8.08614
-8.91391
-9.86764
-10.9604
-12.1845
-13.5118
-14.8964
-16.2806
-17.6025
-18.8039
-19.8371
-20.67
-21.2883
-21.6947
-21.9053
-21.9443
-21.8368
-21.6032
-21.2534
-20.7841
-20.1782
-19.4073
-18.4355
-17.2263
-15.7486
-13.9834
-11.9296
-9.60735
-7.06037
-4.35504
-1.57771
1.17027
3.77925
6.13895
8.14652
9.71423
10.7759
11.2914
11.2491
10.6648
9.57911
8.05157
6.15345
3.95992
1.54254
-1.03635
-3.72651
-6.48918
-9.29301
-12.1071
-14.8928
-17.5954
-20.139
-22.4241
-24.3317
-25.7312
-26.4943
-26.5101
-25.702
-24.0419
-21.5605
-18.3506
-14.5648
-10.4047
-6.10544
-1.91514
1.92689
5.21167
7.77885
9.53025
10.4369
10.5394
9.94121
8.79658
7.29378
5.63613
4.02263
2.63034
1.59998
1.02632
0.953944
1.37863
2.25391
3.50172
5.02578
6.72559
8.50938
10.3041
12.0614
13.7581
15.3927
16.9767
18.524
20.0387
21.5049
22.8791
24.0871
25.027
25.5767
25.6073
25
23.6648
21.5615
18.7205
15.2651
11.4345
7.60961
4.33928
2.3632
2.62361
6.25237
14.5176
28.7146
49.9922
79.1191
116.212
160.47
209.967
261.576
311.064
353.399
383.252
395.639
386.632
354.011
297.758
220.297
126.424
22.9084
-82.1697
-180.291
-263.442
-325.017
-360.551
-368.202
-348.905
-306.202
-245.774
-174.729
-100.771
-31.33
27.2306
70.2298
95.0602
101.312
90.6368
66.3885
33.0933
-4.16835
-40.3917
-71.2146
-93.3577
-104.899
-105.364
-95.6337
-77.7086
-54.3554
-28.7019
-3.8278
17.597
33.5888
43.0158
45.643
42.0649
33.5443
21.7867
8.68461
-3.93344
-14.5195
-21.9652
-25.6889
-25.6495
-22.2913
-16.4349
-9.13331
-1.51415
5.3707
10.6708
13.8252
14.6052
13.1126
9.73685
5.08183
-0.12672
-5.13891
-9.27209
-11.9857
-12.9325
-11.9833
-9.22436
-4.93093
0.478848
6.50213
12.6148
18.3326
23.2626
27.1405
29.8495
31.421
32.0165
31.8962
31.3776
30.7909
30.4364
30.5492
31.275
32.6595
34.6515
37.1173
39.8659
42.6777
45.3348
47.6479
49.4766
50.7414
51.4268
51.577
51.2845
50.6762
49.8962
49.0902
48.3899
47.9003
47.6894
47.7795
48.1426
48.6989
49.319
49.8321
50.0388
49.7303
48.7097
46.8171
43.9518
40.0912
35.3018
29.7411
23.6477
17.3225
11.1007
5.31826
0.277701
-3.78292
-6.71423
-8.46934
-9.10572
-8.77532
-7.70414
-6.16442
-4.44293
-2.80949
-1.48943
-0.64314
-0.354482
-0.629038
-1.40152
-2.55083
-3.92041
-5.34092
-6.65223
-7.72199
-8.45866
-8.81759
-8.80001
-8.44567
-7.82077
-7.00345
-6.06934
-5.07941
-4.07215
-3.06099
-2.03718
-0.977383
0.145584
1.35104
2.64004
3.98848
5.34515
6.63556
7.77088
8.66074
9.22752
9.41953
9.22063
8.65447
7.78242
6.69541
5.5011
4.3084
3.21195
2.27908
1.54118
0.990959
0.585758
0.256284
-0.0806584
-0.50748
-1.09139
-1.87233
-2.85493
-4.00559
-5.25501
-6.50595
-7.64546
-8.56007
-9.15238
-9.35697
-9.15318
-8.573
-7.70204
-6.67292
-5.65127
-4.81564
-4.334
-4.33994
-4.91223
-6.0608
-7.7216
-9.76115
-11.9906
-14.1872
-16.121
-17.5823
-18.4065
-18.4943
-17.8227
-16.447
-14.4942
-12.1469
-9.62255
-7.14898
-4.93991
-3.17299
-1.97229
-1.39664
-1.4342
-2.00346
-2.96042
-4.11161
-5.23243
-6.08979
-6.46747
-6.19195
-5.15572
-3.33518
-0.799993
2.28794
5.68709
9.09973
12.2042
14.6926
16.3087
16.8817
16.3507
14.7764
12.3372
9.31156
6.04714
2.92185
0.301621
-1.49961
-2.25265
-1.83515
-0.240828
2.42407
5.95586
10.0775
14.4685
18.7966
22.7492
26.0597
28.5283
30.0345
30.5415
30.0924
28.799
26.8252
24.3673
21.632
18.8164
16.0896
13.5792
11.3628
9.4657
7.86369
6.49204
5.25813
4.05711
2.78874
1.37381
-0.231308
-2.02304
-3.9426
-5.87122
-7.6277
-8.96632
-9.57256
-9.05419
-6.92639
-2.59228
4.6755
15.7409
31.5823
53.224
81.6052
117.382
160.676
210.801
266.021
323.418
378.911
427.493
463.673
482.112
478.345
449.502
394.906
316.418
218.483
107.811
-7.24859
-117.585
-214.335
-289.886
-338.736
-358.096
-348.166
-312.035
-255.251
-185.104
-109.739
-37.2121
25.3998
72.708
101.484
110.841
102.129
78.5712
44.7183
5.7873
-33.0123
-67.0889
-92.9437
-108.467
-113.036
-107.418
-93.5201
-74.0182
-51.937
-30.231
-11.4212
2.67153
11.0736
13.6815
11.1693
4.8071
-3.77784
-12.8587
-20.8511
-26.5086
-29.0529
-28.2276
-24.2768
-17.8611
-9.92675
-1.55076
6.21474
12.4794
16.6167
18.3209
17.6175
14.829
10.5067
5.33908
0.0527657
-4.68153
-8.32532
-10.523
-11.1222
-10.1643
-7.84888
-4.4805
-0.406289
4.04448
8.61017
13.1288
17.5489
21.919
26.3592
31.0216
36.0461
41.52
47.4483
53.7392
60.2056
66.5842
72.5663
77.8374
82.1171
85.1961
86.9626
87.4165
86.6685
84.9267
82.4705
79.6191
76.6968
74.0015
71.779
70.2079
69.3934
69.3723
70.1249
71.5909
73.6874
76.3221
79.402
82.8339
86.5174
90.3329
94.1267
97.6978
100.792
103.105
104.299
104.026
101.966
97.8667
91.5804
83.095
72.5534
60.2553
46.6438
32.2751
17.7768
3.79853
-9.03858
-20.1887
-29.2185
-35.8328
-39.8863
-41.3825
-40.4606
-37.3752
-32.4702
-26.151
-18.8576
-11.0407
-3.14146
4.42607
11.2886
17.1259
21.6818
24.7738
26.3019
26.2542
24.7096
21.8344
17.8739
13.1363
7.97242
2.7495
-2.17551
-6.48293
-9.91373
-12.2872
-13.5116
-13.5858
-12.5943
-10.6935
-8.09416
-5.0396
-1.78398
1.42869
4.38226
6.90189
8.86262
10.1929
10.8737
10.9333
10.4399
9.49168
8.20586
6.70835
5.12348
3.56534
2.13075
0.894279
-0.0945375
-0.811847
-1.25806
-1.45471
-1.43989
-1.26291
-0.978513
-0.641465
-0.301734
-0.000892027
0.230131
0.371823
0.415485
0.361497
0.216803
-0.00795809
-0.301246
-0.652965
-1.05606
-1.50723
-2.00666
-2.55697
-3.16147
-3.82205
-4.53712
-5.29975
-6.09645
-6.90683
-7.70404
-8.45623
-9.1286
-9.68596
-10.0954
-10.3288
-10.365
-10.1912
-9.80397
-9.20896
-8.42063
-7.46079
-6.35713
-5.14167
-3.84943
-2.51753
-1.18476
0.108595
1.32084
2.40931
3.33128
4.04571
4.51581
4.71223
4.61687
4.22658
3.55654
2.64262
1.54213
0.332546
-0.892156
-2.02752
-2.96678
-3.6104
-3.87619
-3.70866
-3.08651
-2.02696
-0.586274
1.1442
3.04609
4.9855
6.82673
8.44652
9.74703
10.666
11.1828
11.3194
11.1369
10.7271
10.2017
9.6794
9.27383
9.08347
9.18469
9.62864
10.4416
11.6278
13.1741
15.0533
17.2266
19.6438
22.241
24.936
27.6249
30.1786
32.4444
34.2505
35.4171
35.7717
35.1679
33.5056
30.7502
26.9482
22.2381
16.8553
11.1329
5.50099
0.486287
-3.284
-5.07368
-4.02742
0.832997
10.5921
26.3859
49.2914
80.1492
119.325
166.436
220.083
277.672
335.37
388.27
430.782
457.229
462.586
443.245
397.696
326.978
234.828
127.467
13.0343
-99.2642
-200.172
-281.436
-336.748
-362.447
-357.894
-325.479
-270.262
-199.311
-120.836
-43.2289
25.8701
80.3537
116.205
131.771
127.745
106.875
73.4636
32.7329
-9.85901
-49.2618
-81.3652
-103.367
-113.95
-113.268
-102.759
-84.8253
-62.4428
-38.738
-16.5993
1.64068
14.4198
21.0431
21.6644
17.1663
8.96488
-1.22827
-11.654
-20.7317
-27.2379
-30.4218
-30.0495
-26.3789
-20.0769
-12.0941
-3.51683
4.58241
11.2788
15.8973
18.0749
17.7788
15.2835
11.1124
5.95669
0.581513
-4.26759
-7.94702
-9.97845
-10.0878
-8.21797
-4.51722
0.693925
6.97056
13.7998
20.6587
27.0675
32.6325
37.0762
40.2514
42.1408
42.8431
42.5487
41.5091
40.004
38.3093
36.6711
35.2852
34.2866
33.7466
33.6779
34.0456
34.7821
35.8028
37.0217
38.3639
39.7744
41.2224
42.7018
44.2276
45.8296
47.5443
49.4064
51.4403
53.6528
56.0278
58.5226
61.0671
63.5641
65.8917
67.9072
69.4515
70.3559
70.4508
69.5772
67.6008
64.4287
60.0266
54.4336
47.7729
40.2543
32.1676
23.8656
15.7381
8.17863
1.54765
-3.86266
-7.85847
-10.3646
-11.4321
-11.2322
-10.0358
-8.18282
-6.04317
-3.97497
-2.28555
-1.19954
-0.838089
-1.21132
-2.22453
-3.6967
-5.38838
-7.03499
-8.3811
-9.21132
-9.37437
-8.79793
-7.4931
-5.54896
-3.11866
-0.399463
2.3904
5.03521
7.3428
9.16133
10.3902
10.9846
10.9545
10.3573
9.28772
7.8641
6.21463
4.46395
2.72184
1.07491
-0.418228
-1.72806
-2.85191
-3.80893
-4.63306
-5.36506
-6.0445
-6.70272
-7.35732
-8.00898
-8.64051
-9.21845
-9.69668
-10.0217
-10.1393
-10.0015
-9.57353
-8.84057
-7.81277
-6.52844
-5.05472
-3.4851
-1.93373
-0.526819
0.608401
1.35598
1.62357
1.3534
0.530434
-0.813213
-2.59841
-4.7038
-6.97497
-9.23716
-11.3104
-13.026
-14.2425
-14.8603
-14.8332
-14.1756
-12.9642
-11.3336
-9.46535
-7.57101
-5.87053
-4.568
-3.82766
-3.75317
-4.37305
-5.63452
-7.40692
-9.49475
-11.6589
-13.6434
-15.205
-16.1412
-16.3135
-15.663
-14.2171
-12.0846
-9.44309
-6.51744
-3.55409
-0.793603
1.55498
3.33502
4.45624
4.90046
4.71885
4.0215
2.96097
1.71211
0.45063
-0.666747
-1.51841
-2.02846
-2.17093
-1.96747
-1.47932
-0.79491
-0.015146
0.761806
1.45408
2.00643
2.39627
2.63475
2.76323
2.84581
2.95911
3.18094
3.57923
4.20282
5.075
6.19063
7.51687
8.99723
10.5584
12.1183
13.5955
14.9171
16.0254
16.883
17.4737
17.8025
17.8915
17.7758
17.4967
17.096
16.6109
16.0698
15.4901
14.8784
14.2315
13.539
12.7874
11.9631
11.0565
10.0669
9.00892
7.92383
6.89702
6.08429
5.74724
6.29565
8.33031
12.6747
20.3784
32.6728
50.8592
76.121
109.263
150.408
198.695
252.057
307.131
359.376
403.416
433.601
444.711
432.727
395.519
333.354
249.117
148.183
37.9535
-72.9036
-175.402
-261.25
-323.796
-358.763
-364.697
-343.067
-298.009
-235.766
-163.898
-90.3784
-22.6871
32.9848
72.3279
93.2456
95.903
82.5047
56.8512
23.7437
-11.6769
-44.5726
-70.9538
-88.0713
-94.6198
-90.746
-77.878
-58.4158
-35.3329
-11.7487
9.47341
26.0544
36.5215
40.3069
37.7238
29.8359
18.2468
4.84567
-8.45686
-19.9669
-28.3938
-32.9673
-33.4773
-30.2407
-24.0064
-15.8162
-6.84567
1.75634
9.00651
14.1912
16.926
17.1678
15.184
11.4855
6.73795
1.66265
-3.05732
-6.85577
-9.33764
-10.3048
-9.75326
-7.84559
-4.86518
-1.16076
2.90987
7.02904
10.9555
14.5441
17.7483
20.6075
23.2229
25.7267
28.25
30.8954
33.7166
36.708
39.8062
42.8997
45.8479
48.5028
50.7329
52.443
53.5899
54.1889
54.3139
54.0885
53.6715
53.238
52.9593
52.9847
53.4259
54.3484
55.7678
57.653
59.9343
62.5142
65.2797
68.1135
70.9018
73.5392
75.9288
77.9792
79.6
80.6955
81.1619
80.8857
79.7485
77.6354
74.4488
70.1259
64.6559
58.0969
50.586
42.3422
33.6596
24.8901
16.4174
8.62438
1.85835
-3.6025
-7.57617
-9.99448
-10.9088
-10.4829
-8.97445
-6.70627
-4.03254
-1.30266
1.17228
3.14683
4.45971
5.0418
4.91349
4.17244
2.97381
1.5059
-0.0356881
-1.47232
-2.66233
-3.51473
-3.99551
-4.12617
-3.97527
-3.64426
-3.24978
-2.90483
-2.70124
-2.69609
-2.9037
-3.29451
-3.80107
-4.33024
-4.77983
-5.05707
-5.09595
-4.87055
-4.40222
-3.75907
-3.04781
-2.39889
-1.94691
-1.80925
-2.06598
-2.74408
-3.80834
-5.16055
-6.64725
-8.07533
-9.23363
-9.91797
-9.95675
-9.23405
-7.70737
-5.41783
-2.49125
0.870214
4.40554
7.81939
10.8113
13.1059
14.4816
14.7926
13.9839
12.0958
9.2587
5.67809
1.61283
-2.65174
-6.83182
-10.6714
-13.964
-16.5677
-18.4128
-19.5006
-19.8968
-19.7172
-19.1114
-18.2442
-17.2783
-16.3585
-15.6005
-15.0843
-14.8511
-14.9064
-15.225
-15.7599
-16.4525
-17.243
-18.0796
-18.9258
-19.7631
-20.5907
-21.4192
-22.2622
-23.1251
-23.9952
-24.8341
-25.575
-26.1262
-26.3797
-26.2253
-25.5667
-24.3375
-22.515
-20.1289
-17.2627
-14.0493
-10.6594
-7.28461
-4.11869
-1.33721
0.919847
2.5615
3.55335
3.9187
3.73343
3.11558
2.21144
1.17993
0.177652
-0.654032
-1.19837
-1.36869
-1.11011
-0.398165
0.764504
2.35216
4.31965
6.60502
9.13135
11.8081
14.5337
17.1996
19.6983
21.9331
23.83
25.3499
26.4962
27.3183
27.9069
28.3812
28.87
29.4883
30.314
31.3683
32.6041
33.905
35.0953
35.961
36.2788
35.85
34.5343
32.2807
29.1528
25.3483
21.2127
17.251
14.1373
12.7225
14.0354
19.2663
29.7187
46.7135
71.4293
104.68
146.641
196.567
252.546
311.378
368.623
418.873
456.247
475.08
470.693
440.161
382.925
301.132
199.648
85.687
-31.8927
-143.542
-240.1
-313.85
-359.405
-374.304
-359.243
-317.919
-256.505
-182.851
-105.513
-32.748
28.4076
72.8476
97.8327
103.11
90.726
64.5742
29.7616
-8.12056
-43.7183
-72.5417
-91.4272
-98.7931
-94.6754
-80.5598
-59.0506
-33.4328
-7.19333
16.4361
34.858
46.3715
50.2964
46.9567
37.541
23.8681
8.09806
-7.57074
-21.1779
-31.2203
-36.7914
-37.6325
-34.0981
-27.0479
-17.6879
-7.38358
2.52727
10.9007
16.9125
20.1338
20.55
18.5274
14.734
10.0287
5.33239
1.49963
-0.794429
-1.13853
0.568368
4.11317
9.00627
14.5549
19.9625
24.4401
27.3167
28.1338
26.7115
23.1802
17.9713
11.7705
5.4386
-0.0897599
-3.91745
-5.29199
-3.69604
1.08951
8.95692
19.4802
31.9592
45.4934
59.0767
71.7004
82.4553
90.6185
95.7187
97.5717
96.2857
92.2353
86.0104
78.3464
70.0443
61.8895
54.5787
48.662
44.5044
42.2692
41.9238
43.2634
45.9497
49.5575
53.6242
57.6949
61.3603
