517.743
484.181
443.155
394.716
339.435
278.434
213.376
146.374
79.8618
16.402
-41.5222
-91.7239
-132.507
-162.815
-182.319
-191.435
-191.26
-183.452
-170.055
-153.296
-135.378
-118.287
-103.642
-92.5837
-85.7316
-83.191
-84.6129
-89.2926
-96.2929
-104.576
-113.13
-121.069
-127.719
-132.651
-135.694
-136.911
-136.549
-134.972
-132.596
-129.812
-126.935
-124.162
-121.549
-119.018
-116.372
-113.335
-109.592
-104.846
-98.8541
-91.477
-82.7002
-72.6495
-61.5879
-49.8968
-38.0443
-26.5421
-15.8982
-6.5664
1.09863
6.87987
10.7246
12.7577
13.2789
12.745
11.7356
10.9063
10.9311
12.4401
15.9566
21.8409
30.2476
41.0993
54.0831
68.6699
84.1566
99.7259
114.519
127.711
138.585
146.586
151.361
152.774
150.889
145.942
138.283
128.326
116.48
103.111
88.5086
72.8765
56.348
39.0163
20.9767
2.37123
-16.573
-35.5193
-54.0164
-71.5152
-87.4064
-101.074
-111.959
-119.623
-123.804
-124.455
-121.763
-116.144
-108.203
-98.6894
-88.4225
-78.218
-68.814
-60.8069
-54.6042
-50.3985
-48.1652
-47.6804
-48.5589
-50.3038
-52.3639
-54.1909
-55.2927
-55.2769
-53.8818
-50.9941
-46.6516
-41.0322
-34.4309
-27.2272
-19.8471
-12.7217
-6.24752
-0.752453
3.53078
6.48045
8.09013
8.46163
7.78766
6.32669
4.37307
2.22566
0.15861
-1.60294
-2.89985
-3.64745
-3.83534
-3.51915
-2.806
-1.83586
-0.761292
0.271975
1.14143
1.75959
2.08037
2.09973
1.85124
1.39764
0.819745
0.204472
-0.366607
-0.826737
-1.13059
-1.25748
-1.21121
-1.01685
-0.715268
-0.356284
0.00856334
0.332649
0.579577
0.726651
0.766308
0.705581
0.563947
0.370063
0.157983
-0.0366037
-0.179681
-0.241487
-0.198281
-0.033329
0.262783
0.692383
1.25138
1.93029
2.7155
3.59081
4.53909
5.54389
6.59112
7.67035
8.77587
9.90725
11.0693
12.2713
13.5261
14.8478
16.2501
17.7438
19.3349
21.0234
22.8024
24.659
26.5746
28.5267
30.4898
32.4355
34.3319
36.1413
37.8182
39.306
40.5366
41.4304
41.9007
41.8596
41.2278
39.9455
37.9835
35.3523
32.1086
28.3558
24.2403
19.941
15.6551
11.5806
7.89828
4.75493
2.25043
0.430023
-0.717398
-1.25482
-1.28733
-0.948345
-0.383787
0.263894
0.869916
1.33808
1.60741
1.65404
1.48861
1.1498
0.695206
0.19075
-0.299773
-0.723774
-1.04645
-1.2542
-1.35459
-1.37328
-1.34853
-1.32428
-1.34312
-1.44005
-1.63794
-1.94539
-2.35684
-2.85504
-3.41524
-4.01051
-4.61742
-5.22146
-5.82165
-6.434
-7.09363
-7.85539
-8.79282
-9.99508
-11.5618
-13.5958
-16.1932
-19.4321
-23.3615
-27.9892
-33.2739
-39.1198
-45.3773
-51.8482
-58.2972
-64.4682
-70.1028
-74.9607
-78.8389
-81.5881
-83.1232
-83.4279
-82.5525
-80.6025
-77.7216
-74.0674
-69.7819
-64.9584
-59.6069
-53.6205
-46.7484
-38.5802
-28.5482
-15.9549
-0.0317466
19.9715
44.667
74.3913
109.064
148.066
190.16
233.48
275.59
313.648
344.629
365.627
374.169
368.532
347.993
312.999
265.203
207.381
143.203
76.9115
12.9121
-44.6463
-92.2729
-127.46
-148.897
-156.552
-151.607
-136.275
-113.506
-86.638
-59.0244
-33.6884
-13.0423
1.30253
8.61869
9.03856
3.43489
-6.77034
-19.8395
-33.9629
-47.4831
-59.0739
-67.8579
-73.4557
-75.966
-75.8882
-74.0014
-71.2188
-68.4396
-66.4151
-65.6471
-66.3282
-68.3287
-71.2295
-74.3929
-77.0593
-78.456
-77.9017
-74.8946
-69.1722
-60.7387
-49.8559
-37.0049
-22.8217
-8.01861
6.69781
20.7035
33.518
44.8449
54.5887
62.8481
69.8897
76.1067
81.9683
87.9665
94.5643
102.151
111.009
121.288
133
146.021
160.105
174.909
190.021
204.992
219.363
232.694
244.581
254.664
262.632
268.219
271.197
271.372
268.577
262.683
253.605
241.329
225.93
207.601
186.669
163.609
139.04
113.7
88.4178
64.0534
41.4432
21.3338
4.32241
-9.19154
-19.0378
-25.2848
-28.2273
-28.3511
-26.2819
-22.7217
-18.3812
-13.9152
-9.86811
-6.63441
-4.43781
-3.3297
-3.20594
-3.83873
-4.91869
-6.10185
-7.05559
-7.49854
-7.23023
-6.14797
-4.2502
-1.62724
1.5576
5.09298
8.74614
12.2874
15.5096
18.2416
20.3544
21.7635
22.4266
22.3399
21.5341
20.0709
18.0397
15.5536
12.7457
9.76239
6.75464
3.86743
1.22744
-1.06898
-2.96619
-4.45586
-5.57852
-6.41916
-7.09689
-7.74967
-8.51572
-9.51413
-10.827
-12.4862
-14.4656
-16.6816
-19.0009
-21.2552
-23.2608
-24.8412
-25.8483
-26.1813
-25.7991
-24.7252
-23.0447
-20.8946
-18.4474
-15.892
-13.4143
-11.1795
-9.31905
-7.92251
-7.03606
-6.66566
-6.78448
-7.34266
-8.2775
-9.52271
-11.0152
-12.6991
-14.5263
-16.4547
-18.4438
-20.45
-22.4216
-24.2952
-25.9941
-27.4294
-28.5042
-29.1208
-29.1896
-28.6397
-27.4297
-25.5562
-23.0608
-20.0313
-16.5988
-12.9303
-9.21542
-5.65104
-2.42369
0.307313
2.4244
3.86196
4.61122
4.71908
4.28118
3.43017
2.32059
1.11223
-0.0460244
-1.03016
-1.75121
-2.16094
-2.25247
-2.05636
-1.6329
-1.06176
-0.430504
0.176551
0.688
1.05239
1.24216
1.25427
1.10784
0.839314
0.496078
0.129423
-0.212212
-0.488908
-0.673269
-0.752449
-0.728147
-0.614811
-0.43644
-0.222555
-0.00390373
0.191524
0.341732
0.432921
0.460555
0.429382
0.352646
0.250782
0.149915
0.0803785
0.0753827
0.169796
0.398948
0.797304
1.3969
2.22554
3.3048
4.6482
6.25977
8.13342
10.2535
12.5968
15.1353
17.8406
20.6865
23.6517
26.719
29.8713
33.0852
36.3214
39.5155
42.5703
45.3522
47.6942
49.406
50.2911
50.1692
48.9012
46.4129
42.7132
37.9047
32.1824
25.8221
19.1578
12.5515
6.35921
0.897086
-3.58741
-6.93588
-9.08851
-10.0817
-10.0342
-9.12419
-7.55798
-5.53479
-3.20796
-0.645425
2.20882
5.56899
9.83276
15.5904
23.6097
34.7879
50.0652
70.2982
96.1015
127.671
164.619
205.837
249.447
292.832
332.793
365.81
388.402
397.532
391.013
367.848
328.462
274.765
210.044
138.684
65.7408
-3.57243
-64.4238
-112.862
-146.211
-163.312
-164.587
-151.929
-128.42
-97.9406
-64.7033
-32.7831
-5.69106
13.9567
24.6435
26.0161
18.8106
4.66096
-14.1781
-35.1531
-55.7361
-73.7141
-87.4101
-95.8184
-98.6452
-96.2603
-89.5743
-79.8655
-68.5815
-57.144
-46.778
-38.3855
-32.4735
-29.1378
-28.1004
-28.788
-30.4386
-32.2189
-33.3376
-33.1394
-31.1718
-27.2169
-21.2895
-13.6041
-4.51917
5.53247
16.1159
26.8587
37.4992
47.9135
58.1182
68.2507
78.5327
89.2212
100.558
112.725
125.802
139.755
154.424
169.539
184.744
199.63
213.774
226.774
238.285
248.036
255.847
261.626
265.362
267.102
266.931
264.946
261.233
255.849
248.82
240.137
229.769
217.689
203.893
188.433
171.441
153.142
133.869
114.048
94.1864
74.8364
56.56
39.8847
25.2617
13.0294
3.38672
-3.62117
-8.10305
-10.3077
-10.5979
-9.41483
-7.23745
-4.5406
-1.75643
0.757223
2.73872
4.03329
4.59221
4.46166
3.76316
2.6687
1.37359
0.0702188
-1.07437
-1.93517
-2.43885
-2.56605
-2.34696
-1.85149
-1.17574
-0.426997
0.290993
0.890483
1.30883
1.51345
1.5024
1.30118
0.956429
0.527597
0.0780084
-0.333717
-0.660765
-0.873085
-0.959803
-0.929032
-0.805311
-0.625174
-0.431479
-0.267298
-0.170124
-0.167121
-0.27195
-0.483497
-0.786548
-1.1542
-1.55154
-1.94012
-2.28242
-2.54586
-2.70597
-2.74818
-2.66847
-2.47266
-2.17471
-1.79436
-1.35436
-0.87768
-0.385259
0.105645
0.582104
1.03519
1.45884
1.84815
2.19764
2.49987
2.74487
2.92045
3.01357
3.01245
2.90897
2.70105
2.39438
2.0032
1.54992
1.06344
0.576611
0.122857
-0.267296
-0.569486
-0.768051
-0.857525
-0.842921
-0.738773
-0.567126
-0.354734
-0.129873
0.0808356
0.255198
0.377513
0.439706
0.441458
0.389327
0.294979
0.172711
0.0365222
-0.102954
-0.241276
-0.382402
-0.539915
-0.73698
-1.00491
-1.38037
-1.90145
-2.60306
-3.51211
-4.64325
-5.99567
-7.55168
-9.27711
-11.124
-13.0348
-14.9481
-16.8049
-18.5544
-20.1587
-21.5958
-22.8604
-23.9622
-24.9227
-25.7698
-26.5327
-27.2368
-27.8996
-28.529
-29.1226
-29.67
-30.1562
-30.5648
-30.8828
-31.1033
-31.2272
-31.2626
-31.2235
-31.1255
-30.982
-30.7997
-30.5752
-30.2931
-29.9265
-29.4389
-28.7885
-27.9336
-26.838
-25.4761
-23.8372
-21.9272
-19.7695
-17.4022
-14.8752
-12.2439
-9.56374
-6.8839
-4.24222
-1.66187
0.84977
3.29964
5.70511
8.08806
10.4677
12.8531
15.2365
17.5882
19.8546
21.9594
23.8084
25.2972
26.3221
26.7912
26.6367
25.824
24.3591
22.2912
19.712
16.7492
13.5584
10.3113
7.18343
4.34165
1.93412
0.0824388
-1.12214
-1.61808
-1.36795
-0.347466
1.47068
4.13819
7.75692
12.5075
18.6777
26.6863
37.0948
50.5998
67.9955
90.0995
117.636
151.083
190.488
235.287
284.155
334.929
384.637
429.668
466.062
489.927
497.909
487.657
458.214
410.266
346.195
269.918
186.54
101.835
21.6521
-48.6951
-104.97
-144.415
-165.98
-170.332
-159.685
-137.454
-107.803
-75.1352
-43.6013
-16.6765
3.14643
14.5227
17.2713
12.2544
1.14743
-13.8608
-30.3953
-46.2061
-59.4281
-68.7627
-73.5687
-73.861
-70.2278
-63.686
-55.5003
-46.9917
-39.3622
-33.5532
-30.1537
-29.3618
-30.9992
-34.5702
-39.3521
-44.5032
-49.1735
-52.6028
-54.1982
-53.5825
-50.612
-45.3656
-38.1095
-29.2449
-19.2468
-8.60292
2.24101
12.9238
23.1962
32.9331
42.1308
50.8929
59.4083
67.9236
76.7143
86.0558
96.197
107.336
119.603
133.039
147.592
163.108
179.335
195.927
212.459
228.451
243.384
256.738
268.012
276.756
282.598
285.258
284.566
280.47
273.034
262.43
248.932
232.894
214.734
194.91
173.897
152.169
130.174
108.321
86.9705
66.4229
46.9213
28.6535
11.76
-3.65665
-17.5207
-29.7733
-40.3635
-49.2433
-56.3653
-61.6842
-65.1624
-66.7786
-66.5377
-64.4825
-60.7034
-55.3463
-48.6152
-40.7699
-32.1182
-23.002
-13.7787
-4.80057
3.60707
11.166
17.6611
22.9512
26.9735
29.7404
31.3316
31.8801
31.5558
30.5478
29.0468
27.2315
25.2568
23.2476
21.2965
19.4652
17.7891
16.2834
14.951
13.7886
12.7931
11.9654
11.313
10.8503
10.5966
10.5738
10.8009
11.2892
12.0364
13.021
14.1982
15.4973
16.8208
18.046
19.0287
19.6089
19.6189
18.8936
17.2816
14.6586
10.9399
6.09179
0.140289
-6.82403
-14.6466
-23.1148
-31.9693
-40.9204
-49.6672
-57.9186
-65.4136
-71.9385
-77.3393
-81.5283
-84.4827
-86.2372
-86.8704
-86.487
-85.1994
-83.1091
-80.2931
-76.7947
-72.6212
-67.7493
-62.1356
-55.7327
-48.5073
-40.4585
-31.6319
-22.13
-12.114
-1.79936
8.55725
18.6761
28.2767
37.1013
44.9369
51.6323
57.1094
61.3655
64.4668
66.5339
67.72
68.1856
68.0722
67.4811
66.458
64.9894
63.0089
60.4139
57.0905
52.9412
47.9119
42.013
35.3312
28.0308
20.3417
12.5389
4.91316
-2.26039
-8.75261
-14.4051
-19.1459
-22.9939
-26.0523
-28.4913
-30.5228
-32.3701
-34.2377
-36.2827
-38.5932
-41.1753
-43.9503
-46.7618
-49.3937
-51.5939
-53.1042
-53.69
-53.1684
-51.4307
-48.4561
-44.3157
-39.1655
-33.2296
-26.7751
-20.0814
-13.4085
-6.96756
-0.898252
4.74437
9.99082
14.9463
19.7689
24.6408
29.7353
35.1854
41.0572
47.3326
53.9013
60.565
67.0504
73.0316
78.1571
82.081
84.4943
85.1543
83.9099
80.7197
75.6624
68.9367
60.8504
51.7998
42.2393
32.6456
23.4782
15.1414
7.95153
2.11295
-2.29466
-5.31556
-7.10413
-7.89896
-7.98697
-7.66027
-7.16854
-6.67009
-6.18501
-5.5553
-4.41789
-2.19861
1.86484
8.6632
19.1152
34.028
53.929
78.8886
108.361
141.077
175.023
207.524
235.44
255.477
264.561
260.237
241.042
206.779
158.658
99.2602
32.3408
-37.5286
-105.424
-166.583
-216.903
-253.364
-274.313
-279.591
-270.48
-249.494
-220.034
-185.965
-151.166
-119.116
-92.5452
-73.2149
-61.8186
-58.0192
-60.6018
-67.7129
-77.151
-86.6676
-94.244
-98.3116
-97.8984
-92.689
-83.0023
-69.696
-54.0172
-37.421
-21.3826
-7.22327
4.02851
11.7295
15.6606
16.0139
13.3324
8.41687
2.21058
-4.31942
-10.2926
-15.004
-17.9836
-19.0231
-18.169
-15.686
-11.998
-7.6139
-3.04695
1.2613
5.00591
8.0642
10.5174
12.6457
14.8981
17.8383
22.0754
28.1848
36.6306
47.6973
61.4408
77.6643
95.9227
115.555
135.744
155.587
174.184
190.719
204.529
215.155
222.372
226.181
226.79
224.559
219.944
213.424
205.435
196.32
186.292
175.421
163.649
150.831
136.782
121.349
104.464
86.201
66.8037
46.687
26.416
6.6573
-11.8859
-28.5483
-42.7742
-54.1783
-62.5866
-68.0527
-70.8472
-71.4241
-70.3665
-68.3219
-65.9327
-63.7721
-62.2917
-61.7864
-62.3781
-64.0203
-66.5197
-69.5724
-72.8081
-75.8382
-78.3009
-79.8998
-80.4316
-79.8011
-78.023
-75.2116
-71.5599
-67.3126
-62.7351
-58.0836
-53.5781
-49.3833
-45.5962
-42.2435
-39.2872
-36.6369
-34.1684
-31.7438
-29.2332
-26.5331
-23.5816
-20.367
-16.9304
-13.3609
-9.78536
-6.35308
-3.21836
-0.522182
1.62414
3.15166
4.0413
4.3255
4.08382
3.43335
2.51508
1.47823
0.464249
-0.407332
-1.04983
-1.41581
-1.49856
-1.32861
-0.966086
-0.490105
0.0133782
0.463527
0.79495
0.965191
0.958621
0.786499
0.483423
0.10086
-0.301232
-0.663448
-0.935381
-1.08229
-1.08913
-0.961577
-0.723941
-0.414609
-0.0797484
0.233676
0.484518
0.642786
0.693028
0.635457
0.484817
0.267343
0.0163897
-0.232568
-0.446817
-0.600522
-0.677596
-0.673033
-0.59267
-0.451557
-0.271253
-0.0765233
0.108092
0.261374
0.367813
0.419054
0.414296
0.359694
0.266942
0.151285
0.029279
-0.0833998
-0.173817
-0.233116
-0.257212
-0.246812
-0.206841
-0.14539
-0.0723826
0.00185752
0.0679363
0.118467
0.148786
0.157246
0.145114
0.116095
0.0756218
0.0299842
-0.0145466
-0.0525033
-0.079823
-0.0942089
-0.0952312
-0.0841829
-0.0637358
-0.0374578
-0.00927037
0.0170818
0.0384823
0.0527682
0.0589004
0.0569749
0.0480905
0.0341038
0.0173164
0.000142866
-0.0151753
-0.0267133
-0.0326866
-0.0306744
-0.0158867
0.0218119
0.102127
0.259326
0.546961
1.04088
1.83898
3.0564
4.8157
7.23236
10.397
14.3567
19.0981
24.5353
30.5045
36.7682
43.0281
48.9461
54.1732
58.3804
61.2901
62.7044
62.5245
60.7619
57.5371
53.0678
47.6468
41.6127
35.3175
29.0938
23.2266
17.9318
13.3452
9.52063
6.43843
4.02204
2.15974
0.728845
-0.38064
-1.24517
-1.89027
-2.27606
-2.28376
-1.70098
-0.204636
2.65735
7.48089
15.0082
26.1065
41.7105
62.7194
89.8484
123.444
163.286
208.415
257.024
306.453
353.316
393.76
423.845
439.998
439.476
420.779
383.931
330.604
264.032
188.734
110.076
33.7191
-34.966
-91.4529
-132.507
-156.473
-163.38
-154.843
-133.803
-104.119
-70.0956
-35.9884
-5.55103
18.3198
33.8113
40.2761
38.1701
28.8679
14.3892
-2.92195
-20.7203
-36.9459
-50.0409
-59.0776
-63.7905
-64.5188
-62.0759
-57.5707
-52.2098
-47.1079
-43.1322
-40.7975
-40.2219
-41.1437
-42.9898
-44.9838
-46.2727
-46.0544
-43.6871
-38.7679
-31.172
-21.0503
-8.79071
5.04945
19.8263
34.8952
49.6875
63.7673
76.8645
88.8806
99.8724
110.017
119.569
128.814
138.028
147.447
157.247
167.539
178.366
189.711
201.508
213.648
225.987
238.349
250.528
262.296
273.397
283.558
292.494
299.913
305.523
309.043
310.204
308.757
304.48
297.184
286.725
273.021
256.067
235.966
212.944
187.37
159.762
130.781
101.209
71.9079
43.7695
17.6548
-5.66885
-25.5852
-41.676
-53.7499
-61.8506
-66.2442
-67.3841
-65.8614
-62.3433
-57.5093
-51.9894
-46.3141
-40.8786
-35.9251
-31.5434
-27.6893
-24.2154
-20.9104
-17.5419
-13.8959
-9.80924
-5.19115
-0.0329035
5.59479
11.5545
17.6619
23.7088
29.486
34.8027
39.4994
43.4548
46.5845
48.8351
50.1734
50.5769
50.0254
48.4986
45.9796
42.4649
37.9781
32.5852
26.4078
19.6308
12.5011
5.31811
-1.58548
-7.86969
-13.217
-17.3618
-20.1157
-21.3854
-21.1797
-19.6068
-16.8595
-13.194
-8.90296
-4.28812
0.363685
4.79868
8.80685
12.2254
14.9368
16.8636
17.963
18.2232
17.662
16.3289
14.3078
11.7196
8.72315
5.51052
2.2983
-0.687099
-3.22831
-5.13808
-6.2798
-6.58442
-6.06077
-4.79744
-2.95508
-0.749849
1.57017
3.75263
5.56915
6.84024
7.45401
7.37622
6.65067
5.39025
3.76017
1.95577
0.178069
-1.38988
-2.60287
-3.36754
-3.64907
-3.4704
-2.90453
-2.06156
-1.07233
-0.0711486
0.820085
1.50449
1.91799
2.03186
1.85012
1.40297
0.737856
-0.0900913
-1.02649
-2.02383
-3.04469
-4.06211
-5.05779
-6.01917
-6.9365
-7.80088
-8.60396
-9.33943
-10.006
-10.6112
-11.1749
-11.7321
-12.3336
-13.0445
-13.9415
-15.1067
-16.6216
-18.5596
-20.9781
-23.9113
-27.3627
-31.2987
-35.6437
-40.2776
-45.0366
-49.7175
-54.0872
-57.896
-60.8944
-62.8525
-63.5796
-62.9414
-60.8752
-57.3977
-52.6078
-46.682
-39.8627
-32.4419
-24.7404
-17.0857
-9.79057
-3.13433
2.65203
7.39513
10.9833
13.3653
14.5451
14.5733
13.537
11.5488
8.73781
5.24133
1.20033
-3.24267
-7.94292
-12.751
-17.5096
-22.0511
-26.1974
-29.7636
-32.5661
-34.4352
-35.2311
-34.8613
-33.2962
-30.5805
-26.8362
-22.2554
-17.0816
-11.5784
-5.98719
-0.476699
4.91248
10.3216
16.1186
22.9261
31.6216
43.3029
59.2108
80.6057
108.6
143.956
186.864
236.739
292.056
350.277
407.904
460.668
503.874
532.859
543.526
532.88
499.483
443.773
368.162
276.921
175.824
71.6124
-28.6715
-118.387
-191.953
-245.386
-276.641
-285.736
-274.644
-246.977
-207.507
-161.591
-114.568
-71.2097
-35.2692
-9.1894
6.01773
10.7166
6.4398
-4.4344
-19.0714
-34.582
-48.3884
-58.5128
-63.7618
-63.7945
-59.0776
-50.7427
-40.3748
-29.7605
-20.6346
-14.4516
-12.2112
-14.3526
-20.7251
-30.6323
-42.9397
-56.2275
-68.9672
-79.7023
-87.2098
-90.6269
-89.5314
-83.9679
-74.4222
-61.7469
-47.05
-31.5602
-16.4839
-2.87076
8.49663
17.1794
23.1161
26.6117
28.2854
28.9841
29.6727
31.315
34.7581
40.6352
49.2945
60.7641
74.7525
90.6849
107.768
125.075
141.639
156.544
169.005
178.422
184.414
186.821
185.685
181.213
173.729
163.622
151.304
137.175
121.611
104.953
87.5227
69.633
51.6075
33.7926
16.5622
0.311639
-14.5583
-27.6665
-38.6807
-47.3474
-53.517
-57.1599
-58.3729
-57.3716
-54.4731
-50.0684
-44.5894
-38.4746
-32.1356
-25.93
-20.1409
-14.9658
-10.5131
-6.808
-3.80346
-1.39721
0.548416
2.18521
3.65817
5.08694
6.5513
8.08217
9.65905
11.2141
12.6421
13.8158
14.6036
14.8881
14.5834
13.6488
12.0972
9.99733
7.47034
4.67984
1.8178
-0.912952
-3.3173
-5.22588
-6.51052
-7.09556
-6.96381
-6.15659
-4.76776
-2.9326
-0.812615
1.42172
3.60839
5.60939
7.32266
8.68916
9.69452
10.3654
10.7612
10.9629
11.0606
11.14
11.2726
11.5062
11.8603
12.3244
12.859
13.4006
13.8686
14.175
14.2345
13.9756
13.3497
12.3394
10.9624
9.27211
7.3539
5.31777
3.28757
1.38861
-0.265197
-1.58293
-2.50575
-3.0122
-3.11933
-2.87928
-2.37206
-1.6953
-0.952469
-0.241001
0.358161
0.78833
1.02133
1.05788
0.924361
0.666489
0.341153
0.00747258
-0.281518
-0.485517
-0.581131
-0.563255
-0.443757
-0.247941
-0.00954933
0.234844
0.451189
0.612369
0.701164
0.71155
0.648346
0.52545
0.363071
0.184439
0.0124765
-0.133118
-0.238051
-0.294668
-0.302211
-0.266148
-0.196794
-0.107457
-0.0124191
0.0749924
0.143988
0.187404
0.202209
0.189422
0.153535
0.101547
0.0417923
-0.0172738
-0.0681765
-0.105286
-0.125393
-0.127993
-0.115366
-0.0925621
-0.067394
-0.0505372
-0.0557294
-0.100035
-0.204088
-0.392218
-0.692365
-1.13568
-1.7557
-2.58691
-3.66255
-5.01153
-6.65445
-8.59883
-10.8341
-13.3267
-16.0168
-18.816
-21.6086
-24.2556
-26.6019
-28.4864
-29.7546
-30.272
-29.9381
-28.698
-26.5521
-23.5618
-19.8496
-15.5956
-11.0275
-6.4065
-2.00945
1.89185
5.05178
7.27095
8.41291
8.416
7.29881
5.15882
2.1641
-1.46087
-5.45401
-9.53689
-13.4363
-16.9043
-19.7333
-21.7676
-22.9059
-23.0978
-22.3311
-20.6101
-17.9249
-14.2127
-9.31417
-2.9301
5.41181
16.3691
30.7616
49.5021
73.4735
103.356
139.42
181.314
227.888
277.094
326.013
371.009
408.045
433.095
442.635
434.128
406.431
360.063
297.278
221.934
139.147
54.8006
-25.0656
-94.8759
-150.09
-187.65
-206.242
-206.364
-190.178
-161.189
-123.791
-82.7418
-42.6358
-7.42996
19.9168
37.6631
45.3474
43.698
34.4167
19.8712
2.74218
-14.3293
-29.0518
-39.7181
-45.3439
-45.7036
-41.2693
-33.0713
-22.5043
-11.1109
-0.370224
8.48063
14.575
17.4829
17.2142
14.1654
9.02436
2.6487
-4.06066
-10.2751
-15.328
-18.7704
-20.3893
-20.1905
-18.3548
-15.1752
-10.9881
-6.1072
-0.770869
4.89381
10.8855
17.323
24.4212
32.4546
41.7129
52.4551
64.8672
79.0292
94.8922
112.27
130.842
150.174
169.74
188.963
207.253
224.046
238.845
251.249
260.976
267.867
271.888
273.115
271.712
267.901
261.935
254.071
244.546
233.562
221.278
207.815
193.26
177.688
161.183
143.857
125.874
107.464
88.9258
70.6236
52.9704
36.401
21.3389
8.15993
-2.84332
-11.4899
-17.7298
-21.65
-23.4673
-23.5078
-22.1752
-19.9126
-17.1608
-14.3183
-11.7086
-9.55586
-7.9736
-6.96586
-6.4402
-6.23053
-6.12634
-5.90479
-5.36159
-4.33749
-2.73743
-0.54108
2.19604
5.34992
8.74253
12.1612
15.3803
18.1832
20.3818
21.8326
22.4478
22.2008
21.1266
19.3169
16.9106
14.0815
11.0232
7.93303
4.99698
2.37559
0.192916
-1.47085
-2.58269
-3.1557
-3.24401
-2.93438
-2.33535
-1.56527
-0.740311
0.0362201
0.682293
1.14265
1.39102
1.42904
1.28243
0.994933
0.62104
0.2183
-0.15978
-0.469577
-0.681443
-0.781826
-0.773496
-0.674206
-0.514193
-0.332992
-0.175925
-0.0904816
-0.122682
-0.3134
-0.694662
-1.28599
-2.0911
-3.09524
-4.26388
-5.54294
-6.86124
-8.13489
-9.27373
-10.189
-10.8016
-11.0499
-10.8964
-10.3319
-9.37699
-8.08089
-6.517
-4.77619
-2.95835
-1.16315
0.51891
2.01443
3.27291
4.27011
5.00842
5.51441
5.83371
6.02388
6.14607
6.25643
6.39833
6.59633
6.8528
7.14753
7.44067
7.6785
7.80135
7.75261
7.48745
6.97983
6.2269
5.24963
4.08984
2.80369
1.45278
0.0940307
-1.22989
-2.49827
-3.71676
-4.91769
-6.15622
-7.50253
-9.03131
-10.8099
-12.8867
-15.2822
-17.9831
-20.942
-24.0808
-27.3005
-30.4932
-33.556
-36.4056
-38.989
-41.291
-43.335
-45.1788
-46.9034
-48.598
-50.3427
-52.1913
-54.1566
-56.2016
-58.237
-60.1261
-61.6979
-62.7643
-63.1424
-62.6762
-61.2562
-58.8343
-55.4311
-51.1349
-46.094
-40.501
-34.5744
-28.5375
-22.5993
-16.9384
-11.6932
-6.95713
-2.78104
0.820512
3.85887
6.35982
8.35243
9.86013
10.8949
11.4554
11.5289
11.0965
10.141
8.65553
6.65212
4.16876
1.27396
-1.93164
-5.31647
-8.72094
-11.96
-14.8224
-17.063
-18.3863
-18.4192
-16.6774
-12.5324
-5.19106
6.29684
22.9881
45.9408
76.0529
113.853
159.269
211.418
268.454
327.533
384.918
436.241
476.91
502.609
509.838
496.396
461.759
407.259
336.059
252.891
163.605
74.5732
-7.96477
-78.5459
-133.023
-168.944
-185.72
-184.589
-168.356
-140.992
-107.114
-71.4323
-38.2346
-10.9575
8.10483
17.9305
18.7394
11.8182
-0.764292
-16.5046
-32.8288
-47.425
-58.5074
-64.9857
-66.5282
-63.5219
-56.9434
-48.1676
-38.7418
-30.1602
-23.664
-20.0938
-19.8051
-22.6544
-28.0501
-35.0566
-42.5348
-49.2966
-54.2552
-56.5503
-55.6368
-51.3257
-43.7784
-33.4575
-21.0446
-7.33799
6.85391
20.8104
33.9763
46.012
56.8123
66.4954
75.366
83.8589
92.4734
101.705
111.984
123.623
136.783
151.455
167.46
184.464
202.006
219.535
236.459
252.188
266.177
277.966
287.203
293.656
297.215
297.876
295.713
290.854
283.451
273.654
261.603
247.429
231.268
213.281
193.682
172.759
150.885
128.512
106.155
84.354
63.6349
44.4623
27.2002
12.0831
-0.796626
-11.4841
-20.1406
-27.0084
-32.3688
-36.4986
-39.6312
-41.9292
-43.4703
-44.2493
-44.1932
-43.188
-41.1117
-37.8681
-33.4165
-27.7928
-21.1185
-13.5981
-5.50315
2.85161
11.1384
19.0464
26.3074
32.7134
38.1235
42.4599
45.696
47.8389
48.912
48.9418
47.9518
45.9641
43.0096
39.1417
34.4519
29.0816
23.2275
17.138
11.0994
5.41486
0.376378
-3.76394
-6.82074
-8.69568
-9.38831
-8.99586
-7.70198
-5.75567
-3.4435
-1.05848
1.1305
2.90482
4.11511
4.6912
4.64225
4.04788
3.04205
1.79193
0.474979
-0.743044
-1.72653
-2.38304
-2.66988
-2.59394
-2.20564
-1.58822
-0.844018
-0.0800008
0.605954
1.13618
1.46078
1.56095
1.44813
1.15947
0.750491
0.286039
-0.169165
-0.559483
-0.845904
-1.01166
-1.06559
-1.04313
-1.00483
-1.03252
-1.22327
-1.6814
-2.50913
-3.79639
-5.61085
-7.98884
-10.9283
-14.3842
-18.2677
-22.4486
-26.7613
-31.0144
-35.0035
-38.5249
-41.3912
-43.4455
-44.5749
-44.7197
-43.8794
-42.1143
-39.5412
-36.3254
-32.6686
-28.7939
-24.9296
-21.2933
-18.0773
-15.4365
-13.4802
-12.2675
-11.8073
-12.0612
-12.9504
-14.3644
-16.1709
-18.2262
-20.3838
-22.5022
-24.4491
-26.1047
-27.3622
-28.1274
-28.3192
-27.8706
-26.7309
-24.8699
-22.2836
-18.9995
-15.0807
-10.6285
-5.78062
-0.706162
4.40379
9.34835
13.9311
17.9747
21.3343
23.9082
25.6456
26.5493
26.6747
26.1252
25.0447
23.6079
22.0106
20.4591
19.1599
18.309
18.0808
18.6175
20.0174
22.3259
25.5277
29.5435
34.2317
39.3953
44.7938
50.1602
55.2202
59.7113
63.4016
66.1026
67.6782
68.0464
67.1761
65.0787
61.7984
57.4014
51.9686
45.5908
38.3686
30.4156
21.864
12.871
3.62245
-5.66563
-14.7501
-23.3663
-31.2353
-38.067
-43.5572
-47.3751
-49.1398
-48.3904
-44.556
-36.9379
-24.7154
-6.991
17.1183
48.3394
87.0605
133.129
185.658
242.893
302.158
359.941
412.113
454.279
482.235
492.465
482.617
451.879
401.204
333.325
252.567
164.451
75.1545
-9.11536
-82.7526
-141.31
-181.917
-203.503
-206.815
-194.233
-169.407
-136.782
-101.063
-66.6921
-37.3958
-15.8564
-3.52707
-0.606686
-6.16155
-18.3655
-34.8188
-52.9004
-70.1067
-84.339
-94.109
-98.6476
-97.9141
-92.5152
-83.5555
-72.4437
-60.6836
-49.6773
-40.5628
-34.102
-30.6267
-30.0438
-31.8909
-35.4318
-39.7746
-43.9967
-47.2609
-48.909
-48.5254
-45.9636
-41.3373
-34.9783
-27.3685
-19.0558
-10.5655
-2.31852
5.43246
12.6402
19.4695
26.271
33.5292
41.7884
51.5702
63.2934
77.2056
93.3381
111.488
131.229
151.95
172.917
193.338
212.441
229.539
244.078
255.671
264.106
269.331
271.433
270.593
267.049
261.056
252.855
242.659
230.644
216.955
201.723
185.084
167.194
148.251
128.502
108.247
87.8341
67.6488
48.0956
29.5773
12.472
-2.88993
-16.2472
-27.424
-36.3423
-43.0266
-47.6014
-50.2816
-51.3544
-51.156
-50.0435
-48.3644
-46.4288
-44.4851
-42.703
-41.1661
-39.875
-38.7595
-37.6993
-36.5499
-35.1692
-33.4434
-31.3061
-28.7501
-25.8304
-22.6566
-19.3789
-16.168
-13.1928
-10.5988
-8.49068
-6.92035
-5.88287
-5.31945
-5.12707
-5.17288
-5.3111
-5.39974
-5.31519
-4.96277
-4.28258
-3.25047
-1.87496
-0.191378
1.74548
3.86853
6.10461
8.37885
10.6173
12.7483
14.703
16.4162
17.8278
18.8858
19.5497
19.7953
19.6187
19.039
18.0997
16.8669
15.425
13.8697
12.2998
10.8077
9.47142
8.34777
7.46903
6.84247
6.45326
6.2699
6.2512
6.35341
6.53645
6.76799
7.02493
7.29223
7.55962
7.81719
8.0511
8.24053
8.35685
8.36526
8.22894
7.91473
7.39954
6.67612
5.75706
4.67616
3.48686
2.25763
1.06509
-0.0143079
-0.912826
-1.57904
-1.98348
-2.12155
-2.01343
-1.70107
-1.24267
-0.705571
-0.158441
0.336277
0.728663
0.985736
1.09357
1.057
0.897215
0.647577
0.348451
0.0416713
-0.234614
-0.450145
-0.585373
-0.632694
-0.596106
-0.489475
-0.333781
-0.153772
0.0254929
0.18177
0.298073
0.364162
0.376956
0.33984
0.260975
0.150817
0.0192008
-0.127606
-0.28942
-0.473857
-0.69698
-0.982788
-1.36165
-1.86786
-2.53662
-3.40069
-4.48705
-5.81377
-7.38743
-9.20125
-11.2342
-13.4515
-15.8058
-18.2403
-20.6924
-23.0982
-25.3968
-27.5342
-29.4656
-31.1558
-32.5774
-33.7063
-34.5162
-34.9731
-35.0297
-34.6232
-33.676
-32.1019
-29.8157
-26.7478
-22.8606
-18.1658
-12.7387
-6.72786
-0.357072
6.08159
12.244
17.7592
22.2604
25.4209
26.9877
26.8119
24.8692
21.2684
16.2467
10.1506
3.40518
-3.52536
-10.1812
-16.1494
-21.1001
-24.8142
-27.1968
-28.2788
-28.2033
-27.2007
-25.5519
-23.5435
-21.4153
-19.3028
-17.1788
-14.7976
-11.6515
-6.94777
0.377884
11.6021
28.0973
51.157
81.7717
120.378
166.617
219.145
275.544
332.378
385.403
429.941
461.371
475.693
470.057
443.217
395.793
330.327
251.097
163.711
74.5401
-9.94905
-83.8667
-142.495
-182.737
-203.362
-205.035
-190.133
-162.376
-126.34
-86.9015
-48.7027
-15.6768
9.29662
24.5883
29.8531
25.9141
14.5242
-1.95457
-20.9065
-39.8066
-56.514
-69.4835
-77.8787
-81.5831
-81.1191
-77.4947
-72.0044
-66.0147
-60.7638
-57.1977
-55.8626
-56.8612
-59.8719
-64.2238
-69.0129
-73.2396
-75.9497
-76.3601
-73.9534
-68.5345
-60.2423
-49.5201
-37.0502
-23.663
-10.2326
2.42836
13.6636
23.0474
30.4317
35.9617
40.0596
43.3786
46.7314
51.0011
57.043
65.5871
77.1516
91.9762
109.984
130.774
153.651
177.682
201.782
224.812
245.683
263.453
277.398
287.069
292.297
293.178
290.025
283.298
273.531
261.262
246.97
231.048
213.792
195.413
176.07
155.915
135.129
113.96
92.7398
71.8824
51.8667
33.1996
16.3706
1.80335
-10.1885
-19.4341
-25.9229
-29.8035
-31.3666
-31.0122
-29.2084
-26.4448
-23.1886
-19.8458
-16.7331
-14.0629
-11.9399
-10.3711
-9.28357
-8.55057
-8.01842
-7.53318
-6.96288
-6.21323
-5.23575
-4.0283
-2.62891
-1.10471
0.461809
1.98713
3.39929
4.64738
5.70673
6.57975
7.29251
7.88819
8.41855
8.93488
9.47962
10.08
10.7442
11.4604
12.1984
12.9143
13.5556
14.0679
14.4014
14.5163
14.3869
14.0038
13.3749
12.5239
11.4883
10.3153
9.05806
7.771
6.50572
5.30731
4.21173
3.24418
2.41861
1.73831
1.19743
0.783032
0.477513
0.261029
0.11367
0.0171981
-0.0437733
-0.081193
-0.103567
-0.116486
-0.123636
-0.128236
-0.134831
-0.151313
-0.190965
-0.274252
-0.430028
-0.695823
-1.11692
-1.74406
-2.62982
-3.82388
-5.36762
-7.28883
-9.59691
-12.2796
-15.3011
-18.6027
-22.1047
-25.7106
-29.3124
-32.7961
-36.0485
-38.963
-41.4452
-43.4174
-44.8228
-45.6281
-45.8254
-45.4326
-44.4929
-43.0726
-41.2576
-39.1486
-36.8549
-34.4874
-32.1517
-29.9411
-27.931
-26.1751
-24.7031
-23.5208
-22.6126
-21.9449
-21.4707
-21.135
-20.8789
-20.6442
-20.3758
-20.0243
-19.5471
-18.9094
-18.0846
-17.0548
-15.8119
-14.3573
-12.703
-10.8706
-8.89084
-6.80155
-4.64515
-2.46571
-0.305917
1.7956
3.80609
5.69944
7.45582
9.06025
10.5005
11.7651
12.8409
13.7126
14.3624
14.7717
14.9231
14.8043
14.411
13.7503
12.8428
11.7243
10.4447
9.06688
7.66367
6.31404
5.09921
4.09889
3.38822
3.03573
3.10212
3.63957
4.69109
6.28905
8.45249
11.1824
14.4553
18.2147
22.3623
26.7504
31.1778
35.3921
39.0996
41.9851
43.7386
44.089
42.8379
39.8903
35.2774
29.1653
21.8498
13.7351
5.29941
-2.94936
-10.5213
-16.9906
-22.0336
-25.4544
-27.1951
-27.3293
-26.0399
-23.5828
-20.2395
-16.2601
-11.8021
-6.86673
-1.24136
5.54399
14.2335
25.8219
41.4782
62.4097
89.6689
123.92
165.194
212.676
264.566
318.06
369.479
414.549
448.819
468.162
469.299
450.277
410.81
352.443
278.506
193.833
104.311
16.2847
-64.0963
-131.504
-181.959
-213.201
-224.845
-218.333
-196.677
-164.047
-125.251
-85.1784
-48.2755
-18.1111
2.92518
13.7639
14.6339
6.89297
-7.25601
-25.1197
-43.891
-61.0016
-74.4092
-82.7926
-85.6384
-83.2199
-76.4808
-66.8457
-55.9884
-45.5891
-37.1132
-31.6341
-29.7219
-31.4025
-36.189
-43.1736
-51.1644
-58.8461
-64.9446
-68.3734
-68.3478
-64.4556
-56.6801
-45.3763
-31.2076
-15.0525
2.1054
19.2916
35.6471
50.5147
63.5004
74.501
83.7003
91.5326
98.6195
105.688
113.475
122.641
133.677
146.852
162.165
179.344
197.864
216.997
235.885
253.617
269.321
282.24
291.799
297.642
299.653
297.943
292.815
284.71
274.147
261.659
247.736
232.783
217.098
200.869
184.188
167.085
149.57
131.673
113.484
95.178
77.0291
59.3992
42.7155
27.4325
13.9851
2.74207
-6.03763
-12.2359
-15.8925
-17.2042
-16.5076
-14.2469
-10.9314
-7.08734
-3.21069
0.27523
3.05171
4.9239
5.82591
5.81218
5.03702
3.72541
2.13897
0.541156
-0.834477
-1.80951
-2.27718
-2.20898
-1.6512
-0.712718
0.453998
1.67587
2.78313
3.63115
4.11749
4.19237
3.86165
3.18234
2.25178
1.19245
0.134549
-0.801107
-1.51763
-1.95244
-2.08236
-1.92334
-1.52513
-0.962251
-0.32262
0.304356
0.838649
1.21814
1.40397
1.38237
1.16332
0.776498
0.265631
-0.317785
-0.920457
-1.49221
-1.98944
-2.37713
-2.62958
-2.73037
-2.67194
-2.45524
-2.08951
-1.59228
-0.98925
-0.313842
0.393992
1.0898
1.72759
2.26354
2.65999
2.88928
2.93686
2.80292
2.50246
2.06323
1.52203
0.919481
0.294236
-0.322656
-0.91222
-1.47016
-2.00713
-2.5465
-3.11997
-3.76148
-4.50041
-5.35494
-6.32657
-7.39674
-8.52605
-9.65643
-10.716
-11.6264
-12.3113
-12.7057
-12.7639
-12.4669
-11.8255
-10.8815
-9.70498
-8.38797
-7.03597
-5.75733
-4.65216
-3.80166
-3.25932
-3.04501
-3.14272
-3.50253
-4.0465
-4.67811
-5.29402
-5.79675
-6.10679
-6.17236
-5.97569
-5.53469
-4.8999
-4.14677
-3.36462
-2.6434
-2.06054
-1.66941
-1.49139
-1.51253
-1.68542
-1.93614
-2.17524
-2.31128
-2.2651
-1.98256
-1.44403
-0.669203
0.283549
1.32331
2.33732
3.20502
3.81335
4.07152
3.92314
3.35429
2.39648
1.12439
-0.351221
-1.89442
-3.35716
-4.59285
-5.46877
-5.87566
-5.73362
-4.99384
-3.63648
-1.66568
0.896826
4.01795
7.65759
11.7699
16.3009
21.1826
26.3248
31.6068
36.8716
41.9241
46.5364
50.4597
53.4436
55.2596
55.7265
54.7344
52.2641
48.397
43.3164
37.2964
30.6814
23.8569
17.2154
11.121
5.87654
1.69738
-1.30497
-3.12828
-3.87269
-3.72253
-2.91866
-1.72389
-0.384678
0.908267
2.05799
3.09623
4.21382
5.78458
8.37994
12.7691
19.898
30.8384
46.6993
68.4964
96.9814
132.446
174.526
222.039
272.897
324.136
372.076
412.617
441.652
455.545
451.609
428.52
386.584
327.837
255.918
175.758
93.0897
13.8657
-56.3661
-113.031
-152.978
-174.762
-178.717
-166.83
-142.434
-109.762
-73.4341
-37.929
-7.11731
16.102
30.0211
34.1859
29.3082
17.05
-0.282164
-20.0863
-39.8126
-57.2659
-70.8305
-79.5969
-83.3845
-82.667
-78.4208
-71.9247
-64.5417
-57.5146
-51.8025
-47.975
-46.1738
-46.1399
-47.2947
-48.86
-49.9947
-49.9284
-48.073
-44.0996
-37.9723
-29.9386
-20.4813
-10.2406
0.0802947
9.81345
18.4158
25.5396
31.0766
35.1722
38.2101
40.7696
43.5614
47.3499
52.8695
60.7433
71.4134
85.0892
101.719
120.987
142.337
165.023
188.171
210.859
232.194
251.385
267.799
280.996
290.741
296.991
299.864
299.59
296.46
290.777
282.815
272.793
260.871
247.161
231.75
214.738
196.268
176.556
155.906
134.71
113.429
92.5728
72.6531
54.1499
37.471
22.9219
10.6855
0.814268
-6.76463
-12.2337
-15.8605
-17.9672
-18.899
-18.9932
-18.5529
-17.8283
-17.005
-16.2016
-15.4741
-14.8274
-14.2287
-13.6237
-12.9502
-12.1493
-11.1734
-9.98977
-8.58246
-6.95231
-5.11676
-3.10981
-0.982254
1.19865
3.35097
5.38242
7.19773
8.70889
9.84715
10.575
10.8959
10.8588
10.5568
10.1182
9.69036
9.41935
9.42716
9.7909
10.5272
11.5853
12.8495
14.1526
15.297
16.0818
16.3315
15.9212
14.7965
12.9826
10.5835
7.77083
4.76256
1.79721
-0.894965
-3.11881
-4.73597
-5.67871
-5.95437
-5.64042
-4.87112
-3.8181
-2.66758
-1.59753
-0.757461
-0.253369
-0.139362
-0.416426
-1.03798
-1.92088
-2.96003
-4.04437
-5.07211
-5.96337
-6.66879
-7.1735
-7.49624
-7.68443
-7.80587
-7.93861
-8.16027
-8.53791
-9.11978
-9.92935
-10.9622
-12.1855
-13.5409
-14.9482
-16.3122
-17.5295
-18.4962
-19.1153
-19.3036
-18.9976
-18.1581
-16.7735
-14.861
-12.4663
-9.66168
-6.54164
-3.21832
0.184896
3.54005
6.7214
9.61197
12.1094
14.1305
15.6155
16.5299
16.866
16.6425
15.9033
14.7146
13.1608
11.3395
9.35516
7.3123
5.30871
3.4292
1.74045
0.28773
-0.906225
-1.84
-2.53012
-3.00592
-3.30354
-3.45981
-3.50698
-3.46917
-3.3609
-3.18793
-2.95019
-2.646
-2.27685
-1.85158
-1.38917
-0.919307
-0.480543
-0.116125
0.131901
0.229449
0.156897
-0.0858064
-0.4764
-0.970598
-1.5056
-2.00652
-2.39485
-2.59791
-2.55777
-2.23836
-1.62958
-0.747698
0.368035
1.66205
3.07107
4.53297
5.99375
7.4109
8.75178
9.9866
11.0769
11.9612
12.5416
12.674
12.1658
10.7844
8.27558
4.39323
-1.0657
-8.22373
-17.0898
-27.5358
-39.287
-51.9292
-64.9308
-77.6801
-89.5314
-99.8558
-108.092
-113.791
-116.651
-116.538
-113.493
-107.724
-99.5826
-89.5318
-78.1031
-65.8491
-53.2925
-40.8755
-28.9085
-17.5215
-6.62186
4.1397
15.3846
27.9968
43.0768
61.8527
85.5419
115.17
151.355
194.093
242.565
295.019
348.756
400.252
445.421
480.005
500.046
502.387
485.13
447.973
392.379
321.544
240.142
153.889
68.9774
-8.56871
-73.5093
-121.919
-151.557
-162.043
-154.812
-132.874
-100.406
-62.2355
-23.289
11.9422
39.8417
57.9782
65.2554
61.8974
49.2853
29.6759
5.84661
-19.2844
-43.0157
-63.1557
-78.2235
-87.5407
-91.2141
-90.0223
-85.23
-78.3608
-70.9614
-64.389
-59.6466
-57.2836
-57.3668
-59.5213
-63.0266
-66.9507
-70.3019
-72.1743
-71.87
-68.9829
-63.4367
-55.4749
-45.6087
-34.5319
-23.0162
-11.8026
-1.50174
7.48349
15.0045
21.1795
26.3701
31.129
36.1232
42.0457
49.5264
59.0526
70.9095
85.1468
101.574
119.781
139.185
159.086
178.735
197.397
214.402
229.191
241.335
250.548
256.677
259.692
259.661
256.724
251.074
242.925
232.506
220.039
205.738
189.805
172.438
153.837
134.214
113.809
92.8959
71.7936
50.8652
30.5152
11.1773
-6.70433
-22.6997
-36.421
-47.5525
-55.8768
-61.2977
-63.8531
-63.7188
-61.1997
-56.7108
-50.7472
-43.8475
-36.5534
-29.369
-22.7257
-16.9542
-12.2674
-8.75482
-6.3895
-5.04451
-4.51789
-4.56215
-4.91507
-5.32843
-5.59177
-5.54925
-5.10857
-4.24182
-2.97938
-1.39831
0.392758
2.26995
4.10995
5.80354
7.26563
8.44139
9.30813
9.87351
10.1706
10.2508
10.1759
10.0097
9.8107
9.62614
9.48786
9.41027
9.39031
9.40936
9.43664
9.43373
9.35972
9.17644
8.85323
8.37081
7.72395
6.92256
5.9913
4.96766
3.89886
2.83777
1.8383
0.950739
0.217327
-0.33151
-0.679885
-0.827909
-0.791685
-0.601783
-0.300273
0.0634168
0.437453
0.772834
1.02838
1.17485
1.1978
1.09863
0.89381
0.61227
0.291313
-0.0284274
-0.308285
-0.516411
-0.631537
-0.645189
-0.562117
-0.398969
-0.181483
0.0593367
0.2915
0.486144
0.620951
0.682444
0.666902
0.579846
0.434219
0.247528
0.0383701
-0.177178
-0.388771
-0.594132
-0.800113
-1.02225
-1.28283
-1.60762
-2.02175
-2.54533
-3.18935
-3.95266
-4.82044
-5.76461
-6.74616
-7.71932
-8.63696
-9.45655
-10.1458
-10.6874
-11.0812
-11.3449
-11.5112
-11.6233
-11.7279
-11.8676
-12.073
-12.357
-12.7107
-13.1027
-13.4819
-13.7837
-13.9376
-13.8765
-13.546
-12.9107
-11.9592
-10.7055
-9.18712
-7.46177
-5.60226
-3.69128
-1.8166
-0.0669452
1.47162
2.71932
3.60696
4.08141
4.1122
3.69887
2.87776
1.72698
0.367922
-1.03797
-2.29769
-3.20035
-3.53502
-3.11084
-1.77711
0.559353
3.92199
8.25934
13.4479
19.3028
25.5956
32.0755
38.4927
44.6186
50.2622
55.2774
59.5636
63.0573
65.7182
67.5128
68.3986
68.3133
67.1718
64.8723
61.3114
56.407
50.1234
42.4961
33.6514
23.8161
13.3153
2.55852
-7.98697
-17.8305
-26.4982
-33.5724
-38.728
-41.7586
-42.5915
-41.287
-38.0222
-33.0571
-26.6851
-19.1704
-10.6762
-1.19398
9.51767
21.9686
36.934
55.3987
78.4413
107.059
141.946
183.251
230.352
281.696
334.75
386.085
431.626
467.038
488.212
491.794
475.669
439.338
384.109
313.081
230.905
143.337
56.6635
-22.9581
-90.1354
-140.788
-172.535
-184.874
-179.149
-158.304
-126.476
-88.4694
-49.1986
-13.1497
16.0645
36.0156
45.6088
45.0662
35.7593
19.9241
0.302636
-20.2386
-39.068
-54.0832
-63.9122
-68.0065
-66.6234
-60.7098
-51.711
-41.3323
-31.2889
-23.0742
-17.7757
-15.9574
-17.6195
-22.2335
-28.8434
-36.2143
-43.0054
-47.9435
-49.9754
-48.3807
-42.8363
-33.4281
-20.6135
-5.14409
12.0388
29.9214
47.5337
64.0503
78.8682
91.6535
102.355
111.187
118.58
125.12
131.464
138.26
146.072
155.315
166.212
178.771
192.791
207.882
223.512
239.06
253.877
267.35
278.943
288.247
294.987
299.032
300.371
299.089
295.33
289.256
281.017
270.731
258.472
244.278
228.174
210.2
190.451
169.108
146.473
122.973
99.165
75.7044
53.3064
32.6892
14.5108
-0.693059
-12.5621
-20.948
-25.9309
-27.8107
-27.0771
-24.3598
-20.3654
-15.8085
-11.3453
-7.51604
-4.70361
-3.11053
-2.75715
-3.49928
-5.06216
-7.08599
-9.17712
-10.9587
-12.1154
-12.4273
-11.7896
-10.2184
-7.84015
-4.87019
-1.58136
1.73162
4.7881
7.35317
9.26167
10.4321
10.8696
10.6579
9.94274
8.9088
7.75357
6.66218
5.78575
5.22614
5.02844
5.18141
5.62527
6.26486
6.9861
7.6729
8.22243
8.5566
8.62891
8.4262
7.96591
7.28985
6.4559
5.52913
4.57354
3.64535
2.78848
2.03211
1.39019
0.862286
0.435386
0.0861333
-0.216704
-0.509592
-0.831387
-1.22024
-1.71031
-2.32854
-3.09176
-4.00461
-5.05853
-6.23218
-7.49328
-8.80171
-10.1136
-11.3856
-12.5795
-13.6655
-14.6247
-15.4497
-16.1439
-16.7192
-17.1923
-17.581
-17.8996
-18.1553
-18.3458
-18.4582
-18.4696
-18.3492
-18.0626
-17.5756
-16.8594
-15.8941
-14.6719
-13.1982
-11.4917
-9.5844
-7.52072
-5.35845
-3.16938
-1.04038
0.926595
2.61654
3.90667
4.67525
4.81388
4.24206
2.92214
0.872122
-1.82593
-5.02429
-8.51587
-12.0486
-15.3471
-18.1385
-20.1806
-21.2884
-21.3544
-20.3621
-18.3894
-15.6009
-12.2322
-8.56461
-4.89702
-1.51511
1.33672
3.47824
4.80867
5.3128
5.05762
4.18017
2.86837
1.33735
-0.195812
-1.53583
-2.52859
-3.07419
-3.13219
-2.71901
-1.8982
-0.765303
0.570398
2.00448
3.4538
4.86848
6.23796
7.59055
8.9868
10.5079
12.2409
14.2639
16.6317
19.3664
22.4518
25.8339
29.4251
33.1128
36.7692
40.2608
43.4572
46.2372
48.4918
50.1262
51.0591
51.2224
50.5606
49.0324
46.6131
43.2989
39.1129
34.1111
28.389
22.0859
15.3865
8.5188
1.74615
-4.64582
-10.3672
-15.1451
-18.7466
-20.9998
-21.8102
-21.1699
-19.1564
-15.9186
-11.6504
-6.54916
-0.764007
5.664
12.8608
21.1677
31.1661
43.6659
59.6462
80.1418
106.078
138.069
176.193
219.801
267.376
316.491
363.906
405.797
438.111
457.024
459.419
443.34
408.338
355.652
288.195
210.329
127.459
45.4868
-29.8068
-93.361
-141.356
-171.58
-183.606
-178.76
-159.893
-130.986
-96.6583
-61.6217
-30.1668
-5.7291
9.41416
14.2925
9.2287
-4.32142
-24.0454
-47.1236
-70.6047
-91.7596
-108.375
-118.958
-122.836
-120.149
-111.749
-99.0302
-83.7035
-67.5656
-52.2774
-39.182
-29.1795
-22.6678
-19.5495
-19.2978
-21.0679
-23.8341
-26.5364
-28.2138
-28.1132
-25.76
-20.9875
-13.9252
-4.95024
5.38769
16.4569
27.6383
38.4115
48.4232
57.5304
65.8144
73.5654
81.2402
89.3986
98.6262
109.453
122.276
137.301
154.494
173.575
194.024
215.123
236.017
255.786
273.522
288.41
299.784
307.176
310.341
309.26
304.125
295.308
283.318
268.753
252.244
234.408
215.799
196.882
178.006
159.408
141.223
123.508
106.283
89.5639
73.3978
57.8892
43.2097
29.5926
17.3117
6.64921
-2.14501
-8.89298
-13.5227
-16.0901
-16.7854
-15.9225
-13.9127
-11.2253
-8.34218
-5.70949
-3.69559
-2.55797
-2.42411
-3.2876
-5.0193
-7.39139
-10.1108
-12.8573
-15.3218
-17.2401
-18.419
-18.7517
-18.2227
-16.9011
-14.9257
-12.4832
-9.78366
-7.03538
-4.42304
-2.09082
-0.132049
1.41421
2.55996
3.35964
3.89758
4.27363
4.5887
4.93205
5.37157
5.94791
6.67263
7.5302
8.48304
9.47859
10.4574
11.3607
12.137
12.7461
13.1612
13.3687
13.366
13.1584
12.7555
12.1685
11.4087
10.4867
9.41414
8.2052
6.87955
5.46429
3.99495
2.51489
1.0728
-0.281617
-1.50313
-2.557
-3.42444
-4.10664
-4.62638
-5.0269
-5.36773
-5.71809
-6.14849
-6.72176
-7.48489
-8.46268
-9.65452
-11.0346
-12.5556
-14.1558
-15.7678
-17.3278
-18.784
-20.1021
-21.2677
-22.2834
-23.1641
-23.9278
-24.5872
-25.1416
-25.5711
-25.836
-25.8788
-25.6317
-25.0263
-24.0047
-22.5307
-20.5986
-18.2388
-15.5189
-12.5404
-9.43096
-6.33427
-3.39718
-0.757191
1.46922
3.19583
4.37276
4.98898
5.07126
4.68003
3.9028
2.84586
1.62515
0.357116
-0.849879
-1.90274
-2.72913
-3.28082
-3.53482
-3.49239
-3.17608
-2.62541
-1.89145
-1.03101
-0.100667
0.848727
1.77677
2.65715
3.47978
4.25131
4.99366
5.74045
6.53138
7.40465
8.38797
9.489
10.6863
11.9222
13.0995
14.0824
14.7043
14.7817
14.1345
12.6102
10.1113
6.61976
2.21707
-2.90531
-8.44723
-14.0147
-19.1482
-23.3618
-26.1907
-27.2397
-26.2294
-23.0323
-17.6944
-10.4402
-1.65861
8.12744
18.3048
28.2219
37.2441
44.805
50.4514
53.8764
54.9399
53.6734
50.2715
45.0703
38.5143
31.1167
23.4156
15.9295
9.11799
3.34826
-1.12782
-4.18552
-5.82718
-6.17109
-5.43087
-3.88785
-1.85922
0.335868
2.41014
4.14174
5.40763
6.21785
6.75096
7.38882
8.74569
11.6829
17.2965
26.8658
41.7496
63.2279
92.2934
129.414
174.298
225.709
281.368
337.994
391.494
437.307
470.869
488.145
486.156
463.424
420.265
358.873
283.182
198.511
111.028
27.1135
-47.3068
-107.374
-149.772
-173.013
-177.513
-165.434
-140.35
-106.766
-69.5593
-33.4212
-2.36367
20.6607
33.982
37.2689
31.4231
18.3394
0.572313
-19.0426
-37.7624
-53.2604
-63.867
-68.7043
-67.7102
-61.5598
-51.5039
-39.1523
-26.2353
-14.374
-4.88733
1.34412
3.946
3.04857
-0.77753
-6.63388
-13.4364
-20.0666
-25.5111
-28.9748
-29.9538
-28.2641
-24.0261
-17.6114
-9.56106
-0.489599
9.01377
18.4725
27.5889
36.2808
44.6856
53.1308
62.0768
72.0384
83.4968
96.8148
112.165
129.482
148.45
168.514
188.933
208.847
227.371
243.679
257.092
267.137
273.587
276.466
276.026
272.692
266.998
259.502
250.71
241.016
230.66
219.714
208.101
195.639
182.1
167.284
151.081
133.525
114.819
95.338
75.6021
56.2243
37.8453
21.0614
6.35834
-5.9417
-15.7112
-23.0237
-28.1359
-31.4483
-33.4516
-34.6656
-35.5798
-36.6015
-38.0184
-39.978
-42.4852
-45.4156
-48.5431
-51.5754
-54.1943
-56.0952
-57.021
-56.7894
-55.3098
-52.589
-48.7272
-43.9043
-38.3596
-32.3658
-26.2024
-20.1286
-14.3611
-9.05622
-4.30008
-0.106436
3.57752
6.85817
9.87694
12.7883
15.7372
18.8377
22.1564
25.7014
29.4191
33.1981
36.8808
40.2803
43.2019
45.4648
46.9234
47.4834
47.1133
45.8479
43.7836
41.0677
37.881
34.4166
30.8584
27.361
24.0343
20.9344
18.063
15.3745
12.7905
10.2184
7.57322
4.79705
1.87496
-1.15617
-4.20701
-7.14354
-9.80237
-12.0112
-13.6118
-14.4814
-14.5508
-13.8152
-12.3369
-10.2405
-7.69997
-4.921
-2.12052
0.493853
2.74156
4.48237
5.62377
6.12258
5.9812
5.2399
3.96687
2.24759
0.17512
-2.15789
-4.66488
-7.26878
-9.90337
-12.5129
-15.0502
-17.4736
-19.742
-21.8104
-23.6239
-25.1143
-26.1984
-26.7809
-26.763
-26.0546
-24.5911
-22.3508
-19.3704
-15.755
-11.6799
-7.38271
-3.14609
0.728393
3.95125
6.27747
7.5359
7.65137
6.65652
4.69145
1.99103
-1.13861
-4.3516
-7.29821
-9.66074
-11.1856
-11.7078
-11.1663
-9.60753
-7.17826
-4.10841
-0.685659
2.77524
5.9654
8.61373
10.5144
11.5473
11.6885
11.0105
9.67067
7.8905
5.92707
4.04056
2.46194
1.36492
0.845602
0.912736
1.48945
2.4263
3.52375
4.56107
5.32783
5.65402
5.43499
4.64791
3.35799
1.71351
-0.0694348
-1.73075
-2.99562
-3.60597
-3.35067
-2.09128
0.219174
3.52631
7.67431
12.4159
17.4315
22.3562
26.8116
30.44
32.9366
34.0781
33.7429
31.9214
28.7167
24.3334
19.0575
13.2298
7.21424
1.36663
-3.99475
-8.61261
-12.3067
-14.9812
-16.6229
-17.2916
-17.1045
-16.2147
-14.7893
-12.9846
-10.9228
-8.66584
-6.18948
-3.35266
0.134264
4.7405
11.137
20.1987
32.9731
50.6014
74.1847
104.596
142.256
186.899
237.38
291.56
346.328
397.765
441.47
473.012
488.456
484.884
460.845
416.65
354.465
278.18
193.054
105.192
20.9079
-53.9389
-114.55
-157.662
-181.831
-187.502
-176.856
-153.469
-121.83
-86.7839
-52.9743
-24.3471
-3.77495
7.1627
8.23003
0.422568
-14.2799
-33.2539
-53.6167
-72.6037
-87.8938
-97.8482
-101.642
-99.2831
-91.5282
-79.7142
-65.537
-50.8071
-37.2157
-26.1376
-18.4918
-14.6706
-14.5395
-17.501
-22.6085
-28.7117
-34.6129
-39.2147
-41.6402
-41.3153
-38.004
-31.7992
-23.0709
-12.3865
-0.412675
12.1836
24.8227
37.0788
48.7174
59.7041
70.1852
80.4467
90.8589
101.814
113.663
126.667
140.952
156.487
173.082
190.396
207.967
225.253
241.681
256.69
269.781
280.548
288.706
294.097
296.683
296.528
293.772
288.596
281.195
271.753
260.428
247.35
232.632
216.385
198.738
179.862
159.985
139.405
118.483
97.6399
77.3307
58.0181
40.14
24.0764
10.1204
-1.54374
-10.8528
-17.8649
-22.7486
-25.7615
-27.2225
-27.4792
-26.8751
-25.7216
-24.2752
-22.7239
-21.1831
-19.6997
-18.2642
-16.8272
-15.3192
-13.6682
-11.8158
-9.72757
-7.39833
-4.85144
-2.13364
0.693367
3.56245
6.41002
9.18255
11.8397
14.3539
16.7058
18.8784
20.8494
22.585
24.0356
25.1362
25.8103
25.9782
25.5691
24.5335
22.8562
20.5659
17.7397
14.503
11.021
7.48665
4.10254
1.06149
-1.47279
-3.38222
-4.60582
-5.14463
-5.05947
-4.46189
-3.49952
-2.33787
-1.14098
-0.0534055
0.814116
1.39385
1.66412
1.64629
1.39661
0.994451
0.528693
0.0844778
-0.268108
-0.481993
-0.537029
-0.439732
-0.219355
0.0787783
0.401478
0.69611
0.918064
1.0363
1.03636
0.920657
0.706225
0.42041
0.0953942
-0.237612
-0.553548
-0.837291
-1.08552
-1.30643
-1.5174
-1.74098
-1.99996
-2.31208
-2.68544
-3.11511
-3.58166
-4.05175
-4.48075
-4.8172
-5.00843
-5.00678
-4.77558
-4.2943
-3.56213
-2.5997
-1.44853
-0.168511
1.16655
2.47471
3.67253
4.68173
5.43556
5.88402
5.9977
5.76983
5.21643
4.37452
3.29867
2.05622
0.721603
-0.62969
-1.92699
-3.10968
-4.13144
-4.96298
-5.59331
-6.02925
-6.29334
-6.42039
-6.45306
-6.43691
-6.41549
-6.42598
-6.49582
-6.64064
-6.86359
-7.15619
-7.50042
-7.87187
-8.24354
-8.58989
-8.89064
-9.13404
-9.31906
-9.45644
-9.56818
-9.68531
-9.84372
-10.0782
-10.4151
-10.8637
-11.4087
-12.0038
-12.5685
-12.9899
-13.1286
-12.8308
-11.9449
-10.3405
-7.92938
-4.6842
-0.652725
4.03472
9.16681
14.4624
19.5907
24.1993
27.9462
30.5324
31.7324
31.4164
29.5641
26.267
21.7192
16.1985
10.0405
3.60742
-2.74237
-8.68321
-13.9448
-18.3273
-21.7085
-24.0422
-25.3489
-25.7013
-25.2045
-23.9723
-22.1019
-19.6454
-16.5804
-12.7798
-7.98582
-1.79015
6.3705
17.1972
31.481
50.0183
73.4878
102.296
136.405
175.173
217.238
260.478
302.086
338.759
367.009
383.551
385.726
371.89
341.718
296.351
238.373
171.612
100.768
30.9406
-32.9021
-86.438
-126.424
-151
-159.82
-154.021
-136.014
-109.151
-77.3128
-44.4518
-14.176
10.6054
27.9226
36.86
37.5388
30.9827
18.8932
3.36849
-13.3927
-29.3677
-42.9336
-53.0165
-59.1554
-61.4817
-60.6238
-57.5574
-53.4241
-49.3463
-46.2605
-44.7907
-45.1753
-47.2516
-50.4981
-54.1226
-57.1845
-58.7299
-57.9236
-54.1601
-47.1404
-36.9056
-23.8276
-8.55673
8.06246
25.0975
41.6419
56.9227
70.3887
81.7699
91.1007
98.7047
105.145
111.146
117.495
124.94
134.092
145.346
158.83
174.383
191.569
209.729
228.044
245.626
261.609
275.23
285.899
293.24
297.103
297.553
294.825
289.267
281.275
271.23
259.447
246.151
231.468
215.449
198.105
179.463
159.607
138.723
117.124
95.2411
73.6109
52.8255
33.48
16.1108
1.13951
-11.1702
-20.7378
-27.6696
-32.2396
-34.8536
-35.9991
-36.1901
-35.9121
-35.5752
-35.4803
-35.8008
-36.581
-37.7502
-39.1491
-40.5634
-41.7611
-42.5272
-42.692
-42.1508
-40.8727
-38.8992
-36.3336
-33.3239
-30.042
-26.6627
-23.3445
-20.2147
-17.3604
-14.8247
-12.6094
-10.681
-8.98176
-7.44039
-5.98486
-4.5532
-3.10261
-1.61567
-0.103252
1.39603
2.81966
4.08798
5.11301
5.80856
6.10055
5.93644
5.2929
4.1808
2.64711
0.773243
-1.32968
-3.52856
-5.67802
-7.63132
-9.25132
-10.4205
-11.0491
-11.0808
-10.495
-9.30744
-7.56741
-5.35428
-2.77292
0.0511442
2.97665
5.85173
8.51956
10.825
12.6223
13.784
14.21
13.8377
12.6493
10.6778
8.009
4.77931
1.16823
-2.61317
-6.33771
-9.77961
-12.7325
-15.026
-16.5388
-17.2073
-17.0284
-16.0572
-14.3979
-12.1921
-9.60334
-6.80081
-3.94507
-1.17606
1.3945
3.68614
5.64835
7.25583
8.50166
9.38992
9.92917
10.1278
9.99223
9.52701
8.73799
7.63647
6.24407
4.59726
2.75061
0.777993
-1.22868
-3.16342
-4.9126
-6.36329
-7.41269
-7.97777
-8.00391
-7.47192
-6.40234
-4.85677
-2.9357
-0.77283
1.47372
3.63291
5.53389
7.01991
7.96145
8.26775
7.89541
6.85329
5.20317
3.05589
0.563069
-2.09495
-4.72409
-7.13311
-9.15018
-10.6378
-11.5046
-11.7127
-11.2795
-10.275
-8.81248
-7.03695
-5.10953
-3.19165
-1.42971
0.0580622
1.19157
1.93513
2.30017
2.34474
2.17021
1.9156
1.74956
1.85992
2.44047
3.6752
5.72017
8.6842
12.6101
17.4586
23.0982
29.3025
35.7579
42.0814
47.8492
52.633
56.0406
57.7567
57.5791
55.4441
51.4399
45.8025
38.8979
31.1881
23.1886
15.4195
8.35778
2.39486
-2.1941
-5.26753
-6.8189
-6.9631
-5.90978
-3.92704
-1.29934
1.7163
4.93279
8.27149
11.7953
15.7347
20.5038
26.7017
35.094
46.5645
62.032
82.3286
108.044
139.346
175.811
216.282
258.804
300.662
338.538
368.794
387.856
392.655
381.06
352.244
306.913
247.359
177.316
101.618
25.7187
-44.8866
-105.251
-151.501
-181.232
-193.727
-189.966
-172.444
-144.816
-111.431
-76.8052
-45.1105
-19.7413
-2.99831
4.07326
1.68539
-8.83927
-25.3328
-45.1241
-65.4104
-83.6088
-97.649
-106.174
-108.636
-105.282
-97.0424
-85.3497
-71.9082
-58.456
-46.5447
-37.3644
-31.6304
-29.5402
-30.7986
-34.7008
-40.2568
-46.3386
-51.828
-55.7484
-57.3649
-56.2461
-52.2824
-45.6652
-36.8327
-26.3932
-15.0372
-3.44911
7.77058
18.1657
27.4625
35.5845
42.6436
48.9131
54.7849
60.7184
67.1858
74.6214
83.3774
93.6928
105.674
119.29
134.376
150.653
167.747
185.215
202.573
219.318
234.954
249.01
261.05
270.688
277.593
281.493
282.183
279.532
273.49
264.101
251.515
235.994
217.92
197.788
176.2
153.833
131.411
109.662
89.2676
70.8132
54.7474
41.346
30.6929
22.6797
17.0227
13.2987
10.994
9.56205
8.48274
7.31674
5.74801
3.61019
0.893942
-2.26496
-5.61465
-8.82903
-11.5571
-13.473
-14.3214
-13.9526
-12.3431
-9.60073
-5.9537
-1.72552
2.70078
6.92431
10.569
13.3222
14.9652
15.3918
14.6142
12.7558
10.0317
6.72134
3.13495
-0.420109
-3.67065
-6.40259
-8.47734
-9.83849
-10.5089
-10.5792
-10.19
-9.51037
-8.71517
-7.96426
-7.3857
-7.06429
-7.03636
-7.2906
-7.77427
-8.40349
-9.07593
-9.68439
-10.1295
-10.3306
-10.2329
-9.81252
-9.07688
-8.06247
-6.82992
-5.457
-4.03052
-2.63766
-1.35788
-0.255913
0.623426
1.25805
1.64895
1.81793
1.80327
1.65371
1.42166
1.15656
0.899242
0.678006
0.506988
0.386826
0.307453
0.252436
0.204068
0.148302
0.0786986
-0.00129461
-0.0780735
-0.129635
-0.129005
-0.0486907
0.134659
0.436226
0.86033
1.3995
2.03536
2.74096
3.48406
4.23052
4.94712
5.60337
6.17202
6.62855
6.94995
7.11353
7.09645
6.87643
6.43416
5.75706
4.84404
3.71041
2.39176
0.945903
-0.547912
-1.99301
-3.28227
-4.30761
-4.97078
-5.19436
-4.9315
-4.17317
-2.95202
-1.34217
0.545088
2.56948
4.57304
6.39339
7.87787
8.89705
9.35638
9.20477
8.43927
7.10529
5.29227
3.12525
0.75309
-1.66542
-3.97628
-6.04413
-7.7641
-9.07011
-9.93897
-10.3898
-10.4788
-10.2903
-9.92477
-9.48577
-9.06679
-8.74011
-8.54867
-8.50184
-8.57557
-8.7166
-8.84994
-8.88845
-8.74288
-8.33087
-7.58372
-6.45036
-4.89873
-2.91568
-0.507094
2.29989
5.45112
8.85604
12.376
15.813
18.9034
21.3208
22.6908
22.6207
20.7413
16.7579
10.5033
1.98524
-8.58095
-20.7612
-33.9173
-47.2491
-59.8602
-70.8405
-79.3565
-84.737
-86.5437
-84.6175
-79.0935
-70.3826
-59.1212
-46.0939
-32.1355
-18.0241
-4.37254
8.46845
20.4868
32.0527
43.9189
57.169
73.1055
93.0809
118.277
149.457
186.718
229.292
275.433
322.427
366.759
404.418
431.328
443.848
439.27
416.239
375.039
317.675
247.751
170.139
90.4859
14.6194
-52.0687
-105.183
-141.759
-160.522
-161.945
-148.105
-122.368
-88.9559
-52.4399
-17.2397
12.8225
34.8641
47.1508
49.16
41.5064
25.7523
4.13391
-20.7534
-46.274
-70.0365
-90.1171
-105.202
-114.646
-118.444
-117.137
-111.671
-103.222
-93.0297
-82.2392
-71.7868
-62.3239
-54.1912
-47.4362
-41.8653
-37.12
-32.7629
-28.3609
-23.5543
-18.1043
-11.9148
-5.02754
2.40503
10.1633
18.0113
25.7461
33.2381
40.4547
47.4676
54.4399
61.5997
69.2031
77.4933
86.6634
96.8276
108.006
120.124
133.024
146.489
160.27
174.113
187.78
201.059
213.766
225.732
236.786
246.734
255.336
262.294
267.249
269.793
269.494
265.937
258.77
247.752
232.808
214.059
191.842
166.716
139.433
110.897
82.1071
54.0804
27.7818
4.05027
-16.4602
-33.3238
-46.3647
-55.6551
-61.4911
-64.3492
-64.8273
-63.5796
-61.2492
-58.4086
-55.5132
-52.8718
-50.6364
-48.8123
-47.2828
-45.8469
-44.2629
-42.2924
-39.7381
-36.4729
-32.456
-27.735
-22.4366
-16.7461
-10.8811
-5.06287
0.511341
5.6899
10.381
14.5577
18.2533
21.5491
24.5561
27.3934
30.1672
32.9527
35.7811
38.6344
41.447
44.114
46.5061
48.4854
49.9244
50.721
50.8112
50.1754
48.8403
46.8733
44.3743
41.4632
38.2664
34.9048
31.4833
28.085
24.7681
21.5681
18.5027
15.5787
12.7991
10.1703
7.70659
5.43191
3.37904
1.58594
0.090197
-1.07731
-1.89854
-2.37301
-2.52045
-2.38086
-2.01192
-1.48433
-0.875594
-0.26341
0.280538
0.69556
0.935294
0.969314
0.783257
0.377897
-0.232332
-1.02095
-1.95093
-2.97612
-4.04273
-5.09128
-6.05954
-6.88653
-7.5178
-7.91161
-8.04519
-7.92026
-7.56668
-7.04326
-6.43509
-5.84715
-5.39464
-5.19081
-5.33356
-5.89262
-6.89877
-8.33667
-10.1425
-12.207
-14.3832
-16.4996
-18.3756
-19.8386
-20.7404
-20.9708
-20.4673
-19.2198
-17.2706
-14.7101
-11.669
-8.30926
-4.81369
-1.37609
1.80848
4.55315
6.68876
8.07393
8.60527
8.22732
6.94077
4.80753
1.95107
-1.44896
-5.16837
-8.95556
-12.5529
-15.7197
-18.2551
-20.0167
-20.9338
-21.013
-20.3351
-19.0435
-17.327
-15.3957
-13.4566
-11.6894
-10.2254
-9.13408
-8.41547
-8.00235
-7.7695
-7.54996
-7.15583
-6.40151
-5.12682
-3.21778
-0.623002
2.63585
6.46049
10.6799
15.0613
19.3276
23.1797
26.3216
28.4858
29.4575
29.0933
27.3354
24.2165
19.859
14.4651
8.3019
1.68165
-5.0598
-11.5845
-17.571
-22.7299
-26.8134
-29.622
-31.0074
-30.8748
-29.1854
-25.9595
-21.2808
-15.2982
-8.22236
-0.314138
8.14124
16.8737
25.6811
34.4892
43.408
52.7704
63.138
75.2616
89.9878
108.116
130.214
156.423
186.274
218.562
251.31
281.847
307.008
323.453
328.061
318.359
292.917
251.652
195.983
128.815
54.3259
-22.4118
-95.9335
-160.953
-212.927
-248.536
-266.036
-265.423
-248.4
-218.153
-178.963
-135.71
-93.3265
-56.2656
-28.049
-10.9414
-5.78478
-12.0016
-27.7606
-50.2743
-76.1867
-102
-124.485
-141.036
-149.916
-150.387
-142.712
-128.032
-108.16
-85.2983
-61.7482
-39.6265
-20.6327
-5.88771
4.14278
9.63847
11.3374
10.3893
8.17195
6.0962
5.42471
7.12442
11.7685
19.4956
30.0261
42.7295
56.7304
71.0367
84.6733
96.8055
106.836
114.469
119.73
122.951
124.714
125.769
126.93
128.98
132.564
138.124
145.841
155.627
167.137
179.821
192.99
205.895
217.813
228.113
236.31
242.088
245.303
245.948
244.118
239.949
233.571
225.07
214.472
201.754
186.878
169.842
150.739
129.813
107.489
84.386
61.2934
39.1138
18.7864
1.19242
-12.9393
-23.115
-29.1342
-31.1157
-29.4866
-24.9371
-18.3453
-10.6841
-2.91925
4.08586
9.65024
13.3296
14.9408
14.5556
12.4657
9.12672
5.0878
0.91792
-2.8634
-5.84227
-7.74845
-8.47219
-8.06003
-6.69218
-4.64598
-2.2514
0.15514
2.27294
3.8702
4.80524
5.03426
4.60619
3.64659
2.3337
0.870576
-0.542973
-1.73496
-2.57975
-3.00876
-3.01296
-2.63758
-1.97063
-1.12726
-0.232439
0.595795
1.26041
1.69533
1.87041
1.79137
1.4953
1.0426
0.506926
-0.0354828
-0.515666
-0.879838
-1.09453
-1.14865
-1.05246
-0.834061
-0.53393
-0.198517
0.126227
0.40058
0.595381
0.694575
0.695842
0.609428
0.455519
0.260647
0.05368
-0.138061
-0.292072
-0.392985
-0.433744
-0.41561
-0.347118
-0.242231
-0.118009
0.00786876
0.119392
0.204055
0.254061
0.266798
0.244621
0.194028
0.124399
0.0465143
-0.0289526
-0.0927652
-0.138134
-0.16131
-0.161735
-0.141769
-0.106091
-0.0608553
-0.0127674
0.0318211
0.0676729
0.091206
0.100768
0.0966392
0.0807928
0.056466
0.0276193
-0.00163929
-0.0275879
-0.0473275
-0.0590934
-0.0624583
-0.0584905
-0.0499733
-0.0417999
-0.0416259
-0.0607803
-0.11533
-0.227085
-0.424277
-0.741599
-1.21936
-1.90156
-2.83272
-4.05356
-5.59558
-7.47503
-9.68676
-12.1989
-14.9494
-17.8449
-20.7638
-23.5623
-26.0844
-28.1749
-29.6933
-30.5277
-30.6073
-29.9107
-28.4694
-26.3665
-23.73
-20.7211
-17.5201
-14.3103
-11.2625
-8.5208
-6.19223
-4.34017
-2.98246
-2.09409
-1.61391
-1.45443
-1.51347
-1.68621
-1.87652
-2.00618
-2.02121
-1.89484
-1.62703
-1.24079
-0.776143
-0.282561
0.188962
0.593159
0.896132
1.0787
1.13715
1.08145
0.931317
0.710953
0.443374
0.14545
-0.175395
-0.522058
-0.905934
-1.34255
-1.84538
-2.41888
-3.05208
-3.71393
-4.35141
-4.89058
-5.23994
-5.29419
-4.93502
-4.02519
-2.39212
0.200387
4.0901
9.75654
17.8507
29.1976
44.7551
65.515
92.3452
125.782
165.802
211.612
261.511
312.856
362.186
405.481
438.569
457.606
459.587
442.788
407.093
354.129
287.194
210.968
131.051
53.377
-16.4205
-73.5992
-114.796
-138.34
-144.366
-134.712
-112.631
-82.3502
-48.549
-15.8137
11.8597
31.4606
41.2164
40.6842
30.6808
13.0744
-9.52878
-34.1563
-57.851
-78.0169
-92.6913
-100.718
-101.807
-96.4954
-85.9985
-72.009
-56.4481
-41.2142
-27.956
-17.8949
-11.7142
-9.52268
-10.8903
-14.9457
-20.5177
-26.3016
-31.0252
-33.5967
-33.2174
-29.4483
-22.2276
-11.8406
1.14858
15.993
31.8705
47.9898
63.6804
78.4573
92.0539
104.422
115.701
126.166
136.159
146.019
156.015
166.304
176.895
187.65
198.297
208.469
217.751
225.729
232.047
236.44
238.768
239.017
237.298
233.816
228.842
222.661
215.54
207.679
199.192
190.093
180.293
169.629
157.888
144.855
130.359
114.321
96.7837
77.9416
58.1405
37.8651
17.7063
-1.68563
-19.6556
-35.6006
-49.0219
-59.5662
-67.0522
-71.4797
-73.021
-71.9972
-68.8415
-64.0553
-58.161
-51.6579
-44.9844
-38.4903
-32.4221
-26.9203
-22.0287
-17.7139
-13.8899
-10.4457
-7.27159
-4.2799
-1.41931
1.31971
3.9076
6.28544
8.37951
10.1178
11.4453
12.3367
12.8019
12.8874
12.6694
12.2437
11.7115
11.1645
10.6725
10.2732
9.96894
9.72685
9.48588
9.16689
8.68536
7.96431
6.94571
5.59853
3.92267
1.94824
-0.26919
-2.65641
-5.13197
-7.61546
-10.0353
-12.334
-14.4703
-16.4184
-18.1649
-19.7049
-21.0372
-22.1611
-23.0748
-23.775
-24.2586
-24.5248
-24.5768
-24.4237
-24.0797
-23.5628
-22.8928
-22.0876
-21.1612
-20.1219
-18.9722
-17.7103
-16.3327
-14.8382
-13.2317
-11.5278
-9.75244
-7.94365
-6.14991
-4.42683
-2.83238
-1.42126
-0.239179
0.682247
1.32921
1.70747
1.84178
1.77318
1.55417
1.24277
0.895999
0.563739
0.28394
0.079634
-0.0418278
-0.0873619
-0.074921
-0.0290566
0.0239797
0.0608381
0.0647195
0.0276001
-0.049202
-0.156081
-0.277522
-0.395313
-0.491938
-0.553557
-0.572012
-0.54556
-0.478254
-0.378173
-0.2549
-0.116834
0.031088
0.188736
0.360872
0.555936
0.783765
1.05274
1.36699
1.72431
2.11533
2.52424
2.93098
3.31466
3.65746
3.94838
4.18587
4.37898
4.54654
4.71455
4.91235
5.16823
5.50546
5.9397
6.4782
7.12116
7.86489
8.70589
9.6451
10.6909
11.86
13.1764
14.6666
16.3543
18.2526
20.3576
22.6425
25.0544
27.514
29.9181
32.1447
34.061
35.5314
36.4278
36.6386
36.0777
34.6913
32.4629
29.4158
25.612
21.149
16.1535
10.7738
5.17045
-0.492292
-6.05473
-11.3682
-16.2997
-20.7342
-24.5757
-27.7464
-30.185
-31.8448
-32.6902
-32.6923
-31.82
-30.0252
-27.219
-23.2389
-17.8105
-10.5088
-0.734152
12.2843
29.4426
51.6638
79.746
114.169
154.882
201.114
251.237
302.739
352.317
396.116
430.091
450.453
454.153
439.312
405.557
354.182
288.124
211.725
130.321
49.7066
-24.4674
-87.2785
-135.026
-165.577
-178.525
-175.145
-158.161
-131.364
-99.1275
-65.8948
-35.6875
-11.7047
3.95258
10.4075
7.9794
-1.9803
-17.3582
-35.6125
-54.1239
-70.5202
-82.9383
-90.1962
-91.8655
-88.2428
-80.2356
-69.1834
-56.6434
-44.1704
-33.1193
-24.4918
-18.8444
-16.2615
-16.3913
-18.5348
-21.7691
-25.0872
-27.5337
-28.3186
-26.8978
-23.0129
-16.6893
-8.1986
2.00639
13.3711
25.3218
37.3397
49.0181
60.0966
70.473
80.193
89.4234
98.4147
107.459
116.852
126.854
137.667
149.413
162.127
175.754
190.151
205.098
220.309
235.446
250.134
263.977
276.567
287.5
296.378
302.825
306.49
307.062
304.278
297.949
287.973
274.356
257.234
236.884
213.732
188.345
161.415
133.735
106.152
79.5237
54.6647
32.2924
12.9806
-2.8779
-15.095
-23.6939
-28.8985
-31.1063
-30.8468
-28.7318
-25.3991
-21.4595
-17.4478
-13.7866
-10.7628
-8.52005
-7.06585
-6.29243
-6.00696
-5.96751
-5.92016
-5.6327
-4.92162
-3.67003
-1.83557
0.550876
3.39421
6.54923
9.83733
13.0634
16.0316
18.5579
20.481
21.6696
22.028
21.4998
20.0706
17.7692
14.6671
10.8771
6.5485
1.8609
-2.98533
-7.78037
-12.3179
-16.4084
-19.892
-22.6494
-24.6098
-25.7556
-26.122
-25.7939
-24.8972
-23.5885
-22.0413
-20.4323
-18.9273
-17.6684
-16.7644
-16.2838
-16.2521
-16.6529
-17.4332
-18.5114
-19.7866
-21.1496
-22.4918
-23.7125
-24.7237
-25.452
-25.8379
-25.8342
-25.4042
-24.5201
-23.1634
-21.3261
-19.0141
-16.2504
-13.0788
-9.56633
-5.8039
-1.90475
1.99967
5.76611
9.24785
12.3039
14.8087
16.6605
17.7883
18.1566
17.7672
16.6573
14.8965
12.5795
9.81898
6.73644
3.45419
0.0882021
-3.25713
-6.49186
-9.54109
-12.3436
-14.8489
-17.0142
-18.8006
-20.1717
-21.092
-21.5282
-21.4515
-20.8405
-19.6854
-17.9912
-15.7809
-13.0977
-10.0067
-6.59449
-2.96909
0.742677
4.39876
7.84769
10.9366
13.5217
15.481
16.7285
17.2277
17.0028
16.1452
14.8129
13.2216
11.6273
10.3027
9.50851
9.46471
10.3245
12.1551
14.9279
18.5191
22.722
27.2673
31.8518
36.1694
39.9425
42.9491
45.0432
46.1656
46.3453
45.6907
44.3726
42.6019
40.6045
38.5967
36.7647
35.2482
34.1325
33.4453
33.1596
33.2004
33.453
33.7719
33.9899
33.9266
33.3969
32.2213
30.2368
27.3101
23.3515
18.3285
12.2766
5.30625
-2.39758
-10.5823
-18.9421
-27.1383
-34.8224
-41.6609
-47.3573
-51.6706
-54.4276
-55.5296
-54.9515
-52.7345
-48.9702
-43.7768
-37.2649
-29.493
-20.4156
-9.82853
2.67876
17.7496
36.2509
59.2138
87.7124
122.682
164.69
213.678
268.739
327.95
388.333
445.978
496.32
534.589
556.346
558.066
537.666
494.891
431.505
351.236
259.473
162.749
68.0704
-17.8145
-89.1239
-141.63
-173.06
-183.255
-174.093
-149.176
-113.337
-72.038
-30.7365
5.7083
33.5136
50.2907
55.1767
48.7776
32.9472
10.4404
-15.5055
-41.6054
-64.924
-83.1907
-95.0027
-99.901
-98.3239
-91.4538
-80.9859
-68.8572
-56.9692
-46.9428
-39.9304
-36.505
-36.6322
-39.722
-44.7474
-50.4086
-55.3197
-58.1926
-57.9962
-54.072
-46.1974
-34.59
-19.859
-2.91135
15.1725
33.2773
50.3883
65.7083
78.742
89.3419
97.7089
104.352
110.014
115.569
121.914
129.855
140.014
152.759
168.162
185.996
205.762
226.747
248.093
268.884
288.225
305.311
319.479
330.238
337.276
340.454
339.781
335.389
327.501
316.404
302.431
285.939
267.303
246.904
225.126
202.357
178.983
155.393
131.98
109.138
87.2601
66.732
47.9177
31.1437
16.678
4.70985
-4.66932
-11.4793
-15.8561
-18.0473
-18.3965
-17.3187
-15.2675
-12.6987
-10.0344
-7.62937
-5.74719
-4.54474
-4.06932
-4.26697
-5.00089
-6.07729
-7.27534
-8.37728
-9.19535
-9.59242
-9.49449
-8.89423
-7.84597
-6.4536
-4.85371
-3.19655
-1.62748
-0.271459
0.778043
1.46448
1.76828
1.70207
1.30265
0.621135
-0.286847
-1.36968
-2.586
-3.90835
-5.32428
-6.83523
-8.45375
-10.1991
-12.0914
-14.1453
-16.3616
-18.72
-21.1719
-23.6357
-25.9965
-28.1097
-29.8105
-30.9291
-31.3092
-30.8281
-29.4164
-27.0726
-23.8719
-19.9655
-15.5713
-10.9559
-6.4094
-2.21784
1.3659
4.14684
6.00645
6.91243
6.91864
6.15555
4.81271
3.11538
1.29875
-0.417456
-1.85082
-2.8722
-3.41446
-3.47338
-3.10109
-2.39354
-1.47355
-0.471917
0.491115
1.32182
1.96442
2.40671
2.67935
2.84916
3.00736
3.25458
3.68465
4.36946
5.34681
6.61301
8.1209
9.78378
11.4843
13.0871
14.4538
15.4579
15.998
16.0076
15.4608
14.3736
12.7998
10.8242
8.55312
6.10314
3.59104
1.12464
-1.20401
-3.3227
-5.18045
-6.74673
-8.00883
-8.96842
-9.63781
-10.0365
-10.1885
-10.1202
-9.85878
-9.43122
-8.86332
-8.17864
-7.39734
-6.53488
-5.60071
-4.59717
-3.51866
-2.35124
-1.0725
0.348176
1.94917
3.7759
5.87967
8.31611
11.1429
14.4173
18.1925
22.515
27.4208
32.9326
39.0567
45.7809
53.071
60.8686
69.0868
77.6064
86.2701
94.8786
103.186
110.898
117.681
123.164
126.969
128.728
128.124
124.923
119.014
110.433
99.384
86.2381
71.5184
55.8661
39.9918
24.6182
10.419
-2.03725
-12.3335
-20.2333
-25.691
-28.8412
-29.9688
-29.4632
-27.7599
-25.2735
-22.3281
-19.0868
-15.4876
-11.191
-5.5479
2.39981
13.8774
30.2818
53.0298
83.3514
122.047
169.231
224.109
284.822
348.41
410.93
467.726
513.855
544.608
556.081
545.701
512.638
458.032
384.991
298.357
204.251
109.458
20.7286
-55.9134
-115.779
-155.956
-175.535
-175.613
-159.06
-130.119
-93.8724
-55.66
-20.5215
7.2802
24.6024
29.6104
21.8047
1.90667
-28.3678
-66.6037
-110.01
-155.729
-201.101
-243.868
-282.291
-315.202
-341.983
-362.501
-377.003
-385.998
-390.152
-390.184
-386.793
-380.61
-372.171
-361.909
-350.163
-337.186
-323.158
-308.188
-292.317
-275.505
-257.625
-238.456
-217.681
-194.905
-169.678
-141.545
-110.099
-75.0449
-36.258
6.16306
51.8637
100.223
150.373
201.242
251.627
300.28
346.005
387.754
424.707
456.333
482.413
503.04
518.582
529.611
536.827
540.952
542.646
542.419
540.568
537.147
531.958
524.575
514.403
500.749
482.913
460.292
432.468
399.298
360.972
318.052
271.468
222.482
172.616
123.542
76.9611
34.4664
-2.58982
-33.2071
-56.817
-73.3224
-83.0915
-86.9059
-85.8709
-81.2971
-74.5685
-67.0105
-59.7744
-53.7494
-49.5098
-47.3018
-47.0674
-48.5003
-51.1232
-54.3753
-57.7002
-60.6202
-62.7918
-64.0369
-64.3471
-63.865
-62.846
-61.6078
-60.4758
-59.731
-59.5674
-60.0644
-61.1755
-62.7357
-64.4831
-66.0937
-67.2223
-67.5458
-66.8007
-64.8137
-61.5184
-56.9596
-51.2817
-44.7067
-37.5016
-29.943
-22.2807
-14.7099
-7.35133
-0.246208
6.63641
13.3801
20.0935
26.8797
33.8072
40.8887
48.0698
55.2299
62.1956
68.7635
74.7283
79.9131
84.1954
87.526
89.9378
91.5437
92.5236
93.1038
93.5308
94.0428
94.8423
96.0732
97.8016
100.006
102.572
105.301
107.922
110.115
111.541
111.87
110.818
108.179
103.845
97.8252
90.2489
81.3574
71.4851
61.0298
50.4176
40.0637
30.3364
21.5252
13.8188
7.29409
1.91795
-2.43981
-5.98298
-8.95897
-11.6257
-14.2197
-16.9292
-19.8751
-23.1018
-26.5779
-30.2071
-33.8448
-37.3203
-40.4594
-43.1054
-45.1359
-46.4735
-47.0905
-47.0074
-46.2865
-45.0216
-43.3272
-41.326
-39.1391
-36.8775
-34.6369
-32.4948
-30.5095
-28.7217
-27.1561
-25.824
-24.7254
-23.8508
-23.1825
-22.6947
-22.3538
-22.1183
-21.9385
-21.7568
-21.508
-21.1197
-20.5122
-19.5975
-18.2785
-16.4483
-13.9904
-10.7829
-6.70475
-1.64661
4.47468
11.6994
20.007
29.3004
39.3938
50.0093
60.7822
71.2789
81.0254
89.5446
96.4004
101.241
103.839
104.116
102.162
98.2263
92.7001
86.079
78.916
71.7683
65.1455
59.4637
55.0123
51.9368
50.2401
49.8019
50.4165
51.8443
53.875
56.3971
59.4652
63.3594
68.6236
76.0718
86.7518
101.857
122.582
149.933
184.497
226.215
274.176
326.488
380.264
431.745
476.574
510.211
528.436
527.882
506.527
464.052
402.027
323.864
234.544
140.148
47.2336
-37.838
-109.563
-163.845
-198.373
-212.785
-208.602
-188.953
-158.134
-121.063
-82.7061
-47.5355
-19.0968
0.28311
9.62056
9.23063
0.536391
-14.2322
-32.4027
-51.2368
-68.2732
-81.5971
-90.0117
-93.101
-91.1872
-85.2001
-76.4833
-66.569
-56.953
-48.8977
-43.2855
-40.5365
-40.5936
-42.9707
-46.851
-51.2192
-55.006
-57.2277
-57.1016
-54.1272
-48.1244
-39.2292
-27.8494
-14.5889
-0.153159
14.7532
29.5214
43.7155
57.1215
69.7638
81.8873
93.9085
106.344
119.723
134.505
150.998
169.304
189.294
210.603
232.67
254.794
276.205
296.147
313.952
329.101
341.261
350.292
356.236
359.276
359.684
357.759
353.777
347.941
340.36
331.042
319.912
306.841
291.689
274.355
254.814
233.15
209.583
184.464
158.267
131.563
104.982
79.1689
54.7409
32.2402
12.0971
-5.40099
-20.1306
-32.1442
-41.6712
-49.1096
-55.0071
-60.0313
-64.9292
-70.4762
-77.4159
-86.3952
-97.8995
-112.195
-129.289
-148.904
-170.492
-193.267
-216.265
-238.434
-258.725
-276.189
-290.066
-299.849
-305.321
-306.563
-303.917
-297.935
-289.283
-278.652
-266.648
-253.707
-240.027
-225.535
-209.904
-192.607
-173.005
-150.471
-124.516
-94.902
-61.7336
-25.5053
12.9032
52.2816
91.1896
128.091
161.502
190.141
213.051
229.696
239.996
244.325
243.457
238.463
230.594
221.137
211.281
201.995
193.933
187.374
182.206
177.946
173.808
168.794
161.816
151.826
137.941
119.559
96.4408
68.7545
37.0843
2.38922
-34.0728
-70.8538
-106.442
-139.397
-168.471
-192.715
-211.547
-224.787
-232.649
-235.693
-234.747
-230.808
-224.927
-218.103
-211.182
-204.784
-199.257
-194.66
-190.784
-187.189
-183.265
-178.315
-171.621
-162.527
-150.498
-135.176
-116.416
-94.306
-69.1705
-41.5586
-12.2143
17.9681
48.0013
76.8724
103.615
127.381
147.505
163.555
175.361
183.029
186.919
187.606
185.819
182.364
178.034
173.528
169.37
165.852
163.007
160.605
158.191
155.153
150.812
144.524
135.784
124.315
110.127
93.5412
75.1754
55.8867
36.6851
18.6257
2.69348
-10.3027
-19.815
-25.6094
-27.7815
-26.7333
-23.1172
-17.7541
-11.5376
-5.3361
0.0946361
4.18002
6.56831
7.14347
6.00979
3.45269
-0.117476
-4.23011
-8.41906
-12.2794
-15.5102
-17.939
-19.528
-20.3602
-20.6116
-20.5116
-20.2965
-20.163
-20.2225
-20.4625
-20.7147
-20.6306
-19.668
-17.0866
-11.9602
-3.20915
10.3385
29.8506
56.3539
90.5603
132.668
182.164
237.653
296.775
356.218
411.887
459.207
493.561
510.799
507.772
482.786
435.934
369.217
286.452
192.938
94.95
-0.906944
-88.3793
-162.205
-218.627
-255.717
-273.474
-273.698
-259.646
-235.547
-206.025
-175.525
-147.798
-125.528
-110.122
-101.693
-99.207
-100.782
-104.062
-106.622
-106.351
-101.745
-92.096
-77.5465
-59.0229
-38.0622
-16.5665
3.47523
20.2589
32.394
39.0632
40.0957
35.9543
27.642
16.5479
4.25775
-7.646
-17.7669
-25.0394
-28.82
-28.9195
-25.5746
-19.3697
-11.1215
-1.74378
7.88773
17.0541
25.2809
32.3858
38.4828
43.9452
49.3346
55.3088
62.5204
71.5215
82.6856
96.1575
111.834
129.376
148.252
167.799
187.295
206.029
223.373
238.824
252.029
262.789
271.038
276.808
280.175
281.221
279.986
276.45
270.529
262.088
250.983
237.103
220.426
201.062
179.293
155.583
130.577
105.069
79.9497
56.1405
34.5179
15.8365
0.66305
-10.6743
-18.1127
-21.8553
-22.3456
-20.2184
-16.2331
-11.1976
-5.89073
-0.992884
2.96892
5.65572
6.92863
6.83863
5.59669
3.52953
1.02697
-1.51196
-3.7282
-5.34145
-6.17552
-6.1684
-5.36766
-3.91333
-2.01172
0.0958664
2.16507
3.9774
5.363
6.21529
6.49667
6.23554
5.51607
4.46257
3.221
1.94004
0.754009
-0.230587
-0.943732
-1.3553
-1.47343
-1.33861
-1.0147
-0.57834
-0.108099
0.325187
0.665967
0.878716
0.949649
0.885554
0.710238
0.459304
0.174098
-0.104345
-0.340628
-0.50906
-0.59614
-0.601339
-0.536272
-0.422452
-0.287983
-0.163583
-0.0783942
-0.0560479
-0.111439
-0.248633
-0.460244
-0.728511
-1.02806
-1.33011
-1.60754
-1.84006
-2.01852
-2.14749
-2.24548
-2.34248
-2.47515
-2.68034
-2.98804
-3.41508
-3.96091
-4.60633
-5.31588
-6.04344
-6.74059
-7.36616
-7.89552
-8.3278
-8.68962
-9.03444
-9.43713
-9.98444
-10.7626
-11.8436
-13.2731
-15.0606
-17.1743
-19.5423
-22.058
-24.591
-27.0009
-29.1522
-30.928
-32.2413
-33.0411
-33.3143
-33.0823
-32.3932
-31.3122
-29.9097
-28.2523
-26.3945
-24.3761
-22.2216
-19.9454
-17.558
-15.0739
-12.5185
-9.93345
-7.3776
-4.92513
-2.6595
-0.664875
0.984106
2.23244
3.05341
3.45422
3.47791
3.20083
2.72609
2.1734
1.66669
1.32076
1.22872
1.45172
2.01226
2.89188
4.03345
5.3478
6.72382
8.04089
9.18218
10.0473
10.5632
10.6912
10.4307
9.81805
8.92106
7.82999
6.64612
5.46916
4.38521
3.45657
2.71494
2.15863
1.75464
1.4451
1.15774
0.818811
0.367094
-0.23302
-0.981035
-1.83384
-2.70397
-3.46241
-3.94473
-3.95763
-3.2823
-1.67017
1.17141
5.60344
12.0845
21.195
33.6439
50.2426
71.8372
99.1913
132.828
172.843
218.719
269.177
322.094
374.538
422.916
463.267
491.647
504.585
499.547
475.324
432.31
372.581
299.794
218.871
135.521
55.6614
-15.2062
-72.565
-113.339
-136.175
-141.516
-131.47
-109.495
-79.9395
-47.5143
-16.7494
8.4892
25.373
32.3361
29.137
16.7596
-2.81915
-26.9596
-52.7378
-77.3235
-98.3123
-113.975
-123.403
-126.535
-124.087
-117.379
-108.111
-98.11
-89.0744
-82.3621
-78.8334
-78.7684
-81.8631
-87.2999
-93.8771
-100.179
-104.763
-106.34
-103.925
-96.9466
-85.2958
-69.3253
-49.7891
-27.7419
-4.40889
18.9562
41.2081
61.4255
78.9957
93.6576
105.505
114.949
122.648
129.416
136.117
143.565
152.422
163.136
175.887
190.578
206.85
224.123
241.665
258.667
274.326
287.917
298.86
306.755
311.401
312.788
311.067
306.504
299.432
290.195
279.11
266.438
252.373
237.049
220.557
202.98
184.417
165.019
145.005
124.674
104.403
84.6265
65.8124
48.4254
32.8895
19.5515
8.64988
0.294028
-5.54557
-9.03373
-10.4547
-10.1856
-8.6625
-6.3426
-3.66612
-1.02269
1.27543
3.01056
4.06634
4.42403
4.14962
3.37387
2.26817
1.019
-0.195877
-1.22731
-1.96876
-2.36376
-2.40677
-2.13816
-1.63487
-0.998064
-0.339207
0.234064
0.631339
0.790821
0.68741
0.336194
-0.20966
-0.866879
-1.53523
-2.11402
-2.51939
-2.69928
-2.64341
-2.3863
-2.00263
-1.59574
-1.28117
-1.16802
-1.34128
-1.84806
-2.68974
-3.82116
-5.15673
-6.58228
-7.97046
-9.19739
-10.158
-10.7782
-11.0225
-10.8958
-10.4418
-9.73561
-8.87439
-7.96674
-7.12138
-6.43723
-5.99507
-5.85158
-6.03569
-6.54746
-7.35894
-8.417
-9.64751
-10.9608
-12.2577
-13.4363
-14.3988
-15.0582
-15.3443
-15.2085
-14.627
-13.6018
-12.1593
-10.3465
-8.22585
-5.87014
-3.35724
-0.76696
1.82035
4.32353
6.65951
8.7423
10.4832
11.7932
12.587
12.7896
12.344
11.2183
9.413
6.96507
3.95019
0.481091
-3.29703
-7.21412
-11.0852
-14.7214
-17.9422
-20.5865
-22.5234
-23.6599
-23.9478
-23.3857
-22.0189
-19.9356
-17.259
-14.1369
-10.729
-7.19277
-3.66941
-0.271479
2.92633
5.89222
8.63724
11.2099
13.6863
16.1566
18.7104
21.422
24.339
27.4752
30.809
34.2871
37.8339
41.3625
44.7863
48.0292
51.0304
53.745
56.1394
58.1839
59.8432
61.0694
61.7977
61.9478
61.4297
60.1554
58.0525
55.0799
51.2402
46.5895
41.2399
35.3568
29.1479
22.8479
16.6986
10.9271
5.72587
1.2344
-2.47251
-5.39052
-7.58293
-9.16881
-10.301
-11.1335
-11.7794
-12.2586
-12.4421
-11.9956
-10.3347
-6.60315
0.312246
11.7152
28.9753
53.3428
85.7169
126.39
174.806
229.387
287.457
345.327
398.53
442.217
471.673
482.884
473.076
441.156
387.975
316.358
230.909
137.586
43.1015
-45.7664
-122.875
-183.343
-224.012
-243.716
-243.303
-225.439
-194.211
-154.604
-111.903
-71.1066
-36.4143
-10.8498
3.95451
7.79436
1.76304
-12.0159
-30.7497
-51.3788
-70.9708
-87.0584
-97.8866
-102.55
-101.012
-94.0194
-82.9237
-69.4538
-55.4578
-42.6575
-32.4401
-25.7118
-22.8231
-23.5713
-27.2703
-32.8757
-39.1427
-44.7956
-48.6874
-49.9291
-47.9778
-42.6746
-34.2331
-23.1824
-10.277
3.61466
17.6281
31.012
43.2169
53.9553
63.2252
71.2991
78.6785
86.0217
94.0531
103.465
114.824
128.492
144.566
162.86
182.907
204
225.26
245.719
264.417
280.489
293.245
302.222
307.211
308.249
305.586
299.629
290.868
279.811
266.908
252.516
236.864
220.062
202.129
183.03
162.743
141.307
118.873
95.7355
72.3341
49.2391
27.1087
6.62953
-11.5512
-26.8947
-39.0285
-47.7881
-53.2338
-55.6427
-55.4764
-53.3289
-49.862
-45.7363
-41.5468
-37.7686
-34.72
-32.5446
-31.2134
-30.5454
-30.2431
-29.9389
-29.2461
-27.8091
-25.3476
-21.6897
-16.7914
-10.7404
-3.74536
3.88829
11.7912
19.5683
26.8369
33.2614
38.5793
42.6183
45.302
46.6446
46.7357
45.7176
43.7557
41.0063
37.5824
33.5232
28.7692
23.1494
16.3817
8.09287
-2.14454
-14.7577
-30.1077
-48.4201
-69.7208
-93.789
-120.134
-148.003
-176.424
-204.272
-230.365
-253.567
-272.89
-287.581
-297.187
-301.58
-300.957
-295.787
-286.748
-274.631
-260.237
-244.283
-227.318
-209.667
-191.411
-172.397
-152.292
-130.652
-107.023
-81.0432
-52.5325
-21.5711
11.4612
45.8824
80.7465
114.92
147.186
176.367
201.442
221.659
236.611
246.271
250.992
251.45
248.553
243.323
236.76
229.713
222.77
216.189
209.865
203.355
195.943
186.755
174.883
159.536
140.163
116.563
88.9417
57.9291
24.5361
-9.9301
-43.9893
-76.1318
-104.966
-129.351
-148.502
-162.048
-170.053
-172.982
-171.626
-167.001
-160.23
-152.415
-144.529
-137.326
-131.289
-126.606
-123.186
-120.705
-118.673
-116.52
-113.674
-109.646
-104.087
-96.8302
-87.9068
-77.5389
-66.109
-54.1135
-42.1068
-30.6413
-20.2117
-11.2093
-3.8895
1.64332
5.43403
7.65962
8.59935
8.59656
8.01679
7.20725
6.46167
5.99417
5.92425
6.27374
6.97511
7.88932
8.83058
9.5945
9.98619
9.84497
9.06297
7.59569
5.46397
2.74775
-0.425938
-3.89775
-7.48886
-11.007
-14.2414
-16.9431
-18.7909
-19.3473
-18.0121
-13.9888
-6.2804
6.26947
24.8747
50.6418
84.3495
126.199
175.574
230.859
289.365
347.411
400.561
444.028
473.185
484.14
474.269
442.66
390.359
320.417
237.684
148.388
59.5397
-21.765
-89.0727
-137.232
-162.913
-164.932
-144.332
-104.226
-49.4258
14.1128
79.9371
141.778
194.177
232.997
255.763
261.798
252.158
229.385
197.106
159.544
121.003
85.3754
55.7382
34.0736
21.1338
16.4564
18.517
24.9915
33.0889
39.9151
42.822
39.7079
29.236
10.9555
-14.6837
-46.4171
-82.3356
-120.117
-157.288
-191.484
-220.688
-243.403
-258.767
-266.588
-267.298
-261.851
-251.564
-237.939
-222.473
-206.484
-190.971
-176.521
-163.258
-150.855
-138.588
-125.437
-110.215
-91.7195
-68.8909
-40.9561
-7.55098
31.1973
74.6368
121.612
170.537
219.524
266.538
309.575
346.84
376.903
398.81
412.15
417.056
414.155
404.458
389.227
369.816
347.518
347.518
347.518
347.518
347.518
347.518
347.518
347.518
347.518
347.518
347.518
347.518
347.518
347.518
347.518
347.518
347.518
347.518
347.518
347.518
