-127.424
-78.361
-26.6032
25.5582
75.6026
121.022
159.574
189.521
209.805
220.157
221.117
213.956
200.525
183.04
163.837
145.123
128.749
116.043
107.703
103.772
103.689
106.411
110.572
114.69
117.351
117.394
114.04
106.972
96.3498
82.7714
67.1761
50.718
34.6193
20.025
7.87754
-1.17549
-6.83177
-9.1394
-8.46096
-5.40497
-0.737571
4.71167
10.1369
14.8263
18.2094
19.8815
19.6076
17.3119
13.0606
7.04315
-0.442455
-8.99911
-18.1374
-27.2833
-35.7932
-42.9805
-48.1578
-50.6939
-50.0809
-46.0055
-38.4116
-27.5456
-13.9721
1.44572
17.6036
33.2472
47.0881
57.93
64.7905
67.0042
64.2921
56.7931
45.0514
29.9655
12.7037
-5.40167
-22.9713
-38.6938
-51.4294
-60.295
-64.7233
-64.4962
-59.749
-50.9507
-38.8603
-24.4646
-8.9018
6.62592
20.9438
32.9951
41.9237
47.141
48.3716
45.6715
39.4152
30.2544
19.0484
6.77528
-5.56795
-17.0668
-26.9803
-34.8125
-40.3561
-43.7027
-45.22
-45.4966
-45.2619
-45.2919
-46.3096
-48.8947
-53.4115
-59.9631
-68.378
-78.2292
-88.8831
-99.5724
-109.484
-117.853
-124.049
-127.646
-128.471
-126.617
-122.426
-116.436
-109.297
-101.667
-94.0956
-86.9119
-80.1353
-73.4231
-66.0691
-57.0627
-45.2056
-29.2761
-8.22498
18.6254
51.4034
89.561
131.82
176.204
220.165
260.791
295.079
320.238
334
334.88
322.377
297.064
260.568
215.444
164.931
112.649
62.2503
17.0662
-20.1957
-47.6872
-64.5535
-70.9593
-68.0068
-57.5624
-42.0159
-24.0049
-6.13437
9.27566
20.3925
26.0056
25.5863
19.2743
7.79954
-7.64744
-25.5762
-44.371
-62.459
-78.4574
-91.2855
-100.236
-105.005
-105.672
-102.659
-96.6486
-88.4954
-79.1292
-69.4622
-60.3096
-52.3274
-45.9725
-41.4851
-38.8931
-38.0357
-38.6027
-40.1836
-42.3216
-44.5659
-46.5167
-47.8596
-48.3848
-47.9917
-46.6804
-44.5312
-41.6787
-38.2828
-34.5023
-30.4746
-26.3021
-22.0487
-17.7425
-13.3861
-8.96848
-4.47869
0.0838538
4.70278
9.34354
13.9574
18.4891
22.8877
27.1162
31.1606
35.034
38.7763
42.4473
46.1138
49.8306
53.6194
57.446
61.203
64.7004
67.669
69.7783
70.6693
69.9984
67.4889
62.9811
56.4751
48.1586
38.4127
27.7938
16.9877
6.74198
-2.22026
-9.29238
-14.071
-16.4233
-16.5231
-14.8465
-12.1258
-9.26296
-7.21268
-6.85033
-8.84147
-13.5323
-20.8781
-30.422
-41.3301
-52.4805
-62.5967
-70.4078
-74.8143
-75.0372
-70.7292
-62.0325
-49.5762
-34.4109
-17.8913
-1.5215
13.2186
25.0414
32.9959
36.5688
35.7327
30.9353
23.0324
13.1743
2.66017
-7.22114
-15.3432
-20.8684
-23.3322
-22.6765
-19.2288
-13.6315
-6.73356
0.538727
7.31445
12.894
16.8338
18.9891
19.5111
18.8003
17.4246
16.0149
15.1539
15.2746
16.5846
19.0255
22.2769
25.8011
28.9255
30.9484
31.2546
29.4225
25.3089
19.0951
11.2889
2.67769
-5.76144
-12.9846
-18.0203
-20.1067
-18.8057
-14.0786
-6.31057
3.72132
14.9327
26.059
35.8081
43.0182
46.7995
46.6405
42.4657
34.6367
23.8984
11.2778
-2.04894
-14.9023
-26.2384
-35.2612
-41.4941
-44.804
-45.3761
-43.6478
-40.2148
-35.7256
-30.7816
-25.8573
-21.2519
-17.0756
-13.2715
-9.66409
-6.02639
-2.15147
2.08284
6.66739
11.4402
16.0937
20.2081
23.3076
24.9287
24.692
22.3672
17.9225
11.551
3.67128
-5.09921
-13.9956
-22.1763
-28.8058
-33.1406
-34.6075
-32.8672
-27.8534
-19.7845
-9.14546
3.35749
16.8636
30.438
43.156
54.1828
62.8388
68.6466
71.3552
70.9412
67.5901
61.6615
53.6433
44.1009
33.6268
22.7948
12.1227
2.04473
-7.10437
-15.0949
-21.7982
-27.1756
-31.2624
-34.1495
-35.9654
-36.862
-37.0048
-36.5698
-35.7446
-34.7323
-33.7509
-33.0235
-32.7544
-33.0901
-34.0673
-35.5566
-37.2142
-38.4526
-38.4453
-36.1718
-30.5058
-20.3406
-4.73827
16.9176
44.7878
78.4837
117.032
158.904
202.117
244.384
283.307
316.584
342.203
358.603
364.788
360.378
345.603
321.247
288.552
249.097
204.677
157.18
108.483
60.3623
14.4333
-27.8933
-65.4371
-97.2607
-122.674
-141.235
-152.756
-157.303
-155.203
-147.05
-133.701
-116.27
-96.1001
-74.7184
-53.7693
-34.9199
-19.7443
-9.59267
-5.45556
-7.8407
-16.6802
-31.2863
-50.3707
-72.133
-94.4174
-114.922
-131.442
-142.11
-145.61
-141.334
-129.457
-110.92
-87.3292
-60.7756
-33.6014
-8.1453
13.5052
29.7239
39.4961
42.4952
39.0818
30.2315
17.4051
2.37963
-12.9406
-26.7112
-37.3179
-43.5144
-44.5197
-40.0686
-30.4144
-16.2865
1.19244
20.6201
40.4491
59.1309
75.2564
87.6809
95.6248
98.7398
97.1355
91.3637
82.3611
71.355
59.7404
48.9398
40.2608
34.7634
33.1527
35.7067
42.2467
52.155
64.4367
77.8223
90.8992
102.26
110.648
115.093
115.007
110.246
101.115
88.3295
72.9265
56.1479
39.3013
23.6205
10.1405
-0.399231
-7.61223
-11.4803
-12.3261
-10.7495
-7.53798
-3.56287
0.32517
3.38921
5.07794
5.06998
3.28779
-0.117502
-4.80594
-10.3062
-16.0823
-21.6007
-26.3897
-30.0852
-32.4594
-33.4293
-33.0489
-31.4851
-28.9856
-25.8403
-22.3447
-18.7681
-15.3305
-12.1905
-9.4436
-7.13053
-5.25256
-3.79046
-2.72338
-2.04356
-1.76398
-1.91638
-2.53936
-3.65785
-5.2574
-7.25874
-9.4985
-11.7222
-13.5941
-14.7247
-14.7162
-13.2191
-9.99308
-4.96226
1.74481
9.77983
18.5886
27.4553
35.5742
42.1381
46.4355
47.9397
46.3797
41.7819
34.4765
25.0672
14.3679
3.31493
-7.13501
-16.1078
-22.9033
-27.065
-28.4204
-27.0878
-23.4519
-18.1102
-11.8001
-5.3138
0.586417
5.2455
8.17571
9.09485
7.9399
4.85644
0.167096
-5.67565
-12.1457
-18.7016
-24.8398
-30.138
-34.285
-37.0947
-38.5053
-38.5657
-37.4127
-35.243
-32.2842
-28.7695
-24.9179
-20.9207
-16.9359
-13.0881
-9.4712
-6.15297
-3.17861
-0.571911
1.66573
3.5578
5.15518
6.53682
7.80726
9.09009
10.5175
12.2171
14.2974
16.8344
19.861
23.3611
27.2695
31.4766
35.8389
40.1926
44.369
48.2099
51.5817
54.3853
56.5634
58.1018
59.0269
59.3995
59.3042
58.8378
58.0964
57.1624
56.0948
54.9209
53.632
52.1829
50.493
48.4514
45.9244
42.7646
38.8235
33.9671
28.0921
21.1438
13.1321
4.14425
-5.64878
-15.9938
-26.5658
-36.9869
-46.8528
-55.763
-63.3522
-69.3175
-73.4384
-75.5859
-75.719
-73.8672
-70.1021
-64.4986
-57.0934
-47.8462
-36.6118
-23.1304
-7.04235
12.0698
34.6122
60.8888
90.9987
124.733
161.486
200.203
239.364
277.034
310.967
338.787
358.201
367.266
364.639
349.798
323.186
286.247
241.338
191.52
140.25
91.0079
46.9185
10.4077
-17.0477
-35.0512
-44.2771
-46.3251
-43.4598
-38.2709
-33.3039
-30.71
-31.9635
-37.6841
-47.5858
-60.5552
-74.8457
-88.3562
-98.9541
-104.795
-104.596
-97.8291
-84.8012
-66.6266
-45.0855
-22.3978
-0.940987
17.0496
29.7591
36.0152
35.4272
28.4259
16.2019
0.550959
-16.3522
-32.2216
-44.9363
-52.7892
-54.68
-50.2279
-39.7943
-24.415
-5.6539
14.6006
34.3679
51.8075
65.4225
74.2098
77.7441
76.1878
70.2312
60.9745
49.7708
38.0502
27.1496
18.1662
11.8514
8.55447
8.21838
10.4237
14.4725
19.4981
24.5872
28.8978
31.7605
32.7522
31.7341
28.8531
24.506
19.275
13.8411
8.88952
5.01806
2.66077
2.03596
3.12427
5.67819
9.26037
13.3043
17.1887
20.3148
22.1785
22.4262
20.8906
17.6023
12.7768
6.78053
0.0810207
-6.8121
-13.4074
-19.2863
-24.1456
-27.824
-30.3108
-31.7364
-32.3471
-32.4687
-32.4636
-32.686
-33.4418
-34.9562
-37.3507
-40.633
-44.6968
-49.3316
-54.2405
-59.0635
-63.4054
-66.8671
-69.0793
-69.7364
-68.6296
-65.6746
-60.9324
-54.6172
-47.0916
-38.845
-30.4583
-22.5568
-15.7544
-10.5972
-7.50981
-6.75135
-8.38468
-12.2619
-18.0271
-25.1365
-32.8952
-40.5077
-47.1405
-51.9928
-54.37
-53.7548
-49.8675
-42.7098
-32.5832
-20.0793
-6.03846
8.5197
22.4895
34.7857
44.4515
50.757
53.2751
51.9261
46.9861
39.0584
29.0101
17.8829
6.78662
-3.212
-11.1956
-16.4867
-18.7159
-17.8606
-14.2514
-8.54389
-1.65739
5.31747
11.2339
15.018
15.7983
13.0232
6.54967
-3.30781
-15.7793
-29.6963
-43.6016
-55.9026
-65.052
-69.7347
-69.0371
-62.5762
-50.57
-33.838
-13.729
8.01583
29.4497
48.6325
63.8428
73.7648
77.6244
75.262
67.1324
54.2352
37.9858
20.0454
2.13198
-14.1646
-27.5414
-37.0983
-42.3998
-43.4789
-40.7874
-35.1013
-27.397
-18.716
-10.0344
-2.15586
4.363
9.24696
12.4955
14.3408
15.1783
15.4837
15.7273
16.2986
17.4505
19.2681
21.6663
24.4114
27.1653
29.5422
31.1717
31.7584
31.1306
29.2713
26.3282
22.5999
18.5006
14.5079
11.0994
8.68823
7.56468
7.85294
9.48827
12.2178
15.6246
19.1714
22.2587
24.2902
24.7367
23.1939
19.4275
13.4018
5.2903
-4.53203
-15.5151
-26.9754
-38.1514
-48.2662
-56.5933
-62.5185
-65.5889
-65.5439
-62.3207
-56.032
-46.9189
-35.2838
-21.4165
-5.52886
12.2884
32.0739
53.9627
78.1156
104.621
133.385
164.04
195.874
227.823
258.511
286.344
309.642
326.798
336.43
337.515
329.489
312.304
286.449
252.922
213.17
169.008
122.506
75.8716
31.3184
-9.06174
-43.4247
-70.2892
-88.6349
-97.9796
-98.4248
-90.6653
-75.9549
-56.0243
-32.9521
-8.99492
13.6089
32.8448
47.1115
55.3742
57.2573
53.0672
43.7367
30.6997
15.7092
0.623153
-12.8153
-23.1756
-29.4913
-31.3475
-28.8969
-22.8058
-14.1399
-4.20799
5.61296
14.0505
20.0839
23.0498
22.6968
19.1846
13.0347
5.03925
-3.8541
-12.6666
-20.506
-26.6626
-30.6749
-32.3588
-31.8008
-29.3187
-25.3995
-20.6218
-15.5763
-10.7921
-6.67802
-3.48447
-1.28748
0.00396162
0.620286
0.887453
1.17244
1.82468
3.1204
5.21705
8.12363
11.6917
15.629
19.5354
22.9576
25.4556
26.6737
26.4058
24.6449
21.6075
17.7277
13.6164
9.99003
7.57393
6.99514
8.67774
12.7577
19.0314
26.9475
35.6477
44.0531
50.9878
55.3246
56.1336
52.8138
45.1885
33.5502
18.6479
1.61614
-16.1443
-33.1203
-47.8548
-59.1091
-65.9992
-68.0909
-65.4432
-58.5974
-48.5137
-36.4662
-23.9062
-12.3105
-3.02971
2.8508
4.62364
2.0361
-4.67674
-14.8074
-27.2399
-40.5595
-53.197
-63.596
-70.3836
-72.5268
-69.4542
-61.1295
-48.0659
-31.2794
-12.1849
7.5527
26.1939
42.1082
53.942
60.7545
62.1042
58.0811
49.2793
36.7191
21.7268
5.7885
-9.60401
-23.0999
-33.6117
-40.4029
-43.1334
-41.8629
-37.0132
-29.2998
-19.6406
-9.05527
1.43544
10.8989
18.5616
23.8581
26.4548
26.2512
23.3621
18.0856
10.8617
2.22832
-7.22267
-16.8861
-26.1793
-34.5721
-41.6122
-46.9444
-50.3257
-51.6335
-50.8694
-48.1548
-43.7213
-37.8924
-31.0606
-23.6587
-16.1295
-8.89485
-2.32755
3.27161
7.69002
10.8115
12.6157
13.1707
12.6176
11.1515
8.9998
6.39999
3.58052
0.745874
-1.9323
-4.31767
-6.30588
-7.81717
-8.78727
-9.15915
-8.87795
-7.89068
-6.15109
-3.6292
-0.323501
3.72634
8.42936
13.6381
19.1505
24.7198
30.0713
34.9265
39.0287
42.1702
44.2148
45.1133
44.9104
43.7405
41.8132
39.3911
36.7618
34.2083
31.9811
30.2756
29.2167
28.8508
29.1452
29.9949
31.2331
32.6466
33.993
35.0202
35.4862
35.1802
33.941
31.6752
28.3696
24.0983
19.0226
13.3814
7.47264
1.626
-3.83058
-8.60756
-12.4884
-15.358
-17.2191
-18.196
-18.521
-18.507
-18.5054
-18.8551
-19.8245
-21.5527
-23.9948
-26.8785
-29.6789
-31.6176
-31.6951
-28.7579
-21.6035
-9.11604
9.576
34.9381
66.8861
104.684
146.908
191.49
235.853
277.127
312.425
339.142
355.25
359.52
351.661
332.348
303.12
266.198
224.213
179.921
135.911
94.3713
56.9263
24.5567
-2.38807
-24.1017
-41.1773
-54.4343
-64.744
-72.8811
-79.4175
-84.6715
-88.7121
-91.41
-92.523
-91.7947
-89.0504
-84.2717
-77.6388
-69.5353
-60.5162
-51.2463
-42.4195
-34.6738
-28.5133
-24.2496
-21.9701
-21.5359
-22.609
-24.704
-27.2548
-29.6888
-31.4985
-32.2996
-31.872
-30.1772
-27.3524
-23.6834
-19.56
-15.4217
-11.6995
-8.76249
-6.87265
-6.15463
-6.58021
-7.96866
-10.0011
-12.2468
-14.1985
-15.3151
-15.0672
-12.9852
-8.70445
-2.00552
7.15484
18.6255
32.058
46.9213
62.5325
78.1045
92.8046
105.821
116.428
124.053
128.32
129.087
126.459
120.776
112.586
102.59
91.5905
80.4116
69.8372
60.5456
53.0604
47.7161
44.6425
43.7677
44.8374
47.448
51.0888
55.189
59.1661
62.4702
64.6233
65.2509
64.1043
61.0737
56.1916
49.6254
41.662
32.6834
23.1368
13.4997
4.24587
-4.18866
-11.4336
-17.2071
-21.3302
-23.7345
-24.4622
-23.6606
-21.5709
-18.5134
-14.8669
-11.0456
-7.46986
-4.5336
-2.56975
-1.81584
-2.3848
-4.24512
-7.21514
-10.9741
-15.0907
-19.0679
-22.398
-24.6225
-25.3884
-24.4931
-21.9116
-17.8025
-12.4909
-6.43145
-0.15626
5.7856
10.8883
14.7421
17.0728
17.7624
16.8518
14.5239
11.0717
6.85647
2.26067
-2.35774
-6.70315
-10.5674
-13.8387
-16.4928
-18.569
-20.135
-21.2489
-21.9258
-22.1167
-21.7066
-20.5314
-18.415
-15.2187
-10.8955
-5.53699
0.595341
7.06472
13.283
18.5639
22.199
23.5485
22.1319
17.7072
10.3256
0.353103
-11.5447
-24.4546
-37.2989
-48.9398
-58.2934
-64.4408
-66.7217
-64.8042
-58.7197
-48.864
-35.9624
-21.0058
-5.16155
10.3293
24.2609
35.5675
43.4141
47.2671
46.9378
42.5965
34.7566
24.2291
12.0538
-0.590751
-12.4879
-22.4889
-29.6131
-33.1339
-32.6415
-28.0765
-19.7295
-8.20735
5.63186
20.7663
36.1125
50.6291
63.4121
73.7702
81.2736
85.7704
87.3724
86.4112
83.3743
78.8272
73.3352
67.3927
61.3706
55.4864
49.8008
44.2385
38.6287
32.7574
26.424
19.4916
11.9245
3.8087
-4.64846
-13.1367
-21.2768
-28.6641
-34.9148
-39.7089
-42.8233
-44.1524
-43.7128
-41.6324
-38.1266
-33.4616
-27.9111
-21.7078
-14.997
-7.79649
0.0285797
8.76918
18.8484
30.767
45.0205
61.995
81.8556
104.443
129.201
155.143
180.884
204.728
224.811
239.291
246.548
245.382
235.177
216.001
188.639
154.548
115.732
74.5588
33.5437
-4.89085
-38.634
-66.0714
-86.2117
-98.7438
-104.022
-102.984
-97.0117
-87.7572
-76.9543
-66.2343
-56.9703
-50.1628
-46.3773
-45.7364
-47.9619
-52.4584
-58.4225
-64.9628
-71.2141
-76.4327
-80.0635
-81.7744
-81.458
-79.2065
-75.2665
-69.9832
-63.7441
-56.9298
-49.8772
-42.8596
-36.0817
-29.6888
-23.7852
-18.4564
-13.7909
-9.89591
-6.90497
-4.97481
-4.2715
-4.94636
-7.10408
-10.7663
-15.8359
-22.0668
-29.0477
-36.2038
-42.8226
-48.1054
-51.2419
-51.5018
-48.3334
-41.4538
-30.9184
-17.1548
-0.953143
16.5898
34.1702
50.4079
63.9952
73.8424
79.2028
79.7602
75.6681
67.5347
56.3564
43.4085
30.1076
17.8612
7.92353
1.27347
-1.47454
-0.117432
5.13295
13.6878
24.6539
36.932
49.3294
60.6748
69.9259
76.2573
79.1248
78.2982
73.8643
66.2001
55.9207
43.8096
30.7385
17.5853
5.15769
-5.86922
-14.9984
-21.9351
-26.5896
-29.0607
-29.6031
-28.5837
-26.4332
-23.599
-20.5049
-17.5219
-14.9526
-13.0269
-11.9081
-11.7033
-12.4737
-14.2405
-16.9841
-20.6362
-25.0686
-30.0819
-35.3997
-40.6727
-45.4953
-49.4347
-52.0711
-53.0433
-52.0948
-49.1119
-44.1504
-37.4435
-29.3919
-20.5342
-11.5016
-2.96245
4.43789
10.1366
13.7063
14.8979
13.6707
10.2062
4.90499
-1.63622
-8.66677
-15.3436
-20.808
-24.273
-25.1124
-22.942
-17.6831
-9.59639
0.719322
12.3696
24.2451
35.1346
43.8578
49.4025
51.047
48.4527
41.7127
31.3481
18.2544
3.60148
-11.2974
-25.1319
-36.737
-45.2138
-50.0149
-50.9849
-48.3536
-42.685
-34.7916
-25.6255
-16.1621
-7.29055
0.276934
6.06629
9.86987
11.7405
11.9556
10.9585
9.2862
7.49435
6.08804
5.46714
5.89088
7.46437
10.1459
13.772
18.0946
22.8242
27.6721
32.3866
36.7786
40.7344
44.2151
47.2451
49.8912
52.2386
54.3652
56.3209
58.1134
59.7029
61.0053
61.9047
62.2707
61.979
60.9312
59.0709
56.3929
52.9454
48.8232
44.1554
39.0882
33.7669
28.3199
22.8473
17.4162
12.063
6.80257
1.64182
-3.40496
-8.30125
-12.9772
-17.3237
-21.1924
-24.4001
-26.7347
-27.9606
-27.8192
-26.0232
-22.2474
-16.118
-7.21002
4.93967
20.7949
40.7528
65.0474
93.6328
126.063
161.393
198.128
234.245
267.303
294.633
313.61
321.958
318.054
301.183
271.709
231.122
181.946
127.531
71.7286
18.5032
-28.4676
-66.1664
-92.5281
-106.619
-108.684
-100.063
-82.9857
-60.284
-35.0492
-10.2883
11.3866
28.0001
38.3615
42.1122
39.6718
32.1013
20.9059
7.80638
-5.4895
-17.4884
-27.064
-33.5469
-36.7477
-36.9167
-34.6531
-30.7797
-26.2031
-21.7784
-18.1962
-15.9041
-15.0684
-15.5787
-17.0887
-19.0856
-20.9758
-22.1739
-22.1849
-20.6688
-17.4831
-12.6982
-6.58824
0.401478
7.70528
14.7007
20.7787
25.4154
28.2376
29.0771
28.0059
25.3481
21.6631
17.6995
14.3224
12.4202
12.8024
16.0984
22.6733
32.569
45.4815
60.7757
77.5384
94.6611
110.943
125.203
136.385
143.648
146.437
144.517
137.988
127.267
113.058
96.2907
78.0596
59.548
41.949
26.3849
13.8307
5.04415
0.510367
0.402916
4.56729
12.5278
23.5181
36.5333
50.3996
63.8562
75.6444
84.5973
89.726
90.2975
85.8985
76.4824
62.3916
44.3528
23.4394
1.00022
-21.4423
-42.3197
-60.1591
-73.7234
-82.1366
-84.9759
-82.3203
-74.7458
-63.2681
-49.236
-34.1886
-19.691
-7.16929
2.23867
7.79735
9.24119
6.78836
1.09998
-6.80926
-15.698
-24.2475
-31.2155
-35.5783
-36.6431
-34.1212
-28.1519
-19.278
-8.37463
3.4573
15.0204
25.1579
32.8813
37.4757
38.5705
36.1698
30.6405
22.6612
13.1403
3.11297
-6.36984
-14.3494
-20.0532
-22.9665
-22.877
-19.8885
-14.4045
-7.0841
1.22648
9.57854
17.0157
22.669
25.8438
26.0897
23.2464
17.4598
9.16698
-0.949184
-12.031
-23.1349
-33.3287
-41.7853
-47.8637
-51.1675
-51.5746
-49.2369
-44.549
-38.0939
-30.5691
-22.7072
-15.1966
-8.61397
-3.37424
0.296641
2.36553
2.97376
2.4009
1.01687
-0.770669
-2.56664
-4.03053
-4.90595
-5.03565
-4.36237
-2.91818
-0.805941
1.82258
4.78852
7.90509
10.9936
13.8961
16.4865
18.6794
20.4374
21.7743
22.7537
23.4795
24.0766
24.6641
25.3206
26.0481
26.7415
27.1704
26.9802
25.7182
22.8834
17.9975
10.6889
0.776667
-11.6569
-26.2193
-42.1975
-58.5904
-74.1839
-87.6641
-97.7537
-103.358
-103.694
-98.3944
-87.5605
-71.7589
-51.964
-29.45
-5.64931
18.0042
40.2239
59.992
76.6394
89.8729
99.7533
106.627
111.029
113.57
114.831
115.274
115.189
114.671
113.637
111.865
109.061
104.918
99.1801
91.6912
82.4204
71.4708
59.0674
45.5296
31.2334
16.5708
1.90991
-12.4359
-26.2277
-39.3051
-51.5763
-62.9952
-73.5301
-83.1307
-91.7009
-99.081
-105.047
-109.325
-111.625
-111.683
-109.311
-104.45
-97.2029
-87.867
-76.934
-65.0731
-53.0902
-41.8683
-32.2925
-25.1684
-21.1398
-20.6142
-23.7042
-30.1917
-39.5232
-50.8374
-63.0287
-74.8422
-84.9927
-92.2958
-95.7978
-94.8859
-89.3656
-79.4906
-65.9402
-49.7419
-32.1486
-14.4847
2.01701
16.3665
27.933
36.51
42.3197
45.9564
48.2768
50.252
52.805
56.6555
62.1961
69.4185
77.9011
86.8597
95.2548
101.94
105.833
106.076
102.18
94.1217
82.3773
67.9083
52.0802
36.5355
23.0313
13.2568
8.65022
10.2302
18.4573
33.1384
53.3849
77.6309
103.719
129.054
150.816
166.229
172.862
168.923
153.528
126.896
90.4361
46.698
-0.813169
-47.9618
-90.4095
-124.099
-145.738
-153.209
-145.86
-124.621
-91.9232
-51.4441
-7.6827
34.5573
70.7226
97.027
110.867
111.084
98.0535
73.5842
40.662
3.06654
-35.0828
-69.796
-97.6418
-116.09
-123.734
-120.377
-106.98
-85.4864
-58.5532
-29.2188
-0.555888
24.6573
44.2101
56.6514
61.384
58.66
49.4836
35.4405
18.4776
0.662901
-16.0464
-30.0034
-40.0167
-45.4333
-46.152
-42.5758
-35.5129
-26.0436
-15.3717
-4.68026
4.99378
12.8514
18.3844
21.3871
21.9301
20.305
16.9494
12.3654
7.04353
1.40155
-4.25453
-9.74293
-14.9931
-20.0119
-24.8356
-29.4801
-33.8964
-37.9437
-41.3838
-43.8999
-45.137
-44.7565
-42.4961
-38.2251
-31.9839
-24.0014
-14.6867
-4.59588
5.62214
15.2925
23.7848
30.5775
35.3088
37.8067
38.097
36.3892
33.0427
28.5202
23.3338
17.9905
12.9441
8.5573
5.0771
2.62527
1.20194
0.701108
0.93448
1.66028
2.61344
3.53421
4.19261
4.40726
4.0576
3.08922
1.51257
-0.604481
-3.1491
-5.97978
-8.94492
-11.902
-14.7353
-17.3704
-19.7836
-22.0047
-24.1119
-26.2201
-28.4618
-30.9643
-33.826
-37.094
-40.7489
-44.6977
-48.7773
-52.7676
-56.4139
-59.4518
-61.6321
-62.7381
-62.5917
-61.0462
-57.9661
-53.2004
-46.5568
-37.7865
-26.5872
-12.6309
4.38576
24.6713
48.2612
74.9431
104.199
135.178
166.701
197.311
225.357
249.107
266.888
277.224
278.978
271.466
254.543
228.651
194.809
154.559
109.863
62.9605
16.2061
-28.1003
-67.8678
-101.343
-127.203
-144.608
-153.22
-153.194
-145.141
-130.076
-109.363
-84.6301
-57.6929
-30.4522
-4.78778
17.5554
35.0814
46.6476
51.5491
49.5728
41.0142
26.6512
7.67557
-14.4127
-37.9377
-61.1952
-82.5983
-100.808
-114.834
-124.098
-128.452
-128.151
-123.796
-116.235
-106.459
-95.4805
-84.2328
-73.48
-63.758
-55.3462
-48.271
-42.34
-37.1979
-32.3975
-27.4762
-22.0277
-15.7612
-8.54149
-0.406025
8.44141
17.6588
26.8107
35.4247
43.0496
49.3114
53.9574
56.8844
58.1494
57.9589
56.643
54.6139
52.3173
50.1819
48.5725
47.7528
47.8625
48.9084
50.7719
53.2305
55.9884
58.7137
61.077
62.7857
63.6115
63.4078
62.116
59.7607
56.4358
52.2837
47.4716
42.1683
36.5245
30.6595
24.6552
18.558
12.3868
6.14606
-0.159398
-6.51036
-12.8617
-19.1353
-25.2188
-30.969
-36.2198
-40.7943
-44.5177
-47.2321
-48.8088
-49.161
-48.2528
-46.1063
-42.8064
-38.502
-33.4048
-27.7849
-21.9615
-16.2911
-11.1493
-6.90835
-3.90974
-2.43271
-2.66199
-4.65796
-8.33436
-13.448
-19.605
-26.2844
-32.8806
-38.7588
-43.3195
-46.0625
-46.6432
-44.9132
-40.9387
-34.9953
-27.5384
-19.1546
-10.4988
-2.22639
5.07137
10.9211
15.0041
17.1738
17.4521
16.0097
13.1331
9.18507
4.56402
-0.332485
-5.13761
-9.53627
-13.2776
-16.1801
-18.1306
-19.0799
-19.0364
-18.0584
-16.2472
-13.7395
-10.7009
-7.31739
-3.78765
-0.313146
2.91228
5.71345
7.94465
9.49916
10.3163
10.3854
9.74558
8.48244
6.72124
4.61824
2.35072
0.106657
-1.92565
-3.56792
-4.66214
-5.08089
-4.7374
-3.59496
-1.67468
0.939398
4.09924
7.59726
11.1775
14.5546
17.4402
19.5762
20.7708
20.9345
20.1079
18.4767
16.3689
14.2289
12.5716
11.9172
12.7175
15.2817
19.7154
25.8816
33.3936
41.6422
49.8553
57.1839
62.8021
66.0091
66.3185
63.5221
57.7212
49.3197
38.9816
27.5573
15.9894
5.20854
-3.96774
-10.9231
-15.3065
-17.0676
-16.4574
-13.9971
-10.4165
-6.56989
-3.33792
-1.52587
-1.76936
-4.45713
-9.6796
-17.2087
-26.5113
-36.7951
-47.0815
-56.2962
-63.3686
-67.3262
-67.3748
-62.9551
-53.7721
-39.796
-21.24
1.47876
27.7833
56.9788
88.2823
120.837
153.713
185.892
216.263
243.624
266.701
284.213
294.951
297.89
292.312
277.921
254.929
224.103
186.758
144.685
100.024
55.096
12.2103
-26.5286
-59.3892
-85.1396
-103.118
-113.242
-115.968
-112.2
-103.171
-90.31
-75.1152
-59.0355
-43.3772
-29.2361
-17.4561
-8.61124
-3.00841
-0.704752
-1.53604
-5.1516
-11.0528
-18.6325
-27.215
-36.0949
-44.5751
-52.0056
-57.8209
-61.5754
-62.9764
-61.9087
-58.4488
-52.8651
-45.6007
-37.239
-28.454
-19.9484
-12.3866
-6.32948
-2.17818
-0.133647
-0.177013
-2.07278
-5.39442
-9.56892
-13.9346
-17.8052
-20.5323
-21.5606
-20.4704
-17.0047
-11.0806
-2.78692
7.63038
19.791
33.2086
47.322
61.5282
75.2151
87.7952
98.7382
107.601
114.058
117.919
119.146
117.855
114.308
108.891
102.084
94.4174
86.4312
78.6262
71.4259
65.1456
59.9741
55.9697
53.0694
51.1114
49.8648
49.0643
48.444
47.7671
46.8472
45.5604
43.8465
41.7019
39.1654
36.3003
33.1757
29.8505
26.3632
22.7266
18.9309
14.9517
10.7627
6.34943
1.72283
-3.0716
-7.94988
-12.7926
-17.4543
-21.7793
-25.6194
-28.8531
-31.4012
-33.2372
-34.3899
-34.9386
-35.0001
-34.7112
-34.2081
-33.6061
-32.9835
-32.3713
-31.7506
-31.0583
-30.199
-29.0633
-27.5478
-25.575
-23.1101
-20.1717
-16.8356
-13.2304
-9.52487
-5.91025
-2.57778
0.304158
2.6108
4.27673
5.30439
5.76435
5.78707
5.54758
5.24486
5.07906
5.2293
5.83483
6.98116
8.69177
10.9248
13.5736
16.4698
19.3891
22.0594
24.1736
25.4094
25.4554
24.0472
21.0067
16.2837
9.99087
2.4251
-5.93177
-14.4372
-22.3389
-28.8485
-33.2317
-34.9043
-33.5212
-29.0453
-21.7866
-12.4015
-1.84958
8.68929
17.9314
24.6256
27.6959
26.3712
20.289
9.55844
-5.2268
-23.027
-42.4456
-61.8606
-79.5833
-94.029
-103.879
-108.218
-106.627
-99.2223
-86.6456
-69.9874
-50.6733
-30.3156
-10.5516
7.11402
21.4449
31.5727
37.0538
37.8776
34.4319
27.432
17.8252
6.68487
-4.89461
-15.8895
-25.4189
-32.794
-37.5439
-39.4219
-38.3972
-34.6352
-28.472
-20.3831
-10.9481
-0.809604
9.37192
18.968
27.4324
34.3471
39.4588
42.6996
44.1876
44.2065
43.1644
41.5373
39.804
38.3817
37.5701
37.5125
38.1785
39.3695
40.7476
41.8815
42.3038
41.5722
39.3257
35.3307
29.5099
21.9532
12.9089
2.75781
-8.02514
-18.9181
-29.401
-39.0003
-47.3262
-54.0968
-59.1486
-62.4332
-63.9996
-63.9668
-62.4893
-59.7199
-55.7764
-50.7148
-44.5152
-37.081
-28.2523
-17.831
-5.61492
8.56462
24.805
43.0997
63.3141
85.1717
108.253
132.007
155.771
178.806
200.327
219.545
235.704
248.11
256.163
259.378
257.409
250.068
237.343
219.42
196.691
169.762
139.436
106.695
72.6589
38.5324
5.54925
-25.0889
-52.2735
-75.0455
-92.6477
-104.57
-110.589
-110.79
-105.587
-95.7127
-82.1927
-66.2974
-49.4656
-33.2085
-18.9967
-8.14164
-1.67964
-0.27314
-4.13884
-13.0131
-26.1609
-42.4299
-60.3476
-78.2541
-94.4569
-107.394
-115.785
-118.761
-115.945
-107.495
-94.0783
-76.811
-57.1409
-36.7051
-17.1692
-0.066527
13.3467
22.2067
26.1168
25.1737
19.9449
11.3999
0.801531
-10.4285
-20.8571
-29.1833
-34.3634
-35.7044
-32.9163
-26.1206
-15.8137
-2.79473
11.9357
27.2895
42.2069
55.7593
67.2292
76.1616
82.3811
85.9786
87.2706
86.7382
84.9553
82.5136
79.9522
77.7001
76.0331
75.0519
74.6797
74.6809
74.6977
74.3011
73.0514
70.5594
66.5438
60.8753
53.6037
44.9638
35.3592
25.3278
15.4909
6.4943
-1.05314
-6.63599
-9.87966
-10.5845
-8.74507
-4.55382
1.60989
9.20492
17.5656
25.9489
33.5892
39.7563
43.8148
45.2782
43.8553
39.4831
32.3417
22.8483
11.6282
-0.534844
-12.7674
-24.1853
-33.9758
-41.4742
-46.2242
-48.0174
-46.9057
-43.1864
-37.3625
-30.083
-22.0716
-14.0517
-6.67633
-0.471783
4.20178
7.16804
8.43134
8.1549
6.62472
4.20498
1.29083
-1.73556
-4.54133
-6.86855
-8.54782
-9.50038
-9.73029
-9.3094
-8.3583
-7.02607
-5.47162
-3.84818
-2.29204
-0.915485
0.196652
0.988007
1.43026
1.52233
1.28958
0.783068
0.0783592
-0.726898
-1.51732
-2.16655
-2.54641
-2.53787
-2.0425
-0.992932
0.639552
2.84131
5.55701
8.69376
12.127
15.7058
19.2565
22.5828
25.4646
27.6579
28.8987
28.9155
27.4524
24.3027
19.3499
12.6116
4.27518
-5.28076
-15.4891
-25.6249
-34.8653
-42.3729
-47.3936
-49.3557
-47.9552
-43.2139
-35.5001
-25.5065
-14.1871
-2.65941
7.91584
16.4619
22.1046
24.2668
22.7287
17.6458
9.52444
-0.841026
-12.4613
-24.2629
-35.2033
-44.3769
-51.1007
-54.9697
-55.8789
-54.0106
-49.7896
-43.816
-36.7823
-29.3878
-22.2597
-15.8915
-10.6031
-6.52872
-3.62999
-1.73066
-0.566246
0.160754
0.729115
1.35835
2.1846
3.25492
4.53843
5.95017
7.38183
8.73285
9.93619
10.9745
11.8848
12.7511
13.6882
14.8185
16.2479
18.0434
20.2174
22.72
25.4407
28.2189
30.8602
33.1582
34.9157
35.965
36.1834
35.5024
33.9106
31.4498
28.2053
24.2927
19.8422
14.9831
9.83028
4.47406
-1.02491
-6.63519
-12.3484
-18.168
-24.094
-30.1061
-36.1465
-42.1048
-47.8066
-53.0061
-57.3842
-60.5498
-62.0453
-61.3551
-57.9183
-51.1485
-40.4629
-25.3246
-5.30207
19.8577
50.1452
85.2053
124.268
166.112
209.07
251.096
289.881
323.026
348.242
363.558
367.522
359.351
339.043
307.4
266.005
217.112
163.486
108.2
54.4
5.05881
-37.2535
-70.5714
-93.6844
-106.222
-108.667
-102.285
-88.9903
-71.1467
-51.3335
-32.0946
-15.6992
-3.93927
2.01864
1.71052
-4.62247
-16.1041
-31.3554
-48.6714
-66.2219
-82.2527
-95.2654
-104.159
-108.318
-107.646
-102.542
-93.8267
-82.635
-70.2822
-58.1251
-47.427
-39.2409
-34.318
-33.0462
-35.4219
-41.0552
-49.2066
-58.8542
-68.7851
-77.7061
-84.3653
-87.6729
-86.8109
-81.3201
-71.1531
-56.688
-38.6987
-18.2846
3.23363
24.4412
43.9647
60.6008
73.4259
81.8719
85.7652
85.3227
81.111
73.9729
64.9333
55.0949
45.5347
37.2128
30.9003
27.1315
26.1806
28.064
32.5627
39.2596
47.5881
56.8844
66.4417
75.5604
83.5945
89.9911
94.3222
96.3072
95.8262
92.9221
87.7906
80.7595
72.2576
62.7755
52.8217
42.8795
33.3674
24.6086
16.8124
10.0687
4.35603
-0.439576
-4.4983
-8.03664
-11.2785
-14.4297
-17.6583
-21.0804
-24.7504
-28.6559
-32.7165
-36.786
-40.6592
-44.085
-46.7841
-48.4735
-48.8945
-47.8426
-45.1957
-40.9381
-35.1745
-28.1334
-20.1584
-11.6853
-3.20939
4.75539
11.7213
17.2696
21.0878
22.996
22.9603
21.0916
17.6311
12.9236
7.3839
1.4599
-4.40398
-9.79831
-14.3733
-17.8552
-20.054
-20.8638
-20.2576
-18.2783
-15.0279
-10.6568
-5.35468
0.656687
7.12953
13.7948
20.3671
26.5521
32.0551
36.5941
39.9153
41.8103
42.1337
40.8198
37.8941
33.4805
27.7995
21.1586
13.9346
6.54721
-0.572259
-7.01503
-12.4288
-16.5473
-19.2126
-20.387
-20.1531
-18.7022
-16.3107
-13.3096
-10.0483
-6.85924
-4.02621
-1.76074
-0.189208
0.648928
0.791935
0.338085
-0.577513
-1.80766
-3.21565
-4.69244
-6.16633
-7.60428
-9.00547
-10.389
-11.7782
-13.1852
-14.598
-15.9731
-17.2351
-18.2823
-18.9994
-19.2737
-19.0123
-18.158
-16.7012
-14.6854
-12.2052
-9.39747
-6.42701
-3.46796
-0.684449
1.78717
3.85169
5.46249
6.62196
7.37527
7.79884
7.98572
8.03076
8.01857
8.01689
8.07657
8.23822
8.54353
9.04802
9.83112
10.9999
12.6833
15.0168
18.1182
22.0583
26.8326
32.3379
38.3606
44.5794
50.584
55.9093
60.0809
62.6679
63.3354
61.8907
58.3158
52.7824
45.6458
37.416
28.7087
20.1792
12.4461
6.01296
1.19905
-1.91186
-3.49467
-3.97265
-3.97162
-4.24156
-5.554
-8.58764
-13.8179
-21.4266
-31.2468
-42.752
-55.0946
-67.1902
-77.8362
-85.8508
-90.2119
-90.1767
-85.3644
-75.7914
-61.8523
-44.2528
-23.9041
-1.79729
21.1229
44.0654
66.4663
88.0192
108.66
128.512
147.801
166.751
185.481
203.914
221.709
238.242
252.621
263.753
270.445
271.54
266.053
253.302
233.019
205.415
171.215
131.632
88.3123
43.232
-1.43147
-43.453
-80.7236
-111.414
-134.122
-147.998
-152.821
-149.032
-137.707
-120.477
-99.3906
-76.7378
-54.8496
-35.888
-21.6507
-13.4084
-11.7929
-16.7467
-27.5409
-42.8595
-60.9426
-79.7731
-97.2883
-111.592
-121.145
-124.918
-122.478
-114.017
-100.31
-82.6093
-62.4989
-41.7171
-21.9748
-4.78791
8.6583
17.6016
21.7456
21.2534
16.6981
8.97882
-0.7856
-11.3737
-21.5776
-30.3082
-36.6815
-40.0798
-40.1848
-36.9821
-30.7384
-21.9548
-11.3033
0.448384
12.5142
24.1633
34.7819
43.9183
51.3079
56.8768
60.7249
63.0934
64.32
64.7887
64.8816
64.9359
65.2128
65.879
67.0018
68.5569
70.4442
72.5099
74.5694
76.4293
77.9054
78.8354
79.0877
78.5655
77.2084
74.9915
71.9244
68.0488
63.4361
58.1844
52.4142
46.2632
39.8799
33.416
27.0185
20.8211
14.9365
9.45017
4.41567
-0.14746
-4.25317
-7.94559
-11.2933
-14.382
-17.3053
-20.1555
-23.014
-25.9426
-28.9745
-32.1081
-35.3012
-38.4687
-41.4825
-44.1764
-46.354
-47.803
-48.3115
-47.688
-45.7831
-42.509
-37.8567
-31.9089
-24.8453
-16.9407
-8.55489
-0.113986
7.91483
15.0545
20.8525
24.9158
26.9441
26.7586
24.323
19.7549
13.3264
5.45103
-3.34192
-12.4448
-21.2183
-29.0426
-35.3698
-39.7693
-41.9644
-41.8525
-39.5097
-35.1774
-29.2332
-22.1506
-14.4517
-6.65843
0.751307
7.3798
12.9337
17.2359
20.2247
21.9434
22.5213
22.1509
21.062
19.4972
17.6883
15.8357
14.0924
12.5503
11.2335
10.0955
9.02447
7.85502
6.38798
4.41695
1.7597
-1.70908
-6.02805
-11.1275
-16.8197
-22.8049
-28.6921
-34.0356
-38.3802
-41.312
-42.5065
-41.7688
-39.0596
-34.5052
-28.3883
-21.1237
-13.2195
-5.23046
2.29219
8.8486
14.0308
17.5527
19.2668
19.1674
17.381
14.1458
9.78307
4.66409
-0.823686
-6.30764
-11.4544
-15.9853
-19.6812
-22.3776
-23.9525
-24.3103
-23.3664
-21.0376
-17.2407
-11.9024
-4.97861
3.51795
13.4883
24.7207
36.8744
49.4782
61.9474
73.6199
83.8075
91.8577
97.218
99.4934
98.4913
94.245
87.0144
77.2626
65.6119
52.7837
39.531
26.5709
14.5243
3.86985
-5.08427
-12.2095
-17.5469
-21.2823
-23.7094
-25.187
-26.095
-26.7938
-27.5896
-28.7097
-30.2862
-32.3502
-34.8345
-37.583
-40.3661
-42.8987
-44.8595
-45.9099
-45.7099
-43.932
-40.2712
-34.4528
-26.2385
-15.433
-1.89321
14.4591
33.6197
55.48
79.802
106.193
134.086
162.722
191.157
218.275
242.833
263.531
279.103
288.422
290.622
285.194
272.073
251.667
224.851
192.903
157.389
120.03
82.5438
46.5024
13.2089
-16.3833
-41.7061
-62.5665
-79.0963
-91.672
-100.818
-107.109
-111.083
-113.174
-113.674
-112.729
-110.356
-106.495
-101.065
-94.0314
-85.4713
-75.6137
-64.8631
-53.7922
-43.1047
-33.5727
-25.9547
-20.9058
-18.8921
-20.1219
-24.5044
-31.6429
-40.8657
-51.2902
-61.9143
-71.7223
-79.7932
-85.3955
-88.0588
-87.6125
-84.1881
-78.1859
-70.2123
-60.9967
-51.2996
-41.8237
-33.1388
-25.6299
-19.4711
-14.6296
-10.8935
-7.92098
-5.30011
-2.61244
0.509501
4.33701
9.01745
14.5656
20.8735
27.7356
34.884
42.0283
48.8932
55.2505
60.9391
65.8745
70.0443
73.4943
76.3078
78.5811
80.4003
81.8235
82.8696
83.5162
83.7061
83.3614
82.4011
80.7614
78.4138
75.3779
71.7277
67.5896
63.1323
58.55
54.0413
49.7861
45.9245
42.5404
39.6511
37.2058
35.0927
33.1525
31.1993
29.044
26.518
23.4952
19.9085
15.7601
11.1226
6.13329
0.979286
-4.12197
-8.94607
-13.2852
-16.9688
-19.8795
-21.961
-23.2189
-23.7136
-23.5473
-22.8473
-21.7478
-20.3739
-18.8285
-17.1848
-15.4839
-13.7388
-11.9419
-10.0761
-8.12675
-6.09379
-4.00074
-1.90085
0.121419
1.9534
3.46156
4.5023
4.93495
4.63583
3.51221
1.51511
-1.34951
-5.01193
-9.33302
-14.1026
-19.0431
-23.8197
-28.0581
-31.3689
-33.3795
-33.7697
-32.3102
-28.8964
-23.5776
-16.5725
-8.27171
0.778289
9.90765
18.3716
25.4108
30.3172
32.5003
31.5454
27.2586
19.6951
9.16663
-3.76985
-18.3434
-33.6175
-48.5528
-62.082
-73.1918
-81.0058
-84.8626
-84.3809
-79.5041
-70.5187
-58.0419
-42.9773
-26.4419
-9.66953
6.09862
19.7261
30.2832
37.1275
39.9552
38.8177
34.102
26.4794
16.8284
6.14173
-4.57154
-14.3785
-22.4999
-28.3662
-31.6474
-32.2572
-30.3325
-26.1927
-20.287
-13.1345
-5.26716
2.8195
10.7011
18.0432
24.6024
30.2137
34.7676
38.1855
40.3984
41.337
40.9369
39.1573
36.0112
31.5998
26.1411
19.9857
13.6121
7.59817
2.5688
-0.875135
-2.23815
-1.21035
2.26674
7.96095
15.3464
23.6409
31.8822
39.0349
44.1143
46.3102
45.0932
40.288
32.1024
21.1089
8.17978
-5.6144
-19.1286
-31.2737
-41.1356
-48.0681
-51.7486
-52.1915
-49.7187
-44.8936
-38.4289
-31.0799
-23.5361
-16.3244
-9.73157
-3.75487
1.91453
7.87245
14.9449
24.0942
36.2923
52.3684
72.8472
97.7963
126.709
158.449
191.271
222.941
250.935
272.713
286.02
289.185
281.349
262.61
234.042
197.584
155.82
111.685
68.1287
27.7948
-7.24586
-35.6727
-56.9873
-71.4773
-80.0865
-84.2148
-85.482
-85.4903
-85.6151
-86.8513
-89.7284
-94.2992
-100.195
-106.736
-113.068
-118.32
-121.737
-122.803
-121.301
-117.35
-111.384
-104.092
-96.3373
-89.0489
-83.1167
-79.2883
-78.0826
-79.7262
-84.1162
-90.8134
-99.066
-107.865
-116.029
-122.313
-125.539
-124.724
-119.211
-108.768
-93.6544
-74.6289
-52.9071
-30.0568
-7.84573
11.9445
27.7158
38.2392
42.8031
41.3051
34.2735
22.8149
8.49259
-6.85001
-21.2978
-33.0795
-40.7639
-43.4108
-40.6623
-32.7624
-20.5055
-5.12363
11.8721
28.8748
44.3651
57.0739
66.1059
71.0108
71.8004
68.9111
63.1236
55.4516
47.0142
38.9086
32.0929
27.2927
24.9352
25.1165
27.6038
31.8698
37.1569
42.5632
47.1443
50.018
50.4622
47.9957
42.4318
33.8994
22.8292
9.90683
-4.00069
-17.9355
-30.946
-42.1782
-50.952
-56.8137
-59.5625
-59.2476
-56.1418
-50.6953
-43.4767
-35.1113
-26.2212
-17.3755
-9.05319
-1.62165
4.67065
9.68848
13.395
15.8311
17.0933
17.3129
16.638
15.2206
13.2085
10.7409
7.94744
4.94909
1.86024
-1.20985
-4.15616
-6.87844
-9.28319
-11.2869
-12.8201
-13.8322
-14.2951
-14.2069
-13.5929
-12.5052
-11.0197
-9.23088
-7.24463
-5.17036
-3.1122
-1.16128
0.610727
2.15555
3.44966
4.49278
5.30393
5.91594
6.36915
6.70566
6.96443
7.17769
7.36835
7.54761
7.71249
7.84289
7.89852
7.81664
7.51179
6.87883
5.80045
4.15938
1.85499
-1.17753
-4.94785
-9.39433
-14.3744
-19.6643
-24.9696
-29.947
-34.2352
-37.4915
-39.4301
-39.8568
-38.6942
-35.9956
-31.944
-26.8355
-21.0501
-15.0132
-9.15187
-3.85206
0.578389
3.93666
6.13904
7.22108
7.32455
6.67352
5.54308
4.22505
2.99504
2.08482
1.66314
1.82657
2.6006
3.94964
5.7935
8.027
10.5393
13.2297
16.0177
18.8467
21.6799
24.4918
27.2563
29.934
32.4622
34.7488
36.673
38.0908
38.8474
38.7924
37.7968
35.7694
32.6687
28.5114
23.3723
17.3807
10.7089
3.55849
-3.85664
-11.3271
-18.6632
-25.7064
-32.3342
-38.4564
-44.0021
-48.8961
-53.0278
-56.2168
-58.1809
-58.5143
-56.6835
-52.0469
-43.9022
-31.5635
-14.4631
7.72879
34.9827
66.8048
102.171
139.516
176.802
211.651
241.556
264.128
277.361
279.875
271.101
251.386
221.985
184.963
142.987
99.0655
56.2429
17.2967
-15.5234
-40.6893
-57.5002
-66.0906
-67.3464
-62.7441
-54.1377
-43.5215
-32.7997
-23.5889
-17.0743
-13.9316
-14.3176
-17.9226
-24.0727
-31.8614
-40.2926
-48.4146
-55.4297
-60.7696
-64.1316
-65.4766
-64.9953
-63.0506
-60.1067
-56.6574
-53.1597
-49.9833
-47.3768
-45.4549
-44.2029
-43.4966
-43.1323
-42.862
-42.429
-41.5999
-40.1892
-38.0761
-35.2115
-31.616
-27.3707
-22.6014
-17.4602
-12.1048
-6.6806
-1.30515
3.94091
9.01713
13.9198
18.6725
23.3132
27.8783
32.3878
36.8328
41.1675
45.3077
49.135
52.5088
55.2825
57.3248
58.5417
58.8973
58.4296
57.2591
55.5883
53.6898
51.8854
50.5163
49.9082
50.3352
51.9856
54.9349
59.1285
64.3767
70.363
76.666
82.7914
88.2128
92.4161
94.9441
95.4366
93.6625
89.5405
83.1482
74.716
64.6096
53.3012
41.3321
29.2725
17.6798
7.06045
-2.1622
-9.67209
-15.2763
-18.9122
-20.6461
-20.6656
-19.2642
-16.821
-13.7733
-10.5854
-7.71201
-5.56052
-4.4537
-4.59754
-6.05804
-8.75081
-12.4461
-16.7901
-21.3413
-25.6185
-29.1554
-31.5553
-32.5393
-31.9817
-29.928
-26.5925
-22.3344
-17.6156
-12.9438
-8.80849
-5.61699
-3.64044
-2.97663
-3.53604
-5.05409
-7.12884
-9.27969
-11.0188
-11.9251
-11.7085
-10.2548
-7.64317
-4.13158
-0.114481
3.94231
7.57747
10.4078
12.1871
12.8397
12.465
11.3105
9.7222
8.07836
6.7212
5.89637
5.71071
6.11447
6.91031
7.78663
8.36955
8.28493
7.22076
4.9808
1.52164
-3.03144
-8.39163
-14.1393
-19.7676
-24.7401
-28.551
-30.7844
-31.163
-29.5844
-26.1384
-21.106
-14.9371
-8.20996
-1.57441
4.31578
8.87513
11.6551
12.4013
11.0916
7.94934
3.42846
-1.82943
-7.06192
-11.4698
-14.3081
-14.9732
-13.0747
-8.48337
-1.3493
7.91236
18.6646
30.1152
41.3988
51.6629
60.1501
66.266
69.6275
70.0873
67.7337
62.8671
55.9584
47.5934
38.411
29.0418
20.0529
11.9041
4.91867
-0.7294
-5.01239
-8.03163
-9.98951
-11.1548
-11.8257
-12.2942
-12.8172
-13.5935
-14.7517
-16.3452
-18.3547
-20.6955
-23.2258
-25.756
-28.0554
-29.8585
-30.8702
-30.7733
-29.2379
-25.9377
-20.57
-12.8825
-2.70308
10.0304
25.2427
42.7029
62.0162
82.6317
103.864
124.931
145
163.241
178.886
191.273
199.891
204.408
204.681
200.76
192.865
181.363
166.726
149.489
130.213
109.448
87.7157
65.5011
43.2608
21.4368
0.473906
-19.1695
-37.0221
-52.6151
-65.5142
-75.3628
-81.9307
-85.1599
-85.1989
-82.4171
-77.3958
-70.8933
-63.7869
-56.9974
-51.4037
-47.7576
-46.608
-48.2428
-52.6566
-59.5453
-68.3325
-78.2221
-88.2738
-97.494
-104.932
-109.77
-111.408
-109.511
-104.048
-95.2828
-83.7489
-70.1874
-55.4719
-40.5202
-26.2072
-13.2878
-2.33929
6.27151
12.3944
16.0765
17.5234
17.0484
15.0193
11.8121
7.77776
3.22806
-1.56081
-6.32881
-10.8043
-14.6766
-17.578
-19.0835
-18.7323
-16.0721
-10.7207
-2.43726
8.8098
22.7906
38.9895
56.6156
74.6529
91.9444
107.303
119.635
128.06
132.012
131.305
126.157
117.173
105.273
91.5972
77.3856
63.8478
52.0461
42.7986
36.6147
33.6664
33.794
36.542
41.215
46.9448
52.762
57.6647
60.686
60.9573
57.7723
50.6499
39.3956
24.1534
5.44174
-15.8396
-38.4395
-60.8305
-81.3267
-98.2384
-110.047
-115.581
-114.167
-105.736
-90.8674
-70.7556
-47.111
-21.9938
2.39165
23.922
40.7696
51.5821
55.6075
52.7492
43.5502
29.1091
10.9434
-9.18287
-29.4439
-48.1273
-63.7817
-75.3205
-82.0772
-83.8099
-80.6636
-73.1
-61.811
-47.628
-31.4416
-14.1373
3.44704
20.5447
36.4671
50.6028
62.4136
71.435
77.2841
79.6758
78.4448
73.5708
65.2004
53.6616
39.4655
23.2933
5.96757
-11.5919
-28.4238
-43.5886
-56.2345
-65.6606
-71.3716
-73.119
-70.9253
-65.0872
-56.1561
-44.8969
-32.2276
-19.1433
-6.63375
4.4
13.2199
19.3089
22.4069
22.5215
19.9118
15.0492
8.55948
1.15374
-6.44476
-13.5687
-19.6634
-24.3273
-27.3325
-28.6259
-28.3119
-26.6211
-23.8704
-20.4185
-16.6235
-12.8067
-9.22604
-6.05964
-3.40183
-1.26835
0.39033
1.67081
2.6967
3.59932
4.50136
5.50461
6.68227
8.07559
9.69393
11.5173
13.5005
15.5779
17.6684
19.6801
21.5159
23.0778
24.2721
25.0138
25.2305
24.8632
23.8654
22.198
19.8233
16.6978
12.7686
7.97414
2.25337
-4.43824
-12.1058
-20.6898
-30.0422
-39.911
-49.9357
-59.6585
-68.5489
-76.0401
-81.5697
-84.6191
-84.7445
-81.5966
-74.9309
-64.6096
-50.6033
-32.9944
-11.9873
12.0757
38.6953
67.197
96.7203
126.222
154.498
180.239
202.101
218.821
229.331
232.894
229.207
218.487
201.486
179.45
154.018
127.05
100.431
75.8582
54.645
37.5775
24.8343
15.9889
10.0936
5.83205
1.72138
-3.66533
-11.4867
-22.4597
-36.7492
-53.9342
-73.055
-92.7341
-111.353
-127.261
-138.987
-145.429
-145.996
-140.687
-130.094
-115.344
-97.9734
-79.7587
-62.5307
-47.9809
-37.4912
-31.9999
-31.9174
-37.0978
-46.8663
-60.0975
-75.3353
-90.9396
-105.248
-116.732
-124.141
-126.608
-123.725
-115.564
-102.658
-85.9352
-66.6234
-46.1257
-25.8889
-7.27184
8.57222
20.7899
28.8915
32.781
32.7487
29.432
23.7448
16.7848
9.72653
3.70854
-0.273288
-1.45823
0.610049
6.04323
14.6006
25.714
38.5427
52.0531
65.1154
76.6096
85.5305
91.0841
92.7668
90.4201
84.2571
74.8547
63.112
50.1757
37.3375
25.9116
17.1041
11.887
10.8913
14.3303
21.9638
33.1067
46.6822
61.3157
75.4575
87.5243
96.0449
99.7974
97.9248
90.0211
76.1805
57.005
33.57
7.34875
-19.9023
-46.2874
-69.9356
-89.1692
-102.658
-109.539
-109.491
-102.745
-90.0333
-72.4909
-51.5216
-28.6549
-5.41624
16.7726
36.6564
53.1758
65.4752
72.9055
75.0345
71.6725
62.9122
49.1721
31.2277
10.2124
-12.4234
-35.0023
-55.7543
-72.9823
-85.237
-91.4782
-91.199
-84.4939
-72.0611
-55.1368
-35.3708
-14.6558
5.06703
22.0053
34.692
42.1245
43.8499
39.9917
31.2168
18.6489
3.74003
-11.8851
-26.5942
-38.9069
-47.631
-51.9653
-51.5596
-46.5274
-37.4153
-25.1326
-10.8531
4.10076
18.3792
30.7202
40.0514
45.5703
46.8005
43.6207
36.2665
25.3059
11.5917
-3.80795
-19.693
-34.8266
-48.033
-58.2924
-64.8246
-67.1556
-65.1597
-59.0748
-49.4874
-37.2882
-23.6012
-9.69099
3.14473
13.6892
20.9187
24.1027
22.8843
17.3308
7.94911
-4.33979
-18.2689
-32.3325
-44.9249
-54.5003
-59.7354
-59.6792
-53.8696
-42.4027
-25.9437
-5.67476
16.8148
39.6847
61.0289
79.0678
92.3244
99.7667
100.899
95.7934
85.063
69.7784
51.3444
31.3497
11.4109
-6.97336
-22.5444
-34.3714
-41.9016
-44.9741
-43.7994
-38.9132
-31.1081
-21.3527
-10.7039
-0.218089
9.13198
16.5295
21.3701
23.2985
22.2231
18.3078
11.9437
3.70569
-5.69934
-15.4835
-24.8219
-32.8853
-38.8608
-41.9656
-41.4613
-36.678
-27.0547
-12.1976
8.04569
33.5087
63.6395
97.4608
133.572
170.204
205.317
236.759
262.441
280.531
289.637
288.955
278.366
258.468
230.531
196.395
158.292
118.644
79.8322
43.9736
12.7322
-12.8195
-32.269
-45.8548
-54.3818
-59.0723
-61.373
-62.7441
-64.459
-67.4411
-72.158
-78.585
-86.2396
-94.2783
-101.639
-107.207
-109.985
-109.238
-104.602
-96.146
-84.3728
-70.1721
-54.7251
-39.3766
-25.4878
-14.2875
-6.73678
-3.42226
-4.48878
-9.61918
-18.0638
-28.7174
-40.2366
-51.1857
-60.1955
-66.1188
-68.1617
-65.9771
-59.7055
-49.9575
-37.7377
-24.319
-11.082
0.659913
9.82707
15.7102
18.0588
17.1104
13.5569
8.4536
3.08312
-1.20711
-3.17277
-1.82508
3.45027
12.8201
25.9829
42.1996
60.3707
79.1481
97.07
112.703
124.783
132.33
134.748
131.877
124.018
111.904
96.6393
79.5974
62.2964
46.2539
32.8421
23.1568
17.9121
17.3758
21.349
29.1952
39.9119
52.2377
64.7808
76.1555
85.1107
90.6381
92.0511
89.0281
81.6194
70.2211
55.5211
38.4258
19.9749
1.25434
-16.6871
-32.9105
-46.6447
-57.3278
-64.6289
-68.4519
-68.9221
-66.3573
-61.2284
-54.1124
-45.6437
-36.4678
-27.201
-18.3987
-10.5335
-3.98233
0.978809
4.17423
5.52536
5.04634
2.84005
-0.905105
-5.91824
-11.8505
-18.2825
-24.7373
-30.7
-35.6442
-39.0654
-40.5199
-39.665
-36.2977
-30.3874
-22.0983
-11.7974
-0.0472002
12.4213
24.7528
36.0285
45.3406
51.8725
54.9803
54.2647
49.6259
41.2946
29.8321
16.0988
1.19159
-13.6463
-27.1338
-38.0695
-45.4465
-48.5521
-47.0424
-40.9827
-30.8497
-17.494
-2.06554
14.0908
29.5599
42.9894
53.2168
59.3792
60.9925
57.9936
50.739
39.9616
26.6896
12.1351
-2.43265
-15.8185
-27.0189
-35.3142
-40.3237
-42.0198
-40.6981
-36.9128
-31.3852
-24.899
-18.1991
-11.9042
-6.44629
-2.04227
1.30086
3.75068
5.59157
7.15496
8.7492
10.6
12.81
15.3432
18.0341
20.6211
22.7951
24.257
24.7742
24.2261
22.6334
20.1644
17.1198
13.8948
10.9271
8.63548
7.35959
7.3094
8.53114
10.8953
14.1084
17.7461
21.3038
24.2576
26.1266
26.5287
25.2235
22.1365
17.3621
11.1479
3.86149
-4.05345
-12.1262
-19.9066
-27.005
-33.122
-38.0645
-41.7489
-44.1931
-45.5005
-45.8383
-45.4154
-44.4594
-43.1965
-41.8324
-40.5358
-39.4205
-38.5281
-37.8082
-37.0976
-36.1012
-34.3786
-31.343
-26.2804
-18.395
-6.88556
8.9484
29.5799
55.1222
85.2135
118.943
154.837
190.93
224.899
254.279
276.706
290.172
293.246
285.236
266.273
237.303
200.003
156.626
109.807
62.3405
16.9587
-23.8733
-58.1355
-84.3881
-101.856
-110.46
-110.788
-104.013
-91.7612
-75.9452
-58.5771
-41.5799
-26.6167
-14.9562
-7.38725
-4.18877
-5.15814
-9.69001
-16.8943
-25.7363
-35.1813
-44.3238
-52.4873
-59.2844
-64.63
-68.7118
-71.9229
-74.7682
-77.7588
-81.3083
-85.6462
-90.7591
-96.3692
-101.953
-106.797
-110.088
-111.021
-108.914
-103.313
-94.0706
-81.3924
-65.8385
-48.2841
-29.8404
-11.7475
4.75065
18.5344
28.7247
34.7763
36.5351
34.2552
28.5714
20.4311
10.9924
1.50019
-6.84485
-13.0107
-16.2365
-16.1021
-12.5582
-5.91441
3.2122
13.9787
25.4191
36.5539
46.4941
54.5284
60.1839
63.2562
63.8076
62.1361
58.7216
54.1566
49.0722
44.0657
39.6408
36.1636
33.8381
32.7034
32.6483
33.442
34.773
36.2936
37.6612
38.5744
38.7985
38.1794
36.6452
34.1978
30.8952
26.83
22.1057
16.8168
11.0342
4.79904
-1.87274
-8.97721
-16.5008
-24.3938
-32.5438
-40.7537
-48.7295
-56.0832
-62.353
-67.0417
-69.6708
-69.8435
-67.3096
-62.0216
-54.1728
-44.2084
-32.8065
-20.8267
-9.23307
1.00289
9.00477
14.0878
15.8365
14.1519
9.26409
1.70613
-7.746
-18.1598
-28.5479
-37.9715
-45.6339
-50.9519
-53.599
-53.516
-50.8918
-46.1169
-39.7202
-32.2965
-24.436
-16.6629
-9.39027
-2.89486
2.68851
7.35392
11.1976
14.382
17.0969
19.5216
21.792
23.9765
26.06
27.9388
29.4242
30.2576
30.1337
28.7345
25.7706
21.0273
14.4108
5.98831
-3.98551
-15.0615
-26.6131
-37.878
-48.0226
-56.2223
-61.7487
-64.0531
-62.8355
-58.09
-50.1197
-39.519
-27.124
-13.9372
-1.03476
10.5337
19.84
26.1587
29.0269
28.2776
24.0463
16.7516
7.05351
-4.20679
-16.0782
-27.5777
-37.7675
-45.8263
-51.1085
-53.1893
-51.8916
-47.2949
-39.7267
-29.7356
-18.0489
-5.51679
6.95473
18.4766
28.2509
35.64
40.2237
41.8382
40.593
36.8612
31.2438
24.5091
17.5136
11.1091
6.04758
2.89214
1.94414
3.19614
6.31664
10.6708
15.3768
19.3948
21.639
21.1041
16.9899
8.81153
-3.5179
-19.644
-38.7724
-59.7158
-80.9842
-100.909
-117.791
-130.056
-136.405
-135.95
-128.31
-113.66
-92.7313
-66.7449
-37.2902
-6.15886
24.8488
54.1175
80.3849
102.858
121.262
135.812
147.112
156.003
163.376
169.988
176.31
182.427
188.022
192.412
194.673
193.79
188.836
179.137
164.405
144.818
121.033
94.1355
65.5389
36.834
9.62439
-14.6399
-34.8066
-50.1276
-60.3168
-65.5537
-66.4361
-63.8894
-59.0453
-53.1065
-47.2137
-42.3308
-39.1613
-38.1035
-39.2472
-42.4079
-47.1901
-53.0683
-59.4718
-65.8598
-71.7779
-76.8897
-80.9807
-83.9416
-85.735
-86.3581
-85.8102
-84.0731
-81.1098
-76.8817
-71.3803
-64.666
-56.9041
-48.3885
-39.5444
-30.9059
-23.0686
-16.6211
-12.0654
-9.73767
-9.74175
-11.9083
-15.7878
-20.6812
-25.7085
-29.9058
-32.3407
-32.2297
-29.0418
-22.573
-12.9813
-0.777179
13.2315
28.0305
42.5164
55.6222
66.4375
74.3058
78.8881
80.187
78.5278
74.5032
68.8891
62.5445
56.308
50.9057
46.8788
44.5401
43.9615
44.9921
47.3004
50.4352
53.8937
57.1876
59.9002
61.7251
62.4855
62.1323
60.7232
58.3873
55.2824
51.5516
47.287
42.5068
37.1498
31.0899
24.1678
16.2372
7.21619
-2.86298
-13.8157
-25.2867
-36.7562
-47.5733
-57.015
-64.3641
-68.9984
-70.4788
-68.6246
-63.5643
-55.7524
-45.9465
-35.1447
-24.4868
-15.1316
-8.1215
-4.25393
-3.97563
-7.31562
-13.8678
-22.8274
-33.0792
-43.3253
-52.239
-58.6222
-61.5474
-60.4658
-55.2684
-46.2932
-34.2795
-20.277
-5.52197
8.70165
21.2009
30.9941
37.401
40.0944
39.1099
34.8172
27.8592
19.0689
9.37568
-0.287631
-9.06796
-16.2574
-21.3375
-24.0019
-24.1591
-21.9194
-17.5719
-11.5544
-4.42173
3.18843
10.5915
17.096
22.0492
24.888
25.1931
22.7399
17.5393
9.85876
0.218162
-10.645
-21.8395
-32.408
-41.429
-48.1189
-51.9223
-52.5761
-50.1401
-44.9871
-37.7562
-29.2725
-20.4462
-12.1627
-5.1791
-0.0391398
2.9819
3.89715
2.9913
0.770492
-2.11332
-4.95289
-7.07889
-7.94389
-7.18678
-4.67045
-0.489123
5.05387
11.4937
18.2692
24.7972
30.5442
35.0884
38.164
39.6823
39.7307
38.55
36.4953
33.9864
31.4554
29.298
27.8331
27.2756
27.7221
29.1507
31.4311
34.3423
37.595
40.8547
43.7648
45.9676
47.1255
46.9404
45.1738
41.6663
36.356
29.2934
20.6506
10.7222
-0.0840924
-11.2685
-22.2714
-32.5143
-41.4455
-48.5869
-53.5752
-56.1933
-56.3867
-54.2638
-50.0772
-44.1882
-37.0148
-28.969
-20.3859
-11.4555
-2.16527
7.73476
18.73
31.4954
46.7999
65.3692
87.7209
113.998
143.83
176.256
209.721
242.171
271.223
294.41
309.456
314.548
308.577
291.297
263.397
226.466
182.853
135.455
87.4289
41.8934
1.63224
-31.1573
-55.0474
-69.4773
-74.7586
-71.9932
-62.9168
-49.6904
-34.6632
-20.1336
-8.13238
-0.246756
2.49977
-0.294008
-8.41082
-21.0755
-37.0622
-54.8357
-72.7122
-89.0239
-102.275
-111.273
-115.23
-113.818
-107.185
-95.9209
-80.9862
-63.6081
-45.1552
-27.0065
-10.4257
3.5436
14.1548
20.9985
24.0065
23.4209
19.7359
13.6225
5.84723
-2.80389
-11.5858
-19.8341
-26.9819
-32.5571
-36.1661
-37.4749
-36.1951
-32.0834
-24.9574
-14.7262
-1.43179
14.7091
33.2714
53.606
74.8478
95.9501
115.743
133.015
146.598
155.468
158.835
156.226
147.545
133.126
113.738
90.5708
65.1726
39.3546
15.0579
-5.80371
-21.5108
-30.6986
-32.494
-26.6137
-13.4132
6.11917
30.4248
57.4901
85.0087
110.577
131.909
147.051
154.576
153.734
144.542
127.793
104.992
78.2037
49.8403
22.4061
-1.76945
-20.7793
-33.3347
-38.8878
-37.6642
-30.6054
-19.229
-5.42701
8.77102
21.4389
30.9705
36.2455
36.729
32.4954
24.1784
12.8592
-0.0911206
-13.1921
-25.0347
-34.4403
-40.5816
-43.0526
-41.8844
-37.5077
-30.6718
-22.3319
-13.521
-5.22267
1.73916
6.78291
9.61536
10.2388
8.92162
6.13854
2.491
-1.38115
-4.88461
-7.54354
-9.04873
-9.28041
-8.30398
-6.34185
-3.72699
-0.846262
1.9179
4.2396
5.88853
6.75214
6.83901
6.265
5.22547
3.95887
2.70753
1.68148
1.02979
0.822657
1.04507
1.60171
2.33114
3.02676
3.46198
3.41708
2.70567
1.19895
-1.15431
-4.31387
-8.14222
-12.4087
-16.8044
-20.9683
-24.5218
-27.1101
-28.4436
-28.3365
-26.7346
-23.7293
-19.5543
-14.5645
-9.19805
-3.92699
0.798563
4.60475
7.23988
8.60554
8.7685
7.95135
6.50291
4.85181
3.4493
2.70856
2.94867
4.35061
6.93127
10.5388
14.87
19.5074
23.9707
27.7763
30.4964
31.8106
31.5427
29.6794
26.3677
21.893
16.6413
11.0503
5.55734
0.549076
-3.67899
-6.95045
-9.21981
-10.568
-11.1834
-11.3315
-11.3176
-11.448
-11.9933
-13.159
-15.0653
-17.7369
-21.1047
-25.0155
-29.249
-33.5386
-37.5908
-41.1031
-43.7757
-45.3174
-45.4475
-43.8937
-40.3913
-34.6856
-26.5403
-15.7543
-2.18744
14.209
33.3579
55.0246
78.7927
104.051
129.996
155.651
179.904
201.569
219.455
232.464
239.685
240.497
234.65
222.319
204.118
181.057
154.449
125.778
96.5391
68.0805
41.4703
17.4108
-3.78883
-22.1765
-38.0688
-51.9265
-64.2179
-75.2947
-85.3023
-94.1372
-101.459
-106.753
-109.426
-108.928
-104.863
-97.0931
-85.796
-71.4848
-54.9825
-37.3558
-19.8194
-3.62279
10.0659
20.2659
26.2704
27.7044
24.5528
17.1563
6.17952
-7.44631
-22.5986
-38.0521
-52.5735
-65.0163
-74.4087
-80.0288
-81.4592
-78.6196
-71.7703
-61.4882
-48.6151
-34.1828
-19.3211
-5.15802
7.2798
17.1559
23.8933
27.2186
27.1756
24.11
18.6265
11.525
3.7236
-3.82319
-10.2028
-14.6133
-16.4184
-15.1858
-10.7094
-3.01619
7.64109
20.8027
35.8311
51.9478
68.2776
83.8971
97.8876
109.389
117.651
122.088
122.318
118.202
109.872
97.7435
82.5236
65.195
46.9858
29.3119
13.6888
1.60966
-5.60708
-6.98915
-2.07863
8.93216
25.129
44.8947
66.0326
85.9893
102.151
112.174
114.294
107.568
92.012
68.6109
39.2013
6.25216
-27.4264
-59.0015
-85.9221
-106.173
-118.453
-122.259
-117.882
-106.316
-89.0986
-68.1131
-45.3687
-22.7913
-2.04337
15.6084
29.3659
38.9109
44.358
46.1601
44.9851
41.5817
36.6566
30.7799
24.3321
17.4962
10.2948
2.65918
-5.48133
-14.1103
-23.0518
-31.9303
-40.1729
-47.0566
-51.7964
-53.6617
-52.1027
-46.8662
-38.0793
-26.2839
-12.4134
2.29068
16.4126
28.5303
37.3939
42.0898
42.1656
37.6966
29.2826
17.9738
5.13414
-7.73796
-19.2064
-28.0835
-33.5782
-35.3854
-33.704
-29.1844
-22.8124
-15.7524
-9.17063
-4.06758
-1.143
-0.710793
-2.67465
-6.5643
-11.6243
-16.9399
-21.5803
-24.7373
-25.8416
-24.6385
-21.2162
-15.9829
-9.59806
-2.86794
3.37701
8.40602
11.6942
12.9963
12.3769
10.1947
7.0432
3.65762
0.803112
-0.839047
-0.769792
1.25942
5.21773
10.8082
17.5191
24.7019
31.6628
37.7507
42.429
45.3221
46.2331
45.1343
42.1377
37.455
31.355
24.1277
16.0598
7.42333
-1.52404
-10.5306
-19.3397
-27.6812
-35.269
-41.8081
-47.0104
-50.617
-52.425
-52.3131
-50.2616
-46.364
-40.8254
-33.9487
-26.1061
-17.7
-9.11398
-0.660591
7.46802
15.2381
22.7927
30.4441
38.6355
47.8752
58.648
71.3168
86.0283
102.641
120.689
139.387
157.69
174.384
188.212
198.008
202.813
201.976
195.202
182.573
164.513
141.735
115.162
85.8514
54.9125
23.4494
-7.48467
-36.9143
-63.9551
-87.8197
-107.824
-123.397
-134.102
-139.669
-140.022
-135.319
-125.969
-112.641
-96.249
-77.9058
-58.8632
-40.4293
-23.8769
-10.3509
-0.781262
4.1875
4.24812
-0.542772
-9.76363
-22.653
-38.159
-55.0116
-71.8123
-87.1382
-99.6524
-108.214
-111.974
-110.46
-103.62
-91.839
-75.9186
-57.0095
-36.5147
-15.9646
3.12357
19.3877
31.7481
39.5076
42.413
40.671
34.9188
26.153
15.6261
4.72324
-5.16863
-12.7866
-17.1014
-17.4021
-13.3523
-5.01206
7.17118
22.4037
39.613
57.5376
74.8339
90.1917
102.452
110.716
114.436
113.478
108.146
99.1656
87.6182
74.8402
62.2855
51.3726
43.3287
39.0514
39.0024
43.1483
50.9557
61.4443
73.2903
84.9721
94.9402
101.791
104.428
102.183
94.8964
82.9332
67.1426
48.7624
29.2805
10.2703
-6.78095
-20.63
-30.4046
-35.6845
-36.5292
-33.4504
-27.3349
-19.3291
-10.7012
-2.6968
3.59238
7.33416
8.0253
5.5203
0.0209844
-7.96686
-17.7009
-28.2837
-38.7481
-48.141
-55.5988
-60.4128
-62.0826
-60.3549
-55.2478
-47.0556
-36.3345
-23.8646
-10.5903
2.45987
14.2676
23.9243
30.7252
34.2445
34.3826
31.3744
25.7596
18.3142
9.95405
1.62286
-5.82097
-11.7018
-15.5962
-17.3654
-17.148
-15.3154
-12.3989
-8.99948
-5.69662
-2.96732
-1.12854
-0.30904
-0.452749
-1.35003
-2.68918
-4.11771
-5.30254
-5.97976
-5.98753
-5.27966
-3.92065
-2.06609
0.0663641
2.22952
4.17766
5.69214
6.59953
6.7819
6.18041
4.79421
2.67663
-0.0693877
-3.2962
-6.81654
-10.4098
-13.8306
-16.8197
-19.1184
-20.4848
-20.7105
-19.6384
-17.1769
-13.3125
-8.11868
-1.75949
5.51205
13.362
21.3905
29.1536
36.1914
42.0594
46.3632
48.7904
49.1395
47.3412
43.4705
37.748
30.5292
22.2826
13.5572
4.94142
-2.98262
-9.68706
-14.7438
-17.8645
-18.9312
-18.0164
-15.3893
-11.5081
-6.99516
-2.59637
0.877841
2.62617
1.94224
-1.69414
-8.52832
-18.455
-30.9663
-45.1337
-59.6343
-72.825
-82.8675
-87.8949
-86.2086
-76.4851
-57.9678
-30.6188
4.79209
46.6802
92.7272
140.049
185.434
225.632
257.652
279.04
288.11
284.09
267.178
238.505
200.013
154.263
104.199
52.8946
3.30337
-41.9603
-80.7959
-111.733
-133.983
-147.43
-152.558
-150.341
-142.099
-129.343
-113.626
-96.4191
-79.0145
-62.4696
-47.5866
-34.9227
-24.8227
-17.4611
-12.8846
-11.0454
-11.8228
-15.0317
-20.423
-27.6802
-36.42
-46.1998
-56.5358
-66.9291
-76.8959
-85.9981
-93.8654
-100.208
-104.813
-107.537
-108.28
-106.97
-103.546
-97.9555
-90.1639
-80.1813
-68.0954
-54.1085
-38.5673
-21.9772
-4.9955
11.6015
26.975
40.2988
50.8451
58.0674
61.6708
61.6582
58.3443
52.3333
44.4632
35.7202
27.1347
19.6709
14.1248
11.0419
10.6673
12.9325
17.4814
23.7319
30.9631
38.4174
45.4007
51.3703
55.9954
59.1852
61.0818
62.0201
62.4629
62.9207
63.8692
65.6743
68.5358
72.4538
77.2222
82.4476
87.5895
92.018
95.0805
96.1728
94.8054
90.6609
83.6348
73.8562
61.6863
47.6927
32.6036
17.2446
2.46638
-10.9306
-22.2647
-31.0289
-36.9273
-39.8896
-40.0627
-37.7825
-33.5298
-27.879
-21.4441
-14.832
-8.60586
-3.26193
0.782683
3.19476
3.72827
2.23144
-1.33957
-6.90056
-14.2172
-22.8875
-32.3386
-41.8435
-50.5653
-57.6278
-62.2073
-63.6363
-61.5024
-55.7265
-46.606
-34.8106
-21.3284
-7.36627
5.7828
16.8879
24.9224
29.1803
29.3514
25.5465
18.271
8.35407
-3.15455
-15.1034
-26.3585
-35.9079
-42.9429
-46.9099
-47.5352
-44.8241
-39.0418
-30.6809
-20.4186
-9.06793
2.47719
13.3028
22.5397
29.4308
33.3957
34.0883
31.4393
25.6793
17.3352
7.19974
-3.72815
-14.3262
-23.45
-30.0423
-33.2397
-32.4648
-27.4945
-18.4951
-6.0217
9.02105
25.4519
41.915
57.0021
69.3854
77.9483
81.9025
80.8781
74.9758
64.7718
51.2722
35.818
19.9491
5.24165
-6.8641
-15.2242
-19.1201
-18.3391
-13.1968
-4.49547
6.57509
18.5827
30.0255
39.5098
45.9104
48.4939
46.989
41.5992
32.9561
22.0236
9.96626
-1.99867
-12.7472
-21.3741
-27.2837
-30.2373
-30.3517
-28.0542
-23.9963
-18.9405
-13.6311
-8.66478
-4.376
-0.754359
2.59287
6.42128
11.7675
19.8076
31.6686
48.2149
69.8421
96.3104
126.652
159.176
191.577
221.15
245.074
260.742
266.084
259.837
241.727
212.539
174.053
128.874
80.1574
31.2905
-14.4499
-54.2073
-85.7958
-107.863
-119.958
-122.496
-116.652
-104.178
-87.1926
-67.9525
-48.6415
-31.1871
-17.1229
-7.50122
-2.85771
-3.22233
-8.17051
-16.9036
-28.349
-41.2696
-54.3754
-66.4287
-76.3385
-83.2395
-86.5516
-86.0158
-81.7061
-74.0142
-63.6082
-51.3686
-38.3054
-25.4644
-13.8311
-4.24112
2.69395
6.6371
7.54913
5.68218
1.54512
-4.15434
-10.5836
-16.8659
-22.1596
-25.7269
-26.9869
-25.5505
-21.2373
-14.0761
-4.29365
7.70652
21.3712
36.0303
50.9336
65.2933
78.3316
89.3314
97.691
102.975
104.959
103.659
99.3441
92.5225
83.9039
74.3388
64.7403
55.996
48.8805
43.9792
41.6314
41.9004
44.5744
49.1966
55.1211
61.5874
67.8048
73.0345
76.6636
78.2603
77.6076
74.713
69.7948
63.2497
55.6042
47.4587
39.4259
32.0713
25.8596
21.1098
17.9643
16.3731
16.0966
16.7262
17.7237
18.4751
18.3562
16.8035
13.3823
7.84648
0.179526
-9.38658
-20.3801
-32.1259
-43.8061
-54.5397
-63.4724
-69.8667
-73.1824
-73.1386
-69.7496
-63.3306
-54.4716
-43.9809
-32.8059
-21.9359
-12.3016
-4.67867
0.390502
2.65008
2.15133
-0.760984
-5.49474
-11.2832
-17.2751
-22.6319
-26.6191
-28.6833
-28.5049
-26.0221
-21.4257
-15.1249
-7.69159
0.209796
7.89834
14.7482
20.2485
24.0444
25.9577
25.9856
24.2802
21.1153
16.845
11.8614
6.55751
1.29861
-3.59589
-7.85987
-11.28
-13.6903
-14.9662
-15.0208
-13.8075
-11.3281
-7.64774
-2.91067
2.64485
8.67978
14.7592
20.3719
24.9654
27.9937
28.9728
27.5392
23.5029
16.8893
7.96545
-2.75517
-14.5301
-26.4291
-37.3966
-46.3335
-52.1916
-54.0738
-51.3309
-43.6468
-31.1005
-14.1979
6.13318
28.5882
51.5698
73.3067
91.998
105.971
113.836
114.631
107.926
93.8869
73.2906
47.4805
18.2714
-12.1914
-41.6058
-67.7066
-88.4616
-102.252
-108.021
-105.377
-94.6375
-76.8099
-53.5062
-26.8009
0.958834
27.372
50.212
67.6425
78.3989
81.9201
78.4157
68.8604
54.9162
38.7834
22.9927
10.1533
2.67932
2.51992
10.9227
28.2578
53.9274
86.3773
123.213
161.417
197.637
228.526
251.081
262.955
262.698
249.901
225.238
190.382
147.83
100.646
52.1488
5.59323
-36.1362
-70.7743
-96.8494
-113.767
-121.795
-121.966
-115.904
-105.602
-93.1803
-80.6515
-69.7184
-61.6222
-57.0561
-56.1472
-58.5028
-63.31
-69.4728
-75.7684
-81.0032
-84.1532
-84.4741
-81.5736
-75.4408
-66.4344
-55.2334
-42.7569
-30.0639
-18.2425
-8.29985
-1.06276
2.90144
3.33802
0.327118
-5.72565
-14.1288
-23.9703
-34.2027
-43.7392
-51.5533
-56.7729
-58.7597
-57.1683
-51.9787
-43.499
-32.3371
-19.3438
-5.53072
8.02977
20.3131
30.4496
37.8189
42.1197
43.4064
42.0864
38.8752
34.7128
30.6504
27.7209
26.8081
28.5335
33.1762
40.6346
50.4394
61.8117
73.7621
85.2139
95.1362
102.667
107.211
108.505
106.63
101.992
95.2544
87.2475
78.8589
70.9256
64.1379
58.9672
55.6255
54.0592
53.9752
54.8935
56.2179
57.3136
57.5833
56.5307
53.8082
49.2424
42.8402
34.7747
25.3582
15.0046
4.18798
-6.59916
-16.8838
-26.2444
-34.3352
-40.9027
-45.7942
-48.9595
-50.445
-50.3837
-48.9802
-46.4921
-43.2095
-39.4329
-35.4514
-31.5214
-27.8496
-24.5789
-21.7816
-19.4583
-17.5445
-15.9237
-14.4468
-12.9546
-11.3021
-9.38246
-7.14613
-4.6152
-1.88921
0.857711
3.38898
5.42639
6.67833
6.87344
5.79684
3.32574
-0.539378
-5.65247
-11.7124
-18.2697
-24.7528
-30.5115
-34.8787
-37.2419
-37.1189
-34.228
-28.5421
-20.3181
-10.0961
1.33638
13.0119
23.8761
32.8973
39.1786
42.0597
41.1957
36.6027
28.664
18.0961
5.87811
-6.84745
-18.8907
-29.1346
-36.6449
-40.761
-41.1556
-37.8611
-31.2601
-22.0418
-11.1321
0.398945
11.4402
20.9456
28.0337
32.0703
32.7281
30.0153
24.2711
16.1276
6.44185
-3.79553
-13.5641
-21.919
-28.0861
-31.5354
-32.0266
-29.62
-24.6544
-17.6955
-9.46126
-0.734562
7.72452
15.2576
21.368
25.7551
28.323
29.1612
28.5059
26.6861
24.0644
20.9804
17.7041
14.4042
11.1346
7.8396
4.37459
0.539651
-3.87963
-9.06908
-15.1454
-22.1224
-29.8863
-38.1831
-46.6183
-54.6701
-61.7162
-67.0736
-70.0492
-69.9964
-66.3744
-58.8005
-47.0917
-31.2887
-11.6612
11.3036
36.9256
64.362
92.6371
120.671
147.309
171.35
191.597
206.918
216.32
219.048
214.666
203.142
184.893
160.799
132.178
100.707
68.3101
37.0042
8.72407
-14.8611
-32.5197
-43.5952
-48.0891
-46.6731
-40.6232
-31.6788
-21.8415
-13.1364
-7.36648
-5.89203
-9.46438
-18.1356
-31.2562
-47.5607
-65.33
-82.6079
-97.446
-108.143
-113.454
-112.732
-106.01
-93.9811
-77.914
-59.4944
-40.6228
-23.1932
-8.87938
1.04502
5.83193
5.31787
-0.0877723
-9.47982
-21.5864
-34.9312
-48.0079
-59.4436
-68.134
-73.3363
-74.7111
-72.3158
-66.5518
-58.0796
-47.7141
-36.3162
-24.6936
-13.5225
-3.29619
5.69528
13.3587
19.7673
25.1153
29.6645
33.6927
37.4482
41.1177
44.8078
48.5421
52.2702
55.8876
59.2609
62.2546
64.7562
66.6957
68.0579
68.8854
69.2735
69.3573
69.2915
69.227
69.2855
69.5364
69.9775
70.525
71.0119
71.1983
70.7934
69.4867
66.9869
63.0646
57.5933
50.5841
42.208
32.8026
22.858
12.9831
3.85082
-3.87276
-9.61008
-12.9557
-13.7515
-12.1415
-8.59607
-3.8961
0.926864
4.69399
6.21841
4.46654
-1.27862
-11.2758
-25.2298
-42.2618
-60.9589
-79.5033
-95.8709
-108.075
-114.424
-113.757
-105.622
-90.3683
-69.1432
-43.7816
-16.6118
9.80366
32.9548
50.6623
61.3131
64.0238
58.7186
46.113
27.6142
5.15229
-19.0343
-42.633
-63.4846
-79.7831
-90.2277
-94.1162
-91.3745
-82.5239
-68.5924
-50.9848
-31.3258
-11.2946
7.53261
23.8164
36.553
45.1324
49.3517
49.3889
45.7428
39.1487
30.4822
20.662
10.5626
0.944388
-7.59337
-14.6349
-19.9476
-23.4633
-25.248
-25.4661
-24.3473
-22.1585
-19.1841
-15.7143
-12.0382
-8.43918
-5.19071
-2.54796
-0.736756
0.0606489
-0.279076
-1.80644
-4.48922
-8.20876
-12.7637
-17.8816
-23.2375
-28.4773
-33.2454
-37.2109
-40.0929
-41.6805
-41.8471
-40.5565
-37.8614
-33.8951
-28.856
-22.9882
-16.5602
-9.84419
-3.09797
3.44816
9.59915
15.1974
20.1209
24.2776
27.6006
30.0421
31.571
32.172
31.8486
30.6274
28.5632
25.7449
22.2988
18.3894
14.2167
10.0082
6.00839
2.46394
-0.393164
-2.36335
-3.29695
-3.11018
-1.79815
0.556205
3.77894
7.6088
11.7091
15.6889
19.132
21.6334
22.8389
22.4823
20.4162
16.6303
11.2543
4.54469
-3.14228
-11.387
-19.7456
-27.7845
-35.1039
-41.3465
-46.1912
-49.3339
-50.4625
-49.2349
-45.2668
-38.1371
-27.4151
-12.7083
6.27069
29.6271
57.205
88.519
122.71
158.535
194.404
228.462
258.71
283.172
300.057
307.94
305.902
293.644
271.539
240.631
202.573
159.504
113.885
68.3016
25.2521
-13.056
-44.8809
-69.0747
-85.1508
-93.2841
-94.2458
-89.2817
-79.9508
-67.9445
-54.9069
-42.2796
-31.1836
-22.3517
-16.1132
-12.4279
-10.9603
-11.1796
-12.4715
-14.2434
-16.0118
-17.4617
-18.4722
-19.1083
-19.5847
-20.2081
-21.3084
-23.1704
-25.9751
-29.7581
-34.3917
-39.5904
-44.9398
-49.9431
-54.0797
-56.8661
-57.9127
-56.9679
-53.9456
-48.9316
-42.171
-34.037
-24.987
-15.5105
-6.07599
2.91743
11.1777
18.5431
24.9887
30.6152
35.6217
40.2661
44.8192
49.5164
54.5161
59.8685
65.5012
71.2231
76.7467
81.7274
85.8133
88.7008
90.1867
90.2102
88.8778
86.4656
83.398
80.2034
77.4501
75.6713
75.2867
76.5324
79.4085
83.6543
88.7558
93.9888
98.4942
101.377
101.821
99.1942
93.1488
83.6781
71.1399
56.2306
39.9162
23.326
7.62412
-6.12475
-17.0785
-24.7121
-28.8712
-29.7793
-27.9968
-24.3388
-19.7639
-15.2473
-11.6573
-9.64944
-9.59237
-11.5331
-15.2057
-20.0801
-25.4436
-30.5042
-34.5012
-36.8101
-37.0286
-35.0339
-31.0047
-25.4056
-18.9344
-12.439
-6.81165
-2.87293
-1.2591
-2.32666
-6.08764
-12.1854
-19.9164
-28.2985
-36.1777
-42.3651
-45.7843
-45.6146
-41.4088
-33.1709
-21.3802
-6.95741
8.82553
24.483
38.4829
49.4242
56.2004
58.13
55.0367
47.2692
35.6602
21.429
6.04216
-8.95164
-22.0912
-32.1586
-38.3027
-40.1188
-37.6761
-31.4916
-22.4559
-11.7184
-0.548351
9.81458
18.3001
24.1227
26.8585
26.4747
23.3103
18.0107
11.4286
4.50273
-1.86629
-6.92792
-10.1672
-11.354
-10.5528
-8.09234
-4.50524
-0.444288
3.40958
6.43622
8.15092
8.25675
6.67033
3.52031
-0.878852
-6.0729
-11.527
-16.6913
-21.0646
-24.2507
-25.9998
-26.2322
-25.0407
-22.673
-19.4948
-15.9405
-12.4563
-9.44353
-7.20907
-5.92989
-5.63424
-6.20229
-7.3849
-8.8376
-10.165
-10.9702
-10.9033
-9.70361
-7.23258
-3.49224
1.37061
7.07578
13.2353
19.3906
25.0581
29.7777
33.1596
34.9245
34.9319
33.1945
29.8756
25.272
19.7823
13.866
7.998
2.6223
-1.88774
-5.26036
-7.34375
-8.11086
-7.65109
-6.15095
-3.86677
-1.09336
1.86736
4.73426
7.2685
9.28713
10.6681
11.3472
11.3092
10.5736
9.18015
7.17409
4.59564
1.47433
-2.1699
-6.318
-10.9351
-15.946
-21.2033
-26.4526
-31.2975
-35.1755
-37.3508
-36.9375
-32.9575
-24.4378
-10.5409
9.28529
35.158
66.6363
102.65
141.499
180.943
218.369
251.031
276.332
292.117
296.923
290.175
272.264
244.534
209.135
168.797
126.53
85.3046
47.7459
15.8824
-9.01958
-26.5233
-36.9858
-41.4331
-41.367
-38.5339
-34.6883
-31.3797
-29.788
-30.6227
-34.0926
-39.9418
-47.5407
-56.0151
-64.3917
-71.7403
-77.2945
-80.5372
-81.2447
-79.4884
-75.5986
-70.1015
-63.6404
-56.8928
-50.4953
-44.9833
-40.75
-38.025
-36.8727
-37.2038
-38.7988
-41.3368
-44.4276
-47.6436
-50.5509
-52.7379
-53.8412
-53.5679
-51.7145
-48.1804
-42.977
-36.2307
-28.1803
-19.1678
-9.62202
-0.0350347
9.07041
17.1806
23.8369
28.6837
31.5131
32.3006
31.2241
28.6627
25.1735
21.4455
18.237
16.3015
16.3105
18.7838
24.0318
32.1194
42.853
55.7914
70.2797
85.4994
100.531
114.421
126.249
135.195
140.593
141.983
139.15
132.151
121.318
107.253
90.7819
72.9066
54.7203
37.3207
21.7162
8.73914
-1.02303
-7.27333
-10.0203
-9.5631
-6.44781
-1.40262
4.74158
11.1349
16.9877
21.6373
24.596
25.5779
24.5033
21.4825
16.7838
10.7905
3.95178
-3.26413
-10.4131
-17.1082
-23.0422
-27.9979
-31.8489
-34.5501
-36.1239
-36.6416
-36.2066
-34.9376
-32.957
-30.3834
-27.329
-23.9007
-20.2045
-16.3508
-12.46
-8.66499
-5.1114
-1.95376
0.652298
2.56106
3.64996
3.83362
3.07687
1.40522
-1.08895
-4.24562
-7.84271
-11.6085
-15.2407
-18.4313
-20.8955
-22.4018
-22.7998
-22.0412
-20.1909
-17.4239
-14.0081
-10.2744
-6.5758
-3.24254
-0.539024
1.37124
2.44713
2.77456
2.55343
2.06853
1.6484
1.61789
2.25082
3.7292
6.11416
9.33231
13.1785
17.3341
21.397
24.9188
27.4442
28.5483
27.8685
25.1319
20.1776
12.976
3.64583
-7.53195
-20.1068
-33.4621
-46.8341
-59.3519
-70.098
-78.1878
-82.8601
-83.5688
-80.0602
-72.4259
-61.1175
-46.9198
-30.8828
-14.2198
1.8151
16.0539
27.5285
35.558
39.798
40.2501
37.2314
31.314
23.2432
13.8481
3.95629
-5.67932
-14.4337
-21.8414
-27.6073
-31.5991
-33.8267
-34.4128
-33.5622
-31.5298
-28.5952
-25.0406
-21.1364
-17.1308
-13.2437
-9.66298
-6.54018
-3.98513
-2.05822
-0.7607
-0.0248058
0.293315
0.414366
0.626813
1.26563
2.67867
5.1829
9.01569
14.2878
20.9464
28.7546
37.2935
45.9894
54.163
61.0974
66.1166
68.6628
68.3645
65.0856
58.9473
50.3224
39.8006
28.1291
16.1376
4.65509
-5.57128
-13.9447
-20.0688
-23.7729
-25.1121
-24.3426
-21.8773
-18.2265
-13.9338
-9.51137
-5.38424
-1.8475
0.960668
3.06888
4.66659
6.08467
7.76513
10.2231
14.0031
19.6329
27.575
38.1798
51.6414
67.9583
86.9041
108.011
130.57
153.653
176.159
196.879
214.588
228.143
236.596
239.29
235.94
226.675
212.036
192.916
170.465
145.944
120.586
95.4506
71.3254
48.6697
27.6171
8.02877
-10.4148
-28.1013
-45.3737
-62.4327
-79.27
-95.6365
-111.05
-124.84
-136.22
-144.38
-148.6
-148.346
-143.368
-133.763
-120.012
-102.97
-83.8162
-63.9616
-44.9275
-28.2036
-15.103
-6.63284
-3.39438
-5.52682
-12.7002
-24.1585
-38.8063
-55.3281
-72.323
-88.4401
-102.497
-113.571
-121.05
-124.649
-124.387
-120.538
-113.564
-104.036
-92.5645
-79.738
-66.0801
-52.0268
-37.9226
-24.0331
-10.568
2.29302
14.377
25.5039
35.4852
44.1356
51.2952
56.8589
60.805
63.2179
64.2985
64.3586
63.7985
63.0702
62.6285
62.8791
64.1288
66.5453
70.133
74.7275
80.0107
85.5442
90.8174
95.3045
98.5236
100.091
99.7664
97.476
93.3243
87.5789
80.6382
72.9831
65.1189
57.5157
50.5536
44.4826
39.3997
35.2486
31.8383
28.8807
26.0388
22.9794
19.423
15.1844
10.1989
4.53115
-1.63323
-8.01147
-14.2591
-20.0119
-24.9296
-28.7345
-31.2426
-32.3824
-32.2003
-30.8538
-28.5907
-25.7217
-22.585
-19.5117
-16.7918
-14.6474
-13.2144
-12.534
-12.5554
-13.1482
-14.1228
-15.2559
-16.3185
-17.1022
-17.4418
-17.2308
-16.429
-15.0619
-13.2113
-11.0002
-8.57256
-6.07286
-3.62637
-1.32397
0.787182
2.70581
4.4718
6.1553
7.84162
9.61399
11.5369
13.6421
15.9198
18.3154
20.7328
23.0435
25.1009
26.7568
27.879
28.3671
28.1653
27.2694
25.728
23.6372
21.129
18.3561
15.474
12.6226
9.91129
7.4077
5.13291
3.06301
1.13685
-0.731409
-2.63706
-4.66933
-6.89784
-9.36255
-12.0681
-14.9827
-18.0401
-21.145
-24.18
-27.0139
-29.5103
-31.5365
-32.9724
-33.7186
-33.7033
-32.8884
-31.2731
-28.8955
-25.8322
-22.1949
-18.1245
-13.7828
-9.34223
-4.97318
-0.831153
2.95576
6.29677
9.14373
11.4904
13.3649
14.8161
15.8965
16.6435
17.0646
17.1283
16.7638
15.8705
14.3365
12.0639
8.99623
5.14441
0.60659
-4.42258
-9.65501
-14.7255
-19.2204
-22.7147
-24.8146
-25.1995
-23.6589
-20.1207
-14.6669
-7.53666
0.885468
10.0947
19.5028
28.4836
36.425
42.7802
47.1163
49.1535
48.7909
46.1169
41.4011
35.07
27.6678
19.8061
12.1095
5.15986
-0.552459
-4.66859
-6.98811
-7.48233
-6.29398
-3.72414
-0.208125
3.71815
7.45932
10.4073
11.9912
11.727
9.26399
4.42486
-2.76537
-12.0622
-22.9983
-34.8921
-46.8684
-57.8876
-66.7847
-72.3198
-73.2443
-68.3864
-56.7588
-37.6832
-10.9239
23.1893
63.6713
108.849
156.401
203.492
246.973
283.659
310.637
325.563
326.925
314.226
288.072
250.133
203.013
150.012
94.8344
41.2546
-7.20466
-47.5633
-77.6135
-96.0719
-102.648
-98.0295
-83.7874
-62.2206
-36.1451
-8.64937
17.1682
38.4603
52.8718
58.7396
55.235
42.4329
21.2993
-6.40503
-38.299
-71.617
-103.485
-131.208
-152.533
-165.872
-170.437
-166.302
-154.357
-136.183
-113.853
-89.69
-66.0064
-44.8629
-27.8667
-16.034
-9.72911
-8.68011
-12.0663
-18.6604
-27.0051
-35.5998
-43.0761
-48.3394
-50.6656
-49.7445
-45.6684
-38.8758
-30.0577
-20.045
-9.68994
0.240674
9.1498
16.6623
22.6418
27.1722
30.5116
33.0255
35.1114
37.1262
39.3264
41.8305
44.606
47.485
50.2029
52.4559
53.967
54.5504
54.1637
52.939
51.1863
49.3688
48.0507
47.8254
49.2326
52.6756
58.3504
66.1946
75.8655
86.7494
98.0036
108.629
117.564
123.794
126.462
124.968
119.043
108.795
94.713
77.623
58.6172
38.9456
19.8929
2.65213
-11.7905
-22.7451
-29.873
-33.2017
-33.0992
-30.2125
-25.3807
-19.5329
-13.5845
-8.34459
-4.44362
-2.28799
-2.04395
-3.64869
-6.8438
-11.2241
-16.2937
-21.5231
-26.4002
-30.4723
-33.3766
-34.8597
-34.7847
-33.1316
-29.9881
-25.5378
-20.0433
-13.8286
-7.26045
-0.728795
5.37146
10.6591
14.7846
17.4492
18.424
17.5702
14.8598
10.3931
4.41101
-2.70196
-10.4291
-18.1488
-25.1798
-30.8427
-34.5322
-35.794
-34.3924
-30.3605
-24.0196
-15.9617
-6.99402
1.95121
9.92913
16.1023
19.8503
20.8524
19.1299
15.0424
9.23721
2.5598
-4.06126
-9.73848
-13.7409
-15.585
-15.0898
-12.3893
-7.90366
-2.27421
3.72698
9.29937
13.7144
16.4014
17.0086
15.4338
11.8221
6.53381
0.0879477
-6.90942
-13.8418
-20.1534
-25.4057
-29.3124
-31.7515
-32.7527
-32.4675
-31.1268
-28.9954
-26.3301
-23.3491
-20.2148
-17.0328
-13.8628
-10.7404
-7.70161
-4.80589
-2.15122
0.121902
1.8401
2.81942
2.89678
1.96539
0.00719175
-2.88386
-6.49309
-10.4937
-14.4727
-17.9712
-20.5337
-21.7607
-21.3549
-19.1576
-15.1679
-9.54245
-2.5771
5.32847
13.7162
22.1191
30.1065
37.3198
43.4933
48.4591
52.1387
54.5228
55.6478
55.5728
54.3624
52.0794
48.7876
44.5628
39.5086
33.7738
27.5635
21.1435
14.8314
8.97717
3.93209
0.0103136
-2.55186
-3.63326
-3.25565
-1.59691
1.0139
4.12064
7.18222
9.62864
10.9253
10.6381
8.49186
4.41503
-1.43506
-8.66867
-16.6824
-24.6976
-31.8142
-37.0747
-39.5324
-38.3215
-32.7244
-22.2356
-6.61874
14.0453
39.3259
68.4336
100.24
133.336
166.124
196.941
224.199
246.51
262.799
272.354
274.847
270.294
258.992
241.447
218.303
190.307
158.286
123.155
85.9331
47.7604
9.89273
-26.3252
-59.516
-88.3515
-111.652
-128.49
-138.287
-140.885
-136.584
-126.147
-110.751
-91.9023
-71.32
-50.7935
-32.0339
-16.532
-5.43569
0.538488
1.15356
-3.34536
-12.2733
-24.5875
-39
-54.1091
-68.5361
-81.0521
-90.6844
-96.7901
-99.0928
-97.679
-92.9574
-85.5876
-76.3884
-66.2358
-55.965
-46.2851
-37.7165
-30.556
-24.8717
-20.5249
-17.2152
-14.5404
-12.0628
-9.37318
-6.14461
-2.1701
2.61915
8.15526
14.2532
20.6436
27.0144
33.0532
38.4875
43.1146
46.821
49.5877
51.483
52.6447
53.255
53.5124
53.6049
53.688
53.8703
54.2086
54.7114
55.3507
56.078
56.8411
57.598
58.3237
59.0092
59.6529
60.2465
60.7602
61.1303
61.2546
60.9955
60.1932
58.6855
56.3323
53.0385
48.7734
43.5813
37.5825
30.9638
23.9605
16.8328
9.83927
3.21188
-2.8652
-8.27059
-12.9537
-16.9356
-20.3032
-23.1975
-25.7961
-28.2912
-30.8641
-33.6572
-36.7476
-40.1246
-43.6744
-47.1774
-50.3174
-52.7073
-53.926
-53.5667
-51.2902
-46.8772
-40.2728
-31.6179
-21.2604
-9.7457
2.21726
13.8092
24.1705
32.4795
38.0318
40.3127
39.053
34.2646
26.2494
15.5808
3.05882
-10.3568
-23.6306
-35.7419
-45.7756
-53.0009
-56.9324
-57.3667
-54.3911
-48.3647
-39.8746
-29.6731
-18.6026
-7.51717
2.79102
11.6542
18.574
23.2457
25.563
25.6017
23.5891
19.8627
14.8236
8.89249
2.47036
-4.08917
-10.4964
-16.5298
-22.0305
-26.8891
-31.0308
-34.3999
-36.9496
-38.637
-39.4245
-39.2873
-38.2234
-36.2646
-33.4854
-30.0072
-25.9959
-21.6537
-17.2047
-12.8769
-8.88247
-5.39933
-2.55627
-0.4235
0.990418
1.73525
1.91041
1.65246
1.12088
0.483848
-0.0947665
-0.466705
-0.509344
-0.135025
0.699845
1.98622
3.65567
5.57759
7.56307
9.37783
10.7654
11.4803
11.3276
10.2053
8.14022
5.31214
2.05808
-1.14687
-3.73292
-5.09968
-4.69324
-2.08591
2.95335
10.409
19.998
31.183
43.2179
55.2223
66.2735
75.5064
82.2061
85.8829
86.3212
83.5956
78.0543
70.2726
60.9835
50.9935
41.0951
31.9859
24.2013
18.0712
13.7003
10.9761
9.60086
9.14228
9.09765
8.96233
8.29514
6.77331
4.23128
0.679682
-3.69607
-8.55552
-13.4364
-17.7946
-21.0438
-22.5894
-21.8542
-18.297
-11.429
-0.834706
13.7972
32.6282
55.6121
82.4299
112.43
144.585
177.491
209.399
238.319
262.157
278.913
286.883
284.871
272.362
249.631
217.779
178.674
134.801
89.0415
44.4016
3.72165
-30.5936
-56.7969
-73.9443
-81.9495
-81.5447
-74.1542
-61.7014
-46.3734
-30.3741
-15.6943
-3.92401
3.87365
7.2187
6.19891
1.39177
-6.26128
-15.6087
-25.4494
-34.6799
-42.4118
-48.0494
-51.3207
-52.2663
-51.1903
-48.5849
-45.0408
-41.157
-37.4597
-34.3404
-32.0181
-30.5265
-29.7271
-29.341
-28.9973
-28.289
-26.831
-24.3132
-20.543
-15.4742
-9.21752
-2.03402
5.68911
13.4766
20.8132
27.1974
32.1937
35.4805
36.886
36.4116
34.2376
30.7128
26.3269
21.6695
17.3795
14.0875
12.36
12.647
15.2405
20.2453
27.5668
36.9152
47.8265
59.6986
71.839
83.5203
94.0399
102.777
109.247
113.138
114.342
112.96
109.287
103.781
97.0087
89.5803
82.0794
74.9973
68.6808
63.3004
58.8436
55.1342
51.8737
48.698
45.2421
41.2007
36.3785
30.7216
24.327
17.4297
10.3713
3.5533
-2.61464
-7.76691
-11.626
-14.0337
-14.967
-14.5358
-12.9667
-10.5731
-7.71743
-4.77102
-2.07462
0.0942854
1.54516
2.18675
2.02759
1.16555
-0.231742
-1.95254
-3.76953
-5.46766
-6.86828
-7.8471
-8.34441
-8.36717
-7.98319
-7.30883
-6.49218
-5.69396
-5.06887
-4.74928
-4.83309
-5.37635
-6.39061
-7.84424
-9.66658
-11.7538
-13.9753
-16.1809
-18.2071
-19.885
-21.0481
-21.542
-21.2358
-20.0353
-17.8974
-14.844
-10.9744
-6.47143
-1.60136
3.29581
7.82625
11.5719
14.1277
15.1432
14.3642
11.6694
7.09613
0.852788
-6.68731
-15.0098
-23.5001
-31.4974
-38.3564
-43.509
-46.5199
-47.1292
-45.2773
-41.1086
-34.9557
-27.3041
-18.7443
-9.91492
-1.44504
6.09904
12.2572
16.7054
19.27
19.9274
18.7899
16.0806
12.1029
7.20704
1.75904
-3.88557
-9.40052
-14.4997
-18.941
-22.524
-25.0854
-26.4939
-26.6482
-25.4799
-22.9616
-19.1206
-14.0547
-7.94622
-1.0708
6.20496
13.4388
20.1436
25.8309
30.065
32.5185
33.0241
31.6108
28.5206
24.197
19.247
14.3768
10.3088
7.6896
7.00195
8.49106
12.1184
17.5491
24.1777
31.1884
37.6452
42.5995
45.2019
44.804
41.038
33.863
23.5743
10.7743
-3.68832
-18.8044
-33.5014
-46.7399
-57.5987
-65.3385
-69.4392
-69.6098
-65.7744
-58.0387
-46.647
-31.938
-14.3067
5.81999
27.9905
51.7181
76.4556
101.562
126.271
149.674
170.724
188.276
201.164
208.297
208.792
202.093
188.089
167.182
140.315
108.939
74.906
40.3186
7.3301
-22.0731
-46.28
-64.2282
-75.514
-80.4221
-79.8688
-75.2629
-68.3053
-60.7538
-54.1891
-49.8135
-48.3121
-49.7929
-53.8118
-59.4744
-65.5973
-70.9009
-74.2069
-74.6098
-71.6022
-65.1379
-55.6296
-43.8855
-31
-18.2139
-6.76864
2.2293
7.91774
9.75225
7.54122
1.44459
-8.05749
-20.2179
-34.089
-48.5954
-62.6074
-75.0118
-84.7795
-91.0291
-93.0857
-90.5341
-83.262
-71.489
-55.7745
-37.0003
-16.3225
4.90603
25.2407
43.2684
57.7367
67.6764
72.501
72.0707
66.7125
57.1917
44.6368
30.4258
16.0466
2.94737
-7.60576
-14.6485
-17.6019
-16.3124
-11.0446
-2.4311
8.61445
21.0079
33.6163
45.3755
55.3918
63.0179
67.8958
69.9663
69.4474
66.7866
62.5954
57.5754
52.4428
47.8603
44.38
42.4008
42.1399
43.6196
46.6652
50.9138
55.8327
60.7469
64.8786
67.3992
67.4967
64.4559
57.7494
47.1298
32.7104
15.0193
-4.98804
-25.97
-46.2972
-64.2047
-77.9824
-86.1818
-87.8113
-82.4906
-70.5412
-52.9954
-31.5178
-8.24699
14.4259
34.1142
48.6968
56.5504
56.7243
49.0381
34.0925
13.1945
-11.79
-38.6369
-64.9926
-88.605
-107.533
-120.315
-126.078
-124.591
-116.243
-101.978
-83.1684
-61.4648
-38.6299
-16.3734
3.79318
20.6696
33.4378
41.6882
45.4
44.8848
40.7027
33.5642
24.2327
13.441
1.83021
-10.0818
-21.9017
-33.3372
-44.1548
-54.1318
-63.0142
-70.4899
-76.1861
-79.6927
-80.6093
-78.6075
-73.4999
-65.3015
-54.2728
-40.9364
-26.0615
-10.6165
4.30588
17.5831
28.1655
35.1766
37.998
36.3311
30.2286
20.0933
6.6452
-9.13928
-26.1091
-43.0339
-58.7038
-72.0256
-82.106
-88.3166
-90.3348
-88.1574
-82.0877
-72.696
-60.76
-47.1892
-32.9421
-18.9434
-6.00877
5.21564
14.2946
21.0228
25.4211
27.7113
28.2735
27.5906
26.187
24.5668
23.1595
22.2767
22.0863
22.6032
23.7004
25.1348
26.5875
27.7102
28.174
27.7132
26.1594
23.4614
19.6902
15.0281
9.74477
4.16415
-1.37344
-6.54884
-11.0968
-14.8304
-17.6541
-19.5651
-20.6407
-21.0146
-20.8398
-20.2443
-19.2827
-17.8919
-15.859
-12.8128
-8.24518
-1.56657
7.80638
20.3419
36.2786
55.5267
77.6033
101.619
126.319
150.174
171.513
188.671
200.139
204.697
201.521
190.255
171.049
144.564
111.947
74.7748
34.9743
-5.28783
-43.7401
-78.1619
-106.552
-127.296
-139.314
-142.174
-136.151
-122.221
-101.982
-77.5189
-51.2063
-25.4858
-2.6353
15.4417
27.3828
32.4709
30.6659
22.5621
9.28119
-7.68442
-26.6546
-45.948
-64.0485
-79.7333
-92.1518
-100.85
-105.748
-107.071
-105.268
-100.908
-94.5974
-86.8991
-78.2913
-69.144
-59.7222
-50.2054
-40.7179
-31.3586
-22.227
-13.4376
-5.12366
2.57129
9.50894
15.5762
20.7041
24.882
28.163
30.6608
32.5364
33.9784
35.1777
36.3022
37.4746
38.7557
40.1377
41.5471
42.8601
43.928
44.6096
44.8081
44.5053
43.787
42.8562
42.0267
41.699
42.3164
44.3081
48.0238
53.6687
61.2473
70.5257
81.0177
92.0026
102.573
111.712
118.392
121.689
120.885
115.569
105.695
91.6134
74.0521
54.0569
32.8969
11.943
-7.46386
-24.1397
-37.1655
-45.9633
-50.3335
-50.4507
-46.821
-40.2078
-31.5383
-21.8007
-11.9463
-2.80672
4.96773
10.9415
14.9004
16.8337
16.8969
15.3625
12.5678
8.867
4.59322
0.0355062
-4.56987
-9.03484
-13.2063
-16.9501
-20.1367
-22.6363
-24.3224
-25.088
-24.8684
-23.6681
-21.5832
-18.8126
-15.6549
-12.4844
-9.71124
-7.72646
-6.8417
-7.23228
-8.89394
-11.622
-15.0187
-18.531
-21.5145
-23.3181
-23.3765
-21.2987
-16.9392
-10.4405
-2.23884
6.96947
16.2988
24.7738
31.4459
35.5104
36.4104
33.9118
28.1399
19.5738
8.99677
-2.58775
-14.0663
-24.336
-32.4222
-37.5786
-39.359
-37.6548
-32.6945
-25.0089
-15.3671
-4.69419
6.02178
15.8211
23.8551
29.4537
32.1737
31.8267
28.4853
22.4705
14.3193
4.73856
-5.45422
-15.3965
-24.2495
-31.2636
-35.8371
-37.5614
-36.2515
-31.9573
-24.9555
-15.7232
-4.89428
6.7952
18.5694
29.675
39.438
47.3103
52.901
55.9923
56.5389
54.6535
50.5804
44.6619
37.3005
28.921
19.9377
10.7272
1.61196
-7.14728
-15.3487
-22.8406
-29.5078
-35.2584
-40.0128
-43.6979
-46.2466
-47.6026
-47.7278
-46.6098
-44.2658
-40.7408
-36.0987
-30.407
-23.7188
-16.0571
-7.4051
2.2901
13.1
25.0822
38.2378
52.4643
67.5151
82.9719
98.2415
112.578
125.134
135.033
141.464
143.775
141.565
134.754
123.623
108.816
91.2963
72.2693
53.0638
34.9988
19.2433
6.68775
-2.1552
-7.20874
-8.83867
-7.80671
-5.17439
-2.16839
-0.0240416
0.172811
-2.37523
-8.07599
-16.8978
-28.3768
-41.6806
-55.7171
-69.2747
-81.1733
-90.4055
-96.2502
-98.3446
-96.7061
-91.7059
-83.9989
-74.4247
-63.8947
-53.2811
-43.3246
-34.5699
-27.3354
-21.7172
-17.6226
-14.8237
-13.0217
-11.9102
-11.2286
-10.7991
-10.5435
-10.4804
-10.7042
-11.352
-12.5638
-14.4409
-17.0088
-20.1891
-23.7827
-27.4676
-30.8121
-33.3036
-34.3927
-33.5484
-30.3212
-24.4063
-15.6987
-4.33206
9.30662
24.5911
40.6999
56.6851
71.5597
84.3908
94.3884
100.978
103.851
102.983
98.6336
91.3065
81.7065
70.6768
59.135
48.0108
38.1872
30.4462
25.4183
23.5356
24.9907
29.7039
37.3075
47.1507
58.3328
69.7656
80.2617
88.6404
93.8391
95.016
91.6307
83.4963
70.7978
54.0805
34.212
12.3241
-10.2609
-32.1177
-51.8174
-68.0359
-79.6669
-85.9313
-86.47
-81.4081
-71.3765
-57.4818
-41.2213
-24.3483
-8.69841
4.00149
12.3212
15.2866
12.4915
4.14709
-8.93647
-25.4334
-43.6403
-61.6529
-77.5609
-89.6416
-96.5321
-97.3642
-91.85
-80.3112
-63.65
-43.2658
-20.9253
1.40264
21.7301
38.2361
49.4365
54.3217
52.4494
43.9838
29.6782
10.8032
-10.9702
-33.7225
-55.4568
-74.273
-88.5308
-96.9867
-98.8934
-94.0545
-82.8297
-66.0918
-45.1392
-21.5734
2.84753
26.3648
47.3702
64.5365
76.9161
83.9979
85.7176
82.4234
74.8032
63.7835
50.4154
35.7598
20.7882
6.30661
-7.08845
-19.0208
-29.3149
-37.9509
-45.0062
-50.5926
-54.8018
-57.6671
-59.1481
-59.1375
-57.4902
-54.0644
-48.7691
-41.6072
-32.7065
-22.3337
-10.8872
1.12737
13.1381
24.5546
34.8177
43.4419
50.0478
54.379
56.3051
55.8125
52.9859
47.9867
41.0307
32.371
22.287
11.0808
-0.920587
-13.3594
-25.8411
-37.9327
-49.166
-59.05
-67.0901
-72.8144
-75.8066
-75.7411
-72.4194
-65.8045
-56.0496
-43.517
-28.7848
-12.6368
3.96712
19.9418
34.1493
45.4907
53.0134
56.0223
54.1861
47.6212
36.939
23.2439
8.07155
-6.73199
-19.1831
-27.3683
-29.6632
-24.9347
-12.6997
6.78047
32.484
62.6928
95.1315
127.165
156.037
179.122
194.172
199.532
194.298
178.412
152.671
118.664
78.6274
35.242
-8.59755
-50.032
-86.4679
-115.773
-136.423
-147.581
-149.131
-141.64
-126.285
-104.736
-79.0248
-51.3879
-24.1152
0.603669
20.8203
34.9528
41.8868
41.0478
32.4388
16.6389
-5.23734
-31.6207
-60.602
-90.0749
-117.894
-142.038
-160.76
-172.721
-177.079
-173.549
-162.409
-144.468
-120.996
-93.616
-64.1805
-34.6263
-6.83027
17.5285
37.0874
50.8915
58.4481
59.743
55.2187
45.7179
32.4015
16.6493
-0.0464179
-16.1861
-30.3598
-41.3316
-48.1086
-49.9949
-46.6303
-38.0152
-24.5189
-6.86956
13.8786
36.4064
59.2201
80.7688
99.581
114.407
124.351
128.971
128.336
123.024
114.056
102.778
90.6992
79.3041
69.8725
63.3265
60.1279
60.2388
63.1501
67.9692
73.5532
78.6671
82.1441
83.028
80.6811
74.8473
65.6655
53.6374
39.5549
24.4007
9.23502
-4.9189
-17.1764
-26.8721
-33.6127
-37.2992
-38.1188
-36.5082
-33.0941
-28.6154
-23.8366
-19.4609
-16.0526
-13.9787
-13.377
-14.1542
-16.0152
-18.519
-21.1525
-23.4115
-24.877
-25.2731
-24.5008
-22.6392
-19.9183
-16.6665
-13.2447
-9.97827
-7.10028
-4.71676
-2.7995
-1.20794
0.265173
1.83378
3.65656
5.78571
8.13665
10.4851
12.4922
13.7546
13.869
12.5032
9.45871
4.71775
-1.53535
-8.91994
-16.8919
-24.7986
-31.9482
-37.6841
-41.4552
-42.8733
-41.7516
-38.1209
-32.2222
-24.4783
-15.448
-5.76932
3.90162
12.9499
20.8521
27.2148
31.7956
34.5091
35.4162
34.7006
32.6359
29.5481
25.7773
21.6436
17.4196
13.3127
9.45785
5.9195
2.70346
-0.225614
-2.92273
-5.44028
-7.80753
-10.0141
-11.9993
-13.6483
-14.797
-15.2448
-14.7759
-13.1872
-10.3212
-6.10015
-0.557456
6.13701
13.6627
21.5489
29.1922
35.8939
40.9146
43.5448
43.1839
39.419
32.0946
21.3602
7.69028
-8.13305
-25.0722
-41.92
-57.4097
-70.3371
-79.6815
-84.7099
-85.0518
-80.7363
-72.1851
-60.1631
-45.6922
-29.9374
-14.0794
0.812552
13.8922
24.6211
32.8149
38.6482
42.6142
45.4462
48.0081
51.1677
55.6665
62.0036
70.3475
80.4885
91.8387
103.483
114.273
122.957
128.327
129.363
125.367
116.049
101.575
82.5633
60.0257
35.2662
9.74944
-15.0452
-37.7675
-57.3197
-72.9444
-84.2692
-91.3022
-94.3838
-94.1016
-91.1847
-86.3912
-80.4085
-73.7791
-66.8621
-59.8352
-52.7323
-45.5083
-38.116
-30.58
-23.0508
-15.8291
-9.35427
-4.15908
-0.797293
0.242267
-1.37877
-5.77815
-12.81
-22.0564
-32.855
-44.3597
-55.6251
-65.7038
-73.744
-79.0746
-81.269
-80.1814
-75.9517
-68.9816
-59.8848
-49.4182
-38.4021
-27.6374
-17.8279
-9.51587
-3.0355
1.51053
4.25031
5.51802
5.80822
5.71417
5.85681
6.8123
9.04592
12.8597
18.3597
25.4453
33.8224
43.0366
52.5229
61.6653
69.8581
76.5638
81.3613
83.9784
84.3093
82.4146
78.5071
72.9265
66.1068
58.5422
50.7516
43.2461
36.4978
30.9115
26.7976
24.3486
23.6212
24.5253
26.8243
30.1491
34.025
37.9127
41.2572
43.5422
44.3412
43.3602
40.4649
35.69
29.2284
21.4015
12.6165
3.31479
-6.07939
-15.2036
-23.7896
-31.679
-38.8223
-45.2601
-51.0933
-56.4433
-61.4103
-66.0349
-70.2685
-73.9574
-76.8441
-78.5879
-78.8024
-77.1074
-73.1898
-66.8634
-58.1225
-47.1778
-34.4699
-20.6566
-6.57164
6.83943
18.6025
27.8072
33.6985
35.7583
33.7673
27.8393
18.425
6.28223
-7.58316
-22.0013
-35.7381
-47.601
-56.5417
-61.7445
-62.696
-59.2276
-51.5301
-40.1384
-25.8868
-9.84016
6.79592
22.7774
36.9279
48.2379
55.9496
59.6163
59.1316
54.7259
46.9303
36.5137
24.4004
11.5787
-0.988699
-12.4438
-22.093
-29.4443
-34.2215
-36.3584
-35.9763
-33.354
-28.8929
-23.0829
-16.4698
-9.6253
-3.11644
2.52537
6.8377
9.46151
10.174
8.91551
5.80593
1.14497
-4.60603
-10.8621
-16.97
-22.2756
-26.1958
-28.2859
-28.2928
-26.1864
-22.164
-16.6262
-10.1256
-3.29674
3.22409
8.87781
13.2479
16.1031
17.4122
17.3273
16.1415
14.2271
11.9658
9.68407
7.60377
5.81824
4.29593
2.9104
1.48928
-0.128308
-2.038
-4.23088
-6.57678
-8.83366
-10.6823
-11.7804
-11.828
-10.6318
-8.15904
-4.56959
-0.21977
4.36448
8.5441
11.647
13.0624
12.3377
9.26517
3.94585
-3.18012
-11.3438
-19.501
-26.4274
-30.8443
-31.5648
-27.6414
-18.499
-4.03639
15.318
38.6037
64.3831
90.8517
115.991
137.752
154.249
163.94
165.779
159.323
144.775
122.974
95.3262
63.6789
30.1654
-2.97728
-33.5947
-59.7912
-80.0793
-93.4907
-99.6387
-98.729
-91.5167
-79.2169
-63.3774
-45.7268
-28.0131
-11.8485
1.4245
10.8353
15.8467
16.3722
12.751
5.68484
-3.8544
-14.7364
-25.791
-35.9227
-44.2107
-49.9853
-52.876
-52.828
-50.0863
-45.1525
-38.7172
-31.5773
-24.5448
-18.358
-13.601
-10.6417
-9.59304
-10.3013
-12.3626
-15.1665
-17.9605
-19.9323
-20.2985
-18.3947
-13.7558
-6.17944
4.23468
17.0759
31.646
47.014
62.0995
75.7757
86.9802
94.825
98.6889
98.2851
93.6954
85.3659
74.0675
60.8235
46.8137
33.2651
21.3402
12.0353
6.0966
3.96374
5.74384
11.2176
19.8754
30.9777
43.6325
56.8793
69.7715
81.4471
91.1817
98.4212
102.791
104.09
102.266
97.3894
89.6252
79.208
66.4289
51.6308
35.2117
17.6344
-0.561351
-18.7482
-36.2049
-52.119
-65.6036
-75.7323
-81.5975
-82.393
-77.5187
-66.6983
-50.0966
-28.414
-2.93494
24.4919
51.5581
75.6869
94.2996
105.126
106.512
97.6863
78.9155
51.5444
17.8842
-19.0286
-55.7743
-88.9425
-115.523
-133.236
-140.772
-137.891
-125.408
-105.044
-79.1791
-50.5569
-21.9533
4.1296
25.7189
41.5483
51.1403
54.7895
53.4548
48.5763
41.8441
34.949
29.3465
26.0655
25.5849
27.7918
32.026
37.2027
41.9923
45.0348
45.1539
41.544
33.9029
22.4922
8.12033
-7.95104
-24.1606
-38.8407
-50.4231
-57.6311
-59.6323
-56.1363
-47.4257
-34.3209
-18.0852
-0.28526
17.3752
33.2293
45.8088
53.9775
57.0265
54.7212
47.3027
35.4432
20.1658
2.73635
-15.459
-33.0391
-48.7451
-61.5388
-70.6745
-75.7415
-76.6733
-73.7267
-67.4342
-58.5367
-47.903
-36.4465
-25.0449
-14.4717
-5.34269
1.91698
7.08742
10.1493
11.2632
10.7364
8.97971
6.45995
3.64974
0.980493
-1.19836
-2.64971
-3.26561
-3.06839
-2.19562
-0.870163
0.641291
2.07563
3.21986
3.94903
4.24867
4.21683
4.04465
3.97829
4.26912
5.1217
6.64951
8.84715
11.5841
14.6212
17.6457
20.3186
22.3245
23.4155
23.4419
22.365
20.2511
17.2509
13.5679
9.42356
5.02661
0.551532
-3.86934
-8.13998
-12.1831
-15.9157
-19.225
-21.9505
-23.8787
-24.7528
-24.2973
-22.2536
-18.4205
-12.6897
-5.07064
4.30336
15.1872
27.2527
40.1241
53.4113
66.7296
79.7022
91.9447
103.04
112.517
119.847
124.465
125.827
123.481
117.162
106.86
92.8703
75.7971
56.5059
36.0403
15.5111
-4.01988
-21.6406
-36.6612
-48.6489
-57.4259
-63.0382
-65.706
-65.7689
-63.6372
-59.755
-54.5797
-48.5739
-42.2052
-35.947
-30.2746
-25.6503
-22.4977
-21.1641
-21.879
-24.7123
-29.5425
-36.0422
-43.6868
-51.7886
-59.5555
-66.1686
-70.8692
-73.0454
-72.3043
-68.5228
-61.8667
-52.7775
-41.9262
-30.1418
-18.3219
-7.33792
2.0541
9.28714
14.0329
16.2239
16.0468
13.9101
10.3901
6.1632
1.93221
-1.64642
-4.02591
-4.81777
-3.82125
-1.03169
3.37211
9.05895
15.5904
22.4745
29.2214
35.3947
40.6526
44.7761
47.6799
49.4084
50.1175
50.0471
49.4892
48.7554
48.15
47.948
48.3808
49.6264
51.8016
54.9542
59.054
63.9825
69.524
75.3624
81.0878
86.2154
90.2193
92.5776
92.8267
90.6155
85.7538
78.2458
68.304
56.3392
42.9281
28.7619
14.5831
1.11909
-10.978
-21.1782
-29.1024
-34.5312
-37.3968
-37.7629
-35.7992
-31.7564
-25.9485
-18.7419
-10.5536
-1.85331
6.83542
14.9414
21.8645
27.0113
29.8457
29.9516
27.0991
21.3021
12.8567
2.34893
-9.37343
-21.2685
-32.2004
-41.0619
-46.9043
-49.0564
-47.2155
-41.4968
-32.4328
-20.9206
-8.12484
4.65453
16.1295
25.1702
30.9304
32.9374
31.1365
25.885
17.8987
8.1587
-2.20822
-12.0613
-20.3721
-26.3316
-29.426
-29.4743
-26.626
-21.3204
-14.2168
-6.10375
2.19826
9.93031
16.4721
21.3951
24.4869
25.746
25.352
23.616
20.9214
17.6645
14.2021
10.8136
7.68006
4.88239
2.41532
0.214015
-1.81208
-3.74397
-5.62198
-7.42367
-9.0545
-10.3536
-11.1149
-11.1204
-10.1832
-8.19121
-5.14609
-1.18965
3.38851
8.16507
12.6194
16.1892
18.3395
18.6351
16.8077
12.8059
6.82108
-0.71819
-9.18171
-17.8018
-25.757
-32.2653
-36.6748
-38.5398
-37.6751
-34.1798
-28.4313
-21.0495
-12.8349
-4.68725
2.48855
7.88149
10.8696
11.1019
8.55726
3.57258
-3.16778
-10.6832
-17.7877
-23.2147
-25.7632
-24.45
-18.6509
-8.20942
6.5014
24.5779
44.65
65.0072
83.7741
99.1153
109.445
113.612
111.045
101.821
86.6721
66.9081
44.2763
20.7739
-1.56565
-20.8859
-35.697
-45.0197
-48.4702
-46.2787
-39.2409
-28.6115
-15.9535
-2.96128
8.72186
17.673
22.8281
23.5787
19.8214
11.9588
0.858184
-12.2255
-25.753
-38.0239
-47.3116
-52.0071
-50.7641
-42.639
-27.215
-4.69571
24.0476
57.489
93.5315
129.661
163.163
191.372
211.942
223.079
223.736
213.713
193.684
165.117
130.129
91.2752
51.3072
12.9251
-21.454
-49.8901
-71.0627
-84.3532
-89.8599
-88.3493
-81.1464
-69.9759
-56.7677
-43.4473
-31.7317
-22.9537
-17.9356
-16.9256
-19.6073
-25.1781
-32.4874
-40.2161
-47.0695
-51.9612
-54.1589
-53.3749
-49.7894
-44.0038
-36.9349
-29.665
-23.2722
-18.6667
-16.4565
-16.8629
-19.6951
-24.3874
-30.0903
-35.7998
-40.5067
-43.3404
-43.6902
-41.2844
-36.2201
-28.9392
-20.1581
-10.7607
-1.67219
6.26801
12.4177
16.412
18.2031
18.0557
16.5007
14.2558
12.1235
10.8826
11.1869
13.4836
17.9611
24.531
32.8451
42.3427
52.3211
62.0195
70.7047
77.7483
82.6873
85.2613
85.4246
83.3343
79.3189
73.8347
67.4167
60.632
54.0378
48.149
43.4105
40.1756
38.6831
39.0336
41.1626
44.8163
49.5349
54.6552
59.3389
62.6346
63.5714
61.2785
55.1153
44.7941
30.4729
12.7999
-7.10586
-27.7417
-47.3727
-64.2286
-76.721
-83.6465
-84.3447
-78.7823
-67.5513
-51.782
-32.9891
-12.8794
6.84482
24.656
39.3231
49.9751
56.1102
57.5628
54.4483
47.1021
36.0295
21.8713
5.38652
-12.5567
-30.9901
-48.8663
-65.0988
-78.6238
-88.4806
-93.9017
-94.4002
-89.8401
-80.477
-66.9597
-50.2892
-31.7369
-12.7307
5.27831
20.9533
33.1961
41.2456
44.7382
43.725
38.6462
30.2662
19.5806
7.70523
-4.23673
-15.2191
-24.396
-31.1585
-35.1594
-36.3086
-34.7439
-30.7818
-24.8609
-17.482
-9.158
-0.37495
8.42857
16.8658
24.5924
31.2889
36.644
40.3447
42.0808
41.5658
38.5728
32.981
24.8244
14.3324
1.95232
-11.6529
-25.637
-39.0317
-50.832
-60.0958
-66.0468
-68.166
-66.2602
-60.497
-51.4011
-39.8098
-26.7937
-13.5503
-1.28307
8.92002
16.1954
19.9877
20.0997
16.7043
10.3173
1.73587
-8.05137
-17.9706
-26.9749
-34.1502
-38.8034
-40.5251
-39.2207
-35.1082
-28.684
-20.6616
-11.8906
-3.26428
4.3734
10.3132
14.0497
15.3276
14.1622
10.8308
5.83883
-0.137637
-6.326
-11.9406
-16.2673
-18.74
-19.0016
-16.942
-12.7096
-6.69368
0.519372
8.21199
15.6161
21.9993
26.747
29.4317
29.8617
28.1043
24.4803
19.5309
13.9604
8.55923
4.11674
1.3322
0.733094
2.60982
6.97356
13.542
21.7554
30.8219
39.7893
47.6384
53.3883
56.2035
55.4923
50.9815
42.7605
31.2845
17.338
1.96022
-13.6572
-28.2883
-40.7912
-50.2127
-55.8664
-57.3767
-54.6843
-48.0174
-37.8344
-24.7496
-9.45357
7.35865
25.0426
43.0361
60.8659
78.133
94.4841
109.578
123.058
134.54
143.614
149.866
152.915
152.448
148.263
140.301
128.668
113.658
95.7526
75.617
54.0833
32.115
10.7557
-8.93794
-25.9767
-39.5254
-48.9873
-54.0744
-54.8552
-51.7697
-45.6058
-37.4357
-28.5145
-20.1503
-13.5586
-9.71878
-9.2528
-12.3426
-18.7023
-27.6104
-38.0017
-48.6057
-58.1143
-65.3552
-69.445
-69.9027
-66.7069
-60.2908
-51.4784
-41.372
-31.2092
-22.2096
-15.4324
-11.6594
-11.3162
-14.435
-20.6582
-29.2798
-39.3169
-49.604
-58.9039
-66.0244
-69.9343
-69.8677
-65.4088
-56.5464
-43.6923
-27.658
-9.58829
9.14378
27.0725
42.7917
55.1058
63.1624
66.5484
65.3367
60.0781
51.7364
41.5776
31.0252
21.5001
14.2658
10.2955
10.1775
14.0662
21.6829
32.3631
45.1405
58.8575
72.2868
84.2511
93.73
99.9437
102.408
100.961
95.7547
87.2264
76.0431
63.0332
49.109
35.1875
22.117
10.6133
1.21148
-5.76504
-10.217
-12.2622
-12.2115
-10.5299
-7.78573
-4.59473
-1.56128
0.77556
1.98758
1.7903
0.0608707
-3.15972
-7.67887
-13.1769
-19.2405
-25.4017
-31.1796
-36.1202
-39.8339
-42.0269
-42.5251
-41.2897
-38.4224
-34.1609
-28.8638
-22.9858
-17.0443
-11.5794
-7.10915
-4.0838
-2.84263
-3.57664
-6.30146
-10.8437
-16.8434
-23.774
-30.9802
-37.7312
-43.2853
-46.9608
-48.2052
-46.6564
-42.1879
-34.9329
-25.2832
-13.8628
-1.47629
10.9614
22.5083
32.2826
39.5455
43.7713
44.6979
42.3548
37.063
29.411
20.205
10.3996
1.01279
-6.96806
-12.6813
-15.4792
-15.001
-11.2208
-4.46428
4.61093
15.0722
25.8027
35.6172
43.3918
48.1902
49.375
46.6863
40.2806
30.7229
18.9335
6.09403
-6.47634
-17.4606
-25.6846
-30.2418
-30.5906
-26.6117
-18.6215
-7.34072
6.17719
20.6494
34.6874
46.9278
56.1584
61.4266
62.1213
58.0209
49.3036
36.5218
20.5427
2.46567
-16.4748
-35.0072
-51.9108
-66.0859
-76.6038
-82.7395
-83.9945
-80.1192
-71.1386
-57.3824
-39.5117
-18.5287
4.24391
27.2268
48.6923
66.9126
80.3305
87.7308
88.3848
82.1478
69.4912
51.4658
29.599
5.74178
-18.1144
-40.0283
-58.2825
-71.5245
-78.8605
-79.8986
-74.7425
-63.9432
-48.4196
-29.3592
-8.11241
13.9115
35.3389
54.9122
71.5551
84.4217
92.9305
96.7823
95.9654
90.7443
81.6345
69.3635
54.8179
38.9804
22.8616
7.42898
-6.45729
-18.0989
-26.9971
-32.8721
-35.663
-35.5101
-32.7264
-27.7602
-21.1583
-13.5309
-5.52191
2.21765
9.05413
14.3992
17.7436
18.6994
17.0494
12.7991
6.22423
-2.09526
-11.268
-20.1183
-27.2566
-31.193
-30.4894
-23.9364
-10.7343
9.34674
35.8535
67.6054
102.735
138.816
173.072
202.65
224.912
237.737
239.765
230.57
210.73
181.776
146.041
106.399
65.9634
27.7459
-5.64266
-32.2391
-50.8811
-61.2605
-63.878
-59.9197
-51.0784
-39.3491
-26.8237
-15.5037
-7.14124
-3.11584
-4.34362
-11.2197
-23.5917
-40.7662
-61.5503
-84.333
-107.206
-128.122
-145.081
-156.324
-160.523
-156.94
-145.527
-126.967
-102.636
-74.4914
-44.896
-16.3994
8.50702
27.6285
39.2787
42.4414
36.8672
23.0985
2.4205
-23.2538
-51.5544
-79.864
-105.548
-126.186
-139.779
-144.926
-140.937
-127.889
-106.607
-78.5867
-45.85
-10.7671
24.1487
56.4491
83.9447
104.868
117.998
122.732
119.111
107.798
90.0112
67.4232
42.0332
16.022
-8.40301
-29.1632
-44.4577
-52.8969
-53.6148
-46.3516
-31.4991
-10.1004
16.2025
45.2785
74.6731
101.822
124.294
140.042
147.628
146.39
136.535
119.121
95.9527
69.3762
42.0078
16.4327
-5.09345
-20.899
-30.0751
-32.5565
-29.0957
-21.1356
-10.5986
0.376386
9.71601
15.6742
17.0418
13.2789
4.55664
-8.29204
-23.9002
-40.5526
-56.4007
-69.6799
-78.9003
-82.9943
-81.4061
-74.1224
-61.6453
-44.9203
-25.2304
-4.07207
16.9752
36.3732
52.7363
64.9245
72.114
73.8448
70.0417
61.0107
47.409
30.1917
10.5395
-10.2267
-30.7377
-49.6658
-65.8064
-78.1468
-85.92
-88.6423
-86.1344
-78.5297
-66.2675
-50.0745
-30.9329
-10.0341
11.2815
31.6014
49.5322
63.8017
73.3645
77.5017
75.9013
68.7078
56.5313
40.4081
21.7168
2.05288
-16.9232
-33.6485
-46.8113
-55.4762
-59.1663
-57.8903
-52.1127
-42.6731
-30.6662
-17.3025
-3.76862
8.89309
19.8714
28.6314
34.918
38.7229
40.2266
39.728
37.5762
34.1145
29.644
24.4095
18.6048
12.3918
5.9271
-0.613411
-7.01766
-13.0317
-18.3674
-22.7217
-25.8044
-27.3704
-27.2508
-25.3801
-21.815
-16.7427
-10.4779
-3.44744
3.83634
10.8128
16.9175
21.6308
24.5273
25.3196
23.8934
20.3288
14.9048
8.08385
0.479261
-7.19565
-14.1902
-19.7858
-23.3655
-24.4759
-22.874
-18.5553
-11.7575
-2.94185
7.2484
18.0447
28.6211
38.1641
45.9393
51.3478
53.9685
53.5849
50.1962
44.0132
35.4429
25.0636
13.5931
1.84973
-9.29174
-18.9518
-26.3037
-30.6358
-31.4133
-28.3357
-21.3806
-10.8284
2.7385
18.4637
35.2727
51.9516
67.2422
79.9433
89.0091
93.6327
93.309
87.8689
77.4842
62.6441
44.1069
22.8355
-0.0770439
-23.4805
-46.2345
-67.2621
-85.5896
-100.374
-110.92
-116.703
-117.382
-112.832
-103.173
-88.7923
-70.3573
-48.7977
-25.2533
-0.983411
22.7542
44.8424
64.4392
81.0853
94.7628
105.89
115.25
123.855
132.769
142.917
154.905
168.883
184.477
200.8
216.54
230.119
239.89
244.361
242.395
233.372
217.286
194.765
167.003
135.637
102.555
69.6877
38.806
11.3398
-11.7448
-30.004
-43.505
-52.7512
-58.558
-61.9005
-63.7567
-64.9687
-66.1413
-67.5891
-69.336
-71.1626
-72.689
-73.4769
-73.1333
-71.3983
-68.204
-63.6979
-58.2285
-52.299
-46.4965
-41.4105
-37.5516
-35.2826
-34.7706
-35.9649
-38.6033
-42.2438
-46.3163
-50.1889
-53.2376
-54.9144
-54.8019
-52.6526
-48.4076
-42.1934
-34.3015
-25.1526
-15.253
-5.14882
4.61636
13.5361
21.167
27.1454
31.1987
33.154
32.9471
30.6342
26.4047
20.594
13.6906
6.33274
-0.710032
-6.57312
-10.3516
-11.1708
-8.2686
-1.08267
10.6649
26.8934
47.1096
70.3837
95.367
120.357
143.419
162.557
175.922
182.04
180.016
169.693
151.725
127.547
99.2395
69.3011
40.3589
14.8603
-5.21076
-18.5516
-24.6647
-23.8731
-17.2305
-6.34412
6.8599
20.3928
32.4462
41.5895
46.9008
48.0199
45.1238
38.8372
30.0962
19.9889
9.59777
-0.135273
-8.50505
-15.0915
-19.7596
-22.6182
-23.9478
-24.1158
-23.4922
-22.3807
-20.9758
-19.3482
-17.4602
-15.2028
-12.447
-9.09789
-5.14002
-0.666527
4.11446
8.89674
13.3134
16.9877
19.589
20.883
20.7684
19.2935
16.65
13.1447
9.15503
5.07472
1.25867
-2.02407
-4.62258
-6.51666
-7.80857
-8.69577
-9.42935
-10.265
-11.4144
-13.0041
-15.0486
-17.4416
-19.9672
-22.3291
-24.1945
-25.2463
-25.2351
-24.0249
-21.6229
-18.1901
-14.0293
-9.55125
-5.22335
-1.50685
1.20821
2.66148
2.76537
1.62599
-0.461972
-3.04659
-5.57295
-7.45358
-8.14639
-7.23028
-4.46922
0.143391
6.36577
13.7175
21.5183
28.952
35.1512
39.2913
40.6866
38.8743
33.6788
25.2462
14.0454
0.83447
-13.4063
-27.5654
-40.5073
-51.1835
-58.7346
-62.5723
-62.4327
-58.3952
-50.8662
-40.5309
-28.2812
-15.1273
-2.10579
9.80898
19.7789
27.1576
31.5238
32.6914
30.7008
25.7937
18.3792
8.99499
-1.72928
-13.106
-24.4188
-34.9489
-44.0021
-50.9382
-55.2047
-56.3757
-54.1915
-48.5956
-39.7623
-28.1095
-14.2912
0.831334
16.2419
30.8394
43.522
53.2775
59.2723
60.9319
58.0034
50.5969
39.1964
24.6412
8.07299
-9.14643
-25.5431
-39.6553
-50.1635
-56.0135
-56.5199
-51.4392
-41.003
-25.9084
-7.26727
13.4819
34.6871
54.612
71.5667
84.0335
90.7771
90.9367
84.0973
70.3372
50.2515
24.9483
-3.98549
-34.5512
-64.4397
-91.166
-112.232
-125.308
-128.418
-120.124
-99.676
-67.1333
-23.4235
29.6607
89.5391
152.998
216.411
276.013
328.201
369.824
398.442
412.516
411.51
395.898
367.089
327.261
279.149
225.803
170.338
115.704
64.4981
18.8204
-19.8092
-50.4828
-72.8856
-87.2379
-94.21
-94.8201
-90.3279
-82.1305
-71.6668
-60.3335
-49.4131
-40.0139
-33.0226
-29.0681
-28.4989
-31.3732
-37.4643
-46.2826
-57.1139
-69.0743
-81.1787
-92.4199
-101.851
-108.667
-112.269
-112.321
-108.775
-101.865
-92.0876
-80.1422
-66.8606
-53.1242
-39.7794
-27.5627
-17.0434
-8.5893
-2.36029
1.67315
3.68985
3.96481
2.81294
0.539976
-2.59071
-6.37018
-10.6341
-15.2356
-20.0073
-24.7254
-29.0822
-32.6779
-35.0358
-35.6411
-34.0004
-29.7156
-22.5603
-12.5477
0.0254144
14.5668
30.2186
45.9274
60.55
72.9813
82.2879
87.8275
89.338
86.9796
81.3248
73.2925
64.0363
54.7998
46.7584
40.8702
37.7558
37.625
40.259
45.051
51.0981
57.3307
62.6605
66.1259
67.0163
64.9572
59.9485
52.3513
42.8283
32.2481
21.5682
11.7119
3.45803
-2.64636
-6.3386
-7.65598
-6.91497
-4.65983
-1.58922
1.52924
3.94652
5.01281
4.2442
1.37053
-3.6382
-10.5677
-18.9763
-28.2314
-37.5625
-46.1263
-53.0812
-57.6648
-59.2681
-57.5013
-52.2423
-43.6638
-32.2328
-18.6813
-3.9487
10.8991
24.7673
36.6353
45.6545
51.2298
53.0741
51.2309
46.061
38.1958
28.4624
17.7914
7.11761
-2.7134
-11.0216
-17.3437
-21.4551
-23.3614
-23.2653
-21.5147
-18.5418
-14.8024
-10.7227
-6.66028
-2.88106
0.447216
3.24699
5.51262
7.28638
8.63348
9.62012
10.2975
10.6933
10.8105
10.6324
10.1322
9.2838
8.07231
6.50219
4.60117
2.42025
0.0296447
-2.48815
-5.04675
-7.56429
-9.97035
-12.2103
-14.2466
-16.0571
-17.6307
-18.9613
-20.042
-20.8592
-21.3895
-21.5984
-21.4421
-20.8715
-19.8383
-18.3013
-16.2325
-13.6219
-10.4808
-6.84342
-2.76787
1.66338
6.34204
11.132
15.8665
20.3469
24.3433
27.6014
29.8548
30.8457
30.3517
28.2166
24.3813
18.9094
12.0036
4.00757
-4.60752
-13.2722
-21.3611
-28.2433
-33.3349
-36.1486
-36.3338
-33.7044
-28.2532
-20.1517
-9.73716
2.51072
16.0006
30.0654
44.0009
57.104
68.7096
78.2252
85.1605
89.1519
89.9815
87.588
82.0705
73.6831
62.8226
50.0075
35.851
21.0276
6.23752
-7.83316
-20.5507
-31.3708
-39.8711
-45.7758
-48.9713
-49.5071
-47.5823
-43.5144
-37.6908
-30.5081
-22.3031
-13.2878
-3.49743
7.23445
19.2665
33.1003
49.2935
68.3464
90.576
115.999
144.245
174.511
205.577
235.878
263.625
286.972
304.2
313.9
315.131
307.528
291.353
267.465
237.225
202.348
164.721
126.221
88.55
53.1162
20.9648
-7.23477
-31.1582
-50.7636
-66.2146
-77.8067
-85.9058
-90.9092
-93.2264
-93.2769
-91.4958
-88.3385
-84.2784
-79.7913
-75.3286
-71.2828
-67.9502
-65.5007
-63.961
-63.2158
-63.0299
-63.0892
-63.0545
-62.6205
-61.5705
-59.8167
-57.4197
-54.5834
-51.6249
-48.9245
-46.8635
-45.7598
-45.8112
-47.0564
-49.3584
-52.4144
-55.7896
-58.9698
-61.4254
-62.6775
-62.3562
-60.2439
-56.2983
-50.6522
-43.5919
-35.518
-26.894
-18.1913
-9.83657
-2.16925
4.58699
10.3362
15.1055
19.0257
22.3019
25.1772
27.8962
30.6719
33.6591
36.938
40.5075
44.2887
48.1375
51.8639
55.2571
58.1133
60.2654
61.6098
62.1283
61.9001
61.1003
59.9842
58.856
58.0269
57.7667
58.2578
59.5579
61.5795
64.0894
66.7297
69.058
70.6012
70.9151
69.6421
66.5588
61.6066
54.9022
46.7258
37.4913
27.6991
17.8822
8.54925
0.133479
-7.04721
-12.8147
-17.1373
-20.1198
-21.9771
-22.9978
-23.5013
-23.7933
-24.1272
-24.6727
-25.497
-26.5584
-27.7131
-28.7321
-29.3275
-29.1822
-27.9842
-25.4592
-21.4033
-15.7132
-8.41422
0.315954
10.1299
20.5047
30.753
40.0559
47.5205
52.2611
53.4987
50.6655
43.503
32.135
17.1042
-0.636838
-19.7815
-38.7675
-55.9075
-69.5408
-78.1903
-80.715
-76.4417
-65.2632
-47.6914
-24.8529
1.57948
29.5172
56.6414
80.6255
99.3709
111.227
115.17
110.914
98.9404
80.445
57.2001
31.3577
5.21362
-19.0373
-39.525
-54.8814
-64.3523
-67.834
-65.834
-59.3654
-49.7913
-38.6418
-27.4261
-17.462
-9.74339
-4.85622
-2.95066
-3.76687
-6.70744
-10.9434
-15.5381
-19.573
-22.2584
-23.0194
-21.5466
-17.8108
-12.0437
-4.68954
3.65959
12.3375
20.6744
28.0569
33.9728
38.0387
40.0124
39.7931
37.4144
33.0346
26.9255
19.4622
11.1123
2.42064
-6.01236
-13.5614
-19.6171
-23.6339
-25.1815
-23.9932
-20.0034
-13.3689
-4.46863
6.11918
17.6608
29.3278
40.268
49.6792
56.8782
61.3581
62.8283
61.2338
56.7526
49.7712
40.8423
30.6286
19.8388
9.16311
-0.786255
-9.52346
-16.7219
-22.2292
-26.064
-28.3953
-29.5073
-29.7535
-29.5036
-29.0885
-28.7469
-28.5779
-28.5037
-28.2455
-27.3174
-25.0384
-20.5674
-12.9608
-1.25466
15.4303
37.7637
66.0695
100.195
139.407
182.335
226.988
270.866
311.142
344.934
369.606
383.064
384.02
372.155
348.179
313.771
271.397
224.055
174.955
127.193
83.4542
45.7829
15.4321
-7.18169
-22.429
-31.3338
-35.3787
-36.276
-35.736
-35.2594
-35.9774
-38.5551
-43.1633
-49.5183
-56.9757
-64.6654
-71.643
-77.041
-80.1964
-80.7431
-78.6562
-74.2468
-68.1087
-61.0265
-53.859
-47.4157
-42.3439
-39.0438
-37.6237
-37.9007
-39.447
-41.6708
-43.9202
-45.5907
-46.2203
-45.555
-43.578
-40.4954
-36.6848
-32.6154
-28.7536
-25.4713
-22.9728
-21.2513
-20.0843
-19.0656
-17.6719
-15.3497
-11.6118
-6.1272
1.20994
10.2413
20.5433
31.4638
42.1933
51.8605
59.6409
64.8638
67.105
66.2515
62.5326
56.51
49.0298
41.1395
33.9797
28.6621
26.1468
27.1322
31.97
40.6131
52.6028
67.0964
82.9325
98.7293
113.007
124.322
131.41
133.305
129.452
119.767
104.673
85.0786
62.3142
38.0302
14.0571
-7.75503
-25.7067
-38.4127
-44.943
-44.9246
-38.5931
-26.785
-10.8701
7.37212
25.9192
42.7007
55.8011
63.6501
65.1796
59.9326
48.1095
30.5483
8.63961
-15.8148
-40.7834
-64.2065
-84.1954
-99.2076
-108.18
-110.604
-106.547
-96.603
-81.8037
-63.4817
-43.1203
-22.2004
-2.06642
16.1747
31.712
44.0425
52.9437
58.4144
60.5993
59.7132
55.9785
49.5863
40.6872
29.4103
15.9042
0.390095
-16.7843
-35.102
-53.8539
-72.1412
-88.906
-102.99
-113.219
-118.509
-117.981
-111.087
-97.7138
-78.2646
-53.6967
-25.5038
4.36118
33.6205
59.8539
80.7135
94.1512
98.6365
93.3422
78.2744
54.3283
23.2558
-12.4612
-49.8257
-85.6121
-116.693
-140.372
-154.671
-158.55
-152.006
-136.058
-112.601
-84.1683
-53.6176
-23.7994
2.7534
24.0752
38.9257
46.8451
48.1084
43.5961
34.6105
22.6692
9.30893
-4.07418
-16.3324
-26.6173
-34.3802
-39.3348
-41.4
-40.6396
-37.2114
-31.3349
-23.2774
-13.3566
-1.95132
10.4873
23.4323
36.29
48.4236
59.1882
67.9747
74.2543
77.6182
77.8092
74.7397
68.4984
59.3448
47.6948
34.0986
19.2131
3.76963
-11.4623
-25.7151
-38.266
-48.4824
-55.8658
-60.0916
-61.0403
-58.8137
-53.7343
-46.3222
-37.2512
-27.2862
-17.2067
-7.72304
0.60468
7.43752
12.7099
16.6557
19.8013
22.9244
26.9762
32.9737
41.8709
54.4228
71.06
91.7908
116.148
143.188
171.557
199.603
225.54
247.627
264.357
274.606
277.742
273.666
262.786
245.922
224.173
198.755
170.845
141.456
111.354
81.0383
50.7639
20.6224
-9.35798
-39.1006
-68.3811
-96.7575
-123.541
-147.819
-168.519
-184.52
-194.787
-198.512
-195.25
-185.011
-168.321
-146.209
-120.149
-91.9427
-63.5635
-36.9778
-13.9671
4.03288
16.0554
21.6759
21.0297
14.7713
3.98602
-9.93904
-25.4647
-41.0558
-55.3255
-67.1531
-75.7653
-80.7744
-82.1728
-80.2878
-75.7056
-69.1745
-61.5014
-53.4534
-45.6747
-38.6285
-32.5668
-27.5287
-23.3662
-19.7885
-16.4205
-12.8644
-8.75887
-3.82687
2.08996
9.01493
16.8367
25.3256
34.1618
42.9717
51.3684
58.9898
65.533
70.7786
74.6066
76.9984
78.0302
77.8549
76.6788
74.7342
72.2525
69.4417
66.4708
63.4622
60.4939
57.608
54.8252
52.16
49.6345
47.2879
45.1792
43.3832
41.9803
41.0425
40.6168
40.7105
41.2801
42.2247
43.3862
44.5557
45.4842
45.8983
45.5186
44.0799
41.3542
37.1729
31.4483
24.1931
15.5346
5.72179
-4.87661
-15.7845
-26.4428
-36.2446
-44.5808
-50.8915
-54.7206
-55.7686
-53.9358
-49.353
-42.3912
-33.6489
-23.9131
-14.0945
-5.14251
2.05344
6.76494
8.51449
7.14056
2.82633
-3.91497
-12.2984
-21.3625
-30.0883
-37.5242
-42.8997
-45.7096
-45.7592
-43.1647
-38.3107
-31.7754
-24.2358
-16.3702
-8.77415
-1.90253
3.95483
8.66331
12.2058
14.6283
15.9831
16.2821
15.4713
13.4317
10.0064
5.04775
-1.52343
-9.65909
-19.1377
-29.5409
-40.2596
-50.532
-59.5106
-66.3498
-70.3019
-70.8099
-67.5823
-60.6416
-50.339
-37.3345
-22.546
-7.07356
7.89199
21.1669
31.6709
38.5156
41.0792
39.0638
32.5312
21.9138
7.99626
-8.13219
-25.1564
-41.6392
-56.1444
-67.3642
-74.2409
-76.0656
-72.5428
-63.8147
-50.4395
-33.331
-13.6642
7.23762
28.0229
47.4229
64.3432
77.9279
87.5919
93.0233
94.1614
91.1583
84.3331
74.1277
61.07
45.7484
28.7969
10.8874
-7.27431
-24.9547
-41.4062
-55.8903
-67.7107
-76.2562
-81.0476
-81.7843
-78.3848
-71.0149
-60.1008
-46.3227
-30.588
-13.9842
2.2881
17.0018
29.0069
37.3472
41.3831
40.9091
36.2507
28.3202
18.6127
9.1252
2.19282
0.248458
5.52818
19.7589
43.8736
77.8002
120.363
169.315
221.514
273.206
320.4
359.27
386.549
399.857
397.932
380.735
349.426
306.214
254.106
196.591
137.292
79.6345
26.5679
-19.6403
-57.517
-86.4036
-106.393
-118.2
-122.992
-122.204
-117.352
-109.881
-101.046
-91.8385
-82.9603
-74.8382
-67.671
-61.496
-56.2624
-51.8974
-48.3546
-45.6399
-43.8094
-42.946
-43.1175
-44.3298
-46.4849
-49.3535
-52.5717
-55.6634
-58.0877
-59.305
-58.8512
-56.4094
-51.8659
-45.3431
-37.2011
-28.0081
-18.483
-9.41556
-1.57667
4.37132
7.95251
8.93408
7.3549
3.5229
-2.01797
-8.54731
-15.2465
-21.2867
-25.9152
-28.5308
-28.7398
-26.3856
-21.5513
-14.5354
-5.80522
4.06384
14.4568
24.7849
34.5421
43.3459
50.9587
57.2888
62.3726
66.3416
69.3803
71.6826
73.4118
74.6717
75.4925
75.8321
75.592
74.6453
72.8702
70.1841
66.572
62.104
56.9387
51.3116
45.5087
39.8305
34.5506
29.8766
25.919
22.6744
20.0258
17.7615
15.6087
13.2803
10.5244
7.17244
3.17516
-1.37682
-6.25392
-11.1095
-15.5213
-19.0461
-21.2818
-21.9274
-20.8343
-18.0413
-13.7894
-8.51438
-2.81639
2.58978
6.94077
9.50064
9.64005
6.9112
1.11122
-7.67276
-19.0425
-32.2954
-46.4622
-60.3751
-72.7626
-82.3666
-88.0691
-89.0174
-84.732
-75.1832
-60.8242
-42.5732
-21.7448
0.0655469
21.1305
39.7574
54.4539
64.0718
67.9156
65.8022
58.0663
45.5131
29.3248
10.9328
-8.1286
-26.3711
-42.4876
-55.4608
-64.6358
-69.7515
-70.9315
-68.637
-63.5889
-56.6694
-48.811
-40.8876
-33.616
-27.4818
-22.695
-19.1833
-16.6223
-14.4992
-12.2036
-9.13078
-4.78717
1.11905
8.61317
17.4257
27.0051
36.5721
45.2081
51.9687
56.0062
56.6862
53.6825
47.037
37.1776
24.8892
11.2423
-2.51302
-15.0761
-25.2309
-31.9734
-34.6156
-32.8541
-26.7984
-16.9542
-4.16638
10.4713
25.7294
40.3643
53.2366
63.4125
70.238
73.3808
72.8356
68.8953
62.0919
53.1178
42.7346
31.6839
20.6092
9.99791
0.150665
-8.82172
-16.9736
-24.4787
-31.5702
-38.4773
-45.3664
-52.296
-59.1901
-65.8328
-71.8827
-76.9035
-80.4038
-81.88
-80.8545
-76.9044
-69.6781
-58.9007
-44.374
-25.9758
-3.66809
22.4806
52.257
85.2518
120.806
157.966
195.47
231.769
265.103
293.624
315.545
329.322
333.815
328.418
313.142
288.631
256.113
217.296
174.218
129.081
84.0717
41.2026
2.18333
-31.6737
-59.502
-80.8885
-95.8436
-104.741
-108.24
-107.189
-102.541
-95.2625
-86.2673
-76.3618
-66.2163
-56.3547
-47.1639
-38.9166
-31.8019
-25.9572
-21.4945
-18.5174
-17.1251
-17.4034
-19.4065
-23.1316
-28.4929
-35.3007
-43.2482
-51.9107
-60.7584
-69.1819
-76.5291
-82.1524
-85.4606
-85.9724
-83.3656
-77.5175
-68.5306
-56.7403
-42.7024
-27.1595
-10.9903
4.85666
19.4376
31.8908
41.5106
47.8101
50.5688
49.8595
46.0524
39.7943
31.963
23.6005
15.8256
9.73386
6.29116
6.22978
9.95817
17.4956
28.4421
41.9918
56.9931
72.0531
85.678
96.4347
103.116
104.887
101.401
92.8585
80.0103
64.0995
46.7449
29.7803
15.0666
4.29864
-1.17367
-0.487752
6.6388
19.8737
38.2938
60.4603
84.535
108.423
129.93
146.931
157.531
160.225
154.041
138.649
114.44
82.5384
44.7497
3.44344
-38.6323
-78.5808
-113.608
-141.269
-159.682
-167.689
-164.943
-151.93
-129.908
-100.792
-66.9883
-31.1977
3.79976
35.353
61.1351
79.308
88.6479
88.6241
79.4256
61.9368
37.6622
8.60765
-22.8755
-54.2709
-83.0908
-107.068
-124.331
-133.552
-134.045
-125.825
-109.595
-86.6959
-58.9893
-28.7074
1.73048
29.9162
53.6512
71.1295
81.0898
82.9249
76.7378
63.3377
44.176
21.2232
-3.20347
-26.6486
-46.7461
-61.4438
-69.2046
-69.1606
-61.2044
-46.0047
-24.9422
0.0283218
26.5767
52.2344
74.6449
91.7979
102.222
105.119
100.416
88.751
71.3745
50.0037
26.6334
3.33581
-17.9319
-35.4906
-48.0603
-54.833
-55.4968
-50.2171
-39.5849
-24.5419
-6.29208
13.7927
34.2664
53.7003
70.7679
84.3224
93.4643
97.5961
96.4598
90.1539
79.1253
64.1357
46.2003
26.505
6.30663
-13.1739
-30.8536
-45.8733
-57.6574
-65.9369
-70.7348
-72.3124
-71.0838
-67.5112
-61.9952
-54.7776
-45.8712
-35.0286
-21.7571
-5.38003
14.8594
39.6598
69.5038
104.496
144.221
187.642
233.061
278.164
320.154
355.963
382.534
397.145
397.722
383.117
353.308
309.484
254.013
190.272
122.37
54.7822
-8.06187
-62.1914
-104.462
-132.836
-146.549
-146.137
-133.33
-110.836
-82.019
-50.5353
-19.9558
6.57919
26.6381
38.6818
42.14
37.38
25.5785
8.51971
-11.652
-32.6934
-52.5073
-69.3439
-81.9424
-89.601
-92.1786
-90.0348
-83.9258
-74.8736
-64.0289
-52.5427
-41.4611
-31.6479
-23.7387
-18.1234
-14.9527
-14.1623
-15.5064
-18.5972
-22.9434
-27.9867
-33.1343
-37.7899
-41.383
-43.399
-43.4101
-41.1063
-36.3239
-29.0678
-19.5242
-8.06049
4.79029
18.3612
31.8981
44.619
55.781
64.7487
71.0567
74.4584
74.9542
72.7949
68.4579
62.5981
55.9787
49.3894
43.5618
39.0916
36.3785
35.588
36.6415
39.2351
42.883
46.982
50.8881
53.9964
55.8146
56.0223
54.5084
51.3821
46.9576
41.7124
36.2261
31.1059
26.907
24.0583
22.8018
23.1529
24.8868
27.5547
30.5261
33.0562
34.3677
33.7411
30.6025
24.6007
15.6647
4.03505
-9.73608
-24.8192
-40.1752
-54.651
-67.0951
-76.4806
-82.0205
-83.2619
-80.1478
-73.0358
-62.6722
-50.1223
-36.6651
-23.6627
-12.4209
-4.05637
0.615029
1.15523
-2.45994
-9.84876
-20.2722
-32.7156
-45.9933
-58.8634
-70.1409
-78.7997
-84.0537
-85.4134
-82.714
-76.1165
-66.0828
-53.3291
-38.7619
-23.4018
-8.30088
5.5415
17.2582
26.1833
31.9044
34.295
33.5204
30.018
24.451
17.6408
10.4833
3.85863
-1.45659
-4.86376
-5.9966
-4.74865
-1.27164
4.05418
10.6734
17.9253
25.1211
31.6186
36.8863
40.5485
42.4064
42.4361
40.7641
37.6258
33.3166
28.1423
22.3779
16.2405
9.87967
3.3847
-3.19326
-9.81066
-16.3989
-22.8375
-28.9398
-34.4566
-39.0971
-42.5673
-44.6157
-45.0806
-43.927
-41.267
-37.359
-32.5853
-27.411
-22.3298
-17.8041
-14.2045
-11.7563
-10.496
-10.2432
-10.5888
-10.9036
-10.3696
-8.03425
-2.8909
6.01988
19.492
38.0299
61.7337
90.2086
122.517
157.184
192.271
225.505
254.471
276.835
290.586
294.254
287.079
269.118
241.246
205.08
162.816
117.013
70.348
25.3768
-15.6674
-51.0256
-79.4972
-100.461
-113.838
-120.021
-119.769
-114.106
-104.215
-91.3557
-76.7888
-61.7212
-47.2622
-34.3875
-23.9086
-16.4464
-12.4089
-11.9752
-15.089
-21.463
-30.5966
-41.807
-54.2717
-67.0805
-79.294
-90.0043
-98.3951
-103.798
-105.742
-103.992
-98.572
-89.7754
-78.1486
-64.4566
-49.6271
-34.6751
-20.6166
-8.37769
1.2923
7.89267
11.2216
11.3978
8.85077
4.27995
-1.4138
-7.21778
-12.1096
-15.1614
-15.637
-13.0691
-7.31157
1.44317
12.6815
25.6214
39.2948
52.6512
64.6699
74.4696
81.4014
85.1146
85.5882
83.1242
78.3039
71.9131
64.8459
57.9994
52.1728
47.9835
45.8099
45.7679
47.7205
51.3183
56.062
61.3756
66.6794
71.4526
75.2768
77.8593
79.0342
78.7481
77.035
73.9877
69.7322
64.4088
58.1628
51.1435
43.51
35.4401
27.1384
18.84
10.8084
3.32444
-3.33082
-8.89946
-13.1724
-16.0146
-17.3859
-17.3542
-16.0988
-13.9013
-11.1246
-8.18089
-5.49176
-3.44459
-2.35059
-2.40985
-3.68809
-6.10858
-9.46047
-13.4229
-17.602
-21.5761
-24.9436
-27.3684
-28.6156
-28.5763
-27.2761
-24.8683
-21.6133
-17.8455
-13.934
-10.2407
-7.08096
-4.69186
-3.21137
-2.66968
-2.99332
-4.02025
-5.52315
-7.2376
-8.89134
-10.2316
-11.0478
-11.1876
-10.5661
-9.16722
-7.03879
-4.28152
-1.03467
2.54055
6.27753
10.0193
13.6304
17.0051
20.0718
22.7927
25.1616
27.1986
28.9437
30.45
31.7764
32.9797
34.1067
35.1859
36.2184
37.1701
37.9647
38.4805
38.5511
37.9722
36.5154
33.9495
30.069
24.7278
17.8751
9.5872
0.0905725
-10.2318
-20.8542
-31.1442
-40.4198
-48.0212
-53.3886
-56.1347
-56.1003
-53.3811
-48.3185
-41.4517
-33.4325
-24.9136
-16.4241
-8.25247
-0.357111
7.67533
16.6108
27.4817
41.4395
59.5624
82.6448
110.999
144.299
181.496
220.811
259.825
295.647
325.157
345.305
353.436
347.615
326.908
291.597
243.262
184.741
119.922
53.4071
-9.93703
-65.4818
-109.329
-138.731
-152.377
-150.511
-134.871
-108.442
-75.0841
-39.0662
-4.5777
24.7211
46.0564
57.7693
59.3944
51.5932
35.9629
14.7551
-9.45008
-34.0701
-56.8058
-75.8548
-90.0364
-98.8216
-102.281
-100.969
-95.7622
-87.6986
-77.8179
-67.0413
-56.0944
-45.4783
-35.486
-26.2525
-17.8237
-10.2272
-3.53027
2.12777
6.53498
9.43789
10.5986
9.86655
7.25024
2.9741
-2.4935
-8.44966
-14.0065
-18.1763
-19.9824
-18.5796
-13.3671
-4.079
9.16325
25.841
45.0746
65.6982
86.3648
105.666
122.252
134.945
142.83
145.322
142.212
133.686
120.327
103.092
83.2684
62.4014
42.1964
24.3926
10.6158
2.22296
0.155263
4.81935
16.015
32.9211
54.144
77.8249
101.794
123.76
141.512
153.128
157.155
152.768
139.858
119.071
91.7626
59.8792
25.7819
-7.97835
-38.9031
-64.7796
-83.8802
-95.1065
-98.0665
-93.0814
-81.125
-63.7062
-42.7104
-20.2158
1.69819
21.1314
36.5194
46.7523
51.2467
49.9678
43.4004
32.4737
18.4489
2.78177
-13.0267
-27.5752
-39.6887
-48.5161
-53.5876
-54.8311
-52.5453
-47.3371
-40.0308
-31.5619
-22.8674
-14.7854
-7.97432
-2.85929
0.390874
1.85547
1.82664
0.753068
-0.828902
-2.36756
-3.36276
-3.41991
-2.28586
0.135975
3.79066
8.49389
13.9661
19.8723
25.861
31.5977
36.788
41.1898
44.616
46.9286
48.0307
47.8596
46.3853
43.6156
39.6092
34.4918
28.4724
21.8532
15.0282
8.46605
2.67751
-1.8322
-4.6197
-5.36155
-3.90526
-0.305055
5.16432
12.0193
19.6045
27.1516
33.853
38.9413
41.7654
41.8534
38.9567
33.0697
24.425
13.4659
0.799239
-12.8634
-26.7711
-40.1968
-52.491
-63.1206
-71.6859
-77.9138
-81.628
-82.6989
-80.9827
-76.2621
-68.2044
-56.3499
-40.1443
-19.0177
7.49043
39.5776
77.0142
119.001
164.076
210.105
254.37
293.761
325.064
345.314
352.159
344.197
321.214
284.3
235.805
179.14
118.445
58.1642
2.58958
-44.5751
-80.5696
-103.815
-114.007
-112.071
-99.9787
-80.472
-56.7222
-31.9726
-9.20264
9.15115
21.3925
26.6673
24.9686
17.0516
4.27651
-11.5992
-28.6518
-45.0195
-59.1027
-69.7152
-76.173
-78.3153
-76.4606
-71.3081
-63.8029
-54.985
-45.8445
-37.2017
-29.6278
-23.4125
-18.5805
-14.9482
-12.207
-10.0179
-8.09797
-6.28311
-4.55743
-3.04359
-1.95742
-1.53641
-1.95613
-3.25154
-5.25878
-7.59023
-9.64979
-10.6888
-9.89727
-6.51753
0.0336006
10.0535
23.4692
39.7946
58.138
77.2626
95.6968
111.883
124.349
131.884
133.701
129.557
119.82
105.473
88.0432
69.457
51.8469
37.3161
27.6962
24.3235
27.8639
38.2071
54.4473
74.9536
97.5246
119.613
138.593
152.048
158.035
155.314
143.503
123.144
95.6793
63.3313
28.8939
-4.53921
-33.8897
-56.4174
-70.0188
-73.4667
-66.5621
-50.1794
-26.1948
2.69574
33.2531
62.0345
85.7605
101.666
107.797
103.217
88.1046
63.7242
32.2817
-3.32071
-39.8005
-73.8447
-102.454
-123.242
-134.658
-136.115
-128.002
-111.599
-88.8999
-62.3643
-34.643
-8.29576
14.4595
31.9433
43.1387
47.736
46.1
39.1702
28.3137
15.1494
1.36804
-11.4348
-21.8972
-28.9926
-32.0913
-30.9823
-25.8606
-17.2847
-6.11191
6.58455
19.6088
31.7419
41.8406
48.9306
52.2868
51.4968
46.4999
37.6022
25.4619
11.0467
-4.43493
-19.6264
-33.1316
-43.6336
-50.0116
-51.4494
-47.5222
-38.2562
-24.1516
-6.1658
14.3472
35.7366
56.1908
73.8963
87.2078
94.8113
95.8644
90.0965
77.8577
60.1081
38.3471
14.4861
-9.3231
-30.8897
-48.1954
-59.5963
-63.9944
-60.9612
-50.8005
-34.5393
-13.8483
9.1067
31.8675
51.9232
66.9625
75.112
75.1339
66.5625
49.7615
25.8986
-3.16138
-35.0286
-67.0078
-96.3378
-120.427
-137.059
-144.559
-141.899
-128.754
-105.501
-73.1806
-33.4166
11.6839
59.6591
107.839
153.512
194.103
227.358
251.513
265.444
268.76
261.843
245.804
222.383
193.767
162.374
130.615
100.653
74.2083
52.4094
35.7231
23.9605
16.3599
11.7337
8.65822
5.68453
1.5412
-4.69476
-13.4804
-24.7567
-37.9711
-52.1691
-66.1412
-78.6055
-88.3993
-94.6541
-96.9289
-95.2814
-90.2701
-82.8833
-74.4067
-66.2479
-59.7413
-55.9616
-55.5717
-58.7262
-65.0453
-73.6608
-83.3286
-92.5916
-99.9702
-104.154
-104.171
-99.5107
-90.1889
-76.7459
-60.1812
-41.8338
-23.2255
-5.88762
8.80904
19.7995
26.4312
28.5209
26.36
20.6695
12.5132
3.18087
-5.94665
-13.5351
-18.425
-19.7392
-16.96
-9.97164
0.935394
15.0967
31.5392
49.0723
66.3983
82.2299
95.4072
105.003
110.41
111.392
108.118
101.141
91.3605
79.9366
68.1898
57.4774
49.0646
44.0008
43.013
46.4258
54.1174
65.515
79.6326
95.1485
110.516
124.103
134.34
139.876
139.712
133.316
120.688
102.379
79.4561
53.4158
26.049
-0.723502
-25.0343
-45.2499
-60.1289
-68.9412
-71.5335
-68.3332
-60.2906
-48.7651
-35.3701
-21.7919
-9.60712
-0.116452
5.78474
7.68592
5.68331
0.343605
-7.38467
-16.3005
-25.1047
-32.5624
-37.6533
-39.6948
-38.4213
-34.0117
-27.061
-18.4982
-9.46254
-1.1526
5.33121
9.1307
9.74125
7.0761
1.47549
-6.34031
-15.3671
-24.4484
-32.425
-38.2804
-41.2634
-40.9715
-37.3847
-30.8477
-22.0066
-11.7107
-0.896512
9.52862
18.7876
26.3058
31.7475
35.0161
36.2211
35.6221
33.5616
30.3972
26.446
21.9466
17.0452
11.8025
6.21992
0.2766
-6.02958
-12.6462
-19.4416
-26.1951
-32.6042
-38.3051
-42.9053
-46.0209
-47.3161
-46.5395
-43.5542
-38.359
-31.1004
-22.0722
-11.7052
-0.544508
10.7832
21.6117
31.2842
39.2047
44.889
48.0085
48.4234
46.2007
41.6137
35.1232
27.3399
18.9736
10.7703
3.44706
-2.373
-6.21628
-7.8016
-7.06538
-4.16729
0.523943
6.46315
12.9766
19.321
24.7489
28.5746
30.237
29.3512
25.7483
19.4968
10.9039
0.498102
-11.0095
-22.7784
-33.9044
-43.4897
-50.7109
-54.8772
-55.4708
-52.1656
-44.8226
-33.4656
-18.2442
0.603597
22.7771
47.9185
75.5921
105.241
136.13
167.295
197.51
225.294
248.976
266.8
277.095
278.457
269.95
251.271
222.87
185.989
142.615
95.345
47.1682
1.20055
-39.61
-72.7658
-96.4591
-109.74
-112.595
-105.925
-91.4344
-71.4326
-48.5867
-25.6419
-5.14594
10.7923
20.6886
23.7932
20.1181
10.3831
-4.11025
-21.6571
-40.3585
-58.3359
-73.9265
-85.841
-93.2679
-95.9195
-94.0174
-88.2245
-79.535
-69.1362
-58.2602
-48.0417
-39.3982
-32.9437
-28.9453
-27.3215
-27.6825
-29.4024
-31.7143
-33.8143
-34.9635
-34.5757
-32.2814
-27.9645
-21.7667
-14.0628
-5.41047
3.51874
12.0188
19.4298
25.2124
29.008
30.6797
30.3306
28.2968
25.1168
21.4785
18.1495
15.8973
15.4076
17.2096
21.6173
28.6929
38.2363
49.8036
62.7503
76.297
89.6057
101.861
112.343
120.483
125.901
128.411
128.012
124.859
119.219
111.439
101.903
91.0159
79.1835
66.8131
54.3118
42.0881
30.5467
20.0753
11.0216
3.66372
-1.82202
-5.38855
-7.13436
-7.30275
-6.26131
-4.46269
-2.39156
-0.505544
0.820308
1.33638
0.94159
-0.316999
-2.26751
-4.65532
-7.19645
-9.63338
-11.7842
-13.578
-15.0702
-16.4369
-17.9473
