-68.2058
-58.6991
-47.4241
-34.5137
-20.2221
-4.91438
10.9556
26.8774
42.3216
56.7792
69.798
81.0127
90.1645
97.1106
101.823
104.377
104.934
103.718
100.998
97.0595
92.1924
86.6748
80.7637
74.6882
68.6462
62.8012
57.2814
52.1784
47.5474
43.4088
39.7507
36.5342
33.7005
31.1783
28.8932
26.7747
24.7632
22.8137
20.8977
19.0024
17.1277
15.2827
13.4817
11.7405
10.0738
8.49354
7.00923
5.62809
4.35636
3.20041
2.16744
1.26555
0.503075
-0.112731
-0.577349
-0.890721
-1.05866
-1.09365
-1.01483
-0.847222
-0.620266
-0.366134
-0.118259
0.0894412
0.222307
0.243597
0.112355
-0.218948
-0.806177
-1.71382
-3.01303
-4.77699
-7.07361
-9.9562
-13.4533
-17.5593
-22.227
-27.3647
-32.8372
-38.4721
-44.0703
-49.4198
-54.3103
-58.5483
-61.9694
-64.4479
-65.9011
-66.2917
-65.6239
-63.9396
-61.3105
-57.8323
-53.6181
-48.7938
-43.4953
-37.8657
-32.0541
-26.2131
-20.4958
-15.05
-10.0125
-5.50069
-1.60598
1.61322
4.1353
5.97648
7.18826
7.85153
8.06801
7.95004
7.61024
7.15216
6.66323
6.21058
5.83999
5.57774
5.43446
5.41021
5.49959
5.69603
5.99458
6.39295
6.89085
7.48806
8.18182
8.96429
9.82063
10.7283
11.6575
12.5731
13.4373
14.2127
14.8655
15.3681
15.7004
15.851
15.8162
15.5987
15.2059
14.6481
13.9364
13.082
12.096
10.9897
9.77444
8.46196
7.06256
5.58282
4.02211
2.36939
0.60109
-1.31845
-3.43327
-5.78845
-8.41961
-11.3405
-14.5304
-17.924
-21.4051
-24.807
-27.9201
-30.5061
-32.3188
-33.1281
-32.7455
-31.046
-27.9864
-23.6148
-18.0731
-11.5894
-4.46406
2.95155
10.2792
17.1399
23.1781
28.0825
31.601
33.5474
33.7998
32.2896
28.9817
23.8498
16.848
7.88699
-3.18153
-16.5651
-32.5121
-51.2733
-73.047
-97.9124
-125.764
-156.254
-188.76
-222.378
-255.96
-288.172
-317.6
-342.865
-362.744
-376.291
-382.928
-382.508
-375.328
-362.108
-343.922
-322.1
-298.103
-273.395
-249.315
-226.978
-207.188
-190.404
-176.728
-165.941
-157.557
-150.903
-145.21
-139.704
-133.684
-126.595
-118.07
-107.957
-96.3197
-83.4183
-69.6718
-55.6092
-41.8129
-28.8604
-17.2704
-7.45722
0.301708
5.88415
9.32535
10.8055
10.6243
9.16607
6.85918
4.13471
1.38802
-1.05275
-2.94871
-4.1612
-4.65168
-4.47133
-3.74258
-2.63536
-1.3409
-0.0463097
1.08776
1.94476
2.46435
2.64898
2.56535
2.34124
2.15808
2.23947
2.83556
4.20364
6.5855
10.1828
15.1328
21.486
29.1906
38.0845
47.8978
58.2672
68.7616
78.9153
88.2687
96.4084
103.005
107.843
110.836
112.034
111.614
109.858
107.125
103.822
100.373
97.1964
94.6909
93.2222
93.1162
94.6471
98.0184
103.334
110.562
119.492
129.699
140.518
151.048
160.186
166.692
169.304
166.863
158.46
143.568
122.151
94.7228
62.3423
26.5499
-10.7607
-47.5163
-81.6648
-111.377
-135.225
-152.318
-162.37
-165.705
-163.189
-156.109
-146.008
-134.496
-123.072
-112.961
-105.001
-99.5737
-96.6007
-95.5944
-95.7549
-96.1016
-95.6208
-93.4101
-88.8016
-81.4504
-71.3775
-58.9643
-44.9016
-30.1004
-15.5787
-2.33825
8.75308
17.0582
22.2367
24.2734
23.4667
20.3809
15.7706
10.4865
5.37629
1.19252
-1.48235
-2.28494
-1.09069
1.99616
6.67876
12.5234
19.026
25.681
32.0417
37.7679
42.6529
46.63
49.7592
52.1968
54.1542
55.8528
57.4803
59.1545
60.9001
62.6385
64.1925
65.3056
65.6704
64.9662
62.8985
59.2388
53.8584
46.7538
38.0603
28.0516
17.1253
5.77501
-5.44757
-15.978
-25.2856
-32.9167
-38.5299
-41.9203
-43.029
-41.94
-38.8632
-34.1083
-28.0521
-21.1034
-13.6696
-6.12872
1.1922
8.02908
14.1849
19.5264
23.975
27.4955
30.0835
31.7547
32.5382
32.472
31.6035
29.992
27.7128
24.8612
21.5547
17.932
14.149
10.371
6.7628
3.47677
0.64149
-1.64809
-3.33759
-4.4162
-4.91558
-4.90482
-4.48209
-3.76404
-2.87427
-1.93193
-1.04163
-0.28548
0.282141
0.636784
0.783127
0.751331
0.591023
0.36356
0.133393
-0.0405083
-0.112195
-0.0543533
0.138686
0.450868
0.847214
1.27898
1.69026
2.02492
2.23252
2.27223
2.11422
1.7385
1.13189
0.284272
-0.814521
-2.17609
-3.81227
-5.73126
-7.9316
-10.3951
-13.0803
-15.9172
-18.8062
-21.6199
-24.2093
-26.4137
-28.0728
-29.0403
-29.1967
-28.4602
-26.7947
-24.2135
-20.7786
-16.5957
-11.8065
-6.5779
-1.09103
4.46921
9.92297
15.1018
19.8522
24.0373
27.5376
30.2505
32.0926
33.0023
32.9452
31.9204
29.9673
27.1706
23.6622
19.6188
15.2538
10.8049
6.51613
2.61891
-0.688004
-3.25581
-4.99851
-5.89953
-6.01108
-5.44655
-4.36662
-2.96097
-1.42781
0.0464227
1.30474
2.23266
2.76522
2.88704
2.62554
2.03816
1.19564
0.164075
-1.01096
-2.31513
-3.7685
-5.42018
-7.33499
-9.57455
-12.176
-15.1327
-18.3805
-21.792
-25.1819
-28.321
-30.9584
-32.8484
-33.778
-33.5917
-32.2093
-29.6357
-25.9598
-21.3457
-16.0143
-10.2216
-4.23397
1.69504
7.34393
12.5366
17.1486
21.107
24.3833
26.9826
28.9304
30.2592
30.9974
31.1629
30.761
29.7887
28.2425
26.1291
23.476
20.3392
16.807
12.9981
9.05333
5.1247
1.36139
-2.10328
-5.16204
-7.73933
-9.79173
-11.3035
-12.2789
-12.7328
-12.6833
-12.1461
-11.1351
-9.66753
-7.77375
-5.51066
-2.97543
-0.317264
2.25578
4.47691
6.02885
6.56005
5.70732
3.12252
-1.49994
-8.39797
-17.722
-29.5226
-43.746
-60.2379
-78.7534
-98.9713
-120.511
-142.948
-165.831
-188.696
-211.076
-232.517
-252.586
-270.883
-287.057
-300.808
-311.903
-320.176
-325.526
-327.917
-327.362
-323.911
-317.633
-308.609
-296.918
-282.646
-265.896
-246.816
-225.634
-202.69
-178.47
-153.617
-128.92
-105.265
-83.5697
-64.6819
-49.2819
-37.7877
-30.2902
-26.5261
-25.8992
-27.5451
-30.4348
-33.4989
-35.7573
-36.434
-35.0431
-31.433
-25.7862
-18.5755
-10.4849
-2.30784
5.16273
11.237
15.4119
17.4253
17.2777
15.2216
11.722
7.39735
2.94751
-0.921558
-3.56912
-4.48099
-3.31612
0.0641824
5.58587
12.9706
21.7615
31.3645
41.1008
50.2667
58.1952
64.3144
68.1961
69.5919
68.4506
64.9189
59.3216
52.1267
43.8977
35.2383
26.7361
18.9102
12.1692
6.78129
2.86175
0.375007
-0.847666
-1.07893
-0.658343
0.0479993
0.686723
0.951557
0.610141
-0.478278
-2.35458
-4.96039
-8.14633
-11.6864
-15.2969
-18.6583
-21.4391
-23.3192
-24.013
-23.2894
-20.9886
-17.0328
-11.4318
-4.28171
4.24235
13.8989
24.3964
35.4121
46.6114
57.6657
68.2678
78.1432
87.0573
94.8181
101.275
106.313
109.852
111.834
112.224
111.003
108.175
103.762
97.8214
90.4468
81.7837
72.0359
61.4698
50.4116
39.2373
28.353
18.1697
9.07233
1.38767
-4.64434
-8.89318
-11.3502
-12.1296
-11.4562
-9.64354
-7.06198
-4.10253
-1.13988
1.50137
3.57318
4.92099
5.48953
5.31756
4.52298
3.28068
1.79617
0.278533
-1.08438
-2.14554
-2.81155
-3.04777
-2.87581
-2.36463
-1.61687
-0.752603
0.107358
0.85632
1.41329
1.73011
1.79367
1.62357
1.26587
0.784306
0.250348
-0.266444
-0.706578
-1.02649
-1.2017
-1.2273
-1.11609
-0.894896
-0.599813
-0.270983
0.0523854
0.336272
0.554986
0.693007
0.745473
0.717435
0.62211
0.47843
0.308243
0.133501
-0.0262443
-0.155783
-0.245458
-0.291565
-0.295977
-0.26514
-0.20863
-0.137525
-0.0628279
0.00585376
0.0611868
0.0983933
0.114789
0.108513
0.0765881
0.012766
-0.0940191
-0.259624
-0.502314
-0.837828
-1.2726
-1.79662
-2.37809
-2.96173
-3.47226
-3.8231
-3.92934
-3.72297
-3.16746
-2.26916
-1.08305
0.288716
1.70578
3.00542
4.02328
4.61616
4.6837
4.18552
3.15123
1.68131
-0.0618386
-1.87208
-3.5249
-4.80677
-5.54458
-5.63075
-5.04001
-3.83516
-2.16034
-0.223095
1.7323
3.45548
4.71986
5.34712
5.22293
4.30277
2.60838
0.217643
-2.74869
-6.13953
-9.78253
-13.489
-17.0557
-20.2659
-22.895
-24.7207
-25.5421
-25.2044
-23.6258
-20.8216
-16.92
-12.1642
-6.89907
-1.54224
3.45725
7.66693
10.7193
12.3538
12.4464
11.0231
8.25656
4.44518
-0.0194592
-4.69453
-9.13088
-12.9167
-15.7159
-17.2981
-17.5586
-16.527
-14.3633
-11.3431
-7.83058
-4.24275
-1.00687
1.48472
2.91775
3.09195
1.94528
-0.437245
-3.83162
-7.89946
-12.2263
-16.3693
-19.9081
-22.4932
-23.8854
-23.982
-22.8262
-20.5992
-17.5959
-14.1883
-10.7795
-7.75678
-5.44618
-4.07687
-3.7571
-4.46513
-6.05541
-8.27854
-10.8122
-13.2987
-15.3842
-16.7558
-17.171
-16.4791
-14.631
-11.6802
-7.77337
-3.13529
1.95177
7.17107
12.1957
16.7136
20.4517
23.2007
24.8378
25.3475
24.838
23.5515
21.8658
20.286
19.4256
19.9751
22.6564
28.1621
37.0777
49.7876
66.3736
86.5178
109.43
133.823
157.95
179.727
196.922
207.403
209.419
201.849
184.414
157.778
123.546
84.1337
42.5279
1.97163
-34.3913
-63.8623
-84.4784
-95.2117
-96.053
-87.9708
-72.7576
-52.7842
-30.6994
-9.11397
9.69047
23.9937
32.785
35.8153
33.5536
27.0606
17.8011
7.42252
-2.46931
-10.5112
-15.736
-17.6633
-16.32
-12.1944
-6.13087
0.81443
7.53856
13.0526
16.6182
17.8412
16.7137
13.5985
9.16361
4.27526
-0.131821
-3.18965
-4.21832
-2.81743
1.08371
7.22248
15.0448
23.785
32.572
40.5451
46.9655
51.3066
53.3118
53.0145
50.7168
46.9327
42.3036
37.5007
33.1251
29.6225
27.2207
25.9
25.3971
25.2425
24.8251
23.4749
20.5534
15.5409
8.10922
-1.82822
-14.0945
-28.2588
-43.6761
-59.551
-75.0188
-89.2313
-101.438
-111.054
-117.7
-121.226
-121.699
-119.387
-114.71
-108.196
-100.438
-92.041
-83.5923
-75.6253
-68.598
-62.8748
-58.716
-56.2729
-55.5894
-56.6093
-59.1882
-63.1074
-68.0897
-73.813
-79.9229
-86.0431
-91.7864
-96.7659
-100.611
-102.986
-103.612
-102.289
-98.9193
-93.5205
-86.2341
-77.3222
-67.1535
-56.1787
-44.8985
-33.8254
-23.4446
-14.1777
-6.35208
-0.179327
4.2549
6.99007
8.1786
8.0644
6.95455
5.18732
3.0999
0.998912
-0.863277
-2.30479
-3.22184
-3.58773
-3.44416
-2.88652
-2.04535
-1.06634
-0.0912387
0.758311
1.39259
1.76038
1.85015
1.68645
1.32231
0.829231
0.286091
-0.231539
-0.66035
-0.955656
-1.09459
-1.07598
-0.917151
-0.64835
-0.305529
0.0772654
0.474885
0.876444
1.28831
1.73431
2.25319
2.89363
3.70752
4.74238
6.03386
7.59929
9.43319
11.5052
13.7607
16.1245
18.5068
20.8105
22.9399
24.8092
26.3498
27.5155
28.2863
28.6686
28.6932
28.4115
27.889
27.1993
26.4166
25.6099
24.8375
24.1429
23.5523
23.0735
22.6961
22.3929
22.1222
21.8306
21.4572
20.9373
20.2072
19.2078
17.8893
16.2134
14.1565
11.7101
8.88081
5.6895
2.16902
-1.63773
-5.67964
-9.89831
-14.2281
-18.5951
-22.9165
-27.0993
-31.0414
-34.6336
-37.7648
-40.3279
-42.2286
-43.3931
-43.7771
-43.3712
-42.205
-40.3475
-37.9035
-35.0071
-31.8111
-28.4755
-25.1539
-21.9806
-19.0603
-16.4607
-14.2096
-12.2969
-10.681
-9.29867
-8.07667
-6.94418
-5.84338
-4.73732
-3.614
-2.48631
-1.38813
-0.367413
0.52255
1.23224
1.72415
1.9789
1.99858
1.80693
1.44659
0.973858
0.451929
-0.0564967
-0.496152
-0.824862
-1.01726
-1.06623
-0.982054
-0.78959
-0.523888
-0.225025
0.0671986
0.318033
0.50147
0.602519
0.617936
0.555472
0.431884
0.270075
0.095751
-0.0659813
-0.193706
-0.27216
-0.293818
-0.259442
-0.177564
-0.0629836
0.0655122
0.187873
0.28559
0.344202
0.355175
0.316997
0.235428
0.123067
-0.00149779
-0.114597
-0.188082
-0.189378
-0.080909
0.180897
0.646584
1.37402
2.42747
3.87513
5.78503
8.22034
11.2353
14.8736
19.1717
24.1668
29.9114
36.4911
44.0426
52.7666
62.9283
74.8396
88.8183
105.122
123.862
144.916
167.837
191.806
215.623
237.763
256.493
270.046
276.822
275.604
265.743
247.283
221.015
188.438
151.632
113.056
75.2999
40.8209
11.6941
-10.5866
-25.2371
-32.2269
-32.2357
-26.5338
-16.8032
-4.92488
7.23962
18.0473
26.2307
30.9981
32.0697
29.6519
24.3566
17.0828
8.87592
0.784972
-6.26517
-11.5731
-14.7221
-15.6005
-14.3826
-11.4762
-7.4475
-2.93489
1.43749
5.13467
7.76678
9.12099
9.16809
8.04557
6.02201
3.44916
0.708946
-1.83727
-3.89142
-5.24882
-5.81349
-5.59828
-4.7116
-3.33364
-1.6864
-0.00164548
1.50881
2.67725
3.39614
3.62499
3.38826
2.7654
1.87506
0.856244
-0.151142
-1.02376
-1.6684
-2.03027
-2.09576
-1.88972
-1.46867
-0.911722
-0.312266
0.226065
0.585624
0.620698
0.133386
-1.15677
-3.64167
-7.84136
-14.3974
-24.0337
-37.482
-55.3747
-78.1194
-105.773
-137.941
-173.718
-211.703
-250.071
-286.726
-319.503
-346.389
-365.758
-376.556
-378.433
-371.794
-357.76
-338.045
-314.771
-290.226
-266.626
-245.876
-229.387
-217.95
-211.69
-210.098
-212.131
-216.371
-221.21
-225.051
-226.489
-224.463
-218.352
-208.019
-193.798
-176.426
-156.933
-136.516
-116.395
-97.6826
-81.2715
-67.7576
-57.4004
-50.1235
-45.5523
-43.0831
-41.9716
-41.4317
-40.7315
-39.2759
-36.6662
-32.7325
-27.5357
-21.3411
-14.5694
-7.73118
-1.35598
4.07674
8.19521
10.7757
11.762
11.263
9.5308
6.92437
3.86383
0.783184
-1.91311
-3.88468
-4.87832
-4.73894
-3.40962
-0.923001
2.61259
7.02944
12.1165
17.633
23.3194
28.9053
34.1145
38.6697
42.298
44.7382
45.7513
45.1344
42.7379
38.4837
32.383
24.5507
15.2145
4.71563
-6.49952
-17.8983
-28.8911
-38.8695
-47.2516
-53.5297
-57.3173
-58.3884
-56.7053
-52.4292
-45.9125
-37.6707
-28.3359
-18.5981
-9.13681
-0.55461
6.68352
12.2953
16.2063
18.5518
19.654
19.9778
20.07
20.4891
21.7348
24.1856
28.0523
33.3532
39.9135
47.3879
55.3031
63.1144
70.2683
76.2629
80.7009
83.3269
84.0481
82.9359
80.2106
76.2118
71.359
66.1076
60.9051
56.1513
52.1681
49.1777
47.2946
46.5274
46.7911
47.928
49.7315
51.9729
54.4254
56.8836
59.1765
61.1724
62.7759
63.9172
64.5343
64.551
63.853
62.2665
59.5444
55.3644
49.3436
41.0709
30.1564
16.2921
-0.682366
-20.7204
-43.5242
-68.5255
-94.8971
-121.597
-147.444
-171.216
-191.757
-208.097
-219.539
-225.738
-226.731
-222.938
-215.119
-204.292
-191.633
-178.357
-165.6
-154.311
-145.175
-138.554
-134.477
-132.661
-132.565
-133.473
-134.583
-135.116
-134.399
-131.947
-127.502
-121.056
-112.836
-103.258
-92.869
-82.2693
-72.0361
-62.6553
-54.4697
-47.6494
-42.1873
-37.9184
-34.5587
-31.7573
-29.1533
-26.4298
-23.3572
-19.8212
-15.8322
-11.5163
-7.0904
-2.82591
0.993214
4.11177
6.33857
7.57129
7.80845
7.14842
5.77739
3.95057
1.97161
0.175832
-1.07901
-1.41299
-0.418012
2.34781
7.35591
15.083
25.9597
40.2904
58.1544
79.3028
103.077
128.371
153.661
177.106
196.722
210.601
217.151
215.325
204.785
185.995
160.21
129.361
95.8593
62.3308
31.3296
5.05696
-14.8709
-27.5808
-33.0063
-31.8533
-25.4744
-15.6729
-4.4627
6.18238
14.5589
19.4161
20.0704
16.4432
9.02166
-1.24688
-13.1087
-25.1836
-36.1459
-44.8846
-50.6239
-52.9925
-52.0361
-48.1781
-42.135
-34.8036
-27.1333
-20.0031
-14.1157
-9.92145
-7.57771
-6.94712
-7.63149
-9.03545
-10.4506
-11.1495
-10.4768
-7.92948
-3.21365
3.72397
12.6949
23.2954
34.9568
47.0112
58.7655
69.5727
78.8944
86.3454
91.7185
94.9876
96.2903
95.8944
94.1527
91.4547
88.1776
84.646
81.1011
77.683
74.4273
71.2741
68.0887
64.69
60.8841
56.4983
51.4116
45.5799
39.0497
31.9629
24.5486
17.1051
9.973
3.50317
-1.97765
-6.19932
-8.97563
-10.2236
-9.97297
-8.36465
-5.63899
-2.11453
1.84025
5.83966
9.51468
12.5448
14.685
15.7844
15.7961
14.7763
12.8728
10.3053
7.33804
4.24885
1.29722
-1.30459
-3.41453
-4.97518
-6.01805
-6.65761
-7.07614
-7.50176
-8.18251
-9.35962
-11.2429
-13.9903
-17.6924
-22.3634
-27.9369
-34.2672
-41.1357
-48.2607
-55.3117
-61.9273
-67.7361
-72.3801
-75.5394
-76.9569
-76.461
-73.9837
-69.5726
-63.3949
-55.7314
-46.9608
-37.5351
-27.9468
-18.692
-10.232
-2.95727
2.84229
6.99763
9.46991
10.3478
9.83373
8.22019
5.86
3.13259
0.41031
-1.97244
-3.7446
-4.71648
-4.78946
-3.95701
-2.29752
0.0398751
2.85461
5.91723
8.99262
11.8618
14.3403
16.2912
17.6325
18.3387
18.4351
17.9891
17.0966
15.8661
14.4039
12.7989
11.1115
9.36727
7.55543
5.6339
3.53963
1.20343
-1.43269
-4.39777
-7.67617
-11.1962
-14.8251
-18.371
-21.5943
-24.2252
-25.9889
-26.6337
-25.9608
-23.8505
-20.2829
-15.3495
-9.25358
-2.29921
5.1302
12.6024
19.6723
25.9198
30.9848
34.5979
36.5997
36.9519
35.7345
33.1338
29.4198
24.9177
19.9763
14.9357
10.0989
5.70966
1.93761
-1.12754
-3.47342
-5.15481
-6.27783
-6.98068
-7.41328
-7.71811
-8.01436
-8.38668
-8.87947
-9.49683
-10.2077
-10.9547
-11.6661
-12.2678
-12.6948
-12.9
-12.8595
-12.5744
-12.0682
-11.3818
-10.5664
-9.6757
-8.75864
-7.85399
-6.98687
-6.16801
-5.39549
-4.65897
-3.94594
-3.24935
-2.57559
-1.95174
-1.43044
-1.09114
-1.03646
-1.38335
-2.24908
-3.73329
-5.8978
-8.74673
-12.2096
-16.1301
-20.2633
-24.2829
-27.7985
-30.3842
-31.6149
-31.1077
-28.5647
-23.8119
-16.8294
-7.76832
3.04734
15.1367
27.8935
40.6319
52.6404
63.2406
71.8438
77.9998
81.4351
82.0741
80.044
75.6612
69.4003
61.8493
53.6546
45.4605
37.8498
31.2909
26.0972
22.4017
20.1507
19.1149
18.9172
19.0726
19.035
18.2466
16.1845
12.4011
6.55671
-1.55694
-12.0016
-24.6856
-39.3654
-55.6541
-73.0383
-90.9023
-108.559
-125.289
-140.377
-153.153
-163.024
-169.502
-172.209
-170.885
-165.376
-155.635
-141.728
-123.849
-102.365
-77.8623
-51.1928
-23.4973
3.80889
29.1025
50.6736
66.8909
76.3922
78.2702
72.2233
58.6437
38.6241
13.8746
-13.4411
-40.9327
-66.2433
-87.3081
-102.579
-111.186
-113.01
-108.675
-99.4372
-87.0151
-73.3628
-60.4269
-49.9138
-43.0954
-40.6751
-42.7288
-48.7233
-57.6084
-67.9679
-78.2103
-86.774
-92.3221
-93.9038
-91.0644
-83.8913
-72.9927
-59.4132
-44.4982
-29.7253
-16.5244
-6.10813
0.664535
3.37804
2.09268
-2.68144
-10.063
-18.9189
-28.0073
-36.1272
-42.2543
-45.6493
-45.9261
-43.0751
-37.4397
-29.6529
-20.5427
-11.0205
-1.96519
5.88134
11.9953
16.12
18.2783
18.7479
18.0057
16.6488
15.3045
14.541
14.7917
16.3012
19.101
23.0163
27.7023
32.7042
37.5312
41.7353
44.9819
47.1034
48.1285
48.2818
47.9552
47.655
47.931
49.2994
52.1687
56.7794
63.1656
71.1435
80.3273
90.1707
100.027
109.219
117.113
123.184
127.059
128.555
127.675
124.598
119.641
113.215
105.77
97.7427
89.5146
81.3815
73.5371
66.0735
58.9949
52.2415
45.7193
39.33
32.9972
26.6861
20.4133
14.2477
8.3021
2.7187
-2.34971
-6.75936
-10.3932
-13.1743
-15.0741
-16.1136
-16.36
-15.9176
-14.9165
-13.4995
-11.8102
-9.98289
-8.13489
-6.36252
-4.73974
-3.31901
-2.13369
-1.20098
-0.52499
-0.0993736
0.090537
0.0659851
-0.146711
-0.517631
-1.01481
-1.60589
-2.25975
-2.94798
-3.646
-4.33372
-4.99578
-5.62127
-6.20321
-6.73784
-7.22397
-7.66226
-8.05453
-8.40276
-8.70742
-8.96495
-9.16427
-9.28271
-9.28215
-9.10645
-8.68167
-7.91997
-6.72814
-5.0202
-2.73323
0.155819
3.61514
7.5479
11.7896
16.1143
20.2512
23.9082
26.8021
28.6899
29.3985
28.8471
27.0605
24.1706
20.4058
16.0698
11.5116
7.09112
3.14425
-0.0492208
-2.29038
-3.47681
-3.60749
-2.77708
-1.16061
1.00908
3.46823
5.95033
8.21213
10.055
11.3394
11.9916
12.0022
11.4179
10.3273
8.84449
7.09141
5.18253
3.21346
1.25478
-0.648453
-2.4721
-4.20454
-5.83631
-7.35005
-8.71255
-9.87075
-10.7525
-11.2723
-11.3417
-10.8822
-9.84067
-8.20305
-6.00618
-3.34481
-0.372909
2.70156
5.62842
8.13287
9.93748
10.7866
10.4706
8.84804
5.86235
1.55144
-3.95111
-10.4242
-17.576
-25.0681
-32.5441
-39.6604
-46.1149
-51.6716
-56.177
-59.5682
-61.8707
-63.1873
-63.6799
-63.5465
-62.9955
-62.2228
-61.3916
-60.619
-59.9698
-59.4573
-59.0514
-58.6903
-58.2963
-57.7908
-57.1081
-56.2051
-55.0666
-53.7049
-52.1549
-50.4653
-48.6876
-46.8638
-45.0161
-43.1393
-41.1992
-39.1347
-36.8676
-34.3149
-31.4044
-28.0903
-24.3646
-20.2648
-15.8739
-11.314
-6.73388
-2.29238
1.8596
5.59533
8.82404
11.4966
13.6039
15.1693
16.2366
16.856
17.0716
16.9136
16.3958
15.5201
14.2876
12.7131
10.8417
8.7619
6.61341
4.58585
2.90733
1.82339
1.56837
2.33327
4.23519
7.29393
11.421
16.425
22.0348
27.9392
33.8391
39.5046
44.8273
49.8589
54.8267
60.1182
66.2345
73.7114
83.0189
94.4499
108.016
123.37
139.774
156.121
171.02
182.933
190.351
191.989
186.958
174.909
156.112
131.46
102.406
70.821
38.8162
8.52235
-18.1238
-39.574
-54.8167
-63.4642
-65.7685
-62.5669
-55.1636
-45.1632
-34.2764
-24.1212
-16.0428
-10.9747
-9.35487
-11.1061
-15.6806
-22.1612
-29.4031
-36.1973
-41.4344
-44.246
-44.1083
-40.8956
-34.8792
-26.6756
-17.152
-7.30482
1.87185
9.51114
14.9753
17.9232
18.3374
16.5089
12.9846
8.48758
3.81919
-0.240501
-3.02365
-4.0454
-3.0476
-0.0123438
4.85389
11.161
18.3937
25.9786
33.3521
40.0191
45.5976
49.8458
52.6678
54.1025
54.2964
53.4667
51.8609
49.7176
47.2353
44.5516
41.7364
38.797
35.694
32.3643
28.7443
24.7907
20.4932
15.877
10.9974
5.92573
0.733201
-4.52425
-9.81641
-15.1418
-20.5227
-25.9934
-31.5847
-37.3071
-43.1378
-49.0133
-54.8304
-60.4554
-65.7416
-70.5513
-74.7803
-78.3792
-81.3694
-83.8491
-85.9877
-88.0098
-90.1686
-92.7134
-95.8554
-99.7363
-104.405
-109.803
-115.77
-122.052
-128.333
-134.261
-139.494
-143.727
-146.73
-148.361
-148.577
-147.43
-145.049
-141.616
-137.338
-132.416
-127.017
-121.257
-115.191
-108.813
-102.069
-94.877
-87.1506
-78.8294
-69.9034
-60.4329
-50.5588
-40.5023
-30.5514
-21.0391
-12.3111
-4.69169
1.55099
6.23467
9.28347
10.7371
10.7473
9.56219
7.50032
4.91804
2.17393
-0.405362
-2.55397
-4.08739
-4.9128
-5.02881
-4.51517
-3.51454
-2.20905
-0.794727
0.542988
1.64992
2.41793
2.7927
2.77414
2.41039
1.78647
1.00983
0.194656
-0.552939
-1.14711
-1.53066
-1.67899
-1.59954
-1.32742
-0.917954
-0.437607
0.0455342
0.470443
0.790026
0.975511
1.01807
0.927778
0.73031
0.462046
0.16435
-0.122156
-0.362614
-0.53169
-0.61574
-0.613267
-0.533797
-0.395484
-0.22186
-0.0382576
0.131614
0.268498
0.359518
0.399065
0.388672
0.336066
0.25366
0.156793
0.0619671
-0.0147391
-0.0590362
-0.0595665
-0.00889006
0.0956433
0.251148
0.448678
0.673098
0.90356
1.11479
1.27923
1.37003
1.36449
1.24759
1.01499
0.674891
0.248378
-0.231977
-0.725246
-1.1866
-1.57253
-1.8461
-1.98145
-1.96704
-1.80699
-1.52042
-1.13896
-0.702544
-0.254297
0.164894
0.521319
0.792184
0.967621
1.0507
1.05549
1.00358
0.919619
0.826731
0.742534
0.676465
0.628784
0.591375
0.550106
0.488294
0.390595
0.246631
0.0537007
-0.181878
-0.445015
-0.713616
-0.96157
-1.16246
-1.29336
-1.33821
-1.29016
-1.15261
-0.938777
-0.669824
-0.371778
-0.0716568
0.206726
0.446688
0.641775
0.797549
0.931757
1.07282
1.2568
1.52336
1.91121
2.45387
3.17612
4.09164
5.20181
6.49535
7.94856
9.5256
11.1787
12.8484
14.4639
15.9441
17.2006
18.1416
18.6783
18.7328
18.2467
17.1904
15.5696
13.4312
10.8633
7.99274
4.9767
1.9908
-0.785681
-3.18595
-5.07097
-6.34212
-6.94946
-6.89461
-6.22781
-5.03949
-3.44741
-1.58088
0.436422
2.50326
4.55598
6.58107
8.6244
10.797
13.2769
16.3077
20.1921
25.2812
31.9565
40.6039
51.5764
65.1461
81.4439
100.393
121.644
144.524
168.013
190.767
211.183
227.529
238.11
241.464
236.556
222.949
200.914
171.466
136.308
97.698
58.2342
20.6007
-12.7035
-39.6159
-58.7105
-69.3231
-71.588
-66.3846
-55.2028
-39.9495
-22.7193
-5.56108
9.73177
21.7858
29.7491
33.325
32.7381
28.6456
22.0072
13.9355
5.54569
-2.17638
-8.47496
-12.8838
-15.243
-15.6747
-14.5275
-12.2986
-9.54681
-6.80899
-4.53031
-3.01502
-2.40239
-2.66763
-3.64474
-5.06559
-6.60837
-7.94773
-8.79998
-8.95805
-8.31281
-6.85964
-4.69104
-1.97796
1.05681
4.16871
7.12109
9.71081
11.7872
13.2631
14.1165
14.3856
14.1568
13.5482
12.6919
11.7166
10.7329
9.82223
9.03133
8.37186
7.82469
7.34803
6.88795
6.38957
5.80737
5.11325
4.30129
3.38888
2.41425
1.43092
0.500173
-0.317385
-0.969906
-1.42094
-1.6538
-1.67319
-1.5041
-1.18814
-0.778149
-0.331951
0.093639
0.447186
0.684289
0.765692
0.651754
0.294144
-0.373404
-1.44267
-3.03413
-5.29329
-8.37923
-12.4454
-17.615
-23.9541
-31.4472
-39.9788
-49.3259
-59.1622
-69.076
-78.5988
-87.2431
-94.543
-100.095
-103.591
-104.845
-103.805
-100.554
-95.2984
-88.3492
-80.0943
-70.9676
-61.4176
-51.8784
-42.7433
-34.3448
-26.9402
-20.7029
-15.7206
-11.9983
-9.46757
-7.99787
-7.41259
-7.50584
-8.0599
-8.862
-9.71894
-10.4689
-10.9896
-11.2025
-11.0726
-10.6053
-9.8396
-8.8392
-7.68277
-6.45391
-5.23219
-4.08578
-3.06647
-2.20702
-1.52111
-1.00523
-0.642181
-0.405487
-0.2641
-0.186747
-0.145513
-0.118324
-0.0902332
-0.0535428
-0.00695256
0.0459875
0.0987951
0.144023
0.174997
0.187126
0.178653
0.150847
0.107683
0.0551554
0.000414247
-0.0490465
-0.0859462
-0.103345
-0.0942601
-0.05079
0.0371077
0.182953
0.404894
0.72636
1.17595
1.78636
2.59234
3.62769
4.92153
6.49431
8.3538
10.4918
12.882
15.4793
18.2216
21.0329
23.8286
26.5225
29.0342
31.2962
33.2602
34.9019
36.2223
37.2469
38.022
38.608
39.0719
39.4783
39.882
40.3206
40.8112
41.349
41.9086
42.4494
42.9211
43.2716
43.4539
43.4322
43.1862
42.7125
42.0237
41.145
40.1091
38.9492
37.6928
36.3547
34.9326
33.4028
31.7202
29.8187
27.6149
25.0136
21.9154
18.2247
13.8603
8.76545
2.9181
-3.6598
-10.8955
-18.6617
-26.7762
-35.0069
-43.0804
-50.6948
-57.5366
-63.2988
-67.7013
-70.5096
-71.5529
-70.7377
-68.0584
-63.6015
-57.5436
-50.144
-41.7293
-32.6743
-23.3772
-14.2334
-5.6088
2.18444
8.90785
14.41
18.632
21.605
23.4393
24.3068
24.4186
23.9998
23.2648
22.3959
21.5268
20.734
20.0356
19.3981
18.75
17.9994
17.0529
15.8348
14.3012
12.4491
10.3191
7.99035
5.57067
3.18136
0.940716
-1.05215
-2.73041
-4.06782
-5.08103
-5.8256
-6.3866
-6.865
-7.36215
-7.96446
-8.73053
-9.68248
-10.8026
-12.0355
-13.2955
-14.478
-15.4727
-16.1771
-16.5092
-16.4158
-15.8772
-14.9059
-13.5406
-11.8326
-9.82859
-7.54783
-4.95685
-1.94526
1.69281
6.26513
12.169
19.854
29.7581
42.2178
57.3635
75.0139
94.5914
115.08
135.047
152.73
166.202
173.589
173.308
164.313
146.282
119.732
86.0418
47.3475
6.35138
-33.9561
-70.6152
-101.017
-123.18
-135.951
-139.1
-133.308
-120.041
-101.347
-79.593
-57.1846
-36.3019
-18.6841
-5.4845
2.79185
6.26866
5.60601
1.85425
-3.72273
-9.83035
-15.3095
-19.2673
-21.1618
-20.8326
-18.4831
-14.6178
-9.94962
-5.28863
-1.42916
0.953138
1.38257
-0.364155
-4.23799
-9.93006
-16.913
-24.505
-31.9481
-38.4917
-43.4718
-46.3776
-46.8994
-44.9527
-40.6778
-34.4165
-26.6684
-18.0347
-9.15444
-0.641438
6.97129
13.2749
18.0116
21.0848
22.5509
22.5978
21.5119
19.6391
17.3446
14.9756
12.831
11.14
10.0519
9.63506
9.88497
10.7392
12.0954
13.831
15.8211
17.9534
20.1381
22.3137
24.4476
26.5328
28.5813
30.6165
32.6644
34.7455
36.8682
39.024
41.1854
43.3063
45.3248
47.1675
48.7555
50.011
50.8627
51.2499
51.1253
50.4534
49.2083
47.3696
44.9174
41.8302
38.085
33.6613
28.5485
22.7565
16.3273
9.34413
1.93809
-5.71167
-13.3845
-20.8316
-27.7953
-34.0316
-39.3337
-43.5531
-46.6155
-48.5285
-49.3811
-49.3337
-48.5997
-47.4214
-46.0412
-44.6735
-43.4788
-42.5435
-41.8689
-41.3685
-40.8775
-40.1703
-38.9871
-37.0659
-34.1751
-30.1458
-24.8969
-18.4516
-10.9425
-2.60469
6.24338
15.2279
23.9543
32.0435
39.1664
45.0715
49.6038
52.7121
54.4451
54.937
54.3845
53.0194
51.0794
48.7815
46.3004
43.7559
41.2083
38.6634
36.0847
33.4109
30.5755
27.5261
24.2397
20.7319
17.0607
13.3219
9.63909
6.14965
2.98763
0.267426
-1.93037
-3.56875
-4.65826
-5.25481
-5.45144
-5.3653
-5.12155
-4.8366
-4.60279
-4.47668
-4.47252
-4.56167
-4.67797
-4.7284
-4.6076
-4.2142
-3.46713
-2.3195
-0.768477
1.14013
3.31322
5.61764
7.89239
9.96464
11.6676
12.8584
13.4332
13.3389
12.5783
11.2087
9.33519
7.09632
4.64759
2.14216
-0.287452
-2.54507
-4.58217
-6.40396
-8.06973
-9.68791
-11.4061
-13.3967
-15.8403
-18.9055
-22.7302
-27.4031
-32.9487
-39.3186
-46.3881
-53.9615
-61.7841
-69.5614
-76.9815
-83.7413
-89.5702
-94.2524
-97.6427
-99.6761
-100.37
-99.8204
-98.1872
-95.6808
-92.5403
-89.0135
-85.3366
-81.7172
-78.3216
-75.2667
-72.6186
-70.3942
-68.5689
-67.0854
-65.8639
-64.8116
-63.8307
-62.8228
-61.6915
-60.3429
-58.6856
-56.631
-54.0971
-51.0146
-47.3354
-43.0439
-38.1673
-32.7832
-27.0227
-21.0673
-15.138
-9.47877
-4.33458
0.0728964
3.56911
6.04754
7.48516
7.9509
7.60564
6.6937
5.52575
4.45458
3.84576
4.04583
5.35144
7.9825
12.0622
17.606
24.5198
32.6084
41.5915
51.1259
60.8321
70.3208
79.2188
87.1918
93.962
99.3211
103.138
105.36
106.013
105.191
103.051
99.7992
95.6748
90.9393
85.8583
80.6877
75.6594
70.97
66.7731
63.1757
60.2415
58.0004
56.4657
55.6567
55.6254
56.4834
58.4221
61.7215
66.7402
73.8804
83.5268
95.9603
111.256
129.177
149.095
169.937
190.211
208.092
221.587
228.762
227.998
218.244
199.227
171.569
136.799
97.2368
55.7696
15.5383
-20.4178
-49.5093
-69.8901
-80.6542
-81.9114
-74.7331
-60.9814
-43.0465
-23.5342
-4.9452
10.6092
21.6219
27.3107
27.6384
23.2356
15.2473
5.12854
-5.57858
-15.4557
-23.3802
-28.6397
-30.9798
-30.5851
-28.0039
-24.0309
-19.5695
-15.4929
-12.5239
-11.1463
-11.5585
-13.6697
-17.1355
-21.4256
-25.9089
-29.9458
-32.9729
-34.5704
-34.5051
-32.7451
-29.4485
-24.9283
-19.6011
-13.9279
-8.35491
-3.26062
1.08277
4.53204
7.07711
8.82796
9.9869
10.8109
11.5693
12.5023
13.7866
15.5118
17.6693
20.1574
22.7972
25.3609
27.604
29.3005
30.2738
30.4204
29.7237
28.2564
26.1714
23.6832
21.0428
18.5087
16.3177
14.6597
13.6582
13.3592
13.7287
14.6591
15.983
17.4926
18.9622
20.1714
20.9266
21.0785
20.5338
19.2602
17.2853
14.6888
11.5892
8.12887
4.45591
0.708774
-2.99732
-6.57931
-9.99022
-13.2179
-16.2792
-19.2108
-22.0581
-24.8643
-27.6607
-30.4595
-33.2512
-36.0047
-38.6711
-41.1902
-43.4976
-45.5319
-47.2407
-48.5837
-49.5334
-50.0736
-50.1953
-49.8925
-49.1572
-47.9771
-46.3339
-44.206
-41.5725
-38.4203
-34.752
-30.5939
-26.0019
-21.0652
-15.9049
-10.67
-5.52698
-0.648318
3.80232
7.68434
10.8929
13.368
15.0994
16.1261
16.5305
16.4289
15.9588
15.2642
14.4827
13.7328
13.1056
12.6581
12.4125
12.3571
12.4508
12.631
12.8213
12.9414
12.9161
12.6842
12.2044
11.4608
10.4639
9.25077
7.88055
6.42902
4.98041
3.61829
2.41627
1.42946
0.687749
0.191694
-0.0884518
-0.210389
-0.254388
-0.315532
-0.494606
-0.888857
-1.58382
-2.64723
-4.12573
-6.04466
-8.41093
-11.2185
-14.4559
-18.1149
-22.1983
-26.7264
-31.7393
-37.2942
-43.4552
-50.2776
-57.7839
-65.9372
-74.6119
-83.5691
-92.44
-100.725
-107.81
-113.007
-115.606
-114.952
-110.52
-101.991
-89.3098
-72.7231
-52.7836
-30.3232
-6.39391
17.8155
41.0786
62.2333
80.275
94.431
104.209
109.413
110.138
106.731
99.7394
89.8507
77.8235
64.4253
50.3782
36.3141
22.7453
10.0475
-1.54319
-11.9205
-21.0892
-29.1392
-36.2153
-42.4869
-48.121
-53.2595
-58.0056
-62.4174
-66.51
-70.2647
-73.6424
-76.5998
-79.1044
-81.1462
-82.7456
-83.9543
-84.8514
-85.5349
-86.1093
-86.6733
-87.3076
-88.0649
-88.9641
-89.9875
-91.0815
-92.1597
-93.107
-93.7855
-94.0401
-93.705
-92.6125
-90.6027
-87.5364
-83.31
-77.871
-71.2338
-63.491
-54.8199
-45.4807
-35.8049
-26.1749
-16.9948
-8.65642
-1.50331
4.20304
8.3099
10.79
11.746
11.401
10.0765
8.15992
6.06488
4.18848
2.87118
2.36325
2.80168
4.20019
6.45294
9.35124
12.6107
15.9056
18.9055
21.3105
22.8806
23.4566
22.9706
21.4448
18.9819
15.7463
11.9424
7.79142
3.51117
-0.6981
-4.65974
-8.21781
-11.2255
-13.5266
-14.9333
-15.204
-14.0269
-11.0135
-5.70795
2.38509
13.7519
28.8016
47.7841
70.701
97.223
126.628
157.775
189.127
218.835
244.87
265.22
278.097
282.16
276.709
261.813
238.365
208.039
173.148
136.424
100.738
68.7983
42.8675
24.5275
14.5279
12.7312
18.1609
29.141
43.5079
58.8643
72.844
83.3572
88.7888
88.1336
81.0576
67.8862
49.5269
27.3407
2.98104
-21.7811
-45.2265
-65.8358
-82.4054
-94.1229
-100.601
-101.87
-98.3361
-90.7134
-79.9336
-67.0502
-53.1413
-39.2205
-26.1629
-14.6501
-5.1381
2.15279
7.22604
10.2789
11.6585
11.8094
11.2184
10.3617
9.66046
9.44592
9.93908
11.2431
13.3486
16.1495
19.4659
23.0709
26.7186
30.1687
33.2076
35.6626
37.4098
38.3766
38.5387
37.9138
36.5543
34.539
31.9659
28.9465
25.6008
22.0532
18.429
14.8504
11.4318
8.27526
5.46484
3.06159
1.09945
-0.417166
-1.51306
-2.23883
-2.66406
-2.86783
-2.92737
-2.90701
-2.84898
-2.76824
-2.65235
-2.46689
-2.16572
-1.70449
-1.05518
-0.219247
0.762841
1.8075
2.79022
3.5542
3.92461
3.72677
2.80621
1.04801
-1.60706
-5.15159
-9.50734
-14.5284
-20.0114
-25.7118
-31.364
-36.7038
-41.4895
-45.5215
-48.6557
-50.8127
-51.9795
-52.2061
-51.5962
-50.2945
-48.4715
-46.3075
-43.9781
-41.6411
-39.4279
-37.4371
-35.7323
-34.3437
-33.2714
-32.491
-31.9604
-31.6264
-31.4311
-31.3174
-31.2333
-31.1345
-30.9863
-30.7636
-30.4498
-30.0349
-29.5124
-28.8764
-28.1184
-27.2247
-26.1759
-24.9473
-23.5128
-21.8489
-19.9415
-17.7919
-15.4221
-12.8778
-10.2287
-7.565
-4.99077
-2.61472
-0.539294
1.15053
2.39752
3.1805
3.51988
3.47971
3.16578
2.71935
2.30651
2.10341
2.27807
2.97042
4.27244
6.21096
8.73564
11.7147
14.9398
18.1411
21.012
23.2407
24.5463
24.7156
23.6343
21.3098
17.881
13.6135
8.87795
4.11595
-0.205998
-3.64717
-5.84307
-6.549
-5.67138
-3.28243
0.383821
4.95434
9.95608
14.8669
19.172
22.42
24.2709
24.5315
23.1737
20.3348
16.2992
11.4663
6.30693
1.31538
-3.03833
-6.35084
-8.31903
-8.76243
-7.63379
-5.01826
-1.12248
3.74483
9.19871
14.8086
20.1318
24.7483
28.2938
30.4907
31.172
30.2973
27.9582
24.3709
19.856
14.8069
9.649
4.79504
0.60091
-2.67185
-4.88232
-6.02174
-6.20893
-5.67024
-4.7069
-3.65409
-2.83686
-2.52866
-2.91716
-4.08171
-5.9846
-8.47711
-11.3191
-14.2098
-16.8257
-18.8604
-20.0639
-20.2733
-19.435
-17.6139
-14.9889
-11.8358
-8.49801
-5.34985
-2.75551
-1.02825
-0.394709
-0.9684
-2.73532
-5.55359
-9.16713
-13.232
-17.352
-21.1203
-24.1611
-26.1677
-26.9325
-26.3648
-24.4972
-21.4773
-17.5486
-13.0223
-8.24285
-3.55284
0.740098
4.39055
7.23422
9.19698
10.2938
10.6186
10.3259
9.60867
8.67242
7.71123
6.88661
6.3121
6.04464
6.08349
6.37604
6.82963
7.32742
7.74625
7.97432
7.92655
7.556
6.86015
5.88189
4.70533
3.44783
2.24968
1.26352
0.645232
0.547803
1.11889
2.50217
4.84165
8.28782
13.0033
19.1659
26.9656
36.5926
48.2135
61.9341
77.7494
95.4856
114.744
134.857
154.873
173.585
189.599
201.455
207.788
207.491
199.886
184.843
162.858
135.045
103.057
68.9405
34.9378
3.26324
-24.1157
-45.6682
-60.4365
-68.1047
-68.9953
-63.9955
-54.4283
-41.8843
-28.0387
-14.4731
-2.52472
6.82421
13.0065
15.8781
15.6782
12.9512
8.4434
2.98946
-2.59656
-7.61332
-11.5383
-14.0629
-15.0966
-14.7428
-13.2541
-10.975
-8.28032
-5.52031
-2.97623
-0.83312
0.829546
2.03017
2.86339
3.46936
3.99947
4.58414
5.30707
6.18957
7.18624
8.19206
9.05887
9.61836
9.70768
9.1939
7.99385
6.08678
3.51833
0.39594
-3.12352
-6.85159
-10.589
-14.1464
-17.3624
-20.117
-22.3384
-24.0043
-25.136
-25.7895
-26.0417
-25.9773
-25.6751
-25.1975
-24.5832
-23.844
-22.9661
-21.9144
-20.6394
-19.0844
-17.1926
-14.9126
-12.2017
-9.02887
-5.37601
-1.23979
3.3659
8.40677
13.8244
19.5327
25.4159
31.3282
37.0976
42.5321
47.4305
51.595
54.8464
57.0389
58.0736
57.9087
56.5647
54.1253
50.7306
46.5668
41.8499
36.8084
31.6642
26.6163
21.8266
17.4124
13.4428
9.94206
6.89702
4.26763
1.99932
0.0348423
-1.67588
-3.169
-4.46369
-5.56282
-6.45689
-7.13046
-7.57023
-7.77364
-7.75696
-7.56177
-7.25871
-6.94769
-6.75384
-6.81918
-7.29039
-8.30373
-9.96871
-12.3524
-15.4661
-19.2572
-23.6054
-28.3273
-33.1861
-37.9075
-42.1999
-45.7761
-48.3744
-49.7784
-49.8313
-48.4469
-45.6139
-41.3969
-35.9312
-29.4146
-22.096
-14.2603
-6.21235
1.74051
9.30636
16.2253
22.2842
27.328
31.2669
34.079
35.807
36.5515
36.459
35.7086
34.4961
33.0195
31.4653
29.998
28.752
27.8282
27.2921
27.1764
27.484
28.1933
29.263
30.6375
32.2497
34.0243
35.8787
37.724
39.4659
41.0057
42.2438
43.0835
43.4375
43.2343
42.4253
40.9908
38.9445
36.3342
33.2407
29.7722
26.057
22.2333
18.4389
14.8008
11.4253
8.39113
5.74456
3.49769
1.62952
0.0897577
-1.19527
-2.31514
-3.3671
-4.44757
-5.64427
-7.02922
-8.65315
-10.5417
-12.6934
-15.0801
-17.6494
-20.3288
-23.0323
-25.6674
-28.143
-30.3761
-32.2977
-33.8563
-35.0192
-35.7715
-36.1129
-36.0542
-35.6125
-34.8076
-33.6593
-32.1864
-30.407
-28.3408
-26.0114
-23.4496
-20.6953
-17.7989
-14.8209
-11.829
-8.89473
-6.08725
-3.46751
-1.08205
1.04197
2.89978
4.50946
5.9095
7.15372
8.3039
9.42136
10.5584
11.7509
13.0133
14.3365
15.6889
17.0196
18.2651
19.3547
20.2176
20.7875
21.0069
20.8295
20.2212
19.1617
17.6447
15.68
13.2945
10.5343
7.46622
4.1779
0.776511
-2.61466
-5.862
-8.82932
-11.387
-13.422
-14.8471
-15.6096
-15.6975
-15.1437
-14.027
-12.4698
-10.6328
-8.70584
-6.89599
-5.41309
-4.45339
-4.18296
-4.72208
-6.13225
-8.40751
-11.4709
-15.177
-19.3202
-23.6486
-27.8813
-31.7292
-34.9159
-37.1986
-38.3863
-38.354
-37.0497
-34.4937
-30.7675
-25.9928
-20.3031
-13.8098
-6.57001
1.44125
10.3475
20.3734
31.8309
45.0897
60.5321
78.4951
99.2028
122.693
148.745
176.816
206.004
235.036
262.318
286.028
304.262
315.231
317.467
310.028
292.661
265.906
231.103
190.313
146.149
101.532
59.4049
22.4444
-7.20452
-28.1293
-39.7673
-42.4255
-37.2041
-25.8354
-10.4627
6.61383
23.1911
37.3878
47.8144
53.6748
54.7901
51.5502
44.8045
35.7096
25.5575
15.6047
6.9249
0.299509
-3.84403
-5.44322
-4.765
-2.33272
1.17094
5.01062
8.49966
11.0842
12.4007
12.3029
10.8572
8.31138
5.04279
1.49508
-1.88688
-4.71553
-6.70556
-7.70103
-7.6828
-6.75774
-5.13278
-3.07899
-0.891291
1.15051
2.8145
3.93988
4.44862
4.34556
3.70821
2.66883
1.39194
0.050606
-1.1953
-2.21642
-2.92525
-3.2808
-3.28693
-2.98542
-2.44554
-1.75179
-0.991759
-0.245646
0.421526
0.964483
1.35901
1.60047
1.70023
1.6809
1.57124
1.40146
1.19947
0.9883
0.784876
0.599878
0.438501
0.301756
0.187987
0.0942973
0.0176995
-0.0441462
-0.0926177
-0.12819
-0.150766
-0.160137
-0.156458
-0.140617
-0.114429
-0.0806314
-0.042687
-0.00445166
0.0301987
0.0576677
0.0747355
0.0783534
0.0650928
0.0303018
-0.0328734
-0.134359
-0.287622
-0.509455
-0.8189
-1.23526
-1.77535
-2.45038
-3.26276
-4.20363
-5.25132
-6.37128
-7.51758
-8.636
-9.66834
-10.5575
-11.2531
-11.7156
-11.9207
-11.861
-11.546
-11.0004
-10.2611
-9.37261
-8.38281
-7.3387
-6.28312
-5.25271
-4.27714
-3.37961
-2.57812
-1.88726
-1.31981
-0.887885
-0.603295
-0.47702
-0.518018
-0.731652
-1.11816
-1.67152
-2.37896
-3.22099
-4.17178
-5.19951
-6.26645
-7.3288
-8.33629
-9.23217
-9.95388
-10.435
-10.6088
-10.4126
-9.79453
-8.71934
-7.17489
-5.17712
-2.77303
-0.0410503
2.91154
5.95434
8.94223
11.7258
14.163
16.1305
17.5342
18.3171
18.4638
18.0019
16.9987
15.5538
13.7896
11.8382
9.8292
7.87707
6.07122
4.46962
3.09653
1.94475
0.981816
0.159384
-0.575758
-1.27053
-1.95587
-2.63987
-3.30458
-3.90697
-4.38368
-4.65889
-4.65413
-4.29891
-3.54074
-2.35364
-0.744332
1.24439
3.53324
6.00895
8.52953
10.932
13.042
14.6849
15.6982
15.9436
15.3188
13.7678
11.2882
7.93523
3.82107
-0.890615
-5.99461
-11.2582
-16.4375
-21.2951
-25.6164
-29.2232
-31.9832
-33.8144
-34.6835
-34.6003
-33.6064
-31.7625
-29.1333
-25.7732
-21.7138
-16.9552
-11.463
-5.17209
2.00274
10.1486
19.3308
29.5662
40.7964
52.8646
65.5007
78.3169
90.8172
102.421
112.5
120.424
125.612
127.583
125.995
120.679
111.648
99.0977
83.3818
64.9822
44.4659
22.4409
-0.485236
-23.7403
-46.8115
-69.2595
-90.7215
-110.908
-129.595
-146.612
-161.837
-175.182
-186.593
-196.041
-203.519
-209.037
-212.616
-214.289
-214.094
-212.08
-208.308
-202.866
-195.874
-187.497
-177.956
-167.529
-156.544
-145.363
-134.357
-123.866
-114.157
-105.379
-97.5275
-90.4135
-83.6612
-76.7217
-68.9164
-59.5017
-47.7513
-33.0455
-14.9554
6.69167
31.7757
59.8838
90.3482
122.318
154.854
187.032
218.041
247.261
274.307
299.031
321.49
341.869
360.385
377.173
392.178
405.076
415.235
421.738
423.47
419.255
408.043
389.108
362.226
327.81
286.963
241.454
193.592
146.02
101.464
62.4405
30.9945
8.46914
-4.63875
-8.73094
-5.05657
4.4356
17.3231
30.9858
42.8971
50.8969
53.4114
49.5979
39.3983
23.4994
3.21019
-19.727
-43.3629
-65.7779
-85.2979
-100.667
-111.158
-116.613
-117.41
-114.378
-108.656
-101.536
-94.2988
-88.0664
-83.6893
-81.6766
-82.1743
-84.9891
-89.6514
-95.5049
-101.809
-107.839
-112.976
-116.771
-118.978
-119.562
-118.674
-116.608
-113.735
-110.44
-107.056
-103.804
-100.758
-97.8236
-94.743
-91.1204
-86.4675
-80.2625
-72.0168
-61.3397
-47.9943
-31.9387
-13.3451
7.40298
29.7377
52.9538
76.2714
98.9071
120.146
139.406
156.285
170.591
182.346
191.767
199.227
205.203
210.211
214.748
219.239
223.992
229.178
234.824
240.826
246.973
252.986
258.551
263.363
267.156
269.723
270.93
270.72
269.1
266.128
261.897
256.51
250.062
242.622
234.221
224.844
214.433
202.894
190.122
176.021
160.542
143.715
125.677
106.695
87.1698
67.6212
48.6606
30.9412
15.1001
1.69398
-8.86266
-16.3487
-20.7706
-22.3754
-21.6379
-19.2247
-15.9362
-12.6335
-10.1575
-9.24886
-10.4783
-14.1941
-20.4932
-29.2187
-39.9841
-52.2195
-65.2368
-78.303
-90.7158
-101.871
-111.317
-118.787
-124.212
-127.712
-129.565
-130.161
-129.954
-129.405
-128.936
-128.885
-129.486
-130.852
-132.984
-135.782
-139.071
-142.63
-146.221
-149.616
-152.619
-155.076
-156.885
-157.988
-158.366
-158.024
-156.974
-155.22
-152.746
-149.501
-145.401
-140.331
-134.157
-126.75
-118.007
-107.885
-96.4306
-83.7942
-70.2474
-56.1758
-42.0598
-28.4405
-15.8732
-4.87561
4.12339
10.8286
15.1098
17.0156
16.7683
14.7404
11.4142
7.33247
3.04329
-0.951977
-4.24292
-6.54142
-7.69744
-7.69881
-6.65629
-4.77724
-2.33189
0.383153
3.07969
5.50731
7.47484
8.86227
9.62323
9.77882
9.40483
8.61448
7.5396
6.31227
5.04937
3.84113
2.74476
1.783
0.947404
0.205286
-0.490737
-1.19192
-1.94268
-2.77118
-3.68262
-4.65586
-5.64408
-6.57953
-7.38165
-7.96769
-8.26433
-8.2186
-7.80657
-7.03847
-5.95953
-4.64617
-3.19802
-1.72666
-0.342381
0.85957
1.81165
2.48414
2.89178
3.09593
3.20239
3.35447
3.72191
4.48601
5.82205
7.88008
10.7662
14.5263
19.1344
24.488
30.4109
36.6648
42.9674
49.0166
54.5163
59.2027
62.866
65.3664
66.6431
66.7142
65.6701
63.6606
60.8778
57.5371
53.8591
50.0527
46.3015
42.7546
39.5201
36.6637
34.2096
32.1443
30.4225
28.9746
27.7142
26.5475
25.3808
24.1293
22.7226
21.1103
19.2645
17.1796
14.8709
12.3692
9.71552
6.95385
4.12449
1.25833
-1.627
-4.52859
-7.45711
-10.4333
-13.4822
-16.6267
-19.8792
-23.2339
-26.6592
-30.0899
-33.4212
-36.5024
-39.1336
-41.0638
-41.9923
-41.5734
-39.4266
-35.1534
-28.3623
-18.7063
-5.93336
10.0512
29.1149
50.8325
74.44
98.8229
122.554
143.988
161.405
173.19
178.038
175.129
164.271
145.969
121.421
92.4157
61.1633
30.0712
1.48981
-22.5322
-40.4567
-51.4012
-55.2042
-52.4066
-44.1523
-32.0267
-17.853
-3.47623
9.44158
19.5882
26.1147
28.6861
27.4666
23.0489
16.3392
8.41625
0.384444
-6.76194
-12.2469
-15.5835
-16.602
-15.4362
-12.4746
-8.28489
-3.52459
1.15001
5.16491
8.09084
9.68096
9.88194
8.81979
6.76479
4.08225
1.17665
-1.56319
-3.81112
-5.33771
-6.02871
-5.88702
-5.01978
-3.61375
-1.90342
-0.136417
1.45898
2.70045
3.46962
3.72012
3.47577
2.82004
1.87926
0.802142
-0.261284
-1.17869
-1.8502
-2.21748
-2.2667
-2.02547
-1.55503
-0.93893
-0.270159
0.361549
0.880658
1.23383
1.39425
1.36223
1.16223
0.83726
0.441466
0.0321658
-0.337718
-0.625841
-0.80464
-0.863232
-0.80701
-0.65524
-0.437158
-0.187241
0.0596771
0.272766
0.42846
0.512138
0.517899
0.446323
0.300435
0.0804304
-0.221873
-0.627687
-1.1738
-1.9121
-2.90555
-4.22088
-5.91885
-8.04348
-10.612
-13.6072
-16.9743
-20.6213
-24.4263
-28.2468
-31.9338
-35.3458
-38.3623
-40.8942
-42.8899
-44.3368
-45.2566
-45.6982
-45.7263
-45.4107
-44.8158
-43.9927
-42.9754
-41.7808
-40.4111
-38.8609
-37.1234
-35.1986
-33.0989
-30.8531
-28.5072
-26.1222
-23.7693
-21.5232
-19.4539
-17.6198
-16.0606
-14.7934
-13.8109
-13.0821
-12.5563
-12.1683
-11.8456
-11.5161
-11.1146
-10.5897
-9.90776
-9.0556
-8.04114
-6.89165
-5.65048
-4.37218
-3.1169
-1.94432
-0.907951
-0.0502476
0.601007
1.03469
1.25662
1.28807
1.16292
0.923684
0.616871
0.288368
-0.0208385
-0.278061
-0.461174
-0.559564
-0.573785
-0.514053
-0.397862
-0.247064
-0.0847895
0.067419
0.191962
0.276804
0.316249
0.310878
0.266733
0.193942
0.105
0.0129618
-0.0702391
-0.135137
-0.17563
-0.189361
-0.17759
-0.144639
-0.097004
-0.0423109
0.0117688
0.0584817
0.0927397
0.111576
0.114286
0.102273
0.07864
0.0476174
0.0139108
-0.0179432
-0.0441285
-0.0619525
-0.0700639
-0.0684786
-0.0584321
-0.0420927
-0.0221896
-0.00160916
0.0169847
0.0314622
0.0404389
0.0433717
0.0405432
0.0329546
0.0221594
0.01007
-0.00124252
-0.00975217
-0.0136951
-0.0118004
-0.00351714
0.0108041
0.0298283
0.0512971
0.0722557
0.0894278
0.0996904
0.100569
0.0906671
0.0699536
0.0398491
0.00309658
-0.0365703
-0.0749078
-0.107711
-0.131331
-0.14303
-0.141058
-0.124305
-0.0914862
-0.0398421
0.0364536
0.147898
0.310839
0.547769
0.886334
1.35686
1.98849
2.80431
3.81622
5.02027
6.39346
7.89266
9.45595
11.0067
12.4601
13.7306
14.7412
15.4314
15.7642
15.73
15.3489
14.6682
13.7577
12.7025
11.5941
10.5209
9.55928
8.76637
8.17493
7.791
7.59445
7.5422
7.5737
7.61789
7.60098
7.45418
7.12055
6.56048
5.75511
4.70765
3.44242
2.0018
0.441537
-1.1752
-2.78423
-4.32665
-5.75433
-7.03391
-8.1489
-9.09938
-9.89938
-10.5717
-11.1404
-11.6218
-12.0135
-12.2823
-12.3526
-12.0942
-11.3135
-9.74683
-7.06047
-2.85844
3.29862
11.8612
23.2434
37.7606
55.5543
76.5126
100.195
125.78
152.047
177.412
200.027
217.936
229.279
232.525
226.696
211.542
187.652
156.456
120.128
81.3806
43.1902
8.4783
-20.2073
-40.9662
-52.7415
-55.4113
-49.7688
-37.3946
-20.4431
-1.3717
17.3493
33.5111
45.3917
51.9081
52.6833
48.0259
38.8313
26.4246
12.3669
-1.74675
-14.4739
-24.6751
-31.6127
-34.993
-34.9505
-31.9842
-26.8569
-20.4743
-13.7609
-7.5466
-2.47875
1.03477
2.84619
3.05459
1.96371
0.0192852
-2.26421
-4.3773
-5.88064
-6.45453
-5.92856
-4.28982
-1.6712
1.67676
5.4253
9.21231
12.6867
15.5474
17.5727
18.6377
18.7195
17.8902
16.3002
14.1542
11.6844
9.12318
6.67915
4.51855
2.75382
1.43955
0.575478
0.115236
-0.020874
0.06884
0.282154
0.525825
0.725409
0.831228
0.820318
0.694678
0.476579
0.20192
-0.0872404
-0.349964
-0.552667
-0.673752
-0.706386
-0.659421
-0.55668
-0.434946
-0.341051
-0.328447
-0.453634
-0.772724
-1.33837
-2.19726
-3.38823
-4.94127
-6.87727
-9.20879
-11.9414
-15.0756
-18.6085
-22.5355
-26.8495
-31.5402
-36.59
-41.9694
-47.6308
-53.5021
-59.4822
-65.4384
-71.2073
-76.6007
-81.4154
-85.4476
-88.5097
-90.4475
-91.1571
-90.5977
-88.7991
-85.8624
-81.9543
-77.2931
-72.1311
-66.7314
-61.3457
-56.1913
-51.4343
-47.1766
-43.4507
-40.2216
-37.3939
-34.8247
-32.3379
-29.7396
-26.8315
-23.4222
-19.3366
-14.4235
-8.56241
-1.67246
6.2789
15.2654
25.1927
35.891
47.114
58.5441
69.8075
80.4966
90.2011
98.5419
105.206
109.975
112.75
113.56
112.557
110.003
106.241
101.662
96.6584
91.5949
86.7683
82.3863
78.5547
75.278
72.4719
69.9848
67.6261
65.1955
62.5108
59.4295
55.8624
51.7787
47.2019
42.2
36.8703
31.3239
25.6712
20.0104
14.4214
8.96436
3.68259
-1.39063
-6.22422
-10.7818
-15.0163
-18.8692
-22.2733
-25.1609
-27.475
-29.1811
-30.2785
-30.8065
-30.8454
-30.5104
-29.9396
-29.2772
-28.6556
-28.1797
-27.9149
-27.8841
-28.0703
-28.4278
-28.8974
-29.4232
-29.9681
-30.523
-31.1098
-31.7759
-32.5813
-33.5818
-34.8101
-36.26
-37.8762
-39.5516
-41.1349
-42.4445
-43.2903
-43.497
-42.9268
-41.4984
-39.1982
-36.0823
-32.2698
-27.9257
-23.2361
-18.378
-13.4865
-8.62437
-3.75972
1.24563
6.63131
12.7165
19.8615
28.4161
38.6614
50.7531
64.6748
80.2096
96.9347
114.243
131.389
147.555
161.932
173.799
182.599
187.996
189.908
188.51
184.211
177.603
169.392
160.316
151.073
142.247
134.262
127.356
121.576
116.802
112.781
109.175
105.612
101.734
97.2295
91.8647
85.493
78.0577
69.5847
60.171
49.9693
39.175
28.0127
16.7266
5.57148
-5.19509
-15.3205
-24.5656
-32.7145
-39.5836
-45.0311
-48.9643
-51.3439
-52.1851
-51.5547
-49.5651
-46.3653
-42.1318
-37.0579
-31.3459
-25.2
-18.8224
-12.4106
-6.15586
-0.242088
5.1579
9.88847
13.8213
16.8701
19.0088
20.2929
20.8814
21.0546
21.2238
21.9256
23.7944
27.5083
33.7058
42.8794
55.2575
70.6939
88.5879
107.859
126.99
144.147
157.362
164.764
164.818
156.542
139.666
114.706
82.9518
46.3468
7.29916
-31.5674
-67.6837
-98.7961
-123.184
-139.815
-148.412
-149.446
-144.035
-133.79
-120.612
-106.474
-93.2067
-82.3254
-74.8957
-71.4652
-72.0557
-76.2139
-83.1085
-91.6591
-100.678
-109.009
-115.646
-119.825
-121.074
-119.233
-114.435
-107.062
-97.6773
-86.9574
-75.613
-64.3221
-53.6745
-44.1311
-36.0012
-29.436
-24.438
-20.8811
-18.5409
-17.1285
-16.3269
-15.8249
-15.3467
-14.6752
-13.6661
-12.2543
-10.4512
-8.334
-6.02951
-3.69376
-1.49023
0.430908
1.95034
2.99233
3.53145
3.59316
3.24862
2.60479
1.79146
0.947001
0.204745
-0.318388
-0.529885
-0.365612
0.210186
1.2083
2.62039
4.42589
6.59857
9.11136
11.9383
15.053
18.4231
22.002
25.7181
29.464
33.0873
36.3856
39.1086
40.9672
41.6528
40.8639
38.3401
33.8983
27.4687
19.1241
9.0987
-2.20756
-14.2424
-26.332
-37.728
-47.6667
-55.4343
-60.4319
-62.2321
-60.622
-55.6261
-47.5085
-36.7516
-24.0154
-10.0812
4.21523
18.0517
30.6851
41.5051
50.0734
56.1446
59.6687
60.7756
59.7453
56.9675
52.8962
48.0028
42.7343
37.478
32.5382
28.1232
24.3445
21.2259
18.7211
16.7352
15.1485
13.8382
12.6966
11.6436
10.633
9.65363
8.72544
7.89312
7.21797
6.76964
6.61835
6.828
7.45012
8.51843
10.0438
12.0097
14.3677
17.0352
19.8938
22.7915
25.5488
27.9679
29.8478
31.0014
31.2751
30.5673
28.8436
26.1455
22.5905
18.3622
13.6902
8.82196
3.99045
-0.618343
-4.89157
-8.80538
-12.4268
-15.9006
-19.4227
-23.204
-27.4296
-32.2207
-37.6045
-43.4967
-49.7002
-55.9192
-61.7875
-66.9058
-70.884
-73.3811
-74.1385
-73.0039
-69.9421
-65.0353
-58.4711
-50.5237
-41.5296
-31.8601
-21.8949
-11.998
-2.4967
6.33339
14.2784
21.1904
26.9866
31.6441
35.1908
37.6951
39.2542
39.9833
40.0057
39.4454
38.4219
37.0463
35.4195
33.6312
31.7594
29.8694
28.0136
26.2298
24.5412
22.955
21.4634
20.0445
18.6647
17.2821
15.851
14.3261
12.6677
10.8459
8.84386
6.65979
4.30765
1.81594
-0.774965
-3.41664
-6.05737
-8.64705
-11.1417
-13.5072
-15.7209
-17.7722
-19.6608
-21.3933
-22.9787
-24.4231
-25.7255
-26.8738
-27.8431
-28.5963
-29.0868
-29.2633
-29.0758
-28.4828
-27.457
-25.9913
-24.1018
-21.8286
-19.2349
-16.4026
-13.4268
-10.4081
-7.44501
-4.62581
-2.02207
0.31663
2.36557
4.12535
5.61996
6.89258
7.99974
9.00436
9.96847
10.9463
11.9786
13.0882
14.2783
15.5321
16.8153
18.0799
19.2691
20.3235
21.1858
21.8061
22.1442
22.1702
21.8623
21.2022
20.168
18.7279
16.8346
14.4228
11.4121
7.71493
3.24955
-2.04379
-8.18514
-15.1389
-22.8019
-30.9974
-39.4763
-47.9246
-55.977
-63.234
-69.28
-73.7001
-76.0952
-76.0931
-73.359
-67.606
-58.6105
-46.2329
-30.4478
-11.3806
10.6533
35.1123
61.2056
87.8926
113.912
137.845
158.214
173.611
182.836
185.043
179.855
167.454
148.598
124.588
97.1578
68.3133
40.1215
14.4875
-7.06201
-23.5577
-34.7039
-40.9151
-43.2659
-43.3572
-43.1132
-44.5368
-49.4509
-59.2616
-74.7709
-96.0637
-122.481
-152.679
-184.771
-216.52
-245.573
-269.703
-287.028
-296.194
-296.5
-287.948
-271.234
-247.655
-218.978
-187.257
-154.634
-123.15
-94.5685
-70.2442
-51.0365
-37.2815
-28.8151
-25.0429
-25.0448
-27.7008
-31.822
-36.2738
-40.0792
-42.4941
-43.0493
-41.5597
-38.1027
-32.9708
-26.6064
-19.5281
-12.2568
-5.25148
1.13954
6.70661
11.3846
15.2381
18.4305
21.1824
23.7268
26.268
28.9492
31.8343
34.9033
38.0626
41.1663
44.045
46.5366
48.5154
49.9143
50.7386
51.069
51.0552
50.8994
50.8346
51.0984
51.9064
53.4285
55.7697
58.9586
62.9439
67.5986
72.732
78.1072
83.4619
88.5296
93.0601
96.8349
99.6779
101.46
102.097
101.545
99.7891
96.8392
92.7181
87.4611
81.1157
73.748
65.4507
56.3529
46.6293
36.5052
26.2559
16.1992
6.6809
-1.94679
-9.35114
-15.247
-19.4238
-21.7674
-22.2755
-21.0624
-18.3532
-14.4682
-9.7975
-4.76911
0.186232
4.67011
8.34786
10.9733
12.4045
12.6092
11.6604
9.72159
7.02569
3.84819
0.478671
-2.80665
-5.76889
-8.22462
-10.057
-11.2192
-11.731
-11.6688
-11.1515
-10.3236
-9.33807
-8.34033
-7.45544
-6.77905
-6.37289
-6.26482
-6.45263
-6.91092
-7.5996
-8.47283
-9.48683
-10.6056
-11.8034
-13.0639
-14.375
-15.7225
-17.0801
-18.4017
-19.6142
-20.6144
-21.2721
-21.437
-20.9527
-19.6738
-17.4857
-14.323
-10.1852
-5.14545
0.648787
6.9834
13.5936
20.1863
26.4651
32.1567
37.0325
40.9257
43.7406
45.4536
46.1071
45.7977
44.6602
42.8502
40.5277
37.8429
34.9257
31.88
28.7823
25.6837
22.6159
19.5983
16.6459
13.7756
11.0119
8.38869
5.94905
3.74156
1.81455
0.208506
-1.05254
-1.96937
-2.57483
-2.9385
-3.16781
-3.40454
-3.81643
-4.58391
-5.88312
-7.86694
-10.6461
-14.2728
-18.7299
-23.9255
-29.6963
-35.8177
-42.0211
-48.0146
-53.5076
-58.2339
-61.9728
-64.5652
-65.9235
-66.0359
-64.9632
-62.8305
-59.8145
-56.1281
-52.0025
-47.671
-43.3529
-39.2404
-35.4893
-32.2126
-29.4783
-27.3103
-25.6928
-24.5772
-23.8899
-23.5415
-23.4359
-23.4788
-23.5845
-23.6806
-23.7119
-23.6399
-23.442
-23.108
-22.6352
-22.0237
-21.2721
-20.3747
-19.3205
-18.0959
-16.6876
-15.0887
-13.304
-11.3551
-9.28301
-7.14812
-5.02722
-3.00735
-1.1776
0.380214
1.60069
2.44245
2.89324
2.97178
2.72636
2.23026
1.57495
0.86197
0.194484
-0.330347
-0.627538
-0.628468
-0.282995
0.44032
1.55542
3.0608
4.94181
7.17277
9.71847
12.5353
15.5721
18.7707
22.0675
25.3956
28.6876
31.8796
34.9158
37.753
40.3651
42.747
44.9175
46.9222
48.8347
50.7577
52.8222
55.1861
58.0309
61.5567
65.974
71.4897
78.2859
86.489
96.1293
107.094
119.084
131.579
143.832
154.892
163.668
169.029
169.928
165.538
155.373
139.388
118.022
92.1971
63.2456
32.7954
2.6117
-25.5771
-50.2511
-70.2452
-84.8524
-93.8733
-97.6063
-96.7836
-92.4609
-85.8791
-78.3134
-70.9309
-64.6705
-60.1593
-57.6717
-57.1336
-58.1672
-60.1691
-62.4095
-64.14
-64.6959
-63.5814
-60.5274
-55.5177
-48.7814
-40.7548
-32.0193
-23.2245
-15.0077
-7.91875
-2.36121
1.44583
3.48082
3.90845
3.04709
1.32068
-0.797906
-2.84437
-4.4145
-5.20392
-5.03256
-3.85218
-1.7379
1.13385
4.51681
8.13118
11.6998
14.9798
17.7868
20.0088
21.6099
22.6242
23.1417
23.2892
23.2092
23.0388
22.8929
22.8522
22.9572
23.2087
23.5738
23.9957
24.4059
24.7365
24.9313
24.9535
24.7893
24.4481
23.9577
23.3576
22.6898
21.9904
21.2815
20.5663
19.8278
19.0312
18.1293
17.071
15.8118
14.3226
12.5985
10.6628
8.56857
6.39513
4.24065
2.21207
0.413063
-1.06834
-2.17139
-2.87241
-3.19215
-3.19992
-3.01406
-2.79791
-2.75083
-3.09396
-4.05102
-5.82562
-8.57697
-12.3969
-17.2915
-23.1692
-29.8393
-37.0198
-44.3557
-51.4455
-57.874
-63.2473
-67.2269
-69.5596
-70.0992
-68.8188
-65.8121
-61.2837
-55.5295
-48.9092
-41.8142
-34.6341
-27.7253
-21.3835
-15.8248
-11.1753
-7.46972
-4.65968
-2.62906
-1.21499
-0.231595
0.50621
1.16138
1.85807
2.67102
3.62168
4.68101
5.77798
6.81233
7.66983
8.238
8.42055
8.14888
7.38975
6.14824
4.46622
2.41649
0.0936379
-2.39722
-4.95251
-7.48153
-9.91561
-12.214
-14.3653
-16.3847
-18.3059
-20.1703
-22.0125
-23.8468
-25.6547
-27.3767
-28.9104
-30.1145
-30.8199
-30.8465
-30.0234
-28.2107
-25.3194
-21.3284
-16.2936
-10.3512
-3.71061
3.35932
10.5521
17.5496
24.0498
29.7938
34.588
38.3196
40.9637
42.5804
43.3033
43.3212
42.8543
42.1287
41.3525
40.6956
40.2759
40.1532
40.3296
40.7582
41.3555
42.0173
42.6345
43.1079
43.3587
43.335
43.0134
42.3968
41.5079
40.3819
39.0579
37.5718
35.9506
34.2098
32.352
30.3696
28.2473
25.966
23.5072
20.8557
18.002
14.9436
11.6848
8.23612
4.61407
0.84027
-3.05835
-7.049
-11.0921
-15.1407
-19.1399
-23.028
-26.7382
-30.2025
-33.3559
-36.1422
-38.5187
-40.4607
-41.9645
-43.0473
-43.7452
-44.1086
-44.1949
-44.0614
-43.7568
-43.3147
-42.7489
-42.052
-41.1975
-40.1447
-38.8468
-37.2602
-35.3541
-33.1185
-30.5699
-27.7534
-24.7407
-21.6252
-18.5128
-15.5117
-12.7212
-10.2211
-8.06374
-6.26837
-4.8199
-3.67077
-2.74631
-1.9526
-1.18576
-0.341594
0.675379
1.94463
3.52444
5.44912
7.72846
10.3489
13.2759
16.4563
19.8205
23.2852
26.7536
30.118
33.2612
36.06
38.3896
40.1306
41.1764
41.4419
40.8719
39.4479
37.1936
34.1761
30.5055
26.3299
21.8285
17.2024
12.6632
8.42312
4.68493
1.63474
-0.561675
-1.75814
-1.82235
-0.625582
1.97118
6.13191
12.057
19.9861
30.1855
42.9146
58.3672
76.591
97.3921
120.243
144.214
167.956
189.745
207.602
219.488
223.537
218.316
203.054
177.813
143.569
102.174
56.2126
8.75498
-36.9515
-77.8236
-111.264
-135.425
-149.385
-153.207
-147.891
-135.218
-117.505
-97.3289
-77.2213
-59.3997
-45.5508
-36.6925
-33.1247
-34.4679
-39.7777
-47.7135
-56.7388
-65.3226
-72.1195
-76.1078
-76.673
-73.632
-67.2021
-57.9251
-46.5612
-33.9697
-20.9951
-8.37069
3.34887
13.8211
22.9167
30.6914
37.3384
43.1288
48.352
53.2621
58.0392
62.7661
67.4238
71.9026
76.0262
79.5831
82.3619
84.1841
84.931
84.5621
83.1229
80.7413
77.6152
73.9911
70.139
66.3242
62.7814
59.6929
57.1729
55.2601
53.9184
53.045
52.4849
52.0496
51.5375
50.7537
49.5276
47.7265
45.2641
42.1047
38.2624
33.7978
28.8101
23.4291
17.8053
12.0997
6.47485
1.08566
-3.92713
-8.44261
-12.3633
-15.6168
-18.1568
-19.9615
-21.0327
-21.3933
-21.0852
-20.1672
-18.7125
-16.8058
-14.5409
-12.0172
-9.33599
-6.59618
-3.89049
-1.30139
1.1021
3.26665
5.15567
6.74901
8.0415
9.0403
9.76154
10.2266
10.4587
10.4792
10.3061
9.95223
9.42563
8.73034
7.86827
6.84133
5.65348
4.31244
2.83064
1.2256
-0.480105
-2.25908
-4.07905
-5.90246
-7.68576
-9.3787
-10.9241
-12.2588
-13.316
-14.029
-14.3371
-14.1912
-13.5612
-12.4411
-10.8531
-8.84959
-6.51134
-3.94318
-1.26679
1.3886
3.89652
6.14332
8.03709
9.51403
10.542
11.1204
11.2774
11.064
10.5466
9.79839
8.89152
7.88997
6.8443
5.78867
4.74004
3.69957
2.65559
1.58771
0.471442
-0.71731
-1.9983
-3.38378
-4.87626
-6.46708
-8.13568
-9.84936
-11.5636
-13.2229
-14.7621
-16.1093
-17.1889
-17.9263
-18.2539
-18.1163
-17.4774
-16.3253
-14.677
-12.5806
-10.1159
-7.3918
-4.54194
-1.71775
0.920144
3.21155
5.00696
6.17782
6.62633
6.29469
5.17342
3.3083
0.805421
-2.16676
-5.37961
-8.55211
-11.3651
-13.4825
-14.5781
-14.3663
-12.6337
-9.2665
-4.27181
2.21284
9.9221
18.4788
27.4218
36.2422
44.4235
51.4809
56.9931
60.6266
62.146
61.416
58.3924
53.1091
45.6628
36.1993
24.903
11.9907
-2.29024
-17.6625
-33.8187
-50.4231
-67.118
-83.5334
-99.3027
-114.081
-127.564
-139.512
-149.758
-158.229
-164.94
-169.995
-173.573
-175.913
-177.285
-177.973
-178.249
-178.354
-178.485
-178.786
-179.348
-180.211
-181.37
-182.783
-184.377
-186.055
-187.699
-189.172
-190.32
-190.973
-190.939
-190.014
-187.973
-184.587
-179.622
-172.862
-164.127
-153.3
-140.351
-125.357
-108.515
-90.1396
-70.6494
-50.535
-30.3234
-10.5347
8.35938
25.9699
42.0147
56.3289
68.8609
79.6565
88.8319
96.5413
102.943
108.17
112.305
115.373
117.337
118.116
117.608
115.716
112.383
107.621
101.525
94.2853
86.1826
77.5693
68.8433
60.415
52.6719
45.947
40.4946
36.4773
33.9654
32.9507
33.3714
35.1453
38.2075
42.5449
48.222
55.391
64.2795
75.1526
88.2461
103.677
121.341
140.81
161.261
181.447
199.738
214.24
222.982
224.156
216.374
198.906
171.849
136.211
93.8765
47.4574
0.0546903
-45.0518
-84.7356
-116.34
-137.937
-148.504
-147.996
-137.312
-118.168
-92.8952
-64.1811
-34.7991
-7.34384
15.996
33.6083
44.5579
48.6123
46.1949
38.2763
26.2207
11.6049
-3.9658
-19.0273
-32.3922
-43.2397
-51.1536
-56.108
-58.4055
-58.5812
-57.2853
-55.1603
-52.7327
-50.3288
-48.0303
-45.671
-42.8762
-39.1375
-33.9106
-26.7224
-17.2698
-5.49685
8.36222
23.7806
39.9773
55.9927
70.7897
83.3689
92.8813
98.725
100.613
98.607
93.1051
84.7993
74.5959
63.5158
52.5862
42.7345
34.6985
28.961
25.7159
24.8666
26.0568
28.7274
32.192
35.7221
38.6316
40.351
40.4845
38.8449
35.4616
30.566
24.5535
17.9305
11.2516
5.05558
-0.193527
-4.15299
-6.63165
-7.60106
-7.18754
-5.64716
-3.32769
-0.622809
2.07551
4.4207
6.14648
7.08931
7.19647
6.5196
5.19495
3.41343
1.3842
-0.703272
-2.71363
-4.59193
-6.37773
-8.20466
-10.285
-12.8807
-16.2651
-20.6791
-26.2905
-33.1595
-41.2177
-50.2632
-59.9724
-69.9282
-79.6601
-88.6918
-96.5894
-103.005
-107.708
-110.607
-111.75
-111.312
-109.569
-106.866
-103.573
-100.047
-96.5994
-93.4664
-90.7958
-88.643
-86.9791
-85.7096
-84.6987
-83.799
-82.88
-81.8522
-80.6851
-79.4128
-78.1296
-76.9723
-76.093
-75.6247
-75.6455
-76.147
-77.0134
-78.0158
-78.8253
-79.0442
-78.2532
-76.0676
-72.1952
-66.4871
-58.9726
-49.8732
-39.5917
-28.6774
-17.7716
-7.5399
1.39921
8.54112
13.5479
16.2813
16.8117
15.4039
12.4812
8.57387
4.25969
0.103482
-3.39635
-5.84837
-6.99215
-6.7045
-4.98954
-1.95603
2.21302
7.29309
13.0484
19.2559
25.7206
32.2827
38.8157
45.2202
51.4139
57.3223
62.871
67.9831
72.5801
76.5869
79.9401
82.5966
84.5413
85.7921
86.401
86.4504
86.0466
85.3087
84.3575
83.3032
82.2352
81.2149
80.2716
79.4033
78.5804
77.7536
76.8624
75.845
74.6466
73.2248
71.5519
69.6127
67.3992
64.9032
62.109
58.9872
55.4926
51.5663
47.1424
42.1592
36.5717
30.3653
23.567
16.252
8.54551
0.617681
-7.32773
-15.0691
-22.3856
-29.0767
-34.9787
-39.9775
-44.0152
-47.0891
-49.2456
-50.5665
-51.1538
-51.1119
-50.5318
-49.4785
-47.9839
-46.045
-43.6295
-40.6859
-37.1585
-33.0039
-28.2075
-22.7969
-16.8498
-10.4962
-3.91306
2.68754
9.07526
15.0213
20.319
24.8018
28.3575
30.9366
32.5531
33.2801
33.2386
32.5828
31.4831
30.1092
28.6146
27.1244
25.7261
24.4646
23.3388
22.2989
21.2438
20.0158
18.3953
16.0962
12.7649
7.98874
1.31522
-7.71422
-19.5173
-34.414
-52.5659
-73.9213
-98.1742
-124.747
-152.802
-181.287
-209.008
-234.726
-257.267
-275.633
-289.094
-297.256
-300.094
-297.94
-291.429
-281.412
-268.842
-254.642
-239.584
-224.188
-208.644
-192.792
-176.149
-157.981
-137.427
-113.655
-86.0287
-54.2724
-18.608
20.1613
60.6358
100.885
138.596
171.291
196.595
212.521
217.722
211.696
194.891
168.707
135.373
97.7377
58.9706
22.2317
-9.65715
-34.4961
-50.9113
-58.4577
-57.6087
-49.6423
-36.4404
-20.2315
-3.31197
12.2194
24.6813
32.962
36.5893
35.7173
31.0386
23.6386
14.8162
5.89561
-1.94659
-7.81791
-11.1968
-11.9631
-10.3737
-6.9918
-2.5823
2.00836
5.97253
8.64528
9.58036
8.59079
5.75203
1.37101
-4.07211
-9.99899
-15.814
-20.9793
-25.0761
-27.8436
-29.1949
-29.208
-28.098
-26.1733
-23.7857
-21.2805
-18.9527
-17.0158
-15.5846
-14.6734
-14.2075
-14.0453
-14.0063
-13.9007
-13.5558
-12.8368
-11.659
-9.99179
-7.85395
-5.30325
-2.42178
0.69968
3.97602
7.33877
10.7425
14.1661
17.6095
21.0864
24.6158
28.2122
31.8773
35.5947
39.327
43.0175
46.5943
49.9771
53.0859
55.8484
58.2074
60.1249
61.584
62.5875
63.153
63.3073
63.0787
62.4899
61.5522
60.262
58.6008
56.5375
54.0343
51.0546
47.5716
43.5767
39.0867
34.1471
28.8331
23.2458
17.5053
11.7407
6.07881
0.631986
-4.51139
-9.29435
-13.6944
-17.7223
-21.4159
-24.831
-28.0296
-31.0669
-33.9803
-36.7805
-39.4463
-41.9252
-44.1375
-45.9854
-47.3656
-48.1822
-48.3607
-47.8594
-46.6772
-44.8571
-42.4843
-39.6793
-36.5871
-33.3632
-30.1586
-27.1052
-24.3035
-21.8138
-19.6526
-17.793
-16.1703
-14.6922
-13.2508
-11.7369
-10.0537
-8.12847
-5.92195
-3.43294
-0.69885
2.20816
5.18888
8.12739
10.9029
13.4016
15.5272
17.2091
18.4076
19.1153
19.3549
19.175
18.6417
17.8311
16.8198
15.6776
14.4607
13.2088
11.9442
10.6734
9.3914
8.08785
6.75284
5.38278
3.98471
2.57825
1.19501
-0.124526
-1.33633
-2.39929
-3.28193
-3.96809
-4.46054
-4.78198
-4.97298
-5.08718
-5.18447
-5.32313
-5.55209
-5.90459
-6.39401
-7.01269
-7.73377
-8.51578
-9.30915
-10.0636
-10.735
-11.2906
-11.7114
-11.9913
-12.1337
-12.1451
-12.0278
-11.7733
-11.3567
-10.7351
-9.84851
-8.62581
-6.99297
-4.88379
-2.25085
0.924956
4.6279
8.80534
13.3704
18.2097
23.1943
28.1935
33.0879
37.7816
42.2098
46.3414
50.1763
53.7378
57.0601
60.1748
63.0964
65.8115
68.2714
70.3909
72.0539
73.1241
73.4614
72.9399
71.4668
68.9981
65.55
61.2028
56.098
50.4277
44.4171
38.3037
32.3143
26.6433
21.4352
16.7737
12.6784
9.10932
5.97906
3.1704
0.556599
-1.97794
-4.51993
-7.11459
-9.75983
-12.4079
-14.974
-17.3501
-19.4228
-21.0911
-22.2823
-22.9643
-23.1518
-22.9052
-22.3249
-21.5383
-20.6854
-19.9011
-19.3
-18.9626
-18.9273
-19.1861
-19.6874
-20.3426
-21.0373
-21.6448
-22.0406
-22.1153
-21.7863
-21.0038
-19.7544
-18.0594
-15.9691
-13.555
-10.9004
-8.09159
-5.2097
-2.32542
0.503768
3.23383
5.83239
8.27574
10.5456
12.6265
14.5043
16.1663
17.6032
18.8113
19.7965
20.578
21.1919
21.6949
22.1679
22.7214
23.5009
24.6933
26.531
29.292
33.29
38.8512
46.2765
55.7862
67.4549
81.1423
96.4347
112.612
128.653
143.286
155.088
162.628
164.623
160.104
148.553
129.998
105.048
74.8599
41.045
5.52781
-29.6323
-62.4268
-91.0749
-114.17
-130.784
-140.518
-143.506
-140.358
-132.075
-119.927
-105.321
-89.6666
-74.2584
-60.1759
-48.2186
-38.8729
-32.3132
-28.4323
-26.8946
-27.2057
-28.7869
-31.0482
-33.4512
-35.5573
-37.0568
-37.78
-37.6901
-36.8618
-35.4503
-33.6557
-31.6875
-29.7337
-27.9375
-26.3838
-25.0949
-24.0349
-23.1212
-22.2394
-21.26
-20.0538
-18.5041
-16.5147
-14.0136
-10.9523
-7.3027
-3.05323
1.79522
7.23104
13.2315
19.76
26.7622
34.1618
41.8582
49.7261
57.6197
65.3798
72.844
79.859
86.2924
92.0435
97.0504
101.293
104.793
107.605
109.809
111.499
112.771
113.713
114.394
114.864
115.149
115.254
115.171
114.881
114.362
113.594
112.563
111.255
109.662
107.77
105.555
102.983
100.003
96.553
92.5619
87.9595
82.6872
76.7113
70.0344
62.7059
54.8285
46.5596
38.1064
29.7152
21.6545
14.1946
7.58377
2.02558
-2.34165
-5.45976
-7.35841
-8.15408
-8.04019
-7.26919
-6.12834
-4.912
-3.89342
-3.29926
-3.28986
-3.94706
-5.2712
-7.18687
-9.55668
-12.2009
-14.9206
-17.5208
-19.8318
-21.7257
-23.1271
-24.0162
-24.4258
-24.4328
-24.1446
-23.6842
-23.1746
-22.7244
-22.4175
-22.3056
-22.4061
-22.7036
-23.1554
-23.6994
-24.2634
-24.7749
-25.1686
-25.3936
-25.4171
-25.2253
-24.822
-24.2255
-23.4635
-22.5675
-21.568
-20.4897
-19.3495
-18.1546
-16.9045
-15.5925
-14.2103
-12.7515
-11.2167
-9.61615
-7.97199
-6.31846
-4.7
-3.16782
-1.77502
-0.571061
0.40374
1.12287
1.5769
1.77483
1.74343
1.52459
1.17102
0.740922
0.292225
-0.122921
-0.462711
-0.69887
-0.818168
-0.822179
-0.725451
-0.552401
-0.333413
-0.100648
0.115925
0.291814
0.410308
0.463603
0.452747
0.386523
0.279518
0.149693
0.0158104
-0.104972
-0.199033
-0.257591
-0.277256
-0.259865
-0.211681
-0.142127
-0.0622746
0.0167253
0.0850394
0.135242
0.162982
0.167202
0.14991
0.115619
0.0705435
0.0217425
-0.0236399
-0.0588669
-0.0777245
-0.0742195
-0.0419285
0.0268106
0.141571
0.314018
0.557272
0.88425
1.305
1.82338
2.43376
3.11884
3.84972
4.58924
5.29918
5.95061
6.5362
7.08182
7.65484
8.36638
9.36581
10.8271
12.928
15.8252
19.6277
24.3747
30.0187
36.42
43.3506
50.5111
57.5553
64.1221
69.8699
74.5098
77.8325
79.7278
80.1928
79.3287
77.3272
74.4473
70.986
67.2451
63.4997
59.9689
56.7946
54.0285
51.6292
49.4694
47.3519
45.0336
42.2526
38.7588
34.3411
28.8521
22.2248
14.4817
5.73525
-3.82054
-13.9254
-24.2736
-34.5365
-44.3861
-53.5152
-61.6534
-68.5773
-74.1157
-78.1488
-80.6046
-81.4537
-80.7036
-78.3959
-74.6042
-69.4358
-63.033
-55.5758
-47.2819
-38.4041
-29.2237
-20.0401
-11.1572
-2.86698
4.56656
10.9229
16.0382
19.816
22.2357
23.3581
23.3306
22.3899
20.8623
19.1611
17.7777
17.2659
18.2174
21.2267
26.846
35.5294
47.5686
63.0241
81.658
102.881
125.723
148.846
170.608
189.173
202.684
209.457
208.192
198.163
179.359
152.549
119.263
81.6711
42.3889
4.21833
-30.1383
-58.3557
-78.7207
-90.295
-92.9872
-87.5265
-75.3458
-58.3899
-38.8769
-19.0425
-0.899858
13.9583
24.4943
30.2856
31.509
28.8575
23.4057
16.4433
9.30114
3.18906
-0.934655
-2.45177
-1.12419
2.91339
9.20174
17.036
25.5626
33.8813
41.1412
46.6215
49.79
50.3383
48.1918
43.4968
36.5903
27.9552
18.1683
7.84541
-2.41122
-12.0587
-20.6502
-27.8593
-33.493
-37.4912
-39.9166
-40.9345
-40.7865
-39.7605
-38.1597
-36.2734
-34.3519
-32.5867
-31.0992
-29.9354
-29.0704
-28.4182
-27.8487
-27.2072
-26.3358
-25.094
-23.3756
-21.1207
-18.3216
-15.0222
-11.3115
-7.31208
-3.16532
0.984097
5.0033
8.78349
12.2483
15.3577
18.1066
20.52
22.6444
24.5373
26.2568
27.8525
29.3575
30.785
32.1271
33.3565
34.4315
35.301
35.9107
36.2078
36.1445
35.6801
34.7803
33.4165
31.5629
29.1935
26.2788
22.7838
18.6675
13.8853
8.39512
2.16614
-4.8092
-12.5029
-20.8401
-29.6915
-38.8707
-48.1388
-57.2161
-65.7995
-73.5852
-80.2927
-85.6888
-89.6065
-91.9582
-92.7411
-92.0326
-89.9792
-86.7773
-82.6518
-77.8322
-72.5321
-66.9327
-61.1738
-55.351
-49.5217
-43.715
-37.947
-32.2353
-26.613
-21.1375
-15.8939
-10.9921
-6.55767
-2.71807
0.412999
2.75125
4.25457
4.93079
4.8391
4.08503
2.80948
1.17377
-0.656845
-2.52864
-4.31154
-5.90624
-7.2462
-8.29475
-9.0391
-9.48285
-9.63894
-9.52435
-9.15736
-8.55741
-7.74694
-6.75417
-5.61586
-4.37876
-3.09924
-1.84071
-0.669126
0.352873
1.1723
1.75156
2.07276
2.13984
1.97818
1.63172
1.15797
0.621502
0.0869424
-0.387814
-0.757187
-0.991711
-1.07963
-1.02617
-0.85085
-0.583074
-0.257005
0.0937244
0.440605
0.763556
1.05257
1.30762
1.53699
1.75456
1.97654
2.21848
2.49294
2.80842
3.16953
3.57837
4.03671
4.54841
5.12163
5.77017
6.51372
7.37692
8.38732
9.57259
10.9576
12.5615
14.3963
16.4652
18.7634
21.2785
23.9925
26.8828
29.9229
33.0828
36.3277
39.6167
42.9007
46.121
49.2086
52.0853
54.6662
56.8642
58.5958
59.7869
60.3784
60.3301
59.6222
58.2533
56.2363
53.5909
50.3364
46.4848
42.0362
36.9794
31.2963
24.9725
18.0096
10.4408
2.34344
-6.15174
-14.8579
-23.5375
-31.9155
-39.6991
-46.6033
-52.3771
-56.8286
-59.846
-61.4104
-61.5998
-60.5837
-58.6078
-55.9717
-53.0013
-50.0194
-47.3173
-45.1307
-43.6223
-42.8722
-42.8772
-43.5585
-44.7764
-46.35
-48.0797
-49.7701
-51.249
-52.3835
-53.0878
-53.325
-53.1007
-52.4509
-51.4258
-50.0712
-48.4124
-46.4411
-44.1091
-41.3295
-37.9854
-33.9453
-29.0835
-23.3019
-16.5511
-8.84766
-0.285411
8.96088
18.6399
28.4362
37.9888
46.9157
54.8402
61.4191
66.3681
69.4836
70.659
69.8938
67.2955
63.0731
57.5252
51.0223
43.9865
36.8717
30.1456
24.2754
19.7177
16.911
16.2674
18.1616
22.9121
30.7514
41.784
55.9331
72.8834
92.0293
112.443
132.879
151.824
167.601
178.517
183.049
180.036
168.852
149.538
122.856
90.2659
53.8143
15.9485
-20.7238
-53.6982
-80.8281
-100.537
-111.967
-115.036
-110.413
-99.4092
-83.7951
-65.587
-46.8123
-29.2938
-14.4737
-3.29626
3.84038
7.06436
6.9497
4.39101
0.453054
-3.78396
-7.3637
-9.56192
-9.95345
-8.43391
-5.19839
-0.684301
4.51051
9.72149
14.31
17.7433
19.6532
19.8683
18.4191
15.5167
11.5125
6.84436
1.97714
-2.6532
-6.68686
-9.87336
-12.0881
-13.3318
-13.7156
-13.4334
-12.728
-11.8549
-11.0479
-10.4921
-10.3049
-10.5281
-11.13
-12.0159
-13.046
-14.0569
-14.8834
-15.3793
-15.4334
-14.9799
-14.0022
-12.5312
-10.6367
-8.41585
-5.97881
-3.43386
-0.874099
1.633
4.05203
6.38153
8.65139
10.9165
13.2478
15.7215
18.4093
21.3688
24.6377
28.2301
32.1359
36.3236
40.7439
45.3351
50.0273
54.7457
59.4121
63.9443
68.2539
72.243
75.8009
78.8014
81.1012
82.5418
82.9528
82.1609
80.0012
76.3328
71.0564
64.1328
55.598
45.5751
34.2783
22.0076
9.13598
-3.91366
-16.6969
-28.78
-39.7723
-49.355
-57.3027
-63.4964
-67.9249
-70.6759
-71.9166
-71.8669
-70.768
-68.8513
-66.3123
-63.2928
-59.8751
-56.0886
-51.9285
-47.3828
-42.464
-37.2388
-31.8508
-26.5314
-21.5946
-17.4167
-14.4
-12.9272
-13.31
-15.7413
-20.2562
-26.7083
-34.7657
-43.9265
-53.5545
-62.9298
-71.3101
-77.9966
-82.3967
-84.0796
-82.8161
-78.6027
-71.6631
-62.4308
-51.5104
-39.6244
-27.5484
-16.0419
-5.78218
2.69333
9.02928
13.0759
14.8918
14.7257
12.9806
10.1646
6.83341
3.53194
0.741093
-1.16533
-1.94903
-1.51902
0.073272
2.65382
5.9574
9.66606
13.4497
17.0043
20.0826
22.5164
24.2264
25.2211
25.5858
25.4632
25.03
24.4708
23.955
23.6174
23.5452
23.7728
24.2829
25.0154
25.8791
26.7679
27.5755
28.2097
28.6026
28.7168
28.5467
28.1152
27.467
26.6596
25.7535
24.8023
23.8453
22.9028
21.974
21.0384
20.0607
18.9967
17.8019
16.4392
14.8871
13.1442
11.2335
9.2013
7.11457
5.05473
3.10946
1.36336
-0.11118
-1.26187
-2.06192
-2.51237
-2.64098
-2.49807
-2.14985
-1.67041
-1.13335
-0.604264
-0.135035
0.239687
0.503386
0.656267
0.711958
0.692978
0.625693
0.535395
0.442034
0.356964
0.280986
0.2039
0.105711
-0.0404416
-0.26373
-0.58978
-1.03414
-1.59597
-2.2531
-2.95968
-3.64735
-4.23077
-4.61714
-4.71907
-4.46901
-3.83315
-2.82239
-1.49834
0.0269683
1.59832
3.03069
4.12743
4.70091
4.59304
3.69317
1.95118
-0.615843
-3.92397
-7.82977
-12.1437
-16.6481
-21.1167
-25.3351
-29.1179
-32.3221
-34.8539
-36.6711
-37.778
-38.2166
-38.0549
-37.3739
-36.2554
-34.7723
-32.9826
-30.9276
-28.6342
-26.1202
-23.4019
-20.5033
-17.4625
-14.3384
-11.2122
-8.18637
-5.37968
-2.91885
-0.928025
0.483198
1.23221
1.27556
0.620515
-0.664462
-2.4403
-4.48984
-6.51337
-8.12929
-8.88222
-8.26119
-5.72961
-0.76778
7.0731
18.1079
32.4506
49.9488
70.1306
92.172
114.898
136.825
156.254
171.408
180.605
182.454
176.039
161.072
137.984
107.94
72.7642
34.7828
-3.39906
-39.16
-70.1331
-94.4481
-110.916
-119.134
-119.496
-113.116
-101.666
-87.1654
-71.7381
-57.3703
-45.7046
-37.8859
-34.4778
-35.4542
-40.2606
-47.9319
-57.2487
-66.9084
-75.6892
-82.5879
-86.9167
-88.3519
-86.9322
-83.0125
-77.1838
-70.1717
-62.7297
-55.5406
-49.1378
-43.8558
-39.8117
-36.918
-34.9212
-33.4586
-32.1235
-30.5297
-28.3669
-25.4394
-21.6872
-17.1855
-12.127
-6.79022
-1.49903
3.42076
7.68142
11.066
13.4498
14.8097
15.2207
14.8413
13.8903
12.6191
11.2817
10.1074
9.27749
8.91021
9.05316
9.68458
10.7224
12.0393
13.4822
14.8929
16.1278
17.0751
17.6659
17.8805
17.7471
17.3358
16.7463
16.0942
15.4941
15.0453
14.8192
14.8505
15.1342
15.6274
16.2552
16.9211
17.5189
17.9458
18.1132
17.9567
17.4408
16.5615
15.3444
13.8409
12.1214
10.2678
8.36618
6.49913
4.73954
3.1455
1.75668
0.592428
-0.348483
-1.08645
-1.65799
-2.1114
-2.50135
-2.88301
-3.3061
-3.80953
-4.41715
-5.13498
-5.95017
-6.83185
-7.73383
-8.59869
-9.36303
-9.96335
-10.3419
-10.4519
-10.2624
-9.76057
-8.95374
-7.86855
-6.54904
-5.05297
-3.44715
-1.80207
-0.186558
1.33712
2.71713
3.91464
4.90493
5.67708
6.23255
6.58286
6.74692
6.74831
6.6128
6.3664
6.03381
5.63752
5.19713
4.72914
4.24671
3.75978
3.27514
2.79681
2.32659
1.86486
1.41155
0.967119
0.533364
0.113887
-0.28605
-0.660335
-1.00347
-1.31256
-1.58949
-1.84294
-2.08972
-2.35506
-2.67169
-3.07744
-3.61192
-4.31232
-5.20921
-6.32267
-7.65931
-9.2104
-10.9513
-12.8421
-14.8291
-16.8473
-18.8235
-20.6795
-22.3365
-23.7185
-24.7572
-25.3953
-25.5907
-25.3191
-24.576
-23.3777
-21.7611
-19.7823
-17.514
-15.0422
-12.462
-9.87234
-7.37075
-5.04789
-2.98212
-1.23482
0.153241
1.1642
1.80362
2.09919
2.09773
1.86063
1.45816
0.963276
0.445437
-0.0348752
-0.430483
-0.710252
-0.86004
-0.881797
-0.790936
-0.612216
-0.374571
-0.105499
0.174181
0.454255
0.736824
1.0351
1.36908
1.75855
2.21454
2.73102
3.27893
3.80439
4.23231
4.4756
4.44867
4.08313
3.34274
2.23462
0.814437
-0.815905
-2.51795
-4.13247
-5.49883
-6.47465
-6.95252
-6.8709
-6.21756
-5.02513
-3.36015
-1.30795
1.04357
3.61821
6.36113
9.24266
12.2558
15.4083
18.7118
22.1691
25.763
29.4489
33.1514
36.7664
40.1688
43.2225
45.7944
47.7666
49.0481
49.5823
49.3499
48.3674
46.6803
44.355
41.4679
38.0967
34.3142
30.1854
25.7693
21.1239
16.3135
11.4163
6.52958
1.77263
-2.71628
-6.78691
-10.2886
-13.0848
-15.0681
-16.1742
-16.3925
-15.7713
-14.417
-12.4867
-10.1755
-7.6988
-5.27249
-3.09273
-1.31783
-0.0541592
0.652371
0.818307
0.518077
-0.126537
-0.961535
-1.81858
-2.53353
-2.96336
-2.99968
-2.57713
-1.67591
-0.317932
1.44275
3.53436
5.88511
8.4428
11.1943
14.1838
17.5271
21.4212
26.1436
32.0403
39.4956
48.8833
60.4975
74.4692
90.6802
108.69
127.694
146.533
163.763
177.779
186.993
190.032
185.94
174.332
155.501
130.435
100.745
68.5164
36.0989
5.85414
-20.0925
-40.0736
-53.0435
-58.6658
-57.3174
-50.0097
-38.2437
-23.8168
-8.60931
5.62287
17.4267
25.7813
30.1672
30.5724
27.4402
21.5692
13.9827
5.78469
-1.97855
-8.43552
-12.9739
-15.2855
-15.3707
-13.5068
-10.1877
-6.04656
-1.77203
1.96999
4.60038
5.67085
4.88586
2.10414
-2.67571
-9.33934
-17.684
-27.4438
-38.3092
-49.9394
-61.9685
-74.0087
-85.6529
-96.4811
-106.072
-114.026
-119.983
-123.663
-124.884
-123.592
-119.874
-113.958
-106.203
-97.074
-87.1073
-76.8754
-66.9474
-57.8556
-50.0683
-43.9715
-39.8573
-37.9195
-38.2517
-40.8482
-45.6034
-52.3113
-60.664
-70.2525
-80.5721
-91.0364
-101
-109.791
-116.757
-121.311
-122.981
-121.457
-116.627
-108.599
-97.7021
-84.4692
-69.6032
-53.921
-38.2883
-23.5479
-10.4495
0.411193
8.63869
14.0634
16.7449
16.9533
15.1302
11.8352
7.68423
3.28586
-0.8165
-4.19107
-6.54852
-7.75496
-7.82704
-6.91125
-5.25118
-3.14749
-0.915875
1.15197
2.82017
3.93032
4.41148
4.27856
3.62052
2.58103
1.33447
0.0610156
-1.07633
-1.95
-2.47971
-2.63721
-2.44401
-1.9632
-1.28699
-0.52199
0.225727
0.863839
1.32385
1.56711
1.58639
1.40345
1.06311
0.625181
0.155317
-0.283865
-0.640328
-0.878024
-0.97971
-0.94711
-0.798663
-0.56542
-0.28579
7.54847e-05
0.255522
0.451629
0.570024
0.604072
0.558458
0.447395
0.291818
0.116039
-0.0556744
-0.202144
-0.307622
-0.363188
-0.367155
-0.324501
-0.245547
-0.144081
-0.0352593
0.0664451
0.148993
0.204032
0.22756
0.219962
0.185499
0.131359
0.0664415
5.74215e-05
-0.0592865
-0.104872
-0.132426
-0.140397
-0.12986
-0.104107
-0.0679914
-0.0271576
0.0127573
0.0468299
0.0713946
0.0843722
0.0853726
0.0756073
0.0577127
0.0356576
0.0149616
0.00344303
0.01261
0.0595959
0.16928
0.375999
0.724133
1.26693
2.06312
3.1714
4.64309
6.51393
8.79616
11.472
14.4897
17.7635
21.1763
24.5871
27.8409
30.7797
33.2555
35.1411
36.3393
36.7898
36.4712
35.4005
33.6291
31.2368
28.3243
25.0064
21.4062
17.6505
13.8675
10.185
6.72978
3.62561
0.990828
-1.0664
-2.45426
-3.10486
-2.98214
-2.0891
-0.472957
1.77263
4.50933
7.56004
10.7189
13.7644
16.4753
18.6464
20.1043
20.7202
20.419
19.1841
17.0566
14.1297
10.5398
6.45292
2.0515
-2.48067
-6.97141
-11.2712
-15.2609
-18.8569
-22.0111
-24.7094
-26.9658
-28.8143
-30.2996
-31.4663
-32.3491
-32.9644
-33.3046
-33.3359
-33.0013
-32.2268
-30.9322
-29.0445
-26.5119
-23.3182
-19.4931
-15.1181
-10.3272
-5.29986
-0.248853
4.59778
9.01715
12.8126
15.8328
17.9855
19.246
19.6565
19.3189
18.381
17.0181
15.4121
13.7324
12.1185
10.6695
9.43754
8.42977
7.61422
6.93079
6.30445
5.65906
4.92988
4.07351
3.07404
1.94529
0.729131
-0.509415
-1.68919
-2.72062
-3.51261
-3.97692
-4.0287
-3.58214
-2.54111
-0.785422
1.84544
5.56805
10.6662
17.4925
26.454
37.979
52.4592
70.1699
91.1744
115.224
141.674
169.433
196.973
222.4
243.608
258.481
265.141
262.196
248.952
225.563
193.08
153.393
109.072
63.1141
18.6441
-21.4098
-54.6101
-79.2445
-94.4708
-100.357
-97.8187
-88.4604
-74.3535
-57.7748
-40.9417
-25.7778
-13.7315
-5.66749
-1.83649
-1.92088
-5.14305
-10.418
-16.5269
-22.2892
-26.7109
-29.0947
-29.0999
-26.7516
-22.4021
-16.653
-10.2541
-3.99191
1.41631
5.40982
7.64487
8.0231
6.68763
3.99048
0.437837
-3.37837
-6.85337
-9.43829
-10.6972
-10.3472
-8.2786
-4.55454
0.60735
6.8683
13.8111
20.9867
27.9593
34.3449
39.8402
44.2393
47.4385
49.4294
50.2836
50.1308
49.1341
47.4665
45.29
42.7404
39.9196
36.8939
33.7001
30.3548
26.868
23.2553
19.549
15.8049
12.1036
8.54695
5.24965
2.32734
-0.116658
-2.00402
-3.29175
-3.97842
-4.1056
-3.7542
-3.03628
-2.08343
-1.03324
-0.0156274
0.859396
1.51104
1.89327
1.99595
1.84182
1.47946
0.973231
0.39117
-0.207791
-0.785599
-1.33414
-1.87999
-2.48375
-3.23354
-4.23323
-5.58684
-7.3814
-9.67085
-12.4637
-15.7166
-19.3347
-23.18
-27.0851
-30.8723
-34.3734
-37.4504
-40.0108
-42.0193
-43.5019
-44.545
-45.2876
-45.9116
-46.6284
-47.6664
-49.2583
-51.6281
-54.979
-59.4791
-65.246
-72.3302
-80.6997
-90.2257
-100.675
-111.708
-122.889
-133.702
-143.584
-151.956
-158.269
-162.046
-162.92
-160.671
-155.245
-146.765
-135.52
-121.948
-106.602
-90.1016
-73.0895
-56.1808
-39.9198
-24.7455
-10.9692
1.23381
11.8194
20.8577
28.5073
34.9846
40.5324
45.3906
49.7724
53.8483
57.7374
61.5065
65.1759
68.7295
72.1278
72.1278
72.1278
72.1278
72.1278
72.1278
72.1278
72.1278
72.1278
72.1278
72.1278
72.1278
72.1278
72.1278
72.1278
72.1278
72.1278
72.1278
72.1278
