11.8254
7.79647
3.36022
-1.32693
-6.07205
-10.6612
-14.8786
-18.5263
-21.4439
-23.5232
-24.7188
-25.0515
-24.6044
-23.5141
-21.955
-20.1226
-18.2144
-16.4137
-14.8754
-13.7171
-13.0157
-12.8073
-13.0929
-13.8447
-15.0153
-16.5445
-18.365
-20.4053
-22.589
-24.8317
-27.0357
-29.0851
-30.8411
-32.1421
-32.8075
-32.6481
-31.4824
-29.1563
-25.5662
-20.6803
-14.5555
-7.34584
0.697939
9.241
17.8865
26.2062
33.7748
40.2062
45.1855
48.4939
50.025
49.7897
47.9103
44.6045
40.1628
34.9203
29.2273
23.422
17.8074
12.6345
8.0928
4.30906
1.3519
-0.757848
-2.03385
-2.51
-2.22748
-1.22511
0.465683
2.82056
5.81707
9.4258
13.5998
18.2648
23.3118
28.5949
33.9337
39.1213
43.9364
48.1577
51.5788
54.0214
55.3459
55.4585
54.3136
51.9143
48.3097
43.5911
37.8879
31.3624
24.2048
16.6269
8.85508
1.12077
-6.34934
-13.3447
-19.682
-25.2153
-29.8435
-33.5149
-36.2277
-38.0254
-38.9884
-39.2183
-38.8156
-37.8469
-36.3023
-34.0418
-30.7377
-25.8214
-18.4509
-7.51595
8.30296
30.4089
60.0975
98.312
145.373
200.719
262.714
328.554
394.326
455.231
505.969
541.255
556.414
547.971
514.153
455.24
373.679
273.963
162.251
45.795
-67.7736
-171.2
-258.315
-324.607
-367.591
-386.943
-384.379
-363.32
-328.391
-284.822
-237.835
-192.086
-151.235
-117.679
-92.4648
-75.3791
-65.1846
-59.9553
-57.4584
-55.5275
-52.3779
-46.83
-38.4187
-27.3879
-14.5827
-1.2643
11.119
21.168
27.7447
30.1313
28.1209
22.0325
12.654
1.12684
-11.2075
-22.9782
-32.948
-40.1496
-43.9793
-44.2407
-41.1357
-35.2093
-27.2571
-18.2113
-9.01923
-0.530158
6.59694
11.9563
15.4236
17.1498
17.5236
17.1096
16.5716
16.5892
17.779
20.6275
25.4424
32.325
41.1667
51.6665
63.366
75.6979
88.042
99.7804
110.35
119.285
126.243
131.023
133.565
133.931
132.283
128.848
123.887
117.654
110.374
102.226
93.3327
83.7663
73.5657
62.7563
51.3752
39.4948
27.2403
14.7998
2.42347
-9.58521
-20.8868
-31.1269
-39.958
-47.06
-52.1558
-55.0235
-55.5039
-53.5066
-49.0146
-42.0901
-32.8801
-21.6211
-8.64021
5.64905
20.7595
36.1519
51.2647
65.5499
78.511
89.738
98.936
105.942
110.729
113.395
114.141
113.237
110.986
107.684
103.593
98.9093
93.7573
88.1879
82.1921
75.7244
68.732
61.1856
53.1074
44.5901
35.805
26.9968
18.4664
10.5427
3.54803
-2.23767
-6.60966
-9.46306
-10.8063
-10.7612
-9.55078
-7.47505
-4.87971
-2.12108
0.467957
2.60693
4.08864
4.79008
4.67338
3.77765
2.20398
0.0962953
-2.37917
-5.05312
-7.76925
-10.3958
-12.8321
-15.0102
-16.8928
-18.4674
-19.7399
-20.7262
-21.4462
-21.9179
-22.1539
-22.1609
-21.9391
-21.4851
-20.7938
-19.8619
-18.6901
-17.2843
-15.6567
-13.8244
-11.8075
-9.62707
-7.30251
-4.8504
-2.28499
0.379052
3.12142
5.90904
8.68794
11.3754
13.8544
15.9712
17.5385
18.3443
18.167
16.7953
14.0521
9.8192
4.05857
-3.17073
-11.7047
-21.2766
-31.5286
-42.0337
-52.3234
-61.9205
-70.3717
-77.2793
-82.3283
-85.3064
-86.117
-84.7823
-81.435
-76.2983
-69.651
-61.7786
-52.9106
-43.1484
-32.3922
-20.2804
-6.15697
10.9151
32.0801
58.5494
91.3978
131.317
178.356
231.692
289.475
348.792
405.779
455.888
494.306
516.466
518.614
498.338
454.987
389.914
306.492
209.888
106.614
3.89745
-91.0435
-171.74
-233.131
-272.053
-287.523
-280.749
-254.92
-214.758
-165.944
-114.449
-65.8849
-24.9379
5.05493
22.3407
26.7856
19.7217
3.63767
-18.2351
-42.3829
-65.4573
-84.6563
-98.0008
-104.481
-104.07
-97.6142
-86.6266
-73.0209
-58.8214
-45.8899
-35.7014
-29.1922
-26.6917
-27.9384
-32.1703
-38.2706
-44.9443
-50.901
-55.02
-56.4778
-54.8259
-50.0144
-42.3612
-32.478
-21.1641
-9.28485
2.34966
13.0895
22.5224
30.5154
37.2177
43.0261
48.5192
54.3705
61.2497
69.7278
80.1941
92.7984
107.421
123.679
140.957
158.474
175.359
190.74
203.827
213.984
220.782
224.021
223.728
220.134
213.627
204.697
193.873
181.676
168.568
154.924
141.026
127.056
113.12
99.2685
85.5206
71.8935
58.4211
45.1664
32.2263
19.7273
7.81514
-3.36
-13.6595
-22.9717
-31.2238
-38.3892
-44.4903
-49.5949
-53.8094
-57.2672
-60.1168
-62.507
-64.575
-66.4342
-68.1654
-69.8117
-71.3754
-72.82
-74.0746
-75.0424
-75.611
-75.6645
-75.0972
-73.825
-71.797
-69.0031
-65.4781
-61.3022
-56.5968
-51.5162
-46.237
-40.944
-35.8165
-31.0139
-26.6645
-22.8563
-19.6318
-16.9879
-14.8793
-13.2261
-11.9249
-10.8608
-9.92106
-9.0066
-8.04212
-6.98248
-5.81519
-4.55898
-3.25851
-1.9764
-0.783403
0.251791
1.0719
1.63844
1.93632
1.97533
1.78845
1.42736
0.956
0.442878
-0.0467198
-0.457694
-0.750425
-0.903808
-0.91575
-0.801216
-0.588211
-0.312356
-0.0108577
0.283304
0.54623
0.766441
0.946379
1.10202
1.26078
1.45822
1.73394
2.12744
2.67439
3.40383
4.33655
5.48475
6.853
8.44009
10.2415
12.2523
14.4692
16.8925
19.5274
22.3837
25.476
28.823
32.447
36.3733
40.6287
45.2403
50.2313
55.6174
61.4
67.5601
74.0507
80.7912
87.6633
94.5097
101.136
107.315
112.8
117.331
120.651
122.523
122.743
121.155
117.668
112.264
105.002
96.0282
85.5639
73.9023
61.3918
48.4183
35.3821
22.6753
10.6578
-0.363269
-10.1504
-18.5463
-25.4779
-30.9528
-35.0484
-37.8942
-39.6477
-40.4643
-40.4601
-39.6682
-37.9874
-35.1252
-30.54
-23.3942
-12.5315
3.49822
26.3475
57.6954
98.9847
151.089
213.952
286.255
365.197
446.451
524.35
592.32
643.533
671.7
671.906
641.352
579.896
490.284
378.034
250.964
118.42
-9.69985
-124.001
-216.584
-281.857
-317.059
-322.442
-301.104
-258.496
-201.69
-138.503
-76.5859
-22.606
18.4074
43.4713
51.7879
44.6178
24.9241
-3.15072
-34.8976
-65.6621
-91.3984
-109.096
-117.041
-114.891
-103.58
-85.0761
-62.0368
-37.4153
-14.0701
5.57473
19.782
27.6432
29.1052
24.8881
16.3172
5.09791
-6.93332
-18.047
-26.8204
-32.2779
-33.9588
-31.9135
-26.6334
-18.9307
-9.78867
-0.204476
8.95417
17.0601
23.7938
29.1608
33.4621
37.2242
41.1028
45.775
51.835
59.7071
69.5873
81.4172
94.8927
109.504
124.597
139.453
153.363
165.707
176.006
183.959
189.458
192.571
193.515
192.6
190.182
186.601
182.136
176.969
171.171
164.709
157.47
149.297
140.042
129.613
118.01
105.358
91.9083
78.0282
64.1689
50.8194
38.4537
27.4787
18.1891
10.7373
5.1202
1.18502
-1.34687
-2.84295
-3.71377
-4.365
-5.15317
-6.35036
-8.12158
-10.5166
-13.4763
-16.8513
-20.4301
-23.9715
-27.2384
-30.027
-32.1897
-33.6486
-34.4
-34.5083
-34.0938
-33.3139
-32.3423
-31.3477
-30.476
-29.8359
-29.4904
-29.4541
-29.6959
-30.1469
-30.7106
-31.2761
-31.7305
-31.9713
-31.9163
-31.5104
-30.7295
-29.5801
-28.0971
-26.337
-24.3714
-22.2775
-20.1306
-17.9967
-15.9274
-13.9573
-12.1046
-10.3731
-8.75682
-7.24526
-5.82838
-4.50095
-3.26519
-2.13146
-1.11707
-0.24336
0.468217
1.00034
1.34372
1.4999
1.48269
1.31775
1.0408
0.694318
0.323579
-0.0276339
-0.32094
-0.526425
-0.624453
-0.606063
-0.471978
-0.230517
0.105165
0.519962
0.999315
1.53089
2.10525
2.71547
3.35595
4.02086
4.70257
5.39066
6.07179
6.73071
7.35221
7.92402
8.43998
8.90315
9.32817
9.74249
10.1863
10.7111
11.3776
12.2531
13.409
14.9185
16.8546
19.2869
22.2778
25.8774
30.1157
34.9953
40.482
46.4973
52.9129
59.5484
66.1746
72.5205
78.2874
83.1655
86.8549
89.0862
89.6406
88.366
85.1883
80.1168
73.2436
64.7375
54.8339
43.8213
32.0264
19.7976
7.48876
-4.5557
-16.0151
-26.6038
-36.0798
-44.2493
-50.9678
-56.1377
-59.7025
-61.6386
-61.9429
-60.615
-57.6307
-52.9037
-46.2349
-37.2517
-25.3485
-9.64356
11.0231
38.0254
72.8008
116.606
170.194
233.453
305.071
382.301
460.91
535.352
599.192
645.754
668.909
663.906
628.111
561.538
467.08
350.381
219.358
83.4222
-47.5
-164.023
-258.291
-324.784
-360.832
-366.789
-345.85
-303.55
-247.028
-184.142
-122.564
-68.9565
-28.3348
-3.65983
4.28889
-3.22086
-23.2357
-51.6416
-83.7746
-115.036
-141.436
-160.01
-169.067
-168.256
-158.465
-141.576
-120.126
-96.9219
-74.6664
-55.6304
-41.4186
-32.84
-29.8921
-31.8474
-37.4211
-44.9913
-52.8382
-59.3708
-63.3144
-63.8384
-60.6164
-53.8155
-44.0261
-32.1432
-19.2217
-6.32438
5.61849
15.9204
24.2112
30.4643
34.98
38.3292
41.2672
44.6291
49.2197
55.7117
64.5617
75.9537
89.7764
105.633
122.886
140.722
158.243
174.554
188.855
200.51
209.105
214.466
216.654
215.934
212.717
207.496
200.769
192.979
184.465
175.433
165.952
155.982
145.403
134.077
121.896
108.828
94.9586
80.5004
65.7902
51.2635
37.4126
24.7358
13.6827
4.60414
-2.28605
-6.93442
-9.45236
-10.1023
-9.26783
-7.4116
-5.02696
-2.58878
-0.509317
0.896192
1.43094
1.0235
-0.27944
-2.33262
-4.92086
-7.79274
-10.6949
-13.4031
-15.7464
-17.6221
-19.0014
-19.9238
-20.4845
-20.8148
-21.0594
-21.3538
-21.8046
-22.4741
-23.3722
-24.4559
-25.6351
-26.7852
-27.763
-28.4256
-28.6481
-28.3393
-27.4532
-25.9942
-24.0175
-21.6226
-18.9427
-16.1305
-13.3423
-10.7223
-8.38946
-6.42724
-4.87828
-3.74383
-2.98777
-2.5446
-2.33
-2.25255
-2.22516
-2.1748
-2.04943
-1.82168
-1.48892
-1.07028
-0.601119
-0.126025
0.308687
0.661908
0.903289
1.0168
1.00206
0.873432
0.657264
0.387791
0.102355
-0.163326
-0.379191
-0.523613
-0.584575
-0.559112
-0.451193
-0.268468
-0.0185154
0.294681
0.673346
1.12711
1.67254
2.33115
3.1262
4.07893
5.20491
6.51121
7.99479
9.64251
11.4326
13.3371
15.3257
17.3687
19.4411
21.5256
23.615
25.7142
27.8411
30.0261
32.3107
34.7442
37.3786
40.2631
43.4373
46.9255
50.7318
54.8377
59.2016
63.7618
68.4409
73.1518
77.8033
82.3043
86.5657
90.4993
94.0136
97.0085
99.3687
100.961
101.631
101.211
99.5299
96.4281
91.7785
85.5079
77.6177
68.1985
57.4377
45.6178
33.1039
20.3214
7.72632
-4.22859
-15.1288
-24.6286
-32.4741
-38.5164
-42.7118
-45.11
-45.8297
-45.0222
-42.8224
-39.2882
-34.3299
-27.6337
-18.5924
-6.25832
10.6563
33.7073
64.5541
104.696
155.129
215.953
286.018
362.667
441.667
517.383
583.213
632.258
658.143
655.887
622.671
558.403
465.955
351.037
221.7
87.5271
-41.3738
-155.463
-246.786
-309.793
-341.864
-343.47
-317.983
-271.146
-210.311
-143.531
-78.6296
-22.3678
20.2081
46.1663
54.8109
47.533
27.431
-1.2331
-33.6623
-65.154
-91.6545
-110.18
-119.064
-118.021
-108.035
-91.1032
-69.8854
-47.3022
-26.1465
-8.74696
3.27686
9.14757
8.94615
3.5204
-5.6923
-16.8979
-28.1997
-37.8409
-44.4064
-46.963
-45.1269
-39.0576
-29.385
-17.0852
-3.32522
10.7023
23.9331
35.556
45.0962
52.4489
57.8642
61.8871
65.2631
68.8243
73.3688
79.5514
87.7973
98.2485
110.748
124.865
139.948
155.208
169.813
182.985
194.077
202.64
208.452
211.522
212.055
210.409
207.017
202.32
196.703
190.441
183.672
176.4
168.51
159.813
150.095
139.177
126.96
113.47
98.873
83.4772
67.7124
52.0922
37.1648
23.4574
11.4238
1.39867
-6.43283
-12.0495
-15.5899
-17.3315
-17.6558
-17.0052
-15.8355
-14.5708
-13.5661
-13.0792
-13.2567
-14.1327
-15.6398
-17.6304
-19.9035
-22.2351
-24.4076
-26.2349
-27.5808
-28.3701
-28.5912
-28.2906
-27.5619
-26.5297
-25.3319
-24.102
-22.9534
-21.9676
-21.1878
-20.6165
-20.2196
-19.9339
-19.678
-19.3649
-18.9145
-18.264
-17.3763
-16.2438
-14.8885
-13.3579
-11.718
-10.0447
-8.41398
-6.8931
-5.53404
-4.36912
-3.40986
-2.6485
-2.06191
-1.61689
-1.27605
-1.00341
-0.768903
-0.551305
-0.339479
-0.131864
0.065402
0.241292
0.383094
0.479485
0.523012
0.5117
0.44961
0.346397
0.216007
0.0748008
-0.0605914
-0.175337
-0.258121
-0.30229
-0.306334
-0.273658
-0.211766
-0.130984
-0.042939
0.0410194
0.111253
0.161014
0.187287
0.191283
0.178606
0.15913
0.146622
0.158144
0.213245
0.332927
0.538404
0.849648
1.28377
1.85333
2.56479
3.41723
4.40171
5.50145
6.69313
7.94933
9.24235
10.549
11.8564
13.1672
14.5052
15.9179
17.4773
19.2766
21.4234
24.0296
27.1981
31.009
35.5059
40.6847
46.4868
52.7965
59.4455
66.2213
72.8809
79.166
84.8194
89.6003
93.2958
95.7292
96.7654
96.3125
94.3218
90.7878
85.7485
79.2861
71.5292
62.6542
52.8855
42.4923
31.7815
21.0855
10.7463
1.09523
-7.56817
-14.9957
-21.0065
-25.4954
-28.4314
-29.843
-29.7875
-28.3031
-25.343
-20.6961
-13.9041
-4.1912
9.56938
28.8253
55.2262
90.401
135.639
191.504
257.445
331.474
410.007
487.925
558.902
615.987
652.383
662.324
641.913
589.808
507.612
399.914
273.945
138.891
4.93557
-117.832
-220.507
-296.314
-341.285
-354.598
-338.531
-298.07
-240.207
-173.057
-104.894
-43.2288
5.95552
38.734
53.4897
50.8725
33.4965
5.4339
-28.4166
-62.9988
-93.7217
-116.965
-130.417
-133.219
-125.92
-110.262
-88.8437
-64.7068
-40.9168
-20.1772
-4.52909
4.83809
7.65165
4.50102
-3.31817
-14.0316
-25.6504
-36.2349
-44.1264
-48.1204
-47.5669
-42.3921
-33.0473
-20.3987
-5.5776
10.1869
25.7291
40.0846
52.5872
62.9204
71.119
77.5261
82.7164
87.3969
92.2997
98.0811
105.238
114.052
124.561
136.563
149.654
163.276
176.785
189.525
200.89
210.379
217.629
222.437
224.753
224.662
222.356
218.094
212.173
204.884
196.499
187.241
177.285
166.754
155.726
144.247
132.341
120.033
107.356
94.3716
81.1742
67.9003
54.7262
41.8632
29.5457
18.0161
7.50576
-1.78395
-9.69953
-16.1495
-21.1131
-24.6425
-26.8584
-27.939
-28.1047
-27.599
-26.6688
-25.5454
-24.4284
-23.4739
-22.7881
-22.4251
-22.3915
-22.6529
-23.1451
-23.7858
-24.4868
-25.1651
-25.7521
-26.1998
-26.4845
-26.6075
-26.5924
-26.481
-26.3269
-26.1875
-26.1157
-26.1508
-26.3115
-26.5887
-26.9429
-27.3037
-27.5739
-27.6378
-27.3722
-26.6609
-25.4087
-23.5554
-21.0862
-18.0383
-14.5013
-10.6131
-6.55023
-2.51352
1.28775
4.65312
7.40716
9.41295
10.582
10.8799
10.3273
8.99719
7.00878
4.51899
1.71185
-1.21327
-4.0544
-6.62004
-8.74198
-10.2869
-11.1661
-11.3412
-10.8269
-9.68818
-8.03321
-6.00232
-3.75408
-1.44999
0.760405
2.75235
4.43555
5.75952
6.71465
7.32891
7.6611
7.7916
7.81164
7.8126
7.87606
8.06576
8.42193
8.95837
9.66232
10.4969
11.4058
12.3194
13.1618
13.8587
14.3437
14.5645
14.4868
14.0968
13.4008
12.4228
11.2008
9.7815
8.21508
6.55113
4.83635
3.11481
1.431
-0.164835
-1.61013
-2.82356
-3.70055
-4.11264
-3.91192
-2.94149
-1.05136
1.88132
5.93034
11.0997
17.3077
24.3777
32.0397
39.9408
47.6669
54.7713
60.8093
65.3738
68.1281
68.8336
67.3678
63.7321
58.049
50.5492
41.5514
31.4356
20.6156
9.5112
-1.47735
-11.9896
-21.7206
-30.4303
-37.948
-44.1716
-49.0628
-52.6392
-54.9634
-56.1304
-56.2511
-55.4318
-53.7464
-51.1981
-47.6687
-42.8584
-36.2189
-26.896
-13.7001
4.87204
30.5375
65.0361
109.846
165.83
232.858
309.478
392.708
478.026
559.592
630.727
684.59
714.986
717.194
688.676
629.572
542.88
434.286
311.652
184.225
61.6667
-46.9799
-134.236
-194.94
-226.717
-230.106
-208.353
-166.9
-112.655
-53.1401
4.3794
53.6635
90.0951
111.039
115.942
106.178
84.6878
55.4637
22.9639
-8.47206
-35.1347
-54.3272
-64.5862
-65.7301
-58.7451
-45.5391
-28.6073
-10.6577
5.75175
18.5218
26.2331
28.2609
24.7795
16.6663
5.32755
-7.52579
-20.1179
-30.8336
-38.4018
-42.0188
-41.4018
-36.7718
-28.7767
-18.3673
-6.64741
5.28156
16.4613
26.1863
34.0717
40.0731
44.461
47.7556
50.6341
53.8242
57.9979
63.6802
71.1819
80.5638
91.636
103.987
117.04
130.126
142.56
153.72
163.108
170.389
175.414
178.214
178.973
177.983
175.596
172.164
167.989
163.287
158.164
152.606
146.498
139.648
131.829
122.823
112.472
100.715
87.618
73.3889
58.3726
43.0289
27.8951
13.5371
0.495238
-10.7677
-19.9124
-26.7544
-31.2801
-33.6435
-34.1464
-33.2029
-31.2946
-28.9204
-26.5475
-24.5689
-23.2719
-22.8202
-23.2509
-24.4851
-26.3511
-28.6145
-31.0136
-33.2929
-35.233
-36.6727
-37.5216
-37.7622
-37.4437
-36.6668
-35.5648
-34.2818
-32.9519
-31.6826
-30.5428
-29.5578
-28.7105
-27.9483
-27.195
-26.3647
-25.3754
-24.1623
-22.6868
-20.9418
-18.9519
-16.7705
-14.4718
-12.1426
-9.87176
-7.74161
-5.82008
-4.1557
-2.77524
-1.68391
-0.867806
-0.297976
0.0646204
0.263958
0.344201
0.345829
0.302919
0.241644
0.179949
0.128178
0.0903925
0.0660762
0.0519311
0.0435242
0.0366096
0.028027
0.0161559
0.000967131
-0.016234
-0.0332407
-0.0474064
-0.0559888
-0.0562695
-0.0454056
-0.020064
0.0240282
0.0924189
0.191943
0.330253
0.514798
0.751332
1.04216
1.38441
1.7688
2.17914
2.5929
2.98297
3.32038
3.57776
3.73298
3.77257
3.69419
3.50787
3.23578
2.91049
2.57198
2.26389
2.02959
1.90883
1.93553
2.13744
2.53756
3.15747
4.02151
5.16102
6.61709
8.44085
10.6902
13.4232
16.688
20.5115
24.8878
29.7681
35.0551
40.6011
46.2135
51.6638
56.7021
61.0743
64.5397
66.8874
67.9497
67.6119
65.8166
62.5648
57.9125
51.9657
44.8735
36.8208
28.0206
18.7072
9.12802
-0.463804
-9.81803
-18.6962
-26.8804
-34.1819
-40.448
-45.5666
-49.4673
-52.1174
-53.5105
-53.6467
-52.5003
-49.9754
-45.849
-39.7072
-30.8847
-18.4231
-1.07236
22.6436
54.2757
95.2066
146.329
207.683
278.11
355.004
434.238
510.307
576.738
626.717
653.887
653.192
621.655
558.953
467.698
353.352
223.785
88.5059
-42.3188
-158.951
-253.117
-318.865
-353.143
-356.021
-330.552
-282.291
-218.558
-147.537
-77.3297
-15.0885
33.681
65.5739
79.4589
76.3729
59.1733
32.0086
-0.311303
-32.961
-61.6816
-83.2342
-95.6825
-98.4857
-92.4096
-79.2844
-61.6548
-42.3764
-24.2139
-9.49164
0.165713
3.97744
2.03022
-4.81107
-15.083
-26.9622
-38.5281
-48.0137
-54.0143
-55.6326
-52.5466
-45.0004
-33.7244
-19.8026
-4.50687
10.8766
25.208
37.6231
47.6167
55.0763
60.2645
63.7579
66.352
68.9463
72.4242
77.5422
84.8402
94.5821
106.732
120.967
136.72
153.251
169.729
185.326
199.294
211.033
220.135
226.397
229.814
230.545
228.864
225.104
219.606
212.671
204.532
195.346
185.196
174.116
162.12
149.23
135.51
121.084
106.143
90.9443
75.792
61.0164
46.9435
33.8665
22.0203
11.563
2.56622
-4.98464
-11.1813
-16.1761
-20.1601
-23.3396
-25.9136
-28.054
-29.8915
-31.5082
-32.9362
-34.1637
-35.1452
-35.8155
-36.1056
-35.9576
-35.3372
-34.2424
-32.7074
-30.8004
-28.6185
-26.2765
-23.8958
-21.5907
-19.4575
-17.565
-15.9499
-14.6155
-13.5352
-12.6591
-11.9227
-11.2576
-10.6001
-9.89914
-9.1216
-8.25386
-7.30099
-6.28308
-5.22993
-4.17496
-3.14916
-2.1762
-1.26891
-0.427739
0.359047
1.11337
1.86394
2.64162
3.47402
4.37965
5.36225
6.40596
7.47218
8.49878
9.40225
10.0832
10.4352
10.356
9.76087
8.59575
6.84925
4.56084
1.82414
-1.21606
-4.37325
-7.43464
-10.1809
-12.4084
-13.9506
-14.6967
-14.6043
-13.7055
-12.1042
-9.96548
-7.49844
-4.9342
-2.50151
-0.403131
1.20436
2.22519
2.63169
2.46378
1.82092
0.8477
-0.284936
-1.40051
-2.33732
-2.96584
-3.20138
-3.01059
-2.41151
-1.46741
-0.275647
1.04685
2.37935
3.61242
4.66052
5.47072
6.02691
6.34952
6.49131
6.53044
6.56225
6.69115
7.02376
7.66375
8.70841
10.2464
12.3557
15.1005
18.5276
22.6599
27.4901
32.9741
39.0246
45.5085
52.2476
59.0234
65.5863
71.6691
77.0018
81.3286
84.423
86.1007
86.2293
84.7343
81.6011
76.8758
70.6625
63.1211
54.4629
44.9456
34.8656
24.5483
14.3351
4.56655
-4.435
-12.3848
-19.0528
-24.2762
-27.9667
-30.1072
-30.7375
-29.9263
-27.7273
-24.12
-18.9363
-11.782
-1.96443
11.5512
30.1323
55.3892
88.9868
132.355
186.321
250.712
324.001
403.085
483.269
558.507
621.909
666.473
685.954
675.741
633.608
560.218
459.282
337.333
203.132
66.7748
-61.3848
-171.854
-257.014
-311.908
-334.688
-326.698
-292.179
-237.653
-171.078
-100.883
-35.0147
19.8909
59.1316
80.282
83.2465
70.0371
44.3237
10.8337
-25.3163
-59.2694
-86.9808
-105.619
-113.776
-111.494
-100.099
-81.9063
-59.8333
-36.9728
-16.1933
0.195524
10.6734
14.621
12.3091
4.77919
-6.35808
-19.1743
-31.6885
-42.1128
-49.0494
-51.6214
-49.527
-43.0189
-32.8185
-19.9808
-5.73267
8.69608
22.2261
34.0506
43.7132
51.137
56.6029
60.6852
64.1546
67.8613
72.6158
79.0801
87.6836
98.5715
111.592
126.317
142.104
158.168
173.675
187.836
199.983
209.628
216.5
220.544
221.901
220.863
217.816
213.173
207.318
200.556
193.088
184.998
176.266
166.804
156.489
145.216
132.939
119.701
105.654
91.0609
76.2762
61.7161
47.8179
34.9958
23.5988
13.8768
5.95845
-0.156449
-4.59038
-7.56843
-9.38885
-10.388
-10.904
-11.244
-11.657
-12.3172
-13.3166
-14.6675
-16.3143
-18.1512
-20.0436
-21.8501
-23.4427
-24.7221
-25.6283
-26.144
-26.2927
-26.1306
-25.7368
-25.1999
-24.6056
-24.0264
-23.5134
-23.0926
-22.7639
-22.5048
-22.2758
-22.0275
-21.7082
-21.2711
-20.6795
-19.9108
-18.9576
-17.8278
-16.5421
-15.1311
-13.632
-12.0848
-10.5295
-9.00323
-7.53905
-6.16449
-4.90126
-3.76513
-2.76601
-1.90809
-1.18999
-0.605019
-0.141452
0.216732
0.488769
0.695507
0.857347
0.991938
1.11192
1.22312
1.32358
1.40372
1.44791
1.43709
1.35244
1.17933
0.911034
0.551413
0.116239
-0.367338
-0.863103
-1.32962
-1.72509
-2.01241
-2.16388
-2.16453
-2.01385
-1.72547
-1.32492
-0.845811
-0.325001
0.202494
0.708106
1.17314
1.59058
1.96503
2.31093
2.64946
3.00457
3.39899
3.85067
4.37032
4.96015
5.61416
6.31965
7.05982
7.81704
8.57643
9.32943
10.0771
10.8329
11.6257
12.5007
13.5207
14.7647
16.3249
18.3004
20.7891
23.8763
27.623
32.0535
37.1449
42.821
48.9488
55.3426
61.7724
67.9775
73.6837
78.6224
82.5487
85.2577
86.5971
86.4741
84.8586
81.7807
77.3251
71.623
64.8424
57.1789
48.8467
40.0708
31.0802
22.102
13.3558
5.04801
-2.63346
-9.52509
-15.4925
-20.434
-24.281
-26.9942
-28.5515
-28.9257
-28.0474
-25.7527
-21.7159
-15.3767
-5.87654
7.97178
27.654
54.8362
91.1438
137.842
195.447
263.337
339.426
420.006
499.813
572.365
630.558
667.461
677.21
655.861
602.082
517.547
406.975
277.78
139.363
2.14674
-123.537
-228.552
-305.922
-351.522
-364.433
-346.906
-303.973
-242.749
-171.54
-98.8625
-32.5089
21.2458
58.1976
76.4866
76.5762
60.9643
33.684
-0.328636
-35.9118
-68.3146
-93.7204
-109.604
-114.898
-109.962
-96.3838
-76.6502
-53.7432
-30.7158
-10.304
5.38093
15.0521
18.3231
15.6644
8.25834
-2.22028
-13.8617
-24.7821
-33.3543
-38.3833
-39.2093
-35.7338
-28.3724
-17.9476
-5.54111
7.67222
20.5864
32.3021
42.2248
50.1152
56.0883
60.5664
64.196
67.7403
71.9648
77.53
84.9034
94.3022
105.67
118.689
132.824
147.39
161.629
174.8
186.252
195.483
202.179
206.226
207.694
206.802
203.871
199.26
193.317
186.326
178.476
169.852
160.439
150.149
138.859
126.453
112.869
98.1299
82.3676
65.8251
48.8454
31.8424
15.2631
-0.456293
-14.9327
-27.8707
-39.0863
-48.5159
-56.2119
-62.3243
-67.0738
-70.7192
-73.5239
-75.7266
-77.5179
-79.0272
-80.3179
-81.3923
-82.2039
-82.6738
-82.7098
-82.2242
-81.1491
-79.4471
-77.1164
-74.1904
-70.7325
-66.827
-62.5675
-58.0449
-53.3363
-48.4966
-43.5537
-38.5077
-33.3352
-27.9969
-22.4485
-16.6526
-10.5907
-4.27263
2.25695
8.91684
15.5923
22.1421
28.41
34.237
39.4748
43.9982
47.7142
50.5679
52.544
53.6647
53.9842
53.5811
52.5495
50.9906
49.0052
46.6876
44.122
41.3801
38.5205
35.5898
32.6236
29.6482
26.6822
23.7384
20.8247
17.946
15.1048
12.3027
9.54156
6.82418
4.15515
1.54115
-1.00929
-3.48642
-5.88023
-8.18172
-10.3839
-12.4826
-14.4766
-16.367
-18.1558
-19.8443
-21.4304
-22.9067
-24.2589
-25.4651
-26.4966
-27.3203
-27.9023
-28.2122
-28.228
-27.9401
-27.3548
-26.4952
-25.3999
-24.1202
-22.7145
-21.2412
-19.7505
-18.2761
-16.8276
-15.3834
-13.8875
-12.249
-10.3463
-8.03538
-5.1632
-1.58408
2.82164
8.12911
14.3528
21.4347
29.2392
37.5552
46.1057
54.5648
62.5792
69.7929
75.8717
80.5264
83.5304
84.7342
84.0733
81.571
77.3367
71.5596
64.4987
56.4685
47.8223
38.9326
30.1702
21.8827
14.374
7.88794
2.59458
-1.41599
-4.13393
-5.62198
-5.99979
-5.41947
-4.03166
-1.9415
0.845724
4.48779
9.37335
16.1856
25.9476
40.0286
60.0881
87.9358
125.294
173.466
232.95
303.039
381.504
464.438
546.331
620.428
679.353
715.942
724.181
700.105
642.515
553.384
437.882
303.975
161.662
21.9202
-104.485
-208.176
-282.169
-322.588
-328.985
-304.264
-254.202
-186.667
-110.628
-35.1037
31.837
83.8853
117.042
129.856
123.337
100.601
66.2837
25.8437
-15.1741
-51.8085
-80.2154
-98.0113
-104.403
-100.109
-87.1032
-68.2244
-46.7253
-25.8087
-8.22064
4.05945
9.99965
9.55846
3.59704
-6.31538
-18.1683
-29.8081
-39.2274
-44.8099
-45.5035
-40.9072
-31.2686
-17.3999
-0.530449
17.88
36.3414
53.5207
68.3942
80.35
89.2314
95.3208
99.2709
101.995
104.53
107.9
112.977
120.382
130.414
143.019
157.813
174.136
191.132
207.854
223.365
236.837
247.618
255.28
259.632
260.702
258.697
253.945
246.832
237.745
227.023
214.926
201.634
187.247
171.823
155.407
138.078
119.982
101.362
82.5662
64.0406
46.3047
29.9091
15.3849
3.1897
-6.34234
-13.0391
-16.9126
-18.162
-17.1558
-14.3969
-10.4742
-6.00634
-1.58555
2.27374
5.17449
6.86201
7.23243
6.32484
4.29958
1.40615
-2.05451
-5.76856
-9.44418
-12.8392
-15.7789
-18.1635
-19.9654
-21.2175
-21.9967
-22.4038
-22.5437
-22.5083
-22.365
-22.1496
-21.8666
-21.4941
-20.993
-20.3183
-19.4309
-18.3072
-16.9464
-15.3736
-13.6383
-11.8094
-9.96732
-8.19472
-6.56685
-5.14401
-3.9665
-3.05288
-2.40155
-1.99499
-1.80585
-1.80344
-1.9597
-2.2533
-2.67145
-3.20892
-3.86464
-4.63644
-5.51503
-6.47842
-7.48807
-8.48777
-9.40588
-10.161
-10.6706
-10.8611
-10.6783
-10.0964
-9.12432
-7.80723
-6.22431
-4.4817
-2.70196
-1.01123
0.474258
1.66062
2.48627
2.92818
3.0041
2.77065
2.31811
1.76272
1.23774
0.884015
0.841036
1.23864
2.18977
3.78444
6.08491
9.1224
12.8955
17.3706
22.4832
28.1426
34.2357
40.6337
47.1973
53.7827
60.2459
66.4457
72.2447
77.5095
82.1095
85.9157
88.8004
90.6396
91.3172
90.7333
88.8136
85.5226
80.8747
74.9453
67.8765
59.8781
51.2213
42.225
33.2357
24.6031
16.6526
9.65959
3.82768
-0.725507
-3.97251
-5.968
-6.82744
-6.69155
-5.67687
-3.81383
-0.976084
3.19201
9.33791
18.4371
31.7825
50.9067
77.4213
112.77
157.912
212.968
276.901
347.278
420.211
490.506
552.049
598.413
623.605
622.866
593.398
534.904
449.845
343.351
222.804
97.1011
-24.2677
-132.244
-219.17
-279.59
-310.779
-312.939
-289.053
-244.42
-185.948
-121.3
-58.0065
-2.65392
39.762
66.2446
75.9409
70.0221
51.3383
23.9066
-7.69013
-38.9129
-65.81
-85.4343
-96.0954
-97.4325
-90.3149
-76.6011
-58.799
-39.679
-21.8938
-7.64975
1.53309
4.95125
2.73354
-4.24921
-14.5585
-26.4168
-37.9575
-47.4623
-53.5585
-55.3561
-52.5119
-45.2223
-34.1497
-20.3002
-4.87044
10.9133
25.9449
39.3593
50.6131
59.5188
66.2321
71.1991
75.0722
78.6073
82.5575
87.575
94.1332
102.476
112.6
124.265
137.032
150.324
163.495
175.9
186.962
196.217
203.348
208.192
210.728
211.05
209.329
205.771
200.582
193.941
185.985
176.81
166.483
155.067
142.64
129.327
115.309
100.838
86.2281
71.8385
58.0508
45.2356
33.7202
23.7595
15.5141
9.03863
4.28072
1.09119
-0.757275
-1.54515
-1.57818
-1.1598
-0.566801
-0.0303008
0.27666
0.244435
-0.17453
-0.972609
-2.098
-3.46816
-4.98399
-6.54321
-8.05181
-9.43272
-10.6313
-11.6174
-12.3852
-12.9495
-13.3413
-13.602
-13.777
-13.9104
-14.04
-14.1942
-14.3896
-14.6313
-14.9137
-15.2233
-15.541
-15.8463
-16.1197
-16.3454
-16.5128
-16.6164
-16.6559
-16.6338
-16.5542
-16.4205
-16.2337
-15.9918
-15.6894
-15.3187
-14.8712
-14.3392
-13.7178
-13.0064
-12.2094
-11.3362
-10.4002
-9.41765
-8.40639
-7.38421
-6.36809
-5.37365
-4.41506
-3.50526
-2.6563
-1.87963
-1.1861
-0.585695
-0.0869005
0.304148
0.584663
0.75609
0.824727
0.801894
0.703566
0.549487
0.361871
0.16392
-0.0215482
-0.173078
-0.270947
-0.296851
-0.233014
-0.0609843
0.239543
0.691492
1.32047
2.15393
3.21939
4.54191
6.14112
8.02852
10.2056
12.6635
15.3855
18.3506
21.5398
24.9422
28.5596
32.4091
36.5198
40.9264
45.6571
50.7189
56.0819
61.6652
67.327
72.8619
78.0065
82.4545
85.8801
87.9683
88.4481
87.1247
83.9074
78.8269
72.0421
63.8323
54.5775
44.7266
34.7591
25.1432
16.2962
8.55092
2.13211
-2.85447
-6.42055
-8.68132
-9.83142
-10.1133
-9.78045
-9.05701
-8.09412
-6.92224
-5.39885
-3.15306
0.467763
6.43794
16.0631
30.9381
52.8323
83.4887
124.339
176.158
238.702
310.4
388.168
467.424
542.326
606.255
652.497
675.04
669.378
633.207
566.89
473.618
359.227
231.679
100.27
-25.3389
-136.134
-224.689
-285.911
-317.491
-320.033
-296.843
-253.419
-196.721
-134.326
-73.5552
-20.7101
19.5271
44.4518
53.4373
47.7841
30.358
5.07946
-23.6613
-51.5859
-75.0352
-91.349
-99.0837
-98.0573
-89.2341
-74.4783
-56.2219
-37.0947
-19.5679
-5.65304
3.31057
6.76295
4.92171
-1.31733
-10.5553
-21.1117
-31.2597
-39.4453
-44.463
-45.5723
-42.5443
-35.6412
-25.5363
-13.1908
0.29276
13.8207
26.4433
37.4589
46.4781
53.4434
58.6057
62.4649
65.6844
68.9917
73.0798
78.5189
85.69
94.7456
105.6
117.95
131.315
145.098
158.652
171.349
182.639
192.088
199.41
204.467
207.253
207.867
206.477
203.273
198.44
192.126
184.435
175.429
165.14
153.598
140.86
127.034
112.303
96.9342
81.278
65.7502
50.8055
36.9016
24.4597
13.8263
5.24124
-1.18366
-5.47378
-7.78667
-8.3944
-7.65535
-5.97907
-3.78824
-1.4819
0.596072
2.18062
3.09921
3.27523
2.72158
1.52606
-0.168875
-2.18951
-4.35429
-6.49491
-8.47301
-10.1912
-11.5981
-12.6871
-13.4905
-14.0697
-14.5035
-14.8757
-15.264
-15.7308
-16.3175
-17.0422
-17.9
-18.8667
-19.9044
-20.968
-22.0109
-22.991
-23.8732
-24.6314
-25.2473
-25.7079
-26.0019
-26.1162
-26.0333
-25.7299
-25.1782
-24.3496
-23.2192
-21.7724
-20.011
-17.9574
-15.658
-13.182
-10.6184
-8.06953
-5.64216
-3.43824
-1.54516
-0.0276283
1.07823
1.76765
2.06671
2.02861
1.72719
1.2487
0.682747
0.113408
-0.388314
-0.770108
-1.00145
-1.07409
-1
-0.807349
-0.534974
-0.226243
0.0770953
0.340305
0.53981
0.665729
0.722624
0.728507
0.712298
0.710093
0.760694
0.900933
1.16131
1.56248
2.11302
2.80892
3.63485
4.56751
5.58058
6.65101
7.76589
8.92917
10.1673
11.5333
13.1077
14.997
17.3278
20.2373
23.8596
28.3093
33.6634
39.9431
47.0983
54.9971
63.4211
72.0701
80.5748
88.5186
95.4662
100.997
104.741
106.412
105.834
102.962
97.8887
90.8394
82.1556
72.2673
61.6579
50.8251
40.242
30.3218
21.3899
13.6662
7.25744
2.1614
-1.7202
-4.56087
-6.58371
-8.03336
-9.14705
-10.1252
-11.1002
-12.102
-13.016
-13.5337
-13.0968
-10.8433
-5.56896
4.27333
20.5114
45.106
79.9046
126.305
184.862
254.895
334.183
418.816
503.289
580.859
644.162
686.026
700.37
683.07
632.644
550.645
441.697
313.137
174.309
35.5957
-92.6806
-201.36
-283.395
-334.535
-353.671
-342.807
-306.676
-252.063
-186.934
-119.492
-57.2666
-6.35175
29.1296
47.2897
48.4577
34.9062
10.377
-20.5191
-52.9455
-82.4427
-105.425
-119.52
-123.723
-118.372
-104.96
-85.8229
-63.7591
-41.6321
-22.0044
-6.84868
2.63821
6.10625
4.01012
-2.52827
-11.9261
-22.3821
-32.1209
-39.6092
-43.7185
-43.8204
-39.8084
-32.0519
-21.2949
-8.51859
5.20995
18.8831
31.6726
43.0123
52.6372
60.579
67.1256
72.7522
78.0384
83.5831
89.9261
97.4863
106.52
117.102
129.124
142.316
156.273
170.503
184.461
197.6
209.401
219.415
227.278
232.728
235.615
235.893
233.614
228.916
222.003
213.128
202.577
190.649
177.646
163.859
149.563
135.008
120.419
105.993
91.9051
78.3093
65.3417
53.1255
41.7737
31.3896
22.0658
13.8807
6.89298
1.13467
-3.3951
-6.73582
-8.96857
-10.2157
-10.6367
-10.4199
-9.77148
-8.9017
-8.01054
-7.27426
-6.83435
-6.7901
-7.19571
-8.06211
-9.36279
-11.0427
-13.0287
-15.2399
-17.5968
-20.0275
-22.4719
-24.8818
-27.2195
-29.4537
-31.5552
-33.4921
-35.2266
-36.7127
-37.8965
-38.7195
-39.1223
-39.0516
-38.4667
-37.3463
-35.6936
-33.5399
-30.9447
-27.9938
-24.7939
-21.4652
-18.1323
-14.9152
-11.9198
-9.23086
-6.90674
-4.97712
-3.44359
-2.28277
-1.45152
-0.893456
-0.545756
-0.345588
-0.235337
-0.166259
-0.100391
-0.0108391
0.119244
0.298555
0.529965
0.812853
1.1451
1.52451
1.94945
2.41864
2.93014
3.47962
4.05809
4.64966
5.22964
5.76381
6.2094
6.51834
6.64302
6.54416
6.19988
5.61468
4.82656
3.91072
2.97878
2.17269
1.65393
1.58877
2.1316
3.40834
5.50244
8.44554
12.2141
16.7327
21.8833
27.5188
33.4789
39.605
45.7532
51.8023
57.6571
63.2465
68.5178
73.4284
77.936
81.9909
85.529
88.4694
90.715
92.1571
92.6827
92.1843
90.5697
87.7723
83.7601
78.5435
72.1804
64.7797
56.5014
47.5536
38.1859
28.6792
19.3318
10.4434
2.29643
-4.8618
-10.8356
-15.4932
-18.7737
-20.6847
-21.2901
-20.6841
-18.951
-16.1088
-12.0389
-6.40708
1.4108
12.3825
27.8261
49.3436
78.6612
117.366
166.555
226.438
295.954
372.501
451.841
528.255
594.977
644.866
671.257
668.864
634.606
568.214
472.515
353.335
219.001
79.5241
-54.4672
-172.872
-267.209
-331.513
-362.914
-361.844
-331.852
-279.062
-211.367
-137.454
-65.8023
-3.77379
43.1073
71.6023
80.9062
72.4986
49.7412
17.2897
-19.5902
-55.7141
-86.5918
-108.895
-120.735
-121.741
-112.94
-96.479
-75.2364
-52.3823
-30.9466
-13.4469
-1.61824
3.73325
2.74537
-3.6046
-13.7
-25.546
-37.0536
-46.3092
-51.7966
-52.5498
-48.2235
-39.0804
-25.9047
-9.8593
7.69044
25.3622
41.9273
56.4472
68.3616
77.5217
84.1703
88.8745
92.424
95.7112
99.608
104.855
111.975
121.219
132.548
145.65
159.99
174.875
189.539
203.227
215.266
225.129
232.469
237.13
239.134
238.651
235.947
231.336
225.122
217.562
208.835
199.035
188.177
176.227
163.136
148.886
133.521
117.186
100.136
82.7384
65.4508
48.7882
33.2763
19.4004
7.55696
-1.98828
-9.12729
-13.9205
-16.5895
-17.4916
-17.0824
-15.8676
-14.3531
-12.9968
-12.1702
-12.1299
-13.0058
-14.8022
-17.4133
-20.6484
-24.2638
-27.9959
-31.593
-34.8405
-37.5789
-39.7122
-41.2075
-42.087
-42.4152
-42.2823
-41.7884
-41.0288
-40.0833
-39.0104
-37.845
-36.6009
-35.2763
-33.86
-32.3385
-30.7025
-28.9507
-27.0923
-25.1471
-23.1439
-21.1173
-19.1042
-17.1396
-15.2539
-13.4702
-11.8031
-10.2586
-8.8354
-7.52654
-6.32221
-5.21223
-4.18833
-3.24592
-2.38494
-1.60966
-0.927764
-0.348563
0.1191
0.469037
0.699602
0.814988
0.825769
0.748587
0.605087
0.42027
0.220531
0.0316765
-0.122818
-0.223105
-0.253731
-0.203881
-0.0671734
0.158863
0.473513
0.873699
1.35488
1.91196
2.54036
3.23711
4.00229
4.84069
5.76389
6.79262
7.95914
9.30924
10.903
12.8137
15.1242
17.9205
21.2821
25.271
29.9198
35.2207
41.1176
47.5027
54.2188
61.0672
67.8211
74.2423
80.0999
85.1882
89.3414
92.4434
94.4308
95.2889
95.0428
93.7431
91.4514
88.2275
84.1212
79.1709
73.4085
66.8709
59.614
51.7279
43.3482
34.6612
25.9021
17.3433
9.27618
1.98696
-4.26978
-9.29549
-12.9664
-15.2423
-16.1615
-15.8185
-14.3232
-11.7394
-8.00765
-2.85882
4.26759
14.2805
28.4451
48.3146
75.5685
111.748
157.908
214.221
279.612
351.487
425.654
496.487
557.361
601.329
621.965
614.264
575.449
505.559
407.708
287.961
154.81
18.3275
-110.907
-222.965
-309.652
-365.386
-387.745
-377.639
-339.081
-278.609
-204.443
-125.483
-50.3007
13.776
61.3645
89.454
97.5212
87.3484
62.5882
28.1489
-10.5092
-48.075
-79.9999
-102.958
-115.115
-116.183
-107.289
-90.6762
-69.3062
-46.4048
-25.0264
-7.68213
3.92682
9.04659
7.8749
1.44438
-8.58833
-20.2116
-31.3459
-40.1112
-45.0415
-45.2274
-40.3724
-30.7687
-17.2008
-0.798169
17.1392
35.3184
52.6111
68.1726
81.5129
92.5144
101.4
108.661
114.958
121.01
127.482
134.902
143.585
153.611
164.817
176.836
189.147
201.147
212.224
221.832
229.539
235.068
238.311
239.318
238.267
235.423
231.083
225.529
218.983
211.578
203.342
194.213
184.056
172.707
160.015
145.894
130.36
113.562
95.7929
77.4788
59.151
41.4009
24.8241
9.96166
-2.75449
-13.044
-20.8039
-26.1147
-29.2255
-30.5218
-30.4799
-29.6134
-28.4197
-27.3314
-26.6789
-26.6676
-27.371
-28.7388
-30.619
-32.7885
-34.9891
-36.9632
-38.4849
-39.3849
-39.5642
-38.9991
-37.7359
-35.8782
-33.5689
-30.9699
-28.242
-25.5278
-22.9388
-20.5484
-18.3905
-16.4628
-14.7348
-13.158
-11.6767
-10.239
-8.80446
-7.35045
-5.87401
-4.3911
-2.93287
-1.54002
-0.256025
0.879447
1.83625
2.59766
3.1622
3.5431
3.76585
3.86413
3.87496
3.83378
3.77008
3.70428
3.6461
3.59471
3.54026
3.4667
3.35528
3.1882
2.95185
2.63926
2.25141
1.79728
1.29272
0.758531
0.217974
-0.305703
-0.791329
-1.22117
-1.58139
-1.8617
-2.05426
-2.15216
-2.1477
-2.03064
-1.78661
-1.39574
-0.831652
-0.0609861
0.956387
2.26608
3.91666
5.95582
8.42523
11.3545
14.7545
18.6115
22.8809
27.484
32.3056
37.1948
41.9685
46.4179
50.317
53.4352
55.5497
56.4614
56.0104
54.0906
50.6639
45.7696
39.5296
32.1468
23.8972
15.1136
6.16454
-2.57189
-10.7357
-18.0113
-24.1498
-28.9845
-32.4371
-34.515
-35.2994
-34.9243
-33.5489
-31.3226
-28.3439
-24.6129
-19.9775
-14.0766
-6.28741
4.31116
18.9397
39.0634
66.2604
102.005
147.37
202.681
267.179
338.749
413.809
487.395
553.501
605.63
637.529
643.994
621.634
569.473
489.293
385.631
265.441
137.434
11.1773
-103.915
-199.589
-269.616
-310.409
-321.316
-304.57
-264.911
-208.932
-144.258
-78.6497
-19.1546
28.6005
60.8983
76.1603
74.9098
59.493
33.6144
1.75669
-31.4332
-61.7157
-85.7218
-101.263
-107.466
-104.727
-94.5261
-79.1123
-61.1389
-43.2803
-27.8879
-16.7224
-10.7877
-10.277
-14.6267
-22.66
-32.7936
-43.2746
-52.416
-58.8005
-61.4313
-59.8161
-53.9801
-44.4148
-31.9741
-17.7354
-2.84828
11.6118
24.766
36.0183
45.0984
52.0607
57.2429
61.1945
64.5852
68.1082
72.3886
77.9091
84.9597
93.6141
103.735
115.003
126.964
139.088
150.829
161.685
171.238
179.184
185.346
189.665
192.176
192.977
192.194
189.946
186.317
181.348
175.033
167.34
158.23
147.696
135.787
122.64
108.487
93.6625
78.5802
63.7096
49.5344
36.5084
25.0119
15.3144
7.54943
1.70319
-2.3802
-4.97867
-6.45964
-7.23937
-7.73887
-8.34166
-9.35793
-10.9986
-13.3617
-16.4313
-20.0892
-24.1366
-28.322
-32.3739
-36.0323
-39.0768
-41.3484
-42.7623
-43.3126
-43.0674
-42.1566
-40.7541
-39.0568
-37.2626
-35.5505
-34.0639
-32.8994
-32.1015
-31.6632
-31.5323
-31.6213
-31.8211
-32.0148
-32.0915
-31.9578
-31.5461
-30.819
-29.7698
-28.4192
-26.8091
-24.995
-23.0374
-20.9945
-18.9161
-16.8411
-14.796
-12.7974
-10.8546
-8.97442
-7.16476
-5.4376
-3.81046
-2.30591
-0.949603
0.232937
1.22
1.99726
2.56063
2.91793
3.08929
3.1061
3.00895
2.84469
2.663
2.5131
2.44066
2.48539
2.67951
3.04704
3.60411
4.36001
5.31907
6.48275
7.85202
9.42929
11.2198
13.2322
15.4779
17.9701
20.7214
23.7408
27.0315
30.587
34.3894
38.4062
42.5902
46.8777
51.1892
55.4299
59.4905
63.2488
66.5715
69.3183
71.3456
72.5133
72.6918
71.7704
69.666
66.3308
61.7595
55.9944
49.1281
41.3035
32.7107
23.5808
14.1757
4.776
-4.33455
-12.8849
-20.6325
-27.377
-32.9696
-37.3183
-40.386
-42.1828
-42.7511
-42.1428
-40.3883
-37.4545
-33.1919
-27.2734
-19.1304
-7.89924
7.60047
28.8339
57.4396
95.0242
142.866
201.551
270.604
348.165
430.823
513.641
590.445
654.349
698.489
716.86
705.151
661.437
586.622
484.556
361.78
226.936
89.8951
-39.2726
-151.361
-238.984
-297.313
-324.499
-321.739
-292.998
-244.426
-183.558
-118.408
-56.5668
-4.411
33.4811
54.6662
58.8941
47.9073
25.0277
-5.4017
-38.6405
-70.1569
-96.1467
-113.91
-122.053
-120.514
-110.415
-93.7951
-73.2542
-51.5659
-31.3147
-14.5959
-2.80887
3.43841
4.31599
0.661602
-6.20123
-14.6864
-23.1769
-30.2349
-34.7651
-36.1169
-34.1169
-29.0351
-21.4965
-12.3529
-2.53742
7.07859
15.8069
23.2274
29.2278
33.9977
37.9792
41.7866
46.1069
51.5969
58.7896
68.0231
79.3976
92.7645
107.747
123.784
140.197
156.258
171.269
184.616
195.824
204.583
210.752
214.354
215.543
214.567
211.726
207.327
201.65
194.913
187.266
178.779
169.46
159.273
148.169
136.115
123.125
109.288
94.774
79.8405
64.8198
50.0956
36.0711
23.1331
11.6154
1.76728
-6.26941
-12.4714
-16.9326
-19.8507
-21.5028
-22.215
-22.3281
-22.1643
-21.9996
-22.0428
-22.4245
-23.1957
-24.3357
-25.7665
-27.373
-29.0238
-30.5913
-31.9689
-33.0825
-33.8967
-34.4153
-34.6762
-34.7432
-34.6954
-34.6154
-34.5789
-34.6454
-34.851
-35.2045
-35.6851
-36.243
-36.803
-37.269
-37.5314
-37.4762
-36.9946
-35.9942
-34.4094
-32.2102
-29.4095
-26.0664
-22.2848
-18.2082
-14.0096
-9.87721
-5.99886
-2.54465
0.348545
2.58978
4.14211
5.02522
5.31212
5.12051
4.59973
3.91506
3.2311
2.69625
2.43006
2.51464
2.99107
3.86071
5.09106
6.62492
8.39151
10.3178
12.3387
14.405
16.4883
18.5831
20.7062
22.8946
25.2012
27.6909
30.4345
33.5031
36.9609
40.858
45.2222
50.0517
55.3088
60.9156
66.7518
72.6567
78.433
83.8549
88.6782
92.652
95.533
97.0985
97.1609
95.5793
92.2711
87.2197
80.4803
72.1824
62.5276
51.7847
40.2793
28.3801
16.4808
4.98018
-5.74052
-15.3389
-23.5316
-30.1097
-34.9497
-38.0171
-39.363
-39.1135
-37.4513
-34.5908
-30.7436
-26.0742
-20.6444
-14.3444
-6.81834
2.60875
14.9812
31.7159
54.5307
85.2725
125.639
176.809
239.017
311.162
390.517
472.639
551.548
620.186
671.134
697.507
693.899
657.232
587.373
487.407
363.509
224.4
80.4805
-57.2843
-178.551
-274.715
-339.811
-371.087
-369.178
-337.891
-283.621
-214.507
-139.43
-66.9901
-4.59054
42.2739
70.4505
79.254
70.2927
47.0436
14.2466
-22.7899
-58.8829
-89.5819
-111.625
-123.205
-124.023
-115.163
-98.7966
-77.79
-55.2652
-34.1735
-16.9352
-5.18299
0.368332
-0.0759949
-5.50605
-14.3129
-24.5504
-34.2141
-41.501
-45.0198
-43.9284
-37.9904
-27.5501
-13.4381
3.17567
20.9559
38.5808
54.9023
69.0698
80.606
89.4303
95.8306
100.393
103.9
107.215
111.161
116.42
123.449
132.439
143.297
155.669
168.992
182.562
195.618
207.413
217.297
224.761
229.474
231.29
230.241
226.498
220.341
212.102
202.135
190.771
178.303
164.971
150.968
136.451
121.558
106.43
91.227
76.1377
61.3822
47.2041
33.8547
21.5715
10.5547
0.94602
-7.18745
-13.8609
-19.1702
-23.2808
-26.4094
-28.7999
-30.6982
-32.3277
-33.8699
-35.451
-37.1369
-38.9349
-40.8034
-42.6659
-44.4273
-45.9908
-47.2729
-48.2136
-48.7827
-48.9803
-48.833
-48.3866
-47.6971
-46.8208
-45.8067
-44.6902
-43.4908
-42.2119
-40.8445
-39.3708
-37.7708
-36.0264
-34.1264
-32.0688
-29.8618
-27.5234
-25.0799
-22.5635
-20.0101
-17.4575
-14.9433
-12.5047
-10.177
-7.99428
-5.98791
-4.18637
-2.6137
-1.28778
-0.218208
0.595779
1.16703
1.52135
1.6971
1.74339
1.71683
1.67706
1.68165
1.781
2.01396
2.40498
2.96303
3.68288
4.54838
5.53747
6.62817
7.80475
9.06314
10.4149
11.8895
13.5343
15.4131
17.6022
20.1855
23.2468
26.8617
31.0873
35.9515
41.4431
47.5025
54.0158
60.8131
67.6706
74.3191
80.4572
85.7683
89.9419
92.6956
93.7979
93.0883
90.4936
86.0386
79.8498
72.1515
63.2538
53.5336
43.4091
33.3113
23.6532
14.8004
7.04596
0.591969
-4.46071
-8.11322
-10.4601
-11.6725
-11.9749
-11.6179
-10.8499
-9.88968
-8.90002
-7.96292
-7.05286
-6.00564
-4.48049
-1.91688
2.507
9.89982
21.6464
39.3372
64.6181
98.9523
143.306
197.795
261.346
331.459
404.131
474.015
534.814
579.921
603.194
599.801
566.977
504.578
415.344
304.785
180.723
52.509
-69.9677
-177.354
-261.848
-318.03
-343.391
-338.514
-306.889
-254.388
-188.506
-117.434
-49.1278
9.55082
53.4961
79.7701
87.73
78.8761
56.4644
24.9487
-10.666
-45.4713
-75.2266
-96.7932
-108.39
-109.66
-101.554
-86.0699
-65.893
-43.9846
-23.185
-5.87105
6.29249
12.4874
12.7566
7.91077
-0.652381
-11.1825
-21.831
-30.8911
-36.9942
-39.2417
-37.2635
-31.2012
-21.6278
-9.41919
4.39845
18.8045
32.9206
46.1116
58.0413
68.6793
78.263
87.2242
96.0951
105.407
115.598
126.943
139.505
153.131
167.465
181.993
196.11
209.181
220.617
229.925
236.752
240.906
242.359
241.23
237.758
232.266
225.119
216.686
207.309
197.271
186.784
175.977
164.904
153.555
141.875
129.794
117.252
104.221
90.7331
76.8828
62.8331
48.8056
35.0623
21.8822
9.53477
-1.74528
-11.7794
-20.459
-27.752
-33.6995
-38.4067
-42.0267
-44.7419
-46.7442
-48.217
-49.3204
-50.181
-50.8866
-51.4865
-51.9949
-52.3987
-52.6664
-52.7576
-52.6323
-52.2584
-51.6166
-50.7036
-49.5314
-48.1256
-46.5213
-44.7582
-42.8753
-40.9066
-38.8774
-36.8022
-34.6849
-32.5202
-30.2967
-28.0011
-25.6225
-23.1574
-20.6123
-18.0065
-15.3718
-12.7516
-10.197
-7.76221
-5.49963
-3.45379
-1.65694
-0.125609
1.14087
2.15985
2.96282
3.5915
4.09281
4.51373
4.89667
5.27588
5.67551
6.10951
6.58356
7.09867
7.65628
8.2641
8.942
9.72691
10.6759
11.8663
13.3923
15.3578
17.8662
21.0063
24.8391
29.3832
34.6043
40.4078
46.6367
53.0765
59.4644
65.5053
70.8908
75.3212
78.5271
80.29
80.459
78.9621
75.812
71.1052
65.0151
57.7798
49.6857
41.049
32.1952
23.4391
15.0671
7.3209
0.387004
-5.61056
-10.6114
-14.6151
-17.6724
-19.8728
-21.3294
-22.1634
-22.4876
-22.3926
-21.9319
-21.107
-19.8473
-17.9822
-15.2029
-11.0154
-4.69076
4.77329
18.6587
38.4774
65.8429
102.25
148.77
205.692
272.164
345.918
423.146
498.605
565.972
618.445
649.524
653.862
628.074
571.36
485.835
376.505
250.869
118.19
-11.4757
-128.362
-224.049
-292.349
-329.927
-336.555
-315.015
-270.645
-210.614
-143.026
-75.9714
-16.6417
29.3876
58.6322
69.8931
64.1688
44.3193
14.543
-20.2529
-55.1042
-85.5829
-108.267
-121.041
-123.212
-115.439
-99.5086
-78.0021
-53.8945
-30.1533
-9.37803
6.47758
16.2752
19.7449
17.4259
10.5156
0.652985
-10.3283
-20.6444
-28.773
-33.609
-34.5516
-31.5172
-24.8854
-15.3916
-3.98364
8.33321
20.6439
32.2437
42.7173
51.9699
60.2097
67.8869
75.6011
83.9916
93.626
104.904
117.985
132.758
148.84
165.621
182.331
198.133
212.215
223.884
232.634
238.191
240.526
239.838
236.505
231.028
223.948
215.785
206.973
197.823
188.505
179.049
169.38
159.346
148.773
137.51
125.464
112.63
99.106
85.084
70.8388
56.699
43.0145
30.1221
18.3152
7.81825
-1.22783
-8.77191
-14.8486
-19.5664
-23.0903
-25.6204
-27.3716
-28.5533
-29.3539
-29.9301
-30.4002
-30.8438
-31.3047
-31.7971
-32.3138
-32.8349
-33.3358
-33.794
-34.1932
-34.5263
-34.7945
-35.0062
-35.1732
-35.3071
-35.4152
-35.4971
-35.5434
-35.5348
-35.4436
-35.2362
-34.8777
-34.3358
-33.5856
-32.6136
-31.42
-30.0193
-28.4397
-26.7197
-24.9042
-23.0386
-21.1636
-19.3102
-17.496
-15.7236
-13.9812
-12.2457
-10.4876
-8.67694
-6.78998
-4.81479
-2.75537
-0.633482
1.51237
3.6305
5.66197
7.54807
9.23841
10.6986
11.9166
12.9064
13.7096
14.393
15.0435
15.7616
16.6527
17.8192
19.3535
21.3329
23.8163
26.8428
30.4309
34.5774
39.2559
44.4144
49.9718
55.8145
61.7942
67.7271
73.3972
78.563
82.9683
86.3569
88.4896
89.1627
88.2254
85.5953
81.2699
75.3333
67.9557
59.3876
49.9465
39.9983
29.9339
20.143
10.9879
2.77868
-4.24671
-9.93615
-14.2293
-17.1553
-18.822
-19.3986
-19.0927
-18.1228
-16.6889
-14.94
-12.9388
-10.6216
-7.75363
-3.88014
1.72022
10.0693
22.4936
40.5776
66.0459
100.56
145.433
201.28
267.665
342.785
423.303
504.366
579.87
642.977
686.824
705.365
694.201
651.293
577.426
476.346
354.523
220.571
84.3795
-43.9258
-155.063
-241.572
-298.565
-324.171
-319.611
-288.919
-238.353
-175.583
-108.764
-45.6187
7.37266
45.5716
66.5234
70.0174
57.8811
33.556
1.52476
-33.3274
-66.3351
-93.5852
-112.303
-121.064
-119.812
-109.723
-92.9196
-72.1069
-50.1769
-29.8295
-13.2577
-1.93006
3.51552
3.26363
-1.78722
-10.21
-20.2802
-30.2188
-38.4164
-43.6114
-45.0064
-42.3126
-35.7261
-25.8455
-13.5475
0.158302
14.2751
27.9458
40.5472
51.7426
61.49
70.0101
77.7214
85.1545
92.8586
101.313
110.854
121.628
133.574
146.432
159.777
173.08
185.769
197.296
207.196
215.131
220.913
224.506
226.009
225.619
223.593
220.2
215.681
210.218
203.919
196.816
188.881
180.042
170.224
159.369
147.473
134.6
120.89
106.562
91.8955
77.2128
62.8528
49.1444
36.382
24.8055
14.5871
5.82443
-1.45834
-7.30466
-11.8146
-15.1311
-17.4256
-18.8831
-19.6895
-20.0205
-20.0334
-19.862
-19.6132
-19.3671
-19.1781
-19.0778
-19.0791
-19.18
-19.3686
-19.6271
-19.935
-20.2732
-20.6252
-20.9798
-21.3315
-21.6812
-22.0357
-22.4076
-22.8139
-23.2739
-23.8067
-24.4276
-25.144
-25.9509
-26.8266
-27.7296
-28.598
-29.3505
-29.8916
-30.1185
-29.9316
-29.2454
-27.9999
-26.1709
-23.7764
-20.8801
-17.5887
-14.0451
-10.4169
-6.88096
-3.60691
-0.74054
1.61049
3.38705
4.58379
5.24863
5.47678
5.40008
5.17322
4.95869
4.91226
5.17063
5.84266
7.0045
8.69894
10.9384
13.7108
16.9867
20.7278
24.8934
29.4464
34.3556
39.5954
45.1422
50.9677
57.0309
63.269
69.5885
75.8593
81.9115
87.5373
92.4977
96.535
99.3898
100.821
100.629
98.6737
94.8967
89.3314
82.1106
73.4639
63.7084
53.2296
42.4571
31.8343
21.7862
12.6889
4.84134
-1.55466
-6.40654
-9.73276
-11.6545
-12.3783
-12.1715
-11.3336
-10.1648
-8.93685
-7.8634
-7.07307
-6.58083
-6.25593
-5.78358
-4.62036
-1.9478
3.36528
12.7736
28.017
51.008
83.6298
127.441
183.309
251.021
328.938
413.779
500.608
583.072
653.908
705.682
731.657
726.703
688.076
615.973
513.744
387.717
246.649
100.861
-38.8347
-162.281
-261.037
-329.235
-364.125
-366.239
-339.186
-289.096
-223.814
-151.941
-81.8561
-20.8247
25.6918
54.4703
64.664
57.6553
36.6622
6.1683
-28.7417
-63.0525
-92.4137
-113.597
-124.772
-125.587
-117.056
-101.296
-81.1469
-59.7391
-40.0651
-24.6052
-15.0513
-12.1526
-15.692
-24.5847
-37.0759
-51.0047
-64.0964
-74.2449
-79.7525
-79.5024
-73.049
-60.6219
-43.0524
-21.6355
2.04889
26.3336
49.6552
70.7174
88.6105
102.878
113.526
120.979
125.99
129.524
132.624
136.276
141.291
148.22
157.302
168.448
181.271
195.143
209.275
222.808
234.91
244.852
252.075
256.225
257.169
254.98
249.909
242.334
232.709
221.508
209.178
196.101
182.568
168.778
154.838
140.788
126.63
112.355
97.9742
83.5439
69.178
55.0509
41.3891
28.4531
16.5126
5.81849
-3.4245
-11.0809
-17.1
-21.5231
-24.4803
-26.1784
-26.8817
-26.8873
-26.4988
-25.9999
-25.633
-25.5818
-25.9621
-26.8191
-28.1326
-29.8264
-31.7836
-33.8627
-35.915
-37.7991
-39.3943
-40.6086
-41.3838
-41.6955
-41.5506
-40.9812
-40.0369
-38.7765
-37.2599
-35.5408
-33.662
-31.6525
-29.5277
-27.2923
-24.9442
-22.4814
-19.9074
-17.237
-14.4996
-11.7408
-9.01989
-6.40671
-3.97485
-1.79474
0.0732929
1.58492
2.71555
3.46155
3.83894
3.87982
3.62756
3.13157
2.44289
1.61137
0.684824
-0.289729
-1.26347
-2.18259
-2.98561
-3.6023
-3.95481
-3.96155
-3.5434
-2.63164
-1.17612
0.84766
3.43428
6.54778
10.1252
14.0838
18.3302
22.7703
27.3185
31.9025
36.4661
40.9668
45.3702
49.642
53.7396
57.604
61.1542
64.2853
66.8699
68.7642
69.8176
69.8857
68.8442
66.6053
63.1309
58.4456
52.6435
45.8907
38.4202
30.5201
22.5159
14.7465
7.53821
1.17863
-4.10678
-8.17201
-10.9601
-12.5036
-12.9154
-12.3727
-11.093
-9.30771
-7.23264
-5.03773
-2.81538
-0.546151
1.93966
5.00428
9.24514
15.5291
25.0038
39.0669
59.2741
87.1707
124.047
170.63
226.763
291.111
360.978
432.295
499.818
557.548
599.345
619.664
614.305
581.072
520.23
434.671
329.758
212.848
92.5562
-22.1598
-122.956
-202.992
-257.629
-284.86
-285.42
-262.575
-221.627
-169.213
-112.49
-58.3147
-12.5145
20.6698
38.9097
41.866
31.0271
9.34709
-19.2552
-50.4628
-80.1188
-104.709
-121.716
-129.818
-128.92
-120.029
-105.008
-86.2476
-66.3102
-47.5842
-32.0003
-20.8328
-14.6059
-13.1044
-15.4776
-20.414
-26.3572
-31.7312
-35.1464
-35.5605
-32.3795
-25.4904
-15.2282
-2.28813
12.402
27.8274
43.0303
57.2332
69.9282
80.9217
90.3352
98.5632
106.199
113.939
122.478
132.412
144.158
157.895
173.545
190.775
209.034
227.62
245.743
262.616
277.524
289.891
299.319
305.612
308.766
308.948
306.447
301.62
294.835
286.411
276.579
265.443
252.96
238.944
223.072
204.917
183.985
159.768
131.803
99.7394
63.3979
22.8359
-21.6066
-69.2776
-119.208
-170.135
-220.562
-268.839
-313.276
-352.26
-384.385
-408.562
-424.111
-430.815
-428.94
-419.208
-402.735
-380.929
-355.379
-327.721
-299.52
-272.154
-246.74
-224.075
-204.619
-188.509
-175.6
-165.52
-157.75
-151.69
-146.737
-142.336
-138.023
-133.453
-128.404
-122.767
-116.526
-109.735
-102.483
-94.8733
-87.001
-78.9449
-70.7651
-62.5087
-54.222
-45.9628
-37.8127
-29.8832
-22.3169
-15.28
-8.94951
-3.49455
0.943157
4.26838
6.44705
7.51459
7.57628
6.79966
5.39962
3.61821
1.70165
-0.122525
-1.66544
-2.79164
-3.42679
-3.55777
-3.22493
-2.50791
-1.50661
-0.319958
0.974617
2.33816
3.78084
5.36438
7.19562
9.41157
12.1579
15.5637
19.7162
24.6392
30.2776
36.492
43.0627
49.7038
56.0854
61.8612
66.6984
70.306
72.459
73.0159
71.928
69.2407
65.0867
59.6733
53.2646
46.1608
38.6767
31.1213
23.7795
16.897
10.6702
5.23966
0.689156
-2.95158
-5.70016
-7.61195
-8.76842
-9.26408
-9.19253
-8.63132
-7.62484
-6.16379
-4.15959
-1.41278
2.4239
7.88404
15.7198
26.9151
42.6634
64.2926
93.1237
130.26
176.319
231.141
293.522
361.032
429.986
495.596
552.338
594.493
616.82
615.255
587.542
533.684
456.144
359.739
251.231
138.665
30.5237
-65.171
-141.718
-194.43
-221.075
-222.032
-200.131
-160.224
-108.537
-51.9137
2.97638
50.3471
85.8549
106.946
112.966
105.045
85.779
58.7699
28.0976
-2.2172
-28.6864
-48.7144
-60.8128
-64.6573
-60.9962
-51.4357
-38.1424
-23.5061
-9.81068
1.04739
7.76278
9.72823
7.04126
0.419108
-8.95833
-19.6504
-30.1722
-39.196
-45.712
-49.1324
-49.3276
-46.5984
-41.5918
-35.1773
-28.3052
-21.8666
-16.5756
-12.8879
-10.9635
-10.6753
-11.6572
-13.3813
-15.2498
-16.6864
-17.2141
-16.5082
-14.4212
-10.9779
-6.34719
-0.797377
5.35482
11.7924
18.236
24.4669
30.3332
35.7422
40.6411
44.9931
48.7532
51.8504
54.1786
55.5991
55.953
55.0825
52.8559
49.1938
44.0898
37.6244
29.9682
21.3748
12.1639
2.69705
-6.65101
-15.5211
-23.5964
-30.6229
-36.4232
-40.9022
-44.0444
-45.9052
-46.5976
-46.275
-45.1142
-43.2993
-41.0072
-38.3968
-35.6022
-32.7284
-29.8513
-27.0199
-24.2608
-21.5837
-18.988
-16.4696
-14.0259
-11.661
-9.38824
-7.2307
-5.22043
-3.39521
-1.79422
-0.453038
0.601464
1.35541
1.81087
1.98704
1.91945
1.65722
1.25891
0.787321
0.304107
-0.135154
-0.484698
-0.710739
-0.791868
-0.717853
-0.487247
-0.104418
0.423368
1.08822
1.88289
2.80079
3.8349
4.97585
6.20957
7.51511
8.86322
10.2161
11.5284
12.7501
13.8307
14.7232
15.3898
15.8057
15.9625
15.869
15.5504
15.0454
14.4015
13.6687
12.8941
12.1162
11.3612
10.6417
9.95702
9.29672
8.64486
7.98569
7.309
6.61436
5.91341
5.22993
4.59747
4.05505
3.64165
3.39048
3.32377
3.44915
3.75774
4.2242
4.80858
5.45936
6.11754
6.72122
7.21042
7.53181
7.64315
7.51711
7.14402
6.53336
5.71368
4.73066
3.64354
2.52012
1.43065
0.44132
-0.392342
-1.03194
-1.46293
-1.70222
-1.80719
-1.88605
-2.10811
-2.71166
-4.00624
-6.3661
-10.2123
-15.9825
-24.0884
-34.8635
-48.5046
-65.0116
-84.1308
-105.306
-127.644
-149.895
-170.465
-187.456
-198.763
-202.222
-195.82
-177.96
-147.748
-105.269
-51.7834
10.1808
76.9135
143.774
205.611
257.293
294.3
313.272
312.447
291.922
253.691
201.448
140.185
75.6362
13.6385
-40.505
-82.5803
-109.869
-121.363
-117.765
-101.296
-75.3332
-43.9413
-11.3583
18.4969
42.437
58.2932
65.0529
62.8427
52.7733
36.6792
16.7959
-4.57704
-25.3834
-44.0498
-59.6343
-71.8729
-81.1297
-88.2665
-94.4577
-100.981
-109.013
-119.459
-132.834
-149.202
-168.187
-189.036
-210.73
-232.116
-252.05
-269.529
-283.791
-294.385
-301.188
-304.393
-304.454
-302.007
-297.778
-292.49
-286.783
-281.151
-275.902
-271.154
-266.848
-262.789
-258.695
-254.256
-249.193
-243.298
-236.47
-228.727
-220.193
-211.078
-201.631
-192.093
-182.643
-173.357
-164.183
-154.939
-145.338
-135.038
-123.704
-111.083
-97.0699
-81.7532
-65.4379
-48.6342
-32.0139
-16.3422
-2.39084
9.15276
17.7686
23.1679
25.3287
24.4989
21.1678
16.0084
9.80156
3.3496
-2.60821
-7.46825
-10.8153
-12.4502
-12.3908
-10.8479
-8.18137
-4.84257
-1.31185
1.96139
4.60895
6.37935
7.15561
6.95499
5.9124
4.25126
2.24655
0.185421
-1.66948
-3.10984
-4.00162
-4.29363
-4.01499
-3.26285
-2.18294
-0.946184
0.275342
1.33005
2.1036
2.52919
2.59084
2.31996
1.78629
1.08511
0.322515
-0.399038
-0.993213
-1.39891
-1.58524
-1.5522
-1.32734
-0.95942
-0.509965
-0.0442068
0.377526
0.706864
0.912212
0.98093
0.918908
0.747857
0.50089
0.217151
-0.0637564
-0.306792
-0.485405
-0.583971
-0.598596
-0.536355
-0.413231
-0.251098
-0.074164
0.094839
0.238508
0.348613
0.42988
0.50353
0.61019
0.811497
1.18959
1.84372
2.88353
4.41902
6.548
9.34218
12.834
17.0059
21.7841
27.0389
32.5906
38.2227
43.7002
48.7911
53.2885
57.0321
59.9238
61.9386
63.1272
63.6115
63.5724
63.2325
62.8355
62.6232
62.8148
63.5874
65.0613
67.2886
70.2475
73.8395
77.8921
82.164
86.3546
90.1183
93.0824
94.8705
95.1306
93.5648
89.9615
84.2227
76.386
66.635
55.2971
42.8263
29.7717
16.7339
4.31491
-6.93438
-16.5623
-24.2539
-29.8538
-33.371
-34.9664
-34.9233
-33.6054
-31.4066
-28.6964
-25.7649
-22.7685
-19.678
-16.2297
-11.8827
-5.79029
3.20221
16.5165
35.7389
62.4437
97.9417
142.974
197.392
259.882
327.808
397.225
463.102
519.757
561.465
583.153
581.101
553.52
500.927
426.248
334.608
232.852
128.828
30.5448
-54.6899
-121.046
-164.754
-184.438
-181.15
-158.127
-120.309
-73.6795
-24.5362
21.2291
58.7492
84.6332
97.2087
96.5412
84.2492
63.1521
36.8101
9.02069
-16.663
-37.3352
-51.0216
-56.8201
-54.897
-46.3529
-32.9901
-17.0188
-0.74684
13.7078
24.6485
30.954
32.1451
28.3671
20.2987
9.01059
-4.2052
-18.0097
-31.1734
-42.698
-51.894
-58.4091
-62.2127
-63.5422
-62.8248
-60.5872
-57.3665
-53.6344
-49.7416
-45.888
-42.1191
-38.3456
-34.3811
-29.9905
-24.9417
-19.0534
-12.2325
-4.4972
4.01542
13.0588
22.3
31.3523
39.8147
47.3099
53.519
58.2067
61.2363
62.5716
62.2698
60.4649
57.3477
53.144
48.0955
42.4448
36.4247
30.2536
24.1324
18.2444
12.7551
7.80968
3.53021
0.0099411
-2.69284
-4.561
-5.62343
-5.95723
-5.68632
-4.97565
-4.02118
-3.03578
-2.23238
-1.80583
-1.91549
-2.67061
-4.12029
-6.24943
-8.98125
-12.1862
-15.6963
-19.3225
-22.8748
-26.1798
-29.0969
-31.5291
-33.4287
-34.797
-35.6791
-36.1545
-36.3246
-36.3003
-36.1886
-36.0824
-36.0525
-36.1428
-36.3692
-36.7212
-37.166
-37.654
-38.1256
-38.5178
-38.7703
-38.8305
-38.6571
-38.2219
-37.5101
-36.5186
-35.2537
-33.7281
-31.9582
-29.962
-27.758
-25.366
-22.8084
-20.1127
-17.3134
-14.4543
-11.5893
-8.78183
-6.10309
-3.62853
-1.43314
0.414412
1.85798
2.86008
3.40706
3.51256
3.21856
2.59366
1.72859
0.729215
-0.292126
-1.22591
-1.97426
-2.45819
-2.62247
-2.43752
-1.89838
-1.02095
0.163918
1.61754
3.30109
5.18274
7.24354
9.48126
11.9118
14.5677
17.4944
20.7447
24.3714
28.421
32.9269
37.9048
43.3485
49.2287
55.4911
62.0579
68.8282
75.6808
82.4762
89.06
95.2648
100.913
105.819
109.792
112.639
114.17
114.212
112.616
109.276
104.147
97.2606
88.7415
78.8119
67.7899
56.0759
44.1288
32.433
21.4597
11.6279
3.26867
-3.40287
-8.30392
-11.4877
-13.1338
-13.5273
-13.0279
-12.0319
-10.93
-10.0603
-9.65706
-9.79399
-10.3216
-10.8009
-10.4413
-8.05734
-2.06664
9.44632
28.5759
57.3395
97.3279
149.297
212.762
285.68
364.292
443.219
515.816
574.806
613.095
624.692
605.581
554.407
472.871
365.743
240.483
106.507
-25.8164
-146.292
-246.012
-318.307
-359.414
-368.782
-348.993
-305.321
-244.997
-176.292
-107.532
-46.1779
1.93238
33.0891
45.9293
41.3614
22.229
-7.22244
-41.9945
-77.0111
-107.736
-130.662
-143.629
-145.937
-138.283
-122.513
-101.279
-77.6149
-54.5157
-34.5644
-19.6456
-10.7764
-8.06334
-10.7771
-17.526
-26.495
-35.7157
-43.3298
-47.814
-48.1429
-43.8736
-35.151
-22.6376
-7.38506
9.3328
26.2003
42.0308
55.9062
67.2707
75.9708
82.2398
86.6345
89.9353
93.0252
96.7652
101.881
108.877
117.979
129.121
141.967
155.961
170.399
184.52
197.582
208.933
218.069
224.655
228.536
229.712
228.312
224.553
218.694
211.006
201.742
191.125
179.344
166.56
152.916
138.553
123.615
108.263
92.6738
77.0397
61.5637
46.4509
31.9003
18.0957
5.19819
-6.65997
-17.3794
-26.8956
-35.1798
-42.2367
-48.1029
-52.8419
-56.54
-59.3003
-61.2364
-62.4667
-63.1073
-63.2668
-63.0413
-62.5102
-61.7348
-60.7577
-59.6043
-58.2862
-56.8056
-55.1599
-53.3469
-51.3683
-49.2326
-46.9557
-44.5609
-42.0762
-39.5317
-36.9561
-34.3731
-31.799
-29.2416
-26.7002
-24.1678
-21.6348
-19.0933
-16.5419
-13.9903
-11.4616
-8.99338
-6.63571
-4.44767
-2.49136
-0.825162
0.503354
1.46376
2.04752
2.27056
2.17322
1.81776
1.28358
0.660777
0.0429599
-0.480125
-0.829183
-0.940692
-0.770533
-0.295765
0.48544
1.55551
2.88051
4.41414
6.10217
7.88697
9.7118
11.5248
13.2829
14.9557
16.5303
18.016
19.4498
20.9001
22.4681
24.285
26.5043
29.2876
32.7868
37.1232
42.3661
48.5153
55.4886
63.1174
71.1509
79.2688
87.1016
94.2558
100.342
105.001
107.931
108.907
107.796
104.563
99.2777
92.106
83.3045
73.2044
62.1942
50.6984
39.1532
27.9823
17.5717
8.24801
0.258955
-6.23951
-11.19
-14.6326
-16.6958
-17.5803
-17.5353
-16.831
-15.7258
-14.4309
-13.0711
-11.6397
-9.94853
-7.57409
-3.80648
2.38586
12.3561
27.7204
50.2195
81.4894
122.748
174.431
235.831
304.822
377.735
449.46
513.799
564.06
593.82
597.777
572.542
517.258
433.942
327.462
205.166
76.1651
-49.6068
-162.463
-254.007
-318.021
-351.093
-352.897
-326.118
-276.031
-209.799
-135.601
-61.6868
4.51242
57.1184
92.3099
108.552
106.541
88.9066
59.7052
23.8085
-13.7497
-48.3767
-76.4093
-95.4397
-104.455
-103.793
-94.9372
-80.1953
-62.3096
-44.0573
-27.8905
-15.6561
-8.42399
-6.4312
-9.13961
-15.3861
-23.5976
-32.0362
-39.0411
-43.2357
-43.678
-39.9397
-32.1118
-20.7438
-6.72952
8.83848
24.826
40.2035
54.1656
66.21
76.1716
84.2104
90.7593
96.4406
101.965
108.025
115.196
123.863
134.165
145.985
158.963
172.547
186.059
198.778
210.018
219.21
225.95
230.033
231.46
230.414
227.214
222.261
215.969
208.704
200.735
192.203
183.12
173.378
162.8
151.183
138.362
124.26
108.926
92.5601
75.5002
58.2006
41.183
24.9801
10.0758
-3.14718
-14.4458
-23.7359
-31.0897
-36.7141
-40.9136
-44.0426
-46.4562
-48.4649
-50.299
-52.0877
-53.8528
-55.5183
-56.9321
-57.8969
-58.2042
-57.6683
-56.1555
-53.6051
-50.0408
-45.5718
-40.3839
-34.7225
-28.8693
-23.1161
-17.738
-12.97
-8.98761
-5.89582
-3.72469
-2.43329
-1.92014
-2.03854
-2.6146
-3.46573
-4.41736
-5.31653
-6.04123
-6.50532
-6.65933
-6.48777
-6.00385
-5.24264
-4.2537
-3.09388
-1.8214
-0.491496
0.845811
2.14585
3.36769
4.47146
5.4154
6.15384
6.63705
6.81381
6.63697
6.0718
5.1062
3.76109
2.09915
0.22985
-1.69105
-3.46847
-4.88143
-5.70207
-5.71783
-4.75422
-2.69489
0.503949
4.80672
10.1005
16.2054
22.8923
29.9046
36.9819
43.8826
50.4027
56.3879
61.7406
66.4186
70.428
73.8114
76.6316
78.9542
80.8316
82.288
83.3102
83.8436
83.7951
83.043
81.4525
78.895
75.2705
70.5269
64.6774
57.81
50.0896
41.7506
33.0825
24.4064
16.0489
8.31321
1.45255
-4.35204
-9.0066
-12.51
-14.9497
-16.4878
-17.3382
-17.7349
-17.8961
-17.981
-18.044
-17.9842
-17.492
-15.9963
-12.6188
-6.14899
4.94279
22.4314
48.1825
83.9084
130.841
189.356
258.605
336.237
418.273
499.223
572.452
630.801
667.389
676.494
654.387
599.988
515.225
405.028
276.951
140.439
5.85196
-116.641
-218.153
-292.008
-334.401
-344.708
-325.414
-281.697
-220.713
-150.698
-80.0042
-16.1826
34.7747
68.9538
84.7579
82.8561
65.8744
37.8851
3.77529
-31.4198
-63.1349
-87.7738
-103.04
-108.075
-103.409
-90.7393
-72.5976
-51.9371
-31.7155
-14.5171
-2.25866
3.99254
4.07667
-1.31948
-10.8234
-22.6084
-34.6602
-45.0425
-52.1282
-54.7717
-52.4059
-45.0585
-33.295
-18.1006
-0.722829
17.5025
35.3183
51.6865
65.8882
77.5735
86.7617
93.7968
99.2667
103.902
108.464
113.646
119.984
127.799
137.171
147.943
159.75
172.076
184.318
195.859
206.132
214.678
221.173
225.451
227.495
227.41
225.389
221.672
216.501
210.085
202.58
194.078
184.609
174.164
162.714
150.243
136.774
122.386
107.235
91.5487
75.6226
59.7999
44.4482
29.931
16.5788
4.66364
-5.62092
-14.1725
-20.9834
-26.1362
-29.7909
-32.1664
-33.5183
-34.1153
-34.2163
-34.0518
-33.809
-33.6236
-33.577
-33.6998
-33.9797
-34.3724
-34.815
-35.2382
-35.5786
-35.7866
-35.8326
-35.7079
-35.4231
-35.0027
-34.4786
-33.8824
-33.2383
-32.5579
-31.8376
-31.0584
-30.1898
-29.1945
-28.0354
-26.6824
-25.1187
-23.3442
-21.3777
-19.2553
-17.0271
-14.7514
-12.4889
-10.2962
-8.22076
-6.29742
-4.54718
-2.97795
-1.58702
-0.364526
0.702924
1.629
2.42548
3.10141
3.66346
4.11738
4.46994
4.73097
4.91504
5.04231
5.13869
5.2354
5.36821
5.57689
5.90504
6.40042
7.1155
8.10804
9.44091
11.1809
13.3957
16.1497
19.4971
23.4749
28.0941
33.3322
39.1269
45.3718
51.9164
58.5682
65.1
71.2594
76.7821
81.4063
84.8882
87.018
87.6337
86.6327
83.9798
79.7113
73.9336
66.8188
58.5952
49.5356
39.9424
30.1324
20.4199
11.1006
2.43623
-5.35805
-12.1239
-17.7653
-22.2495
-25.6026
-27.8997
-29.2515
-29.7876
-29.6379
-28.9143
-27.6905
-25.98
-23.709
-20.6801
-16.5276
-10.6666
-2.24575
9.87858
27.1229
51.0877
83.3805
125.346
177.721
240.269
311.442
388.18
465.895
538.709
599.942
642.825
661.334
651.04
609.832
538.397
440.368
322.097
192.075
60.0609
-63.9527
-170.819
-253.207
-306.349
-328.465
-320.839
-287.528
-234.774
-170.195
-101.869
-37.4256
16.7443
56.0753
78.1581
82.7914
71.7743
48.4857
17.3198
-16.941
-49.7351
-77.2408
-96.751
-106.874
-107.551
-99.9101
-85.9891
-68.373
-49.8046
-32.8145
-19.4179
-10.9074
-7.75939
-9.65387
-15.594
-24.1005
-33.4484
-41.9119
-47.9859
-50.5566
-49.0057
-43.2405
-33.653
-21.0216
-6.37268
9.17408
24.5561
38.8935
51.5761
62.3059
71.0931
78.2129
84.1335
89.4287
94.6882
100.438
107.08
114.855
123.829
133.905
144.852
156.337
167.972
179.355
190.098
199.858
208.344
215.328
220.638
224.153
225.793
225.508
223.275
219.092
212.976
204.968
195.136
183.577
170.428
155.87
140.129
123.483
106.259
88.823
71.5677
54.897
39.2012
24.8331
12.0841
1.16223
-7.82233
-14.8651
-20.0653
-23.615
-25.7799
-26.8739
-27.2307
-27.1746
-26.9952
-26.9257
-27.1308
-27.7005
-28.6536
-29.9469
-31.49
-33.1634
-34.8361
-36.3833
-37.6989
-38.7056
-39.3586
-39.6454
-39.582
-39.2053
-38.5648
-37.7143
-36.704
-35.5749
-34.3558
-33.0626
-31.6997
-30.2632
-28.7451
-27.1379
-25.4377
-23.6475
-21.7781
-19.8482
-17.8829
-15.9116
-13.9652
-12.0728
-10.2601
-8.54714
-6.94743
-5.46803
-4.11011
-2.86998
-1.74046
-0.712205
0.225175
1.08227
1.86936
2.59635
3.27287
3.90867
4.51414
5.10083
5.68181
6.27199
6.8881
7.54846
8.27247
9.0799
9.99003
11.021
12.1891
13.5092
14.9954
16.6627
18.5298
20.6216
22.9705
25.6172
28.6072
31.9859
35.7897
40.0352
44.7081
49.7524
55.0631
60.482
65.8001
70.7651
75.0953
78.4979
80.691
81.4282
80.5211
77.8607
73.4322
67.3236
59.7255
50.9224
41.2746
31.1936
21.1113
11.4475
2.57762
-5.19503
-11.6607
-16.7154
-20.3623
-22.7039
-23.9245
-24.2653
-23.9948
-23.3771
-22.6374
-21.9282
-21.2919
-20.6208
-19.6115
-17.7163
-14.0965
-7.59075
3.28303
20.2692
45.2362
79.9465
125.739
183.157
251.565
328.856
411.292
493.583
569.219
631.056
672.094
686.359
669.749
620.723
540.704
434.139
308.163
171.934
35.6795
-90.3819
-197.135
-277.519
-327.228
-345.072
-332.964
-295.562
-239.599
-173.027
-104.067
-40.296
12.128
49.0151
68.4201
70.6347
57.9185
34.0223
3.58199
-28.5356
-57.848
-80.7642
-94.9311
-99.3927
-94.5598
-82.0142
-64.1853
-43.9534
-24.234
-7.5986
4.02701
9.55447
8.80266
2.44749
-8.13081
-21.0747
-34.3155
-45.8431
-53.9442
-57.3843
-55.5145
-48.2986
-36.2622
-20.38
-1.91951
17.7346
37.252
55.5033
71.6664
85.2839
96.2697
104.87
111.589
117.088
122.081
127.234
133.075
139.945
147.961
157.023
166.843
176.995
186.975
196.27
204.42
211.059
215.954
219.011
220.268
219.87
218.032
214.993
210.974
206.143
200.585
194.299
187.198
179.134
169.932
159.424
147.49
134.094
119.301
103.295
86.3735
68.9319
51.4376
34.3951
18.3069
3.63397
-9.23985
-20.0369
-28.6044
-34.9223
-39.0994
-41.3579
-42.0094
-41.4244
-39.9986
-38.1196
-36.1367
-34.3373
-32.9314
-32.0445
-31.7195
-31.9266
-32.578
-33.5476
-34.6903
-35.8617
-36.9331
-37.8035
-38.4057
-38.708
-38.711
-38.4415
-37.9441
-37.2723
-36.4794
-35.6117
-34.703
-33.7717
-32.8197
-31.8342
-30.7899
-29.6534
-28.3876
-26.9564
-25.3297
-23.4875
-21.4237
-19.1488
-16.6911
-14.0968
-11.4282
-8.76035
-6.17653
-3.7619
-1.59699
0.249115
1.7249
2.80126
3.4745
3.76707
3.72595
3.41888
2.92872
2.34679
1.76572
1.2728
0.944646
0.843683
1.01693
1.49702
2.30514
3.45526
4.95879
6.8289
9.08366
11.7473
14.8492
18.4206
22.4885
27.0685
32.1564
37.7204
43.6952
49.9788
56.4331
62.8885
69.1515
75.0148
80.2684
84.7109
88.1589
90.4559
91.4771
91.1338
89.3748
86.1879
81.6004
75.6805
68.5393
60.3321
51.2591
41.5641
31.5289
21.4634
11.6914
2.5316
-5.72287
-12.8258
-18.5961
-22.9314
-25.8135
-27.3059
-27.5417
-26.703
-24.9917
-22.5925
-19.6283
-16.1076
-11.8661
-6.50534
0.663036
10.6544
24.8097
44.7336
72.1521
108.679
155.501
213.009
280.439
355.589
434.697
512.539
582.775
638.546
673.241
681.347
659.259
605.912
523.133
415.644
290.697
157.374
25.6464
-94.6868
-195.049
-268.98
-312.771
-325.76
-310.265
-271.181
-215.3
-150.449
-84.5678
-24.8388
23.035
55.3218
70.4849
69.1324
53.7211
28.0723
-3.22723
-35.455
-64.3362
-86.5143
-99.8616
-103.609
-98.2954
-85.5614
-67.8263
-47.9001
-28.5859
-12.3203
-0.895437
4.71197
4.39327
-1.15374
-10.5818
-22.1179
-33.8205
-43.8344
-50.6119
-53.0777
-50.7198
-43.6042
-32.3179
-17.8524
-1.44897
15.5732
31.9838
46.7827
59.301
69.2523
76.7326
82.1725
86.2512
89.7865
93.6154
98.4816
104.942
113.306
123.601
135.587
148.792
162.579
176.225
189.006
200.274
209.519
216.412
220.813
222.761
222.441
220.134
216.163
210.837
204.408
197.043
188.81
179.693
169.612
158.465
146.167
132.697
118.126
102.642
86.5482
70.2517
54.2307
38.9922
25.0236
12.7442
2.46449
-5.64389
-11.5618
-15.4201
-17.4816
-18.1095
-17.7276
-16.7761
-15.669
-14.758
-14.305
-14.4672
-15.2939
-16.7358
-18.6637
-20.893
-23.2133
-25.4157
-27.318
-28.7841
-29.7347
-30.1516
-30.0734
-29.5848
-28.8023
-27.8561
-26.873
-25.961
-25.1972
-24.6213
-24.2334
-23.9976
-23.8495
-23.7069
-23.482
-23.0932
-22.4759
-21.5905
-20.4264
-19.0025
-17.3643
-15.5771
-13.7179
-11.8659
-10.0928
-8.45567
-6.9909
-5.71179
-4.60907
-3.65415
-2.80488
-2.01263
-1.22993
-0.417492
0.450112
1.3811
2.36564
3.37773
4.3795
5.32738
6.17943
6.9029
7.48114
7.91911
8.24673
8.51963
8.81703
9.23692
9.88885
10.885
12.3306
14.3143
16.8997
20.1191
23.9699
28.413
33.3752
38.7533
44.4208
50.2358
56.0495
61.7146
67.0921
72.0551
76.4908
80.2973
83.3791
85.6402
86.9783
87.2825
86.4356
84.3233
80.8499
75.9575
69.6481
62.0019
53.1901
43.4774
33.213
22.8094
12.7112
3.35695
-4.86152
-11.636
-16.7714
-20.2028
-21.9983
-22.3467
-21.5324
-19.8986
-17.8051
-15.5828
-13.4881
-11.6589
-10.0705
-8.49072
-6.43204
-3.10667
2.60741
12.1708
27.3338
50.0109
82.0605
124.974
179.498
245.244
320.364
401.366
483.158
559.339
622.767
666.324
683.796
670.75
625.254
548.339
444.097
319.412
183.31
46.0407
-82.0181
-191.474
-274.913
-327.653
-348.156
-338.062
-301.864
-246.259
-179.287
-109.363
-44.3339
9.33686
47.1611
66.9408
68.7905
54.8878
29.0046
-4.1058
-39.3782
-72.0758
-98.3267
-115.501
-122.397
-119.237
-107.481
-89.5123
-68.2384
-46.6638
-27.4969
-12.8313
-3.93744
-1.17822
-4.04864
-11.3216
-21.2719
-31.9417
-41.4108
-48.0366
-50.6364
-48.5949
-41.8898
-31.0404
-16.9926
-0.960882
15.7503
31.9195
46.5568
59.0089
69.0136
76.6994
82.5353
87.2416
91.6734
96.6964
103.067
111.337
121.782
134.376
148.801
164.487
180.687
196.563
211.277
224.08
234.373
241.755
246.038
247.236
245.533
241.237
234.725
226.39
216.596
205.647
193.768
181.106
167.746
153.733
139.104
123.92
108.292
92.4009
76.4976
60.9
45.9691
32.0792
19.5803
8.76089
-0.184581
-7.17911
-12.2734
-15.6416
-17.5637
-18.3957
-18.5323
-18.3671
-18.2543
-18.4767
-19.2246
-20.5852
-22.5457
-25.0059
-27.801
-30.7285
-33.5774
-36.1548
-38.3085
-39.9421
-41.0211
-41.5725
-41.675
-41.4443
-41.0143
-40.5168
-40.0616
-39.7207
-39.5165
-39.4174
-39.3399
-39.158
-38.7193
-37.8649
-36.4523
-34.3765
-31.5885
-28.1075
-24.0249
-19.4996
-14.7449
-10.0083
-5.54641
-1.59863
1.63799
4.0288
5.51453
6.11571
5.92802
5.10958
3.86207
2.40804
0.967483
-0.263471
-1.12952
-1.52692
-1.40729
-0.774455
0.324527
1.8128
3.5993
5.59446
7.72398
9.93903
12.2221
14.5884
17.0823
19.7711
22.736
26.0609
29.822
34.0763
38.8523
44.1407
49.8885
55.9935
62.3024
68.6107
74.6671
80.1805
84.8327
88.2963
90.257
90.4405
88.6404
84.7458
78.7634
70.8305
61.2174
50.3156
38.613
26.657
15.0098
4.20051
-5.32071
-13.2206
-19.3088
-23.5476
-26.0461
-27.0379
-26.8464
-25.8419
-24.3954
-22.8351
-21.4082
-20.2502
-19.3609
-18.5839
-17.5855
-15.8311
-12.5595
-6.7626
2.81499
17.6367
39.2741
69.2301
108.684
158.178
217.284
284.326
356.211
428.455
495.429
550.846
588.426
602.679
589.685
547.738
477.774
383.475
271.028
148.564
25.3297
-89.2948
-186.803
-260.468
-306.033
-322.098
-310.165
-274.35
-220.805
-156.934
-90.5153
-28.8278
22.0987
58.0406
76.8851
78.6672
65.3555
40.4323
8.3374
-26.1483
-58.4992
-84.9515
-102.87
-110.94
-109.187
-98.8262
-81.9904
-61.3697
-39.8232
-20.0084
-4.07317
6.55867
11.2911
10.3474
4.66192
-4.30534
-14.7995
-25.015
-33.3209
-38.4417
-39.5755
-36.4412
-29.2568
-18.6573
-5.57055
8.93072
23.7785
38.042
51.0286
62.3431
71.9028
79.9098
86.7892
93.1042
99.4595
106.409
114.375
123.596
134.094
145.682
157.987
170.504
182.653
193.852
203.571
211.384
217.002
220.288
221.246
220.004
216.78
211.842
205.473
197.935
189.447
180.171
170.21
159.618
148.412
136.598
124.189
111.227
97.7993
84.0457
70.16
56.3831
42.9878
30.2598
18.4737
7.8706
-1.363
-9.11108
-15.3372
-20.086
-23.4773
-25.6928
-26.9582
-27.5214
-27.6311
-27.5158
-27.367
-27.3276
-27.4853
-27.8733
-28.4753
-29.2351
-30.0694
-30.8819
-31.5766
-32.0693
-32.297
-32.223
-31.8383
-31.16
-30.2259
-29.0884
-27.8058
-26.4351
-25.0257
-23.6143
-22.2227
-20.8584
-19.5162
-18.1827
-16.841
-15.4756
-14.0768
-12.6439
-11.186
-9.72196
-8.27791
-6.88365
-5.56846
-4.35698
-3.26579
-2.30129
-1.4593
-0.726218
-0.0816999
0.497757
1.03485
1.5478
2.04753
2.53613
3.00686
3.44556
3.83345
4.15066
4.38019
4.51145
4.5431
4.48466
4.35655
4.18877
4.01829
3.88568
3.83168
3.89442
4.10803
4.50314
5.10936
5.95921
7.09261
8.56041
10.4256
12.761
15.6426
19.1392
23.2983
28.1316
33.6008
39.6073
45.9868
52.5119
58.9008
64.8335
69.973
73.9893
76.5836
77.5109
76.5993
73.7632
69.0129
62.4562
54.2964
44.8219
34.3922
23.4174
12.3336
1.57599
-8.44903
-17.3899
-24.9713
-31.0093
-35.4176
-38.2062
-39.4707
-39.3751
-38.1302
-35.9682
-33.1166
-29.7706
-26.0636
-22.0318
-17.5726
-12.3938
-5.95975
2.55754
14.3021
30.7115
53.4242
84.0987
124.144
174.384
234.691
303.672
378.465
454.728
526.853
588.432
632.915
654.397
648.425
612.688
547.497
455.956
343.79
218.841
90.2841
-32.3304
-140.089
-225.652
-283.991
-312.853
-312.887
-287.433
-242.024
-183.651
-119.921
-58.1851
-4.77145
35.6192
60.2761
68.5837
61.8747
43.0704
16.1694
-14.3414
-44.0741
-69.2566
-87.1224
-96.1392
-96.0633
-87.8327
-73.325
-55.0252
-35.6524
-17.7939
-3.59278
5.48039
8.75032
6.35106
-0.860246
-11.4692
-23.7218
-35.7616
-45.8574
-52.5928
-55.0013
-52.634
-45.5612
-34.3127
-19.772
-3.04151
14.703
32.3493
48.9625
63.8651
76.6778
87.3205
95.9781
103.039
109.018
114.471
119.918
125.777
132.322
139.661
147.738
156.357
165.219
173.97
182.248
189.721
196.125
201.272
205.055
207.433
208.411
208.008
206.239
203.097
198.545
192.523
184.967
175.835
165.13
152.933
139.414
124.84
109.563
93.9993
78.5942
63.783
49.9522
37.4058
26.3431
16.8485
8.89599
2.36551
-2.93158
-7.2217
-10.7379
-13.6923
-16.2555
-18.5447
-20.6214
-22.4972
-24.1468
-25.5243
-26.5809
-27.28
-27.6099
-27.5896
-27.2693
-26.7263
-26.0557
-25.3589
-24.7315
-24.2527
-23.9766
-23.9282
-24.1026
-24.4685
-24.9748
-25.5585
-26.1537
-26.6991
-27.1427
-27.4456
-27.5809
-27.5315
-27.287
-26.839
-26.1789
-25.2964
-24.1799
-22.8202
-21.2137
-19.3673
-17.3027
-15.0585
-12.691
-10.2719
-7.88372
-5.61341
-3.54473
-1.75057
-0.286139
0.815949
1.54827
1.92853
1.99693
1.8115
1.4419
0.962568
0.445941
-0.0433867
-0.453112
-0.745786
-0.899381
-0.905861
-0.768005
-0.494796
-0.0958799
0.424309
1.07206
1.86879
2.85359
4.0834
5.6305
7.57734
10.0092
13.0051
16.6287
20.919
25.8832
31.4913
37.6738
44.3226
51.2948
58.4185
65.5008
72.3357
78.7126
84.4237
89.2696
93.0653
95.6441
96.8629
96.6074
94.7998
91.4071
86.4508
80.0158
72.2565
63.3993
53.738
43.6223
33.439
23.5867
14.4477
6.35767
-0.420615
-5.71844
-9.47299
-11.729
-12.6299
-12.3986
-11.3113
-9.66677
-7.75296
-5.81501
-4.02404
-2.44656
-1.01231
0.521731
2.61152
5.96684
11.5832
20.7487
35.0043
56.0368
85.4889
124.686
174.306
234.026
302.232
375.841
450.323
519.951
578.292
618.885
636.038
625.618
585.718
517.095
423.282
310.368
186.43
60.7171
-57.3352
-159.114
-237.738
-288.755
-310.536
-304.334
-274.004
-225.444
-165.83
-102.748
-43.3429
6.4226
42.3174
62.1438
65.7796
54.9748
32.949
3.85525
-27.813
-57.7949
-82.5471
-99.5923
-107.7
-106.897
-98.3192
-83.9474
-66.2596
-47.8626
-31.1438
-17.988
-9.58563
-6.35028
-7.94202
-13.3851
-21.2548
-29.9039
-37.6948
-43.2092
-45.4094
-43.7369
-38.1401
-29.0366
-17.2188
-3.72173
10.3284
23.8633
36.0023
46.1466
54.0324
59.7367
63.6423
66.3672
68.6718
71.3558
75.1567
80.664
88.2541
98.0535
109.932
123.522
138.264
153.465
168.368
182.225
194.355
204.197
211.342
215.548
216.736
214.975
210.455
203.457
194.316
183.399
171.075
157.702
143.618
129.132
114.527
100.063
85.9706
72.4629
59.7282
47.9315
37.2115
27.6775
19.4051
12.433
6.75937
2.34042
-0.91098
-3.12401
-4.46671
-5.14016
-5.36973
-5.39333
-5.44713
-5.74943
-6.48419
-7.78593
-9.72763
-12.3136
-15.4781
-19.0907
-22.9679
-26.8895
-30.619
-33.9256
-36.6048
-38.497
-39.5008
-39.5813
-38.7714
-37.1668
-34.9156
-32.2033
-29.2352
-26.2174
-23.3387
-20.7557
-18.5808
-16.8757
-15.65
-14.8653
-14.4432
-14.2775
-14.248
-14.235
-14.1329
-13.8607
-13.3697
-12.646
-11.7089
-10.606
-9.40374
-8.17763
-7.00086
-5.9347
-5.02085
-4.27722
-3.6972
-3.25254
-2.89915
-2.58474
-2.25712
-1.87198
-1.39883
-0.824634
-0.154487
0.590408
1.3771
2.16675
2.92114
3.60868
4.20936
4.71777
5.14422
5.51384
5.86404
6.24101
6.69571
7.28016
8.0445
9.03535
10.2956
11.8655
13.7844
16.0927
18.8327
22.0471
25.7755
30.0482
34.8772
40.2476
46.1083
52.3655
58.8801
65.4689
71.9105
77.9552
83.3381
87.7935
91.0698
92.9437
93.2335
91.8102
88.607
83.626
76.9431
68.7087
59.146
48.5435
37.2444
25.6297
14.0984
3.04364
-7.17115
-16.2352
-23.9093
-30.0378
-34.554
-37.4761
-38.8972
-38.9675
-37.873
-35.8101
-32.9566
-29.437
-25.2807
-20.3714
-14.388
-6.74365
3.46328
17.4674
36.796
63.1458
98.1612
143.117
198.534
263.791
336.809
413.89
489.799
558.108
611.806
644.112
649.377
623.937
566.795
479.988
368.584
240.283
104.665
-27.8256
-147.015
-244.112
-312.647
-349.125
-353.308
-328.11
-279.123
-213.863
-140.821
-68.4698
-4.33213
45.7724
78.2236
91.8003
87.5811
68.5832
39.205
4.55711
-30.2271
-60.6156
-83.1664
-95.8347
-98.0786
-90.7681
-75.9297
-56.3706
-35.2417
-15.5981
-0.0106502
9.726
12.7635
9.23537
0.167067
-12.7188
-27.2676
-41.19
-52.3518
-59.0206
-60.0447
-54.9473
-43.933
-27.8147
-7.87519
14.3121
37.0803
58.8586
78.3356
94.5775
107.096
115.86
121.257
124.011
125.071
125.483
126.262
128.276
132.154
138.232
146.525
156.746
168.353
180.623
192.74
203.886
213.329
220.494
225.006
226.708
225.655
222.075
216.317
208.792
199.906
190.006
179.34
168.034
156.094
143.427
129.871
115.247
99.4068
82.2811
63.9154
44.493
24.3381
3.90064
-16.2774
-35.6085
-53.5137
-69.4768
-83.0914
-94.0952
-102.386
-108.02
-111.192
-112.196
-111.39
-109.141
-105.794
-105.794
-105.794
-105.794
-105.794
-105.794
-105.794
-105.794
-105.794
-105.794
-105.794
-105.794
-105.794
-105.794
-105.794
-105.794
-105.794
-105.794
-105.794
-105.794
