-28.9948
-27.3216
-25.3576
-23.1239
-20.6578
-18.0111
-15.2456
-12.4288
-9.6286
-6.90858
-4.32392
-1.91875
0.275222
2.23869
3.96357
5.45092
6.70849
7.74815
8.5839
9.23034
9.702
10.0132
10.1786
10.213
10.1321
9.95195
9.68779
9.35341
8.95966
8.51369
8.0187
7.47461
6.87965
6.23263
5.53563
4.79642
4.03015
3.25973
2.51466
1.82832
1.23402
0.760395
0.427069
0.241244
0.196063
0.271083
0.434933
0.649739
0.876587
1.08104
1.23768
1.33294
1.3656
1.34511
1.28783
1.21234
1.1343
1.06225
0.994924
0.920814
0.820012
0.668182
0.441906
0.124462
-0.289072
-0.788372
-1.3468
-1.92301
-2.46502
-2.91613
-3.22185
-3.33658
-3.22931
-2.88733
-2.31795
-1.54798
-0.62134
0.404546
1.46336
2.48478
3.39928
4.1425
4.65882
4.90402
4.84704
4.47094
3.77338
2.76679
1.47851
-0.0491465
-1.75889
-3.57895
-5.42428
-7.19903
-8.80049
-10.1246
-11.0732
-11.5618
-11.5277
-10.9377
-9.79337
-8.13347
-6.03359
-3.60167
-0.970448
1.71265
4.29716
6.64139
8.62322
10.1489
11.1587
11.6297
11.5754
11.0419
10.1021
8.84897
7.3867
5.82273
4.25985
2.78945
1.48614
0.404107
-0.424652
-0.990351
-1.30368
-1.39263
-1.2983
-1.0699
-0.759741
-0.418281
-0.0899913
0.189871
0.397258
0.520043
0.557493
0.518674
0.420051
0.282623
0.128921
-0.0197666
-0.145696
-0.236273
-0.284875
-0.290873
-0.258961
-0.197942
-0.119196
-0.03507
0.0426135
0.103729
0.140616
0.148399
0.124898
0.0702228
-0.013817
-0.124385
-0.258271
-0.412522
-0.585072
-0.775446
-0.985581
-1.22075
-1.49047
-1.80927
-2.197
-2.67854
-3.2828
-4.04092
-4.98383
-6.13949
-7.53012
-9.1701
-11.0648
-13.2108
-15.5979
-18.2116
-21.037
-24.0619
-27.2781
-30.6812
-34.2672
-38.0269
-41.938
-45.9574
-50.014
-54.0046
-57.7932
-61.2156
-64.0881
-66.2214
-67.4353
-67.5765
-66.5334
-64.2501
-60.7341
-56.0605
-50.3689
-43.8556
-36.7603
-29.3498
-21.8983
-14.6684
-7.89292
-1.75939
3.60091
8.11907
11.789
14.6623
16.8391
18.454
19.661
20.6175
21.4691
22.3374
23.3113
24.4426
25.7453
27.1993
28.7568
30.3498
31.8983
33.3175
34.5239
35.4391
35.9924
36.1215
35.7719
34.8937
33.4359
31.3367
28.5096
24.8261
20.0973
14.057
6.35038
-3.4665
-15.9137
-31.558
-50.9665
-74.6457
-102.97
-136.109
-173.954
-216.069
-261.656
-309.556
-358.285
-406.098
-451.093
-491.33
-524.964
-550.383
-566.33
-571.996
-567.088
-551.844
-527.013
-493.79
-453.719
-408.569
-360.206
-310.467
-261.043
-213.394
-168.69
-127.777
-91.185
-59.1462
-31.6427
-8.46041
10.7525
26.4284
39.0304
49.0127
56.7918
62.7289
67.1222
70.207
72.1627
73.1224
73.1864
72.435
70.9416
68.7832
66.0495
62.8478
59.3051
55.567
51.7929
48.1484
44.7965
41.8872
39.5474
37.8717
36.9161
36.6933
37.1714
38.2741
39.8837
41.846
43.9767
46.0699
47.9096
49.2822
49.9918
49.8756
48.8192
46.7682
43.7368
39.8099
35.1379
29.926
24.4164
18.8669
13.5278
8.61917
4.31209
0.715262
-2.1311
-4.25397
-5.73913
-6.71731
-7.34682
-7.79536
-8.22312
-8.7694
-9.54392
-10.6232
-12.0516
-13.8463
-16.004
-18.5086
-21.3369
-24.4637
-27.863
-31.5078
-35.3679
-39.4067
-43.5787
-47.8278
-52.0872
-56.2812
-60.328
-64.143
-67.643
-70.7485
-73.3867
-75.4921
-77.0072
-77.8833
-78.0803
-77.5684
-76.3298
-74.3612
-71.6768
-68.31
-64.3157
-59.7694
-54.7659
-49.4157
-43.8402
-38.1665
-32.5218
-27.0281
-21.7982
-16.932
-12.5139
-8.61038
-5.26889
-2.51645
-0.359023
1.21863
2.25229
2.79669
2.92273
2.71364
2.26006
1.65451
0.985492
0.331979
-0.241387
-0.687739
-0.979832
-1.11007
-1.0888
-0.941024
-0.702048
-0.4125
-0.113299
0.158875
0.375181
0.51697
0.576775
0.557958
0.473237
0.342361
0.189298
0.0392557
-0.0841706
-0.161508
-0.179404
-0.13199
-0.0215261
0.141735
0.340475
0.551983
0.750474
0.90986
1.00677
1.0235
0.950651
0.789018
0.55057
0.258221
-0.0556637
-0.351975
-0.588557
-0.724499
-0.724543
-0.563025
-0.226833
0.28303
0.951532
1.7513
2.64571
3.5929
4.55013
5.47801
6.34384
7.12386
7.80408
8.37969
8.85333
9.23261
9.52722
9.74643
9.89697
9.98194
10.0006
9.94896
9.82137
9.61225
9.31823
8.93998
8.48365
7.96162
7.3924
6.79962
6.21018
5.65161
5.14883
4.72064
4.37642
4.11327
3.91436
3.74864
3.57218
3.33121
2.9665
2.41857
1.63304
0.565334
-0.816107
-2.52849
-4.57526
-6.94826
-9.63051
-12.5986
-15.8235
-19.2698
-22.8916
-26.6279
-30.3965
-34.0881
-37.5643
-40.6572
-43.1744
-44.9087
-45.6514
-45.209
-43.4208
-40.1763
-35.4304
-29.2141
-21.6395
-12.8985
-3.2545
6.97205
17.4242
27.7323
37.5403
46.5308
54.4479
61.1152
66.4468
70.4504
73.2229
74.9373
75.824
76.1467
76.1767
76.1679
76.3337
76.8309
77.7482
79.1041
80.8509
82.8852
85.0642
87.2243
89.1999
90.8412
92.0276
92.6759
92.7412
92.2118
91.0964
89.4063
87.1323
84.22
80.5448
75.8903
69.9336
62.2407
52.2759
39.4268
23.0464
2.51054
-22.7122
-52.9846
-88.4262
-128.849
-173.713
-222.109
-272.778
-324.157
-374.469
-421.828
-464.363
-500.342
-528.288
-547.071
-555.969
-554.708
-543.451
-522.773
-493.608
-457.168
-414.864
-368.214
-318.744
-267.908
-217.012
-167.155
-119.202
-73.7758
-31.2776
8.06606
44.1466
76.9107
106.305
132.24
154.577
173.146
187.787
198.406
205.035
207.892
207.413
204.256
199.27
193.436
187.774
183.242
180.632
180.479
182.995
188.04
195.133
203.491
212.112
219.87
225.63
228.358
227.218
221.653
211.433
196.668
177.794
155.529
130.806
104.685
78.2673
52.6071
28.6329
7.08711
-11.5137
-26.8948
-39.0169
-48.048
-54.3201
-58.2754
-60.4086
-61.2118
-61.128
-60.5159
-59.6309
-58.6204
-57.5334
-56.341
-54.9644
-53.3047
-51.2716
-48.8063
-45.8969
-42.5845
-38.9615
-35.1617
-31.346
-27.6855
-24.3446
-21.466
-19.1597
-17.4962
-16.5044
-16.173
-16.4558
-17.2789
-18.5491
-20.162
-22.0107
-23.9906
-26.0039
-27.9596
-29.7715
-31.3548
-32.6218
-33.4802
-33.8345
-33.5918
-32.6718
-31.0198
-28.62
-25.5077
-21.7755
-17.574
-13.104
-8.60176
-4.318
-0.49368
2.66438
5.00488
6.44748
6.99029
6.70841
5.74387
4.28837
2.56107
0.784398
-0.839252
-2.1471
-3.02982
-3.43829
-3.38301
-2.92674
-2.17183
-1.24416
-0.275824
0.611162
1.3183
1.77989
1.96744
1.88906
1.58451
1.11697
0.562714
0.000415579
-0.498699
-0.878641
-1.10365
-1.1601
-1.05544
-0.814662
-0.475147
-0.080563
0.325175
0.703245
1.02398
1.26933
1.43356
1.52238
1.55061
1.53888
1.50981
1.48407
1.47699
1.49596
1.53915
1.59567
1.64708
1.67033
1.64149
1.53976
1.35127
1.07187
0.708534
0.278958
-0.190422
-0.667823
-1.12026
-1.51777
-1.83694
-2.06332
-2.19227
-2.22844
-2.18386
-2.07538
-1.92173
-1.7409
-1.54809
-1.35447
-1.16692
-0.98849
-0.819394
-0.658254
-0.503211
-0.352647
-0.205371
-0.0602934
0.0842419
0.231143
0.384963
0.551728
0.738096
0.949924
1.19047
1.45863
1.74753
2.04395
2.3286
2.57743
2.76383
2.86133
2.84657
2.70211
2.41879
1.99728
1.44877
0.794775
0.0660005
-0.699553
-1.45907
-2.1678
-2.78205
-3.26197
-3.57382
-3.69135
-3.59614
-3.27675
-2.72679
-1.94204
-0.917234
0.357132
1.89722
3.727
5.87755
8.38451
11.2835
14.6041
18.3631
22.5578
27.1603
32.1142
37.3339
42.7072
48.1015
53.3728
58.3768
62.9805
67.0739
70.5792
73.4566
75.7071
77.3692
78.5131
79.2303
79.6215
79.7835
79.7977
79.7203
79.5769
79.3604
79.0331
78.5325
77.7794
76.6867
75.1694
73.1531
70.5805
67.4163
63.6483
59.2848
54.3489
48.868
42.86
36.3166
29.1849
21.3497
12.6191
2.71517
-8.72613
-22.144
-38.0293
-56.8873
-79.1889
-105.313
-135.485
-169.717
-207.762
-249.075
-292.807
-337.82
-382.728
-425.96
-465.848
-500.724
-529.023
-549.384
-560.745
-562.421
-554.158
-536.169
-509.131
-474.153
-432.71
-386.549
-337.573
-287.711
-238.794
-192.443
-149.978
-112.363
-80.1821
-53.6494
-32.6481
-16.7905
-5.49024
1.96063
6.31947
8.33035
8.67563
7.9433
6.61006
5.0381
3.48281
2.10782
1.00375
0.207636
-0.279489
-0.478339
-0.421029
-0.144466
0.313291
0.914732
1.62372
2.40623
3.23159
4.0741
4.915
5.74413
6.56084
7.3738
8.19953
9.05985
9.97865
10.9785
12.0776
13.2879
14.6143
16.0546
17.6013
19.2434
20.9683
22.7645
24.6218
26.5323
28.4897
30.4869
32.5143
34.5564
36.5889
38.5764
40.4708
42.2111
43.7253
44.9338
45.7548
46.111
45.9371
45.1864
43.8366
41.8931
39.3894
36.3847
32.9582
29.2027
25.2158
21.0921
16.9171
12.7622
8.68251
4.71714
0.890377
-2.78534
-6.30608
-9.67255
-12.886
-15.9438
-18.8349
-21.5357
-24.0066
-26.1909
-28.0157
-29.3955
-30.2392
-30.4596
-29.9839
-28.7649
-26.7909
-24.0927
-20.7469
-16.874
-12.6324
-8.20704
-3.79548
0.408108
4.22894
7.52554
10.2002
12.2047
13.5408
14.2554
14.4317
14.1767
13.6078
12.8396
11.9723
11.0838
10.2256
9.42292
8.67826
7.9781
7.30061
6.6234
5.93014
5.21524
4.48627
3.76432
3.08259
2.48337
2.01367
1.71934
1.63783
1.7898
2.1703
2.74094
3.42451
4.10408
4.62767
4.81939
4.49634
3.49002
1.66952
-1.03641
-4.62196
-8.99421
-13.9725
-19.298
-24.6529
-29.6872
-34.0494
-37.4193
-39.5375
-40.2282
-39.4146
-37.1235
-33.4794
-28.69
-23.0232
-16.7802
-10.2678
-3.77141
2.46572
8.25683
13.4778
18.0648
22.0056
25.325
28.0682
30.2849
32.0147
33.2787
34.0759
34.385
34.1716
33.3988
32.0392
30.0864
27.5649
24.5357
21.0976
17.3837
13.5533
9.7794
6.23503
3.07772
0.435805
-1.60289
-2.99823
-3.76019
-3.94611
-3.65342
-3.00858
-2.15373
-1.23271
-0.377928
0.300365
0.721469
0.83759
0.633183
0.120604
-0.66721
-1.68614
-2.89146
-4.24883
-5.745
-7.39796
-9.26642
-11.4584
-14.1392
-17.5366
-21.944
-27.7174
-35.2639
-45.0217
-57.4292
-72.8851
-91.7018
-114.057
-139.949
-169.16
-201.23
-235.454
-270.887
-306.37
-340.57
-372.034
-399.254
-420.747
-435.147
-441.303
-438.386
-425.979
-404.153
-373.51
-335.172
-290.737
-242.168
-191.653
-141.431
-93.6083
-49.9937
-11.9585
19.6511
44.5456
62.9642
75.5936
83.4451
87.7089
89.6037
90.2405
90.5159
91.0451
92.1397
93.8258
95.8983
97.9982
99.6995
100.595
100.369
98.8427
96.0041
91.9996
87.1107
81.7092
76.205
70.9902
66.3911
62.6302
59.805
57.8835
56.7161
56.0615
55.6218
55.0834
54.1555
52.6059
50.2856
47.1432
43.227
38.6743
33.6919
28.5293
23.4484
18.6945
14.4707
10.9194
8.11181
6.04748
4.6611
3.83683
3.42699
3.27254
3.22279
3.15179
2.96993
2.62958
2.12484
1.48597
0.769746
0.0474015
-0.608261
-1.13507
-1.49179
-1.66578
-1.67716
-1.57941
-1.45594
-1.41282
-1.56817
-2.03896
-2.92674
-4.30383
-6.20183
-8.60399
-11.4426
-14.6022
-17.9273
-21.2358
-24.3341
-27.0338
-29.1677
-30.6028
-31.2503
-31.0699
-30.0706
-28.3063
-25.8684
-22.8761
-19.4657
-15.7802
-11.9606
-8.13831
-4.43135
-0.94139
2.24647
5.06289
7.45273
9.37341
10.7935
11.692
12.0578
11.8902
11.1997
10.0087
8.35367
6.28603
3.87384
1.20243
-1.62611
-4.49529
-7.27908
-9.84969
-12.0881
-13.8967
-15.2123
-16.0184
-16.3526
-16.3087
-16.0315
-15.7026
-15.5201
-15.6719
-16.3091
-17.5207
-19.3154
-21.6137
-24.2508
-26.992
-29.5578
-31.6563
-33.0178
-33.4276
-32.7522
-30.9562
-28.1067
-24.3669
-19.9771
-15.2288
-10.4328
-5.8874
-1.84851
1.49338
4.02791
5.72989
6.65466
6.92526
6.71319
6.21589
5.63341
5.14719
4.90297
4.99937
5.48281
6.34859
7.54735
8.99569
10.5891
12.2154
13.7678
15.1548
16.3076
17.1838
17.7678
18.0679
18.1116
17.9392
17.5975
17.1333
16.5882
15.995
15.3753
14.7392
14.086
13.4067
12.6868
11.9103
11.0627
10.135
9.12582
8.04288
6.90366
5.73426
4.56738
3.43903
2.38483
1.43605
0.616283
-0.0609062
-0.592801
-0.986776
-1.25803
-1.42619
-1.51145
-1.53095
-1.49618
-1.41219
-1.27876
-1.09372
-0.857689
-0.579439
-0.280616
0.00143122
0.213792
0.291692
0.165752
-0.227942
-0.936322
-1.9782
-3.33552
-4.9487
-6.71752
-8.50784
-10.1641
-11.5259
-12.448
-12.8191
-12.5798
-11.7349
-10.3598
-8.59886
-6.65651
-4.78081
-3.24166
-2.30568
-2.21042
-3.14055
-5.20876
-8.4434
-12.784
-18.0854
-24.1296
-30.6444
-37.3258
-43.8627
-49.9597
-55.3576
-59.8483
-63.2831
-65.5757
-66.6989
-66.6769
-65.5752
-63.4884
-60.5293
-56.8188
-52.4787
-47.6266
-42.3744
-36.8273
-31.0855
-25.2453
-19.4004
-13.6423
-8.05849
-2.73017
2.27194
6.89233
11.0954
14.869
18.2257
21.2022
23.8544
26.2516
28.4674
30.5712
32.6193
34.6492
36.6757
38.6904
40.6648
42.5553
44.3086
45.8687
47.1807
48.1945
48.8643
49.147
48.9982
48.3649
47.179
45.3468
42.7401
39.1856
34.4565
28.266
20.2672
10.058
-2.80466
-18.7814
-38.3185
-61.8068
-89.5341
-121.634
-158.036
-198.42
-242.184
-288.431
-335.975
-383.381
-429.025
-471.179
-508.125
-538.261
-560.226
-572.994
-575.956
-568.958
-552.311
-526.753
-493.381
-453.563
-408.833
-360.788
-310.993
-260.905
-211.818
-164.829
-120.823
-80.4757
-44.266
-12.4923
14.7072
37.3359
55.5228
69.5074
79.6259
86.2958
89.9984
91.2574
90.6146
88.6031
85.72
82.4019
79.0049
75.7912
72.9254
70.4791
68.4436
66.7499
65.2916
63.9493
62.6126
61.1972
59.6555
57.98
56.1996
54.3703
52.562
50.8441
49.2718
47.8758
46.6559
45.5808
44.5914
43.6094
42.5477
41.3223
39.8628
38.1209
36.0754
33.7332
31.1272
28.3107
25.3504
22.3194
19.2897
16.328
13.4916
10.8278
8.37329
6.15631
4.19743
2.51113
1.10639
-0.013402
-0.851134
-1.41698
-1.72939
-1.81562
-1.71174
-1.46207
-1.11842
-0.739432
-0.390431
-0.143607
-0.0782087
-0.279889
-0.838351
-1.84259
-3.37356
-5.49464
-8.24111
-11.6102
-15.5533
-19.9731
-24.7243
-29.6221
-34.4543
-38.9981
-43.039
-46.3891
-48.904
-50.4946
-51.1337
-50.8561
-49.7532
-47.9613
-45.6467
-42.9884
-40.1606
-37.3178
-34.5831
-32.0421
-29.7422
-27.6974
-25.8969
-24.3166
-22.9313
-21.7245
-20.6953
-19.8596
-19.2467
-18.8906
-18.8181
-19.0359
-19.5202
-20.2093
-21.003
-21.7691
-22.3551
-22.6059
-22.3828
-21.5833
-20.1558
-18.1103
-15.5205
-12.5184
-9.28142
-6.01431
-2.92677
-0.211303
1.97714
3.53666
4.42739
4.67303
4.35496
3.59993
2.56322
1.40935
0.293245
-0.656265
-1.34835
-1.73651
-1.81898
-1.63346
-1.2476
-0.746605
-0.219989
0.250797
0.602293
0.795507
0.818415
0.684611
0.428697
0.0994
-0.248407
-0.561577
-0.795408
-0.918415
-0.914705
-0.78384
-0.538433
-0.19998
0.206337
0.657045
1.13517
1.6337
2.15726
2.72172
3.35184
4.07723
4.92728
5.9257
7.08566
8.40615
9.87032
11.446
13.0885
14.7455
16.363
17.8918
19.2938
20.5461
21.6437
22.5986
23.4366
24.1909
24.8938
25.5681
26.2184
26.824
27.3354
27.6739
27.7352
27.3963
26.5263
24.9984
22.7037
19.5645
15.5463
10.6669
5.00282
-1.30905
-8.07403
-15.0467
-21.9422
-28.4517
-34.2602
-39.0673
-42.608
-44.6736
-45.1293
-43.9291
-41.1231
-36.8584
-31.3714
-24.9724
-18.0226
-10.9064
-4.00118
2.3521
7.87433
12.3672
15.7239
17.93
19.0566
19.2447
18.6854
17.597
16.2018
14.7063
13.285
12.0701
11.1467
10.554
10.2912
10.3267
10.6107
11.0874
11.7074
12.4359
13.2577
14.1758
15.2045
16.3565
17.6279
18.9821
20.3363
21.5548
22.4481
22.7823
22.2932
20.7063
17.7567
13.2048
6.84564
-1.49143
-11.9524
-24.675
-39.8076
-57.5257
-78.0391
-101.586
-128.41
-158.722
-192.647
-230.163
-271.041
-314.794
-360.644
-407.511
-454.037
-498.628
-539.533
-574.945
-603.111
-622.459
-631.727
-630.063
-617.124
-593.123
-558.84
-515.586
-465.121
-409.531
-351.076
-292.03
-234.523
-180.401
-131.124
-87.7035
-50.6827
-20.1624
4.14027
22.8075
36.6225
46.4696
53.2429
57.7699
60.7576
62.7608
64.1717
65.2298
66.0448
66.6294
66.9349
66.8865
66.413
65.4694
64.0499
62.1929
59.9769
57.5106
54.9186
52.3258
49.8415
47.5476
45.4903
43.6769
42.0788
40.6392
39.2837
37.9334
36.5184
34.988
33.319
31.5181
29.6204
27.6829
25.7747
23.9651
22.3119
20.851
19.5896
18.504
17.5416
16.6288
15.6815
14.6177
13.3713
11.9024
10.2058
8.31285
6.28991
4.23068
2.24525
0.446683
-1.06276
-2.20397
-2.93034
-3.23285
-3.14049
-2.71612
-2.04838
-1.2411
-0.401463
0.371272
0.995065
1.4113
1.58726
1.51486
1.20633
0.687803
-0.00771124
-0.846681
-1.79961
-2.84313
-3.95947
-5.1337
-6.34965
-7.58543
-8.80983
-9.98051
-11.0446
-11.9417
-12.6098
-12.9919
-13.0438
-12.7409
-12.0833
-11.0977
-9.83679
-8.37479
-6.80055
-5.20864
-3.68979
-2.32191
-1.1628
-0.245543
0.42288
0.859721
1.10166
1.1979
1.20213
1.16459
1.12523
1.10882
1.12269
1.15713
1.18825
1.18294
1.10483
0.920658
0.605841
0.148657
-0.447603
-1.16476
-1.97208
-2.83042
-3.69747
-4.53307
-5.30355
-5.98414
-6.55891
-7.01817
-7.35391
-7.55438
-7.5992
-7.45647
-7.08301
-6.42848
-5.44318
-4.0888
-2.35044
-0.247914
2.15594
4.75182
7.3869
9.87449
12.0101
13.592
14.4451
14.4433
13.5296
11.7294
9.15591
6.00575
2.54513
-0.912362
-4.03419
-6.50052
-8.03545
-8.43453
-7.5852
-5.47785
-2.20622
2.04292
7.00937
12.3858
17.8472
23.0798
27.8052
31.7982
34.8959
36.9977
38.059
38.0795
37.0893
35.136
32.2739
28.5583
24.0439
18.7864
12.8485
6.30457
-0.753213
-8.21164
-15.9347
-23.7639
-31.5197
-39.0036
-46.0019
-52.2897
-57.6379
-61.8223
-64.6368
-65.9102
-65.5233
-63.4272
-59.6576
-54.3427
-47.7035
-40.0431
-31.7276
-23.1574
-14.7346
-6.82907
0.252827
6.29137
11.167
14.8621
17.4513
19.0831
19.9545
20.2848
20.2898
20.163
20.0629
20.1091
20.3856
20.9482
21.8352
23.0752
24.6917
26.703
29.1156
31.9148
35.0537
38.4444
41.9527
45.4
48.5725
51.2372
53.1616
54.1368
53.9966
52.6319
49.9946
46.0909
40.9635
34.6637
27.2173
18.589
8.65044
-2.84268
-16.2596
-32.0856
-50.8921
-73.2879
-99.8511
-131.048
-167.148
-208.136
-253.648
-302.92
-354.78
-407.669
-459.708
-508.798
-552.749
-589.43
-616.917
-633.644
-638.52
-631.025
-611.252
-579.912
-538.288
-488.149
-431.63
-371.089
-308.956
-247.584
-189.108
-135.333
-87.64
-46.9405
-13.6531
12.2752
31.3177
44.2892
52.2473
56.3832
57.9121
57.9722
57.5414
57.3767
57.9811
59.5983
62.2323
65.6889
69.6311
73.6429
77.2924
80.1884
82.0249
82.6101
81.8785
79.8867
76.796
72.8446
68.3152
63.5019
58.6805
54.086
49.8989
46.2406
43.1771
40.7284
38.8813
37.6025
36.8483
36.5709
36.7187
37.2335
38.0431
39.0549
40.1506
41.1847
41.989
42.3825
42.1876
41.2483
39.4511
36.7429
33.1442
28.7548
23.7511
18.3737
12.9066
7.6512
2.89679
-1.10786
-4.1789
-6.21456
-7.20314
-7.22112
-6.42203
-5.01759
-3.25415
-1.3873
0.341893
1.72659
2.60769
2.88056
2.49515
1.45075
-0.212859
-2.42573
-5.09785
-8.12753
-11.4073
-14.827
-18.2753
-21.6391
-24.8036
-27.6528
-30.0717
-31.9513
-33.1944
-33.7237
-33.4898
-32.4776
-30.7116
-28.2567
-25.2161
-21.7248
-17.9391
-14.0249
-10.1429
-6.43576
-3.01711
0.0360936
2.6857
4.9294
6.79269
8.31721
9.54745
10.5181
11.2443
11.7167
11.902
11.7489
11.1989
10.1994
8.71725
6.75044
4.33608
1.55274
-1.48308
-4.62605
-7.71574
-10.5931
-13.1172
-15.181
-16.7224
-17.7306
-18.2465
-18.3562
-18.1797
-17.8555
-17.5226
-17.303
-17.2862
-17.5182
-17.9952
-18.664
-19.427
-20.1529
-20.6898
-20.8804
-20.5767
-19.6544
-18.0247
-15.6432
-12.5156
-8.69983
-4.30433
0.517421
5.57558
10.6557
15.5326
19.9857
23.8145
26.8532
28.9827
30.1396
30.3212
29.5852
28.0442
25.857
23.2143
20.3229
17.3891
14.6011
12.1156
10.0461
8.45656
7.36018
6.72278
6.47086
6.50308
6.70356
6.95561
7.15414
7.21546
7.08355
6.73237
6.16456
5.40724
4.5062
3.51953
2.51188
1.5497
0.697487
0.0145425
-0.44883
-0.656423
-0.593295
-0.275122
0.240819
0.84422
1.36152
1.54865
1.08837
-0.406553
-3.38354
-8.33349
-15.7673
-26.1867
-40.0493
-57.7318
-79.4898
-105.42
-135.424
-169.179
-206.121
-245.434
-286.065
-326.755
-366.084
-402.541
-434.61
-460.851
-480.003
-491.061
-493.348
-486.568
-470.833
-446.661
-414.951
-376.931
-334.087
-288.069
-240.591
-193.323
-147.793
-105.296
-66.8274
-33.0431
-4.2524
19.5616
38.6941
53.6505
65.0674
73.6317
80.0076
84.7773
88.4022
91.2057
93.3773
94.9942
96.0558
96.5236
96.3605
95.5626
94.1791
92.3183
90.1381
87.8256
85.5685
83.5243
81.7941
80.4041
79.3002
78.3552
77.3881
76.1923
74.5683
72.355
69.4558
65.8553
61.6236
56.9095
51.9224
46.9061
42.1091
37.754
34.0116
30.9817
28.6829
27.0535
25.9612
25.2215
24.6216
23.9472
23.0082
21.6613
19.8256
17.4915
14.7193
11.6311
8.39446
5.20208
2.24864
-0.291297
-2.28238
-3.64226
-4.34882
-4.44082
-4.01241
-3.20311
-2.18495
-1.14851
-0.289089
0.206102
0.169469
-0.536776
-2.01172
-4.30821
-7.42698
-11.3127
-15.8529
-20.8797
-26.1755
-31.4831
-36.5194
-40.9935
-44.6267
-47.1752
-48.4508
-48.3394
-46.8145
-43.9436
-39.886
-34.883
-29.2388
-23.2957
-17.4055
-11.8995
-7.06026
-3.09977
-0.143739
1.77439
2.71028
2.79694
2.22601
1.22456
0.0302038
-1.13277
-2.0736
-2.64986
-2.77566
-2.423
-1.61682
-0.425093
1.05446
2.70892
4.4242
6.09679
7.64209
8.99882
10.1292
11.0157
11.655
12.0509
12.2066
12.1194
11.7781
11.1639
10.2556
9.03902
7.51698
5.71956
3.71103
1.59129
-0.509585
-2.44383
-4.06434
-5.24608
-5.90713
-6.02544
-5.64799
-4.88982
-3.92224
-2.95124
-2.18881
-1.82121
-1.97917
-2.71462
-3.98792
-5.668
-7.54583
-9.36003
-10.8311
-11.6997
-11.7644
-10.9123
-9.13978
-6.55884
-3.38938
0.0629285
3.43972
6.37001
8.51234
9.59362
9.4403
7.99795
5.33753
1.64755
-2.78631
-7.61163
-12.4458
-16.9143
-20.6869
-23.5069
-25.2114
-25.7408
-25.1375
-23.533
-21.1286
-18.1697
-14.9179
-11.6248
-8.50897
-5.73893
-3.4238
-1.61085
-0.290154
0.595312
1.13585
1.4396
1.61733
1.76902
1.97336
2.28101
2.71189
3.25673
3.88258
4.54161
5.18198
5.7593
6.24676
6.64238
6.97184
7.2865
7.65662
8.16073
8.87288
9.84954
11.1181
12.6686
14.4494
16.3677
18.2937
20.0684
21.5137
22.4442
22.6795
22.0575
20.447
17.76
13.9628
9.08582
3.22895
-3.43555
-10.6661
-18.1604
-25.5696
-32.5188
-38.6313
-43.5561
-46.9955
-48.7304
-48.6399
-46.7133
-43.0528
-37.8663
-31.4498
-24.1634
-16.4006
-8.55645
-0.996683
5.96909
12.1068
17.269
21.3969
24.5131
26.7082
28.1208
28.9165
29.2659
29.3255
29.2236
29.0506
28.8565
28.6535
28.4232
28.1292
27.7305
27.197
26.5238
25.7422
24.9255
24.1874
23.6728
23.5409
23.9423
24.9931
26.7483
29.1798
32.1601
35.4566
38.7358
41.5786
43.5052
44.0073
42.5833
38.7734
32.1902
22.5423
9.64805
-6.56091
-26.0451
-48.6696
-74.22
-102.418
-132.931
-165.378
-199.324
-234.272
-269.641
-304.76
-338.851
-371.031
-400.331
-425.726
-446.192
-460.767
-468.631
-469.181
-462.097
-447.391
-425.429
-396.924
-362.895
-324.605
-283.468
-240.958
-198.508
-157.418
-118.786
-83.4593
-52.0102
-24.7402
-1.70445
17.2469
32.4175
44.2114
53.0816
59.4877
63.8632
66.5954
68.0153
68.3977
67.9675
66.9093
65.3787
63.5121
61.4338
59.2595
57.0972
55.0441
53.1831
51.5777
50.2681
49.2689
48.5685
48.1316
47.9033
47.8151
47.7925
47.7615
47.6552
47.4186
47.0114
46.4083
45.598
44.5794
43.358
41.9413
40.3348
38.5401
36.5543
34.3712
31.9849
29.3943
26.6077
23.6468
20.5502
17.3735
14.1882
11.0776
8.13138
5.43773
3.07612
1.10977
-0.420456
-1.49995
-2.14187
-2.38583
-2.29403
-1.94518
-1.4271
-0.828721
-0.232556
0.291497
0.690247
0.928831
0.98987
0.870599
0.578738
0.128019
-0.465737
-1.18734
-2.0234
-2.96201
-3.99117
-5.09668
-6.26
-7.4567
-8.65598
-9.82135
-10.9124
-11.8876
-12.7072
-13.3361
-13.747
-13.9218
-13.8528
-13.5432
-13.0061
-12.2638
-11.3466
-10.2905
-9.13629
-7.9278
-6.71015
-5.52835
-4.42558
-3.44148
-2.61036
-1.95928
-1.50631
-1.2588
-1.21226
-1.34972
-1.64206
-2.04934
-2.52318
-3.01022
-3.45627
-3.81094
-4.03214
-4.08989
-3.96894
-3.66972
-3.2076
-2.61047
-1.91533
-1.16451
-0.402477
0.326201
0.977325
1.50639
1.86757
2.01369
1.89833
1.48094
0.734619
-0.344384
-1.72754
-3.34746
-5.0961
-6.82907
-8.37642
-9.55907
-10.2088
-10.1891
-9.41358
-7.8598
-5.57532
-2.67592
0.664407
4.23045
7.78735
11.1043
13.9769
16.2464
17.8127
18.6401
18.7563
18.2446
17.2301
15.8632
14.3016
12.6935
11.1629
9.79993
8.65554
7.74166
7.03576
6.48927
6.03814
5.61435
5.15669
4.61966
3.97953
3.2369
2.41593
1.56037
0.727241
-0.0209527
-0.624351
-1.03326
-1.21414
-1.15349
-0.859258
-0.359692
0.299924
1.06225
1.86372
2.6404
3.33296
3.88994
4.2687
4.43345
4.34999
3.97701
3.25399
2.08635
0.329245
-2.22795
-5.87376
-10.9804
-18.0005
-27.4525
-39.8936
-55.8801
-75.916
-100.393
-129.528
-163.294
-201.373
-243.109
-287.492
-333.172
-378.497
-421.594
-460.472
-493.152
-517.815
-532.942
-537.445
-530.768
-512.953
-484.647
-447.074
-401.942
-351.33
-297.536
-242.916
-189.725
-139.978
-95.3243
-56.9695
-25.6243
-1.49915
15.6644
26.529
32.0701
33.4666
31.9852
28.868
25.2324
21.9942
19.8154
19.083
19.9161
22.1973
25.6254
29.7783
34.1814
38.3715
41.952
44.6325
46.2512
46.7807
46.3165
45.0527
43.2494
41.1953
39.1711
37.4172
36.1095
35.3449
35.1366
35.4205
36.0688
36.9107
37.7558
38.4179
38.7373
38.5974
37.9354
36.7467
35.0807
33.0317
30.7238
28.2935
25.8718
23.5677
21.4559
19.5704
17.9036
16.4119
15.027
13.6692
12.2635
10.7526
9.10816
7.33618
5.47747
3.60244
1.80147
0.172426
-1.19284
-2.22106
-2.86746
-3.12197
-3.01119
-2.59645
-1.9688
-1.24197
-0.544293
-0.0102184
0.228362
0.0509966
-0.642077
-1.92035
-3.81353
-6.30292
-9.31506
-12.7191
-16.3294
-19.9149
-23.2148
-25.9602
-27.9006
-28.8301
-28.6126
-27.2006
-24.6455
-21.097
-16.7917
-12.032
-7.15624
-2.50624
1.60663
4.9308
7.29687
8.63037
8.95368
8.37752
7.08342
5.29974
3.27441
1.24776
-0.571505
-2.02459
-3.01358
-3.50437
-3.52212
-3.14024
-2.46496
-1.61775
-0.717864
0.13266
0.859926
1.42375
1.81753
2.06259
2.19823
2.26892
2.3109
2.34032
2.34509
2.28207
2.08056
1.65193
0.90442
-0.239062
-1.82294
-3.84387
-6.24139
-8.89646
-11.6388
-14.2623
-16.5474
-18.2859
-19.3071
-19.4992
-18.8241
-17.3243
-15.1188
-12.3903
-9.36522
-6.28813
-3.3953
-0.889845
1.07827
2.4251
3.13739
3.2689
2.92937
2.26797
1.45361
0.654657
0.0205478
-0.332661
-0.331455
0.0518767
0.801675
1.86612
3.16774
4.61547
6.11647
7.58601
8.95452
10.1709
11.2027
12.0327
12.6546
13.067
13.2681
13.2521
13.0072
12.5156
11.7562
10.7094
9.36237
7.71588
5.79056
3.63168
1.3119
-1.06913
-3.38864
-5.50813
-7.28413
-8.58108
-9.28541
-9.31888
-8.64956
-7.29896
-5.34385
-2.91239
-0.17469
2.67134
5.41723
7.86241
9.8318
11.1906
11.855
11.7969
11.0445
9.67579
7.80968
5.59274
3.18532
0.747546
-1.5731
-3.65166
-5.39231
-6.73154
-7.63815
-8.11049
-8.17193
-7.86546
-7.24815
-6.38622
-5.35115
-4.21663
-3.05645
-1.9428
-0.944563
-0.12523
0.459767
0.766387
0.765658
0.447256
-0.177695
-1.07522
-2.18904
-3.44335
-4.74792
-6.00498
-7.11756
-7.99812
-8.57675
-8.80778
-8.6741
-8.18853
-7.39223
-6.3501
-5.14387
-3.86354
-2.59818
-1.4271
-0.412454
0.40586
1.01236
1.41493
1.64076
1.72991
1.72764
1.67701
1.61311
1.56017
1.53214
1.53646
1.58007
1.67608
1.84937
2.13939
2.59913
3.28959
4.27018
5.58635
7.25615
9.25832
11.5242
13.9352
16.3279
18.5055
20.2555
21.3719
21.6779
21.0473
19.4204
16.8143
13.3231
9.1108
4.39629
-0.567273
-5.51521
-10.1935
-14.3774
-17.8841
-20.5791
-22.3761
-23.2315
-23.1365
-22.1081
-20.1819
-17.4072
-13.8458
-9.57346
-4.68275
0.713784
6.48232
12.4694
18.5074
24.4234
30.0506
35.2406
39.8743
43.8695
47.1848
49.8177
51.7987
53.1823
54.0361
54.4307
54.4312
54.0925
53.4587
52.5652
51.4439
50.129
48.6622
47.0947
45.4864
43.9
42.3928
41.0041
39.7421
38.571
37.3987
36.068
34.3509
31.9483
28.4947
23.5691
16.7129
7.4515
-4.67892
-20.1028
-39.1766
-62.1613
-89.198
-120.287
-155.267
-193.807
-235.389
-279.306
-324.661
-370.375
-415.21
-457.797
-496.692
-530.432
-557.618
-576.995
-587.544
-588.561
-579.729
-561.163
-533.426
-497.505
-454.759
-406.828
-355.524
-302.704
-250.154
-199.475
-152.009
-108.775
-70.4532
-37.3892
-9.62422
13.056
31.0629
44.9431
55.3171
62.825
68.0798
71.6306
73.9378
75.3577
76.139
76.429
76.2879
75.7106
74.6525
73.0561
70.8769
68.1038
64.7729
60.9731
56.8429
52.5594
48.3215
44.3298
40.7657
37.7728
35.4439
33.8127
32.8536
32.4875
32.5929
33.0211
33.6127
34.213
34.6862
34.9244
34.853
34.4311
33.6485
32.5188
31.0722
29.3473
27.3847
25.2228
22.8959
20.4351
17.8714
15.2389
12.5791
9.94273
7.38997
4.9886
2.80935
0.91966
-0.623326
-1.77959
-2.5317
-2.888
-2.88301
-2.57484
-2.03994
-1.36574
-0.642273
0.0462019
0.628243
1.04997
1.2767
1.29115
1.08882
0.671402
0.039739
-0.811924
-1.89913
-3.24684
-4.88533
-6.84299
-9.13715
-11.7647
-14.6943
-17.8616
-21.1685
-24.4876
-27.6701
-30.5578
-32.9965
-34.8508
-36.0163
-36.4301
-36.0768
-34.9909
-33.2537
-30.9869
-28.342
-25.4881
-22.598
-19.8344
-17.3377
-15.216
-13.5387
-12.3331
-11.5859
-11.2479
-11.2416
-11.4714
-11.8349
-12.2333
-12.5813
-12.8142
-12.8923
-12.802
-12.5529
-12.1735
-11.704
-11.1881
-10.6656
-10.1658
-9.70306
-9.27466
-8.86172
-8.43205
-7.94472
-7.35544
-6.62168
-5.70663
-4.58167
-3.22679
-1.62931
0.218682
2.32348
4.69244
7.33545
10.2643
13.4897
17.0154
20.8312
24.9039
29.1698
33.5284
37.8404
41.9306
45.5972
48.6258
50.809
51.9683
51.9751
50.7695
48.3722
44.8884
40.502
35.4623
30.0614
24.6095
19.4074
14.7226
10.7693
7.69563
5.57805
4.42204
4.16843
4.70334
5.86978
7.47982
9.32635
11.1944
12.8728
14.1659
14.9074
14.974
14.2985
12.8808
10.7933
8.1789
5.2401
2.21925
-0.629674
-3.07436
-4.93903
-6.13628
-6.69142
-6.75562
-6.60591
-6.63186
-7.31124
-9.17849
-12.7909
-18.6973
-27.4132
-39.4039
-55.0746
-74.7652
-98.7438
-127.194
-160.194
-197.68
-239.403
-284.884
-333.371
-383.811
-434.852
-484.867
-532.013
-574.323
-609.821
-636.653
-653.226
-658.342
-651.316
-632.058
-601.111
-559.637
-509.355
-452.418
-391.27
-328.465
-266.495
-207.625
-153.758
-106.338
-66.2936
-34.0293
-9.45271
7.96013
19.0756
24.9974
26.9553
26.1973
23.8942
21.0613
18.5035
16.7846
16.2212
16.8984
18.7043
21.3771
24.5593
27.8541
30.8769
33.2989
34.8789
35.4824
35.0863
33.7716
31.7052
29.1154
26.262
23.4067
20.7867
18.592
16.9516
15.926
15.5088
15.6338
16.1886
17.0307
18.0057
18.9638
19.775
20.3398
20.5958
20.5196
20.1242
19.4526
18.5685
17.5458
16.4575
15.366
14.3157
13.3285
12.4037
11.5204
10.6442
9.73493
8.75587
7.6816
6.50444
5.23764
3.91537
2.58934
1.32261
0.181595
-0.772613
-1.49266
-1.95205
-2.15058
-2.11761
-1.91313
-1.62616
-1.37034
-1.2764
-1.48162
-2.11672
-3.2913
-5.07937
-7.50686
-10.5429
-14.0969
-18.0212
-22.1213
-26.1711
-29.9322
-33.176
-35.704
-37.3664
-38.0745
-37.8075
-36.612
-34.5946
-31.9099
-28.7445
-25.2991
-21.7716
-18.3425
-15.1629
-12.3476
-9.97125
-8.06908
-6.6397
-5.65046
-5.04381
-4.74421
-4.66521
-4.71651
-4.81076
-4.87009
-4.83231
-4.65625
-4.32592
-3.85283
-3.27575
-2.65735
-2.07765
-1.62445
-1.38165
-1.41698
-1.77086
-2.44799
-3.41339
-4.59348
-5.88245
-7.1532
-8.27144
-9.11124
-9.56982
-9.57972
-9.11674
-8.20273
-6.90288
-5.31806
-3.57332
-1.80404
-0.141641
1.2997
2.43361
3.20854
3.61064
3.66251
3.41832
2.95608
2.36806
1.7506
1.19425
0.77537
0.549752
0.54886
0.778804
1.22192
1.84062
2.5829
3.38884
4.1974
4.95274
5.60947
6.13642
6.51856
6.75714
6.86794
6.87817
6.82223
6.73696
6.65683
6.60967
6.61331
6.67353
6.78344
6.92447
7.06861
7.18176
7.22783
7.17295
6.98947
6.6593
6.17615
5.54651
4.78925
3.93392
3.01791
2.08289
1.17075
0.319689
-0.439285
-1.08505
-1.60801
-2.01047
-2.30589
-2.51689
-2.67248
-2.80446
-2.94374
-3.11669
-3.34214
-3.62945
-3.97779
-4.37698
-4.80953
-5.25387
-5.68796
-6.09298
-6.45629
-6.77335
-7.04816
-7.29219
-7.52205
-7.7561
-8.01074
-8.29692
-8.61733
-8.96485
-9.32248
-9.66475
-9.96038
-10.1759
-10.2795
-10.2446
-10.0523
-9.69321
-9.16682
-8.48047
-7.64673
-6.68051
-5.59605
-4.40464
-3.11318
-1.72408
-0.236366
1.35219
3.04233
4.83058
6.70707
8.65435
10.6477
12.6566
14.6471
16.5844
18.4343
20.1638
21.7394
23.1249
24.278
25.1481
25.6771
25.8018
25.461
24.6053
23.2077
21.2751
18.8568
16.0492
12.9943
9.87222
6.88779
4.25151
2.158
0.763505
0.165711
0.388113
1.37136
2.97284
4.97502
7.10205
9.04301
10.4798
11.1167
10.7086
9.08518
6.16855
1.9826
-3.34687
-9.60084
-16.4838
-23.6464
-30.7123
-37.3054
-43.077
-47.7287
-51.0303
-52.8329
-53.0741
-51.7787
-49.0526
-45.0724
-40.0709
-34.3198
-28.1105
-21.7345
-15.4655
-9.54209
-4.15534
0.560554
4.53233
7.74695
10.2462
12.1174
13.4809
14.4763
15.2487
15.9351
16.6534
17.4941
18.5145
19.7365
21.1471
22.7016
24.3295
25.9416
27.4386
28.7207
29.6957
30.2871
30.4399
30.1236
29.3326
28.0837
26.4094
24.3491
21.9355
19.1797
16.0533
12.4719
8.27982
3.24145
-2.96017
-10.7147
-20.4651
-32.6781
-47.8056
-66.2394
-88.2623
-114
-143.378
-176.088
-211.569
-249.006
-287.346
-325.343
-361.609
-394.698
-423.185
-445.763
-461.332
-469.083
-468.562
-459.709
-442.873
-418.786
-388.507
-353.332
-314.695
-274.054
-232.785
-192.103
-153.002
-116.235
-82.3189
-51.568
-24.1385
-0.0799676
20.6199
38.0028
52.1229
63.0476
70.8697
75.7284
77.8304
77.4653
75.0111
70.9257
65.7256
59.9526
54.1345
48.7435
44.1592
40.641
38.3125
37.1617
37.0543
37.7598
38.9857
40.4159
41.7478
42.7243
43.1578
42.9426
42.0574
40.5567
38.5546
36.2039
33.6724
31.1211
28.6865
26.4672
24.5189
22.8534
21.445
20.2388
19.1627
18.1384
17.0926
15.9648
14.7139
13.3208
11.7892
10.1438
8.4265
6.69184
5.001
3.41599
1.99396
0.782152
-0.186092
-0.894048
-1.34296
-1.55206
-1.55749
-1.41035
-1.17435
-0.923405
-0.739411
-0.710328
-0.92834
-1.48759
-2.48088
-3.99483
-6.10312
-8.85828
-12.2826
-16.36
-21.0292
-26.1816
-31.6628
-37.2797
-42.8117
-48.0257
-52.6916
-56.5983
-59.5664
-61.4577
-62.1809
-61.6933
-60.0002
-57.1528
-53.2451
-48.4102
-42.8169
-36.6647
-30.1768
-23.5921
-17.1531
-11.0932
-5.62225
-0.91228
2.9141
5.79224
7.71889
8.7501
8.99356
8.59627
7.72869
6.56753
5.27887
4.00361
2.84685
1.87183
1.09893
0.509262
0.0519278
-0.346013
-0.767985
-1.29572
-1.99732
-2.91645
-4.06356
-5.41025
-6.88771
-8.39017
-9.78368
-10.9199
-11.6538
-11.8627
-11.4656
-10.4379
-8.82055
-6.72195
-4.31025
-1.7982
0.578856
2.58894
4.03004
4.75403
4.68471
3.82759
2.27018
0.172841
-2.24864
-4.74639
-7.06677
-8.97658
-10.286
-10.8661
-10.6588
-9.67958
-8.0122
-5.79722
-3.21578
-0.470565
2.23387
4.70958
6.80097
8.39657
9.43635
9.91411
9.87539
9.41119
8.64822
7.73682
6.83732
6.10607
5.68228
5.67657
6.16232
7.17038
8.68775
10.6603
12.9991
15.5902
18.3057
21.016
23.6005
25.957
28.0064
29.6953
30.9936
31.89
32.3853
32.4848
32.1911
31.4983
30.3879
28.8274
26.7721
24.1683
20.9605
17.1004
12.5567
7.32694
1.44707
-4.99958
-11.8775
-18.9988
-26.1279
-32.9926
-39.3
-44.7563
-49.089
-52.0686
-53.5276
-53.3758
-51.6078
-48.305
-43.6287
-37.8078
-31.1211
-23.8762
-16.3871
-8.95346
-1.84195
4.72791
10.5931
15.6511
19.8592
23.2288
25.8174
27.7176
29.0457
29.9305
30.5032
30.8893
31.2021
31.5391
31.9787
32.5792
33.3776
34.3897
35.6099
37.0114
38.5473
40.1521
41.7442
43.2294
44.505
45.4659
46.0101
46.0446
45.4905
44.2865
42.3888
39.7687
36.4063
32.2801
27.3561
21.5745
14.8382
7.00468
-2.11849
-12.7702
-25.2261
-39.7805
-56.7216
-76.3018
-98.7035
-124.006
-152.15
-182.914
-215.887
-250.463
-285.835
-321.011
-354.842
-386.072
-413.404
-435.581
-451.48
-460.218
-461.234
-454.371
-439.904
-418.542
-391.371
-359.761
-325.237
-289.336
-253.46
-218.765
-186.073
-155.842
-128.187
-102.933
-79.7147
-58.0845
-37.6188
-18.0084
0.881928
18.9909
36.0748
51.7546
65.584
77.1284
86.0404
92.1213
95.3593
95.9411
94.2356
90.7545
86.0958
80.8795
75.6835
70.9888
67.14
64.324
62.5692
61.7632
61.6842
62.0421
62.5233
62.8321
62.7262
62.041
60.7011
58.7208
56.1919
53.2647
50.123
46.9577
43.9425
41.2136
38.8559
36.8963
35.3043
33.9992
32.8622
31.7528
30.5263
29.0511
27.2252
24.9881
22.3287
19.2878
15.9548
12.459
8.95698
5.61627
2.59855
0.0431236
-1.94687
-3.3142
-4.05215
-4.20365
-3.85511
-3.12599
-2.15537
-1.08732
-0.0568312
0.821957
1.46408
1.81778
1.86417
1.61319
1.09663
0.359781
-0.546987
-1.5754
-2.68422
-3.8414
-5.02353
-6.21301
-7.39382
-8.54697
-9.64679
-10.6588
-11.5397
-12.24
-12.7087
-12.8989
-12.7748
-12.3177
-11.53
-10.4375
-9.08797
-7.54744
-5.89377
-4.20866
-2.56938
-1.0412
0.328199
1.51175
2.50289
3.31259
3.96405
4.48586
4.9049
5.24007
5.49774
5.66981
5.7345
5.65973
5.40864
4.94623
4.24601
3.29567
2.10091
0.68671
-0.90383
-2.61299
-4.37349
-6.11439
-7.76696
-9.26976
-10.5726
-11.6388
-12.4464
-12.9879
-13.2692
-13.3077
-13.1305
-12.7722
-12.2727
-11.6754
-11.0244
-10.3625
-9.72873
-9.15525
-8.66511
-8.2699
-7.96839
-7.74625
-7.57717
-7.42557
-7.25056
-7.01092
-6.67047
-6.20307
-5.59651
-4.85471
-3.9977
-3.05943
-2.08345
-1.11722
-0.205704
0.614729
1.32123
1.90745
2.3842
2.77755
3.12472
3.46837
3.85001
4.30362
4.85043
5.49555
6.22708
7.01788
7.82964
8.61895
9.3444
9.97377
10.4903
10.8972
11.2192
11.5011
11.8027
12.1916
12.7333
13.481
14.4664
15.6923
17.1294
18.7164
20.3645
21.9658
23.4033
24.5622
25.3409
25.6589
25.4629
24.7279
23.4558
21.6702
19.4099
16.721
13.6498
10.2374
6.51721
2.51569
-1.74399
-6.2354
-10.9208
-15.7426
-20.6169
-25.4285
-30.0304
-34.2473
-37.8837
-40.7354
-42.6052
-43.3195
-42.7463
-40.8114
-37.512
-32.9244
-27.2055
-20.5872
-13.3621
-5.86374
1.55909
8.56984
14.8715
20.2305
24.4938
27.5988
29.5739
30.5293
30.6414
30.1303
29.2357
28.191
27.2018
26.4282
25.974
25.883
26.1423
26.6907
27.4315
28.2476
29.0155
29.6184
29.9561
29.9512
29.5523
28.7333
27.4909
25.8384
23.7981
21.3907
18.6219
15.467
11.8539
7.64556
2.62559
-3.51191
-11.1648
-20.8156
-33.0114
-48.332
-67.3435
-90.5418
-118.287
-150.733
-187.767
-228.952
-273.497
-320.251
-367.739
-414.223
-457.805
-496.55
-528.625
-552.432
-566.729
-570.721
-564.119
-547.151
-520.544
-485.457
-443.396
-396.111
-345.473
-293.372
-241.606
-191.798
-145.33
-103.292
-66.4592
-35.2836
-9.9038
9.82977
24.3167
34.1584
40.1033
42.9864
43.6698
42.9848
41.6816
40.3875
39.5784
39.5632
40.4826
42.322
44.9351
48.0769
51.4416
54.702
57.547
59.713
61.0078
61.3247
60.6467
59.0409
56.6446
53.6457
50.2591
46.7029
43.176
39.8405
36.8097
34.1428
31.8465
29.8829
28.1815
26.6542
25.2098
23.7684
22.2709
20.685
19.0068
17.2568
15.4741
13.7074
12.0061
10.4123
8.95516
7.6481
6.48888
5.46256
4.54618
3.71435
2.94453
2.22128
1.53871
0.900926
0.320408
-0.18524
-0.597835
-0.903888
-1.10008
-1.19841
-1.23044
-1.2501
-1.33452
-1.58237
-2.10919
-3.03977
-4.49735
-6.59059
-9.39917
-12.9599
-17.255
-22.205
-27.6671
-33.4403
-39.2779
-44.9048
-50.0393
-54.4161
-57.8083
-60.0448
-61.0235
-60.7164
-59.1688
-56.4921
-52.8516
-48.4512
-43.5162
-38.2776
-32.9562
-27.7506
-22.8276
-18.3163
-14.3051
-10.8417
-7.9355
-5.56209
-3.66953
-2.18583
-1.0274
-0.107947
0.652869
1.32153
1.94436
2.54348
3.11549
3.6331
4.0498
4.30681
4.34192
4.09885
3.53614
2.63433
1.40048
-0.130523
-1.89799
-3.82037
-5.80214
-7.74159
-9.5382
-11.0986
-12.3404
-13.1943
-13.6034
-13.5228
-12.918
-11.7643
-10.0479
-7.76809
-4.94048
-1.60061
2.19298
6.35719
10.7853
15.3502
19.9111
24.3216
28.4393
32.1362
35.3074
37.878
39.8073
41.0895
41.7509
41.8451
41.4455
40.6368
39.507
38.1401
36.6113
34.9839
33.3094
31.6299
29.9819
28.4008
26.9247
25.5953
24.4559
23.5449
22.8857
22.4737
22.2647
22.1662
22.0353
21.6858
20.9048
19.4778
17.2202
14.01
9.81681
4.72278
-1.07044
-7.25002
-13.4168
-19.1245
-23.9297
-27.4455
-29.3947
-29.6533
-28.2811
-25.5341
-21.8582
-17.8644
-14.2893
-11.9457
-11.6692
-14.2673
-20.4746
-30.9177
-46.0909
-66.3385
-91.8442
-122.62
-158.494
-199.093
-243.824
-291.856
-342.109
-393.253
-443.732
-491.806
-535.62
-573.3
-603.058
-623.321
-632.845
-630.825
-616.981
-591.605
-555.565
-510.268
-457.568
-399.652
-338.885
-277.652
-218.201
-162.504
-112.146
-68.2536
-31.4683
-1.95371
20.5544
36.6716
47.2697
53.3731
56.0572
56.3582
55.2
53.3439
51.3603
49.6243
48.3295
47.5174
47.1169
46.9874
46.9614
46.881
46.6265
46.1334
45.398
44.4723
43.4499
42.4459
41.5747
40.9284
40.5603
40.474
40.6212
40.9075
41.2038
41.364
41.2435
40.7187
39.7023
38.1542
36.0861
33.5598
30.6791
27.5775
24.4023
21.2982
18.3923
15.7814
13.5243
11.6391
10.105
8.87013
7.86125
6.99621
6.19624
5.39667
4.55479
3.65394
2.70353
1.73544
0.797292
-0.0560103
-0.77134
-1.30585
-1.63405
-1.75301
-1.68566
-1.48225
-1.22002
-1.00112
-0.94831
-1.19811
-1.89123
-3.16032
-5.11566
-7.83013
-11.3251
-15.559
-20.4211
-25.7318
-31.2503
-36.69
-41.7406
-46.0947
-49.4765
-51.6684
-52.533
-52.0276
-50.2091
-47.2282
-43.3147
-38.7538
-33.8588
-28.9403
-24.2781
-20.0977
-16.5533
-13.7204
-11.5965
-10.1107
-9.13958
-8.52737
-8.10738
-7.72264
-7.24284
-6.57634
-5.67605
-4.53931
-3.20238
-1.73079
-0.207166
1.28157
2.65614
3.85447
4.83803
5.5946
6.13738
6.50109
6.73582
6.89944
7.04978
7.2372
7.49857
7.85302
8.29983
8.81856
9.37123
9.90628
10.3639
10.6819
10.8023
10.6773
10.2746
9.58189
8.60992
7.39354
5.99136
4.48286
2.96343
1.53699
0.306791
-0.635042
-1.21803
-1.40265
-1.18697
-0.609457
0.252883
1.29106
2.37492
3.36707
4.13811
4.58151
4.62602
4.24427
3.45616
2.32693
0.959763
-0.515801
-1.95844
-3.23064
-4.21341
-4.81843
-4.99628
-4.74012
-4.08471
-3.10158
-1.89114
-0.572981
0.724438
1.87406
2.75979
3.28506
3.38034
3.0094
2.17398
0.9165
-0.679982
-2.49526
-4.37952
-6.16512
-7.68208
-8.77595
-9.32603
-9.26143
-8.57256
-7.31577
-5.61022
-3.62677
-1.57
0.344256
1.91327
2.97033
3.4034
3.16709
2.28661
0.853293
-0.987462
-3.05422
-5.15101
-7.08955
-8.70957
-9.89475
-10.5826
-10.7674
-10.496
-9.85759
-8.96884
-7.95632
-6.93909
-6.01323
-5.24052
-4.64261
-4.20113
-3.86359
-3.55416
-3.18753
-2.684
-1.98362
-1.0573
0.0865537
1.40093
2.80486
4.1934
5.4516
6.4708
7.16491
7.48447
7.42644
7.0381
6.41447
5.68917
5.01997
4.57049
4.49034
4.89603
5.85471
7.37276
9.39013
11.7813
14.3624
16.9045
19.1507
20.8368
21.7131
21.566
20.2374
17.6403
13.7693
8.70594
2.61666
-4.25511
-11.6027
-19.0741
-26.2939
-32.8852
-38.4926
-42.8039
-45.5686
-46.6144
-45.8593
-43.3187
-39.1075
-33.435
-26.5938
-18.941
-10.8749
-2.80632
4.8713
11.8111
17.7381
22.4689
25.9218
28.1184
29.1752
29.2864
28.7003
27.6916
26.5325
25.4665
24.6869
24.3221
24.4292
24.995
25.944
27.1527
28.4669
29.7201
30.7524
31.4258
31.6354
31.3168
30.4459
29.0348
27.1214
24.7555
21.98
18.8115
15.2192
11.1044
6.28481
0.481915
-6.68266
-15.6824
-27.07
-41.45
-59.4383
-81.6112
-108.444
-140.243
-177.077
-218.717
-264.585
-313.728
-364.821
-416.201
-465.942
-511.957
-552.13
-584.463
-607.223
-619.084
-619.233
-607.448
-584.122
-550.242
-507.313
-457.251
-402.232
-344.538
-286.393
-229.825
-176.543
-127.863
-84.6633
-47.3873
-16.0787
9.55443
30.057
46.136
58.5703
68.1306
75.5148
81.303
85.9334
89.698
92.7551
95.1551
96.8736
97.8479
98.0112
97.3212
95.7804
93.4466
90.433
86.9008
83.044
79.0704
75.1824
71.5576
68.3339
65.5999
63.3903
61.6875
60.4279
59.5127
58.8199
58.2179
57.5778
56.7842
55.7424
54.3832
52.6644
50.5691
48.1036
45.2924
42.1744
38.7989
35.2223
31.5055
27.7121
23.9077
20.1584
16.5307
13.0897
9.89774
7.01187
4.4812
2.34371
0.623244
-0.672916
-1.55554
-2.05361
-2.21295
-2.09339
-1.76452
-1.30063
-0.775323
-0.256577
0.197004
0.538034
0.729934
0.744305
0.556665
0.14162
-0.531194
-1.49909
-2.80524
-4.49423
-6.6045
-9.15902
-12.1556
-15.5587
-19.2945
-23.25
-27.2776
-31.2039
-34.8422
-38.0079
-40.5346
-42.2881
-43.1793
-43.1716
-42.2841
-40.5894
-38.2063
-35.2891
-32.0137
-28.5621
-25.1084
-21.8052
-18.7745
-16.1009
-13.8298
-11.9694
-10.4953
-9.35777
-8.49095
-7.82113
-7.27516
-6.78722
-6.30382
-5.78681
-5.21453
-4.58125
-3.89523
-3.17583
-2.45004
-1.7488
-1.10334
-0.541914
-0.0870507
0.246533
0.453205
0.536816
0.510215
0.393908
0.214006
-0.000345898
-0.21979
-0.417529
-0.571752
-0.667447
-0.697427
-0.662462
-0.570549
-0.435437
-0.274615
-0.107025
0.0492157
0.178817
0.270831
0.319528
0.324599
0.290688
0.22639
0.142871
0.0523066
-0.0336486
-0.105178
-0.15526
-0.180159
-0.179428
-0.155416
-0.112379
-0.0553214
0.0112962
0.0847713
0.16515
0.255848
0.363847
0.499545
0.676435
0.910901
1.22236
1.63384
2.17273
2.87136
3.7667
4.89848
6.30546
8.01955
10.0582
12.4161
15.0567
17.9062
20.85
23.7342
26.3719
28.5544
30.0676
30.7107
30.3165
28.77
26.0239
22.108
17.1318
11.2802
4.80132
-2.0103
-8.83526
-15.3518
-21.2576
-26.2894
-30.2376
-32.9559
-34.3657
-34.4546
-33.2712
-30.9162
-27.5319
-23.2904
-18.3828
-13.0086
-7.3669
-1.64921
3.96638
9.31943
14.2703
18.7026
22.525
25.6727
28.109
29.8268
30.8503
31.2353
31.0694
30.4701
29.58
28.5591
27.5748
26.7889
26.3433
26.3464
26.861
27.8958
29.4018
31.2744
33.361
35.4747
37.4119
38.9719
39.9776
40.2919
39.8305
38.5674
36.5323
33.801
30.4781
26.6743
22.4804
17.9401
13.0257
7.61805
1.49587
-5.66512
-14.2799
-24.8289
-37.8198
-53.7384
-72.9931
-95.8563
-122.41
-152.502
-185.718
-221.372
-258.528
-296.031
-332.572
-366.76
-397.21
-422.622
-441.87
-454.073
-458.644
-455.338
-444.254
-425.833
-400.818
-370.204
-335.166
-296.979
-256.942
-216.305
-176.212
-137.655
-101.454
-68.2467
-38.4928
-12.4897
9.61183
27.789
42.1302
52.8209
60.131
64.4034
66.0417
65.495
63.2415
59.7674
55.5455
51.0117
46.5445
42.4468
38.9343
36.1302
34.0672
32.6973
31.9071
31.5382
31.4085
31.3347
31.1513
30.7261
29.9701
28.8414
27.344
25.5223
23.4517
21.2287
18.9601
16.7542
14.7131
12.928
11.4761
10.4189
9.80049
9.64574
9.95715
10.7106
11.8512
13.2899
14.9033
16.5379
18.0196
19.1678
19.8139
19.8211
19.1023
17.6345
15.466
12.7144
9.55672
6.21058
2.90945
-0.124865
-2.70907
-4.72058
-6.11188
-6.91516
-7.23631
-7.23933
-7.12344
-7.09621
-7.34648
-8.02117
-9.20874
-10.9318
-13.1494
-15.7676
-18.6572
-21.6744
-24.6817
-27.5645
-30.2419
-32.6693
-34.8326
-36.7358
-38.3849
-39.7707
-40.8552
-41.5644
-41.7894
-41.3964
-40.2446
-38.2088
-35.2038
-31.2057
-26.267
-20.5224
-14.1835
-7.52344
-0.852258
5.51287
11.2791
16.2064
20.1286
22.9659
24.7249
25.4899
25.4044
24.6479
23.4113
21.8734
20.1831
18.4476
16.7285
15.0455
13.3853
11.7145
9.99448
8.19428
6.30137
4.32739
2.30871
0.302063
-1.62395
-3.39971
-4.96574
-6.28216
-7.3346
-8.13575
-8.72211
-9.14689
-9.47016
-9.74831
-10.0245
-10.3217
-10.6394
-10.9545
-11.2258
-11.4011
-11.4266
-11.2551
-10.8543
-10.2117
-9.33604
-8.25676
-7.01895
-5.67706
-4.28743
-2.90099
-1.55738
-0.281275
0.91856
2.04757
3.12131
4.15987
5.1816
6.19734
7.20596
8.19201
9.12563
9.96479
10.6593
11.1557
11.4031
11.357
10.9836
10.2609
9.1797
7.74171
5.95772
3.84471
1.42317
-1.28499
-4.25744
-7.47077
-10.898
-14.5042
-18.2408
-22.0397
-25.8078
-29.4245
-32.7427
-35.5943
-37.8008
-39.1873
-39.5998
-38.923
-37.0957
-34.1229
-30.081
-25.1164
-19.4358
-13.29
-6.95318
-0.698979
5.22195
10.6012
15.2859
19.1855
22.2707
24.5672
26.1437
27.0993
27.5488
27.6111
27.3994
27.0148
26.5438
26.0575
25.6134
25.257
25.0243
24.9421
25.0277
25.2863
25.7084
26.2661
26.9109
27.5727
28.1619
28.5736
28.6957
28.4172
27.6391
26.2827
24.2953
21.6515
18.3473
14.387
9.76428
4.43858
-1.68888
-8.79508
-17.1464
-27.0969
-39.0715
-53.5326
-70.9322
-91.6534
-115.947
-143.872
-175.247
-209.616
-246.247
-284.145
-322.098
-358.741
-392.627
-422.31
-446.424
-463.758
-473.325
-474.422
-466.686
-450.133
-425.184
-392.662
-353.772
-310.035
-263.202
-215.144
-167.726
-122.678
-81.4778
-45.2644
-14.7735
9.6834
28.2032
41.241
49.5328
53.9998
55.6456
55.4577
54.3215
52.9552
51.8705
51.3595
51.5074
52.2261
53.3028
54.4563
55.3926
55.8547
55.6598
54.722
53.0577
50.777
48.0623
45.1389
42.242
39.5862
37.3386
35.6017
34.4054
33.7091
33.4126
33.3735
33.4278
33.4121
33.1824
32.6295
31.6877
30.3379
28.6044
26.5473
24.2514
21.8136
19.331
16.8908
14.5624
12.394
10.412
8.62384
7.02227
5.59171
4.31382
3.17255
2.1574
1.26485
0.49781
-0.136631
-0.630667
-0.980014
-1.18841
-1.27183
-1.26194
-1.20811
-1.17741
-1.25213
-1.52458
-2.0892
-3.03285
-4.42407
-6.30293
-8.67293
-11.4963
-14.6939
-18.1499
-21.7215
-25.2526
-28.5888
-31.594
-34.1631
-36.2314
-37.7767
-38.8158
-39.394
-39.5715
-39.407
-38.9436
-38.1978
-37.1552
-35.7732
-33.9903
-31.7417
-28.9783
-25.6847
-21.8945
-17.6982
-13.2414
-8.71422
-4.33159
-0.307734
3.1708
5.96945
8.02313
9.34388
10.0173
10.1882
10.0386
9.75939
9.52352
9.46112
9.64283
10.0723
10.6892
11.3812
12.0043
12.4058
12.4491
12.0344
11.1145
9.70153
7.8663
5.72991
3.44948
1.20119
-0.836688
-2.49829
-3.64038
-4.14786
-3.93509
-2.94427
-1.14296
1.47764
4.902
9.08661
13.9537
19.384
25.2097
31.2124
37.1249
42.6423
47.4389
51.1938
53.6189
54.4893
53.6706
51.1386
46.9902
41.4412
34.8126
27.5049
19.9638
12.6409
5.95373
0.249272
-4.22412
-7.33457
-9.07177
-9.53969
-8.93775
-7.53353
-5.63015
-3.53243
-1.51574
0.199119
1.4626
2.20334
2.42542
2.19713
1.63352
0.875274
0.0670527
-0.662312
-1.21563
-1.53811
-1.62291
-1.51222
-1.29533
-1.10544
-1.11657
-1.54182
-2.63286
-4.68
-8.01137
-12.9894
-20.0028
-29.4536
-41.738
-57.2234
-76.2218
-98.9617
-125.56
-155.995
-190.079
-227.44
-267.497
-309.45
-352.274
-394.728
-435.385
-472.678
-504.974
-530.669
-548.298
-556.656
-554.914
-542.71
-520.218
-488.163
-447.793
-400.8
-349.206
-295.216
-241.063
-188.849
-140.417
-97.2367
-60.3392
-30.2828
-7.1633
9.34332
19.9094
25.465
27.0975
25.9499
23.1277
19.6203
16.2418
13.5946
12.0566
11.7894
12.7647
14.805
17.6312
20.9137
24.3195
27.5522
30.3812
32.6573
34.3159
35.368
35.8824
35.9616
35.716
35.2409
34.5987
33.808
32.8433
31.6423
30.1207
28.1918
25.7878
22.88
19.4941
15.7187
11.7052
7.65889
3.82164
0.448845
-2.21751
-3.97569
-4.6878
-4.29713
-2.83717
-0.431032
2.71849
6.34713
10.1535
13.8264
17.0725
19.64
21.337
22.0409
21.7002
20.3273
17.9855
14.7726
10.8028
6.19105
1.04103
-4.56155
-10.5502
-16.8739
-23.4889
-30.3495
-37.3973
-44.5535
-51.7138
-58.7481
-65.5042
-71.816
-77.5148
-82.441
-86.4571
-89.458
-91.3799
-92.2045
-91.9604
-90.7209
-88.5978
-85.7335
-82.2896
-78.4354
-74.3344
-70.1317
-65.9428
-61.8442
-57.8694
-54.0084
-50.2141
-46.413
-42.5208
-38.4598
-34.1763
-29.6556
-24.9318
-20.0902
-15.2629
-10.615
-6.32611
-2.56614
0.528104
2.87414
4.45843
5.34222
5.6573
5.59226
5.37084
5.22549
5.36978
5.9734
7.14294
8.91082
11.2336
13.9995
17.0435
20.1683
23.1687
25.8543
28.0715
29.7183
30.7538
31.1997
31.1354
30.6859
30.0058
29.2602
28.605
28.1681
28.0348
28.2373
28.7516
29.4995
30.3587
31.1763
31.7871
32.0329
31.7805
30.9373
29.4617
27.3674
24.7225
21.6416
18.2743
14.79
11.3619
8.151
5.29312
2.88855
0.996307
-0.36722
-1.22555
-1.63578
-1.67982
-1.45408
-1.05906
-0.589763
-0.127748
0.264365
0.545835
0.698105
0.722774
0.637745
0.472146
0.260686
0.0380533
-0.16611
-0.33123
-0.448509
-0.522163
-0.569177
-0.617688
-0.704202
-0.869904
-1.15633
-1.60067
-2.2311
-3.06244
-4.09266
-5.30064
-6.6458
-8.06971
-9.49992
-10.8557
-12.0552
-13.0228
-13.6968
-14.0348
-14.018
-13.6518
-12.9647
-12.0041
-10.8307
-9.51156
-8.11359
-6.69755
-5.31381
-4.00004
-2.78094
-1.66997
-0.672444
0.210318
0.976585
1.62013
2.12703
2.474
2.6285
2.55129
2.20143
1.54369
0.557748
-0.751946
-2.34712
-4.1493
-6.03761
-7.85222
-9.40407
-10.4907
-10.9178
-10.523
-9.20187
-6.92897
-3.77384
0.0933814
4.40769
8.82704
12.9609
16.407
18.7908
19.8057
19.2452
17.0267
13.2016
7.95144
1.57003
-5.56578
-13.0334
-20.4056
-27.2891
-33.3581
-38.3766
-42.2094
-44.8195
-46.2552
-46.6284
-46.0888
-44.7976
-42.9049
-40.5335
-37.7707
-34.6677
-31.2473
-27.515
-23.4741
-19.1387
-14.5454
-9.7588
-4.87193
-0.000904086
4.72526
9.17771
13.2419
16.8302
19.8921
22.4184
24.4421
26.0323
27.2848
28.3099
29.2187
30.11
31.06
32.1141
33.2834
34.5434
35.8372
37.0804
38.1676
38.9813
39.3994
39.3042
38.5889
37.1624
34.9512
31.8959
27.9417
23.0231
17.0424
9.84639
1.20349
-9.21221
-21.8247
-37.1432
-55.7291
-78.143
-104.875
-136.264
-172.414
-213.127
-257.846
-305.64
-355.227
-405.022
-453.243
-498.02
-537.53
-570.124
-594.43
-609.436
-614.534
-609.533
-594.641
-570.429
-537.773
-497.804
-451.845
-401.362
-347.911
-293.099
-238.537
-185.791
-136.333
-91.4812
-52.3334
-19.709
5.90831
24.4099
36.0781
41.5737
41.8899
38.2762
32.1367
24.9111
17.9528
12.4147
9.15674
8.6851
11.1285
16.2551
23.5251
32.1743
41.3157
50.0479
57.558
63.2068
66.5885
67.5586
66.2314
62.9473
58.2177
52.6557
46.901
41.5497
37.0946
33.8842
32.1014
31.763
32.7383
34.7815
37.5734
40.7659
44.0238
47.0579
49.6482
51.6531
53.0072
53.708
53.7968
53.3357
52.3873
50.9983
49.1909
46.9619
44.2901
41.1487
37.5221
33.4209
28.8953
24.0419
19.0037
13.9621
9.12243
4.6946
0.871464
-2.19207
-4.39659
-5.71026
-6.1742
-5.90087
-5.0658
-3.89371
-2.64037
-1.57188
-0.943003
-0.976458
-1.84479
-3.65641
-6.44703
-10.1771
-14.7357
-19.9494
-25.5964
-31.4226
-37.1597
-42.5419
-47.3217
-51.2829
-54.2509
-56.0994
-56.7551
-56.1993
-54.4668
-51.6432
-47.8601
-43.2878
-38.1278
-32.6025
-26.9446
-21.3857
-16.1441
-11.4137
-7.35344
-4.07936
-1.65841
-0.105953
0.613485
0.581791
-0.0804455
-1.22446
-2.6858
-4.2977
-5.90406
-7.37086
-8.59477
-9.50812
-10.0798
-10.3122
-10.235
-9.89659
-9.35469
-8.66786
-7.88831
-7.05753
-6.20456
-5.34707
-4.49437
-3.65163
-2.82424
-2.0213
-1.25764
-0.553846
0.0655966
0.57581
0.95603
1.19441
1.29241
1.26806
1.15778
1.01643
0.915689
0.940659
1.18504
1.74489
2.71124
4.16201
6.15383
8.71457
11.8374
15.4776
19.5523
23.9439
28.5066
33.0763
37.4819
41.5568
45.1513
48.1417
50.4379
51.9878
52.7784
52.8336
52.2103
50.9916
49.2789
47.1846
44.8226
42.3014
39.7172
37.1483
34.6515
32.2606
29.9868
27.8212
25.7389
23.705
21.6812
19.6325
17.5335
15.3738
13.1603
10.9185
8.68982
6.52722
4.48835
2.62756
0.987661
-0.407328
-1.55744
-2.48908
-3.25421
-3.92641
-4.59506
-5.35913
-6.32276
-7.59503
-9.29541
-11.5658
-14.5881
-18.6051
-23.94
-31.011
-40.3339
-52.5102
-68.1959
-88.0517
-112.675
-142.52
-177.81
-218.456
-263.983
-313.49
-365.634
-418.661
-470.478
-518.766
-561.127
-595.256
-619.115
-631.101
-630.187
-616.017
-588.956
-550.076
-501.093
-444.24
-382.119
-317.513
-253.195
-191.748
-135.398
-85.8848
-44.379
-11.4396
12.9732
29.4409
38.9893
42.9619
42.8768
40.2807
36.6143
33.1011
30.667
29.8984
31.0377
34.0132
38.498
43.9878
49.8877
55.5967
60.5827
64.439
66.9187
67.9464
67.6076
66.1195
63.7905
60.9722
58.0131
55.2175
52.8148
50.9417
49.6385
48.8567
48.4777
48.337
48.2511
48.044
47.5678
46.7183
45.4421
43.7364
41.6425
39.2345
36.6054
33.853
31.0676
28.3221
25.6663
23.1257
20.7034
18.386
16.1508
13.9739
11.8386
9.74032
7.69082
5.71802
3.8636
2.17777
0.712539
-0.485765
-1.38354
-1.96566
-2.23944
-2.23652
-2.01274
-1.64643
-1.23505
-0.890508
-0.733196
-0.88454
-1.45839
-2.55153
-4.23391
-6.53967
-9.45988
-12.9382
-16.8699
-21.1058
-25.4593
-29.7181
-33.6584
-37.0605
-39.7252
-41.4887
-42.2347
-41.9036
-40.4975
-38.0803
-34.7737
-30.7491
-26.2156
-21.4066
-16.5636
-11.9209
-7.69068
-4.05007
-1.13118
0.985481
2.27357
2.75931
2.51594
1.65463
0.312858
-1.35882
-3.20995
-5.10206
-6.9177
-8.56576
-9.98261
-11.1295
-11.9868
-12.5478
-12.8112
-12.7772
-12.4446
-11.8126
-10.8836
-9.66955
-8.19715
-6.51303
-4.6859
-2.80558
-0.978147
0.682314
2.06473
3.07324
3.63909
3.7303
3.35773
2.57631
1.48121
0.198937
-1.12537
-2.34314
-3.31815
-3.941
-4.14046
-3.89049
-3.21215
-2.17013
-0.864627
0.580586
2.03233
3.36283
4.46342
5.25569
5.69876
5.79219
5.57405
5.11488
4.50812
3.8584
3.26906
2.83051
2.6106
2.64828
2.95104
3.49629
4.23629
5.10572
6.03073
6.93813
7.76348
8.45695
8.98642
9.33753
9.51086
9.51709
9.37089
9.08468
8.66335
8.10067
7.3781
6.46633
5.32957
3.93237
2.24837
0.27004
-1.98202
-4.45162
-7.04319
-9.62285
-12.0254
-14.0672
-15.5635
-16.3494
-16.3012
-15.3544
-13.5179
-10.8794
-7.60252
-3.91474
-0.0870811
3.59167
6.84351
9.42895
11.1704
11.9686
11.8101
10.7651
8.97674
6.64267
3.99215
1.26127
-1.33067
-3.6011
-5.41832
-6.70884
-7.45782
-7.70303
-7.52397
-7.02768
-6.33344
-5.55813
-4.80389
-4.14916
-3.64377
-3.30783
-3.13428
-3.09391
-3.1422
-3.22665
-3.29383
-3.29534
-3.19228
-2.95796
-2.57895
-2.05475
-1.39637
-0.624127
0.235004
1.15026
2.09015
3.0255
3.93233
4.79432
5.60432
6.36463
7.08552
7.78197
8.46901
9.1562
9.84235
10.5116
11.1321
11.6574
12.0317
12.1978
12.1063
11.726
11.0522
10.1115
8.96298
7.69321
6.4064
5.21024
4.19909
3.43686
2.94248
2.68023
2.55723
2.42914
2.11404
1.41314
0.136074
-1.87273
-4.70985
-8.39429
-12.8572
-17.9411
-23.4095
-28.9651
-34.2743
-38.9964
-42.8115
-45.4471
-46.6987
-46.4426
-44.6419
-41.3434
-36.6684
-30.7977
-23.9546
-16.3878
-8.35685
-0.122001
8.06112
15.9428
23.2782
29.8273
35.3574
39.6508
42.518
43.8156
43.4666
41.4799
37.9642
33.1347
27.308
20.8847
14.3221
8.09701
2.6654
-1.57818
-4.33548
-5.43026
-4.82205
-2.60728
0.991292
5.64469
10.9443
16.4315
21.6276
26.0609
29.2895
30.9181
30.6099
28.0916
23.1548
15.6525
5.49316
-7.36718
-22.9335
-41.1792
-62.0501
-85.4637
-111.301
-139.39
-169.487
-201.245
-234.187
-267.688
-300.956
-333.038
-362.843
-389.18
-410.83
-426.617
-435.509
-436.714
-429.771
-414.621
-391.657
-361.72
-326.06
-286.251
-244.065
-201.33
-159.777
-120.901
-85.8624
-55.4141
-29.8898
-9.23185
6.94052
19.2364
28.3865
35.1398
40.1754
44.0391
47.1109
49.6013
51.5734
52.9846
53.7369
53.7288
52.899
51.2576
48.9004
46.0054
42.8152
39.608
36.6623
34.2227
32.4695
31.4985
31.3116
31.8199
32.8581
34.2073
35.6235
36.8667
37.7281
38.0517
37.7478
36.7979
35.2503
33.2092
30.8175
28.2375
25.6302
23.1377
20.8691
18.8913
17.2259
15.8522
14.7141
13.7315
12.8137
11.8729
10.8368
9.65822
8.32085
6.84096
5.2644
3.65984
2.10895
0.694692
-0.511069
-1.45923
-2.13313
-2.55507
-2.78849
-2.93535
-3.12838
-3.51872
-4.26007
-5.49105
-7.31782
-9.79928
-12.9368
-16.6702
-20.8802
-25.3984
-30.0221
-34.5335
-38.7208
-42.3978
-45.4209
-47.7001
-49.2047
-49.9613
-50.0466
-49.5743
-48.6795
-47.5014
-46.1678
-44.7814
-43.4103
-42.0838
-40.7926
-39.4937
-38.1192
-36.5874
-34.8163
-32.7357
-30.299
-27.4922
-24.3385
-20.8999
-17.2727
-13.5797
-9.95908
-6.55044
-3.48111
-0.853272
1.26601
2.85072
3.91707
4.51963
4.74315
4.69094
4.47152
4.18529
3.91289
3.70684
3.58724
3.54218
3.53226
3.49873
3.3736
3.09059
2.595
1.85175
0.850437
-0.392394
-1.83369
-3.40624
-5.02225
-6.57758
-7.95632
-9.03571
-9.69173
-9.80576
-9.27248
-8.00893
-5.96419
-3.12848
0.459715
4.70999
9.48109
14.5874
19.8105
24.9153
29.6681
33.8556
37.3025
39.8837
41.5336
42.2475
42.0782
41.1268
39.5304
37.447
35.0399
32.464
29.8541
27.3171
24.928
22.73
20.7379
18.9441
17.3257
15.8527
14.4946
13.2256
12.0282
10.8936
9.82119
8.8158
7.88441
7.03278
6.2625
5.56899
4.94067
4.35945
3.80231
3.24345
2.65677
2.01762
1.3035
0.492696
-0.439499
-1.52732
-2.82347
-4.40964
-6.407
-8.98521
-12.3678
-16.8332
-22.7093
-30.3629
-40.1829
-52.5589
-67.8546
-86.3788
-108.352
-133.874
-162.888
-195.151
-230.209
-267.383
-305.773
-344.269
-381.59
-416.328
-447.013
-472.185
-490.476
-500.698
-501.933
-493.617
-475.611
-448.255
-412.387
-369.321
-320.788
-268.837
-215.694
-163.611
-114.696
-70.7636
-33.2022
-2.88741
19.86
35.2633
44.0296
47.2494
46.2656
42.5301
37.4608
32.3154
28.093
25.4724
24.7892
26.0518
28.9899
33.1271
37.867
42.5829
46.6984
49.7532
51.4469
51.6582
50.441
47.9998
44.6498
40.7678
36.7417
32.9242
29.5954
26.9389
25.0318
23.849
23.2791
23.1492
23.2542
23.3866
23.3628
23.0434
22.3458
21.2474
19.7815
18.0257
16.087
14.0839
12.1295
10.318
8.71481
7.35226
6.23021
5.32147
4.58012
3.95154
3.38242
2.82917
2.26389
1.67706
1.07708
0.486952
-0.0610872
-0.532036
-0.894747
-1.12791
-1.22488
-1.1971
-1.07613
-0.914239
-0.783604
-0.773883
-0.987973
-1.53571
-2.52544
-4.05379
-6.19407
-8.98451
-12.4173
-16.43
-20.901
-25.6494
-30.4415
-35.0032
-39.038
-42.2507
-44.3725
-45.1878
-44.5569
-42.4344
-38.8783
-34.0499
-28.2039
-21.668
-14.8159
-8.03544
-1.69534
3.88506
8.46078
11.8778
14.0802
15.1072
15.0817
14.1911
12.664
10.7448
8.66943
6.6443
4.83078
3.33595
2.21007
1.45039
1.01023
0.811631
0.759964
0.758529
0.721581
0.584437
0.309831
-0.109836
-0.654172
-1.27981
-1.92783
-2.53248
-3.03006
-3.36684
-3.50512
-3.42699
-3.13521
-2.65158
-2.01313
-1.26686
-0.464169
0.34431
1.11251
1.80106
2.37778
2.81688
3.0975
3.20239
3.1172
2.83091
2.33729
1.63723
0.741217
-0.328486
-1.53691
-2.83701
-4.17214
-5.48002
-6.69778
-7.76693
-8.63762
-9.27142
-9.64228
-9.73577
-9.54722
-9.07927
-8.33975
-7.3404
-6.09689
-4.63005
-2.96797
-1.14847
0.778851
2.75174
4.69597
6.52809
8.1601
9.50575
10.4878
11.0451
11.1391
10.7587
9.92193
8.67674
7.09804
5.28352
3.34771
1.41494
-0.388341
-1.9417
-3.13902
-3.89667
-4.16131
-3.91653
-3.18771
-2.044
-0.596702
1.00659
2.59218
3.97427
4.97165
5.42543
5.21585
4.27614
2.60154
0.252325
-2.64988
-5.93229
-9.38654
-12.7881
-15.9169
-18.5782
-20.6186
-21.9392
-22.5012
-22.326
-21.4885
-20.1061
-18.3236
-16.2974
-14.1794
-12.1038
-10.1772
-8.47258
-7.02852
-5.85149
-4.92167
-4.20046
-3.63866
-3.18406
-2.78764
-2.40784
-2.01267
-1.58006
-1.09692
-0.557543
0.0379205
0.684523
1.37289
2.08896
2.81349
3.52162
4.18314
4.76372
5.2273
5.5395
5.67188
5.6062
5.33838
4.88113
4.26513
3.53813
2.76217
2.00906
1.35455
0.871927
0.625716
0.666264
1.02593
1.71731
2.73363
4.05116
5.63309
7.43404
9.40446
11.4939
13.653
15.8328
17.9835
20.0511
21.9741
23.6801
25.0844
26.0897
26.5886
26.4682
25.6171
23.9354
21.3445
17.7989
13.2969
7.88906
1.68478
-5.14564
-12.373
-19.7161
-26.8542
-33.4443
-39.1423
-43.6282
-46.6311
-47.9537
-47.4921
-45.2489
-41.3378
-35.9785
-29.4809
-22.2215
-14.6124
-7.06727
0.0322929
6.36708
11.7034
15.9068
18.9463
20.8866
21.8736
22.1113
21.836
21.2897
20.6955
20.2386
20.0525
20.2132
20.7397
21.6005
22.7247
24.0152
25.3623
26.6569
27.7999
28.7096
29.3239
29.5998
29.5092
29.0322
28.1487
26.8286
25.0218
22.6484
19.5901
15.6821
10.7087
4.40025
-3.56527
-13.5578
-25.9849
-41.2755
-59.8561
-82.1178
-108.375
-138.816
-173.45
-212.054
-254.131
-298.88
-345.194
-391.684
-436.733
-478.583
-515.432
-545.56
-567.445
-579.878
-582.06
-573.674
-554.921
-526.522
-489.678
-445.986
-397.326
-345.719
-293.178
-241.554
-192.413
-146.94
-105.884
-69.5626
-37.9065
-10.5428
13.0932
33.6394
51.6957
67.736
82.0531
94.7429
105.724
114.788
121.672
126.131
128.014
127.316
124.205
119.031
112.293
104.599
96.5963
88.9123
82.0854
76.5153
72.4303
69.8761
68.7257
68.7098
69.4598
70.5585
71.591
72.1898
72.0687
71.044
69.0414
66.0905
62.3096
57.8826
53.0336
48.0006
43.0122
38.268
33.9245
30.087
26.8067
24.0823
21.8662
20.0735
18.5938
17.3043
16.083
14.8222
13.4393
11.885
10.1476
8.25322
6.26141
4.25716
2.33985
0.610836
-0.838977
-1.94006
-2.65239
-2.96997
-2.92162
-2.56842
-1.99861
-1.3212
-0.659163
-0.14282
0.0965701
-0.0667126
-0.745796
-2.03333
-3.9929
-6.6505
-9.98707
-13.9336
-18.3701
-23.1291
-28.0051
-32.7676
-37.1787
-41.0128
-44.0751
-46.2186
-47.3558
-47.4655
-46.5919
-44.8381
-42.3542
-39.3215
-35.9351
-32.3874
-28.8525
-25.4754
-22.3647
-19.5894
-17.1802
-15.1335
-13.4179
-11.9821
-10.7637
-9.69631
-8.71766
-7.77495
-6.82935
-5.85841
-4.85684
-3.83531
-2.81783
-1.83775
-0.932929
-0.140541
0.507874
0.990617
1.29876
1.43744
1.42539
1.29266
1.07705
0.819488
0.559267
0.329674
0.154644
0.0468746
0.00759763
0.0279987
0.0920409
0.180296
0.27426
0.360567
0.434513
0.502286
0.581387
0.698884
0.88741
1.17922
1.59906
2.15691
2.84208
3.61985
4.43166
5.19943
5.83372
6.24471
6.35477
6.11052
5.49245
4.52053
3.25433
1.7878
0.239031
-1.26315
-2.59375
-3.64499
-4.33677
-4.62268
-4.49141
-3.96381
-3.08665
-1.92452
-0.551286
0.957564
2.53086
4.10545
5.6278
7.05368
8.34681
9.477
10.4184
11.1487
11.6487
11.9039
11.9064
11.6583
11.1749
10.4881
9.64914
8.7287
7.81491
7.00834
6.4139
6.13044
6.23894
6.79084
7.79807
9.22634
10.9929
12.9698
14.9915
16.8681
18.4012
19.4008
19.7028
19.183
17.7679
15.4403
12.2389
8.25305
3.61341
-1.5209
-6.97608
-12.5772
-18.1597
-23.5782
-28.7104
-33.458
-37.7429
-41.4999
-44.6689
-47.1853
-48.9746
-49.9486
-50.0085
-49.0525
-46.9894
-43.7556
-39.3331
-33.7661
-27.1723
-19.7466
-11.7563
-3.52538
4.58883
12.2251
19.0509
24.7933
29.2651
32.3825
34.1727
34.7695
34.3985
33.3532
31.9645
30.567
29.4666
28.9109
29.0686
30.016
31.7355
34.1219
36.9989
40.1398
43.2926
46.2046
48.6444
50.4192
51.3853
51.4511
50.5735
48.747
45.9883
42.317
37.7353
32.2083
25.6465
17.8932
8.71823
-2.18156
-15.1729
-30.6681
-49.0989
-70.8821
-96.3784
-125.846
-159.393
-196.928
-238.121
-282.367
-328.78
-376.19
-423.185
-468.161
-509.406
-545.194
-573.896
-594.079
-604.616
-604.761
-594.213
-573.156
-542.253
-502.623
-455.771
-403.497
-347.776
-290.633
-234.014
-179.667
-129.054
-83.291
-43.1183
-8.91056
19.2879
41.7068
58.7819
71.0854
79.2617
83.9753
85.8725
85.5579
83.5831
80.4447
76.5872
72.4067
68.253
64.4285
61.1825
58.704
57.1118
56.448
56.6737
57.6708
59.2511
61.1708
63.1518
64.9064
66.164
66.6959
66.3376
65.0044
62.7
59.5164
55.6254
51.2624
46.7031
42.2354
38.1291
34.6058
31.8134
29.8069
28.5398
27.8674
27.562
27.34
26.8975
25.9509
24.2764
21.7445
18.3435
14.1883
9.5126
4.64497
-0.0298032
-4.11801
-7.26755
-9.21458
-9.81969
-9.08876
-7.17563
-4.36653
-1.04836
2.3345
5.32933
7.52383
8.58859
8.30869
6.60104
3.51653
-0.772395
-5.99623
-11.8212
-17.8855
-23.8357
-29.3569
-34.1963
-38.1772
-41.2029
-43.2528
-44.3704
-44.6488
-44.2128
-43.2014
-41.7537
-39.9964
-38.0368
-35.9582
-33.82
-31.66
-29.4985
-27.3436
-25.196
-23.0538
-20.9156
-18.7829
-16.6604
-14.5557
-12.4777
-10.4354
-8.43627
-6.48531
-4.58562
-2.73973
-0.951977
0.768534
2.40507
3.93115
5.30986
6.49496
7.43396
8.07293
8.36239
8.26372
7.75492
6.83533
5.52838
3.88219
1.96792
-0.123987
-2.28934
-4.41687
-6.3956
-8.12218
-9.50779
-10.4839
-11.0067
-11.0602
-10.6565
-9.83558
-8.66178
-7.21943
-5.60664
-3.92814
-2.28766
-0.780452
0.513466
1.53466
2.24786
2.64347
2.7368
2.56526
2.18383
1.65919
1.06334
0.46715
-0.0653661
-0.48152
-0.742815
-0.825908
-0.721705
-0.43284
0.0299137
0.651644
1.41692
2.31236
3.32766
4.45493
5.68643
7.01112
8.41073
9.85599
11.3038
12.6963
13.9611
15.0151
15.7691
16.1343
16.0303
15.3919
14.1756
12.3646
9.97062
7.03372
3.61949
-0.185878
-4.28171
-8.55926
-12.9073
-17.2163
-21.3807
-25.2989
-28.8726
-32.0052
-34.6007
-36.5645
-37.8065
-38.2457
-37.8186
-36.4873
-34.2481
-31.1387
-27.2414
-22.6826
-17.6265
-12.2652
-6.80468
-1.44836
3.61857
8.24351
12.317
15.7785
18.6173
20.8682
22.6034
23.9217
24.9365
25.7645
26.515
27.2824
28.1403
29.1388
30.303
31.6337
33.1098
34.6909
36.3209
37.9319
39.4487
40.7935
41.8911
42.6737
43.0856
43.0872
42.6562
41.7871
40.4871
38.7695
36.6449
34.11
31.1375
27.6659
23.5908
18.7586
12.9633
5.94637
-2.59866
-13.0158
-25.67
-40.9227
-59.1005
-80.458
-105.136
-133.123
-164.218
-198.009
-233.86
-270.929
-308.188
-344.475
-378.546
-409.146
-435.065
-455.209
-468.651
-474.688
-472.881
-463.095
-445.524
-420.695
-389.457
-352.941
-312.495
-269.6
-225.778
-182.486
-141.035
-102.512
-67.7407
-37.2583
-11.3281
10.0318
27.0036
39.9188
49.2091
55.3627
58.8909
60.3047
60.0991
58.7443
56.6789
54.3039
51.9744
49.9901
48.5843
47.9136
48.0499
48.9778
50.5972
52.7338
55.1556
57.5959
59.7782
61.4432
62.3728
62.4107
61.4753
59.5656
56.7591
53.2016
49.0916
44.6603
40.1489
35.7875
31.775
28.2646
25.3535
23.0791
21.4207
20.3061
19.6222
19.2287
18.9722
18.7015
18.2808
17.6015
16.5912
15.219
13.4967
11.4767
9.24586
6.9158
4.61154
2.45871
0.570961
-0.961084
-2.0784
-2.75888
-3.01909
-2.91263
-2.52557
-1.96986
-1.37545
-0.882195
-0.632055
-0.762148
-1.39859
-2.65091
-4.60671
-7.32602
-10.8354
-15.1221
-20.1279
-25.7452
-31.8139
-38.1223
-44.4113
-50.3834
-55.7179
-60.09
-63.1956
-64.7781
-64.655
-62.7409
-59.0644
-53.7747
-47.1364
-39.5129
-31.3382
-23.0814
-15.2054
-8.12658
-2.17906
2.41315
5.55177
7.26704
7.70721
7.11626
5.80266
4.10281
2.34328
0.806252
-0.298256
-0.850238
-0.825878
-0.291447
0.614067
1.70518
2.78117
3.65788
4.19516
4.31593
4.01421
3.35109
2.44007
1.42444
0.451078
-0.355109
-0.911645
-1.1909
-1.22272
-1.08729
-0.899741
-0.7892
-0.875797
-1.24907
-1.95102
-2.9661
-4.21953
-5.58368
-6.8918
-7.95667
-8.59196
-8.63323
-7.95627
-6.49055
-4.22658
-1.21657
2.43138
6.56453
11.0007
15.5453
20.0086
24.2196
28.0379
31.3582
34.1119
36.2633
37.8023
38.7369
39.0855
38.8706
38.1156
36.8449
35.0853
32.8705
30.245
27.2679
24.0154
20.5804
17.0699
13.6
10.2882
7.246
4.56954
2.33241
0.579521
-0.67627
-1.45472
-1.80573
-1.80432
-1.54355
-1.12626
-0.656558
-0.23189
0.0636021
0.163782
0.0229165
-0.384492
-1.06655
-2.01942
-3.2352
-4.71175
-6.46404
-8.53611
-11.0131
-14.0317
-17.7886
-22.5437
-28.6186
-36.3863
-46.2542
-58.639
-73.9356
-92.481
-114.517
-140.156
-169.341
-201.829
-237.159
-274.652
-313.402
-352.295
-390.034
-425.181
-456.226
-481.66
-500.073
-510.252
-511.278
-502.615
-484.17
-456.332
-419.975
-376.424
-327.391
-274.878
-221.056
-168.129
-118.185
-73.0574
-34.1982
-2.57858
21.3682
37.7591
47.2235
50.8183
49.9045
45.9995
40.6205
35.1376
30.6534
27.9198
27.3016
28.7874
32.0425
36.4955
41.4441
46.1669
50.0245
52.5411
53.4559
52.741
50.5876
47.364
43.5543
39.6864
36.2612
33.6898
32.2484
32.0533
33.0578
35.0699
37.7865
40.838
43.8376
46.4273
48.3174
49.3134
49.3289
48.3843
46.5926
44.1352
41.2324
38.1112
34.9764
31.9876
29.2449
26.7843
24.582
22.5684
20.6459
18.7106
16.6731
14.4752
12.1011
9.58165
6.99021
4.43266
2.03168
-0.0918776
-1.83799
-3.14454
-4.00022
-4.45136
-4.60191
-4.60585
-4.65282
-4.9481
-5.68907
-7.04089
-9.11455
-11.95
-15.507
-19.6651
-24.2331
-28.9664
-33.592
-37.8346
-41.4448
-44.2213
-46.0287
-46.8054
-46.5634
-45.3798
-43.3809
-40.7233
-37.5731
-34.0875
-30.3998
-26.6113
-22.7891
-18.9694
-15.1665
-11.3832
-7.62331
-3.90151
-0.251142
3.27199
6.59
9.60709
12.217
14.3129
15.7975
16.5944
16.6567
15.9747
14.58
12.5472
9.99157
7.06407
3.9427
0.821565
-2.10215
-4.6421
-6.6366
-7.96092
-8.53709
-8.33999
-7.39916
-5.79615
-3.65745
-1.14385
1.56291
4.27477
6.81207
9.01678
10.7633
11.9661
12.583
12.6151
12.1029
11.1192
9.76002
8.1344
6.35399
4.52372
2.73428
1.05689
-0.459181
-1.78657
-2.91748
-3.85969
-4.6316
-5.25711
-5.76106
-6.16565
-6.48838
-6.7413
-6.93169
-7.06359
-7.13975
-7.16368
-7.14114
-7.08101
-6.99535
-6.89861
-6.80633
-6.73324
-6.69116
-6.68683
-6.7199
-6.78162
-6.85434
-6.91238
-6.92417
-6.85577
-6.67524
-6.35728
-5.88758
-5.26584
-4.50716
-3.64133
-2.70991
-1.76163
-0.846634
-0.0104898
0.71121
1.29676
1.74031
2.05167
2.25418
2.38105
2.47088
2.56317
2.69425
2.89424
3.18492
3.57854
4.07716
4.67214
5.34385
6.06161
6.78444
7.46315
8.04448
8.47716
8.71979
8.74938
8.56908
8.2136
7.75063
7.27722
6.91065
6.77446
6.98089
7.61199
8.70217
10.2247
12.0851
14.1219
16.1175
17.8153
18.9452
19.2504
18.5166
16.596
13.426
9.03839
3.5598
-2.79815
-9.75599
-16.9891
-24.1524
-30.9048
-36.9295
-41.9501
-45.7404
-48.13
-49.0062
-48.3145
-46.0583
-42.2997
-37.1597
-30.8184
-23.5117
-15.5259
-7.18508
1.1647
9.17735
16.5307
22.9511
28.2356
32.2682
35.0289
36.5933
37.1223
36.8431
36.0232
34.9411
33.8558
32.9799
32.4595
32.3621
32.6753
33.3146
34.1398
34.9776
35.6467
35.9827
35.8599
35.207
34.0158
32.3421
30.2971
28.0318
25.7135
23.4977
21.4957
19.743
18.1709
16.5839
14.6482
11.8919
7.7209
1.44839
-7.6606
-20.3343
-37.2324
-58.882
-85.6178
-117.531
-154.432
-195.83
-240.933
-288.669
-337.721
-386.585
-433.641
-477.222
-515.703
-547.578
-571.538
-586.545
-591.896
-587.275
-572.783
-548.95
-516.712
-477.365
-432.477
-383.78
-333.055
-281.998
-232.116
-184.643
-140.489
-100.233
-64.1544
-32.288
-4.50018
19.4343
39.7642
56.7134
70.4564
81.1191
88.7997
93.603
95.6784
95.2531
92.6524
88.3026
82.7162
76.4588
70.1056
64.1916
59.1642
55.3442
52.9013
51.8467
52.0427
53.2293
55.0616
57.1552
59.131
60.6569
61.4793
61.443
60.4972
58.6894
56.1479
53.0571
49.6292
46.076
42.5849
39.2998
36.3112
33.6531
31.3074
29.2142
27.2857
25.4221
23.5269
21.521
19.3524
17.0034
14.4917
11.869
9.21375
6.62267
4.19937
2.04286
0.236753
-1.1596
-2.11704
-2.63918
-2.76129
-2.54592
-2.07585
-1.44528
-0.750653
-0.0822818
0.481926
0.879644
1.06385
0.999394
0.657471
0.00958561
-0.977143
-2.34171
-4.12693
-6.37291
-9.10695
-12.3316
-16.013
-20.0714
-24.3777
-28.7548
-32.987
-36.8359
-40.0606
-42.4408
-43.7995
-44.0222
-43.0709
-40.9893
-37.901
-33.9987
-29.5268
-24.7593
-19.9749
-15.4333
-11.3539
-7.89935
-5.16615
-3.18194
-1.90979
-1.25848
-1.09723
-1.27304
-1.62844
-2.01778
-2.32053
-2.4503
-2.35928
-2.0379
-1.51052
-0.827954
-0.058139
0.723826
1.44508
2.04285
2.47018
2.69907
2.72118
2.54621
2.19855
1.71266
1.1279
0.483354
-0.186684
-0.855926
-1.50755
-2.13348
-2.7315
-3.30055
-3.83508
-4.31954
-4.72416
-5.00308
-5.09548
-4.92972
-4.43011
-3.52543
-2.15789
-0.291315
2.08275
4.94178
8.23242
11.8739
15.7642
19.7879
23.8251
27.7589
31.4821
34.9019
37.9412
40.5392
42.6502
44.2411
45.2897
45.7836
45.7195
45.1037
43.9539
42.3
40.186
37.67
34.8239
31.731
28.4822
25.1707
21.8859
18.7064
15.6938
12.8884
10.3071
7.94476
5.77992
3.78239
1.92367
0.187129
-1.42348
-2.87915
-4.12565
-5.08918
-5.68717
-5.84317
-5.50345
-4.65306
-3.32862
-1.62579
0.299786
2.23808
3.93573
5.11047
5.46616
4.70607
2.54225
-1.30021
-7.08396
-15.0645
-25.4974
-38.6457
-54.784
-74.1959
-97.1634
-123.945
-154.741
-189.65
-228.614
-271.362
-317.36
-365.764
-415.406
-464.793
-512.151
-555.497
-592.744
-621.838
-640.915
-648.458
-643.45
-625.497
-594.913
-552.736
-500.689
-441.074
-376.611
-310.239
-244.891
-183.284
-127.722
-79.9513
-41.0641
-11.4662
9.09527
21.4507
26.8837
26.9787
23.4556
18.0089
12.1641
7.16415
3.89362
2.84458
4.12389
7.49752
12.4642
18.3482
24.4002
29.895
34.2157
36.9169
37.7626
36.7358
34.0228
29.9754
25.058
19.7863
14.666
10.1385
6.53761
4.06426
2.77722
2.6018
3.35274
4.76765
6.54617
8.38943
10.0354
11.2862
12.0244
12.2185
11.9165
11.2302
10.3134
9.33632
8.46002
7.81462
7.48301
7.49209
7.81198
8.36282
9.02775
9.67013
10.1525
10.3551
10.1911
9.61704
8.6383
7.30709
5.71559
3.98408
2.24595
0.63147
-0.748003
-1.81374
-2.52992
-2.9096
-3.01585
-2.95784
-2.88206
-2.95913
-3.36722
-4.27324
-5.81357
-8.07628
-11.0869
-14.7998
-19.0956
-23.7876
-28.6338
-33.3567
-37.6669
-41.2895
-43.9889
-45.5914
-46.0016
-45.2108
-43.2982
-40.422
-36.8043
-32.7091
-28.4183
-24.2062
-20.3173
-16.9483
-14.2368
-12.2563
-11.0176
-10.4754
-10.5377
-11.0779
-11.9462
-12.9815
-14.0219
-14.9142
-15.5226
-15.7364
-15.4773
-14.7047
-13.42
-11.6683
-9.53709
-7.15145
-4.66521
-2.24862
-0.0730448
1.70585
2.96461
3.62604
3.669
3.13221
2.11141
0.749919
-0.776473
-2.27852
-3.5741
-4.50788
-4.96769
-4.89561
-4.29262
-3.21619
-1.77155
-0.097624
1.65036
3.31947
4.77658
5.92265
6.70232
7.10774
7.17658
6.98468
6.63462
6.24173
5.91946
5.76563
5.85096
6.211
6.84187
7.70026
8.70747
9.75716
10.726
11.4865
11.9199
11.9293
11.4504
10.459
8.97517
7.06282
4.82511
2.39635
-0.0690617
-2.40918
-4.46742
-6.10446
-7.20805
-7.70042
-7.54296
-6.73867
-5.33268
-3.41115
-1.09834
1.44842
4.04668
6.50007
8.61284
10.2071
11.1415
11.3283
10.7484
9.458
7.58868
5.33651
2.94198
0.662089
-1.26203
-2.63751
-3.34747
-3.36956
-2.78226
-1.75718
-0.5379
0.592312
1.3497
1.49089
0.849716
-0.635316
-2.90694
-5.79062
-9.01168
-12.226
-15.0605
-17.1581
-18.2217
-18.0519
-16.5728
-13.8444
-10.058
-5.5169
-0.603858
4.26028
8.66196
12.2386
14.7155
15.932
15.8541
14.5723
12.2862
9.27794
5.87894
2.43372
-0.733983
-3.34932
-5.20609
-6.17703
-6.21506
-5.34706
-3.66254
-1.29953
1.56974
4.75193
8.04312
11.2369
14.1304
16.5297
18.2547
19.147
19.0777
17.9581
15.7503
12.4761
8.22365
3.14782
-2.53452
-8.55654
-14.6192
-20.4136
-25.645
-30.0567
-33.4493
-35.695
-36.7432
-36.6184
-35.4109
-33.2618
-30.3447
-26.8468
-22.9529
-18.8322
-14.6296
-10.4629
-6.4227
-2.57642
1.027
4.35164
7.37017
10.0609
12.4068
14.3956
16.0223
17.2908
18.2167
18.8284
19.1675
19.2872
19.2492
19.1198
18.9644
18.8425
18.8028
18.8789
19.0869
19.4237
19.867
20.3765
20.8961
21.3568
21.6803
21.7823
21.5758
20.9733
19.8875
18.2302
15.9087
12.8189
8.83786
3.81489
-2.4358
-10.1392
-19.558
-30.9852
-44.7289
-61.0906
-80.3385
-102.676
-128.211
-156.922
-188.627
-222.963
-259.368
-297.072
-335.106
-372.325
-407.444
-439.096
-465.899
-486.543
-499.877
-505.001
-501.352
-488.769
-467.532
-438.363
-402.396
-361.098
-316.168
-269.413
-222.616
-177.414
-135.195
-97.0265
-63.615
-35.3062
-12.1122
6.23461
20.2113
30.4283
37.5553
42.2559
45.1369
46.7145
47.397
47.4831
47.1722
46.5828
45.7752
44.7742
43.5905
42.2367
40.7393
39.1444
37.5202
35.9535
34.545
33.4011
32.6249
32.3058
32.51
33.2713
34.5826
36.3915
38.5973
41.0534
43.5732
45.9414
47.929
49.3122
49.8925
49.5168
48.0951
45.6126
42.1354
37.8073
32.8395
27.4921
22.0499
16.7964
11.9878
7.83048
4.46436
1.95446
0.290489
-0.605493
-0.864761
-0.653242
-0.150943
0.467785
1.0507
1.47889
1.67168
1.58485
1.20296
0.527446
-0.437541
-1.6986
-3.28348
-5.24617
-7.66529
-10.6354
-14.2524
-18.5948
-23.7037
-29.5648
-36.0968
-43.1456
-50.4902
-57.8562
-64.9384
-71.4276
-77.0402
-81.5446
-84.7814
-86.6757
-87.2381
-86.5566
-84.7792
-82.0917
-78.6923
-74.7681
-70.4762
-65.932
-61.2051
-56.3245
-51.2903
-46.0899
-40.7157
-35.1817
-29.5346
-23.8592
-18.2757
-12.9311
-7.98338
-3.5844
0.139197
3.10202
5.27152
6.67331
7.38939
7.54972
7.3183
6.8756
6.39971
6.04864
5.94578
6.17039
6.75375
7.68142
8.90058
10.3314
11.8805
13.4548
14.9734
16.3772
17.6342
18.74
19.7146
20.5951
21.4259
22.2473
23.0849
23.9411
24.79
25.5768
26.2221
26.63
26.7001
26.3403
25.4798
24.0798
22.1408
19.7057
16.8578
13.7144
10.4162
7.11544
3.96151
1.08834
-1.39664
-3.42003
-4.94609
-5.97642
-6.54619
-6.7179
-6.57342
-6.20503
-5.70609
-5.16167
-4.63991
-4.18473
-3.8111
-3.50393
-3.22127
-2.90224
-2.47912
-1.89209
-1.1044
-0.115326
1.03191
2.24927
3.41102
4.36857
4.97087
5.08754
4.63088
3.57312
1.95596
-0.109414
-2.4522
-4.86031
-7.10483
-8.96708
-10.2646
-10.8723
-10.7371
-9.88269
-8.40547
-6.46251
-4.25265
-1.99415
0.0984077
1.83514
3.06746
3.69868
3.68795
3.04772
1.83563
0.142368
-1.92265
-4.24589
-6.72265
-9.26677
-11.8161
-14.3331
-16.8005
-19.2142
-21.5723
-23.8653
-26.067
-28.129
-29.9794
-31.5261
-32.6651
-33.2914
-33.3121
-32.6584
-31.2964
-29.2335
-26.5206
-23.2488
-19.5427
-15.5488
-11.4231
-7.3173
-3.36666
0.320242
3.66826
6.63894
9.23002
11.4718
13.4207
15.1514
16.7477
18.2934
19.8638
21.5183
23.295
25.207
27.2415
29.3609
31.5064
33.6036
35.5694
37.3195
38.7756
39.8722
40.5608
40.8126
40.6182
39.9855
38.9351
37.494
35.6883
33.536
31.0382
28.1721
24.8831
21.0787
16.6224
11.3296
4.96514
-2.75582
-12.1627
-23.6186
-37.503
-54.1865
-73.9989
-97.1911
-123.893
-154.074
-187.502
-223.722
-262.038
-301.524
-341.047
-379.311
-414.91
-446.404
-472.394
-491.603
-502.959
-505.678
-499.328
-483.89
-459.78
-427.852
-389.355
-345.861
-299.161
-251.134
-203.61
-158.245
-116.408
-79.1041
-46.9356
-20.1067
1.53866
18.4461
31.263
40.743
47.6561
52.7124
56.5067
59.4877
61.9497
64.0451
65.812
67.2101
68.1589
68.5731
68.3902
67.5883
66.1937
64.2782
61.95
59.3384
56.5779
53.7924
51.0832
48.5212
46.1434
43.9553
41.9362
40.0464
38.2372
36.4583
34.666
32.8281
30.9265
28.9578
26.9315
24.8667
22.788
20.7208
18.6874
16.704
14.778
12.9071
11.0796
9.2759
7.47029
5.63451
3.74101
1.76655
-0.30472
-2.47917
-4.75306
-7.1138
-9.54303
-12.0212
-14.5327
-17.0708
-19.6409
-22.2613
-24.9612
-27.7754
-30.7379
-33.873
-37.188
-40.6667
-44.2663
-47.9178
-51.5301
-54.9979
-58.2118
-61.0691
-63.4844
-65.3975
-66.7777
-67.6228
-67.6228
-67.6228
-67.6228
-67.6228
-67.6228
-67.6228
-67.6228
-67.6228
-67.6228
-67.6228
-67.6228
-67.6228
-67.6228
-67.6228
-67.6228
-67.6228
-67.6228
-67.6228
-67.6228
