26.4381
-27.8313
-85.7447
-144.439
-200.628
-250.928
-292.212
-321.959
-338.545
-341.424
-331.199
-309.545
-279.011
-242.731
-204.059
-166.207
-131.899
-103.103
-80.863
-65.2462
-55.4096
-49.769
-46.2476
-42.5698
-36.5626
-26.4297
-10.9665
10.3046
37.0912
68.3786
102.557
137.611
171.337
201.578
226.429
244.409
254.579
256.593
250.693
237.644
218.63
195.119
168.716
141.014
113.469
87.2947
63.3957
42.3341
24.3356
9.32623
-3.00563
-13.132
-21.6026
-28.9662
-35.7044
-42.1845
-48.6331
-55.1316
-61.6318
-67.9856
-73.9843
-79.4009
-84.0299
-87.7187
-90.3892
-92.0464
-92.7754
-92.728
-92.1025
-91.1204
-90.0018
-88.9453
-88.111
-87.6103
-87.5004
-87.7841
-88.4142
-89.2994
-90.3125
-91.299
-92.0843
-92.4814
-92.2978
-91.343
-89.4383
-86.429
-82.1996
-76.6907
-69.9158
-61.9742
-53.0585
-43.4518
-33.5153
-23.6645
-14.3369
-5.95376
1.11929
6.60756
10.3546
12.3375
12.6677
11.5782
9.39719
6.51295
3.33316
0.244134
-2.42551
-4.43279
-5.63703
-6.00418
-5.59907
-4.56731
-3.10994
-1.45406
0.176388
1.58669
2.63112
3.22499
3.34807
3.04015
2.39019
1.52133
0.574435
-0.307309
-0.991014
-1.36278
-1.33246
-0.835168
0.169314
1.69789
3.74525
6.28405
9.26398
12.6102
16.2216
19.9703
23.7027
27.2424
30.3966
32.9647
34.7486
35.566
35.2629
33.7271
30.9
26.7869
21.4641
15.0826
7.86811
0.116124
-7.81782
-15.5327
-22.6018
-28.5976
-33.1206
-35.8316
-36.4848
-34.9587
-31.281
-25.6412
-18.3863
-9.99212
-1.00542
8.04555
16.7698
25.051
33.1838
41.9825
52.8282
67.6244
88.6399
118.232
158.469
210.69
275.069
350.249
433.133
518.882
601.176
672.717
725.956
753.959
751.29
714.814
644.272
542.555
415.607
271.946
121.87
-23.5808
-153.767
-259.557
-334.258
-374.267
-379.349
-352.542
-299.681
-228.647
-148.409
-68.0116
4.39436
62.3431
101.603
120.427
119.499
101.609
71.1142
33.2663
-6.49277
-43.1928
-72.8713
-92.9342
-102.314
-101.426
-91.9503
-76.4757
-58.0754
-39.8601
-24.573
-14.2696
-10.1145
-12.3083
-20.1424
-32.1626
-46.4112
-60.7113
-72.9535
-81.3489
-84.6209
-82.1171
-73.8337
-60.3595
-42.7507
-22.3616
-0.653898
20.989
41.4207
59.8465
75.8864
89.5814
101.351
111.908
122.148
133.023
145.417
160.034
177.314
197.377
220.001
244.643
270.486
296.511
321.594
344.6
364.474
380.329
391.495
397.555
398.347
393.946
384.621
370.786
352.948
331.657
307.474
280.946
252.606
222.972
192.564
161.913
131.568
102.094
74.0541
47.9875
24.3727
3.59154
-14.1042
-28.6181
-40.0216
-48.5491
-54.578
-58.5934
-61.1417
-62.7804
-64.0268
-65.3151
-66.9641
-69.1598
-71.9543
-75.2789
-78.9702
-82.8042
-86.5336
-89.9247
-92.7875
-94.999
-96.5136
-97.3637
-97.6483
-97.513
-97.1234
-96.6367
-96.1741
-95.7985
-95.5005
-95.1941
-94.7232
-93.8777
-92.4183
-90.1063
-86.7345
-82.1574
-76.315
-69.2487
-61.106
-52.1347
-42.6656
-33.0859
-23.8061
-15.2239
-7.68902
-1.47222
3.25731
6.44453
8.14944
8.53648
7.85395
6.40569
4.51868
2.5101
0.65762
-0.824004
-1.79772
-2.20925
-2.08256
-1.50692
-0.617681
0.426441
1.46664
2.36517
3.02218
3.38665
3.46102
3.29942
3.00046
2.69573
2.53572
2.67478
3.25678
4.40293
6.20274
8.70867
11.9345
15.8568
20.4193
25.538
31.1071
37.0043
43.0948
49.2344
55.2707
61.0442
66.3897
71.138
75.1204
78.1739
80.149
80.9195
80.3916
78.5142
75.2863
70.7626
65.0547
58.3293
50.8007
42.7191
34.3564
25.9878
17.8735
10.2401
3.26534
-2.93493
-8.31321
-12.8919
-16.7575
-20.0478
-22.9284
-25.5592
-28.0462
-30.3783
-32.3506
-33.4799
-32.9261
-29.4388
-21.3548
-6.66805
16.8068
51.1757
98.1233
158.523
232.05
316.867
409.451
504.611
595.75
675.367
735.762
769.882
772.192
739.466
671.366
570.726
443.469
298.153
145.187
-4.19431
-139.076
-249.986
-329.858
-374.711
-383.976
-360.432
-309.771
-239.851
-159.756
-78.7546
-5.31587
53.7327
93.7978
112.82
111.265
91.829
58.9182
17.9796
-25.2239
-65.3061
-97.8373
-119.754
-129.567
-127.365
-114.626
-93.8903
-68.3381
-41.3402
-16.033
5.02982
20.1168
28.431
30.0966
26.035
17.7585
7.1158
-3.97268
-13.7564
-20.8449
-24.3297
-23.8297
-19.4635
-11.7617
-1.53618
10.2709
22.7366
35.086
46.7845
57.5862
67.5351
76.9241
86.222
95.9808
106.739
118.934
132.836
148.509
165.803
184.373
203.724
223.268
242.384
260.479
277.022
291.579
303.808
313.45
320.305
324.197
324.948
322.367
316.244
306.371
292.581
274.797
253.084
227.702
199.138
168.12
135.595
102.68
70.5803
40.4959
13.5115
-9.50225
-27.9706
-41.6668
-50.7281
-55.6316
-57.1357
-56.1927
-53.8432
-51.1076
-48.8846
-47.8695
-48.501
-50.9389
-55.0758
-60.5764
-66.9393
-73.5727
-79.8726
-85.2957
-89.4189
-91.9792
-92.8909
-92.2416
-90.2675
-87.3139
-83.7868
-80.1018
-76.6359
-73.6893
-71.4579
-70.0217
-69.3464
-69.2981
-69.6668
-70.1964
-70.6158
-70.6683
-70.1352
-68.8532
-66.7234
-63.713
-59.8516
-55.222
-49.9497
-44.1906
-38.1202
-31.9229
-25.7829
-19.8768
-14.3662
-9.39115
-5.06515
-1.46972
1.34893
3.38177
4.65676
5.23633
5.21261
4.70094
3.83187
2.74254
1.56804
0.433298
-0.553748
-1.30721
-1.76615
-1.89488
-1.68058
-1.12821
-0.253118
0.927924
2.40631
4.19041
6.31222
8.83052
11.8292
15.41
19.6801
24.734
30.6328
37.3823
44.9122
53.0608
61.5677
70.0759
78.1471
85.2885
90.9916
94.7785
96.2521
95.144
91.3534
84.9716
76.288
65.7745
54.0503
41.8279
29.849
18.8146
9.32
1.79986
-3.50799
-6.57764
-7.58703
-6.88859
-4.96281
-2.36074
0.357967
2.68552
4.22153
4.72317
4.1528
2.72738
0.973208
-0.215606
0.475495
4.80864
14.9665
33.4393
62.7985
105.35
162.68
235.156
321.452
418.217
519.973
619.336
707.574
775.478
814.444
817.631
781.005
704.11
590.432
447.264
285.078
116.474
-45.1728
-187.176
-298.927
-373.022
-406.002
-398.598
-355.483
-284.569
-195.963
-100.72
-9.56882
68.2539
125.9
159.465
168.158
154.082
121.703
77.0789
26.9817
-21.9875
-64.1699
-95.4285
-113.481
-117.969
-110.284
-93.1885
-70.3086
-45.5706
-22.6567
-4.55029
6.7825
10.5471
7.10794
-2.17349
-15.2136
-29.5488
-42.694
-52.4692
-57.2551
-56.1518
-49.0283
-36.4665
-19.6176
0.00327197
20.751
41.0808
59.7435
75.9243
89.3107
100.086
108.859
116.536
124.17
132.801
143.309
156.303
172.057
190.492
211.202
233.522
256.615
279.57
301.497
321.598
339.221
353.884
365.269
373.198
377.597
378.458
375.799
369.642
360.007
346.917
330.42
310.616
287.695
261.961
233.855
203.966
173.015
141.835
111.328
82.4079
55.935
32.6502
13.109
-2.37195
-13.7512
-21.274
-25.457
-27.0444
-26.939
-26.1146
-25.5196
-25.9816
-28.1264
-32.319
-38.6356
-46.8682
-56.5614
-67.0765
-77.674
-87.6022
-96.1835
-102.885
-107.367
-109.504
-109.377
-107.244
-103.488
-98.5641
-92.9328
-87.0139
-81.1464
-75.5681
-70.4123
-65.7203
-61.4655
-57.5838
-54.0053
-50.6811
-47.6024
-44.8074
-42.3771
-40.4189
-39.0419
-38.3271
-38.2985
-38.8992
-39.9777
-41.288
-42.5036
-43.2452
-43.1194
-41.7627
-38.886
-34.3124
-28.0049
-20.0777
-10.7922
-0.534466
10.2199
20.9519
31.1494
40.3559
48.2131
54.4905
59.1015
62.1032
63.6805
64.1175
63.7609
62.9771
62.1127
61.4579
61.2214
61.5159
62.357
63.6746
65.3336
67.1612
68.9774
70.6214
71.9736
72.9672
73.5911
73.8806
73.9012
73.7253
73.407
72.9588
72.3332
71.4145
70.0207
67.9195
64.854
60.579
54.8994
47.7091
39.0208
28.9846
17.8897
6.14928
-5.73055
-17.1944
-27.688
-36.709
-43.8536
-48.8523
-51.5922
-52.1238
-50.6521
-47.5114
-43.1253
-37.9495
-32.3988
-26.7555
-21.0612
-15.0006
-7.79334
1.88121
15.8908
36.5541
66.4132
107.869
162.699
231.524
313.303
404.97
501.325
595.234
678.189
741.177
775.759
775.218
735.601
656.482
541.314
397.302
234.771
66.1347
-95.4438
-237.487
-349.571
-424.429
-458.674
-453.036
-412.113
-343.68
-257.666
-164.926
-75.9922
0.0658238
56.5245
89.5535
98.3812
85.0904
54.097
11.4017
-36.2755
-82.3647
-121.212
-148.659
-162.39
-162.015
-148.911
-125.871
-96.6099
-65.2082
-35.5701
-10.9573
6.35001
15.2367
15.7736
9.08978
-2.87328
-17.6825
-32.7626
-45.7273
-54.6525
-58.2637
-56.0221
-48.1078
-35.315
-18.8792
-0.267262
19.039
37.7373
54.8548
69.838
82.5785
93.3766
102.855
111.84
121.222
131.83
144.319
159.092
176.258
195.634
216.775
239.032
261.627
283.727
304.516
323.256
339.327
352.242
361.655
367.347
369.205
367.202
361.384
351.855
338.78
322.386
302.972
280.919
256.689
230.824
203.933
176.664
149.682
123.626
99.075
76.516
56.3163
38.7068
23.7767
11.479
1.64689
-5.9822
-11.7371
-15.9815
-19.0833
-21.3876
-23.1951
-24.7477
-26.2208
-27.7231
-29.3021
-30.9543
-32.6388
-34.292
-35.842
-37.2211
-38.3767
-39.2774
-39.9166
-40.3125
-40.5043
-40.5467
-40.5023
-40.4332
-40.3925
-40.4175
-40.5229
-40.6978
-40.9042
-41.0786
-41.1367
-40.9807
-40.5088
-39.6262
-38.2559
-36.3496
-33.8957
-30.9244
-27.5083
-23.7594
-19.8205
-15.8539
-12.0272
-8.49865
-5.40288
-2.83972
-0.866305
0.506054
1.31025
1.61742
1.52739
1.15696
0.62727
0.0518962
-0.473227
-0.87698
-1.11684
-1.17916
-1.07624
-0.840902
-0.519369
-0.163457
0.177042
0.461099
0.66183
0.770248
0.797273
0.773978
0.750173
0.791516
0.97546
1.3864
2.11039
3.2298
4.81811
6.93506
9.62244
12.9004
16.7649
21.186
26.1072
31.4465
37.097
42.9295
48.794
54.5222
59.9306
64.8242
69.0033
72.2717
74.4489
75.3837
74.9691
73.1569
69.9689
65.5036
59.9357
53.5089
46.5203
39.2991
32.1806
25.4795
19.4636
14.3337
10.2091
7.12227
5.02189
3.78394
3.22876
3.14217
3.29902
3.48882
3.54525
3.38387
3.05288
2.80114
3.16256
5.04731
9.81939
19.3289
35.8613
61.9674
100.155
152.449
219.861
301.856
395.915
497.306
599.176
692.984
769.299
818.856
833.751
808.598
741.457
634.387
493.501
328.513
151.791
-22.9391
-182.091
-313.709
-408.752
-462.029
-472.642
-443.919
-382.858
-299.159
-203.996
-108.691
-23.4498
43.6768
87.5117
106.072
100.49
74.5781
34.109
-14.0605
-62.9177
-106.147
-138.818
-157.831
-162.104
-152.49
-131.468
-102.667
-70.2961
-38.5623
-11.1461
9.20551
20.9304
23.7308
18.489
7.04489
-8.12329
-24.2671
-38.7341
-49.2871
-54.3424
-53.1046
-45.5912
-32.5546
-15.3201
4.43256
24.9114
44.4487
61.7018
75.7979
86.4106
93.7636
98.5673
101.901
105.055
109.362
116.024
125.967
139.735
157.434
178.72
202.851
228.769
255.22
280.882
304.493
324.958
341.433
353.368
360.51
362.883
360.734
354.465
344.56
331.527
315.838
297.907
278.072
256.611
233.759
209.748
184.836
159.337
133.645
108.233
83.6399
60.4446
39.2195
20.4833
4.64999
-8.01526
-17.4268
-23.6922
-27.106
-28.1235
-27.3184
-25.3281
-22.7943
-20.3047
-18.344
-17.2576
-17.2327
-18.2975
-20.3374
-23.1254
-26.3612
-29.7151
-32.8696
-35.5556
-37.5782
-38.8307
-39.297
-39.0418
-38.1929
-36.9181
-35.3995
-33.8099
-32.2932
-30.9508
-29.8348
-28.9489
-28.2546
-27.6819
-27.1434
-26.5475
-25.8122
-24.875
-23.6994
-22.2778
-20.6299
-18.7979
-16.8404
-14.8234
-12.8133
-10.8699
-9.04174
-7.36356
-5.85585
-4.52641
-3.37291
-2.38597
-1.55192
-0.854823
-0.277233
0.200107
0.599544
0.94821
1.27955
1.63408
2.05892
2.60592
3.32835
4.27661
5.49355
7.00998
8.84118
10.9848
13.4208
16.1125
19.0102
22.0554
25.1852
28.3376
31.4558
34.4917
37.4089
40.1841
42.8096
45.2944
47.6656
49.9705
52.2761
54.6681
57.2461
60.116
63.3785
67.115
71.3716
76.1436
81.362
86.8847
92.4921
97.8914
102.727
106.602
109.1
109.826
108.439
104.694
98.4725
89.8173
78.94
66.2216
52.1922
37.4932
22.8265
8.89386
-3.66437
-14.326
-22.7309
-28.7086
-32.2853
-33.6707
-33.2266
-31.4183
-28.7516
-25.6965
-22.5969
-19.5681
-16.3845
-12.3689
-6.30403
3.60444
19.6763
44.5829
81.0306
131.309
196.746
277.15
370.342
471.906
575.23
671.925
752.591
807.864
829.613
812.107
752.972
653.771
520.105
361.195
188.98
16.8543
-141.801
-275.086
-373.866
-432.705
-450.337
-429.629
-377.061
-301.813
-214.578
-126.277
-46.8288
15.8755
56.6834
73.5153
67.3097
41.6169
1.92143
-45.2039
-92.9921
-135.313
-167.347
-186.027
-190.232
-180.716
-159.816
-131.001
-98.3235
-65.8575
-37.1933
-15.0434
-0.998994
4.5497
2.33508
-5.99703
-18.1884
-31.7136
-44.1217
-53.3323
-57.8529
-56.9
-50.4181
-39.0067
-23.7722
-6.13453
12.3853
30.3663
46.6552
60.482
71.5174
79.8697
86.0301
90.7781
95.0634
99.8812
106.154
114.636
125.841
140.002
157.065
176.706
198.37
221.326
244.733
267.701
289.355
308.887
325.594
338.907
348.404
353.805
354.97
351.876
344.605
333.324
318.279
299.783
278.221
254.046
227.779
200.01
171.383
142.581
114.298
87.2069
61.9211
38.9598
18.7139
1.42219
-12.8404
-24.1615
-32.775
-39.0331
-43.368
-46.2492
-48.1397
-49.4568
-50.5412
-51.637
-52.8842
-54.3234
-55.9112
-57.5429
-59.0799
-60.3768
-61.3067
-61.7798
-61.7553
-61.2456
-60.3127
-59.0591
-57.6143
-56.1193
-54.7103
-53.504
-52.5853
-51.9964
-51.7312
-51.7327
-51.8945
-52.0688
-52.0776
-51.7294
-50.8392
-49.2487
-46.8469
-43.586
-39.4922
-34.6682
-29.2881
-23.5833
-17.8219
-12.2839
-7.23442
-2.89872
0.558361
3.04598
4.55277
5.14374
4.94951
4.14924
2.94985
1.56384
0.188321
-1.01247
-1.91959
-2.46585
-2.63599
-2.46127
-2.00941
-1.37151
-0.647459
0.0685065
0.700596
1.20156
1.55921
1.79884
1.98153
2.19844
2.56162
3.19243
4.20851
5.71102
7.77332
10.4327
13.686
17.4897
21.7648
26.4052
31.2892
36.2925
41.3012
46.2223
50.9921
55.5798
59.9865
64.2396
68.3828
72.4626
76.5134
80.5425
84.5179
88.359
91.9345
95.065
97.5345
99.1061
99.5444
98.6403
96.2365
92.2503
86.6919
79.6732
71.4082
62.2008
52.424
42.4896
32.8136
23.7792
15.7035
8.8103
3.21233
-1.09467
-4.22616
-6.39092
-7.86206
-8.93763
-9.89053
-10.9068
-12.0103
-12.9748
-13.227
-11.755
-7.04311
2.93284
20.6157
48.6522
89.5415
145.164
216.241
301.819
398.874
502.16
604.374
696.688
769.61
814.093
822.739
790.917
717.611
605.864
462.697
298.525
126.1
-40.8579
-189.18
-307.701
-388.468
-427.536
-425.277
-386.161
-318.063
-231.211
-136.905
-46.1908
31.3501
88.555
121.282
128.609
112.642
77.9769
30.9261
-21.3986
-72.0055
-114.844
-145.431
-161.234
-161.776
-148.484
-124.323
-93.2782
-59.7589
-28.0156
-1.62778
16.8741
26.2222
26.4478
18.7547
5.25894
-11.3585
-28.2365
-42.7043
-52.5927
-56.454
-53.6709
-44.451
-29.7185
-10.9258
10.1855
31.8364
52.4449
70.8126
86.244
98.5893
108.211
115.884
122.654
129.661
137.979
148.464
161.646
177.683
196.349
217.088
239.099
261.439
283.142
303.318
321.232
336.352
348.363
357.148
362.746
365.299
364.988
361.978
356.38
348.225
337.468
324.005
307.714
288.504
266.37
241.445
214.041
184.671
154.044
123.042
92.67
63.9769
37.9771
15.5593
-2.59455
-16.0727
-24.7734
-28.913
-29.0032
-25.7992
-20.2243
-13.2814
-5.96069
0.846577
6.41733
10.2442
12.0566
11.8161
9.68833
5.99781
1.17207
-4.31654
-10.0048
-15.4824
-20.4228
-24.598
-27.8808
-30.2343
-31.6943
-32.3477
-32.3104
-31.7084
-30.6631
-29.2829
-27.6586
-25.8642
-23.9595
-21.9937
-20.0097
-18.0464
-16.1403
-14.3256
-12.6334
-11.09
-9.71572
-8.52372
-7.51928
-6.69968
-6.05456
-5.56655
-5.21211
-4.96258
-4.78529
-4.6449
-4.50496
-4.32971
-4.08617
-3.74646
-3.29019
-2.70673
-1.99712
-1.17537
-0.268816
0.682486
1.62761
2.50776
3.26048
3.8251
4.14944
4.19747
3.95729
3.44856
2.72769
1.88967
1.06506
0.411836
0.102227
0.305851
1.17108
2.80715
5.26941
8.55019
12.5766
17.2159
22.2888
27.5882
32.9018
38.0366
42.8402
47.2183
51.1438
54.658
57.8613
60.8962
63.9222
67.0873
70.4972
74.1872
78.1009
82.0782
85.8564
89.085
91.3548
92.2388
91.3405
88.3452
83.0671
75.4865
65.7695
54.2695
41.5059
28.1227
14.832
2.34704
-8.6863
-17.7508
-24.506
-28.8165
-30.7583
-30.6035
-28.7854
-25.8492
-22.3926
-19.0002
-16.1739
-14.2589
-13.3635
-13.2726
-13.3593
-12.5037
-9.04339
-0.782954
14.9005
40.8266
79.6436
133.34
202.688
286.714
382.3
484.04
584.423
674.393
744.259
784.835
788.684
751.255
671.751
553.551
404.117
234.361
57.5433
-112.157
-261.211
-378.24
-455.251
-488.447
-478.525
-430.424
-352.591
-255.865
-152.135
-52.9572
31.6971
94.4291
131.019
140.611
125.494
90.5202
42.2832
-11.8381
-64.6342
-109.904
-143.087
-161.628
-165.065
-154.841
-133.914
-106.209
-76.0125
-47.3946
-23.7105
-7.25379
0.920551
0.995266
-5.76738
-17.3051
-31.1073
-44.587
-55.4216
-61.8237
-62.7125
-57.775
-47.4215
-32.6509
-14.8549
4.40658
23.6272
41.5441
57.2746
70.3892
80.9181
89.2978
96.2717
102.762
109.733
118.06
128.428
141.256
156.665
174.482
194.275
215.414
237.146
258.673
279.223
298.11
314.77
328.786
339.883
347.914
352.83
354.647
353.413
349.18
341.99
331.874
318.86
302.996
284.379
263.182
239.678
214.251
187.396
159.709
131.853
104.525
78.4115
54.1406
32.2425
13.1145
-3.00208
-16.0321
-26.0628
-33.327
-38.176
-41.0446
-42.4116
-42.7612
-42.5472
-42.1632
-41.9226
-42.0471
-42.6649
-43.8185
-45.4773
-47.5562
-49.935
-52.4776
-55.0485
-57.5254
-59.8066
-61.8148
-63.4956
-64.814
-65.7484
-66.2847
-66.4106
-66.1115
-65.3674
-64.1529
-62.4377
-60.1903
-57.3822
-53.9931
-50.0175
-45.4699
-40.3909
-34.8517
-28.9567
-22.8449
-16.6878
-10.6843
-5.05226
-0.0158252
4.2097
7.43609
9.52139
10.3889
10.0439
8.58505
6.20968
3.2083
-0.0515129
-3.15307
-5.66901
-7.20671
-7.45559
-6.22993
-3.50058
0.589892
5.73231
11.4769
17.2779
22.5516
26.7406
29.3759
30.1294
28.8501
25.579
20.5433
14.1286
6.83621
-0.771726
-8.13014
-14.7261
-20.1443
-24.0995
-26.4507
-27.1995
-26.4718
-24.4869
-21.5185
-17.8541
-13.7558
-9.43028
-5.00979
-0.546809
3.97735
8.63157
13.5049
18.6717
24.1581
29.9131
35.7924
41.555
46.8767
51.3793
54.6711
56.3959
56.2809
54.1797
50.1017
44.2243
36.8859
28.5587
19.8067
11.2316
3.41531
-3.13472
-8.03095
-11.0364
-12.0782
-11.2441
-8.7633
-4.97636
-0.298682
4.81882
9.92901
14.6278
18.5965
21.6511
23.8051
25.3458
26.9215
29.6248
35.0478
45.275
62.7795
90.1935
129.945
183.782
252.245
334.173
426.35
523.406
618.031
701.55
764.807
799.268
798.186
757.654
677.379
561.023
416.058
253.11
84.873
-75.2616
-214.691
-322.998
-393.076
-421.844
-410.463
-364.046
-290.905
-201.462
-106.965
-18.173
55.8062
108.416
136.181
138.83
119.035
81.8144
33.7182
-18.107
-66.8329
-106.743
-133.818
-146.054
-143.514
-128.109
-103.183
-72.9504
-41.8853
-14.1287
7.0074
19.389
22.2321
16.0915
2.68502
-15.4118
-35.1516
-53.4271
-67.4565
-75.0984
-75.0636
-67.0073
-51.5018
-29.9023
-4.13152
23.5841
50.9915
76.0693
97.2372
113.499
124.51
130.566
132.521
131.659
129.524
127.735
127.809
131.007
138.218
149.882
165.971
186.01
209.151
234.262
260.052
285.188
308.408
328.616
344.944
356.789
363.82
365.95
363.305
356.165
344.919
330.013
311.914
291.084
267.974
243.021
216.664
189.359
161.593
133.891
106.816
80.949
56.8685
35.1096
16.1251
0.245629
-12.353
-21.6693
-27.8808
-31.3303
-32.4968
-31.9525
-30.3121
-28.1803
-26.1014
-24.5199
-23.7527
-23.9759
-25.2276
-27.4232
-30.3808
-33.8537
-37.5638
-41.2342
-44.6164
-47.5099
-49.7746
-51.3342
-52.1731
-52.3274
-51.8726
-50.9089
-49.5477
-47.8986
-46.06
-44.112
-42.1133
-40.1011
-38.0928
-36.0902
-34.0843
-32.0598
-30.0003
-27.8914
-25.7237
-23.4947
-21.2094
-18.8807
-16.5286
-14.18
-11.8668
-9.62479
-7.49084
-5.50064
-3.68539
-2.06856
-0.662825
0.532206
1.53112
2.36214
3.06477
3.6857
4.27352
4.87289
5.51935
6.2355
7.02949
7.89592
8.81899
9.77696
10.7469
11.7083
12.6453
13.5468
14.4039
15.2067
15.9408
16.5843
17.1061
17.4674
17.6253
17.5392
17.1792
16.5353
15.6263
14.5069
13.2712
12.0532
11.0206
10.365
10.2864
10.9739
12.5849
15.2234
18.9217
23.6264
29.1911
35.3765
41.8588
48.2457
54.099
58.9635
62.4001
64.0208
63.5244
60.7274
55.5892
48.2261
38.9124
28.0672
16.2268
4.00497
-7.95582
-19.0363
-28.6912
-36.4928
-42.1634
-45.594
-46.8467
-46.1431
-43.8392
-40.3898
-36.3061
-32.1067
-28.2629
-25.1382
-22.9168
-21.5218
-20.5239
-19.0492
-15.7049
-8.55062
4.84839
27.2535
61.4479
109.798
173.721
253.127
345.947
447.857
552.3
650.865
734.034
792.226
817.004
802.283
745.335
647.435
514.017
354.296
180.383
6.0107
-154.974
-290.143
-389.846
-448.217
-463.708
-439.095
-380.978
-298.847
-203.864
-107.516
-20.3178
49.2808
95.6686
116.451
112.419
87.1459
46.2931
-3.2717
-54.4124
-100.604
-136.654
-159.184
-166.848
-160.277
-141.788
-114.914
-83.8365
-52.7907
-25.5281
-4.89285
7.44555
11.0863
6.82291
-3.5738
-17.6735
-32.7568
-46.1858
-55.7296
-59.8086
-57.6335
-49.2332
-35.3764
-17.408
2.97329
23.9619
43.885
61.4044
75.6596
86.3395
93.6802
98.3946
101.55
104.412
108.273
114.295
123.369
136.021
152.363
172.089
194.52
218.687
243.432
267.532
289.814
309.26
325.078
336.758
344.076
347.081
346.043
341.39
333.633
323.298
310.858
296.69
281.055
264.091
245.842
226.293
205.418
183.243
159.884
135.59
110.754
85.9078
61.6892
38.7932
17.9073
-0.357056
-15.5285
-27.3275
-35.6977
-40.8135
-43.0621
-43.0035
-41.3122
-38.7094
-35.8923
-33.4705
-31.9153
-31.5268
-32.4225
-34.5462
-37.6944
-41.5565
-45.763
-49.9338
-53.7234
-56.8553
-59.1451
-60.5085
-60.9566
-60.5799
-59.5242
-57.9626
-56.0692
-53.9949
-51.8521
-49.7062
-47.5767
-45.4453
-43.2684
-40.9935
-38.5742
-35.9821
-33.2151
-30.2993
-27.2857
-24.2427
-21.2455
-18.3655
-15.6602
-13.1662
-10.8967
-8.84248
-6.97757
-5.26677
-3.6748
-2.17468
-0.754048
0.581832
1.81061
2.89689
3.79894
4.47659
4.8992
5.05189
4.93921
4.58566
4.0328
3.33397
2.54724
1.72815
0.923383
0.1665
-0.523687
-1.14189
-1.69276
-2.18566
-2.62918
-3.02619
-3.37073
-3.6472
-3.8318
-3.89616
-3.81201
-3.55614
-3.11453
-2.4847
-1.6758
-0.706474
0.399467
1.61843
2.93281
4.33593
5.83532
7.4537
9.22728
11.2017
13.4258
15.945
18.7941
21.9914
25.5352
29.4023
33.5491
37.9148
42.4254
46.9982
51.546
55.9795
60.2085
64.1418
67.685
70.739
73.1971
74.9445
75.8594
75.8173
74.7002
72.4075
68.8719
64.074
58.0571
50.9359
42.8996
34.206
25.1666
16.124
7.42314
-0.620084
-7.749
-13.7918
-18.6788
-22.4497
-25.2478
-27.3027
-28.8994
-30.3344
-31.8593
-33.611
-35.5291
-37.2647
-38.0874
-36.8055
-31.7197
-20.6425
-1.01164
29.8746
74.4913
134.608
210.753
301.7
404.097
512.331
618.734
714.145
788.814
833.541
840.903
806.38
729.198
612.737
464.425
295.1
117.911
-53.0883
-204.491
-325.002
-406.644
-445.547
-442.229
-401.348
-330.988
-241.568
-144.545
-51.0805
29.1823
89.0625
124.433
134.405
121.112
89.1606
44.832
-4.83688
-52.9799
-93.7153
-122.761
-137.795
-138.535
-126.564
-104.94
-77.6577
-49.0477
-23.1894
-3.40984
8.07794
10.3639
3.85128
-9.89877
-28.4524
-48.873
-68.1214
-83.4357
-92.6456
-94.389
-88.214
-74.5636
-54.6561
-30.2845
-3.56584
23.3255
48.4086
70.1042
87.3804
99.8267
107.653
111.625
112.937
113.06
113.56
115.931
121.436
130.993
145.096
163.789
186.679
212.997
241.675
271.459
301.015
329.041
354.356
375.969
393.13
405.337
412.336
414.082
410.7
402.439
389.621
372.613
351.804
327.602
300.449
270.835
239.326
206.572
173.318
140.38
108.618
78.8845
51.9651
28.517
9.01306
-6.3001
-17.4232
-24.6018
-28.2994
-29.1498
-27.8942
-25.3097
-22.1394
-19.0299
-16.4837
-14.8307
-14.22
-14.6316
-15.9047
-17.7782
-19.9364
-22.0554
-23.8443
-25.0766
-25.6096
-25.3914
-24.455
-22.904
-20.8904
-18.5908
-16.1822
-13.8217
-11.6326
-9.69563
-8.04813
-6.68801
-5.58222
-4.6773
-3.91035
-3.21865
-2.5471
-1.85275
-1.10659
-0.293165
0.591212
1.5408
2.5425
3.57729
4.62078
5.64333
6.6099
7.48048
8.21146
8.75824
9.07919
9.14052
8.92147
8.41892
7.65064
6.65633
5.49612
4.24638
2.99331
1.82482
0.821982
0.0507278
-0.444853
-0.646999
-0.565905
-0.238353
0.276457
0.903313
1.5588
2.15958
2.63013
2.90917
2.95408
2.74311
2.27521
1.56775
0.652641
-0.428794
-1.63128
-2.91094
-4.22968
-5.55824
-6.87727
-8.1764
-9.45125
-10.6989
-11.9124
-13.0755
-14.1584
-15.1156
-15.8862
-16.3975
-16.5715
-16.3338
-15.6237
-14.4046
-12.6732
-10.4656
-7.86064
-4.97675
-1.96573
0.998878
3.7364
6.07544
7.87033
9.01571
9.45762
9.2
8.30589
6.89321
5.12591
3.20136
1.33545
-0.253218
-1.35843
-1.79976
-1.43327
-0.158806
2.07593
5.27469
9.39465
14.3506
20.0204
26.2519
32.8703
39.6854
46.5001
53.1178
59.3497
65.0221
69.9817
74.0998
77.2762
79.4402
80.552
80.6019
79.6096
77.6232
74.7168
70.9885
66.5571
61.558
56.1377
50.4469
44.6334
38.8346
33.1706
27.7398
22.6162
17.849
13.4648
9.4711
5.86024
2.61294
-0.299226
-2.91234
-5.26792
-7.40692
-9.35447
-11.0891
-12.4899
-13.2597
-12.826
-10.2354
-4.06564
7.60748
27.1484
57.1685
100.185
158.144
231.865
320.488
421.047
528.279
634.769
731.469
808.567
856.621
867.802
837.065
763.053
648.595
500.672
329.858
149.273
-26.8134
-184.543
-311.989
-400.446
-445.312
-446.466
-408.111
-338.112
-246.937
-146.353
-48.0424
37.6831
102.916
142.833
155.962
144.032
111.464
64.5844
10.6926
-42.9017
-89.7475
-124.932
-145.505
-150.622
-141.421
-120.661
-92.2085
-60.4382
-29.6346
-3.46764
15.3996
25.5376
26.7995
20.2056
7.69422
-8.2158
-24.8006
-39.4935
-50.19
-55.4638
-54.6753
-47.9702
-36.1795
-20.6433
-2.9891
15.1038
32.1229
46.8992
58.724
67.3988
73.2184
76.8959
79.4444
82.0328
85.8355
91.8934
101.001
113.629
129.891
149.548
172.047
196.593
222.23
247.938
272.71
295.634
315.944
333.047
346.538
356.182
361.891
363.682
361.646
355.909
346.611
333.899
317.929
298.882
276.995
252.577
226.043
197.917
168.837
139.539
110.817
83.484
58.3064
35.9486
16.914
1.50115
-10.2215
-18.4178
-23.4614
-25.8898
-26.3427
-25.4906
-23.965
-22.2979
-20.8797
-19.9392
-19.547
-19.6411
-20.0669
-20.627
-21.1302
-21.4334
-21.4697
-21.26
-20.9061
-20.5688
-20.4354
-20.6814
-21.4337
-22.7418
-24.5594
-26.7414
-29.0556
-31.2076
-32.8759
-33.7521
-33.5813
-32.1965
-29.5426
-25.6874
-20.8173
-15.2193
-9.25024
-3.29955
2.2521
7.07132
10.904
13.5968
15.1063
15.4955
14.9178
13.5935
11.779
9.73595
7.70196
5.86682
4.35687
3.22816
2.46865
2.00829
1.73495
1.51364
1.20663
0.691822
-0.122349
-1.2868
-2.80694
-4.64309
-6.71562
-8.91382
-11.1076
-13.1604
-14.9425
-16.343
-17.2792
-17.7037
-17.6068
-17.0163
-15.9928
-14.6227
-13.0094
-11.2631
-9.49081
-7.78805
-6.23174
-4.87596
-3.75023
-2.86048
-2.19214
-1.71498
-1.3889
-1.16994
-1.01582
-0.890423
-0.766904
-0.629127
-0.471582
-0.297935
-0.118594
0.0522928
0.199962
0.311919
0.380299
0.40353
0.387259
0.344539
0.295376
0.265757
0.286338
0.391044
0.615894
0.998367
1.57749
2.39463
3.49447
4.92561
6.73983
8.98933
11.7215
14.9718
18.7546
23.055
27.8215
32.9621
38.3455
43.8063
49.1564
54.1992
58.7467
62.637
65.7494
68.0158
69.4258
70.0253
69.9084
69.2031
68.0527
66.5967
64.9526
63.2024
61.385
59.496
57.4941
55.3132
52.8778
50.1195
46.991
43.4769
39.5982
35.4109
30.9975
26.4539
21.8714
17.3174
12.8166
8.33833
3.79431
-0.945278
-6.01092
-11.4621
-17.183
-22.7519
-27.2994
-29.3852
-26.9315
-17.257
2.74609
36.2711
86.0977
153.98
240.013
342.087
455.565
573.299
686.034
783.22
854.152
889.288
881.571
827.542
728.065
588.535
418.514
230.825
40.2124
-138.252
-290.812
-406.507
-478.297
-503.71
-484.923
-428.316
-343.549
-242.316
-136.934
-38.9558
42.0403
99.3363
129.564
132.763
112.044
72.9145
22.3931
-31.9688
-83.0339
-124.879
-153.367
-166.444
-164.151
-148.381
-122.438
-90.4712
-56.8671
-25.6828
-0.182838
17.4729
26.3691
26.8036
20.1094
8.36643
-5.94612
-20.3086
-32.4836
-40.766
-44.1368
-42.3117
-35.6885
-25.2118
-12.1801
1.97394
15.8981
28.5036
39.0958
47.4411
53.7667
58.7007
63.1632
68.2281
74.9724
84.334
96.9934
113.293
133.197
156.304
181.889
208.987
236.492
263.27
288.257
310.546
329.455
344.552
355.659
362.822
366.264
366.312
363.334
357.67
349.582
339.228
326.656
311.825
294.651
275.055
253.028
228.686
202.306
174.348
145.452
116.403
88.081
61.3861
37.1644
16.1292
-1.20372
-14.562
-23.9378
-29.5815
-31.9687
-31.7469
-29.666
-26.5033
-22.9908
-19.7533
-17.2617
-15.809
-15.5051
-16.2939
-17.9844
-20.2942
-22.8962
-25.4653
-27.7168
-29.436
-30.4938
-30.8503
-30.5457
-29.6831
-28.405
-26.8683
-25.2207
-23.5815
-22.0296
-20.5981
-19.2764
-18.0178
-16.7524
-15.401
-13.8893
-12.1603
-10.1827
-7.9555
-5.50786
-2.89546
-0.194066
2.50844
5.12006
7.55189
9.72377
11.5679
13.0309
14.0737
14.6716
14.8127
14.4979
13.7404
12.5672
11.0206
9.16028
7.06523
4.83361
2.58113
0.436534
-1.46564
-2.99466
-4.03484
-4.49726
-4.33046
-3.52889
-2.13777
-0.253482
1.98098
4.38528
6.75518
8.87896
10.5551
11.6098
11.9123
11.3867
10.0194
7.86091
5.02269
1.66869
-1.99748
-5.74857
-9.35176
-12.587
-15.264
-17.2372
-18.4155
-18.7685
-18.3265
-17.1759
-15.4494
-13.3133
-10.9528
-8.55596
-6.29953
-4.33683
-2.78858
-1.73694
-1.22191
-1.23939
-1.73973
-2.62664
-3.75699
-4.94274
-5.9568
-6.54429
-6.44011
-5.39217
-3.18843
0.315378
5.17155
11.3236
18.6006
26.7243
35.3297
43.9969
52.2911
59.8044
66.1963
71.2248
74.7668
76.8228
77.5078
77.0288
75.6521
73.6667
71.3463
68.9176
66.5358
64.2723
62.1143
59.9758
57.7189
55.1812
52.2065
48.6733
44.5191
39.7544
34.468
28.8197
23.0242
17.3263
11.9722
7.1801
3.11321
-0.14035
-2.57874
-4.28544
-5.41333
-6.15021
-6.66182
-7.00967
-7.04445
-6.28275
-3.7849
1.93698
12.9423
31.7761
61.2397
104.008
162.114
236.356
325.736
427.031
534.637
640.751
735.956
810.15
853.74
858.931
820.91
738.748
615.858
459.899
282.139
96.3243
-82.7905
-241.062
-366.514
-450.622
-489.174
-482.599
-435.737
-357.108
-257.782
-150.013
-45.8177
44.33
112.533
154.126
167.909
155.948
123.016
75.7628
21.7411
-31.5813
-77.7032
-111.766
-130.965
-134.665
-124.239
-102.684
-74.0635
-42.8891
-13.5008
10.4623
26.4513
33.2201
30.8535
20.6254
4.72249
-14.1188
-33.0079
-49.2754
-60.7836
-66.1392
-64.7919
-57.0177
-43.801
-26.6386
-7.29907
12.4286
30.9655
47.1244
60.2246
70.1324
77.227
82.3047
86.4376
90.8101
96.5546
104.61
115.615
129.857
147.257
167.418
189.692
213.277
237.316
260.986
283.558
304.443
323.191
339.478
353.063
363.743
371.316
375.551
376.181
372.922
365.512
353.756
337.587
317.116
292.663
264.779
234.232
201.973
169.078
136.678
105.872
77.6514
52.8251
31.9676
15.385
3.1066
-5.09891
-9.68675
-11.2826
-10.6191
-8.46918
-5.58243
-2.62989
-0.16192
1.41867
1.86752
1.09436
-0.854337
-3.82247
-7.57745
-11.8455
-16.3458
-20.8193
-25.0519
-28.8883
-32.2368
-35.0656
-37.3906
-39.2583
-40.7256
-41.8403
-42.625
-43.0685
-43.1245
-42.7191
-41.7646
-40.1796
-37.9082
-34.9388
-31.3165
-27.1479
-22.5969
-17.8723
-13.2084
-8.84166
-4.98627
-1.8123
0.570931
2.12405
2.87861
2.92995
2.42307
1.5338
0.447753
-0.660359
-1.64431
-2.39907
-2.8674
-3.03985
-2.94877
-2.65768
-2.24752
-1.80224
-1.39547
-1.08021
-0.882633
-0.80066
-0.807081
-0.856502
-0.894839
-0.869783
-0.740604
-0.485819
-0.107628
0.367488
0.892033
1.40411
1.83641
2.12638
2.226
2.10998
1.78116
1.27223
0.643665
-0.0220801
-0.629271
-1.07944
-1.28236
-1.16592
-0.683641
0.181365
1.41649
2.98388
4.82806
6.88596
9.09738
11.4145
13.8086
16.2731
18.8221
21.4855
24.301
27.3041
30.5193
33.9523
37.5851
41.374
45.2507
49.1254
52.8905
56.4251
59.5991
62.2777
64.326
65.6153
66.0306
65.4791
63.9006
61.2766
57.6383
53.0709
47.7139
41.7552
35.4209
28.9591
22.6213
16.6425
11.2219
6.50745
2.58465
-0.527612
-2.87552
-4.56255
-5.73671
-6.57338
-7.25324
-7.93355
-8.70884
-9.55667
-10.265
-10.3423
-8.92089
-4.67195
4.23338
20.0801
45.4448
82.8882
134.511
201.413
283.146
377.254
479.036
581.62
676.403
753.851
804.572
820.534
796.231
729.629
622.723
481.601
315.985
138.29
-37.6735
-198.199
-331.173
-427.368
-481.385
-492.119
-462.715
-400.031
-313.695
-214.9
-115.076
-24.6309
48.1101
97.6443
121.645
120.919
98.9975
61.4481
15.0106
-33.3245
-77.1752
-111.468
-132.907
-140.183
-133.912
-116.352
-90.939
-61.7339
-32.842
-7.89087
10.3817
20.3869
21.7753
15.3639
2.92531
-13.1217
-30.073
-45.3003
-56.5704
-62.2854
-61.6232
-54.5703
-41.853
-24.785
-5.05757
15.4965
35.1356
52.4101
66.3115
76.3573
82.6075
85.6185
86.3457
86.0109
85.9542
87.4869
91.761
99.6674
111.767
128.259
148.98
173.435
200.849
230.237
260.473
290.37
318.749
344.495
366.61
384.242
396.714
403.537
404.417
399.258
388.161
371.423
349.525
323.126
293.043
260.228
225.729
190.651
156.096
123.115
92.6462
65.4631
42.1323
22.9834
8.09515
-2.69919
-9.78922
-13.7476
-15.2774
-15.1504
-14.142
-12.9691
-12.2355
-12.3896
-13.6987
-16.2411
-19.9165
-24.4723
-29.5437
-34.7021
-39.5072
-43.5565
-46.528
-48.2113
-48.5252
-47.5197
-45.3648
-42.3261
-38.7323
-34.9388
-31.2899
-28.0855
-25.5548
-23.8389
-22.9842
-22.9454
-23.5984
-24.7596
-26.2097
-27.7196
-29.0745
-30.0949
-30.6513
-30.6728
-30.1479
-29.119
-27.671
-25.9163
-23.9781
-21.9741
-20.0028
-18.1337
-16.403
-14.814
-13.3425
-11.9458
-10.574
-9.18051
-7.73216
-6.21554
-4.63984
-3.03572
-1.45063
0.0583749
1.43291
2.62126
3.58476
4.30182
4.76902
4.99957
5.01962
4.86337
4.56786
4.16837
3.69514
3.17162
2.61445
2.03488
1.44107
0.840828
0.244225
-0.334532
-0.876108
-1.35616
-1.74646
-2.01681
-2.13733
-2.08084
-1.82468
-1.35197
-0.651883
0.281102
1.44881
2.85176
4.49208
6.37634
8.5179
10.938
13.665
16.7313
20.1679
23.9973
28.2254
32.8343
37.7764
42.9723
48.3123
53.6616
58.8682
63.7732
68.2198
72.0614
75.1661
77.4193
78.7223
78.991
78.1541
76.1536
72.9478
68.5184
62.88
56.0915
48.2676
39.5873
30.2983
20.7148
11.2083
2.18981
-5.91496
-12.6966
-17.7981
-20.9523
-22.0189
-21.0147
-18.1345
-13.7526
-8.40167
-2.71935
2.64016
7.13117
10.4716
12.8126
14.8963
18.1659
24.7871
37.5406
59.5593
93.907
143.026
208.124
288.595
381.592
481.871
581.982
672.844
744.669
788.134
795.631
762.422
687.505
574.036
429.229
263.725
90.4936
-76.5842
-224.258
-341.381
-420.112
-456.696
-451.742
-409.965
-339.46
-250.609
-154.784
-63.0052
15.2633
73.0503
106.451
114.789
100.385
67.9866
23.9598
-24.6391
-70.9861
-109.296
-135.421
-147.195
-144.496
-129.047
-104.019
-73.4803
-41.7988
-13.0561
9.44088
23.5075
28.2561
24.0922
12.5508
-3.99362
-22.695
-40.6285
-55.159
-64.241
-66.6195
-61.917
-50.6052
-33.8744
-13.4267
8.77746
30.7823
50.8784
67.7943
80.8181
89.842
95.3277
98.2074
99.7343
101.308
104.298
109.883
118.93
131.921
148.923
169.611
193.329
219.178
246.11
273.032
298.889
322.738
343.788
361.425
375.211
384.871
390.268
391.37
388.227
380.944
369.671
354.599
335.96
314.037
289.184
261.83
232.498
201.802
170.448
139.209
108.903
80.3488
54.3203
31.4929
12.3926
-2.64686
-13.5159
-20.3419
-23.4828
-23.499
-21.1068
-17.117
-12.3652
-7.64108
-3.62354
-0.830237
0.415177
-0.00587805
-2.0174
-5.3786
-9.72836
-14.6383
-19.6676
-24.4131
-28.5489
-31.8519
-34.2118
-35.6256
-36.1794
-36.0218
-35.3326
-34.2931
-33.0607
-31.7515
-30.4323
-29.1213
-27.797
-26.4118
-24.908
-23.2335
-21.3542
-19.262
-16.9779
-14.55
-12.0479
-9.55448
-7.15674
-4.93731
-2.96734
-1.30169
0.0235461
0.991455
1.60304
1.87508
1.83749
1.53083
1.00386
0.311325
-0.488236
-1.3349
-2.17002
-2.93909
-3.59474
-4.09946
-4.42778
-4.56748
-4.51974
-4.29806
-3.92613
-3.43481
-2.8588
-2.2333
-1.59116
-0.960657
-0.364342
0.18138
0.665872
1.08344
1.43231
1.71366
1.93087
2.08886
2.19373
2.2522
2.27102
2.25605
2.2113
2.13799
2.0339
1.89357
1.70932
1.47344
1.1813
0.835234
0.44845
0.0485074
-0.320429
-0.597115
-0.704868
-0.555332
-0.0540752
0.89252
2.36971
4.44684
7.17032
10.5578
14.5939
19.2279
24.3744
29.9157
35.7075
41.586
47.3765
52.9016
57.9895
62.4804
66.2309
69.118
71.0405
71.9211
71.7085
70.3796
67.9429
64.4422
59.9606
54.6221
48.5919
42.0722
35.2941
28.5054
21.9541
15.8706
10.4491
5.83106
2.09314
-0.759209
-2.79136
-4.13219
-4.96033
-5.48473
-5.91937
-6.45057
-7.19381
-8.13583
-9.05912
-9.45049
-8.40349
-4.53566
4.0474
19.7023
45.0758
82.7883
134.98
202.766
285.672
381.186
484.517
588.68
684.956
763.715
815.511
832.323
808.736
742.885
636.995
497.414
334.103
159.65
-12.0843
-167.493
-294.731
-384.991
-433.406
-439.451
-406.821
-342.818
-257.344
-161.644
-66.9694
16.668
81.5101
122.724
138.674
130.799
103.135
61.5741
12.9738
-35.7604
-78.5094
-110.595
-129.195
-133.484
-124.526
-104.933
-78.3846
-49.0473
-21.0073
2.23713
18.1577
25.4207
23.9419
14.7825
-0.085785
-18.105
-36.4964
-52.6192
-64.2801
-69.96
-68.9396
-61.3169
-47.9237
-30.1598
-9.77106
11.3984
31.6466
49.6206
64.4645
75.8972
84.212
90.2053
95.0442
100.095
106.733
116.158
129.24
146.41
167.603
192.271
219.447
247.856
276.062
302.621
326.235
345.872
360.856
370.907
376.124
376.938
374.011
368.132
360.093
350.581
340.098
328.911
317.043
304.302
290.344
274.755
257.146
237.239
214.934
190.359
163.88
136.082
107.728
79.6859
52.8597
28.104
6.15297
-12.4382
-27.3336
-38.4333
-45.8678
-49.9722
-51.2422
-50.2796
-47.7314
-44.2311
-40.3459
-36.5373
-33.1362
-30.3361
-28.2023
-26.6953
-25.7037
-25.082
-24.6858
-24.4025
-24.1704
-23.9856
-23.8971
-23.9899
-24.3604
-25.0892
-26.2149
-27.7139
-29.4907
-31.3794
-33.1583
-34.573
-35.3682
-35.3204
-34.269
-32.1395
-28.9567
-24.8458
-20.0201
-14.7591
-9.37849
-4.19614
0.500183
4.48085
7.59416
9.7761
11.0495
11.5135
11.3251
10.676
9.76763
8.78808
7.89272
7.19135
6.74218
6.55281
6.58738
6.77815
7.0397
7.28349
7.43092
7.42326
7.22756
6.83819
6.27429
5.57416
4.78755
3.96723
3.16103
2.40549
1.72171
1.11392
0.570712
0.0685335
-0.423079
-0.935463
-1.49482
-2.11706
-2.80429
-3.54329
-4.30634
-5.05416
-5.74072
-6.31922
-6.7485
-6.99892
-7.05696
-6.92784
-6.6356
-6.22056
-5.73451
-5.23392
-4.77238
-4.39304
-4.12218
-3.96488
-3.90319
-3.89729
-3.88923
-3.80886
-3.58103
-3.13297
-2.40062
-1.333
0.106404
1.94123
4.18648
6.85438
9.96007
13.5256
17.5802
22.1566
27.2815
32.9629
39.1737
45.8359
52.8064
59.8694
66.7357
73.0526
78.4242
82.4412
84.7176
84.9315
82.8643
78.4329
71.7117
62.9385
52.5049
40.9283
28.8106
16.7857
5.46374
-4.62338
-13.0676
-19.6164
-24.1877
-26.8656
-27.8804
-27.574
-26.3568
-24.6589
-22.8801
-21.337
-20.2065
-19.4608
-18.7916
-17.5265
-14.5492
-8.2444
3.49837
23.1879
53.5089
96.9626
155.387
229.414
317.944
417.763
523.405
627.339
720.537
793.362
836.707
843.204
808.348
731.322
615.406
467.873
299.36
122.793
-47.9982
-199.801
-321.456
-405.048
-446.675
-446.736
-409.692
-343.369
-257.903
-164.47
-73.9858
4.08903
62.6764
97.6638
108.091
95.9517
65.6627
23.2981
-24.304
-70.4385
-109.326
-136.717
-150.244
-149.516
-135.956
-112.435
-82.7612
-51.1139
-21.4801
2.82171
19.4888
27.4203
26.7348
18.6357
5.15519
-11.1794
-27.7069
-41.9745
-52.0209
-56.5706
-55.1247
-47.9469
-35.9563
-20.5492
-3.37724
13.8858
29.761
43.1394
53.3973
60.4441
64.7019
67.0243
68.5695
70.6446
74.5412
81.3827
91.9984
106.837
125.929
148.891
174.982
203.183
232.306
261.107
288.391
313.104
334.395
351.653
364.504
372.796
376.555
375.938
371.181
362.563
350.373
334.902
316.444
295.312
271.853
246.471
219.637
191.887
163.819
136.06
109.24
83.9458
60.6852
39.8489
21.6855
6.28907
-6.39804
-16.5675
-24.5145
-30.5982
-35.198
-38.6715
-41.3186
-43.3569
-44.9102
-46.0132
-46.6286
-46.6765
-46.0708
-44.7551
-42.7365
-40.1069
-37.0525
-33.8457
-30.8215
-28.3406
-26.7428
-26.2983
-27.1638
-29.3489
-32.7
-36.9048
-41.517
-46
-49.7852
-52.3353
-53.2079
-52.108
-48.9247
-43.7457
-36.8501
-28.6777
-19.7827
-10.7749
-2.25791
5.22891
11.2593
15.5542
17.9999
18.65
17.7121
15.5226
12.5122
9.16618
5.98053
3.41994
1.8781
1.6447
2.88132
5.60867
9.7064
14.9257
20.9135
27.2457
33.4657
39.1251
43.8219
47.2323
49.1351
49.4244
48.1127
45.3229
41.2708
36.2422
30.5638
24.5745
18.5967
12.9121
7.74276
3.23944
-0.522913
-3.54254
-5.88206
-7.65507
-9.00974
-10.1113
-11.1255
-12.2033
-13.4704
-15.0189
-16.9044
-19.1444
-21.7209
-24.5816
-27.6437
-30.7961
-33.903
-36.8089
-39.3457
-41.3429
-42.6404
-43.1028
-42.6349
-41.1939
-38.7995
-35.5366
-31.5524
-27.0464
-22.2541
-17.4264
-12.8081
-8.61546
-5.01878
-2.12895
0.00849805
1.41234
2.1578
2.36316
2.17276
1.73865
1.20326
0.685204
0.269586
0.00386578
-0.100825
-0.0635223
0.0762635
0.270107
0.472311
0.650016
0.790537
0.905318
1.03046
1.22435
1.56334
2.1363
3.03884
4.36773
6.2153
8.66401
11.7806
15.6097
20.1679
25.4371
31.3598
37.8362
44.7245
51.8446
58.9865
65.9212
72.4157
78.2485
83.2248
87.19
90.0396
91.7239
92.247
91.6608
90.0536
87.5359
84.2251
80.2321
75.6505
70.5521
64.9872
58.9906
52.5917
45.8264
38.7493
31.443
24.0231
16.6388
9.46684
2.70119
-3.46105
-8.83442
-13.2572
-16.5958
-18.7344
-19.5434
-18.8204
-16.2035
-11.0641
-2.39962
11.2407
31.756
61.3783
102.412
156.829
225.754
308.915
404.173
507.237
611.68
709.306
790.875
847.116
869.901
853.404
795.077
696.262
562.342
402.373
228.235
53.3968
-108.536
-245.309
-347.34
-408.714
-427.724
-406.902
-352.554
-273.883
-181.808
-87.6586
-1.90164
66.9527
113.134
134.019
130.143
104.834
63.5608
13.0826
-39.4745
-87.4959
-125.612
-150.213
-159.699
-154.465
-136.649
-109.687
-77.7693
-45.2415
-16.0623
6.64529
20.894
25.9634
22.3634
11.6513
-3.86107
-21.4631
-38.4133
-52.274
-61.1742
-63.9765
-60.3373
-50.6644
-35.9882
-17.7718
2.3108
22.5982
41.6402
58.3508
72.104
82.7672
90.6751
96.5548
101.413
106.403
112.681
121.278
132.989
148.287
167.281
189.712
214.977
242.193
270.283
298.073
324.399
348.194
368.576
384.892
396.75
404.012
406.772
405.307
400.025
391.401
379.929
366.073
350.233
332.729
313.791
293.569
272.151
249.592
225.946
201.302
175.822
149.762
123.49
97.478
72.2884
48.5335
26.8288
7.73733
-8.28625
-20.9433
-30.1254
-35.9298
-38.6537
-38.7678
-36.8729
-33.6429
-29.764
-25.873
-22.506
-20.0584
-18.7633
-18.6868
-19.7413
-21.7126
-24.2976
-27.1464
-29.906
-32.2582
-33.9497
-34.8129
-34.7737
-33.8493
-32.1367
-29.7928
-27.012
-24.0011
-20.9562
-18.0439
-15.3878
-13.061
-11.0867
-9.44263
-8.07235
-6.89783
-5.83397
-4.80201
-3.74067
-2.61351
-1.41227
-0.155699
1.11525
2.34516
3.47339
4.44367
5.21244
5.75513
6.06941
6.17528
6.11194
5.9322
5.69527
5.45902
5.27277
5.17167
5.17334
5.277
5.46522
5.70775
5.96685
6.20308
6.38072
6.47202
6.45959
6.33673
6.10594
5.77588
5.3576
4.86069
4.29017
3.6446
2.91588
2.09079
1.15412
0.0928689
-1.09908
-2.41669
-3.84057
-5.33565
-6.85193
-8.32762
-9.69412
-10.8825
-11.8306
-12.4895
-12.8294
-12.8426
-12.5449
-11.9735
-11.1833
-10.2399
-9.2122
-8.16446
-7.14837
-6.19682
-5.3195
-4.50096
-3.70109
-2.85827
-1.89442
-0.721771
0.749423
2.60284
4.90822
7.71412
11.0418
14.8805
19.1848
23.8741
28.8344
33.9241
38.9813
43.8343
48.3144
52.2686
55.5728
58.1425
59.9399
60.9771
61.3131
61.046
60.3009
59.2134
57.9136
56.5102
55.0776
53.6493
52.2159
50.7304
49.1181
47.2917
45.1664
42.6756
39.7835
36.4926
32.8455
28.9212
24.826
20.6804
16.6051
12.707
9.06828
5.73866
2.73279
0.0314416
-2.4135
-4.67136
-6.82227
-8.94264
-11.0832
-13.2348
-15.2769
-16.9068
-17.5514
-16.2751
-11.7033
-1.99472
15.1011
42.0708
81.3296
134.789
203.345
286.357
381.236
483.227
585.504
679.602
756.199
806.152
821.677
797.482
731.686
626.362
487.599
325.049
150.999
-20.9178
-177.206
-305.984
-398.266
-448.89
-456.962
-425.801
-362.379
-276.371
-178.929
-81.367
6.09828
75.3892
121.281
141.731
137.801
113.233
73.7357
26.1157
-22.6452
-66.2406
-99.7235
-119.958
-125.806
-118.049
-99.0839
-72.4571
-42.2983
-12.7463
12.5696
30.9302
40.7744
41.7781
34.7719
21.5241
4.43018
-13.8444
-30.7181
-44.0008
-52.1221
-54.2589
-50.3569
-41.0542
-27.5264
-11.2804
6.07259
23.0341
38.3998
51.3885
61.7059
69.5452
75.528
80.5984
85.887
92.5602
101.674
114.048
130.167
150.127
173.619
199.964
228.177
257.068
285.355
311.784
335.245
354.859
370.048
380.558
386.451
388.067
385.945
380.745
373.145
363.754
353.038
341.273
328.53
314.691
299.495
282.609
263.708
242.559
219.092
193.459
166.052
137.5
108.631
80.4001
53.8083
29.8023
9.18146
-7.48166
-19.8976
-28.0852
-32.3638
-33.3138
-31.7113
-28.4442
-24.4218
-20.4863
-17.3376
-15.4785
-15.1846
-16.5007
-19.2618
-23.1348
-27.6736
-32.3808
-36.7687
-40.4126
-42.9919
-44.3149
-44.3277
-43.1066
-40.8377
-37.7862
-34.261
-30.5777
-27.0247
-23.8352
-21.1687
-19.1008
-17.6237
-16.655
-16.0541
-15.6427
-15.2285
-14.6281
-13.6884
-12.3023
-10.4204
-8.05445
-5.27589
-2.20701
0.992279
4.14128
7.05706
9.57259
11.5528
12.9069
13.5953
13.6315
13.0782
12.0383
10.642
9.03216
7.34894
5.71564
4.22783
2.94625
1.89458
1.06168
0.407962
-0.125283
-0.604921
-1.0948
-1.64574
-2.28789
-3.0261
-3.83892
-4.68093
-5.4881
-6.18538
-6.69566
-6.94903
-6.89173
-6.49385
-5.7552
-4.7091
-3.42333
-1.99816
-0.560982
0.742584
1.76122
2.35359
2.40613
1.85149
0.685034
-1.02289
-3.12175
-5.38454
-7.5215
-9.20338
-10.0925
-9.87805
-8.31216
-5.24109
-0.628162
5.43524
12.7325
20.9384
29.6474
38.4109
46.7777
54.3347
60.7405
65.751
69.2324
71.1626
71.6205
70.7667
68.8182
66.021
62.6228
58.8515
54.8979
50.9064
46.9725
43.1455
39.4366
35.8289
32.2886
28.7759
25.2541
21.6969
18.0926
14.4473
10.7843
7.14259
3.57265
0.130729
-3.12856
-6.16
-8.9338
-11.4366
-13.6625
-15.5887
-17.1295
-18.0661
-17.9538
-16.0186
-11.0621
-1.4103
15.0586
40.7684
78.1599
129.269
195.207
275.62
368.233
468.587
570.08
664.362
742.093
793.982
811.985
790.484
727.252
624.051
486.732
324.811
150.549
-22.3453
-180.212
-310.954
-405.347
-457.996
-467.808
-437.949
-375.301
-289.504
-191.734
-93.3728
-4.7386
65.9691
113.397
135.377
132.861
109.497
70.9248
23.9032
-24.6116
-68.3197
-102.266
-123.293
-130.233
-123.828
-106.437
-81.5584
-53.2732
-25.6679
-2.31517
14.1283
22.1711
21.5669
13.2325
-0.970271
-18.5488
-36.7416
-52.8799
-64.7039
-70.6013
-69.7435
-62.1169
-48.4514
-30.0675
-8.66684
13.9031
35.8803
55.788
72.5828
85.738
95.2595
101.637
105.743
108.7
111.726
115.988
122.474
131.897
144.636
160.718
179.837
201.403
224.614
248.54
272.21
294.696
315.18
333.002
347.692
358.97
366.729
371.005
371.925
369.661
364.39
356.257
345.361
331.758
315.48
296.565
275.096
251.241
225.284
197.643
168.877
139.662
110.765
82.9859
57.1047
33.8153
13.6705
-2.96375
-15.9369
-25.3213
-31.3995
-34.6309
-35.6039
-34.9779
-33.4211
-31.5531
-29.8948
-28.8338
-28.6046
-29.2874
-30.8221
-33.0351
-35.676
-38.4569
-41.0916
-43.3294
-44.9802
-45.9292
-46.141
-45.6531
-44.5622
-43.0051
-41.1371
-39.1117
-37.0636
-35.0964
-33.2766
-31.6329
-30.1605
-28.8295
-27.5941
-26.4025
-25.2061
-23.965
-22.6525
-21.2556
-19.7741
-18.2173
-16.6014
-14.9454
-13.2692
-11.5922
-9.93283
-8.30918
-6.74011
-5.24606
-3.84946
-2.57416
-1.44395
-0.480104
0.301544
0.893592
1.29947
1.53471
1.62661
1.61213
1.53418
1.43656
1.35844
1.32908
1.36365
1.46099
1.60371
1.76068
1.89182
1.95438
1.90993
1.73092
1.40587
0.942255
0.366594
-0.278306
-0.938584
-1.55619
-2.0763
-2.45405
-2.65956
-2.6804
-2.52124
-2.2008
-1.74669
-1.18922
-0.555363
0.136167
0.877712
1.67304
2.53539
3.4837
4.53797
5.71479
7.02393
8.46691
10.0377
11.7257
13.52
15.415
17.4145
19.5357
21.8093
24.2779
26.991
29.9982
33.3405
37.042
41.1026
45.492
50.1475
54.974
59.8471
64.6185
69.1237
73.19
76.6444
79.321
81.0665
81.7455
81.2447
79.4786
76.3958
71.9873
66.2947
59.4189
51.5248
42.842
33.6579
24.3044
15.1366
6.50718
-1.26192
-7.90662
-13.2429
-17.1812
-19.7318
-20.999
-21.1668
-20.4751
-19.1885
-17.5563
-15.7607
-13.8515
-11.6633
-8.71988
-4.13615
3.4588
15.9445
35.639
65.102
106.796
162.616
233.351
318.147
414.102
516.093
616.931
707.88
779.51
822.798
830.333
797.428
722.982
609.925
465.164
299.015
124.173
-45.6388
-197.169
-319.088
-403.202
-445.271
-445.34
-407.562
-339.543
-251.316
-154.091
-58.9438
24.3949
88.5045
128.898
144.249
136.233
109.025
68.5493
21.5903
-25.1113
-65.6687
-95.6741
-112.58
-115.814
-106.635
-87.7818
-62.9707
-36.3188
-11.7775
7.35951
18.8188
21.5486
15.7487
2.74393
-15.2702
-35.5653
-55.2534
-71.6477
-82.5682
-86.5623
-83.0211
-72.186
-55.0556
-33.2113
-8.58729
16.7823
41.0091
62.5612
80.4161
94.1433
103.911
110.422
114.793
118.388
122.641
128.876
138.155
151.161
168.139
188.88
212.765
238.849
265.969
292.876
318.356
341.34
360.986
376.723
388.263
395.57
398.815
398.3
394.393
387.455
377.797
365.651
351.17
334.449
315.556
294.578
271.661
247.037
221.042
194.111
166.766
139.582
113.151
88.0403
64.7611
43.7323
25.2615
9.53323
-3.39328
-13.5769
-21.1807
-26.4526
-29.7033
-31.2827
-31.5575
-30.8897
-29.6188
-28.0467
-26.4272
-24.9592
-23.7836
-22.9843
-22.5928
-22.5948
-22.9403
-23.5543
-24.3485
-25.2332
-26.1276
-26.9683
-27.7155
-28.3547
-28.895
-29.3634
-29.7952
-30.2225
-30.6618
-31.1045
-31.5097
-31.8034
-31.8831
-31.6279
-30.9127
-29.6257
-27.6843
-25.0498
-21.7371
-17.8182
-13.4198
-8.71431
-3.90515
0.790691
5.16258
9.02538
12.2363
14.7074
16.4125
17.3874
17.7236
17.5559
17.0451
16.3581
15.6477
15.0352
14.5968
14.3565
14.286
14.312
14.3284
14.2134
13.848
13.1339
12.008
10.4519
8.49518
6.21172
3.71075
1.12282
-1.4165
-3.78315
-5.8791
-7.64269
-9.0536
-10.1317
-10.9306
-11.5258
-12.0016
-12.4357
-12.8874
-13.388
-13.9367
-14.5023
-15.0293
-15.4485
-15.6894
-15.6932
-15.4227
-14.8698
-14.0571
-13.0347
-11.8723
-10.648
-9.43504
-8.28997
-7.24248
-6.28971
-5.39538
-4.49384
-3.49845
-2.31274
-0.842649
0.991963
3.24818
5.95426
9.10794
12.6784
16.6118
20.8384
25.2815
29.8656
34.5227
39.1974
43.8476
48.4426
52.9586
57.3704
61.6441
65.7275
69.5445
72.9906
75.9343
78.2222
79.6892
80.1726
79.5292
77.6525
74.4887
70.0489
64.4164
57.7468
50.2619
42.2373
33.9845
25.83
18.0925
11.0608
4.97425
0.00611173
-3.74826
-6.27882
-7.66334
-8.06502
-7.7243
-6.94384
-6.06418
-5.42746
-5.32548
-5.92943
-7.20021
-8.78327
-9.89823
-9.24362
-4.94602
5.41012
24.6364
55.6535
101.063
162.611
240.612
333.435
437.178
545.611
650.499
742.274
811.043
847.779
845.553
800.602
713.075
587.309
431.584
257.368
78.1371
-92.0738
-240.198
-355.547
-430.916
-463.262
-453.872
-408.026
-334.205
-242.984
-145.735
-53.3324
24.9998
82.5636
115.701
123.913
109.602
77.4967
33.8596
-14.4102
-60.6627
-99.2636
-126.162
-139.208
-138.209
-124.739
-101.755
-73.0816
-42.8433
-14.9161
7.53094
22.3613
28.6345
26.6038
17.5665
3.59812
-12.7836
-28.9762
-42.6252
-51.8931
-55.6372
-53.4835
-45.7971
-33.5634
-18.2024
-1.34649
15.3899
30.6178
43.3367
53.0368
59.7335
63.9357
66.5553
68.7747
71.8874
77.1356
85.5602
97.8827
114.429
135.101
159.398
186.481
215.263
244.526
273.035
299.647
323.395
343.549
359.638
371.447
378.982
382.422
382.057
378.223
371.25
361.424
348.961
334.009
316.659
296.977
275.044
250.989
225.034
197.518
168.907
139.794
110.871
82.8938
56.6221
32.765
11.9175
-5.49105
-19.2356
-29.3143
-35.9448
-39.54
-40.6637
-39.9733
-38.1554
-35.8623
-33.6561
-31.9667
-31.0668
-31.0666
-31.9264
-33.4839
-35.4927
-37.6652
-39.7155
-41.3947
-42.5189
-42.9827
-42.7621
-41.9052
-40.5146
-38.725
-36.679
-34.5064
-32.3077
-30.1446
-28.039
-25.977
-23.9195
-21.815
-19.6135
-17.2782
-14.795
-12.1768
-9.46374
-6.71947
-4.0238
-1.46373
0.876201
2.92259
4.62011
5.93587
6.861
7.40979
7.6166
7.53159
7.21562
6.73521
6.15794
5.54843
4.96516
4.45796
4.06614
3.81706
3.72524
3.79198
4.00573
4.3434
4.77279
5.25615
5.7546
6.23276
6.66285
7.02712
7.31816
7.53656
7.68637
7.7689
7.77637
7.68656
7.45984
7.0396
6.35653
5.33649
3.91132
2.0311
-0.323795
-3.13265
-6.32805
-9.79444
-13.3725
-16.8689
-20.0718
-22.7691
-24.7696
-25.9221
-26.1334
-25.3792
-23.7095
-21.2457
-18.1701
-14.7086
-11.1087
-7.61468
-4.44341
-1.76315
0.322256
1.78187
2.658
3.05859
3.14272
3.10102
3.13354
3.42761
4.13834
5.37401
7.18776
9.57646
12.4864
15.8248
19.4748
23.3123
27.2217
31.1079
34.9046
38.5762
42.1154
45.5361
48.8638
52.1263
55.344
58.5243
61.6577
64.7171
67.6581
70.4197
72.9249
75.0795
76.7711
77.8692
78.2278
77.6928
76.1145
73.3649
69.358
64.0706
57.5592
49.9701
41.5395
32.5822
23.469
14.5958
6.34645
-0.944331
-7.02422
-11.7479
-15.0901
-17.145
-18.1114
-18.2644
-17.9128
-17.3416
-16.7384
-16.1031
-15.1421
-13.1577
-8.95117
-0.767243
13.6819
37.0775
72.2152
121.583
186.83
268.191
363.978
470.238
580.706
687.104
779.819
848.905
885.285
881.991
835.258
745.284
616.53
457.474
279.855
97.4657
-75.33
-225.169
-341.143
-415.948
-446.58
-434.516
-385.352
-307.985
-213.444
-113.542
-19.5213
59.1525
115.693
146.52
151.371
133.004
96.5848
48.8354
-2.92174
-51.6964
-91.6352
-118.608
-130.53
-127.395
-111.063
-84.8323
-52.8808
-19.6599
10.686
34.8008
50.4516
56.6888
53.8316
43.2968
27.3093
8.54222
-10.2613
-26.6359
-38.6697
-45.1823
-45.7913
-40.8698
-31.411
-18.8263
-4.70778
9.41039
22.2603
32.9942
41.2691
47.2558
51.5793
55.2022
59.2725
64.9571
73.283
85.006
100.521
119.822
142.511
167.856
194.882
222.48
249.534
275.024
298.124
318.259
335.129
348.702
359.165
366.853
372.167
375.483
377.067
377.022
375.249
371.458
365.197
355.919
343.073
326.197
305.013
279.509
249.992
217.108
181.821
145.357
109.11
74.5276
42.9839
15.653
-6.59559
-23.2741
-34.3141
-40.0609
-41.2263
-38.8055
-33.9684
-27.9378
-21.8698
-16.7477
-13.3021
-11.9636
-12.8514
-15.7966
-20.3947
-26.0785
-32.2017
-38.1224
-43.2759
-47.2303
-49.7204
-50.6565
-50.1125
-48.2947
-45.5001
-42.068
-38.3346
-34.5939
-31.0702
-27.9037
-25.1496
-22.7883
-20.7446
-18.9109
-17.1712
-15.4228
-13.5924
-11.6449
-9.58614
-7.45873
-5.33291
-3.29499
-1.43463
0.166824
1.4457
2.3621
2.90254
3.07934
2.92733
2.49884
1.85776
1.07364
0.21624
-0.648884
-1.46385
-2.18083
-2.76349
-3.18775
-3.44171
-3.52514
-3.44837
-3.23072
-2.89856
-2.48306
-2.01776
-1.53612
-1.06921
-0.643679
-0.280223
0.00744689
0.212972
0.337104
0.386873
0.374301
0.314792
0.225394
0.123128
0.0235243
-0.0604848
-0.119285
-0.146898
-0.140935
-0.102243
-0.0342845
0.0576851
0.167573
0.289452
0.418497
0.55171
0.688345
0.829913
0.979764
1.14228
1.32184
1.52164
1.74286
1.98412
2.24162
2.51006
2.78411
3.06055
3.34041
3.63114
3.94821
4.31597
4.76767
5.34452
6.09399
7.06739
8.31712
9.89373
11.8432
14.2046
17.0084
20.2751
24.0152
28.229
32.9069
38.0296
43.5671
49.4758
55.6946
62.138
68.6881
75.1852
81.4203
87.1312
92.0044
95.6871
97.8089
98.0144
96.0025
91.5696
84.6496
75.3435
63.935
50.8856
36.8091
22.4266
8.50771
-4.19716
-15.0238
-23.4533
-29.1565
-32.0202
-32.152
-29.8663
-25.6513
-20.1211
-13.9529
-7.81097
-2.25631
2.35861
6.00671
9.10692
12.6318
18.1759
27.9507
44.6723
71.3113
110.7
165.017
235.205
320.423
417.633
521.446
624.31
717.067
789.868
833.329
839.779
804.422
726.217
608.331
458.061
286.231
106.101
-68.047
-222.482
-345.531
-428.843
-468.226
-463.984
-420.71
-346.583
-252.282
-149.665
-50.3832
35.3856
99.9494
138.749
150.589
137.457
103.984
56.6453
2.81307
-50.203
-96.0171
-129.832
-148.847
-152.383
-141.736
-119.814
-90.5995
-58.5522
-27.999
-2.61116
14.9903
23.4585
22.7666
14.0851
-0.475703
-18.2152
-36.23
-51.79
-62.6563
-67.3089
-65.0646
-56.0818
-41.2626
-22.0742
-0.319481
22.1102
43.4694
62.352
77.8262
89.4996
97.5156
102.488
105.389
107.404
109.782
113.688
120.084
129.639
142.681
159.186
178.805
200.918
224.709
249.247
273.574
296.774
318.041
336.719
352.33
364.57
373.306
378.538
380.367
378.952
374.463
367.049
356.813
343.802
328.016
309.433
288.048
263.924
237.235
208.313
177.671
146.004
114.17
83.1372
53.9175
27.4785
4.65783
-13.9172
-27.8918
-37.2191
-42.1643
-43.2767
-41.3323
-37.2554
-32.0268
-26.5909
-21.7707
-18.2017
-16.2886
-16.1905
-17.8324
-20.9411
-25.0988
-29.8075
-34.5556
-38.8796
-42.4137
-44.9239
-46.3221
-46.6627
-46.1208
-44.9585
-43.4823
-41.9992
-40.7751
-40.003
-39.7814
-40.1075
-40.883
-41.9318
-43.0268
-43.9207
-44.3778
-44.2014
-43.2559
-41.4792
-38.8859
-35.5616
-31.6511
-27.34
-22.8351
-18.3449
-14.0617
-10.1474
-6.7247
-3.87158
-1.62148
0.0334493
1.13612
1.75634
1.98181
1.90905
1.63495
1.24958
0.830505
0.438871
0.117417
-0.109796
-0.236031
-0.269192
-0.228176
-0.138649
-0.0287124
0.0751201
0.151244
0.18528
0.171216
0.111358
0.0152061
-0.102514
-0.224325
-0.332633
-0.412172
-0.451924
-0.446261
-0.39513
-0.303249
-0.178413
-0.0291946
0.137582
0.319098
0.518102
0.743445
1.00942
1.334
1.73622
2.23328
2.83792
3.55693
4.39124
5.33819
6.3959
7.5693
8.8768
10.3564
12.0693
14.1004
16.5529
19.539
23.1639
27.5079
32.605
38.4238
44.8525
51.6904
58.6503
65.371
71.4418
76.4359
79.9508
81.6509
81.3069
78.827
74.2762
67.878
60.0009
51.1275
41.8109
32.6232
24.1017
16.6986
10.7412
6.40498
3.70398
2.49826
2.51671
3.39226
4.70489
6.02697
6.96607
7.20072
6.5064
4.77106
2.00287
-1.66454
-5.96105
-10.455
-14.5084
-17.2136
-17.3238
-13.1999
-2.80996
16.183
46.2122
89.4656
147.43
220.375
306.866
403.415
504.376
602.171
687.864
752.076
786.104
783.119
739.247
654.352
532.384
381.211
211.923
37.7095
-127.573
-270.932
-381.678
-452.572
-480.547
-466.913
-417.038
-339.56
-245.257
-145.721
-52.0127
26.5262
83.1862
114.42
119.96
102.539
67.2791
20.8508
-29.4752
-76.7587
-115.191
-140.68
-151.168
-146.672
-129.062
-101.636
-68.5665
-34.2919
-2.93719
22.1643
38.8035
46.0539
44.2544
34.836
20.0308
2.5114
-14.9867
-30.0097
-40.6585
-45.7606
-44.933
-38.5358
-27.5378
-13.317
2.56847
18.6087
33.5378
46.4766
57.0073
65.1789
71.4488
76.5763
81.4885
87.1389
94.3803
103.865
115.986
130.853
148.317
168.009
189.408
211.908
234.887
257.751
279.974
301.103
320.757
338.602
354.322
367.592
378.047
385.277
388.823
388.205
382.961
372.702
357.178
336.338
310.384
279.811
245.413
208.266
169.676
131.094
94.0167
59.8679
29.8786
4.98446
-14.2542
-27.6958
-35.6197
-38.6858
-37.8565
-34.29
-29.2164
-23.8138
-19.0958
-15.8241
-14.4553
-15.1258
-17.6745
-21.699
-26.6359
-31.8542
-36.7489
-40.824
-43.7529
-45.4112
-45.8781
-45.4095
-44.3867
-43.2504
-42.4303
-42.2795
-43.0242
-44.7334
-47.3126
-50.5211
-54.0076
-57.3607
-60.1638
-62.0487
-62.7398
-62.0848
-60.0677
-56.8045
-52.5234
-47.5321
-42.1789
-36.8113
-31.7386
-27.2013
-23.3525
-20.25
-17.8617
-16.0804
-14.7467
-13.6763
-12.6873
-11.625
-10.3804
-8.90127
-7.19448
-5.32011
-3.37901
-1.49562
0.201069
1.59596
2.60319
3.17663
3.3146
3.05848
2.48602
1.70043
0.817085
-0.0503445
-0.802557
-1.36458
-1.69202
-1.77312
-1.62677
-1.29705
-0.845227
-0.340493
0.149494
0.56715
0.871827
1.0445
1.09008
1.03739
0.937067
0.857838
0.881599
1.09784
1.59785
2.46882
3.7882
5.61807
7.99984
10.9493
14.4527
18.464
22.9046
27.6652
32.6114
37.5918
42.449
47.0325
51.212
54.8892
58.0083
60.5611
62.5884
64.1749
65.4394
66.5205
67.5578
68.6731
69.9511
71.423
73.0554
74.7451
76.322
77.5605
78.1979
77.9601
76.5914
73.8851
69.7115
64.0408
56.9561
48.6548
39.4396
29.6962
19.8642
10.4
1.73929
-5.73968
-11.7474
-16.1071
-18.7688
-19.8127
-19.4387
-17.9403
-15.6597
-12.9192
-9.92868
-6.66987
-2.76726
2.63489
10.9593
24.2075
44.8579
75.6205
119.041
176.984
250.057
337.081
434.713
537.345
637.348
725.679
792.817
829.914
829.995
789.037
706.739
586.863
437.062
268.202
93.2571
-74.0845
-220.918
-336.527
-413.515
-448.528
-442.468
-400.219
-329.902
-241.796
-147.076
-56.5113
20.6899
77.7722
110.969
119.644
106.053
74.7846
31.9786
-15.5676
-61.2836
-99.5947
-126.494
-139.862
-139.528
-127.077
-105.468
-78.5113
-50.2966
-24.6438
-4.63826
7.69482
11.5516
7.34182
-3.47087
-18.6469
-35.5208
-51.3728
-63.7741
-70.865
-71.5369
-65.5062
-53.2793
-36.0236
-15.3697
6.82534
28.7208
48.7121
65.6025
78.7119
87.9157
93.6168
96.6593
98.2011
99.5615
102.064
106.892
114.968
126.876
142.818
162.619
185.764
211.471
238.775
266.624
293.965
319.828
343.373
363.928
380.989
394.21
403.376
408.364
409.111
405.59
397.802
385.773
369.577
349.363
325.381
298.011
267.782
235.372
201.599
167.391
133.736
101.629
72.0078
45.6831
23.2842
5.21123
-8.39296
-17.6489
-22.9241
-24.7948
-23.9905
-21.3264
-17.6312
-13.6778
-10.1238
-7.46715
-6.02147
-5.91071
-7.08353
-9.34354
-12.3909
-15.8697
-19.4163
-22.7016
-25.4661
-27.5422
-28.8649
-29.4698
-29.4795
-29.082
-28.5028
-27.9742
-27.7055
-27.8578
-28.5244
-29.721
-31.384
-33.379
-35.5165
-37.5733
-39.3178
-40.5341
-41.0445
-40.7268
-39.5247
-37.4519
-34.5881
-31.0696
-27.0752
-22.8088
-18.481
-14.2915
-10.4134
-6.98123
-4.08335
-1.75881
0.000773023
1.24507
2.05533
2.53214
2.78218
2.90518
2.98271
3.07005
3.19179
3.342
3.48841
3.5803
3.55877
3.36814
2.9667
2.33551
1.48388
0.450742
-0.698326
-1.87799
-2.99303
-3.94981
-4.66765
-5.08851
-5.18364
-4.95628
-4.44006
-3.69333
-2.79044
-1.81113
-0.829724
0.0944183
0.92386
1.64665
2.27622
2.84799
3.41344
4.03284
4.76792
5.67587
6.80527
8.19458
9.87282
11.8617
14.1784
16.8371
19.85
23.2253
26.964
31.0553
35.4709
40.1608
45.0496
50.0359
54.9929
59.7729
64.213
68.1429
71.3943
73.8106
75.2575
75.6334
74.8781
72.9808
69.984
65.9847
61.1306
55.6126
49.6518
43.4842
37.343
31.4402
25.9506
20.9991
16.6529
12.9195
9.75127
7.05419
4.7008
2.54445
0.433363
-1.77702
-4.21301
-6.97111
-10.1018
-13.5824
-17.2733
-20.8516
-23.7253
-24.9339
-23.0607
-16.1854
-1.92002
22.4348
59.5885
111.817
180.417
265.141
363.712
471.554
581.821
685.802
773.691
835.653
863.054
849.678
792.735
693.506
557.491
394.024
215.385
35.5164
-131.492
-272.942
-378.895
-443.195
-464.019
-443.905
-389.266
-309.472
-215.643
-119.303
-31.0776
40.4135
89.3459
113.092
112.21
90.066
52.1473
5.19751
-43.7208
-88.1094
-122.762
-144.262
-151.213
-144.204
-125.523
-98.7069
-67.9707
-37.6154
-11.4815
7.48801
17.533
18.191
10.2431
-4.48556
-23.4323
-43.6648
-62.2594
-76.6455
-84.8774
-85.8097
-79.1642
-65.4903
-46.0338
-22.537
3.00105
28.573
52.3914
73.0724
89.7588
102.172
110.594
115.789
118.876
121.171
124.024
128.66
136.055
146.845
161.282
179.234
200.229
223.524
248.197
273.244
297.67
320.564
341.15
358.818
373.121
383.759
390.546
393.378
392.201
386.991
377.758
364.552
347.492
326.797
302.815
276.039
247.112
216.809
185.998
155.587
126.466
99.4366
75.16
54.1101
36.5483
22.5172
11.8547
4.22543
-0.83586
-3.87208
-5.45063
-6.11363
-6.33633
-6.49701
-6.86001
-7.57225
-8.67182
-10.1064
-11.7584
-13.4733
-15.0876
-16.4536
-17.4589
-18.0378
-18.1765
-17.9094
-17.3112
-16.483
-15.538
-14.5859
-13.7201
-13.0085
-12.4883
-12.1656
-12.0193
-12.0082
-12.0799
-12.1802
-12.2613
-12.2886
-12.2442
-12.1273
-11.9523
-11.7439
-11.5314
-11.3412
-11.1914
-11.0867
-11.0157
-10.9507
-10.8501
-10.6628
-10.334
-9.81205
-9.05476
-8.03523
-6.746
-5.20148
-3.43834
-1.51385
0.497622
2.50984
4.43103
6.17107
7.64881
8.79889
9.57764
9.96704
9.97645
9.64154
9.02024
8.18604
7.21922
6.19704
5.1842
4.22495
3.33787
2.51439
1.72119
0.906542
0.00985903
-1.02679
-2.24657
-3.66695
-5.27159
-7.00646
-8.78084
-10.4736
-11.9438
-13.045
-13.6402
-13.617
-12.8998
-11.4577
-9.30721
-6.50956
-3.16315
0.607807
4.66649
8.87687
13.1157
17.2817
21.3015
25.1319
28.7586
32.192
35.4609
38.6049
41.6663
44.6819
47.6763
50.6566
53.6102
56.5041
59.2879
61.8985
64.2677
66.3299
68.0295
69.3275
70.2044
70.659
70.7041
70.358
69.6352
68.5371
67.0459
65.1223
62.71
59.7439
56.1638
51.9295
47.0352
41.521
35.4784
29.0492
22.417
15.7917
9.38974
3.41218
-1.97636
-6.66481
-10.6062
-13.8196
-16.3817
-18.4068
-20.0123
-21.2666
-22.1185
-22.3052
-21.2469
-17.9404
-10.8785
1.97095
23.0853
55.1739
100.815
161.965
239.38
332.067
436.858
548.231
658.477
758.252
837.472
886.481
897.311
864.866
787.826
669.125
515.907
338.937
151.54
-31.8084
-197.042
-332.028
-427.836
-479.619
-486.986
-453.852
-387.79
-299.003
-199.046
-99.4776
-10.6051
59.5387
105.871
126.537
122.794
98.5368
59.5618
12.6811
-35.1972
-77.9044
-110.67
-130.543
-136.543
-129.558
-112.023
-87.4325
-59.7884
-33.029
-10.5345
5.24831
13.0249
12.7035
5.28881
-7.35165
-22.8073
-38.4809
-51.9343
-61.1803
-64.8899
-62.496
-54.1905
-40.8248
-23.7338
-4.51597
15.2002
33.9704
50.7029
64.7639
76.0123
84.7672
91.7187
97.8007
104.044
111.436
120.794
132.681
147.358
164.783
184.641
206.408
229.43
252.997
276.421
299.09
320.498
340.264
358.119
373.878
387.412
398.6
407.298
413.313
416.383
416.187
412.363
404.541
392.395
375.696
354.372
328.55
298.597
265.138
229.04
191.388
153.42
116.454
81.7896
50.6165
23.9174
2.39062
-13.6045
-24.0738
-29.38
-30.2029
-27.4706
-22.2693
-15.7416
-8.98403
-2.9545
1.60157
4.19868
4.62942
2.95292
-0.542982
-5.39992
-11.0594
-16.9368
-22.4898
-27.2751
-30.9867
-33.4744
-34.7415
-34.9244
-34.2593
-33.0391
-31.5701
-30.1309
-28.9396
-28.1326
-27.7558
-27.7683
-28.0567
-28.4572
-28.782
-28.8463
-28.4927
-27.6099
-26.1449
-24.1068
-21.5637
-18.6328
-15.466
-12.2322
-9.10019
-6.22147
-3.71745
-1.67018
-0.118394
0.941697
1.55118
1.77986
1.71553
1.45268
1.08169
0.680095
0.306473
-0.00236715
-0.230987
-0.382112
-0.471375
-0.520984
-0.553281
-0.5851
-0.623587
-0.663948
-0.689268
-0.672298
-0.578834
-0.372159
-0.0178902
0.511417
1.23245
2.14857
3.24868
4.50779
5.88903
7.34701
8.83226
10.296
11.6949
12.9956
14.1773
15.2334
16.1719
17.0132
17.7875
18.5308
19.2817
20.077
20.9504
21.9315
23.0476
24.3275
25.8071
27.536
29.5828
32.0386
35.0155
38.6387
43.0323
48.2984
54.4918
61.5923
69.48
77.9166
86.538
94.8611
102.307
108.243
112.035
113.113
111.04
105.57
96.6975
84.6788
70.031
53.499
35.9968
18.5281
2.09518
-12.3932
-24.2031
-32.8377
-38.0731
-39.9649
-38.8265
-35.1843
-29.7155
-23.1762
-16.3256
-9.84932
-4.28214
0.071997
3.2255
5.59715
8.09859
12.1995
19.9431
33.878
56.8717
91.7884
141.033
206.006
286.54
380.427
483.157
587.954
686.186
768.139
824.093
845.554
826.481
764.297
660.529
520.948
355.16
175.686
-3.35409
-167.787
-304.952
-405.078
-462.306
-475.221
-446.84
-384.087
-296.83
-196.626
-95.3363
-3.79911
69.29
118.168
140.389
136.793
111.086
69.1301
18.0335
-34.8151
-82.6553
-120.099
-143.638
-151.867
-145.435
-126.747
-99.4794
-67.9893
-36.6966
-9.52114
10.5628
21.8108
23.8105
17.4077
4.48195
-12.386
-30.3025
-46.4518
-58.4402
-64.5547
-63.9127
-56.4938
-43.062
-24.9973
-4.06704
17.8293
38.9073
57.7072
73.244
85.0852
93.3531
98.6601
101.99
104.546
107.583
112.257
119.491
129.886
143.674
160.723
180.577
202.522
225.687
249.131
271.941
293.304
312.563
329.25
343.088
353.973
361.941
367.119
369.671
369.744
367.425
362.712
355.504
345.606
332.768
316.731
297.29
274.36
248.037
218.648
186.765
153.208
118.995
85.2817
53.2691
24.0983
-1.24989
-22.0455
-37.8752
-48.676
-54.7332
-56.6427
-55.2429
-51.5249
-46.5319
-41.2592
-36.5669
-33.1121
-31.3093
-31.3185
-33.0617
-36.263
-40.5052
-45.2963
-50.1358
-54.5753
-58.2658
-60.989
-62.6691
-63.3666
-63.2558
-62.5886
-61.652
-60.7218
-60.0212
-59.6872
-59.7504
-60.1305
-60.6467
-61.0431
-61.024
-60.295
-58.605
-55.7819
-51.7595
-46.5903
-40.4443
-33.593
-26.3825
-19.1965
-12.4178
-6.38916
-1.38056
2.434
4.98845
6.32409
6.57742
5.95865
4.7238
3.14441
1.47834
-0.0549142
-1.29195
-2.1348
-2.55167
-2.57
-2.26342
-1.73498
-1.09905
-0.464275
0.0806419
0.476958
0.701016
0.764492
0.710269
0.604863
0.528631
0.565068
0.790459
1.26499
2.02616
3.08508
4.42585
6.00809
7.77202
9.64567
11.5532
13.4231
15.1961
16.8307
18.3065
19.6256
20.8108
21.9019
22.9506
24.0143
25.1503
26.4104
27.8371
29.4613
31.302
33.3664
35.6516
38.1454
40.8268
43.6647
46.6153
49.6194
52.5978
55.4496
58.0509
60.2581
61.913
62.8536
62.9262
61.9998
59.9805
56.8242
52.5453
47.221
40.9893
34.0416
26.6089
18.9453
11.3078
3.93708
-2.96021
-9.22474
-14.7518
-19.4918
-23.4434
-26.6395
-29.1274
-30.9406
-32.0632
-32.3818
-31.6244
-29.286
-24.5488
-16.2126
-2.66252
18.093
48.2798
90.0884
145.279
214.692
297.742
391.984
492.872
593.804
686.514
761.813
810.609
825.081
799.831
732.832
626.014
485.353
320.451
143.621
-31.4064
-190.975
-323.01
-418.326
-471.584
-481.764
-452.116
-389.613
-303.988
-206.498
-108.583
-20.5851
49.3165
95.8345
116.911
113.642
89.8428
51.3165
4.96516
-42.1548
-83.7029
-114.753
-132.251
-135.196
-124.556
-102.942
-74.117
-42.4062
-12.0961
13.1043
30.4803
38.5648
37.2137
27.51
11.5251
-8.0205
-28.1454
-45.9924
-59.163
-65.9665
-65.5593
-57.9695
-44.0146
-25.1307
-3.1451
19.9778
42.3821
62.5301
79.3545
92.3396
101.53
107.47
111.093
113.572
116.155
120.017
126.12
135.135
147.386
162.859
181.242
201.992
224.426
247.805
271.407
294.584
316.781
337.542
356.477
373.234
387.449
398.717
406.578
410.521
410.019
404.581
393.822
377.533
355.745
328.769
297.22
262.001
224.257
185.306
146.549
109.367
75.0251
44.5826
18.824
-1.7826
-17.0998
-27.3058
-32.856
-34.4257
-32.8431
-29.0189
-23.8799
-18.3104
-13.1044
-8.92923
-6.30005
-5.56514
-6.89988
-10.3091
-15.6372
-22.5852
-30.7349
-39.58
-48.5615
-57.1082
-64.678
-70.7984
-75.1018
-77.3536
-77.4688
-75.5164
-71.7102
-66.387
-59.973
-52.9444
-45.783
-38.9341
-32.7693
-27.5588
-23.4551
-20.4899
-18.5837
-17.5654
-17.201
-17.2254
-17.3753
-17.4183
-17.175
-16.5337
-15.4547
-13.9663
-12.1535
-10.1407
-8.07176
-6.0906
-4.3231
-2.86364
-1.76672
-1.04419
-0.667873
-0.576598
-0.686346
-0.902055
-1.12954
-1.28619
-1.30936
-1.16173
-0.833333
-0.340132
0.28025
0.975179
1.68501
2.35139
2.92485
3.37045
3.67095
3.827
3.85442
3.77945
3.63282
3.44418
3.23833
3.03401
2.84609
2.69062
2.59186
2.58972
2.74588
3.14671
3.90174
5.13691
6.98295
9.55981
12.9592
17.2278
22.3535
28.2574
34.7928
41.7523
48.8821
55.9017
62.5276
68.497
73.5893
77.6419
80.5596
82.3151
82.9418
82.5195
81.1549
78.9614
76.0403
72.4664
68.2821
63.4994
58.1102
52.1032
45.4835
38.2923
30.6232
22.6313
14.5342
6.60359
-0.852294
-7.51391
-13.081
-17.3056
-20.0237
-21.1807
-20.8476
-19.2199
-16.5959
-13.3278
-9.74152
-6.02643
-2.09959
2.53803
8.92711
18.7202
34.1539
57.8863
92.6772
140.922
204.082
282.102
372.924
472.208
573.383
668.052
746.769
800.102
819.842
800.189
738.732
637.047
500.821
339.445
165.113
-8.44995
-167.487
-299.719
-395.684
-449.722
-460.498
-430.999
-368.027
-281.268
-182.074
-82.1104
7.9431
79.4997
126.849
147.549
142.408
115.092
71.4229
18.5006
-36.2563
-86.0096
-125.247
-150.297
-159.566
-153.514
-134.371
-105.681
-71.7325
-36.9523
-5.35932
19.8806
36.7426
44.4589
43.4678
35.2185
21.8745
5.96298
-9.97935
-23.7174
-33.5525
-38.4591
-38.1178
-32.8535
-23.4986
-11.209
2.73765
17.1319
30.9888
43.655
54.8591
64.7069
73.6291
82.2929
91.4916
102.029
114.607
129.737
147.672
168.374
191.51
216.484
242.488
268.582
293.773
317.104
337.733
354.993
368.436
377.844
383.222
384.759
382.778
377.672
369.841
359.639
347.34
333.12
317.068
299.214
279.568
258.171
235.135
210.676
185.133
158.966
132.734
107.058
82.5787
59.9021
39.551
21.9234
7.26313
-4.35392
-13.0182
-18.9692
-22.5659
-24.2494
-24.5008
-23.8008
-22.5928
-21.255
-20.0815
-19.2737
-18.9418
-19.1144
-19.7535
-20.7741
-22.0639
-23.5022
-24.9761
-26.392
-27.6841
-28.8163
-29.7821
-30.5997
-31.3049
-31.9427
-32.5578
-33.1858
-33.845
-34.5304
-35.2108
-35.8278
-36.2992
-36.5253
-36.3976
-35.8108
-34.6754
-32.931
-30.5582
-27.5878
-24.1049
-20.2483
-16.202
-12.1812
-8.41219
-5.10879
-2.44897
-0.553886
0.526849
0.821595
0.433715
-0.470539
-1.68168
-2.97152
-4.11943
-4.93697
-5.28791
-5.10149
-4.3776
-3.18364
-1.64381
0.0774513
1.79592
3.3292
4.51735
5.2401
5.42932
5.07537
4.22731
2.9869
1.49748
-0.0711157
-1.53979
-2.7378
-3.51889
-3.77423
-3.44092
-2.5053
-1.00079
0.999174
3.39235
6.06131
8.888
11.7673
14.6181
17.3902
20.0677
22.6664
25.2287
27.8152
30.4947
33.335
36.3955
39.7208
43.3384
47.2573
51.4684
55.9452
60.6442
65.5042
70.444
75.3589
80.1156
84.5483
88.4557
91.6031
93.7304
94.5681
93.8608
91.3967
87.0396
80.7585
72.6506
62.9513
52.029
40.3641
28.5115
17.0527
6.54159
-2.54833
-9.86921
-15.2305
-18.6134
-20.1664
-20.1832
-19.064
-17.2643
-15.2311
-13.3291
-11.7546
-10.4392
-8.9467
-6.37417
-1.27856
8.34205
24.9773
51.4108
90.3866
144.145
213.868
299.127
397.418
503.929
611.612
711.634
794.193
849.61
869.583
848.386
783.855
677.963
536.895
370.575
191.685
14.319
-147.57
-281.711
-378.849
-433.691
-445.361
-417.316
-356.753
-273.611
-179.291
-85.2967
-1.94324
62.7022
103.535
118.724
109.609
80.2351
36.6039
-14.2332
-65.1252
-109.689
-142.999
-162.031
-165.831
-155.414
-133.431
-103.677
-70.4982
-38.2001
-10.5193
9.78251
21.1623
23.3649
17.3263
4.94109
-11.2661
-28.5124
-44.1232
-55.8485
-62.0943
-62.0502
-55.7073
-43.7744
-27.5154
-8.53313
11.4655
30.8941
48.4734
63.3604
75.2118
84.1795
90.8464
96.1174
101.082
106.867
114.503
124.804
138.289
155.139
175.189
197.958
222.709
248.523
274.387
299.286
322.28
342.57
359.549
372.821
382.204
387.707
389.488
387.806
382.96
375.241
364.889
352.068
336.869
319.32
299.43
277.226
252.809
226.392
198.337
169.16
139.526
110.214
82.0642
55.915
32.5274
12.5176
-3.70082
-15.9551
-24.3281
-29.1467
-30.9454
-30.4097
-28.3055
-25.4038
-22.4076
-19.8912
-18.2566
-17.7124
-18.275
-19.7922
-21.9833
-24.4918
-26.9411
-28.9886
-30.3701
-30.93
-30.6348
-29.5701
-27.9204
-25.939
-23.9094
-22.1068
-20.7624
-20.0377
-20.0085
-20.6626
-21.909
-23.5961
-25.5372
-27.5364
-29.4132
-31.0215
-32.2599
-33.0743
-33.4522
-33.4118
-32.9885
-32.2208
-31.1401
-29.7644
-28.0981
-26.1364
-23.8742
-21.3158
-18.4854
-15.4337
-12.2413
-9.0162
-5.88625
-2.9879
-0.451808
1.61189
3.12683
4.06019
4.42753
4.29198
3.75773
2.95875
2.04402
1.16139
0.441849
-0.0137379
-0.143899
0.0690866
0.600102
1.38702
2.34049
3.3563
4.32865
5.16273
5.78506
6.1505
6.24536
6.08654
5.71725
5.20021
4.60972
4.02369
3.51696
3.1567
3.00036
3.09617
3.486
4.20971
5.31013
6.83724
8.85026
11.4165
14.6062
18.4835
23.0938
28.4495
34.5156
41.1972
48.3312
55.6844
62.9581
69.8005
75.827
80.6459
83.888
85.2382
84.4645
81.4427
76.1737
68.7901
59.5525
48.8338
37.0934
24.8424
12.6048
0.876911
-9.90953
-19.4169
-27.4207
-33.8152
-38.6074
-41.8973
-43.8512
-44.668
-44.5445
-43.6411
-42.0474
-39.7451
-36.5629
-32.1195
-25.7538
-16.4537
-2.80409
17.0144
45.1373
83.808
135.038
200.151
279.272
370.844
471.289
574.919
674.169
760.192
823.761
856.39
851.499
805.47
718.393
594.376
441.359
270.413
94.6166
-72.344
-217.676
-330.874
-404.835
-436.546
-427.279
-382.266
-309.94
-220.826
-126.26
-37.0896
37.4873
90.8009
119.235
122.351
102.64
64.9472
15.6816
-38.0834
-89.5012
-132.728
-163.5
-179.47
-180.278
-167.377
-143.666
-112.988
-79.5609
-47.4375
-20.0309
0.224764
12.0618
15.4042
11.2456
1.41112
-11.7574
-25.7447
-38.1898
-47.16
-51.3415
-50.1337
-43.6435
-32.5911
-18.1482
-1.73442
15.1969
31.3567
45.7778
57.9159
67.6868
75.4399
81.8773
87.9334
94.6331
102.95
113.679
127.344
144.146
163.949
186.314
210.563
235.86
261.308
286.035
309.266
330.378
348.917
364.596
377.267
386.875
393.41
396.86
397.179
394.265
387.976
378.141
364.611
347.299
326.233
301.595
273.748
243.252
210.846
177.424
143.986
111.575
81.2087
53.8053
30.12
10.6872
-4.21729
-14.5932
-20.71
-23.0779
-22.3987
-19.5008
-15.2659
-10.554
-6.13396
-2.62686
-0.466823
0.117814
-0.89773
-3.35617
-6.95527
-11.2956
-15.9331
-20.4309
-24.4046
-27.558
-29.7061
-30.7838
-30.8417
-30.0306
-28.5768
-26.7521
-24.842
-23.1148
-21.795
-21.044
-20.9477
-21.5136
-22.6756
-24.3063
-26.2349
-28.268
-30.2116
-31.8915
-33.1696
-33.9545
-34.2058
-33.9307
-33.1759
-32.0147
-30.5327
-28.8139
-26.9304
-24.9348
-22.8592
-20.7174
-18.5114
-16.2397
-13.9058
-11.5253
-9.13027
-6.77
-4.50799
-2.41608
-0.566413
0.977208
2.16729
2.97856
3.41116
3.49059
3.26471
2.79828
2.16605
1.44529
0.708908
0.0198829
-0.572413
-1.03379
-1.34492
-1.49949
-1.50146
-1.36199
-1.09661
-0.72297
-0.259234
0.276858
0.868567
1.50065
2.16013
2.83744
3.52819
4.2351
4.97013
5.75611
6.62757
7.63044
8.82026
10.259
12.0106
14.1351
16.6835
19.6909
23.1726
27.1204
31.5008
36.2556
41.3037
46.544
51.859
57.1191
62.186
66.9168
71.1674
74.7966
77.6702
79.6655
80.6771
80.6216
79.4448
77.1266
73.6864
69.1873
63.7371
57.4871
50.6274
43.3776
35.975
28.6594
21.656
15.159
9.31706
4.22151
-0.0999581
-3.68481
-6.63128
-9.08775
-11.2347
-13.2565
-15.3001
-17.4152
-19.4745
-21.0749
-21.4297
-19.2697
-12.7869
0.344884
22.8333
57.4883
106.8
172.407
254.516
351.396
459.034
571.085
679.179
773.603
844.301
882.085
879.882
833.826
744.029
614.883
454.824
275.576
90.9587
-84.5964
-237.616
-357.043
-435.39
-469.457
-460.518
-413.99
-338.622
-245.352
-145.968
-51.7561
27.7011
85.4383
117.651
123.823
106.467
70.5242
22.5489
-30.2283
-80.8189
-123.275
-153.28
-168.486
-168.574
-155.068
-130.945
-100.113
-66.8266
-35.1366
-8.41329
10.9868
21.8957
24.3421
19.4117
8.99196
-4.55391
-18.7348
-31.2564
-40.2831
-44.6116
-43.7429
-37.8551
-27.6908
-14.3854
0.737345
16.3688
31.3925
45.014
56.8309
66.8415
75.3967
83.1102
90.7432
99.0835
108.835
120.535
134.497
150.799
169.29
189.628
211.333
233.84
256.55
278.882
300.298
320.327
338.573
354.713
368.485
379.676
388.103
393.602
396.011
395.171
390.925
383.128
371.672
356.506
337.664
315.294
289.676
261.239
230.561
198.362
165.475
132.812
101.308
71.8652
45.2911
22.2386
3.15808
-11.735
-22.473
-29.3272
-32.7771
-33.4625
-32.1218
-29.5246
-26.4044
-23.3996
-21.0062
-19.5489
-19.1706
-19.8413
-21.3843
-23.5148
-25.8879
-28.1482
-29.9766
-31.1286
-31.4613
-30.9453
-29.6622
-27.7889
-25.5702
-23.285
-21.2102
-19.5854
-18.5849
-18.2985
-18.7228
-19.7652
-21.2578
-22.9799
-24.6862
-26.1362
-27.1217
-27.4891
-27.1537
-26.1051
-24.4028
-22.164
-19.5452
-16.7196
-13.8551
-11.0939
-8.53756
-6.23929
-4.2036
-2.39366
-0.744625
0.819302
2.36675
3.9429
5.55742
7.17846
8.73347
10.1164
11.2006
11.8547
11.9601
11.4271
10.2087
8.30932
5.78953
2.76466
-0.601063
-4.10514
-7.52093
-10.6144
-13.1622
-14.9695
-15.8866
-15.8225
-14.7541
-12.731
-9.87432
-6.37009
-2.45694
1.59061
5.48293
8.93851
11.7086
13.6013
14.5032
14.3961
13.368
11.6147
9.43261
7.20121
5.35638
4.35511
4.63449
6.56786
10.4219
16.319
24.2087
33.8526
44.8245
56.5292
68.2385
79.1447
88.4264
95.3222
99.204
99.6436
96.4625
89.7596
79.9121
67.5484
53.4939
38.6969
24.141
10.7543
-0.673925
-9.56144
-15.5768
-18.6565
-18.9928
-16.9982
-13.2486
-8.4162
-3.19951
1.74286
5.84859
8.69733
10.0477
9.87153
8.39158
6.12964
3.96418
3.18966
5.5574
13.2676
28.877
55.0902
94.4203
148.731
218.711
303.363
399.613
502.164
603.654
695.189
767.209
810.592
817.87
784.348
708.964
594.738
448.706
281.338
105.496
-64.9441
-216.61
-338.103
-421.222
-461.788
-459.977
-420.127
-350.068
-260.074
-161.586
-65.8742
17.1899
80.12
118.445
130.937
119.447
88.3817
43.9375
-6.81362
-56.8532
-100.048
-131.793
-149.406
-152.246
-141.575
-120.195
-91.94
-61.0902
-31.7884
-7.53585
9.18375
17.1167
16.279
7.83551
-6.15159
-23.0598
-40.0811
-54.5834
-64.4172
-68.1349
-65.1041
-55.5125
-40.2721
-20.8469
0.971286
23.304
44.4159
62.9054
77.8389
88.8171
95.975
99.9204
101.628
102.302
103.232
105.655
110.633
118.965
131.135
147.286
167.235
190.502
216.364
243.918
272.147
299.983
326.366
350.296
370.876
387.34
399.083
405.674
406.869
402.612
393.03
378.426
359.261
336.127
309.725
280.828
250.25
218.812
187.311
156.495
127.041
99.5344
74.4615
52.1946
32.9866
16.9658
4.13504
-5.62637
-12.5544
-16.987
-19.3442
-20.1032
-19.769
-18.843
-17.7922
-17.0207
-16.847
-17.4882
-19.0522
-21.5394
-24.8517
-28.81
-33.1762
-37.6791
-42.0419
-46.0081
-49.3639
-51.9566
-53.7056
-54.6065
-54.7277
-54.1992
-53.1953
-51.9132
-50.5488
-49.2733
-48.2128
-47.4339
-46.9365
-46.6549
-46.467
-46.2115
-45.7088
-44.7852
-43.2961
-41.1455
-38.2999
-34.7942
-30.7298
-26.2646
-21.597
-16.9447
-12.5232
-8.52356
-5.0946
-2.33004
-0.262296
1.1367
1.94797
2.29248
2.31441
2.16268
1.9731
1.85307
1.87075
2.0497
2.36968
2.77326
3.17743
3.48843
3.61797
3.4986
3.09605
2.41695
1.51084
0.46612
-0.599398
-1.55202
-2.25781
-2.59813
-2.48286
-1.85945
-0.716751
0.917052
2.98172
5.39648
8.07373
10.9329
13.9118
16.9743
20.1118
23.3397
26.6883
30.1909
33.8702
37.7266
41.7297
45.8151
49.887
53.8257
57.499
60.7753
63.5357
65.6825
67.1444
67.8759
67.8539
67.0712
65.5305
63.2399
60.2109
56.4606
52.0167
46.924
41.2518
35.0979
28.5902
21.8836
15.1515
8.57422
2.32479
-3.44589
-8.62204
-13.1329
-16.9577
-20.1253
-22.7075
-24.8053
-26.5281
-27.9615
-29.1228
-29.8998
-29.9734
-28.7278
-25.1604
-17.8173
-4.78488
16.2266
47.6748
91.8439
150.384
223.788
310.893
408.508
511.285
611.908
701.633
771.151
811.683
816.143
780.224
703.201
588.329
442.753
276.907
103.476
-63.9471
-212.343
-330.683
-411.099
-449.671
-446.719
-406.605
-337.059
-248.157
-151.076
-56.7978
25.0814
87.2936
125.504
138.524
128.14
98.6122
55.9187
6.87831
-41.748
-84.0577
-115.623
-133.865
-138.165
-129.722
-111.201
-86.2427
-58.8916
-33.0444
-11.9674
2.05596
7.91976
5.72272
-3.35721
-17.3107
-33.6246
-49.6401
-62.8967
-71.4184
-73.916
-69.8859
-59.605
-44.0305
-24.6253
-3.13643
18.6424
39.0937
56.9596
71.4654
82.3744
89.9727
94.9923
98.4874
101.683
105.817
111.993
121.059
133.53
149.546
168.878
190.97
215.014
240.041
265.024
288.975
311.029
330.51
346.958
360.141
370.028
376.744
380.505
381.554
380.094
376.24
369.988
361.22
349.725
335.251
317.575
296.569
272.267
244.913
214.98
183.167
150.36
117.573
85.8703
56.28
29.7081
6.86603
-11.7841
-26.0595
-36.0598
-42.1439
-44.8844
-45.0041
-43.3036
-40.5868
-37.5914
-34.9333
-33.0665
-32.2641
-32.6189
-34.063
-36.4013
-39.3549
-42.6088
-45.8564
-48.8378
-51.3673
-53.3471
-54.7681
-55.6977
-56.2581
-56.5983
-56.8638
-57.1692
-57.5758
-58.0797
-58.6087
-59.0316
-59.1756
-58.8513
-57.88
-56.1213
-53.495
-49.9962
-45.7
-40.7567
-35.3767
-29.8087
-24.3132
-19.1361
-14.4845
-10.5084
-7.29073
-4.84516
-3.12266
-2.02415
-1.4176
-1.15686
-1.09952
-1.12189
-1.12936
-1.06168
-0.892922
-0.627157
-0.290921
0.075941
0.429576
0.730241
0.948329
1.06781
1.08705
1.01739
0.880036
0.7021
0.512485
0.338234
0.201832
0.119692
0.101932
0.153401
0.275778
0.470505
0.742156
1.10176
1.56952
2.17642
2.96421
3.98362
5.29085
6.94252
8.98974
11.4719
14.4109
17.8064
21.6325
25.8372
30.3423
35.0471
39.8319
44.5642
49.1051
53.3158
57.0647
60.2342
62.7267
64.4694
65.4184
65.5599
64.9106
63.5146
61.4395
58.7696
55.5985
52.0219
48.1299
44.0019
39.7027
35.282
30.7746
26.2041
21.5867
16.9352
12.2635
7.58912
2.93417
-1.67472
-6.20852
-10.6388
-14.9408
-19.0955
-23.0875
-26.8951
-30.4673
-33.6827
-36.2852
-37.7998
-37.4349
-33.9908
-25.8035
-10.7578
13.5931
49.7773
100.018
165.742
247.041
342.18
447.275
556.221
660.974
752.186
820.161
856.018
852.908
807.079
718.646
591.894
435.064
259.615
79.0647
-92.4704
-241.812
-358.155
-434.199
-466.85
-457.399
-411.188
-336.812
-244.988
-147.232
-54.5388
23.7955
81.0659
113.677
121.255
106.373
73.9536
30.4416
-17.1211
-62.0089
-98.5995
-122.952
-133.122
-129.209
-113.138
-88.2426
-58.7117
-28.9773
-3.12743
15.5876
25.1037
24.7153
15.0663
-2.02382
-23.8654
-47.2854
-69.0437
-86.2262
-96.5693
-98.6824
-92.1507
-77.5151
-56.1416
-30.0046
-1.41621
27.2619
53.8899
76.7741
94.8213
107.613
115.396
119.001
119.698
119.022
118.58
119.866
124.114
132.185
144.511
161.088
181.517
205.082
230.849
257.774
284.804
310.964
335.411
357.47
376.63
392.527
404.91
413.593
418.423
419.245
415.894
408.199
396.008
379.23
357.877
332.118
302.321
269.076
233.199
195.717
157.813
120.759
85.8255
54.1859
26.8186
4.42587
-12.6261
-24.3365
-31.064
-33.4861
-32.5268
-29.2613
-24.8065
-20.2129
-16.3667
-13.9155
-13.2242
-14.365
-17.1413
-21.1404
-25.8075
-30.5307
-34.7255
-37.9096
-39.7584
-40.1369
-39.1053
-36.899
-33.8888
-30.5262
-27.283
-24.5924
-22.7993
-22.1248
-22.6485
-24.3087
-26.9187
-30.1963
-33.801
-37.3738
-40.5758
-43.1197
-44.7929
-45.4704
-45.1165
-43.7777
-41.5683
-38.6501
-35.212
-31.4487
-27.5432
-23.6541
-19.9076
-16.3949
-13.1746
-10.2776
-7.7141
-5.48091
-3.56762
-1.96104
-0.647415
0.387275
1.1586
1.68567
1.99298
2.1115
2.07837
1.93515
1.72469
1.4873
1.2567
1.05674
0.899313
0.784157
0.700466
0.630241
0.552835
0.45003
0.310874
0.135591
-0.0619809
-0.253737
-0.398478
-0.444696
-0.334575
-0.00864815
0.589483
1.50897
2.78859
4.45524
6.52417
9.0012
11.8865
15.179
18.8806
22.9991
27.5474
32.5409
37.9897
43.8895
50.2089
56.8772
63.7736
70.7196
77.4781
83.7585
89.2312
93.5491
96.376
97.4185
96.4584
93.3819
88.2011
81.0649
72.2564
62.1778
51.3209
40.2279
29.4462
19.4812
10.753
3.56227
-1.93191
-5.71865
-7.92672
-8.80209
-8.67451
-7.91791
-6.90917
-5.99019
-5.43651
-5.43355
-6.05883
-7.2649
-8.85619
-10.4522
-11.4333
-10.8726
-7.46757
0.503207
15.1626
38.921
74.2372
123.248
187.291
266.385
358.76
460.539
565.691
666.312
753.257
817.084
849.188
842.987
794.951
705.339
578.479
422.544
248.828
70.593
-98.3453
-245.125
-359.231
-433.601
-465.295
-455.677
-410.072
-336.988
-247.002
-151.467
-61.2134
14.6086
69.4019
99.636
104.959
87.9277
53.4246
7.84747
-41.7996
-88.8008
-127.501
-153.872
-165.83
-163.274
-147.896
-122.774
-91.8523
-59.3586
-29.2557
-4.77733
11.8957
19.7955
19.161
11.2835
-1.76168
-17.4531
-33.1802
-46.575
-55.7793
-59.6211
-57.6884
-50.3012
-38.395
-23.3393
-6.71984
9.88642
25.1144
37.9703
47.9319
54.9834
59.5865
62.5972
65.1421
68.4733
73.8171
82.236
94.5151
111.083
131.975
156.829
184.932
215.284
246.691
277.87
307.554
334.59
358.013
377.103
391.403
400.722
405.095
404.739
399.991
391.25
378.928
363.414
345.06
324.177
301.061
276.013
249.371
221.536
192.984
164.269
136.007
108.843
83.4124
60.2894
39.9421
22.692
8.68684
-2.10976
-9.91067
-15.08
-18.0941
-19.4925
-19.8267
-19.6109
-19.2807
-19.1652
-19.4721
-20.2879
-21.5908
-23.2732
-25.1704
-27.0908
-28.8455
-30.2722
-31.2534
-31.7262
-31.6844
-31.1744
-30.2841
-29.1297
-27.8398
-26.5411
-25.3449
-24.3378
-23.5758
-23.0826
-22.8511
-22.8483
-23.0217
-23.3068
-23.6337
-23.9343
-24.1461
-24.2166
-24.1039
-23.778
-23.2198
-22.4198
-21.3774
-20.1
-18.6024
-16.9073
-15.0454
-13.0559
-10.9867
-8.89307
-6.8362
-4.87998
-3.08709
-1.51432
-0.207924
0.800598
1.49763
1.88899
1.99964
1.87152
1.55973
1.12743
0.640166
0.160282
-0.258012
-0.572213
-0.753452
-0.786605
-0.668701
-0.405978
-0.0101168
0.505688
1.13019
1.85648
2.68305
3.61328
4.65372
5.8114
7.0911
8.49292
10.011
11.6337
13.345
15.1276
16.9664
18.8517
20.7823
22.7671
24.8251
26.9836
29.2759
31.7371
34.3988
37.2836
40.3972
43.7204
47.1992
50.7365
54.1864
57.3532
59.9983
61.856
62.6578
62.1628
60.1914
56.6564
51.5871
45.1413
37.602
29.359
20.8745
12.6397
5.12472
-1.27042
-6.2573
-9.68924
-11.5762
-12.0838
-11.5168
-10.291
-8.89342
-7.83564
-7.59863
-8.56938
-10.9667
-14.7543
-19.5433
-24.4889
-28.2006
-28.6885
-23.3832
-9.26393
16.8759
58.0159
116.374
192.808
286.252
393.302
508.074
622.408
726.473
809.725
862.122
875.433
844.444
767.878
648.859
494.837
316.957
128.936
-54.4015
-218.74
-351.833
-444.802
-493.009
-496.409
-459.354
-389.894
-298.679
-197.629
-98.5342
-11.7672
54.7479
96.2015
111.148
101.339
71.1998
27.034
-23.9183
-74.4425
-118.214
-150.471
-168.424
-171.389
-160.643
-139.054
-110.548
-79.5017
-50.1349
-25.9869
-9.52783
-1.94532
-3.11361
-11.733
-25.6053
-41.9978
-58.0417
-71.1112
-79.1377
-80.8253
-75.749
-64.3349
-47.7333
-27.612
-5.90097
15.4755
34.8433
50.9731
63.2039
71.487
76.3505
78.7975
80.1526
81.8819
85.4087
91.9462
102.368
117.122
136.207
159.187
185.265
213.375
242.305
270.819
297.762
322.156
343.261
360.596
373.941
383.294
388.822
390.788
389.483
385.17
378.042
368.203
355.675
340.424
322.405
301.608
278.114
252.136
224.045
194.383
163.847
133.261
103.52
75.5304
50.135
28.0454
9.77837
-4.39066
-14.4533
-20.6693
-23.5418
-23.7696
-22.1799
-19.6504
-17.028
-15.0528
-14.2967
-15.1208
-17.6562
-21.809
-27.2873
-33.6459
-40.3437
-46.8061
-52.4869
-56.9226
-59.7742
-60.8537
-60.1332
-57.7371
-53.9194
-49.0297
-43.4728
-37.6656
-31.9971
-26.7952
-22.3031
-18.6663
-15.9314
-14.0553
-12.9217
-12.3633
-12.1867
-12.1955
-12.2116
-12.0905
-11.7318
-11.083
-10.1383
-8.93212
-7.53006
-6.01754
-4.48812
-3.03256
-1.7296
-0.639213
0.201454
0.779264
1.10376
1.20371
1.12214
0.910569
0.623063
0.310796
0.0175574
-0.223415
-0.391098
-0.476837
-0.483094
-0.421061
-0.307448
-0.16083
0.0020482
0.169657
0.338447
0.514773
0.715848
0.96966
1.31389
1.79384
2.45957
3.36227
4.55015
6.06407
7.9331
10.1707
12.7716
15.7102
18.941
22.4005
26.0121
29.692
33.3565
36.9294
40.3482
43.5675
46.5603
49.3146
51.8278
54.0977
56.1135
57.8473
59.2472
60.2358
60.7119
60.5592
59.6585
57.9038
55.2202
51.5808
47.0194
41.6382
35.6077
29.1584
22.5643
16.1207
10.1174
4.81161
0.403021
-2.98513
-5.31731
-6.64775
-7.1136
-6.92074
-6.3246
-5.60853
-5.06124
-4.95284
-5.50649
-6.85986
-9.00963
-11.7341
-14.4944
-16.325
-15.7372
-10.6717
1.45546
23.5747
58.626
109.073
176.315
260.085
357.949
465.042
574.132
676.086
760.712
817.913
838.989
817.904
752.32
644.211
499.952
329.826
147.019
-33.8011
-198.104
-333.122
-429.255
-481.066
-487.767
-453.121
-384.819
-293.41
-190.952
-89.566
-0.0698328
69.1342
112.808
129.19
119.874
89.2927
43.913
-8.74016
-61.0976
-106.468
-139.768
-157.978
-160.316
-148.103
-124.396
-93.4345
-59.9927
-28.7287
-3.60408
12.5569
18.3285
13.7505
0.208659
-19.8384
-43.2404
-66.5886
-86.645
-100.717
-106.939
-104.43
-93.3286
-74.7009
-50.3485
-22.5441
6.2695
33.7776
58.0554
77.7647
92.2672
101.645
106.635
108.489
108.778
109.183
111.276
116.347
125.267
138.427
155.735
176.669
200.381
225.821
251.867
277.445
301.621
323.658
343.031
359.413
372.634
382.618
389.332
392.734
392.738
389.215
382.001
370.939
355.927
336.972
314.239
288.088
259.084
227.987
195.715
163.283
131.73
102.036
75.0465
51.4037
31.5046
15.4789
3.19511
-5.7082
-11.771
-15.6465
-18.0301
-19.5905
-20.9101
-22.441
-24.4791
-27.1577
-30.4602
-34.2465
-38.2915
-42.3274
-46.0863
-49.3383
-51.9195
-53.7491
-54.8336
-55.2589
-55.1715
-54.7532
-54.1921
-53.6541
-53.2595
-53.0668
-53.0661
-53.1826
-53.2888
-53.2238
-52.8168
-51.9115
-50.3879
-48.1785
-45.2782
-41.7459
-37.6977
-33.2948
-28.7255
-24.1863
-19.8618
-15.9084
-12.4413
-9.52794
-7.18608
-5.38818
-4.06984
-3.14139
-2.50098
-2.04738
-1.69113
-1.36285
-1.01797
-0.63768
-0.226326
0.194082
0.591188
0.93035
1.18232
1.32955
1.37057
1.32189
1.21763
1.10707
1.05056
1.11463
1.36666
1.87008
2.68013
3.84066
5.38196
7.31944
9.6532
12.3683
15.4355
18.8128
22.4478
26.2794
30.2417
34.2672
38.29
42.2496
46.0936
49.7796
53.2754
56.5578
59.61
62.4169
64.9599
67.2118
69.1322
70.6646
71.7359
72.2582
72.134
71.2636
69.5546
66.933
63.3549
58.817
53.3651
47.0994
40.1749
32.796
25.2057
17.6701
10.4591
3.82496
-2.01759
-6.90865
-10.7552
-13.5362
-15.3006
-16.1577
-16.2598
-15.7775
-14.8657
-13.6172
-12.0019
-9.78922
-6.45846
-1.10982
7.60114
21.4735
42.6801
73.5665
116.32
172.523
242.65
325.574
418.215
515.4
610.039
693.652
757.2
792.163
791.691
751.682
671.588
554.815
408.629
243.55
72.2933
-91.5947
-235.237
-347.857
-421.955
-454.065
-445.028
-399.73
-326.382
-235.432
-138.275
-45.922
32.1986
89.1761
121.185
127.647
110.997
76.1066
29.4756
-21.706
-70.4896
-110.984
-138.97
-152.245
-150.699
-136.118
-111.774
-81.8724
-50.9313
-23.18
-2.0474
10.2063
12.6809
5.84389
-8.63012
-28.1544
-49.6121
-69.7726
-85.6882
-95.0277
-96.3101
-89.0221
-73.6118
-51.3725
-24.2359
5.49161
35.416
63.3317
87.4548
106.591
120.226
128.531
132.291
132.776
131.563
130.345
130.735
134.104
141.449
153.316
169.772
190.431
214.517
240.963
268.529
295.919
321.892
345.359
365.443
381.517
393.213
400.396
403.128
401.616
396.147
387.044
374.621
359.155
340.881
319.999
296.702
271.205
243.784
214.806
184.751
154.219
123.909
94.5911
67.0485
42.0195
20.1294
1.8309
-12.6423
-23.3006
-30.3987
-34.4107
-35.9825
-35.8664
-34.847
-33.667
-32.9598
-33.1987
-34.6653
-37.4413
-41.422
-46.3486
-51.8549
-57.5211
-62.9276
-67.7037
-71.5646
-74.3343
-75.9527
-76.4679
-76.0155
-74.7897
-73.0103
-70.8904
-68.6095
-66.2939
-64.0082
-61.7564
-59.4924
-57.1372
-54.5999
-51.7985
-48.6781
-45.2226
-41.4601
-37.4608
-33.3276
-29.1833
-25.154
-21.3544
-17.8741
-14.7696
-12.0611
-9.73478
-7.75019
-6.05023
-4.57287
-3.26216
-2.07673
-0.994819
-0.0149449
0.847385
1.56627
2.1139
2.46937
2.6262
2.59729
2.4165
2.13664
1.82422
1.55206
1.39084
1.40112
1.62714
2.09321
2.80342
3.74435
4.89036
6.21049
7.67558
9.26458
10.9689
12.7939
14.7584
16.8902
19.2212
21.7809
24.5902
27.6572
30.9735
34.5139
38.2364
42.0831
45.9813
49.8438
53.5678
57.0339
60.1056
62.6297
64.4402
65.3658
65.2422
63.927
61.3178
57.3697
52.1101
45.6478
38.1755
29.9627
21.3412
12.6826
4.37099
-3.22617
-9.78642
-15.0567
-18.8723
-21.1681
-21.9844
-21.4654
-19.8523
-17.4711
-14.713
-12.0053
-9.76747
-8.34891
-7.94267
-8.47623
-9.48566
-9.99035
-8.39744
-2.47463
10.5662
33.8395
70.3969
122.696
191.989
277.722
377.07
484.734
593.08
692.684
773.247
824.783
838.933
810.202
736.924
621.8
471.889
298.033
113.777
-66.0832
-227.13
-356.926
-446.358
-490.579
-489.407
-447.172
-372.031
-274.874
-167.959
-63.4753
27.7938
97.5544
140.713
155.658
144.119
110.639
61.7783
5.14556
-51.5913
-101.609
-139.638
-162.422
-168.877
-159.994
-138.484
-108.269
-73.8767
-39.8217
-10.0638
12.4172
25.8788
29.8967
25.2776
13.8306
-1.95905
-19.3034
-35.4834
-48.1722
-55.6753
-57.0685
-52.2247
-41.7402
-26.7786
-8.85953
10.3741
29.382
46.9158
62.1542
74.7697
84.9261
93.212
100.523
107.912
116.432
126.98
140.187
156.335
175.333
196.748
219.868
243.812
267.634
290.448
311.511
330.288
346.477
359.989
370.899
379.373
385.587
389.644
391.521
391.034
387.843
381.49
371.465
357.297
338.644
315.385
287.69
256.057
221.313
184.58
147.196
110.608
76.256
45.4413
19.215
-1.714
-17.0346
-26.8487
-31.6453
-32.2358
-29.6611
-25.0793
-19.6485
-14.4181
-10.239
-7.70088
-7.10367
-8.46116
-11.5355
-15.8956
-20.9909
-26.2308
-31.0606
-35.0253
-37.815
-39.289
-39.4767
-38.558
-36.827
-34.6456
-32.3917
-30.4108
-28.9745
-28.2521
-28.2961
-29.0434
-30.33
-31.9175
-33.5257
-34.8688
-35.6891
-35.7852
-35.0317
-33.3883
-30.8984
-27.6786
-23.8997
-19.764
-15.4804
-11.2415
-7.20484
-3.48022
-0.12518
2.85254
5.48542
7.83161
9.95755
11.9204
13.753
15.453
16.9785
18.2499
19.1586
19.5797
19.389
18.4798
16.7788
14.2582
10.9438
6.918
2.31832
-2.66765
-7.81075
-12.8513
-17.5123
-21.5146
-24.5939
-26.5176
-27.1025
-26.2301
-23.8582
-20.0284
-14.8672
-8.58009
-1.43913
6.23488
14.0951
21.7932
29.0045
35.4507
40.9188
45.2739
48.4662
50.5298
51.5746
51.7706
51.327
50.4673
49.4025
48.3069
47.2974
46.4215
45.6542
44.9047
44.0331
42.8737
41.2623
39.0641
36.197
32.6484
28.4817
23.8329
18.8972
13.9071
9.10598
4.71985
0.931764
-2.13842
-4.44623
-6.02582
-6.98429
-7.48793
-7.74212
-7.96562
-8.35977
-9.07107
-10.1445
-11.4641
-12.6793
-13.1198
-11.7091
-6.89956
3.3424
21.4622
50.1227
91.8708
148.677
221.395
309.22
409.264
516.359
623.176
720.723
799.194
849.09
862.458
834.076
762.377
649.971
503.64
333.797
153.455
-23.1594
-182.17
-311.58
-402.57
-450.389
-454.755
-419.702
-352.931
-264.76
-166.827
-70.7072
13.3683
77.5463
117.033
130.363
119.246
88.0659
43.0905
-8.45752
-59.3629
-103.284
-135.429
-152.977
-155.213
-143.398
-120.406
-90.2006
-57.2284
-25.8209
0.333815
18.5842
27.5402
27.12
18.4312
3.51807
-14.9805
-34.2099
-51.4664
-64.5069
-71.7706
-72.4946
-66.7194
-55.1979
-39.2252
-20.4215
-0.496952
18.9713
36.7232
51.9442
64.326
74.0602
81.7697
88.393
95.0373
102.822
112.733
125.499
141.509
160.775
182.943
207.338
233.055
259.059
284.301
307.817
328.814
346.73
361.252
372.305
380.008
384.61
386.409
385.675
382.59
377.207
369.443
359.102
345.925
329.663
310.148
287.364
261.503
232.989
202.485
170.851
139.097
108.297
79.5057
53.6666
31.5353
13.6181
0.13603
-8.98334
-14.0872
-15.7547
-14.7356
-11.8778
-8.05201
-4.07971
-0.672325
1.61455
2.40883
1.53098
-1.01418
-5.06028
-10.3126
-16.3878
-22.8554
-29.278
-35.2462
-40.4079
-44.4883
-47.303
-48.7621
-48.8683
-47.7075
-45.4363
-42.265
-38.4386
-34.2178
-29.8595
-25.5998
-21.6392
-18.1314
-15.1768
-12.8194
-11.0502
-9.81322
-9.01601
-8.54291
-8.26918
-8.07512
-7.85834
-7.54307
-7.08546
-6.47455
-5.72902
-4.89052
-4.01466
-3.16122
-2.38483
-1.72758
-1.21429
-0.850907
-0.625778
-0.513403
-0.479551
-0.486729
-0.498925
-0.484791
-0.418846
-0.280723
-0.0529161
0.282217
0.745277
1.36167
2.16184
3.17965
4.44905
5.99952
7.85103
10.0096
12.4644
15.1863
18.1302
21.238
24.4449
27.6854
30.9003
34.0413
37.0751
39.9841
42.7653
45.4278
47.9885
50.4682
52.8888
55.2705
57.6306
59.9827
62.3346
64.6855
67.0203
69.3023
71.4643
73.4018
74.9678
75.9756
76.2081
75.4363
73.4458
70.0664
65.2031
58.8621
51.1666
42.36
32.7942
22.903
13.164
4.05319
-4.0019
-10.6649
-15.7235
-19.1082
-20.8954
-21.293
-20.6095
-19.2062
-17.4332
-15.5481
-13.6188
-11.4132
-8.28586
-3.08155
5.9174
20.963
44.6983
79.8748
128.93
193.456
273.634
367.726
471.753
579.444
682.553
771.542
836.572
868.71
861.162
810.346
716.647
584.698
423.126
243.774
60.4949
-112.344
-261.432
-375.967
-448.795
-477.098
-462.556
-410.972
-331.435
-235.14
-134.026
-39.41
39.2142
95.0819
124.676
127.824
107.395
68.6678
18.467
-35.7993
-87.0799
-129.485
-158.869
-173.142
-172.299
-158.188
-134.074
-104.08
-72.5712
-43.5814
-20.3411
-4.95406
1.7489
0.181628
-8.17948
-21.092
-35.9094
-49.9554
-60.8631
-66.8398
-66.8317
-60.5799
-48.5722
-31.9086
-12.1058
9.12634
30.1101
49.3968
65.9181
79.0796
88.7927
95.4478
99.8386
103.048
106.315
110.888
117.894
128.225
142.453
160.781
183.038
208.703
236.959
266.779
297.013
326.483
354.07
378.785
399.813
416.543
428.568
435.676
437.819
435.088
427.677
415.863
399.978
380.405
357.566
331.922
303.973
274.257
243.349
211.852
180.387
149.584
120.059
92.3935
67.1117
44.6537
25.3506
9.40383
-3.13031
-12.3466
-18.4864
-21.9225
-23.1323
-22.6631
-21.0914
-18.98
-16.838
-15.086
-14.032
-13.8577
-14.6178
-16.2512
-18.6024
-21.4494
-24.5364
-27.6062
-30.4289
-32.8252
-34.681
-35.9533
-36.6666
-36.9021
-36.7808
-36.4425
-36.0252
-35.6456
-35.3839
-35.2754
-35.3076
-35.4251
-35.5392
-35.5422
-35.3235
-34.7847
-33.8531
-32.4909
-30.6997
-28.5188
-26.0204
-23.2999
-20.4649
-17.6227
-14.8703
-12.2853
-9.92087
-7.80417
-5.93794
-4.30515
-2.87555
-1.61307
-0.482903
0.542433
1.47905
2.3298
3.08465
3.72321
4.21887
4.5439
4.6751
4.59896
4.31594
3.84339
3.21672
2.48877
1.72751
1.01236
0.429536
0.0670462
0.0100395
0.337009
1.11724
2.40945
4.26121
6.70847
9.77449
13.4677
17.7786
22.6755
28.1007
33.968
40.1611
46.5367
52.9288
59.1573
65.0383
70.3952
75.0704
78.9343
81.8923
83.888
84.902
84.9473
84.0604
82.2913
79.6929
76.3122
72.1863
67.3434
61.809
55.6171
48.8235
41.5177
33.8314
25.941
18.0613
10.4325
3.30002
-3.10869
-8.60855
-13.0777
-16.4726
-18.8344
-20.2853
-21.0124
-21.2373
-21.168
-20.9301
-20.475
-19.4692
-17.1736
-12.3376
-3.13912
12.7871
38.194
75.9135
128.396
197.138
282.081
381.087
489.633
600.807
705.716
794.262
856.262
882.729
867.161
806.62
702.417
560.284
389.974
204.332
17.934
-154.498
-299.725
-407.432
-471.292
-489.546
-465.011
-404.562
-318.155
-217.546
-114.872
-21.282
54.2184
105.592
130.177
128.665
104.69
64.0992
14.0398
-38.0323
-85.2764
-122.228
-145.314
-153.091
-146.191
-127.024
-99.2892
-67.376
-35.7436
-8.35112
11.7916
22.9102
24.5711
17.6088
3.90404
-13.9466
-33.017
-50.4424
-63.7644
-71.1943
-71.7686
-65.39
-52.7579
-35.2088
-14.4936
7.47511
28.8722
48.1773
64.3359
76.8504
85.7957
91.7647
95.7547
99.0138
102.869
108.558
117.083
129.11
144.905
164.331
186.89
211.795
238.077
264.688
290.614
314.952
336.978
356.172
372.216
384.965
394.403
400.582
403.57
403.407
400.076
393.506
383.583
370.19
353.25
332.78
308.934
282.032
252.572
221.225
188.8
156.201
124.363
94.191
66.4911
41.9157
20.9203
3.7377
-9.62725
-19.3832
-25.9209
-29.7674
-31.5325
-31.8522
-31.3347
-30.515
-29.821
-29.5535
-29.8809
-30.8478
-32.3941
-34.3827
-36.6305
-38.9399
-41.1263
-43.0404
-44.5816
-45.7037
-46.4123
-46.7556
-46.81
-46.6645
-46.4035
-46.0938
-45.7736
-45.4481
-45.0894
-44.6423
-44.033
-43.1819
-42.0161
-40.4817
-38.5534
-36.2407
-33.5885
-30.6745
-27.6009
-24.4839
-21.4407
-18.577
-15.9758
-13.6894
-11.7357
-10.0987
-8.73309
-7.57304
-6.54239
-5.56589
-4.5796
-3.53911
-2.42462
-1.2423
-0.02189
1.18888
2.33239
3.35042
4.1934
4.82841
5.24489
5.45739
5.50509
5.44822
5.36194
5.32862
5.42954
5.73726
6.30976
7.1873
8.39231
9.93242
11.8058
14.0076
16.5361
19.3975
22.607
26.1871
30.1619
34.5487
39.3475
44.5294
50.0262
55.7218
61.4477
66.9825
72.0583
76.3723
79.6064
81.4513
81.6355
79.9559
76.3065
70.7009
63.2858
54.3423
44.272
33.57
22.7863
12.4787
3.16334
-4.73177
-10.9051
-15.2065
-17.6465
-18.3893
-17.7302
-16.0617
-13.8335
-11.5105
-9.53303
-8.2826
-8.0497
-9.00087
-11.1377
-14.2414
-17.8005
-20.9259
-22.2684
-19.9663
-11.659
5.39658
34.0762
76.9984
136.018
211.664
302.622
405.358
514.016
620.65
715.829
789.575
832.528
837.182
799.013
717.308
595.566
441.367
265.737
82.0399
-95.4299
-252.994
-379.064
-465.359
-507.714
-506.391
-465.866
-394.142
-301.686
-200.142
-100.988
-14.2972
52.2527
94.0171
109.624
100.815
71.9341
29.1668
-20.3765
-69.5924
-112.228
-143.539
-160.705
-162.966
-151.497
-129.066
-99.5218
-67.2089
-36.3745
-10.6488
7.34906
16.2425
15.954
7.59694
-6.76789
-24.469
-42.6036
-58.4105
-69.5911
-74.5464
-72.5075
-63.5555
-48.5376
-28.9
-6.46327
16.8257
39.1358
58.9586
75.2603
87.5648
95.9661
101.073
103.9
105.72
107.901
111.739
118.323
128.42
142.407
160.257
181.554
205.559
231.297
257.661
283.521
307.828
329.69
348.435
363.636
375.109
382.88
387.134
388.149
386.224
381.618
374.501
364.926
352.834
338.073
320.447
299.778
275.972
249.084
219.364
187.288
153.557
119.071
84.8683
52.0537
21.7041
-5.2224
-27.9712
-46.0569
-59.3027
-67.8485
-72.128
-72.8168
-70.7597
-66.8843
-62.1123
-57.278
-53.0621
-49.948
-48.202
-47.8794
-48.8509
-50.8468
-53.5098
-56.4505
-59.2977
-61.7396
-63.5507
-64.6036
-64.867
-64.3911
-63.2851
-61.6906
-59.7546
-57.6073
-55.3445
-53.0198
-50.6432
-48.1878
-45.6017
-42.8232
-39.797
-36.4883
-32.8935
-29.0463
-25.0174
-20.9094
-16.8475
-12.9662
-9.39602
-6.24991
-3.61223
-1.53107
-0.0147159
0.967656
1.48135
1.61855
1.48877
1.20885
0.893368
0.646813
0.557869
0.696247
1.1119
1.83628
2.88506
4.2617
5.96136
7.97454
10.29
12.8969
15.7849
18.9439
22.3619
26.0215
29.8969
33.9502
38.1295
42.3678
46.5845
50.6889
54.5856
58.1821
61.3965
64.1658
66.4521
68.2472
69.5739
70.4842
71.0537
71.3723
71.5314
71.6095
71.6561
71.6766
71.6208
71.378
70.7801
69.6157
67.6531
64.6719
60.4973
55.0343
48.2939
40.4086
31.6319
22.3222
12.9116
3.8639
-4.37351
-11.4164
-16.9841
-20.9282
-23.2457
-24.076
-23.6796
-22.4013
-20.6149
-18.6513
-16.707
-14.7367
-12.3364
-8.63161
-2.19865
8.9483
27.2664
55.46
96.1133
151.199
221.519
306.175
402.164
504.234
605.062
695.801
766.967
809.56
816.274
782.604
707.688
594.712
450.818
286.485
114.468
-51.5804
-198.616
-315.639
-394.875
-432.545
-429.149
-389.229
-320.669
-233.639
-139.331
-48.6474
28.9859
86.5486
120.006
128.489
114.092
81.3328
36.3774
-13.8568
-62.6052
-104.05
-133.924
-149.859
-151.472
-140.199
-118.914
-91.4235
-61.882
-34.2366
-11.7479
3.3528
10.0425
8.51693
0.0464345
-13.2876
-28.9326
-44.2294
-56.7552
-64.6027
-66.5674
-62.2298
-51.9305
-36.6534
-17.8403
2.83464
23.6973
43.2844
60.5074
74.7536
85.9184
94.3699
100.858
106.386
112.062
118.954
127.965
139.736
154.594
172.532
193.234
216.124
240.434
265.286
289.775
313.039
334.323
353.018
368.685
381.056
390.02
395.587
397.853
396.951
393.015
386.142
376.383
363.732
348.149
329.59
308.046
283.591
256.424
226.903
195.558
163.09
130.339
98.2421
67.7608
39.8146
15.2037
-5.45762
-21.7912
-33.6854
-41.2993
-45.0429
-45.5332
-43.5335
-39.8816
-35.4141
-30.8967
-26.9654
-24.0846
-22.5261
-22.3686
-23.5168
-25.736
-28.6982
-32.0325
-35.3745
-38.4094
-40.9048
-42.7284
-43.8533
-44.3477
-44.3541
-44.0596
-43.6629
-43.3413
-43.2226
-43.3656
-43.7504
-44.2811
-44.7991
-45.1054
-44.9884
-44.2538
-42.7523
-40.4019
-37.2005
-33.23
-28.6489
-23.6766
-18.5703
-13.5987
-9.01472
-5.03111
-1.80176
0.590209
2.13594
2.89655
2.99188
2.5841
1.85826
1.00218
0.187808
-0.444072
-0.794364
-0.810752
-0.487181
0.141746
1.01046
2.03482
3.1256
4.20149
5.20014
6.08612
6.85523
7.53505
8.18209
8.87637
9.7142
10.8001
12.2382
14.1247
16.5399
19.542
23.1613
27.3962
32.2109
37.5341
43.261
49.256
55.3587
61.3901
67.1607
72.4795
77.1618
81.0373
83.957
85.7976
86.4662
85.9013
84.0753
80.9951
76.7033
71.2802
64.8448
57.5561
49.6113
41.2421
32.7065
24.2769
16.2245
8.80094
2.22045
-3.35746
-7.84048
-11.2104
-13.5233
-14.9017
-15.5216
-15.5925
-15.3345
-14.9503
-14.5908
-14.3119
-14.0162
-13.38
-11.7668
-8.14009
-0.999052
11.6315
32.1187
63.0153
106.717
164.998
238.479
326.115
424.81
529.272
632.186
724.752
797.545
841.605
849.622
817.021
742.785
629.869
485.13
318.748
143.221
-27.9527
-181.725
-306.899
-395.287
-442.513
-448.331
-416.476
-354.051
-270.575
-176.798
-83.4667
-0.160645
65.6394
109.176
128.676
125.24
102.416
65.5241
20.8449
-25.2312
-66.9743
-99.928
-121.303
-130.122
-127.133
-114.503
-95.3817
-73.378
-52.0336
-34.3629
-22.5046
-17.5238
-19.3707
-26.9906
-38.5531
-51.7636
-64.2068
-73.6771
-78.4546
-77.4952
-70.5187
-57.9924
-41.0203
-21.1595
-0.192892
20.1121
38.2262
53.038
63.9709
71.0267
74.7559
76.1625
76.5586
77.3899
80.0556
85.7426
95.2954
109.133
127.222
149.101
173.954
200.72
228.215
255.258
280.787
303.938
324.094
340.894
354.212
364.094
370.696
374.198
374.743
372.385
367.065
358.625
346.841
331.485
312.394
289.546
263.119
233.539
201.486
167.882
133.836
100.568
69.3096
41.1973
17.1704
-2.11699
-16.3548
-25.6032
-30.2805
-31.1139
-29.0607
-25.2077
-20.6611
-16.4399
-13.3845
-12.0901
-12.8699
-15.7522
-20.5073
-26.7008
-33.7633
-41.0686
-48.0096
-54.0645
-58.845
-62.1249
-63.8455
-64.1018
-63.1118
-61.1754
-58.6286
-55.7992
-52.9694
-50.3485
-48.0593
-46.1366
-44.5376
-43.1618
-41.8749
-40.5356
-39.0193
-37.2365
-35.144
-32.7484
-30.1014
-27.2894
-24.4189
-21.6002
-18.9323
-16.4912
-14.3221
-12.4371
-10.8177
-9.42141
-8.19136
-7.06649
-5.99146
-4.92445
-3.84211
-2.74097
-1.63567
-0.554316
0.468043
1.39666
2.20412
2.87602
3.41473
3.84083
4.19212
4.52067
4.8884
5.36196
6.00767
6.88713
8.05378
9.55062
11.4088
13.6469
16.2706
19.272
22.6297
26.3077
30.2561
34.4111
38.6966
43.0262
47.3072
51.4442
55.3441
58.92
62.0956
64.8074
67.0067
68.6596
69.7463
70.2593
70.2011
69.5813
68.4142
66.7161
64.5025
61.7861
58.5757
54.8751
50.6833
45.9965
40.8099
35.1213
28.9364
22.2739
15.173
7.70066
-0.0403034
-7.90475
-15.7012
-23.1931
-30.1063
-36.1456
-41.0176
-44.4572
-46.2517
-46.2507
-44.3515
-40.4506
-34.3553
-25.6646
-13.6387
2.90734
25.6385
56.6182
98.0756
152.016
219.706
301.112
394.394
495.573
598.503
695.186
776.464
833.03
856.6
841.121
783.779
685.666
551.972
391.639
216.526
40.1644
-123.715
-262.695
-367.025
-430.633
-451.68
-432.601
-379.634
-301.931
-210.372
-116.25
-29.9935
39.925
87.7642
110.911
109.876
87.9216
50.4008
3.9056
-44.6471
-88.8807
-123.673
-145.646
-153.395
-147.45
-130.01
-104.487
-74.9604
-45.5898
-20.0847
-1.27886
9.14323
10.7513
4.30778
-8.43597
-25.0456
-42.7651
-58.8821
-71.053
-77.55
-77.4087
-70.4682
-57.3094
-39.1097
-17.4417
5.95343
29.3881
51.4175
70.977
87.4582
100.719
111.037
119.021
125.493
131.361
137.51
144.7
153.506
164.286
177.176
192.112
208.864
227.082
246.334
266.147
286.029
305.485
324.027
341.17
356.43
369.328
379.386
386.147
389.185
388.142
382.751
372.87
358.515
339.879
317.34
291.455
262.941
232.633
201.441
170.29
140.067
111.56
85.4228
62.1339
41.9825
25.0647
11.2961
0.437021
-7.87188
-14.0683
-18.6243
-22.005
-24.632
-26.8557
-28.9378
-31.0443
-33.2497
-35.5488
-37.8758
-40.1273
-42.1847
-43.936
-45.2923
-46.1995
-46.6434
-46.6489
-46.2743
-45.6018
-44.7257
-43.7404
-42.7296
-41.7572
-40.8621
-40.0557
-39.3232
-38.6278
-37.9168
-37.1292
-36.2034
-35.0844
-33.7296
-32.112
-30.2227
-28.0701
-25.6785
-23.085
-20.336
-17.4835
-14.5817
-11.684
-8.84069
-6.09807
-3.49812
-1.07924
1.12262
3.07275
4.73682
6.08082
7.07215
7.68177
7.88758
7.67854
7.05919
6.05398
4.71076
3.10281
1.32903
-0.488323
-2.20813
-3.67728
-4.7393
-5.24409
-5.05797
-4.07297
-2.21478
0.551519
4.21826
8.7348
14.0101
19.9177
26.3038
32.9961
39.8148
46.5832
53.1381
59.3385
65.073
70.2637
74.8673
78.8726
82.2939
85.1609
87.5048
89.3444
90.6711
91.4386
91.5579
90.9011
89.3134
86.6346
82.726
77.4998
70.9466
63.1557
54.3237
44.7503
34.8191
24.9664
15.6404
7.25632
0.153673
-5.43928
-9.42917
-11.8663
-12.9378
-12.9465
-12.2787
-11.3639
-10.6301
-10.4554
-11.1146
-12.7169
-15.1319
-17.9007
-20.1398
-20.453
-16.8805
-6.92169
12.3274
43.8937
90.4974
154.003
234.819
331.361
439.679
553.393
663.988
761.504
835.568
876.64
877.305
833.418
744.91
616.118
455.562
275.175
89.075
-87.9549
-242.096
-362.002
-440.004
-472.853
-461.923
-412.868
-334.785
-239.016
-137.759
-42.6469
36.5027
92.6489
122.09
124.591
103.094
63.0738
11.6526
-43.4075
-94.6956
-136.01
-162.993
-173.478
-167.546
-147.296
-116.401
-79.5031
-41.5617
-7.21475
19.7555
36.803
42.8129
38.1053
24.2655
3.84072
-20.0491
-44.1281
-65.3572
-81.2592
-90.1431
-91.2146
-84.5706
-71.0925
-52.2606
-29.9199
-6.03036
17.571
39.3676
58.3048
73.8634
86.0648
95.4133
102.788
109.301
116.14
124.414
135.021
148.546
165.209
184.853
206.984
230.838
255.485
279.936
303.246
324.605
343.393
359.21
371.859
381.314
387.655
391
391.444
389.004
383.607
375.09
363.238
347.844
328.777
306.048
279.873
250.698
219.21
186.303
153.021
120.476
89.7501
61.7971
37.3573
16.8917
0.548533
-11.8354
-20.6985
-26.6892
-30.58
-33.173
-35.2085
-37.288
-39.8213
-43.0011
-46.8081
-51.0425
-55.3766
-59.4197
-62.7858
-65.1552
-66.3223
-66.2238
-64.946
-62.7103
-59.8416
-56.7248
-53.7544
-51.2864
-49.5969
-48.8525
-49.0963
-50.2489
-52.125
-54.4602
-56.946
-59.2665
-61.1334
-62.3128
-62.6429
-62.0397
-60.4919
-58.0462
-54.7873
-50.8163
-46.2317
-41.1167
-35.5354
-29.5367
-23.166
-16.4817
-9.57126
-2.56448
4.36058
10.9806
17.0396
22.27
26.4188
29.2765
30.7024
30.6451
29.1535
26.3771
22.5563
18.0039
13.079
8.15789
3.60462
-0.256386
-3.16222
-4.92692
-5.44944
-4.71399
-2.78359
0.212202
4.0939
8.65127
13.6632
18.9161
24.2199
29.4192
34.3994
39.088
43.451
47.485
51.2082
54.6496
57.8393
60.8001
63.541
66.053
68.3055
70.2445
71.7907
72.8384
73.2568
72.8929
71.5799
69.1503
65.4542
60.3815
53.8863
46.0081
36.8887
26.7789
16.0345
5.09868
-5.52625
-15.3175
-23.7759
-30.471
-35.0835
-37.44
-37.5356
-35.5416
-31.7934
-26.7551
-20.9579
-14.9085
-8.96903
-3.2149
2.71509
9.74998
19.4643
34.0613
56.2241
88.8121
134.407
194.751
270.151
358.963
457.277
558.896
655.693
738.334
797.307
824.126
812.539
759.543
666.047
537.054
381.319
210.504
37.9503
-122.788
-259.441
-362.354
-425.492
-446.985
-429.162
-378.099
-302.736
-213.723
-122.119
-38.1413
29.9038
76.3892
98.756
97.5139
75.8783
39.1227
-6.25342
-53.4232
-96.0824
-129.153
-149.269
-155.007
-146.855
-126.957
-98.6786
-66.0687
-33.2931
-4.1122
18.5393
32.8277
38.1337
35.0042
24.9673
10.2454
-6.58754
-22.9557
-36.5957
-45.7994
-49.562
-47.6273
-40.4343
-28.9808
-14.6304
1.11009
16.8097
31.303
43.828
54.098
62.3038
69.051
75.2443
81.9383
90.1769
100.841
114.525
131.46
151.48
174.051
198.336
223.302
247.843
270.904
291.592
309.26
323.552
334.404
342.016
346.776
349.181
349.738
348.88
346.891
343.866
339.699
334.104
326.662
316.888
304.313
288.559
269.409
246.86
221.151
192.764
162.406
130.96
99.427
68.8448
40.2144
14.4216
-7.82885
-26.0637
-40.0705
-49.9043
-55.8712
-58.4901
-58.4382
-56.4842
-53.4184
-49.9844
-46.8213
-44.42
-43.0992
-42.9996
-44.098
-46.2366
-49.1627
-52.5729
-56.1563
-59.6298
-62.7633
-65.392
-67.4156
-68.7889
-69.5047
-69.5761
-69.0203
-67.8478
-66.0593
-63.6485
-60.6111
-56.9567
-52.7203
-47.9713
-42.8174
-37.4021
-31.8962
-26.4846
-21.3497
-16.6552
-12.5312
-9.0632
-6.28659
-4.18698
-2.70554
-1.74865
-1.20015
-0.934338
-0.828043
-0.770473
-0.670029
-0.457914
-0.0887638
0.46106
1.19678
2.10937
3.1799
4.38367
5.69387
7.08461
8.53333
10.0225
11.5409
13.0835
14.6517
16.2517
17.8933
19.5881
21.3476
23.1819
25.0991
27.1052
29.205
31.4039
33.7097
36.1346
38.6964
41.4171
44.3197
47.4218
50.727
54.2144
57.8279
61.4674
64.9842
68.1813
70.8206
72.6383
73.3668
72.7616
70.6318
66.8685
61.468
54.5463
46.3408
37.198
27.5487
17.8702
8.64333
0.306287
-6.78746
-12.402
-16.439
-18.942
-20.0861
-20.153
-19.496
-18.497
-17.5184
-16.851
-16.655
-16.8936
-17.2569
-17.0804
-15.2691
-10.2476
0.0338792
18.0045
46.2614
87.228
142.698
213.315
298.064
393.89
495.543
595.743
685.704
755.994
797.637
803.316
768.495
692.263
577.776
432.173
265.978
92.0382
-75.8597
-224.515
-342.771
-422.723
-460.511
-456.614
-415.624
-345.535
-256.674
-160.416
-67.842
11.4631
70.3676
104.781
113.84
99.6957
66.9639
21.9304
-28.368
-77.065
-118.273
-147.694
-162.967
-163.751
-151.543
-129.289
-100.858
-70.4558
-42.0528
-18.9096
-3.23448
3.98802
2.99794
-4.89448
-17.5825
-32.5096
-47.0383
-58.792
-65.9304
-67.3283
-62.6472
-52.2988
-37.317
-19.1627
0.5074
20.0743
38.1643
53.805
66.5163
76.3294
83.7384
89.5967
94.9751
101.003
108.716
118.923
132.113
148.413
167.584
189.073
212.095
235.737
259.07
281.255
301.623
319.724
335.345
348.479
359.275
367.96
374.752
379.779
383.021
384.277
383.168
379.18
371.733
360.272
344.369
323.816
298.692
269.404
236.69
201.576
165.304
129.233
94.7217
63.0134
35.1322
11.8016
-6.60386
-20.0714
-28.9268
-33.7793
-35.4423
-34.8406
-32.9133
-30.526
-28.3985
-27.056
-26.8064
-27.7435
-29.7734
-32.6582
-36.0689
-39.6423
-43.0325
-45.9533
-48.2066
-49.6953
-50.4222
-50.4757
-50.0073
-49.2038
-48.2587
-47.3471
-46.6055
-46.119
-45.916
-45.9696
-46.2059
-46.5153
-46.7678
-46.8279
-46.569
-45.8864
-44.7059
-42.9897
-40.7378
-37.9855
-34.7977
-31.2602
-27.47
-23.5251
-19.5148
-15.5129
-11.5733
-7.72912
-3.99494
-0.371972
3.14526
6.56166
9.87503
13.0714
16.1233
18.9903
21.6239
23.9728
25.9916
27.6478
28.9291
29.8482
30.4441
30.7818
30.9479
31.044
31.1794
31.4621
31.9902
32.845
34.0845
35.7394
37.8118
40.2753
43.0778
46.1465
49.3932
52.7208
56.0293
59.2198
62.1984
64.876
67.1677
68.989
70.2514
70.858
70.7008
69.6607
67.6136
64.4403
60.0428
54.3634
47.4043
39.245
30.0529
20.0849
9.67886
-0.766201
-10.8181
-20.0458
-28.056
-34.5268
-39.2368
-42.0843
-43.0964
-42.4269
-40.3427
-37.2
-33.4099
-29.3935
-25.5219
-22.0406
-18.9733
-16.0099
-12.3889
-6.79776
2.67286
18.4803
43.4465
80.4173
131.775
198.852
281.331
376.766
480.321
584.861
681.431
760.11
811.159
826.307
799.982
730.296
619.606
474.544
305.496
125.558
-50.863
-209.654
-338.566
-428.553
-474.711
-476.696
-438.594
-368.266
-276.286
-174.612
-75.1691
11.469
77.1534
116.873
129.043
115.378
80.3803
30.5541
-26.5427
-83.2838
-132.87
-170.039
-191.525
-196.229
-185.124
-160.917
-127.543
-89.57
-51.5905
-17.6749
9.05125
26.6725
34.5745
33.3692
24.6819
10.8405
-5.48502
-21.6425
-35.3141
-44.7556
-48.9362
-47.5736
-41.0713
-30.3745
-16.7734
-1.68224
13.5728
27.932
40.7235
51.719
61.1198
69.4828
77.6005
86.357
96.5815
108.919
123.739
141.083
160.671
181.941
204.138
226.411
247.926
267.964
285.997
301.733
315.115
326.298
335.585
343.347
349.927
355.563
360.31
363.999
366.229
366.393
363.744
357.488
346.894
331.411
310.772
285.076
254.821
220.903
184.559
147.268
110.621
76.1769
45.3104
19.0897
-1.81867
-17.1974
-27.2771
-32.6867
-34.3639
-33.4385
-31.1018
-28.4803
-26.525
-25.9295
-27.0823
-30.0559
-34.6317
-40.3534
-46.6037
-52.6918
-57.943
-61.7818
-63.7974
-63.7882
-61.781
-58.0228
-52.9497
-47.1348
-41.2236
-35.863
-31.6317
-28.98
-28.183
-29.3142
-32.239
-36.6307
-42.0057
-47.7745
-53.3033
-57.9792
-61.272
-62.7866
-62.299
-59.7745
-55.3644
-49.3832
-42.2701
-34.5376
-26.717
-19.3035
-12.7093
-7.22925
-3.02115
-0.102679
1.63611
2.40744
2.49156
2.19819
1.82876
1.64366
1.83801
2.52811
3.74911
5.46316
7.57579
9.9577
12.4684
14.9784
17.387
19.6335
21.7018
23.6165
25.4344
27.2311
29.0864
31.0698
33.2303
35.5889
38.1378
40.8432
43.6525
46.5029
49.3304
52.0762
54.6905
57.1319
59.3634
61.3463
63.0331
64.361
65.2496
65.601
65.306
64.2534
62.3432
59.501
55.6917
50.9306
45.2896
38.8982
31.9373
24.6276
17.2121
9.93669
3.0287
-3.322
-8.97836
-13.8657
-17.9743
-21.3561
-24.1141
-26.3877
-28.3329
-30.0977
-31.7899
-33.4341
-34.9138
-35.8959
-35.7417
-33.4149
-27.4114
-15.7414
3.99592
34.4135
77.9964
136.635
211.081
300.418
401.647
509.512
616.651
714.11
792.201
841.622
854.669
826.379
755.418
644.55
500.602
333.901
157.252
-15.433
-170.649
-296.778
-385.331
-431.796
-435.996
-401.927
-337.115
-251.592
-156.636
-63.4419
18.1056
80.4242
118.878
132.025
121.471
91.3711
47.6793
-2.74747
-53.0663
-97.271
-130.829
-151.068
-157.297
-150.66
-133.779
-110.25
-84.0621
-59.0383
-38.3505
-24.174
-17.5068
-18.162
-24.9159
-35.7767
-48.3278
-60.0918
-68.8681
-73.0006
-71.5495
-64.3518
-51.9753
-35.5801
-16.715
2.91999
21.7103
38.3333
51.911
62.0929
69.0666
73.4992
76.4242
79.0909
82.7993
88.7404
97.8603
110.763
127.656
148.35
172.291
198.639
226.361
254.337
281.468
306.76
329.398
348.782
364.543
376.526
384.753
389.373
390.608
388.694
383.84
376.198
365.851
352.822
337.092
318.641
297.483
273.718
247.562
219.378
189.686
159.157
128.586
98.8452
70.8289
45.381
23.2283
4.91681
-9.23703
-19.1749
-25.1015
-27.464
-26.9084
-24.2182
-20.2406
-15.8111
-11.6819
-8.46486
-6.59112
-6.29299
-7.60679
-10.3948
-14.3824
-19.2039
-24.4529
-29.7292
-34.679
-39.024
-42.5775
-45.2474
-47.0274
-47.98
-48.2129
-47.8555
-47.0367
-45.8686
-44.4357
-42.793
-40.9688
-38.9738
-36.8113
-34.4883
-32.0237
-29.4537
-26.8314
-24.2232
-21.7008
-19.3321
-17.1706
-15.2476
-13.5665
-12.1007
-10.7964
-9.57793
-8.35658
-7.0402
-5.54335
-3.79611
-1.75096
0.612962
3.28842
6.24122
9.41374
12.7301
16.1024
19.4381
22.646
25.6437
28.362
30.7497
32.7761
34.4321
35.7299
36.7018
37.3972
37.8796
38.2224
38.505
38.8078
39.2077
39.7737
40.5622
41.6147
42.9548
44.588
46.5014
48.6652
51.0337
53.5471
56.1322
58.7025
61.1579
63.3834
65.2477
66.6024
67.2823
67.1087
65.8964
63.4658
59.6603
54.367
47.5398
39.2202
29.5527
18.791
7.29279
-4.49779
-16.0788
-26.9274
-36.5412
-44.4793
-50.3995
-54.0875
-55.4755
-54.6486
-51.838
-47.4001
-41.7809
-35.4628
-28.8924
-22.387
-16.02
-9.49411
-2.01714
7.79077
21.922
42.8976
73.5416
116.601
174.228
247.396
335.32
435.037
541.23
646.405
741.45
816.544
862.317
871.1
838.078
762.162
646.436
498.073
327.727
148.46
-25.6601
-181.102
-306.356
-393.159
-437.318
-439.032
-402.678
-336.132
-249.698
-154.821
-62.7399
16.7467
76.2613
111.472
121.312
107.792
75.4715
30.6666
-19.4755
-67.9204
-108.588
-136.998
-150.664
-149.206
-134.192
-108.759
-77.0781
-43.7402
-13.1456
11.0256
26.2083
31.1763
26.0836
12.3353
-7.68084
-30.9571
-54.27
-74.575
-89.3452
-96.8199
-96.1413
-87.3755
-71.4246
-49.8512
-24.643
2.04916
28.1696
51.9806
72.2298
88.2476
99.969
107.886
112.94
116.377
119.58
123.903
130.525
140.335
153.861
171.237
192.218
216.231
242.442
269.849
297.368
323.924
348.515
370.266
388.46
402.554
412.173
417.102
417.264
412.71
403.595
390.168
372.764
351.798
327.763
301.221
272.799
243.171
213.046
183.134
154.121
126.634
101.212
78.2733
58.0982
40.8154
26.4007
14.6867
5.38372
-1.8905
-7.57481
-12.1249
-15.974
-19.4976
-22.9851
-26.6213
-30.4785
-34.5213
-38.6213
-42.5811
-46.1649
-49.1311
-51.2645
-52.4034
-52.46
-51.4308
-49.3981
-46.5206
-43.0174
-39.1454
-35.1747
-31.3628
-27.9335
-25.0588
-22.8482
-21.3447
-20.527
-20.318
-20.5967
-21.2142
-22.0095
-22.8257
-23.5233
-23.9906
-24.1507
-23.9632
-23.4225
-22.5521
-21.3962
-20.0095
-18.4478
-16.7587
-14.9756
-13.1151
-11.1778
-9.15301
-7.02559
-4.78384
-2.42709
0.0290291
2.55055
5.08699
7.57693
9.95636
12.1684
14.1726
15.9523
17.5179
18.9066
20.1769
21.3997
22.6474
23.9826
25.448
27.0607
28.8107
30.6643
32.5722
34.4812
36.3468
38.1455
39.884
41.6044
43.3826
45.3223
47.542
50.1594
53.2726
56.9414
61.1709
65.8976
70.9808
76.1998
81.2567
85.7868
89.3773
91.5943
92.017
90.2787
86.1104
79.3821
70.1371
58.6128
45.244
30.6452
15.5718
0.861346
-12.6388
-24.1512
-33.0469
-38.9119
-41.5943
-41.2257
-38.2112
-33.189
-26.9625
-20.4088
-14.3701
-9.5345
-6.31195
-4.71087
-4.22445
-3.7389
-1.48316
4.95318
18.5029
42.3772
79.682
132.906
203.329
290.438
391.46
501.135
611.83
714.045
797.307
851.358
867.489
839.822
766.337
649.475
496.18
317.361
126.826
-60.1999
-228.743
-365.75
-461.515
-510.684
-512.728
-471.827
-396.2
-296.996
-186.895
-78.6078
16.5352
89.7362
135.508
152.005
140.899
106.855
56.7016
-1.58064
-59.915
-111.091
-149.532
-171.788
-176.726
-165.417
-140.77
-106.981
-68.8801
-31.2802
1.60967
26.625
41.9101
46.9904
42.6669
30.7651
13.7895
-5.46136
-24.2663
-40.2923
-51.8135
-57.8226
-58.0357
-52.8057
-42.9685
-29.6538
-14.0893
2.57352
19.3933
35.7204
51.2239
65.8701
79.8631
93.5618
107.39
121.753
136.97
153.234
170.594
188.959
208.126
227.81
247.684
267.414
286.679
305.19
322.689
338.941
353.723
366.801
377.915
386.773
393.037
396.345
396.322
392.613
384.926
373.072
357.007
336.87
313.003
285.961
256.495
225.52
194.059
163.176
133.897
107.134
83.6091
63.8063
47.9338
35.9178
27.4222
21.8913
18.6135
16.7956
15.6428
14.4329
12.5787
9.67197
5.50533
0.0713842
-6.45944
-13.7779
-21.486
-29.1514
-36.3593
-42.7563
-48.0817
-52.1839
-55.0222
-56.655
-57.2181
-56.8972
-55.8989
-54.4244
-52.6482
-50.7048
-48.6829
-46.6271
-44.5448
-42.4175
-40.2129
-37.8965
-35.4415
-32.8352
-30.0828
-27.2074
-24.2485
-21.2581
-18.296
-15.4249
-12.7058
-10.1931
-7.93151
-5.95302
-4.27483
-2.89853
-1.8101
-0.981322
-0.372304
0.0646958
0.380535
0.623949
0.836454
1.04808
1.27461
1.51688
1.76234
1.98887
2.17046
2.28383
2.31529
2.26642
2.1579
2.03049
1.94298
1.96718
2.1805
2.65728
3.46006
4.63221
6.19316
8.13715
10.4356
13.0429
15.9044
18.9655
22.1794
25.5131
28.9492
32.4834
36.1183
39.8533
43.6729
47.5359
51.3666
55.0509
58.4384
61.3513
63.5982
64.9934
65.3772
64.6353
62.7144
59.6313
55.4746
50.398
44.6061
38.3352
31.8305
25.3244
19.0162
13.0585
7.549
2.53001
-2.00549
-6.1029
-9.83176
-13.2706
-16.493
-19.5557
-22.4893
-25.2904
-27.9125
-30.2495
-32.1081
-33.162
-32.8861
-30.477
-24.7729
-14.2026
3.20347
29.7008
67.5903
118.844
184.624
264.765
357.309
458.21
561.314
658.676
741.23
799.755
826.026
813.974
760.68
667.039
537.966
382.084
210.931
37.7599
-123.887
-261.668
-365.773
-429.949
-452.078
-434.253
-382.359
-305.236
-213.53
-118.416
-30.3294
42.1248
92.9702
119.289
121.258
101.821
66.0617
20.3834
-28.3908
-73.8798
-110.867
-135.806
-147.073
-144.955
-131.403
-109.601
-83.4295
-56.8951
-33.5987
-16.3121
-6.6991
-5.20572
-11.1147
-22.7436
-37.7469
-53.4751
-67.3404
-77.1425
-81.3162
-79.0793
-70.468
-56.2675
-37.8537
-16.9738
4.50374
24.8343
42.6097
56.9126
67.399
74.3025
78.3679
80.7252
82.727
85.771
91.1316
99.8196
112.485
129.367
150.299
174.746
201.884
230.69
260.043
288.811
315.928
340.454
361.61
378.792
391.581
399.727
403.144
401.884
396.129
386.166
372.378
355.224
335.219
312.916
288.885
263.686
237.853
211.868
186.15
161.047
136.838
113.735
91.9015
71.4636
52.5266
35.1859
19.5337
5.65798
-6.36487
-16.4819
-24.6783
-30.9916
-35.5219
-38.4359
-39.9627
-40.3826
-40.0076
-39.1584
-38.1387
-37.2119
-36.5822
-36.3829
-36.6729
-37.4422
-38.6238
-40.1124
-41.7843
-43.5175
-45.208
-46.7815
-48.1972
-49.4456
-50.5397
-51.5026
-52.3528
-53.091
-53.6909
-54.0945
-54.2155
-53.9477
-53.1795
-51.8111
-49.7714
-47.0327
-43.6203
-39.6151
-35.1495
-30.3957
-25.55
-20.8135
-16.3729
-12.3836
-8.95666
-6.15233
-3.97879
-2.39695
-1.32958
-0.673251
-0.311339
-0.126252
-0.00962521
0.130489
0.365736
0.746697
1.30463
2.05488
3.00097
4.13859
5.45895
6.95095
8.60248
10.4008
12.3322
14.3823
16.5354
18.7747
21.0832
23.4437
25.8393
28.2537
30.671
33.0746
35.4464
37.7651
40.0052
42.135
44.1165
45.9043
47.4469
48.6873
49.5663
50.0251
50.0097
49.4753
48.3908
46.7425
44.5373
41.8044
38.5947
34.979
31.0432
26.8822
22.5924
18.2631
13.9688
9.76259
5.67232
1.70004
-2.17497
-5.98951
-9.78709
-13.6069
-17.4729
-21.3842
-25.308
-29.1749
-32.8749
-36.2496
-39.075
-41.0293
-41.6404
-40.2146
-35.7574
-26.9061
-11.9065
11.3284
45.0454
91.3447
151.751
226.707
315.077
413.758
517.518
619.145
709.957
780.641
822.342
827.854
792.726
716.11
601.194
455.129
288.434
113.94
-54.5849
-203.953
-323.016
-403.864
-442.623
-439.747
-399.795
-330.726
-242.828
-147.438
-55.6093
23.0994
81.5707
115.721
124.686
110.613
78.1181
33.4883
-16.229
-64.1497
-104.366
-132.561
-146.371
-145.475
-131.424
-107.255
-76.9679
-44.9304
-15.2966
8.48876
24.0516
30.2821
27.3539
16.5848
0.169899
-19.1661
-38.5479
-55.3109
-67.3022
-73.0912
-72.0712
-64.4505
-51.1435
-33.5839
-13.4903
7.38119
27.4657
45.5705
60.9902
73.5469
