-199.873
-185.223
-171.207
-158.397
-147.09
-137.228
-128.359
-119.671
-110.095
-98.4498
-83.6283
-64.7788
-41.461
-13.7485
17.739
51.8791
87.1604
121.848
154.18
182.556
205.714
222.842
233.647
238.346
237.61
232.454
224.11
213.88
203.007
192.558
183.349
175.897
170.419
166.856
164.931
164.222
164.243
164.52
164.655
164.363
163.488
161.984
159.877
157.207
153.969
150.059
145.234
139.106
131.169
120.85
107.601
91.0096
70.9075
47.4792
21.3319
-6.47984
-34.4913
-60.929
-83.8714
-101.454
-112.093
-114.697
-108.84
-94.8608
-73.8801
-47.7209
-18.7412
10.4001
37.0185
58.684
73.4732
80.1609
78.3319
68.3981
51.5255
29.4799
4.41522
-21.3697
-45.6745
-66.6143
-82.7852
-93.3647
-98.1389
-97.4603
-92.1459
-83.3334
-72.316
-60.3764
-48.6406
-37.9671
-28.8804
-21.5543
-15.8402
-11.3342
-7.46874
-3.61669
0.80805
6.26517
13.0276
21.1512
30.476
40.6539
51.1988
61.5468
71.1204
79.3862
85.9021
90.3475
92.5393
92.4322
90.107
85.7518
79.6386
72.0987
63.5
54.2275
44.6661
35.1866
26.134
17.8167
10.4967
4.38063
-0.388558
-3.73824
-5.67055
-6.26354
-5.66808
-4.0997
-1.82518
0.856042
3.63433
6.21439
8.33953
9.81288
10.5132
10.4029
9.52825
8.00955
6.02484
3.78704
1.51812
-0.577069
-2.33445
-3.64922
-4.48739
-4.8891
-4.96338
-4.87512
-4.82529
-5.02682
-5.67799
-6.936
-8.89283
-11.5557
-14.8345
-18.5383
-22.3825
-26.0087
-29.0154
-30.9999
-31.6056
-30.5708
-27.7724
-23.2562
-17.2518
-10.164
-2.54363
4.96255
11.6758
16.9567
20.2747
21.2668
19.7779
15.8795
9.86254
2.20859
-6.4571
-15.4246
-23.9629
-31.3837
-37.1005
-40.6846
-41.9161
-40.8332
-37.7742
-33.41
-28.7539
-25.1397
-24.1558
-27.5286
-36.9566
-53.9043
-79.3766
-113.702
-156.36
-205.881
-259.856
-315.067
-367.725
-413.824
-449.537
-471.64
-477.881
-467.261
-440.182
-398.429
-345.006
-283.824
-219.292
-155.865
-97.5926
-47.7367
-8.49458
19.1454
35.4028
41.5703
39.7695
32.6349
22.9693
13.4144
6.17284
2.81227
4.16451
10.3234
20.7307
34.3299
49.7621
65.5739
80.4117
93.1752
103.117
109.874
113.436
114.056
112.115
107.969
101.806
93.5206
82.6528
68.3857
49.6261
25.1568
-6.15135
-45.0928
-91.8823
-145.949
-205.811
-269.048
-332.413
-392.055
-443.854
-483.83
-508.568
-515.628
-503.861
-473.608
-426.745
-366.564
-297.498
-224.726
-153.692
-89.5936
-36.9023
1.04833
22.3525
26.6796
15.2652
-9.25087
-43.1201
-81.8839
-120.833
-155.481
-182.003
-197.592
-200.699
-191.137
-170.027
-139.612
-102.954
-63.5518
-24.9309
9.75392
38.0469
58.4225
70.392
74.4803
72.0821
65.2221
56.2549
47.5454
41.1696
38.6715
40.9036
47.9634
59.2283
73.4785
89.0868
104.247
117.213
126.512
131.114
130.541
124.89
114.796
101.329
85.8411
69.794
54.5848
41.3907
31.052
24.0033
20.2589
19.4486
20.8975
23.7356
27.0232
29.8759
31.573
31.6395
29.891
26.4411
21.6698
16.1618
10.6211
5.77539
2.28078
0.638921
1.13517
3.80428
8.42649
14.5533
21.5591
28.7116
35.2539
40.4871
43.8454
44.955
43.6701
40.0817
34.4969
27.3893
19.3221
10.8516
2.41763
-5.76431
-13.7955
-22.1543
-31.7089
-43.6737
-59.5028
-80.7292
-108.76
-144.658
-188.926
-241.342
-300.86
-365.603
-432.958
-499.774
-562.637
-618.2
-663.537
-696.459
-715.765
-721.4
-714.478
-697.176
-672.513
-644.021
-615.357
-589.899
-570.37
-558.544
-555.054
-559.343
-569.744
-583.695
-598.048
-609.443
-614.697
-611.165
-597.037
-571.53
-534.966
-488.723
-435.077
-376.945
-317.575
-260.208
-207.758
-162.534
-126.048
-98.913
-80.8395
-70.7386
-66.9004
-67.2328
-69.5265
-71.7148
-72.0973
-69.5038
-63.3812
-53.7993
-41.3793
-27.1605
-12.4242
1.49744
13.4051
22.3844
27.9104
29.8956
28.6784
24.9607
19.7042
14.0037
8.95407
5.5276
4.47578
6.26465
11.0479
18.6772
28.7439
40.6453
53.6637
67.0492
80.0957
92.2037
102.923
111.974
119.252
124.806
128.813
131.538
133.291
134.386
135.109
135.685
136.264
136.911
137.61
138.272
138.761
138.91
138.55
137.534
135.754
133.158
129.754
125.604
120.815
115.518
109.852
103.934
97.8434
91.6112
85.2157
78.5905
71.6398
64.2581
56.3499
47.846
38.7119
28.9498
18.5936
7.70033
-3.6586
-15.4038
-27.4501
-39.7043
-52.0596
-64.3878
-76.5326
-88.3052
-99.4837
-109.816
-119.029
-126.834
-132.945
-137.085
-139.005
-138.495
-135.399
-129.628
-121.178
-110.138
-96.7084
-81.1995
-64.0352
-45.7434
-26.9401
-8.30412
9.45467
25.6338
39.5804
50.7345
58.6694
63.1253
64.0321
61.5165
55.8922
47.6307
37.3153
25.5792
13.0373
0.215705
-12.5084
-24.9492
-37.1283
-49.2601
-61.7068
-74.905
-89.2751
-105.122
-122.542
-141.346
-161.016
-180.696
-199.232
-215.249
-227.272
-233.87
-233.813
-226.229
-210.732
-187.513
-157.386
-121.768
-82.6132
-42.2877
-3.414
31.3146
59.3285
78.374
86.6928
83.1788
67.5047
40.2073
2.72221
-42.6446
-92.8197
-144.144
-192.63
-234.285
-265.461
-283.211
-285.594
-271.892
-242.72
-199.984
-146.71
-86.751
-24.4076
35.9955
90.5215
135.98
170.188
192.114
201.887
200.687
190.525
173.964
153.792
132.717
113.089
96.6986
84.6593
77.3761
74.6013
75.5575
79.1072
83.9437
88.7773
92.4961
94.2832
93.682
90.6074
85.3087
78.2941
70.2314
61.8405
53.7929
46.6288
40.7024
36.1569
32.9307
30.7886
29.3729
28.2629
27.0372
25.3273
22.8583
19.4728
15.1344
9.91519
3.96788
-2.5114
-9.32381
-16.3061
-23.3604
-30.4713
-37.7072
-45.2059
-53.1462
-61.7116
-71.0497
-81.2358
-92.2462
-103.945
-116.089
-128.344
-140.321
-151.619
-161.866
-170.761
-178.107
-183.828
-187.966
-190.667
-192.145
-192.64
-192.368
-191.477
-190.006
-187.872
-184.87
-180.699
-175.012
-167.471
-157.816
-145.926
-131.864
-115.898
-98.4964
-80.2924
-62.0287
-44.4793
-28.3664
-14.2808
-2.61575
6.4747
13.0881
17.5548
20.3907
22.2281
23.7347
25.5313
28.12
31.8311
36.7954
42.9435
50.0316
57.6875
65.4706
72.9363
79.6957
85.4629
90.0834
93.5413
95.9451
97.4948
98.4383
99.0223
99.4473
99.8336
100.203
100.481
100.513
100.099
99.0336
97.1524
94.3646
90.6805
86.219
81.198
75.9075
70.6711
65.7997
61.5474
58.0743
55.423
53.5127
52.1502
51.0577
49.9118
48.3887
46.2089
43.176
39.2035
34.3274
28.7027
22.5852
16.3012
10.2096
4.66028
-0.0438713
-3.67921
-6.1225
-7.35981
-7.48264
-6.67231
-5.17535
-3.27325
-1.25055
0.634965
2.17657
3.23512
3.74643
3.71952
3.22674
2.38768
1.34929
0.265107
-0.724091
-1.50588
-2.00665
-2.19617
-2.0864
-1.72519
-1.18636
-0.557613
0.0719016
0.622858
1.0345
1.26999
1.31781
1.18914
0.91134
0.518541
0.0405934
-0.507524
-1.13356
-1.87096
-2.77544
-3.91485
-5.35316
-7.13079
-9.2444
-11.6298
-14.1513
-16.6011
-18.7101
-20.1713
-20.674
-19.9458
-17.7974
-14.1627
-9.12765
-2.94166
3.99278
11.1525
17.9455
23.7761
28.1146
30.5613
30.8964
29.1074
25.3905
20.1239
13.8181
7.05064
0.393458
-5.65414
-10.7183
-14.582
-17.1916
-18.6397
-19.1305
-18.9329
-18.3316
-17.5839
-16.8882
-16.3675
-16.069
-15.9789
-16.0468
-16.2169
-16.4614
-16.8109
-17.3796
-18.3819
-20.1373
-23.0613
-27.6407
-34.3906
-43.7963
-56.2406
-71.9245
-90.7885
-112.447
-136.142
-160.741
-184.759
-206.445
-223.899
-235.226
-238.716
-233.03
-217.37
-191.623
-156.457
-113.361
-64.6111
-13.1725
37.4753
83.5743
121.376
147.458
159.043
154.293
132.534
94.4009
41.864
-21.857
-92.5035
-165.092
-234.309
-294.961
-342.425
-373.075
-384.622
-376.347
-349.176
-305.605
-249.461
-185.533
-119.098
-55.4107
0.799606
45.7672
77.0092
93.4997
95.6815
85.3228
65.2408
38.9331
10.1626
-17.4548
-40.8121
-57.587
-66.4074
-66.8969
-59.6049
-45.8403
-27.4362
-6.47974
14.9579
35.0586
52.4365
66.2431
76.1921
82.509
85.8201
86.9991
86.9981
86.6846
86.7092
87.4179
88.8192
90.607
92.2311
93.0022
92.2131
89.2574
83.7254
75.466
64.6039
51.5128
36.7498
20.9645
4.79861
-11.2066
-26.6799
-41.4557
-55.5727
-69.2365
-82.7561
-96.4659
-110.647
-125.464
-140.917
-156.832
-172.874
-188.58
-203.415
-216.831
-228.313
-237.422
-243.807
-247.21
-247.444
-244.38
-237.924
-228.025
-214.681
-197.981
-178.137
-155.534
-130.753
-104.577
-77.9691
-52.0189
-27.8572
-6.55811
10.9651
24.0546
32.3795
35.9727
35.2288
30.8617
23.828
15.2247
6.17518
-2.28348
-9.29776
-14.2695
-16.8946
-17.1668
-15.347
-11.9067
-7.45093
-2.63454
1.92003
5.69253
8.31566
9.60245
9.54913
8.31565
6.18848
3.53182
0.734611
-1.83993
-3.89627
-5.23565
-5.77022
-5.52185
-4.60747
-3.21401
-1.56681
0.104215
1.59688
2.7643
3.53528
3.92596
4.04198
4.071
4.26672
4.92582
6.36049
8.86943
12.7103
18.0769
25.0822
33.7496
44.0117
55.7167
68.6393
82.4969
96.9666
111.704
126.363
140.606
154.127
166.661
177.991
187.962
196.482
203.527
209.134
213.398
216.463
218.506
219.723
220.312
220.457
220.317
220.01
219.607
219.131
218.553
217.796
216.739
215.222
213.056
210.028
205.918
200.51
193.607
185.053
174.749
162.67
148.885
133.561
116.976
99.5106
81.635
63.8872
46.8394
31.0583
17.0614
5.27506
-4.00256
-10.6281
-14.6259
-16.1853
-15.6424
-13.4473
-10.1218
-6.21054
-2.23212
1.36472
4.23563
6.16217
7.05892
6.96589
6.02781
4.46307
2.52576
0.464857
-1.51538
-3.28993
-4.83907
-6.2628
-7.78143
-9.72098
-12.4831
-16.5017
-22.1888
-29.8771
-39.764
-51.8672
-65.9966
-81.7495
-98.531
-115.599
-132.13
-147.3
-160.367
-170.754
-178.115
-182.373
-183.734
-182.668
-179.86
-176.132
-172.351
-169.337
-167.766
-168.1
-170.535
-174.994
-181.147
-188.469
-196.336
-204.12
-211.304
-217.567
-222.844
-227.336
-231.468
-235.799
-240.89
-247.154
-254.705
-263.244
-271.996
-279.715
-284.767
-285.282
-279.36
-265.313
-241.9
-208.539
-165.47
-113.835
-55.6855
6.10312
67.9994
126.052
176.183
214.518
237.729
243.357
230.097
197.999
148.576
84.7812
10.8509
-67.988
-145.928
-217.078
-275.999
-318.222
-340.688
-342.057
-322.842
-285.357
-233.461
-172.152
-107.036
-43.7428
12.6393
58.0533
89.8267
106.855
109.604
99.9321
80.7765
55.7375
28.6212
2.99832
-18.1729
-32.8172
-39.8858
-39.3647
-32.1606
-19.8881
-4.59447
11.5393
26.4821
38.5878
46.7584
50.5217
50.0234
45.9432
39.3533
31.5426
23.8323
17.4073
13.1809
11.7076
13.1493
17.2915
23.6043
31.3334
39.609
47.5556
54.3912
59.5041
62.5022
63.2311
61.7639
58.3654
53.4399
47.469
40.9481
34.3295
27.9769
22.135
16.9168
12.3066
8.1769
4.31659
0.464752
-3.65234
-8.28555
-13.6317
-19.8093
-26.8437
-34.6618
-43.0983
-51.9106
-60.8017
-69.4488
-77.5328
-84.7664
-90.9169
-95.8215
-99.3933
-101.618
-102.541
-102.252
-100.857
-98.4657
-95.1626
-91.0019
-86.0003
-80.1428
-73.3953
-65.7233
-57.1138
-47.5945
-37.2489
-26.223
-14.7225
-3.00033
8.66355
19.9878
30.7164
40.6428
49.6286
57.6134
64.6153
70.7225
76.078
80.8583
85.2519
89.4366
93.561
97.7282
101.984
106.308
110.608
114.715
118.386
121.31
123.124
123.438
121.871
118.097
111.893
103.185
92.0851
78.9045
64.1506
48.4909
32.6933
17.5438
3.75121
-8.15084
-17.8899
-25.5176
-31.4376
-36.392
-41.4029
-47.6753
-56.468
-68.9488
-86.0496
-108.341
-135.937
-168.456
-205.021
-244.33
-284.762
-324.526
-361.828
-395.041
-422.849
-444.367
-459.202
-467.465
-469.727
-466.929
-460.258
-451
-440.405
-429.555
-419.272
-410.064
-402.11
-395.288
-389.234
-383.425
-377.266
-370.18
-361.67
-351.374
-339.087
-324.757
-308.464
-290.396
-270.804
-249.973
-228.199
-205.768
-182.957
-160.037
-137.283
-114.987
-93.4597
-73.0401
-54.0805
-36.932
-21.9175
-9.30069
0.74594
8.17028
13.0608
15.6544
16.3289
15.5789
13.9769
12.1226
10.5853
9.84739
10.2544
11.979
15.0039
19.1264
23.985
29.1041
33.9538
38.0146
40.8416
42.1177
41.6909
39.5905
36.0207
31.3332
25.9831
20.4733
15.2973
10.8843
7.55653
5.5008
4.75887
5.23518
6.72038
8.92627
11.5267
14.1986
16.6579
18.6864
20.1456
20.9786
21.2006
20.879
20.1097
18.9912
17.6009
15.9771
14.1066
11.92
9.29348
6.05738
2.01171
-3.0509
-9.3138
-16.8962
-25.8056
-35.8874
-46.7761
-57.8597
-68.2656
-76.8786
-82.3986
-83.4396
-78.6661
-66.956
-47.572
-20.3201
14.3265
55.1597
100.237
146.961
192.229
232.656
264.847
285.698
292.706
284.256
259.853
220.271
167.602
105.172
37.3368
-30.8411
-94.0138
-147.021
-185.37
-205.68
-206.017
-186.105
-147.364
-92.7797
-26.6088
46.0396
119.707
189.112
249.639
297.743
331.219
349.321
352.722
343.323
323.951
297.985
268.949
240.134
214.275
193.331
178.369
169.558
166.279
167.302
171.021
175.704
179.729
181.774
180.946
176.84
169.529
159.488
147.483
134.435
121.282
108.858
97.8019
88.5034
81.088
75.4352
71.2255
68.0051
65.258
62.4779
59.2296
55.1963
50.2092
44.2565
37.475
30.1255
22.5558
15.1577
8.32074
2.39012
-2.36877
-5.79464
-7.8421
-8.58031
-8.17952
-6.88765
-5.0004
-2.82842
-0.665422
1.23919
2.70067
3.61044
3.93831
3.72589
3.07284
2.11814
1.01902
-0.0698202
-1.01429
-1.71452
-2.11281
-2.19563
-1.99013
-1.55601
-0.974469
-0.335687
0.273352
0.779289
1.12997
1.29856
1.28408
1.10863
0.812084
0.445157
0.0618331
-0.287748
-0.563159
-0.737706
-0.800285
-0.755091
-0.619432
-0.420141
-0.189179
0.04091
0.241073
0.388801
0.46974
0.477651
0.412696
0.278352
0.0774654
-0.191841
-0.539656
-0.986489
-1.56378
-2.31257
-3.2805
-4.51755
-6.07109
-7.98082
-10.2741
-12.9623
-16.0373
-19.4702
-23.2098
-27.1821
-31.2906
-35.4173
-39.4249
-43.1605
-46.4606
-49.1594
-51.0978
-52.1348
-52.1587
-51.0979
-48.9308
-45.6906
-41.4683
-36.4094
-30.7074
-24.5922
-18.3167
-12.1397
-6.30968
-1.04886
3.46106
7.08929
9.76269
11.4678
12.2483
12.1981
11.451
10.1671
8.51812
6.67249
4.78204
2.9713
1.33093
-0.0842588
-1.25254
-2.17855
-2.8837
-3.39561
-3.73811
-3.92379
-3.94995
-3.79883
-3.44171
-2.84624
-1.98548
-0.846965
0.559835
2.1992
4.00887
5.90399
7.78467
9.54595
11.0886
12.3284
13.2038
13.6787
13.7422
13.405
12.6925
11.6379
10.2753
8.6345
6.73887
4.60623
2.25247
-0.302786
-3.0299
-5.88373
-8.80034
-11.6971
-14.4766
-17.034
-19.2667
-21.0864
-22.429
-23.2629
-23.594
-23.4649
-22.9504
-22.147
-21.1609
-20.0931
-19.0256
-18.0098
-17.0589
-16.1449
-15.2016
-14.1316
-12.8174
-11.1345
-8.96459
-6.20811
-2.79383
1.31465
6.11615
11.5728
17.614
24.1429
31.0437
38.1896
45.4497
52.6932
59.7917
66.6173
73.0385
78.9136
84.0838
88.3669
91.5544
93.4128
93.6904
92.1302
88.488
82.5554
74.1853
63.3184
50.0105
34.4557
17.0072
-1.80865
-21.2871
-40.5526
-58.5828
-74.2512
-86.3909
-93.877
-95.7226
-91.1814
-79.8454
-61.7277
-37.3204
-7.61863
25.8918
61.2862
96.2886
128.394
155.017
173.672
182.155
178.756
162.438
133.019
91.2858
39.0498
-20.8879
-84.8775
-148.662
-207.71
-257.612
-294.495
-315.415
-318.671
-304.004
-272.646
-227.219
-171.475
-109.928
-47.4002
11.453
62.5839
102.914
130.578
145.02
146.945
138.145
121.21
99.181
75.1853
52.0894
32.2188
17.1641
7.69151
3.75764
4.61827
9.00875
15.3685
22.0779
27.6781
31.0482
31.5214
28.9319
23.5922
16.2104
7.76265
-0.65817
-7.99727
-13.3749
-16.1899
-16.179
-13.4285
-8.33953
-1.55827
6.11969
13.8535
20.8568
26.4797
30.2652
31.9759
31.5905
29.2751
25.337
20.1683
14.1886
7.79442
1.3197
-4.9884
-10.9789
-16.5927
-21.8472
-26.8147
-31.597
-36.3008
-41.017
-45.8037
-50.6772
-55.6082
-60.524
-65.3166
-69.8528
-73.988
-77.5795
-80.4996
-82.6468
-83.9537
-84.3919
-83.9734
-82.7474
-80.7948
-78.2193
-75.1372
-71.6654
-67.9112
-63.9622
-59.88
-55.6975
-51.4198
-47.0302
-42.4992
-37.7953
-32.8967
-27.8013
-22.533
-17.1447
-11.7158
-6.34569
-1.14356
3.78326
8.34146
12.462
16.1071
19.2733
21.9895
24.3111
26.3107
28.067
29.653
31.1258
32.5188
33.837
35.0568
36.1297
36.9883
37.5564
37.7594
37.5346
36.8405
35.6638
34.0223
31.9653
29.5697
26.9334
24.1664
21.3815
18.684
16.1634
13.887
11.8965
10.2065
8.80766
7.67085
6.75365
6.00759
5.38505
4.84507
4.35729
3.90355
3.4773
3.08113
2.72303
2.41219
2.15526
1.95354
1.80167
1.68789
1.59564
1.50619
1.40168
1.26807
1.09739
0.889044
0.649902
0.39322
0.136657
-0.100339
-0.299316
-0.445385
-0.52919
-0.548056
-0.506189
-0.413953
-0.286387
-0.141202
0.00343349
0.131
0.228305
0.286496
0.301211
0.271801
0.199662
0.0858462
-0.0717589
-0.281294
-0.55938
-0.932708
-1.43836
-2.12259
-3.03806
-4.2395
-5.77827
-7.69627
-10.0197
-12.7537
-15.8777
-19.343
-23.0723
-26.9617
-30.8843
-34.697
-38.248
-41.386
-43.9706
-45.8813
-47.0274
-47.3553
-46.8534
-45.5551
-43.5368
-40.9137
-37.8317
-34.4566
-30.9615
-27.5132
-24.2594
-21.3172
-18.7648
-16.6364
-14.9212
-13.5675
-12.4891
-11.5765
-10.7091
-9.76779
-8.64786
-7.2688
-5.58145
-3.57106
-1.25598
1.31784
4.08597
6.97698
9.92443
12.8771
15.8049
18.6983
21.5596
24.3842
27.1353
29.7125
31.9224
33.4565
33.8856
32.676
29.232
22.9632
13.3721
0.152896
-16.7113
-36.8666
-59.536
-83.5103
-107.189
-128.679
-145.935
-156.953
-159.974
-153.692
-137.44
-111.321
-76.2807
-34.0995
12.6931
60.9763
107.254
147.913
179.503
199.014
204.138
193.487
166.759
124.818
69.7003
4.51438
-66.7456
-139.478
-208.82
-270.035
-318.912
-352.128
-367.554
-364.445
-343.511
-306.85
-257.739
-200.322
-139.206
-79.0273
-24.0249
22.3326
57.6228
80.6273
91.3555
90.942
81.4334
65.4965
46.0853
26.1052
8.114
-5.91136
-14.7216
-17.8458
-15.5501
-8.71611
1.33724
13.0642
24.9063
35.4842
43.7485
49.0729
51.2867
50.6472
47.7616
43.4719
38.7222
34.4245
31.3411
29.9962
30.6258
33.1679
37.2919
42.4587
48.003
53.2236
57.4708
60.2203
61.1248
60.0396
57.0228
52.3102
46.2748
39.3734
32.0908
24.8867
18.1505
12.1678
7.09998
2.97721
-0.295494
-2.92144
-5.18606
-7.42406
-9.98257
-13.1833
-17.2871
-22.4641
-28.7732
-36.1517
-44.4192
-53.2923
-62.4117
-71.3758
-79.7781
-87.2422
-93.452
-98.1717
-101.256
-102.649
-102.377
-100.532
-97.2542
-92.7166
-87.1063
-80.6151
-73.4311
-65.7351
-57.6993
-49.4872
-41.2547
-33.149
-25.3065
-17.8496
-10.8816
-4.4815
1.30065
6.44674
10.9716
14.921
18.367
21.3998
24.1188
26.6214
28.9923
31.2938
33.5584
35.7844
37.9352
39.9425
41.7128
43.1371
44.1019
44.5019
44.2505
43.2899
41.597
39.1866
36.1106
32.4536
28.3261
23.8561
19.1796
14.4323
9.74149
5.22061
0.964699
-2.95206
-6.47769
-9.58271
-12.2597
-14.5223
-16.4029
-17.9497
-19.2218
-20.2826
-21.1927
-22.0009
-22.7364
-23.4028
-23.9748
-24.3987
-24.5973
-24.4795
-23.9522
-22.9348
-21.3724
-19.2477
-16.5883
-13.469
-10.0079
-6.35769
-2.69214
0.810258
3.98334
6.68911
8.83042
10.3589
11.2774
11.6362
11.5246
11.0578
10.3619
9.55822
8.74998
8.01173
7.38381
6.87172
6.45033
6.07183
5.67608
5.20144
4.59457
3.8176
2.85205
1.69897
0.376013
-1.0879
-2.65887
-4.30405
-5.99621
-7.71607
-9.45219
-11.1988
-12.9525
-14.7085
-16.4576
-18.1844
-19.8655
-21.469
-22.954
-24.2702
-25.3576
-26.1482
-26.5687
-26.5452
-26.0101
-24.91
-23.2137
-20.9192
-18.059
-14.701
-10.9463
-6.92378
-2.77971
1.33339
5.26993
8.90369
12.1388
14.9178
17.2261
19.0931
20.5882
21.8142
22.8973
23.9749
25.1833
26.6446
28.4559
30.6805
33.3411
36.417
39.8427
43.5098
47.2703
50.9415
54.3105
57.139
59.1658
60.1094
59.6701
57.5349
53.3879
46.9282
37.8981
26.1211
11.5474
-5.69801
-25.2698
-46.5688
-68.7272
-90.62
-110.907
-128.106
-140.701
-147.262
-146.59
-137.85
-120.692
-95.3441
-62.654
-24.0954
18.2832
61.9532
104.044
141.516
171.368
190.858
197.742
190.501
168.543
132.347
83.536
24.8482
-40.0025
-106.573
-170.036
-225.59
-268.899
-296.509
-306.202
-297.229
-270.402
-228.027
-173.676
-111.831
-47.4336
14.6073
69.8862
114.907
147.372
166.33
172.172
166.478
151.755
131.08
107.724
84.7738
64.8173
49.7108
40.4547
37.1797
39.2378
45.3748
53.9588
63.2294
71.5365
77.5405
80.353
79.6057
75.4479
68.4786
59.6284
50.0121
40.7713
32.9283
27.2684
24.2603
24.0229
26.3355
30.6885
36.3622
42.5243
48.3305
53.0188
55.9852
56.8364
55.4149
51.7965
46.2647
39.2642
31.3426
23.0833
15.0396
7.67228
1.30013
-3.93442
-8.07892
-11.3624
-14.1647
-16.9668
-20.2878
-24.616
-30.3425
-37.7076
-46.7656
-57.3723
-69.1998
-81.7722
-94.5213
-106.852
-118.21
-128.144
-136.347
-142.689
-147.216
-150.132
-151.762
-152.498
-152.745
-152.863
-153.12
-153.656
-154.47
-155.42
-156.244
-156.597
-156.095
-154.373
-151.132
-146.184
-139.485
-131.149
-121.435
-110.734
-99.5161
-88.2891
-77.5388
-67.6791
-59.0108
-51.6957
-45.748
-41.0451
-37.353
-34.3659
-31.7503
-29.191
-26.4307
-23.2998
-19.7321
-15.7665
-11.5341
-7.23451
-3.10469
0.61545
3.71528
6.04017
7.50945
8.12393
7.96293
7.17177
5.94222
4.48863
3.02316
1.73315
0.763243
0.203954
0.0876654
0.391714
1.04762
1.95468
2.99584
4.05359
5.02396
5.82711
6.41358
6.7659
6.89614
6.84001
6.64893
6.38136
6.09457
5.83806
5.64908
5.55066
5.55182
5.64957
5.83204
6.08199
6.38007
6.70737
7.04695
7.38422
7.70636
8.00098
8.25439
8.45
8.56748
8.58325
8.47291
8.21549
7.79902
7.22591
6.51646
5.7087
4.85367
4.00629
3.21313
2.49974
1.86033
1.25279
0.600797
-0.196179
-1.24624
-2.6443
-4.45114
-6.67652
-9.27053
-12.1255
-15.089
-17.9864
-20.6478
-22.9349
-24.7625
-26.1099
-27.0204
-27.5894
-27.9436
-28.215
-28.5155
-28.9157
-29.432
-30.0237
-30.6001
-31.036
-31.1932
-30.943
-30.1883
-28.8793
-27.023
-24.684
-21.9765
-19.0499
-16.0696
-13.1947
-10.5571
-8.24403
-6.28663
-4.65676
-3.27289
-2.01438
-0.742631
0.674325
2.33747
4.29693
6.5402
8.99072
11.5178
13.9566
16.1352
17.9046
19.1655
19.8882
20.1188
19.9698
19.5952
19.1497
18.739
18.3672
17.8921
16.9956
15.1814
11.8036
6.13071
-2.55847
-14.8548
-31.0878
-51.2018
-74.6594
-100.393
-126.817
-151.919
-173.413
-188.958
-196.419
-194.126
-181.116
-157.318
-123.652
-82.0334
-35.2763
13.0986
59.1312
98.7412
128.075
143.849
143.67
126.296
91.8291
41.7944
-20.8853
-92.0519
-166.6
-238.875
-303.158
-354.179
-387.627
-400.573
-391.78
-361.841
-313.137
-249.605
-176.346
-99.1157
-23.7542
44.3779
100.896
142.766
168.514
178.268
173.616
157.328
132.963
104.429
75.5361
49.6036
29.157
15.7417
9.86627
11.0698
18.0924
29.1216
42.0763
54.8928
65.7769
73.3972
77.0001
76.4423
72.1433
64.9737
56.0971
46.7924
38.2776
31.5592
27.3219
25.8685
27.1133
30.6249
35.7069
41.5058
47.1265
51.7444
54.6972
55.5495
54.1246
50.5025
44.9893
38.0627
30.3045
22.3266
14.7015
7.90325
2.26387
-2.05109
-5.04773
-6.89144
-7.88012
-8.40716
-8.91873
-9.86936
-11.6796
-14.6983
-19.1727
-25.2265
-32.849
-41.8939
-52.09
-63.0611
-74.3548
-85.4778
-95.9336
-105.261
-113.07
-119.065
-123.068
-125.023
-124.991
-123.138
-119.711
-115.005
-109.338
-103.019
-96.3213
-89.4689
-82.6242
-75.89
-69.3169
-62.9173
-56.6827
-50.6012
-44.672
-38.9162
-33.3809
-28.1367
-23.2704
-18.8729
-15.0257
-11.7874
-9.18324
-7.1986
-5.77772
-4.8281
-4.22952
-3.84679
-3.54435
-3.20083
-2.7219
-2.04954
-1.16703
-0.098807
1.09453
2.32547
3.49191
4.49096
5.23265
5.65161
5.71557
5.42943
4.83459
4.00362
3.03111
2.02194
1.07858
0.28915
-0.28214
-0.600894
-0.664146
-0.497596
-0.149119
0.320324
0.846856
1.37334
1.85711
2.27458
2.62243
2.91516
3.17983
3.44891
3.75257
4.11163
4.53237
5.00385
5.49818
5.97347
6.37901
6.6616
6.77214
6.67134
6.33391
5.75069
4.92878
3.88995
2.66784
1.30476
-0.151468
-1.64991
-3.13809
-4.56265
-5.86923
-7.00227
-7.90478
-8.51894
-8.78762
-8.65724
-8.08207
-7.02989
-5.4886
-3.47321
-1.03196
1.74944
4.747
7.80206
10.73
13.3342
15.4239
16.8351
17.4508
17.2189
16.1639
14.3906
12.0785
9.46451
6.81871
4.41193
2.48143
1.19822
0.641045
0.780995
1.47977
2.50246
3.54391
4.26549
4.33771
3.48307
1.51345
-1.64293
-5.92858
-11.1594
-17.0428
-23.208
-29.2459
-34.752
-39.3673
-42.8137
-44.9175
-45.621
-44.981
-43.1543
-40.3738
-36.9186
-33.0816
-29.1389
-25.3242
-21.8111
-18.7041
-16.0388
-13.7904
-11.8873
-10.2299
-8.7088
-7.22202
-5.6886
-4.0567
-2.30619
-0.445608
1.49517
3.47482
5.44992
7.38062
9.22926
10.9499
12.4684
13.656
14.3004
14.0831
12.5691
9.21907
3.42825
-5.40499
-17.783
-33.994
-53.9931
-77.2985
-102.923
-129.365
-154.665
-176.541
-192.594
-200.555
-198.56
-185.408
-160.768
-125.306
-80.717
-29.6485
24.478
77.7244
125.953
165.172
191.878
203.368
197.997
175.362
136.388
83.3116
19.5645
-50.4607
-121.733
-188.985
-247.152
-291.826
-319.656
-328.672
-318.477
-290.29
-246.822
-192.008
-130.604
-67.7128
-8.27927
43.3836
83.9821
111.506
125.34
126.225
116.066
97.6328
74.1894
49.0946
25.429
5.68644
-8.43817
-16.1489
-17.5342
-13.4494
-5.32113
5.09696
15.9825
25.6846
32.9182
36.8936
37.3725
34.6485
29.464
22.8775
16.1024
10.3386
6.61768
5.67759
7.88016
13.1772
21.1265
30.952
41.6405
52.0606
61.0901
67.7383
71.2475
71.1664
67.3862
60.1385
49.9564
37.6057
23.9941
10.0705
-3.27418
-15.2942
-25.4547
-33.4705
-39.3158
-43.2047
-45.5479
-46.8908
-47.8429
-49.0044
-50.9016
-53.9348
-58.3452
-64.2023
-71.4105
-79.7333
-88.8293
-98.2954
-107.711
-116.676
-124.846
-131.95
-137.799
-142.281
-145.354
-147.024
-147.325
-146.306
-144.018
-140.508
-135.826
-130.032
-123.207
-115.467
-106.967
-97.905
-88.5123
-79.0405
-69.7396
-60.8342
-52.5006
-44.8481
-37.909
-31.638
-25.9233
-20.6055
-15.5037
-10.4439
-5.28541
0.058692
5.60883
11.317
17.0742
22.7269
28.0984
33.0128
37.3179
40.902
43.7047
45.7185
46.9823
47.5682
47.5647
47.0594
46.1235
44.8025
43.1127
41.0451
38.5749
35.6764
32.3378
28.5765
24.4493
20.0582
15.549
11.1034
6.9255
3.22463
0.195846
-1.99841
-3.24393
-3.48559
-2.73251
-1.05727
1.41014
4.49274
7.97971
11.641
15.2423
18.5592
21.3902
23.5675
24.9666
25.512
25.1817
24.0072
22.0714
19.5024
16.4643
13.1459
9.7461
6.45997
3.46375
0.902226
-1.12133
-2.55135
-3.38184
-3.65357
-3.44723
-2.87311
-2.05861
-1.13492
-0.224347
0.570539
1.17472
1.54501
1.67038
1.56862
1.27968
0.856694
0.355599
-0.175209
-0.70395
-1.22201
-1.74703
-2.32213
-3.01129
-3.89165
-5.04383
-6.54156
-8.44194
-10.7772
-13.5488
-16.7234
-20.2322
-23.9716
-27.8069
-31.5782
-35.1083
-38.2131
-40.7127
-42.4444
-43.2751
-43.1123
-41.9135
-39.6917
-36.5169
-32.5124
-27.8475
-22.7259
-17.372
-12.0164
-6.88164
-2.1693
1.94963
5.3422
7.91754
9.62834
10.47
10.4782
9.72567
8.31773
6.38828
4.09465
1.61189
-0.874028
-3.1742
-5.10603
-6.50327
-7.22625
-7.17155
-6.28012
-4.54347
-2.00771
1.2241
4.99064
9.07156
13.1869
16.9972
20.1059
22.0653
22.3902
20.5803
16.155
8.69964
-2.07795
-16.2848
-33.7817
-54.1332
-76.5771
-100.024
-123.096
-144.197
-161.633
-173.746
-179.078
-176.526
-165.487
-145.964
-118.628
-84.8245
-46.518
-6.18687
33.334
69.0438
97.9895
117.489
125.348
120.067
101.011
68.5381
24.0714
-29.9129
-89.9885
-151.984
-211.291
-263.248
-303.574
-328.801
-336.645
-326.267
-298.392
-255.247
-200.338
-138.087
-73.3705
-11.0255
44.6252
90.1663
123.365
143.299
150.336
145.975
132.584
113.057
90.4658
67.7119
47.2453
30.8615
19.5964
13.7192
12.8146
15.9329
21.7842
28.9474
36.068
42.0219
46.0298
47.7133
47.0934
44.5377
40.6696
36.253
32.0728
28.823
27.0181
26.9357
28.5934
31.7603
35.9979
40.7232
45.2842
49.038
51.4237
52.0221
50.5965
47.1137
41.7423
34.8316
26.8716
18.4415
10.1477
2.56074
-3.84661
-8.75217
-12.0241
-13.7424
-14.1988
-13.8735
-13.3882
-13.4407
-14.7264
-17.8546
-23.2723
-31.2026
-41.6085
-54.1866
-68.3921
-83.4932
-98.6471
-112.989
-125.723
-136.201
-143.983
-148.871
-150.91
-150.368
-147.68
-143.384
-138.053
-132.217
-126.311
-120.633
-115.325
-110.381
-105.672
-100.988
-96.0862
-90.7453
-84.8066
-78.2053
-70.9847
-63.2913
-55.3542
-47.453
-39.8783
-32.8938
-26.7031
-21.4281
-17.099
-13.6581
-10.9752
-8.87081
-7.14374
-5.59869
-4.07037
-2.44114
-0.650647
1.30286
3.36893
5.45724
7.45389
9.23894
10.703
11.7608
12.3605
12.4878
12.1656
11.4486
10.4152
9.15808
7.77302
6.35005
4.96564
3.67769
2.5232
1.51863
0.662377
-0.0611718
-0.676774
-1.2133
-1.69906
-2.15799
-2.60671
-3.05275
-3.49385
-3.91819
-4.30553
-4.62899
-4.85753
-4.95874
-4.9019
-4.6611
-4.21809
-3.56466
-2.70417
-1.65216
-0.435714
0.908336
2.33629
3.80133
5.25782
6.66553
7.99342
9.22229
10.3459
11.3701
12.3105
13.1886
14.0262
14.8406
15.6398
16.4188
17.1582
17.8249
18.3742
18.7547
18.9137
18.8021
18.3792
17.6148
16.4902
14.9957
13.1281
10.8872
8.27266
5.28361
1.91937
-1.81684
-5.91303
-10.3428
-15.0605
-19.9982
-25.0651
-30.1506
-35.1295
-39.8698
-44.2418
-48.127
-51.4261
-54.065
-55.9983
-57.2099
-57.7115
-57.5385
-56.7455
-55.3995
-53.5749
-51.3475
-48.79
-45.9681
-42.9379
-39.7435
-36.4161
-32.9737
-29.4215
-25.7535
-21.9547
-18.0046
-13.8805
-9.56261
-5.03837
-0.307209
4.61507
9.6928
14.8682
20.061
25.1699
30.0765
34.6514
38.7608
42.2747
45.0739
47.0546
48.1306
48.2309
47.291
45.2414
41.991
37.4122
31.3304
23.5245
13.7421
1.73265
-12.7
-29.6302
-48.9344
-70.2168
-92.7527
-115.462
-136.927
-155.465
-169.253
-176.5
-175.648
-165.577
-145.793
-116.561
-78.9806
-34.9712
12.8141
61.1531
106.477
145.137
173.693
189.211
189.534
173.522
141.221
93.9562
34.3181
-33.9621
-106.251
-177.358
-241.957
-295.057
-332.465
-351.202
-349.805
-328.497
-289.176
-235.243
-171.257
-102.488
-34.3863
27.9495
80.2505
119.453
143.926
153.537
149.551
134.385
111.262
83.7922
55.5628
29.7518
8.83263
-5.61813
-12.9903
-13.593
-8.50533
0.645722
11.9491
23.478
33.5308
40.8189
44.5828
44.6316
41.3064
35.3822
27.9242
20.1222
13.1243
7.89151
5.08849
5.02096
7.62282
12.4904
18.9552
26.1825
33.2817
39.4138
43.8829
46.2024
46.13
43.6703
39.0483
32.6592
25.0044
16.622
8.02179
-0.368493
-8.23891
-15.4141
-21.8506
-27.6174
-32.865
-37.7883
-42.5885
-47.4408
-52.4704
-57.7395
-63.2457
-68.9294
-74.6889
-80.3978
-85.9231
-91.1402
-95.9432
-100.25
-104.004
-107.167
-109.713
-111.62
-112.857
-113.38
-113.12
-111.987
-109.869
-106.647
-102.207
-96.4645
-89.387
-81.0138
-71.4721
-60.9839
-49.8604
-38.4851
-27.2856
-16.6976
-7.12494
1.09892
7.74331
12.7024
16.0039
17.804
18.3679
18.0407
17.2097
16.265
15.5609
15.3833
15.925
17.2721
19.4002
22.1818
25.4027
28.7855
32.0184
34.7854
36.7969
37.8159
37.68
36.3153
33.7418
30.0712
25.4955
20.2699
14.69
9.06711
3.70315
-1.13245
-5.22136
-8.40933
-10.6127
-11.8179
-12.0751
-11.4869
-10.1935
-8.35668
-6.14514
-3.72065
-1.22822
1.21051
3.50038
5.57268
7.38293
8.90699
10.1366
11.0749
11.7321
12.1227
12.2629
12.1697
11.8608
11.3548
10.6722
9.83617
8.8735
7.81421
6.69107
5.53802
4.38784
3.26935
2.20443
1.20544
0.273526
-0.60177
-1.44129
-2.27336
-3.12951
-4.03909
-5.02355
-6.09123
-7.23328
-8.42163
-9.60936
-10.7337
-11.7217
-12.4972
-12.9898
-13.1431
-12.9224
-12.3199
-11.3572
-10.0844
-8.57534
-6.92053
-5.21741
-3.56048
-2.03211
-0.695496
0.409351
1.26612
1.87948
2.2697
2.46561
2.49715
2.38865
2.15396
1.79408
1.29772
0.644697
-0.188432
-1.2212
-2.46167
-3.89963
-5.50152
-7.20795
-8.93454
-10.5759
-12.0132
-13.1235
-13.7915
-13.9211
-13.4457
-12.3365
-10.6064
-8.31054
-5.54058
-2.41633
0.926885
4.35221
7.7352
10.9756
14.0058
16.7936
19.3405
21.6744
23.8385
25.8777
27.8254
29.6913
31.4533
33.0534
34.3986
35.3652
35.8052
35.5527
34.4289
32.2445
28.8024
23.9017
17.3463
8.96266
-1.37393
-13.7031
-27.9363
-43.8127
-60.8607
-78.373
-95.4056
-110.805
-123.27
-131.445
-134.044
-129.987
-118.553
-99.5063
-73.2119
-40.6932
-3.64302
35.6342
74.3457
109.397
137.628
156.09
162.324
154.636
132.32
95.8159
46.7761
-11.9796
-76.6222
-142.581
-204.903
-258.676
-299.475
-323.785
-329.355
-315.45
-282.952
-234.305
-173.307
-104.752
-33.9719
33.673
93.3102
141.008
174.12
191.489
193.48
181.855
159.505
130.067
97.5007
65.6387
37.799
16.4749
3.14526
-1.78676
1.07281
10.2835
23.825
39.3934
54.7029
67.754
77.0415
81.683
81.4601
76.776
68.5435
58.0222
46.6316
35.7623
26.6099
20.0478
16.5514
16.1765
18.5904
23.1461
28.9862
35.1617
40.7501
44.958
47.198
47.1344
44.6938
40.0446
33.5513
25.7114
17.0853
8.22764
-0.371719
-8.33162
-15.4053
-21.488
-26.6075
-30.9027
-34.5935
-37.9463
-41.2412
-44.7407
-48.666
-53.1779
-58.3666
-64.247
-70.7609
-77.7842
-85.1384
-92.6048
-99.9398
-106.89
-113.208
-118.663
-123.052
-126.21
-128.02
-128.414
-127.381
-124.97
-121.29
-116.505
-110.825
-104.496
-97.7806
-90.9349
-84.1895
-77.7253
-71.6554
-66.0126
-60.7464
-55.7293
-50.7743
-45.661
-40.1682
-34.1088
-27.3629
-19.905
-11.8213
-3.31563
5.29949
13.6239
21.2036
27.5727
32.2998
35.0339
35.5447
33.7522
29.7445
23.7786
16.267
7.74834
-1.15384
-9.78211
-17.5006
-23.7502
-28.0976
-30.2736
-30.1954
-27.9716
-23.8874
-18.3729
-11.9572
-5.21338
1.29883
7.08696
11.7695
15.1051
17.004
17.521
16.8324
15.1997
12.9264
10.3147
7.62675
5.05729
2.72003
0.649308
-1.18409
-2.84621
-4.40737
-5.90988
-7.34201
-8.62345
-9.60554
-10.0871
-9.84381
-8.6672
-6.40633
-3.00607
1.46516
6.80313
12.674
18.639
24.1959
28.8311
32.0775
33.57
33.0911
30.6022
26.2541
20.3775
13.4511
6.05314
-1.2003
-7.72348
-13.0275
-16.7779
-18.836
-19.2784
-18.391
-16.6364
-14.598
-12.9059
-12.1527
-12.8104
-15.1583
-19.2331
-24.8093
-31.4137
-38.3737
-44.8953
-50.1596
-53.4273
-54.1344
-51.9687
-46.9149
-39.263
-29.5781
-18.6369
-7.33849
3.39831
12.7375
20.016
24.8106
26.9736
26.6362
24.1781
20.172
15.3089
10.3156
5.87327
2.54871
0.742407
0.660194
2.30865
5.51314
9.95413
15.2157
20.8386
26.3709
31.4082
35.6206
38.7615
40.6603
41.2019
40.2968
37.8515
33.7437
27.8116
19.8586
9.67871
-2.90324
-17.9773
-35.4897
-55.1879
-76.5777
-98.9023
-121.148
-142.081
-160.316
-174.406
-182.962
-184.781
-178.969
-165.071
-143.166
-113.942
-78.7225
-39.4471
1.40685
40.9643
76.1485
103.925
121.572
126.956
118.77
96.7295
61.6671
15.5381
-38.6859
-97.2253
-155.787
-209.919
-255.396
-288.597
-306.833
-308.601
-293.726
-263.378
-219.958
-166.868
-108.177
-48.2323
8.75176
59.0778
99.8827
129.356
146.835
152.783
148.637
136.578
119.232
99.3502
79.5036
61.8327
47.8678
38.4404
33.6868
33.1337
35.8471
40.6197
46.1686
51.3179
55.1444
57.0709
56.9035
54.8123
51.2667
46.9398
42.5975
38.9896
36.7552
36.3509
38.0055
41.7007
47.1762
53.9545
61.3832
68.6902
75.0482
79.6448
81.7537
80.8011
76.4227
68.5053
57.2084
42.9613
26.4349
8.48681
-9.91308
-27.7732
-44.1746
-58.3607
-69.8098
-78.2843
-83.8481
-86.8524
-87.89
-87.7234
-87.1961
-87.1352
-88.2579
-91.0907
-95.9112
-102.718
-111.23
-120.919
-131.069
-140.85
-149.418
-156
-159.988
-161.001
-158.937
-153.982
-146.594
-137.455
-127.394
-117.299
-108.015
-100.251
-94.4974
-90.9745
-89.6028
-90.0139
-91.5916
-93.5433
-94.9921
-95.0799
-93.069
-88.4316
-80.9144
-70.5725
-57.7672
-43.1287
-27.4878
-11.7865
3.02322
16.0791
26.6952
34.4252
39.0975
40.8167
39.9352
36.9987
32.6745
27.6707
22.6588
18.2059
14.7266
12.4553
11.4428
11.5728
12.5946
14.167
15.9052
17.4272
18.3929
18.5339
17.6729
15.7315
12.7288
8.77209
4.04197
-1.22589
-6.76106
-12.279
-17.5012
-22.1745
-26.0879
-29.0864
-31.0807
-32.0513
-32.0456
-31.1692
-29.571
-27.4246
-24.9087
-22.1886
-19.4013
-16.6468
-13.9848
-11.4378
-8.99884
-6.6425
-4.33645
-2.05238
0.225798
2.49743
4.74453
6.9349
9.02805
10.9826
12.7638
14.3502
15.7376
16.9408
17.9921
18.9374
19.8301
20.7249
21.671
22.7061
23.8528
25.1154
26.4786
27.9072
29.347
30.7264
31.9593
32.9484
33.5911
33.786
33.44
32.4766
30.8432
28.5173
25.5101
21.8679
17.6701
13.024
8.0569
2.90726
-2.28637
-7.39523
-12.3092
-16.9429
-21.2391
-25.1676
-28.7216
-31.9102
-34.7499
-37.255
-39.4291
-41.2597
-42.7151
-43.7465
-44.2934
-44.2923
-43.6875
-42.4419
-40.547
-38.0297
-34.9552
-31.4253
-27.5729
-23.5512
-19.5215
-15.6393
-12.0404
-8.83021
-6.07546
-3.80136
-1.99263
-0.599265
0.454498
1.25893
1.90698
2.48327
3.05526
3.66748
4.33936
5.06633
5.82348
6.57
7.25221
7.80306
8.13637
8.13591
7.64123
6.43429
4.23231
0.692575
-4.56623
-11.9239
-21.7006
-34.0862
-49.0639
-66.3411
-85.2991
-104.974
-124.079
-141.072
-154.268
-161.988
-162.731
-155.347
-139.196
-114.268
-81.2495
-41.5338
2.84004
49.3021
94.9169
136.583
171.251
196.148
208.988
208.16
192.881
163.308
120.583
66.8262
5.04915
-61.0075
-127.11
-188.831
-241.899
-282.557
-307.907
-316.191
-306.982
-281.25
-241.287
-190.501
-133.092
-73.6471
-16.6946
33.7229
74.4175
103.32
119.615
123.732
117.205
102.417
82.2704
59.827
37.9551
19.0348
4.74519
-4.04378
-7.27238
-5.59351
-0.198056
7.40795
15.6412
23.0625
28.5535
31.4328
31.4994
29.0091
24.5925
19.1328
13.6242
9.03033
6.16184
5.58457
7.56656
12.065
18.7499
27.0567
36.2594
45.5524
54.1333
61.2774
66.3976
69.0879
69.1471
66.5833
61.601
54.5722
45.9952
36.4446
26.5178
16.7808
7.72185
-0.286791
-7.01258
-12.3717
-16.4227
-19.3471
-21.4188
-22.9687
-24.3465
-25.8869
-27.8817
-30.5613
-34.0853
-38.5428
-43.9584
-50.3019
-57.5001
-65.4455
-74.0028
-83.012
-92.2874
-101.616
-110.753
-119.426
-127.33
-134.142
-139.53
-143.172
-144.782
-144.14
-141.112
-135.684
-127.974
-118.241
-106.874
-94.3754
-81.3232
-68.3251
-55.9686
-44.7698
-35.129
-27.2987
-21.3674
-17.2602
-14.758
-13.5306
-13.1799
-13.289
-13.4683
-13.3961
-12.8477
-11.7106
-9.98526
-7.77128
-5.24373
-2.62156
-0.133822
2.01221
3.6569
4.70541
5.13468
4.99042
4.37557
3.43269
2.32332
1.20741
0.225457
-0.514716
-0.945448
-1.04104
-0.814552
-0.310957
0.401756
1.24199
2.12321
2.96107
3.67869
4.21029
4.50354
4.52121
4.24271
3.66552
2.80657
1.70316
0.4127
-0.989127
-2.4124
-3.75913
-4.93129
-5.83988
-6.41379
-6.6072
-6.40408
-5.81887
-4.89303
-3.68794
-2.27544
-0.727725
0.891354
2.53214
4.1611
5.75873
7.31428
8.81843
10.2559
11.5995
12.8069
13.8218
14.5779
15.0071
15.0491
14.6621
13.8316
12.5775
10.9565
9.06048
7.01051
4.94657
3.01484
1.35349
0.0789368
-0.725721
-1.01877
-0.803298
-0.1256
0.931203
2.25748
3.72998
5.22555
6.63404
7.86867
8.87273
9.62204
10.123
10.4071
10.5223
10.5242
10.4658
10.3904
10.3251
10.2787
10.2411
10.1855
10.0723
9.85405
9.48035
8.90266
8.07876
6.9764
5.57666
3.87681
1.8927
-0.339388
-2.76221
-5.29856
-7.85463
-10.3258
-12.6047
-14.5912
-16.2026
-17.3838
-18.1151
-18.4168
-18.3511
-18.0208
-17.5659
-17.1608
-17.0122
-17.3604
-18.4807
-20.6855
-24.3211
-29.7567
-37.3592
-47.4538
-60.2676
-75.8626
-94.0652
-114.404
-136.069
-157.913
-178.49
-196.152
-209.19
-216.009
-215.32
-206.321
-188.851
-163.491
-131.591
-95.2251
-57.0731
-20.2283
12.045
36.5897
50.6462
52.1282
39.8579
13.7346
-25.1848
-74.706
-131.624
-191.947
-251.206
-304.811
-348.447
-378.441
-392.103
-387.973
-365.976
-327.446
-275.025
-212.43
-144.125
-74.9123
-9.49591
47.9423
94.1068
126.855
145.338
150.007
142.487
125.33
101.699
74.9985
48.5116
25.0775
6.84313
-4.88883
-9.7056
-8.02708
-0.961258
9.9036
22.7403
35.7261
47.2604
56.1321
61.6231
63.5416
62.1878
58.2629
52.7373
46.699
41.1996
37.1202
35.0676
35.3144
37.7834
42.076
47.5372
53.3456
58.6165
62.5052
64.2972
63.4785
59.7764
53.1726
43.8858
32.3315
19.0639
4.70786
-10.1088
-24.8167
-38.9531
-52.1913
-64.352
-75.3946
-85.3937
-94.5042
-102.921
-110.842
-118.429
-125.789
-132.961
-139.912
-146.549
-152.734
-158.31
-163.117
-167.015
-169.898
-171.699
-172.398
-172.013
-170.6
-168.233
-165.008
-161.022
-156.374
-151.162
-145.474
-139.398
-133.016
-126.412
-119.665
-112.856
-106.054
-99.3159
-92.6735
-86.1296
-79.6543
-73.1875
-66.6494
-59.9558
-53.0391
-45.8682
-38.4667
-30.9231
-23.3926
-16.087
-9.25632
-3.16119
1.95734
5.90808
8.57504
9.93418
10.0594
9.11681
7.3478
5.04401
2.51667
0.0647797
-2.05403
-3.6466
-4.5989
-4.88076
-4.54108
-3.69436
-2.50095
-1.14376
0.195677
1.35883
2.22714
2.73272
2.86203
2.65258
2.18349
1.56161
0.905075
0.326475
-0.0820276
-0.259968
-0.184833
0.127294
0.626589
1.23897
1.87879
2.46289
2.92399
3.22154
3.34854
3.33339
3.23666
3.14333
3.15162
3.36039
3.85665
4.70545
5.94311
7.57485
9.57647
11.8993
14.4769
17.2318
20.0816
22.9419
25.728
28.3545
30.7346
32.7797
34.4009
35.513
36.0405
35.9253
35.1345
33.6677
31.5611
28.8883
25.7573
22.3029
18.6763
15.032
11.5139
8.24346
5.30877
2.75836
0.598776
-1.20335
-2.71525
-4.02881
-5.24942
-6.48417
-7.83083
-9.36882
-11.1529
-13.2102
-15.5395
-18.1133
-20.8805
-23.77
-26.6936
-29.5495
-32.2257
-34.604
-36.5655
-37.9977
-38.8024
-38.9044
-38.2604
-36.8649
-34.7543
-32.0065
-28.7364
-25.0867
-21.2159
-17.2837
-13.4368
-9.79543
-6.44391
-3.42484
-0.738328
1.65438
3.82352
5.86094
7.86914
9.95053
12.1978
14.6863
17.4682
20.5686
23.9831
27.6769
31.5839
35.6074
39.6207
43.4696
46.9755
49.9403
52.1514
53.3876
53.4236
52.0342
48.9983
44.1052
37.1652
28.0272
16.603
2.90066
-12.9387
-30.6025
-49.5741
-69.1122
-88.2507
-105.823
-120.514
-130.943
-135.771
-133.821
-124.206
-106.46
-80.6383
-47.3958
-8.02704
35.5439
80.8261
124.881
164.504
196.454
217.733
225.881
219.268
197.346
160.813
111.677
53.1771
-10.4273
-74.1999
-132.964
-181.79
-216.475
-233.963
-232.649
-212.54
-175.239
-123.778
-62.2907
4.40301
71.2779
133.582
187.265
229.314
257.966
272.771
274.534
265.112
247.14
223.681
197.879
172.619
150.262
132.455
120.035
113.038
110.792
112.081
115.352
118.944
121.302
121.156
117.658
110.445
99.6477
85.8355
69.9182
53.0141
36.3065
20.9049
7.72736
-2.58515
-9.71445
-13.67
-14.7556
-13.506
-10.6026
-6.78167
-2.74465
0.917205
3.77758
5.60388
6.35915
6.17897
5.32813
4.14353
2.97133
2.106
1.73901
1.92299
2.55599
3.38732
4.04467
4.07881
3.02034
0.441062
-3.98812
-10.4506
-18.9549
-29.3275
-41.2277
-54.1839
-67.6453
-81.0414
-93.8429
-105.613
-116.046
-124.982
-132.408
-138.433
-143.252
-147.102
-150.211
-152.764
-154.866
-156.531
-157.679
-158.153
-157.743
-156.22
-153.37
-149.025
-143.085
-135.538
-126.462
-116.027
-104.48
-92.1285
-79.325
-66.4395
-53.8392
-41.8672
-30.8235
-20.9506
-12.4225
-5.33876
0.276809
4.47276
7.3623
9.11198
9.92734
10.0367
9.67391
9.0613
8.39417
7.82765
7.46735
7.36429
7.51492
7.86605
8.32452
8.77053
9.07344
9.10837
8.77167
7.9936
6.74674
5.04916
2.96211
0.582696
-1.96717
-4.55397
-7.04594
-9.32465
-11.2935
-12.8826
-14.0489
-14.7746
-15.0615
-14.9266
-14.3968
-13.5051
-12.2892
-10.7909
-9.0565
-7.13766
-5.09176
-2.98089
-0.869536
1.17903
3.10748
4.86939
6.43389
7.78912
8.94393
9.92744
10.7864
11.5804
12.3757
13.2382
14.2259
15.3825
16.7318
18.275
19.9886
21.826
23.7209
25.5918
27.3491
28.901
30.1613
31.0548
31.5224
31.5235
31.0376
30.0635
28.6172
26.7293
24.4417
21.8054
18.8774
15.7197
12.3974
8.97786
5.52911
2.11845
-1.1898
-4.33659
-7.2705
-9.94955
-12.3422
-14.4273
-16.1927
-17.6335
-18.7494
-19.543
-20.0184
-20.1809
-20.0383
-19.6026
-18.8923
-17.9342
-16.7641
-15.4265
-13.972
-12.4529
-10.9181
-9.40697
-7.94395
-6.5343
-5.16198
-3.79014
-2.36419
-0.817308
0.922411
2.92404
5.24611
7.92997
10.9947
14.4342
18.2151
22.2776
26.5352
30.8766
35.1654
39.2396
42.9087
45.9488
48.0965
49.0427
48.4304
45.8588
40.8997
33.1284
22.1707
7.76545
-10.163
-31.4318
-55.5365
-81.612
-108.429
-134.433
-157.839
-176.761
-189.385
-194.167
-190.015
-176.462
-153.787
-123.068
-86.1706
-45.6512
-4.59275
33.6215
65.5777
88.1241
98.6642
95.4246
77.673
45.8601
1.6654
-52.0681
-111.516
-172.16
-229.165
-277.808
-313.91
-334.24
-336.83
-321.175
-288.287
-240.601
-181.735
-116.137
-48.6512
15.9455
73.3855
120.286
154.419
174.848
181.924
177.151
162.939
142.277
118.377
94.3208
72.7537
55.6527
44.1937
38.7189
38.8017
43.3917
51.0154
60.0036
68.7169
75.7429
80.0445
81.0472
78.6611
73.2424
65.5034
56.3898
46.94
38.1486
30.8463
25.6122
22.724
22.149
23.5732
26.4622
30.1419
33.8895
37.0219
38.9702
39.3338
37.9087
34.6885
29.8411
23.6674
16.5481
8.88781
1.06357
-6.61529
-13.9331
-20.7779
-27.1359
-33.0748
-38.7191
-44.2219
-49.739
-55.4075
-61.3313
-67.5753
-74.1661
-81.0983
-88.3438
-95.8599
-103.597
-111.497
-119.498
-127.52
-135.461
-143.186
-150.525
-157.268
-163.175
-167.986
-171.442
-173.31
-173.406
-171.621
-167.942
-162.462
-155.381
-146.996
-137.681
-127.855
-117.947
-108.356
-99.4135
-91.3538
-84.2894
-78.2033
-72.9556
-68.304
-63.9388
-59.5274
-54.7618
-49.4051
-43.3276
-36.5298
-29.1473
-21.4372
-13.7479
-6.47672
-0.0203883
5.27375
9.15013
11.4752
12.2521
11.6181
9.82644
7.21496
4.1666
1.06656
-1.73812
-3.97207
-5.4544
-6.10919
-5.96308
-5.13144
-3.79559
-2.1746
-0.495225
1.03607
2.25611
3.06053
3.4105
3.33054
2.8984
2.22873
1.45336
0.700828
0.0782325
-0.342334
-0.531009
-0.500449
-0.299605
-0.00240585
0.306558
0.546888
0.655435
0.595684
0.362263
-0.0197233
-0.500056
-1.01227
-1.48437
-1.84956
-2.05507
-2.06767
-1.87486
-1.48151
-0.902771
-0.154589
0.755892
1.83792
3.12066
4.65148
6.48858
8.68889
11.2929
14.3089
17.6995
21.3724
25.1787
28.9183
32.3539
35.2307
37.302
38.3544
38.2325
36.8576
34.2389
30.4751
25.7468
20.2996
14.4218
8.41687
2.57734
-2.84
-7.63263
-11.6639
-14.8664
-17.2376
-18.8289
-19.7302
-20.0522
-19.9093
-19.4052
-18.6232
-17.6206
-16.4296
-15.0617
-13.5149
-11.7823
-9.85947
-7.7501
-5.46906
-3.04247
-0.505952
2.09828
4.7243
7.32467
9.85149
12.2563
14.4897
16.5004
18.2363
19.6468
20.6874
21.3271
21.557
21.3988
20.9126
20.1995
19.4004
18.6877
18.25
18.2715
18.9066
20.2521
22.3212
25.0206
28.1352
31.3215
34.1145
35.9461
36.1787
34.1512
29.2368
20.9077
8.80407
-7.20071
-26.9443
-49.9364
-75.3441
-102.006
-128.48
-153.124
-174.208
-190.044
-199.136
-200.324
-192.906
-176.737
-152.282
-120.615
-83.375
-42.6689
-0.944442
39.1657
75.0114
104.098
124.255
133.797
131.666
117.551
91.9646
56.2722
12.6567
-35.9906
-86.2533
-134.439
-176.879
-210.25
-231.881
-240.02
-234.015
-214.392
-182.817
-141.935
-95.1172
-46.1217
1.2691
43.6142
78.1306
102.931
117.159
121.007
115.628
102.945
85.3953
65.6319
46.2245
29.389
16.7753
9.33437
7.27388
10.1023
16.7516
25.758
35.4775
44.3058
50.8785
54.227
53.8747
49.8663
42.7309
33.3888
23.0158
12.8864
4.2142
-1.99097
-5.0328
-4.59565
-0.763861
6.0055
14.9499
25.0981
35.3833
44.7595
52.3076
57.3215
59.3664
58.3045
54.2887
47.726
39.2171
29.48
19.266
9.27872
0.103755
-7.84393
-14.3503
-19.4089
-23.204
-26.0755
-28.4687
-30.8779
-33.7881
-37.6227
-42.7006
-49.2067
-57.177
-66.4982
-76.9204
-88.0798
-99.5302
-110.778
-121.323
-130.689
-138.468
-144.339
-148.095
-149.653
-149.059
-146.476
-142.17
-136.484
-129.807
-122.539
-115.059
-107.696
-100.705
-94.248
-88.3887
-83.0944
-78.2458
-73.6571
-69.1011
-64.3399
-59.156
-53.3826
-46.9279
-39.7906
-32.0665
-23.9424
-15.6798
-7.58959
-0.000997217
6.77214
12.4628
16.8773
19.9128
21.5659
21.9294
21.1796
19.5562
17.3353
14.802
12.2229
9.82351
7.77145
6.16806
5.04787
4.38548
4.10839
4.11329
4.28344
4.50483
4.67896
4.73146
4.61576
4.31234
3.82451
3.17172
2.38205
1.48514
0.506562
-0.535408
-1.63046
-2.77436
-3.96495
-5.19697
-6.45648
-7.71611
-8.93193
-10.0428
-10.9728
-11.6362
-11.9458
-11.8219
-11.2031
-10.0555
-8.3793
-6.21229
-3.62911
-0.735936
2.33842
5.45383
8.47115
11.2638
13.7269
15.7832
17.3845
18.51
19.1604
19.3509
19.1031
18.4377
17.3695
15.9047
14.0421
11.7765
9.10589
6.03982
2.60884
-1.12713
-5.07292
-9.09613
-13.0302
-16.683
-19.8503
-22.3335
-23.9599
-24.604
-24.2057
-22.7863
-20.456
-17.4155
-13.9472
-10.3973
-7.15026
-4.59565
-3.09084
-2.92281
-4.27244
-7.18545
-11.5539
-17.1115
-23.4456
-30.0258
-36.2491
-41.4969
-45.1991
-46.8972
-46.2989
-43.3161
-38.0822
-30.9426
-22.4227
-13.1727
-3.89985
4.70723
12.0499
17.6799
21.34
22.9826
22.7624
21.0073
18.1701
14.7691
11.3242
8.29732
6.04266
4.77375
4.54855
5.27407
6.72813
8.59427
10.5042
12.0816
12.98
12.9109
11.6573
9.07207
5.06363
-0.425927
-7.44449
-16.0474
-26.3027
-38.2799
-52.0218
-67.5002
-84.563
-102.88
-121.896
-140.811
-158.582
-173.965
-185.597
-192.103
-192.235
-185.015
-169.878
-146.785
-116.316
-79.7035
-38.8195
3.89444
45.5588
83.0431
113.2
133.134
140.479
133.664
112.132
76.4818
28.5166
-28.8261
-91.6589
-155.436
-215.332
-266.665
-305.333
-328.206
-333.435
-320.644
-290.966
-246.938
-192.243
-131.342
-69.0298
-9.96619
41.7626
83.007
111.802
127.48
130.637
122.969
107.003
85.762
62.3979
39.8494
20.5516
6.23002
-2.20459
-4.65913
-1.76691
5.27719
14.9288
25.5236
35.4954
43.5579
48.8325
50.912
49.8601
46.1521
40.5709
34.0754
27.6594
22.2203
18.4515
16.7713
17.2912
19.8264
23.9407
29.0194
34.3568
39.2462
43.0636
45.3322
45.7658
44.2848
41.0088
36.2269
30.352
23.8654
17.2578
10.9738
5.36382
0.649862
-3.09371
-5.94123
-8.09988
-9.87872
-11.6465
-13.7834
-16.6322
-20.4551
-25.4011
-31.4873
-38.5968
-46.4925
-54.8452
-63.2717
-71.3788
-78.8072
-85.2691
-90.5758
-94.6511
-97.5282
-99.3307
-100.241
-100.458
-100.159
-99.4545
-98.3715
-96.8376
-94.6945
-91.7243
-87.6915
-82.3913
-75.6972
-67.5994
-58.2287
-47.8595
-36.8937
-25.8244
-15.1876
-5.50487
2.77179
9.30829
13.9222
16.5988
17.4872
16.8779
15.1658
12.8021
10.2432
7.90144
6.1033
5.06054
4.85564
5.44294
6.66437
8.27684
9.98765
11.4932
12.5162
12.838
12.3212
10.922
8.69101
5.76251
2.33542
-1.35237
-5.05226
-8.53237
-11.601
-14.1232
-16.0295
-17.315
-18.0315
-18.2717
-18.1508
-17.7862
-17.2796
-16.7033
-16.0928
-15.4472
-14.7351
-13.906
-12.9054
-11.6893
-10.2369
-8.55951
-6.70313
-4.74583
-2.78935
-0.94688
0.671241
1.97157
2.88931
3.39597
3.50207
3.25448
2.72921
2.02089
1.23062
0.453923
-0.229316
-0.762057
-1.11358
-1.27929
-1.27732
-1.1427
-0.920336
-0.657696
-0.398312
-0.176796
-0.0157966
0.0749944
0.0979499
0.0651451
-0.00492461
-0.0909362
-0.17206
-0.230545
-0.253291
-0.232327
-0.164338
-0.0495143
0.109899
0.31101
0.551357
0.829471
1.14489
1.49767
1.88756
2.31299
2.77025
3.25288
3.75166
4.25511
4.7506
5.22599
5.6714
6.08126
6.45599
6.80349
7.13993
7.48989
7.88568
8.36583
8.97289
9.75045
10.7398
11.9764
13.4857
15.2801
17.356
19.6919
22.2476
24.9657
27.7739
30.5889
33.3218
35.884
38.193
40.1785
41.7866
42.9823
43.7501
44.0904
44.0129
43.5262
42.6234
41.2666
39.3691
36.7819
33.2838
28.5823
22.3273
14.1406
3.66198
-9.38928
-25.1436
-43.5081
-64.1008
-86.2057
-108.757
-130.363
-149.377
-164.009
-172.482
-173.21
-164.987
-147.162
-119.773
-83.6352
-40.3506
7.74238
57.6939
106.123
149.445
184.127
206.966
215.361
207.571
182.936
142.03
86.7304
20.1716
-53.4151
-128.992
-201.109
-264.37
-313.936
-345.991
-358.134
-349.635
-321.518
-276.473
-218.574
-152.866
-84.8415
-19.8909
37.2291
82.8341
114.617
131.786
135.038
126.36
108.713
85.6302
60.782
37.5657
18.7598
6.27981
1.05424
3.02496
11.2603
24.1582
39.7066
55.7667
70.3429
81.8092
89.0699
91.6411
89.6516
83.7697
75.0715
64.8727
54.5458
45.3468
38.2716
33.9558
32.6268
34.1089
37.8763
43.1434
48.9784
54.4242
58.613
60.8606
60.7327
58.0772
53.0222
45.9427
37.4032
28.0824
18.6919
9.89645
2.24594
-3.87558
-8.27863
-10.9738
-12.155
-12.1648
-11.446
-10.487
-9.76704
-9.70648
-10.6281
-12.7315
-16.0833
-20.6215
-26.1735
-32.4842
-39.2495
-46.1519
-52.8933
-59.2208
-64.9449
-69.9454
-74.1693
-77.6184
-80.3318
-82.3655
-83.772
-84.5846
-84.8061
-84.4065
-83.3263
-81.4878
-78.8095
-75.2244
-70.6968
-65.2364
-58.9078
-51.8336
-44.1903
-36.198
-28.1053
-20.1695
-12.6367
-5.72235
0.405249
5.63617
9.92446
13.2873
15.7981
17.5745
18.7629
19.5212
20.0017
20.3359
20.6232
20.9236
21.2557
21.5998
21.9049
22.0991
22.1016
21.8351
21.2371
20.2681
18.9173
17.2026
15.1689
12.881
10.4153
7.85014
5.25693
2.69236
0.194052
-2.22076
-4.55302
-6.81681
-9.03234
-11.2182
-13.3845
-15.5277
-17.629
-19.6549
-21.5623
-23.3045
-24.839
-26.1345
-27.1749
-27.9603
-28.5042
-28.8257
-28.9411
-28.8534
-28.5446
-27.9713
-27.0661
-25.7437
-23.913
-21.4926
-18.4268
-14.7015
-10.3543
-5.48008
-0.228783
5.20429
10.594
15.7054
20.3158
24.2354
27.3252
29.5088
30.7774
31.1874
30.8507
29.9204
28.5715
26.9818
25.313
23.6962
22.2215
20.9349
19.8402
18.9066
18.0807
17.2996
16.5041
15.6502
14.7161
13.7053
12.6447
11.5779
10.5568
9.62994
8.83339
8.18208
7.66524
7.24567
6.86298
6.44028
5.89309
5.13915
4.10767
2.74663
1.02747
-1.0532
-3.47452
-6.1942
-9.15223
-12.2747
-15.4768
-18.6652
-21.7398
-24.5946
-27.1198
-29.2044
-30.7406
-31.63
-31.7903
-31.1638
-29.7252
-27.4879
-24.5083
-20.8867
-16.7639
-12.3141
-7.73397
-3.22841
1.00394
4.78431
7.96298
10.4217
12.0676
12.8182
12.5806
11.2267
8.57319
4.36967
-1.69701
-9.97865
-20.8199
-34.4925
-51.1155
-70.5718
-92.4328
-115.907
-139.828
-162.686
-182.717
-198.041
-206.839
-207.554
-199.088
-180.978
-153.518
-117.821
-75.8073
-30.1183
16.042
59.1225
95.4894
121.723
134.924
133.014
114.989
81.1043
32.9572
-26.5514
-93.3919
-162.707
-229.216
-287.683
-333.402
-362.643
-373.009
-363.664
-335.409
-290.591
-232.861
-166.806
-97.5027
-30.0269
31.0086
81.8568
119.93
143.964
154.032
151.436
138.462
118.071
93.5345
68.0732
44.5336
25.1371
11.3202
3.67823
2.00799
5.43533
12.6046
21.9021
31.6838
40.4802
47.1565
51.0135
51.8242
49.8069
45.5472
39.8813
33.7605
28.1153
23.7348
21.1759
20.7103
22.3115
25.6814
30.3071
35.54
40.6845
45.0836
48.1933
49.6351
49.2253
46.9779
43.0851
37.8791
31.7822
25.2512
18.7235
12.5702
7.06151
2.34647
-1.55135
-4.72301
-7.35085
-9.67649
-11.9646
-14.4672
-17.3936
-20.8881
-25.019
-29.7783
-35.0914
-40.8349
-46.8582
-53.0064
-59.1394
-65.1469
-70.9545
-76.5229
-81.839
-86.9021
-91.7063
-96.224
-100.392
-104.103
-107.207
-109.518
-110.833
-110.951
-109.702
-106.975
-102.737
-97.0508
-90.08
-82.0821
-73.3908
-64.3874
-55.4665
-46.9987
-39.2963
-32.5846
-26.9844
-22.5063
-19.0575
-16.4611
-14.4833
-12.8662
-11.3615
-9.7603
-7.91653
-5.76034
-3.30101
-0.61931
2.14908
4.83643
7.26867
9.29052
10.7867
11.6968
12.0219
11.8234
11.2136
10.3406
9.36995
8.46385
7.76238
7.3668
7.32683
7.63256
8.21144
8.931
9.60774
10.0226
9.94288
9.14918
7.46577
4.79036
1.11931
-3.4362
-8.64698
-14.1777
-19.6139
-24.5022
-28.3981
-30.9167
-31.7782
-30.8432
-28.1321
-23.826
-18.2494
-11.8369
-5.08746
1.48695
7.41235
12.2976
15.8682
17.985
18.648
17.9843
16.2243
13.6683
10.6489
7.49451
4.49542
1.87918
-0.204935
-1.69006
-2.58505
-2.95825
-2.91466
-2.56992
-2.02547
-1.34892
-0.562822
0.356083
1.46712
2.84697
4.56519
6.65832
9.10717
11.8215
14.6354
17.3152
19.5791
21.1272
21.6773
21.0026
18.9669
15.5517
10.8724
5.18246
-1.1378
-7.60528
-13.6712
-18.7685
-22.3654
-24.022
-23.4422
-20.5164
-15.3474
-8.25499
0.242898
9.47453
18.6789
27.0847
33.995
38.8666
41.373
41.444
39.2732
35.2932
30.1198
24.473
19.0846
14.6055
11.5247
10.1117
10.3887
12.1366
14.9325
18.2115
21.3452
23.7246
24.8349
24.3141
21.986
17.8639
12.1268
5.07051
-2.95651
-11.6228
-20.6766
-29.9905
-39.579
-49.5829
-60.2205
-71.7097
-84.172
-97.5325
-111.435
-125.191
-137.772
-147.862
-153.969
-154.577
-148.341
-134.282
-111.973
-81.6743
-44.4171
-2.00846
43.0419
87.6718
128.484
162.021
185.064
194.955
189.883
169.131
133.233
84.0358
24.6218
-40.8832
-107.632
-170.473
-224.42
-265.135
-289.366
-295.275
-282.637
-252.86
-208.84
-154.648
-95.1004
-35.2573
20.0949
66.9098
102.248
124.506
133.483
130.296
117.146
96.9901
73.1483
48.9077
27.1616
10.1285
-0.825627
-5.24823
-3.54898
3.14766
13.2193
24.7991
36.0319
45.3021
51.4078
53.6666
51.9464
46.6265
38.5011
28.6437
18.254
8.5082
0.429417
-5.20792
-7.93412
-7.59988
-4.35646
1.39116
9.04799
17.8995
27.1807
36.1379
44.0801
50.4194
54.7004
56.6199
56.0371
52.9764
47.6197
40.291
31.4311
21.5636
11.2547
1.06713
-8.48598
-16.9854
-24.143
-29.8287
-34.0822
-37.1091
-39.258
-40.9823
-42.7878
-45.1735
-48.5703
-53.2875
-59.4708
-67.0805
-75.8899
-85.506
-95.4096
-105.008
-113.699
-120.925
-126.232
-129.305
-129.987
-128.281
-124.332
-118.394
-110.787
-101.862
-91.9568
-81.3743
-70.3681
-59.142
-47.8606
-36.6671
-25.7018
-15.1184
-5.09225
4.17949
12.4883
19.6321
25.4373
29.7825
32.6174
33.9758
33.9779
32.8223
30.769
28.1136
25.1588
22.1851
19.426
17.0511
15.1572
13.7708
12.8572
12.3366
12.1017
12.0345
12.0194
11.9502
11.7329
11.2836
10.5259
9.389
7.80914
5.73566
3.14089
0.0322637
-3.53616
-7.45599
-11.5633
-15.6456
-19.4584
-22.7476
-25.2782
-26.8629
-27.3875
-26.8284
-25.2608
-22.8536
-19.8531
-16.5563
-13.2761
-10.3036
-7.87136
-6.12137
-5.08334
-4.66543
-4.66004
-4.76497
-4.61855
-3.84543
-2.10834
0.840221
5.1129
10.6555
17.2339
24.4429
31.74
38.4998
44.0853
47.9277
49.603
48.896
45.8411
40.7328
34.1029
26.6667
19.2435
12.6613
7.65947
4.79912
4.39605
6.48243
10.8031
16.8462
23.9044
31.1574
37.7672
42.9721
46.17
46.981
45.2819
41.2109
35.143
27.6384
19.3746
11.0673
3.39214
-3.08522
-7.96218
-11.0308
-12.2853
-11.906
-10.2228
-7.66422
-4.69876
-1.77614
0.724025
2.53022
3.49953
3.61885
2.98764
1.78574
0.231936
-1.45982
-3.11946
-4.64895
-6.03538
-7.34762
-8.71772
-10.3109
-12.289
-14.7745
-17.8197
-21.3862
-25.3381
-29.4488
-33.4209
-36.916
-39.5902
-41.131
-41.2913
-39.9163
-36.9611
-32.4983
-26.7146
-19.8998
-12.4288
-4.74037
2.68475
9.34446
14.7338
18.3612
19.7641
18.5258
14.2959
6.81615
-4.04813
-18.2721
-35.635
-55.6873
-77.7299
-100.809
-123.735
-145.129
-163.494
-177.315
-185.175
-185.884
-178.597
-162.933
-139.053
-107.723
-70.3268
-28.8407
14.2302
55.9687
93.2053
122.725
141.512
147.022
137.457
112.02
71.1142
16.4576
-48.9265
-120.85
-194.245
-263.577
-323.347
-368.637
-395.629
-402.029
-387.349
-352.986
-302.097
-239.276
-170.065
-100.363
-35.8103
18.7894
59.9245
85.6711
95.7923
91.642
75.8932
52.1361
24.4002
-3.33551
-27.5856
-45.7053
-56.1073
-58.3331
-52.984
-41.5315
-26.0415
-8.85471
7.73589
21.7684
31.8274
37.1695
37.7542
34.1832
27.5651
19.3294
11.0163
4.0715
-0.330499
-1.41407
1.12873
7.13221
16.0087
26.8463
38.5379
49.921
59.9136
67.628
72.4523
74.0928
72.5756
68.2113
61.5298
53.1966
43.922
34.3739
25.1058
16.5071
8.779
1.93827
-4.15543
-9.75332
-15.1608
-20.6787
-26.5507
-32.9241
-39.8287
-47.1747
-54.7691
-62.3465
-69.609
-76.268
-82.0826
-86.8882
-90.6126
-93.2774
-94.9865
-95.9029
-96.2199
-96.1298
-95.7958
-95.331
-94.7858
-94.1468
-93.3441
-92.2675
-90.7877
-88.7782
-86.1372
-82.8036
-78.7672
-74.0703
-68.8023
-63.0879
-57.0723
-50.9049
-44.7259
-38.6561
-32.793
-27.2105
-21.9635
-17.0942
-12.6386
-8.6316
-5.10939
-2.10826
0.339297
2.21073
3.50048
4.22645
4.43455
4.20021
3.6262
2.83658
1.96731
1.15429
0.52041
0.162994
0.143378
0.479978
1.14585
2.07119
3.15057
4.25403
5.24085
5.97439
6.33658
6.2408
5.6419
4.54264
2.9956
1.10033
-1.00459
-3.15384
-5.17127
-6.8876
-8.15815
-8.87838
-8.99521
-8.51289
-7.49228
-6.04384
-4.31505
-2.47385
-0.690227
0.881822
2.11981
2.944
3.32313
3.27444
2.858
2.16674
1.31328
0.415682
-0.416242
-1.09244
-1.55061
-1.76
-1.72081
-1.4597
-1.02214
-0.462958
0.163583
0.812693
1.4557
2.08352
2.7063
3.34955
4.04695
4.8313
5.72485
6.73062
7.82636
8.96225
10.0631
11.035
11.7758
12.188
12.1925
11.7406
10.8232
9.4751
7.77381
5.83237
3.78771
1.78527
-0.0378291
-1.5689
-2.73275
-3.49987
-3.88846
-3.95981
-3.80771
-3.54314
-3.27658
-3.10041
-3.0738
-3.21255
-3.4852
-3.81608
-4.09501
-4.19205
-3.97542
-3.32976
-2.17237
-0.46497
1.78054
4.50288
7.59865
10.9346
14.3633
17.7396
20.9357
23.8533
26.4301
28.6415
30.4967
32.0307
33.2929
34.3351
35.1993
35.9074
36.4546
36.805
36.8902
36.6101
35.8334
34.3966
32.1016
28.7113
23.9474
17.4932
9.00804
-1.8451
-15.3539
-31.6966
-50.8714
-72.6253
-96.3933
-121.264
-145.982
-168.996
-188.559
-202.876
-210.276
-209.411
-199.432
-180.142
-152.09
-116.597
-75.7131
-32.1008
11.1431
50.714
83.3578
106.143
116.724
113.581
96.2041
65.2075
22.3593
-29.4948
-86.6102
-144.62
-198.892
-244.93
-278.795
-297.479
-299.208
-283.63
-251.858
-206.364
-150.734
-89.3091
-26.7498
32.4193
84.2377
125.66
154.792
170.998
174.855
167.993
152.827
132.228
109.176
86.4321
66.2703
50.2927
39.3408
33.5054
32.2222
34.4326
38.7838
43.8391
48.2728
51.0273
51.4178
49.1791
44.455
37.7389
29.7774
21.4538
13.6674
7.22238
2.73818
0.590367
0.884048
3.46019
7.93033
13.7329
20.2026
26.6447
32.405
36.9301
39.8122
40.8169
39.8917
37.1575
32.8848
27.4574
21.3291
14.9751
8.84494
3.31863
-1.3286
-4.95105
-7.54384
-9.23983
-10.2918
-11.0417
-11.8795
-13.196
-15.3359
-18.5548
-22.9869
-28.6278
-35.332
-42.8295
-50.7551
-58.6896
-66.2059
-72.915
-78.5054
-82.7719
-85.6304
-87.1174
-87.3755
-86.6268
-85.1387
-83.1869
-81.0205
-78.8324
-76.7399
-74.7749
-72.8864
-70.9519
-68.798
-66.2251
-63.0356
-59.0612
-54.1869
-48.3694
-41.6485
-34.1503
-26.082
-17.7182
-9.38159
-1.41719
5.83551
12.0707
17.0421
20.5832
22.6205
23.1782
22.3736
20.4037
17.5254
14.03
10.2169
6.36695
2.72057
-0.538966
-3.29449
-5.49629
-7.15615
-8.33556
-9.12997
-9.65157
-10.0125
-10.3106
-10.6187
-10.9784
-11.3976
-11.8528
-12.2938
-12.6516
-12.8477
-12.8049
-12.4587
-11.7677
-10.7218
-9.34826
-7.71164
-5.90978
-4.06358
-2.30215
-0.744825
0.517663
1.44
2.03429
2.37482
2.59432
2.8711
3.40844
4.40817
6.042
8.42407
11.589
15.4782
19.9376
24.7263
29.5376
34.0274
37.8498
40.6937
42.3164
42.5712
41.4244
38.9612
35.3783
30.9655
26.0774
21.0992
16.4102
12.3484
9.18079
7.08269
6.12597
6.27843
7.41256
9.32203
11.7434
14.3809
16.9311
19.1068
20.6569
21.3823
21.1472
19.8846
17.597
14.3532
10.2805
5.55413
0.384876
-4.99485
-10.3451
-15.4319
-20.0404
-23.9851
-27.1195
-29.3431
-30.6055
-30.9088
-30.3068
-28.9013
-26.8349
-24.2817
-21.4344
-18.4904
-15.6362
-13.0332
-10.8054
-9.02992
-7.73297
-6.89026
-6.43268
-6.2563
-6.23554
-6.23779
-6.13793
-5.83092
-5.2413
-4.32853
-3.08796
-1.54748
0.239397
2.20296
4.26806
6.36457
8.4362
10.4461
12.3781
14.2321
16.0142
17.7203
19.3166
20.7173
21.7657
22.221
21.7574
19.9771
16.4414
10.7154
2.42671
-8.67132
-22.636
-39.2805
-58.1346
-78.4274
-99.0967
-118.828
-136.126
-149.409
-157.137
-157.94
-150.767
-135.011
-110.62
-78.1762
-38.9194
5.2696
51.9442
98.2171
140.931
176.864
202.963
216.583
215.724
199.242
167.027
120.104
60.6664
-7.99407
-81.6642
-155.489
-224.345
-283.274
-327.934
-355.029
-362.646
-350.476
-319.867
-273.705
-216.138
-152.155
-87.0845
-26.0637
26.4613
67.1421
94.0017
106.546
105.706
93.6364
73.3793
48.4686
22.5019
-1.25582
-20.1981
-32.5975
-37.7058
-35.7303
-27.7024
-15.2615
-0.389626
14.8677
28.66
39.5393
46.5984
49.5289
48.601
44.5744
38.5593
31.8466
25.7329
21.3587
19.5799
20.882
25.3454
32.6584
42.1736
52.9972
64.0953
74.4076
82.9509
88.9075
91.6876
90.9655
86.6892
79.065
68.5227
55.6667
41.2165
25.9435
10.608
-4.0999
-17.6121
-29.5228
-39.6161
-47.8767
-54.4827
-59.78
-64.2393
-68.3991
-72.8005
-77.9205
-84.113
-91.5633
-100.263
-110.01
-120.429
-131.015
-141.192
-150.374
-158.03
-163.74
-167.226
-168.381
-167.263
-164.079
-159.151
-152.872
-145.662
-137.921
-129.99
-122.13
-114.498
-107.154
-100.071
-93.1485
-86.2461
-79.2064
-71.8835
-64.1649
-55.9876
-47.3473
-38.2998
-28.9566
-19.4754
-10.0467
-0.87879
7.81807
15.8462
23.0339
29.2453
34.3886
38.4191
41.3406
43.2026
44.0957
44.1442
43.4985
42.3261
40.8028
39.105
37.4026
35.8522
34.5927
33.7402
33.3848
33.5881
34.3805
35.7609
37.6965
40.1243
42.9536
46.0702
49.3416
52.6232
55.7654
58.6204
61.0495
62.9292
64.1563
64.6515
64.3615
63.2588
61.3409
58.6284
55.1636
51.0092
46.2486
40.9868
35.3506
29.4884
23.5679
17.7705
12.283
7.28664
2.9434
-0.616764
-3.30805
-5.0975
-6.00914
-6.12267
-5.56663
-4.50655
-3.12944
-1.62642
-0.175319
1.07458
2.01415
2.58109
2.76102
2.58318
2.11122
1.4304
0.632893
-0.196838
-0.994653
-1.72555
-2.38749
-3.00983
-3.6466
-4.36581
-5.23643
-6.315
-7.63391
-9.19306
-10.956
-12.8513
-14.7785
-16.6182
-18.2452
-19.542
-20.4124
-20.7918
-20.6548
-20.0175
-18.935
-17.4946
-15.8048
-13.9824
-12.1382
-10.3649
-8.72708
-7.25647
-5.9514
-4.78204
-3.69957
-2.64809
-1.57743
-0.454685
0.727331
1.94602
3.1501
4.26584
5.20744
5.8902
6.24454
6.22874
5.83871
5.11327
4.13409
3.02032
1.91803
0.985155
0.372426
0.200908
0.536969
1.36624
2.56918
3.90219
4.98876
5.32572
4.30844
1.27723
-4.41561
-13.3218
-25.8039
-41.9435
-61.4642
-83.6842
-107.509
-131.475
-153.842
-172.733
-186.305
-192.934
-191.394
-181.007
-161.746
-134.281
-99.97
-60.7789
-19.1651
22.082
60.0207
91.749
114.598
126.32
125.27
110.564
82.213
41.2156
-10.4152
-69.6991
-132.83
-195.416
-252.808
-300.497
-334.536
-351.948
-351.058
-331.708
-295.32
-244.788
-184.209
-118.479
-52.7982
7.85176
59.1987
98.0823
122.721
132.817
129.494
115.078
92.7685
66.224
39.136
14.8318
-4.04592
-15.7497
-19.5135
-15.515
-4.73219
11.2782
30.6417
51.4306
71.897
90.6492
106.755
119.768
129.682
136.836
141.771
145.088
147.314
148.792
149.623
149.655
148.519
145.711
140.692
133.002
122.36
108.745
92.4318
73.9888
54.2327
34.1471
14.7769
-2.88585
-18.0112
-30.0208
-38.6459
-43.95
-46.3122
-46.3772
-44.9782
-43.0439
-41.5011
-41.1818
-42.7467
-46.6276
-52.994
-61.7437
-72.5155
-84.7223
-97.6009
-110.275
-121.828
-131.378
-138.154
-141.563
-141.241
-137.093
-129.298
-118.295
-104.747
-89.479
-73.4013
-57.4282
-42.3966
-28.9952
-17.7117
-8.80201
-2.28567
2.03461
4.53182
5.69832
6.0813
6.21822
6.5794
7.52404
9.27351
11.9035
15.3545
19.4567
23.9658
28.6035
33.0962
37.2085
40.7661
43.6674
45.8821
47.4396
48.4106
48.8835
48.943
48.6517
48.0391
47.0986
45.7937
44.0691
41.8675
39.1467
35.8941
32.1374
27.9478
23.4365
18.7445
14.0275
9.43857
5.11047
1.1418
-2.41261
-5.54487
-8.29081
-10.721
-12.9276
-15.0094
-17.0566
-19.1382
-21.2942
-23.5317
-25.8278
-28.1366
-30.3994
-32.5563
-34.5574
-36.3699
-37.9823
-39.402
-40.6494
-41.7474
-42.71
-43.5309
-44.1762
-44.582
-44.6594
-44.3051
-43.4196
-41.9263
-39.7912
-37.0363
-33.7447
-30.0547
-26.1417
-22.1925
-18.3742
-14.8051
-11.5336
-8.52857
-5.68616
-2.85167
0.145565
3.45017
7.13884
11.1866
15.4486
19.6612
23.466
26.4524
28.2139
28.4111
26.8296
23.4247
18.3459
11.9348
4.69713
-2.74937
-9.74356
-15.6582
-19.9747
-22.3458
-22.6372
-20.9437
-17.5762
-13.0224
-7.88641
-2.81371
1.5866
4.81422
6.53463
6.61398
5.1282
2.34579
-1.31258
-5.33171
-9.16886
-12.3213
-14.3859
-15.1033
-14.3828
-12.3047
-9.10164
-5.12219
-0.782562
3.48749
7.2971
10.339
12.4214
13.4842
13.5988
12.9526
11.8217
10.5362
9.44336
8.87395
9.11564
10.3962
12.877
16.6552
21.7713
28.2184
35.9489
44.8745
54.8587
65.701
77.1161
88.7104
99.9646
110.226
118.722
124.59
126.946
124.962
117.971
105.578
87.7587
64.9458
38.0709
8.56093
-21.7246
-50.6142
-75.7972
-95.0345
-106.384
-108.417
-100.397
-82.4058
-55.3889
-21.13
17.8549
58.487
97.3456
130.922
155.887
169.364
169.175
154.065
123.862
79.5845
23.4474
-41.2156
-110.144
-178.44
-240.952
-292.709
-329.391
-347.755
-346
-323.988
-283.32
-227.217
-160.234
-87.8264
-15.8091
50.2189
105.423
146.191
170.444
177.773
169.388
147.891
116.911
80.6456
43.3752
8.99954
-19.3445
-39.5473
-50.65
-52.8246
-47.2225
-35.7234
-20.6196
-4.28302
11.1458
24.0074
33.2879
38.6827
40.5603
39.8385
37.7951
35.8434
35.3028
37.1966
42.1014
50.0649
60.601
72.7585
85.2512
96.6308
105.478
110.586
111.115
106.692
97.4598
84.0534
67.5215
49.2013
30.5639
13.0495
-2.08596
-13.8971
-21.8343
-25.7799
-26.0345
-23.2556
-18.3598
-12.3987
-6.42474
-1.36351
2.09415
3.56604
3.01049
0.712136
-2.7763
-6.7284
-10.3616
-12.9617
-13.9952
-13.1953
-10.6067
-6.5838
-1.74317
3.12298
7.15891
9.56631
9.71666
7.23927
2.07314
-5.52329
-15.0044
-25.6055
-36.4371
-46.5898
-55.2378
-61.7269
-65.6369
-66.8118
-65.3584
-61.6136
-56.0878
-49.3947
-42.1745
-35.023
-28.4329
-22.7537
-18.1732
-14.7209
-12.289
-10.6686
-9.59376
-8.78602
-7.99608
-7.03533
-5.79547
-4.25459
-2.47037
-0.562808
1.31035
2.98109
4.29756
5.14575
5.46387
5.24784
4.54818
3.45926
2.10335
0.612232
-0.890614
-2.30454
-3.56101
-4.62654
-5.49948
-6.20164
-6.76681
-7.2283
-7.60807
-7.90924
-8.11314
-8.18127
-8.06151
-7.69716
-7.03694
-6.04421
-4.70367
-3.02471
-1.0413
1.19114
3.60078
6.1052
8.61684
11.0473
13.3105
15.3239
17.0099
18.2965
19.1197
19.4265
19.1808
18.3698
17.0115
15.1604
12.9112
10.3986
7.79148
5.28332
3.07743
1.36963
0.329682
0.0836074
0.698995
2.175
4.43828
7.34536
10.6916
14.2259
17.6704
20.7429
23.1819
24.769
25.3501
24.8499
23.2799
20.7377
17.3986
13.498
9.30971
5.11967
1.19911
-2.21962
-4.9627
-6.92775
-8.08918
-8.49563
-8.26041
-7.54616
-6.54565
-5.46084
-4.48218
-3.77023
-3.4411
-3.55712
-4.12317
-5.08903
-6.35715
-7.79499
-9.25046
-10.5688
-11.609
-12.2581
-12.4418
-12.1306
-11.3398
-10.126
-8.57736
-6.80253
-4.91705
-3.03071
-1.23698
0.393965
1.8178
3.0138
3.97827
4.71474
5.2219
5.48098
5.4435
5.02069
4.07563
2.41928
-0.187913
-4.02739
-9.40519
-16.6253
-25.9534
-37.5735
-51.5388
-67.7233
-85.78
-105.112
-124.866
-143.95
-161.086
-174.892
-183.992
-187.148
-183.391
-172.16
-153.398
-127.626
-95.9543
-60.056
-22.0734
15.511
50.0412
78.8774
99.5936
110.175
109.2
95.9963
70.7585
34.6042
-10.4369
-61.5178
-115.154
-167.484
-214.584
-252.814
-279.155
-291.503
-288.868
-271.483
-240.771
-199.208
-150.068
-97.1003
-44.1586
5.16049
47.842
81.7002
105.527
119.132
123.268
119.47
109.821
96.6802
82.4037
69.096
58.4106
51.4221
48.5763
49.717
54.1791
60.9305
68.7417
76.3609
82.6723
86.8222
88.3007
86.9737
83.0658
77.1016
69.8158
62.0449
54.616
48.2453
43.4585
40.5406
39.5185
40.1764
42.1003
44.7416
47.4944
49.7718
51.0756
51.0482
49.5036
46.4339
41.9928
36.4591
30.1871
23.5507
16.8893
10.4627
4.42148
-1.20427
-6.49748
-11.6291
-16.821
-22.3022
-28.2665
-34.8364
-42.0396
-49.8004
-57.9464
-66.2294
-74.356
-82.0231
-88.9533
-94.9244
-99.7908
-103.492
-106.053
-107.567
-108.179
-108.061
-107.385
-106.301
-104.923
-103.316
-101.492
-99.4208
-97.0316
-94.2307
-90.915
-86.9875
-82.3719
-77.0252
-70.9481
-64.1908
-56.856
-49.0966
-41.1094
-33.124
-25.3879
-18.1494
-11.6385
-6.04838
-1.51988
1.87086
4.11863
5.28926
5.51331
4.974
3.89077
2.50035
1.03756
-0.282213
-1.2769
-1.80674
-1.77765
-1.13897
0.123731
1.99938
4.46347
7.48923
11.0558
15.1512
19.7707
24.9087
30.5473
36.6426
43.1107
49.8169
56.5702
63.1247
69.19
74.4494
78.5863
81.3138
82.4058
81.725
79.2428
75.0498
69.3538
62.4646
54.7695
46.6987
38.6883
31.1419
24.3977
18.7026
14.197
10.9111
8.77236
7.62221
7.24055
7.37396
7.76464
8.17695
8.4188
8.35625
7.9203
7.10605
5.96498
4.59193
3.10857
1.64565
0.325834
-0.750843
-1.51785
-1.94836
-2.05657
-1.89439
-1.54393
-1.10702
-0.692812
-0.405064
-0.330553
-0.530076
-1.03307
-1.8365
-2.90799
-4.19278
-5.62329
-7.13
-8.65192
-10.1451
-11.588
-12.9824
-14.3509
-15.7297
-17.1597
-18.6764
-20.2999
-22.0284
-23.8344
-25.6658
-27.4506
-29.1064
-30.5507
-31.7126
-32.5429
-33.0212
-33.1587
-32.9961
-32.598
-32.0424
-31.4095
-30.7687
-30.1682
-29.6277
-29.134
-28.6436
-28.0877
-27.3831
-26.4439
-25.1941
-23.5794
-21.5747
-19.1879
-16.4582
-13.4496
-10.2412
-6.91617
-3.55182
-0.212659
3.05114
6.2
9.19663
11.9952
14.5314
16.7157
18.4347
19.5591
19.9601
19.5314
18.2126
16.01
13.0106
9.38608
5.38487
1.31282
-2.49508
-5.70829
-8.03468
-9.24922
-9.21214
-7.87196
-5.25084
-1.41224
3.5856
9.74303
17.1695
26.1194
37.0027
50.3606
66.8028
86.9066
111.087
139.45
171.653
206.789
243.332
279.141
311.566
337.634
354.313
358.837
349.044
323.69
282.701
227.313
160.078
84.73
5.90982
-71.2272
-141.476
-200.073
-243.16
-268.164
-274.051
-261.422
-232.439
-190.599
-140.361
-86.6965
-34.5948
11.4138
47.6653
71.6608
82.2318
79.5601
65.0622
41.1596
10.9675
-22.0569
-54.4678
-83.1468
-105.554
-119.894
-125.187
-121.248
-108.598
-88.309
-61.822
-30.7605
3.24012
38.6688
74.229
108.883
141.849
172.572
200.663
225.841
247.872
266.53
281.569
292.728
299.75
302.417
300.591
294.261
283.572
268.852
250.615
229.546
206.467
182.292
157.969
134.409
112.426
92.679
75.6194
61.4609
50.1608
41.4242
34.7261
29.3545
24.4702
19.1807
12.6208
4.03334
-7.15817
-21.2939
-38.445
-58.4078
-80.7257
-104.735
-129.627
-154.525
-178.548
-200.884
-220.836
-237.861
-251.585
-261.812
-268.515
-271.817
-271.96
-269.277
-264.14
-256.915
-247.906
-237.3
-225.128
-211.239
-195.296
-176.817
-155.246
-130.057
-100.878
-67.6164
-30.5607
9.56308
51.5964
94.0203
135.086
172.984
206.028
232.819
252.367
264.171
268.224
264.976
255.26
240.192
221.062
199.241
176.089
152.885
130.768
110.686
93.3574
79.2355
68.4894
60.9974
56.3609
53.9414
52.9187
52.3685
51.3511
49.0018
44.6145
37.7074
28.0662
15.7587
1.12159
-15.2777
-32.6997
-50.3035
-67.2227
-82.6369
-95.8334
-106.253
-113.517
-117.437
-118.005
-115.371
-109.818
-101.725
-91.5396
-79.7523
-66.875
-53.4279
-39.9284
-26.8817
-14.7698
-4.03703
4.92799
11.8136
16.4079
18.6189
18.4905
16.2082
12.0943
6.58961
0.222798
-6.4304
-12.7949
-18.3454
-22.6518
-25.4154
-26.4922
-25.9001
-23.8095
-20.5181
-16.4144
-11.9317
-7.50121
-3.50729
-0.250738
2.07614
3.40077
3.76756
3.32243
2.28761
0.930525
-0.468831
-1.64779
-2.38465
-2.51365
-1.93024
-0.587316
1.51585
4.34915
7.86828
12.0295
16.7997
22.1608
28.1077
34.6411
41.7562
49.4304
57.6112
66.2052
75.0722
84.0219
92.8166
101.178
108.797
115.353
120.528
124.031
125.618
125.115
122.438
117.612
110.779
102.203
92.2527
81.3859
70.1021
58.892
48.1741
38.2303
29.1484
20.7851
12.7573
4.46975
-4.81731
-15.8852
-29.4267
-45.9059
-65.4247
-87.6214
-111.617
-136.027
-159.046
-178.598
-192.549
-198.942
-196.25
-183.584
-160.861
-128.879
-89.3147
-44.6254
2.11987
47.466
87.831
119.779
140.288
147.005
138.465
114.27
75.2125
23.3083
-38.258
-105.304
-172.93
-235.901
-289.099
-328
-349.13
-350.432
-331.51
-293.701
-239.962
-174.59
-102.785
-30.1282
37.9823
96.8561
142.948
174.15
189.917
191.214
180.297
160.371
135.162
108.47
83.7421
63.7262
50.2339
44.0321
44.8653
51.596
62.4335
75.2188
87.724
97.9316
104.262
105.727
102.004
93.4181
80.8598
65.6393
49.3078
33.4663
19.5842
8.84872
2.05553
-0.449259
1.22382
6.54784
14.6586
24.4614
34.7533
44.3481
52.1916
57.458
59.6181
58.4751
54.165
47.125
38.0326
27.7233
17.0983
7.02891
-1.7286
-8.60231
-13.2505
-15.5819
-15.7508
-14.1298
-11.2641
-7.8144
-4.4927
-1.99668
-0.948557
-1.84227
-5.00345
-10.5651
-18.4607
-28.4356
-40.0747
-52.843
-66.1354
-79.3295
-91.8358
-103.14
-112.835
-120.636
-126.385
-130.042
-131.667
-131.4
-129.433
-125.993
-121.324
-115.671
-109.271
-102.348
-95.1006
-87.7011
-80.2858
-72.9525
-65.7601
-58.7321
-51.8651
-45.1409
-38.5414
-32.0634
-25.73
-19.5977
-13.757
-8.32513
-3.43345
0.790013
4.23937
6.84827
8.60292
9.54865
9.78866
9.47489
8.79202
7.93655
7.09355
6.41422
5.99709
5.87579
6.01514
6.31679
6.63384
6.79283
6.61982
5.96671
4.73366
2.88433
0.451939
-2.46407
-5.70942
-9.09203
-12.4014
-15.4276
-17.977
-19.8844
-21.0198
-21.2921
-20.6514
-19.0896
-16.6426
-13.3912
-9.46175
-5.02247
-0.275426
4.5574
9.25292
13.6084
17.4624
20.7109
23.3153
25.3003
26.7405
27.7377
28.3936
28.7826
28.9301
28.803
28.3127
27.3324
25.7256
23.3795
20.2391
16.3327
11.7862
6.82122
1.73749
-3.11832
-7.39284
-10.7692
-13.0069
-13.972
-13.6541
-12.1675
-9.7364
-6.66702
-3.31031
-0.0206062
2.88444
5.15774
6.64647
7.303
7.1821
6.42491
5.23174
3.82748
2.42407
1.18569
0.201514
-0.529269
-1.09789
-1.67118
-2.46353
-3.69953
-5.57304
-8.20876
-11.6326
-15.7552
-20.3721
-25.1799
-29.8075
-33.857
-36.9493
-38.7669
-39.0891
-37.8128
-34.958
-30.6575
-25.1331
-18.6658
-11.5625
-4.12812
3.35491
10.637
17.5029
23.7673
29.2681
33.8617
37.4239
39.8573
41.1044
41.165
40.1127
38.1057
35.3888
32.2811
29.1499
26.3713
24.2815
23.1246
23.0023
23.8337
25.3299
26.9887
28.1124
27.851
25.2704
19.4425
9.55089
-4.99494
-24.4499
-48.6394
-76.8957
-108.035
-140.389
-171.887
-200.196
-222.905
-237.737
-242.768
-236.635
-218.698
-189.157
-149.097
-100.465
-45.9881
10.9783
66.6424
117.021
158.217
186.724
199.735
195.434
173.231
133.915
79.6951
14.11
-58.2026
-131.854
-201.152
-260.6
-305.401
-331.915
-338.01
-323.278
-289.08
-238.411
-175.602
-105.889
-34.8964
31.9157
89.7622
134.963
165.237
179.836
179.51
166.319
143.317
114.157
82.6614
52.418
26.4333
6.88725
-5.00049
-8.98508
-5.70559
3.49024
16.7763
32.1018
47.4382
60.9934
71.3764
77.6988
79.6136
77.2938
71.3601
62.7715
52.6925
42.352
32.9074
25.3255
20.2902
18.1441
18.8672
22.0941
27.1673
33.2186
39.2729
44.359
47.6188
48.4003
46.325
41.3221
33.6252
23.7337
12.3426
0.252078
-11.7321
-22.8942
-32.6864
-40.7817
-47.0934
-51.7639
-55.1232
-57.6276
-59.7882
-62.0986
-64.9748
-68.7107
-73.4575
-79.2224
-85.8875
-93.2392
-101.005
-108.885
-116.584
-123.825
-130.364
-135.985
-140.501
-143.748
-145.585
-145.9
-144.613
-141.691
-137.157
-131.102
-123.687
-115.134
-105.721
-95.7529
-85.5466
-75.4
-65.5728
-56.2694
-47.6304
-39.7328
-32.5972
-26.2001
-20.4901
-15.403
-10.8754
-6.85386
-3.29929
-0.186882
2.49758
4.7635
6.62167
8.08916
9.192
9.96469
10.4469
10.6778
10.6892
10.4995
10.1093
9.50175
8.64669
7.51068
6.07034
4.32725
2.32146
0.140074
-2.08169
-4.16877
-5.92404
-7.15379
-7.69777
-7.45904
-6.4285
-4.69897
-2.46503
-0.00663791
2.3426
4.23913
5.37892
5.54534
4.64739
2.74177
0.034315
-3.14043
-6.35911
-9.16388
-11.1236
-11.8932
-11.2632
-9.19154
-5.81428
-1.43246
3.52264
8.54148
13.0985
16.7169
19.0272
19.8131
19.0381
16.8512
13.5699
9.64359
5.60148
1.9913
-0.683819
-2.02311
-1.77391
0.139882
3.60975
8.35568
13.9587
19.9089
25.6628
30.7036
34.5965
37.0332
37.8603
37.0887
34.8837
31.5379
27.4308
22.9806
18.5951
14.6266
11.3364
8.87195
7.25836
6.40338
6.11452
6.12556
6.12928
5.81321
4.89578
3.1598
0.481145
-3.15005
-7.618
-12.6817
-17.9886
-23.1023
-27.5418
-30.8312
-32.5535
-32.4025
-30.2277
-26.063
-20.1367
-12.8589
-4.7869
3.42903
11.1118
17.6293
22.4624
25.2609
25.8797
24.3931
21.0817
16.3983
10.9124
5.24456
-0.00529798
-4.32387
-7.33883
-8.8546
-8.86597
-7.54886
-5.23019
-2.34165
0.63612
3.23147
5.03414
5.7355
5.15152
3.2257
0.0118841
-4.36032
-9.73202
-15.966
-22.9931
-30.8453
-39.6675
-49.7021
-61.2449
-74.5754
-89.8671
-107.093
-125.938
-145.737
-165.456
-183.718
-198.895
-209.245
-213.09
-209.028
-196.127
-174.105
-143.457
-105.512
-62.4155
-17.0277
27.2565
66.7588
97.8233
117.153
122.153
111.236
84.065
41.6959
-13.4138
-77.5304
-145.91
-213.185
-273.834
-322.696
-355.469
-369.144
-362.316
-335.349
-290.35
-230.966
-162.023
-89.0363
-17.6558
46.8922
100.305
139.586
163.269
171.469
165.753
148.86
124.312
95.9638
67.5571
42.32
22.6661
10.0157
4.75077
6.29722
13.313
23.9475
36.1347
47.8778
57.493
63.7845
66.1366
64.5211
59.4287
51.7426
42.5761
33.101
24.3891
17.2849
12.3233
9.69699
9.27152
10.6412
13.2135
16.3079
19.2552
21.4833
22.5816
22.3363
20.7364
17.9514
14.2866
10.1241
5.8569
1.82564
-1.73295
-4.72066
-7.19059
-9.33722
-11.4657
-13.9453
-17.1536
-21.4196
-26.9747
-33.9168
-42.1929
-51.6029
-61.8218
-72.4376
-82.9991
-93.0663
-102.257
-110.286
-116.986
-122.315
-126.352
-129.271
-131.311
-132.74
-133.813
-134.742
-135.67
-136.651
-137.651
-138.545
-139.137
-139.175
-138.378
-136.464
-133.18
-128.33
-121.806
-113.605
-103.848
-92.7753
-80.7448
-68.2046
-55.6608
-43.6349
-32.6186
-23.0277
-15.1651
-9.19316
-5.1217
-2.81207
-1.99642
-2.31008
-3.3327
-4.63317
-5.81306
-6.54379
-6.59388
-5.84379
-4.28762
-2.02248
0.772547
3.86475
6.99949
9.93138
12.4508
14.4031
15.6975
16.3071
16.259
15.6189
14.4721
12.9059
10.9964
8.8011
6.36035
3.70473
0.868008
-2.09865
-5.11461
-8.06347
-10.7948
-13.1349
-14.9045
-15.9412
-16.1216
-15.3792
-13.7143
-11.1944
-7.94482
-4.13283
0.0531469
4.42364
8.80492
13.0498
17.0415
20.6912
23.9308
26.7049
28.963
30.6559
31.7358
32.1622
31.9099
30.9791
29.4036
27.2559
24.6478
21.7246
18.6544
15.614
12.7716
10.2704
8.21431
6.65808
5.60275
4.99743
4.74684
4.72343
4.78275
4.7798
4.58453
4.09454
3.24345
2.00417
0.386523
-1.57013
-3.80829
-6.26594
-8.88999
-11.6472
-14.5304
-17.558
-20.7664
-24.1965
-27.8744
-31.791
-35.8829
-40.0183
-43.9908
-47.5249
-50.2926
-51.9421
-52.1359
-50.5939
-47.1367
-41.7227
-34.4722
-25.6744
-15.7744
-5.33993
4.98876
14.5605
22.7791
29.1643
33.4016
35.3729
35.1658
33.0588
29.4864
24.9879
20.1457
15.5222
11.6017
8.74386
7.15386
6.87083
7.77521
9.6122
12.0272
14.6076
16.9241
18.567
19.1717
18.4315
16.0987
11.975
5.89837
-2.26871
-12.6429
-25.3098
-40.2968
-57.5299
-76.7787
-97.5982
-119.281
-140.831
-160.977
-178.228
-190.977
-197.647
-196.862
-187.624
-169.473
-142.604
-107.924
-67.0451
-22.2037
23.876
68.1693
107.568
139.112
160.213
168.869
163.841
144.795
112.388
68.2953
15.1582
-43.5479
-103.734
-160.999
-210.989
-249.786
-274.288
-282.525
-273.881
-249.176
-210.602
-161.513
-106.083
-48.8816
5.58904
53.3374
91.2586
117.397
131.072
132.854
124.412
108.241
87.324
64.7663
43.4431
25.7068
13.1795
6.64802
6.06427
10.6419
19.0285
29.5257
40.3296
49.7593
56.4523
59.5049
58.55
53.767
45.8295
35.8006
24.9915
14.7996
6.54513
1.3217
-0.12255
2.5358
9.16327
19.1859
31.6512
45.328
58.8331
70.772
79.8781
85.1376
85.8883
81.882
73.3052
60.7573
45.1867
27.7917
9.89671
-7.1849
-22.2857
-34.5028
-43.287
-48.4909
-50.3728
-49.5536
-46.9333
-43.5783
-40.5915
-38.9838
-39.5604
-42.8358
-48.9877
-57.8515
-68.9565
-81.5955
-94.9176
-108.032
-120.11
-130.469
-138.637
-144.384
-147.72
-148.87
-148.217
-146.238
-143.428
-140.23
-136.976
-133.851
-130.87
-127.894
-124.656
-120.812
-116.003
-109.918
-102.349
-93.2337
-82.6786
-70.9584
-58.4932
-45.807
-33.4739
-22.0579
-12.0546
-3.84197
2.35487
6.48114
8.65095
9.12801
8.29142
6.59119
4.49861
2.45733
0.840169
-0.0839365
-0.169716
0.599289
2.12007
4.19218
6.5492
8.89562
10.9446
12.4522
13.2437
13.2309
12.4162
10.8865
8.79652
6.34525
3.74901
1.21512
-1.08026
-3.00768
-4.49185
-5.51105
-6.09002
-6.2883
-6.18686
-5.87536
-5.44174
-4.96515
-4.51183
-4.13296
-3.86336
-3.71969
-3.69782
-3.76955
-3.87974
-3.94522
-3.85683
-3.48571
-2.69389
-1.34882
0.659867
3.40336
6.89902
11.1002
15.8929
21.0995
26.4903
31.8023
36.7615
41.109
44.6255
47.1527
48.609
48.9971
48.4028
46.9835
44.949
42.5351
39.9735
37.4617
35.1368
33.0569
31.1933
29.4347
27.6026
25.4782
22.8351
19.4756
15.2643
10.1559
4.21184
-2.39526
-9.39127
-16.4228
-23.09
-28.9861
-33.7387
-37.0488
-38.722
-38.6893
-37.0135
-33.8821
-29.5863
-24.4898
-18.9902
-13.4793
-8.30489
-3.7409
0.0330745
2.93973
4.99998
6.31814
7.05913
7.42131
7.60872
7.80639
8.16152
8.77226
9.68461
10.8966
12.3679
14.0321
15.8097
17.6181
19.3785
21.0175
22.4657
23.6528
24.5023
24.9265
24.8245
24.0817
22.5725
20.1635
16.7163
12.0884
6.13348
-1.30013
-10.3674
-21.2197
-33.9895
-48.7627
-65.5407
-84.1927
-104.404
-125.63
-147.065
-167.638
-186.043
-200.81
-210.416
-213.426
-208.66
-195.353
-173.299
-142.958
-105.51
-62.8373
-17.449
27.6658
69.2407
103.979
128.826
141.25
139.504
122.843
91.6727
47.6121
-6.55691
-67.0493
-129.349
-188.574
-239.904
-279.029
-302.57
-308.426
-295.998
-266.264
-221.684
-165.96
-103.652
-39.719
20.9862
74.1838
116.564
146.06
161.972
164.934
156.739
140.05
118.026
93.9394
70.7987
51.0472
36.3511
27.5019
24.4324
26.3336
31.8498
39.3182
47.0219
53.4203
57.3331
58.0578
55.4138
49.7138
41.6757
32.2896
22.6635
13.8685
6.80288
2.09131
0.0276741
0.564973
3.34887
7.78653
13.1386
18.6208
23.501
27.1813
29.2548
29.5349
28.0548
25.0406
20.8645
15.9851
10.8836
6.00226
1.69365
-1.81624
-4.44795
-6.27125
-7.49176
-8.42419
-9.45562
-11.0026
-13.4663
-17.1893
-22.419
-29.2786
-37.7509
-47.6742
-58.7525
-70.5783
-82.6661
-94.4942
-105.55
-115.375
-123.603
-129.994
-134.447
-137.001
-137.829
-137.202
-135.457
-132.948
-130.007
-126.899
-123.803
-120.792
-117.836
-114.825
-111.592
-107.948
-103.722
-98.7903
-93.0993
-86.6778
-79.6362
-72.1532
-64.4545
-56.7849
-49.3795
-42.4364
-36.0958
-30.4263
-25.4217
-21.0062
-17.0492
-13.3866
-9.84651
-6.27584
-2.5649
1.33351
5.39281
9.5108
13.5175
17.192
20.2861
22.5524
23.7729
23.7855
22.5055
19.9388
16.1865
11.44
5.96766
0.0937515
-5.82698
-11.4375
-16.4063
-20.4525
-23.3664
-25.0228
-25.3879
-24.5168
-22.5446
-19.6704
-16.1364
-12.2042
-8.13078
-4.14648
-0.436875
2.8692
5.70492
8.06363
9.99062
11.5698
12.9075
14.1149
15.2923
16.5161
17.8307
19.2449
20.7342
22.247
23.7142
25.0601
26.2131
27.1148
27.7265
28.0322
28.0384
27.771
27.2705
26.5856
25.7677
24.8654
23.921
22.9684
22.0325
21.1299
20.27
19.4562
18.6879
17.9605
17.266
16.5925
15.9237
15.2388
14.5122
13.7148
12.8155
11.7834
10.5911
9.21742
7.64991
5.88655
3.93642
1.81893
-0.438023
-2.80072
-5.23234
-7.6951
-10.1511
-12.5616
-14.8845
-17.0711
-19.0626
-20.7881
-22.1638
-23.0963
-23.4884
-23.2483
-22.3009
-20.6007
-18.1432
-14.9746
-11.1971
-6.96828
-2.49489
1.97992
6.19429
9.88885
12.829
14.8262
15.755
15.566
14.29
12.0373
8.98791
5.37779
1.47938
-2.41942
-6.03702
-9.11886
-11.456
-12.9012
-13.3832
-12.9187
-11.6223
-9.71427
-7.52423
-5.48923
-4.14309
-4.09488
-5.99382
-10.4798
-18.1197
-29.3335
-44.3155
-62.9595
-84.7994
-108.975
-134.238
-158.995
-181.408
-199.529
-211.477
-215.628
-210.804
-196.44
-172.706
-140.566
-101.767
-58.7546
-14.522
27.6014
64.2032
92.0641
108.437
111.304
99.5975
73.3489
33.7667
-16.7834
-74.8974
-136.352
-196.419
-250.242
-293.267
-321.664
-332.707
-325.063
-298.956
-256.171
-199.902
-134.449
-64.796
3.8806
66.7171
119.626
159.665
185.263
196.303
194.027
180.815
159.842
134.676
108.869
85.5649
67.2077
55.3368
50.5138
52.3652
59.7302
70.8856
83.8137
96.4782
107.073
114.217
117.078
115.414
109.543
100.245
88.6151
75.9042
63.3476
52.0202
42.7255
35.9298
31.7449
29.9557
30.0851
31.4826
33.4244
35.2111
36.2512
36.1213
34.5999
31.6718
27.5065
22.416
16.7977
11.0714
5.61803
0.727524
-3.43904
-6.86923
-9.69986
-12.1992
-14.7338
-17.7235
-21.5908
-26.709
-33.3557
-41.6762
-51.6612
-63.1398
-75.7911
-89.1706
-102.75
-115.963
-128.259
-139.15
-148.251
-155.306
-160.206
-162.985
-163.804
-162.924
-160.67
-157.389
-153.416
-149.036
-144.462
-139.822
-135.158
-130.433
-125.555
-120.402
-114.851
-108.802
-102.206
-95.0714
-87.4752
-79.5521
-71.4815
-63.4671
-55.7128
-48.4002
-41.67
-35.6095
-30.2484
-25.5628
-21.4852
-17.9203
-14.7616
-11.9086
-9.27994
-6.82284
-4.51624
-2.3692
-0.414552
1.30046
2.72496
3.81499
4.54226
4.90019
4.90647
4.60214
4.04751
3.31573
2.48487
1.62984
0.815031
0.0888664
-0.519227
-0.999044
-1.35718
-1.61255
-1.79057
-1.91725
-2.01382
-2.09297
-2.15692
-2.19743
-2.19762
-2.13484
-1.98425
-1.72208
-1.32843
-0.788866
-0.0949593
0.756298
1.7639
2.92466
4.23505
5.69255
7.29606
9.04507
10.9377
12.9676
15.1203
17.3702
19.6779
21.9901
24.2412
26.357
28.2606
29.8792
31.1513
32.0321
32.4988
32.552
32.2155
31.5333
30.5638
29.3741
28.0323
26.6006
25.1303
23.6572
22.2005
20.7628
19.3333
17.8915
16.4124
14.8715
13.2488
11.5318
9.71555
7.80241
5.79881
3.71206
1.54682
-0.69758
-3.02827
-5.45813
-8.00314
-10.6783
-13.4927
-16.445
-19.5196
-22.6849
-25.8932
-29.0821
-32.1771
-35.0941
-37.742
-40.025
-41.8445
-43.1025
-43.7055
-43.5705
-42.6322
-40.8509
-38.2207
-34.7758
-30.5937
-25.7952
-20.5392
-15.0144
-9.42637
-3.98323
1.11969
5.71415
9.67078
12.9071
15.3908
17.1388
18.2109
18.7
18.7198
18.3918
17.8313
17.1372
16.3831
15.6124
14.8366
14.037
13.1663
12.1516
10.8947
9.2692
7.11565
4.23584
0.389586
-4.70123
-11.3376
-19.8141
-30.3759
-43.1629
-58.1486
-75.0806
-93.4338
-112.387
-130.831
-147.411
-160.616
-168.891
-170.782
-165.091
-151.026
-128.334
-97.3985
-59.2944
-15.792
30.6936
77.212
120.445
156.934
183.356
196.839
195.283
177.65
144.198
96.5858
37.8466
-27.7978
-95.2786
-159.14
-214.075
-255.467
-279.875
-285.398
-271.877
-240.893
-195.583
-140.282
-80.0457
-20.1063
34.6656
80.2345
113.756
133.783
140.302
134.614
119.081
96.7713
71.0641
45.2534
22.199
4.0606
-7.86042
-13.1653
-12.2929
-6.36423
3.03581
14.1078
25.0845
34.4464
41.082
44.3817
44.2578
41.0989
35.6692
28.9722
22.0972
16.0715
11.7333
9.64054
10.0216
12.7719
17.4906
23.5502
30.1876
36.6022
42.0491
45.9172
47.7812
47.4283
44.8546
40.2393
33.901
26.243
17.6991
8.6827
-0.451784
-9.43463
-18.0917
-26.342
-34.1851
-41.6807
-48.926
-56.0328
-63.1065
-70.2308
-77.4562
-84.7944
-92.2162
-99.6539
-107.006
-114.144
-120.923
-127.189
-132.791
-137.593
-141.483
-144.378
-146.233
-147.039
-146.817
-145.615
-143.498
-140.536
-136.796
-132.337
-127.21
-121.453
-115.103
-108.202
-100.805
-92.9866
-84.8495
-76.5211
-68.1501
-59.8968
-51.9203
-44.3634
-37.3387
-30.9173
-25.1224
-19.9282
-15.266
-11.0342
-7.11363
-3.38429
0.25782
3.88609
7.53264
11.1828
14.7751
18.2073
21.3468
24.0448
26.1524
27.5371
28.0976
27.7755
26.5623
24.5019
21.6873
18.2534
14.3649
10.204
5.95595
1.79696
-2.11559
-5.64946
-8.69994
-11.1887
-13.0601
-14.2757
-14.8091
-14.6411
-13.7571
-12.1471
-9.80886
-6.75347
-3.01419
1.34414
6.21598
11.4487
16.841
22.1482
27.0941
31.3908
34.7627
36.9744
37.8562
37.3266
35.4061
32.2217
28.0001
23.0504
17.7382
12.4532
7.57583
3.44415
0.326565
-1.59839
-2.25364
-1.66675
0.0345209
2.63261
5.83558
9.29658
12.6372
15.4751
17.4545
18.2799
17.7488
15.7806
12.4364
7.92539
2.59421
-3.10163
-8.64305
-13.5047
-17.2178
-19.4287
-19.9476
-18.7761
-16.1132
-12.3353
-7.95392
-3.55562
0.267088
2.98599
4.1991
3.67681
1.38717
-2.50247
-7.64656
-13.562
-19.6829
-25.4219
-30.2316
-33.6587
-35.384
-35.2475
-33.2531
-29.5574
-24.4431
-18.2825
-11.4959
-4.51054
2.27535
8.52099
13.9613
18.4152
21.7856
24.052
25.2586
25.5009
24.9102
23.6405
21.8555
19.7177
17.3795
14.9749
12.6138
10.3779
8.3181
6.45545
4.78288
3.26937
1.86453
0.502395
-0.897353
-2.43197
-4.22273
-6.42544
-9.24194
-12.9281
-17.793
-24.1843
-32.4557
-42.9157
-55.7607
-70.9998
-88.3827
-107.345
-126.983
-146.072
-163.133
-176.551
-184.721
-186.234
-180.054
-165.671
-143.219
-113.526
-78.1068
-39.0794
0.962925
39.1264
72.415
97.9433
113.151
116.011
105.226
80.3928
42.1199
-7.91266
-66.9823
-131.446
-196.963
-258.811
-312.267
-353.032
-377.639
-383.819
-370.752
-339.198
-291.461
-231.195
-163.07
-92.321
-24.2424
36.3237
85.4451
120.451
140.139
144.819
136.189
117.067
91.0204
61.924
33.5248
9.0442
-9.12609
-19.6107
-22.1039
-17.2939
-6.67787
7.70204
23.5622
38.6814
51.1675
59.6584
63.4384
62.4636
57.3021
49.0041
38.9242
28.5228
19.1727
11.9936
7.73367
6.70707
8.79038
13.4734
19.9529
27.2536
34.3599
40.3406
44.4529
46.2143
45.4371
42.2236
36.9277
30.0873
22.3404
14.3353
6.64624
-0.294395
-6.2397
-11.1443
-15.1519
-18.5581
-21.7547
-25.1649
-29.1769
-34.0864
-40.0542
-47.0828
-55.0165
-63.5605
-72.3186
-80.8426
-88.686
-95.4566
-100.861
-104.732
-107.048
-107.922
-107.585
-106.351
-104.574
-102.603
-100.74
-99.2064
-98.1203
-97.488
-97.2106
-97.1023
-96.9183
-96.3878
-95.248
-93.2758
-90.312
-86.2781
-81.1833
-75.1208
-68.2567
-60.8114
-53.0359
-45.1872
-37.5033
-30.1825
-23.3676
-17.1372
-11.5053
-6.43026
-1.83035
2.39278
6.32804
10.0289
13.4918
16.6439
19.3423
21.3871
22.5473
22.597
21.357
18.7348
14.7588
9.59698
3.55997
-2.91681
-9.30881
-15.0531
-19.608
-22.5139
-23.4477
-22.2644
-19.018
-13.9616
-7.52419
-0.267385
7.17289
14.1526
20.0859
24.5041
27.1
27.7536
26.5359
23.6929
19.6103
14.7664
9.67638
4.83774
0.680153
-2.47322
-4.43022
-5.13821
-4.67685
-3.23726
-1.09094
1.44722
4.05725
6.4494
8.39276
9.73458
10.409
10.435
9.90485
8.96523
7.79347
6.57267
5.46837
4.60946
4.0753
3.89002
4.02415
4.40264
4.91797
5.44621
5.86388
6.06331
5.9649
5.52481
4.73765
3.63416
2.27466
0.739346
-0.883063
-2.50693
-4.06004
-5.49164
-6.77727
-7.92007
-8.94852
-9.91106
-10.8681
-11.8824
-13.0091
-14.2859
-15.7254
-17.309
-18.9856
-20.6726
-22.2613
-23.626
-24.6346
-25.1621
-25.1024
-24.3806
-22.961
-20.8535
-18.1151
-14.8485
-11.1965
-7.33394
-3.45675
0.230575
3.52843
6.25556
8.26167
9.43835
9.72745
9.12648
7.69044
5.5299
2.80532
-0.282207
-3.50319
-6.61427
-9.37402
-11.5587
-12.9773
-13.4843
-12.9904
-11.4707
-8.97087
-5.61191
-1.59473
2.79614
7.1903
11.1331
14.0952
15.4935
14.7273
11.2291
4.53057
-5.66572
-19.4139
-36.4643
-56.2259
-77.7591
-99.8075
-120.868
-139.298
-153.444
-161.788
-163.092
-156.523
-141.747
-118.993
-89.064
-53.3103
-13.5669
27.944
68.7306
106.167
137.642
160.713
173.274
173.724
161.131
135.382
97.2926
48.6632
-7.75421
-68.382
-129.048
-185.312
-232.851
-267.88
-287.539
-290.209
-275.703
-245.304
-201.649
-148.447
-90.0929
-31.2065
23.8372
71.3283
108.545
133.949
147.228
149.209
141.648
126.943
107.805
86.9339
66.7382
49.12
35.3482
26.0215
21.1142
20.0888
22.0533
25.937
30.6623
35.2897
39.1218
41.7581
43.0987
43.303
42.7143
41.7655
40.8814
40.3931
40.4769
41.1244
42.1481
43.2168
43.9157
43.8186
42.5624
39.9096
35.7925
30.331
23.8227
16.708
9.51451
2.78888
-2.97395
-7.39673
-10.2717
-11.5924
-11.5613
-10.5718
-9.16614
-7.97488
-7.64303
-8.75344
-11.7559
-16.9109
-24.2558
-33.5961
-44.5254
-56.4683
-68.7439
-80.6386
-91.4822
-100.716
-107.944
-112.969
-115.796
-116.621
-115.796
-113.774
-111.058
-108.135
-105.424
-103.235
-101.739
-100.962
-100.788
-100.982
-101.221
-101.135
-100.343
-98.4963
-95.3134
-90.605
-84.2949
-76.4279
-67.1677
-56.7831
-45.626
-34.0996
-22.6233
-11.5955
-1.35949
7.82504
15.8
22.5164
28.0291
32.4818
36.0819
39.0717
41.6964
44.1757
46.6805
49.3175
52.1238
55.0695
58.0696
61.0003
63.7188
66.0828
67.9673
69.2765
69.9516
69.9712
69.3486
68.1246
66.3585
64.1194
61.4775
58.4976
55.2351
51.7337
48.0255
44.1324
40.0692
35.8463
31.4738
26.9648
22.3392
17.6255
12.8633
8.10366
3.40826
-1.15267
-5.50386
-9.56947
-13.278
-16.5669
-19.3862
-21.7007
-23.4902
-24.7487
-25.4812
-25.7009
-25.4265
-24.6802
-23.4881
-21.8826
-19.9069
-17.6208
-15.1068
-12.4749
-9.86435
-7.43988
-5.38243
-3.87303
-3.07124
-3.09043
-3.97345
-5.67316
-8.04189
-10.8335
-13.7195
-16.3199
-18.2446
-19.1422
-18.7495
-16.9344
-13.7254
-9.32363
-4.09327
1.46934
6.78469
11.252
14.3165
15.5345
14.6267
11.515
6.33691
-0.564228
-8.67166
-17.3469
-25.8945
-33.6322
-39.9582
-44.4083
-46.6959
-46.732
-44.6228
-40.6466
-35.214
-28.8173
-21.9747
-15.1764
-8.83989
-3.2758
1.32985
4.91889
7.55005
9.37691
10.6187
11.5281
12.3593
13.3412
14.656
16.4261
18.7091
21.4998
24.739
28.3269
32.1385
36.0401
39.9047
43.6226
47.1076
50.2965
53.1411
55.5947
57.5924
59.03
59.7444
59.4989
57.9797
54.8043
49.5464
41.7768
31.1173
17.306
0.265368
-19.8342
-42.5241
-67.0113
-92.1824
-116.645
-138.81
-157.001
-169.605
-175.222
-172.826
-161.899
-142.535
-115.489
-82.1739
-44.6
-5.25888
33.0362
67.3411
94.7916
112.819
119.358
113.038
93.3362
60.6882
16.5395
-36.6785
-95.6563
-156.401
-214.516
-265.551
-305.387
-330.627
-338.943
-329.335
-302.265
-259.649
-204.688
-141.57
-75.0575
-10.0253
49.015
98.3352
135.315
158.637
168.324
165.645
152.876
132.979
109.231
84.8392
62.611
44.6894
32.3943
26.1724
25.6534
29.7955
37.0955
45.8298
54.2973
61.0317
64.9626
65.5096
62.6052
56.6501
48.4143
38.9001
29.1901
20.2987
13.0473
7.97573
5.29896
4.90909
6.41932
9.23967
12.672
16.0102
18.6323
20.0731
20.0702
18.5799
15.7628
11.9457
7.56505
3.10194
-0.982916
-4.30561
-6.60122
-7.74815
-7.77402
-6.84504
-5.24215
-3.32844
-1.51194
-0.207568
0.198961
-0.61692
-2.89241
-6.75813
-12.227
-19.1919
-27.4329
-36.6334
-46.4053
-56.32
-65.9443
-74.877
-82.7828
-89.4193
-94.6545
-98.4714
-100.959
-102.292
-102.697
-102.418
-101.679
-100.65
-99.4288
-98.0303
-96.3929
-94.3964
-91.8901
-88.725
-84.7866
-80.0209
-74.4527
-68.1908
-61.4218
-54.3923
-47.3829
-40.6781
-34.5358
-29.1605
-24.6842
-21.1565
-18.5442
-16.7416
-15.5872
-14.8859
-14.4328
-14.0362
-13.5363
-12.8188
-11.8217
-10.5358
-8.99928
-7.2875
-5.49987
-3.74556
-2.12968
-0.741354
0.355104
1.12533
1.56621
1.70354
1.58674
1.28153
0.861528
0.399887
-0.0381626
-0.401065
-0.654561
-0.782994
-0.788401
-0.687738
-0.508764
-0.285209
-0.0518637
0.159824
0.325199
0.428589
0.464134
0.435311
0.35336
0.234949
0.099434
-0.0338929
-0.148224
-0.23107
-0.275338
-0.279596
-0.247559
-0.186898
-0.10753
-0.0195186
0.0692485
0.155477
0.2428
0.343779
0.481238
0.688475
1.00791
1.48782
2.17715
3.11859
4.34078
5.85058
7.62663
9.61545
11.7309
13.8576
15.8585
17.5857
18.8942
19.6568
19.7784
19.2081
17.9477
16.0547
13.6402
10.8606
7.9048
4.9769
2.27769
-0.0146313
-1.76181
-2.87925
-3.34472
-3.20101
-2.55216
-1.55351
-0.396455
0.710714
1.56409
1.98556
1.84233
1.06248
-0.355067
-2.33745
-4.74242
-7.37041
-9.98305
-12.3267
-14.158
-15.2698
-15.5125
-14.8108
-13.1713
-10.6823
-7.50386
-3.85066
0.0313351
3.89091
7.49771
10.6654
13.2693
15.256
16.6458
17.5253
18.0338
18.3447
18.6434
19.1062
19.8815
21.0741
22.7342
24.8495
27.3387
30.0468
32.7403
35.104
36.7408
37.1783
35.8844
32.2975
25.8723
16.1425
2.79688
-14.2374
-34.7157
-58.0128
-83.0917
-108.515
-132.505
-153.066
-168.138
-175.802
-174.486
-163.172
-141.56
-110.183
-70.4496
-24.6067
24.3779
73.007
117.508
154.129
179.466
190.773
186.258
165.305
128.614
78.2245
17.4223
-49.4895
-117.528
-181.452
-236.238
-277.537
-302.092
-308.043
-295.102
-264.56
-219.146
-162.734
-99.9459
-35.6945
25.2912
78.895
121.959
152.514
169.869
174.572
168.239
153.292
132.636
109.308
86.1599
65.5797
49.2989
38.2913
32.7664
32.2502
35.7334
41.8648
49.1611
56.2079
61.8277
65.1991
65.9184
64.0004
59.828
54.0589
47.5082
41.0226
35.363
31.1102
28.6017
27.907
28.8385
30.9947
33.8278
36.7234
39.0832
40.3991
40.3103
38.6387
35.3991
30.7856
25.1368
18.8857
12.5002
6.42303
1.01671
-3.47955
-6.97612
-9.54041
-11.385
-12.8387
-14.3041
-16.2077
-18.9479
-22.8473
-28.1145
-34.8204
-42.8897
-52.1098
-62.1547
-72.6206
-83.0689
-93.071
-102.25
-110.313
-117.072
-122.454
-126.491
-129.301
-131.066
-131.991
-132.281
-132.105
-131.576
-130.743
-129.58
-128.001
-125.869
-123.016
-119.271
-114.48
-108.532
-101.379
-93.0513
-83.6645
-73.4191
-62.5914
-51.5173
-40.568
-30.1227
-20.5385
-12.1226
-5.10754
0.365438
4.25581
6.62331
7.61896
7.4688
6.45236
4.87834
3.05993
1.29184
-0.169475
-1.12116
-1.42442
-1.00995
0.121706
1.90426
4.21373
6.87974
9.69894
12.4499
14.9083
16.8614
18.1211
18.5354
17.9976
16.4535
13.9066
10.4223
6.12843
1.21448
-4.07471
-9.44923
-14.59
-19.1697
-22.8769
-25.4425
-26.6643
-26.4276
-24.7196
-21.634
-17.3669
-12.2023
-6.48869
-0.610297
5.04615
10.1241
14.3267
17.4404
19.3497
20.0421
19.6033
18.204
16.0787
13.5019
10.7632
8.14453
5.90161
4.25145
3.36452
3.36134
4.31165
6.2346
9.09876
12.8215
17.268
22.2515
27.5362
32.844
37.8675
42.2883
45.8009
48.1389
49.1014
48.5752
46.551
43.1285
38.5111
32.9893
26.9144
20.6657
14.6153
9.09373
4.36233
0.593246
-2.13919
-3.85599
-4.66069
-4.71846
-4.23031
-3.40602
-2.4393
-1.48827
-0.663086
-0.0217875
0.426065
0.709355
0.881049
1.00207
1.12593
1.28629
1.48904
1.70977
1.89642
1.97675
1.86889
1.49378
0.78733
-0.289188
-1.74201
-3.54201
-5.62654
-7.90564
-10.2719
-12.6124
-14.8214
-16.8112
-18.5209
-19.9207
-21.012
-21.8232
-22.4019
-22.8053
-23.089
-23.2974
-23.4569
-23.5736
-23.6386
-23.6395
-23.5813
-23.5118
-23.5493
-23.9061
-24.9027
-26.9639
-30.5947
-36.3328
-44.6796
-56.0155
-70.5101
-88.0375
-108.112
-129.857
-152.016
-173.012
-191.057
-204.3
-211.007
-209.748
-199.572
-180.161
-151.928
-116.054
-74.4678
-29.7446
15.0534
56.5917
91.5196
116.745
129.709
128.635
112.733
82.3292
38.9135
-14.9094
-75.573
-138.798
-199.923
-254.291
-297.656
-326.571
-338.712
-333.103
-310.214
-271.912
-221.279
-162.311
-99.5284
-37.5468
19.3503
67.5865
104.581
128.923
140.414
139.992
129.538
111.607
89.1126
64.9941
41.923
22.0596
6.89288
-2.83142
-7.09237
-6.49785
-2.12959
4.64674
12.3808
19.7225
25.5732
29.19
30.2372
28.7854
25.2629
20.3716
14.9785
9.997
6.27069
4.47197
5.02514
8.06071
13.4047
20.6027
28.9756
37.6981
45.8931
52.7277
57.5015
59.7169
59.1233
55.7314
49.7976
41.7813
32.2819
21.9627
11.4721
1.37142
-7.92409
-16.1823
-23.3676
-29.6284
-35.2619
-40.6609
-46.2503
-52.4212
-59.4723
-67.565
-76.6985
-86.7067
-97.2767
-107.986
-118.35
-127.88
-136.133
-142.76
-147.533
-150.362
-151.294
-150.493
-148.213
-144.76
-140.451
-135.584
-130.402
-125.081
-119.718
-114.334
-108.895
-103.327
-97.5425
-91.4653
-85.0515
-78.3032
-71.2737
-64.0661
-56.8217
-49.705
-42.8839
-36.5111
-30.7069
-25.5484
-21.0642
-17.2356
-14.0043
-11.2842
-8.97474
-6.9757
-5.19868
-3.5761
-2.06577
-0.651332
0.660922
1.84781
2.87644
3.71153
4.32188
4.68532
4.79179
4.64457
4.26
3.66598
2.89983
2.006
1.03388
0.036002
-0.933403
-1.8196
-2.56854
-3.12822
-3.45047
-3.49303
-3.22186
-2.61331
-1.65569
-0.349712
1.29244
3.24953
5.49478
7.99965
10.7369
13.6818
16.8108
20.0978
23.5075
26.9883
30.4653
33.8357
36.9691
39.7122
41.8994
43.3693
43.9835
43.6458
42.3201
40.0424
36.9247
33.1507
28.9622
24.6367
20.4603
16.6972
13.5611
11.1905
9.63241
8.83563
8.65563
8.86953
9.20051
9.34855
9.02394
7.9797
6.03901
3.11452
-0.782745
-5.54576
-10.9844
-16.8473
-22.8486
-28.6976
-34.1255
-38.9076
-42.8776
-45.9334
-48.0344
-49.1922
-49.4567
-48.9006
-47.6057
-45.6514
-43.1091
-40.0403
-36.5001
-32.5423
-28.2265
-23.6238
-18.8196
-13.914
-9.01789
-4.24567
0.29346
4.50529
8.31923
11.6946
14.6233
17.1289
19.2617
21.0911
22.6959
24.1553
25.5396
26.9049
28.2901
29.7161
31.189
32.7024
34.2411
35.7813
37.2894
38.7169
39.9912
41.0044
41.6006
41.5641
40.6129
38.4009
34.5324
28.591
20.1836
8.9969
-5.1387
-22.1843
-41.8358
-63.4841
-86.2035
-108.774
-129.743
-147.528
-160.55
-167.394
-166.961
-158.622
-142.315
-118.61
-88.6915
-54.2965
-17.5833
19.0307
53.0534
82.1016
104.068
117.264
120.531
113.324
95.7707
68.6921
33.5983
-7.36225
-51.501
-95.7417
-136.825
-171.556
-197.072
-211.113
-212.247
-200.038
-175.122
-139.169
-94.7453
-45.0773
6.25994
55.6846
99.9482
136.433
163.37
179.963
186.395
183.734
173.75
158.666
140.881
122.695
106.077
92.4781
82.7365
77.0538
75.0515
75.8907
78.435
81.434
83.703
84.277
82.5234
78.2014
71.4667
62.8246
53.041
43.0276
33.7155
25.935
20.316
17.2189
16.7032
18.5333
22.2201
27.0886
32.364
37.2632
41.0826
43.2709
43.4812
41.5974
37.7335
32.2074
25.4953
18.1696
10.8309
4.03917
-1.74852
-6.22744
-9.27814
-10.9791
-11.5985
-11.5647
-11.4198
-11.7592
-13.1647
-16.1381
-21.0428
-28.0597
-37.1633
-48.119
-60.5033
-73.7426
-87.1671
-100.073
-111.785
-121.717
-129.418
-134.605
-137.181
-137.227
-134.99
-130.842
-125.246
-118.702
-111.704
-104.698
-98.0462
-92.0074
-86.7246
-82.2275
-78.4449
-75.2242
-72.3567
-69.6042
-66.7254
-63.5005
-59.7518
-55.36
-50.2758
-44.5256
-38.2114
-31.5037
-24.6287
-17.8495
-11.4429
-5.67352
-0.768728
3.10444
5.85629
7.48407
8.07263
7.78616
6.85178
5.53715
4.12463
2.88514
2.05461
1.8153
2.28353
3.50412
5.45087
8.03206
11.0992
14.4577
17.8789
21.1122
23.8983
25.9822
27.128
27.1341
25.8485
23.1838
19.1298
13.7634
7.25236
-0.146606
-8.0978
-16.2039
-24.0305
-31.1366
-37.1075
-41.589
-44.318
-45.1463
-44.0565
-41.1652
-36.7151
-31.0554
-24.612
-17.85
-11.2341
-5.18819
-0.0610244
3.90084
6.56854
7.93445
8.10363
7.27468
5.71252
3.71668
1.58866
-0.397977
-2.02177
-3.12955
-3.64363
-3.55985
-2.93768
-1.88423
-0.534584
0.968561
2.49353
3.93425
5.2194
6.31544
7.22374
7.97294
8.60791
9.17749
9.72271
10.2674
10.8125
11.3343
11.7872
12.1104
12.2371
12.1049
11.6665
10.8985
9.80745
8.43182
6.84027
5.12544
3.3946
1.75803
0.316784
-0.848628
-1.68711
-2.18221
-2.35307
-2.25106
-1.95264
-1.54957
-1.13789
-0.806937
-0.629848
-0.656049
-0.906276
-1.37004
-2.00542
-2.74115
-3.48088
-4.10973
-4.50325
-4.53831
-4.10555
-3.12214
-1.54358
0.627364
3.33579
6.47522
9.89393
13.4068
16.8112
19.906
22.5102
24.4795
25.7197
26.1934
25.9202
24.9713
23.4568
21.5085
19.2586
16.8153
14.2378
11.5115
8.52884
5.07824
0.847199
-4.55719
-11.568
-20.5992
-31.9711
-45.8281
-62.0583
-80.2282
-99.5444
-118.855
-136.696
-151.392
-161.193
-164.453
-159.817
-146.4
-123.939
-92.8916
-54.4676
-10.5993
36.1615
82.8009
126.045
162.595
189.377
203.791
203.955
188.902
158.738
114.716
59.2309
-4.29808
-71.6444
-138.088
-198.804
-249.289
-285.78
-305.628
-307.563
-291.832
-260.181
-215.678
-162.396
-105.001
-48.2703
3.37265
46.2825
77.9076
96.9749
103.526
98.8087
85.045
65.1086
42.1582
19.2687
-0.894033
-16.3226
-25.8189
-29.0373
-26.4248
-19.0758
-8.52523
3.48835
15.2591
25.3217
32.6079
36.5387
37.0467
34.5327
29.7683
23.7617
17.6063
12.3319
8.77636
7.49217
8.69496
12.2573
17.7448
24.4859
31.6658
38.4305
43.9883
47.6975
49.1309
48.111
44.7147
39.2488
32.2002
24.1707
15.8019
7.70334
0.387948
-5.77506
-10.588
-14.0305
-16.2455
-17.5074
-18.1791
-18.6626
-19.3509
-20.585
-22.6223
-25.617
-29.6135
-34.5528
-40.2883
-46.6082
-53.2616
-59.9849
-66.5254
-72.6601
-78.2084
-83.0388
-87.0691
-90.2609
-92.6122
-94.1464
-94.9028
-94.9275
-94.2679
-92.9696
-91.076
-88.6315
-85.6845
-82.2923
-78.523
-74.4569
-70.1838
-65.7971
-61.385
-57.0187
-52.7409
-48.5547
-44.4173
-40.2399
-35.8953
-31.2345
-26.1097
-20.4033
-14.0567
-7.09616
0.350831
8.0506
15.6734
22.8183
29.0506
33.9488
37.1539
38.4164
37.6334
34.8712
30.3688
24.5223
17.8505
10.9455
4.41516
-1.1775
-5.36885
-7.83822
-8.43484
-7.18591
-4.28571
-0.0682634
5.03203
10.5262
15.9175
20.7432
24.6098
27.2174
28.3752
28.0073
26.1521
22.955
18.6569
13.578
8.09775
2.63087
-2.40069
-6.59812
-9.61705
-11.1972
-11.1874
-9.56279
-6.4322
-2.03345
3.28334
9.0834
14.8836
20.1939
24.5589
27.5966
29.0293
28.7048
26.6062
22.8504
17.6758
11.4211
4.49691
-2.64722
-9.55815
-15.8139
-21.0552
-25.0112
-27.5174
-28.524
-28.0938
-26.3913
-23.6623
-20.2077
-16.3536
-12.4215
-8.70043
-5.42444
-2.75719
-0.784462
0.485275
1.11288
1.21463
0.944343
0.473512
-0.0282275
-0.410459
-0.555549
-0.387357
0.125435
0.97122
2.10194
3.44292
4.9046
6.3945
7.8278
9.13538
10.2684
11.1989
11.9175
12.4277
12.7392
12.86
12.7902
12.5163
12.0071
11.2099
10.0471
8.41107
6.15939
3.11004
-0.959093
-6.30375
-13.1962
-21.8949
-32.6015
-45.4072
-60.2344
-76.783
-94.4905
-112.517
-129.762
-144.922
-156.58
-163.329
-163.92
-157.407
-143.281
-121.584
-92.9712
-58.7285
-20.7374
18.6136
56.5648
90.1642
116.481
132.843
137.089
127.808
104.546
67.962
19.8807
-36.7508
-98.0358
-159.415
-216.051
-263.273
-297.035
-314.324
-313.49
-294.418
-258.561
-208.79
-149.1
-84.2003
-19.0356
41.7029
94.0194
134.963
162.845
177.311
179.267
170.668
154.224
133.038
110.237
88.6421
70.4943
57.283
49.6726
47.5337
50.0629
55.968
63.6909
71.6378
78.3869
82.8527
84.3896
82.8296
78.455
71.9167
64.1134
56.0508
48.6988
42.8669
39.1095
37.6709
38.4735
41.1465
45.0886
49.554
53.7504
56.936
58.5037
58.0459
55.3904
50.6087
43.9952
36.0219
27.2752
18.3819
9.93299
2.41402
-3.85055
-8.73235
-12.3098
-14.853
-16.7852
-18.6249
-20.9172
-24.1616
-28.7473
-34.9029
-42.6671
-51.8842
-62.2237
-73.2205
-84.3307
-94.9938
-104.694
-113.011
-119.655
-124.485
-127.5
-128.824
-128.661
-127.264
-124.883
-121.738
-117.991
-113.736
-109.005
-103.786
-98.0446
-91.7579
-84.9363
-77.6451
-70.0131
-62.2296
-54.5307
-47.1756
-40.4177
-34.4749
-29.502
-25.5712
-22.6611
-20.6578
-19.3661
-18.5304
-17.8626
-17.0741
-15.9072
-14.1639
-11.7277
-8.57627
-4.78396
-0.51351
4.00188
8.48393
12.6392
16.1902
18.9035
20.6125
21.2314
20.7599
19.2778
16.9309
13.9108
10.4309
6.70286
2.91524
-0.780807
-4.27883
-7.51561
-10.4622
-13.1097
-15.4523
-17.4722
-19.1287
-20.354
-21.0578
-21.1386
-20.5018
-19.0795
-16.851
-13.8579
-10.2124
-6.0968
-1.75249
2.53931
6.48349
9.80028
12.2541
13.6786
13.9942
13.2172
11.4587
8.91379
5.84306
2.54813
-0.655752
-3.46718
-5.62347
-6.92063
-7.22686
-6.48864
-4.72964
-2.0429
1.42193
5.47441
9.90023
14.477
18.9878
23.2309
27.0272
30.2232
32.6933
34.3402
35.0954
34.9202
33.8077
31.785
28.9162
25.3038
21.0902
16.4553
11.6124
6.80087
2.27518
-1.70794
-4.90495
-7.10249
-8.13506
-7.90289
-6.38807
-3.66741
0.0808469
4.57872
9.4609
14.2986
18.6339
22.0224
24.0785
24.5193
23.1993
20.1329
15.4993
9.62952
2.97618
-3.93049
-10.5354
-16.3136
-20.8216
-23.7384
-24.8922
-24.2706
-22.0132
-18.389
-13.7615
-8.54643
-3.16824
1.98138
6.57701
10.3829
13.2645
15.1879
16.2088
16.4537
16.0955
15.3272
14.3379
13.2911
12.31
11.4688
10.7904
10.25
9.78263
9.29381
8.66994
7.78783
6.52112
4.74309
2.32553
-0.864948
-4.97138
-10.1486
-16.5604
-24.3687
-33.7139
-44.6862
-57.29
-71.4051
-86.7493
-102.85
-119.029
-134.408
-147.939
-158.459
-164.772
-165.746
-160.428
-148.159
-128.678
-102.207
-69.5084
-31.9001
8.76851
50.1873
89.7025
124.478
151.695
168.784
173.665
164.986
142.319
106.304
58.6924
2.29762
-59.1774
-121.413
-179.835
-230.018
-268.108
-291.193
-297.599
-287.058
-260.739
-221.134
-171.799
-117.002
-61.2891
-9.04282
35.9335
70.7542
93.6791
104.209
103.048
91.9366
73.3885
50.3662
25.9297
2.90649
-16.3849
-30.3301
-38.1165
-39.7318
-35.871
-27.7711
-16.9987
-5.22038
6.0168
15.4683
22.3205
26.2525
27.4308
26.441
24.1718
21.6691
19.9799
20.007
22.3898
27.425
35.0318
44.7643
55.866
67.3582
78.1527
87.1727
93.4712
96.3331
95.349
90.4553
81.9348
70.3794
56.6189
41.6259
26.408
11.8997
-1.13072
-12.1515
-20.9058
-27.416
-31.9563
-34.9981
-37.1383
-39.0188
-41.2484
-44.3358
-48.6396
-54.34
-61.4334
-69.7475
-78.9739
-88.7121
-98.52
-107.964
-116.663
-124.323
-130.759
-135.898
-139.775
-142.502
-144.238
-145.143
-145.344
-144.896
-143.759
-141.804
-138.821
-134.554
-128.753
-121.223
-111.873
-100.76
-88.1083
-74.3079
-59.8926
-45.4944
-31.7834
-19.4001
-8.88962
-0.645779
5.1277
8.43354
9.47384
8.62077
6.36961
3.28034
-0.0843498
-3.21725
-5.71427
-7.30659
-7.8747
-7.44411
-6.16477
-4.27814
-2.0769
0.137084
2.09142
3.57397
4.45297
4.68498
4.31114
3.44316
2.24209
0.893133
-0.419931
-1.53743
-2.34113
-2.76459
-2.7959
-2.47342
-1.87562
-1.10693
-0.281851
0.490773
1.12151
1.5508
1.75542
1.75062
1.58784
1.34836
1.13325
1.05042
1.19999
1.65924
2.46913
3.62404
5.06636
6.68738
8.3349
9.82753
10.9746
11.5997
11.5646
10.7912
9.27643
7.09861
4.41247
1.43272
-1.5917
-4.4092
-6.79771
-8.59226
-9.70331
-10.1232
-9.91982
-9.21992
-8.18425
-6.98039
-5.75702
-4.62406
-3.64134
-2.81688
-2.1142
-1.46673
-0.796247
-0.0319925
0.872682
1.92879
3.10681
4.33897
5.5279
6.56044
7.32405
7.72372
7.69674
7.22341
6.33217
5.09849
3.63768
2.09235
0.616323
-0.64308
-1.56216
-2.05507
-2.08357
-1.66085
-0.84934
0.247344
1.49701
2.75443
3.87776
4.74394
5.26143
5.3793
5.09208
4.44054
3.50836
2.41537
1.30767
0.345305
-0.311864
-0.518932
-0.160381
0.837216
2.49545
4.77838
7.59156
10.7862
14.1682
17.5111
20.5727
23.112
24.9067
25.7679
25.5506
24.1585
21.5419
17.6881
12.6057
6.30515
-1.22116
-10.0129
-20.1456
-31.718
-44.8214
-59.49
-75.6379
-92.9901
-111.022
-128.924
-145.597
-159.706
-169.775
-174.336
-172.101
-162.149
-144.088
-118.185
-85.4171
-47.4636
-6.61485
34.3816
72.5256
104.8
128.418
141.06
141.087
127.715
101.128
62.5356
14.1458
-40.9447
-98.9445
-155.643
-206.747
-248.258
-276.841
-290.154
-287.099
-267.943
-234.317
-189.056
-135.923
-79.2275
-23.3951
27.4737
69.9914
101.784
121.669
129.691
127.031
115.784
98.6579
78.6298
58.5909
41.0366
27.8262
20.0387
17.9319
21.0026
28.131
37.7852
48.2555
57.8875
65.2861
69.4677
69.9473
66.7563
60.3941
51.7275
41.8534
31.9457
23.1059
16.2353
11.9421
10.4903
11.7939
15.4522
20.8182
27.0899
33.4108
38.969
43.0827
45.2639
45.2568
43.0467
38.8426
33.0359
26.1425
18.7328
11.3602
4.49389
-1.53558
-6.57273
-10.6505
-13.9796
-16.915
-19.9037
-23.4207
-27.9014
-33.6796
-40.9394
-49.6857
-59.7399
-70.7577
-82.2684
-93.7295
-104.589
-114.347
-122.611
-129.133
-133.833
-136.794
-138.245
-138.523
-138.025
-137.156
-136.278
-135.671
-135.499
-135.8
-136.485
-137.353
-138.114
-138.428
-137.932
-136.286
-133.202
-128.476
-122.01
-113.829
-104.084
-93.047
-81.0939
-68.6781
-56.2953
-44.4438
-33.5828
-24.0939
-16.2492
-10.191
-5.92338
-3.319
-2.13831
-2.05993
-2.71799
-3.74184
-4.79366
-5.59956
-5.97101
-5.8148
-5.13119
-4.00131
-2.56643
-1.00206
0.509457
1.80431
2.75779
3.2977
3.40976
3.13471
2.55836
1.79625
0.975419
0.216044
-0.384689
-0.764174
-0.900185
-0.810377
-0.546006
-0.181183
0.200427
0.519293
0.712031
0.740095
0.594113
0.293637
-0.117259
-0.57746
-1.01798
-1.37137
-1.57995
-1.60199
-1.41522
-1.01749
-0.424908
0.332096
1.21398
2.17788
3.18311
4.19576
5.19196
6.15936
7.09693
8.01315
8.92293
9.84381
10.7918
11.7778
12.8046
13.8651
14.9417
16.0077
17.0286
17.9654
18.777
19.4237
19.8695
20.084
20.0434
19.7314
19.1396
18.2674
17.1225
15.721
14.0871
12.2534
10.2596
8.15075
5.97475
3.7787
1.60516
-0.511579
-2.54823
-4.49369
-6.34827
-8.12071
-9.82349
-11.467
-13.0534
-14.5712
-15.9922
-17.2699
-18.3414
-19.1328
-19.5656
-19.5665
-19.0769
-18.0621
-16.5189
-14.4804
-12.0168
-9.23317
-6.26159
-3.25105
-0.353893
2.28886
4.5618
6.38715
7.73266
8.61406
9.09134
9.25896
9.2312
9.1247
9.04079
9.05055
9.18523
9.43365
9.74686
10.0484
10.2467
10.2458
9.94885
9.25292
8.03338
6.12213
3.28508
-0.792554
-6.50453
-14.2984
-24.6233
-37.8517
-54.1831
-73.5408
-95.4812
-119.131
-143.173
-165.891
-185.278
-199.209
-205.653
-202.911
-189.844
-166.07
-132.084
-89.3046
-40.0194
12.7595
65.5149
114.499
156.035
186.814
204.168
206.301
192.451
162.996
119.468
64.501
1.68919
-64.6363
-129.702
-188.648
-236.918
-270.652
-287.05
-284.652
-263.511
-225.231
-172.84
-110.533
-43.2764
23.6671
85.2424
137.086
175.928
199.871
208.512
202.906
185.366
159.145
128.027
95.8959
66.3108
42.1566
25.3933
16.93
16.6273
23.4192
35.5284
50.7428
66.7151
81.2484
92.535
99.3271
101.024
97.6754
89.9124
78.8134
65.736
52.1326
39.3728
28.5945
20.594
15.7682
14.1061
15.2292
18.4689
22.9707
27.8082
32.0952
35.0806
36.2189
35.2089
32
26.7683
19.869
11.7734
2.99918
-5.95578
-14.6694
-22.8346
-30.2795
-36.9683
-42.9851
-48.5048
-53.7571
-58.988
-64.4248
-70.2472
-76.5679
-83.4229
-90.7711
-98.5028
-106.454
-114.424
-122.197
-129.56
-136.319
-142.312
-147.413
-151.536
-154.623
-156.645
-157.584
-157.422
-156.142
-153.714
-150.107
-145.291
-139.256
-132.023
-123.662
-114.302
-104.135
-93.4121
-82.4315
-71.5156
-60.9864
-51.1376
-42.2085
-34.365
-27.6875
-22.1705
-17.7308
-14.2248
-11.4703
-9.27159
-7.44184
-5.82187
-4.29193
-2.77609
-1.2395
0.320038
1.8837
3.42395
4.9149
6.33874
7.68747
8.95989
10.1552
11.2654
12.2685
13.1262
13.7862
14.191
14.2904
14.0572
13.5008
12.676
11.6838
10.6627
9.77096
9.16204
8.95729
9.22066
9.94022
11.0204
12.2872
13.5069
14.4152
14.7547
14.3125
12.9549
10.6518
7.48793
3.6585
-0.550346
-4.79328
-8.70589
-11.9474
-14.2406
-15.4033
-15.3682
-14.1887
-12.0294
-9.14554
-5.85073
-2.48095
0.643248
3.25053
5.14539
6.22473
6.48325
6.0077
4.96151
3.56223
2.05489
0.684648
-0.328002
-0.80686
-0.632684
0.25177
1.84381
4.08851
6.88976
10.1225
13.6438
17.3015
20.9401
24.404
27.5386
30.1918
32.2162
33.4735
33.8414
33.2231
31.5579
28.8318
25.0864
20.4237
15.0058
9.04886
2.81075
-3.4269
-9.37989
-14.7843
-19.4181
-23.1189
-25.796
-27.4348
-28.0938
-27.8936
-27.0008
-25.6077
-23.9108
-22.0906
-20.2945
-18.6257
-17.1377
-15.8352
-14.6809
-13.6061
-12.5248
-11.3476
-9.99504
-8.4087
-6.55842
-4.44617
-2.106
0.399089
2.98281
5.5427
7.96794
10.1468
11.9732
13.3507
14.1944
14.4287
13.9799
12.766
10.6824
7.58722
3.29052
-2.44911
-9.91479
-19.405
-31.1893
-45.4469
-62.1951
-81.2156
-101.993
-123.68
-145.099
-164.794
-181.13
-192.437
-197.191
-194.19
-182.735
-162.756
-134.892
-100.497
-61.5741
-20.6492
19.4064
55.5827
84.951
104.883
113.255
108.631
90.4107
58.9398
15.5579
-37.4176
-96.7909
-158.672
-218.745
-272.604
-316.126
-345.852
-359.331
-355.375
-334.208
-297.472
-248.083
-189.959
-127.638
-65.8308
-8.96728
39.2254
76.0516
100.056
111.087
110.217
99.5314
81.8207
60.2139
37.8047
17.3122
0.815734
-10.411
-15.9528
-16.1982
-12.1901
-5.4115
2.46387
9.82003
15.3166
18.0503
17.6457
14.2684
8.56674
1.55463
-5.54577
-11.4783
-15.1217
-15.6337
-12.5529
-5.85088
4.06963
16.4281
30.1613
44.0481
56.849
67.4428
74.9471
78.8065
78.8423
75.2563
68.5912
59.6526
49.4036
38.8445
28.8943
20.2867
13.4938
8.68607
5.73053
4.22759
3.57869
3.07541
1.99763
-0.292137
-4.26957
-10.1936
-18.0812
-27.7122
-38.6636
-50.3649
-62.1691
-73.4281
-83.5639
-92.128
-98.8418
-103.614
-106.536
-107.853
-107.923
-107.159
-105.974
-104.724
-103.667
-102.935
-102.522
-102.298
-102.029
-101.418
-100.148
-97.93
-94.5378
-89.8427
-83.8281
-76.593
-68.3395
-59.3496
-49.9534
-40.4931
-31.2891
-22.6094
-14.648
-7.51352
-1.22741
4.26671
9.08648
13.3884
17.3433
21.1124
24.8275
28.5761
32.3944
36.2672
40.1343
43.9025
47.4606
50.6955
53.507
55.8198
57.5909
58.8117
59.5059
59.7225
59.5267
58.9883
58.1724
57.1302
55.8942
54.4765
52.8711
51.0594
49.0176
46.7253
44.1735
41.3708
38.3464
35.151
31.8532
28.5339
25.2782
22.1669
19.2683
16.631
14.2807
12.219
10.4257
8.86412
7.48825
6.25049
5.10898
4.03352
3.00901
2.03628
1.13027
0.315938
-0.377223
-0.921185
-1.29499
-1.48911
-1.50798
-1.37042
-1.10799
-0.761651
-0.377159
-2.12788e-05
0.329377
0.579812
0.731937
0.779385
0.728157
0.594429
0.401064
0.173354
-0.0653866
-0.297679
-0.514551
-0.716575
-0.913113
-1.11993
-1.35564
-1.63774
-1.97891
-2.38435
-2.85062
-3.36619
-3.91335
-4.47137
-5.01985
-5.54196
-6.02662
-6.46961
-6.87315
-7.24455
-7.59414
-7.93345
-8.27397
-8.62697
-9.00413
-9.4183
-9.88351
-10.4133
-11.0173
-11.6953
-12.4318
-13.1898
-13.9079
-14.5008
-14.8649
-14.8882
-14.4643
-13.5091
-11.9765
-9.87173
-7.25903
-4.26172
-1.05374
2.15674
5.14928
7.71466
9.67494
10.8951
11.2831
10.7769
9.321
6.83728
3.1974
-1.79535
-8.40665
-16.9491
-27.7352
-41.009
-56.8624
-75.1507
-95.42
-116.862
-138.309
-158.281
-175.077
-186.923
-192.139
-189.338
-177.606
-156.658
-126.947
-89.7087
-46.9255
-1.2273
44.2815
86.2482
121.334
146.493
159.244
157.913
141.824
111.422
68.3018
15.1478
-44.4318
-106.165
-165.455
-217.769
-259.042
-286.055
-296.744
-290.398
-267.724
-230.777
-182.738
-127.593
-69.7244
-13.4793
37.2404
79.3245
110.698
130.439
138.768
136.917
126.9
111.228
92.5859
73.5369
56.2628
42.3792
32.834
27.8948
27.2146
29.9621
34.993
41.0369
46.8777
51.5041
54.2169
54.6842
52.9426
49.3513
44.5082
39.1441
34.009
29.7669
26.9109
25.7087
26.1806
28.1123
31.0956
34.5903
37.9974
40.7335
42.2965
42.3166
40.5864
37.0707
31.8957
25.3219
17.7063
9.45772
0.993079
-7.30333
-15.1127
-22.2055
-28.4551
-33.8416
-38.4464
-42.4389
-46.0566
-49.5799
-53.3047
-57.5122
-62.4414
-68.2634
-75.0619
-82.8208
-91.4205
-100.643
-110.189
-119.694
-128.764
-136.997
-144.022
-149.517
-153.239
-155.035
-154.853
-152.74
-148.834
-143.357
-136.595
-128.875
-120.547
-111.958
-103.429
-95.2343
-87.5824
-80.6039
-74.343
-68.7578
-63.7293
-59.0785
-54.5919
-50.0513
-45.2658
-40.1007
-34.5005
-28.501
-22.2298
-15.8937
-9.75566
-4.10299
0.787873
4.68565
7.43302
8.96606
9.32201
8.63468
7.11842
5.0432
2.70426
0.390492
-1.64452
-3.20523
-4.16834
-4.48714
-4.18653
-3.34984
-2.10012
-0.578395
1.07792
2.75398
4.37152
5.8964
7.33868
8.74541
10.1868
11.7381
13.4587
15.3736
17.4579
19.6289
21.7469
23.6254
25.0494
25.8012
25.6886
24.5738
22.3975
19.1958
15.1065
10.3647
5.28575
0.239565
-4.38293
-8.20628
-10.9065
-12.2425
-12.0802
-10.4066
-7.33257
-3.08492
2.0123
7.56496
13.1422
18.3128
22.6816
25.9218
27.8017
28.2016
27.1212
24.6759
21.0827
16.638
11.6896
6.60468
1.73912
-2.59126
-6.13342
-8.71277
-10.2405
-10.7123
-10.1998
-8.83559
-6.79422
-4.27194
-1.46729
1.4353
4.27739
6.93329
9.31171
11.3533
13.025
14.3134
15.2173
15.7428
15.8988
15.6962
15.149
14.2761
13.1052
11.6753
10.0382
8.25825
6.40979
4.572
2.82267
1.23105
-0.148851
-1.28358
-2.16328
-2.802
-3.23515
-3.51439
-3.70079
-3.85692
-4.03892
-4.28939
-4.63168
-5.06596
-5.56747
-6.087
-6.55385
-6.8814
-6.97572
-6.74721
-6.12499
-5.07292
-3.60544
-1.80046
0.193425
2.15803
3.81641
4.85328
4.94285
3.7802
1.11114
-3.24459
-9.38073
-17.3045
-26.9481
-38.1889
-50.8711
-64.8245
-79.8717
-95.8207
-112.441
-129.427
-146.357
-162.653
-177.561
-190.163
-199.41
-204.209
-203.52
-196.489
-182.575
-161.664
-134.152
-100.997
-63.7037
-24.2793
14.8716
51.0876
81.6276
103.874
115.554
114.956
101.143
74.1082
34.8874
-14.4244
-70.7507
-130.221
-188.455
-240.936
-283.416
-312.339
-325.203
-320.839
-299.545
-263.083
-214.506
-157.848
-97.7169
-38.8244
14.4845
58.6449
91.188
110.923
117.971
113.654
100.261
80.7214
58.2366
35.9092
16.4159
1.75788
-6.88829
-9.21071
-5.69851
2.50825
13.8291
26.4826
38.7237
49.0506
56.3587
60.0306
59.9571
56.4939
50.3684
42.5509
34.1111
26.0785
19.3218
14.4614
11.82
11.4138
12.9814
16.0417
19.9716
24.0921
27.751
30.3931
31.6109
31.1719
29.0205
25.2596
20.1135
13.8816
6.88828
-0.563265
-8.22794
-15.9422
-23.6329
-31.3112
-39.0551
-46.9825
-55.2206
-63.8757
-73.0066
-82.6064
-92.5941
-102.817
-113.061
-123.075
-132.59
-141.352
-149.145
-155.811
-161.264
-165.492
-168.554
-170.565
-171.678
-172.058
-171.866
-171.229
-170.23
-168.894
-167.181
-164.995
-162.184
-158.563
-153.93
-148.098
-140.92
-132.317
-122.299
-110.983
-98.5911
-85.4443
-71.9408
-58.5259
-45.6554
-33.7578
-23.1981
-14.2495
-7.07346
-1.712
1.90898
3.96518
4.71106
4.45138
3.51045
2.20251
0.806169
-0.454837
-1.42307
-2.01064
-2.19477
-2.00693
-1.51759
-0.818774
-0.00677562
0.832932
1.63707
2.37126
3.03181
3.64299
4.25049
4.91245
5.68938
6.63434
7.78473
9.15674
10.743
12.5135
14.4203
16.4035
18.3998
20.3508
22.2102
23.9491
25.5585
27.0475
28.4397
29.7654
31.0531
32.3211
33.5699
34.7783
35.9023
36.8792
37.6348
38.0935
38.1896
37.8785
37.1453
36.0094
34.5251
32.7769
30.8699
28.9181
27.0295
25.2932
23.7674
22.4718
21.3857
20.4503
19.5766
18.6566
17.5759
16.2267
14.5171
12.3784
9.76748
6.66598
3.07735
-0.977415
-5.46347
-10.3341
-15.5301
-20.9763
-26.5756
-32.2021
-37.6947
-42.8537
-47.4439
-51.2039
-53.8643
-55.172
-54.9193
-52.9734
-49.3022
-43.991
-37.2482
-29.3967
-20.8519
-12.0885
-3.59836
4.1529
10.7674
15.9484
19.5222
21.446
21.8016
20.7768
18.6369
15.6909
12.2572
8.63291
5.07033
1.76307
-1.15753
-3.61703
-5.58607
-7.06643
-8.07921
-8.65945
-8.85984
-8.76414
-8.5086
-8.30705
-8.47317
-9.43255
-11.7169
-15.9345
-22.714
-32.6235
-46.0715
-63.2021
-83.7994
-107.22
-132.368
-157.726
-181.449
-201.508
-215.886
-222.787
-220.853
-209.337
-188.233
-158.333
-121.201
-79.0883
-34.7718
8.64181
47.9445
80.0653
102.306
112.562
109.51
92.7653
62.9683
21.8125
-28.0195
-83.0091
-139.045
-191.746
-236.832
-270.515
-289.858
-293.075
-279.712
-250.706
-208.295
-155.801
-97.2946
-37.1951
20.159
70.9159
112.049
141.592
158.757
163.913
158.453
144.562
124.92
102.381
79.6595
59.0697
42.3308
30.4614
23.7635
21.8899
23.9773
28.8234
35.0808
41.4438
46.8061
50.3725
51.7176
50.7902
47.8685
43.48
38.2977
33.0312
28.3258
24.6819
22.4032
21.5754
22.077
23.6146
25.7768
28.0965
30.1138
31.4296
31.7465
30.8911
28.8199
25.6085
21.4291
16.5194
11.1491
5.58604
0.0668602
-5.22638
-10.1826
-14.7704
-19.0394
-23.1146
-27.1853
-31.4884
-36.2883
-41.8545
-48.4367
-56.2414
-65.4081
-75.9891
-87.9324
-101.07
-115.114
-129.654
-144.174
-158.07
-170.682
-181.335
-189.392
-194.308
-195.686
-193.328
-187.264
-177.771
-165.362
-150.749
-134.791
-118.413
-102.527
-87.9445
-75.3095
-65.0386
-57.295
-51.9856
-48.7878
-47.1988
-46.6029
-46.3471
-45.8172
-44.5037
-42.0522
-38.2909
-33.2343
-27.0633
-20.0861
-12.6859
-5.26472
1.80998
8.24588
13.8505
18.536
22.3069
25.2325
27.4136
28.9469
29.8983
30.2871
30.0845
29.2285
27.648
25.2944
22.1715
18.3584
14.0189
9.39523
4.78546
0.508613
-3.13783
-5.92033
-7.70438
-8.47598
-8.34538
-7.53177
-6.33064
-5.06877
-4.0536
-3.5254
-3.62038
-4.35122
-5.60881
-7.18525
-8.81416
-10.2213
-11.1765
-11.5374
-11.2772
-10.4903
-9.37648
-8.20333
-7.25603
-6.78175
-6.93924
-7.7627
-9.14646
-10.8537
-12.548
-13.843
-14.3626
-13.8012
-11.9762
-8.86317
-4.60918
0.477634
5.96147
11.33
16.0563
19.6644
21.7878
22.2163
20.9234
18.0714
13.9953
9.16537
4.13454
-0.523531
-4.27886
-6.70452
-7.5244
-6.64394
-4.16049
-0.352108
4.35388
9.42874
14.3012
18.4204
21.3152
22.6444
22.2302
20.0739
16.3507
11.3854
5.61308
-0.471298
-6.36681
-11.6188
-15.8626
-18.855
-20.4897
-20.7967
-19.9268
-18.1232
-15.686
-12.9329
-10.1612
-7.61582
-5.46697
-3.7979
-2.60509
-1.80901
-1.2735
-0.830763
-0.308184
0.446402
1.54424
3.04213
4.93708
7.169
9.63044
12.1814
14.667
16.9346
18.8502
20.3094
21.2452
21.63
21.4742
20.8209
19.7398
18.3193
16.6595
14.863
13.024
11.2129
9.45629
7.71294
5.84992
3.62359
0.672796
-3.46927
-9.33937
-17.4826
-28.3669
-42.282
-59.2358
-78.864
-100.374
-122.539
-143.747
-162.12
-175.685
-182.577
-181.265
-170.755
-150.75
-121.744
-85.0374
-42.6663
2.74193
48.1683
90.4371
126.459
153.466
169.214
172.153
161.554
137.589
101.361
54.876
0.954845
-56.922
-114.839
-168.729
-214.691
-249.332
-270.066
-275.374
-264.954
-239.761
-201.925
-154.543
-101.377
-46.4844
6.16669
53.0681
91.4757
119.62
136.805
143.382
140.627
130.509
115.426
97.899
80.2936
64.5818
52.1742
43.8355
39.6829
39.2619
41.6809
45.7825
50.3278
54.1692
56.3915
56.407
53.999
49.311
42.791
35.1014
27.0102
19.2801
12.5706
7.36482
3.9291
2.30694
2.34452
3.73995
6.10599
9.03432
12.1509
15.1549
17.8368
20.0769
21.8287
23.0917
23.8837
24.2166
24.081
23.4416
22.2424
20.4197
17.9175
14.7039
10.7823
6.19685
