38.1603
29.1542
19.0583
8.18574
-3.05774
-14.2054
-24.7711
-34.2939
-42.3825
-48.7501
-53.239
-55.8288
-56.6303
-55.8642
-53.8303
-50.8699
-47.3281
-43.5191
-39.7002
-36.0558
-32.6918
-29.6413
-26.8782
-24.3356
-21.9273
-19.5672
-17.1857
-14.7404
-12.2199
-9.64224
-7.04725
-4.48564
-2.00613
0.357125
2.59524
4.73166
6.82465
8.96474
11.2671
13.8595
16.8674
20.3979
24.5238
29.2712
34.6108
40.4553
46.6627
53.0452
59.3838
65.4459
71.0041
75.8555
79.8365
82.8348
84.7948
85.7177
85.6547
84.697
82.9614
80.5745
77.6575
74.3112
70.6059
66.5744
62.2105
57.4731
52.2964
46.6033
40.3231
33.4092
25.8547
17.7043
9.05963
0.0774277
-9.03996
-18.0602
-26.741
-34.8525
-42.1979
-48.631
-54.0681
-58.492
-61.9492
-64.5395
-66.4007
-67.6898
-68.5633
-69.159
-69.5824
-69.8978
-70.1248
-70.2422
-70.1956
-69.9093
-69.2991
-68.2858
-66.8058
-64.8193
-62.3142
-59.3067
-55.8385
-51.9721
-47.785
-43.3642
-38.8013
-34.1885
-29.6169
-25.1743
-20.9439
-17.0026
-13.4184
-10.2477
-7.5315
-5.29205
-3.5298
-2.22179
-1.3214
-0.759989
-0.4503
-0.291547
-0.175666
0.00576115
0.354609
0.960013
1.89346
3.20561
4.92492
7.05805
9.59169
12.4952
15.7238
19.2212
22.923
26.7579
30.6508
34.5235
38.2976
41.8961
45.2468
48.2856
50.9597
53.2312
55.0792
56.5011
57.5112
58.1379
58.4178
58.3887
58.0808
57.5082
56.6606
55.4975
53.9465
51.906
49.2542
45.8636
41.6197
36.443
30.3097
23.2696
15.4563
7.0895
-1.53442
-10.0618
-18.1102
-25.3026
-31.3043
-35.8561
-38.8026
-40.1083
-39.8629
-38.2729
-35.6409
-32.3359
-28.757
-25.2953
-22.298
-20.038
-18.6921
-18.3305
-18.9161
-20.3143
-22.3092
-24.6226
-26.9298
-28.8663
-30.0212
-29.915
-27.9661
-23.4544
-15.4961
-3.04655
15.0522
39.968
72.7175
113.957
163.752
221.356
285.047
352.064
418.67
480.373
532.281
569.581
588.078
584.722
558.059
508.533
438.573
352.467
255.997
155.899
59.1928
-27.5232
-98.7371
-150.558
-181.063
-190.413
-180.74
-155.812
-120.535
-80.362
-40.6683
-6.18002
19.4821
34.1017
36.9813
28.8752
11.7614
-11.5061
-37.6147
-63.2224
-85.3502
-101.692
-110.813
-112.232
-106.371
-94.417
-78.0983
-59.4242
-40.4188
-22.8809
-8.19581
2.7831
9.77789
13.0572
13.3461
11.6932
9.31285
7.42552
7.11262
9.20124
14.1879
22.2059
33.0352
46.1503
60.7964
76.085
91.0952
104.971
117.003
126.688
133.764
138.213
140.239
140.224
138.673
136.142
133.174
130.242
127.704
125.775
124.516
123.842
123.545
123.323
122.817
121.645
119.448
115.912
110.802
103.985
95.439
85.2662
73.6885
61.0383
47.7394
34.2789
21.1739
8.93332
-1.98106
-11.1895
-18.4234
-23.5434
-26.5472
-27.5627
-26.831
-24.6789
-21.4848
-17.6419
-13.5239
-9.45412
-5.68401
-2.38077
0.374627
2.5799
4.29612
5.62709
6.69645
7.62513
8.51209
9.41993
10.367
11.3261
12.2296
12.9801
13.4642
13.5685
13.1948
12.2734
10.772
8.6997
6.10681
3.07855
-0.274089
-3.82612
-7.45081
-11.0309
-14.4673
-17.6844
-20.6315
-23.2809
-25.623
-27.6603
-29.4004
-30.8502
-32.0123
-32.8826
-33.451
-33.7028
-33.6211
-33.1895
-32.3929
-31.2176
-29.6512
-27.6806
-25.2919
-22.4705
-19.2036
-15.4845
-11.3171
-6.72296
-1.7459
3.54355
9.04676
14.6383
20.1705
25.4809
30.4013
34.7695
38.4393
41.2906
43.2372
44.2315
44.265
43.3663
41.5943
39.03
35.7656
31.8948
27.5042
22.6676
17.4445
11.8818
6.01917
-0.103979
-6.44127
-12.9335
-19.5057
-26.0671
-32.5146
-38.7388
-44.6301
-50.0853
-55.0131
-59.3371
-62.9985
-65.9563
-68.1883
-69.6911
-70.4808
-70.5937
-70.0872
-69.0398
-67.5498
-65.7328
-63.7164
-61.6326
-59.609
-57.7583
-56.1672
-54.887
-53.9236
-53.2286
-52.6881
-52.1078
-51.1913
-49.5134
-46.4886
-41.3458
-33.1166
-20.6546
-2.69682
22.0224
54.6049
95.7793
145.672
203.594
267.88
335.824
403.747
467.201
521.329
561.321
582.947
583.077
560.129
514.373
448.031
365.162
271.324
173.056
77.2271
-9.64744
-82.0564
-136.022
-169.45
-182.255
-176.264
-154.91
-122.762
-84.9641
-46.6367
-12.3358
14.3887
31.2805
37.4924
33.5274
21.03
2.46327
-19.2777
-41.2635
-60.8909
-76.1637
-85.8698
-89.6408
-87.8995
-81.7131
-72.5804
-62.186
-52.1564
-43.849
-38.1974
-35.6272
-36.0462
-38.9031
-43.3015
-48.1477
-52.3127
-54.7846
-54.7938
-51.897
-46.013
-37.41
-26.6489
-14.4952
-1.81156
10.5536
21.8659
31.5837
39.4046
45.2789
49.3897
52.1049
53.9096
55.3302
56.859
58.8907
61.6762
65.3001
69.6805
74.5903
79.6944
84.5966
88.8897
92.2014
94.2318
94.7777
93.7444
91.143
87.0782
81.727
75.3151
68.0924
60.3116
52.2121
44.01
35.8938
28.0248
20.5404
13.5583
7.18024
1.49303
-3.43226
-7.54386
-10.8141
-13.2447
-14.87
-15.7586
-16.0107
-15.7521
-15.1248
-14.2748
-13.3398
-12.4368
-11.6527
-11.0383
-10.6069
-10.3373
-10.1817
-10.075
-9.94765
-9.73643
-9.39464
-8.89866
-8.25075
-7.47772
-6.62579
-5.75273
-4.91853
-4.17611
-3.56352
-3.09865
-2.77727
-2.57433
-2.44824
-2.34731
-2.21725
-2.00873
-1.68393
-1.22148
-0.619281
0.104707
0.913617
1.75432
2.56115
3.26033
3.77487
4.02997
3.95897
3.5101
2.65406
1.39204
-0.236504
-2.14757
-4.20927
-6.24299
-8.03007
-9.32467
-9.87243
-9.43345
-7.80747
-4.85807
-0.532813
5.12375
11.9666
19.7571
28.1804
36.8713
45.4457
53.5347
60.8155
67.038
72.0422
75.7655
78.2396
79.5773
79.9526
79.5756
78.6657
77.4268
76.0263
74.5802
73.1447
71.7149
70.2299
68.5831
66.6364
64.2375
61.2384
57.514
52.9798
47.6061
41.4289
34.5529
27.1501
19.4492
11.719
4.24667
-2.68743
-8.83523
-14.0034
-18.0701
-20.9944
-22.8155
-23.6444
-23.6469
-23.0214
-21.9757
-20.7033
-19.3655
-18.0779
-16.9061
-15.867
-14.9378
-14.068
-13.1956
-12.2607
-11.2179
-10.0411
-8.71951
-7.23988
-5.5532
-3.52433
-0.867278
2.92621
8.65109
17.427
30.6863
50.0903
77.3576
114.003
161.004
218.447
285.191
358.66
434.788
508.212
572.681
621.691
649.248
650.664
623.266
566.908
484.182
380.297
262.627
139.963
21.5841
-83.7387
-168.684
-228.133
-259.654
-263.656
-243.21
-203.567
-151.454
-94.235
-39.0543
7.93517
42.1733
61.0623
64.0779
52.6277
29.6966
-0.662598
-33.9165
-65.6402
-92.0364
-110.327
-118.985
-117.787
-107.709
-90.6786
-69.2428
-46.1893
-24.1805
-5.43877
8.48007
16.8087
19.5802
17.5414
11.9876
4.54858
-3.04385
-9.1762
-12.5368
-12.2448
-7.91413
0.345676
11.9878
26.1303
41.6865
57.5054
72.504
85.7791
96.6855
104.878
110.312
113.219
114.04
113.356
111.808
110.011
108.495
107.65
107.698
108.689
110.506
112.9
115.524
117.976
119.847
120.761
120.405
118.556
115.093
109.999
103.36
95.3442
86.1928
76.1957
65.6724
54.9536
44.3636
34.206
24.7517
16.2291
8.81698
2.63924
-2.23837
-5.80889
-8.12243
-9.28161
-9.43419
-8.76292
-7.47303
-5.77841
-3.88721
-1.98858
-0.241526
1.23287
2.35512
3.08681
3.42609
3.40001
3.05503
2.4468
1.63079
0.65475
-0.446243
-1.65175
-2.95512
-4.36029
-5.87706
-7.51573
-9.28195
-11.1727
-13.1739
-15.2596
-17.3931
-19.5298
-21.6212
-23.6189
-25.48
-27.1704
-28.6687
-29.9678
-31.0749
-32.0109
-32.8067
-33.4999
-34.1291
-34.7292
-35.3259
-35.9323
-36.5457
-37.1469
-37.7018
-38.1643
-38.4811
-38.5976
-38.4638
-38.0389
-37.2956
-36.2204
-34.8134
-33.0848
-31.0507
-28.7274
-26.1257
-23.2459
-20.0732
-16.5766
-12.7107
-8.42007
-3.64935
1.64556
7.48381
13.8467
20.6676
27.8267
35.1522
42.4288
49.4132
55.8541
61.5163
66.2043
69.7828
72.1908
73.4483
73.6522
72.9638
71.5871
69.7419
67.6352
65.4329
63.2377
61.0764
58.8964
56.5752
53.9404
50.7979
46.9649
42.3033
36.7474
30.3244
23.1617
15.4825
7.58847
-0.168425
-7.41968
-13.817
-19.0668
-22.9581
-25.3819
-26.3385
-25.9345
-24.3686
-21.9089
-18.8655
-15.5593
-12.2926
-9.3228
-6.84276
-4.96803
-3.73278
-3.0927
-2.93287
-3.07654
-3.28933
-3.27301
-2.64386
-0.894386
2.65724
8.91795
19.0512
34.4642
56.7267
87.4031
127.796
178.622
239.655
309.42
384.992
461.981
534.755
596.898
641.884
663.87
658.507
623.636
559.759
470.183
360.825
239.657
115.883
-1.05123
-102.491
-181.505
-233.597
-257.118
-253.32
-226.077
-181.304
-126.174
-68.2312
-14.5206
29.1598
58.8062
72.5
70.4282
54.6526
28.6771
-3.1176
-36.0896
-65.924
-89.1228
-103.346
-107.58
-102.117
-88.3915
-68.6742
-45.707
-22.3093
-1.01765
16.2044
28.1543
34.4641
35.5614
32.5338
26.9226
20.4788
14.9165
11.693
11.8422
15.8767
23.7634
34.97
48.5693
63.3834
78.1463
91.6635
102.949
111.323
116.47
118.441
117.614
114.622
110.25
105.333
100.648
96.8258
94.2919
93.2323
93.5926
95.1054
97.3381
99.7557
101.787
102.891
102.606
100.597
96.6752
90.811
83.1284
73.8892
63.4677
52.3186
40.9411
29.8412
19.4944
10.3119
2.61146
-3.40305
-7.65374
-10.1895
-11.1761
-10.8761
-9.62048
-7.77529
-5.70561
-3.7419
-2.15126
-1.11683
-0.726979
-0.975225
-1.77004
-2.9531
-4.32337
-5.6641
-6.7694
-7.46773
-7.63969
-7.22869
-6.2437
-4.75449
-2.88028
-0.77401
1.39578
3.46286
5.2788
6.72445
7.7166
8.2096
8.19273
7.68442
6.72483
5.36796
3.67466
1.70714
-0.474557
-2.81431
-5.26022
-7.764
-10.2801
-12.7652
-15.1777
-17.4791
-19.6345
-21.6146
-23.3975
-24.9699
-26.328
-27.4778
-28.4345
-29.2209
-29.8657
-30.4014
-30.8617
-31.2796
-31.6848
-32.102
-32.5482
-33.0304
-33.5434
-34.0678
-34.5679
-34.991
-35.2668
-35.309
-35.0163
-34.2764
-32.9704
-30.9797
-28.1954
-24.5283
-19.9216
-14.3621
-7.89039
-0.60666
7.32855
15.7003
24.2522
32.7043
40.7766
48.2131
54.8052
60.4105
64.965
68.4871
71.0712
72.873
74.0873
74.9204
75.5616
76.1554
76.7803
77.4344
78.0317
78.4094
78.3448
77.5825
75.8654
72.9702
68.739
63.1063
56.1163
47.9289
38.8122
29.1235
19.2802
9.72203
0.872216
-6.90148
-13.3191
-18.212
-21.5339
-23.3601
-23.8736
-23.3419
-22.0863
-20.4474
-18.7517
-17.2812
-16.2502
-15.7907
-15.9465
-16.6773
-17.8704
-19.3586
-20.9415
-22.4067
-23.5485
-24.1781
-24.1215
-23.2009
-21.1968
-17.791
-12.4987
-4.60267
6.88975
23.242
45.9121
76.3891
115.941
165.298
224.305
291.624
364.536
438.933
509.519
570.252
614.972
638.147
635.637
605.339
547.626
465.483
364.318
251.451
135.354
24.7374
-72.4006
-149.622
-202.699
-229.988
-232.474
-213.514
-178.309
-133.196
-84.8429
-39.4762
-2.20494
23.4583
35.848
35.1506
23.1849
3.00376
-21.6173
-46.7302
-68.7308
-84.78
-93.0866
-93.0283
-85.1133
-70.8014
-52.2223
-31.8373
-12.0909
4.89953
17.5835
25.1208
27.4211
25.0847
19.262
11.457
3.30594
-3.63966
-8.0972
-9.18629
-6.499
-0.105046
9.5017
21.5026
34.8826
48.5677
61.5553
73.0208
82.3911
89.3792
93.9814
96.4407
97.1853
96.7533
95.7126
94.5881
93.8016
93.6313
94.1927
95.4402
97.1878
99.1441
100.956
102.254
102.696
102.005
99.9894
96.5559
91.7108
85.5477
78.2293
69.9656
60.9908
51.543
41.8489
32.114
22.52
13.2279
4.38457
-3.86906
-11.391
-18.0347
-23.6516
-28.0981
-31.2491
-33.0143
-33.3545
-32.297
-29.9448
-26.4786
-22.1511
-17.272
-12.1862
-7.24718
-2.7883
0.904049
3.61306
5.20707
5.64683
4.98422
3.35309
0.953811
-1.96645
-5.13578
-8.27972
-11.1419
-13.5017
-15.1878
-16.0872
-16.1492
-15.3846
-13.8608
-11.693
-9.03298
-6.0561
-2.94785
0.10932
2.94784
5.42489
7.42984
8.88897
9.76741
10.0683
9.82962
9.11821
8.02261
6.644
5.08675
3.4491
1.81489
0.247086
-1.21599
-2.56157
-3.80023
-4.96087
-6.08351
-7.21082
-8.37952
-9.61261
-10.9135
-12.2628
-13.6177
-14.9145
-16.0739
-17.0081
-17.6295
-17.8602
-17.6409
-16.9383
-15.7496
-14.103
-12.0527
-9.6689
-7.02326
-4.17132
-1.13533
2.10929
5.6404
9.58589
14.1098
19.3883
25.5794
32.7886
41.0384
50.245
60.206
70.6039
81.0237
90.984
99.9779
107.519
113.183
116.652
117.732
116.372
112.659
106.802
99.108
89.9475
79.7236
68.8402
57.6777
46.5777
35.8361
25.7034
16.3909
8.07823
0.918999
-4.95723
-9.44872
-12.4904
-14.0661
-14.2211
-13.0722
-10.8112
-7.70073
-4.06078
-0.246836
3.37804
6.47396
8.75406
10.0093
10.1254
9.08965
6.98765
3.99251
0.349579
-3.63677
-7.60851
-11.1457
-13.7416
-14.7629
-13.4017
-8.63345
0.799475
16.3556
39.5934
71.9875
114.667
168.095
231.742
303.806
381.063
458.898
531.566
592.681
635.889
655.644
647.981
611.155
546.047
456.261
347.87
228.848
108.241
-4.79553
-101.992
-176.838
-225.239
-245.873
-240.208
-212.199
-167.708
-113.732
-57.5552
-5.91609
35.6964
63.5494
75.9252
73.1226
57.22
31.6497
0.651974
-31.3157
-60.136
-82.4929
-96.1887
-100.293
-95.1223
-82.0691
-63.3192
-41.5006
-19.3169
0.79081
16.9126
27.8458
33.1651
33.1907
28.8672
21.5804
12.9382
4.54719
-2.18657
-6.21218
-6.92844
-4.21338
1.60847
9.85085
19.5871
29.7894
39.4672
47.788
54.1657
58.3112
60.2391
60.2366
58.7993
56.5471
54.131
52.1443
51.0483
51.1211
52.4341
54.8551
58.0766
61.6629
65.1069
67.8922
69.5497
69.7064
68.1207
64.7027
59.518
52.7777
44.8133
36.0429
26.9294
17.9371
9.48985
1.93562
-4.47948
-9.62523
-13.4888
-16.1636
-17.8286
-18.72
-19.0991
-19.2217
-19.3098
-19.532
-19.9906
-20.7198
-21.6912
-22.8273
-24.0198
-25.1498
-26.1073
-26.8064
-27.1959
-27.2621
-27.0251
-26.5292
-25.8289
-24.9736
-23.994
-22.8915
-21.6344
-20.1601
-18.3853
-16.2203
-13.5879
-10.4411
-6.77942
-2.65884
1.80451
6.43859
11.0268
15.325
19.0821
22.0627
24.0678
24.9527
24.6413
23.1329
20.5041
16.9048
12.5476
7.69391
2.6357
-2.32423
-6.89303
-10.8076
-13.8521
-15.8724
-16.786
-16.5878
-15.35
-13.2179
-10.4006
-7.15709
-3.77913
-0.570578
2.17453
4.19445
5.28089
5.29718
4.19192
2.00666
-1.12327
-4.97498
-9.25122
-13.5995
-17.6359
-20.9716
-23.2405
-24.1257
-23.3834
-20.8611
-16.5107
-10.3934
-2.67805
6.37015
16.4066
27.0317
37.8184
48.3429
58.2141
67.0996
74.7462
80.9934
85.7767
89.1238
91.1411
91.9942
91.8836
91.0188
89.5925
87.7583
85.6141
83.1924
80.4601
77.3267
73.6613
69.3158
64.1525
58.0716
51.0363
43.0903
34.3675
25.0901
15.556
6.11663
-2.85327
-10.9892
-17.9714
-23.5548
-27.5927
-30.0488
-30.999
-30.6209
-29.1732
-26.968
-24.3387
-21.6077
-19.0581
-16.9109
-15.3109
-14.3217
-13.9298
-14.0556
-14.5705
-15.3164
-16.1249
-16.831
-17.2794
-17.3166
-16.7657
-15.3829
-12.7959
-8.43469
-1.46746
9.23602
25.088
47.6904
78.651
119.31
170.403
231.699
301.696
377.432
454.491
527.238
589.293
634.204
656.229
651.129
616.839
553.914
465.656
357.907
238.503
116.472
1.06189
-99.2492
-177.659
-229.73
-253.783
-250.958
-224.949
-181.449
-127.403
-70.1522
-16.5997
27.5202
58.1769
73.3377
73.0033
59.0018
34.5857
3.89973
-28.6057
-58.7388
-83.0419
-99.1292
-105.859
-103.335
-92.76
-76.1605
-56.0485
-35.053
-15.5776
0.477435
11.902
18.2564
19.8469
17.6094
12.9255
7.40097
2.63704
0.0243934
0.582993
4.86293
12.9125
24.3109
38.2551
53.6854
69.4306
84.3524
97.4739
108.076
115.756
120.44
122.36
121.994
119.988
117.06
113.915
111.164
109.265
108.491
108.92
110.445
112.807
115.637
118.498
120.935
122.51
122.839
121.613
118.614
113.728
106.945
98.3607
88.1685
76.6537
64.1785
51.1642
38.0684
25.358
13.4799
2.83033
-6.27313
-13.615
-19.0976
-22.7473
-24.7104
-25.2376
-24.6597
-23.3572
-21.7248
-20.1367
-18.9156
-18.3072
-18.4636
-19.4364
-21.1789
-23.5565
-26.3646
-29.3502
-32.2365
-34.7478
-36.6319
-37.6806
-37.745
-36.7463
-34.6813
-31.6221
-27.7108
-23.1489
-18.1833
-13.0892
-8.15094
-3.64298
0.188455
3.14148
5.07134
5.89903
5.61528
4.27992
2.0168
-0.995079
-4.53365
-8.3483
-12.1762
-15.7596
-18.8629
-21.2887
-22.8915
-23.5875
-23.3599
-22.2589
-20.3954
-17.9305
-15.0595
-11.9947
-8.94569
-6.10186
-3.61737
-1.60042
-0.107799
0.855054
1.32898
1.39176
1.14601
0.705727
0.18331
-0.321673
-0.730479
-0.989115
-1.06769
-0.955349
-0.651585
-0.155582
0.544434
1.47945
2.70351
4.2917
6.33202
8.91196
12.1017
15.937
20.4041
25.4309
30.8844
36.5774
42.2823
47.7516
52.7417
57.0377
60.4754
62.957
64.4605
65.0375
64.8037
63.9197
62.5668
60.9212
59.1288
57.2867
55.4323
53.543
51.5453
49.3327
46.788
43.8082
40.326
36.3264
31.8543
27.0141
21.9593
16.8765
11.9646
7.41225
3.3783
-0.0244987
-2.73913
-4.76714
-6.16456
-7.03192
-7.49983
-7.71207
-7.80824
-7.90795
-8.09814
-8.42478
-8.88964
-9.45182
-10.033
-10.5235
-10.7868
-10.6558
-9.91964
-8.29505
-5.38587
-0.634201
6.72448
17.6853
33.4562
55.3788
84.7735
122.708
169.706
225.441
288.46
356.013
424.053
487.441
540.364
576.949
591.982
581.641
544.127
480.082
392.72
287.632
172.281
55.2403
-54.7112
-149.537
-222.796
-270.295
-290.466
-284.431
-255.745
-209.881
-153.518
-93.74
-37.2352
10.3924
45.139
64.888
69.4553
60.4082
40.6972
14.1644
-15.0034
-42.8054
-65.8788
-81.8272
-89.3967
-88.4952
-80.0683
-65.8628
-48.1168
-29.2244
-11.417
3.50039
14.3309
20.5722
22.4067
20.6064
16.3731
11.1416
6.37241
3.36223
3.09307
6.13523
12.6103
22.2131
34.2833
47.9138
62.0787
75.7641
88.0849
98.3767
106.253
111.625
114.684
115.855
115.72
114.935
114.138
113.867
114.499
116.204
118.938
122.448
126.313
129.996
132.909
134.477
134.199
131.698
126.757
119.337
109.576
97.7763
84.3777
69.9177
54.9897
40.1978
26.1129
13.2348
1.96123
-7.4332
-14.8075
-20.1545
-23.5905
-25.3368
-25.6947
-25.0163
-23.6739
-22.0303
-20.413
-19.0936
-18.2739
-18.0792
-18.559
-19.694
-21.4077
-23.5807
-26.0666
-28.7068
-31.3421
-33.8227
-36.013
-37.794
-39.0637
-39.7356
-39.7379
-39.0143
-37.5263
-35.2576
-32.2201
-28.4599
-24.0625
-19.1551
-13.9059
-8.51818
-3.22069
1.74593
6.14582
9.76573
12.4324
14.0275
14.4993
13.8684
12.2275
9.73603
6.60714
3.09142
-0.543553
-4.03475
-7.14458
-9.67899
-11.501
-12.5382
-12.7839
-12.2914
-11.1628
-9.53347
-7.55364
-5.37019
-3.10961
-0.864456
1.3154
3.42595
5.50636
7.63088
9.89629
12.4065
15.2559
18.5146
22.2149
26.3437
30.8391
35.5929
40.4579
45.2595
49.8098
53.9237
57.4333
60.2013
62.1308
63.171
63.3188
62.615
61.138
58.993
56.3013
53.1878
49.7709
46.1537
42.4183
38.6232
34.8035
30.9723
27.124
23.2372
19.277
15.1982
10.9485
6.47235
1.71838
-3.35217
-8.75459
-14.4693
-20.4316
-26.5251
-32.5796
-38.3766
-43.6618
-48.1647
-51.6227
-53.809
-54.5587
-53.7917
-51.5286
-47.8984
-43.136
-37.57
-31.6009
-25.6697
-20.2165
-15.6304
-12.1886
-9.98816
-8.87348
-8.36652
-7.61298
-5.35949
0.0197323
10.4292
27.8796
54.2358
90.9
138.465
196.387
262.748
334.162
405.886
472.151
526.701
563.49
577.441
565.16
525.505
459.892
372.301
268.955
157.706
47.2055
-54.0304
-138.541
-200.708
-237.313
-247.794
-234.186
-200.763
-153.44
-99.012
-44.3492
4.36982
42.2846
66.2784
75.1661
69.6389
51.996
25.7108
-5.09884
-36.2247
-63.8764
-85.0876
-97.9804
-101.87
-97.2131
-85.4227
-68.5844
-49.1197
-29.4444
-11.6633
2.66239
12.653
18.1469
19.6393
18.1425
14.9928
11.6357
9.41803
9.41602
12.3168
18.3647
27.3719
38.7872
51.8052
65.4992
78.9555
91.3908
102.239
111.199
118.237
123.555
127.53
130.626
133.32
136.017
138.992
142.36
146.068
149.907
153.558
156.64
158.762
159.578
158.821
156.329
152.051
146.037
138.421
129.396
119.187
108.033
96.1773
83.8548
71.2995
58.7461
46.4351
34.6146
23.5364
13.4459
4.56683
-2.91749
-8.88358
-13.2838
-16.1566
-17.6284
-17.9061
-17.2613
-16.0069
-14.4696
-12.9613
-11.7524
-11.0504
-10.9854
-11.6039
-12.8709
-14.6797
-16.867
-19.2322
-21.5583
-23.6328
-25.2662
-26.3068
-26.6523
-26.2553
-25.1245
-23.3215
-20.9526
-18.1582
-15.0993
-11.9435
-8.85095
-5.96185
-3.38653
-1.19907
0.565032
1.90721
2.86037
3.48049
3.83653
3.99994
4.0351
3.99206
3.90227
3.77768
3.61317
3.39161
3.0905
2.6892
2.17529
1.54934
0.827131
0.0392363
-0.771938
-1.55701
-2.26551
-2.85164
-3.27905
-3.52347
-3.57292
-3.42492
-3.08095
-2.53876
-1.78366
-0.780597
0.530982
2.23739
4.44479
7.26677
10.8065
15.1356
20.2739
26.1722
32.7032
39.6617
46.7756
53.7267
60.1787
65.8096
70.343
73.5748
75.3928
75.784
74.8322
72.704
69.6261
65.8574
61.6596
57.2698
52.8787
48.6174
44.5525
40.6908
36.9916
33.383
29.7819
26.1124
22.3211
18.3877
14.3286
10.1937
6.05759
2.00626
-1.87863
-5.53449
-8.92943
-12.0682
-14.9914
-17.7668
-20.4748
-23.1893
-25.9572
-28.7797
-31.6002
-34.3006
-36.709
-38.6184
-39.8156
-40.1154
-39.3954
-37.622
-34.8621
-31.2722
-27.0595
-22.4165
-17.4305
-11.98
-5.63548
2.41617
13.3966
28.889
50.7012
80.6344
120.168
170.097
230.164
298.769
372.82
447.776
517.94
576.976
618.61
637.418
629.596
593.578
530.404
443.766
339.713
226.052
111.512
4.79037
-86.3852
-156.071
-200.687
-219.295
-213.561
-187.412
-146.457
-97.2422
-46.4586
-0.190645
36.7023
61.0078
71.3508
68.1511
53.3735
30.1214
2.13864
-26.7116
-52.9241
-73.7319
-87.3546
-93.0973
-91.3043
-83.19
-70.5797
-55.6023
-40.3768
-26.7329
-15.9967
-8.86075
-5.34908
-4.87192
-6.35683
-8.43342
-9.64467
-8.65578
-4.43436
3.61925
15.605
31.1241
49.3437
69.1137
89.1169
108.033
124.692
138.208
148.057
154.125
156.687
156.356
153.98
150.535
146.998
144.236
142.914
143.434
145.903
150.143
155.725
162.024
168.294
173.741
177.605
179.219
178.069
173.824
166.366
155.787
142.383
126.629
109.142
90.6436
71.9056
53.7002
36.7473
21.6665
8.93615
-1.13734
-8.43595
-13.032
-15.1741
-15.2591
-13.7921
-11.3378
-8.46979
-5.72036
-3.53694
-2.24891
-2.04709
-2.97765
-4.9501
-7.7579
-11.109
-14.6627
-18.0687
-21.0045
-23.2073
-24.4972
-24.7903
-24.1005
-22.5315
-20.2592
-17.5084
-14.526
-11.5546
-8.80817
-6.45403
-4.60074
-3.29398
-2.51935
-2.21133
-2.26665
-2.56012
-2.96098
-3.3478
-3.6206
-3.70914
-3.57689
-3.22086
-2.6677
-1.96698
-1.18268
-0.383969
0.363508
1.00505
1.5021
1.83483
2.00189
2.01748
1.90642
1.69776
1.41834
1.08698
0.710517
0.282262
-0.216615
-0.812886
-1.53461
-2.40292
-3.42331
-4.57779
-5.81921
-7.06878
-8.21748
-9.13169
-9.66261
-9.65874
-8.97999
-7.51212
-5.17963
-1.95559
2.13268
7.00318
12.5239
18.5229
24.8014
31.1512
37.3711
43.2839
48.7502
53.6776
58.0257
61.8048
65.0689
67.9048
70.4153
72.7011
74.8413
76.8751
78.7875
80.5012
81.8761
82.719
82.801
81.8835
79.7482
76.2291
71.2403
64.798
57.0313
48.1805
38.5831
28.6476
18.8187
9.53774
1.20302
-5.86523
-11.4516
-15.461
-17.9214
-18.975
-18.858
-17.8727
-16.355
-14.641
-13.035
-11.7835
-11.0566
-10.9379
-11.4241
-12.4347
-13.8282
-15.4257
-17.036
-18.4807
-19.6139
-20.3307
-20.5623
-20.252
-19.3114
-17.5594
-14.6496
-9.99695
-2.72211
8.36965
24.7526
48.0714
79.9511
121.73
174.143
236.989
308.85
386.92
467.001
543.706
610.877
662.19
691.873
695.444
670.367
616.512
536.356
434.857
319.033
197.272
78.4676
-28.9096
-117.687
-182.705
-221.284
-233.394
-221.519
-190.244
-145.629
-94.4556
-43.4471
1.45446
35.6602
56.309
62.4123
54.7725
35.7041
8.60706
-22.5418
-53.7126
-81.2967
-102.481
-115.489
-119.665
-115.43
-104.097
-87.6132
-68.2525
-48.3039
-29.7961
-14.2863
-2.73173
4.55099
7.8436
7.91642
5.87266
2.97151
0.454526
-0.604023
0.592538
4.50054
11.222
20.534
31.9525
44.8172
58.3842
71.9156
84.754
96.3782
106.433
114.741
121.282
126.176
129.635
131.928
133.336
134.123
134.504
134.635
134.604
134.433
134.089
133.493
132.535
131.085
129.009
126.175
122.461
117.766
112.013
105.158
97.2039
88.2008
78.259
67.55
56.3043
44.8025
33.3594
22.3031
11.951
2.58486
-5.56962
-12.3584
-17.7058
-21.6136
-24.1507
-25.4379
-25.6282
-24.887
-23.3748
-21.2345
-18.5853
-15.5231
-12.1266
-8.46691
-4.61922
-0.672001
3.26687
7.0694
10.5924
13.6877
16.2153
18.0583
19.1361
19.415
18.9133
17.7003
15.8907
13.6333
11.0971
8.45517
5.86953
3.47822
1.38545
-0.343951
-1.68571
-2.65329
-3.29187
-3.67001
-3.87021
-3.97928
-4.07959
-4.24157
-4.51818
-4.94131
-5.52023
-6.2419
-7.07309
-7.96387
-8.85238
-9.67042
-10.3494
-10.8267
-11.0507
-10.9862
-10.6173
-9.94957
-9.00968
-7.84388
-6.5143
-5.09409
-3.66179
-2.29533
-1.06643
-0.0357686
0.750587
1.2634
1.49096
1.43833
1.12546
0.584368
-0.144175
-1.01402
-1.97669
-2.98386
-3.98894
-4.94804
-5.82022
-6.5675
-7.15497
-7.55126
-7.72943
-7.66858
-7.35561
-6.78711
-5.97062
-4.92507
-3.67966
-2.27112
-0.738964
0.880831
2.56325
4.3017
6.11419
8.04671
10.1726
12.5875
15.3997
18.7167
22.631
27.2045
32.4568
38.3565
44.8183
51.7063
58.8424
66.0193
73.0169
79.6191
85.63
90.8866
95.2686
98.7008
101.152
102.628
103.16
102.788
101.551
99.4678
96.5345
92.7179
87.9623
82.2017
75.379
67.4676
58.4938
48.5552
37.8314
26.5846
15.1486
3.90707
-6.73667
-16.3946
-24.7286
-31.4805
-36.4925
-39.7166
-41.2115
-41.1288
-39.6908
-37.1646
-33.8362
-29.9885
-25.8843
-21.7583
-17.8135
-14.2234
-11.1355
-8.67442
-6.94176
-6.01054
-5.91382
-6.62621
-8.03799
-9.92213
-11.8955
-13.3773
-13.5508
-11.338
-5.39968
5.82366
24.0154
50.8208
87.62
135.248
193.693
261.826
337.208
416.043
493.32
563.158
619.344
656.006
668.34
653.28
610.013
540.249
448.187
340.177
224.099
108.55
1.9327
-88.434
-157.061
-200.808
-219.12
-213.943
-189.369
-151.039
-105.412
-58.9832
-17.5539
14.3617
33.9316
40.1705
33.8689
17.3178
-6.12356
-32.548
-58.0397
-79.1624
-93.3425
-99.1085
-96.1704
-85.3453
-68.3515
-47.5102
-25.4006
-4.51484
13.0426
25.7798
32.9442
34.5469
31.29
24.4163
15.5084
6.26531
-1.7112
-7.09742
-8.97575
-6.90052
-0.900391
8.57606
20.7582
34.6781
49.3029
63.6588
76.9316
88.5344
98.1392
105.672
111.277
115.261
118.024
119.99
121.544
122.981
124.482
126.099
127.766
129.316
130.516
131.097
130.787
129.338
126.552
122.285
116.467
109.097
100.254
90.0915
78.8381
66.7934
54.3175
41.8151
29.7135
18.4351
8.36564
-0.177456
-6.97353
-11.9203
-15.0449
-16.5021
-16.5597
-15.5704
-13.9348
-12.0593
-10.3128
-8.98937
-8.28051
-8.26068
-8.88796
-10.0192
-11.4371
-12.8859
-14.1099
-14.89
-15.0731
-14.592
-13.471
-11.8197
-9.8143
-7.6706
-5.61172
-3.83625
-2.49074
-1.65053
-1.3117
-1.39502
-1.76125
-2.2352
-2.63499
-2.80186
-2.62596
-2.06402
-1.1462
0.0291513
1.31206
2.52619
3.49891
4.0912
4.22252
3.88633
3.15362
2.16362
1.10313
0.177792
-0.42011
-0.542123
-0.107644
0.882182
2.34262
4.11564
5.99052
7.73165
9.10941
9.92981
10.0589
9.43888
8.0944
6.12815
3.70726
1.0425
-1.6367
-4.1081
-6.18023
-7.71082
-8.61854
-8.88696
-8.56098
-7.73687
-6.54742
-5.14471
-3.68231
-2.29928
-1.10747
-0.183221
0.436098
0.750732
0.793133
0.619493
0.299514
-0.094223
-0.496033
-0.854969
-1.13997
-1.34186
-1.47217
-1.55905
-1.64092
-1.75886
-1.94864
-2.23371
-2.61994
-3.09297
-3.61838
-4.14476
-4.6091
-4.94383
-5.08437
-4.97619
-4.58028
-3.87629
-2.8629
-1.55541
0.0188234
1.82641
3.83416
6.01465
8.35005
10.8339
13.4708
16.2743
19.2636
22.4596
25.8816
29.5433
33.4503
37.597
41.9649
46.5197
51.2091
55.9605
60.6789
65.2453
69.5172
73.3305
76.5049
78.8528
80.1908
80.3548
79.2163
76.698
72.7882
67.5498
61.1235
53.7231
45.6237
37.1421
28.6116
20.3554
12.6583
5.74354
-0.244988
-5.25192
-9.30984
-12.5291
-15.0794
-17.1648
-18.9965
-20.7652
-22.6182
-24.6423
-26.856
-29.2107
-31.6005
-33.8795
-35.8839
-37.4554
-38.4638
-38.8255
-38.5157
-37.5729
-36.097
-34.238
-32.1795
-30.1148
-28.2161
-26.597
-25.2663
-24.0755
-22.6604
-20.3863
-16.3049
-9.14002
2.68106
20.9321
47.4168
83.7207
130.9
189.146
257.467
333.472
413.292
491.722
562.575
619.254
655.475
666.058
647.666
599.385
523.041
423.195
306.792
182.502
59.8288
-51.9038
-144.553
-212.018
-250.851
-260.552
-243.503
-204.578
-150.477
-88.8826
-27.5479
26.5608
67.977
93.2175
100.997
92.1686
69.4183
36.7713
-1.01287
-39.0743
-73.0361
-99.4702
-116.202
-122.432
-118.674
-106.548
-88.4493
-67.1624
-45.4703
-25.8022
-9.96568
1.01308
6.93317
8.3517
6.42604
2.69445
-1.17066
-3.60262
-3.3436
0.411417
7.9426
19.0073
32.909
48.6182
64.9255
80.6034
94.5575
105.948
114.268
119.378
121.487
121.101
118.93
115.791
112.498
109.77
108.15
107.967
109.308
112.041
115.841
120.247
124.727
128.731
131.756
133.378
133.29
131.304
127.359
121.498
113.858
104.644
94.1137
82.5573
70.2897
57.6398
44.9444
32.5408
20.7575
9.90222
0.247527
-7.98555
-14.643
-19.6503
-23.0199
-24.8512
-25.3232
-24.6787
-23.2027
-21.1974
-18.955
-16.7333
-14.7359
-13.0988
-11.8857
-11.0902
-10.6461
-10.443
-10.3442
-10.2061
-9.89628
-9.30811
-8.37168
-7.0602
-5.392
-3.42847
-1.26849
0.960174
3.11192
5.03617
6.59132
7.65862
8.15481
8.04218
7.33458
6.09864
4.44956
2.54156
0.554104
-1.32513
-2.91838
-4.07531
-4.68783
-4.70066
-4.1164
-2.99467
-1.44517
0.384274
2.32358
4.19823
5.84707
7.13806
7.98015
8.33016
8.19375
7.62093
6.69666
5.52808
4.2301
2.91126
1.66175
0.544795
-0.407488
-1.19364
-1.83821
-2.38385
-2.88142
-3.3798
-3.91664
-4.51152
-5.16226
-5.84484
-6.51672
-7.12292
-7.60394
-7.9042
-7.97981
-7.80463
-7.37404
-6.70604
-5.83994
-4.83319
-3.75693
-2.69089
-1.71821
-0.92024
-0.37117
-0.132127
-0.244318
-0.721171
-1.54006
-2.63499
-3.89213
-5.1504
-6.20877
-6.84088
-6.81648
-5.92725
-4.014
-0.990846
3.13724
8.26691
14.2007
20.6629
27.3265
33.8456
39.8927
45.1924
49.5507
52.874
55.1762
56.5742
57.2713
57.5309
57.6445
57.8976
58.5372
59.7445
61.617
64.1594
67.2862
70.8333
74.5763
78.2543
81.5942
84.3324
86.2332
87.0999
86.7811
85.1711
82.2077
77.8684
72.1679
65.1583
56.9306
47.6198
37.409
26.5316
15.2701
3.9481
-7.0833
-17.4657
-26.8569
-34.9566
-41.5295
-46.424
-49.5844
-51.0543
-50.9713
-49.5538
-47.0821
-43.874
-40.2598
-36.5563
-33.0455
-29.9562
-27.4528
-25.6303
-24.5156
-24.0749
-24.2263
-24.8528
-25.8151
-26.9579
-28.1049
-29.0396
-29.4682
-28.9671
-26.9224
-22.4742
-14.4851
-1.55226
17.9137
45.5322
82.7155
130.368
188.557
256.21
330.903
408.802
484.803
552.905
606.773
640.453
649.132
629.845
582.004
507.661
411.452
300.217
182.32
66.773
-37.7371
-123.781
-185.966
-221.462
-230.213
-214.814
-180.088
-132.425
-78.9647
-26.757
18.0277
50.7214
68.5621
70.8412
58.7958
35.2784
4.26247
-29.7437
-62.2939
-89.5392
-108.639
-118.009
-117.391
-107.75
-91.0288
-69.8092
-46.9205
-25.0625
-6.481
7.26603
15.4315
18.0878
16.0317
10.6084
3.48601
-3.58705
-9.00848
-11.5068
-10.2657
-4.97989
4.15693
16.5227
31.1807
47.0187
62.8925
77.7585
90.7791
101.393
109.344
114.679
117.698
118.895
118.879
118.284
117.698
117.598
118.304
119.957
122.518
125.785
129.425
133.016
136.098
138.212
138.949
137.979
135.077
130.14
123.184
114.345
103.867
92.0795
79.3808
66.2117
53.0288
40.2778
28.366
17.6381
8.35504
0.678858
-5.33484
-9.73594
-12.6699
-14.3597
-15.0808
-15.1321
-14.806
-14.3596
-13.992
-13.8283
-13.9133
-14.2141
-14.6324
-15.0232
-15.2188
-15.0546
-14.3931
-13.1445
-11.2809
-8.84298
-5.93841
-2.73285
0.565508
3.72584
6.51696
8.72987
10.1985
10.8171
10.5523
9.44993
7.63343
5.29623
2.68604
0.0832972
-2.22509
-3.97406
-4.948
-5.0045
-4.0913
-2.2542
0.365561
3.5444
6.99895
10.4154
13.4824
15.9234
17.5249
18.1567
17.7832
16.4623
14.3354
11.6078
8.52343
5.33647
2.2845
-0.434827
-2.68036
-4.37611
-5.51149
-6.13396
-6.33564
-6.23621
-5.96461
-5.64205
-5.36841
-5.21327
-5.21227
-5.36863
-5.65865
-6.04025
-6.46253
-6.87508
-7.23562
-7.51517
-7.7004
-7.79328
-7.80862
-7.77021
-7.70638
-7.64582
-7.61425
-7.63216
-7.71379
-7.86685
-8.0925
-8.3848
-8.72912
-9.09916
-9.45244
-9.72523
-9.82768
-9.64109
-9.01895
-7.79331
-5.78738
-2.83389
1.20243
6.40106
12.7643
20.2023
28.5271
37.4584
46.6417
55.676
64.1493
71.6777
77.9418
82.7175
85.8962
87.4918
87.6351
86.5543
84.5467
81.9427
79.0688
76.2114
73.5869
71.3195
69.4301
67.8343
66.3537
64.735
62.6793
59.8765
56.0429
50.9593
44.5032
36.675
27.6113
17.5847
6.98919
-3.69047
-13.9209
-23.1715
-30.9685
-36.9471
-40.8932
-42.7717
-42.7351
-41.1114
-38.3721
-35.0818
-31.836
-29.1942
-27.6156
-27.4063
-28.6844
-31.3676
-35.1847
-39.7091
-44.409
-48.7047
-52.0236
-53.8393
-53.6867
-51.1454
-45.7937
-37.1424
-24.5677
-7.26771
15.7282
45.4758
82.946
128.777
182.981
244.65
311.733
380.949
447.881
507.283
553.581
581.512
586.824
566.915
521.324
451.97
363.105
260.959
153.128
47.7737
-47.2496
-125.236
-181.321
-212.946
-220.036
-204.892
-171.802
-126.46
-75.2484
-24.4919
20.222
54.5897
75.9428
83.3799
77.6819
61.0398
36.6447
8.20376
-20.554
-46.3196
-66.5471
-79.6646
-85.1432
-83.43
-75.769
-63.9435
-49.9816
-35.8652
-23.2786
-13.4243
-6.92197
-3.79402
-3.53067
-5.2172
-7.70049
-9.76925
-10.3234
-8.51233
-3.82745
3.85734
14.2974
26.9339
40.9843
55.551
69.7341
82.7335
93.9293
102.933
109.607
114.053
116.573
117.614
117.699
117.358
117.068
117.2
117.991
119.526
121.748
124.474
127.429
130.285
132.699
134.35
134.966
134.344
132.355
128.947
124.13
117.963
110.54
101.974
92.3869
81.9068
70.6702
58.8285
46.5576
34.0659
21.6
9.44309
-2.09156
-12.6756
-21.9853
-29.7252
-35.6525
-39.5992
-41.4898
-41.3521
-39.3202
-35.6289
-30.6003
-24.6229
-18.1263
-11.5523
-5.32477
0.177769
4.64716
7.86454
9.71289
10.1824
9.36822
7.46142
4.73321
1.51401
-1.83137
-4.93097
-7.43334
-9.03413
-9.49952
-8.68522
-6.54924
-3.15757
1.31819
6.61147
12.3792
18.2272
23.7408
28.518
32.2037
34.5198
35.2905
34.4582
32.0891
28.3676
23.5784
18.0804
12.2725
6.55628
1.2997
-3.19544
-6.71779
-9.16061
-10.5244
-10.9083
-10.4914
-9.50707
-8.21325
-6.86207
-5.67301
-4.81196
-4.37839
-4.40163
-4.84597
-5.62345
-6.612
-7.67639
-8.68902
-9.54791
-10.1897
-10.5959
-10.7927
-10.8433
-10.8349
-10.8621
-11.0085
-11.3299
-11.8405
-12.5047
-13.2347
-13.8955
-14.3158
-14.3034
-13.6653
-12.2276
-9.85555
-6.47063
-2.0623
3.30618
9.49904
16.3164
23.5088
30.797
37.8941
44.5288
50.4664
55.5264
59.5943
62.6268
64.6503
65.7532
66.073
65.7794
65.0562
64.0826
63.0161
61.978
61.0423
60.2289
59.5014
58.7689
57.8935
56.7024
55.004
52.6084
49.3491
45.1049
39.82
33.5177
26.3081
18.3855
10.0178
1.52625
-6.74065
-14.4375
-21.2523
-26.9339
-31.3127
-34.3133
-35.9564
-36.3522
-35.6853
-34.1934
-32.1437
-29.8094
-27.448
-25.2854
-23.5047
-22.24
-21.5753
-21.5455
-22.1368
-23.2848
-24.865
-26.675
-28.4045
-29.5956
-29.5969
-27.5206
-22.2174
-12.2866
3.85845
27.8531
61.1662
104.815
159.042
223
294.511
369.978
444.477
512.096
566.477
601.525
612.188
595.198
549.644
477.292
382.573
272.231
154.66
39.0169
-65.7731
-151.996
-213.975
-248.641
-255.782
-237.948
-200.031
-148.589
-91.0157
-34.6518
14.0331
50.1053
70.6007
74.695
63.6065
40.2659
8.81004
-26.0235
-59.5213
-87.5586
-107.043
-116.191
-114.622
-103.274
-84.1613
-60.0344
-33.9721
-8.97927
12.3706
28.2051
37.5116
40.1759
36.9088
29.08
18.4901
7.11507
-3.14378
-10.6732
-14.3044
-13.3996
-7.86804
1.8835
15.0492
30.556
47.208
63.8255
79.3647
93.0052
104.203
112.706
118.535
121.941
123.342
123.251
122.21
120.72
119.199
117.944
117.12
116.759
116.775
116.992
117.167
117.03
116.304
114.732
112.096
108.231
103.033
96.4684
88.578
79.4818
69.3776
58.5369
47.2935
36.0261
25.134
15.008
5.99888
-1.61236
-7.63959
-12.0079
-14.7593
-16.0459
-16.1122
-15.2679
-13.8537
-12.2063
-10.6246
-9.3427
-8.5111
-8.18913
-8.34809
-8.88414
-9.63895
-10.4249
-11.0518
-11.3512
-11.1967
-10.5173
-9.30255
-7.60104
-5.51101
-3.16638
-0.719477
1.677
3.8865
5.80183
7.35365
8.51362
9.29205
9.73089
9.89312
9.85028
9.6699
9.40464
9.08469
8.71432
8.27309
7.72122
7.00821
6.08331
4.90609
3.45554
1.7363
-0.218916
-2.35091
-4.5795
-6.81187
-8.95282
-10.9152
-12.6292
-14.0493
-15.1582
-15.9663
-16.5084
-16.8374
-17.0156
-17.1064
-17.1655
-17.2343
-17.3366
-17.4763
-17.6399
-17.7992
-17.9173
-17.9538
-17.8701
-17.6336
-17.2199
-16.6134
-15.8059
-14.7937
-13.573
-12.1363
-10.4677
-8.54083
-6.31778
-3.75114
-0.788434
2.62116
6.5183
10.9245
15.8338
21.2063
26.9655
32.9983
39.1609
45.2878
51.2034
56.737
61.736
66.0792
69.6852
72.5178
74.5842
75.9292
76.6244
76.7532
76.3956
75.6137
74.4398
72.8701
70.8652
68.3563
65.2582
61.4866
56.9773
51.7041
45.6933
39.0322
31.8695
24.4081
16.8902
9.57735
2.7271
-3.4306
-8.71404
-13.0054
-16.2598
-18.5065
-19.8428
-20.4224
-20.4382
-20.103
-19.63
-19.2142
-19.0177
-19.1583
-19.7043
-20.6737
-22.0386
-23.7339
-25.6675
-27.7306
-29.8039
-31.7544
-33.4202
-34.5787
-34.898
-33.8772
-30.7853
-24.6146
-14.0718
2.36986
26.3409
59.3569
102.524
156.197
219.648
290.807
366.153
440.805
508.854
563.913
599.83
611.489
595.552
551.053
479.714
385.941
276.459
159.644
44.63
-59.6973
-145.679
-207.7
-242.752
-250.659
-233.966
-197.498
-147.681
-91.7113
-36.6829
11.1999
47.25
68.6893
74.7789
66.6934
47.1771
20.0445
-10.3978
-39.9301
-64.9265
-82.7342
-91.8922
-92.1773
-84.491
-70.6168
-52.8935
-33.8525
-15.87
-0.876872
9.84496
15.7601
17.0719
14.6195
9.70373
3.87085
-1.31444
-4.47623
-4.59086
-1.09041
6.1012
16.597
29.6314
44.183
59.119
73.3392
85.9026
96.124
103.63
108.371
110.597
110.799
109.621
107.777
105.952
104.726
104.512
105.521
107.751
111.002
114.91
118.996
122.73
125.584
127.093
126.893
124.753
120.584
114.442
106.504
97.0493
86.4261
75.0222
63.2352
51.4483
40.0118
29.2296
19.3508
10.5663
3.00713
-3.25423
-8.20131
-11.8699
-14.3432
-15.745
-16.2323
-15.9852
-15.1964
-14.0599
-12.7587
-11.4549
-10.2803
-9.33022
-8.66062
-8.28813
-8.19399
-8.33078
-8.63135
-9.01889
-9.41704
-9.7588
-9.99338
-10.0902
-10.04
-9.85234
-9.55167
-9.17093
-8.74499
-8.30452
-7.87109
-7.45427
-7.05091
-6.64641
-6.21768
-5.73708
-5.17668
-4.51222
-3.72635
-2.81112
-1.7696
-0.616968
0.619041
1.89812
3.16812
4.36665
5.4239
6.2667
6.82395
7.03294
6.8462
6.23798
5.20967
3.79318
2.05169
0.0774024
-2.01382
-4.0906
-6.01612
-7.65937
-8.90609
-9.66842
-9.89205
-9.56
-8.69268
-7.34425
-5.59556
-3.54477
-1.29658
1.04865
3.40465
5.70702
7.91812
10.029
12.0583
14.0482
16.0586
18.1598
20.4244
22.92
25.7022
28.809
32.2576
36.0422
40.1341
44.4829
49.0189
53.6557
58.2935
62.8216
67.1211
71.0668
74.5301
77.3814
79.4936
80.7461
81.0309
80.2591
78.3677
75.3266
71.1442
65.8709
59.5988
52.4599
44.6198
36.2702
27.62
18.8853
10.2809
2.01118
-5.73733
-12.8022
-19.051
-24.3852
-28.7432
-32.102
-34.4766
-35.9178
-36.5081
-36.3555
-35.5864
-34.3376
-32.7471
-30.9468
-29.0556
-27.1748
-25.3865
-23.7546
-22.3286
-21.1484
-20.2484
-19.6576
-19.3918
-19.4345
-19.7047
-20.0101
-19.9905
-19.059
-16.3539
-10.7178
-0.722781
15.2399
38.7973
71.3585
113.822
166.266
227.664
295.699
366.727
435.933
497.692
546.122
575.75
582.222
562.94
517.528
448.042
358.894
256.468
148.49
43.2135
-51.4592
-128.814
-184.017
-214.57
-220.486
-204.169
-170.027
-123.875
-72.2084
-21.4532
22.7331
56.0162
75.7461
81.0948
72.9719
53.7472
26.8295
-3.83404
-34.2734
-60.9602
-81.1732
-93.2306
-96.5739
-91.7108
-80.0365
-63.5698
-44.6427
-25.5883
-8.4615
5.17491
14.3818
18.8862
19.0399
15.7079
10.1097
3.63579
-2.3334
-6.5871
-8.20442
-6.62666
-1.67887
6.45507
17.2949
30.1514
44.2251
58.703
72.8421
86.0322
97.8335
107.988
116.41
123.155
128.381
132.302
135.15
137.131
138.41
139.094
139.228
138.814
137.817
136.191
133.892
130.891
127.184
122.79
117.746
112.095
105.88
99.1306
91.86
84.0651
75.7316
66.8447
57.4041
47.4388
37.0222
26.2819
15.4037
4.62767
-5.76411
-15.4669
-24.1778
-31.6226
-37.5803
-41.9036
-44.5304
-45.4864
-44.8783
-42.878
-39.7023
-35.5904
-30.7838
-25.5105
-19.9769
-14.3656
-8.84029
-3.55286
1.34916
5.71803
9.40685
12.2768
14.2099
15.1258
14.9976
13.8661
11.8455
9.12101
5.93671
2.57376
-0.677425
-3.54807
-5.82046
-7.35177
-8.08888
-8.07189
-7.4259
-6.34189
-5.04943
-3.78482
-2.75899
-2.12943
-1.97988
-2.31048
-3.03975
-4.01809
-5.05126
-5.93066
-6.46643
-6.51882
-6.02336
-5.00597
-3.58563
-1.96359
-0.400345
0.817063
1.41308
1.16227
-0.0766145
-2.33532
-5.52292
-9.4263
-13.7243
-18.014
-21.8457
-24.7642
-26.35
-26.2596
-24.2577
-20.2409
-14.25
-6.46841
2.79093
13.1113
24.0065
34.9616
45.4755
55.1006
63.4773
70.3578
75.6186
79.2607
81.3971
82.2304
82.023
81.0631
79.631
77.967
76.2462
74.5605
72.9101
71.2068
69.2862
66.9312
63.9026
59.9733
54.9642
48.775
41.4073
32.9757
23.7062
13.9202
4.00765
-5.60945
-14.5166
-22.3464
-28.8118
-33.7308
-37.0383
-38.7862
-39.1301
-38.3072
-36.6065
-34.3369
-31.7959
-29.2438
-26.885
-24.8587
-23.2394
-22.0467
-21.2608
-20.8422
-20.7505
-20.9575
-21.449
-22.2117
-23.2008
-24.2874
-25.19
-25.398
-24.1018
-20.1493
-12.0514
1.94101
23.6735
54.8356
96.6357
149.443
212.453
283.449
358.724
433.22
500.898
555.323
590.395
601.139
584.419
539.491
468.263
375.251
267.185
152.335
39.6336
-62.2956
-146.064
-206.291
-240.118
-247.419
-230.673
-194.555
-145.277
-89.802
-35.02
13.0109
49.6643
72.1293
79.5481
72.9102
54.738
28.621
-1.33003
-31.0345
-56.9304
-76.3457
-87.7201
-90.6632
-85.8618
-74.8609
-59.7629
-42.8882
-26.4468
-12.2595
-1.56025
5.1043
7.87497
7.48985
5.12473
2.19143
0.124482
0.184492
3.30187
9.97678
20.2425
33.6907
49.5494
66.7991
84.3089
100.975
115.843
128.203
137.651
144.1
147.766
149.115
148.782
147.489
145.951
144.796
144.505
145.362
147.445
150.629
154.612
158.96
163.157
166.659
168.945
169.558
168.143
164.461
158.403
149.99
139.363
126.774
112.57
97.1713
81.0535
64.725
48.7028
33.4861
19.5309
7.22336
-3.1423
-11.3821
-17.4328
-21.3542
-23.3211
-23.6066
-22.557
-20.5614
-18.0176
-15.3004
-12.7324
-10.5627
-8.95381
-7.97777
-7.62205
-7.80283
-8.38404
-9.19962
-10.076
-10.8523
-11.3965
-11.6159
-11.4613
-10.9257
-10.0382
-8.85471
-7.44635
-5.88922
-4.25505
-2.60496
-0.986509
0.565953
2.02823
3.3816
4.60773
5.68442
6.58305
7.26856
7.70166
7.84333
7.66043
7.13177
6.25347
5.04263
3.53886
1.80313
-0.0857264
-2.03661
-3.95303
-5.74054
-7.31374
-8.60232
-9.55551
-10.1447
-10.3638
-10.2286
-9.77313
-9.04617
-8.10577
-7.01378
-5.83016
-4.60764
-3.38706
-2.19393
-1.03636
0.095425
1.22768
2.4002
3.66182
5.06499
6.65979
8.48816
10.579
12.9445
15.5784
18.4565
21.5383
24.7708
28.0934
31.4424
34.7563
37.9797
41.0665
43.9819
46.7027
49.2169
51.5208
53.6137
55.4912
57.1359
58.5076
59.5348
60.1091
60.0856
59.2909
57.5382
54.6508
50.489
44.9786
38.1346
30.078
21.0397
11.3511
1.42207
-8.29302
-17.336
-25.2872
-31.8045
-36.6539
-39.7283
-41.0526
-40.7756
-39.1498
-36.5021
-33.2004
-29.618
-26.1018
-22.9457
-20.3723
-18.5237
-17.4607
-17.1698
-17.5756
-18.5567
-19.9611
-21.6202
-23.3554
-24.9768
-26.2683
-26.9582
-26.6743
-24.8888
-20.8605
-13.5932
-1.82944
15.8975
41.1338
75.291
119.359
173.578
237.125
307.877
382.327
455.69
522.243
575.858
610.696
621.949
606.536
563.635
494.966
404.759
299.404
186.825
75.6437
-25.7501
-110.1
-172.046
-208.646
-219.603
-207.178
-175.801
-131.463
-80.9429
-31.0073
12.3472
44.5022
62.6218
65.8164
55.0654
32.9278
3.09275
-30.1629
-62.536
-90.21
-110.26
-120.916
-121.655
-113.147
-97.0482
-75.7079
-51.8132
-28.0322
-6.69515
10.4494
22.3812
28.8494
30.3129
27.7993
22.7085
16.5912
10.9343
6.98014
5.59869
7.22415
11.8568
19.1225
28.374
38.8169
49.6387
60.1226
69.7337
78.1666
85.3543
91.44
96.7216
101.577
106.387
111.462
116.985
122.977
129.293
135.629
141.564
146.606
150.25
152.032
151.58
148.649
143.149
135.148
124.873
112.686
99.0598
84.5412
69.7138
55.1572
41.4095
28.9338
18.0904
9.11732
2.1191
-2.93489
-6.20268
-7.95316
-8.54145
-8.37808
-7.89409
-7.50463
-7.57414
-8.38592
-10.1187
-12.8326
-16.4652
-20.8394
-25.681
-30.6465
-35.3562
-39.4323
-42.5353
-44.3972
-44.8474
-43.8273
-41.3953
-37.7179
-33.0521
-27.7173
-22.064
-16.4395
-11.1566
-6.46729
-2.54485
0.525108
2.74372
4.18923
5.00021
5.35383
5.44168
5.4458
5.51734
5.75998
6.21975
6.88223
7.67722
8.49034
9.17987
9.59701
9.60692
9.10799
8.0471
6.42896
4.31856
1.83637
-0.85273
-3.55563
-6.0701
-8.20464
-9.79708
-10.73
-10.9416
-10.432
-9.26314
-7.55406
-5.47132
-3.21495
-1.00138
0.955849
2.46619
3.38171
3.61462
3.15101
2.05905
0.490078
-1.32875
-3.11069
-4.53401
-5.27321
-5.03385
-3.58729
-0.800994
3.33964
8.72115
15.1055
22.1476
29.4249
36.4767
42.8477
48.1317
52.0101
54.2801
54.871
53.8452
51.3852
47.768
43.3302
38.4284
33.3999
28.527
24.0113
19.9575
16.3709
13.1654
10.1819
7.21361
4.03492
0.430812
-3.77634
-8.7048
-14.398
-20.8163
-27.8366
-35.2584
-42.817
-50.2014
-57.0763
-63.1068
-67.9836
-71.4488
-73.3176
-73.497
-71.9978
-68.9379
-64.5382
-59.1081
-53.0236
-46.699
-40.5545
-34.9832
-30.3207
-26.819
-24.6253
-23.7656
-24.1296
-25.4536
-27.2973
-29.0143
-29.72
-28.2671
-23.2442
-13.0184
4.15896
29.9721
65.7859
112.339
169.428
235.63
308.153
382.844
454.414
516.876
564.156
590.814
592.757
567.853
516.337
440.934
346.677
240.431
130.186
24.203
-69.8633
-145.763
-199.261
-228.502
-234.073
-218.794
-187.256
-145.191
-98.7488
-53.7882
-15.2534
13.2863
29.8951
34.313
27.7946
12.7849
-7.51545
-29.6289
-50.2628
-66.6976
-77.0613
-80.4685
-77.0203
-67.6796
-54.0512
-38.1036
-21.8737
-7.1938
4.52709
12.4458
16.3404
16.5808
14.0264
9.87022
5.45601
2.09125
0.881509
2.60365
7.6302
15.9095
26.999
40.1439
54.3863
68.6915
82.0727
93.7011
102.989
109.64
113.658
115.327
115.154
113.796
111.974
110.381
109.606
110.067
111.968
115.284
119.761
124.951
130.252
134.972
138.397
139.856
138.787
134.787
127.65
117.383
104.207
88.5343
70.9338
52.0816
32.7065
13.533
-4.77089
-21.6384
-36.6364
-49.4839
-60.0578
-68.3841
-74.619
-79.0217
-81.9218
-83.6852
-84.6813
-85.2529
-85.693
-86.2276
-87.0069
-88.1043
-89.5232
-91.2088
-93.0655
-94.9749
-96.8143
-98.4712
-99.853
-100.889
-101.527
-101.717
-101.402
-100.493
-98.8597
-96.326
-92.6746
-87.6695
-81.0893
-72.7694
-62.6442
-50.7767
-37.363
-22.7001
-7.11076
9.16566
26.1011
43.9947
63.543
85.8343
112.246
144.24
183.072
229.451
283.208
343.019
406.28
469.149
526.809
573.925
605.262
616.376
604.277
567.973
508.78
430.359
338.443
240.283
143.881
57.1055
-13.1868
-61.9167
-86.3242
-86.227
-63.9647
-24.0475
27.4362
83.5671
137.396
182.7
214.596
229.96
227.614
208.268
174.272
129.201
77.3593
23.2589
-28.8571
-75.4046
-113.725
-142.217
-160.34
-168.501
-167.864
-160.111
-147.183
-131.047
-113.497
-96.0146
-79.6863
-65.176
-52.7301
-42.1969
-33.0356
-24.3018
-14.6097
-2.09311
15.5922
41.175
77.538
127.333
192.466
273.519
369.228
476.123
588.458
698.486
797.087
874.7
922.432
933.198
902.72
830.24
718.834
575.259
409.36
233.09
59.2796
-99.7022
-233.214
-333.391
-395.848
-419.97
-408.76
-368.299
-306.885
-233.989
-159.15
-90.9518
-36.1798
0.73944
17.9959
16.3416
-1.23584
-30.0437
-64.3377
-98.0117
-125.247
-141.064
-141.734
-125.041
-90.3956
-38.8144
27.2114
103.935
186.642
269.987
348.37
416.331
468.958
502.269
513.555
501.64
467.037
411.96
340.188
256.776
167.624
78.9685
-3.18792
-73.6152
-128.324
-164.9
-182.671
-182.693
-167.547
-140.998
-107.531
-71.8471
-38.36
-10.7578
8.32339
17.4868
16.6099
6.73489
-10.1624
-31.4866
-54.3779
-76.0618
-94.1539
-106.89
-113.259
-113.041
-106.742
-95.4614
-80.7008
-64.1471
-47.46
-32.0841
-19.1073
-9.17594
-2.47092
1.2586
2.61391
2.43241
1.65701
1.2065
1.86229
4.18346
8.45762
14.6903
22.6304
31.826
41.7002
51.6364
61.0613
69.5152
76.7014
82.5096
87.0139
90.4447
93.1429
95.5023
97.9082
100.681
104.032
108.031
112.596
117.503
122.405
126.869
130.422
132.593
132.964
131.2
127.087
120.55
111.656
100.616
87.7658
73.5449
58.4601
43.0492
27.8408
13.3152
-0.128178
-12.1959
-22.7134
-31.6263
-38.9881
-44.9389
-49.6756
-53.4198
-56.3863
-58.7569
-60.6616
-62.1709
-63.2964
-64.0015
-64.2187
-63.8704
-62.8898
-61.2403
-58.9281
-56.0096
-52.5893
-48.8123
-44.8497
-40.8809
-37.0749
-33.5725
-30.4731
-27.8261
-25.6296
-23.8348
-22.3562
-21.0853
-19.9069
-18.7142
-17.4214
-15.9727
-14.3462
-12.5522
-10.6284
-8.63069
-6.62398
-4.67243
-2.83199
-1.14547
0.359119
1.66754
2.77622
3.68828
4.4097
4.94667
5.30466
5.48921
5.508
5.37344
5.1048
4.72888
4.27864
3.78957
3.29404
2.81466
2.35785
1.90933
1.43314
0.875457
0.173432
-0.73151
-1.87796
-3.26907
-4.86065
-6.55546
-8.20594
-9.62566
-10.6085
-10.9529
-10.4879
-9.09625
-6.7317
-3.42672
0.709763
5.50506
10.7438
16.1944
21.6369
26.8889
31.8257
36.3907
40.5982
44.5235
48.2871
52.0303
55.8901
59.9737
64.3372
68.9714
73.7951
78.658
83.3502
87.6187
91.188
93.7822
95.1464
95.067
93.3876
90.0221
84.9631
78.2869
70.1536
60.803
50.5454
39.7475
28.8126
18.1573
8.18456
-0.744506
-8.33664
-14.3886
-18.8026
-21.5923
-22.8792
-22.8792
-21.88
-20.2119
-20.2119
-20.2119
-20.2119
-20.2119
-20.2119
-20.2119
-20.2119
-20.2119
-20.2119
-20.2119
-20.2119
-20.2119
-20.2119
-20.2119
-20.2119
-20.2119
-20.2119
-20.2119
-20.2119
