-21.35
-23.0365
-24.2535
-24.8003
-24.5081
-23.2613
-21.0128
-17.7913
-13.6976
-8.88986
-3.55859
2.10727
7.95855
13.9231
20.0353
26.4506
33.4383
41.3485
50.5525
61.3592
73.9182
88.1212
103.519
119.274
134.157
146.613
154.884
157.191
151.953
138.02
114.883
82.834
43.0422
-2.47028
-50.9588
-99.1847
-143.718
-181.282
-209.093
-225.156
-228.483
-219.196
-198.511
-168.601
-132.359
-93.0853
-54.1446
-18.6302
10.9269
32.7703
46.034
50.7528
47.7739
38.587
25.0983
9.37975
-6.57535
-21.0619
-32.8157
-41.0953
-45.69
-46.8596
-45.2207
-41.5988
-36.872
-31.8266
-27.0466
-22.8487
-19.2699
-16.1048
-12.9833
-9.47553
-5.20263
0.0620797
6.32045
13.3161
20.5467
27.3196
32.844
36.3447
37.182
34.9582
29.5963
21.3777
10.9328
-0.81491
-12.7453
-23.6656
-32.4467
-38.1529
-40.15
-38.1777
-32.3771
-23.2724
-11.7087
1.24531
14.416
26.652
36.9428
44.5179
48.9131
50.0014
47.9839
43.3473
36.7913
29.1403
21.2463
13.8979
7.74309
3.23449
0.600947
-0.153345
0.775491
3.03556
6.17693
9.71453
13.1884
16.2138
18.5176
19.9556
20.5127
20.2873
19.4623
18.2697
16.9516
15.7258
14.7571
14.1393
13.889
13.9498
14.207
14.5089
14.6915
14.6036
14.1286
13.2003
11.8117
10.0144
7.91202
5.64581
3.3771
1.26753
-0.539594
-1.9349
-2.85364
-3.28055
-3.24872
-2.83312
-2.14002
-1.29409
-0.425002
0.344798
0.909677
1.18692
1.11909
0.672908
-0.164314
-1.38955
-2.98855
-4.9388
-7.2098
-9.76081
-12.5364
-15.4615
-18.4374
-21.341
-24.0281
-26.3416
-28.1241
-29.2335
-29.5596
-29.0388
-27.6651
-25.4952
-22.6466
-19.2891
-15.63
-11.895
-8.30766
-5.06878
-2.33905
-0.226496
1.2202
2.01198
2.2137
1.93352
1.30878
0.490171
-0.374146
-1.15287
-1.74303
-2.07774
-2.12961
-1.90986
-1.46347
-0.860908
-0.187734
0.466966
1.0219
1.41344
1.60307
1.58144
1.36892
1.0124
0.579013
0.147572
-0.201178
-0.394131
-0.374009
-0.105116
0.424053
1.20156
2.19592
3.36235
4.65039
6.01165
7.40623
8.80701
10.2009
11.5871
12.972
14.3626
15.7584
17.1442
18.4842
19.7185
20.7638
21.517
21.8617
21.6779
20.8519
19.2865
16.9114
13.6903
9.6276
4.77123
-0.786091
-6.90929
-13.4261
-20.1351
-26.8173
-33.2486
-39.215
-44.5272
-49.034
-52.6332
-55.2789
-56.9834
-57.8147
-57.8885
-57.3562
-56.3896
-55.1645
-53.8439
-52.5635
-51.42
-50.4644
-49.6998
-49.0841
-48.5383
-47.9573
-47.225
-46.2282
-44.8724
-43.093
-40.8649
-38.2063
-35.1784
-31.8792
-28.4344
-24.9843
-21.6691
-18.615
-15.9215
-13.6521
-11.8289
-10.4325
-9.40655
-8.66606
-8.1093
-7.63083
-7.13462
-6.54517
-5.81565
-4.93185
-3.91187
-2.80158
-1.66676
-0.583168
0.374221
1.14124
1.67261
1.94717
1.96969
1.76945
1.39565
0.910852
0.383076
-0.122104
-0.548474
-0.854166
-1.01405
-1.01929
-0.874175
-0.59091
-0.183327
0.33935
0.977488
1.74386
2.66373
3.77218
5.10896
6.71178
8.60896
10.8125
13.3126
16.0745
19.0374
22.117
25.2097
28.1992
30.965
33.39
35.3698
36.8196
37.6799
37.9195
37.5371
36.5589
35.0349
33.0334
30.6331
27.9166
24.9624
21.8399
18.6054
15.3015
11.9591
8.60281
5.25817
1.96037
-1.23666
-4.25194
-6.97078
-9.24071
-10.8707
-11.6349
-11.2827
-9.55535
-6.21265
-1.06781
5.96883
14.841
25.2976
36.8521
48.7586
60.0157
69.4051
75.571
77.1375
72.858
61.7797
43.4051
17.8245
-14.2016
-51.2294
-91.1991
-131.582
-169.596
-202.47
-227.718
-243.409
-248.37
-242.323
-225.923
-200.689
-168.849
-133.103
-96.3457
-61.3732
-30.6132
-5.90617
11.6379
21.6957
24.698
21.717
14.2929
4.22305
-6.65949
-16.6905
-24.5411
-29.3304
-30.6748
-28.675
-23.8482
-17.0179
-9.17907
-1.35718
5.5218
10.7357
13.8347
14.6698
13.3815
10.3542
6.1449
1.39871
-3.23886
-7.20041
-10.0578
-11.5599
-11.6448
-10.4267
-8.16286
-5.20521
-1.94549
1.23925
4.0335
6.21725
7.68401
8.44192
8.59964
8.34026
7.88775
7.47129
7.29213
7.49721
8.16237
9.28638
10.7956
12.5577
14.4018
16.142
17.6007
18.6289
19.1215
19.026
18.3441
17.1275
15.4684
13.4873
11.3189
9.09943
6.95507
4.99368
3.29962
1.93176
0.924096
0.288176
0.0167375
0.0877228
0.468292
1.1186
1.99535
3.05509
4.25715
5.56546
6.94821
8.37388
9.80256
11.1726
12.3841
13.2827
13.648
13.1929
11.5771
8.43684
3.43178
-3.69806
-13.0708
-24.6079
-37.9954
-52.6717
-67.8471
-82.557
-95.7447
-106.366
-113.5
-116.459
-114.866
-108.715
-98.3768
-84.5698
-68.2887
-50.7037
-33.0424
-16.467
-1.96429
9.74179
18.2439
23.4679
25.6527
25.2969
23.0818
19.7814
16.1698
12.9377
10.6268
9.58755
9.96336
11.6997
14.5751
18.2484
22.3137
26.3568
30.0067
32.9749
35.0813
36.2633
36.5698
36.1423
35.1856
33.9348
32.6204
31.4383
30.5269
29.9536
29.7122
29.7306
29.8855
30.0246
29.9891
29.6363
28.8577
27.5914
25.8275
23.6064
21.0118
18.1588
15.1804
12.2131
9.384
6.8008
4.54451
2.66605
1.18603
0.0973168
-0.630369
-1.04471
-1.205
-1.17764
-1.03467
-0.857227
-0.745575
-0.836119
-1.3233
-2.48131
-4.67758
-8.36829
-14.0673
-22.2837
-33.4307
-47.7161
-65.034
-84.8798
-106.312
-127.978
-148.209
-165.184
-177.133
-182.56
-180.457
-170.457
-152.923
-128.943
-100.235
-68.9667
-37.5255
-8.25705
16.788
36.067
48.6933
54.5038
54.0395
48.4462
39.3111
28.4577
17.7249
8.75811
2.8346
0.741704
2.71846
8.46307
17.2012
27.8039
38.9379
49.2307
57.4302
62.542
63.9293
61.3681
55.052
45.5502
33.726
20.6266
7.35843
-5.03532
-15.6837
-23.9697
-29.578
-32.5053
-33.0349
-31.6808
-29.1101
-26.0539
-23.2185
-21.2064
-20.4564
-21.2061
-23.4819
-27.1132
-31.7673
-36.9999
-42.3129
-47.212
-51.2585
-54.1092
-55.5411
-55.4611
-53.9002
-50.9962
-46.9669
-42.0805
-36.6238
-30.8753
-25.0832
-19.4505
-14.1278
-9.21339
-4.75828
-0.774821
2.75279
5.85842
8.58538
10.9803
13.0897
14.9591
16.6337
18.1605
19.5907
20.9806
22.3923
23.8925
25.5503
27.4334
29.6039
32.1124
34.9927
38.2542
41.875
45.7943
49.9059
54.0536
58.0296
61.5778
64.4035
66.1884
66.6136
65.3868
62.2726
57.1224
49.9007
40.7019
29.7574
17.4283
4.18456
-9.42819
-22.8313
-35.461
-46.8161
-56.5
-64.2522
-69.9639
-73.6757
-75.5546
-75.8526
-74.8508
-72.7936
-69.8263
-65.944
-60.9666
-54.548
-46.2284
-35.5271
-22.0697
-5.73235
13.2202
34.0309
55.4083
75.5664
92.3575
103.491
106.818
100.642
84.0198
56.9867
20.6842
-22.6546
-69.8641
-117.139
-160.431
-195.893
-220.317
-231.515
-228.568
-211.941
-183.424
-145.918
-103.103
-59.0085
-17.5755
17.7689
44.4507
60.9749
67.0147
63.361
51.7475
34.5801
14.6098
-5.40679
-23.0193
-36.3317
-44.1629
-46.1077
-42.5005
-34.2938
-22.8754
-9.85259
3.16849
14.778
23.9124
29.9435
32.7037
32.4486
29.7712
25.4817
20.4742
15.5974
11.5463
8.78681
7.5195
7.68239
8.98941
10.9949
13.1736
15.0035
16.0417
15.982
14.6907
12.2163
8.77446
4.71264
0.460231
-3.52847
-6.83044
-9.10251
-10.1169
-9.78017
-8.13478
-5.344
-1.66381
2.59395
7.10132
11.5514
15.6877
19.3224
22.3417
24.6974
26.3899
27.4431
27.879
27.6958
26.854
25.274
22.8452
19.4467
14.9749
9.37494
2.6704
-5.01449
-13.4428
-22.2664
-31.0422
-39.2606
-46.3857
-51.9022
-55.364
-56.4417
-54.9609
-50.9306
-44.555
-36.2296
-26.5192
-16.1209
-5.81262
3.60635
11.3793
16.8545
19.5402
19.1474
15.615
9.11678
0.0463902
-11.0154
-23.3498
-36.1602
-48.6362
-60.0164
-69.6427
-77.0025
-81.7551
-83.7417
-82.9809
-79.6513
-74.0652
-66.6371
-57.8487
-48.2144
-38.2482
-28.4333
-19.1958
-10.8828
-3.74673
2.06367
6.50569
9.63682
11.6021
12.6152
12.9348
12.8384
12.5967
12.4494
12.5866
13.1361
14.1575
15.644
17.5306
19.7078
22.0377
24.3729
26.5731
28.5205
30.1308
31.3593
32.2026
32.695
32.9012
32.906
32.8013
32.674
32.5934
32.6011
32.7048
32.8758
33.051
33.1399
33.0357
32.6288
31.8218
30.5438
28.7614
26.4868
23.7791
20.7407
17.5079
14.2375
11.0907
8.21635
5.73615
3.73304
2.24463
1.26203
0.734083
0.576231
0.682523
0.939198
1.23798
1.48752
1.62167
1.60395
1.42789
1.11369
0.701929
0.245472
-0.199327
-0.580824
-0.858777
-1.00882
-1.02436
-0.916005
-0.708796
-0.437901
-0.143573
0.133914
0.358635
0.502219
0.54564
0.47959
0.303634
0.02447
-0.346306
-0.794542
-1.30564
-1.86617
-2.46487
-3.09296
-3.74383
-4.41227
-5.09337
-5.78139
-6.46881
-7.14572
-7.79976
-8.4166
-8.98094
-9.478
-9.89521
-10.2239
-10.4608
-10.6091
-10.6784
-10.6845
-10.6478
-10.5911
-10.537
-10.5053
-10.5101
-10.5585
-10.6492
-10.7732
-10.9146
-11.0532
-11.1673
-11.2359
-11.2418
-11.1728
-11.0226
-10.7897
-10.4759
-10.084
-9.61442
-9.06316
-8.41965
-7.66627
-6.7792
-5.7307
-4.4926
-3.04048
-1.35797
0.559381
2.70143
5.04214
7.53996
10.14
12.7772
15.3814
17.8815
20.2106
22.3102
24.1334
25.6467
26.8311
27.6814
28.2057
28.4227
28.3601
28.0515
27.534
26.8455
26.0225
25.0975
24.0977
23.0437
21.949
20.8206
19.6595
18.4631
17.2268
15.9458
14.6174
13.2417
11.8221
10.365
8.8784
7.37051
5.84803
4.3149
2.77155
1.21521
-0.358898
-1.95529
-3.57541
-5.21451
-6.85909
-8.48534
-10.0592
-11.5384
-12.8757
-14.0233
-14.9366
-15.5762
-15.9048
-15.8799
-15.4392
-14.4808
-12.8412
-10.2759
-6.45085
-0.952162
6.67715
16.8697
29.9365
45.9489
64.617
85.1892
106.399
126.482
143.285
154.453
157.7
151.11
133.445
104.395
64.7382
16.3747
-37.7848
-94.0637
-148.374
-196.64
-235.229
-261.344
-273.324
-270.807
-254.747
-227.285
-191.482
-150.964
-109.518
-70.6858
-37.4183
-11.8079
5.05701
13.1168
13.2453
7.05788
-3.34898
-15.688
-27.7657
-37.7266
-44.2332
-46.5645
-44.6312
-38.9121
-30.3294
-20.0831
-9.46934
0.293282
8.20853
13.6043
16.1827
16.0181
13.5091
9.29399
4.14664
-1.13464
-5.82892
-9.37402
-11.4193
-11.8464
-10.7581
-8.44142
-5.31097
-1.84234
1.49469
4.29527
6.26401
7.24091
7.20744
6.27427
4.65408
2.62473
0.488487
-1.46689
-3.00051
-3.94069
-4.19567
-3.75252
-2.66605
-1.04028
0.99405
3.30211
5.76453
8.29103
10.8268
13.3512
15.8698
18.4016
20.9645
23.5619
26.1718
28.7424
31.1932
33.4221
35.3176
36.7734
37.7033
38.0546
37.8164
37.0236
35.7532
34.1163
32.2453
30.2778
28.3414
26.5389
24.9383
23.5669
22.4113
21.4225
20.5251
19.63
18.6473
17.4993
16.1302
14.5133
12.6525
10.5805
8.35209
6.03561
3.70178
1.41336
-0.78382
-2.86685
-4.83789
-6.72241
-8.56361
-10.4142
-12.327
-14.3453
-16.4951
-18.7807
-21.1835
-23.666
-26.1808
-28.6855
-31.1639
-33.6523
-36.2691
-39.241
-42.9194
-47.7778
-54.382
-63.3301
-75.1629
-90.252
-108.681
-130.137
-153.836
-178.5
-202.403
-223.492
-239.575
-248.558
-248.709
-238.903
-218.812
-189.022
-151.036
-107.169
-60.3422
-13.7904
29.2632
65.9427
94.0119
112.092
119.776
117.633
107.101
90.282
69.6804
47.9034
27.3699
10.0584
-2.68313
-10.2493
-12.8132
-11.2951
-7.28095
-2.90948
-0.738982
-3.59628
-14.3985
-35.9313
-70.5681
-119.93
-184.509
-263.3
-353.526
-450.534
-547.935
-638.023
-712.473
-763.246
-783.587
-768.994
-718.006
-632.686
-518.715
-385.055
-243.177
-105.949
13.7348
104.408
157.396
167.914
135.742
65.3714
-34.4217
-151.542
-271.958
-381.343
-466.749
-518.108
-529.367
-499.104
-430.579
-331.202
-211.527
-83.9042
39.025
145.791
227.342
277.926
295.531
281.848
241.796
182.709
113.289
42.4931
-21.5232
-72.2722
-105.525
-119.576
-115.188
-95.2378
-64.151
-27.2027
10.2122
43.2468
68.1351
82.535
85.6589
78.1957
62.0504
39.9462
14.9444
-10.0579
-32.7953
-52.0097
-67.6844
-81.0972
-94.6646
-111.577
-135.25
-168.658
-213.648
-270.35
-336.803
-408.89
-480.632
-544.815
-593.884
-620.971
-620.891
-590.972
-531.557
-446.122
-340.969
-224.55
-106.501
3.46248
96.6543
166.37
208.573
222.234
209.297
174.288
123.645
64.8637
5.57311
-47.3348
-88.4227
-114.195
-123.315
-116.545
-96.4469
-66.8915
-32.461
2.17544
32.8342
56.2732
70.4863
74.8164
69.8914
57.4094
39.8134
19.9096
0.479466
-16.0631
-27.9336
-34.1325
-34.4862
-29.5814
-20.6108
-9.15983
3.03347
14.312
23.2984
29.0373
31.0696
29.4359
24.6164
17.4222
8.85511
-0.0396749
-8.31156
-15.214
-20.2752
-23.3248
-24.4775
-24.0798
-22.6303
-20.6861
-18.7686
-17.2785
-16.432
-16.2207
-16.4009
-16.5109
-15.9155
-13.874
-9.62745
-2.4992
7.99847
22.0616
39.506
59.706
81.5719
103.576
123.835
140.25
150.692
153.226
146.347
129.194
101.73
64.8334
20.3075
-29.2205
-80.5007
-129.945
-173.966
-209.334
-233.502
-244.875
-242.965
-228.445
-203.058
-169.43
-130.777
-90.566
-52.1569
-18.4739
8.26129
26.7042
36.4559
38.0237
32.685
22.277
8.94182
-5.13997
-17.9959
-28.0608
-34.3095
-36.3143
-34.2257
-28.6881
-20.7051
-11.4771
-2.23115
5.93202
12.1608
15.9306
17.074
15.7628
12.451
7.78836
2.51938
-2.61895
-6.98733
-10.1128
-11.7291
-11.7877
-10.44
-7.99709
-4.8735
-1.52469
1.61425
4.18071
5.92195
6.7149
6.56759
5.60407
4.0365
2.12916
0.159885
-1.61607
-2.99533
-3.8459
-4.11541
-3.82803
-3.07164
-1.97768
-0.697158
0.623726
1.86488
2.94773
3.84297
4.57003
5.18899
5.78647
6.45833
7.29173
8.34957
9.65936
11.2082
12.9438
14.782
16.618
18.3407
19.847
21.0548
21.9122
22.4028
22.5453
22.3894
22.0079
21.4858
20.9098
20.3573
19.8886
19.5408
19.3256
19.2307
19.2235
19.257
19.2769
19.2288
19.0648
18.7486
18.2582
17.5873
16.7447
15.7514
14.6376
13.4386
12.1906
10.9277
9.6791
8.4676
7.30928
6.21413
5.18747
4.23174
3.34827
2.53881
1.80635
1.15516
0.590131
0.11534
-0.267629
-0.561457
-0.774501
-0.921555
-1.02374
-1.10746
-1.20241
-1.3389
-1.5446
-1.84129
-2.24171
-2.74716
-3.34608
-4.01384
-4.71403
-5.40103
-6.02383
-6.53072
-6.8744
-7.01683
-6.93343
-6.61587
-6.07329
-5.33173
-4.43185
-3.42522
-2.3697
-1.32445
-0.345014
0.520947
1.23688
1.77936
2.13873
2.31847
2.33328
2.20649
1.96674
1.64468
1.26986
0.868212
0.460282
0.0603921
-0.323379
-0.68849
-1.03671
-1.37263
-1.70208
-2.03069
-2.36273
-2.70021
-3.04225
-3.38473
-3.71999
-4.03659
-4.31903
-4.54751
-4.69773
-4.74103
-4.64494
-4.37422
-3.8927
-3.1656
-2.16263
-0.861528
0.747952
2.65993
4.84854
7.26481
9.83492
12.4605
15.0214
17.3813
19.3968
20.928
21.8517
22.0744
21.5442
20.2594
18.2729
15.6904
12.6632
9.37475
6.02422
2.80672
-0.105386
-2.57887
-4.53127
-5.93652
-6.82399
-7.27127
-7.39181
-7.31913
-7.18963
-7.12619
-7.22432
-7.54241
-8.09688
-8.86255
-9.77778
-10.7536
-11.6855
-12.4666
-12.9999
-13.2099
-13.0505
-12.5095
-11.6094
-10.4044
-8.97371
-7.41323
-5.82537
-4.30921
-2.95147
-1.81959
-0.957207
-0.382496
-0.0891858
-0.0498611
-0.220941
-0.548594
-0.974835
-1.44312
-1.90296
-2.31313
-2.64353
-2.87557
-3.00142
-3.02246
-2.94716
-2.78885
-2.5637
-2.28891
-1.98142
-1.65709
-1.33015
-1.01306
-0.716423
-0.448969
-0.217566
-0.0271053
0.11967
0.222451
0.283772
0.309515
0.30947
0.297764
0.292955
0.317541
0.396715
0.556333
0.820256
1.20739
1.72889
2.38599
3.16884
4.05673
5.01955
6.02054
7.01975
7.97793
8.86021
9.63916
10.2967
10.8252
11.2264
11.5106
11.6939
11.7952
11.834
11.8273
11.7881
11.724
11.6374
11.5257
11.3826
11.199
10.9652
10.6717
10.3105
9.87537
9.36165
8.76598
8.08538
7.3167
6.45643
5.50154
4.45152
3.31202
2.10042
0.853737
-0.361181
-1.43511
-2.20259
-2.42861
-1.79934
0.078373
3.66257
9.44083
17.8695
29.2869
43.8058
61.1979
80.7902
101.398
121.321
138.419
150.281
154.476
148.863
131.921
103.043
62.7585
12.819
-43.8601
-103.421
-161.42
-213.291
-254.832
-282.687
-294.722
-290.274
-270.215
-236.853
-193.652
-144.837
-94.9211
-48.217
-8.3987
21.8454
41.0253
48.9137
46.4633
35.5973
18.9071
-0.700056
-20.3577
-37.5587
-50.4013
-57.7405
-59.2356
-55.2972
-46.9518
-35.6466
-23.0251
-10.7034
-0.0744153
7.83917
12.4702
13.7267
11.9504
7.82571
2.25598
-3.77423
-9.33234
-13.65
-16.2029
-16.7508
-15.3382
-12.2588
-7.99195
-3.12287
1.74244
6.05585
9.39032
11.4813
12.2436
11.7635
10.2708
8.09553
5.6162
3.20786
1.19554
-0.181165
-0.789198
-0.607684
0.281057
1.71248
3.4689
5.31231
7.01634
8.39357
9.31521
9.72154
9.62263
9.09044
8.24386
7.22939
6.20025
5.29647
4.62849
4.26577
4.23139
4.50281
5.01793
5.68543
6.39778
7.04499
7.5277
7.768
7.71703
7.35877
6.70995
5.81638
4.74635
3.58217
2.41076
1.31451
0.363306
-0.391534
-0.920838
-1.21856
-1.30024
-1.19933
-0.961971
-0.640954
-0.289515
0.044218
0.321668
0.516719
0.616936
0.623111
0.547395
0.410349
0.237385
0.0550811
-0.112201
-0.24502
-0.330639
-0.363793
-0.346448
-0.286742
-0.197326
-0.0934653
0.00879747
0.0941066
0.148716
0.160808
0.120294
0.0182907
-0.153466
-0.403028
-0.738262
-1.16643
-1.69333
-2.32228
-3.05299
-3.88078
-4.79628
-5.78574
-6.83197
-7.91578
-9.01768
-10.1196
-11.206
-12.2649
-13.2882
-14.2707
-15.2097
-16.1036
-16.9509
-17.7491
-18.4945
-19.1818
-19.8045
-20.3557
-20.8281
-21.2153
-21.511
-21.71
-21.8072
-21.7976
-21.6758
-21.4365
-21.0747
-20.5866
-19.9704
-19.2283
-18.3665
-17.3968
-16.3358
-15.2048
-14.0273
-12.828
-11.6294
-10.4507
-9.30577
-8.20305
-7.14579
-6.13359
-5.16447
-4.23705
-3.35256
-2.51619
-1.73749
-1.02979
-0.408627
0.110398
0.514168
0.794426
0.949651
0.986113
0.917932
0.766116
0.556703
0.31827
0.0791397
-0.135348
-0.305153
-0.417166
-0.465989
-0.453807
-0.389414
-0.286575
-0.161954
-0.0329001
0.0846529
0.177918
0.238467
0.262841
0.252593
0.213843
0.156504
0.0932991
0.0386801
0.00769192
0.0147916
0.0726305
0.190829
0.374817
0.624871
0.935471
1.29515
1.68693
2.08938
2.47824
2.82855
3.11695
3.32386
3.43531
3.44415
3.3503
3.16029
2.8859
2.54235
2.14621
1.71349
1.25806
0.790797
0.319456
-0.150753
-0.616023
-1.07254
-1.51515
-1.93636
-2.32598
-2.67156
-2.95942
-3.17625
-3.31094
-3.35626
-3.31015
-3.17632
-2.96416
-2.68791
-2.36535
-2.01601
-1.65946
-1.3136
-0.99333
-0.7095
-0.468233
-0.270362
-0.110837
0.0220952
0.147999
0.295521
0.50343
0.820819
1.30582
2.02229
3.03425
4.39847
6.15582
8.32285
10.8849
13.792
16.959
20.2701
23.5874
26.7636
29.6557
32.1395
34.1223
35.5514
36.419
36.7606
36.6495
36.1856
35.4832
34.6565
33.8064
33.0101
32.314
31.731
31.2427
30.8038
30.351
29.8117
29.1134
28.192
26.9982
25.5016
23.6924
21.5816
19.1993
16.5914
13.8161
10.9398
8.03316
5.16738
2.41179
-0.16749
-2.50711
-4.54372
-6.20868
-7.41992
-8.07124
-8.01993
-7.07459
-4.98636
-1.44788
3.89474
11.4117
21.4374
34.1955
49.7062
67.6865
87.4605
107.901
127.427
144.071
155.625
159.865
154.826
139.094
112.08
74.2151
27.0491
-26.7975
-83.8158
-139.92
-190.85
-232.622
-261.964
-276.677
-275.884
-260.129
-231.31
-192.461
-147.409
-100.355
-55.4168
-16.215
14.4788
34.973
44.7546
44.449
35.6563
20.6888
2.25176
-16.8955
-34.2524
-47.8327
-56.3353
-59.2194
-56.6824
-49.554
-39.126
-26.9451
-14.5971
-3.50926
5.20601
10.8535
13.1946
12.4275
9.11441
4.07281
-1.75407
-7.42861
-12.1358
-15.2727
-16.5029
-15.7711
-13.2821
-9.44891
-4.82036
0.00160152
4.4426
8.02547
10.421
11.4752
11.2128
9.81731
7.59437
4.92276
2.20149
-0.20075
-1.98759
-2.9641
-3.05077
-2.28211
-0.791535
1.21417
3.48675
5.76999
7.8308
9.48403
10.6088
11.1554
11.1422
10.6457
9.78344
8.69503
7.52226
6.3916
5.40087
4.6111
4.04416
3.68546
3.49094
3.39678
3.33039
3.22111
3.00967
2.65541
2.14086
1.47357
0.685143
-0.171971
-1.02978
-1.81134
-2.43817
-2.83777
-2.95085
-2.73753
-2.18226
-1.2969
-0.121809
1.2754
2.80349
4.35359
5.80703
7.04463
7.95644
8.45121
8.46442
7.96422
6.95454
5.47511
3.59813
1.4222
-0.936221
-3.35276
-5.70559
-7.88533
-9.80339
-11.398
-12.6372
-13.5192
-14.069
-14.3334
-14.3732
-14.2553
-14.0444
-13.7954
-13.5484
-13.325
-13.1277
-12.9415
-12.7379
-12.48
-12.1289
-11.6494
-11.0159
-10.2161
-9.25329
-8.14643
-6.92845
-5.64261
-4.33786
-3.06361
-1.86456
-0.776401
0.177363
0.986901
1.65593
2.20002
2.64365
3.01651
3.34954
3.67124
4.00467
4.36546
4.76097
5.19053
5.64662
6.11673
6.58554
7.0371
7.45665
7.83206
8.15459
8.41905
8.6235
8.76854
8.85637
8.88987
8.8717
8.80366
8.68637
8.51917
8.30037
8.0277
7.6989
7.31239
6.86787
6.36695
5.81358
5.21443
4.57898
3.91957
3.25099
2.58993
1.95404
1.36064
0.825315
0.360259
-0.0271308
-0.33543
-0.56979
-0.741862
-0.868989
-0.972688
-1.07661
-1.20417
-1.37617
-1.60856
-1.91083
-2.28487
-2.72476
-3.21722
-3.74286
-4.27791
-4.79641
-5.27256
-5.68296
-6.00866
-6.23675
-6.36142
-6.38426
-6.31407
-6.1658
-5.95909
-5.71632
-5.46034
-5.21231
-4.98956
-4.804
-4.6611
-4.5596
-4.49206
-4.44608
-4.40609
-4.3555
-4.27892
-4.16418
-4.00382
-3.7961
-3.54512
-3.2602
-2.95465
-2.64392
-2.34353
-2.06708
-1.8245
-1.6209
-1.45618
-1.32534
-1.21954
-1.12767
-1.0382
-0.940953
-0.828676
-0.698062
-0.550145
-0.390044
-0.22611
-0.0686375
0.0716606
0.185178
0.264735
0.306518
0.310526
0.280503
0.223382
0.148357
0.0657176
-0.0143634
-0.0829276
-0.133048
-0.160247
-0.162462
-0.139561
-0.0924981
-0.0222711
0.0711295
0.189564
0.337206
0.52051
0.747664
1.02758
1.36854
1.77674
2.25486
2.80092
3.40768
4.0625
4.74801
5.44333
6.12587
6.7735
7.3668
7.89124
8.33874
8.70853
9.00686
9.24554
9.43929
9.60216
9.74358
9.86455
9.95482
9.99184
9.94194
9.76429
9.4176
8.86931
8.10691
7.15036
6.06519
4.975
4.07255
3.62775
3.99049
5.5849
8.89093
14.4085
22.6007
33.814
48.1812
65.5154
85.2133
106.19
126.869
145.243
159.026
165.871
163.663
150.817
126.576
91.2219
46.1898
-5.96265
-61.7326
-116.986
-167.372
-208.794
-237.86
-252.282
-251.131
-234.952
-205.699
-166.505
-121.325
-74.4899
-30.232
7.75736
36.6888
54.9144
62.0229
58.7887
46.9895
29.1243
8.07087
-13.2703
-32.3037
-47.0006
-56.0712
-59.0327
-56.177
-48.45
-37.267
-24.2905
-11.2044
0.491662
9.64206
15.5358
17.9419
17.0824
13.5525
8.20384
2.0093
-4.0721
-9.21346
-12.8085
-14.5227
-14.3047
-12.3604
-9.09866
-5.05624
-0.815553
3.07463
6.16555
8.15499
8.91035
8.4677
7.00972
4.82755
2.27313
-0.290822
-2.53648
-4.20699
-5.13921
-5.27194
-4.63991
-3.35639
-1.58761
0.47632
2.6499
4.77634
6.74447
8.49704
10.0302
11.3851
12.6343
13.8643
15.1584
16.5818
18.1705
19.9268
21.8192
23.7889
25.7591
27.6478
29.3791
30.8945
32.1597
33.1684
33.941
34.5194
34.9596
35.3217
35.6608
36.018
36.4153
36.8524
37.3076
37.7417
38.1038
38.3393
38.3972
38.2366
37.8319
37.1744
36.2725
35.1477
33.8298
32.3504
30.7362
29.0049
27.1618
25.2011
23.1086
20.8682
18.4689
15.9116
13.2147
10.4166
7.57568
4.76613
2.07164
-0.423003
-2.64076
-4.52049
-6.02317
-7.13547
-7.8703
-8.26429
-8.37285
-8.26337
-8.0077
-7.67479
-7.32423
-7.00169
-6.73623
-6.53993
-6.40947
-6.32939
-6.27638
-6.22416
-6.14818
-6.02979
-5.85928
-5.63774
-5.37755
-5.10151
-4.84097
-4.6331
-4.51771
-4.53399
-4.71752
-5.09771
-5.69604
-6.52497
-7.58751
-8.87734
-10.3792
-12.0693
-13.9154
-15.8766
-17.9018
-19.9274
-21.8739
-23.6428
-25.1137
-26.1433
-26.5685
-26.2139
-24.9046
-22.4831
-18.8302
-13.8862
-7.66904
-0.287408
8.05563
17.0691
26.3916
35.6183
44.335
52.1549
58.7537
63.8994
67.4718
69.4707
70.0107
69.3045
67.6366
65.3307
62.7149
60.0885
57.6953
55.7032
54.1956
53.1713
52.5545
52.2122
51.9763
51.6682
51.1219
50.2037
48.8262
46.9557
44.612
41.8624
38.8101
35.5798
32.302
29.0985
26.0698
23.2868
20.7871
18.5749
16.6254
14.8921
13.3163
11.8367
10.3989
8.96323
7.50954
6.03956
4.57567
3.15694
1.83308
0.656977
-0.322878
-1.06932
-1.5617
-1.79891
-1.7998
-1.60115
-1.25355
-0.815769
-0.348384
0.0924251
0.46028
0.722533
0.862379
0.879022
0.78602
0.60815
0.377296
0.127914
-0.107326
-0.301248
-0.434821
-0.498554
-0.492595
-0.425647
-0.312956
-0.173722
-0.0282925
0.104472
0.209373
0.276359
0.301213
0.285445
0.235476
0.161311
0.0748968
-0.0115817
-0.0872497
-0.143764
-0.176086
-0.18276
-0.165716
-0.129691
-0.0814023
-0.0286346
0.020574
0.0585269
0.0781599
0.0730293
0.0370725
-0.0357207
-0.151553
-0.316815
-0.537719
-0.819549
-1.16561
-1.57609
-2.04698
-2.56945
-3.12974
-3.7098
-4.28855
-4.84379
-5.35435
-5.8024
-6.17546
-6.46795
-6.68205
-6.82779
-6.92229
-6.98826
-7.05186
-7.14012
-7.27814
-7.48646
-7.77877
-8.16042
-8.62811
-9.17096
-9.77325
-10.4187
-11.096
-11.8048
-12.5607
-13.399
-14.3741
-15.5559
-17.02
-18.8349
-21.045
-23.6518
-26.5949
-29.7356
-32.844
-35.5927
-37.5592
-38.2398
-37.0781
-33.5105
-27.0296
-17.2649
-4.07446
12.362
31.4628
52.1942
73.0689
92.2065
107.466
116.643
117.724
109.156
90.1138
60.7017
22.0706
-23.5899
-73.1897
-123.004
-169.035
-207.435
-234.929
-249.183
-249.079
-234.844
-208.029
-171.327
-128.27
-82.8331
-38.9987
-0.335021
30.357
51.2945
61.8328
62.4494
54.601
40.4801
22.7061
3.99232
-13.1681
-26.7643
-35.4487
-38.624
-36.4334
-29.6649
-19.5887
-7.75342
4.22898
14.8842
23.0385
27.9276
29.2449
27.1279
22.0925
14.9284
6.57326
-2.01753
-9.98694
-16.6671
-21.6359
-24.7358
-26.0579
-25.8968
-24.685
-22.9181
-21.0803
-19.5805
-18.7052
-18.5924
-19.2275
-20.4602
-22.0371
-23.6446
-24.957
-25.6815
-25.5963
-24.5768
-22.6086
-19.7853
-16.2939
-12.3902
-8.36626
-4.51733
-1.10899
1.64943
3.62357
4.76297
5.1
4.7396
3.84188
2.59996
1.21627
-0.120157
-1.25258
-2.06995
-2.51383
-2.57848
-2.30499
-1.77055
-1.07483
-0.325131
0.377532
0.950096
1.33554
1.50688
1.46706
1.24517
0.889819
0.460885
0.0207852
-0.373629
-0.677561
-0.862554
-0.918253
-0.85172
-0.684641
-0.449006
-0.181968
0.0793893
0.302702
0.463892
0.549297
0.556271
0.492331
0.373121
0.21957
0.0546957
-0.0995213
-0.224788
-0.308409
-0.344288
-0.332988
-0.280952
-0.199066
-0.100814
-0.000304717
0.0895685
0.158623
0.20038
0.212482
0.196558
0.157589
0.102925
0.0411117
-0.0193126
-0.0708927
-0.108078
-0.127717
-0.129204
-0.114277
-0.0865573
-0.0508907
-0.0126079
0.0231972
0.0522833
0.0717047
0.0800441
0.077429
0.0653513
0.0463348
0.0235085
0.000148185
-0.0207509
-0.036821
-0.0465534
-0.0493966
-0.0457243
-0.0366903
-0.0240001
-0.00963818
0.00441139
0.0164145
0.0250785
0.0296681
0.0300386
0.0265912
0.020165
0.0118845
0.00298824
-0.00533945
-0.0121114
-0.0166409
-0.0185962
-0.0180049
-0.0152115
-0.0108013
-0.0055006
-7.08e-05
0.00479143
0.00853473
0.0108071
0.0114787
0.0106352
0.00854349
0.00559917
0.00226315
-0.00100331
-0.00379574
-0.00580548
-0.0068219
-0.00666164
-0.00496374
-0.00077276
0.00815795
0.0263597
0.061868
0.127496
0.24191
0.430224
0.7239
1.15984
1.77875
2.62294
3.73386
5.14957
6.90229
9.01611
11.5049
14.3701
17.5992
21.1641
25.0206
29.109
33.3553
37.6753
41.9783
46.1733
50.1751
53.9098
57.3208
60.3714
63.0477
65.3569
67.3257
68.9951
70.4151
71.6376
72.7109
73.673
74.5482
75.344
76.0508
76.6427
77.0798
77.3116
77.28
76.9229
76.1771
74.981
73.2771
71.0152
68.1559
64.6743
60.5653
55.8482
50.5717
44.8169
38.6991
32.3657
25.9915
19.7694
13.8988
8.57095
3.95378
0.17761
-2.67673
-4.58552
-5.58463
-5.7662
-5.26994
-4.26985
-2.95779
-1.52587
-0.149508
1.02695
1.90067
2.41572
2.56336
2.37729
1.92486
1.29556
0.588228
-0.10144
-0.691633
-1.12243
-1.36037
-1.39936
-1.25833
-0.975991
-0.60397
-0.198989
0.184635
0.501403
0.719257
0.822044
0.809742
0.696628
0.507817
0.274673
0.0297217
-0.198364
-0.389136
-0.533642
-0.636204
-0.714493
-0.797827
-0.923891
-1.13428
-1.4695
-1.96419
-2.6433
-3.51974
-4.5938
-5.8542
-7.28032
-8.84484
-10.5163
-12.2605
-14.0412
-15.8197
-17.5529
-19.1926
-20.6846
-21.97
-22.9875
-23.6795
-23.9985
-23.9164
-23.4329
-22.5837
-21.4453
-20.1367
-18.8153
-17.6681
-16.8965
-16.6976
-17.2427
-18.6553
-20.9924
-24.2306
-28.26
-32.8862
-37.8417
-42.8054
-47.4258
-51.3467
-54.2303
-55.7733
-55.7158
-53.8417
-49.9742
-43.9709
-35.7259
-25.1832
-12.3678
2.56784
19.2843
37.194
55.4129
72.7417
87.6922
98.5723
103.629
101.245
90.1615
69.7102
40.0009
2.04448
-42.2263
-90.0512
-138.053
-182.542
-219.889
-246.905
-261.195
-261.426
-247.477
-220.459
-182.586
-136.935
-87.1073
-36.8584
10.2821
51.3346
84.1143
107.368
120.8
124.991
121.229
111.291
97.1906
80.9398
64.3443
48.8513
35.4635
24.7167
16.7163
11.218
7.73546
5.65812
4.3621
3.30123
2.07015
0.435558
-1.6629
-4.13739
-6.79458
-9.38762
-11.6687
-13.435
-14.5618
-15.021
-14.8832
-14.3047
-13.5043
-12.7319
-12.2356
-12.231
-12.8759
-14.2546
-16.3721
-19.1574
-22.4766
-26.1511
-29.9788
-33.7552
-37.2909
-40.4239
-43.0252
-44.9983
-46.275
-46.8067
-46.5575
-45.4982
-43.6041
-40.858
-37.257
-32.8219
-27.6079
-21.7136
-15.2854
-8.51642
-1.63876
5.09113
11.412
17.0804
21.8929
25.7062
28.4507
30.1371
30.8549
30.762
30.0675
29.0101
27.8338
26.7638
25.9861
25.6322
25.7705
26.4044
27.4782
28.8877
30.4958
32.1491
33.6956
34.9999
35.9553
36.4915
36.578
36.2227
35.4669
34.3776
33.0372
31.534
29.9519
28.3619
26.8162
25.3442
23.951
22.6199
21.316
19.9929
18.6007
17.094
15.4403
13.6263
11.6625
9.58394
7.44873
5.33277
3.3222
1.50424
-0.0424077
-1.25639
-2.10062
-2.56641
-2.67432
-2.47181
-2.02776
-1.42497
-0.751237
-0.0904879
0.485327
0.922432
1.18903
1.27641
1.19733
0.982295
0.67401
0.321128
-0.0281352
-0.331637
-0.557656
-0.687527
-0.716444
-0.652503
-0.514285
-0.327426
-0.120704
0.0778195
0.244093
0.360419
0.416579
0.409684
0.342865
0.223145
0.0589285
-0.142358
-0.375995
-0.640706
-0.938246
-1.27191
-1.64421
-2.05427
-2.4953
-2.9528
-3.40386
-3.81781
-4.15822
-4.38613
-4.46415
-4.36084
-4.055
-3.53904
-2.82122
-1.92631
-0.894583
0.220742
1.35743
2.44904
3.43007
4.24099
4.83254
5.16879
5.22882
5.00671
4.51008
3.75732
2.77403
1.58914
0.231234
-1.27443
-2.90778
-4.65455
-6.50556
-8.45496
-10.4977
-12.6269
-14.8312
-17.0932
-19.3891
-21.689
-23.9589
-26.163
-28.2663
-30.2366
-32.0457
-33.6696
-35.0875
-36.2807
-37.2308
-37.9189
-38.326
-38.4343
-38.2292
-37.7029
-36.8572
-35.706
-34.2764
-32.6087
-30.7539
-28.7706
-26.7199
-24.6604
-22.6432
-20.7071
-18.8761
-17.1576
-15.5442
-14.0159
-12.5452
-11.1029
-9.66403
-8.21334
-6.74921
-5.28539
-3.8504
-2.48455
-1.23495
-0.149433
0.729961
1.37287
1.76508
1.91095
1.83354
1.57241
1.1795
0.71354
0.233917
-0.205326
-0.560592
-0.802328
-0.916732
-0.905474
-0.783531
-0.575532
-0.311137
-0.0201123
0.272268
0.548895
0.803157
1.03967
1.27343
1.52749
1.82963
2.20838
2.68913
3.29057
4.02234
4.88379
5.86438
6.94544
8.10303
9.3116
10.5476
11.793
13.0372
14.2784
15.5228
16.7826
18.0728
19.4074
20.7954
22.2373
23.7226
25.2294
26.7251
28.1694
29.5182
30.7289
31.7657
32.6041
33.2342
33.6613
33.905
33.9945
33.9621
33.8358
33.6296
33.3369
32.9242
32.329
31.4626
30.2162
28.4728
26.1213
23.0727
19.2756
14.729
9.49012
3.6775
-2.53306
-8.9173
-15.2151
-21.144
-26.4113
-30.721
-33.7764
-35.2771
-34.9154
-32.3761
-27.3487
-19.5568
-8.81169
4.91235
21.3862
40.033
59.8555
79.4072
96.8296
109.97
116.581
114.583
102.369
79.0893
44.8939
1.06096
-50.0045
-104.923
-159.635
-209.807
-251.293
-280.606
-295.314
-294.328
-278.033
-248.236
-207.964
-161.107
-111.987
-64.8762
-23.5521
9.07381
31.2092
42.2898
42.9422
34.8139
20.2992
2.20221
-16.6184
-33.5797
-46.6429
-54.4916
-56.6096
-53.2548
-45.3448
-34.2742
-21.693
-9.27711
1.48268
9.44668
13.9337
14.7616
12.2227
7.00313
0.0624982
-7.50957
-14.6384
-20.3939
-24.0906
-25.3483
-24.11
-20.6187
-15.3608
-8.98497
-2.20903
4.27186
9.86587
14.1447
16.8781
18.0409
17.7949
16.4495
14.4085
12.1107
9.97227
8.33802
7.44575
7.40793
8.21057
9.72789
11.7494
14.0149
16.2522
18.2124
19.6989
20.587
20.8323
20.468
19.5931
18.3531
16.9168
15.4525
14.1066
12.9873
12.1545
11.6175
11.3389
11.2449
11.2387
11.2161
11.081
10.7575
10.1994
9.394
8.36154
7.14985
5.82579
4.46459
3.13876
1.90808
0.812073
-0.13425
-0.94092
-1.63995
-2.27935
-2.91511
-3.60256
-4.38817
-5.30307
-6.35908
-7.54777
-8.84242
-10.2026
-11.5808
-12.929
-14.2062
-15.3835
-16.4474
-17.4007
-18.2601
-19.0524
-19.808
-20.5547
-21.3108
-22.0809
-22.8523
-23.5955
-24.2662
-24.8099
-25.1683
-25.2865
-25.1193
-24.6376
-23.8321
-22.7152
-21.3202
-19.6988
-17.9159
-16.0444
-14.158
-12.3253
-10.6043
-9.03803
-7.65239
-6.45512
-5.4371
-4.57498
-3.83514
-3.17839
-2.56506
-1.95981
-1.33579
-0.677657
0.016847
0.736827
1.45974
2.1542
2.78386
3.31174
3.70476
3.9377
3.99635
3.87934
3.59859
3.17815
2.65175
2.05929
1.44264
0.841286
0.288479
-0.191904
-0.587193
-0.896367
-1.12905
-1.30321
-1.4419
-1.56939
-1.70727
-1.87099
-2.06728
-2.29283
-2.5344
-2.77042
-2.97382
-3.1158
-3.16987
-3.11579
-2.94264
-2.65076
-2.25212
-1.76922
-1.23265
-0.677618
-0.140016
0.347505
0.75884
1.07674
1.29386
1.41242
1.4427
1.40064
1.30498
1.17437
1.02495
0.868692
0.712641
0.559126
0.406765
0.252015
0.0909397
-0.079113
-0.258228
-0.443208
-0.627518
-0.801864
-0.95528
-1.07654
-1.1557
-1.18545
-1.16228
-1.08703
-0.965064
-0.80578
-0.621697
-0.427187
-0.236999
-0.0647825
0.0782248
0.184198
0.249307
0.273837
0.261855
0.220483
0.158901
0.0871917
0.0151868
-0.0485585
-0.0975566
-0.127871
-0.138263
-0.130016
-0.106489
-0.0724755
-0.0334649
0.00509854
0.038468
0.0630917
0.0769102
0.0794398
0.0716539
0.0556994
0.0344995
0.0113047
-0.0107475
-0.0290107
-0.0416057
-0.0475706
-0.0468808
-0.0403493
-0.0294345
-0.0159866
-0.00197328
0.0107794
0.0208014
0.0271245
0.0293499
0.0276373
0.0226246
0.0152965
0.0068238
-0.00160194
-0.0089115
-0.0142468
-0.0169538
-0.0164266
-0.0117522
-0.00112223
0.0189707
0.0546696
0.115668
0.215888
0.373685
0.611371
0.953921
1.42687
2.05359
2.85217
3.83242
4.9934
6.32184
7.79185
9.36607
10.9982
12.6365
14.2286
15.7261
17.0885
18.2874
19.3077
20.1485
20.8209
21.3453
21.7466
22.0491
22.2714
22.4223
22.4976
22.4795
22.3374
22.0314
21.5172
20.7521
19.7019
18.3469
16.6879
14.7505
12.5867
10.2768
7.92824
5.6751
3.67857
2.12879
1.24883
1.29948
2.58167
5.43192
10.2048
17.2369
26.7889
38.9664
53.6287
70.2967
88.0828
105.663
121.309
133.002
138.611
136.14
124.009
101.325
68.1104
25.4375
-24.5522
-78.7688
-133.425
-184.395
-227.645
-259.668
-277.882
-280.93
-268.841
-243.032
-206.149
-161.773
-114.02
-67.0909
-24.8323
9.64885
34.2663
48.1054
51.4319
45.5676
32.6545
15.3446
-3.5432
-21.356
-35.8906
-45.5987
-49.696
-48.1713
-41.7028
-31.5019
-19.1085
-6.16929
5.77419
15.462
22.0393
25.117
24.769
21.4729
16.0071
9.3221
2.40393
-3.85163
-8.74031
-11.8157
-12.916
-12.1526
-9.8649
-6.55201
-2.79083
0.84639
3.86552
5.90632
6.77543
6.45496
5.08792
2.94489
0.377934
-2.23099
-4.52029
-6.19136
-7.03905
-6.96751
-5.9908
-4.21997
-1.83957
0.922202
3.82533
6.64732
9.20667
11.378
13.0979
14.3615
15.2121
15.725
15.9898
16.093
16.104
16.0659
15.9918
15.8677
15.6586
15.3191
14.8042
14.0804
13.1333
11.973
10.6349
9.17616
7.67009
6.19715
4.83568
3.65283
2.69708
1.99342
1.54148
1.31691
1.27556
1.3599
1.50665
1.65459
1.75165
1.76028
1.66069
1.4516
1.14858
0.780528
0.384614
0.00071844
-0.334115
-0.590448
-0.749985
-0.807577
-0.771606
-0.662823
-0.511874
-0.355803
-0.233931
-0.183503
-0.235532
-0.411233
-0.719397
-1.15497
-1.69903
-2.32006
-2.97663
-3.62093
-4.20308
-4.67564
-4.99778
-5.13887
-5.08098
-4.82004
-4.36564
-3.73951
-2.97297
-2.10376
-1.17257
-0.219799
0.71711
1.60566
2.41932
3.13781
3.74658
4.23597
4.6001
4.83592
4.94256
4.92116
4.77515
4.51087
4.13842
3.67229
3.13176
2.54063
1.92622
1.31778
0.74412
0.231137
-0.200795
-0.538919
-0.77945
-0.927903
-0.998294
-1.0113
-0.991578
-0.964687
-0.953908
-0.977511
-1.04676
-1.1649
-1.32727
-1.52238
-1.73388
-1.94308
-2.13155
-2.28378
-2.38923
-2.44378
-2.45038
-2.41886
-2.36495
-2.3087
-2.27241
-2.27834
-2.34642
-2.4921
-2.72467
-3.046
-3.44997
-3.92249
-4.4423
-4.98226
-5.51134
-5.99688
-6.40715
-6.71398
-6.89508
-6.93605
-6.83169
-6.58654
-6.21455
-5.73786
-5.1848
-4.58726
-3.9778
-3.38667
-2.83923
-2.35397
-1.9414
-1.60393
-1.33667
-1.129
-0.966735
-0.834441
-0.717691
-0.6049
-0.488562
-0.365769
-0.238009
-0.110335
0.00989788
0.114536
0.196109
0.249097
0.270819
0.261842
0.225904
0.169388
0.100463
0.0280284
-0.0393754
-0.094543
-0.132345
-0.150147
-0.147861
-0.127646
-0.0933073
-0.0495066
-0.000924484
0.0484715
0.0959182
0.140018
0.180551
0.217987
0.252817
0.284866
0.31276
0.333705
0.343664
0.337951
0.31213
0.263097
0.190107
0.095566
-0.0146036
-0.131111
-0.241986
-0.333726
-0.392732
-0.406826
-0.366611
-0.266458
-0.104987
0.11503
0.387314
0.703165
1.05283
1.42693
1.81782
2.22058
2.63368
3.05909
3.50198
3.96992
4.47174
5.0162
5.61058
6.25939
6.9633
7.71852
8.51657
9.34463
10.1864
11.0232
11.836
12.6065
13.3195
13.9642
14.5349
15.0321
15.4615
15.8337
16.1622
16.4615
16.7441
17.0185
17.2864
17.5407
17.7646
17.9312
18.0041
17.9386
17.6846
17.1895
16.4011
15.2718
13.7622
11.8446
9.50622
6.75233
3.60806
0.119868
-3.64389
-7.59332
-11.6179
-15.5874
-19.3531
-22.7465
-25.5781
-27.6322
-28.6623
-28.3853
-26.4809
-22.5986
-16.3779
-7.4866
4.32091
19.1266
36.7592
56.7053
78.0381
99.3851
118.955
134.635
144.169
145.395
136.532
116.464
84.9894
42.9872
-7.53728
-63.5451
-121.197
-176.208
-224.28
-261.561
-285.073
-293.053
-285.15
-262.473
-227.463
-183.615
-135.092
-86.264
-41.2492
-3.4953
24.5399
41.5804
47.5798
43.6274
31.7333
14.5262
-5.09497
-24.3097
-40.6847
-52.4099
-58.4394
-58.5295
-53.1797
-43.492
-30.9728
-17.3089
-4.14406
7.11394
15.4383
20.2655
21.5132
19.5366
15.0367
8.93602
2.24071
-4.09288
-9.27035
-12.7394
-14.2307
-13.7597
-11.5922
-8.18234
-4.09462
0.0802963
3.80328
6.64967
8.35089
8.81184
8.10447
6.44102
4.13224
1.53774
-0.984576
-3.12354
-4.64891
-5.43177
-5.44984
-4.77869
-3.57151
-2.03114
-0.378783
1.17624
2.46194
3.36156
3.82234
3.85504
3.52517
2.93795
2.21964
1.49812
0.885336
0.463913
0.279177
0.337326
0.609358
1.03973
1.55816
2.09259
2.58139
2.98309
3.28232
3.49147
3.64802
3.80828
4.03862
4.40564
4.96665
5.76177
6.80857
8.09953
9.60256
11.2639
13.0128
14.7671
16.4389
17.94
19.1866
20.1033
20.6264
20.7071
20.3136
19.434
18.0773
16.2745
14.0787
11.5629
8.81694
5.94305
3.04941
0.243545
-2.37474
-4.71987
-6.7257
-8.3491
-9.57131
-10.3971
-10.8519
-10.9773
-10.8256
-10.4536
-9.91748
-9.26795
-8.54697
-7.78613
-7.00635
-6.21909
-5.42833
-4.63312
-3.8302
-3.01616
-2.189
-1.34896
-0.498572
0.357844
1.2151
2.06814
2.9129
3.74682
4.56902
5.37989
6.18036
6.97097
7.75081
8.51658
9.26189
9.97691
10.6484
11.2603
11.7942
12.2312
12.5524
12.7411
12.7836
12.6711
12.3997
11.9719
11.3962
10.6868
9.86298
8.948
7.96729
6.94687
5.91155
4.88324
3.87954
2.91274
1.98938
1.1104
0.271863
-0.533715
-1.3157
-2.08344
-2.84449
-3.60314
-4.35949
-5.10923
-5.84418
-6.55336
-7.22457
-7.84603
-8.40796
-8.90377
-9.33067
-9.68979
-9.98571
-10.2257
-10.4189
-10.5754
-10.7059
-10.8216
-10.935
-11.0607
-11.2185
-11.4385
-11.7713
-12.3067
-13.2047
-14.7388
-17.3508
-21.7042
-28.7199
-39.5683
-55.5931
-78.1493
-108.358
-146.799
-193.2
-246.178
-303.114
-360.206
-412.742
-455.562
-483.664
-492.871
-480.45
-445.59
-389.645
-316.114
-230.336
-138.936
-49.1153
32.1504
98.8696
146.67
173.224
178.422
164.272
134.563
94.3358
49.2413
4.86687
-33.8774
-63.2495
-80.9895
-86.4327
-80.4263
-65.0742
-43.3572
-18.6863
5.55229
26.4021
41.6486
50.0082
51.1851
45.7997
35.2134
21.28
6.06244
-8.44516
-20.5581
-29.0769
-33.3834
-33.4547
-29.7998
-23.3376
-15.2354
-6.73391
1.01811
7.10012
10.9126
12.219
11.1374
8.08753
3.70481
-1.26398
-6.06871
-10.0531
-12.7297
-13.8259
-13.2966
-11.3077
-8.19277
-4.39318
-0.390485
3.35985
6.48445
8.73181
9.99223
10.2974
9.80139
8.74806
7.42921
6.14112
5.14434
4.63216
4.71073
5.39249
6.60242
8.19502
9.97895
11.7453
13.2953
14.4646
15.1404
15.2701
14.8619
13.976
12.7104
11.1818
9.50624
7.78066
6.06989
4.39937
2.75543
1.09249
-0.653864
-2.55015
-4.64705
-6.9627
-9.46927
-12.084
-14.6652
-17.0121
-18.8676
-19.924
-19.8288
-18.194
-14.6103
-8.66966
-0.00261663
11.6679
26.4539
44.2155
64.4712
86.3216
108.41
128.938
145.76
156.554
159.062
151.388
132.294
101.464
59.6893
8.92334
-47.7987
-106.593
-163.086
-212.854
-251.901
-277.101
-286.551
-279.79
-257.847
-223.128
-179.134
-130.07
-80.3793
-34.2722
4.70146
33.9826
52.2033
59.2401
56.1239
44.8256
27.9525
8.39746
-11.0133
-27.8326
-40.231
-47.1397
-48.2903
-44.1556
-35.8079
-24.7218
-12.548
-0.891017
8.88411
15.7947
19.3213
19.4222
16.4877
11.2457
4.63511
-2.33339
-8.71103
-13.7227
-16.8455
-17.8478
-16.7878
-13.9761
-9.91119
-5.19765
-0.459983
3.73723
6.95346
8.91427
9.52844
8.88045
7.202
4.82822
2.14569
-0.460449
-2.65346
-4.181
-4.89676
-4.76657
-3.86005
-2.33041
-0.386258
1.74007
3.82337
5.67171
7.14528
8.16633
8.72019
8.84829
8.63514
8.1917
7.63788
7.08632
6.62955
6.33168
6.2249
6.3107
6.56485
6.94489
7.39876
7.87316
8.32063
8.7046
9.00192
9.20315
9.31086
9.33653
9.2967
9.20924
9.08997
8.95027
8.79573
8.62577
8.43419
8.21043
7.9412
7.61249
7.21164
6.72937
6.16159
5.51081
4.78694
4.00744
3.19653
2.38366
1.60122
0.881765
0.254933
-0.255461
-0.633939
-0.875128
-0.984552
-0.978327
-0.881705
-0.726601
-0.548293
-0.381632
-0.257168
-0.197632
-0.215242
-0.310195
-0.470628
-0.67411
-0.890561
-1.08624
-1.22832
-1.28945
-1.25163
-1.10892
-0.868572
-0.55038
-0.1844
0.192728
0.542329
0.828504
1.02256
1.1065
1.07505
0.936105
0.709485
0.424278
0.115102
-0.182199
-0.434898
-0.617254
-0.713443
-0.719257
-0.642368
-0.501166
-0.322333
-0.13745
0.0209383
0.123325
0.146821
0.0778697
-0.0862227
-0.337152
-0.65688
-1.02013
-1.39781
-1.76087
-2.08412
-2.34947
-2.54812
-2.6814
-2.76018
-2.80289
-2.8324
-2.87238
-2.94359
-3.06064
-3.2299
-3.44864
-3.70571
-3.98352
-4.26098
-4.517
-4.73387
-4.90006
-5.01191
-5.07408
-5.09859
-5.10278
-5.10643
-5.12853
-5.18406
-5.28127
-5.41964
-5.58883
-5.76888
-5.93166
-6.04356
-6.06908
-5.9751
-5.73504
-5.33245
-4.76345
-4.03762
-3.17733
-2.21536
-1.1915
-0.148358
0.872949
1.83654
2.71465
3.48917
4.1518
4.70296
5.14966
5.50271
5.774
5.97395
6.10982
6.18478
6.19808
6.14598
6.02331
5.8254
5.54991
5.19839
4.77729
4.29826
3.77771
3.23581
2.69494
2.17783
1.70568
1.29643
0.963255
0.713589
0.548618
0.463332
0.447109
0.484786
0.558107
0.647408
0.733356
0.798552
0.828791
0.813836
0.747626
0.627911
0.455425
0.23276
-0.0368515
-0.350599
-0.706798
-1.10509
-1.54604
-2.03024
-2.55693
-3.1225
-3.71912
-4.3337
-4.94752
-5.53673
-6.07358
-6.52847
-6.87248
-7.08021
-7.13237
-7.01802
-6.73601
-6.29543
-5.71509
-5.02198
-4.24894
-3.43171
-2.60581
-1.8035
-1.05122
-0.367704
0.236966
0.761328
1.21164
1.60029
1.94371
2.26024
2.56809
2.88357
3.21987
3.58627
3.98775
4.42496
4.89433
5.38833
5.8957
6.40171
6.88854
7.33569
7.72074
8.02029
8.21127
8.27225
8.18491
7.93508
7.51341
6.91531
6.14031
5.19094
4.07144
2.78667
1.34176
-0.25735
-2.00217
-3.87884
-5.86424
-7.92121
-9.99262
-11.9941
-13.8053
-15.259
-16.1305
-16.1285
-14.8919
-11.9983
-6.99172
0.567595
11.0265
24.5403
40.9619
59.7374
79.8313
99.7059
117.377
130.557
136.877
134.179
120.827
96.0082
59.9587
14.0832
-39.0685
-95.9765
-152.464
-204.117
-246.753
-276.89
-292.14
-291.483
-275.388
-245.753
-205.684
-159.142
-110.492
-64.0304
-23.5318
8.1194
29.1778
39.1415
38.7078
29.5956
14.2646
-4.42876
-23.5904
-40.6222
-53.4893
-60.897
-62.3635
-58.1889
-49.3346
-37.2355
-23.5749
-10.0524
1.82579
10.9114
16.5167
18.4509
16.9903
12.795
6.78585
0.00275571
-6.53722
-11.964
-15.647
-17.2487
-16.735
-14.3471
-10.5422
-5.91222
-1.09514
3.31058
6.81759
9.09968
10.0162
9.61074
8.08615
5.76293
3.02666
0.273224
-2.14137
-3.9406
-4.95261
-5.11937
-4.4905
-3.20426
-1.45968
0.515513
2.49662
4.28927
5.74925
6.79342
7.40125
7.60816
7.49259
7.15929
6.72169
6.28566
5.93671
5.73173
5.69578
5.82351
6.08426
6.42967
6.80231
7.14408
7.4033
7.53996
7.52868
7.3596
7.03754
6.57973
6.01284
5.36964
4.68567
3.99619
3.33348
2.72467
2.19016
1.74262
1.38667
1.11929
0.930728
0.806023
0.726695
0.672553
0.623284
0.559659
0.464246
0.321612
0.118148
-0.15834
-0.518996
-0.97405
-1.53253
-2.20151
-2.98482
-3.88151
-4.88404
-5.97671
-7.13446
-8.3224
-9.4964
-10.6047
-11.5905
-12.3961
-12.9669
-13.2562
-13.2293
-12.8679
-12.1716
-11.1595
-9.86926
-8.35422
-6.6797
-4.91762
-3.14064
-1.41636
0.197947
1.65941
2.94208
4.03759
4.95399
5.71292
6.34539
6.88682
7.37182
7.8294
8.27912
8.72861
9.17279
9.59463
9.96759
10.259
10.4343
10.4612
10.3141
9.97694
9.44578
8.72974
7.85084
6.84257
5.7475
4.61402
3.49265
2.43221
1.47614
0.659355
0.00590285
-0.472409
-0.776298
-0.918191
-0.920432
-0.812712
-0.628985
-0.404213
-0.171257
0.0418022
0.213639
0.330837
0.388149
0.387907
0.338725
0.25369
0.14829
0.0383203
-0.0619897
-0.141445
-0.19283
-0.213279
-0.204081
-0.170027
-0.118401
-0.0577935
0.00310406
0.0565847
0.0967635
0.120097
0.125558
0.114474
0.0900995
0.0569827
0.0202292
-0.0152681
-0.0455699
-0.068366
-0.0835561
-0.0937034
-0.104314
-0.123878
-0.163621
-0.236905
-0.358296
-0.542342
-0.802166
-1.14805
-1.58619
-2.11777
-2.73855
-3.43896
-4.2048
-5.01827
-5.85942
-6.70762
-7.54301
-8.34769
-9.10658
-9.80776
-10.4425
-11.0047
-11.4905
-11.8976
-12.2245
-12.4702
-12.6342
-12.7169
-12.7197
-12.6455
-12.4992
-12.2881
-12.0212
-11.7091
-11.3636
-10.9962
-10.6178
-10.2371
-9.8607
-9.49212
-9.13189
-8.77779
-8.42531
-8.0684
-7.70023
-7.31405
-6.90392
-6.46527
-5.9954
-5.49376
-4.96212
-4.40467
-3.82793
-3.24056
-2.6529
-2.07645
-1.52302
-1.00396
-0.529215
-0.106657
0.258442
0.563596
0.808988
0.997065
1.13196
1.21887
1.26352
1.27183
1.24988
1.20412
1.14176
1.07124
1.00266
0.948018
0.921141
0.937274
1.01228
1.16148
1.39832
1.73287
2.17066
2.71171
3.35026
4.07512
4.87054
5.71764
6.59599
7.48514
8.36592
9.22139
10.0377
10.8049
11.5192
12.1865
12.8286
13.4925
14.2635
15.2792
16.7449
18.9432
22.2363
27.0529
33.854
43.0756
55.0458
69.883
87.3857
106.933
127.418
147.238
164.365
176.493
181.273
176.606
160.953
133.624
94.9978
46.6178
-8.84664
-67.7927
-126.009
-179.097
-222.941
-254.157
-270.468
-270.962
-256.182
-228.06
-189.684
-144.945
-98.1009
-53.3188
-14.245
16.3425
36.7653
46.5369
46.315
37.7286
23.109
5.16367
-13.364
-30.0075
-42.829
-50.5837
-52.7886
-49.6927
-42.165
-31.5202
-19.3095
-7.10556
3.69146
12.0064
17.1849
19.0273
17.7627
13.9738
8.48559
2.23642
-3.85061
-8.98056
-12.571
-14.301
-14.1214
-12.2313
-9.02435
-5.018
-0.774027
3.17769
6.40328
8.61016
9.66975
9.61723
8.6307
6.99458
5.05322
3.16172
1.64018
0.73683
0.60376
1.28704
2.73106
4.79527
7.27984
9.95634
12.5989
15.0116
17.0498
18.6315
19.7395
20.4154
20.7443
20.8368
20.808
20.7584
20.7587
20.8408
20.995
21.1744
21.3049
21.2986
21.0691
20.5462
19.6866
18.4816
16.9588
15.1789
13.2276
11.2056
9.21594
7.3528
5.6918
4.28355
3.15085
2.28961
1.67297
1.25766
0.991585
0.82147
0.699514
0.588347
0.463838
0.315676
0.145953
-0.0337853
-0.206405
-0.353292
-0.458106
-0.509686
-0.503797
-0.443622
-0.339061
-0.205081
-0.0594465
0.0797747
0.196555
0.278766
0.319329
0.316522
0.273483
0.197029
0.096055
-0.0201762
-0.143545
-0.268107
-0.390483
-0.509578
-0.625713
-0.739382
-0.849902
-0.954253
-1.04638
-1.11713
-1.15492
-1.14713
-1.08196
-0.950628
-0.749394
-0.481211
-0.156579
0.206582
0.584118
0.947822
1.26834
1.51849
1.6764
1.72832
1.6703
1.5089
1.26051
0.949601
0.605924
0.261218
-0.0542724
-0.314988
-0.502567
-0.607418
-0.629195
-0.576174
-0.463689
-0.311852
-0.142902
0.02149
0.162615
0.266576
0.325398
0.337343
0.306458
0.241471
0.154248
0.0580275
-0.0343327
-0.111877
-0.166683
-0.194506
-0.1949
-0.170864
-0.128097
-0.0740002
-0.016578
0.0366246
0.0794096
0.107553
0.11912
0.114457
0.0959075
0.0673006
0.0333139
-0.001204
-0.0318587
-0.0552128
-0.0691141
-0.0728284
-0.0669798
-0.0533272
-0.0344221
-0.0132036
0.00741205
0.0248941
0.0373684
0.0437649
0.0438232
0.0379531
0.026967
0.0117223
-0.00727352
-0.0302257
-0.0583133
-0.0937796
-0.139797
-0.200085
-0.278301
-0.377286
-0.49829
-0.640347
-0.79994
-0.971074
-1.14578
-1.31499
-1.46966
-1.60195
-1.7062
-1.77967
-1.82276
-1.83875
-1.83308
-1.81235
-1.78315
-1.75103
-1.71968
-1.69061
-1.66321
-1.63537
-1.60444
-1.5683
-1.52653
-1.48112
-1.43693
-1.40139
-1.38374
-1.39378
-1.44025
-1.52927
-1.66291
-1.83822
-2.04694
-2.27589
-2.50812
-2.72457
-2.90615
-3.03578
-3.10026
-3.09158
-3.00765
-2.85219
-2.63412
-2.36634
-2.06427
-1.74429
-1.42232
-1.11253
-0.826504
-0.572497
-0.354988
-0.17418
-0.0254591
0.101248
0.222083
0.359602
0.542579
0.804966
1.18385
1.7164
2.43603
3.36811
4.52582
5.90673
7.49058
9.2388
11.0959
12.9927
14.8517
16.5927
18.1406
19.4314
20.4189
21.0789
21.4115
21.4413
21.2143
20.7929
20.2494
19.6581
19.0877
18.594
18.2154
17.9691
17.8521
17.8428
17.9069
18.0061
18.1092
18.2061
18.3248
18.5497
19.0398
20.0448
21.9119
25.0811
30.059
37.368
47.4662
60.6424
76.8948
95.8105
116.472
137.417
156.674
171.888
180.549
180.281
169.181
146.148
111.145
65.3606
11.2107
-47.8112
-107.442
-163.075
-210.249
-245.151
-265.041
-268.571
-255.937
-228.847
-190.326
-144.36
-95.4476
-48.1089
-6.40621
26.4569
48.4196
58.7035
57.7986
47.3087
29.6825
7.87133
-15.0419
-36.1962
-53.2489
-64.5862
-69.4294
-67.8353
-60.6004
-49.0886
-35.0111
-20.1885
-6.32478
5.18043
13.3639
17.7648
18.4232
15.8193
10.7664
4.27491
-2.59234
-8.85529
-13.7271
-16.6893
-17.5249
-16.3124
-13.3825
-9.24969
-4.52754
0.158483
4.25058
7.32121
9.11275
9.55192
8.73994
6.92243
4.44529
1.70368
-0.908665
-3.0437
-4.4325
-4.90537
-4.39837
-2.94747
-0.672891
2.24296
5.58078
9.10945
12.6086
15.8867
18.7933
21.2261
23.1321
24.5041
25.3739
25.8032
25.8733
25.6749
25.2994
24.8312
24.3426
23.8909
23.5172
23.2471
23.0931
23.0567
23.1323
23.3098
23.5774
23.9241
24.341
24.8225
25.3668
25.9755
26.6533
27.4062
28.2393
29.1539
30.1443
31.1936
32.271
33.3288
34.3022
35.1103
35.6598
35.8514
35.5879
34.7843
33.3783
31.3401
28.6807
25.4564
21.7694
17.7632
13.6135
9.51481
5.66393
2.24261
-0.598985
-2.75593
-4.17775
-4.87194
-4.90157
-4.37712
-3.44375
-2.26547
-1.00814
0.176711
1.16553
1.87237
2.25379
2.3087
2.07359
1.61411
1.01414
0.364013
-0.25085
-0.759447
-1.11203
-1.28366
-1.27438
-1.10645
-0.819062
-0.461716
-0.0869552
0.256433
0.529025
0.704606
0.771969
0.734652
0.608889
0.420194
0.199166
-0.0228854
-0.217931
-0.364378
-0.44907
-0.468032
-0.425973
-0.334761
-0.211163
-0.0742137
0.0574164
0.167729
0.245122
0.283375
0.281856
0.245004
0.181229
0.101429
0.0173572
-0.0599501
-0.121484
-0.161178
-0.176363
-0.167735
-0.138913
-0.0956712
-0.0449845
0.00597771
0.0507734
0.0844215
0.103873
0.108188
0.0984324
0.077328
0.0487356
0.0170477
-0.0134202
-0.0389647
-0.056895
-0.0657637
-0.0654176
-0.0568786
-0.0420908
-0.023578
-0.00406463
0.0138884
0.0281882
0.037424
0.0409715
0.0389885
0.0323115
0.0222788
0.0105088
-0.00133351
-0.0117509
-0.0195841
-0.0241222
-0.0251442
-0.0228951
-0.0180071
-0.0113869
-0.00409857
0.00271189
0.00779884
0.00964933
0.00613191
-0.00602757
-0.0318675
-0.0787677
-0.156796
-0.278644
-0.45901
-0.713413
-1.05651
-1.50015
-2.05135
-2.7107
-3.47125
-4.31822
-5.22968
-6.17795
-7.13177
-8.05893
-8.92892
-9.71545
-10.3985
-10.9655
-11.4122
-11.7424
-11.9668
-12.1019
-12.1681
-12.1874
-12.1819
-12.1714
-12.1722
-12.1958
-12.2485
-12.3311
-12.4389
-12.5633
-12.6921
-12.811
-12.9051
-12.9597
-12.962
-12.9014
-12.7705
-12.565
-12.2836
-11.9279
-11.5013
-11.0085
-10.4543
-9.84311
-9.17836
-8.46282
-7.699
-6.89027
-6.04208
-5.16329
-4.2671
-3.37146
-2.49859
-1.67379
-0.9234
-0.272211
0.259427
0.658457
0.921607
1.05721
1.08608
1.04127
0.966696
0.914548
0.941866
1.10643
1.46242
2.05617
2.92253
4.08198
5.53881
7.28048
9.2781
11.4879
13.8536
16.3091
18.7814
21.1942
23.4707
25.5368
27.3243
28.7735
29.8364
30.4793
30.685
30.455
29.8101
28.7908
27.456
25.8801
24.1498
22.3588
20.6023
18.9719
17.5518
16.4176
15.6388
15.287
15.4488
16.2434
17.8407
20.4756
24.4504
30.1197
37.8493
47.9483
60.5759
75.6326
92.6542
110.731
128.478
144.075
155.39
160.192
156.415
142.469
117.521
81.7344
36.3855
-16.1393
-72.5009
-128.699
-180.467
-223.725
-255.031
-271.966
-273.408
-259.664
-232.422
-194.558
-149.807
-102.344
-56.3336
-15.5002
17.2336
39.9958
52.0816
53.9313
46.9823
33.4196
15.8644
-2.96054
-20.5448
-34.8504
-44.4912
-48.8183
-47.9097
-42.4757
-33.6992
-23.0368
-12.0087
-2.00431
5.8748
10.9196
12.8582
11.8416
8.37871
3.234
-2.69579
-8.50823
-13.4091
-16.8011
-18.3383
-17.9441
-15.7936
-12.2665
-7.87868
-3.20423
1.20251
4.87481
7.48401
8.86803
9.03638
8.15339
6.50361
4.44546
2.35971
0.599841
-0.549859
-0.903861
-0.390038
0.951112
2.98117
5.48926
8.22394
10.9269
13.3637
15.3484
16.759
17.5435
17.7166
17.3486
16.5495
15.4505
14.1855
12.8759
11.6189
10.4812
9.4974
8.67317
7.99186
7.42279
6.93027
6.48178
6.0542
5.63756
5.23586
4.86537
4.5507
4.31947
4.19659
4.19884
4.33068
4.58185
4.92699
5.32744
5.73475
6.09567
6.35781
6.47537
6.41425
6.15594
5.69979
5.06333
4.2807
3.39926
2.47495
1.56666
0.730518
0.014558
-0.545666
-0.930025
-1.13517
-1.17424
-1.07511
-0.877441
-0.628813
-0.380463
-0.182831
-0.0813696
-0.112881
-0.30268
-0.662798
-1.19137
-1.87328
-2.68193
-3.58206
-4.53325
-5.49368
-6.42391
-7.29007
-8.06623
-8.73574
-9.2914
-9.73455
-10.0733
-10.3205
-10.4907
-10.5985
-10.6564
-10.6738
-10.6565
-10.6072
-10.5267
-10.4147
-10.2713
-10.0982
-9.89944
-9.68095
-9.45055
-9.21679
-8.9877
-8.76958
-8.56594
-8.37683
-8.19882
-8.02539
-7.84791
-7.65679
-7.44285
-7.1984
-6.91807
-6.59913
-6.24141
-5.84686
-5.4189
-4.96185
-4.48048
-3.97989
-3.46565
-2.94412
-2.42286
-1.91091
-1.41883
-0.958372
-0.541751
-0.180675
0.114865
0.33778
0.484902
0.55766
0.562307
0.509652
0.41429
0.293405
0.165226
0.0472802
-0.0453793
-0.101791
-0.116322
-0.08933
-0.027106
0.0589582
0.153923
0.241383
0.305797
0.334721
0.320617
0.261952
0.163436
0.0353595
-0.107843
-0.249593
-0.37342
-0.465141
-0.514657
-0.517148
-0.473505
-0.389991
-0.277196
-0.148464
-0.018023
0.10089
0.197652
0.265402
0.301566
0.307749
0.289044
0.252913
0.207867
0.16213
0.122515
0.0936271
0.0775059
0.0736941
0.0796997
0.0917495
0.105705
0.117993
0.126397
0.130596
0.132355
0.135362
0.144747
0.166398
0.206204
0.269413
0.360219
0.481675
0.635926
0.824633
1.04941
1.31204
1.61431
1.95734
2.34043
2.75975
3.20687
3.66782
4.12262
4.54578
4.90769
5.17686
5.3228
5.31921
5.14716
4.79768
4.27353
3.58989
2.77362
1.86136
0.896468
-0.0748384
-1.00764
-1.86231
-2.60785
-3.2241
-3.70263
-4.04609
-4.26631
-4.3813
-4.4117
-4.37719
-4.29338
-4.1696
-4.00789
-3.8033
-3.54531
-3.22025
-2.81414
-2.31556
-1.71809
-1.02192
-0.234528
0.629766
1.55105
2.50574
3.46871
4.41547
5.32394
6.17583
6.9575
7.66036
8.28084
8.82014
9.28369
9.68043
10.022
10.322
10.5946
10.8544
11.1147
11.3877
11.6834
12.0099
12.373
12.7767
13.2221
13.7074
14.2262
14.7657
15.3042
15.8101
16.2398
16.539
16.6446
16.4889
16.0061
15.1395
13.8498
12.1225
9.9737
7.45388
4.64858
1.67616
-1.31678
-4.16132
-6.67196
-8.65099
-9.89013
-10.1693
-9.25315
-6.88798
-2.80247
3.28237
11.629
22.4401
35.7963
51.5759
69.3694
88.4023
107.488
125.031
139.103
147.589
148.408
139.791
120.563
90.4085
50.0511
1.32922
-52.8761
-108.856
-162.415
-209.309
-245.702
-268.613
-276.263
-268.289
-245.792
-211.217
-168.068
-120.514
-72.9251
-29.3976
6.66259
32.8626
48.0105
52.1544
46.4785
33.076
14.6364
-5.91084
-25.7488
-42.4813
-54.3629
-60.4306
-60.5302
-55.2441
-45.7387
-33.5581
-20.3941
-7.86317
2.68278
10.2929
14.4893
15.2722
13.0656
8.61576
2.86114
-3.20794
-8.68031
-12.8305
-15.1903
-15.5796
-14.0972
-11.0777
-7.0226
-2.51793
1.85008
5.57009
8.26327
9.71784
9.89884
8.93446
7.0832
4.68818
2.12562
-0.245324
-2.12524
-3.30507
-3.68209
-3.2609
-2.14079
-0.492766
1.46997
3.52345
5.46218
7.12277
8.39942
9.25038
9.69541
9.80551
9.6871
9.46317
9.25405
9.1603
9.24968
9.54937
10.0442
10.6802
11.3733
12.0211
12.5161
12.7594
12.6726
12.2068
11.3486
10.1216
8.5847
6.82634
4.95654
3.09693
1.36993
-0.111779
-1.25467
-1.99182
-2.28791
-2.14131
-1.58352
-0.675884
0.495724
1.82795
3.20806
4.52259
5.66597
6.54852
7.10315
7.29038
7.1008
6.55501
5.70068
4.60706
3.35754
2.04096
0.742667
-0.463616
-1.52233
-2.40028
-3.08814
-3.59918
-3.96548
-4.23223
-4.45072
-4.67106
-4.93535
-5.27209
-5.69258
-6.18943
-6.73753
-7.29718
-7.819
-8.25001
-8.54018
-8.64861
-8.54859
-8.231
-7.70555
-6.99979
-6.15594
-5.22618
-4.26693
-3.33312
-2.47326
-1.7261
-1.11907
-0.668695
-0.382639
-0.262607
-0.30754
-0.516251
-0.888951
-1.42733
-2.13317
-3.00568
-4.03823
-5.21493
-6.50786
-7.87538
-9.26223
-10.6012
-11.817
-12.831
-13.5676
-13.9608
-13.9606
-13.5376
-12.6871
-11.43
-9.81216
-7.90051
-5.77821
-3.53749
-1.27218
0.92993
2.99382
4.86248
6.50018
7.89346
9.04984
9.99462
10.7662
11.4104
11.9747
12.503
13.0307
13.5818
14.1674
14.7851
15.421
16.0522
16.6508
17.188
17.6387
17.9853
18.2206
18.349
18.3864
18.3581
18.2946
18.227
18.1814
18.1738
18.2064
18.2653
18.3213
18.3319
18.2471
18.0145
17.5871
16.9294
16.0228
14.8685
13.4889
11.9259
10.2368
8.48965
6.75653
5.10739
3.60413
2.29587
1.21572
0.379345
-0.214875
-0.584026
-0.757683
-0.774099
-0.67603
-0.50663
-0.305806
-0.107317
0.0631686
0.189003
0.262498
0.284006
0.260342
0.202799
0.125006
0.0408834
-0.0371053
-0.0992599
-0.13942
-0.155206
-0.147761
-0.12111
-0.0812482
-0.0351113
0.0104318
0.0494477
0.0775778
0.0924001
0.0935017
0.0822907
0.0615997
0.0351578
0.00701065
-0.0190315
-0.0398528
-0.0533502
-0.0585879
-0.0557882
-0.0461805
-0.031753
-0.0149602
0.00155427
0.0151743
0.0234436
0.0241196
0.0151792
-0.00518083
-0.038506
-0.0859835
-0.148276
-0.225317
-0.316105
-0.418547
-0.529408
-0.644347
-0.758083
-0.864611
-0.957486
-1.03014
-1.07623
-1.09011
-1.06736
-1.00544
-0.904409
-0.7675
-0.601599
-0.417307
-0.228586
-0.0518916
0.0951373
0.195325
0.233718
0.199192
0.0856346
-0.107541
-0.375698
-0.710134
-1.1
-1.53476
-2.0069
-2.51443
-3.06293
-3.66653
-4.34768
-5.13541
-6.06223
-7.15974
-8.4535
-9.9576
-11.6696
-13.5662
-15.6008
-17.7023
-19.7757
-21.7046
-23.3539
-24.5727
-25.1955
-25.041
-23.908
-21.5694
-17.767
-12.2113
-4.592
5.39347
17.9893
33.306
51.2268
71.3067
92.6853
114.038
133.59
149.209
158.592
159.516
150.148
129.354
96.9668
53.9559
2.46687
-54.2924
-112.317
-167.192
-214.56
-250.6
-272.464
-278.603
-268.944
-244.894
-209.172
-165.487
-118.117
-71.429
-29.4135
4.71741
28.8218
41.98
44.4964
37.7618
24.0018
5.94863
-13.5164
-31.7072
-46.4217
-56.1466
-60.1605
-58.5322
-52.0248
-41.9249
-29.8266
-17.4
-6.17531
2.63424
8.25054
10.3829
9.21364
5.32667
-0.407635
-6.97104
-13.3408
-18.6192
-22.1339
-23.5011
-22.6452
-19.7792
-15.35
-9.96084
-4.28164
1.04038
5.45806
8.58181
10.212
10.3446
9.15215
6.9453
4.1206
1.10365
-1.70569
-3.97919
-5.49255
-6.14145
-5.94118
-5.01146
-3.55008
-1.79962
-0.012266
1.58276
2.80541
3.54201
3.75232
3.46662
2.77433
1.80637
0.714272
-0.3511
-1.25842
-1.91032
-2.25201
-2.27357
-2.00646
-1.51508
-0.885213
-0.210895
0.418249
0.927835
1.26644
1.40964
1.3602
1.14486
0.808457
0.406465
-0.00297957
-0.366416
-0.640959
-0.798152
-0.825544
-0.726103
-0.515825
-0.220132
0.130308
0.503675
0.870483
1.20606
1.49185
1.71555
1.87033
1.95339
1.96441
1.9041
1.77333
1.57296
1.30435
0.970481
0.577395
0.135579
-0.339072
-0.825063
-1.29608
-1.7228
-2.07556
-2.32752
-2.45799
-2.45527
-2.31857
-2.05883
-1.69803
-1.26718
-0.803195
-0.345061
0.0702938
0.411807
0.657392
0.795993
0.828437
0.767057
0.634249
0.460197
0.280079
0.131068
0.0494128
0.0678376
0.213394
0.505854
0.956645
1.5683
2.33438
3.23983
4.26176
5.37055
6.53142
7.70623
8.85555
9.94083
10.9266
11.7824
12.4844
13.0169
13.3723
13.552
13.5652
13.4278
13.1615
12.7911
12.3433
11.8446
11.3197
10.7906
10.2751
9.78714
9.33614
8.92766
8.56372
8.24343
7.96358
7.71916
7.50379
7.31
7.12939
6.95276
6.77024
6.57154
6.3462
6.0842
5.77661
5.41644
4.99963
4.52595
3.9997
3.43013
2.83135
2.22166
1.62243
1.05638
0.545655
0.109728
-0.236465
-0.484042
-0.631083
-0.682814
-0.651055
-0.552972
-0.409308
-0.24228
-0.0734176
0.0784277
0.198672
0.278034
0.312929
0.30522
0.261392
0.191307
0.106686
0.0195523
-0.059211
-0.121013
-0.160324
-0.175017
-0.166399
-0.139196
-0.102103
-0.0697238
-0.0668652
-0.135773
-0.346078
-0.805966
-1.67179
-3.15246
-5.5049
-9.01802
-13.9844
-20.6618
-29.2292
-39.7426
-52.1004
-66.0223
-81.0485
-96.5612
-111.827
-126.059
-138.482
-148.413
-155.321
-158.885
-159.023
-155.898
-149.909
-141.64
-131.811
-121.205
-110.592
-100.664
-91.9758
-84.9036
-79.6243
-76.1165
-74.1819
-73.4822
-73.5887
-74.0366
-74.3788
-74.2329
-73.3172
-71.472
-68.6651
-64.9828
-60.6071
-55.7843
-50.7887
-45.8857
-41.2993
-37.1874
-33.6283
-30.6174
-28.0767
-25.8727
-23.8417
-21.8169
-19.6555
-17.2599
-14.5914
-11.6753
-8.59478
-5.47734
-2.4748
0.260098
2.59656
4.44507
5.77066
6.59831
7.01017
7.13501
7.13189
7.16994
7.40745
7.9726
8.94843
10.3636
12.1898
14.3462
16.7089
19.1258
21.4327
23.4707
25.1008
26.2164
26.7502
26.6775
26.0135
24.8078
23.1353
21.0859
18.7549
16.2344
13.6083
10.9513
8.33099
5.81586
3.48567
1.44569
-0.157235
-1.11866
-1.1634
0.0606009
2.97608
8.0523
15.758
26.4889
40.4725
57.6576
77.6046
99.3987
121.609
142.32
159.242
169.912
171.972
163.475
143.207
110.948
67.6408
15.4276
-42.4688
-102.007
-158.715
-208.151
-246.387
-270.441
-278.619
-270.699
-247.949
-212.976
-169.423
-121.549
-73.7656
-30.1632
5.89609
32.085
47.2813
51.5913
46.233
33.3017
15.4565
-4.43127
-23.6221
-39.8042
-51.3115
-57.2443
-57.4867
-52.6306
-43.8222
-32.5594
-20.4676
-9.08538
0.316476
6.86289
10.1397
10.1945
7.47994
2.75229
-3.05683
-8.97741
-14.1283
-17.8198
-19.6222
-19.3931
-17.2676
-13.6128
-8.95867
-3.915
0.913609
5.00362
7.97093
9.60611
9.88423
8.95067
7.087
4.66299
2.0824
-0.270366
-2.07584
-3.11261
-3.27486
-2.57396
-1.12523
0.876608
3.18927
5.55712
7.74334
9.55611
10.8664
11.6157
11.8147
11.5329
10.8831
10.0015
9.02838
8.0905
7.28727
6.68266
6.30258
6.1375
6.14934
6.28126
6.46849
6.64885
6.77144
6.80263
6.72887
6.55626
6.30731
6.01569
5.71987
5.45656
5.255
5.13267
5.0929
5.12463
5.20403
5.29786
5.36785
5.37568
5.28786
5.07998
4.73984
4.26906
3.6832
3.01017
2.28733
1.55754
0.864691
0.249162
-0.256159
-0.628962
-0.859316
-0.950084
-0.915925
-0.781103
-0.576423
-0.335691
-0.0921614
0.12463
0.291342
0.392395
0.420576
0.376718
0.268626
0.109447
-0.0842548
-0.294464
-0.503509
-0.695528
-0.857523
-0.979976
-1.05707
-1.08655
-1.06938
-1.00911
-0.911284
-0.782656
-0.630569
-0.462358
-0.284908
-0.104368
0.0739724
0.245665
0.406959
0.554586
0.685529
0.796826
0.885485
0.948542
0.983272
0.987539
0.960231
0.901688
0.814049
0.70142
0.569811
0.426826
0.281105
0.1416
0.0167526
-0.0863116
-0.162463
-0.209045
-0.226071
-0.216134
-0.184031
-0.13616
-0.0797709
-0.0221558
0.0301102
0.0718009
0.099473
0.111666
0.108861
0.093219
0.0681571
0.0378116
0.00647545
-0.0219281
-0.044274
-0.0585242
-0.0638555
-0.0606275
-0.0502111
-0.0347171
-0.0166756
0.00127187
0.0166061
0.0270415
0.0304848
0.0248488
0.00776074
-0.023761
-0.0735713
-0.14651
-0.248288
-0.385117
-0.563092
-0.787388
-1.0614
-1.38592
-1.75853
-2.17327
-2.62065
-3.08799
-3.56003
-4.0198
-4.44944
-4.83114
-5.14797
-5.38455
-5.52768
-5.56681
-5.49456
-5.30719
-5.00509
-4.59327
-4.08175
-3.4857
-2.82529
-2.12501
-1.41255
-0.717146
-0.0675716
0.510038
0.994292
1.37028
1.6307
1.77619
1.81475
1.76047
1.6315
1.44768
1.22825
0.989732
0.744469
0.499903
0.258637
0.0192031
-0.222641
-0.472369
-0.73516
-1.01466
-1.31221
-1.62653
-1.95401
-2.28919
-2.62557
-2.95629
-3.27469
-3.57461
-3.85043
-4.09679
-4.30836
-4.4794
-4.60359
-4.67404
-4.6836
-4.62544
-4.49397
-4.28582
-4.00087
-3.64313
-3.22125
-2.74859
-2.24274
-1.72447
-1.21617
-0.739956
-0.315575
0.0415422
0.321918
0.523082
0.64989
0.714019
0.732662
0.726572
0.71766
0.726487
0.769961
0.859548
1.00023
1.19034
1.42221
1.68361
1.95972
2.23527
2.49668
2.73391
2.94166
3.11995
3.27399
3.41332
3.55044
3.69902
3.87206
4.08
4.32932
4.62152
4.95288
5.31473
5.69439
6.07632
6.44351
6.77855
7.06446
7.285
7.42457
7.46778
7.39906
7.20275
6.86426
6.37304
5.72796
4.94563
4.07166
3.19454
2.46075
2.08903
2.38027
3.71887
6.56015
11.399
18.716
28.8996
42.149
58.3668
77.0575
97.2533
117.49
135.851
150.099
157.878
156.992
145.712
123.071
89.1128
45.0275
-6.83721
-63.1215
-119.74
-172.283
-216.485
-248.699
-266.312
-268.05
-254.129
-226.227
-187.289
-141.191
-92.2976
-44.9836
-3.17132
30.0593
52.7436
64.1619
64.8194
56.2874
40.935
21.5909
1.18097
-17.6137
-32.6383
-42.4577
-46.4464
-44.7728
-38.291
-28.3604
-16.6232
-4.77011
5.67509
13.5286
18.0596
19.0348
16.6973
11.6878
4.92413
-2.54178
-9.66889
-15.5567
-19.5443
-21.2695
-20.6852
-18.0346
-13.7929
-8.58526
-3.09454
2.02931
6.24707
9.18663
10.6731
10.7312
9.56276
7.50432
4.97162
2.40014
0.188702
-1.3468
-2.00474
-1.7119
-0.520165
1.41194
3.84917
6.51597
9.13426
11.4576
13.2982
14.5432
15.1607
15.1944
14.7498
13.9738
13.0319
12.0849
11.2693
10.683
10.3774
10.3565
10.5819
10.9834
11.4716
11.9521
12.339
12.5649
12.588
12.395
11.9995
11.4375
10.7601
10.0251
9.28882
8.59864
7.98767
7.47172
7.04889
6.70149
6.39991
6.10783
5.78804
5.40804
4.94486
4.38839
3.74295
3.02689
2.27043
1.51195
0.793359
0.1551
-0.368597
-0.753592
-0.988492
-1.0758
-1.03153
-0.883372
-0.667675
-0.425582
-0.198727
-0.024946
0.0655486
0.0531582
-0.0692703
-0.29594
-0.608962
-0.980458
-1.37565
-1.75656
-2.08595
-2.33091
-2.46591
-2.47484
-2.35195
-2.10176
-1.73799
-1.28177
-0.75943
-0.200232
0.365889
0.910242
1.40693
1.83399
2.17421
2.4156
2.55162
2.58124
2.50883
2.34385
2.10029
1.79593
1.45129
1.08831
0.728873
0.39316
0.0981093
-0.143947
-0.326246
-0.448007
-0.51422
-0.534776
-0.523037
-0.493987
-0.462199
-0.439882
-0.435265
-0.451554
-0.486596
-0.533348
-0.581062
-0.617058
-0.62878
-0.605848
-0.54175
-0.434932
-0.289122
-0.112875
0.0815342
0.279672
0.466676
0.628903
0.755254
0.838027
0.8732
0.86017
0.801045
0.699648
0.560461
0.38771
0.184758
-0.0461188
-0.303573
-0.586786
-0.894973
-1.22696
-1.58095
-1.95452
-2.34472
-2.74828
-3.16158
-3.58048
-3.99982
-4.41266
-4.80949
-5.1776
-5.50074
-5.75946
-5.93211
-5.99648
-5.93197
-5.72198
-5.35622
-4.83255
-4.15812
-3.34949
-2.43189
-1.43744
-0.402809
0.633663
1.63477
2.56703
3.40273
4.1212
4.70929
5.16101
5.47652
5.66054
5.72054
5.66485
5.50101
5.23448
4.86797
4.40132
3.83202
3.15634
2.37077
1.4737
0.467067
-0.642346
-1.84209
-3.11393
-4.43448
-5.77655
-7.11115
-8.4098
-9.64697
-10.8023
-11.8625
-12.8221
-13.6836
-14.4569
-15.1573
-15.8034
-16.414
-17.0056
-17.5894
-18.17
-18.7436
-19.2979
-19.8128
-20.2616
-20.6131
-20.8337
-20.8899
-20.7509
-20.3905
-19.7895
-18.9368
-17.8306
-16.4792
-14.9013
-13.1249
-11.1867
-9.13043
-7.00421
-4.85813
-2.74112
-0.697921
1.23377
3.02558
4.66003
6.13115
7.44394
8.61289
9.65959
10.6096
11.4894
12.3229
13.1292
13.9209
14.7031
15.4744
16.2284
16.9557
17.647
18.2956
18.8991
19.4606
19.9872
20.4886
20.9732
21.4433
21.8913
22.2948
22.6148
22.7944
22.7615
22.4328
21.7218
20.5469
18.8424
16.568
13.7178
10.3267
6.47358
2.28104
-2.08805
-6.43686
-10.5417
-14.1586
-17.0278
-18.8752
-19.4106
-18.3267
-15.3011
-10.0085
-2.14826
8.507
22.0417
38.3106
56.8463
76.7808
96.8018
115.168
129.8
138.448
138.94
129.468
108.885
76.966
34.5808
-16.2541
-72.4696
-130.184
-185.067
-232.784
-269.47
-292.164
-299.153
-290.169
-266.422
-230.464
-185.893
-136.944
-88.0231
-43.2339
-5.96238
21.4365
37.8163
43.2672
39.0026
27.1243
10.3058
-8.56337
-26.7263
-41.86
-52.2966
-57.1457
-56.3127
-50.4202
-40.6514
-28.5436
-15.759
-3.86654
5.84337
12.4886
15.6618
15.4303
12.2778
6.99997
0.572124
-5.99153
-11.769
-16.0364
-18.3383
-18.5174
-16.7032
-13.2671
-8.7507
-3.78079
1.01765
5.0996
8.06001
9.67025
9.88887
8.84783
6.81875
4.16512
1.28834
-1.42543
-3.65069
-5.1557
-5.82037
-5.63831
-4.70472
-3.19299
-1.32437
0.664823
2.55404
4.16385
5.37317
6.12724
6.43653
6.36756
6.02796
5.54816
5.06241
4.69145
4.52889
4.63231
5.01975
5.67128
6.53482
7.53522
8.58486
9.59469
10.4841
11.1891
11.667
11.8995
11.8918
11.6694
11.2741
10.7572
10.1739
9.57685
9.01121
8.51095
8.09648
7.774
7.53629
7.36473
7.23221
7.10659
6.95423
6.74321
6.44591
6.04075
5.51301
4.85484
4.06472
3.14661
2.109
0.964145
-0.272481
-1.58256
-2.94516
-4.337
-5.73287
-7.10623
-8.43009
-9.678
-10.8251
-11.8492
-12.7311
-13.4555
-14.0106
-14.3879
-14.5818
-14.5886
-14.4066
-14.0356
-13.4768
-12.7337
-11.8121
-10.7211
-9.47337
-8.08517
-6.5762
-4.96862
-3.28592
-1.55149
0.212676
1.98704
3.75495
5.50249
7.21756
8.88837
10.5015
12.0402
13.4822
14.7994
15.9575
16.9174
17.6377
18.0784
18.2054
17.995
17.4386
16.5457
15.346
13.8887
12.2409
10.4823
8.7004
6.98265
5.40988
4.04938
2.94966
2.13683
1.61334
1.35906
1.33444
1.48552
1.74998
2.06362
2.36652
2.60828
2.75175
2.77518
2.67256
2.45234
2.13492
1.74911
1.32825
0.906225
0.513966
0.176587
-0.0885062
-0.272505
-0.375095
-0.403481
-0.370738
-0.293753
-0.190996
-0.0804152
0.0223719
0.105397
0.161102
0.186516
0.182903
0.154977
0.109832
0.055741
0.000974578
-0.0472194
-0.0833818
-0.104291
-0.10908
-0.0990526
-0.077248
-0.0478495
-0.0155184
0.0152519
0.0406843
0.0581131
0.0661937
0.0649222
0.0554821
0.0399475
0.0208791
0.000834716
-0.0181859
-0.0353471
-0.051597
-0.0702371
-0.0973494
-0.141976
-0.215959
-0.333388
-0.509646
-0.760132
-1.09878
-1.5366
-2.08035
-2.73171
-3.48685
-4.33672
-5.26775
-6.26302
-7.3036
-8.37001
-9.44342
-10.5066
-11.5444
-12.5442
-13.4955
-14.3903
-15.2221
-15.9864
-16.6806
-17.3036
-17.8565
-18.3423
-18.7658
-19.1328
-19.4498
-19.7226
-19.9554
-20.1494
-20.3021
-20.4071
-20.4534
-20.427
-20.3117
-20.0907
-19.7486
-19.2734
-18.658
-17.9007
-17.0061
-15.9842
-14.849
-13.6168
-12.3042
-10.9263
-9.49487
-8.01839
-6.50157
-4.94647
-3.35404
-1.72604
-0.0670575
1.61353
3.30007
4.96975
6.59248
8.13173
9.54626
10.7928
11.8294
12.6194
13.1352
13.3624
13.3023
12.9743
12.4156
11.6805
10.8361
9.95737
9.12033
8.39424
7.83404
7.47387
7.32302
7.36551
7.56428
7.87073
8.2395
8.64794
9.11841
9.74115
10.6939
12.254
14.798
18.7827
24.7042
33.032
44.1195
58.0965
74.7587
93.4702
113.103
132.035
148.227
159.38
163.175
157.564
141.087
113.149
74.2393
26.0167
-28.7376
-86.3249
-142.466
-192.739
-233.055
-260.12
-271.815
-267.441
-247.808
-215.137
-172.809
-124.979
-76.117
-30.5189
8.13312
37.1261
54.9416
61.3328
57.2523
44.6499
26.1713
4.80295
-16.4939
-35.1128
-49.0618
-57.1267
-58.9284
-54.8765
-46.0345
-33.9219
-20.2823
-6.84929
4.86139
13.7114
19.036
20.6729
18.9258
14.4755
8.25448
1.30369
-5.3679
-10.9047
-14.6933
-16.4122
-16.039
-13.8202
-10.2108
-5.79398
-1.19409
3.00641
6.33569
8.47996
9.3061
8.85909
7.33756
5.05265
2.37741
-0.306068
-2.65479
-4.4028
-5.38526
-5.54731
-4.93822
-3.6933
-2.00724
-0.103166
1.7983
3.50599
4.87842
5.83549
6.36113
6.49765
6.33343
5.98619
5.58455
5.25027
5.08353
5.15278
5.48991
6.09098
6.92169
7.92646
9.0394
10.1955
11.3403
12.4369
13.4693
14.4421
15.3769
16.3057
17.2634
18.2802
19.3751
20.5511
21.7943
23.0741
24.3472
25.5619
26.6634
27.5983
28.3182
28.7819
28.9555
28.8125
28.3328
27.5028
26.3151
24.7709
22.8819
20.674
18.1895
15.4895
12.6535
9.77696
6.96639
4.33182
1.9781
-0.00452403
-1.54898
-2.6181
-3.2085
-3.35098
-3.10735
-2.56404
-1.82323
-0.992512
-0.174466
0.542813
1.09308
1.43651
1.56111
1.48094
1.23176
0.8645
0.43782
0.0104088
-0.365866
-0.651326
-0.821844
-0.870002
-0.80413
-0.645548
-0.424534
-0.175636
0.0670318
0.273942
0.423286
0.502824
0.510356
0.452899
0.344807
0.205188
0.0550076
-0.0857332
-0.200388
-0.277386
-0.311129
-0.302054
-0.255921
-0.182524
-0.094028
-0.0031861
0.0783219
0.141242
0.179648
0.191329
0.177674
0.143107
0.094209
0.0386632
-0.0158319
-0.062531
-0.0963879
-0.11451
-0.116292
-0.103248
-0.0785969
-0.0466755
-0.0122734
0.0200172
0.0463577
0.0640665
0.0718327
0.0697357
0.0590872
0.0421353
0.0216801
0.000655964
-0.0182775
-0.0331096
-0.0428169
-0.0476849
-0.0496374
-0.0525876
-0.0627927
-0.089145
-0.143291
-0.239444
-0.393748
-0.623134
-0.94365
-1.36841
-1.90537
-2.5553
-3.31022
-4.15279
-5.05673
-5.98843
-6.90979
-7.7817
-8.56807
-9.23972
-9.77754
-10.1746
-10.4367
-10.5818
-10.637
-10.6358
-10.6133
-10.6022
-10.6292
-10.7117
-10.8567
-11.0604
-11.3093
-11.5829
-11.8562
-12.1033
-12.3002
-12.4279
-12.4735
-12.4312
-12.3027
-12.0951
-11.8201
-11.4915
-11.1228
-10.7253
-10.3063
-9.86813
-9.40804
-8.91873
-8.38982
-7.80997
-7.16934
-6.46216
-5.6889
-4.85782
-3.98553
-3.09641
-2.22092
-1.39291
-0.646306
-0.011583
0.487562
0.836851
1.03305
1.08437
1.00959
0.836022
0.596586
0.326419
0.059386
-0.174992
-0.353835
-0.462143
-0.492853
-0.445774
-0.325611
-0.139431
0.106005
0.40662
0.762722
1.17977
1.66807
2.24143
2.91493
3.70207
4.61172
5.64524
6.79419
8.03888
9.34821
10.6807
11.987
13.213
14.3046
15.2117
15.8932
16.3205
16.4804
16.3756
16.0249
15.4604
14.7242
13.8642
12.9287
11.9632
11.007
10.0938
9.25481
8.52728
7.9677
7.67009
7.7871
8.55045
10.2849
13.4086
18.4117
25.8067
36.0478
49.4225
65.9264
85.1402
106.135
127.436
147.057
162.644
171.692
171.852
161.259
138.861
104.676
59.9347
7.07964
-50.4
-108.283
-162.044
-207.347
-240.53
-259.023
-261.644
-248.726
-222.071
-184.724
-140.614
-94.1009
-49.4863
-10.5584
19.7865
39.7953
48.9631
47.9867
38.5824
23.2
4.6743
-14.1383
-30.6939
-43.0269
-49.9225
-50.9821
-46.5841
-37.7544
-25.971
-12.9327
-0.324361
10.3924
18.1396
22.3196
22.8418
20.0831
14.7944
7.96863
0.692386
-6.00032
-11.253
-14.4769
-15.3994
-14.0674
-10.8107
-6.17311
-0.82411
4.53757
9.27421
12.8833
15.0476
15.6576
14.806
12.757
9.89792
6.67967
3.55514
0.923071
-0.916093
-1.7881
-1.65459
-0.605235
1.16513
3.3901
5.77078
8.01513
9.87262
11.1605
11.7791
11.7156
11.0366
9.87175
8.39125
6.78036
5.21464
3.83888
2.75179
1.99825
1.56903
1.40779
1.42356
1.50692
1.54746
1.4502
1.149
0.61535
-0.138125
-1.05976
-2.06578
-3.05102
-3.90182
-4.50941
-4.78219
-4.65574
-4.09963
-3.12084
-1.7637
-0.106778
1.74303
3.65874
5.50333
7.14101
8.44883
9.3278
9.71225
9.57651
8.9379
7.85561
6.42529
4.76982
3.02728
1.33734
-0.17234
-1.39812
-2.26949
-2.75432
-2.85971
-2.62855
-2.13246
-1.46194
-0.715233
0.0128319
0.640718
1.10764
1.37797
1.44237
1.31572
1.03257
0.64072
0.194107
-0.254188
-0.657897
-0.98188
-1.20445
-1.31768
-1.32596
-1.24325
-1.08963
-0.887704
-0.659432
-0.423756
-0.195199
0.0165248
0.206024
0.371159
0.511693
0.627998
0.720063
0.786989
0.826996
0.837877
0.817766
0.765995
0.683849
0.575048
0.44583
0.304616
0.161284
0.0261762
-0.0910276
-0.182383
-0.242561
-0.269397
-0.264058
-0.23079
-0.176316
-0.108961
-0.0376383
0.0291636
0.0842465
0.122306
0.140184
0.136741
0.112383
0.0683307
0.00576275
-0.0749899
-0.175055
-0.297301
-0.446217
-0.627405
-0.846752
-1.10944
-1.41898
-1.77643
-2.17995
-2.62491
-3.10428
-3.60956
-4.13181
-4.6628
-5.19591
-5.72672
-6.25314
-6.77503
-7.29347
-7.80969
-8.32401
-8.8348
-9.33777
-9.8257
-10.2886
-10.7144
-11.0901
-11.4031
-11.6426
-11.8007
-11.8738
-11.8621
-11.7705
-11.6072
-11.3826
-11.1083
-10.7951
-10.452
-10.0848
-9.69558
-9.28283
-8.84177
-8.36548
-7.84629
-7.27744
-6.65474
-5.97805
-5.25243
-4.48861
-3.70294
-2.91652
-2.15375
-1.44033
-0.800942
-0.256941
0.175767
0.488321
0.679829
0.757462
0.735733
0.635027
0.479568
0.295054
0.106249
-0.0652173
-0.202589
-0.295104
-0.338409
-0.334256
-0.289588
-0.215137
-0.123764
-0.0287198
0.0579392
0.126633
0.171104
0.188784
0.180679
0.150835
0.105505
0.0521322
-0.00169661
-0.0491991
-0.0851452
-0.106331
-0.11175
-0.102479
-0.0813074
-0.0522098
-0.0197146
0.01172
0.0382556
0.0570871
0.0666812
0.0668313
0.0585393
0.04376
0.025053
0.00519778
-0.0131734
-0.0278719
-0.0373354
-0.0406653
-0.0375064
-0.0277761
-0.0112784
0.0127429
0.046032
0.0916449
0.154085
0.239192
0.353766
0.504935
0.699351
0.942317
1.23699
1.58384
1.98045
2.42181
2.90111
3.41082
3.94411
4.49613
5.06499
5.65225
6.26262
6.90299
7.58077
8.30182
9.06839
9.87722
10.7184
11.575
12.424
13.2376
13.9863
14.6411
15.1768
15.5745
15.8229
15.9193
15.8691
15.684
15.3806
14.9772
14.4919
13.9397
13.3318
12.6738
11.9657
11.2023
10.3735
9.46652
8.46765
7.3664
6.16041
4.8623
3.50835
2.16903
0.960685
0.0577986
-0.296367
0.216627
1.98836
5.4681
11.1287
19.4097
30.6369
44.9219
62.0538
81.3998
101.839
121.754
139.098
151.554
156.766
152.643
137.671
111.208
73.6963
26.7577
-26.8595
-83.4856
-138.87
-188.618
-228.667
-255.74
-267.724
-263.901
-245.036
-213.276
-171.9
-124.944
-76.7487
-31.4923
7.23767
36.7852
55.6411
63.5158
61.2696
50.7186
34.3472
14.9694
-4.61831
-21.9502
-35.136
-43.0155
-45.2113
-42.0843
-34.6065
-24.1734
-12.3864
-0.833198
9.10593
16.4057
20.4832
21.2221
18.935
14.2778
8.12987
1.45978
-4.80622
-9.89575
-13.2708
-14.6699
-14.1118
-11.8621
-8.37394
-4.21055
0.0378472
3.83129
6.7431
8.50191
9.00989
8.33728
6.69675
4.40282
1.82315
-0.67149
-2.7521
-4.16643
-4.76081
-4.48779
-3.40017
-1.63391
0.616836
3.12864
5.67764
8.06498
10.1362
11.7928
12.9962
13.7636
14.1578
14.2736
14.2211
14.11
14.0356
14.0692
14.2516
14.5919
15.0709
15.6466
16.2634
16.8605
17.3816
17.7816
18.0319
18.1229
18.0634
17.8777
17.6011
17.2739
16.9355
16.6188
16.3459
16.1257
15.9529
15.8096
15.6674
15.492
15.247
14.899
14.4209
13.7947
13.0135
12.0814
11.0132
9.83274
8.57114
7.26442
5.95127
4.67083
3.4604
2.35336
1.3771
0.551212
-0.114026
-0.618581
-0.972925
-1.19737
-1.32049
-1.37655
-1.40232
-1.43337
-1.5004
-1.62585
-1.82135
-2.0863
-2.40764
-2.76114
-3.11383
-3.42756
-3.66304
-3.78418
-3.76203
-3.57801
-3.22609
-2.71373
-2.06142
-1.30107
-0.473257
0.376187
1.20001
1.95329
2.59681
3.09966
3.44103
3.61088
3.60965
3.44717
3.14077
2.71308
2.18959
1.59623
0.957351
0.294079
-0.376674
-1.04254
-1.69537
-2.33029
-2.94442
-3.53531
-4.09949
-4.63131
-5.12231
-5.56115
-5.93421
-6.22675
-6.42439
-6.51477
-6.48913
-6.3436
-6.08008
-5.70647
-5.23641
-4.68842
-4.0845
-3.44846
-2.80399
-2.17282
-1.57301
-1.01764
-0.514054
-0.0636877
0.337498
0.697961
1.02908
1.34337
1.65262
1.9663
2.29032
2.62642
2.97222
3.32186
3.66719
3.99917
4.30935
4.59116
4.84068
5.05697
5.24159
5.39767
5.5284
5.63525
5.71633
5.76496
5.7689
5.71049
5.56769
5.31606
4.93162
4.39403
3.68991
2.81562
1.77912
0.600569
-0.688509
-2.04755
-3.43035
-4.78921
-6.07922
-7.26199
-8.30843
-9.20023
-9.92974
-10.4986
-10.9155
-11.193
-11.3446
-11.3826
-11.3162
-11.1512
-10.89
-10.5334
-10.0821
-9.53866
-8.90876
-8.2025
-7.43437
-6.62276
-5.78869
-4.95416
-4.14039
-3.36616
-2.64649
-1.99195
-1.40844
-0.897669
-0.458001
-0.0856373
0.224155
0.475942
0.673317
0.81848
0.91224
0.954381
0.944293
0.881732
0.767569
0.604409
0.397021
0.152529
-0.119594
-0.407706
-0.698281
-0.976252
-1.22539
-1.42871
-1.5689
-1.62881
-1.592
-1.44332
-1.16958
-0.760119
-0.207394
0.492587
1.33999
2.3311
3.45851
4.71152
6.07665
7.53821
9.07861
10.6784
12.3162
13.968
15.6069
17.2025
18.722
20.1302
21.3922
22.475
23.3511
24.0009
24.4154
24.5981
24.5653
24.3455
23.9774
23.506
22.9791
22.4415
21.9311
21.4742
21.083
20.7532
20.4644
20.1812
19.8556
19.4306
18.8436
18.031
16.9325
15.4949
13.6772
11.4548
8.82374
5.8051
2.44813
-1.1671
-4.92797
-8.68846
-12.2685
-15.453
-17.9904
-19.5908
-19.9245
-18.6234
-15.2909
-9.52167
-0.940032
10.7431
25.6528
43.6592
64.2842
86.6234
109.307
130.517
148.084
159.657
162.953
156.045
137.665
107.467
66.2096
15.8125
-40.723
-99.5453
-156.305
-206.596
-246.424
-272.646
-283.326
-277.953
-257.49
-224.268
-181.711
-133.95
-85.3667
-40.1241
-1.74562
27.2159
45.3798
52.5944
49.8511
39.0756
22.8293
3.96296
-14.7328
-30.8379
-42.5413
-48.785
-49.3052
-44.5751
-35.6663
-24.0528
-11.3866
0.723552
10.9053
18.1664
21.9761
22.2815
19.4639
14.245
7.56249
0.430963
-6.19106
-11.5136
-14.9947
-16.3809
-15.7076
-13.2636
-9.52831
-5.09123
-0.567212
3.48289
6.61632
8.55091
9.18311
8.58179
6.96123
4.6389
1.98479
-0.630197
-2.88051
-4.5213
-5.40974
-5.51092
-4.88922
-3.68788
-2.10051
-0.339266
1.3958
2.94231
4.19298
5.10355
5.69087
6.02252
6.20023
6.33985
6.55125
6.92079
7.49882
8.29345
9.27102
10.3626
11.4754
12.5063
13.357
13.9467
14.2225
14.1648
13.789
13.1419
12.2951
11.3359
10.3569
9.44639
8.68007
8.11485
7.78548
7.70375
7.85988
8.22554
8.75771
9.4028
10.1003
10.7862
11.3952
11.8634
12.1303
12.1417
11.8523
11.2292
10.2551
8.93124
7.27884
5.33973
3.17476
0.860501
-1.5157
-3.8619
-6.08816
-8.11302
-9.86898
-11.3065
-12.396
-13.128
-13.5117
-13.5709
-13.3409
-12.8631
-12.1812
-11.3374
-10.3699
-9.31138
-8.18851
-7.02227
-5.82886
-4.62063
-3.40714
-2.19583
-0.992475
0.198575
1.37429
2.53274
3.67264
4.79262
5.89015
6.96028
7.9944
8.97918
9.89607
10.7215
11.4279
11.9857
12.3658
12.5428
12.4982
12.2233
11.7211
11.0077
10.1114
9.07195
7.93673
6.75745
5.58557
4.46791
3.44271
2.53669
1.76329
1.12252
0.602061
0.179829
-0.172656
-0.486333
-0.790694
-1.11035
-1.46248
-1.85541
-2.28845
-2.75287
-3.23382
-3.71279
-4.17033
-4.5885
-4.95277
-5.25323
-5.48488
-5.64722
-5.64722
-5.64722
-5.64722
-5.64722
-5.64722
-5.64722
-5.64722
-5.64722
-5.64722
-5.64722
-5.64722
-5.64722
-5.64722
-5.64722
-5.64722
-5.64722
-5.64722
-5.64722
-5.64722
-5.64722
-5.64722
