-3.92495
24.4121
52.2699
78.125
100.51
118.169
130.197
136.137
136.033
130.425
120.287
106.917
91.7966
76.4313
62.2006
50.2239
41.2667
35.6906
33.4517
34.1452
37.0863
41.4157
46.2162
50.624
53.9237
55.616
55.4533
53.4413
49.8099
44.9612
39.4009
33.6657
28.2547
23.5723
19.8903
17.3292
15.8605
15.3274
15.4776
16.0052
16.5937
16.9564
16.8687
16.1897
14.8719
12.9591
10.573
7.89231
5.12694
2.49066
0.175717
-1.66785
-2.94618
-3.62791
-3.74269
-3.37277
-2.63939
-1.68588
-0.659811
0.303597
1.09502
1.64026
1.90443
1.89122
1.63767
1.2057
0.671597
0.115028
-0.391096
-0.788797
-1.04044
-1.13103
-1.06751
-0.875377
-0.593501
-0.267837
0.0548908
0.3328
0.533064
0.634363
0.627448
0.513983
0.30405
0.0128166
-0.343049
-0.74869
-1.19368
-1.67364
-2.19082
-2.75361
-3.37514
-4.07153
-4.85974
-5.75598
-6.77453
-7.92768
-9.22651
-10.6824
-12.3088
-14.1224
-16.1429
-18.3912
-20.8852
-23.6337
-26.6289
-29.8397
-33.2051
-36.6321
-39.9966
-43.1496
-45.9272
-48.1648
-49.7127
-50.4515
-50.3053
-49.2511
-47.3214
-44.6016
-41.2197
-37.33
-33.0903
-28.6344
-24.0398
-19.2936
-14.2607
-8.6622
-2.0716
6.05962
16.3406
29.3405
45.4548
64.7527
86.8302
110.699
134.742
156.759
174.125
184.044
183.889
171.584
145.976
107.128
56.493
-3.08591
-67.5573
-132.024
-191.241
-240.192
-274.667
-291.758
-290.216
-270.599
-235.221
-187.872
-133.383
-77.0689
-24.1344
20.886
54.5848
74.9848
81.6602
75.6706
59.3281
35.8362
8.85452
-17.9548
-41.3412
-58.7952
-68.7604
-70.7127
-65.1098
-53.2287
-36.9209
-18.3242
0.430839
17.4828
31.4408
41.5056
47.5058
49.8499
49.4114
47.3677
45.0161
43.5945
44.1275
47.3145
53.4701
62.5174
74.0306
87.3152
101.512
115.709
129.045
140.794
150.418
157.588
162.175
164.206
163.814
161.177
156.465
149.8
141.237
130.767
118.341
103.9
87.4292
68.995
48.7914
27.1655
4.62834
-18.1551
-40.3974
-61.2394
-79.8147
-95.3225
-107.1
-114.686
-117.87
-116.715
-111.562
-102.999
-91.8171
-78.9373
-65.3347
-51.9553
-39.6411
-29.0674
-20.7011
-14.7809
-11.3221
-10.1419
-10.903
-13.1667
-16.4521
-20.2912
-24.2763
-28.0945
-31.5468
-34.5513
-37.1326
-39.3988
-41.5113
-43.6507
-45.9829
-48.628
-51.6339
-54.9556
-58.4379
-61.802
-64.6363
-66.3914
-66.3881
-63.8436
-57.9279
-47.857
-33.0258
-13.1731
11.4398
39.8678
70.3744
100.417
126.753
145.687
153.441
146.628
122.761
80.7395
21.2124
-53.231
-138.112
-227.369
-313.9
-390.29
-449.631
-486.322
-496.752
-479.762
-436.817
-371.872
-290.936
-201.397
-111.204
-27.9868
41.7439
93.2474
123.966
133.67
124.318
99.6916
64.8292
25.3692
-13.1292
-45.7978
-68.9395
-80.3277
-79.3071
-66.701
-44.554
-15.7561
16.3948
48.6337
78.1198
102.735
121.267
133.454
139.92
142
141.492
140.378
140.551
143.568
150.473
161.697
177.038
195.722
216.527
237.951
258.394
276.344
290.523
300.003
304.257
303.169
296.987
286.241
271.643
253.981
234.021
212.433
189.747
166.339
142.452
118.233
93.7898
69.2434
44.7773
20.6678
-2.70638
-24.8788
-45.3302
-63.5391
-79.0403
-91.4817
-100.672
-106.609
-109.492
-109.704
-107.778
-104.342
-100.06
-95.5659
-91.4015
-87.9723
-85.5172
-84.099
-83.6146
-83.8239
-84.3898
-84.9265
-85.0483
-84.4138
-82.7606
-79.9288
-75.8708
-70.6495
-64.4248
-57.4335
-49.9626
-42.3222
-34.8179
-27.7273
-21.28
-15.6452
-10.9236
-7.14761
-4.28551
-2.25198
-0.921313
-0.143253
0.240717
0.381945
0.411512
0.430571
0.504832
0.663479
0.902293
1.19031
1.47904
1.71284
1.83936
1.81842
1.62869
1.27115
0.769304
0.16617
-0.481252
-1.10923
-1.65515
-2.06494
-2.29903
-2.33617
-2.17471
-1.83128
-1.33727
-0.733613
-0.0647929
0.627141
1.30765
1.95324
2.55308
3.10853
3.63092
4.13801
4.64996
5.1855
5.75921
6.38033
7.0536
7.78173
8.5694
9.42795
10.3805
11.4673
12.7517
14.3288
16.3364
18.9705
22.5014
27.2876
33.7778
42.4923
53.9741
68.7044
86.9847
108.796
133.655
160.501
187.634
212.745
233.05
245.532
247.276
235.862
209.762
168.681
113.787
47.7678
-25.3008
-100.279
-171.453
-233.135
-280.287
-309.103
-317.448
-305.119
-273.869
-227.21
-170
-107.898
-46.724
8.16143
52.4118
83.0978
98.93
100.279
89.0033
68.1233
41.3807
12.7551
-14.0078
-35.7976
-50.43
-56.7996
-54.8898
-45.6502
-30.7706
-12.387
7.23654
26.0081
42.2548
54.8909
63.4925
68.2795
70.0151
69.8446
69.0987
69.0914
70.9371
75.4102
82.8611
93.1925
105.897
120.141
134.888
149.028
161.515
171.476
178.293
181.643
181.494
178.069
171.781
163.15
152.728
141.024
128.462
115.355
101.913
88.2659
74.4979
60.6916
46.9609
33.4736
20.4581
8.19365
-3.01413
-12.8661
-21.1056
-27.5517
-32.1226
-34.848
-35.8667
-35.4115
-33.7832
-31.3182
-28.3542
-25.1984
-22.1021
-19.2442
-16.7256
-14.5731
-12.7517
-11.1831
-9.76673
-8.40123
-7.00255
-5.51756
-3.9314
-2.26857
-0.588191
1.02544
2.47517
3.66443
4.5099
4.9519
4.96137
4.5428
3.73315
2.59705
1.21924
-0.304667
-1.87801
-3.41211
-4.8336
-6.08934
-7.14836
-8.00101
-8.65553
-9.13286
-9.46052
-9.66651
-9.77417
-9.79863
-9.74519
-9.60951
-9.37957
-9.03851
-8.56785
-7.95034
-7.1715
-6.21926
-5.08097
-3.73697
-2.15011
-0.250489
2.08449
5.05394
8.95767
14.2147
21.366
31.0495
43.9337
60.601
81.3807
106.146
134.109
163.658
192.292
216.715
233.094
237.502
226.481
197.653
150.276
85.6197
7.10337
-79.8873
-168.479
-251.042
-320.079
-369.14
-393.632
-391.413
-363.073
-311.877
-243.364
-164.682
-83.726
-8.22275
55.1378
101.407
127.839
134.066
121.982
95.3618
59.2863
19.455
-18.5241
-49.7775
-70.6685
-79.1109
-74.67
-58.4575
-32.8515
-1.08943
33.2039
66.4904
95.737
118.732
134.27
142.195
143.313
139.189
131.87
123.583
116.428
112.126
111.831
116.04
124.582
136.7
151.195
166.61
181.428
194.254
203.968
209.819
211.463
208.95
202.651
193.162
181.195
167.472
152.633
137.193
121.515
105.824
90.2506
74.8717
59.7655
45.0489
30.8992
17.5553
5.30015
-5.57172
-14.7943
-22.1697
-27.6006
-31.1095
-32.8429
-33.0586
-32.0995
-30.3574
-28.2319
-26.0908
-24.2359
-22.879
-22.13
-21.9976
-22.4019
-23.1952
-24.19
-25.1875
-26.0051
-26.4987
-26.5784
-26.2147
-25.4374
-24.3262
-22.9958
-21.5777
-20.201
-18.9753
-17.9762
-17.2375
-16.7485
-16.4572
-16.2787
-16.1081
-15.8346
-15.356
-14.592
-13.4939
-12.0503
-10.2883
-8.27013
-6.08568
-3.84256
-1.65467
0.369146
2.13507
3.5719
4.63561
5.31072
5.60855
5.56312
5.22524
4.65572
3.91865
3.07546
2.18028
1.27715
0.398838
-0.432506
-1.20356
-1.90717
-2.53952
-3.09747
-3.57671
-3.97067
-4.27059
-4.46643
-4.54852
-4.50956
-4.34671
-4.06323
-3.66965
-3.18394
-2.63087
-2.0404
-1.44542
-0.878964
-0.371351
0.0525143
0.375258
0.5884
0.692768
0.697956
0.620899
0.483762
0.311412
0.128783
-0.041527
-0.181116
-0.276811
-0.32069
-0.309046
-0.240407
-0.112953
0.0781851
0.343147
0.698512
1.16698
1.7754
2.55116
3.5176
4.68881
6.06506
7.62939
9.34629
11.1628
13.012
14.819
16.5085
18.0121
19.2772
20.2722
20.9908
21.4533
21.7038
21.8053
21.8321
21.8608
21.9605
22.1845
22.5634
23.1012
23.7743
24.5338
25.311
26.0242
26.5872
26.9177
26.9446
26.6134
25.89
24.761
23.2331
21.3294
19.0851
16.5422
13.745
10.7343
7.5442
4.19883
0.711195
-2.91596
-6.68674
-10.6057
-14.6686
-18.8492
-23.0836
-27.2501
-31.1461
-34.4624
-36.759
-37.4468
-35.7871
-30.9204
-21.9384
-8.01079
11.434
36.4846
66.5138
99.9825
134.343
166.093
191.022
204.646
202.807
182.333
141.679
81.4139
4.44829
-84.0487
-177.076
-266.519
-344.073
-402.244
-435.282
-439.91
-415.753
-365.398
-294.085
-209.07
-118.76
-31.7218
44.2818
103.127
140.926
156.321
150.473
126.736
90.113
46.545
2.15083
-37.4917
-67.9389
-86.2865
-91.3534
-83.6431
-65.1061
-38.7531
-8.17897
22.9345
51.275
74.2632
90.2888
98.8034
100.273
96.0136
87.9348
78.243
69.1349
62.5252
59.8354
61.8649
68.7502
80.0091
94.6555
111.364
128.658
145.098
159.446
170.782
178.571
182.673
183.297
180.915
176.147
169.645
161.988
153.595
144.694
135.313
125.324
114.511
102.648
89.5803
75.2938
59.9498
43.8948
27.6349
11.7855
-2.99809
-16.0952
-26.9903
-35.3287
-40.9498
-43.8966
-44.3998
-42.8416
-39.706
-35.5212
-30.804
-26.0116
-21.5062
-17.5356
-14.2291
-11.6078
-9.60675
-8.10243
-6.94392
-5.98119
-5.08845
-4.17997
-3.21736
-2.20882
-1.20144
-0.268671
0.504678
1.03764
1.26629
1.15344
0.693801
-0.0856054
-1.12936
-2.36103
-3.69257
-5.03452
-6.30525
-7.43832
-8.38711
-9.12615
-9.64954
-9.96685
-10.0974
-10.0641
-9.88761
-9.58173
-9.1512
-8.5913
-7.88976
-7.03036
-5.99765
-4.78172
-3.38247
-1.8124
-0.0975095
1.7238
3.60379
5.48981
7.32939
9.07524
10.6893
12.1452
13.4291
14.5381
15.4779
16.2583
16.8892
17.3764
17.7189
17.9074
17.9252
17.75
17.3578
16.7278
15.8464
14.7116
13.3356
11.7457
9.98331
8.10123
6.15902
4.21773
2.33411
0.555258
-1.08558
-2.57158
-3.90275
-5.09431
-6.17293
-7.17167
-8.12398
-9.05783
-9.99062
-10.9257
-11.8507
-12.7381
-13.548
-14.2312
-14.7341
-15.0012
-14.9767
-14.6003
-13.7984
-12.4675
-10.4504
-7.50749
-3.28762
2.69253
11.0474
22.4857
37.7232
57.339
81.5797
110.134
141.919
174.931
206.223
232.048
248.198
250.512
235.498
200.978
146.633
74.3459
-11.7335
-105.463
-199.282
-285.042
-354.956
-402.555
-423.504
-416.156
-381.775
-324.379
-250.258
-167.2
-83.5591
-7.28849
54.9518
98.4834
121.027
122.81
106.363
76.0579
37.4565
-3.43679
-40.9159
-70.2193
-88.0084
-92.6342
-84.1755
-64.2653
-35.7444
-2.19987
32.5441
64.9166
92.0134
111.89
123.711
127.744
125.229
118.13
108.823
99.7676
93.188
90.8154
93.7104
102.181
115.799
133.499
153.75
174.762
194.709
211.933
225.107
233.35
236.268
233.942
226.85
215.763
201.61
185.344
167.828
149.745
131.553
113.476
95.531
77.5876
59.4424
40.8968
21.8285
2.24355
-17.695
-37.6667
-57.2189
-75.814
-92.8901
-107.927
-120.508
-130.37
-137.433
-141.809
-143.79
-143.813
-142.41
-140.152
-137.591
-135.203
-133.35
-132.251
-131.972
-132.429
-133.4
-134.546
-135.431
-135.531
-134.244
-130.897
-124.754
-115.054
-101.083
-82.2921
-58.4814
-30.0163
1.94663
35.2845
66.851
92.5996
107.924
108.214
89.5634
49.5314
-12.1801
-93.2789
-188.774
-291.268
-391.651
-480.105
-547.297
-585.575
-590.002
-559.055
-494.898
-403.184
-292.404
-172.884
-55.5788
49.201
132.929
189.751
217.009
215.358
188.477
142.437
84.837
23.8062
-32.9671
-79.0833
-110.052
-123.63
-119.86
-100.834
-70.2293
-32.697
6.80146
43.6345
74.0336
95.467
106.824
108.404
101.736
89.2627
73.9459
58.8461
46.7349
39.7811
39.3417
45.8742
58.9658
77.4642
99.6842
123.655
147.373
169.033
187.202
200.933
209.799
213.86
213.572
209.652
202.935
194.229
184.202
173.311
161.773
149.599
136.651
122.738
107.712
91.5557
74.4389
56.7453
39.0517
22.0729
6.57693
-6.71299
-17.2162
-24.5753
-28.7081
-29.8235
-28.3992
-25.1248
-20.8186
-16.3312
-12.4465
-9.79592
-8.79387
-9.60317
-12.1323
-16.0638
-20.9077
-26.0728
-30.9449
-34.9633
-37.6851
-38.8306
-38.307
-36.2069
-32.7864
-28.4249
-23.5736
-18.7005
-14.238
-10.5388
-7.84558
-6.27546
-5.82075
-6.36345
-7.70086
-9.57799
-11.7221
-13.8755
-15.8221
-17.4063
-18.5419
-19.2108
-19.4544
-19.357
-19.0261
-18.5716
-18.087
-17.6345
-17.237
-16.8765
-16.4999
-16.0304
-15.3824
-14.4788
-13.2657
-11.725
-9.88038
-7.79803
-5.58039
-3.35502
-1.25966
0.574139
2.03653
3.05208
3.58796
3.65667
3.31332
2.64778
1.77328
0.812701
-0.115357
-0.909095
-1.49322
-1.82484
-1.89506
-1.72657
-1.36767
-0.883897
-0.348413
0.167551
0.603071
0.913798
1.07559
1.08534
0.959258
0.729083
0.436982
0.129978
-0.145346
-0.347192
-0.441494
-0.403227
-0.216059
0.129465
0.638855
1.31722
2.17275
3.21948
4.47846
5.97673
7.74369
9.8048
12.1732
14.8405
17.7681
20.881
24.0662
27.1763
30.039
32.4715
34.2989
35.3728
35.5894
34.902
33.3286
30.9505
27.9044
24.3672
20.5364
16.6093
12.7632
9.14071
5.84392
2.9388
0.472339
-1.49749
-2.86059
-3.40651
-2.77682
-0.429602
4.36903
12.5093
24.9435
42.5246
65.7851
94.6796
128.335
164.866
201.325
233.826
257.873
268.879
262.806
236.847
190.014
123.544
41.0153
-51.857
-147.746
-238.496
-316.051
-373.419
-405.511
-409.765
-386.446
-338.602
-271.672
-192.82
-110.077
-31.4073
36.1741
87.3267
118.876
130.02
122.236
98.9391
64.9228
25.6936
-13.2303
-46.9592
-71.7401
-85.2842
-86.887
-77.3476
-58.7149
-33.9071
-6.26503
20.9021
44.7203
63.0608
74.727
79.5087
78.1091
71.9675
63.0088
53.3579
45.0573
39.8216
38.855
42.7477
51.4567
64.3633
80.3943
98.1859
116.265
133.228
147.887
159.385
167.249
171.396
172.093
169.869
165.412
159.448
152.638
145.484
138.28
131.09
123.777
116.054
107.567
97.9836
87.0788
74.7986
61.2973
46.9382
32.2605
17.9176
4.5965
-7.06942
-16.5803
-23.6318
-28.151
-30.3009
-30.4558
-29.15
-27.0093
-24.6742
-22.7254
-21.6211
-21.6527
-22.924
-25.3544
-28.7035
-32.6139
-36.6636
-40.4225
-43.5043
-45.6095
-46.553
-46.277
-44.8461
-42.4295
-39.2715
-35.6568
-31.8738
-28.1813
-24.7823
-21.8069
-19.3056
-17.253
-15.5598
-14.0914
-12.69
-11.1973
-9.47592
-7.42613
-4.99776
-2.1952
0.923975
4.25635
7.6648
10.9937
14.0853
16.7954
19.0063
20.6365
21.6454
22.0339
21.8406
21.1343
20.0054
18.5549
16.8853
15.0911
13.2528
11.4321
9.67043
7.98914
6.3922
4.86987
3.4034
1.96989
0.546925
-0.883474
-2.33189
-3.79962
-5.27788
-6.7482
-8.18368
-9.55103
-10.8132
-11.9322
-12.8722
-13.6017
-14.0963
-14.3398
-14.3247
-14.0526
-13.5332
-12.7829
-11.8229
-10.6786
-9.3772
-7.94749
-6.41902
-4.82196
-3.18712
-1.54589
0.0699554
1.62881
3.10011
4.45557
5.67055
6.72539
7.60654
8.30724
8.82759
9.174
9.35813
9.39528
9.30267
9.09771
8.79655
8.41305
7.95823
7.44028
6.86485
6.23562
5.55507
4.82509
4.04773
3.22578
2.36329
1.46606
0.542063
-0.398375
-1.3425
-2.27547
-3.18095
-4.04216
-4.84301
-5.56945
-6.21053
-6.75922
-7.21251
-7.57096
-7.83733
-8.01439
-8.10148
-8.08957
-7.95376
-7.6425
-7.06233
-6.05772
-4.38678
-1.6956
2.5028
8.83594
18.0531
30.9669
48.3444
70.7433
98.3028
130.516
166.025
202.5
236.65
264.415
281.343
283.143
266.324
228.847
170.65
93.9663
3.33395
-94.72
-192.305
-281.025
-352.959
-401.614
-422.732
-414.823
-379.356
-320.572
-244.974
-160.531
-75.7356
1.36929
64.0763
107.694
129.95
131.091
113.666
82.061
41.8442
-0.97471
-40.6809
-72.4924
-93.0304
-100.58
-95.124
-78.1719
-52.4162
-21.2808
11.576
42.7381
69.4293
89.7926
103.026
109.376
109.995
106.705
101.697
97.212
95.2501
97.3313
104.342
116.475
133.256
153.657
176.263
199.467
221.675
241.483
257.815
270.002
277.799
281.352
281.106
277.692
271.8
264.053
254.921
244.654
233.278
220.621
206.39
190.26
171.983
151.479
128.905
104.683
79.4879
54.1912
29.7773
7.23467
-12.5536
-28.9076
-41.4231
-50.0093
-54.8881
-56.5566
-55.7188
-53.1976
-49.8383
-46.4165
-43.5612
-41.7017
-41.0417
-41.5632
-43.0566
-45.1698
-47.4713
-49.5152
-50.9028
-51.3316
-50.6265
-48.7532
-45.8107
-42.0086
-37.6309
-32.9947
-28.4079
-24.1324
-20.3564
-17.1799
-14.6118
-12.5801
-10.9508
-9.55305
-8.20643
-6.7462
-5.04422
-3.02307
-0.662335
2.00252
4.88792
7.8748
10.8241
13.593
16.0501
18.0875
19.6295
20.6364
21.1045
21.0617
20.5603
19.6683
18.4602
17.0082
15.3754
13.6115
11.7507
9.81225
7.8031
5.72162
3.56243
1.32103
-1.0019
-3.39701
-5.84342
-8.30624
-10.7333
-13.0498
-15.1497
-16.8823
-18.0346
-18.3116
-17.3211
-14.5693
-9.48025
-1.44933
10.0607
25.3796
44.4558
66.674
90.7022
114.415
134.94
148.854
152.549
142.717
116.913
74.0918
15.0287
-57.4813
-138.694
-222.286
-300.988
-367.408
-414.926
-438.538
-435.52
-405.819
-352.105
-279.485
-194.912
-106.371
-21.9568
51.0369
106.9
142.069
155.405
148.172
123.734
87.0173
43.837
0.158533
-38.5943
-68.1124
-85.5928
-89.9165
-81.6085
-62.6053
-35.8753
-4.95151
26.5568
55.413
79.1114
96.1098
105.92
109.063
106.9
101.382
94.75
89.2301
86.7595
88.7747
96.0803
108.805
126.443
147.961
171.958
196.846
221.033
243.08
261.819
276.426
286.436
291.716
292.401
288.809
281.349
270.446
256.482
239.773
220.575
199.113
175.627
150.419
123.892
96.5672
69.0776
42.1382
16.4958
-7.13327
-28.1269
-46.0145
-60.5181
-71.5728
-79.3239
-84.1026
-86.3834
-86.7293
-85.7331
-83.9602
-81.9003
-79.9327
-78.3065
-77.1383
-76.4237
-76.0616
-75.8852
-75.6965
-75.2992
-74.526
-73.2584
-71.4364
-69.0598
-66.1797
-62.8846
-59.2808
-55.4733
-51.5466
-47.5512
-43.496
-39.3477
-35.0391
-30.4829
-25.59
-20.2893
-14.5458
-8.37396
-1.84471
4.91518
11.7314
18.3965
24.6892
30.3951
35.3267
39.3408
42.3497
44.3263
45.3023
45.3603
44.6196
43.2204
41.3056
39.0047
36.4195
33.6152
30.6163
27.408
23.943
20.1534
15.9648
11.3137
6.1631
0.516586
-5.57198
-11.9947
-18.5917
-25.1593
-31.4614
-37.2416
-42.2331
-46.1618
-48.7411
-49.6598
-48.5665
-45.0583
-38.6873
-28.9966
-15.5981
1.70363
22.7495
46.8489
72.6256
97.9369
119.913
135.151
140.073
131.415
106.787
65.2099
7.52591
-63.4106
-142.82
-224.384
-300.888
-365.052
-410.42
-432.19
-427.853
-397.556
-344.12
-272.728
-190.31
-104.723
-23.8337
45.3757
97.5571
129.52
140.468
131.938
107.46
72.0055
31.3053
-8.87725
-43.4129
-68.3444
-81.236
-81.3084
-69.3612
-47.5113
-18.7959
13.2976
45.3112
74.243
97.8758
114.975
125.342
129.737
129.684
127.203
124.502
123.672
126.43
133.924
146.629
164.33
186.193
210.901
236.837
262.283
285.609
305.436
320.747
330.941
335.836
335.611
330.719
321.776
309.453
294.374
277.048
257.839
236.967
214.545
190.638
165.328
138.78
111.282
83.2754
55.3403
28.1661
2.49496
-20.9477
-41.5252
-58.7543
-72.3541
-82.2716
-88.6818
-91.9617
-92.6428
-91.3487
-88.7251
-85.3718
-81.7858
-78.32
-75.1644
-72.3494
-69.7702
-67.2272
-64.477
-61.2846
-57.4714
-52.9508
-47.7481
-42.002
-35.9487
-29.8918
-24.1625
-19.0772
-14.8972
-11.7969
-9.84393
-8.99384
-9.09881
-9.92871
-11.2011
-12.616
-13.89
-14.7867
-15.1383
-14.8575
-13.9386
-12.4484
-10.5096
-8.2791
-5.92468
-3.60349
-1.44475
0.461506
2.06879
3.37201
4.39993
5.20403
5.84599
6.38579
6.87221
7.33702
7.7932
8.23718
8.65423
9.02574
9.33688
9.58324
9.77496
9.9377
10.11
10.3373
10.6639
11.1234
11.7303
12.4722
13.3066
14.1607
14.9348
15.5106
15.7614
15.5664
14.8266
13.4842
11.5449
9.1048
6.37939
3.73382
1.70703
1.02094
2.56174
7.31955
16.2755
30.233
49.6038
74.1757
102.906
133.796
163.897
189.49
206.452
210.775
199.171
169.683
122.169
58.5913
-16.9927
-98.7327
-179.576
-252.066
-309.233
-345.464
-357.213
-343.456
-305.831
-248.433
-177.318
-99.7611
-23.3983
44.6542
98.5775
134.436
150.509
147.334
127.49
95.1392
55.4309
13.8223
-24.5749
-55.5542
-76.2164
-85.1789
-82.5848
-69.9272
-49.728
-25.1244
0.578724
24.3312
43.6868
57.0424
63.7505
64.1024
59.197
50.7248
40.6992
31.1761
23.9951
20.5747
21.7773
27.8571
38.4849
52.8408
69.7542
87.8688
105.809
122.327
136.415
147.366
154.799
158.628
159.004
156.244
150.748
142.931
133.181
121.833
109.173
95.46
80.9527
65.9411
50.7639
35.8128
21.5194
8.32631
-3.3511
-13.1677
-20.8869
-26.4086
-29.7819
-31.2008
-30.9822
-29.531
-27.2958
-24.7225
-22.2098
-20.0746
-18.5282
-17.6675
-17.4792
-17.8572
-18.6272
-19.5774
-20.4891
-21.1636
-21.4441
-21.2293
-20.4781
-19.2078
-17.4857
-15.4159
-13.125
-10.7468
-8.40971
-6.22552
-4.28277
-2.64273
-1.33887
-0.378741
0.252421
0.587077
0.670534
0.556391
0.302629
-0.0315153
-0.387911
-0.711302
-0.950732
-1.06086
-1.0034
-0.748751
-0.277854
0.41584
1.32469
2.42591
3.68221
5.04507
6.46204
7.8896
9.3128
10.7727
12.4008
14.4575
17.3687
21.7497
28.4015
38.2644
52.3105
71.3692
95.8898
125.666
159.571
195.362
229.633
257.968
275.325
276.642
257.592
215.375
149.415
61.8222
-42.5003
-156.142
-269.872
-373.64
-457.755
-514.086
-537.099
-524.579
-477.946
-402.104
-304.856
-195.97
-86.0242
14.8177
97.9285
157.112
189.16
194.024
174.602
136.191
85.6936
30.6993
-21.4482
-64.4713
-93.785
-106.865
-103.336
-84.8001
-54.4401
-16.4767
24.4457
63.8609
98
124.171
140.97
148.308
147.281
139.904
128.764
116.63
106.098
99.279
97.5847
101.625
111.207
125.441
142.911
161.899
180.617
197.425
211
220.449
225.352
225.735
221.997
214.786
204.872
193.02
179.883
165.943
151.487
136.626
121.353
105.607
89.3554
72.6521
55.6805
38.7649
22.352
6.96736
-6.8461
-18.5963
-27.9054
-34.5595
-38.5372
-40.0126
-39.3349
-36.9871
-33.5304
-29.5435
-25.5633
-22.0352
-19.2792
-17.4728
-16.6525
-16.732
-17.5312
-18.8138
-20.3254
-21.8281
-23.1288
-24.0963
-24.6678
-24.8455
-24.6844
-24.2742
-23.7183
-23.1146
-22.5377
-22.0285
-21.5887
-21.1832
-20.7473
-20.1993
-19.4547
-18.44
-17.1053
-15.432
-13.4362
-11.1668
-8.69932
-6.1259
-3.54451
-1.04787
1.28534
3.39621
5.24753
6.82224
8.11914
9.1473
9.92053
10.4532
10.7583
10.848
10.7364
10.443
9.99661
9.43718
8.81576
8.19127
7.62508
7.17504
6.89152
6.81932
7.00889
7.53927
8.55225
10.2927
13.1447
17.6488
24.4806
34.3777
48.0024
65.7505
87.5265
112.531
139.115
164.757
186.203
199.792
201.93
189.656
161.211
116.497
57.3419
-12.5091
-87.684
-161.74
-227.907
-279.913
-312.774
-323.431
-311.141
-277.571
-226.585
-163.754
-95.6725
-29.1588
29.5305
75.3891
105.162
117.61
113.512
95.4385
67.3133
33.8599
-0.0104235
-29.7817
-51.8212
-63.7212
-64.4662
-54.4206
-35.1546
-9.14383
20.6097
50.9822
79.1086
102.694
120.229
131.085
135.502
134.469
129.527
122.53
115.386
109.823
107.198
108.366
113.624
122.728
134.962
149.266
164.382
179.006
191.931
202.159
208.973
211.967
211.038
206.342
198.226
187.151
173.616
158.093
140.98
122.58
103.103
82.6873
61.4368
39.4663
16.9417
-5.88768
-28.6736
-50.9723
-72.2669
-92.0068
-109.657
-124.752
-136.947
-146.055
-152.075
-155.19
-155.759
-154.274
-151.323
-147.523
-143.471
-139.685
-136.565
-134.365
-133.179
-132.955
-133.509
-134.56
-135.766
-136.76
-137.174
-136.653
-134.851
-131.407
-125.916
-117.888
-106.732
-91.7615
-72.2621
-47.6267
-17.5611
17.6549
56.8929
97.9519
137.46
170.976
193.327
199.197
183.89
144.186
79.1128
-9.49063
-116.768
-235.067
-354.604
-464.491
-554.006
-613.912
-637.652
-622.218
-568.596
-481.695
-369.79
-243.547
-114.771
4.95204
105.547
179.504
222.586
234.101
216.75
176.076
119.622
55.912
-6.60333
-60.5052
-100.162
-122.205
-125.694
-111.974
-84.2797
-47.1436
-5.71758
34.9171
70.3564
97.3346
113.998
119.979
116.275
104.982
88.9141
71.1822
54.7781
42.2202
35.2954
34.9177
41.1098
53.094
69.4711
88.4537
108.119
126.647
142.52
154.654
162.459
165.835
165.095
160.854
153.887
144.994
134.878
124.063
112.852
101.325
89.3826
76.8104
63.3585
48.8223
33.1093
16.2852
-1.40771
-19.5578
-37.6172
-54.9517
-70.9028
-84.8505
-96.272
-104.789
-110.2
-112.493
-111.844
-108.599
-103.24
-96.3425
-88.531
-80.4286
-72.6119
-65.5715
-59.6825
-55.1854
-52.1806
-50.6343
-50.3957
-51.2229
-52.8148
-54.8455
-56.997
-58.9889
-60.6002
-61.6836
-62.1702
-62.0658
-61.4394
-60.4067
-59.1098
-57.6951
-56.2915
-54.9881
-53.8116
-52.7017
-51.484
-49.8408
-47.2812
-43.1201
-36.4731
-26.2859
-11.4114
9.25021
36.5441
70.7989
111.541
157.237
205.137
251.277
290.705
317.93
327.586
315.21
278.032
215.632
130.34
27.274
-86.0104
-200.245
-305.459
-392.135
-452.351
-480.751
-475.196
-437.019
-370.843
-283.997
-185.625
-85.5851
6.67396
83.1525
138.106
168.539
174.347
158.102
124.548
79.8667
30.8492
-15.9446
-54.9196
-81.9982
-94.9411
-93.4176
-78.8412
-54.0132
-22.6358
11.233
43.7095
71.5377
92.4177
105.181
109.811
107.313
99.4827
88.5907
77.0508
67.1016
60.5453
58.5677
61.6536
69.5963
81.5915
96.3928
112.503
128.373
142.584
153.988
161.794
165.607
165.397
161.439
154.216
144.313
132.319
118.745
103.974
88.2418
71.652
54.2136
35.8964
16.6909
-3.33841
-24.0151
-45.0344
-65.9704
-86.3063
-105.481
-122.948
-138.232
-150.981
-161.007
-168.301
-173.034
-175.531
-176.237
-175.662
-174.331
-172.73
-171.258
-170.203
-169.718
-169.819
-170.391
-171.197
-171.888
-172.004
-170.973
-168.094
-162.539
-153.364
-139.569
-120.219
-94.632
-62.6368
-24.8649
16.9861
59.9893
100.007
131.95
150.302
149.857
126.584
78.4727
6.19359
-86.5646
-193.186
-304.669
-410.575
-500.247
-564.142
-595.065
-589.132
-546.312
-470.476
-368.944
-251.597
-129.689
-14.5124
83.886
157.799
202.61
217.135
203.534
166.828
114.108
53.5568
-6.58633
-58.9807
-97.954
-120.005
-124.002
-111.08
-84.2738
-47.9623
-7.20088
32.9576
68.0754
94.8037
111.177
116.708
112.292
99.9511
82.4731
62.9868
44.5463
29.7669
20.5538
17.9487
22.0983
32.338
47.3659
65.4748
84.8081
103.602
120.383
134.105
144.209
150.607
153.605
153.778
151.82
148.4
144.032
138.994
133.288
126.653
118.632
108.661
96.1865
80.7819
62.2451
40.6707
16.4811
-9.58339
-36.5153
-63.1248
-88.1476
-110.363
-128.712
-142.391
-150.93
-154.228
-152.552
-146.509
-136.974
-125.005
-111.745
-98.3126
-85.7138
-74.7624
-66.0271
-59.8061
-56.1297
-54.788
-55.3802
-57.3767
-60.1889
-63.2357
-66.0024
-68.0849
-69.2157
-69.2717
-68.2633
-66.3098
-63.6041
-60.3729
-56.8388
-53.1861
-49.536
-45.9311
-42.3282
-38.5971
-34.5233
-29.8089
-24.0729
-16.8497
-7.59286
4.30884
19.4881
38.5177
61.7828
89.3083
120.561
154.261
188.255
219.499
244.214
258.212
257.4
238.396
199.162
139.556
61.6787
-30.0665
-129.24
-227.953
-317.704
-390.363
-439.153
-459.5
-449.623
-410.78
-347.13
-265.247
-173.339
-80.2824
5.38692
76.4135
127.565
156.098
161.906
147.349
116.797
75.9762
31.1992
-11.4107
-46.6122
-70.573
-81.1852
-78.1448
-62.8093
-37.8675
-6.88114
26.2371
57.7375
84.4788
104.256
115.984
119.721
116.555
108.371
97.5373
86.5641
77.7761
73.0328
73.5326
79.7136
91.2561
107.175
125.986
145.912
165.11
181.879
194.833
203.015
205.954
203.65
196.517
185.275
170.833
154.163
136.19
117.711
99.3419
81.498
64.4087
48.1504
32.6964
17.9708
3.89928
-9.5516
-22.3493
-34.3878
-45.4965
-55.4625
-64.0612
-71.0908
-76.4051
-79.9381
-81.7196
-81.8775
-80.6271
-78.2498
-75.0631
-71.3857
-67.5034
-63.6396
-59.9336
-56.4313
-53.0884
-49.7856
-46.3542
-42.6096
-38.3849
-33.5646
-28.1086
-22.068
-15.5864
-8.89045
-2.26768
3.96256
9.48267
14.01
17.3257
19.2961
19.8837
19.1492
17.2414
14.3804
10.8335
6.88917
2.83002
-1.09111
-4.67005
-7.76359
-10.2944
-12.2486
-13.6667
-14.6296
-15.2415
-15.6122
-15.8406
-16.0019
-16.1393
-16.2614
-16.3448
-16.3413
-16.1883
-15.8208
-15.1821
-14.2337
-12.9605
-11.373
-9.50487
-7.40716
-5.14033
-2.76555
-0.336857
2.10402
4.52958
6.92454
9.28062
11.5891
13.8331
15.9806
17.9806
19.7635
21.2442
22.3298
22.9297
22.966
22.3842
21.162
19.3165
16.9092
14.0524
10.9153
7.73477
4.82975
2.6187
1.6362
2.54056
6.10066
13.148
24.4804
40.7113
62.0695
88.1738
117.823
148.859
178.162
201.818
215.49
214.954
196.747
158.821
101.094
25.7727
-62.6234
-157.575
-251.197
-335.109
-401.433
-443.771
-458.017
-442.895
-400.138
-334.29
-252.153
-161.964
-72.4257
8.30493
73.5078
118.585
141.455
142.62
124.925
93.0511
52.8248
10.4473
-28.2632
-58.5199
-77.0355
-82.2691
-74.4402
-55.3277
-27.8998
4.16705
37.0083
67.0653
91.4932
108.443
117.191
118.123
112.577
102.587
90.5639
78.9646
69.9795
65.2881
65.8972
72.0769
83.3921
98.8161
116.904
136
154.446
170.768
183.819
192.866
197.608
198.142
194.884
188.451
179.548
168.852
156.931
144.196
130.893
117.131
102.935
88.3129
73.3157
58.0898
42.8991
28.1223
14.2226
1.69699
-8.98665
-17.4524
-23.4699
-26.9901
-28.157
-27.2951
-24.874
-21.4556
-17.6315
-13.9599
-10.9085
-8.81187
-7.84665
-8.02674
-9.21786
-11.168
-13.5491
-16.0033
-18.1895
-19.8223
-20.7015
-20.7288
-19.9098
-18.3449
-16.209
-13.7245
-11.1317
-8.65968
-6.50125
-4.79475
-3.61378
-2.96541
-2.79636
-3.00543
-3.46018
-4.01538
-4.53089
-4.8868
-4.99431
-4.80152
-4.29391
-3.49011
-2.43405
-1.1848
0.194313
1.64581
3.12625
4.61142
6.09811
7.60225
9.15377
10.7888
12.5404
14.4289
16.4529
18.5838
20.762
22.8987
24.8808
26.5799
27.8639
28.6097
28.7162
28.1152
26.779
24.7253
22.0167
18.7561
15.0789
11.1414
7.10803
3.13755
-0.629847
-4.0831
-7.1473
-9.78571
-11.9954
-13.7953
-15.2057
-16.2184
-16.7591
-16.6442
-15.5377
-12.9184
-8.07031
-0.112198
11.9186
28.9197
51.5164
79.8147
113.154
149.912
187.429
222.094
249.631
265.569
265.857
247.514
209.238
151.821
78.321
-6.09709
-94.6241
-179.537
-253.095
-308.471
-340.593
-346.775
-327.038
-284.1
-223.02
-150.565
-74.3809
-2.09043
59.5731
105.48
132.592
140.162
129.664
104.443
69.1884
29.2738
-9.92309
-43.6453
-68.2519
-81.5347
-82.8331
-72.9528
-53.9146
-28.5813
-0.220082
27.9402
53.1022
73.1992
87.0736
94.5245
96.2315
93.576
88.3938
82.6945
78.3886
77.0523
79.7576
86.9815
98.5958
113.933
131.91
151.188
170.345
188.04
203.143
214.828
222.607
226.324
226.106
222.286
215.315
205.676
193.817
180.112
164.845
148.225
130.418
111.588
91.934
71.7245
51.3042
31.0911
11.5522
-6.83256
-23.6124
-38.4082
-50.9478
-61.0891
-68.8291
-74.297
-77.7337
-79.4608
-79.8432
-79.2509
-78.0237
-76.4432
-74.7147
-72.9597
-71.2196
-69.468
-67.63
-65.6045
-63.2865
-60.5875
-57.449
-53.8516
-49.8158
-45.3983
-40.6833
-35.7721
-30.7718
-25.7855
-20.9051
-16.2069
-11.75
-7.57747
-3.7192
-0.195686
2.97819
5.78983
8.22671
10.2755
11.9226
13.1555
13.9655
14.3505
14.3176
13.885
13.083
11.9533
10.5467
8.92014
7.13192
5.23768
3.28643
1.31801
-0.637429
-2.55736
-4.42152
-6.20244
-7.85103
-9.27625
-10.3187
-10.7192
-10.0871
-7.87444
-3.37023
4.27165
15.9536
32.4939
54.4258
81.7538
113.707
148.546
183.488
214.802
238.114
248.903
243.137
217.966
172.333
107.406
26.7282
-63.9767
-157.325
-245.071
-319.072
-372.282
-399.638
-398.7
-369.965
-316.808
-245.063
-162.302
-76.9225
2.83512
69.8181
118.713
146.542
152.846
139.567
110.64
71.386
27.7874
-14.2649
-49.6451
-74.5192
-86.6716
-85.6077
-72.4418
-49.6014
-20.4026
11.4414
42.3112
69.1128
89.6032
102.58
107.923
106.508
99.9927
90.5461
80.5275
72.1824
67.3783
67.4125
72.9061
83.7887
99.3641
118.442
139.51
160.927
181.097
198.629
212.44
221.816
226.415
226.236
221.552
212.817
200.59
185.448
167.928
148.496
127.529
105.333
82.1638
58.2642
33.8986
9.38093
-14.909
-38.5255
-60.9725
-81.7348
-100.318
-116.294
-129.345
-139.298
-146.145
-150.049
-151.33
-150.434
-147.891
-144.266
-140.104
-135.885
-131.988
-128.661
-126.021
-124.051
-122.627
-121.533
-120.494
-119.189
-117.26
-114.308
-109.865
-103.379
-94.1836
-81.5147
-64.5569
-42.5634
-15.0457
17.9729
55.6748
96.1955
136.477
172.304
198.584
209.877
201.141
168.599
110.562
28.0762
-74.7658
-190.945
-311.083
-424.417
-520.042
-588.255
-621.802
-616.841
-573.479
-495.809
-391.436
-270.57
-144.807
-25.7714
76.1979
153.159
200.333
216.458
203.695
167.143
114.029
52.709
-8.38247
-61.7155
-101.45
-123.952
-127.999
-114.672
-86.986
-49.3172
-6.72328
35.75
73.6896
103.792
124.151
134.341
135.304
129.072
118.388
106.261
95.5521
88.6013
86.9752
91.3305
101.411
116.164
133.942
152.773
170.632
185.704
196.589
202.434
202.979
198.523
189.819
177.92
164.002
149.187
134.395
120.238
106.971
94.4993
82.435
70.1985
57.139
42.6624
26.3465
8.0296
-12.1387
-33.6895
-55.8694
-77.7144
-98.1513
-116.116
-130.673
-141.118
-147.063
-148.471
-145.664
-139.28
-130.2
-119.451
-108.086
-97.0833
-87.2386
-79.0961
-72.899
-68.5712
-65.7234
-63.6773
-61.5026
-58.0614
-52.0627
-42.1334
-26.9195
-5.23082
23.7617
60.2809
103.676
152.182
202.77
251.164
292.077
319.688
328.342
313.377
271.962
203.805
111.567
0.908728
-119.908
-240.814
-351.037
-440.365
-500.395
-525.576
-513.907
-467.19
-390.802
-293.027
-184.045
-74.7154
24.6747
105.545
161.891
190.803
192.583
170.472
130.051
78.4061
23.1828
-28.3471
-70.0953
-97.7516
-109.11
-104.11
-84.6154
-53.9808
-16.4774
23.3323
61.1918
93.6467
118.388
134.415
142.01
142.557
138.228
131.611
125.311
121.593
122.106
127.713
138.439
153.533
171.626
190.95
209.585
225.708
237.795
244.772
246.092
241.74
232.176
218.219
200.917
181.4
160.747
139.882
119.509
100.081
81.815
64.7319
48.716
33.5859
19.1611
5.316
-7.98344
-20.6657
-32.5611
-43.4271
-52.9868
-60.9732
-67.172
-71.4571
-73.8136
-74.3455
-73.2682
-70.8862
-67.5616
-63.6757
-59.5899
-55.61
-51.9584
-48.7561
-46.0167
-43.6529
-41.4942
-39.3139
-36.862
-33.9009
-30.2398
-25.7624
-20.4473
-14.3757
-7.72808
-0.768908
6.17832
12.7625
18.6389
23.5028
27.1174
29.3347
30.1063
29.485
27.6148
24.7144
21.0531
16.9245
12.619
8.39941
4.48054
1.01581
-1.90925
-4.27599
-6.12504
-7.54351
-8.64872
-9.57072
-10.4354
-11.3501
-12.3929
-13.6063
-14.9955
-16.5313
-18.1562
-19.7926
-21.353
-22.7491
-23.9003
-24.7401
-25.2193
-25.3074
-24.9914
-24.2737
-23.1689
-21.7007
-19.9002
-17.8031
-15.4487
-12.8784
-10.1344
-7.25831
-4.28911
-1.26202
1.79275
4.85053
7.89192
10.9015
13.866
16.7712
19.5994
22.3259
24.9167
27.3268
29.4996
31.3688
32.8608
33.9002
34.4156
34.3466
33.6506
32.3088
30.3304
27.754
24.6475
21.1038
17.2357
13.1684
9.03131
4.95029
1.04002
-2.60177
-5.89847
-8.79695
-11.268
-13.3054
-14.9233
-16.1529
-17.0383
-17.6317
-17.9885
-18.1622
-18.1996
-18.137
-17.9973
-17.7892
-17.5073
-17.1351
-16.6497
-16.0266
-15.246
-14.2985
-13.1891
-11.9395
-10.5879
-9.1868
-7.79776
-6.48522
-5.30937
-4.31928
-3.54706
-3.00405
-2.67917
-2.53985
-2.53519
-2.601
-2.66598
-2.6584
-2.5125
-2.17392
-1.60377
-0.781052
0.296615
1.61378
3.13913
4.82824
6.6266
8.47271
10.3007
12.0429
13.6311
14.9989
16.0827
16.8242
17.1725
17.0871
16.542
15.5286
14.0593
12.1696
9.9186
7.3873
4.67514
1.89401
-0.839192
-3.41086
-5.71911
-7.68125
-9.23967
-10.3653
-11.0588
-11.3486
-11.2866
-10.9426
-10.397
-9.73242
-9.02737
-8.34935
-7.75051
-7.26493
-6.9081
-6.67814
-6.55853
-6.52178
-6.53344
-6.55604
-6.55243
-6.48848
-6.33492
-6.06845
-5.67207
-5.13486
-4.45117
-3.6194
-2.6403
-1.51511
-0.243643
1.17725
2.75441
4.49793
6.41925
8.52797
10.8276
13.3112
15.957
18.7263
21.5623
24.3923
27.1313
29.6883
31.9728
33.9023
35.4084
36.4418
36.9748
37.0023
36.5406
35.6241
34.302
32.6338
30.6846
28.5213
26.2087
23.8069
21.3683
18.9363
16.5447
14.2166
11.9654
9.79548
7.70377
5.68131
3.7153
1.79104
-0.106395
-1.99072
-3.87347
-5.7634
-7.66621
-9.58446
-11.5177
-13.4626
-15.4128
-17.3588
-19.2876
-21.182
-23.0191
-24.7683
-26.3873
-27.8152
-28.9616
-29.6912
-29.8021
-29.0019
-26.8837
-22.9106
-16.4187
-6.6521
7.1594
25.6708
49.243
77.7305
110.268
145.102
179.524
209.957
232.216
241.957
235.258
209.27
162.82
96.8543
14.642
-78.3515
-174.91
-266.8
-345.698
-404.185
-436.665
-440.077
-414.301
-362.193
-289.252
-202.965
-111.917
-24.7996
50.5731
108.091
143.942
156.901
148.292
121.655
82.1755
35.9594
-10.7468
-52.2862
-84.1915
-103.591
-109.389
-102.214
-84.1662
-58.4132
-28.6904
1.21486
27.9367
48.9053
62.5866
68.5705
67.5108
60.9399
50.9921
40.08
30.5677
24.4821
23.2949
27.7926
38.0439
53.4565
72.9073
94.9216
117.875
140.188
160.497
177.771
191.381
201.107
207.096
209.779
209.762
207.708
204.232
199.81
194.726
189.049
182.65
175.25
166.489
156.01
143.544
128.986
112.435
94.2221
74.8913
55.1507
35.7999
17.6397
1.38
-12.4423
-23.5224
-31.8168
-37.5384
-41.119
-43.1457
-44.2802
-45.1733
-46.3854
-48.324
-51.204
-55.0363
-59.6423
-64.6919
-69.7576
-74.3773
-78.1163
-80.6216
-81.6613
-81.1467
-79.1348
-75.8127
-71.4682
-66.4499
-61.1241
-55.8334
-50.8615
-46.4085
-42.5785
-39.3801
-36.7382
-34.5142
-32.5323
-30.6068
-28.5675
-26.2795
-23.6562
-20.6645
-17.3213
-13.6854
-9.84411
-5.89861
-1.94975
1.91371
5.62322
9.13423
12.4258
15.4961
18.356
21.0195
23.4957
25.7805
27.8511
29.6636
31.1539
32.2426
32.8425
32.8687
32.2497
30.9371
28.9146
26.2028
22.8605
18.9822
14.6902
10.1253
5.43474
0.760991
-3.76562
-8.02826
-11.9154
-15.3011
-18.0146
-19.8016
-20.2856
-18.9418
-15.0988
-7.98531
3.16547
18.9516
39.5903
64.6902
93.0538
122.569
150.242
172.403
185.098
184.613
168.079
134.043
82.901
17.1114
-58.8861
-139.045
-216.35
-283.627
-334.421
-363.805
-369.009
-349.775
-308.387
-249.39
-179.015
-104.418
-32.8254
29.2978
76.9468
107.067
118.782
113.339
93.8125
64.6033
30.8156
-2.3991
-30.4531
-49.814
-58.3272
-55.3437
-41.6549
-19.2588
8.99783
39.847
70.0369
96.7263
117.79
132.01
139.134
139.815
135.442
127.903
119.301
111.679
106.771
105.814
109.44
117.65
129.861
145.022
161.775
178.634
194.16
207.109
216.547
221.9
222.969
219.887
213.048
203.017
190.429
175.911
160.019
143.2
125.788
108.017
90.0525
72.0257
54.0714
36.3524
19.0746
2.48763
-13.1267
-27.4747
-40.2764
-51.29
-60.3333
-67.2975
-72.1522
-74.9432
-75.7823
-74.8342
-72.3008
-68.4069
-63.3885
-57.4849
-50.9336
-43.9687
-36.8195
-29.7095
-22.8528
-16.4499
-10.6795
-5.69002
-1.59084
1.55577
3.73938
5.00237
5.43636
5.17407
4.3774
3.22302
1.88693
0.529883
-0.714769
-1.74967
-2.51759
-3.00109
-3.21794
-3.21337
-3.05013
-2.79783
-2.52296
-2.28047
-2.10808
-2.02349
-2.02459
-2.09241
-2.19581
-2.29739
-2.35937
-2.34881
-2.24141
-2.02358
-1.69254
-1.25465
-0.722059
-0.108191
0.577514
1.3348
2.17693
3.13325
4.2488
5.5805
7.18937
9.12944
11.4345
14.105
17.0967
20.3151
23.6149
26.8078
29.6762
31.9923
33.5399
34.1372
33.6579
32.0507
29.3577
25.7336
21.4662
16.9996
12.9559
10.1492
9.57842
12.3835
19.7489
32.7446
52.1088
77.9929
109.712
145.556
182.731
217.471
245.35
261.785
262.663
245.004
207.547
151.156
78.9398
-3.92954
-90.7174
-173.871
-245.911
-300.34
-332.447
-339.873
-322.885
-284.303
-229.111
-163.8
-95.5548
-31.3785
22.7111
62.324
85.1011
90.8422
81.3594
60.0941
31.5623
0.711888
-27.7199
-49.7688
-62.6602
-65.0409
-57.0126
-39.9815
-16.3576
10.8423
38.431
63.468
83.607
97.3376
104.101
104.278
99.0609
90.2426
79.9458
70.3411
63.3824
60.5914
62.9123
70.6443
83.456
100.468
120.392
141.698
162.798
182.21
198.696
211.356
219.669
223.488
222.992
218.606
210.903
200.51
188.027
173.965
158.724
142.59
125.769
108.423
90.7245
72.8922
55.2217
38.0897
21.9388
7.2426
-5.54193
-16.027
-23.9432
-29.1765
-31.789
-32.0177
-30.2546
-27.0077
-22.8506
-18.3656
-14.0887
-10.4614
-7.79642
-6.2592
-5.86666
-6.50253
-7.94585
-9.90842
-12.076
-14.148
-15.8715
-17.0653
-17.6332
-17.5649
-16.9264
-15.8421
-14.472
-12.9864
-11.5431
-10.268
-9.24291
-8.49971
-8.02175
-7.75129
-7.60116
-7.46893
-7.25147
-6.85811
-6.22106
-5.30216
-4.09559
-2.62663
-0.947078
0.871892
2.74842
4.59907
6.34741
7.9312
9.3074
10.4549
11.3747
12.0876
12.6303
13.0497
13.3972
13.7225
14.0687
14.4683
14.9409
15.4928
16.1174
16.7971
17.5058
18.211
18.876
19.4613
19.9254
20.2257
20.3188
20.1613
19.7117
18.9322
17.7919
16.2705
14.3613
12.0746
9.4393
6.50411
3.33592
0.0172698
-3.35809
-6.69071
-9.88162
-12.8386
-15.4815
-17.7474
-19.5925
-20.9944
-21.9509
-22.4782
-22.6078
-22.3829
-21.8539
-21.0756
-20.1027
-18.9879
-17.7797
-16.5206
-15.2464
-13.9856
-12.7598
-11.5839
-10.4672
-9.41433
-8.42692
-7.50432
-6.64463
-5.84512
-5.10229
-4.41168
-3.76766
-3.1634
-2.59114
-2.04291
-1.51161
-0.992017
-0.481307
0.0221193
0.522912
1.03811
1.6135
2.34848
3.429
5.16551
8.02822
12.6675
19.9027
30.6614
45.8561
66.1937
91.9334
122.626
156.892
192.297
225.395
251.964
267.453
267.589
249.061
210.171
151.335
75.3197
-12.8417
-106.274
-196.98
-276.763
-338.218
-375.66
-385.84
-368.36
-325.725
-263.023
-187.29
-106.646
-29.3223
37.2894
87.4443
117.614
126.76
116.286
89.7045
52.0723
9.27973
-32.7043
-68.5378
-94.0765
-106.754
-105.735
-91.8542
-67.348
-35.454
0.0792009
35.4932
67.4737
93.505
112.092
122.835
126.364
124.153
118.248
110.955
104.524
100.874
101.378
106.748
116.997
131.5
149.12
168.385
187.686
205.47
220.407
231.509
238.194
240.298
238.029
231.885
222.546
210.761
197.241
182.575
167.182
151.286
134.939
118.057
100.485
82.0614
62.6806
42.3473
21.2083
-0.435106
-22.1375
-43.3392
-63.4122
-81.7175
-97.6661
-110.777
-120.725
-127.378
-130.805
-131.272
-129.218
-125.2
-119.847
-113.788
-107.596
-101.737
-96.5333
-92.1476
-88.588
-85.7296
-83.351
-81.1764
-78.9172
-76.3021
-73.0911
-69.068
-64.0125
-57.6594
-49.656
-39.5384
-26.7459
-10.694
9.08173
32.7165
59.7665
88.9662
118.061
143.782
162.029
168.275
158.179
128.324
76.9615
4.62922
-85.505
-187.66
-293.863
-394.746
-480.615
-542.643
-574.017
-570.859
-532.794
-463.059
-368.169
-257.148
-140.471
-28.8362
68.0506
142.534
189.775
208.14
199.193
167.305
118.957
61.8409
3.89063
-47.6508
-86.9988
-110.362
-116.193
-105.153
-79.8146
-44.1667
-2.99957
38.7491
76.6
107.022
127.76
137.972
138.184
130.082
116.181
99.4354
82.8274
69
59.9687
56.9403
60.2502
69.413
83.2674
100.189
118.337
135.896
151.292
163.35
171.38
175.195
175.054
171.562
165.528
157.814
149.203
140.289
131.416
122.671
113.912
104.85
95.1413
84.4872
72.7256
59.8899
46.2349
32.2221
18.4699
5.67747
-5.46637
-14.3732
-20.6324
-24.0636
-24.739
-22.9722
-19.278
-14.3084
-8.77652
-3.37639
1.28832
4.76032
6.76278
7.2095
6.19219
3.94849
0.816818
-2.81521
-6.56173
-10.0828
-13.1169
-15.5003
-17.1701
-18.1559
-18.56
-18.531
-18.2358
-17.8332
-17.4518
-17.1768
-17.0435
-17.0399
-17.1156
-17.1954
-17.1945
-17.0345
-16.6552
-16.0236
-15.137
-14.0223
-12.73
-11.3261
-9.88204
-8.46402
-7.12389
-5.89182
-4.77183
-3.74073
-2.75053
-1.73432
-0.61513
0.683023
2.22299
4.04277
6.14574
8.49443
11.0091
13.5716
16.0351
18.2374
20.0186
21.2379
21.7901
21.618
20.7196
19.1486
17.0101
14.4515
11.652
8.81624
6.17322
3.98758
2.58228
2.37197
3.89956
7.86373
15.1196
26.6335
43.3738
66.1331
95.2879
130.53
170.614
213.2
254.831
291.126
317.177
328.135
319.91
289.883
237.493
164.598
75.5207
-23.2576
-123.73
-217.25
-295.543
-351.707
-381.064
-381.721
-354.794
-304.237
-236.327
-158.872
-80.2495
-8.4199
49.9732
90.2919
110.313
110.32
92.8785
62.362
24.2794
-15.4756
-51.3651
-78.8439
-94.8193
-97.8941
-88.379
-68.0931
-39.9962
-7.71366
24.9783
54.6377
78.5559
95.0284
103.475
104.411
99.28
90.1911
79.5947
69.945
63.3927
61.5429
65.3002
74.815
89.5243
108.276
129.512
151.481
172.451
190.899
205.652
215.966
221.547
222.506
219.273
212.482
202.84
191.016
177.547
162.789
146.897
129.864
111.574
91.8843
70.7168
48.1324
24.3908
-0.0233376
-24.4102
-47.9013
-69.5364
-88.3619
-103.538
-114.437
-120.727
-122.414
-119.858
-113.741
-104.998
-94.724
-84.0637
-74.0955
-65.7293
-59.6259
-56.1471
-55.342
-56.9678
-60.5417
-65.4154
-70.8619
-76.1651
-80.699
-83.9909
-85.7602
-85.9294
-84.6084
-82.0512
-78.5913
-74.5606
-70.2001
-65.5725
-60.4882
-54.4612
-46.7081
-36.2082
-21.8371
-2.57651
22.2083
52.4538
87.0968
123.854
159.162
188.33
205.962
206.603
185.569
139.823
68.7439
-25.3484
-137.056
-258.208
-378.609
-487.144
-573.091
-627.461
-644.171
-620.863
-559.272
-465.065
-347.197
-216.857
-86.1596
33.2384
131.427
201.268
239.043
244.661
221.426
175.423
114.609
47.7655
-16.5764
-71.0852
-110.356
-131.342
-133.469
-118.434
-89.7638
-52.1841
-10.9174
29.0113
63.3696
89.1523
104.818
110.318
106.937
96.9844
83.3908
69.2714
57.5135
50.4376
49.566
55.5167
68.0201
86.0429
107.991
131.957
155.973
178.239
197.3
212.153
222.287
227.643
228.532
225.513
219.262
210.442
199.62
187.201
173.428
158.408
142.172
124.753
106.259
86.926
67.1458
47.4573
28.5044
10.9682
-4.51494
-17.4356
-27.4791
-34.5686
-38.8768
-40.8037
-40.9254
-39.921
-38.49
-37.2696
-36.766
-37.3049
-39.0095
-41.805
-45.4474
-49.5715
-53.7497
-57.5532
-60.6067
-62.631
-63.4679
-63.0861
-61.5683
-59.0844
-55.8552
-52.1137
-48.0699
-43.8849
-39.6575
-35.4241
-31.1708
-26.8545
-22.4284
-17.8663
-13.1832
-8.44608
-3.77499
0.665836
4.68593
8.09209
10.7139
12.4272
13.1728
12.9661
11.899
10.1306
7.87153
5.36158
2.84447
0.5433
-1.36089
-2.74476
-3.55105
-3.78909
-3.52784
-2.88281
-1.99869
-1.03021
-0.12332
0.601011
1.05889
1.21087
1.06489
0.67623
0.146936
-0.372369
-0.675575
-0.487651
0.554197
2.91995
7.19756
14.0819
24.3264
38.645
57.5571
81.1855
109.031
139.771
171.13
199.891
222.081
233.353
229.531
207.26
164.664
101.878
21.3728
-72.0403
-171.534
-268.913
-355.51
-423.196
-465.384
-477.864
-459.355
-411.704
-339.685
-250.444
-152.659
-55.5341
32.2426
103.44
153.01
178.523
180.268
161.028
125.576
79.9802
30.803
-15.6874
-54.2054
-80.9589
-93.9355
-92.9501
-79.4676
-56.2465
-26.8603
4.82904
35.1779
61.1865
80.7971
93.0423
98.0377
96.8384
91.1901
83.2183
75.1023
68.7769
65.6981
66.6952
71.9213
80.8955
92.625
105.78
118.896
130.569
139.628
145.249
147.022
144.945
139.373
130.926
120.373
108.517
96.0964
83.7103
71.7787
60.5341
50.04
40.2282
30.9442
21.9941
13.1844
4.35242
-4.61459
-13.7703
-23.1089
-32.5699
-42.0472
-51.3998
-60.4626
-69.0587
-77.0103
-84.1507
-90.3344
-95.4476
-99.4158
-102.21
-103.848
-104.395
-103.958
-102.675
-100.709
-98.2279
-95.3987
-92.3694
-89.2614
-86.1621
-83.1222
-80.1564
-77.2487
-74.3609
-71.4426
-68.4426
-65.3191
-62.0476
-58.6254
-55.0715
-51.4221
-47.7229
-44.0187
-40.3431
-36.7103
-33.1109
-29.5129
-25.8677
-22.1216
-18.2285
-14.1651
-9.94205
-5.61285
-1.27531
2.9327
6.84428
10.2798
13.0663
15.0583
16.1562
16.3215
15.5879
14.0661
11.9468
9.50081
7.08093
5.12412
4.15389
4.7771
7.66643
13.5168
22.9637
36.4567
54.0898
75.4095
99.234
123.536
145.442
161.393
167.488
159.989
135.923
93.7017
33.6188
-41.852
-128.064
-218.526
-305.543
-381.077
-437.723
-469.653
-473.386
-448.278
-396.645
-323.52
-236.06
-142.698
-52.1529
27.5715
90.0611
131.145
149.246
145.405
122.995
87.1698
44.1463
0.40871
-38.0591
-66.422
-81.4541
-81.7712
-67.8253
-41.6834
-6.63517
33.3085
73.9547
111.439
142.647
165.511
179.147
183.842
180.908
172.422
160.911
149.006
139.125
133.212
132.555
137.702
148.464
164.006
183.005
203.836
224.781
244.215
260.76
273.392
281.49
284.83
283.532
277.983
268.731
256.386
241.54
224.705
206.285
186.581
165.812
144.163
121.831
99.061
76.179
53.595
31.7912
11.291
-7.3843
-23.7632
-37.4683
-48.2514
-56.0133
-60.8065
-62.8227
-62.3668
-59.824
-55.6238
-50.2075
-44.001
-37.3964
-30.7418
-24.3371
-18.435
-13.2433
-8.92779
-5.61235
-3.37789
-2.25917
-2.24133
-3.25763
-5.18977
-7.87213
-11.1003
-14.6435
-18.2607
-21.7176
-24.8039
-27.3481
-29.2286
-30.38
-30.7935
-30.512
-29.6203
-28.2321
-26.4746
-24.4721
-22.3309
-20.1228
-17.8692
-15.5223
-12.9436
-9.87728
-5.92177
-0.504262
7.13181
17.9115
32.8678
53.0194
79.1777
111.688
150.131
193.041
237.695
280.065
314.997
336.638
339.116
317.39
268.155
190.642
87.1678
-36.7061
-172.467
-309.399
-435.711
-539.885
-612.075
-645.336
-636.526
-586.738
-501.199
-388.663
-260.376
-128.751
-5.95127
97.4614
173.621
218.084
230.114
212.508
171.022
113.487
48.7491
-14.4309
-68.3727
-107.261
-127.64
-128.578
-111.522
-79.8769
-38.3923
7.54854
52.6475
92.3239
123.195
143.358
152.463
151.586
142.935
129.46
114.394
100.825
91.3208
87.6591
90.6887
100.315
115.603
134.978
156.471
177.996
197.601
213.675
225.083
231.233
232.056
227.93
219.556
207.82
193.644
177.876
161.205
144.13
126.963
109.871
92.9389
76.239
59.8871
44.0834
29.1243
15.3867
3.2885
-6.76688
-14.4509
-19.5651
-22.0815
-22.1608
-20.1466
-16.5356
-11.9286
-6.96907
-2.27841
1.60458
4.27201
5.47777
5.14841
3.37398
0.381543
-3.50416
-7.90691
-12.4461
-16.7789
-20.633
-23.8271
-26.2779
-27.9939
-29.0598
-29.6119
-29.8117
-29.8188
-29.7685
-29.7551
-29.8234
-29.9688
-30.1434
-30.2692
-30.2537
-30.0064
-29.4539
-28.5514
-27.2891
-25.6932
-23.8218
-21.7567
-19.5918
-17.4213
-15.3283
-13.3757
-11.6
-10.0088
-8.58129
-7.27149
-6.01288
-4.72488
-3.31994
-1.71138
0.178333
2.40925
5.01597
8.00103
11.3304
14.9322
18.6993
22.4957
26.167
29.5533
32.5035
34.8888
36.614
37.6246
37.9101
37.5009
36.4625
34.8857
32.8753
30.5388
27.9769
25.2764
22.5063
19.7173
16.9442
14.2099
11.5308
8.92238
6.40278
3.9957
1.73073
-0.358295
-2.23654
-3.87254
-5.24278
-6.33593
-7.15578
-7.7226
-8.07249
-8.25502
-8.32904
-8.35741
-8.40105
-8.51301
-8.73306
-9.08342
-9.56586
-10.1607
-10.8275
-11.5082
-12.1312
-12.6182
-12.8914
-12.8818
-12.5369
-11.8274
-10.7525
-9.34179
-7.65487
-5.77716
-3.81355
-1.87951
-0.0912641
1.44439
2.63916
3.43061
3.78701
3.70925
3.22989
2.40958
1.33114
0.0921839
-1.20314
-2.45258
-3.56355
-4.4598
-5.08637
-5.41246
-5.43217
-5.16305
-4.64261
-3.92341
-3.0671
-2.13822
-1.19842
-0.301622
0.509305
1.20425
1.76585
2.18814
2.47449
2.63586
2.69097
2.67041
2.62709
2.65511
2.91816
3.68581
5.37234
8.56787
14.0463
22.7319
35.6063
53.5476
77.1042
106.23
140.028
176.562
212.802
244.768
267.872
277.469
269.521
241.304
192.012
123.149
38.6296
-55.4764
-151.519
-241.11
-316.107
-369.602
-396.785
-395.533
-366.675
-313.875
-243.164
-162.194
-79.3118
-2.58571
61.0957
106.735
131.675
135.737
121.059
91.6683
52.8584
10.4693
-29.8423
-63.2472
-86.2321
-96.886
-94.9673
-81.7633
-59.7784
-32.305
-2.94055
24.8849
48.3147
65.3609
75.0656
77.5195
73.7519
65.5162
55.0087
44.5608
36.3442
32.1243
33.0852
39.7416
51.9377
68.9254
89.5023
112.189
135.416
157.703
177.803
194.801
208.164
217.727
223.65
226.322
226.261
224.005
220.011
214.592
207.878
199.819
190.225
178.832
165.388
149.739
131.907
112.135
90.9048
68.9142
47.0152
26.1278
7.13687
-9.21026
-22.3924
-32.1748
-38.6332
-42.1388
-43.3067
-42.9147
-41.8049
-40.7805
-40.512
-41.4628
-43.8443
-47.6026
-52.4388
-57.8564
-63.2313
-67.8931
-71.2092
-72.6595
-71.897
-68.7841
-63.4052
-56.0523
-47.1896
-37.3997
-27.32
-17.5765
-8.723
-1.19108
4.74264
8.97095
11.5509
12.6816
12.6678
11.8761
10.6872
9.45154
8.45289
7.88237
7.82619
8.26647
9.09405
10.1305
11.1559
11.9387
12.2637
11.9561
10.8987
9.04129
6.40215
3.06287
-0.843147
-5.14585
-9.65565
-14.1803
-18.5398
-22.5777
-26.1685
-29.2204
-31.6748
-33.5022
-34.6974
-35.274
-35.2597
-34.6929
-33.6209
-32.0992
-30.1915
-27.9702
-25.5154
-22.914
-20.2568
-17.6343
-15.1322
-12.8262
-10.7763
-9.023
-7.58383
-6.4523
-5.59864
-4.97271
-4.50881
-4.13196
-3.76509
-3.33659
-2.78717
-2.07576
-1.18339
-0.115036
1.10113
2.41678
3.76859
5.08493
6.29332
7.32795
8.13635
8.68456
8.96033
8.97399
8.75697
8.35811
7.83823
7.26334
6.6973
6.19449
5.79328
5.51107
5.34145
5.254
5.19714
5.10367
4.89886
4.50995
3.87617
2.95787
1.74371
0.254681
-1.4554
-3.30321
-5.18282
-6.97522
-8.55967
-9.82536
-10.6823
-11.0701
-10.9638
-10.376
-9.35542
-7.98161
-6.35701
-4.59696
-2.81879
-1.13143
0.373693
1.62937
2.59654
3.2651
3.6518
3.79563
3.75133
3.58184
3.35058
3.11447
2.91821
2.79055
2.74271
2.76895
2.84906
2.95225
3.04188
3.08031
3.03334
2.87363
2.5829
2.15277
1.58435
0.8869
0.0759321
-0.828754
-1.80483
-2.82862
-3.87558
-4.91948
-5.92986
-6.86655
-7.66989
-8.24533
-8.44173
-8.02441
-6.6463
-3.82404
1.07063
8.79127
20.155
35.9282
56.6567
82.452
112.761
146.166
180.263
211.693
236.341
249.733
247.604
226.557
184.715
122.261
41.742
-51.9362
-151.856
-249.754
-336.925
-405.245
-448.174
-461.576
-444.27
-398.194
-328.195
-241.452
-146.623
-52.8332
31.3649
98.921
144.999
167.388
166.582
145.533
109.128
63.4817
15.1335
-29.7444
-66.0251
-90.1242
-100.27
-96.5286
-80.6114
-55.4957
-24.9336
7.08781
36.8606
61.3851
78.6685
87.8701
89.2885
84.2096
74.6468
63.0175
51.8017
43.2266
39.0151
40.2206
47.1612
59.4498
76.106
95.7281
116.696
137.375
156.303
172.325
184.678
193.015
197.368
198.072
195.655
190.721
183.837
175.454
165.858
155.163
143.35
130.329
116.016
100.411
83.6591
66.0846
48.1833
30.586
13.991
-0.920546
-13.5714
-23.5639
-30.7318
-35.161
-37.1761
-37.2957
-36.1634
-34.4647
-32.8428
-31.8227
-31.7552
-32.7857
-34.851
-37.7035
-40.9569
-44.1476
-46.8016
-48.4993
-48.9295
-47.9262
-45.4851
-41.759
-37.0337
-31.6894
-26.1521
-20.8439
-16.1356
-12.3093
-9.5339
-7.85516
-7.201
-7.39973
-8.2082
-9.34554
-10.5281
-11.5015
-12.0661
-12.0935
-11.5337
-10.412
-8.81782
-6.88768
-4.78431
-2.6754
-0.714228
0.975793
2.31126
3.25302
3.80475
4.00664
3.92555
3.64322
3.24411
2.80451
2.38408
2.02051
1.72772
1.49737
1.30315
1.10699
0.866315
0.541335
0.101613
-0.468799
-1.16808
-1.97543
-2.85203
-3.74389
-4.58618
-5.30852
-5.84031
-6.11564
-6.07712
-5.67844
-4.88595
-3.6795
-2.0533
-0.0170837
2.40187
5.15615
8.17549
11.3647
14.6034
17.7488
20.6417
23.1167
25.0151
26.2005
26.5741
26.0882
24.7556
22.6529
19.9173
16.7363
13.3309
9.93514
6.77312
4.03697
1.86845
0.34613
-0.520053
-0.786412
-0.565691
-0.0111635
0.703391
1.40564
1.94674
2.22226
2.19195
1.89879
1.48806
1.22627
1.51753
2.91194
6.0972
11.8616
21.0161
34.2675
52.0423
74.2753
100.196
128.153
155.545
178.888
194.077
196.827
183.26
150.571
97.6518
25.5594
-62.2635
-160.102
-260.422
-354.636
-434.07
-491.012
-519.696
-517.058
-483.174
-421.301
-337.518
-240.014
-138.134
-41.2871
42.1107
105.541
145.022
159.415
150.372
121.956
80.0036
31.3141
-17.2099
-59.3696
-90.327
-107.044
-108.467
-95.4573
-70.4968
-37.2261
0.113954
37.2601
70.4507
96.8385
114.751
123.779
124.71
119.307
110.003
99.5308
90.5579
85.3592
85.5689
92.033
104.77
123.035
145.469
170.312
195.63
219.56
240.5
257.262
269.145
275.949
277.912
275.604
269.786
261.26
250.738
238.733
225.503
211.044
195.13
177.391
157.419
134.881
109.619
81.7302
51.6069
19.9327
-12.3608
-44.1755
-74.3534
-101.794
-125.569
-145.012
-159.791
-169.923
-175.769
-177.978
-177.406
-175.019
-171.788
-168.589
-166.125
-164.871
-165.049
-166.624
-169.336
-172.732
-176.215
-179.083
-180.565
-179.858
-176.153
-168.686
-156.809
-140.096
-118.498
-92.5172
-63.391
-33.2316
-5.06965
17.2548
29.3891
26.9585
6.20961
-35.2779
-97.9328
-179.718
-275.959
-379.552
-481.562
-572.157
-641.762
-682.266
-688.111
-657.085
-590.707
-494.148
-375.672
-245.699
-115.603
3.58369
102.396
173.93
214.488
223.819
204.933
163.54
107.211
44.3808
-16.6829
-68.802
-106.607
-126.98
-129.188
-114.72
-86.8757
-50.1732
-9.66873
29.7202
63.8071
89.5804
105.457
111.337
108.463
99.1355
86.3175
73.1949
62.7528
57.4134
58.7767
67.4869
83.2262
104.829
130.489
158.023
185.161
209.818
230.314
245.528
254.963
258.724
257.428
252.047
243.726
233.594
222.599
211.375
200.183
188.896
177.055
163.97
148.851
130.951
109.71
84.8596
56.5034
25.1416
-8.34747
-42.7701
-76.7168
-108.685
-137.216
-161.025
-179.117
-190.883
-196.146
-195.179
-188.672
-177.664
-163.44
-147.409
-130.976
-115.416
-101.772
-90.7772
-82.8192
-77.9376
-75.8603
-76.0692
-77.8862
-80.5676
-83.3975
-85.7676
-87.2355
-87.5582
-86.6964
-84.7921
-82.1229
-79.0368
-75.8746
-72.8852
-70.1405
-67.4591
-64.3451
-59.9583
-53.1259
-42.416
-26.2836
-3.29899
27.5501
66.5092
112.712
163.908
216.354
264.92
303.482
325.572
325.237
297.984
241.667
157.149
48.5963
-76.6725
-208.805
-336.434
-447.972
-532.993
-583.516
-594.994
-566.882
-502.695
-409.563
-297.347
-177.438
-61.415
40.2661
119.39
170.771
192.635
186.571
157.09
110.869
55.7959
-0.0473537
-49.3394
-86.2987
-107.209
-110.648
-97.422
-70.2356
-33.1709
8.9509
51.2315
89.2994
119.788
140.641
151.231
152.28
145.64
133.937
120.176
107.324
97.9506
93.9455
96.3525
105.319
120.159
139.511
161.555
184.264
205.648
223.965
237.874
246.525
249.576
247.146
239.728
228.068
213.044
195.55
176.41
156.328
135.866
115.455
95.4265
76.0513
57.5774
40.2565
24.3551
10.1475
-2.10543
-12.1886
-19.9661
-25.4118
-28.6277
-29.8489
-29.4306
-27.8206
-25.5188
-23.0309
-20.8195
-19.2623
-18.6189
-19.0134
-20.4309
-22.7312
-25.6742
-28.9556
-32.2467
-35.2341
-37.654
-39.318
-40.1283
-40.0802
-39.2535
-37.7957
-35.8975
-33.7668
-31.6024
-29.5724
-27.7974
-26.3423
-25.215
-24.3721
-23.7308
-23.1833
-22.6139
-21.9151
-21.0008
-19.8161
-18.3427
-16.5991
-14.6361
-12.5299
-10.3714
-8.2557
-6.27135
-4.49107
-2.96456
-1.71416
-0.7333
0.0119573
0.578619
1.04014
1.47808
1.97289
2.59471
3.3952
4.40124
5.61126
6.99479
8.49517
10.0354
11.5265
12.8775
14.0059
14.8473
15.3641
15.5503
15.434
15.0751
14.5602
13.9939
13.4885
13.1513
13.0744
13.3236
13.9324
14.8976
16.1798
17.707
19.3818
21.0897
22.7102
24.1266
25.2355
25.9548
26.2288
26.0309
25.3632
24.253
22.7478
20.9079
18.7993
16.4871
14.0296
11.4757
8.86398
6.22442
3.58156
0.959079
-1.61566
-4.10761
-6.47149
-8.65119
-10.5814
-12.1913
-13.4109
-14.1774
-14.4438
-14.1857
-13.4073
-12.1455
-10.4707
-8.48391
-6.31141
-4.09552
-1.98358
-0.115698
1.38754
2.4357
2.97658
3.00042
2.54008
1.66687
0.482633
-0.89097
-2.32476
-3.6945
-4.89215
-5.83476
-6.4702
-6.77939
-6.77491
-6.49665
-6.00501
-5.37277
-4.67641
-3.988
-3.36841
-2.86242
-2.49613
-2.2767
-2.19414
-2.22475
-2.33556
-2.48909
-2.64793
-2.77852
-2.85403
-2.85603
-2.77509
-2.61031
-2.36781
-2.05847
-1.69495
-1.2885
-0.845727
-0.366067
0.159597
0.748819
1.4257
2.21737
3.14925
4.23968
5.4948
6.90434
8.4391
10.0505
11.6726
13.2259
14.6236
15.7784
16.6104
17.0542
17.0652
16.6245
15.7406
14.4499
12.8141
10.9152
8.84935
6.71924
4.6262
2.66285
0.906853
-0.583839
-1.7737
-2.65046
-3.22397
-3.5236
-3.59433
-3.49216
-3.27925
-3.01922
-2.77296
-2.59517
-2.53184
-2.61846
-2.87903
-3.32559
-3.95805
-4.7643
-5.72039
-6.79101
-7.93024
-9.08289
-10.1865
-11.1741
-11.9777
-12.5324
-12.7806
-12.6758
-12.186
-11.296
-10.008
-8.34087
-6.32845
-4.01624
-1.45792
1.2884
4.16353
7.10994
10.0737
13.0055
15.8612
18.6017
21.1922
23.6012
25.7991
27.7569
29.4441
30.8275
31.8705
32.5331
32.7738
32.5542
31.8476
30.6533
29.0182
27.067
25.0395
23.3316
22.5321
23.4412
27.0543
34.4936
46.8721
65.0907
89.5793
120.022
155.119
192.452
228.517
258.955
279.001
284.095
270.578
236.367
181.475
108.288
21.5061
-72.2396
-165.08
-248.805
-315.854
-360.238
-378.281
-369.073
-334.558
-279.271
-209.756
-133.743
-59.2178
6.51113
57.6134
90.3199
103.223
97.2726
75.4907
42.456
3.64101
-35.3061
-69.2419
-94.0895
-107.224
-107.646
-95.9469
-74.0839
-45.0092
-12.2183
20.7249
50.6241
74.9987
92.3096
102.048
104.692
101.54
94.4736
85.6622
77.2688
71.1857
68.8298
71.0175
77.925
89.1309
103.726
120.472
137.979
154.887
170.02
182.5
191.812
197.816
200.711
200.954
199.161
195.994
192.051
187.778
183.414
178.959
174.195
168.729
162.071
153.723
143.273
130.481
115.344
98.122
79.339
59.7374
40.2084
21.6978
5.10508
-8.81383
-19.5252
-26.7689
-30.5769
-31.2563
-29.3422
-25.5268
-20.5748
-15.2371
-10.1737
-5.89376
-2.72065
-0.782664
-0.0295544
-0.269469
-1.21968
-2.56289
-4.00087
-5.29856
-6.31341
-7.00766
-7.44346
-7.76338
-8.16054
-8.84341
-10.0009
-11.7723
-14.2266
-17.3519
-21.057
-25.1831
-29.5236
-33.8483
-37.9291
-41.563
-44.5905
-46.907
-48.4662
-49.277
-49.3942
-48.9047
-47.913
-46.5253
-44.8374
-42.9248
-40.8367
-38.594
-36.1878
-33.5786
-30.6912
-27.4052
-23.5381
-18.8222
-12.8811
-5.2105
4.8224
17.9474
34.9134
56.3536
82.5946
113.425
147.857
183.943
218.69
248.154
267.734
272.669
258.706
222.828
163.94
83.3772
-14.8857
-124.383
-236.686
-342.265
-431.562
-496.144
-529.754
-529.129
-494.437
-429.302
-340.385
-236.599
-128.06
-24.9214
63.7682
131.02
172.579
187.234
176.753
145.472
99.6095
46.4063
-6.7838
-53.3459
-88.0956
-107.74
-111.074
-98.9063
-73.7575
-39.3762
-0.16019
39.4458
75.4953
104.97
126.053
138.223
142.184
139.65
133.017
124.997
118.233
114.971
116.805
124.531
138.106
156.723
178.966
203.023
226.931
248.809
267.061
280.513
288.491
290.824
287.783
279.974
268.207
253.361
236.263
217.602
197.887
177.447
156.459
135.012
113.169
91.0263
68.7608
46.6454
25.0447
4.3869
-14.88
-32.3382
-47.6491
-60.5911
-71.0835
-79.1918
-85.1152
-89.1591
-91.697
-93.1278
-93.8329
-94.14
-94.2954
-94.4492
-94.6515
-94.8609
-94.9612
-94.7857
-94.1446
-92.8534
-90.7594
-87.7632
-83.8351
-79.0222
-73.4489
-67.308
-60.8453
-54.3381
-48.0705
-42.3079
-37.2733
-33.1275
-29.9562
-27.7643
-26.4777
-25.9536
-25.9964
-26.3781
-26.861
-27.2202
-27.2628
-26.8436
-25.8746
-24.3284
-22.2364
-19.681
-16.7845
-13.6946
-10.57
-7.56472
-4.81556
-2.43083
-0.483268
0.993456
2.00429
2.58869
2.81346
2.76361
2.5322
2.21036
1.87877
1.60121
1.42097
1.3603
1.42256
1.59671
1.86325
2.20061
2.59112
3.02548
3.5053
4.04312
4.66
5.38107
6.22978
7.22159
8.35834
9.62405
10.9829
12.38
13.7446
14.9955
16.0489
16.8255
17.2591
17.3023
16.9318
16.1501
14.9851
13.4871
11.7233
9.77172
7.71318
5.62433
3.57121
1.60466
-0.242271
-1.95425
-3.53124
-4.98361
-6.32483
-7.56192
-8.6832
-9.64331
-10.3455
-10.6223
-10.2166
-8.76871
-5.81348
-0.798195
6.87234
17.7557
32.2542
50.4639
72.0056
95.8633
120.268
142.669
159.828
168.068
163.672
143.397
105.048
48.0176
-26.3162
-114.408
-210.661
-307.846
-397.804
-472.342
-524.202
-547.978
-540.836
-502.936
-437.483
-350.404
-249.694
-144.502
-44.1049
43.1238
110.597
154.154
172.394
166.654
140.682
100.042
51.344
1.41831
-43.4824
-78.3416
-99.8377
-106.561
-98.985
-79.2121
-50.5516
-16.9909
17.3645
48.8095
74.4592
92.5261
102.437
104.786
101.153
93.8117
85.3838
78.479
75.3702
77.7387
86.5121
101.809
122.983
148.755
177.405
207
235.616
261.546
283.444
300.425
312.078
318.437
319.883
317.03
310.585
301.229
289.516
275.813
260.294
242.965
223.736
202.51
179.282
154.219
127.717
100.415
73.1664
46.9704
22.8722
1.84717
-15.3135
-28.0987
-36.3402
-40.2338
-40.3161
-37.3995
-32.4751
-26.5976
-20.7674
-15.8244
-12.3684
-10.7125
-10.8756
-12.6113
-15.4666
-18.8622
-22.1811
-24.854
-26.4314
-26.6343
-25.3783
-22.7705
-19.0831
-14.7075
-10.0967
-5.70561
-1.93495
0.913265
2.66448
3.28236
2.86176
1.60632
-0.205324
-2.25949
-4.24813
-5.90513
-7.03412
-7.52515
-7.35893
-6.59952
-5.37713
-3.86441
-2.24961
-0.710549
0.60748
1.60726
2.24738
2.54178
2.55214
2.37471
2.12397
1.91563
1.85149
2.00813
2.43099
3.13463
4.10935
5.33375
6.79242
8.49721
10.5101
12.9646
16.0819
20.1763
25.6439
32.9296
42.465
54.5779
69.3739
86.6005
105.512
124.762
142.352
155.678
161.687
157.168
139.155
105.403
54.8791
-11.8244
-92.2335
-181.965
-274.968
-364.032
-441.52
-500.221
-534.229
-539.708
-515.433
-463.029
-386.857
-293.573
-191.399
-89.2154
4.41879
82.1792
138.723
171.172
179.297
165.372
133.763
90.2899
41.4713
-6.25732
-47.2543
-77.2295
-93.5961
-95.5901
-84.164
-61.6876
-31.5108
2.54753
36.7122
67.7064
93.0964
111.497
122.625
127.212
126.803
123.467
119.486
117.035
117.925
123.399
134.033
149.724
169.756
192.94
217.791
242.717
266.2
286.947
303.985
316.71
324.874
328.535
327.969
323.567
315.742
304.848
291.134
274.739
255.72
234.106
209.978
183.539
155.171
125.469
95.2232
65.3832
36.9756
11.0097
-11.6246
-30.2498
-44.4698
-54.2084
-59.7099
-61.5045
-60.3428
-57.11
-52.7296
-48.0709
-43.8683
-40.6641
-38.7773
-38.3004
-39.1231
-40.9759
-43.4869
-46.2437
-48.8519
-50.9834
-52.41
-53.0189
-52.8119
-51.8889
-50.4204
-48.614
-46.6792
-44.796
-43.0904
-41.6203
-40.3718
-39.2665
-38.1781
-36.9544
-35.443
-33.5161
-31.0904
-28.1408
-24.7059
-20.8845
-16.8236
-12.7016
-8.7074
-5.0192
-1.786
0.886263
2.9424
4.37898
5.23932
5.60368
5.57661
5.27337
4.80718
4.27889
3.76981
3.33807
3.0182
2.82341
2.74954
2.78
2.89059
3.05387
3.24246
3.4312
3.59821
3.72502
3.79606
3.79793
3.71897
3.54955
3.28405
2.92543
2.49388
2.0406
1.66726
1.54994
1.96383
3.30151
6.07478
10.8877
18.3692
29.0581
43.2433
60.7752
80.8804
102.024
121.87
137.387
145.112
141.581
123.861
90.117
40.11
-24.4754
-99.9568
-180.873
-260.491
-331.547
-387.111
-421.472
-430.881
-414.08
-372.501
-310.129
-233.045
-148.696
-65.0238
10.4566
71.4937
113.75
135.195
136.197
119.327
88.9112
50.4066
9.68322
-27.6835
-57.0306
-75.0645
-80.1151
-72.173
-52.7247
-24.4238
9.34594
44.9524
78.979
108.614
131.93
148.019
156.999
159.885
158.37
154.54
150.569
148.438
149.705
155.341
165.665
180.361
198.562
219.005
240.207
260.65
278.95
293.991
304.997
311.569
313.653
311.476
305.451
296.079
283.852
269.183
252.371
233.595
212.946
190.481
166.282
140.52
113.494
85.6553
57.5961
30.0176
3.67417
-20.6937
-42.429
-61.0207
-76.1492
-87.7119
-95.8238
-100.795
-103.09
-103.271
-101.937
-99.6589
-96.9311
-94.1245
-91.4633
-89.018
-86.7165
-84.3712
-81.719
-78.4679
-74.3468
-69.1501
-62.7742
-55.2409
-46.7043
-37.4424
-27.8329
-18.317
-9.35593
-1.38436
5.23239
10.2336
13.4865
14.9948
14.8936
13.4291
10.9295
7.76764
4.32248
0.9428
-2.08257
-4.5448
-6.32312
-7.3795
-7.73937
-7.45836
-6.57668
-5.06429
-2.7635
0.660827
5.7488
13.2334
23.9705
38.7985
58.3246
82.6548
111.104
141.949
172.29
198.095
214.486
216.251
198.576
157.865
92.5493
3.71148
-104.606
-225.496
-349.724
-466.653
-565.447
-636.393
-672.131
-668.636
-625.785
-547.445
-441.044
-316.715
-186.102
-61.0141
47.9003
132.298
186.954
210.167
203.721
172.437
123.39
64.9233
5.57633
-46.9168
-86.4542
-109.124
-113.452
-100.327
-72.6525
-34.7874
8.14188
50.9497
89.039
118.911
138.49
147.234
146.05
137.035
123.095
107.499
93.4351
83.6188
79.9966
83.5745
94.3787
111.539
133.474
158.142
183.324
206.892
227.04
242.45
252.366
256.604
255.477
249.665
240.065
227.62
213.177
197.376
180.585
162.895
144.158
124.073
102.289
78.5319
52.7084
24.9982
-4.09742
-33.7503
-62.8484
-90.0833
-114.072
-133.499
-147.261
-154.597
-155.186
-149.199
-137.298
-120.589
-100.516
-78.7307
-56.9336
-36.7196
-19.4355
-6.06947
2.81711
7.11076
7.11917
3.50316
-2.82279
-10.8079
-19.3859
-27.586
-34.6214
-39.9492
-43.2955
-44.6487
-44.2235
-42.4039
-39.6732
-36.5414
-33.476
-30.843
-28.861
-27.5674
-26.7962
-26.1648
-25.0711
-22.7029
-18.0706
-10.0737
2.38431
20.2208
43.942
73.3703
107.373
143.654
178.678
207.802
225.644
226.696
206.117
160.61
89.2096
-6.14043
-120.381
-245.569
-371.553
-487.043
-580.913
-643.574
-668.212
-651.7
-595.07
-503.45
-385.495
-252.382
-116.506
9.94048
116.319
194.662
240.425
252.789
234.512
191.365
131.257
63.1642
-3.97449
-62.2735
-105.704
-130.606
-135.873
-122.815
-94.7483
-56.3769
-13.0806
29.8145
67.6792
97.0729
116.037
124.176
122.531
113.3
99.4271
84.1582
70.5941
61.3129
58.0954
61.777
72.2329
88.4824
108.889
131.42
153.927
174.409
191.232
203.272
209.981
211.372
207.929
200.474
190.006
177.538
163.963
149.961
135.952
122.109
108.408
94.7032
80.8225
66.645
52.164
37.516
22.9768
8.92752
-4.20152
-15.9968
-26.1256
-34.3857
-40.7348
-45.2928
-48.3204
-50.1769
-51.2654
-51.9745
-52.6265
-53.4379
-54.499
-55.7738
-57.1183
-58.3148
-59.1145
-59.2823
-58.6374
-57.0833
-54.624
-51.3646
-47.4982
-43.2803
-38.996
-34.9251
-31.3095
-28.3272
-26.0757
-24.5665
-23.7304
-23.4322
-23.4918
-23.7086
-23.8866
-23.8552
-23.4862
-22.7019
-21.4774
-19.8344
-17.8296
-15.5378
-13.0306
-10.3525
-7.49357
-4.36034
-0.745108
3.70175
9.4906
17.292
27.903
42.1653
60.8252
84.3323
112.595
144.724
178.827
211.913
239.973
258.283
261.919
246.457
208.746
147.628
64.4801
-36.5614
-148.759
-263.336
-370.375
-459.966
-523.404
-554.305
-549.445
-509.212
-437.613
-341.812
-231.289
-116.723
-8.75315
83.2092
151.986
193.318
206.173
192.651
157.529
107.517
50.3402
-6.22348
-55.2416
-91.3449
-111.199
-113.691
-99.8329
-72.4242
-35.5266
6.15605
47.9154
85.6106
116.112
137.576
149.527
152.769
149.14
141.164
131.655
123.318
118.413
118.498
124.294
135.663
151.698
170.902
191.422
211.299
228.716
242.192
250.715
253.803
251.491
244.246
232.844
218.226
201.342
183.032
163.931
144.425
124.655
104.564
83.965
62.6384
40.4186
17.2724
-6.64974
-30.9936
-55.2157
-78.6286
-100.47
-119.987
-136.518
-149.573
-158.886
-164.446
-166.499
-165.516
-162.143
-157.127
-151.242
-145.21
-139.634
-134.955
-131.422
-129.097
-127.866
-127.487
-127.632
-127.947
-128.09
-127.773
-126.773
-124.924
-122.08
-118.062
-112.589
-105.217
-95.2961
-81.9836
-64.325
-41.4231
-12.6942
21.8158
61.1049
102.955
143.825
178.973
202.846
209.746
194.673
154.252
87.5509
-3.34584
-113.17
-233.763
-354.831
-465.078
-553.556
-611.047
-631.258
-611.673
-553.909
-463.56
-349.525
-222.933
-95.8231
20.2608
115.552
183.076
219.281
224.218
201.286
156.591
98.0368
34.2644
-26.4034
-76.8935
-112.081
-129.194
-127.892
-110.056
-79.3212
-40.4505
1.36564
41.1909
74.9225
99.7094
114.174
118.429
113.912
103.069
88.9502
74.7678
63.4806
57.4473
58.1863
66.2616
81.2922
102.075
126.792
153.269
179.252
202.658
221.785
235.446
243.032
244.499
240.281
231.171
218.163
202.306
184.564
165.723
146.332
126.692
106.89
86.8618
66.4682
45.5858
24.1814
2.37056
-19.5524
-41.1159
-61.7026
-80.609
-97.1218
-110.603
-120.572
-126.768
-129.195
-128.128
-124.097
-117.833
-110.196
-102.088
-94.3663
-87.7593
-82.8049
-79.811
-78.8432
-79.7409
-82.1558
-85.6089
-89.5565
-93.4575
-96.8318
-99.3035
-100.621
-100.655
-99.359
-96.7206
-92.6812
-87.0589
-79.482
-69.3566
-55.8933
-38.2107
-15.5261
12.5759
45.83
82.9891
121.611
158.011
187.45
204.577
204.101
181.629
134.513
62.5792
-31.4235
-141.761
-260.096
-376.286
-479.506
-559.545
-608.084
-619.779
-592.983
-530
-436.843
-322.53
-198.012
-74.8859
35.9283
125.389
187.252
218.618
220.044
195.247
150.449
93.4769
32.7354
-23.8006
-69.4641
-99.5402
-111.622
-105.661
-83.7266
-49.5413
-7.8607
36.2081
77.8605
113.144
139.348
155.199
160.861
157.759
148.262
135.289
121.879
110.797
104.208
103.463
109.003
120.39
136.432
155.399
175.273
194.011
209.775
221.118
227.091
227.289
221.819
211.216
196.325
178.173
157.843
136.368
114.658
93.4526
73.313
54.6247
37.6227
22.4211
9.04217
-2.55769
-12.469
-20.8159
-27.7469
-33.4286
-38.0387
-41.7585
-44.7636
-47.2137
-49.2428
-50.9509
-52.3987
-53.607
-54.5603
-55.2141
-55.5065
-55.371
-54.7495
-53.6042
-51.9265
-49.7413
-47.1084
-44.1175
-40.8816
-37.5262
-34.1775
-30.9512
-27.9422
-25.2167
-22.8085
-20.7182
-18.9161
-17.3492
-15.9487
-14.6397
-13.3499
-12.017
-10.5935
-9.04895
-7.36938
-5.55377
-3.60941
-1.54646
0.62704
2.90846
5.30156
7.81478
10.457
13.2314
16.1286
19.1202
22.1535
25.1494
28.0024
30.5848
32.7541
34.3633
35.2726
35.3634
34.5509
32.7955
30.1107
26.5674
22.2925
17.4619
12.2896
7.01149
1.86701
-2.91988
-7.1585
-10.7059
-13.4764
-15.4447
-16.6438
-17.1558
-17.0993
-16.614
-15.844
-14.9235
-13.965
-13.0512
-12.2318
-11.5252
-10.923
-10.3972
-9.90912
-9.41746
-8.88553
-8.2859
-7.60226
-6.82844
-5.96461
-5.01131
-3.96174
-2.79292
-1.45566
0.136527
2.11973
4.69284
8.13025
12.7911
19.1198
27.6308
38.8686
53.3341
71.373
93.0261
117.857
144.783
171.942
196.66
215.536
224.697
220.22
198.669
157.708
96.675
17.0021
-77.5901
-181.215
-286.265
-384.151
-466.242
-524.887
-554.368
-551.648
-516.811
-453.104
-366.604
-265.529
-159.293
-57.4408
31.4107
100.48
145.476
164.929
160.17
134.984
94.9969
46.8949
-2.42706
-46.6681
-80.7891
-101.472
-107.334
-98.8896
-78.2944
-48.9106
-14.775
19.9639
51.5663
77.1201
94.8178
104.072
105.474
100.607
91.7668
81.6154
72.8259
67.7585
68.2025
75.2085
89.02
109.105
134.272
162.847
192.891
222.422
249.614
272.967
291.407
304.336
311.612
313.489
310.507
303.373
292.838
279.592
264.192
247.025
228.316
208.172
186.645
163.815
139.858
115.103
90.0488
65.3549
41.7878
20.1479
1.17802
-14.5273
-26.5979
-34.9375
-39.7393
-41.4646
-40.7887
-38.5202
-35.5075
-32.5436
-30.2813
-29.1711
-29.426
-31.0179
-33.7024
-37.0684
-40.6028
-43.7621
-46.041
-47.0306
-46.4597
-44.2167
-40.3511
-35.0572
-28.6438
-21.4955
-14.0296
-6.65623
0.257091
6.4107
11.5884
15.6627
18.5903
20.4013
21.1835
21.064
20.1926
18.7254
16.8136
14.5946
12.1873
9.6914
7.18754
4.74045
2.40184
0.213398
-1.7908
-3.58289
-5.14072
-6.44809
-7.4955
-8.28101
-8.81088
-9.09984
-9.17081
-9.05391
-8.78508
-8.40412
-7.95253
-7.47114
-6.99777
-6.56504
-6.1984
-5.91464
-5.72081
-5.61368
-5.57991
-5.59682
-5.63386
-5.65483
-5.62042
-5.49125
-5.23083
-4.80841
-4.2012
-3.39596
-2.38968
-1.18936
0.188885
1.72134
3.37845
5.12657
6.92949
8.74955
10.5482
12.2862
13.9236
15.419
16.7304
17.8149
18.6298
19.1347
19.2931
19.076
18.4639
17.4499
16.0417
14.2628
12.1522
9.76325
7.16151
4.42111
1.62112
-1.15826
-3.83835
-6.34259
-8.59315
-10.5022
-11.9561
-12.7933
-12.7767
-11.5671
-8.70517
-3.61441
4.362
15.8785
31.4528
51.2843
75.0452
101.682
129.275
155.009
175.308
186.148
183.539
164.125
125.82
68.3577
-6.34487
-94.1022
-188.702
-282.468
-367.079
-434.544
-478.188
-493.51
-478.787
-435.335
-367.386
-281.601
-186.286
-90.4229
-2.63715
69.7529
121.494
149.873
154.867
138.963
106.697
63.9755
17.2947
-27.056
-63.6969
-88.6927
-99.8678
-96.882
-81.0785
-55.1452
-22.6471
12.5003
46.5452
76.3402
99.6625
115.386
123.501
124.993
121.608
115.555
109.176
104.637
103.667
107.388
116.22
129.9
147.565
167.909
189.374
210.347
229.351
245.184
257.025
264.463
267.488
266.421
261.814
254.337
244.66
233.358
220.839
207.324
192.851
177.334
160.63
142.629
123.337
102.933
81.8072
60.5469
39.899
20.6922
3.74284
-10.2444
-20.7674
-27.5934
-30.7922
-30.732
-28.0378
-23.5176
-18.0696
-12.5794
-7.82458
-4.39521
-2.64228
-2.65767
-4.28695
-7.17148
-10.8124
-14.6473
-18.1292
-20.7969
-22.3301
-22.5816
-21.586
-19.5445
-16.789
-13.7332
-10.8158
-8.44459
-6.94765
-6.53759
-7.29184
-9.1504
-11.9297
-15.35
-19.0709
-22.732
-25.991
-28.5579
-30.219
-30.8519
-30.4288
-29.0099
-26.7286
-23.7713
-20.3542
-16.6996
-13.0155
-9.47848
-6.22273
-3.33426
-0.851054
1.23233
2.95683
4.38913
5.61159
6.7131
7.78155
8.89822
10.134
11.5465
13.1788
15.0571
17.1891
19.5632
22.1464
24.8852
27.7064
30.52
33.2243
35.7114
37.8747
39.6155
40.8499
41.5147
41.5716
41.0094
39.8444
38.1186
35.8965
33.2593
30.2991
27.1115
23.7888
20.413
17.0507
13.7491
10.5342
7.41164
4.36857
1.37869
-1.59243
-4.58105
-7.61937
-10.7307
-13.9264
-17.2046
-20.5511
-23.9417
-27.3436
-30.7158
-34.0036
-37.1266
-39.9581
-42.2959
-43.8279
-44.1003
-42.4991
-38.26
-30.5209
-18.4312
-1.31933
21.0896
48.4349
79.5049
112.104
143.055
168.39
183.73
184.84
168.286
132.086
76.2595
3.13484
-82.6429
-174.448
-264.33
-343.901
-405.351
-442.425
-451.232
-430.772
-383.084
-313.02
-227.661
-135.464
-45.2645
34.7412
97.8979
139.765
158.492
154.86
132.014
94.9223
49.6688
2.65676
-40.1546
-73.9
-95.2693
-102.743
-96.5888
-78.6478
-51.9469
-20.2097
12.6694
43.1194
68.2959
86.3551
96.5765
99.3349
95.9401
88.3785
78.9966
70.1725
64.0164
62.1331
65.4698
74.2583
88.05
105.829
126.179
147.488
168.144
186.718
202.103
213.592
220.908
224.166
223.801
220.452
214.84
207.65
199.422
190.492
180.953
170.671
159.33
146.511
131.785
114.804
95.3867
73.5752
49.6645
24.1944
-2.0912
-28.3122
-53.5377
-76.8789
-97.5751
-115.065
-129.033
-139.429
-146.455
-150.53
-152.231
-152.223
-151.187
-149.748
-148.419
-147.564
-147.374
-147.86
-148.87
-150.099
-151.113
-151.368
-150.215
-146.918
-140.663
-130.598
-115.898
-95.8827
-70.1892
-38.9946
-3.25485
35.085
72.9772
106.324
130.247
139.591
129.627
96.8592
39.812
-40.3575
-139.563
-250.897
-365.181
-471.904
-560.428
-621.311
-647.523
-635.409
-585.22
-501.163
-390.936
-264.834
-134.539
-11.7615
93.0764
171.962
220.072
236.136
222.356
183.919
128.192
63.7134
-0.876346
-57.83
-101.101
-126.877
-133.805
-122.898
-97.1723
-61.0773
-19.8131
21.3756
57.8389
86.0247
103.797
110.548
107.122
95.5562
78.7205
59.8828
42.2759
28.7129
21.2935
21.226
28.7736
43.3188
63.5224
87.5501
113.329
138.804
162.154
181.962
197.303
207.77
213.421
214.683
212.215
206.767
199.048
189.628
178.879
166.973
153.917
139.627
124.012
107.065
88.9282
69.9303
50.5832
31.5428
13.5396
-2.70905
-16.588
-27.6622
-35.7307
-40.8477
-43.3106
-43.6165
-42.3945
-40.3254
-38.0589
-36.1406
-34.9574
-34.7071
-35.3945
-36.8528
-38.7845
-40.8161
-42.5572
-43.6576
-43.8525
-42.9943
-41.0655
-38.1737
-34.5306
-30.4195
-26.1552
-22.0434
-18.3436
-15.2408
-12.8278
-11.1011
-9.96824
-9.26635
-8.7881
-8.31181
-7.63192
-6.58621
-5.07667
-3.08201
-0.660559
2.05641
4.87992
7.58506
9.9367
11.716
12.7448
12.9048
12.1501
10.5111
8.09032
5.05095
1.59936
-2.03558
-5.62413
-8.9558
-11.856
-14.1976
-15.907
-16.9636
-17.3955
-17.2692
-16.6779
-15.7283
-14.5281
-13.1755
-11.7522
-10.3194
-8.91783
-7.57063
-6.28819
-5.07377
-3.92893
-2.85762
-1.8683
-0.973828
-0.189116
0.472895
1.0062
1.4167
1.72614
1.97415
2.21767
2.52742
2.98141
3.65613
4.61625
5.90416
7.53076
9.4691
11.6518
13.9733
16.2972
18.4671
20.3221
21.7124
22.5156
22.6495
22.0817
20.8336
18.978
16.6322
13.9456
11.0848
8.21783
5.49875
3.05519
0.979642
-0.67478
-1.89391
-2.69784
-3.13242
-3.25706
-3.12886
-2.78234
-2.20408
-1.30233
0.127049
2.43364
6.13671
11.9283
20.6405
33.1626
50.2987
72.5676
99.9641
131.718
166.106
200.372
230.821
253.097
262.664
255.426
228.403
180.362
112.266
27.4682
-68.4369
-168.084
-263.102
-345.056
-406.46
-441.686
-447.668
-424.286
-374.384
-303.422
-218.808
-129.022
-42.6272
32.683
90.8939
128.238
143.463
137.796
114.604
78.8452
36.3656
-6.84946
-45.3745
-74.9161
-92.6984
-97.6316
-90.2634
-72.5377
-47.4099
-18.3781
11.0033
37.5678
58.8866
73.4918
80.9572
81.8415
77.514
69.8969
61.165
53.4435
48.5438
47.7648
51.7796
60.612
73.6971
90.008
108.228
126.936
144.79
160.67
173.784
183.708
190.382
194.053
195.182
194.335
192.077
188.868
185
180.56
175.433
169.34
161.904
152.736
141.52
128.097
112.522
95.0973
76.3642
57.0652
38.0732
20.2994
4.59381
-8.35089
-18.0766
-24.4095
-27.4748
-27.6757
-25.6396
-22.1397
-18.0027
-14.0141
-10.8344
-8.93469
-8.55953
-9.71916
-12.2109
-15.6646
-19.6044
-23.5187
-26.9278
-29.4428
-30.8072
-30.9185
-29.8296
-27.7296
-24.9105
-21.7227
-18.5276
-15.6523
-13.3519
-11.7835
-10.9936
-10.9203
-11.4081
-12.2325
-13.1311
-13.8373
-14.111
-13.7649
-12.6819
-10.8245
-8.23343
-5.01993
-1.35041
2.572
6.52768
10.3
13.6924
16.5415
18.7264
20.1733
20.8554
20.791
20.037
18.6816
16.8365
14.6275
12.1866
9.64382
7.12098
4.72557
2.54661
0.65147
-0.915793
-2.13485
-3.00817
-3.55896
-3.82801
-3.86975
-3.74759
-3.52891
-3.27986
-3.06048
-2.92027
-2.8948
-3.0035
-3.24896
-3.61774
-4.08254
-4.60568
-5.14321
-5.64943
-6.0811
-6.40104
-6.58054
-6.60055
-6.45134
-6.13094
-5.64252
-4.99121
-4.18095
-3.21186
-2.07886
-0.771719
0.72297
2.41817
4.32133
6.42848
8.71836
11.1475
13.6475
16.1249
18.4649
20.5383
22.2126
23.3639
23.8908
23.7269
22.8496
21.286
19.1128
16.4505
13.4534
10.2954
7.15417
4.1945
1.55433
-0.666552
-2.41298
-3.67607
-4.48991
-4.92425
-5.07406
-5.04757
-4.95403
-4.89277
-4.94428
-5.16435
-5.58124
-6.19608
-6.98577
-7.90789
-8.90689
-9.92056
-10.8863
-11.7464
-12.4522
-12.9671
-13.2673
-13.3419
-13.1919
-12.827
-12.2636
-11.52
-10.6136
-9.55763
-8.35811
-7.0134
-5.51433
-3.84626
-1.99238
0.0620544
2.32526
4.79484
7.45478
10.2739
13.2061
16.1921
19.1624
22.0415
24.7518
27.2173
29.3666
31.1358
32.469
33.3202
33.6538
33.4457
32.6845
31.3729
29.5298
29.5298
29.5298
29.5298
29.5298
29.5298
29.5298
29.5298
29.5298
29.5298
29.5298
29.5298
29.5298
29.5298
29.5298
29.5298
29.5298
29.5298
29.5298
29.5298
29.5298
29.5298
