-69.8315
-53.9686
-35.9456
-16.3779
3.89682
23.8848
42.5273
58.8076
71.8587
81.0575
86.0932
86.9998
84.1496
78.2076
70.0538
60.684
51.1015
42.2132
34.7428
29.1703
25.7035
24.2829
24.6165
26.2391
28.5856
31.0693
33.1556
34.4211
34.5943
33.573
31.4197
28.3375
24.6307
20.6575
16.7806
13.3225
10.5299
8.55135
7.42805
7.09952
7.42001
8.18371
9.15445
10.0961
10.8001
11.1072
10.9213
10.2154
9.02861
7.45584
5.6326
3.71598
1.86518
0.223322
-1.0972
-2.02471
-2.53263
-2.63851
-2.39801
-1.89523
-1.23073
-0.508807
0.174332
0.740329
1.13534
1.33319
1.335
1.16566
0.867957
0.495186
0.103419
-0.255769
-0.541249
-0.726462
-0.801456
-0.772828
-0.661793
-0.500752
-0.328853
-0.187092
-0.113508
-0.138989
-0.284115
-0.557322
-0.954494
-1.45992
-2.04833
-2.6877
-3.34235
-3.97606
-4.55479
-5.04903
-5.43561
-5.69898
-5.83218
-5.83732
-5.72571
-5.51757
-5.24123
-4.9319
-4.63007
-4.3795
-4.22519
-4.21129
-4.3795
-4.76779
-5.40985
-6.3349
-7.56773
-9.12851
-11.0319
-13.2851
-15.8854
-18.8162
-22.0438
-25.5143
-29.1518
-32.8592
-36.5195
-39.9996
-43.1536
-45.8241
-47.8403
-49.0105
-49.1065
-47.8423
-44.8472
-39.6406
-31.6156
-20.0438
-4.11028
17.0117
44.0444
77.4535
117.273
162.937
213.134
265.742
317.842
365.854
405.789
433.605
445.638
439.054
412.267
365.258
299.747
219.174
128.478
33.6883
-58.6307
-142.023
-210.788
-260.56
-288.739
-294.728
-279.945
-247.613
-202.355
-149.65
-95.2192
-44.4199
-1.71018
29.7473
48.311
53.8981
47.8429
32.608
11.3912
-12.3144
-35.1528
-54.2788
-67.6343
-74.1031
-73.5379
-66.6687
-54.9147
-40.1339
-24.3448
-9.46
2.94024
11.7677
16.5086
17.2251
14.4857
9.23844
2.65135
-4.0591
-9.78701
-13.6657
-15.1525
-14.064
-10.561
-5.09185
1.69734
9.068
16.2974
22.7749
28.0742
31.9961
34.5775
36.0687
36.8855
37.5438
38.5862
40.5114
43.7143
48.4429
54.7764
62.6248
71.7474
81.7872
92.3135
102.869
113.011
122.349
130.567
137.432
142.789
146.549
148.661
149.089
147.787
144.694
139.729
132.81
123.89
112.988
100.228
85.8724
70.3295
54.1479
37.9839
22.5496
8.54548
-3.41182
-12.8576
-19.5322
-23.4117
-24.7104
-23.8556
-21.437
-18.1375
-14.6554
-11.6264
-9.55709
-8.77632
-9.40977
-11.38
-14.43
-18.1665
-22.1156
-25.7844
-28.7201
-30.5599
-31.0673
-30.1505
-27.8633
-24.3896
-20.0143
-15.0854
-9.97268
-5.02786
-0.550232
3.23823
6.20676
8.31814
9.62044
10.2301
10.3093
10.0407
9.60323
9.15032
8.79471
8.59951
8.57653
8.69139
8.87385
9.0318
9.06678
8.88898
8.42989
7.65137
6.55026
5.15834
3.53811
1.7751
-0.0319694
-1.78203
-3.38202
-4.75571
-5.85001
-6.63821
-7.12009
-7.31898
-7.27653
-7.04592
-6.68448
-6.24669
-5.77846
-5.31313
-4.86955
-4.45218
-4.05301
-3.65471
-3.23454
-2.76853
-2.23534
-1.61951
-0.913824
-0.120735
0.747256
1.66811
2.61157
3.54102
4.41578
5.19364
5.83326
6.29656
6.55074
6.56991
6.33634
5.84112
5.08448
4.0757
2.8327
1.38129
-0.245642
-2.00923
-3.86583
-5.76831
-7.66736
-9.51281
-11.2547
-12.8445
-14.2352
-15.3828
-16.246
-16.7872
-16.9738
-16.7794
-16.1866
-15.1894
-13.7966
-12.0343
-9.94774
-7.60141
-5.0775
-2.4718
0.112342
2.57183
4.8124
6.757
8.35282
9.57587
10.4323
10.9564
11.2045
11.2464
11.1551
10.9957
10.8147
10.6331
10.4413
10.1989
9.83797
9.26937
8.39208
7.10326
5.30895
2.93405
-0.0691081
-3.7142
-7.97686
-12.7935
-18.063
-23.6509
-29.3967
-35.1209
-40.6338
-45.7422
-50.2524
-53.968
-56.6796
-58.1458
-58.0652
-56.0431
-51.5587
-43.9426
-32.3765
-15.9276
6.37303
35.4048
71.7892
115.695
166.641
223.334
283.567
344.233
401.445
450.805
487.786
508.195
508.68
487.194
443.363
378.696
296.585
202.09
101.516
1.82703
-90.037
-167.857
-226.759
-263.693
-277.701
-269.951
-243.534
-203.057
-154.081
-102.482
-53.8165
-12.7573
17.3321
34.6437
38.9762
31.5999
14.9637
-7.7069
-32.8652
-57.0922
-77.4867
-91.9555
-99.3766
-99.6293
-93.4982
-82.4764
-68.4998
-53.6534
-39.8867
-28.7744
-21.3475
-18.0089
-18.5373
-22.1712
-27.7536
-33.9163
-39.2744
-42.6073
-43.0044
-39.9589
-33.4044
-23.6923
-11.5204
2.17604
16.3536
29.9924
42.2146
52.3766
60.1267
65.4249
68.5262
69.9314
70.3162
70.4446
71.0798
72.8993
76.4248
81.9707
89.6172
99.2077
110.371
122.562
135.124
147.348
158.546
168.11
175.562
180.585
183.036
182.935
180.44
175.806
169.331
161.316
152.017
141.623
130.246
117.927
104.672
90.4798
75.3909
59.5215
43.0897
26.4241
9.95297
-5.8266
-20.3928
-33.2528
-43.9963
-52.3419
-58.1694
-61.5332
-62.6548
-61.8958
-59.7154
-56.6177
-53.0964
-49.5834
-46.4083
-43.7721
-41.7384
-40.242
-39.1121
-38.1061
-36.9499
-35.3782
-33.1699
-30.1751
-26.3312
-21.6654
-16.2868
-10.3687
-4.12392
2.22142
8.45417
14.3953
19.9145
24.9371
29.4423
33.4547
37.0306
40.2412
43.1561
45.8284
48.2847
50.5199
52.4979
54.1576
55.4226
56.2131
56.4575
56.1028
55.1207
53.5101
51.2959
48.5243
45.2572
41.5662
37.5292
33.2271
28.745
24.1728
19.607
15.1515
10.9161
7.01272
3.54877
0.619024
-1.70348
-3.37579
-4.39124
-4.78241
-4.62007
-4.00801
-3.07429
-1.95978
-0.805575
0.259271
1.1282
1.72461
2.0055
1.96123
1.61163
0.999308
0.181197
-0.780313
-1.82555
-2.90406
-3.97873
-5.02738
-6.0419
-7.02543
-7.98826
-8.94319
-9.90128
-10.8684
-11.8433
-12.817
-13.7743
-14.6959
-15.5615
-16.3534
-17.0596
-17.6754
-18.2049
-18.6602
-19.059
-19.4217
-19.7676
-20.1102
-20.4544
-20.7932
-21.1075
-21.3666
-21.5316
-21.5595
-21.4091
-21.0466
-20.4508
-19.6167
-18.557
-17.3008
-15.8903
-14.3757
-12.808
-11.2333
-9.68666
-8.18832
-6.74264
-5.33921
-3.9565
-2.56716
-1.14389
0.335145
1.88229
3.4986
5.17442
6.89202
8.62978
10.3667
12.0864
13.7795
15.4433
17.0801
18.6921
20.2763
21.8186
23.2896
24.6424
25.8133
26.7261
27.2991
27.4537
27.1242
26.2661
24.8627
22.9283
20.5079
17.6732
14.5162
11.1413
7.65714
4.1701
0.780649
-2.4165
-5.32688
-7.8444
-9.83221
-11.0957
-11.3485
-10.1742
-6.98988
-1.01886
8.71341
23.3484
44.1146
72.1899
108.507
153.509
206.894
267.37
332.494
398.629
461.08
514.414
552.966
571.477
565.793
533.51
474.483
391.079
288.138
172.611
52.9145
-61.9312
-163.259
-243.693
-297.94
-323.333
-320.061
-291.063
-241.6
-178.587
-109.754
-42.7599
15.6289
60.2124
87.7989
97.3837
90.0617
68.7028
37.4501
1.11377
-35.4551
-67.9358
-92.9887
-108.544
-113.906
-109.684
-97.5685
-79.9977
-59.7733
-39.6663
-22.0724
-8.75002
-0.667043
2.03654
-0.0231463
-5.63398
-13.2072
-21.0218
-27.461
-31.2109
-31.4011
-27.6751
-20.1894
-9.5472
3.31576
17.2772
31.1831
43.9915
54.8907
63.3774
69.2915
72.8071
74.3839
74.6897
74.5058
74.6265
75.7664
78.4845
83.1321
89.8285
98.464
108.728
120.156
132.187
144.228
155.71
166.141
175.136
182.436
187.911
191.538
193.379
193.541
192.14
189.266
184.958
179.19
171.88
162.908
152.155
139.548
125.102
108.964
91.4265
72.9326
54.0517
35.4348
17.7569
1.65035
-12.3568
-23.8926
-32.7739
-39.017
-42.8253
-44.5566
-44.6755
-43.697
-42.1292
-40.4226
-38.9299
-37.8826
-37.3828
-37.4125
-37.855
-38.5263
-39.2107
-39.696
-39.8036
-39.4103
-38.4608
-36.968
-35.0056
-32.691
-30.1657
-27.5733
-25.0398
-22.6586
-20.4815
-18.5167
-16.7336
-15.0718
-13.4546
-11.8029
-10.048
-8.14229
-6.06544
-3.82668
-1.46293
0.966491
3.38721
5.7181
7.87917
9.79825
11.4157
12.6872
13.5841
14.0928
14.213
13.9549
13.3374
12.3863
11.1327
9.61219
7.86456
5.93295
3.86322
1.70289
-0.50039
-2.7004
-4.85409
-6.92288
-8.87341
-10.6775
-12.3112
-13.7533
-14.9832
-15.9793
-16.7176
-17.172
-17.3155
-17.1235
-16.5778
-15.6722
-14.4168
-12.8423
-11.0015
-8.96907
-6.83743
-4.71092
-2.6972
-0.897809
0.601267
1.73781
2.47918
2.8251
2.80689
2.48339
1.93408
1.25017
0.524898
-0.155904
-0.721825
-1.12369
-1.33662
-1.36009
-1.21542
-0.940847
-0.585346
-0.201683
0.160184
0.458718
0.664828
0.763981
0.756351
0.655165
0.483656
0.271123
0.0487016
-0.154587
-0.314974
-0.415891
-0.448497
-0.410768
-0.305327
-0.136393
0.093629
0.387337
0.754712
1.21422
1.7923
2.5212
3.43522
4.56585
5.93623
7.55591
9.41639
11.4885
13.7223
16.0492
18.3872
20.6483
22.7471
24.6099
26.1826
27.4372
28.3747
29.025
29.4433
29.7033
29.8883
30.0805
30.3499
30.7453
31.2854
31.9547
32.7014
33.44
34.0567
34.418
34.3816
33.8087
32.5758
30.5861
27.7786
24.1345
19.6804
14.4884
8.67346
2.3883
-4.18308
-10.8318
-17.3292
-23.428
-28.8573
-33.3099
-36.4194
-37.7292
-36.6572
-32.462
-24.2249
-10.8601
8.82957
36.0384
71.779
116.646
170.544
232.422
300.064
370.003
437.601
497.33
543.255
569.676
571.847
546.688
493.359
413.61
311.822
194.727
70.8043
-50.5587
-160.052
-249.444
-312.461
-345.45
-347.723
-321.555
-271.843
-205.473
-130.488
-55.163
12.9025
67.5526
104.635
122.29
120.956
103.111
72.8031
35.0338
-4.90632
-42.078
-72.4298
-93.1778
-102.997
-102.019
-91.6567
-74.29
-52.8706
-30.495
-10.0067
6.33015
17.0508
21.5884
20.2501
14.0875
4.68655
-6.08688
-16.3514
-24.449
-29.132
-29.6793
-25.9345
-18.2697
-7.48558
5.3323
18.978
32.2886
44.2843
54.2715
61.898
67.1591
70.3587
72.0358
72.8693
73.5758
74.8159
77.1187
80.8337
86.1134
92.9237
101.077
110.281
120.192
130.465
140.793
150.928
160.694
169.969
178.669
186.716
193.998
200.345
205.499
209.112
210.748
209.921
206.141
198.977
188.129
173.501
155.246
133.801
109.878
84.4309
58.579
33.5158
10.3984
-9.76035
-26.1873
-38.4181
-46.3328
-50.1541
-50.4084
-47.8564
-43.4019
-37.9913
-32.514
-27.7175
-24.1447
-22.0988
-21.6381
-22.5997
-24.6449
-27.3202
-30.1264
-32.5836
-34.2888
-34.9565
-34.4417
-32.7431
-29.9886
-26.4071
-22.2907
-17.9544
-13.6968
-9.76747
-6.34432
-3.52167
-1.31018
0.353196
1.58718
2.54321
3.38072
4.24372
5.24144
6.43486
7.83034
9.38042
10.9914
12.5359
13.8698
14.8489
15.3468
15.2686
14.5606
13.2157
11.2722
8.80829
5.93263
2.77192
-0.541966
-3.8843
-7.14737
-10.247
-13.1251
-15.7482
-18.1024
-20.1864
-22.0031
-23.5519
-24.8228
-25.7939
-26.4318
-26.6963
-26.5471
-25.9523
-24.8975
-23.3922
-21.4747
-19.2121
-16.6972
-14.0416
-11.366
-8.78963
-6.41927
-4.34031
-2.61001
-1.25435
-0.268313
0.380369
0.74491
0.89143
0.890399
0.808682
0.703109
0.61622
0.574431
0.588479
0.655727
0.763646
0.893773
1.02547
1.13896
1.21743
1.24804
1.22214
1.13492
0.984893
0.77347
0.50491
0.186569
-0.170657
-0.551942
-0.938531
-1.30835
-1.63734
-1.90153
-2.07946
-2.15487
-2.1188
-1.97097
-1.71967
-1.37994
-0.969953
-0.505761
0.00484733
0.568459
1.21087
1.97948
2.94231
4.1832
5.7933
7.85957
10.4517
13.6091
17.329
21.5591
26.1935
31.0752
36.0033
40.7455
45.0547
48.6879
51.4249
53.087
53.5509
52.7588
50.7217
47.5171
43.2808
38.1935
32.4648
26.3163
19.9653
13.6115
7.4277
1.55522
-3.89545
-8.83942
-13.2068
-16.9269
-19.9066
-22.0019
-22.9837
-22.4993
-20.0344
-14.8839
-6.14354
7.26357
26.5108
52.731
86.819
129.184
179.484
236.386
297.41
358.904
416.202
463.974
496.744
509.539
498.569
461.848
399.651
314.718
212.169
99.0969
-16.0942
-124.556
-217.937
-289.291
-333.824
-349.392
-336.684
-299.075
-242.17
-173.113
-99.7365
-29.6887
30.3854
75.4908
102.701
111.308
102.707
80.047
47.7043
10.6618
-26.1298
-58.3273
-82.6446
-97.1317
-101.266
-95.8622
-82.8243
-64.7917
-44.7263
-25.5003
-9.5356
1.46574
6.67446
6.16155
0.808725
-7.87672
-18.0107
-27.6081
-34.848
-38.2973
-37.0667
-30.8864
-20.0989
-5.57619
11.4222
29.4278
46.9534
62.6719
75.5623
85.0077
90.8381
93.3168
93.0762
91.0149
88.1712
85.5904
84.2017
84.7191
87.5755
92.8957
100.508
109.988
120.729
132.028
143.17
153.506
162.515
169.839
175.294
178.854
180.611
180.73
179.39
176.734
172.833
167.67
161.142
153.092
143.351
131.795
118.403
103.297
86.7803
69.3294
51.5765
34.2568
18.1385
3.9425
-7.73773
-16.5043
-22.2013
-24.9336
-25.0539
-23.1209
-19.8337
-15.9513
-12.2076
-9.2327
-7.4904
-7.23837
-8.51529
-11.1547
-14.8224
-19.071
-23.4036
-27.3388
-30.4671
-32.495
-33.2692
-32.7826
-31.1607
-28.6337
-25.497
-22.069
-18.649
-15.4826
-12.7372
-10.4902
-8.72991
-7.36851
-6.2633
-5.24362
-4.13906
-2.80513
-1.14351
0.885704
3.26048
5.90206
8.68751
11.4676
14.0874
16.406
18.3144
19.7467
20.686
21.1621
21.2427
21.0201
20.5934
20.0518
19.4595
18.8447
18.1953
17.461
16.5618
15.4013
13.8832
11.9289
9.49232
6.57167
3.21454
-0.48316
-4.38506
-8.32766
-12.1374
-15.6495
-18.7252
-21.2663
-23.2247
-24.6049
-25.4611
-25.8877
-26.0057
-25.9464
-25.8345
-25.7727
-25.8301
-26.0348
-26.3721
-26.7879
-27.1966
-27.4928
-27.5642
-27.3052
-26.6293
-25.4787
-23.8303
-21.6991
-19.1369
-16.2286
-13.0853
-9.83581
-6.61695
-3.5631
-0.796477
1.58158
3.49749
4.9098
5.81072
6.22461
6.20358
5.82077
5.16192
4.31633
3.36816
2.38909
1.43304
0.533719
-0.295197
-1.05704
-1.76708
-2.44594
-3.11269
-3.77843
-4.44151
-5.08508
-5.67753
-6.17572
-6.53072
-6.6951
-6.6307
-6.31556
-5.74893
-4.9533
-3.97302
-2.8693
-1.71217
-0.570222
0.500562
1.46745
2.32951
3.12272
3.92053
4.82932
5.97863
7.50702
9.54477
12.1953
15.518
19.5137
24.1161
29.189
34.531
39.8864
44.962
49.4473
53.038
55.459
56.4859
55.9644
53.824
50.0861
44.8661
38.3672
30.8689
22.7089
14.2614
5.91406
-1.95327
-8.98555
-14.8608
-19.2877
-21.9896
-22.6759
-21.0008
-16.5168
-8.63194
3.41636
20.5518
43.7988
74.1576
112.412
158.882
213.153
273.826
338.349
402.989
462.986
512.904
547.173
560.751
549.822
512.437
448.966
362.306
257.765
142.637
25.4991
-84.6819
-179.511
-252.082
-297.715
-314.439
-303.135
-267.36
-212.848
-146.794
-76.993
-10.9563
44.8861
85.8088
109.173
114.541
103.523
79.4013
46.5894
10.0063
-25.5512
-55.9643
-78.2132
-90.6246
-92.9317
-86.1557
-72.3393
-54.179
-34.6115
-16.4108
-1.84397
7.57413
11.2068
9.29675
2.85466
-6.54114
-16.9993
-26.5875
-33.5864
-36.6935
-35.1579
-28.8332
-18.1501
-4.0185
12.3215
29.4778
46.089
60.9874
73.326
82.6546
88.9411
92.5399
94.1146
94.5291
94.7222
95.5833
97.8431
101.994
108.242
116.508
126.447
137.518
149.057
160.366
170.795
179.809
187.032
192.266
195.481
196.779
196.348
194.405
191.138
186.666
181.009
174.092
165.759
155.822
144.113
130.547
115.171
98.2106
80.0757
61.3506
42.7508
25.0582
9.04283
-4.61939
-15.4201
-23.0741
-27.5485
-29.0634
-28.0628
-25.1612
-21.0727
-16.5325
-12.22
-8.69337
-6.342
-5.36163
-5.75352
-7.34574
-9.83244
-12.8248
-15.9067
-18.6881
-20.8501
-22.1765
-22.5703
-22.0536
-20.7535
-18.8763
-16.6746
-14.4121
-12.3302
-10.6205
-9.40635
-8.73404
-8.57392
-8.83081
-9.361
-9.99345
-10.5522
-10.8774
-10.8424
-10.3654
-9.41542
-8.01148
-6.21631
-4.12587
-1.8559
0.472652
2.74766
4.87774
6.80094
8.48937
9.94944
11.2177
12.3533
13.4272
14.5103
15.6612
16.9158
18.2792
19.7217
21.1791
22.5575
23.7427
24.6118
25.0476
24.9514
24.2563
22.9352
21.0057
18.5298
15.6081
12.3708
8.96401
5.53601
2.2224
-0.866042
-3.65245
-6.09848
-8.20417
-10.003
-11.5532
-12.9264
-14.1954
-15.422
-16.6475
-17.8867
-19.125
-20.3211
-21.4125
-22.3245
-22.9807
-23.3137
-23.2745
-22.839
-22.0117
-20.8244
-19.3332
-17.6103
-15.736
-13.7894
-11.8398
-9.94096
-8.12717
-6.41341
-4.79784
-3.26678
-1.80081
-0.3811
1.0053
2.36189
3.68116
4.94505
6.12688
7.19421
8.11182
8.84441
9.35868
9.62479
9.61729
9.31596
8.70677
7.78324
6.54818
5.01573
3.21336
1.18333
-1.01663
-3.31412
-5.6242
-7.85311
-9.90324
-11.6788
-13.0919
-14.0677
-14.5489
-14.4976
-13.8965
-12.7467
-11.0649
-8.87952
-6.22655
-3.14655
0.316821
4.11638
8.19892
12.5012
16.9455
21.4351
25.8525
30.0597
33.9032
37.2212
39.8555
41.6645
42.5366
42.4021
41.2419
39.0921
36.0424
32.2312
27.8345
23.0525
18.0951
13.1673
8.4562
4.12261
0.297696
-2.91337
-5.41886
-7.11779
-7.86616
-7.43338
-5.45241
-1.371
5.58452
16.418
32.328
54.6136
84.5118
122.97
170.37
226.243
289.017
355.865
422.709
484.411
535.177
569.139
581.063
567.078
525.327
456.433
363.673
252.838
131.753
9.51757
-104.444
-201.402
-274.275
-318.394
-331.979
-316.265
-275.28
-215.299
-144.057
-69.8344
-0.519576
57.2252
98.6043
121.07
124.415
110.584
83.2534
47.2428
7.84211
-29.8518
-61.515
-84.0287
-95.7248
-96.4324
-87.3388
-70.6989
-49.4435
-26.7445
-5.59416
11.5502
23.0192
28.0592
26.8337
20.3089
10.0496
-2.03801
-13.9816
-23.9968
-30.6913
-33.1985
-31.2294
-25.0455
-15.3632
-3.21021
10.2441
23.8578
36.6638
47.9776
57.455
65.0968
71.2061
76.3079
81.0463
86.0759
91.9632
99.1104
107.709
117.73
128.938
140.945
153.261
165.37
176.787
187.116
196.075
203.517
209.415
213.841
216.923
218.8
219.575
219.276
217.83
215.056
210.679
204.363
195.763
184.59
170.674
154.025
134.877
113.706
91.2124
68.2861
45.93
25.172
6.96649
-7.90167
-18.8961
-25.7824
-28.6492
-27.8933
-24.1723
-18.3305
-11.3068
-4.03763
2.63544
8.04161
11.7332
13.5094
13.4116
11.6912
8.75765
5.11372
1.28579
-2.24063
-5.07418
-6.95387
-7.76589
-7.54079
-6.43346
-4.69016
-2.60804
-0.492964
1.379
2.79204
3.61008
3.78423
3.34849
2.40568
1.10649
-0.37499
-1.86562
-3.21452
-4.30899
-5.08361
-5.5224
-5.65449
-5.54466
-5.28058
-4.95841
-4.66898
-4.48578
-4.45623
-4.59685
-4.89266
-5.30046
-5.75544
-6.18012
-6.4943
-6.62504
-6.51529
-6.13043
-5.46211
-4.52913
-3.3755
-2.06621
-0.681194
0.691629
1.96364
3.05235
3.88736
4.41492
4.60107
4.43299
3.91883
3.08589
1.97755
0.649086
-0.837133
-2.41673
-4.02818
-5.61699
-7.13889
-8.56175
-9.86599
-11.0437
-12.0964
-13.0321
-13.8615
-14.5942
-15.2356
-15.7841
-16.2295
-16.5529
-16.7279
-16.7232
-16.5059
-16.046
-15.3214
-14.3215
-13.0515
-11.5338
-9.8083
-7.93131
-5.97155
-4.0055
-2.11149
-0.363517
1.17459
2.45405
3.44442
4.13517
4.53523
4.67063
4.58071
4.31306
3.91814
3.44384
2.93084
2.40928
1.89693
1.39928
0.911407
0.421381
-0.0852546
-0.620617
-1.18996
-1.78825
-2.39846
-2.99192
-3.53085
-3.97264
-4.27541
-4.40379
-4.33394
-4.05697
-3.5797
-2.9227
-2.11568
-1.19086
-0.175693
0.913798
2.07742
3.33191
4.70811
6.24429
7.97661
9.92802
12.0977
14.4525
16.923
19.4038
21.76
23.8387
25.4842
26.5547
26.9394
26.572
25.4403
23.5895
21.1187
18.1717
14.9232
11.5613
8.27017
5.21409
2.52506
0.29623
-1.41801
-2.59438
-3.2248
-3.29204
-2.73706
-1.41901
0.929465
4.74684
10.6792
19.5971
32.5788
50.8449
75.6314
107.999
148.586
197.333
253.216
314.056
376.444
435.85
486.925
523.997
541.717
535.77
503.555
444.719
361.452
258.484
142.745
22.7341
-92.3469
-193.574
-273.277
-325.875
-348.468
-341.114
-306.749
-250.782
-180.406
-103.746
-28.9262
36.806
87.8033
120.513
133.693
128.348
107.408
75.2098
36.8618
-2.42517
-37.9563
-66.0496
-84.3628
-92.025
-89.577
-78.7437
-62.0853
-42.5802
-23.1985
-6.5217
5.55095
11.9788
12.6294
8.20731
0.0827973
-9.94808
-19.9348
-28.0383
-32.7578
-33.0947
-28.6393
-19.5755
-6.61239
9.1421
26.3459
43.6008
59.6215
73.3766
84.1877
91.7782
96.271
98.1406
98.1283
97.1336
96.0964
95.8839
97.1954
100.492
105.962
113.516
122.817
133.332
144.409
155.348
165.484
174.249
181.22
186.142
188.93
189.648
188.466
185.613
181.32
175.776
169.089
161.279
152.283
141.988
130.275
117.076
102.421
86.4785
69.5698
52.1634
34.8427
18.2541
3.04258
-10.2159
-21.0764
-29.2711
-34.7356
-37.6109
-38.2212
-37.0331
-34.6
-31.5002
-28.2765
-25.3839
-23.152
-21.7641
-21.2553
-21.5272
-22.3776
-23.5376
-24.7146
-25.6317
-26.0627
-25.8554
-24.945
-23.3538
-21.1813
-18.5846
-15.7545
-12.8886
-10.1671
-7.73216
-5.67409
-4.02536
-2.76202
-1.81204
-1.06885
-0.407787
0.296674
1.15515
2.25086
3.63163
5.30688
7.24967
9.40291
11.6886
14.0186
16.3054
18.4718
20.4572
22.2216
23.7459
25.0286
26.0804
26.9175
27.5545
27.9978
28.2413
28.2644
28.0325
27.501
26.6205
25.3442
23.6355
21.4755
18.8683
15.845
12.464
8.8084
4.98047
1.0939
-2.73586
-6.40153
-9.81321
-12.9058
-15.6435
-18.0214
-20.0633
-21.8165
-23.3446
-24.7185
-26.0078
-27.2729
-28.5592
-29.8941
-31.2861
-32.7268
-34.1939
-35.655
-37.0714
-38.4009
-39.5998
-40.624
-41.4286
-41.9688
-42.1997
-42.0778
-41.563
-40.6219
-39.2315
-37.3835
-35.0875
-32.3744
-29.2973
-25.9309
-22.3689
-18.7195
-15.0988
-11.6237
-8.40402
-5.5348
-3.08994
-1.11726
0.364262
1.36484
1.92178
2.09523
1.96215
1.60916
1.12496
0.59309
0.0856854
-0.341215
-0.650447
-0.824458
-0.864077
-0.785602
-0.616604
-0.390929
-0.143331
0.0958946
0.306038
0.480655
0.631512
0.791326
1.01464
1.37612
1.96561
2.87978
4.21066
6.03208
8.38556
11.2676
14.6204
18.3283
22.2203
26.0798
29.6613
32.7117
34.9946
36.3149
36.5401
35.6159
33.5744
30.5328
26.6837
22.2767
17.5946
12.9272
8.54422
4.67309
1.4826
-0.924384
-2.50777
-3.27553
-3.25728
-2.46678
-0.85485
1.7438
5.66453
11.4591
19.9233
32.0911
49.1822
72.4893
103.2
142.16
189.598
244.85
306.136
370.439
433.554
490.318
535.043
562.122
566.72
545.481
497.131
422.87
326.482
214.122
93.7826
-25.495
-134.573
-225.211
-290.962
-327.865
-334.839
-313.727
-269.007
-207.196
-136.046
-63.6373
2.52871
56.3038
93.468
112.039
112.297
96.5489
68.6677
33.4947
-3.82302
-38.469
-66.4942
-85.1986
-93.3243
-91.055
-79.8396
-62.0778
-40.7213
-18.8457
0.748802
15.8627
25.1137
28.0292
25.015
17.216
6.29798
-5.81435
-17.2062
-26.2129
-31.6038
-32.6937
-29.3719
-22.0572
-11.5887
0.92517
14.2773
27.3272
39.1413
49.0926
56.9104
62.6789
66.7891
69.8554
72.6109
75.7953
80.0536
85.854
93.4371
102.798
113.702
125.725
138.32
150.886
162.84
173.682
183.039
190.683
196.539
200.656
203.169
204.25
204.055
202.678
200.117
196.265
190.912
183.788
174.604
163.123
149.223
132.954
114.573
94.562
73.6008
52.5211
32.2305
13.6232
-2.51279
-15.578
-25.2237
-31.3843
-34.2771
-34.3694
-32.3176
-28.8875
-24.866
-20.9743
-17.7956
-15.7223
-14.9311
-15.3839
-16.8564
-18.9853
-21.3295
-23.4351
-24.8973
-25.4096
-24.7978
-23.0333
-20.2279
-16.611
-12.4939
-8.22742
-4.15771
-0.586584
2.25932
4.24762
5.34625
5.61684
5.19771
4.27925
3.07571
1.79699
0.624039
-0.309674
-0.928746
-1.21812
-1.21752
-1.00953
-0.703381
-0.417118
-0.260394
-0.320294
-0.651647
-1.27268
-2.16593
-3.28365
-4.55628
-5.90235
-7.23814
-8.48579
-9.57893
-10.4655
-11.1083
-11.4828
-11.5751
-11.3789
-10.8931
-10.1212
-9.07119
-7.75709
-6.20052
-4.4326
-2.49492
-0.439433
1.67324
3.77684
5.80382
7.69034
9.38147
10.8358
12.0289
12.9553
13.6279
14.0759
14.34
14.4659
14.4968
14.4664
14.3917
14.2692
14.0737
13.7602
13.2695
12.5363
11.4984
10.1074
8.33619
6.18627
3.69011
0.910802
-2.06201
-5.11923
-8.14143
-11.0089
-13.6114
-15.857
-17.6784
-19.0368
-19.923
-20.3551
-20.3746
-20.04
-19.4192
-18.5824
-17.5944
-16.5096
-15.3685
-14.196
-13.0029
-11.7893
-10.549
-9.27536
-7.96603
-6.62738
-5.27673
-3.94264
-2.66309
-1.48167
-0.442694
0.414323
1.05982
1.47824
1.6705
1.65433
1.46271
1.14047
0.739498
0.313414
-0.0878156
-0.422393
-0.659773
-0.781777
-0.781466
-0.659818
-0.420593
-0.0641837
0.418466
1.05057
1.87162
2.93593
4.30738
6.05049
8.21905
10.844
13.9221
17.4084
21.2122
25.1998
29.2019
33.0268
36.4768
39.366
41.5379
42.8802
43.3353
42.9054
41.6518
39.6887
37.1735
34.2929
31.2486
28.2428
25.4655
23.0834
21.2336
20.0195
19.514
19.7673
20.8246
22.7527
25.6776
29.8303
35.5957
43.556
54.514
69.4804
89.6075
116.058
149.808
191.387
240.599
296.258
356.001
416.244
472.311
518.781
550.021
560.855
547.289
507.175
440.702
350.633
242.213
122.755
0.936588
-114.107
-213.77
-290.913
-340.636
-360.771
-352.051
-317.935
-264.115
-197.794
-126.817
-58.7834
-0.232731
43.9804
71.0781
80.4772
73.6426
53.7137
24.9687
-7.7958
-39.8868
-67.2634
-86.9517
-97.2877
-97.9761
-89.9744
-75.2331
-56.3406
-36.1231
-17.257
-1.93897
8.34945
12.9619
12.0891
6.65311
-1.8817
-11.7485
-21.1336
-28.4136
-32.3454
-32.1905
-27.7633
-19.4055
-7.89682
5.68029
20.1005
34.1577
46.8096
57.2872
65.1618
70.3631
73.1532
74.0631
73.8027
73.1587
72.892
73.6485
75.8911
79.8597
85.5615
92.7904
101.17
110.216
119.4
128.22
136.258
143.216
148.936
153.393
156.672
158.924
160.312
160.959
160.906
160.077
158.276
155.204
150.5
143.798
134.801
123.342
109.445
93.348
75.5107
56.5802
37.3356
18.6116
1.21215
-14.1709
-27.0265
-37.0694
-44.2571
-48.7785
-51.0151
-51.484
-50.7684
-49.4462
-48.0267
-46.9002
-46.3086
-46.3358
-46.92
-47.8826
-48.9686
-49.8934
-50.388
-50.2375
-49.3091
-47.566
-45.0666
-41.9524
-38.4237
-34.711
-31.0438
-27.6217
-24.5917
-22.0336
-19.9546
-18.2943
-16.9363
-15.7278
-14.5017
-13.1
-11.3952
-9.30684
-6.81261
-3.95098
-0.81707
2.44852
5.67598
8.68564
11.3078
13.4008
14.865
15.6516
15.7653
15.2605
14.2328
12.8067
11.1209
9.31391
7.51077
5.81335
4.29373
2.99198
1.91757
1.05396
0.365429
-0.194947
-0.677139
-1.12683
-1.57958
-2.05695
-2.56478
-3.09352
-3.62025
-4.11211
-4.53031
-4.83457
-4.98718
-4.9566
-4.72017
-4.26589
-3.59324
-2.71293
-1.64598
-0.422005
0.922901
2.34847
3.81252
5.27295
6.68939
8.02423
9.24335
10.3163
11.2162
11.9198
12.4069
12.6609
12.6687
12.4215
11.9151
11.151
10.1365
8.88556
7.41833
5.76107
3.94536
2.00697
-0.01556
-2.0827
-4.15593
-6.19976
-8.18341
-10.0819
-11.8761
-13.5519
-15.0977
-16.5021
-17.7513
-18.8261
-19.7015
-20.3468
-20.7278
-20.8105
-20.5655
-19.973
-19.0273
-17.7402
-16.1422
-14.2819
-12.2238
-10.0427
-7.81818
-5.62732
-3.53827
-1.6042
0.140874
1.6843
3.03454
4.21866
5.27779
6.26114
7.2194
8.19829
9.23321
10.3456
11.5416
12.8125
14.1384
15.4919
16.8441
18.1689
19.4475
20.6696
21.8326
22.9385
23.9881
24.9745
25.8768
26.6554
27.2501
27.5818
27.5588
27.0861
26.0772
24.4673
22.2249
19.3609
15.933
12.045
7.84053
3.4923
-0.811684
-4.88286
-8.54515
-11.6436
-14.0457
-15.6332
-16.2821
-15.8304
-14.0345
-10.517
-4.7144
4.16724
17.1718
35.5719
60.7891
94.2411
137.113
190.062
252.894
324.247
401.368
480.035
554.689
618.808
665.506
688.312
682.025
643.53
572.434
471.417
346.211
205.191
58.6035
-82.4788
-207.336
-306.769
-374.098
-405.866
-402.154
-366.475
-305.274
-227.101
-141.576
-58.2764
14.3068
69.6249
103.647
115.103
105.387
78.1559
38.7031
-6.8138
-52.1725
-91.8223
-121.472
-138.47
-141.955
-132.774
-113.206
-86.5359
-56.5521
-27.0335
-1.28855
18.2012
29.9991
33.7814
30.2611
20.9914
8.08618
-6.09994
-19.2888
-29.5533
-35.52
-36.4819
-32.4165
-23.9164
-12.0499
1.82376
16.2563
29.9031
41.682
50.8833
57.2216
60.8286
62.1962
62.0804
61.3836
61.0318
61.8614
64.5285
69.4489
76.7711
86.3822
97.9426
110.94
124.758
138.743
152.272
164.803
175.912
185.305
192.821
198.404
202.078
203.903
203.94
202.213
198.696
193.301
185.901
176.357
164.56
150.488
134.243
116.089
96.4635
75.9625
55.3062
35.2775
16.6501
0.111779
-13.8043
-24.772
-32.7002
-37.734
-40.2285
-40.7004
-39.7635
-38.0578
-36.1806
-34.6284
-33.7549
-33.7494
-34.6356
-36.2889
-38.4684
-40.8586
-43.1139
-44.9026
-45.9443
-46.0374
-45.0764
-43.056
-40.0647
-36.2689
-31.8904
-27.1802
-22.392
-17.7578
-13.4692
-9.66362
-6.41915
-3.75498
-1.63854
0.00320049
1.26984
2.27293
3.12229
3.9147
4.72559
5.60415
6.57163
7.62244
8.72737
9.83824
10.8934
11.8236
12.5575
13.0274
13.174
12.9504
12.3257
11.2877
9.84374
8.02153
5.86771
3.44579
0.832683
-1.88555
-4.61865
-7.27729
-9.77801
-12.0475
-14.0261
-15.6696
-16.9506
-17.8576
-18.3939
-18.5751
-18.4263
-17.9797
-17.2717
-16.341
-15.227
-13.969
-12.6055
-11.1739
-9.71062
-8.25071
-6.82764
-5.47265
-4.21393
-3.07552
-2.07623
-1.22863
-0.538381
-0.00411256
0.382184
0.634093
0.769217
0.807271
0.768096
0.669848
0.527649
0.352903
0.153378
-0.0659572
-0.301545
-0.54957
-0.804399
-1.05746
-1.29687
-1.50795
-1.67451
-1.78086
-1.81408
-1.76616
-1.63572
-1.42892
-1.15935
-0.846948
-0.516015
-0.192652
0.0981023
0.334982
0.502732
0.593584
0.607789
0.553201
0.443977
0.298617
0.137617
-0.0189666
-0.15371
-0.253555
-0.310882
-0.323854
-0.296051
-0.235495
-0.153238
-0.0617143
0.0269206
0.102309
0.157135
0.188058
0.196356
0.188347
0.175683
0.175589
0.211112
0.311367
0.511721
0.853694
1.3843
2.1545
3.21634
4.61865
6.40122
8.58761
11.1772
14.1375
17.3972
20.843
24.3192
27.6341
30.5705
32.9032
34.4194
34.9418
34.3508
32.6033
29.7439
25.9093
21.3219
16.2748
11.1097
6.19043
1.87624
-1.50036
-3.64656
-4.30909
-3.25823
-0.255643
4.99142
12.8832
23.9775
39.0231
58.9575
84.8541
117.802
158.712
208.063
265.609
330.098
399.053
468.702
534.082
589.371
628.43
645.503
635.998
597.229
528.99
433.865
317.206
186.734
51.832
-77.4222
-191.329
-281.627
-342.381
-370.607
-366.529
-333.459
-277.333
-205.94
-127.993
-52.1265
14.0346
64.6288
96.0621
107.211
99.3281
75.6746
40.9586
0.6496
-39.732
-75.2632
-102.135
-117.983
-122.018
-114.945
-98.7246
-76.1915
-50.6201
-25.2758
-3.01722
14.0098
24.557
28.3281
25.9097
18.5998
8.1672
-3.42256
-14.2753
-22.799
-27.8714
-28.9313
-25.9886
-19.5622
-10.5581
-0.111496
10.5867
20.4539
28.652
34.6806
38.4194
40.1184
40.3413
39.8732
39.6063
40.42
43.0706
48.102
55.7886
66.1131
78.779
93.2549
108.842
124.753
140.199
154.466
166.973
177.318
185.286
190.846
194.112
195.302
194.677
192.486
188.916
184.062
177.911
170.359
161.239
150.376
137.646
123.031
106.67
88.8793
70.1524
51.1309
32.5489
15.1608
-0.33741
-13.3834
-23.6088
-30.8764
-35.2899
-37.175
-37.0354
-35.4903
-33.2011
-30.7985
-28.8164
-27.6428
-27.4894
-28.3848
-30.1888
-32.6245
-35.3243
-37.8817
-39.9042
-41.0593
-41.1106
-39.9397
-37.5525
-34.072
-29.7173
-24.775
-19.565
-14.4059
-9.58402
-5.32858
-1.79541
0.939834
2.87942
4.09336
4.70342
4.86361
4.73973
4.49032
4.25084
4.12245
4.16602
4.4013
4.81084
5.34753
5.94449
6.52599
7.01793
7.35663
7.49497
7.40548
7.0802
6.52787
5.76925
4.83161
3.74348
2.53061
1.21369
-0.191912
-1.67461
-3.22378
-4.82641
-6.46399
-8.11042
-9.73125
-11.2848
-12.7244
-14.0026
-15.075
-15.9046
-16.4657
-16.7457
-16.7461
-16.4818
-15.9783
-15.2685
-14.3882
-13.3729
-12.2542
-11.0578
-9.80321
-8.50497
-7.17446
-5.82312
-4.46533
-3.12094
-1.81656
-0.585425
0.53438
1.50317
2.28399
2.84729
3.17539
3.26577
3.13273
2.80687
2.33259
1.7636
1.15719
0.567959
0.0419206
-0.38824
-0.706054
-0.911895
-1.02127
-1.06104
-1.06414
-1.0637
-1.08738
-1.1529
-1.26539
-1.41687
-1.58799
-1.75156
-1.87726
-1.93676
-1.9085
-1.78127
-1.55619
-1.24685
-0.877601
-0.480353
-0.0904176
0.258099
0.536669
0.725975
0.818374
0.818902
0.744747
0.623233
0.488594
0.377933
0.326904
0.365679
0.515785
0.788222
1.18314
1.69109
2.29554
2.97621
3.7127
4.48752
5.28826
6.10829
6.9461
7.80329
8.68169
9.58027
10.4924
11.4042
12.2941
13.1341
13.892
14.5342
15.0289
15.3483
15.4694
15.3748
15.0517
14.4905
13.6839
12.6262
11.3137
9.74648
7.9304
5.88099
3.62692
1.21378
-1.2924
-3.80119
-6.19258
-8.30848
-9.93911
-10.8026
-10.5172
-8.56901
-4.27904
3.21872
14.9772
32.1981
56.1406
87.97
128.544
178.155
236.259
301.236
370.244
439.218
503.05
555.974
592.125
606.229
594.319
554.383
486.833
394.714
283.583
161.073
36.1642
-81.7374
-183.806
-262.751
-313.598
-334.192
-325.369
-290.771
-236.344
-169.583
-98.6334
-31.3687
25.4573
66.8691
90.0806
94.6213
82.1852
56.2379
21.4507
-16.9585
-53.8898
-84.9512
-106.909
-117.958
-117.792
-107.491
-89.2448
-65.9757
-40.9046
-17.1254
2.76423
16.9324
24.4629
25.3753
20.5286
11.4289
-0.0230912
-11.809
-22.0565
-29.2587
-32.4267
-31.1619
-25.6491
-16.5765
-5.0013
7.81797
20.599
32.2004
41.7539
48.7516
53.0805
55.0051
55.1044
54.1753
53.1168
52.8129
54.0261
57.3164
62.9921
71.0943
81.4142
93.5373
106.905
120.883
134.834
148.172
160.407
171.175
180.238
187.478
192.867
196.438
198.245
198.328
196.689
193.273
187.975
180.653
171.162
159.403
145.366
129.175
111.124
91.6786
71.4664
51.2343
31.7857
13.9047
-1.72394
-14.5864
-24.3942
-31.1122
-34.9577
-36.3694
-35.9518
-34.4024
-32.4298
-30.6759
-29.6491
-29.6774
-30.8854
-33.1975
-36.3638
-40.0051
-43.6704
-46.8977
-49.2719
-50.4729
-50.3075
-48.7238
-45.8077
-41.7627
-36.878
-31.4888
-25.9359
-20.5284
-15.5145
-11.0637
-7.25991
-4.10655
-1.54087
0.545506
2.28313
3.80189
5.2118
6.58937
7.97097
9.35293
10.6976
11.9442
13.0213
13.8604
14.4075
14.6318
14.5298
14.1256
13.4665
12.6155
11.6413
10.6083
9.56681
8.5461
7.55062
6.56025
5.53441
4.41954
3.15874
1.70235
0.0177821
-1.90273
-4.03764
-6.33563
-8.71914
-11.0916
-13.3474
-15.3831
-17.1081
-18.4546
-19.3837
-19.8881
-19.991
-19.7415
-19.2065
-18.4619
-17.5823
-16.6328
-15.6621
-14.6988
-13.7509
-12.808
-11.8459
-10.8334
-9.73853
-8.53565
-7.21017
-5.76216
-4.20753
-2.57723
-0.914762
0.727622
2.2934
3.72637
4.97486
5.99522
6.75438
7.2313
7.41746
7.31638
6.94247
6.31934
5.4778
4.45371
3.28588
2.01417
0.677827
-0.685726
-2.04169
-3.35812
-4.60566
-5.75675
-6.78468
-7.66271
-8.36373
-8.86079
-9.12874
-9.14693
-8.90266
-8.39473
-7.63654
-6.65775
-5.50413
-4.23503
-2.91872
-1.62582
-0.421697
0.641174
1.52977
2.2351
2.77402
3.18806
3.53924
3.90359
4.36301
4.99661
5.87249
7.04101
8.53014
10.3434
12.4603
14.8396
17.4238
20.145
22.9313
25.7114
28.4194
30.9965
33.3918
35.5603
37.4611
39.0535
40.2942
41.1342
41.5172
41.3798
40.653
39.2665
37.1557
34.2697
30.5815
26.0979
20.8676
14.9871
8.60163
1.90183
-4.88453
-11.5042
-17.6911
-23.1771
-27.6964
-30.98
-32.7375
-32.6248
-30.2029
-24.8919
-15.9347
-2.38586
16.8584
42.972
77.0433
119.855
171.616
231.684
298.32
368.553
438.183
501.991
554.148
588.806
600.798
586.371
543.816
473.917
380.107
268.302
146.411
23.5634
-90.8374
-188.126
-261.316
-305.842
-320.018
-305.153
-265.313
-206.773
-137.235
-64.9196
2.35874
58.0115
97.3045
117.73
119.091
103.321
74.0585
36.0754
-5.38657
-45.2663
-79.2509
-104.199
-118.382
-121.529
-114.695
-99.9828
-80.1614
-58.2528
-37.1275
-19.1653
-6.01388
1.53302
3.53749
0.810546
-5.27759
-13.0374
-20.7144
-26.7236
-29.8375
-29.3077
-24.9137
-16.938
-6.08179
6.66484
20.1747
33.3375
45.1954
55.0463
62.5055
67.521
70.3486
71.4913
71.6164
71.4615
71.7425
73.0731
75.9051
80.4922
86.8792
94.9148
104.284
114.554
125.224
135.784
145.758
154.741
162.431
168.631
173.25
176.28
177.771
177.796
176.415
173.648
169.458
163.752
156.397
147.251
136.21
123.254
108.491
92.1826
74.7533
56.7726
38.9139
21.8935
6.4001
-6.97897
-17.8206
-25.9118
-31.2701
-34.1372
-34.9464
-34.2682
-32.7419
-31.003
-29.614
-29.0087
-29.4553
-31.041
-33.6804
-37.1418
-41.0905
-45.1384
-48.8961
-52.0198
-54.2468
-55.4183
-55.4859
-54.5044
-52.6128
-50.0065
-46.9063
-43.5283
-40.0574
-36.6293
-33.3195
-30.1435
-27.0641
-24.006
-20.8741
-17.5741
-14.0314
-10.2057
-6.10146
-1.77057
2.69122
7.15382
11.467
15.4768
19.0428
22.0532
24.4359
26.1654
27.2631
27.7928
27.8501
27.5496
27.0093
26.3359
25.6112
24.8836
24.1635
23.4242
22.6078
21.6355
20.4196
18.8775
16.9439
14.581
11.7845
8.58589
5.04996
1.26837
-2.64922
-6.5858
-10.4276
-14.0733
-17.4415
-20.4741
-23.1376
-25.4213
-27.3322
-28.8904
-30.1221
-31.0547
-31.7114
-32.109
-32.256
-32.1534
-31.7958
-31.1741
-30.2781
-29.099
-27.6323
-25.8793
-23.8497
-21.5631
-19.0504
-16.3551
-13.5337
-10.6544
-7.79572
-5.04237
-2.48037
-0.191069
1.75535
3.30596
4.42991
5.12145
5.40028
5.30947
4.91079
4.27827
3.49065
2.62377
1.74369
0.901493
0.130227
-0.555754
-1.15899
-1.69502
-2.18699
-2.65947
-3.13239
-3.6159
-4.10707
-4.58868
-5.03068
-5.39381
-5.63516
-5.71468
-5.60172
-5.28057
-4.75398
-4.04403
-3.18989
-2.24276
-1.25841
-0.288421
0.628368
1.47303
2.25099
2.99303
3.75275
4.60082
5.61703
6.88101
8.4631
10.4161
12.7686
15.5211
18.6441
22.0785
25.7379
29.5131
33.2769
36.8897
40.2053
43.0775
45.3663
46.9448
47.7056
47.5683
46.4848
44.4449
41.4791
37.6598
33.0988
27.9423
22.3632
16.5497
10.6939
4.97839
-0.434691
-5.41163
-9.84875
-13.6652
-16.7845
-19.1028
-20.4452
-20.5123
-18.8246
-14.6752
-7.10554
5.08001
23.2434
48.7753
82.8877
126.348
179.183
240.398
307.763
377.737
445.562
505.567
551.674
578.06
579.892
554.045
499.685
418.614
315.306
196.617
71.1646
-51.5287
-162.044
-252.08
-315.357
-348.273
-350.252
-323.725
-273.767
-207.44
-132.928
-58.5875
7.96902
60.6547
95.4584
110.718
107.102
87.3206
55.6248
17.1678
-22.6812
-58.9866
-87.7814
-106.436
-113.832
-110.334
-97.5846
-78.1713
-55.2024
-31.8678
-11.0333
5.08439
15.1284
18.6842
16.2358
9.01389
-1.23432
-12.5176
-22.8763
-30.6278
-34.552
-34.0013
-28.9286
-19.8363
-7.66236
6.37766
20.9676
34.8632
47.0391
56.7938
63.8041
68.1271
70.1545
70.5314
70.0507
69.5424
69.7695
71.3454
74.6776
79.9444
87.1011
95.9119
105.998
116.898
128.122
139.206
149.747
159.428
168.023
175.393
181.464
186.201
189.583
191.575
192.105
191.055
188.258
183.516
176.623
167.405
155.766
141.728
125.473
107.361
87.9338
67.8919
48.0464
29.2537
12.3372
-1.99411
-13.2188
-21.0574
-25.5022
-26.8163
-25.503
-22.249
-17.8484
-13.117
-8.80852
-5.54112
-3.7435
-3.62586
-5.17743
-8.18935
-12.2985
-17.0449
-21.936
-26.5071
-30.3737
-33.2677
-35.0551
-35.7354
-35.4238
-34.3203
-32.6709
-30.7282
-28.7149
-26.7963
-25.0651
-23.5375
-22.1628
-20.8414
-19.449
-17.8625
-15.9834
-13.7553
-11.1739
-8.2878
-5.1916
-2.01239
1.10748
4.02865
6.63126
8.82756
10.5692
11.8486
12.6953
13.1675
13.3414
13.2992
13.1187
12.8641
12.5805
12.2912
11.9987
11.6879
11.3305
10.8913
10.3336
9.62374
8.73501
7.64969
6.35967
4.86578
3.17604
1.30334
-0.737155
-2.93025
-5.26238
-7.72235
-10.3011
-12.9906
-15.7816
-18.6609
-21.6077
-24.5898
-27.5593
-30.4493
-33.1718
-35.6177
-37.6606
-39.164
-39.9923
-40.0248
-39.1708
-37.3846
-34.6775
-31.1243
-26.8638
-22.0919
-17.0475
-11.9926
-7.18893
-2.87411
0.760749
3.58782
5.55261
6.67571
7.04636
6.80873
6.14293
5.2434
4.29727
3.46542
2.86823
2.57708
2.61213
2.94575
3.51067
4.21129
4.93662
5.57331
6.01753
6.18461
6.01584
5.48233
4.5857
3.35627
1.84904
0.138268
-1.68866
-3.53753
-5.31298
-6.92326
-8.28365
-9.31844
-9.96154
-10.156
-9.85293
-9.01061
-7.59428
-5.57757
-2.9459
0.297925
4.12646
8.47951
13.2569
18.3141
23.4614
28.4701
33.0839
37.0366
40.0743
41.9797
42.5955
41.8441
39.7402
36.3947
32.0086
26.8567
21.2641
15.5765
10.1292
5.21725
1.07203
-2.15435
-4.39338
-5.65191
-5.99043
-5.48751
-4.19153
-2.0624
1.09145
5.67205
12.3343
21.9959
35.799
55.0071
80.8324
114.197
155.453
204.094
258.523
315.926
372.306
422.714
461.683
483.817
484.488
460.527
410.806
336.625
241.803
132.458
16.4732
-97.2881
-199.921
-283.456
-341.735
-371.083
-370.683
-342.609
-291.518
-224.055
-148.043
-71.5803
-2.14078
54.1926
93.292
113.282
114.557
99.5282
72.1655
37.3877
0.400795
-33.9384
-61.657
-80.0435
-87.8373
-85.2244
-73.6582
-55.545
-33.844
-11.6412
8.24904
23.6076
33.0275
36.0072
32.9216
24.886
13.5424
0.801168
-11.4245
-21.4563
-28.0352
-30.4333
-28.4872
-22.5568
-13.4218
-2.13595
10.1374
22.2867
33.3887
42.8059
50.2367
55.7166
59.5765
62.3677
64.7678
67.4812
71.147
76.2655
83.1479
91.8951
102.401
114.38
127.407
140.976
154.549
167.609
179.705
190.479
199.679
207.162
212.877
216.837
219.084
219.654
218.542
215.679
210.929
204.096
194.963
183.336
169.103
152.292
133.118
112.005
89.5786
66.6376
44.0836
22.839
3.75381
-12.4835
-25.4171
-34.8677
-40.9421
-44.0084
-44.6393
-43.5343
-41.4288
-39.0066
-36.8232
-35.2529
-34.4629
-34.4174
-34.9077
-35.6041
-36.1189
-36.0731
-35.1555
-33.1686
-30.0548
-25.9009
-20.9223
-15.4311
-9.7921
-4.37544
0.488965
4.54806
7.64966
9.7515
10.9152
11.2874
11.0713
10.4939
9.77302
9.08882
8.56355
8.25106
8.137
8.14879
8.17321
8.07882
7.73985
7.05812
5.98
4.5062
2.69281
0.643752
-1.50431
-3.6023
-5.51088
-7.12103
-8.36954
-9.24689
-9.79623
-10.1036
-10.2811
-10.4461
-10.6995
-11.1071
-11.6869
-12.4048
-13.1778
-13.8864
-14.3919
-14.5573
-14.2676
-13.4484
-12.0771
-10.1885
-7.87231
-5.26344
-2.52684
0.161121
2.6324
4.74546
6.39982
7.54533
8.18511
8.37229
8.20092
7.79255
7.27987
6.78968
6.42673
6.26042
6.31562
6.56851
6.94795
7.34215
7.61005
7.59633
7.14848
6.13429
4.45782
2.07211
-1.01294
-4.72839
-8.95015
-13.5085
-18.2022
-22.8144
-27.1306
-30.9531
-34.1148
-36.4868
-37.9838
-38.5646
-38.2305
-37.0222
-35.0147
-32.3131
-29.0473
-25.3663
-21.432
-17.4122
-13.4718
-9.76426
-6.42179
-3.54633
-1.20191
0.590755
1.85666
2.66505
3.12417
3.37209
3.56458
3.86082
4.40845
5.32954
6.70877
8.58536
10.9494
13.7431
16.8664
20.1866
23.5508
26.7989
29.7766
32.3474
34.4007
35.8574
36.6715
36.8278
36.337
35.228
33.5404
31.316
28.5944
25.41
21.7945
17.782
13.4177
8.76784
3.92806
-0.97076
-5.76192
-10.2481
-14.212
-17.4306
-19.6904
-20.7988
-20.5881
-18.9084
-15.6051
-10.4841
-3.26546
6.46502
19.2956
36.0036
57.529
84.8918
119.045
160.664
209.894
266.085
327.564
391.512
453.975
510.07
554.379
581.517
586.792
566.891
520.472
448.562
354.685
244.677
126.193
7.95777
-101.15
-193.054
-261.362
-302.052
-313.866
-298.384
-259.759
-204.159
-139.002
-72.0751
-10.6646
39.2097
73.3621
89.7567
88.5501
71.8761
43.4176
7.8339
-29.8752
-64.9874
-93.5849
-112.935
-121.694
-119.921
-108.923
-90.9688
-68.9045
-45.7486
-24.3004
-6.81751
5.20735
11.152
11.2518
6.48227
-1.63983
-11.3012
-20.6498
-28.0309
-32.1746
-32.3166
-28.2433
-20.2638
-9.12033
4.14659
18.3548
32.3385
45.0872
55.8506
64.2008
70.0474
73.6117
75.3655
75.9481
76.0728
76.4369
77.644
80.1472
84.2154
89.9241
97.1681
105.69
115.123
125.034
134.973
144.51
153.272
160.96
167.362
172.345
175.847
177.853
178.373
177.411
174.952
170.948
165.315
157.951
148.758
137.682
124.748
110.096
94.007
76.9115
59.3748
42.0645
25.6985
10.9796
-1.47306
-11.1889
-17.8964
-21.5533
-22.352
-20.6986
-17.1687
-12.4459
-7.24947
-2.2614
1.93936
4.92753
6.46216
6.49468
5.15496
2.71842
-0.440437
-3.90161
-7.25328
-10.1394
-12.2959
-13.5722
-13.937
-13.4692
-12.3356
-10.7608
-8.99267
-7.2683
-5.7852
-4.68014
-4.01788
-3.79045
-3.92573
-4.30366
-4.77705
-5.19404
-5.41901
-5.34941
-4.92669
-4.14043
-3.02586
-1.65564
-0.127727
1.44889
2.96822
4.33939
5.49542
6.39769
7.03629
7.4264
7.60187
7.60725
7.48947
7.29047
7.04179
6.76149
6.45375
6.11075
5.71633
5.25063
4.69477
4.03502
3.26562
2.39002
1.42059
0.376749
-0.717809
-1.83843
-2.96277
-4.07352
-5.16035
-6.22077
-7.25994
-8.2895
-9.32536
-10.3847
-11.4821
-12.6259
-13.8139
-15.0303
-16.2439
-17.4083
-18.4637
-19.3417
-19.9712
-20.2854
-20.2299
-19.7689
-18.8904
-17.6093
-15.9677
-14.0323
-11.89
-9.64138
-7.3924
-5.24646
-3.29635
-1.61739
-0.262304
0.741763
1.39385
1.7175
1.75695
1.57185
1.23096
0.805572
0.363233
-0.0375967
-0.351678
-0.549604
-0.618832
-0.563146
-0.400725
-0.161027
0.119183
0.400288
0.644347
0.819265
0.9022
0.881859
0.759453
0.548223
0.271654
-0.0393019
-0.349462
-0.622481
-0.823075
-0.917911
-0.874936
-0.661339
-0.240708
0.429685
1.40039
2.72901
4.47641
6.6996
9.44189
12.7214
16.52
20.7749
25.374
30.1583
34.9293
39.4628
43.5257
46.8952
49.3767
50.8193
51.1268
50.2638
48.2558
45.1858
41.1853
36.4236
31.095
25.4049
19.5575
13.7446
8.13797
2.88666
-1.87758
-6.02603
-9.40728
-11.8105
-12.9196
-12.2647
-9.17837
-2.77096
8.06147
24.5808
48.0909
79.7568
120.367
170.063
228.067
292.464
360.098
426.62
486.73
534.618
564.57
571.664
552.483
505.708
432.519
336.7
224.424
103.724
-16.2973
-126.421
-218.301
-285.368
-323.526
-331.555
-311.166
-266.727
-204.68
-132.746
-59.0236
8.90829
64.7775
104.2
125.003
127.273
113.131
86.2977
51.5045
13.8448
-21.8611
-51.6054
-72.5831
-83.3997
-84.0865
-75.9407
-61.2259
-42.7824
-23.6041
-6.43759
6.54864
13.9903
15.4295
11.2927
2.75728
-8.46403
-20.3882
-31.0365
-38.6846
-42.0584
-40.4561
-33.7891
-22.5424
-7.66957
9.56184
27.7483
45.5293
61.7442
75.5513
86.4964
94.529
99.968
103.426
105.708
107.691
110.212
113.969
119.444
126.869
136.21
147.2
159.387
172.197
185.012
197.241
208.373
218.019
225.929
231.982
236.164
238.526
239.142
238.059
235.271
230.695
224.18
215.526
204.524
191.014
174.942
156.409
135.712
113.356
90.0427
66.6261
44.0469
23.2473
5.08036
-9.77599
-20.888
-28.1094
-31.5926
-31.7679
-29.2912
-24.9699
-19.6736
-14.2433
-9.40832
-5.72023
-3.51202
-2.88429
-3.71911
-5.71769
-8.45566
-11.4481
-14.2157
-16.3439
-17.5293
-17.6074
-16.5618
-14.5139
-11.6971
-8.41952
-5.02114
-1.83088
0.870877
2.88049
4.08724
4.47675
4.12249
3.16758
1.80015
0.22607
-1.35728
-2.78304
-3.93024
-4.73148
-5.1727
-5.28598
-5.13734
-4.81158
-4.39672
-3.97021
-3.58866
-3.2821
-3.05304
-2.87993
-2.72387
-2.53729
-2.27296
-1.89208
-1.37017
-0.700273
0.106757
1.0246
2.01572
3.0367
4.04367
4.99701
5.86476
6.62428
7.26226
7.77325
8.1572
8.41663
8.55402
8.56999
8.46251
8.22738
7.85965
7.35577
6.71576
5.94516
5.05603
4.06686
3.00128
1.8857
0.746274
-0.394334
-1.51965
-2.62116
-3.69862
-4.75877
-5.81256
-6.87122
-7.94169
-9.02221
-10.0988
-11.1431
-12.1125
-12.9522
-13.6001
-13.9924
-14.0717
-13.7943
-13.1379
-12.1063
-10.7324
-9.078
-7.22951
-5.29159
-3.3777
-1.59968
-0.0571272
1.17197
2.03827
2.52504
2.64848
2.45457
2.01286
1.40803
0.730326
0.0659579
-0.511347
-0.946816
-1.20848
-1.28816
-1.19973
-0.975035
-0.658157
-0.298886
0.0538531
0.357832
0.58204
0.709543
0.738542
0.681674
0.563814
0.41871
0.284924
0.201527
0.204012
0.320794
0.570549
0.960559
1.48611
2.13092
2.86856
3.66466
4.4797
5.27221
6.00204
6.63341
7.13749
7.49428
7.69357
7.73495
7.62691
7.38506
7.02986
6.58417
6.07091
5.51128
4.92363
4.32336
3.72361
3.13721
2.57987
2.07586
1.66722
1.42865
1.48982
2.06602
3.49626
6.2847
11.1375
18.9832
30.9609
48.3613
72.5064
104.564
145.302
194.815
252.247
315.583
381.55
445.69
502.624
546.515
571.686
573.331
548.222
495.29
416.006
314.463
197.134
72.316
-50.6801
-162.501
-254.755
-320.92
-357.04
-362.112
-338.139
-289.815
-223.925
-148.519
-71.9756
-2.08009
54.7789
94.2034
114.109
114.759
98.5214
69.4063
32.4453
-6.9902
-43.8502
-73.9672
-94.4582
-103.934
-102.505
-91.6114
-73.6975
-51.8046
-29.1275
-8.59702
7.46207
17.5631
21.1622
18.6337
11.1335
0.376943
-11.6315
-22.8799
-31.6034
-36.4856
-36.7827
-32.3665
-23.6848
-11.6545
2.49493
17.4031
31.7609
44.4706
54.7669
62.2864
67.0826
69.5874
70.5308
70.8291
71.4604
73.3408
77.2184
83.5937
92.6744
104.367
118.302
133.888
150.38
166.97
182.861
197.339
209.835
219.949
227.467
232.343
234.669
234.629
232.447
228.334
222.449
214.87
205.594
194.549
181.635
166.773
149.963
131.335
111.187
89.9945
68.3993
47.1627
27.1014
9.00712
-6.43656
-18.728
-27.6024
-33.0592
-35.3592
-34.9915
-32.6146
-28.9811
-24.8539
-20.9262
-17.7542
-15.7094
-14.9561
-15.4548
-16.989
-19.2105
-21.6966
-24.0113
-25.762
-26.6454
-26.4786
-25.2119
-22.9233
-19.7985
-16.0985
-12.1222
-8.16719
-4.49579
-1.30895
1.26884
3.19312
4.4923
5.25203
5.59418
5.65384
5.55783
5.40742
5.26708
5.16028
5.07185
4.95613
4.74877
4.38044
3.78996
2.93534
1.80116
0.401764
-1.21983
-2.99669
-4.84541
-6.67492
-8.39548
-9.92662
-11.2033
-12.1796
-12.8302
-13.1499
-13.1504
-12.8573
-12.3061
-11.5376
-10.595
-9.52059
-8.35366
-7.12951
-5.87871
-4.6272
-3.39686
-2.20627
-1.07164
-0.00774299
0.971524
1.8528
2.62348
3.27236
3.79074
4.1738
4.42198
4.54205
4.54759
4.45857
4.29985
4.09861
3.88102
3.66842
3.47383
3.29916
3.1339
2.95557
2.73189
2.42462
1.99425
1.405
0.629241
-0.349308
-1.53369
-2.91315
-4.46336
-6.14693
-7.9138
-9.70145
-11.4353
-13.0302
-14.3931
-15.4282
-16.0437
-16.161
-15.7233
-14.7041
-13.1134
-11.0003
-8.45192
-5.5876
-2.54945
0.509879
3.44096
6.11111
8.41628
10.2899
11.7079
12.6891
13.292
13.6064
13.7441
13.8261
13.9706
14.2811
14.8368
15.6851
16.8375
18.2684
19.9171
21.6924
23.4797
25.1491
26.5655
27.598
28.1297
28.0654
27.3392
25.9181
23.8046
21.0359
17.682
13.8412
9.6351
5.2028
0.695171
-3.73101
-7.91847
-11.7143
-14.9738
-17.5617
-19.3498
-20.2083
-19.9881
-18.4934
-15.4458
-10.443
-2.92107
7.8654
22.8316
43.0016
69.3872
102.804
143.639
191.593
245.449
302.917
360.601
414.147
458.561
488.707
499.914
488.62
452.96
393.196
311.913
213.93
105.926
-4.19762
-108.12
-197.994
-267.293
-311.511
-328.629
-319.277
-286.594
-235.802
-173.546
-107.112
-43.5974
10.8407
51.5912
75.9714
83.3621
75.0931
54.1123
24.494
-9.14118
-42.218
-70.7375
-91.6888
-103.303
-105.132
-97.9627
-83.5858
-64.4708
-43.3886
-23.036
-5.70922
6.94047
14.0451
15.5467
12.1205
5.0139
-4.16921
-13.7073
-21.9903
-27.7116
-30.0027
-28.5005
-23.3426
-15.1023
-4.67288
6.87613
18.453
29.086
38.0389
44.886
49.5427
52.2506
53.5227
54.059
54.6448
56.0459
58.9129
63.7062
70.6492
79.714
90.6383
102.97
116.129
129.487
142.434
154.448
165.142
174.282
181.794
187.732
192.243
195.505
197.677
198.844
198.981
197.936
195.441
191.138
184.636
175.58
163.719
148.976
131.49
111.645
90.0505
67.5047
44.9209
23.2417
3.34565
-14.0389
-28.4011
-39.4889
-47.3182
-52.1523
-54.4543
-54.82
-53.9018
-52.3326
-50.6596
-49.2941
-48.4832
-48.3033
-48.6755
-49.3976
-50.1877
-50.7333
-50.7381
-49.9622
-48.2511
-45.551
-41.9095
-37.4649
-32.4244
-27.0371
-21.5638
-16.2498
-11.3007
-6.86655
-3.03345
0.176625
2.79857
4.91133
6.62138
8.04489
9.29071
10.4461
11.5667
12.6714
13.7429
14.7328
15.5709
16.1773
16.4749
16.402
15.9216
15.0279
13.7483
12.1405
10.2869
8.2848
6.23591
4.23531
2.36194
0.671541
-0.807085
-2.07227
-3.1463
-4.06956
-4.89295
-5.66979
-6.44806
-7.26429
-8.1393
-9.07643
-10.0621
-11.0682
-12.0566
-12.9833
-13.8044
-14.4799
-14.9783
-15.2784
-15.3707
-15.2575
-14.9505
-14.4691
-13.8371
-13.0792
-12.218
-11.2719
-10.2532
-9.16795
-8.01736
-6.79965
-5.5136
-4.16224
-2.75653
-1.31822
0.118701
1.50847
2.79597
3.92117
4.82481
5.45479
5.77222
5.75615
5.40648
4.74434
3.81027
2.66039
1.36134
-0.0152961
-1.39824
-2.72101
-3.92513
-4.96222
-5.79491
-6.39708
-6.75364
-6.86024
-6.72301
-6.3583
-5.79235
-5.06061
-4.20637
-3.27852
-2.32828
-1.4049
-0.550613
0.204731
0.848609
1.38957
1.85905
2.31066
2.81669
3.46186
4.33495
5.5189
7.08062
9.06159
11.4705
14.2786
17.4192
20.7909
24.2646
27.6941
30.9281
33.8238
36.2582
38.1371
39.4007
40.0231
40.0092
39.3866
38.1962
36.4828
34.2874
31.6425
28.5717
25.0937
21.2288
17.0081
12.4824
7.73029
2.8628
-1.97451
-6.60246
-10.81
-14.3546
-16.9578
-18.2942
-17.9713
-15.5026
-10.2764
-1.53087
11.6541
30.3331
55.6231
88.5736
129.975
180.118
238.53
303.731
373.075
442.709
507.723
562.491
601.2
618.522
610.326
574.346
510.688
422.072
313.763
193.169
69.1422
-48.9303
-152.134
-232.998
-286.301
-309.609
-303.483
-271.323
-218.889
-153.572
-83.4952
-16.5869
40.2766
81.9518
105.461
110.146
97.5325
70.9637
35.0392
-5.03595
-44.1178
-77.7201
-102.476
-116.424
-119.094
-111.407
-95.4192
-73.951
-50.1608
-27.1218
-7.45134
6.9655
15.1337
16.98
13.2664
5.40921
-4.76615
-15.2959
-24.3392
-30.3982
-32.4722
-30.1357
-23.5354
-13.3164
-0.49352
13.7107
28.0376
41.3503
52.7603
61.7094
68.0023
71.7897
73.5118
73.8117
73.4346
73.1267
73.5461
75.197
78.3908
83.2354
89.6522
97.411
106.179
115.571
125.2
134.713
143.818
152.288
159.96
166.714
172.45
177.059
180.398
182.278
182.455
180.649
176.567
169.943
160.593
148.459
133.654
116.492
97.4893
77.3468
56.9026
37.0624
18.7172
2.65541
-10.5166
-20.4362
-27.0198
-30.4662
-31.2283
-29.9567
-27.4213
-24.4236
-21.7079
-19.8835
-19.3676
-20.3524
-22.8016
-26.4732
-30.9646
-35.7738
-40.3671
-44.2458
-47.0034
-48.3675
-48.2225
-46.612
-43.7227
-39.8522
-35.3672
-30.6571
-26.089
-21.9694
-18.5167
-15.8466
-13.9708
-12.8083
-12.2063
-11.9674
-11.8786
-11.7395
-11.3845
-10.6988
-9.62496
-8.16277
-6.36078
-4.30363
-2.09651
0.150601
2.33681
4.38077
6.22693
7.84725
9.23911
10.42
11.4201
12.2742
13.0129
13.6554
14.2036
14.6382
14.9184
14.984
14.7609
14.1692
13.1335
11.5934
9.51389
6.89412
3.77307
0.231754
-3.60875
-7.59329
-11.5423
-15.2644
-18.5706
-21.2896
-23.2814
-24.4499
-24.7506
-24.1954
-22.8511
-20.8333
-18.2959
-15.4173
-12.3837
-9.37376
-6.5433
-4.01428
-1.86741
-0.139795
1.17267
2.10872
2.73215
3.12057
3.35414
3.50552
3.63243
3.7732
3.94588
4.1503
4.3725
4.59036
4.77919
4.91611
4.98241
4.96362
4.84738
4.62023
4.26438
3.75579
3.06488
2.16011
1.01457
-0.385709
-2.03301
-3.89088
-5.89033
-7.93074
-9.88589
-11.6149
-12.9768
-13.8469
-14.1323
-13.7855
-12.8122
-11.2737
-9.28255
-6.99171
-4.57933
-2.2301
-0.115927
1.62215
2.88885
3.64504
3.91273
3.77446
3.36703
2.87005
2.49001
2.44086
2.92256
4.09933
6.07978
8.90134
12.5208
16.8127
21.5765
26.5516
31.4391
35.9279
39.7222
42.5677
44.2723
44.7207
43.8809
41.8016
38.6028
34.4601
29.5858
24.2094
18.5601
12.8522
7.27715
1.99964
-2.83996
-7.11884
-10.721
-13.5232
-15.3775
-16.0906
-15.3988
-12.9399
-8.2237
-0.606601
10.7205
26.7187
48.4464
76.9515
113.102
157.363
209.538
268.522
332.11
396.921
458.492
511.566
550.559
570.193
566.182
535.906
478.942
397.371
295.782
180.954
61.2428
-54.2655
-156.725
-238.493
-293.97
-320.188
-317.098
-287.497
-236.633
-171.531
-100.146
-30.4426
30.4747
77.0787
105.911
115.796
107.777
84.7998
51.1941
12.0468
-27.4636
-62.6793
-89.9564
-106.988
-112.936
-108.374
-95.0593
-75.5957
-53.0174
-30.3704
-10.3348
5.06717
14.6507
18.1244
16.029
9.57845
0.433416
-9.55744
-18.6128
-25.2385
-28.3889
-27.5534
-22.767
-14.5493
-3.78764
8.41563
20.9085
32.6449
42.8106
50.9071
56.7849
60.6273
62.8917
64.2196
65.3313
66.9197
69.5593
73.6404
79.3344
86.5939
95.1813
104.721
114.765
124.856
134.589
143.653
151.846
159.081
165.354
170.712
175.205
178.84
181.543
183.141
183.36
181.844
178.198
172.046
163.096
151.204
136.429
119.064
99.6438
78.9205
57.8062
37.295
18.3677
1.89353
-11.4584
-21.2868
-27.4959
-30.2976
-30.1796
-27.8421
-24.1134
-19.8543
-15.8631
-12.7946
-11.1
-10.9951
-12.4589
-15.2596
-19.0048
-23.2057
-27.3477
-30.9572
-33.657
-35.2043
-35.5073
-34.6218
-32.7287
-30.0978
-27.045
-23.887
-20.9016
-18.2977
-16.1967
-14.629
-13.5414
-12.8161
-12.295
-11.8075
-11.1961
-10.3379
-9.15845
-7.63752
-5.80704
-3.74171
-1.54488
0.668228
2.78713
4.72052
6.40655
7.81811
8.96277
9.87778
10.6213
11.2613
11.8638
12.4813
13.1449
13.8581
14.5953
15.3042
15.9117
16.3323
16.4784
16.2717
15.6521
14.5866
13.0734
11.1433
8.85748
6.30105
3.57459
0.783864
-1.97075
-4.60358
-7.05074
-9.27386
-11.2603
-13.0196
-14.5774
-15.9668
-17.2202
-18.3604
-19.3954
-20.3151
-21.0909
-21.6802
-22.0315
-22.0931
-21.8212
-21.1874
-20.1846
-18.8305
-17.1671
-15.2583
-13.1842
-11.0344
-8.90029
-6.86715
-5.00788
-3.37794
-2.01246
-0.925457
-0.111086
0.453449
0.803722
0.983225
1.03837
1.01379
0.948426
0.872602
0.806297
0.75872
0.729099
0.708569
0.68291
0.635809
0.552249
0.421582
0.239894
0.0113141
-0.251912
-0.53061
-0.800949
-1.03748
-1.21646
-1.319
-1.33349
-1.2568
-1.09411
-0.857005
-0.56025
-0.21733
0.16439
0.58823
1.07163
1.64778
2.36489
3.28312
4.46916
5.98913
7.90046
10.2437
13.0349
16.2599
19.87
23.781
27.8742
32.0007
35.9885
39.651
42.7984
45.2494
46.8443
47.4563
47.0022
45.4501
42.8236
39.2017
34.7146
29.535
23.8654
17.9239
11.9295
6.08886
0.588235
-4.40753
-8.74657
-12.2703
-14.7825
-16.0082
-15.5483
-12.8365
-7.1089
2.5972
17.4043
38.5
66.9823
103.647
148.735
201.679
260.881
323.597
385.947
443.119
489.75
520.466
530.533
516.516
476.863
412.305
326
223.379
111.695
-0.684089
-105.143
-193.744
-260.084
-299.98
-311.883
-296.981
-258.989
-203.638
-137.97
-69.4979
-5.37162
48.3765
87.4008
109.379
114.088
103.232
80.055
48.8126
14.171
-19.3855
-48.066
-69.1494
-81.1914
-84.0528
-78.7635
-67.2544
-52.0038
-35.6533
-20.6421
-8.90728
-1.68012
0.604492
-1.71482
-7.6478
-15.7477
-24.3474
-31.8015
-36.7029
-38.0484
-35.336
-28.5902
-18.3158
-5.39602
9.04902
23.8209
37.797
50.0617
60.0002
67.347
72.1874
74.9172
76.1676
76.7105
77.3546
78.8465
81.7887
86.58
93.3846
102.129
112.528
124.126
136.356
148.605
160.278
170.847
179.895
187.14
192.436
195.765
197.208
196.908
195.033
191.731
187.107
181.196
173.968
165.335
155.183
143.415
129.992
114.978
98.5699
81.1103
63.081
45.0726
27.7368
11.7263
-2.37025
-14.0881
-23.1346
-29.4176
-33.052
-34.3424
-33.746
-31.8189
-29.1551
-26.3233
-23.8112
-21.9821
-21.0489
-21.0665
-21.9438
-23.4704
-25.3552
-27.2711
-28.8991
-29.9681
-30.2853
-29.754
-28.3792
-26.2598
-23.5711
-20.5387
-17.4097
-14.4225
-11.781
-9.63421
-8.06423
-7.08259
-6.63528
-6.61478
-6.8773
-7.2628
-7.6151
-7.79986
-7.71833
-7.31563
-6.58288
-5.5535
-4.29463
-2.8951
-1.45191
-0.0570937
1.21338
2.30728
3.19985
3.89334
4.41299
4.80023
5.10442
5.37439
5.65082
5.9606
6.31354
6.70193
7.10249
7.48059
7.79586
8.00838
8.08472
8.00294
7.75594
7.35277
6.81777
6.18768
5.50712
4.82307
4.17911
3.61017
3.13842
2.77087
2.4989
2.29979
2.13987
1.97897
1.77515
1.48931
1.08852
0.547931
-0.149187
-1.01293
-2.04925
-3.26265
-4.65819
-6.24186
-8.01889
-9.98983
-12.1447
-14.456
-16.8727
-19.3151
-21.6742
-23.8146
-25.5833
-26.8231
-27.3887
-27.1661
-26.0889
-24.1526
-21.4221
-18.0311
-14.174
-10.0897
-6.03964
-2.28189
0.954267
3.4914
5.22105
6.11305
6.21599
5.64886
4.58502
3.23082
1.8014
0.49676
-0.519017
-1.13329
-1.29343
-1.00798
-0.340645
0.601709
1.68511
2.76653
3.71152
4.40938
4.78415
4.80044
4.46369
3.81541
2.92437
1.8754
0.757724
-0.345238
-1.3629
-2.24032
-2.93634
-3.41792
-3.65197
-3.59708
-3.19741
-2.38123
-1.0653
0.834303
3.38601
6.62337
10.5257
15.0027
19.8858
24.9301
29.8276
34.231
37.7863
40.1703
41.1275
40.5033
38.266
34.5172
29.4874
23.5179
17.0306
10.4914
4.3695
-0.897842
-4.93273
-7.42929
-8.14915
-6.89871
-3.49005
2.30912
10.8276
22.5328
38.0486
58.1337
83.6076
115.218
153.452
198.309
249.066
304.079
360.671
415.158
463.041
499.381
519.318
518.69
494.662
446.261
374.735
283.641
178.657
67.0908
-42.8362
-142.855
-225.543
-285.138
-318.153
-323.715
-303.605
-261.965
-204.763
-139.045
-72.1195
-10.7401
39.587
75.1084
94.0872
96.8113
85.3649
63.2079
34.6324
4.1705
-23.9695
-46.3721
-60.7417
-66.0601
-62.5724
-51.6198
-35.355
-16.3872
2.59249
19.1567
31.4186
38.213
39.1683
34.6734
25.7521
13.8734
0.725365
-12.0135
-22.8775
-30.7685
-35.0484
-35.564
-32.6087
-26.8329
-19.1191
-10.443
-1.73766
6.22072
12.8942
18.0249
21.6365
23.9996
25.5709
26.9154
28.6249
31.2419
35.1984
40.7736
48.0725
57.0253
67.4048
78.8566
90.9384
103.162
115.038
126.109
135.982
144.35
150.995
155.794
158.696
159.714
158.89
156.283
151.943
145.906
138.198
128.848
117.911
105.5
91.8037
77.1123
61.8149
46.3879
31.3639
17.288
4.66662
-6.08438
-14.683
-21.0106
-25.1227
-27.2394
-27.7157
-26.9986
-25.573
-23.9068
-22.4011
-21.3503
-20.9192
-21.1367
-21.9068
-23.0346
-24.2627
-25.3127
-25.9257
-25.8981
-25.1065
-23.5209
-21.2046
-18.3018
-15.0162
-11.5832
-8.24054
-5.20001
-2.62563
-0.618814
0.787335
1.62477
1.97954
1.97504
1.75223
1.44939
1.18422
1.04031
1.05934
1.23963
1.54067
1.89258
2.20906
2.4016
2.39328
2.13004
1.58806
0.776391
-0.265493
-1.47455
-2.77421
-4.08581
-5.33938
-6.48183
-7.48132
-8.32708
-9.02496
-9.58992
-10.037
-10.3728
-10.589
-10.6602
-10.5448
-10.1916
-9.5483
-8.57237
-7.24149
-5.56202
-3.57378
-1.3503
1.0059
3.37236
5.61878
7.62079
9.27307
10.5003
11.2645
11.5671
11.447
10.9735
10.2357
9.33061
8.3508
7.37324
6.45146
5.61135
4.85101
4.14457
3.44894
2.7126
1.88485
0.92434
-0.194203
-1.47588
-2.90442
-4.44369
-6.04157
-7.6353
-9.15759
-10.5425
-11.7309
-12.6741
-13.3367
-13.6979
-13.7512
-13.5034
-12.9731
-12.1888
-11.1869
-10.01
-8.70503
-7.32217
-5.91281
-4.528
-3.21648
-2.02249
-0.983421
-0.127684
0.527155
0.975565
1.22439
1.29222
1.2077
1.007
0.730576
0.419615
0.11253
-0.158162
-0.368215
-0.503071
-0.558209
-0.538449
-0.456342
-0.329898
-0.179945
-0.027444
0.108927
0.214682
0.28076
0.304015
0.287011
0.23722
0.165811
0.0862265
0.0127502
-0.0407595
-0.0618313
-0.0399622
0.0331956
0.163989
0.357154
0.616284
0.944227
1.34325
1.81487
2.35929
2.97453
3.65537
4.39231
5.17076
5.97084
6.76779
7.53311
8.23649
8.8482
9.34183
9.697
9.90184
9.95498
9.86715
9.66247
9.37996
9.07621
8.83015
8.75143
8.99338
9.77167
11.3884
14.2606
18.9481
26.1762
36.8397
51.9793
72.713
100.116
135.04
177.891
228.379
285.281
346.284
407.938
465.783
514.659
549.199
564.45
556.539
523.3
464.742
383.273
283.642
172.562
58.072
-51.2998
-147.448
-223.573
-274.903
-299.176
-296.816
-270.784
-226.148
-169.419
-107.751
-48.1244
3.41629
42.3492
66.0484
73.9037
67.1949
48.754
22.4735
-7.2646
-36.165
-60.5281
-77.6366
-85.9841
-85.3316
-76.6029
-61.6464
-42.9062
-23.0518
-4.61765
10.3047
20.2873
24.6815
23.623
17.9381
8.97194
-1.63189
-12.1669
-21.0836
-27.168
-29.659
-28.2974
-23.307
-15.3167
-5.24074
5.86462
16.9462
27.0832
35.5862
42.0561
46.4017
48.8177
49.7315
49.7292
49.4733
49.6224
50.7618
53.3525
57.6983
63.9333
72.025
81.792
92.9288
105.038
117.663
130.322
142.54
153.873
163.936
172.41
179.055
183.704
186.26
186.676
184.944
181.076
175.098
167.049
156.985
144.996
131.229
115.908
99.3498
81.9682
64.2648
46.801
30.1564
14.8781
1.42763
-9.86557
-18.8374
-25.5028
-30.0488
-32.8068
-34.2083
-34.7315
-34.8441
-34.9521
-35.3585
-36.2386
-37.6323
-39.4537
-41.5159
-43.5652
-45.3219
-46.52
-46.9422
-46.4461
-44.9789
-42.5801
-39.373
-35.546
-31.3281
-26.9614
-22.6744
-18.6582
-15.0507
-11.9276
-9.30161
-7.13018
-5.32837
-3.78598
-2.38585
-1.02093
0.391975
1.9033
3.52721
5.24334
7.00281
8.73713
10.3683
11.8186
13.0192
13.9158
14.4726
14.6737
14.5215
14.035
13.2462
12.1964
10.9327
9.50439
7.9601
6.34584
4.70329
3.06897
1.47403
-0.0553876
-1.4974
-2.8334
-4.0471
-5.12381
-6.05022
-6.8148
-7.40876
-7.82742
-8.07175
-8.14953
-8.07602
-7.87357
-7.57031
-7.19774
-6.78762
-6.36852
-5.96255
-5.58279
-5.23182
-4.90173
-4.57554
-4.22998
-3.83922
-3.37908
-2.83095
-2.18503
-1.4422
-0.614219
0.277721
1.20594
2.14002
3.05073
3.91318
4.70875
5.4252
6.05514
6.59316
7.03223
7.36034
7.55813
7.59843
7.44795
7.07122
6.43649
5.52241
4.32464
2.86108
1.17454
-0.667727
-2.57795
-4.45504
-6.19408
-7.69709
-8.88353
-9.69908
-10.1216
-10.1631
-9.86812
-9.30768
-8.57028
-7.75106
-6.94016
-6.21221
-5.6182
-5.18081
-4.89379
-4.72543
-4.62534
-4.53363
-4.39089
-4.1476
-3.77149
-3.25189
-2.6005
-1.84869
-1.04186
-0.231949
0.530554
1.2039
1.76051
2.18992
2.499
2.70979
2.8555
2.97563
3.11089
3.2988
3.57032
3.94782
4.44429
5.06362
5.80165
6.64775
7.58663
8.60025
9.66958
10.7759
11.9015
13.0291
14.1405
15.2138
16.2212
17.1256
17.8795
18.4255
18.6987
18.6319
18.1628
17.242
15.8412
13.9611
11.6359
8.93541
5.96328
2.85239
-0.242665
-3.15337
-5.70321
-7.70836
-8.97022
-9.25752
-8.27765
-5.63994
-0.817263
6.8838
18.3308
34.5365
56.5795
85.4675
121.944
166.254
217.901
275.431
336.301
396.882
452.622
498.389
528.985
539.753
527.225
489.701
427.664
343.959
243.674
133.739
22.2645
-82.2978
-172.057
-240.541
-283.392
-298.811
-287.698
-253.478
-201.637
-139.035
-73.0978
-10.9766
41.2075
78.957
99.763
103.216
90.8639
65.858
32.4382
-4.65923
-40.8004
-71.9826
-95.2369
-108.868
-112.518
-107.057
-94.344
-76.8848
-57.4487
-38.6923
-22.8368
-11.432
-5.23042
-4.17401
-7.48493
-13.839
-21.5914
-29.0217
-34.5654
-37.0043
-35.5956
-30.1296
-20.9155
-8.7023
5.44745
20.3138
34.6817
47.4905
57.9519
65.6257
70.4469
72.7043
72.9779
72.0457
70.7735
70.0034
70.4544
72.647
76.8576
83.1084
91.1878
100.699
111.125
121.902
132.493
142.441
151.415
159.225
165.812
171.23
175.592
179.027
181.625
183.391
184.221
183.89
182.068
178.363
172.372
163.755
152.301
137.993
121.05
101.936
81.3492
60.1649
39.3632
19.9323
2.76918
-11.4133
-22.1588
-29.3104
-33.0201
-33.7215
-32.0728
-28.876
-24.9839
-21.2073
-18.2317
-16.5547
-16.4496
-17.9565
-20.9012
-24.9371
-29.6015
-34.3811
-38.7757
-42.3538
-44.7942
-45.911
-45.6587
-44.1224
-41.493
-38.0338
-34.0431
-29.8183
-25.6238
-21.6685
-18.0921
-14.961
-12.2745
-9.97634
-7.97245
-6.14965
-4.3945
-2.60951
-0.725209
1.29276
3.4419
5.68605
7.9628
10.1937
12.2962
14.1945
15.8304
17.1693
18.2032
18.9495
19.4452
19.7378
19.8747
19.8921
19.8061
19.6069
19.2581
18.7002
17.8591
16.6576
15.0284
12.9258
10.3365
7.28425
3.83197
0.0772732
-3.85523
-7.82483
-11.687
-15.3053
-18.5616
-21.3633
-23.6472
-25.3801
-26.5566
-27.1944
-27.3294
-27.0099
-26.2918
-25.2349
-23.9005
-22.3494
-20.6416
-18.8352
-16.986
-15.1455
-13.3602
-11.6685
-10.0996
-8.67171
-7.39111
-6.25312
-5.24355
-4.34158
-3.52334
-2.7658
-2.05038
-1.36585
-0.710016
-0.0899695
0.479042
0.976039
1.37763
1.66173
1.81123
1.81706
1.68023
1.41272
1.03694
0.584054
0.0911811
-0.401977
-0.856837
-1.23948
-1.52371
-1.69327
-1.74311
-1.67946
-1.51881
-1.28577
-1.01025
-0.723983
-0.457081
-0.234769
-0.0748779
0.0137169
0.0315279
-0.012237
-0.101316
-0.21467
-0.329001
-0.421058
-0.469354
-0.454994
-0.361516
-0.173865
0.12319
0.546714
1.1168
1.85687
2.79277
3.95069
5.35411
7.02027
8.95684
11.1594
13.61
16.2781
19.1219
22.0919
25.1353
28.1996
31.2371
34.2069
37.0763
39.8194
42.4135
44.8332
47.0431
48.9898
50.5949
51.7514
52.3241
52.1562
51.0815
48.9425
45.6114
41.0124
35.1409
28.0775
19.994
11.1491
1.87459
-7.44642
-16.4073
-24.6061
-31.6693
-37.2663
-41.1102
-42.9415
-42.4959
-39.4599
-33.4216
-23.829
-9.97134
9.00096
34.0016
65.8718
105.183
151.998
205.622
264.393
325.565
385.336
439.056
481.609
507.965
513.807
496.176
454.005
388.478
303.107
203.526
96.9947
-8.33303
-104.273
-183.505
-240.375
-271.501
-276.101
-256.011
-215.399
-160.215
-97.4522
-34.3342
22.4908
67.6333
97.4583
110.342
106.675
88.6361
59.7745
24.4696
-12.6544
-47.2872
-75.8991
-96.0677
-106.638
-107.715
-100.501
-87.0218
-69.7786
-51.3823
-34.214
-20.1529
-10.3976
-5.39376
-4.8654
-7.93426
-13.3032
-19.4729
-24.9599
-28.4898
-29.1408
-26.4278
-20.3204
-11.2007
0.226538
13.056
26.316
39.0969
50.658
60.5017
68.4088
74.4349
78.8734
82.1913
84.951
87.7283
91.0372
95.2706
100.662
107.273
115
123.602
132.745
142.047
151.126
159.639
167.311
173.945
179.419
183.674
186.683
188.425
188.856
187.894
185.405
181.219
175.145
167.009
156.689
144.162
129.538
113.084
95.2267
76.5435
57.7216
39.5065
22.6359
7.77035
-4.57105
-14.061
-20.5943
-24.2937
-25.4907
-24.6845
-22.4838
-19.5399
-16.4779
-13.8362
-12.019
-11.2673
-11.6506
-13.079
-15.3313
-18.0966
-21.0211
-23.7559
-25.9986
-27.5259
-28.2124
-28.0359
-27.0701
-25.4656
-23.4243
-21.1695
-18.9169
-16.8491
-15.097
-13.7289
-12.7489
-12.1028
-11.6911
-11.3864
-11.0523
-10.5618
-9.81382
-8.7437
-7.3294
-5.59139
-3.58749
-1.4034
0.85943
3.09696
5.21502
7.13963
8.82397
10.2515
11.4351
12.4121
13.2372
13.973
14.6805
15.4099
16.1937
17.0422
17.942
18.8572
19.7336
20.5044
21.0976
21.4434
21.4808
21.1634
20.4637
19.3742
17.9076
16.0946
13.9794
11.6154
9.05924
6.36556
3.58239
0.747792
-2.11189
-4.9818
-7.85649
-10.7363
-13.6223
-16.5112
-19.3899
-22.2313
-24.9918
-27.6112
-30.0148
-32.1178
-33.832
-35.0736
-35.7712
-35.8734
-35.3543
-34.2169
-32.4942
-30.2467
-27.5579
-24.528
-21.2668
-17.8858
-14.4916
-11.1802
-8.03294
-5.11418
-2.47037
-0.130779
1.89091
3.59426
4.98939
6.09429
6.93222
7.5295
7.91351
8.11107
8.14701
8.04297
7.81643
7.47992
7.04069
6.50084
5.85803
5.10685
4.24071
3.25409
2.14483
0.916227
-0.421573
-1.85086
-3.34668
-4.87804
-6.40979
-7.90481
-9.32605
-10.6379
-11.8068
-12.8006
-13.5872
-14.1334
-14.4024
-14.3536
-13.942
-13.1196
-11.8383
-10.0534
-7.72868
-4.84137
-1.38755
2.61353
7.11608
12.046
17.301
22.7533
28.254
33.6403
38.7438
43.4004
47.4591
50.7911
53.2949
54.9003
55.5685
55.2898
54.0792
51.9714
49.0152
45.2702
40.8035
35.69
30.0129
23.8664
17.3597
10.6198
3.79631
-2.93413
-9.36122
-15.2313
-20.2325
-23.9746
-25.9626
-25.5697
-22.0135
-14.3504
-1.49834
17.6933
44.3185
79.2274
122.791
174.638
233.42
296.636
360.606
420.603
471.191
506.747
522.113
513.305
478.157
416.817
331.982
228.825
114.597
-2.05963
-112.002
-206.574
-278.559
-322.965
-337.554
-323.04
-282.933
-223.067
-150.872
-74.4913
-1.8587
60.1506
106.394
133.895
141.99
132.204
107.874
73.6008
34.5932
-3.99534
-37.6655
-63.0352
-78.1255
-82.4495
-76.9113
-63.546
-45.1447
-24.8247
-5.59941
9.99592
20.1828
24.0962
21.8114
14.2496
2.98452
-10.0144
-22.6668
-33.0533
-39.643
-41.4517
-38.1158
-29.8836
-17.5287
-2.20787
14.7165
31.8623
47.9975
62.1747
73.8157
82.742
89.15
93.5425
96.6278
99.2029
102.039
105.782
110.881
117.551
125.771
135.309
145.78
156.709
167.601
178.01
187.581
196.082
203.407
209.558
214.609
218.659
221.784
223.987
225.173
225.129
223.533
219.983
214.045
205.312
193.476
178.384
160.094
138.901
115.343
90.1676
64.2888
38.7078
14.4301
-7.62241
-26.6912
-42.2432
-54.0101
-61.9992
-66.4777
-67.9309
-67.0028
-64.4244
-60.939
-57.2321
-53.8741
-51.2791
-49.6837
-49.1468
-49.5675
-50.7185
-52.289
-53.9334
-55.3174
-56.1594
-56.2609
-55.5249
-53.9604
-51.6747
-48.8542
-45.7376
-42.5854
-39.6482
-37.1389
-35.2112
-33.9456
-33.345
-33.3394
-33.7979
-34.5467
-35.3908
-36.1356
-36.6071
-36.6676
-36.2252
-35.2373
-33.708
-31.6799
-29.2229
-26.4225
-23.368
-20.1437
-16.8231
-13.4669
-10.1234
-6.83205
-3.62697
-0.541377
2.38963
5.12766
7.63149
9.85918
11.7713
13.3348
14.5261
15.3341
15.7617
15.8248
15.5521
14.9817
14.1581
13.1289
11.9414
10.6395
9.26205
7.84113
6.40164
4.96127
3.53106
2.11625
0.717309
-0.668871
-2.04771
-3.42554
-4.80805
-6.19855
-7.596
-8.99306
-10.3741
-11.7137
-12.9758
-14.1144
-15.0748
-15.7973
-16.2224
-16.2966
-15.9793
-15.2497
-14.1121
-12.5993
-10.773
-8.72141
-6.55277
-4.3869
-2.34443
-0.535471
0.950997
2.05573
2.75467
3.06057
3.02053
2.70966
2.22185
1.65858
1.1173
0.680681
0.408111
0.330244
0.447211
0.730523
1.12826
1.57278
1.98991
2.30842
2.4687
2.4296
2.17288
1.70474
1.05459
0.271421
-0.581807
-1.43473
-2.21648
-2.86193
-3.31683
-3.54105
-3.50999
-3.21392
-2.65582
-1.84791
-0.807874
0.444837
1.89174
3.51675
5.30589
7.24547
9.31884
11.5025
13.7622
16.0498
18.3023
20.4425
22.3829
24.0313
25.2984
26.1065
26.3971
26.138
25.3276
23.9961
22.2038
20.0367
17.5992
15.0066
12.3767
9.82375
7.45612
5.37907
3.70593
2.57906
2.2021
2.88195
5.07635
9.43826
16.8438
28.3872
45.3258
68.9597
100.443
140.53
189.291
245.828
308.058
372.618
434.942
489.552
530.542
552.228
549.884
520.459
463.164
379.83
274.95
155.396
29.8031
-92.2907
-201.451
-289.372
-349.78
-379.105
-376.83
-345.477
-290.247
-218.354
-138.163
-58.2237
13.6557
71.2051
110.256
129.03
128.123
110.231
79.6395
41.5869
1.56575
-35.3377
-64.9933
-84.6103
-92.9228
-90.1748
-77.9255
-58.716
-35.6529
-11.966
9.40101
26.122
36.7079
40.6003
38.1392
30.4232
19.091
6.05842
-6.75009
-17.6425
-25.3447
-29.113
-28.7674
-24.6489
-17.5142
-8.38894
1.59931
11.3825
20.0894
27.1417
32.3032
35.6776
37.6623
38.8683
40.0181
41.8389
44.9634
49.8509
56.7371
65.6163
76.2549
88.2333
101.007
113.976
126.562
138.263
148.705
157.664
165.067
170.97
175.52
178.904
181.295
182.803
183.435
183.079
181.501
178.376
173.328
165.994
156.094
143.494
128.264
110.707
91.3652
70.9907
50.4883
30.8331
12.9746
-2.26188
-14.2627
-22.691
-27.5202
-29.0319
-27.7788
-24.516
-20.1119
-15.4485
-11.325
-8.37449
-7.00596
-7.37498
-9.38664
-12.7279
-16.9237
-21.4091
-25.6058
-28.9957
-31.1807
-31.923
-31.1634
-29.0148
-25.7366
-21.6923
-17.2987
-12.9726
-9.08281
-5.91227
-3.63431
-2.30443
-1.86709
-2.17507
-3.01775
-4.15361
-5.34271
-6.37502
-7.09161
-7.39697
-7.26193
-6.71814
-5.84573
-4.75658
-3.57601
-2.42521
-1.40658
-0.593568
-0.0254006
0.292984
0.386734
0.303605
0.104647
-0.145517
-0.387522
-0.574187
-0.674899
-0.677235
-0.585976
-0.419983
-0.207616
0.0185021
0.226638
0.390319
0.491471
0.522047
0.484121
0.388606
0.252934
0.0981204
-0.0543448
-0.185337
-0.28034
-0.330854
-0.334886
-0.296551
-0.224924
-0.132383
-0.032698
0.0608612
0.137156
0.18837
0.210655
0.204205
0.172815
0.123027
0.0630147
0.00138843
-0.0539401
-0.0966796
-0.122783
-0.130719
-0.121403
-0.0978249
-0.064451
-0.0265098
0.0107483
0.0427128
0.0659259
0.078396
0.0796926
0.070836
0.0540149
0.032188
0.00862977
-0.0135143
-0.0316095
-0.0438057
-0.0491708
-0.0476538
-0.0398428
-0.0264708
-0.00762851
0.0183266
0.056114
0.114981
0.210025
0.363094
0.60295
0.964469
1.4868
2.21057
3.1745
4.41189
5.94761
7.79611
9.96097
12.4359
15.2071
18.2565
21.5647
25.113
28.8839
32.8593
37.0163
41.3215
45.7237
50.1479
54.4888
58.6092
62.3395
65.4825
67.8227
69.1379
69.2164
67.8746
64.9772
60.4553
54.3219
46.6819
37.7353
27.7715
17.1555
6.3061
-4.33081
-14.3109
-23.2169
-30.6756
-36.3619
-39.9849
-41.2553
-39.8365
-35.2859
-26.9996
-14.1796
4.15878
29.1164
61.7665
102.935
152.921
211.2
276.154
344.901
413.285
476.07
527.348
561.145
572.155
556.497
512.387
440.608
344.686
230.723
106.884
-17.3997
-132.422
-229.259
-300.747
-342.26
-352.179
-332.003
-286.097
-221.108
-145.141
-66.8061
5.74544
65.6749
108.104
130.493
132.718
116.867
86.7928
47.5055
4.47892
-37.0261
-72.5498
-98.867
-114.228
-118.399
-112.51
-98.759
-80.012
-59.3638
-39.7204
-23.4479
-12.1284
-6.44087
-6.17019
-10.3293
-17.3683
-25.4357
-32.6522
-37.3629
-38.3371
-34.8965
-26.9611
-15.0163
-0.011721
16.7895
33.9872
50.2233
64.34
75.5016
83.2667
87.6078
88.8808
87.753
85.1012
81.8975
79.0934
77.5197
77.8083
80.3437
85.2463
92.3843
101.411
111.82
123.008
134.344
145.228
155.141
163.678
170.561
175.64
178.874
180.297
179.988
178.029
174.478
169.352
162.621
154.222
144.091
132.196
118.588
103.431
87.0305
69.8392
52.4405
35.5101
19.7598
5.86959
-5.58111
-14.1761
-19.7084
-22.2034
-21.9171
-19.3079
-14.9872
-9.65398
-4.0229
1.24669
5.61122
8.68709
10.2741
10.3572
9.08723
6.74555
3.69737
0.340416
-2.94473
-5.83685
-8.10485
-9.62463
-10.3814
-10.459
-10.0181
-9.26848
-8.43734
-7.73954
-7.35207
-7.39582
-7.9259
-8.93102
-10.341
-12.0407
-13.8884
-15.7357
-17.4458
-18.9091
-20.0531
-20.8471
-21.2994
-21.4507
-21.3625
-21.1042
-20.74
-20.3175
-19.8611
-19.3687
-18.8146
-18.1552
-17.3398
-16.3208
-15.0651
-13.5625
-11.8313
-9.91841
-7.89631
-5.85536
-3.89354
-2.10504
-0.569274
0.658089
1.55084
2.11402
2.38164
2.41078
2.27303
2.04457
1.7962
1.58487
1.44754
1.39827
1.42864
1.51125
1.60561
1.6655
1.64666
1.51373
1.24567
0.838863
0.307949
-0.315849
-0.988332
-1.65742
-2.26902
-2.77297
-3.12841
-3.30795
-3.30034
-3.11124
-2.76229
-2.28838
-1.73362
-1.14629
-0.573253
-0.0543221
0.382939
0.727414
0.987087
1.18964
1.38063
1.61919
1.97136
2.50192
3.26536
4.29752
5.60886
7.1807
8.96517
10.8891
12.8617
14.7851
16.5663
18.1291
19.4238
20.4338
21.178
21.708
22.101
22.4497
22.8498
23.3875
24.1284
25.1093
26.334
27.7719
29.3608
31.0111
32.6116
34.0354
35.1458
35.8027
35.8688
35.2174
33.7418
31.3648
28.0495
23.8086
18.7118
12.8885
6.52729
-0.130905
-6.80267
-13.1744
-18.9139
-23.6776
-27.11
-28.8337
-28.4266
-25.3906
-19.1165
-8.85361
6.29877
27.3636
55.4049
91.3823
135.941
189.156
250.256
317.391
387.487
456.262
518.426
568.099
599.408
607.195
587.765
539.524
463.438
363.186
244.987
117.081
-11.0673
-129.754
-230.086
-304.946
-349.762
-362.963
-346.087
-303.51
-241.869
-169.229
-94.1314
-24.6362
32.5271
72.5985
93.1549
94.179
77.8431
48.0558
9.84438
-31.3384
-70.2931
-102.658
-125.334
-136.721
-136.744
-126.693
-108.918
-86.4201
-62.4095
-39.8801
-21.2593
-8.16289
-1.27842
-0.376267
-4.4356
-11.8569
-20.7257
-29.0899
-35.2138
-37.7803
-36.0212
-29.7664
-19.4147
-5.83631
9.77208
26.0596
41.6958
55.526
66.6921
74.7063
79.475
81.2752
80.6912
78.5245
75.6891
73.1064
71.6114
71.8776
74.3668
79.304
86.6783
96.2635
107.656
120.322
133.653
147.016
159.806
171.479
181.591
189.805
195.9
199.758
201.346
200.687
197.835
192.846
185.767
176.631
165.47
152.341
137.358
120.725
102.763
83.9208
64.7706
45.9757
28.2424
12.2575
-1.38101
-12.2284
-20.0442
-24.8215
-26.7903
-26.3937
-24.2391
-21.0328
-17.5032
-14.3265
-12.06
-11.0936
-11.6238
-13.6505
-16.9978
-21.3526
-26.3156
-31.4567
-36.3684
-40.7093
-44.2345
-46.8092
-48.4071
-49.0948
-49.0061
-48.312
-47.1901
-45.7983
-44.2566
-42.6374
-40.9648
-39.2222
-37.3654
-35.3388
-33.0907
-30.5876
-27.823
-24.8221
-21.6406
-18.3593
-15.0745
-11.888
-8.89471
-6.17367
-3.7796
-1.73867
-0.047442
1.32463
2.42962
3.33321
4.10551
4.81162
5.50308
6.21138
6.94408
7.68424
8.39302
9.01532
9.48758
9.74684
9.73968
9.43009
8.80488
7.87621
6.68055
5.27452
3.72791
2.11514
0.506133
-1.04178
-2.48991
-3.82112
-5.0391
-6.16403
-7.22532
-8.25245
-9.26547
-10.2668
-11.2361
-12.1287
-12.8791
-13.4082
-13.6347
-13.4874
-12.9177
-11.9097
-10.4858
-8.70818
-6.67318
-4.50215
-2.32803
-0.280479
1.52861
3.01719
4.1413
4.89874
5.32796
5.50263
5.52312
5.50593
5.57249
5.83853
6.40481
7.34982
8.72469
10.5502
12.8153
15.4776
18.4639
21.672
24.9732
28.2151
31.2262
33.8228
35.817
37.0284
37.2976
36.5005
34.5628
31.4724
27.2881
22.1426
16.2394
9.84249
3.26054
-3.17486
-9.13259
-14.3049
-18.4253
-21.2765
-22.6844
-22.4945
-20.5295
-16.5318
-10.0977
-0.618481
12.7551
31.1015
55.6523
87.6361
128.044
177.334
235.108
299.828
368.625
437.286
500.441
551.989
585.726
596.109
579.049
532.619
457.552
357.433
238.531
109.276
-20.5707
-140.948
-242.593
-318.064
-362.548
-374.358
-355.05
-309.155
-243.577
-166.731
-87.5474
-14.4685
45.4458
87.1929
108.22
108.505
90.3374
57.8452
16.3536
-28.3461
-70.7124
-106.075
-131.09
-143.999
-144.661
-134.399
-115.675
-91.6652
-65.7888
-41.2596
-20.707
-5.91113
2.3291
4.19079
0.699938
-6.48971
-15.3748
-23.897
-30.2154
-32.9254
-31.2011
-24.8515
-14.2918
-0.440323
15.4374
31.9144
47.5917
61.2672
72.0673
79.5263
83.6113
84.6939
83.4768
80.8886
77.9609
75.7044
74.9974
76.4982
80.5897
87.3583
96.6079
107.901
120.624
134.059
147.467
160.152
171.522
181.125
188.66
193.975
197.045
197.929
196.738
193.59
188.581
181.768
173.169
162.78
150.603
136.684
121.155
104.264
86.3919
68.0535
49.8706
32.5299
16.7231
3.0787
-7.9045
-15.9142
-20.8631
-22.9026
-22.4109
-19.9546
-16.2298
-11.9886
-7.96195
-4.78579
-2.94121
-2.71427
-4.1796
-7.20861
-11.4999
-16.6267
-22.0953
-27.4053
-32.1059
-35.8411
-38.3788
-39.6231
-39.6092
-38.4824
-36.4677
-33.8327
-30.8502
-27.7658
-24.7721
-21.995
-19.4895
-17.2465
-15.2066
-13.2796
-11.3652
-9.37216
-7.23411
-4.9191
-2.43339
0.180814
2.85247
5.49211
8.00368
10.2961
12.2933
13.9411
15.2108
16.1002
16.6301
16.84
16.7812
16.5099
16.0798
15.5368
14.9138
14.2284
13.482
12.6614
11.741
10.6878
9.46584
8.04159
6.38869
4.49178
2.34905
-0.026585
-2.60766
-5.35346
-8.21199
-11.1224
-14.0175
-16.8256
-19.4729
-21.8853
-23.99
-25.7184
-27.0088
-27.8099
-28.0854
-27.8178
-27.0124
-25.6994
-23.9347
-21.7981
-19.389
-16.8198
-14.2074
-11.6643
-9.28948
-7.16022
-5.3267
-3.80877
-2.59596
-1.65027
-0.911412
-0.303598
0.256971
0.855035
1.57047
2.47427
3.62643
5.07522
6.8572
8.99693
11.5057
14.3789
17.5917
21.0937
24.8042
28.6075
32.3518
35.8518
38.8961
41.2595
42.7205
43.0813
42.1893
39.956
36.3728
31.519
25.5617
18.7477
11.3865
3.8278
-3.56495
-10.4402
-16.4809
-21.4185
-25.0374
-27.1649
-27.6474
-26.3121
-22.918
-17.1016
-8.32751
4.14382
21.2548
44.1
73.8132
111.387
157.433
211.904
273.822
341.065
410.27
410.27
410.27
410.27
410.27
410.27
410.27
410.27
410.27
410.27
410.27
410.27
410.27
410.27
410.27
410.27
410.27
410.27
410.27
