8.2445
-12.4553
-35.5837
-60.214
-85.1456
-109.001
-130.351
-147.856
-160.404
-167.221
-167.953
-162.698
-151.989
-136.731
-118.098
-97.4142
-76.0114
-55.1078
-35.7001
-18.4912
-3.85674
8.14778
17.7439
25.3585
31.5358
36.8439
41.7903
46.7538
51.9407
57.3691
62.879
68.1652
72.8266
76.4236
78.5366
78.8173
77.0285
73.0691
66.9827
58.9514
49.2759
38.3476
26.6135
14.5406
2.58107
-8.85766
-19.4364
-28.8995
-37.0821
-43.9092
-49.3875
-53.592
-56.6491
-58.7184
-59.9746
-60.5919
-60.7311
-60.5312
-60.104
-59.5327
-58.8735
-58.1587
-57.4005
-56.596
-55.7301
-54.779
-53.711
-52.4883
-51.067
-49.3988
-47.4327
-45.1196
-42.4174
-39.2984
-35.757
-31.8164
-27.534
-23.0028
-18.3499
-13.7285
-9.30796
-5.25875
-1.73729
1.12964
3.25778
4.61436
5.2216
5.15455
4.53322
3.51013
2.25468
0.936385
-0.291234
-1.30415
-2.01737
-2.38962
-2.42296
-2.15773
-1.66369
-1.02884
-0.347125
0.293112
0.818969
1.17997
1.35179
1.33678
1.1616
0.872804
0.53113
0.20524
-0.0344449
-0.121467
0.00161287
0.378983
1.03827
1.98833
3.2183
4.69801
6.37983
8.20157
10.0902
11.9658
13.7447
15.343
16.6776
17.668
18.2374
18.3135
17.831
16.7354
14.9882
12.5735
9.50591
5.83784
1.66539
-2.86898
-7.57811
-12.2373
-16.5969
-20.4004
-23.4063
-25.4108
-26.2705
-25.9203
-24.3842
-21.7785
-18.3038
-14.2289
-9.86656
-5.54362
-1.57024
1.7894
4.34092
5.9755
6.67607
6.51326
5.63223
4.23221
2.5414
0.790618
-0.811476
-2.09857
-2.96047
-3.34933
-3.27814
-2.81249
-2.05703
-1.13877
-0.189481
0.67058
1.34587
1.77437
1.93142
1.82853
1.50804
1.03446
0.484101
-0.0656832
-0.546161
-0.904827
-1.11015
-1.15323
-1.04642
-0.819493
-0.514031
-0.176949
0.145958
0.415624
0.603891
0.695895
0.690585
0.599606
0.444934
0.255792
0.0652922
-0.0928596
-0.187451
-0.192584
-0.0902024
0.127788
0.458014
0.885021
1.38182
1.91175
2.43169
2.89629
3.26294
3.49672
3.57482
3.48965
3.2502
2.8814
2.42143
1.91731
1.41942
0.975793
0.626968
0.402214
0.317731
0.377108
0.574198
0.898455
1.34282
1.91421
2.64676
3.61739
4.96335
6.9003
9.73901
13.8979
19.9078
28.4036
40.0988
55.736
76.0119
101.475
132.402
168.662
209.592
253.896
299.598
344.076
384.176
416.432
437.364
443.836
433.447
404.885
358.21
295.011
218.405
132.86
43.8459
-42.6488
-120.687
-184.977
-231.406
-257.469
-262.509
-247.769
-216.223
-172.227
-121.029
-68.1901
-19.0029
22.0372
51.6422
67.9856
70.7775
61.1665
41.4891
14.9082
-15.0083
-44.7173
-71.086
-91.6935
-105.021
-110.521
-108.565
-100.293
-87.3923
-71.8338
-55.6115
-40.5047
-27.8968
-18.6614
-13.1234
-11.0907
-11.9441
-14.7686
-18.5046
-22.0982
-24.6333
-25.4301
-24.1022
-20.5702
-15.0336
-7.91
0.24688
8.83881
17.3097
25.2169
32.279
38.3956
43.6397
48.2255
52.46
56.6859
61.2249
66.3298
72.1522
78.7271
85.9766
93.7293
101.751
109.779
117.562
124.883
131.586
137.584
142.855
147.432
151.386
154.805
157.769
160.332
162.509
164.265
165.512
166.11
165.876
164.594
162.032
157.958
152.168
144.507
134.899
123.371
110.074
95.2917
79.4403
63.0509
46.7383
31.1569
16.9466
4.67752
-5.20348
-12.4149
-16.8674
-18.6712
-18.1232
-15.6746
-11.8834
-7.35749
-2.69493
1.57226
5.02362
7.3812
8.52307
8.47895
7.40981
5.57489
3.29109
0.889809
-1.32331
-3.10144
-4.27919
-4.78324
-4.63073
-3.91712
-2.79578
-1.45281
-0.0806545
1.14631
2.09122
2.66753
2.8442
2.64341
2.13203
1.4084
0.586614
-0.219387
-0.910064
-1.41115
-1.68022
-1.70856
-1.5186
-1.15778
-0.689892
-0.18532
0.288506
0.675257
0.93559
1.05027
1.02044
0.865296
0.617743
0.318798
0.0115654
-0.264406
-0.477715
-0.60819
-0.648231
-0.602423
-0.485665
-0.320195
-0.132016
0.052778
0.211295
0.326373
0.3881
0.394154
0.348895
0.261132
0.140494
-0.00765624
-0.188762
-0.426859
-0.773015
-1.31329
-2.1744
-3.52501
-5.57031
-8.5386
-12.6595
-18.1355
-25.1095
-33.6337
-43.6442
-54.9467
-67.2167
-80.0158
-92.8235
-105.082
-116.247
-125.842
-133.505
-139.023
-142.351
-143.616
-143.09
-141.163
-138.291
-134.948
-131.572
-128.523
-126.051
-124.282
-123.217
-122.746
-122.674
-122.759
-122.742
-122.387
-121.505
-119.973
-117.737
-114.813
-111.266
-107.196
-102.71
-97.9025
-92.84
-87.5505
-82.0244
-76.2219
-70.0887
-63.5751
-56.6571
-49.3541
-41.7419
-33.9575
-26.1945
-18.6895
-11.7013
-5.48472
-0.263311
3.79581
6.60156
8.15022
8.52708
7.89809
6.49278
4.58058
2.44349
0.348557
-1.47668
-2.86311
-3.71136
-3.99478
-3.75421
-3.08581
-2.12388
-1.02105
0.0715538
1.02194
1.73076
2.13953
2.23307
2.03647
1.60762
1.02638
0.382474
-0.236734
-0.756688
-1.12347
-1.30817
-1.30756
-1.14094
-0.842819
-0.450674
0.013891
0.572271
1.32511
2.49605
4.47731
7.8667
13.4814
22.3314
35.5376
54.1857
79.1185
110.686
148.49
191.171
236.298
280.401
319.191
347.954
362.097
357.769
332.474
285.575
218.599
135.267
41.246
-56.3827
-149.861
-231.613
-295.105
-335.593
-350.662
-340.477
-307.723
-257.245
-195.431
-129.441
-66.3599
-12.4
27.7539
51.3876
57.9398
48.9161
27.5624
-1.65114
-33.6568
-63.4453
-86.6674
-100.111
-102.007
-92.1306
-71.7167
-43.1977
-9.82143
24.7988
57.1401
84.1762
103.688
114.45
116.28
109.965
97.0712
79.686
60.1261
40.6453
23.1839
9.18275
-0.522197
-5.72059
-6.77092
-4.48185
0.0469299
5.60008
11.0151
15.324
17.8543
18.2813
16.6309
13.2387
8.67479
3.64707
-1.10206
-4.89302
-7.18887
-7.6499
-6.15899
-2.81793
2.0818
8.10756
14.7452
21.4616
27.7622
33.2373
37.5919
40.6594
42.397
42.8683
42.2149
40.6251
38.3026
35.441
32.2067
28.7312
25.112
21.421
17.7154
14.0505
10.4887
7.10496
3.98607
1.22529
-1.08734
-2.87672
-4.09403
-4.72583
-4.79904
-4.38086
-3.57362
-2.505
-1.31519
-0.142587
0.890071
1.68727
2.18872
2.37294
2.25612
1.88688
1.33757
0.693656
0.0424395
-0.537389
-0.984203
-1.25905
-1.34802
-1.26135
-1.02969
-0.698209
-0.319545
0.05356
0.37485
0.609686
0.738186
0.756173
0.674019
0.513762
0.305033
0.0804377
-0.128948
-0.297405
-0.407305
-0.450513
-0.428413
-0.350717
-0.233323
-0.0956139
0.042407
0.162738
0.25139
0.299429
0.302624
0.259255
0.165673
0.00959212
-0.238296
-0.632886
-1.26117
-2.24409
-3.73158
-5.88949
-8.8792
-12.8322
-17.8235
-23.8492
-30.812
-38.5188
-46.6909
-54.9874
-63.0378
-70.4795
-76.9962
-82.3511
-86.4106
-89.1569
-90.6863
-91.1955
-90.9569
-90.2862
-89.507
-88.9161
-88.7537
-89.1806
-90.2665
-91.9885
-94.2393
-96.8461
-99.5938
-102.253
-104.606
-106.471
-107.716
-108.266
-108.098
-107.23
-105.7
-103.54
-100.765
-97.3498
-93.2334
-88.3254
-82.5277
-75.7632
-68.0072
-59.3154
-49.843
-39.8498
-29.689
-19.7811
-10.574
-2.49738
4.08523
8.91752
11.8803
13.0053
12.4716
10.5846
7.74144
4.38651
0.963788
-2.12864
-4.57614
-6.17338
-6.83584
-6.59683
-5.59124
-4.02914
-2.16312
-0.25384
1.46201
2.79764
3.6336
3.92552
3.70217
3.05536
2.12389
1.07448
0.0828178
-0.682682
-1.07252
-0.962585
-0.255985
1.11819
3.20714
6.03572
9.60552
13.8912
18.8347
24.3384
30.2592
36.4054
42.5371
48.3718
53.5942
57.8723
60.8761
62.3006
61.8916
59.4724
54.9687
48.431
40.0486
30.1529
19.2069
7.77995
-3.49223
-13.9586
-23.009
-30.1292
-34.9475
-37.2671
-37.0797
-34.5609
-30.0472
-23.9994
-16.9548
-9.47339
-2.07917
4.80094
10.9
16.1729
20.854
25.5015
31.0193
38.6427
49.8724
66.348
89.6543
121.067
161.257
209.999
265.917
326.344
387.342
443.909
490.401
521.117
531.003
516.361
475.476
409.043
320.321
214.966
100.555
-14.1627
-120.183
-209.229
-274.654
-312.167
-320.275
-300.39
-256.599
-195.129
-123.577
-50.018
17.9014
73.7765
113.062
133.436
134.879
119.479
91.0011
54.2964
14.6328
-22.9677
-54.3
-76.3952
-87.7502
-88.3558
-79.5385
-63.6524
-43.6745
-22.7616
-3.82901
10.7989
19.6286
22.1085
18.6083
10.2825
-1.15502
-13.7066
-25.3782
-34.4403
-39.6305
-40.2788
-36.3461
-28.3791
-17.3955
-4.72028
8.2027
19.998
29.5228
35.9906
39.0431
38.7653
35.6476
30.5007
24.3387
18.2436
13.2305
10.1285
9.49321
11.5583
16.2329
23.141
31.6969
41.2026
50.9544
60.3399
68.9142
76.4427
82.9064
88.4711
93.426
98.104
102.797
107.68
112.758
117.838
122.54
126.34
128.632
128.812
126.368
120.959
112.472
101.064
87.16
71.4241
54.7019
37.9404
22.0951
8.03731
-3.52914
-12.1316
-17.5657
-19.9031
-19.4694
-16.797
-12.5586
-7.49129
-2.31874
2.31858
5.91916
8.1569
8.89652
8.18797
6.2427
3.39581
0.0591572
-3.32907
-6.35322
-8.66302
-10.0067
-10.2521
-9.39391
-7.54775
-4.93163
-1.8375
1.40385
4.46042
7.03514
8.89632
9.89944
9.99797
9.24244
7.7684
5.77497
3.4973
1.17631
-0.97
-2.77021
-4.11503
-4.96328
-5.33798
-5.314
-4.99954
-4.51478
-3.97112
-3.45418
-3.01282
-2.65569
-2.35543
-2.05946
-1.70556
-1.23962
-0.632544
0.106329
0.921784
1.71257
2.33895
2.63714
2.43888
1.59351
-0.0101561
-2.4253
-5.63422
-9.54313
-13.9855
-18.7339
-23.5195
-28.0567
-32.0711
-35.3268
-37.6501
-38.9474
-39.2151
-38.5394
-37.0877
-35.0912
-32.8215
-30.5633
-28.586
-27.1182
-26.326
-26.2993
-27.0451
-28.4899
-30.4902
-32.8487
-35.3356
-37.7118
-39.752
-41.2653
-42.111
-42.2091
-41.5444
-40.1633
-38.1653
-35.6897
-32.8983
-29.9582
-27.0238
-24.2223
-21.6431
-19.3327
-17.295
-15.4974
-13.8808
-12.373
-10.9027
-9.41176
-7.86494
-6.25504
-4.60286
-2.95229
-1.36157
0.108079
1.40446
2.49532
3.37651
4.07634
4.65545
5.2026
5.82699
6.64885
7.78967
9.36376
11.472
14.1977
17.6044
21.7343
26.6055
32.209
38.5038
45.4116
52.8128
60.545
68.4055
76.1587
83.5485
90.3142
96.2094
101.019
104.578
106.781
107.586
107.021
105.17
102.162
98.1553
93.3194
87.8149
81.7815
75.3288
68.5351
61.4519
54.115
46.5581
38.8276
30.9953
23.1664
15.4815
8.11127
1.24472
-4.92792
-10.2346
-14.5405
-17.7637
-19.8843
-20.9444
-21.0392
-20.2972
-18.8503
-16.7952
-14.1465
-10.7853
-6.40864
-0.486339
7.76213
19.3591
35.5143
57.5143
86.5501
123.491
168.621
221.378
280.131
342.069
403.224
458.691
503.025
530.809
537.32
519.21
475.094
405.946
315.233
208.729
94.0261
-20.2087
-125.144
-212.741
-276.635
-312.82
-320.058
-299.955
-256.703
-196.533
-126.952
-55.8642
9.306
62.3912
99.0626
117.164
116.775
100.006
70.5882
33.2949
-6.69443
-44.4283
-75.7296
-97.6006
-108.45
-108.133
-97.8133
-79.6906
-56.6281
-31.7439
-8.01543
12.057
26.692
34.9575
36.7843
32.8752
24.5315
13.4273
1.36407
-9.9616
-19.1512
-25.2382
-27.7528
-26.7181
-22.5849
-16.121
-8.27371
-0.0254811
7.73751
14.3304
19.3372
22.6376
24.3935
25.0015
25.0205
25.0857
25.8197
27.7528
31.2599
36.522
43.5123
52.0097
61.6336
71.8958
82.2609
92.209
101.291
109.17
115.652
120.69
124.375
126.91
128.573
129.672
130.498
131.282
132.153
133.118
134.042
134.656
134.581
133.365
130.539
125.68
118.48
108.794
96.6888
82.4541
66.5922
49.7781
32.7968
16.4643
1.54266
-11.3388
-21.7469
-29.4841
-34.5997
-37.3716
-38.2616
-37.8519
-36.7699
-35.6126
-34.8796
-34.9237
-35.9227
-37.8771
-40.6299
-43.9061
-47.3639
-50.6506
-53.4548
-55.5485
-56.814
-57.2536
-56.9817
-56.2027
-55.1774
-54.1845
-53.481
-53.2671
-53.6587
-54.6711
-56.214
-58.0995
-60.0605
-61.7792
-62.9219
-63.1767
-62.2895
-60.0954
-56.5404
-51.692
-45.7358
-38.9594
-31.7245
-24.4313
-17.4782
-11.223
-5.94895
-1.84057
1.02944
2.7
3.30949
3.07354
2.2559
1.13637
-0.0204049
-0.9916
-1.61555
-1.80226
-1.53458
-0.860955
0.118509
1.27027
2.44724
3.50783
4.33207
4.83333
4.96478
4.72075
4.13324
3.26489
2.1994
1.0311
-0.14536
-1.24398
-2.19437
-2.94627
-3.47165
-3.76444
-3.83823
-3.72259
-3.45826
-3.09197
-2.67125
-2.23981
-1.83385
-1.47946
-1.19142
-0.973223
-0.818272
-0.711946
-0.634371
-0.563536
-0.478515
-0.3625
-0.205367
-0.00548505
0.229477
0.482954
0.731176
0.946093
1.09927
1.16635
1.13146
0.991069
0.75666
0.455891
0.13206
-0.158035
-0.347502
-0.363554
-0.131883
0.419367
1.35645
2.73785
4.61293
7.02091
9.98959
13.5331
17.649
22.3135
27.4775
33.0627
38.9595
45.0279
51.1026
57.0006
62.5334
67.5204
71.8036
75.2602
77.8139
79.4399
80.1664
80.0694
79.2635
77.8878
76.0905
74.0121
71.7706
69.4487
67.0855
64.6728
62.1569
59.446
56.4228
52.9611
48.9446
44.2862
38.9439
32.9337
26.3344
19.2855
11.9781
4.63842
-2.49227
-9.17996
-15.219
-20.4499
-24.7708
-28.1425
-30.586
-32.1725
-33.0078
-33.2114
-32.8907
-32.1114
-30.8639
-29.0265
-26.3278
-22.3137
-16.3266
-7.50798
5.16439
22.7927
46.4228
76.8569
114.428
158.763
208.575
261.533
314.257
362.473
401.35
425.991
432.035
416.293
377.31
315.772
234.661
139.127
36.0593
-66.5844
-160.627
-238.571
-294.441
-324.446
-327.385
-304.732
-260.412
-200.284
-131.424
-61.2852
3.1307
56.0187
93.3221
113.048
115.318
102.173
77.1637
44.8026
9.9479
-22.7972
-49.6003
-67.7752
-75.9842
-74.2598
-63.8576
-46.9776
-26.3975
-5.07342
14.2421
29.3178
38.666
41.6516
38.4856
30.1156
18.0381
4.06282
-9.93675
-22.2537
-31.5337
-36.8981
-37.9959
-34.9852
-28.4556
-19.3063
-8.60124
2.57957
13.2719
22.7296
30.4861
36.3747
40.5072
43.2216
45.0066
46.4175
47.9935
50.1887
53.3208
57.5455
62.8534
69.0882
75.982
83.1985
90.3802
97.1917
103.354
108.666
113.017
116.381
118.807
120.395
121.275
121.581
121.431
120.903
120.029
118.783
117.082
114.791
111.741
107.741
102.612
96.2095
88.4569
79.3687
69.0689
57.796
45.8941
33.7903
21.9591
10.8784
0.982931
-7.37993
-13.985
-18.7509
-21.7452
-23.1726
-23.348
-22.657
-21.5112
-20.3013
-19.3566
-18.9136
-19.0983
-19.9235
-21.3002
-23.0613
-24.9924
-26.8669
-28.4782
-29.6671
-30.3392
-30.472
-30.1109
-29.3554
-28.3389
-27.2041
-26.0795
-25.0592
-24.1883
-23.4583
-22.8092
-22.1404
-21.328
-20.2437
-18.776
-16.8464
-14.4229
-11.525
-8.223
-4.63043
-0.891526
2.83444
6.38961
9.63282
12.4517
14.7707
16.5545
17.8061
18.5625
18.8861
18.8558
18.5574
18.0748
17.4837
16.8461
16.2084
15.6003
15.0361
14.5163
14.0305
13.5596
13.0786
12.5586
11.9695
11.2815
10.4679
9.50695
8.38466
7.09654
5.64939
4.06205
2.36506
0.598985
-1.18846
-2.94633
-4.62504
-6.18091
-7.58036
-8.80286
-9.84252
-10.7079
-11.4203
-12.0098
-12.5117
-12.9603
-13.3849
-13.8045
-14.225
-14.6371
-15.0167
-15.3263
-15.5193
-15.5442
-15.3517
-14.8999
-14.1609
-13.1246
-11.8011
-10.2206
-8.43057
-6.49038
-4.46417
-2.41288
-0.386327
1.58344
3.4866
5.33707
7.17089
9.04149
11.0124
13.1487
15.5075
18.1298
21.0343
24.2133
27.6322
31.232
34.934
38.6461
42.2706
45.7102
48.8747
51.6848
54.0734
55.9856
57.3749
58.1989
58.4136
57.9684
56.8047
54.8568
52.0596
48.3592
43.7288
38.1843
31.8002
24.719
17.1545
9.3856
1.74051
-5.42809
-11.7739
-16.9911
-20.8476
-23.2125
-24.0748
-23.5501
-21.8726
-19.3745
-16.4532
-13.5288
-10.9978
-9.18631
-8.30675
-8.42117
-9.41267
-10.9646
-12.5473
-13.4131
-12.602
-8.96502
-1.21346
11.994
31.9184
59.5594
95.4343
139.34
190.137
245.599
302.388
356.182
401.988
434.621
449.307
442.333
411.649
357.317
281.739
189.578
87.4027
-16.9526
-115.201
-199.509
-263.358
-302.26
-314.23
-299.952
-262.633
-207.565
-141.467
-71.6819
-5.35367
51.3328
93.75
119.208
127.082
118.7
97.0039
66.064
30.5029
-5.091
-36.6871
-61.2197
-76.8385
-82.9884
-80.3265
-70.5008
-55.8328
-38.953
-22.4369
-8.48795
1.29893
6.07321
5.75696
0.973796
-7.10241
-16.9518
-26.9352
-35.5126
-41.4277
-43.8395
-42.3889
-37.2005
-28.8241
-18.1295
-6.1725
5.95005
17.236
26.8901
34.4
39.5721
42.5253
43.6481
43.5292
42.8705
42.3957
42.7653
44.506
47.9625
53.2725
60.3671
68.9924
78.7488
89.1419
99.6376
109.717
118.921
126.893
133.392
138.307
141.648
143.528
144.134
143.697
142.457
140.631
138.39
135.837
133.005
129.852
126.272
122.116
117.211
111.387
104.505
96.4801
87.3018
77.0492
65.8946
54.1001
42.0039
30.0001
18.5114
7.95932
-1.26728
-8.84112
-14.5217
-18.1745
-19.7827
-19.4505
-17.3975
-13.9442
-9.48897
-4.47843
0.626851
5.38868
9.42574
12.4432
14.2539
14.7893
14.0983
12.335
9.73599
6.59084
3.20925
-0.111808
-3.11658
-5.61217
-7.48133
-8.68567
-9.26013
-9.30005
-8.94323
-8.3495
-7.68024
-7.07995
-6.66159
-6.49675
-6.61115
-6.98533
-7.5601
-8.24573
-8.93378
-9.51004
-9.86742
-9.9175
-9.59964
-8.8871
-7.7896
-6.35246
-4.65245
-2.79092
-0.884991
0.942483
2.57313
3.90266
4.84896
5.35808
5.40754
5.00682
4.19501
3.03586
1.61099
0.0117774
-1.66913
-3.34572
-4.94523
-6.41272
-7.71332
-8.83191
-9.77057
-10.5442
-11.1749
-11.6863
-12.0982
-12.4219
-12.6582
-12.7967
-12.8175
-12.6944
-12.4
-11.911
-11.2135
-10.3068
-9.20655
-7.94484
-6.56874
-5.13671
-3.71345
-2.36407
-1.14812
-0.114368
0.703023
1.28669
1.63633
1.76738
1.7083
1.49713
1.17772
0.79612
0.397535
0.0239299
-0.287573
-0.505647
-0.605195
-0.567484
-0.380121
-0.0369917
0.46185
1.11042
1.89734
2.80678
3.81996
4.91707
6.07958
7.29249
8.54632
9.83824
11.1722
12.5581
14.0089
15.5382
17.1563
18.8669
20.6643
22.5326
24.4457
26.3681
28.258
30.0687
31.7512
33.2551
34.5281
35.5153
36.1572
36.3885
36.1381
35.3303
33.8896
31.7465
28.8468
25.1602
20.6888
15.4741
9.59909
3.18767
-3.60188
-10.5866
-17.5716
-24.3636
-30.7833
-36.6751
-41.9117
-46.3952
-50.0529
-52.8304
-54.6837
-55.5711
-55.4469
-54.2565
-51.933
-48.3921
-43.5233
-37.1754
-29.1343
-19.0958
-6.63769
8.79744
27.8971
51.4345
80.174
114.719
155.312
201.605
252.443
305.711
358.289
406.177
444.787
469.409
475.792
460.776
422.851
362.579
282.761
188.332
85.9553
-16.632
-111.438
-191.098
-249.699
-283.433
-290.994
-273.673
-235.144
-180.97
-117.911
-53.1203
6.66425
55.8311
90.4327
108.491
110.049
96.9898
72.642
41.2625
7.44743
-24.4401
-50.7611
-68.958
-77.7473
-77.1395
-68.2997
-53.2821
-34.6831
-15.2623
2.4163
16.2829
24.9684
27.9027
25.3036
18.0688
7.5948
-4.44821
-16.3514
-26.5831
-33.96
-37.7557
-37.7418
-34.161
-27.6443
-19.0886
-9.51457
0.0754294
8.8203
16.0915
21.544
25.1255
27.0465
27.7216
27.6899
27.5303
27.7809
28.8743
31.094
34.5574
39.2229
44.9188
51.3879
58.3382
65.493
72.6318
79.617
86.402
93.0224
99.572
106.168
112.915
119.867
127.003
134.208
141.277
147.923
153.804
158.553
161.816
163.285
162.726
160.006
155.098
148.087
139.154
128.567
116.654
103.779
90.3214
76.653
63.1217
50.0398
37.6756
26.2505
15.9382
6.86633
-0.880985
-7.25999
-12.2648
-15.9249
-18.3038
-19.4961
-19.6264
-18.8455
-17.3268
-15.2603
-12.8461
-10.2861
-7.77426
-5.48748
-3.576
-2.15535
-1.30018
-1.04076
-1.36246
-2.20849
-3.48559
-5.07237
-6.82936
-8.61024
-10.2729
-11.69
-12.7577
-13.402
-13.5837
-13.2991
-12.5789
-11.485
-10.1041
-8.54031
-6.90658
-5.31521
-3.86901
-2.65305
-1.72813
-1.12631
-0.849034
-0.868154
-1.12965
-1.55993
-2.07391
-2.58418
-3.01008
-3.28565
-3.36551
-3.22783
-2.87417
-2.32635
-1.62083
-0.801887
0.0854464
1.00129
1.91482
2.80554
3.66201
4.47841
5.24984
5.96745
6.61447
7.16414
7.58
7.81882
7.83571
7.59073
7.0559
6.22154
5.1008
3.73146
2.17479
0.511155
-1.16691
-2.76351
-4.1888
-5.36797
-6.24839
-6.8043
-7.03818
-6.97885
-6.67658
-6.19587
-5.60702
-4.97752
-4.3644
-3.80844
-3.33075
-2.93212
-2.59491
-2.2871
-1.9679
-1.59402
-1.12576
-0.532091
0.205919
1.09371
2.12386
3.27847
4.53282
5.85953
7.23263
8.63081
10.0396
11.4522
12.8691
14.297
15.747
17.2331
18.7709
20.3772
22.0702
23.8705
25.8023
27.894
30.1783
32.6903
35.4636
38.5246
41.8858
45.5382
49.4451
53.5389
57.7209
61.8657
65.8294
69.4611
72.6158
75.166
77.0114
78.0841
78.3477
77.7926
76.4261
74.2615
71.3082
67.5662
63.0255
57.673
51.5057
44.5468
36.8631
28.579
19.8833
11.0273
2.31235
-5.93228
-13.3779
-19.7288
-24.7527
-28.3057
-30.3485
-30.9504
-30.2821
-28.5974
-26.2061
-23.4415
-20.6235
-18.0204
-15.8097
-14.0378
-12.5813
-11.1098
-9.05671
-5.60438
0.30662
9.93239
24.6346
45.7372
74.3317
111.044
155.788
207.546
264.219
322.599
378.495
427.028
463.092
481.925
479.733
454.266
405.273
334.733
246.836
147.673
44.676
-54.1374
-141.017
-209.326
-254.268
-273.4
-266.868
-237.335
-189.622
-130.097
-65.9144
-4.19097
48.7803
88.174
111.071
116.647
106.103
82.3655
49.5991
12.6191
-23.7327
-55.1605
-78.3746
-91.3905
-93.6446
-85.9289
-70.1673
-49.0764
-25.7616
-3.3039
15.6096
28.9731
35.6381
35.3686
28.7809
17.1867
2.37041
-13.6681
-28.9674
-41.8272
-50.9756
-55.6681
-55.7142
-51.4371
-43.5795
-33.1719
-21.385
-9.38207
1.80847
11.3913
18.8639
24.0369
27.0166
28.158
27.9948
27.1591
26.2994
26.0078
26.7622
28.8911
32.5598
37.7794
44.4329
52.3128
61.1624
70.7135
80.7164
90.9556
101.254
111.463
121.447
131.064
140.143
148.477
155.823
161.903
166.433
169.146
169.822
168.313
164.571
158.651
150.716
141.021
129.895
117.707
104.843
91.6683
78.5078
65.6305
53.2415
41.485
30.4536
20.2025
10.7653
2.168
-5.56011
-12.3815
-18.2506
-23.1194
-26.9461
-29.706
-31.4021
-32.072
-31.7929
-30.6802
-28.8822
-26.5703
-23.9266
-21.1301
-18.3431
-15.7009
-13.3034
-11.2127
-9.4532
-8.01763
-6.87458
-5.97879
-5.28147
-4.73951
-4.32217
-4.01427
-3.81563
-3.7368
-3.79232
-3.99248
-4.33558
-4.8018
-5.35031
-5.9199
-6.4335
-6.80583
-6.95324
-6.8042
-6.30908
-5.44763
-4.23317
-2.71277
-0.963372
0.91579
2.81339
4.61768
6.22798
7.5648
8.57699
9.24549
9.58295
9.62963
9.44614
9.10414
8.67619
8.22626
7.80199
7.42978
7.11303
6.83374
6.55688
6.23684
5.82486
5.27642
4.55754
3.64931
2.55014
1.27563
-0.143807
-1.66699
-3.24722
-4.83781
-6.39717
-7.89263
-9.30234
-10.6149
-11.8266
-12.9371
-13.9437
-14.8361
-15.5924
-16.1773
-16.5438
-16.638
-16.4068
-15.8064
-14.8127
-13.4283
-11.6884
-9.66131
-7.44543
-5.16143
-2.94126
-0.915053
0.802401
2.12377
2.99853
3.41835
3.41791
3.07121
2.48377
1.78173
1.09918
0.565098
0.291462
0.363844
0.835464
1.72537
3.02076
4.68306
6.65659
8.87865
11.2893
13.8396
16.497
19.2475
22.0953
25.0593
28.1687
31.4575
34.9596
38.7031
42.7061
46.9715
51.4824
56.1969
61.0435
65.9176
70.6803
75.1597
79.1571
82.4567
84.8403
86.1042
86.0779
84.642
81.7428
77.4026
71.7235
64.8841
57.1299
48.7571
40.0925
31.4699
23.2068
15.5824
8.81857
3.06753
-1.59556
-5.17232
-7.73451
-9.4116
-10.3741
-10.8143
-10.9268
-10.8905
-10.8528
-10.9184
-11.1391
-11.5047
-11.9321
-12.2483
-12.1667
-11.257
-8.91381
-4.33176
3.49723
15.7502
33.6865
58.4995
91.1074
131.9
180.474
235.405
294.112
352.862
406.962
451.138
480.079
489.088
474.758
435.557
372.232
287.953
188.148
80.0422
-28.0618
-127.661
-210.984
-271.839
-306.29
-313.049
-293.555
-251.734
-193.469
-125.875
-56.455
7.73618
60.8294
98.6928
119.244
122.499
110.379
86.3063
54.6609
20.1786
-12.6406
-40.0371
-59.3579
-69.2539
-69.6992
-61.8485
-47.7642
-30.0618
-11.523
5.27073
18.2428
26.0303
28.0837
24.6532
16.6776
5.59788
-6.8734
-18.9923
-29.2039
-36.3157
-39.6092
-38.8801
-34.4111
-26.8868
-17.2681
-6.64543
3.90817
13.466
21.3446
27.1596
30.8383
32.5924
32.8589
32.2213
31.3227
30.7849
31.1416
32.7923
35.9791
40.7852
47.1502
54.8971
63.7651
73.4425
83.5969
93.8996
104.044
113.758
122.812
131.025
138.263
144.439
149.507
153.456
156.298
158.053
158.736
158.344
156.847
154.189
150.291
145.065
138.435
130.358
120.847
109.993
97.9729
85.0533
71.5841
57.9792
44.689
32.1678
20.8376
11.0538
3.07576
-2.95356
-7.01798
-9.22592
-9.79698
-9.03835
-7.314
-5.01
-2.49971
-0.11252
1.8908
3.33405
4.13163
4.28495
3.87018
3.01959
1.899
0.684182
-0.460976
-1.40235
-2.04787
-2.35341
-2.32228
-1.99914
-1.45965
-0.797525
-0.110896
0.510337
0.994754
1.29625
1.39696
1.30639
1.05712
0.698038
0.286112
-0.122157
-0.478549
-0.749256
-0.918718
-0.990787
-0.987247
-0.944003
-0.905556
-0.91855
-1.02526
-1.25786
-1.63416
-2.15527
-2.8054
-3.55375
-4.35804
-5.16929
-5.93707
-6.61458
-7.163
-7.55464
-7.77475
-7.8219
-7.70713
-7.45223
-7.08727
-6.64788
-6.17247
-5.69947
-5.26489
-4.9001
-4.62987
-4.4709
-4.43073
-4.50725
-4.68897
-4.95593
-5.28154
-5.63495
-5.98406
-6.29867
-6.55357
-6.73106
-6.82268
-6.82974
-6.76251
-6.63822
-6.47781
-6.3022
-6.12834
-5.96597
-5.81551
-5.66754
-5.5042
-5.3021
-5.03654
-4.68616
-4.2374
-3.68792
-3.04842
-2.34258
-1.60499
-0.877495
-0.20428
0.373467
0.822782
1.1234
1.27098
1.27894
1.17856
1.01772
0.858199
0.772004
0.8371
1.13286
1.73568
2.71509
4.13064
6.02965
8.44584
11.3987
14.8927
18.9168
23.4425
28.421
33.7794
39.4156
45.1945
50.9439
56.4555
61.4879
65.7774
69.0527
71.0565
71.5696
70.4364
67.5875
63.0568
56.9894
49.6375
41.3466
32.5287
23.6291
15.0878
7.30159
0.589459
-4.83219
-8.86386
-11.5243
-12.9393
-13.3198
-12.9319
-12.0639
-10.993
-9.95591
-9.12774
-8.60843
-8.41861
-8.50214
-8.73186
-8.91408
-8.78706
-8.01048
-6.14572
-2.6312
3.23832
12.3152
25.5702
44.0163
68.5788
99.9105
138.17
182.794
232.305
284.213
335.038
380.512
415.94
436.7
438.836
419.644
378.177
315.568
235.117
142.1
43.3129
-53.6047
-140.978
-211.939
-261.187
-285.57
-284.41
-259.535
-215.012
-156.631
-91.2044
-25.7759
33.1568
80.3162
112.136
127.024
125.376
109.358
82.5039
49.1834
14.0189
-18.6729
-45.3528
-63.594
-72.2514
-71.4616
-62.4893
-47.4529
-28.9757
-9.81132
7.50782
20.9582
29.221
31.7713
28.8602
21.4034
10.8004
-1.28855
-13.1727
-23.3423
-30.6348
-34.3411
-34.2447
-30.5952
-24.0269
-15.438
-5.8501
3.73316
12.4487
19.6654
25.0356
28.5039
30.2773
30.7648
30.4975
30.0423
29.9213
30.5474
32.1826
34.9227
38.7078
43.3536
48.597
54.148
59.7381
65.1602
70.2921
75.1039
79.6474
84.032
88.3918
92.8489
97.4791
102.285
107.183
111.994
116.463
120.27
123.065
124.5
124.262
122.107
117.884
111.555
103.206
93.05
81.417
68.7372
55.5159
42.2998
29.6397
18.0506
7.97369
-0.257109
-6.43936
-10.5159
-12.5757
-12.8418
-11.6475
-9.40265
-6.55478
-3.54745
-0.781435
1.41817
2.82539
3.32565
2.91604
1.69432
-0.161506
-2.42033
-4.82829
-7.13899
-9.14027
-10.6748
-11.6529
-12.0566
-11.9351
-11.3935
-10.5749
-9.64077
-8.74957
-8.03778
-7.60462
-7.50226
-7.73211
-8.24749
-8.96182
-9.76118
-10.5195
-11.1142
-11.4411
-11.4257
-11.0307
-10.2582
-9.1472
-7.76643
-6.20366
-4.55362
-2.90562
-1.3329
0.114993
1.41573
2.57341
3.61362
4.5751
5.4996
6.4212
7.35703
8.3007
9.21953
10.0562
10.7343
11.1676
11.2713
10.9735
10.2262
9.0123
7.35057
5.29476
2.92927
0.361053
-2.2909
-4.90696
-7.37773
-9.61291
-11.5473
-13.1432
-14.3895
-15.2973
-15.8943
-16.217
-16.3044
-16.192
-15.9083
-15.4725
-14.8961
-14.1841
-13.339
-12.3643
-11.2678
-10.0642
-8.77661
-7.43663
-6.08296
-4.75907
-3.50994
-2.37824
-1.40046
-0.603385
-0.00123261
0.406125
0.633689
0.710535
0.677727
0.585129
0.487385
0.439434
0.491941
0.687048
1.05481
1.61065
2.35403
3.26863
4.32398
5.47859
6.6844
7.89211
9.05689
10.1437
11.1317
12.0164
12.8105
13.5408
14.2449
14.9644
15.7385
16.5978
17.5588
18.6208
19.7641
20.9499
22.1195
23.1945
24.0743
24.6352
24.7289
24.1843
22.8138
20.4257
16.8419
11.9215
5.58686
-2.15172
-11.1758
-21.2484
-32.0152
-43.0193
-53.7299
-63.5811
-72.0177
-78.5443
-82.7704
-84.4486
-83.4994
-80.0208
-74.2806
-66.69
-57.761
-48.0485
-38.0818
-28.2891
-18.9215
-9.98332
-1.17672
8.12741
18.8833
32.3172
49.8185
72.7729
102.341
139.2
183.275
233.51
287.712
342.542
393.662
436.078
464.641
474.673
462.619
426.65
367.101
286.662
190.289
84.8007
-21.7723
-121.033
-205.135
-267.647
-304.271
-313.293
-295.729
-255.152
-197.215
-128.956
-57.9673
8.45874
64.102
104.417
126.903
131.21
118.99
93.5297
59.2197
20.9487
-16.5089
-49.0315
-73.5586
-88.3313
-92.9524
-88.2767
-76.1615
-59.1232
-39.9512
-21.3322
-5.52922
5.85011
11.9771
12.8139
9.02494
1.80924
-7.31546
-16.7452
-25.007
-30.9361
-33.7933
-33.3162
-29.703
-23.5387
-15.6782
-7.10634
1.2065
8.43393
13.9928
17.6022
19.2986
19.4071
18.4775
17.1957
16.2834
16.4002
18.061
21.578
27.0333
34.284
42.997
52.7068
62.8876
73.0274
82.6948
91.5888
99.5643
106.633
112.939
118.715
124.225
129.708
135.319
141.088
146.903
152.507
157.522
161.495
163.956
164.475
162.726
158.53
151.883
142.965
132.122
119.835
106.665
93.2
79.9996
67.5417
56.1879
46.1619
37.5466
30.297
24.2657
19.2377
14.9668
11.2115
7.76429
4.47146
1.24362
-1.94476
-5.06416
-8.04515
-10.7966
-13.2244
-15.2475
-16.8097
-17.8865
-18.4861
-18.6462
-18.4269
-17.9029
-17.155
-16.2632
-15.3026
-14.3404
-13.4369
-12.6461
-12.0173
-11.5966
-11.4263
-11.5432
-11.9755
-12.7388
-13.8314
-15.2308
-16.891
-18.7426
-20.6941
-22.6369
-24.4518
-26.0173
-27.2186
-27.9579
-28.1619
-27.7893
-26.8347
-25.3299
-23.3417
-20.9664
-18.3222
-15.5389
-12.7476
-10.0707
-7.61227
-5.45219
-3.64164
-2.20236
-1.1284
-0.390254
0.0593257
0.27862
0.330123
0.274326
0.164659
0.0439596
-0.0573923
-0.121724
-0.142929
-0.124288
-0.0756498
-0.0104125
0.0573497
0.115327
0.154837
0.172071
0.168791
0.152536
0.136394
0.138273
0.179554
0.282994
0.469809
0.756074
1.14877
1.64204
2.21427
2.82679
3.42476
3.94062
4.3003
4.43166
4.27438
3.79
2.97044
1.84342
0.473578
-1.04147
-2.57994
-4.00867
-5.19821
-6.03829
-6.4513
-6.402
-5.90205
-5.00876
-3.81816
-2.45352
-1.05074
0.257387
1.3562
2.16184
2.63026
2.76207
2.60278
2.23897
1.79075
1.4014
1.22518
1.41434
2.10627
3.4119
5.40604
8.12038
11.5396
15.6008
20.1966
25.1814
30.3808
35.603
40.6524
45.3425
49.509
53.0202
55.7846
57.7547
58.9265
59.3351
59.0475
58.1524
56.749
54.9368
52.8056
50.429
47.8601
45.1312
42.2559
39.2342
36.0589
32.7231
29.2265
25.5812
21.8145
17.9697
14.1048
10.2883
6.5947
3.09849
-0.131059
-3.03449
-5.56515
-7.69038
-9.39048
-10.6551
-11.4759
-11.8354
-11.6882
-10.9368
-9.39751
-6.76213
-2.55768
3.88576
13.4462
27.1848
46.2685
71.8311
104.771
145.504
193.697
248.038
306.1
364.341
418.288
462.907
493.134
504.5
493.772
459.498
402.377
325.371
233.538
133.583
33.1849
-59.8201
-138.287
-196.538
-230.966
-240.383
-226.088
-191.635
-142.355
-84.6941
-25.4513
28.9815
73.2888
103.734
118.45
117.485
102.637
77.0887
44.9155
10.5329
-21.8493
-48.699
-67.5109
-77.002
-77.1438
-69.0408
-54.6863
-36.6336
-17.6326
-0.276139
13.2999
21.6322
24.0439
20.6515
12.2743
0.268
-13.6916
-27.8418
-40.5536
-50.5128
-56.8437
-59.1665
-57.5877
-52.632
-45.132
-36.0916
-26.5461
-17.4338
-9.49536
-3.20976
1.23153
3.91247
5.15017
5.43162
5.33968
5.47836
6.40531
8.57732
12.312
17.7671
24.9358
33.6581
43.6433
54.5023
65.7854
77.0225
87.7621
97.6063
106.238
113.441
119.107
123.232
125.905
127.287
127.58
126.994
125.723
123.91
121.635
118.9
115.633
111.7
106.926
101.126
94.1355
85.8473
76.2366
65.3821
53.4743
40.8099
27.7726
14.803
2.35929
-9.12497
-19.2814
-27.8411
-34.6573
-39.7159
-43.1303
-45.1235
-46.0002
-46.1104
-45.8119
-45.4337
-45.2462
-45.4391
-46.1105
-47.2654
-48.8251
-50.6429
-52.5259
-54.259
-55.6287
-56.4447
-56.5578
-55.8712
-54.348
-52.0109
-48.938
-45.2532
-41.114
-36.6969
-32.1827
-27.7431
-23.528
-19.6577
-16.2165
-13.2517
-10.7751
-8.76706
-7.18323
-5.96248
-5.03465
-4.32816
-3.77627
-3.32178
-2.92002
-2.54002
-2.1641
-1.78631
-1.40993
-1.04453
-0.702937
-0.398477
-0.142638
0.0565986
0.195718
0.275944
0.302883
0.285681
0.235853
0.165957
0.0882839
0.0137124
-0.049174
-0.0946244
-0.1199
-0.125114
-0.11278
-0.0871689
-0.0535431
-0.0173931
0.0162562
0.0433903
0.061359
0.0690205
0.0666869
0.0558983
0.0390768
0.0191141
-0.00104812
-0.0187937
-0.0321221
-0.0398276
-0.0415588
-0.0377635
-0.0295381
-0.0184022
-0.00601703
0.00614649
0.0171915
0.0272275
0.0378251
0.0524305
0.0766393
0.118203
0.186644
0.292388
0.445379
0.653251
0.919221
1.23998
1.60389
1.98997
2.36784
2.69915
2.94072
3.04961
2.9903
2.74369
2.31719
1.75444
1.14269
0.615612
0.349838
0.554088
1.4513
3.25538
6.1453
10.2401
15.578
22.1031
29.6616
38.0077
46.8206
55.7284
64.3387
72.27
79.1833
84.8072
88.9572
91.5454
92.581
92.1616
90.4575
87.6898
84.106
79.9559
75.4693
70.8387
66.2083
61.6692
57.262
52.9841
48.802
44.6641
40.5148
36.3061
32.0065
27.6061
23.1184
18.5776
14.0349
9.55183
5.19382
1.02408
-2.9015
-6.53754
-9.85042
-12.8175
-15.4245
-17.6609
-19.5138
-20.9596
-21.9538
-22.4164
-22.2153
-21.1436
-18.8957
-15.0412
-9.00263
-0.0445002
12.7182
30.2796
53.6611
83.7796
121.268
166.255
218.141
275.395
335.431
394.614
448.423
491.796
519.634
527.413
511.832
471.384
406.772
321.076
219.622
109.558
-0.825706
-102.965
-188.941
-252.359
-289.045
-297.491
-278.977
-237.364
-178.599
-109.984
-39.3227
25.9558
79.5808
117.048
135.988
136.257
119.772
90.1164
51.9858
10.5489
-29.1876
-62.9398
-87.5704
-101.337
-103.95
-96.4586
-80.9789
-60.3325
-37.6324
-15.8783
2.39167
15.3569
22.0561
22.41
17.134
7.56351
-4.57753
-17.4305
-29.2449
-38.5819
-44.4573
-46.4123
-44.5133
-39.2851
-31.5957
-22.5095
-13.132
-4.46407
2.71649
7.93529
11.0574
12.2791
12.0803
11.1456
10.267
10.2395
11.762
15.356
21.3086
29.6462
40.1393
52.3374
65.6268
79.3048
92.659
105.044
115.942
125.012
132.102
137.254
140.673
142.684
143.684
144.081
144.242
144.452
144.882
145.576
146.455
147.332
147.944
147.982
147.129
145.096
141.648
136.627
129.964
121.685
111.908
100.84
88.7582
76.0032
62.9564
50.0218
37.6045
26.0872
15.8071
7.03479
-0.0448972
-5.34577
-8.88673
-10.79
-11.2705
-10.6177
-9.17031
-7.28743
-5.31775
-3.57112
-2.29476
-1.65663
-1.73759
-2.53287
-3.96226
-5.88747
-8.13432
-10.5168
-12.8605
-15.0215
-16.9004
-18.4487
-19.6677
-20.6008
-21.3203
-21.9118
-22.4569
-23.0185
-23.6295
-24.2868
-24.9516
-25.5549
-26.0078
-26.2152
-26.0901
-25.567
-24.6128
-23.2325
-21.4706
-19.4073
-17.1492
-14.8181
-12.5375
-10.419
-8.55137
-6.99222
-5.76422
-4.85558
-4.22472
-3.80824
-3.53094
-3.31648
-3.09721
-2.82206
-2.46145
-2.00894
-1.47967
-0.905954
-0.330988
0.198398
0.638893
0.956803
1.13238
1.16192
1.05764
0.84536
0.560653
0.243979
-0.0644383
-0.32933
-0.524108
-0.633222
-0.652965
-0.590758
-0.463146
-0.292867
-0.10545
0.0741977
0.224777
0.330846
0.384107
0.383685
0.335454
0.250593
0.14364
0.0303264
-0.0745082
-0.158672
-0.21386
-0.236278
-0.226638
-0.18959
-0.132717
-0.0652782
0.00313183
0.0638234
0.110013
0.137517
0.145147
0.134939
0.112433
0.0872458
0.0741369
0.0945832
0.178688
0.367018
0.711805
1.27689
2.13583
3.36774
5.05085
7.25391
10.0264
13.3885
17.3225
21.7664
26.6127
31.7105
36.8745
41.8973
46.566
50.6802
54.0695
56.6081
58.2248
58.9059
58.6916
57.665
55.9353
53.618
50.814
47.5923
43.9785
39.9524
35.4543
30.4006
24.7066
18.3124
11.208
3.45373
-4.80745
-13.3495
-21.8741
-30.0329
-37.4582
-43.7985
-48.7547
-52.1109
-53.7583
-53.7064
-52.0823
-49.116
-45.1144
-40.425
-35.3926
-30.3117
-25.377
-20.6352
-15.9413
-10.9238
-4.96427
2.80189
13.4537
28.2146
48.3355
74.9307
108.77
150.048
198.155
251.494
307.392
362.149
411.246
449.731
472.754
476.179
457.213
414.927
350.606
267.83
172.258
71.1411
-27.417
-115.326
-185.412
-232.221
-252.624
-246.146
-214.965
-163.607
-98.3668
-26.5484
44.3815
107.611
157.677
190.957
205.911
203.071
184.784
154.773
117.584
77.9809
40.3864
8.41343
-15.4548
-30.0187
-35.346
-32.6069
-23.7955
-11.3835
2.04349
14.1222
22.9808
27.4172
26.9721
21.9018
13.0639
1.73933
-10.5783
-22.3981
-32.4234
-39.6972
-43.6898
-44.3226
-41.9316
-37.1824
-30.9524
-24.1977
-17.824
-12.5773
-8.96506
-7.21633
-7.28029
-8.8601
-11.4739
-14.5327
-17.4228
-19.5834
-20.5689
-20.0906
-18.0347
-14.4574
-9.56036
-3.65108
2.90371
9.72635
16.4715
22.8595
28.6969
33.8827
38.4008
42.3009
45.6716
48.6091
51.1871
53.4322
55.308
56.7113
57.4816
57.4229
56.3349
54.0494
50.466
45.5819
39.5097
32.4813
24.8345
16.9853
9.38862
2.49143
-3.31345
-7.72872
-10.5827
-11.8451
-11.6257
-10.1583
-7.7702
-4.84335
-1.77097
1.08427
3.42584
5.04897
5.85376
5.84538
5.12234
3.85521
2.25911
0.563923
-1.01425
-2.29708
-3.16106
-3.54637
-3.45725
-2.95474
-2.14334
-1.15387
-0.124926
0.814725
1.5607
2.04313
2.23157
2.13453
1.79438
1.27861
0.668925
0.0497327
-0.502491
-0.927749
-1.18814
-1.27017
-1.1838
-0.95869
-0.638415
-0.273581
0.0851934
0.393502
0.617868
0.738496
0.749886
0.659475
0.484734
0.249317
-0.0210151
-0.302053
-0.573868
-0.822335
-1.03941
-1.22239
-1.37246
-1.4931
-1.58868
-1.6636
-1.72226
-1.76971
-1.81278
-1.86138
-1.92938
-2.03486
-2.1992
-2.44525
-2.79442
-3.26333
-3.86047
-4.58343
-5.41739
-6.33527
-7.29962
-8.26623
-9.18898
-10.0252
-10.741
-11.315
-11.7409
-12.0281
-12.1993
-12.2874
-12.3306
-12.3667
-12.4285
-12.5391
-12.7095
-12.9371
-13.2063
-13.4893
-13.7488
-13.9404
-14.0158
-13.9257
-13.6228
-13.0651
-12.2189
-11.0615
-9.58404
-7.7927
-5.70973
-3.3726
-0.831897
1.85248
4.61633
7.39719
10.1408
12.8072
15.3758
17.8483
20.249
22.6225
25.0275
27.5284
30.1853
33.0435
36.1246
39.4192
42.8849
46.4463
50.0002
53.4227
56.5785
59.3298
61.543
63.0941
63.8705
63.7715
62.7086
60.6072
57.4112
53.0914
47.6564
41.165
33.7375
25.5619
16.894
8.04776
-0.623125
-8.75194
-15.991
-22.0452
-26.7025
-29.8568
-31.52
-31.8217
-30.9947
-29.3499
-27.2425
-25.033
-23.0475
-21.5405
-20.6614
-20.4258
-20.6899
-21.1286
-21.2181
-20.2252
-17.2124
-11.0671
-0.566923
15.5085
38.2167
68.2476
105.695
149.834
198.956
250.302
300.138
343.996
377.086
394.828
393.452
370.576
325.669
260.317
178.241
85.028
-12.3729
-106.364
-189.509
-255.345
-299.086
-318.13
-312.31
-283.848
-237.041
-177.713
-112.521
-48.1885
9.21845
54.9032
85.7611
100.58
100.009
86.3118
62.9561
34.0989
4.03553
-23.3159
-44.8356
-58.4889
-63.4538
-60.0906
-49.7718
-34.6055
-17.0968
0.205759
15.0342
25.6583
31.0515
30.9533
25.8308
16.7542
5.20879
-7.12599
-18.6003
-27.7932
-33.6645
-35.6462
-33.6666
-28.113
-19.7419
-9.55312
1.35159
11.9092
21.2163
28.6188
33.7624
36.6023
37.3738
36.5342
34.6826
32.4731
30.53
29.3771
29.3869
30.7542
33.495
37.4662
42.4024
47.9627
53.7797
59.5057
64.8493
69.5998
73.6387
76.936
79.5366
81.5369
83.057
84.2119
85.0852
85.7094
86.0535
86.0215
85.4602
84.1772
81.9669
78.6409
74.0606
68.1665
61.0007
52.7191
43.5895
33.9768
24.3147
15.0677
6.68715
-0.432237
-5.99182
-9.8178
-11.8768
-12.2762
-11.2491
-9.12659
-6.30049
-3.18106
-0.155419
2.44921
4.39312
5.54019
5.86125
5.42539
4.38105
2.9301
1.2983
-0.293807
-1.65645
-2.64976
-3.195
-3.27717
-2.93975
-2.27285
-1.39704
-0.445145
0.455473
1.19801
1.70721
1.94519
1.91211
1.64197
1.19467
0.645761
0.0752655
-0.442777
-0.84894
-1.10427
-1.19296
-1.12182
-0.917019
-0.618696
-0.274432
0.0675271
0.364394
0.583637
0.705965
0.72634
0.653085
0.505412
0.309842
0.0960934
-0.106997
-0.275017
-0.390613
-0.445043
-0.438701
-0.380829
-0.288804
-0.187363
-0.10801
-0.088666
-0.173319
-0.41127
-0.855426
-1.55918
-2.57162
-3.93125
-5.65874
-7.74981
-10.1693
-12.8481
-15.6832
-18.5423
-21.2728
-23.7132
-25.7085
-27.1245
-27.8627
-27.8708
-27.1503
-25.7577
-23.801
-21.4301
-18.8239
-16.1737
-13.6662
-11.4682
-9.71258
-8.49024
-7.84548
-7.77744
-8.24566
-9.17913
-10.4869
-12.0684
-13.8224
-15.6524
-17.4692
-19.1899
-20.7351
-22.0252
-22.9773
-23.5041
-23.5153
-22.9217
-21.6423
-19.6112
-16.7863
-13.1556
-8.7422
-3.60662
2.15315
8.40308
14.9757
21.6733
28.2721
34.5271
40.1807
44.9733
48.6586
51.0211
51.8965
51.1901
48.8916
45.0828
39.935
33.6961
26.6668
19.1707
11.5203
3.98727
-3.22062
-9.97098
-16.2051
-21.9247
-27.1695
-31.9912
-36.4283
-40.4875
-44.1341
-47.2931
-49.8613
-51.7261
-52.7887
-52.9864
-52.3098
-50.8111
-48.6002
-45.8264
-42.6461
-39.1753
-35.4333
-31.2811
-26.3645
-20.0754
-11.5435
0.323927
16.7457
38.9063
67.7387
103.67
146.366
194.515
245.713
296.488
342.494
378.885
400.836
404.152
385.888
344.879
282.089
200.721
106.036
4.89987
-94.8953
-185.461
-259.672
-311.956
-338.9
-339.597
-315.703
-271.184
-211.808
-144.444
-76.2696
-13.9752
36.9232
72.599
91.1997
92.8843
79.6266
54.8247
22.7794
-11.8875
-44.7975
-72.2997
-91.8221
-102.061
-102.999
-95.7722
-82.4027
-65.4594
-47.6799
-31.6109
-19.3053
-12.11
-10.5596
-14.3804
-22.5941
-33.7
-45.9055
-57.3743
-66.4587
-71.8911
-72.9136
-69.3355
-61.5182
-50.2942
-36.8367
-22.4983
-8.64116
3.51982
13.0444
19.351
22.2517
21.9381
18.9243
13.9573
7.90894
1.66336
-3.98548
-8.41549
-11.2291
-12.2737
-11.6292
-9.56872
-6.49719
-2.87898
0.836338
4.27987
7.21238
9.5505
11.3673
12.8683
14.3462
16.1234
18.4884
21.6378
25.6313
30.3667
35.5788
40.8624
45.7169
49.6053
52.0208
52.5518
50.9355
47.0943
41.1495
33.4115
24.3472
14.5296
4.57675
-4.91269
-13.4191
-20.549
-26.0652
-29.8968
-32.1291
-32.9764
-32.7423
-31.7736
-30.4138
-28.9624
-27.6451
-26.5964
-25.8571
-25.3835
-25.0687
-24.7684
-24.3307
-23.6224
-22.5511
-21.078
-19.2228
-17.0584
-14.6991
-12.2829
-9.95184
-7.83317
-6.02308
-4.57582
-3.49829
-2.75035
-2.24992
-1.8817
-1.50816
-0.981385
-0.154908
1.10513
2.91001
5.33978
8.43642
12.199
16.5811
21.4919
26.799
32.3361
37.913
43.3273
48.3786
52.8819
56.6803
59.6554
61.7339
62.8912
63.1503
62.5778
61.2765
59.3756
57.0199
54.3584
51.5338
48.673
45.8798
43.23
40.7689
38.5109
36.4424
34.5256
32.7039
30.9086
29.0656
27.1019
24.9512
22.559
19.8861
16.9104
13.6277
10.0509
6.20781
2.13867
-2.10758
-6.47699
-10.9143
-15.3661
-19.7841
-24.1262
-28.3583
-32.4529
-36.3883
-40.1448
-43.7013
-47.0302
-50.0936
-52.8394
-55.2002
-57.0941
-58.429
-59.1093
-59.0452
-58.1635
-56.4178
-53.7974
-50.3329
-46.0973
-41.2032
-35.7947
-30.0365
-24.0998
-18.1489
-12.327
-6.74579
-1.47735
3.44952
8.0488
12.3722
16.5003
20.5305
24.5628
28.6853
32.9609
37.4171
42.0393
46.7697
51.5107
56.1333
60.488
64.4183
67.7734
70.4198
72.249
73.1816
73.168
72.1854
70.2333
67.3292
63.5052
58.8068
53.2943
47.0458
40.1612
32.7649
25.0064
17.0575
9.10575
1.34372
-6.04345
-12.8914
-19.0687
-24.4849
-29.0952
-32.8984
-35.9302
-38.2533
-39.9432
-41.0741
-41.7046
-41.8635
-41.5363
-40.649
-39.0499
-36.4863
-32.5779
-26.7911
-18.4207
-6.59188
9.70649
31.5425
59.9087
95.5362
138.669
188.825
244.591
303.498
362.021
415.758
459.772
489.104
499.371
487.398
451.761
393.166
314.584
221.098
119.475
17.4966
-76.8536
-156.262
-214.884
-248.973
-257.262
-241.044
-203.954
-151.486
-90.3091
-27.4811
30.3448
77.6201
110.429
126.795
126.735
112.082
86.1104
53.0233
17.3773
-16.4816
-44.9038
-65.2924
-76.2993
-77.8507
-71.0187
-57.7659
-40.6108
-22.2591
-5.25238
8.32619
17.0582
20.2927
18.1436
11.3927
1.32132
-10.5014
-22.4429
-33.0151
-41.0413
-45.7676
-46.909
-44.6335
-39.4927
-32.3118
-24.059
-15.711
-8.13198
-1.97935
2.35587
4.77003
5.43122
4.73272
3.22428
1.53161
0.274779
-0.00499088
1.09755
3.81558
8.19708
14.1139
21.2897
29.3413
37.8281
46.3018
54.353
61.6472
67.9498
73.1376
77.1968
80.2097
82.3318
83.7628
84.7141
85.3756
85.8853
86.3059
86.6084
86.6693
86.2804
85.1725
83.0521
79.6453
74.7458
68.2571
60.2255
50.8547
40.5015
29.6507
18.8709
8.75855
-0.124466
-7.31051
-12.4759
-15.4738
-16.3469
-15.3183
-12.7617
-9.15697
-5.03497
-0.920572
2.72027
5.52288
7.25168
7.81133
7.24131
5.69629
3.4157
0.687246
-2.19099
-4.94535
-7.3547
-9.26934
-10.6193
-11.4124
-11.7227
-11.6719
-11.4067
-11.0747
-10.8024
-10.6783
-10.7419
-10.9812
-11.3369
-11.7142
-11.9979
-12.0706
-11.8305
-11.2067
-10.1692
-8.73456
-6.96432
-4.95865
-2.84514
-0.764716
1.14352
2.75679
3.98071
4.75789
5.07201
4.94745
4.44451
3.65116
2.67227
1.61781
0.591168
-0.320811
-1.05524
-1.57717
-1.87998
-1.98233
-1.92225
-1.74956
-1.51754
-1.27507
-1.0603
-0.896471
-0.790252
-0.732649
-0.70202
-0.668644
-0.600043
-0.46626
-0.244386
0.0781839
0.502081
1.01594
1.59791
2.21828
2.84297
3.43707
3.96819
4.40902
4.73895
4.94455
5.0191
4.96136
4.77399
4.46191
4.03093
3.48696
2.83576
2.08324
1.23614
0.302755
-0.706601
-1.77951
-2.90205
-4.05999
-5.24044
-6.43363
-7.63434
-8.84249
-10.0623
-11.3001
-12.5599
-13.839
-15.1218
-16.3756
-17.5472
-18.5631
-19.3321
-19.752
-19.7188
-19.138
-17.9364
-16.0729
-13.547
-10.4032
-6.73109
-2.66045
1.64815
6.0162
10.2619
14.2153
17.7312
20.6995
23.0507
24.7571
25.8287
26.3057
26.2485
25.7268
24.8089
23.5541
22.0071
20.197
18.1397
15.8427
13.3128
10.5636
7.62252
4.53588
1.3706
-1.78738
-4.83815
-7.67586
-10.1984
-12.3175
-13.9682
-15.1151
-15.7564
-15.9237
-15.6771
-15.0987
-14.2811
-13.3159
-12.2787
-11.2139
-10.1164
-8.90929
-7.41899
-5.34547
-2.2323
2.55897
9.86155
20.6919
36.2021
57.5837
85.9173
121.97
165.954
217.279
274.345
334.416
393.65
447.29
490.057
516.692
522.613
504.573
461.236
393.564
304.932
200.95
88.9752
-22.6159
-125.31
-211.381
-274.735
-311.554
-320.679
-303.658
-264.49
-209.079
-144.504
-78.1718
-16.9932
33.3433
68.9017
87.7885
90.1823
78.1179
55.0707
25.4084
-6.21432
-35.4371
-58.6852
-73.5177
-78.8038
-74.7228
-62.6042
-44.6436
-23.542
-2.11933
17.0452
31.9068
41.1521
44.2847
41.6015
34.0733
23.1545
10.5533
-2.00438
-12.9891
-21.2338
-26.0369
-27.1974
-24.9826
-20.0424
-13.2841
-5.72941
1.62766
7.9443
12.6201
15.3485
16.1264
15.2256
13.1334
10.4734
7.91834
6.10533
5.56433
6.6656
9.5904
14.3256
20.6798
28.3179
36.8062
45.6648
54.419
62.6443
70.0029
76.2666
81.3264
85.1898
87.9658
89.8411
91.0502
91.8407
92.4384
93.0135
93.6527
94.3388
94.9431
95.232
94.8895
93.5544
90.8693
86.5353
80.365
72.3251
62.5636
51.4133
39.3722
27.0618
15.1664
4.36295
-4.74997
-11.716
-16.2679
-18.3529
-18.1331
-15.9612
-12.3366
-7.8463
-3.09988
1.33428
4.98353
7.51069
8.73546
8.63659
7.33606
5.06911
2.14464
-1.09823
-4.33214
-7.27714
-9.7266
-11.5614
-12.7516
-13.3477
-13.4624
-13.2473
-12.8671
-12.4753
-12.1941
-12.1
-12.2175
-12.5195
-12.9352
-13.3626
-13.684
-13.7833
-13.5615
-12.9496
-11.917
-10.4751
-8.67526
-6.60263
-4.36559
-2.08327
0.127938
2.16703
3.95866
5.46006
6.66358
7.59486
8.30676
8.86989
9.36108
9.85121
10.3941
11.018
11.7204
12.4679
13.1997
13.8354
14.286
14.4656
14.3041
13.7571
12.8137
11.4994
9.87525
8.03195
6.08059
4.14053
2.32628
0.734819
-0.565
-1.53966
-2.19395
-2.56942
-2.73854
-2.79548
-2.84476
-2.98911
-3.31836
-3.90045
-4.77569
-5.95488
-7.42097
-9.13379
-11.0367
-13.0637
-15.1458
-17.2161
-19.2126
-21.0787
-22.7632
-24.219
-25.4025
-26.2737
-26.7982
-26.9492
-26.7119
-26.0862
-25.0902
-23.761
-22.1544
-20.3417
-18.4049
-16.4305
-14.5021
-12.6929
-11.0596
-9.63701
-8.43477
-7.43582
-6.59639
-5.8473
-5.09671
-4.23427
-3.13721
-1.67876
0.261355
2.78443
5.95967
9.81177
14.3112
19.3687
24.8363
30.514
36.1644
41.532
46.3664
50.4463
53.6014
55.7283
56.7992
56.8602
56.0215
54.438
52.2854
49.7338
46.9239
43.9489
40.8451
37.5931
34.1284
30.3606
26.1967
21.5668
16.4451
10.8655
4.92856
-1.20138
-7.3085
-13.1448
-18.4541
-22.9979
-26.579
-29.0607
-30.3781
-30.5425
-29.6348
-27.7906
-25.1763
-21.9556
-18.2493
-14.0876
-9.36023
-3.76874
3.21108
12.345
24.622
41.1893
63.2311
91.7886
127.532
170.508
219.899
273.845
329.382
382.528
428.553
462.417
479.336
475.419
448.262
397.437
324.754
234.267
131.99
25.34
-77.6124
-169.008
-242.054
-291.765
-315.485
-313.136
-287.156
-242.139
-184.25
-120.469
-57.7859
-2.43164
40.7472
68.7176
80.4442
76.8273
60.4181
34.9638
4.85117
-25.4757
-52.0507
-71.8124
-82.8814
-84.6655
-77.7997
-63.9404
-45.455
-25.0548
-5.42161
11.1251
22.8832
28.9214
29.1214
24.115
15.1343
3.80113
-8.10993
-18.905
-27.1703
-31.9162
-32.6543
-29.4042
-22.6365
-13.166
-2.01471
9.73574
21.0821
31.2114
39.5757
45.9244
50.2953
52.9707
54.407
55.1519
55.761
56.7233
58.4066
61.0258
64.6348
69.1425
74.3442
79.9645
85.7037
91.2799
96.4633
101.097
105.107
108.494
111.319
113.682
115.691
117.446
119.007
120.386
121.54
122.364
122.702
122.356
121.103
118.713
114.973
109.709
102.817
94.286
84.2137
72.8202
60.4458
47.5364
34.6151
22.2427
10.9691
1.28417
-6.42948
-11.9334
-15.1564
-16.2
-15.3263
-12.9292
-9.4933
-5.54517
-1.60311
1.86856
4.49609
6.02018
6.3058
5.33817
3.20718
0.083496
-3.80937
-8.22282
-12.907
-17.6285
-22.1802
-26.3853
-30.0954
-33.187
-35.5575
-37.1235
-37.822
-37.6151
-36.4969
-34.5016
-31.7098
-28.2526
-24.3096
-20.102
-15.8786
-11.8973
-8.40231
-5.60095
-3.64234
-2.60101
-2.46797
-3.1507
-4.48237
-6.23942
-8.16553
-9.99899
-11.5003
-12.477
-12.8019
-12.4242
-11.371
-9.74094
-7.68902
-5.4071
-3.10073
-0.966183
0.830227
2.16801
2.98224
3.26639
3.06841
2.48101
1.62763
0.646164
-0.327727
-1.17545
-1.80713
-2.16883
-2.24496
-2.05595
-1.65198
-1.10372
-0.491641
0.105022
0.618134
0.998543
1.22116
1.28685
1.221
1.06912
0.889854
0.746611
0.698551
0.79235
1.05566
1.49309
2.08523
2.79071
3.55097
4.2971
4.95783
5.46769
5.77437
5.84442
5.66692
5.25456
4.64238
3.88427
3.04776
2.20774
1.43974
0.813597
0.387894
0.205938
0.2934
0.657942
1.29088
2.17086
3.26926
4.55675
6.01027
7.61906
9.38875
11.3422
13.5168
15.9578
18.7086
21.7999
25.2379
28.9952
33.0045
37.1575
41.3082
45.2808
48.8821
51.9147
54.1914
55.5479
55.8529
55.0151
52.987
49.7654
45.391
39.9458
33.5507
26.3625
18.5698
10.3883
2.05374
-6.18657
-14.085
-21.4054
-27.9362
-33.5009
-37.9687
-41.2602
-43.3515
-44.2735
-44.1098
-42.9897
-41.0792
-38.569
-35.6576
-32.5304
-29.3334
-26.1407
-22.9164
-19.4732
-15.4324
-10.1928
-2.91877
7.43965
22.082
42.2397
69.0034
103.103
144.661
192.965
246.282
301.788
355.643
403.231
439.576
459.883
460.161
437.822
392.178
324.736
239.241
141.425
38.4981
-61.5824
-150.958
-222.727
-271.704
-294.97
-292.162
-265.446
-219.207
-159.479
-93.2168
-27.4889
31.2959
78.0404
109.416
124.083
122.661
107.475
82.1262
50.9418
18.4003
-11.4138
-35.2527
-51.0024
-57.8134
-56.0629
-47.1706
-33.305
-17.0284
-0.929274
12.7091
22.1668
26.4483
25.3344
19.3317
9.5358
-2.56579
-15.3194
-27.1287
-36.6478
-42.9234
-45.4732
-44.2975
-39.8298
-32.8383
-24.2959
-15.2389
-6.63025
0.753101
6.39974
10.1027
11.9575
12.323
11.7548
10.9205
10.51
11.1519
13.3444
17.4085
23.4654
31.4378
41.0736
51.985
63.6982
75.7058
87.5168
98.699
108.909
117.91
125.574
131.875
136.869
140.668
143.414
145.247
146.287
146.609
146.24
145.153
143.275
140.499
136.703
131.769
125.604
118.158
109.441
99.5322
88.5899
76.8474
64.607
52.2256
40.0939
28.6105
18.153
9.04795
1.54378
-4.21109
-8.18191
-10.4509
-11.2094
-10.7398
-9.38807
-7.53104
-5.54079
-3.75072
-2.42635
-1.74393
-1.7787
-2.50393
-3.80058
-5.47684
-7.29545
-9.00643
-10.3817
-11.2475
-11.5113
-11.1783
-10.3561
-9.24435
-8.11262
-7.26614
-7.00595
-7.58779
-9.18574
-11.866
-15.5741
-20.1386
-25.2886
-30.6856
-35.9619
-40.7635
-44.7892
-47.8223
-49.7508
-50.5737
-50.3936
-49.3967
-47.8247
-45.9411
-43.9975
-42.2048
-40.7109
-39.589
-38.8355
-38.3785
-38.0934
-37.8239
-37.4045
-36.6827
-35.5366
-33.8882
-31.7096
-29.0245
-25.9028
-22.4525
-18.808
-15.1172
-11.5291
-8.18152
-5.19185
-2.6492
-0.609915
0.904154
1.90467
2.43328
2.55607
2.3565
1.92754
1.36367
0.753403
0.17297
-0.318355
-0.681021
-0.895914
-0.96313
-0.899086
-0.732396
-0.499028
-0.237322
0.0166236
0.232739
0.389632
0.475927
0.490304
0.440367
0.340612
0.209828
0.068307
-0.0647587
-0.173373
-0.24606
-0.276258
-0.261763
-0.203311
-0.10254
0.0403501
0.228917
0.472442
0.787321
1.19774
1.73557
2.43962
3.35433
4.52817
6.01203
7.85768
10.1163
12.8366
16.0624
19.8287
24.1567
29.0475
34.4756
40.3825
46.6731
53.2145
59.8398
66.3555
72.5534
78.2259
83.1815
87.2609
90.3493
92.3849
93.3608
93.3216
92.3528
90.5654
88.0785
84.9996
81.4097
77.3517
72.8282
67.8063
62.2309
56.0439
49.2053
41.7144
33.6244
25.0504
16.1673
7.19805
-1.60641
-9.99239
-17.7304
-24.6395
-30.606
-35.5926
-39.6371
-42.8402
-45.3432
-47.2974
-48.8279
-49.9945
-50.7505
-50.904
-50.0823
-47.705
-42.9726
-34.8799
-22.2641
-3.90198
21.341
54.3086
95.3145
143.895
198.596
256.853
314.995
368.439
412.052
440.681
449.787
436.088
398.134
336.693
254.882
158.015
53.1446
-51.6283
-148.011
-228.418
-286.807
-319.323
-324.701
-304.338
-262.07
-203.663
-136.103
-66.7762
-2.6472
50.4719
88.4703
109.255
112.814
101.026
77.2792
45.9339
11.7272
-20.8149
-47.8846
-66.7648
-76.0359
-75.6059
-66.5779
-50.9874
-31.4532
-10.7944
8.33792
23.7684
34.015
38.398
37.0382
30.7563
20.8961
9.10201
-2.91788
-13.611
-21.757
-26.5846
-27.8194
-25.6656
-20.7286
-13.8963
-6.19593
1.35226
7.86712
12.7096
15.547
16.3733
15.488
13.4378
10.932
8.74311
7.60702
8.13374
10.7405
15.6131
22.6996
31.7326
42.2778
53.7972
65.7201
77.5097
88.7181
99.024
108.248
116.348
123.397
129.548
134.992
139.917
144.473
148.743
152.734
156.371
159.509
161.948
163.461
163.813
162.791
160.225
156.006
150.097
142.546
133.481
123.11
111.709
99.6085
87.1736
74.783
62.8056
51.5767
41.3772
32.4163
24.8202
18.6277
13.7933
10.1975
7.66338
5.97713
4.91085
4.24439
3.78436
3.37836
2.9231
2.36621
1.70198
0.962299
0.204291
-0.503418
-1.094
-1.51362
-1.72943
-1.73359
-1.54333
-1.19746
-0.750176
-0.263232
0.202234
0.593181
0.870478
1.01247
1.01603
0.89519
0.677774
0.400603
0.104063
-0.173246
-0.39911
-0.551043
-0.618078
-0.600938
-0.510737
-0.366507
-0.192003
-0.0122427
0.149747
0.275574
0.353218
0.377664
0.350357
0.27753
0.167609
0.0280366
-0.13803
-0.334627
-0.575008
-0.882422
-1.28945
-1.83598
-2.56597
-3.52356
-4.7488
-6.2736
-8.11817
-10.2882
-12.773
-15.5446
-18.5577
-21.7509
-25.0482
-28.3625
-31.5994
-34.6615
-37.4548
-39.8944
-41.9108
-43.4561
-44.5086
-45.0761
-45.1973
-44.9394
-44.3947
-43.6722
-42.8895
-42.1612
-41.5882
-41.2467
-41.1805
-41.3942
-41.8517
-42.478
-43.1647
-43.7798
-44.1795
-44.2221
-43.7813
-42.7585
-41.0919
-38.7614
-35.7893
-32.237
-28.197
-23.7831
-19.1186
-14.3249
-9.51178
-4.76922
-0.163012
4.26697
8.50535
12.5574
16.4435
20.1926
23.8357
27.3995
30.9019
34.349
37.7331
41.0341
44.2206
47.2538
50.0905
52.6874
55.0041
57.0059
58.6655
59.9634
60.888
61.4345
61.603
61.3968
60.8202
59.876
58.5633
56.8756
54.7999
52.317
49.4043
46.0393
42.2062
37.9019
33.143
27.9707
22.4539
16.6891
10.7965
4.91381
-0.813539
-6.24277
-11.2446
-15.7129
-19.5715
-22.7788
-25.3272
-27.2405
-28.567
-29.3694
-29.7123
-29.6464
-29.1887
-28.2975
-26.8432
-24.5741
-21.0827
-15.7773
-7.87072
3.60327
19.7328
41.6193
70.215
106.112
149.303
198.953
253.217
309.174
362.897
409.707
444.6
462.803
460.412
434.995
386.086
315.465
227.164
127.186
22.9525
-77.4647
-166.208
-236.502
-283.397
-304.295
-299.192
-270.611
-223.233
-163.303
-97.8624
-33.9443
22.1994
65.7241
93.616
104.872
100.432
82.8903
56.0371
24.3004
-7.83613
-36.368
-58.1958
-71.4009
-75.3524
-70.6462
-58.902
-42.4548
-23.9896
-6.17017
8.69334
18.8987
23.5062
22.3825
16.1402
5.99116
-6.46057
-19.454
-31.3024
-40.5931
-46.3331
-48.0296
-45.6996
-39.8171
-31.2082
-20.9147
-10.0438
0.374037
9.50323
16.7853
21.9782
25.1527
26.6508
27.0147
26.8988
26.9767
27.8562
30.0111
33.7372
39.1355
46.1216
54.4561
63.791
73.7219
83.8394
93.7724
103.22
111.967
119.888
126.933
133.113
138.477
143.084
146.987
150.218
152.773
154.613
155.663
155.816
154.942
152.9
149.549
144.763
138.451
130.577
121.169
110.344
98.305
85.3481
71.8487
58.2428
44.9984
32.5803
21.4139
11.8491
4.13137
-1.61806
-5.41038
-7.38403
-7.78758
-6.95235
-5.25818
-3.09624
-0.833189
1.21971
2.82934
3.85343
4.24276
4.03322
3.32977
2.28463
1.07285
-0.131826
-1.17794
-1.95215
-2.38862
-2.47148
-2.23102
-1.73461
-1.07423
-0.352572
0.330382
0.888625
1.25808
1.40076
1.30537
0.984803
0.471749
-0.18679
-0.93498
-1.71305
-2.46121
-3.12257
-3.64534
-3.98456
-4.10402
-3.97849
-3.59642
-2.96276
-2.10125
-1.05562
0.111311
1.32077
2.48356
3.50752
4.30586
4.8054
4.95358
4.72307
4.11364
3.15087
1.88223
0.370944
-1.3112
-3.09134
-4.90229
-6.6879
-8.40652
-10.0326
-11.5562
-12.9814
-14.3227
-15.6018
-16.8438
-18.073
-19.3098
-20.5684
-21.8545
-23.1636
-24.481
-25.781
-27.0279
-28.1773
-29.1788
-29.9788
-30.5244
-30.7681
-30.6725
-30.2142
-29.3874
-28.2059
-26.7037
-24.933
-22.9607
-20.8632
-18.7199
-16.6066
-14.5886
-12.7152
-11.0157
-9.49713
-8.1442
-6.92053
-5.77162
-4.62837
-3.41065
-2.0307
-0.395997
1.58786
4.01388
6.96916
10.5288
14.7481
19.6534
25.2324
31.4267
38.1253
45.164
52.3288
59.3654
65.9938
71.9272
76.8936
80.6568
83.0368
83.9243
83.2906
81.1881
77.7443
73.1481
67.6309
61.4445
54.8399
48.0485
41.268
34.655
28.3234
22.3482
16.7728
11.6191
6.8959
2.60717
-1.24357
-4.65138
-7.61108
-10.1205
-12.1846
-13.8203
-15.0594
-15.9501
-16.5562
-16.9517
-17.2116
-17.3963
-17.5296
-17.5685
-17.3674
-16.6378
-14.9101
-11.5059
-5.53143
4.09414
18.5637
39.0528
66.5352
101.556
143.985
192.794
245.904
300.147
351.392
394.848
425.53
438.846
431.23
400.731
347.448
273.748
184.187
85.1577
-15.7339
-110.469
-191.497
-252.577
-289.473
-300.402
-286.187
-250.105
-197.434
-134.798
-69.3673
-8.04373
43.2852
80.3257
100.734
104.222
92.4102
68.476
36.6409
1.58367
-32.1506
-60.67
-81.1293
-91.9596
-92.9228
-84.9993
-70.1392
-50.9213
-30.1698
-10.5798
5.60111
16.8048
22.2646
22.026
16.8545
8.06297
-2.71118
-13.747
-23.4664
-30.6193
-34.4083
-34.5435
-31.2272
-25.0775
-17.006
-8.0697
0.681158
8.34095
14.2551
18.0848
19.8269
19.7881
18.5241
16.751
15.2437
14.7348
15.8245
18.9133
24.1622
31.4847
40.5677
50.919
61.9335
72.9683
83.4204
92.7946
100.757
107.164
112.071
115.713
118.462
120.772
123.108
125.879
129.375
133.722
138.852
144.501
150.231
155.473
159.583
161.918
161.905
159.112
153.301
144.465
132.838
118.881
103.249
86.7231
70.1465
54.3405
40.0307
27.7837
17.9615
10.7002
5.9128
3.31567
2.47419
2.86082
3.91879
5.12346
6.03484
6.33593
5.85387
4.56307
2.57145
0.0930951
-2.58854
-5.16182
-7.32766
-8.83556
-9.51153
-9.27557
-8.14782
-6.24337
-3.75693
-0.939594
1.92958
4.57388
6.74784
8.26163
8.99853
8.92382
8.08456
6.60054
4.64791
2.43765
0.191523
-1.88165
-3.60664
-4.85729
-5.56539
-5.72239
-5.37435
-4.6112
-3.5523
-2.33011
-1.07437
0.101422
1.10982
1.89465
2.43148
2.72392
2.7967
2.68701
2.43549
2.07842
1.64208
1.1399
0.572514
-0.0697457
-0.802655
-1.64325
-2.60531
-3.69591
-4.91372
-6.24895
-7.68491
-9.20056
-10.7734
-12.382
-14.0084
-15.6386
-17.2629
-18.8754
-20.4729
-22.0537
-23.6167
-25.1599
-26.6792
-28.1663
-29.6069
-30.9786
-32.2492
-33.3762
-34.3076
-34.9842
-35.3433
-35.3233
-34.8685
-33.9332
-32.4844
-30.5038
-27.9877
-24.9478
-21.4122
-17.4275
-13.0632
-8.41689
-3.61839
1.16773
5.74493
9.89367
13.3877
16.0174
17.6176
18.0976
17.4683
15.8611
13.5352
10.8688
8.33377
6.45378
5.75156
6.68961
9.61271
14.6999
21.9329
31.0853
41.7365
53.307
65.1128
76.4321
86.5752
94.9497
101.112
104.802
105.952
104.675
101.239
96.0158
89.4362
81.9375
73.9214
65.723
57.5941
49.7009
42.1346
34.9294
28.0866
21.5965
15.4581
9.69104
4.34024
-0.527341
-4.83176
-8.49323
-11.4464
-13.6535
-15.1131
-15.8655
-15.9902
-15.6001
-14.829
-13.8166
-12.69
-11.5426
-10.4103
-9.24505
-7.88424
-6.01832
-3.15965
1.38094
8.50028
19.2798
34.9208
56.628
85.4388
122.004
166.343
217.606
273.894
332.182
388.396
437.67
474.773
494.685
493.247
467.789
417.652
344.5
252.357
147.353
37.1711
-69.7134
-164.937
-241.159
-292.866
-316.967
-313.1
-283.62
-233.258
-168.531
-96.9569
-26.1924
36.802
86.4682
119.151
133.347
129.686
110.665
80.1977
43.0277
4.10471
-32.0058
-61.6107
-82.2248
-92.728
-93.3427
-85.451
-71.291
-53.5808
-35.125
-18.4531
-5.5319
2.41968
5.0011
2.58934
-3.79673
-12.6996
-22.4608
-31.4602
-38.3244
-42.0831
-42.2562
-38.8698
-32.4035
-23.6842
-13.7443
-3.66622
5.56637
13.1903
18.746
22.1146
23.5069
23.413
22.5186
21.6049
21.4434
22.7004
25.8626
31.1906
38.7045
48.201
59.2967
71.4891
84.2265
96.9761
109.28
120.797
131.316
140.761
149.164
156.633
163.307
169.32
174.757
179.633
183.877
187.336
189.791
190.981
190.639
188.529
184.481
178.423
170.399
160.579
149.256
136.821
123.741
110.51
97.6107
85.4645
74.3971
64.6081
56.1581
48.9721
42.8585
37.5418
32.7048
28.0339
23.2624
18.2058
12.785
7.03424
1.09456
-4.80755
-10.3915
-15.3602
-19.4387
-22.4091
-24.1368
-24.5855
-23.8204
-21.9984
-19.3482
-16.1436
-12.674
-9.21523
-6.00513
-3.22643
-0.997514
0.62817
1.65547
2.13545
2.15031
1.79774
1.17703
0.378424
-0.523265
-1.47057
-2.42143
-3.34446
-4.21282
-4.99807
-5.66554
-6.17198
-6.46595
-6.49114
-6.1917
-5.51909
-4.43907
-2.93796
-1.02718
1.25455
3.84157
6.64421
9.55372
12.4488
15.203
17.6915
19.7988
21.4239
22.4863
22.9293
22.7236
21.8698
20.3986
18.3713
15.8765
13.0266
9.95106
6.78861
3.67786
0.747803
-1.89133
-4.15562
-5.99275
-7.38448
-8.34597
-8.92224
-9.18201
-9.2098
-9.09702
-8.93311
-8.79762
-8.75383
-8.84469
-9.09105
-9.49232
-10.0291
-10.6674
-11.3638
-12.0708
-12.742
-13.3364
-13.8224
-14.1791
-14.3978
-14.481
-14.4409
-14.2964
-14.0698
-13.7828
-13.4527
-13.0895
-12.6935
-12.2543
-11.7519
-11.1581
-10.4399
-9.56386
-8.50042
-7.22821
-5.73761
-4.0328
-2.13218
-0.0667322
2.1233
4.39312
6.69862
9.00147
11.2729
13.4956
15.6635
17.7789
19.8477
21.8735
23.8507
25.7599
27.5631
29.2036
30.6068
31.6846
32.3413
32.4801
32.0096
30.8496
28.9354
26.2227
22.691
18.3476
13.2314
7.41649
1.01356
-5.82996
-12.9334
-20.0898
-27.0753
-33.6616
-39.6291
-44.7791
-48.9458
-52.0042
-53.8771
-54.5389
-54.0165
-52.3887
-49.783
-46.3685
-42.3457
-37.9299
-33.3287
-28.7111
-24.1698
-19.6777
-15.0421
-9.86116
-3.49244
4.95905
16.6202
32.7856
54.8011
83.8901
120.93
166.196
219.107
278.021
340.123
401.464
457.179
501.886
530.247
537.622
520.736
478.253
411.162
322.899
219.159
107.418
-3.80774
-105.856
-190.858
-252.606
-287.221
-293.551
-273.235
-230.445
-171.336
-103.288
-34.0383
29.1845
80.4178
115.528
132.525
131.604
114.93
86.2105
50.1233
11.6813
-24.3859
-54.1587
-74.9078
-85.2945
-85.3856
-76.4955
-60.8936
-41.4245
-21.0965
-2.69155
11.5571
20.1866
22.6081
19.0921
10.6481
-1.17524
-14.5363
-27.5585
-38.567
-46.2763
-49.9122
-49.2586
-44.6311
-36.7887
-26.8005
-15.8865
-5.25605
4.0382
11.215
15.8369
17.8369
17.4999
15.4053
12.3399
9.19503
6.8572
6.10839
7.54378
11.5159
18.1095
27.1476
38.2264
50.7729
64.1171
77.5695
90.4949
102.372
112.838
121.706
128.961
134.742
139.296
142.936
145.98
148.711
151.332
153.941
156.517
158.92
160.913
162.183
162.381
161.159
158.209
153.306
146.329
137.285
126.317
113.703
99.8329
85.1855
70.2918
55.6925
41.8965
29.3409
18.3588
9.15774
1.8097
-3.74489
-7.68123
-10.2639
-11.8135
-12.6704
-13.1593
-13.5587
-14.0787
-14.8477
-15.9106
-17.2364
-18.7336
-20.2717
-21.7046
-22.8932
-23.7255
-24.1304
-24.0854
-23.6179
-22.7992
-21.7348
-20.5505
-19.3776
-18.3381
-17.5333
-17.0337
-16.8755
-17.0589
-17.5522
-18.2975
-19.2183
-20.2279
-21.2368
-22.1588
-22.9153
-23.4388
-23.6739
-23.5787
-23.125
-22.2997
-21.1045
-19.5578
-17.6948
-15.5678
-13.2451
-10.809
-8.3514
-5.96873
-3.75493
-1.79431
-0.154391
1.12016
2.01174
2.53147
2.71799
2.63332
2.35607
1.97291
1.56895
1.21841
0.976592
0.874228
0.914913
1.07602
1.31296
1.56631
1.77081
1.86506
1.80062
1.54921
1.10719
0.49658
-0.237302
-1.03133
-1.81231
-2.50593
-3.04577
-3.38116
-3.48292
-3.34635
-2.99116
-2.45839
-1.80482
-1.09558
-0.395929
0.236854
0.760327
1.15179
1.41066
1.55801
1.63358
1.69047
1.78856
1.98713
2.33806
2.88014
3.63534
4.60745
5.78317
7.13542
8.62846
10.2241
11.8886
13.5986
15.3467
17.1441
19.0214
21.0252
23.2123
25.6407
28.3591
31.3959
34.7499
38.3833
42.2197
46.1463
50.021
53.6838
56.9708
59.7292
61.8314
63.1861
63.7455
63.5083
62.5162
60.8476
58.6068
55.9117
52.8812
49.6235
46.2269
42.7536
39.2374
35.6842
32.0766
28.3816
24.5593
20.574
16.4044
12.0523
7.54877
2.9562
-1.63421
-6.10906
-10.3434
-14.2138
-17.6125
-20.4599
-22.7139
-24.3727
-25.4692
-26.055
-26.1729
-25.8187
-24.8953
-23.1631
-20.1956
-15.3486
-7.75607
3.63733
19.9946
42.4515
71.9284
108.904
153.172
203.625
258.11
313.392
365.288
408.964
439.4
451.972
443.082
410.749
355.049
278.349
185.241
82.208
-22.9945
-122.134
-207.392
-272.229
-312.106
-324.969
-311.437
-274.672
-219.955
-154.028
-84.288
-17.9511
38.725
81.0585
106.34
113.971
105.349
83.5287
52.7148
17.6688
-16.901
-46.8851
-69.1971
-82.0333
-84.9546
-78.7937
-65.4183
-47.3904
-27.576
-8.75486
6.71857
17.169
21.7442
20.4428
14.0337
3.88788
-8.24879
-20.507
-31.137
-38.7138
-42.2836
-41.4379
-36.3146
-27.5328
-16.0746
-3.13565
10.0369
22.2957
32.7179
40.6905
45.9502
48.5773
48.9497
47.6668
45.4562
43.0755
41.2236
40.4693
41.2048
43.6249
47.732
53.3618
60.2225
67.9422
76.1167
84.352
92.2993
99.6775
106.286
112.006
116.796
120.675
123.713
126.005
127.654
128.753
129.362
129.496
129.111
128.1
126.297
123.494
119.461
113.982
106.893
98.1158
87.6974
75.8251
62.8338
49.1922
35.4708
22.294
10.2825
-0.00730032
-8.14023
-13.8464
-17.0481
-17.8656
-16.6014
-13.7046
-9.72094
-5.23397
-0.805129
3.08051
6.05664
7.90223
8.54985
8.07632
6.67796
4.63458
2.26745
-0.103321
-2.1968
-3.80046
-4.78803
-5.12485
-4.86138
-4.11702
-3.05713
-1.867
-0.726279
0.213063
0.842758
1.10711
1.00434
0.581224
-0.0777449
-0.864487
-1.66291
-2.36383
-2.8775
-3.14267
-3.13129
-2.84883
-2.33059
-1.6347
-0.833113
-0.00167172
0.789217
1.48221
2.03802
2.43743
2.68022
2.78169
2.76761
2.66847
2.51418
2.32987
2.13338
1.93444
1.7355
1.53364
1.32309
1.09778
0.853453
0.588955
0.30674
0.0124945
-0.285875
-0.579624
-0.860667
-1.12292
-1.36335
-1.58257
-1.78498
-1.97859
-2.17432
-2.3852
-2.62524
-2.90834
-3.24708
-3.65166
-4.12888
-4.68141
-5.30726
-5.99971
-6.74761
-7.53628
-8.34878
-9.1676
-9.97653
-10.7624
-11.5166
-12.2359
-12.9221
-13.5818
-14.2243
-14.8591
-15.4936
-16.1296
-16.7616
-17.3746
-17.9439
-18.4358
-18.8094
-19.0202
-19.0238
-18.7802
-18.2576
-17.4353
-16.3052
-14.8699
-13.1402
-11.1298
-8.84993
-6.30477
-3.48919
-0.390558
3.00553
6.70593
10.6986
14.9415
19.355
23.8182
28.1733
32.2353
35.8088
38.7074
40.7746
41.9022
42.0431
41.2159
39.5012
37.0286
33.9569
30.4517
26.6622
22.7037
18.6472
14.5179
10.3029
5.96692
1.47127
-3.20555
-8.05086
-13.0068
-17.9676
-22.7847
-27.2806
-31.2673
-34.5679
-37.0371
-38.5787
-39.156
-38.7936
-37.5699
-35.5984
-32.9994
-29.8631
-26.2049
-21.9191
-16.7325
-10.1692
-1.53184
10.086
25.7474
46.5688
73.5632
107.434
148.337
195.653
247.794
302.114
354.965
401.908
438.107
458.856
460.19
439.482
395.944
330.937
248.024
152.748
52.1292
-46.0376
-134.023
-205.008
-253.841
-277.595
-275.856
-250.716
-206.472
-149.072
-85.3965
-22.4625
33.3499
76.9504
105.003
116.155
111.026
91.9624
62.6172
27.414
-9.03299
-42.4667
-69.4421
-87.6404
-96.0201
-94.8006
-85.2975
-69.6445
-50.4462
-30.4119
-12.0163
2.77358
12.68
17.1912
16.535
11.5653
3.58311
-5.87786
-15.2703
-23.2298
-28.7272
-31.1617
-30.3902
-26.6959
-20.7057
-13.2737
-5.34713
2.16544
8.50749
13.1577
15.8751
16.7055
15.9522
14.1191
11.8367
9.78215
8.60326
8.85523
10.9549
15.155
21.5373
30.0231
40.3955
52.3301
65.4289
79.254
93.3584
107.312
120.72
133.24
144.59
154.551
162.971
169.757
174.873
178.33
180.175
180.48
179.332
176.821
173.036
168.055
161.952
154.793
146.64
137.565
127.647
116.99
105.721
93.9983
82.0144
69.9906
58.1715
46.8133
36.1682
26.4664
17.8974
10.5931
4.61462
-0.0539501
-3.50551
-5.90142
-7.45614
-8.41623
-9.03608
-9.55303
-10.1649
-11.0121
-12.167
-13.6307
-15.3381
-17.1701
-18.9715
-20.5714
-21.8054
-22.5351
-22.664
-22.1476
-20.9975
-19.2782
-17.0994
-14.6031
-11.9487
-9.29779
-6.8003
-4.58312
-2.74288
-1.34265
-0.412373
0.0476485
0.0614336
-0.328632
-1.06724
-2.09033
-3.32766
-4.70402
-6.13958
-7.55026
-8.84879
-9.94698
-10.7596
-11.2094
-11.2328
-10.7855
-9.84702
-8.42333
-6.54712
-4.2759
-1.68831
1.12017
4.04135
6.95736
9.74265
12.2652
14.3881
15.973
16.8859
17.0064
16.2401
14.5327
11.884
8.36021
4.09988
-0.685782
-5.72184
-10.6869
-15.2379
-19.0405
-21.8008
-23.2961
-23.3996
-22.0963
-19.4878
-15.7851
-11.2891
-6.36226
-1.39349
3.23938
7.20526
10.2495
12.2149
13.0509
12.8124
11.6462
9.76986
7.44357
4.94027
2.51642
0.387074
-1.29242
-2.43659
-3.03133
-3.12749
-2.82766
-2.26854
-1.60109
-0.970895
-0.50113
-0.279658
-0.35149
-0.716964
-1.3353
-2.13245
-3.01177
-3.86532
-4.58422
-5.06623
-5.22002
-4.96625
-4.23663
-2.97258
-1.12528
1.34175
4.44708
8.18358
12.5098
17.3427
22.5543
27.9732
33.3922
38.5829
43.3133
47.3694
50.575
52.8093
54.0169
54.2121
53.4728
51.9281
49.7391
47.0774
44.1037
40.9498
37.7071
34.4231
31.1054
27.7324
24.2687
20.6819
16.9583
13.1137
9.19963
5.30126
1.53032
-1.98798
-5.13061
-7.79301
-9.90324
-11.4318
-12.3952
-12.8531
-12.8981
-12.6392
-12.181
-11.5987
-10.9118
-10.0563
-8.85825
-7.00829
-4.04134
0.676261
7.94574
18.7137
34.0199
54.9065
82.2833
116.751
158.395
206.573
259.733
315.32
369.795
418.814
457.581
481.337
485.948
468.505
427.847
364.911
282.845
186.839
83.6843
-18.8911
-113.041
-191.649
-249.109
-281.93
-289.079
-272.039
-234.563
-182.181
-121.505
-59.4582
-2.49432
44.0728
76.5688
93.2321
94.2445
81.5326
58.38
28.9137
-2.46592
-31.6351
-55.2125
-70.8915
-77.6084
-75.5414
-65.9564
-50.9317
-33.008
-14.8164
1.26853
13.4075
20.478
22.1454
18.8247
11.5499
1.77558
-8.85527
-18.7443
-26.5404
-31.2894
-32.515
-30.2296
-24.8788
-17.2359
-8.26459
1.02917
9.73359
17.1411
22.8192
26.6384
28.7568
29.5701
29.6365
29.5895
30.0506
31.5544
34.4929
39.0832
45.3611
53.1958
62.3223
72.384
82.98
93.7092
104.208
114.175
123.391
131.719
139.098
145.535
151.083
155.823
159.846
163.231
166.037
168.285
169.954
170.977
171.244
170.612
168.915
165.979
161.649
155.801
148.367
139.345
128.813
116.924
103.909
90.058
75.7067
61.2142
46.9417
33.2315
20.3889
8.66685
-1.74475
-10.7247
-18.2219
-24.2525
-28.8927
-32.2684
-34.5427
-35.9012
-36.538
-36.6414
-36.3824
-35.9054
-35.323
-34.7146
-34.1276
-33.5832
-33.0833
-32.6183
-32.1755
-31.7455
-31.3266
-30.9265
-30.562
-30.2552
-30.0298
-29.9051
-29.8918
-29.9877
-30.1761
-30.4255
-30.692
-30.9223
-31.0587
-31.0441
-30.8267
-30.3635
-29.6231
-28.5869
-27.2492
-25.6167
-23.708
-21.5522
-19.1884
-16.6649
-14.0386
-11.3733
-8.73783
-6.20339
-3.83943
-1.70935
0.134131
1.65323
2.82826
3.65928
4.16581
4.38461
4.36575
4.16744
3.8503
3.47173
3.08101
2.71578
2.40004
2.14393
1.94495
1.79055
1.66142
1.53515
1.38976
1.20664
0.972731
0.681757
0.33444
-0.0620578
-0.495337
-0.949326
-1.40595
-1.84672
-2.25402
-2.61219
-2.90824
-3.13229
-3.27789
-3.34209
-3.32534
-3.23138
-3.06686
-2.84101
-2.5651
-2.25191
-1.91517
-1.56889
-1.22676
-0.90152
-0.604357
-0.344411
-0.128328
0.0400248
0.15968
0.232504
0.262937
0.257553
0.224495
0.17288
0.112345
0.0529209
0.00547606
-0.0171394
0.00180458
0.0854009
0.265796
0.586483
1.10344
1.88429
3.00491
4.54317
6.57012
9.13949
12.277
15.971
20.1664
24.7627
29.6179
34.5566
39.3832
43.8977
47.9121
51.266
53.8391
55.5597
56.407
56.4096
55.638
54.1952
52.2036
49.7931
47.0889
44.2023
41.2227
38.2142
35.2134
32.2307
29.2533
26.2499
23.1773
19.9873
16.6351
13.086
9.32299
5.35095
1.19935
-3.07848
-7.4089
-11.7041
-15.8695
-19.8118
-23.4448
-26.6927
-29.4894
-31.7717
-33.468
-34.4805
-34.6626
-33.7925
-31.5437
-27.4582
-20.926
-11.1799
2.68414
21.6496
46.676
78.5457
117.665
163.839
216.057
272.325
329.599
383.869
430.405
464.182
480.434
475.287
446.366
393.291
317.965
224.589
119.379
10.0127
-95.1496
-187.955
-261.351
-310.159
-331.63
-325.707
-294.964
-244.248
-180.052
-109.743
-40.7054
20.4522
68.5624
100.347
114.616
112.205
95.6815
68.882
36.3331
2.65383
-27.9939
-52.3433
-68.3056
-75.0791
-73.0897
-63.7875
-49.34
-32.2725
-15.1061
-0.0379207
11.299
17.9763
19.8039
17.2651
11.3721
3.46957
-4.98235
-12.6165
-18.3312
-21.4099
-21.5774
-18.9912
-14.1774
-7.92218
-1.13898
5.27111
10.5459
14.1611
15.8908
15.8242
14.3398
12.0427
9.67551
8.01509
7.76963
9.48858
13.4963
19.8567
28.3715
38.6113
49.9739
61.7611
73.2641
83.8453
93.0076
100.443
106.051
109.937
112.375
113.753
114.508
115.055
115.719
116.686
117.975
119.432
120.752
121.525
121.286
119.589
116.063
110.475
102.761
93.0437
81.6337
68.9972
55.7153
42.4285
29.7758
18.3355
8.57355
0.804775
-4.82936
-8.36512
-10.0027
-10.0766
-9.01339
-7.28236
-5.34383
-3.6015
-2.36369
-1.81753
-2.0185
-2.89591
-4.27277
-5.89724
-7.48123
-8.74151
-9.43823
-9.40658
-8.57803
-6.98916
-4.77743
-2.16481
0.568382
3.11605
5.18131
6.50989
6.91801
6.31201
4.69773
2.17906
-1.05377
-4.74439
-8.5965
-12.303
-15.575
-18.1675
-19.9001
-20.6699
-20.456
-19.3172
-17.3806
-14.8253
-11.8618
-8.70983
-5.57691
-2.6399
-0.0312328
2.16872
3.93288
5.28243
6.27665
6.99918
7.54271
7.99414
8.42217
8.86871
9.34506
9.83302
10.2905
10.6603
10.881
10.8974
10.6696
10.1794
9.43296
8.45979
7.3089
6.04267
4.72974
3.43798
2.22842
1.15074
0.240411
-0.482602
-1.01395
-1.36433
-1.55845
-1.63382
-1.63912
-1.63207
-1.6764
-1.8379
-2.17944
-2.75537
-3.60576
-4.75127
-6.18931
-7.8923
-9.80846
-11.8652
-13.9748
-16.0422
-17.9732
-19.6825
-21.1007
-22.1791
-22.8921
-23.2363
-23.2279
-22.8975
-22.2843
-21.4295
-20.3707
-19.137
-17.7466
-16.2057
-14.5088
-12.6417
-10.5849
-8.31826
-5.82563
-3.09982
-0.146497
3.01301
6.34044
9.78127
13.2671
16.7197
20.0564
23.1959
26.0641
28.5991
30.7554
32.5054
33.84
34.7664
35.3045
35.4811
35.3229
34.8491
34.0644
32.9532
31.478
29.5817
27.1954
24.251
20.697
16.5166
11.7426
6.46941
0.85627
-4.87761
-10.4679
-15.6286
-20.0812
-23.5867
-25.9758
-27.1729
-27.2097
-26.227
-24.462
-22.2228
-19.852
-17.6825
-15.991
-14.9516
-14.596
-14.7816
-15.1705
-15.2213
-14.1944
-11.173
-5.10039
5.16174
20.7503
42.6897
71.7512
108.285
152.042
202
256.234
311.87
365.153
411.66
446.66
465.609
464.708
441.471
395.2
327.295
241.316
142.79
38.741
-62.9931
-154.573
-229.008
-280.917
-307.114
-306.93
-282.241
-237.196
-177.692
-110.663
-43.2805
17.8343
67.2881
101.413
118.529
118.957
104.805
79.5512
47.5154
13.2729
-18.9063
-45.5271
-64.2005
-73.8068
-74.4892
-67.492
-54.8803
-39.187
-23.0374
-8.80231
1.68226
7.29714
7.71271
3.35277
-4.73483
-15.0752
-25.9992
-35.8795
-43.338
-47.4031
-47.5992
-43.9657
-37.008
-27.594
-16.8137
-5.82425
4.30143
12.7013
18.8147
22.4287
23.6785
23.0069
21.0906
18.7454
16.8221
16.1066
17.2349
20.6308
26.4717
34.6847
44.9705
56.8489
69.7215
82.9401
95.8745
107.971
118.798
128.069
135.651
141.554
145.905
148.911
150.82
151.881
152.309
152.258
151.809
150.963
149.646
147.73
145.046
141.416
136.675
130.696
123.408
114.816
105.003
94.1377
82.4646
70.293
57.9784
45.8989
34.4294
23.9144
14.6433
6.82848
0.590933
-4.0475
-7.16252
-8.91736
-9.54505
-9.32482
-8.55514
-7.52633
-6.49551
-5.66655
-5.17698
-5.09265
-5.41056
-6.06881
-6.9621
-7.96064
-8.92992
-9.74912
-10.3258
-10.6056
-10.5759
-10.2637
-9.72793
-9.04862
-8.31343
-7.60443
-6.98668
-6.50019
-6.1561
-5.93751
-5.80447
-5.70212
-5.57061
-5.35507
-5.01418
-4.526
-3.89035
-3.12746
-2.27342
-1.37323
-0.472738
0.389068
1.18615
1.9088
2.56376
3.17118
3.7588
4.35463
4.9792
5.63903
6.32224
6.99735
7.61553
8.11598
8.43387
8.50936
8.29667
7.77149
6.93579
5.81924
4.47692
2.98368
1.42598
-0.10775
-1.5368
-2.79666
-3.84506
-4.66496
-5.26406
-5.6712
-5.93024
-6.09241
-6.20849
-6.32163
-6.46196
-6.64347
-6.86336
-7.1038
-7.33545
-7.52233
-7.62702
-7.61571
-7.46231
-7.15146
-6.67996
-6.05695
-5.30289
-4.44755
-3.52748
-2.58318
-1.6561
-0.78586
-0.00751596
0.650832
1.17011
1.54186
1.76924
1.86721
1.86188
1.78881
1.69043
1.61269
1.60121
1.69739
1.93499
2.33758
2.91734
3.67534
4.60343
5.6876
6.9123
8.26522
9.74178
11.3484
13.104
15.0387
17.1906
19.5993
22.2988
25.3091
28.6277
32.2236
36.0327
39.9564
43.8637
47.5962
50.9764
53.8179
55.9372
57.1657
57.3619
56.4223
54.2896
50.96
46.4864
40.9781
34.5977
27.5529
20.0851
12.4548
4.92455
-2.25843
-8.87926
-14.7693
-19.816
-23.9674
-27.2301
-29.6627
-31.3635
-32.4552
-33.0684
-33.3253
-33.3257
-33.1366
-32.7845
-32.2512
-31.4701
-30.3202
-28.6157
-26.088
-22.362
-16.9281
-9.11748
1.90729
17.134
37.6393
64.4725
98.4814
140.088
189.043
244.187
303.295
363.026
419.053
466.363
499.746
514.401
506.59
474.251
417.452
338.619
242.478
135.688
26.22
-77.4705
-167.348
-236.679
-280.768
-297.448
-287.279
-253.412
-201.163
-137.348
-69.4651
-4.84345
50.1471
90.7294
114.126
119.711
108.892
84.7782
51.6653
14.4311
-22.0859
-53.6472
-77.0523
-90.4119
-93.2382
-86.3582
-71.6777
-51.8372
-29.8147
-8.52678
9.52176
22.5018
29.4136
30.1222
25.2827
16.1754
4.4806
-7.97235
-19.4487
-28.5148
-34.1847
-35.9969
-34.0162
-28.7694
-21.1289
-12.1638
-2.98048
5.42586
12.2914
17.1624
19.9261
20.7946
20.2483
18.9494
17.6405
17.0427
17.7667
20.2469
24.705
31.1446
39.3727
49.043
59.7124
70.9004
82.1442
93.0432
103.287
112.669
121.081
128.497
134.953
140.515
145.256
149.231
152.467
154.954
156.646
157.47
157.34
156.164
153.867
150.396
145.729
139.881
132.902
124.869
115.886
106.071
95.5594
84.4956
73.0378
61.359
49.6498
38.1185
26.9883
16.4897
6.84812
-1.73174
-9.08269
-15.0913
-19.7104
-22.9654
-24.9544
-25.8395
-25.8328
-25.1757
-24.1172
-22.8909
-21.6959
-20.6818
-19.9402
-19.5036
-19.3507
-19.4165
-19.6072
-19.8159
-19.9384
-19.8866
-19.5988
-19.0452
-18.2293
-17.1845
-15.9682
-14.6532
-13.3181
-12.0388
-10.8802
-9.89108
-9.10079
-8.51837
-8.13391
-7.92158
-7.84351
-7.85436
-7.90562
-7.94961
-7.94279
-7.84838
-7.63837
-7.29482
-6.81072
-6.19014
-5.44761
-4.60664
-3.69719
-2.75224
-1.80371
-0.878381
0.00555379
0.840572
1.62995
2.38574
3.12485
3.86371
4.61252
5.37008
6.12016
6.83019
7.45256
7.92861
8.19474
8.18998
7.86396
7.18433
6.14259
4.75761
3.0764
1.17196
-0.861597
-2.91606
-4.87761
-6.63594
-8.09299
-9.1707
-9.81697
-10.0094
-9.75652
-9.09669
-8.09423
-6.83385
-5.41334
-3.9353
-2.49875
-1.19105
-0.0811779
0.785383
1.38939
1.73818
1.86355
1.81733
1.66529
1.47989
1.33286
1.28828
1.39717
1.69412
2.19656
2.90669
3.81601
4.91182
6.18484
7.63675
9.28636
11.173
13.3561
15.9106
18.9173
22.4507
26.564
31.2746
36.5523
42.3119
48.4123
54.6621
60.8327
66.6763
71.9472
76.4242
79.9295
82.3436
83.6123
83.7449
82.8049
80.8931
78.1274
74.6219
70.4701
65.7353
60.4496
54.6222
48.2546
41.3602
33.9832
26.2142
18.1976
10.1302
2.24968
-5.18418
-11.9147
-17.7146
-22.4112
-25.906
-28.1869
-29.3317
-29.5013
-28.9248
-27.8762
-26.6438
-25.4944
-24.6313
-24.1497
-23.99
-23.8926
-23.3599
-21.6336
-17.6948
-10.3
1.9386
20.421
46.3745
80.6245
123.344
173.812
230.231
289.648
348.022
400.469
441.688
466.521
470.601
450.989
406.703
339.05
251.689
150.406
42.5941
-63.4765
-159.533
-238.193
-293.761
-322.834
-324.629
-301.005
-256.178
-196.173
-128.093
-59.2971
3.40608
54.4565
90.0509
108.415
109.823
96.3815
71.6139
39.9254
6.00691
-25.736
-51.6661
-69.2595
-77.2832
-75.8013
-66.0244
-50.0369
-30.4483
-10.0169
8.70291
23.6508
33.4583
37.5392
36.0749
29.9048
20.3489
8.99035
-2.54984
-12.816
-20.6763
-25.4209
-26.7954
-24.9711
-20.466
-14.0304
-6.51844
1.23711
8.53085
14.8597
19.9615
23.8173
26.621
28.7248
30.5703
32.6156
35.2678
38.8285
43.4591
49.1663
55.8093
63.1243
70.7642
78.3445
85.4916
91.8863
97.2985
101.608
104.811
107.013
108.403
109.223
109.733
110.165
110.691
111.394
112.25
113.129
113.803
113.968
113.282
111.399
108.017
102.913
95.9795
87.2491
76.9039
65.2711
52.8039
40.0469
27.5911
16.0221
5.86745
-2.45116
-8.65568
-12.635
-14.451
-14.3282
-12.6257
-9.79912
-6.35214
-2.78748
0.440238
2.96368
4.53065
5.01854
4.43459
2.90302
0.641393
-2.07062
-4.92616
-7.62577
-9.90808
-11.5736
-12.4997
-12.6458
-12.0494
-10.8136
-9.08898
-7.05263
-4.88672
-2.75994
-0.813691
0.845907
2.15
3.06396
3.58102
3.71444
3.49028
2.94228
2.10963
1.03761
-0.219578
-1.59506
-3.00629
-4.35411
-5.52521
-6.39835
-6.85453
-6.78991
-6.13025
-4.8447
-2.95681
-0.550743
2.2289
5.18437
8.07911
10.658
12.6716
13.902
14.1869
13.4398
11.6621
8.94767
5.47634
1.49889
-2.68636
-6.76216
-10.4232
-13.4056
-15.5119
-16.6286
-16.7349
-15.9015
-14.2803
-12.0864
-9.57478
-7.01442
-4.66241
-2.74138
-1.42197
-0.811771
-0.951369
-1.81691
-3.328
-5.35919
-7.75348
-10.3359
-12.9267
-15.3522
-17.4549
-19.1014
-20.188
-20.6454
-20.4417
-19.5828
-18.1116
-16.1041
-13.664
-10.9146
-7.98895
-5.01981
-2.12889
0.58259
3.04131
5.20667
7.07236
8.66479
10.0387
11.2706
12.4509
13.6755
15.0375
16.6197
18.4882
20.6859
23.2287
26.102
29.2586
32.6179
36.0679
39.4676
42.6532
45.4457
47.6616
49.1249
49.6801
49.2049
47.621
44.9018
41.0766
36.2297
30.4959
24.0516
17.1035
9.8759
2.59609
-4.51825
-11.2712
-17.4984
-23.0734
-27.9118
-31.9707
-35.2462
-37.7678
-39.5905
-40.7871
-41.4396
-41.6312
-41.4403
-40.9341
-40.1646
-39.1617
-37.9258
-36.4144
-34.523
-32.0594
-28.713
-24.0227
-17.3538
-7.89085
5.3388
23.3996
47.3322
77.9845
115.799
160.58
211.27
265.797
321.029
372.884
416.615
447.273
460.281
452.07
420.668
366.15
290.856
199.337
97.9984
-5.51068
-103.098
-187.112
-251.191
-290.964
-304.513
-292.54
-258.213
-206.739
-144.699
-79.2604
-17.3574
35.0567
73.5953
95.8042
101.275
91.5097
69.578
39.6114
6.22214
-26.0849
-53.4325
-72.968
-83.098
-83.5495
-75.2642
-60.1566
-40.7775
-19.9339
-0.315836
15.8234
26.901
32.1318
31.5427
25.8855
16.4691
4.93907
-6.96149
-17.6186
-25.7344
-30.4556
-31.4325
-28.8085
-23.1481
-15.3182
-6.34243
2.75024
11.0631
17.9378
23.0189
26.2708
27.9509
28.5443
28.6744
29.0027
30.1323
32.5287
36.4659
42.0048
49.0018
57.1456
66.013
75.1358
84.0666
92.4358
99.9909
106.616
112.327
117.249
121.58
125.539
129.326
133.074
136.82
140.492
143.912
146.809
148.85
149.682
148.968
146.429
141.874
135.227
126.537
115.977
103.841
90.5162
76.4657
62.194
48.2152
35.0191
23.0391
12.6234
4.01221
-2.67749
-7.45789
-10.4658
-11.9478
-12.2354
-11.7133
-10.7826
-9.82375
-9.16248
-9.0423
-9.60713
-10.8951
-12.8439
-15.3068
-18.0763
-20.9122
-23.5715
-25.8341
-27.5251
-28.5281
-28.7912
-28.3256
-27.1966
-25.511
-23.401
-21.0085
-18.4699
-15.9052
-13.4093
-11.0488
-8.86151
-6.85978
-5.03575
-3.36771
-1.82656
-0.381411
0.996145
2.32944
3.6356
4.92568
6.20541
7.47632
8.73659
9.98151
11.2034
12.391
13.529
14.5971
15.5703
16.419
17.1113
17.6142
17.8973
17.9351
17.7101
17.2148
16.4531
15.4402
14.2022
12.7736
11.1946
9.50834
7.75735
5.98066
4.21151
2.47577
0.79124
-0.832083
-2.39089
-3.88679
-5.32404
-6.70712
-8.03842
-9.31632
-10.5339
-11.6784
-12.7317
-13.6717
-14.4739
-15.1142
-15.5711
-15.8282
-15.8761
-15.7134
-15.347
-14.792
-14.0699
-13.2073
-12.2337
-11.1792
-10.0728
-8.94082
-7.80615
-6.68822
-5.60337
-4.5657
-3.58782
-2.68111
-1.85487
-1.11432
-0.45718
0.130471
0.678354
1.23505
1.86888
2.66576
3.72365
5.14379
7.0196
9.42447
12.4003
15.9484
20.0241
24.5368
29.3544
34.3134
39.2323
43.9272
48.2276
51.9906
55.1121
57.5335
59.2423
60.2688
60.6771
60.5524
59.9851
59.0547
57.8133
56.2729
54.3971
52.1005
49.2555
45.7083
41.3014
35.9017
29.4288
21.8813
13.3553
4.05275
-5.72297
-15.5846
-25.09
-33.7805
-41.222
-47.0464
-50.9858
-52.8977
-52.7756
-50.747
-47.0562
-42.0363
-36.0729
-29.5627
-22.8697
-16.2825
-9.9737
-3.96048
1.93086
8.09583
15.1729
24.0472
35.8251
51.7668
73.1667
101.175
136.569
179.496
229.227
283.962
340.763
395.63
443.767
480.028
499.491
498.109
473.332
424.6
353.636
264.454
163.078
56.9898
-45.6374
-136.816
-209.62
-258.941
-282.037
-278.784
-251.632
-205.245
-145.905
-80.7548
-16.9689
39.0271
82.2068
109.389
119.436
113.21
93.2845
63.5017
28.4048
-7.35155
-39.5502
-64.8564
-81.1134
-87.4692
-84.3342
-73.1933
-56.3084
-36.3596
-16.0749
2.10525
16.2916
25.3132
28.7776
27.0291
21.0201
12.1228
1.90877
-8.07043
-16.4761
-22.3269
-25.0824
-24.6619
-21.4032
-15.973
-9.2437
-2.1572
4.40838
9.75152
13.4278
15.2909
15.4916
14.4385
12.7281
11.0555
10.1184
10.5266
12.7297
16.9696
23.2628
31.413
41.0492
51.6827
62.7738
73.798
84.3028
93.9489
102.53
109.976
116.329
121.719
126.32
130.314
133.851
137.023
139.847
142.261
144.125
145.24
145.371
144.272
141.72
137.542
131.642
124.018
114.772
104.109
92.326
79.7876
66.9007
54.0799
41.7156
30.1444
19.6271
10.3344
2.34291
-4.36024
-9.86448
-14.3175
-17.9033
-20.8196
-23.2568
-25.3795
-27.3141
-29.1401
-30.8887
-32.5456
-34.0589
-35.3505
-36.3296
-36.9071
-37.009
-36.5876
-35.6302
-34.1624
-32.2475
-29.9822
-27.4871
-24.8957
-22.3415
-19.9458
-17.8066
-15.9909
-14.5299
-13.4194
-12.623
-12.0788
-11.7087
-11.4288
-11.1593
-10.8332
-10.403
-9.84447
-9.15693
-8.3608
-7.49249
-6.59773
-5.72406
-4.91391
-4.19889
-3.59612
-3.10698
-2.71809
-2.40434
-2.13331
-1.87052
-1.58467
-1.25225
-0.861023
-0.411932
0.080784
0.591159
1.08457
1.52189
1.86413
2.07722
2.13611
2.02812
1.75495
1.33331
0.79388
0.178932
-0.461502
-1.07435
-1.60873
-2.021
-2.27924
-2.36641
-2.28193
-2.04145
-1.67482
-1.22257
-0.731232
-0.24826
0.183046
0.527842
0.7629
0.878263
0.877302
0.775268
0.596589
0.371351
0.131427
-0.0931834
-0.277263
-0.401965
-0.454597
-0.426315
-0.307772
-0.083295
0.275373
0.814325
1.60025
2.71949
4.27272
6.36566
9.09665
12.5431
16.7487
21.7134
27.3882
33.6742
40.4282
47.471
54.6006
61.6047
68.274
74.4134
79.8511
84.4441
88.0825
90.6916
92.2324
92.7013
92.1298
90.5821
88.1528
84.9618
81.1485
76.8629
72.2561
67.4681
62.6178
57.7928
53.044
48.3837
43.7893
39.2123
34.5904
29.8627
24.9843
19.9381
14.7434
9.45807
4.17558
-0.983257
-5.88262
-10.3861
-14.3708
-17.7399
-20.4307
-22.4168
-23.7034
-24.3135
-24.2655
-23.5408
-22.0443
-19.5598
-15.7073
-9.90942
-1.37879
10.8614
27.912
50.8785
80.696
117.907
162.415
213.25
268.399
324.74
378.141
423.736
456.372
471.206
464.352
433.512
378.466
301.352
206.65
100.864
-8.08072
-111.651
-201.632
-271.04
-314.901
-330.791
-319.069
-282.781
-227.242
-159.37
-86.8585
-17.2906
42.6814
88.006
115.671
124.878
116.943
94.9568
63.2743
26.8872
-9.21585
-40.6326
-64.0076
-77.3243
-80.0095
-72.8547
-57.7826
-37.4992
-15.0878
6.40347
24.3275
36.7207
42.4745
41.3881
34.1071
21.967
6.77076
-9.46816
-24.782
-37.4741
-46.2908
-50.5229
-50.0338
-45.2164
-36.8926
-26.1715
-14.2886
-2.44521
8.32986
17.2851
24.0057
28.4263
30.7985
31.6238
31.5614
31.3265
31.5919
32.907
35.6398
39.9509
45.7958
52.9543
61.0787
69.752
78.5474
87.0797
95.0438
102.236
108.557
114.001
118.632
122.554
125.881
128.704
131.079
133.006
134.427
135.234
135.282
134.399
132.413
129.171
124.554
118.499
111.007
102.152
92.0859
81.0342
69.2903
57.2017
45.1528
33.5422
22.7575
13.1481
5.00007
-1.48603
-6.21116
-9.18531
-10.5259
-10.4464
-9.23698
-7.2374
-4.80717
-2.29417
-0.00599799
1.81349
3.0003
3.47786
3.25568
2.41991
1.11725
-0.46574
-2.12558
-3.66479
-4.9128
-5.74326
-6.08666
-5.93743
-5.35519
-4.45967
-3.41952
-2.43532
-1.71762
-1.46171
-1.82145
-2.88505
-4.65618
-7.04349
-9.86097
-12.8403
-15.655
-17.9538
-19.4005
-19.7152
-18.7115
-16.3257
-12.6326
-7.84566
-2.30107
3.57321
9.30024
14.4034
18.4563
21.1278
22.2156
21.6658
19.5755
16.1795
11.8213
6.91507
1.90094
-2.80003
-6.82602
-9.90618
-11.8808
-12.7087
-12.4616
-11.308
-9.4877
-7.28181
-4.9806
-2.85352
-1.1239
0.0492601
0.581267
0.463092
-0.245155
-1.42728
-2.92862
-4.57592
-6.19742
-7.64074
-8.78724
-9.56141
-9.93477
-9.92427
-9.58583
-9.00398
-8.279
-7.51332
-6.79852
-6.20461
-5.77244
-5.50999
-5.39265
-5.36693
-5.35682
-5.27161
-5.01382
-4.48636
-3.59803
-2.26734
-0.424944
1.98476
5.00192
8.64895
12.9273
17.8133
23.2543
29.1648
35.4247
41.8801
48.3468
54.6179
60.4732
65.6921
70.066
73.412
75.5833
76.4786
76.0476
74.2929
71.2691
67.0795
61.8699
55.8215
49.1428
42.0602
34.8086
27.6205
20.7154
14.2884
8.50018
3.46689
-0.746449
-4.12996
-6.7287
-8.63811
-9.99517
-10.9661
-11.7317
-12.4718
-13.3501
-14.4994
-16.0086
-17.9089
-20.1584
-22.6247
-25.0634
-27.0947
-28.1819
-27.616
-24.5154
-17.8503
-6.5003
10.6478
34.5584
65.8667
104.674
150.343
201.331
255.098
308.138
356.155
394.403
418.16
423.304
406.904
367.736
306.649
226.688
132.95
32.161
-67.9799
-159.61
-235.563
-290.159
-319.83
-323.49
-302.609
-260.98
-204.229
-139.118
-72.7563
-11.8027
38.2321
73.5073
92.1464
94.2805
81.8564
58.246
27.7231
-5.12217
-35.9516
-61.1664
-78.2587
-85.9992
-84.4521
-74.8315
-59.2331
-40.2847
-20.7664
-3.25019
10.1994
18.2325
20.3127
16.707
8.37789
-3.19846
-16.2581
-28.9877
-39.7444
-47.2336
-50.6271
-49.6145
-44.3885
-35.5746
-24.1171
-11.1423
2.18586
14.7975
25.8255
34.6793
41.082
45.0693
46.9554
47.2745
46.703
45.9758
45.8033
46.7975
49.4141
53.9152
60.3541
68.5821
78.2769
88.9862
100.182
111.322
121.904
131.515
139.865
146.802
152.309
156.48
159.486
161.526
162.784
163.386
163.374
162.687
161.175
158.613
154.744
149.323
142.163
133.181
122.423
110.083
96.4924
82.1032
67.4471
53.09
39.5817
27.4075
16.9483
8.45235
2.0215
-2.38749
-4.94776
-5.93586
-5.6977
-4.611
-3.04855
-1.34594
0.223235
1.46307
2.26114
2.58506
2.47121
2.00781
1.31502
0.524432
-0.239455
-0.874108
-1.3089
-1.50967
-1.47805
-1.24647
-0.869982
-0.416368
0.0438908
0.446543
0.74041
0.89163
0.88525
0.724499
0.42834
0.0279931
-0.436906
-0.922041
-1.3818
-1.77232
-2.0543
-2.1958
-2.17492
-1.98234
-1.62318
-1.1179
-0.501656
0.177944
0.864838
1.4998
2.02652
2.3977
2.58037
2.55978
2.3412
1.94948
1.42626
0.825226
0.205872
-0.373366
-0.861849
-1.22244
-1.43553
-1.50075
-1.43638
-1.27629
-1.06499
-0.851384
-0.682064
-0.595034
-0.61473
-0.749002
-0.988469
-1.3083
-1.67218
-2.03777
-2.36302
-2.61225
-2.76115
-2.8
-2.73468
-2.58522
-2.38228
-2.16216
-1.96106
-1.80961
-1.72849
-1.72582
-1.79662
-1.9244
-2.08446
-2.24831
-2.38845
-2.48277
-2.51784
-2.49072
-2.40901
-2.28933
-2.15438
-2.02918
-1.93697
-1.89498
-1.91046
-1.97696
-2.07087
-2.1485
-2.14407
-1.96934
-1.51582
-0.660428
0.725228
2.76196
5.54776
9.14186
13.5503
18.7158
24.5128
30.7509
37.1849
43.5332
49.4999
54.8011
59.1899
62.4782
64.5521
65.3794
65.0071
63.5516
61.1797
58.0866
54.4707
50.5112
46.3492
42.0772
37.7354
33.3171
28.7805
24.0652
19.11
13.8697
8.32803
2.50577
-3.53758
-9.70744
-15.8824
-21.9252
-27.6952
-33.0591
-37.9001
-42.1215
-45.6456
-48.4036
-50.3191
-51.282
-51.1156
-49.5399
-46.1348
-40.3117
-31.3015
-18.1706
0.124088
24.6329
56.2585
95.5551
142.498
196.258
255.018
315.893
374.986
427.614
468.71
493.365
497.446
478.211
434.821
368.656
283.377
184.691
79.8507
-23.0749
-116.054
-191.967
-245.382
-273.136
-274.642
-251.89
-209.145
-152.394
-88.6111
-24.947
32.063
77.1702
106.893
119.757
116.293
98.7878
70.8682
36.9518
1.6603
-30.7391
-56.7969
-74.2042
-81.9468
-80.2905
-70.6137
-55.1216
-36.4894
-17.4837
-0.609421
12.1757
19.6511
21.4139
17.8502
10.0109
-0.582964
-12.1751
-23.016
-31.5818
-36.7441
-37.876
-34.8853
-28.1788
-18.5677
-7.13009
4.94678
16.5254
26.6567
34.6827
40.2947
43.5414
44.7909
44.6556
43.8918
43.2897
43.5682
45.2877
48.7907
54.1752
61.3011
69.8264
79.2652
89.0584
98.6465
107.535
115.343
121.835
126.927
130.671
133.228
134.818
135.678
136.016
135.969
135.579
134.786
133.428
131.27
128.031
123.43
117.23
109.283
99.5634
88.1949
75.4549
61.7642
47.658
33.7398
20.6252
8.87946
-1.04141
-8.83948
-14.4063
-17.8324
-19.3922
-19.5068
-18.6889
-17.4767
-16.3661
-15.7511
-15.8784
-16.8246
-18.4961
-20.6526
-22.9494
-24.9919
-26.3951
-26.8389
-26.1129
-24.1444
-21.0071
-16.9104
-12.1715
-7.17497
-2.3254
1.99983
5.49244
7.94443
9.2655
9.48561
8.74354
7.26415
5.32824
3.23945
1.29251
-0.253743
-1.19619
-1.39926
-0.799036
0.599111
2.72748
5.46571
8.65148
12.091
15.569
18.8579
21.7278
23.957
25.3443
25.7225
24.9731
23.0398
19.9397
15.7687
10.7019
4.98467
-1.08221
-7.16502
-12.9233
-18.0382
-22.2383
-25.3225
-27.1743
-27.7684
-27.1679
-25.513
-23.0028
-19.8727
-16.3701
-12.7314
-9.1625
-5.82556
-2.83165
-0.240844
1.93202
3.70694
5.12581
6.23916
7.09435
7.72698
8.15626
8.38474
8.40171
8.18942
7.73057
7.01559
6.04857
4.85072
3.46103
1.93414
0.336021
-1.2618
-2.78843
-4.17916
-5.37975
-6.34874
-7.05789
-7.49086
-7.64061
-7.50638
-7.09077
-6.39778
-5.43195
-4.19894
-2.70728
-0.970783
0.988716
3.13901
5.43591
7.82276
10.2312
12.583
14.7933
16.7745
18.4408
19.7127
20.5226
20.8185
20.5682
19.7618
18.4135
16.5613
14.2655
11.6054
8.67307
5.56602
2.37716
-0.816737
-3.96712
-7.06493
-10.1489
-13.3093
-16.6842
-20.4494
-24.7984
-29.9176
-35.9555
-42.9913
-51.0075
-59.8687
-69.3135
-78.9607
-88.3322
-96.8914
-104.093
-109.442
-112.546
-113.167
-111.255
-106.957
-100.612
-92.719
-83.8844
-74.7604
-65.9728
-58.0491
-51.3499
-46.009
-41.8843
-38.525
-35.1568
-30.6941
-23.7857
-12.9046
3.51309
26.8767
58.2051
97.8671
145.331
198.969
255.967
312.385
363.399
403.724
428.186
432.384
413.343
370.066
303.872
218.475
119.743
15.1712
-86.8841
-178.108
-251.15
-300.448
-322.836
-317.863
-287.791
-237.264
-172.714
-101.575
-31.4213
30.8726
79.837
111.907
125.668
121.824
102.937
72.9518
36.6088
-1.18653
-35.9584
-64.1465
-83.4345
-92.8942
-92.9462
-85.1565
-71.9118
-56.0228
-40.3145
-27.2528
-18.6543
-15.5053
-17.9055
-25.1308
-35.7977
-48.0992
-60.0761
-69.8862
-76.0367
-77.5543
-74.0754
-65.8526
-53.6823
-38.7701
-22.5553
-6.51999
7.99263
19.9292
28.6305
33.8812
35.9031
35.2983
32.9525
29.9142
27.2643
25.9933
26.8978
30.5076
37.0475
46.4358
58.3155
72.1129
87.1123
102.54
117.643
131.761
144.372
155.128
163.855
170.54
175.304
178.354
179.939
180.31
179.682
178.21
175.982
173.017
169.289
164.736
159.298
152.93
145.629
137.438
128.454
118.817
108.701
98.295
87.7898
77.3606
67.159
57.3099
47.9127
39.0477
30.7837
23.1856
16.3194
10.2529
5.05251
0.776006
-2.53727
-4.87653
-6.26818
-6.78104
-6.52675
-5.65492
-4.34332
-2.78411
-1.16795
0.332124
1.57501
2.46223
2.94379
3.01879
2.73063
2.15792
1.40223
0.574296
-0.219491
-0.88889
-1.36858
-1.62316
-1.64812
-1.46709
-1.12592
-0.684787
-0.209342
0.237805
0.604299
0.853059
0.964605
0.936558
0.780543
0.517129
0.169714
-0.241589
-0.704986
-1.22008
-1.79848
-2.46168
-3.23674
-4.15026
-5.22168
-6.45714
-7.84479
-9.35248
-10.9283
-12.504
-14.0011
-15.3381
-16.4398
-17.2445
-17.7113
-17.8242
-17.5941
-17.0569
-16.2704
-15.3081
-14.2525
-13.1879
-12.1934
-11.3379
-10.6757
-10.2436
-10.0603
-10.126
-10.4231
-10.9171
-11.5581
-12.2823
-13.0138
-13.6681
-14.1561
-14.3896
-14.2885
-13.7884
-12.8479
-11.4551
-9.6316
-7.43348
-4.94883
-2.29149
0.408182
3.01472
5.39964
7.45294
9.09246
10.2702
10.975
11.2311
11.0938
10.6419
9.96855
9.17189
8.34625
7.57475
6.92435
6.44342
6.16178
6.09282
6.23689
6.58516
7.12272
7.83013
8.68274
9.64764
10.6787
11.7108
12.6548
13.3953
13.7928
13.6911
12.9309
11.3675
8.89162
5.44992
1.06244
-4.16637
-10.045
-16.3023
-22.6046
-28.5809
-33.8547
-38.0778
-40.9628
-42.3104
-42.0283
-40.1397
-36.7791
-32.1761
-26.6286
-20.4658
-14.0048
-7.50361
-1.11256
5.17203
11.5474
18.4335
26.4839
36.5739
49.7553
67.1717
89.9298
118.927
154.64
196.907
244.715
296.053
347.87
396.172
436.291
463.313
472.642
460.616
425.111
366.008
285.462
187.891
79.671
-31.4393
-137.086
-229.211
-300.935
-347.314
-365.864
-356.792
-322.913
-269.257
-202.439
-129.868
-58.9116
3.89024
53.4663
86.6405
102.31
101.37
86.4165
61.2786
30.4514
-1.49294
-30.4449
-53.1876
-67.676
-73.1469
-70.0631
-59.9153
-44.9199
-27.6609
-10.7233
3.63498
13.7366
18.6411
18.1942
12.9732
4.14847
-6.71712
-17.8975
-27.732
-34.8239
-38.1882
-37.3341
-32.2792
-23.4985
-11.8225
1.69961
15.95
29.8854
42.656
53.6873
62.7166
69.7857
75.1937
79.4206
83.0361
86.6054
90.6062
95.3682
101.038
107.576
114.777
122.314
129.796
136.826
143.054
148.222
152.183
154.912
156.485
157.056
156.818
155.966
154.655
152.976
150.936
148.458
145.386
141.512
136.604
130.443
122.862
113.774
103.205
91.303
78.3398
64.7017
50.8616
37.3437
24.6796
13.362
3.80128
-3.71172
-9.03036
-12.1633
-13.2702
-12.642
-10.6695
-7.80305
-4.50793
-1.22098
1.68722
3.94071
5.37464
5.93875
5.68857
4.76614
3.37333
1.74152
0.101133
-1.34517
-2.44319
-3.09981
-3.28702
-3.0377
-2.4346
-1.59449
-0.649938
0.268716
1.04924
1.60932
1.90344
1.9244
1.69996
1.28557
0.754316
0.18592
-0.343989
-0.772881
-1.05773
-1.1783
-1.13719
-0.957049
-0.675559
-0.339092
0.0040556
0.309895
0.543645
0.682521
0.715725
0.640963
0.45706
0.152724
-0.307705
-0.999788
-2.05324
-3.66193
-6.0868
-9.64943
-14.7153
-21.6672
-30.8709
-42.6367
-57.1809
-74.5936
-94.8148
-117.625
-142.648
-169.37
-197.17
-225.354
-253.203
-280.012
-305.134
-328.008
-348.192
-365.372
-379.371
-390.146
-397.773
-402.426
-404.356
-403.859
-401.247
-396.82
-390.845
-383.537
-375.048
-365.467
-354.826
-343.109
-330.274
-316.267
-301.047
-284.602
-266.968
-248.239
-228.575
-208.2
-187.393
-166.475
-145.791
-125.683
-106.474
-88.4389
-71.7977
-56.6982
-43.2139
-31.3451
-21.026
-12.1361
-4.51494
2.02229
7.66855
12.6104
17.0155
21.024
24.7425
28.2423
31.561
34.7071
37.6665
40.4098
42.8991
45.0929
46.9478
48.4169
49.4471
49.9747
49.924
49.2093
47.7421
45.4442
42.2643
38.1973
33.3025
27.7161
21.656
15.4167
9.35201
3.84852
-0.709069
-3.97534
-5.67987
-5.65556
-3.85445
-0.346405
4.70258
11.0739
18.5598
27.0418
36.5733
47.4522
60.2651
75.8847
95.4032
119.993
150.699
188.169
232.374
282.345
335.995
390.072
440.291
481.658
508.964
517.407
503.268
464.515
401.274
316.046
213.643
100.816
-14.3748
-123.392
-218.134
-291.813
-339.689
-359.563
-351.962
-320.013
-269.009
-205.753
-137.746
-72.3436
-15.9703
26.5064
52.1851
60.2821
52.029
30.3452
-0.65687
-36.2614
-71.755
-102.974
-126.732
-141.092
-145.451
-140.467
-127.829
-109.931
-89.4925
-69.1831
-51.2897
-37.4739
-28.6343
-24.8812
-25.6164
-29.6954
-35.6422
-41.8845
-46.9755
-49.7766
-49.5799
-46.1628
-39.7729
-31.0542
-20.9281
-10.4507
-0.665596
7.52755
13.4742
16.8259
17.5567
15.9385
12.481
7.84865
2.76577
-2.07563
-6.09542
-8.88301
-10.2284
-10.1253
-8.74945
-6.416
-3.52523
-0.503078
2.25487
4.42958
5.81013
6.30843
5.95692
4.89147
3.32312
1.50349
-0.311202
-1.89288
-3.06722
-3.72985
-3.85195
-3.47582
-2.70195
-1.67016
-0.537833
0.541781
1.43839
2.0586
2.35375
2.32126
2.00006
1.46126
0.795797
0.100866
-0.532951
-1.03239
-1.34889
-1.46205
-1.37924
-1.13169
-0.768034
-0.34636
0.0741192
0.440632
0.712799
0.866398
0.894695
0.807434
0.627863
0.388371
0.125449
-0.125341
-0.333739
-0.478031
-0.546871
-0.53961
-0.465241
-0.340244
-0.185718
-0.0242355
0.123152
0.2394
0.313193
0.339755
0.32076
0.263433
0.179056
0.0811134
-0.0166339
-0.101911
-0.165316
-0.201194
-0.207955
-0.187841
-0.146233
-0.090649
-0.0295636
0.0287552
0.0772653
0.110906
0.127025
0.125454
0.108269
0.0792903
0.0434142
0.00588616
-0.028398
-0.0554701
-0.0726905
-0.0789391
-0.0745947
-0.0613285
-0.0417564
-0.0190099
0.00371286
0.0235562
0.0383307
0.0467244
0.0484036
0.0440515
0.0354422
0.0256946
0.0198519
0.0258748
0.0560067
0.128305
0.26798
0.508104
0.889304
1.45819
2.26457
3.35785
4.78325
6.57889
8.77468
11.3937
14.4566
17.9872
22.0199
26.6043
31.8071
37.7078
44.389
51.9211
60.3436
69.6461
79.7518
90.5082
101.686
112.99
124.075
134.579
144.151
152.484
159.348
164.605
168.224
170.278
170.93
170.412
168.994
166.954
164.544
161.968
159.359
156.765
154.151
151.399
148.325
144.689
140.224
134.659
127.741
119.263
109.08
97.1292
83.437
68.1214
51.3897
33.5308
14.9024
-4.08326
-22.977
-41.3107
-58.6174
-74.4516
-88.4116
-100.161
-109.454
-116.151
-120.241
-121.849
-121.238
-118.791
-114.997
-110.398
-105.549
-100.947
-96.9721
-93.8162
-91.4269
-89.4627
-87.2706
-83.8938
-78.1175
-68.56
-53.8104
-32.6135
-4.08626
32.0541
75.2848
124.134
176.137
227.925
275.458
314.391
340.548
350.436
341.745
313.742
267.507
205.955
133.628
56.2755
-19.7275
-88.0631
-143.152
-180.758
-198.427
-195.722
-174.207
-137.213
-89.3987
-36.1854
16.8726
64.6919
103.174
129.572
142.671
142.785
131.57
111.708
86.4957
59.4017
33.6519
11.8831
-4.096
-13.4188
-16.1498
-13.162
-5.92966
3.72904
13.9224
22.9343
29.4225
32.5483
32.0271
28.104
21.4635
13.0941
4.12788
-4.3214
-11.3002
-16.1225
-18.4315
-18.2132
-15.7652
-11.6287
-6.49691
-1.11364
3.82468
7.75062
10.283
11.2549
10.712
8.88453
6.13878
2.91707
-0.325774
-3.18071
-5.33089
-6.58163
-6.87182
-6.26744
-4.93977
-3.1327
-1.12437
0.811376
2.43896
3.58657
4.16101
4.15105
3.62009
2.69031
1.52104
0.284781
-0.855865
-1.76761
-2.36014
-2.59295
-2.4754
-2.06096
-1.43741
-0.71538
-0.0174942
0.530068
0.802731
0.679551
0.0432411
-1.22012
-3.21989
-6.05694
-9.81621
-14.5564
-20.2981
-27.0122
-34.6111
-42.9454
-51.8059
-60.9342
-70.0388
-78.817
-86.9786
-94.2707
-100.498
-105.539
-109.352
-111.978
-113.531
-114.18
-114.135
-113.617
-112.844
-112.003
-111.237
-110.637
-110.233
-110.004
-109.876
-109.744
-109.481
-108.958
-108.053
-106.675
-104.761
-102.292
-99.2832
-95.7862
-91.8755
-87.6372
-83.1552
-78.4988
-73.7129
-68.8132
-63.7874
-58.6019
-53.2142
-47.5887
-41.7128
-35.6109
-29.3541
-23.0625
-16.8999
-11.0608
-5.75191
-1.16963
2.52286
5.21551
6.86583
7.50573
7.23973
6.23482
4.70339
2.88132
1.00415
-0.715815
-2.1087
-3.06055
-3.51976
-3.4962
-3.05358
-2.29642
-1.35373
-0.361276
0.554966
1.29269
1.7828
1.99408
1.93279
1.63777
1.17217
0.613037
0.0403853
-0.472997
-0.869728
-1.11324
-1.19005
-1.10893
-0.897365
-0.596156
-0.252854
0.084892
0.375295
0.587035
0.702069
0.716521
0.639771
0.492052
0.30104
0.0979078
-0.0866436
-0.225992
-0.300488
-0.299413
-0.221874
-0.0765999
0.119293
0.342412
0.565843
0.762279
0.907172
0.981627
0.974709
0.884963
0.720972
0.500904
0.25108
0.00371196
-0.205976
-0.342929
-0.375382
-0.277541
-0.0314398
0.372292
0.934892
1.65104
2.51122
3.50428
4.61958
5.84813
7.18225
8.61369
10.1305
11.7135
13.3329
14.9463
16.5001
17.9323
19.1805
20.1921
20.937
21.4239
21.7176
21.9581
22.3828
23.3477
25.3478
29.0298
35.1903
44.7506
58.6966
77.9793
103.371
135.287
173.582
217.361
264.833
313.252
358.991
397.765
425.009
436.385
428.347
398.706
347.087
275.198
186.863
87.7775
-14.9899
-113.698
-200.751
-269.522
-315.088
-334.764
-328.386
-298.285
-248.993
-186.684
-118.465
-51.5715
7.40413
53.1762
82.2449
93.1451
86.4496
64.5452
31.2218
-8.86101
-50.7605
-89.8165
-122.135
-144.937
-156.756
-157.457
-148.118
-130.771
-108.078
-82.9569
-58.2255
-36.2934
-18.9334
-7.15183
-1.16064
-0.445642
-3.91111
-10.0768
-17.2986
-23.9843
-28.7802
-30.7085
-29.2454
-24.3358
-16.3507
-5.9966
5.80473
18.0511
29.7893
40.2256
48.8043
55.2496
59.5687
62.0204
63.0566
63.2463
63.1947
63.4651
64.5157
66.6541
70.0151
74.56
80.0971
86.3157
92.8308
99.2312
105.125
110.178
114.142
116.871
118.323
118.554
117.695
115.933
113.477
110.528
107.261
103.798
100.197
96.4544
92.5056
88.2418
83.5303
78.2388
72.2613
65.542
58.0943
50.012
41.4711
32.7213
24.0679
15.8449
8.38396
1.9813
-3.13235
-6.81562
-9.03099
-9.84813
-9.43579
-8.04329
-5.97397
-3.55392
-1.09967
1.11131
2.86426
4.02239
4.53262
4.42184
3.78478
2.7655
1.53523
0.269387
-0.873499
-1.76863
-2.33602
-2.54507
-2.4127
-1.99592
-1.38027
-0.666094
0.0456009
0.665797
1.12722
1.39033
1.4451
1.30903
1.02174
0.637527
0.216818
-0.182179
-0.510608
-0.73413
-0.83567
-0.815681
-0.690192
-0.487195
-0.242163
0.00642364
0.220683
0.365477
0.408804
0.320638
0.0707738
-0.373435
-1.04851
-1.99458
-3.25302
-4.86183
-6.84945
-9.2278
-11.9858
-15.0842
-18.4533
-21.9935
-25.5783
-29.0621
-32.2881
-35.1001
-37.3538
-38.9278
-39.7341
-39.7249
-38.8972
-37.293
-34.9966
-32.1269
-28.8286
-25.2605
-21.5833
-17.9491
-14.4907
-11.315
-8.49805
-6.08262
-4.07881
-2.46617
-1.19773
-0.205395
0.593462
1.28851
1.96843
2.71289
3.58521
4.62648
5.85206
7.25095
8.78852
10.4124
12.0612
13.674
15.2012
16.6123
17.9019
19.0907
20.2222
21.3538
22.5451
23.843
25.2666
26.7946
28.3557
29.8258
31.0313
31.7593
31.7742
30.8386
28.737
25.2994
20.4222
14.0843
6.35719
-2.59338
-12.5126
-23.0695
-33.8749
-44.5047
-54.5257
-63.5222
-71.1227
-77.0247
-81.015
-82.9844
-82.9361
-80.9845
-77.3462
-72.3227
-66.2756
-59.5979
-52.6826
-45.8917
-39.5298
-33.8218
-28.8977
-24.7835
-21.3952
-18.5336
-15.8777
-12.9726
-9.21566
-3.84385
4.06603
15.572
31.8006
53.829
82.5097
118.25
160.773
208.895
260.389
311.968
359.437
398.032
422.916
429.785
415.496
378.622
319.839
242.065
150.31
51.2525
-47.4335
-137.897
-212.977
-267.002
-296.409
-300.116
-279.583
-238.585
-182.711
-118.673
-53.5192
6.15677
54.9051
88.9344
106.399
107.44
93.9956
69.4106
37.9251
4.09622
-27.7615
-54.0555
-72.2636
-81.1199
-80.6337
-71.9522
-57.1005
-38.6408
-19.3016
-1.62387
12.3335
21.1996
24.3921
22.1101
15.2329
5.14432
-6.48654
-17.9382
-27.6527
-34.4106
-37.4467
-36.5004
-31.7987
-23.9821
-13.9883
-2.91095
8.14598
18.2003
26.4955
32.5672
36.2673
37.7482
37.4138
35.8472
33.7267
31.7426
30.5243
30.5853
32.2892
35.8378
41.2765
48.5148
57.3548
67.5212
78.6908
90.5156
102.64
114.71
126.38
137.316
147.193
155.706
162.574
167.556
170.46
171.168
169.642
165.938
160.202
152.667
143.63
133.429
122.41
110.905
99.1999
87.5256
76.0503
64.8868
54.1064
43.7587
33.8923
24.5718
15.8886
7.9624
0.934598
-5.04656
-9.84567
-13.3615
-15.5465
-16.4204
-16.077
-14.6815
-12.4586
-9.6746
-6.61333
-3.55087
-0.731589
1.65158
3.47033
4.66651
5.24972
5.28797
4.89292
4.20205
3.35993
2.50107
1.736
1.14198
0.758836
0.589795
0.6067
0.758402
0.980976
1.20828
1.38154
1.45679
1.40957
1.23644
0.95357
0.59277
0.195844
-0.191893
-0.527949
-0.778005
-0.919632
-0.944028
-0.855729
-0.670551
-0.412258
-0.108596
0.212651
0.526973
0.815392
1.06542
1.27071
1.42967
1.54341
1.6135
1.64004
1.62057
1.5497
1.41981
1.22229
0.949151
0.594516
0.15557
-0.367153
-0.970233
-1.64838
-2.39564
-3.20641
-4.07583
-4.99929
-5.97099
-6.98176
-8.01658
-9.05231
-10.0564
-10.987
-11.7951
-12.4283
-12.8361
-12.976
-12.8197
-12.3578
-11.603
-10.5903
-9.37476
-8.02651
-6.62409
-5.2466
-3.96604
-2.84069
-1.91026
-1.19329
-0.686539
-0.365886
-0.187799
-0.0905483
0.00532059
0.197043
0.599301
1.34211
2.56549
4.40998
7.00294
10.4416
14.7753
19.989
25.9925
32.6158
39.6148
46.6852
53.4851
59.6633
64.89
68.8855
71.4448
72.4535
71.8945
69.8446
66.4613
61.9636
56.6078
50.6615
44.3805
37.9891
31.666
25.5376
19.6771
14.1089
8.81808
3.76205
-1.11691
-5.87895
-10.5756
-15.2408
-19.8848
-24.4908
-29.0147
-33.3872
-37.5168
-41.2923
-44.5823
-47.229
-49.0335
-49.7331
-48.9702
-46.259
-40.9571
-32.2532
-19.1853
-0.702399
24.2209
56.4138
96.2922
143.621
197.291
255.159
314.007
369.649
417.222
451.639
468.166
463.062
434.167
381.368
306.839
215.006
112.218
6.15965
-94.9412
-183.194
-251.908
-296.328
-314.126
-305.62
-273.66
-223.239
-160.856
-93.737
-29.0129
27.0509
69.6736
95.9664
105.092
98.1765
77.9967
48.5084
14.2756
-20.118
-50.6024
-74.0432
-88.51
-93.3737
-89.2385
-77.7323
-61.195
-42.3133
-23.7508
-7.81977
3.77024
10.0641
10.9045
6.87251
-0.857145
-10.7196
-20.9924
-30.0255
-36.4405
-39.2789
-38.084
-32.9152
-24.2955
-13.1084
-0.457921
12.4856
24.6352
35.1134
43.3416
49.0852
52.4524
53.8508
53.911
53.3899
53.0669
53.6467
55.6807
59.5134
65.2589
72.8073
81.856
91.9607
102.597
113.225
123.344
132.542
140.525
147.123
152.292
156.088
158.639
160.111
160.668
160.442
159.51
157.878
155.477
152.175
147.792
142.128
134.998
126.267
115.885
103.913
90.546
76.1116
61.0628
45.948
31.3703
17.9357
6.19774
-3.39517
-10.5436
-15.1261
-17.2102
-17.0429
-15.0236
-11.6609
-7.51944
-3.16388
0.895202
4.246
6.60688
7.84152
7.95731
7.08812
5.46492
3.37832
1.1383
-0.964208
-2.68941
-3.8713
-4.42918
-4.36775
-3.76693
-2.76371
-1.52905
-0.243129
0.927807
1.85042
2.43711
2.65187
2.50903
2.06601
1.41144
0.650703
-0.10903
-0.772397
-1.26648
-1.54752
-1.60323
-1.45094
-1.13225
-0.705241
-0.235523
0.212548
0.583277
0.834764
0.941225
0.892464
0.69084
0.346492
-0.128201
-0.72389
-1.43827
-2.27816
-3.25919
-4.4032
-5.73374
-7.2703
-9.02238
-10.9843
-13.1319
-15.4211
-17.79
-20.1629
-22.4571
-24.5902
-26.4887
-28.095
-29.373
-30.3115
-30.9242
-31.2479
-31.3377
-31.261
-31.0908
-30.8991
-30.7514
-30.7037
-30.8002
-31.074
-31.5482
-32.2376
-33.1494
-34.2834
-35.6297
-37.165
-38.8468
-40.6076
-42.3502
-43.9447
-45.2308
-46.0238
-46.1272
-45.3482
-43.5181
-40.5116
-36.2661
-30.7958
-24.2002
-16.6639
-8.4482
0.126362
8.70416
16.9236
24.4479
30.9942
36.358
40.4294
43.2013
44.7657
45.3016
45.0532
44.3021
43.3345
42.4086
41.7235
41.3948
41.4393
41.7715
42.2118
42.508
42.366
41.4869
39.6065
36.5308
32.1639
26.5238
19.745
12.0663
3.80663
-4.6687
-12.9863
-20.8028
-27.8376
-33.8968
-38.8848
-42.803
-45.7361
-47.8259
-49.2374
-50.117
-50.5485
-50.5069
-49.8157
-48.1096
-44.8093
-39.1123
-30.0112
-16.3464
3.09631
29.4376
63.5071
105.61
155.282
211.08
270.449
329.72
384.281
428.931
458.389
467.935
454.059
415.057
351.457
266.191
164.482
53.426
-58.6816
-163.198
-252.055
-318.629
-358.459
-369.695
-353.257
-312.661
-253.554
-183.024
-108.778
-38.2817
22.0151
67.2984
94.7794
103.827
95.8439
73.9231
42.3373
5.93976
-30.4477
-62.5853
-87.2441
-102.474
-107.691
-103.597
-91.9461
-75.2158
-56.2193
-37.7191
-22.0862
-11.0429
-5.51158
-5.57788
-10.5624
-19.1803
-29.7628
-40.5051
-49.7098
-55.9952
-58.4449
-56.6859
-50.8908
-41.7096
-30.1443
-17.3889
-4.65523
6.98848
16.7479
24.1846
29.2433
32.224
33.7068
34.4448
35.2411
36.83
39.7785
44.4206
50.8314
58.841
68.082
78.0605
88.2381
98.1109
107.275
115.47
122.595
128.701
133.957
138.603
142.893
147.039
151.161
155.259
159.195
162.698
165.392
166.84
166.591
164.24
159.482
152.159
142.283
130.053
115.845
100.18
83.6823
67.0276
50.8834
35.8537
22.4324
10.9688
1.64844
-5.50859
-10.6338
-13.9829
-15.8992
-16.7712
-16.9903
-16.9127
-16.829
-16.9436
-17.3662
-18.1143
-19.1258
-20.2787
-21.416
-22.3718
-22.9949
-23.1688
-22.8251
-21.9495
-20.5811
-18.8049
-16.7398
-14.5234
-12.2963
-10.1872
-8.3006
-6.70818
-5.44471
-4.50792
-3.86244
-3.44665
-3.18166
-2.98112
-2.76082
-2.44716
-1.9837
-1.33548
-0.490792
0.539306
1.7237
3.01559
4.35805
5.69029
6.95389
8.09857
9.08688
9.89732
10.5255
10.983
11.2934
11.486
11.5869
11.6099
11.5472
11.3632
10.9923
10.343
9.30736
7.77648
5.65969
2.90475
-0.483697
-4.43069
-8.78515
-13.3236
-17.7642
-21.7896
-25.0774
-27.3341
-28.3283
-27.9197
-26.0789
-22.896
-18.5768
-13.4261
-7.82095
-2.17622
3.09325
7.60989
11.0662
13.2499
14.0593
13.5083
11.72
8.91169
5.37245
1.43576
-2.54928
-6.246
-9.35476
-11.6324
-12.9053
-13.0759
-12.1224
-10.093
-7.09571
-3.28506
1.15308
6.01676
11.1025
16.2177
21.1911
25.8787
30.1664
33.9688
37.2238
39.8845
41.9099
43.2548
43.863
43.6617
42.5629
40.4686
37.2816
32.9216
27.343
20.5535
12.6299
3.72818
-5.91385
-15.9831
-26.1062
-35.8726
-44.8617
-52.6734
-58.9577
-63.442
-65.9529
-66.4315
-64.9415
-61.6671
-56.9034
-51.0367
-44.5176
-37.826
-31.4309
-25.7455
-21.0787
-17.5855
-15.2178
-13.6802
-12.3961
-10.492
-6.81138
0.0338766
11.5628
29.2724
54.4342
87.8533
129.615
178.855
233.598
290.716
346.029
394.593
431.141
450.662
449.042
423.677
373.972
301.63
210.679
107.203
-1.20438
-106.196
-199.558
-274.097
-324.434
-347.574
-343.204
-313.667
-263.632
-199.505
-128.653
-58.5612
3.9849
53.591
86.7403
102.032
100.155
83.6266
56.3347
22.9622
-11.6316
-42.9947
-67.5627
-82.9877
-88.2906
-83.8331
-71.1317
-52.5503
-30.9214
-9.14909
10.1559
24.9667
34.0292
36.9354
34.0845
26.5476
15.8637
3.799
-7.89713
-17.7071
-24.508
-27.6664
-27.06
-23.0322
-16.2903
-7.76922
1.51912
10.6289
18.7974
25.5233
30.5999
34.1049
36.3511
37.8116
39.0313
40.5386
42.7707
46.0195
50.4044
55.8716
62.2183
69.1329
76.247
83.1875
89.6244
95.3062
100.081
103.901
106.812
108.934
110.429
111.471
112.21
112.754
113.138
113.326
113.199
112.573
111.211
108.854
105.249
100.189
93.5452
85.2962
75.5498
64.5494
52.6669
40.3794
28.2317
16.7893
6.5858
-1.92822
-8.42903
-12.751
-14.9011
-15.0561
-13.5409
-10.7934
-7.3177
-3.63312
-0.223364
2.50768
4.26941
4.90415
4.39155
2.83837
0.455601
-2.47363
-5.63114
-8.70127
-11.4049
-13.526
-14.9289
-15.5646
-15.4662
-14.7359
-13.5251
-12.0106
-10.371
-8.76538
-7.31745
-6.10583
-5.16179
-4.47349
-3.9955
-3.66174
-3.39951
-3.14249
-2.84099
-2.46826
-2.0222
-1.52305
-1.00759
-0.521258
-0.109705
0.188994
0.350188
0.365966
0.245697
0.014054
-0.292884
-0.632633
-0.961519
-1.23933
-1.43278
-1.51752
-1.47856
-1.3096
-1.01141
-0.590056
-0.055251
0.580757
1.30373
2.09746
2.9435
3.82087
4.70586
5.57227
6.39178
7.13472
7.7708
8.26993
8.60284
8.74157
8.65984
8.33349
7.74103
6.86475
5.69252
4.2206
2.45732
0.427583
-1.82277
-4.22335
-6.67781
-9.06523
-11.2452
-13.066
-14.3759
-15.0353
-14.9291
-13.9767
-12.1391
-9.42206
-5.87457
-1.58438
3.32957
8.72585
14.4496
20.341
26.2419
32.0017
37.4807
42.5527
47.1063
51.0447
54.286
56.7627
58.4217
59.2246
59.1489
58.1896
56.3612
53.7
50.2659
46.1439
41.4432
36.2953
30.8497
25.2672
19.7111
14.3373
9.28347
4.65953
0.539069
-3.04558
-6.1046
-8.68764
-10.8766
-12.7748
-14.494
-16.1403
-17.8011
-19.5331
-21.3535
-23.2321
-25.0842
-26.7618
-28.0412
-28.605
-28.0217
-25.7244
-20.9976
-12.9825
-0.712651
16.8066
40.4699
70.8944
108.209
151.839
200.323
251.215
301.111
345.834
380.776
401.381
403.717
385.049
344.341
282.587
202.916
110.425
11.7505
-85.5744
-173.916
-246.367
-297.514
-324.032
-325.031
-302.122
-259.177
-201.839
-136.837
-71.1995
-11.4726
36.9699
70.4373
87.2055
87.5514
73.55
48.676
17.2719
-16.0425
-46.9418
-71.8812
-88.4444
-95.5218
-93.3136
-83.1713
-67.3128
-48.4571
-29.4308
-12.7978
-0.556582
6.06546
6.70163
1.82054
-7.40189
-19.2878
-31.9079
-43.3429
-51.9217
-56.41
-56.1297
-51.001
-41.5082
-28.5997
-13.541
2.25893
17.4238
30.7671
41.4144
48.8783
53.0816
54.3318
53.253
50.6874
47.5807
44.8662
43.3599
43.6789
46.1897
50.9895
57.9198
66.6076
76.5272
87.0732
97.634
107.66
116.713
124.502
130.892
135.891
139.62
142.272
144.06
145.167
145.704
145.685
145.017
143.506
140.891
136.882
131.211
123.686
114.234
102.933
90.0277
75.9213
61.1497
46.3377
32.1428
19.1943
8.03432
-0.932443
-7.4738
-11.5469
-13.2949
-13.0247
-11.169
-8.23694
-4.76087
-1.24348
1.88742
4.31272
5.84138
6.41422
6.09327
5.03884
3.4783
1.67076
-0.12794
-1.69567
-2.86703
-3.54681
-3.71326
-3.41198
-2.74209
-1.83734
-0.84499
0.0944654
0.864373
1.38382
1.61347
1.55517
1.24623
0.749653
0.142096
-0.498426
-1.10353
-1.62272
-2.02823
-2.31611
-2.50398
-2.62628
-2.72785
-2.85718
-3.06017
-3.37531
-3.83069
-4.44301
-5.21853
-6.15526
-7.24613
-8.48209
-9.85464
-11.357
-12.9838
-14.7285
-16.5801
-18.5181
-20.5071
-22.4929
-24.3997
-26.1297
-27.5664
-28.5818
-29.0462
-28.8421
-27.88
-26.1138
-23.5555
-20.2855
-16.4573
-12.2937
-8.07435
-4.11483
-0.737981
1.75885
3.13752
3.24938
2.058
-0.349131
-3.76217
-7.86454
-12.2613
-16.5175
-20.2018
-22.9309
-24.4085
-24.4548
-23.0222
-20.1974
-16.1867
-11.2902
-5.86525
-0.285304
5.10128
10.0084
14.2408
17.7112
20.4446
22.5693
24.2963
25.8898
27.6314
29.7832
32.5532
36.0674
40.3496
45.313
50.7628
56.4102
61.8953
66.8183
70.7739
73.3882
74.3518
73.4491
70.5793
65.768
59.1683
51.0519
41.7888
31.8194
21.62
11.6643
2.38586
-5.85718
-12.8096
-18.3375
-22.4347
-25.2173
-26.9048
-27.7924
-28.2154
-28.5098
-28.9751
-29.8412
-31.2442
-33.212
-35.661
-38.3997
-41.138
-43.4956
-45.006
-45.1149
-43.1709
-38.4158
-29.9828
-16.915
1.78167
27.0386
59.5736
99.6935
147.072
200.54
257.925
316.011
370.636
416.966
449.934
464.809
457.813
426.722
371.328
293.698
198.17
91.0531
-19.9271
-126.398
-220.211
-294.318
-343.528
-365.056
-358.791
-327.25
-275.234
-209.23
-136.645
-64.9722
-0.980424
49.9581
84.3447
100.783
99.9538
84.3474
57.818
25.0125
-9.23932
-40.5009
-65.2039
-80.9759
-86.7928
-82.9564
-70.9149
-52.9638
-31.8751
-10.5072
8.55483
23.2882
32.4221
35.5144
32.9183
25.6546
15.2133
3.31991
-8.30477
-18.1573
-25.1155
-28.5364
-28.2846
-24.6919
-18.4635
-10.5453
-1.97474
6.2654
13.3709
18.8048
22.3428
24.0738
24.3602
23.7664
22.9683
22.6576
23.4521
25.8235
30.0499
36.1947
44.1131
53.481
63.8419
74.6631
85.3949
95.5254
104.625
112.38
118.604
123.243
126.362
128.119
128.737
128.466
127.556
126.223
124.624
122.844
120.89
118.688
116.097
112.93
108.978
104.042
97.9604
90.6446
82.0969
72.4272
61.8555
50.7028
39.3692
28.3029
17.9607
8.7671
1.07422
-4.87089
-8.94917
-11.1792
-11.7129
-10.8181
-8.84977
-6.21386
-3.3274
-0.579675
1.7017
3.27639
4.0064
3.85956
2.90182
1.27977
-0.80388
-3.11894
-5.43691
-7.55732
-9.32868
-10.6617
-11.5338
-11.9856
-12.1093
-12.0317
-11.8944
-11.8331
-11.9589
-12.3442
-13.0141
-13.944
-15.0646
-16.2712
-17.438
-18.4342
-19.1399
-19.4607
-19.3376
-18.7529
-17.7297
-16.3273
-14.6315
-12.7432
-10.7657
-8.7944
-6.90849
-5.16768
-3.61268
-2.26947
-1.15556
-0.2865
0.319468
0.639937
0.650787
0.332163
-0.32329
-1.30183
-2.56176
-4.03013
-5.60434
-7.15884
-8.5565
-9.66311
-10.3631
-10.5742
-10.2588
-9.4305
-8.15418
-6.54041
-4.73367
-2.89652
-1.19151
0.236869
1.27788
1.86603
1.98687
1.67665
1.01602
0.118737
-0.883107
-1.85518
-2.67655
-3.25272
-3.5249
-3.47425
-3.12109
-2.51928
-1.74653
-0.891887
-0.0417628
0.734117
1.39538
1.94097
2.4152
2.90886
3.55466
4.51675
5.9748
8.10376
11.0514
14.9163
19.7291
25.4396
31.913
38.935
46.2263
53.4653
60.3157
66.4558
71.6059
75.55
78.1496
79.3487
79.1688
77.697
75.0687
71.4485
67.0118
61.9299
56.3597
50.4396
44.2889
38.0115
31.7007
25.4444
19.3273
13.4313
7.8331
2.59889
-2.22177
-6.60183
-10.5411
-14.0678
-17.2372
-20.1262
-22.8259
-25.4305
-28.0245
-30.6668
-33.3706
-36.0791
-38.6349
-40.7436
-41.9351
-41.5273
-38.6034
-32.0148
-20.4258
-2.41433
23.3617
57.9348
101.752
154.389
214.302
278.684
343.479
403.595
453.321
486.925
499.364
487.004
448.237
383.9
297.401
194.523
82.9045
-28.7327
-131.526
-217.448
-280.195
-315.867
-323.351
-304.373
-263.205
-206.087
-140.439
-73.9762
-13.8311
34.1993
66.2033
80.4457
77.3819
59.4123
30.4276
-4.78528
-41.1919
-74.1309
-99.834
-115.789
-120.918
-115.564
-101.31
-80.6586
-56.6374
-32.377
-10.7181
6.10655
16.6839
20.5109
17.9653
10.17
-1.21791
-14.264
-27.0205
-37.7653
-45.1904
-48.5201
-47.5533
-42.6319
-34.5463
-24.3958
-13.4263
-2.86594
6.22076
13.0445
17.1595
18.484
17.2771
14.0782
9.6207
4.73361
0.242573
-3.1168
-4.76539
-4.32138
-1.61389
3.32871
10.3107
19.0151
29.0549
40.0242
51.5407
63.2758
74.9713
86.4406
97.5579
108.24
118.421
128.033
136.985
145.15
152.367
158.439
163.149
166.279
167.624
167.019
164.354
159.591
152.772
144.025
133.561
121.67
108.701
95.0525
81.1491
67.4197
54.2753
42.0871
31.166
21.7467
13.9758
7.90603
3.49726
0.623627
-0.912795
-1.36339
-1.01091
-0.145837
0.95651
2.05615
2.96402
3.5517
3.75468
3.56918
3.04335
2.26423
1.34206
0.394
-0.470967
-1.16447
-1.62729
-1.83343
-1.78985
-1.53215
-1.11734
-0.614681
-0.0960772
0.372869
0.740114
0.971995
1.0553
0.996651
0.819446
0.559143
0.25745
-0.0436864
-0.307664
-0.507779
-0.630397
-0.676526
-0.661763
-0.614695
-0.573945
-0.584135
-0.691099
-0.936743
-1.354
-1.9624
-2.76462
-3.74462
-4.86749
-6.08122
-7.32039
-8.51134
-9.57849
-10.4511
-11.0701
-11.3934
-11.4011
-11.0981
-10.5153
-9.70844
-8.75508
-7.74935
-6.79497
-5.99692
-5.45255
-5.24287
-5.42513
-6.02736
-7.04562
-8.44426
-10.1591
-12.103
-14.1735
-16.2606
-18.2556
-20.0579
-21.581
-22.7561
-23.5346
-23.8876
-23.805
-23.2926
-22.3693
-21.0638
-19.411
-17.4493
-15.2185
-12.758
-10.1056
-7.29687
-4.36471
-1.33843
1.75728
4.90362
8.08901
11.31
14.571
17.8834
21.2619
24.7212
28.2698
31.9058
35.6124
39.3552
43.0827
46.7285
50.2161
53.4648
56.3952
58.9337
61.0141
62.5766
63.564
63.9173
63.5699
62.4453
60.4563
57.5093
53.5123
48.387
42.0839
34.5983
25.9845
16.3672
5.94582
-5.0084
-16.1635
-27.1456
-37.5631
-47.0333
-55.2089
-61.8018
-66.6007
-69.4835
-70.4225
-69.4832
-66.8172
-62.6477
-57.2494
-50.9202
-43.9454
-36.5543
-28.8709
-20.8622
-12.2905
-2.67968
8.69648
22.7885
40.6989
63.5536
92.3191
127.573
169.258
216.451
267.202
318.497
366.368
406.191
433.143
442.785
431.68
397.975
341.828
265.616
173.868
72.9123
-29.734
-126.143
-208.841
-271.63
-310.271
-322.927
-310.322
-275.588
-223.847
-161.563
-95.7684
-33.2717
20.0779
59.9605
83.9424
91.5873
84.3256
65.1152
37.9526
7.30309
-22.4714
-47.619
-65.3823
-74.2255
-73.8905
-65.2926
-50.2825
-31.319
-11.0998
7.79886
23.2301
33.6991
38.4813
37.633
31.9025
22.565
11.2084
-0.497714
-11.0187
-19.1318
-24.0454
-25.4515
-23.5119
-18.7869
-12.1208
-4.50471
3.06559
9.71781
14.8029
17.9573
19.1241
18.5342
16.6533
14.105
11.581
9.74895
9.17168
10.2439
13.1545
17.876
24.1813
31.6832
39.8903
48.2723
56.3245
63.6236
69.8697
74.9066
78.7225
81.4289
83.2247
84.3485
85.0301
85.4451
85.6823
85.7272
85.4631
84.6908
83.1622
80.6229
76.8576
71.7315
65.2222
57.4374
48.6159
39.1121
29.3654
19.8583
11.0697
3.42643
-2.73747
-7.21268
-9.93145
-10.9692
-10.5307
-8.92316
-6.51994
-3.7192
-0.902792
1.60015
3.54109
4.76893
5.23473
4.98474
4.14362
2.89054
1.43178
-0.0269573
-1.30495
-2.26528
-2.82623
-2.96492
-2.7133
-2.14799
-1.37579
-0.51711
0.310477
1.00649
1.49812
1.74624
1.74655
1.52629
1.13738
0.647219
0.128561
-0.350189
-0.733106
-0.982472
-1.0817
-1.03541
-0.867034
-0.614538
-0.324935
-0.0484159
0.167297
0.281825
0.265891
0.103763
-0.205653
-0.649028
-1.19999
-1.82154
-2.46917
-3.0947
-3.65021
-4.09215
-4.38507
-4.50478
-4.44063
-4.19675
-3.79196
-3.25842
-2.639
-1.98363
-1.34486
-0.773191
-0.312526
0.00363529
0.154946
0.13555
-0.0460851
-0.368776
-0.801435
-1.30672
-1.84507
-2.3787
-2.87503
-3.30936
-3.66635
-3.94035
-4.13453
-4.25892
-4.32784
-4.35679
-4.35953
-4.34552
-4.31824
-4.27443
-4.20448
-4.0937
-3.9243
-3.67778
-3.33727
-2.88956
-2.32663
-1.64632
-0.852284
0.0468957
1.03926
2.11155
3.25157
4.45074
5.70653
7.02466
8.42083
9.92149
11.5634
13.3913
15.4542
17.7994
20.4648
23.4714
26.8148
30.4586
34.3293
38.3143
42.2632
45.9919
49.2908
51.9349
53.6974
54.3636
53.7473
51.7057
48.1541
43.0771
36.5372
28.6767
19.7156
9.94109
-0.307275
-10.6588
-20.7355
-30.177
-38.6646
-45.9405
-51.8227
-56.2129
-59.0978
-60.5441
-60.6876
-59.7183
-57.8616
-55.3575
-52.4384
-49.3042
-46.0957
-42.8657
-39.546
-35.9134
-31.5575
-25.8555
-17.9649
-6.84339
8.68942
29.8411
57.6802
92.9215
135.681
185.237
239.832
296.591
351.566
399.984
436.653
456.543
455.432
430.57
381.211
308.963
217.838
114.007
5.24571
-99.8526
-192.805
-266.186
-314.459
-334.599
-326.4
-292.461
-237.822
-169.338
-94.8545
-22.3015
41.1784
89.9637
120.468
131.385
123.654
100.164
65.2571
24.107
-17.9524
-56.0524
-86.3049
-106.153
-114.532
-111.836
-99.7159
-80.7465
-58.0187
-34.7104
-13.6919
2.78934
13.3153
17.3805
15.3546
8.34079
-2.04106
-13.9123
-25.3988
-34.8657
-41.0988
-43.4146
-41.693
-36.3371
-28.1711
-18.2966
-7.92813
1.77042
9.82699
15.5666
18.6701
19.1848
17.488
14.2153
10.1626
6.17873
3.06191
1.47205
1.86901
4.48112
9.30488
16.1324
24.5997
34.2479
44.5865
55.1515
65.5498
75.4873
84.7768
93.3299
101.134
108.223
114.641
120.415
125.532
129.922
133.461
135.978
137.277
137.155
135.434
131.99
126.767
119.804
111.234
101.291
90.2944
78.633
66.7388
55.0561
44.0089
33.969
25.2279
17.9759
12.29
8.13161
5.35602
3.73022
2.95937
2.7182
2.6844
2.57065
2.15187
1.28509
-0.0801153
-1.90168
-4.05512
-6.35255
-8.56799
-10.4661
-11.831
-12.4914
-12.3407
-11.3478
-9.5601
-7.09757
-4.13908
-0.903422
2.37291
5.45847
8.14772
10.2781
11.7416
12.4908
12.5379
11.9493
10.8348
9.33405
7.60145
5.79121
4.04374
2.47495
1.16893
0.174603
-0.493786
-0.852782
-0.943244
-0.822272
-0.554658
-0.204915
0.169276
0.521604
0.819438
1.04394
1.18835
1.25491
1.25098
1.18508
1.06318
0.885912
0.646816
0.331869
-0.0797384
-0.613722
-1.29793
-2.15903
-3.21891
-4.49126
-5.9786
-7.66998
-9.53982
-11.5477
-13.6398
-15.7512
-17.8095
-19.7398
-21.4699
-22.9353
-24.0846
-24.8836
-25.3179
-25.3942
-25.1399
-24.6005
-23.8359
-22.9153
-21.9113
-20.8938
-19.9243
-19.0514
-18.3068
-17.7037
-17.2362
-16.8809
-16.5995
-16.3425
-16.0543
-15.6771
-15.1559
-14.4418
-13.4944
-12.2838
-10.7896
-9.00063
-6.9128
-4.52743
-1.85002
1.11004
4.33826
7.8129
11.5019
15.3596
19.3243
23.3166
27.2396
30.9806
34.4151
37.4124
39.843
41.5869
42.5425
42.6352
41.8249
40.1117
37.5377
34.1857
30.1734
25.6429
20.7466
15.6307
10.4183
5.19521
0.000181721
-5.17748
-10.3925
-15.7304
-21.2885
-27.153
-33.3774
-39.9636
-46.8501
-53.9087
-60.95
-67.7372
-74.0063
-79.4899
-83.9416
-87.158
-88.9953
-89.3783
-88.2992
-85.8063
-81.9809
-76.9044
-70.6155
-63.0625
-54.0547
-43.2206
-29.9823
-13.5571
7.00291
32.7226
64.5624
103.226
148.931
201.17
258.509
318.454
377.461
431.1
474.399
502.345
510.497
495.612
456.217
393.004
308.987
209.367
101.117
-7.69857
-108.754
-194.362
-258.314
-296.549
-307.564
-292.528
-255.071
-200.801
-136.602
-69.8215
-7.4463
44.6369
82.2023
103.018
106.92
95.6468
72.4557
41.604
7.75212
-24.6245
-51.7466
-70.9111
-80.7037
-81.0347
-73.0087
-58.6599
-40.5987
-21.622
-4.33858
9.14349
17.4352
19.9715
17.0019
9.47697
-1.14132
-13.117
-24.6883
-34.295
-40.7584
-43.3956
-42.0599
-37.111
-29.3237
-19.7537
-9.58254
0.0400013
8.13254
13.9856
17.2209
17.8047
16.0169
12.3856
7.5982
2.40316
-2.4835
-6.45586
-9.07117
-10.0746
-9.3962
-7.12464
-3.46507
1.31032
6.91072
13.067
19.5596
26.2317
32.9892
39.7891
46.6212
53.4867
60.3779
67.2622
74.0715
80.6975
86.9929
92.7772
97.8449
101.977
104.951
106.558
106.613
104.971
101.542
96.3044
89.3161
80.7215
70.7519
59.7196
