328.607
321.706
312.222
299.594
283.299
262.897
238.087
208.748
174.967
137.052
95.5379
51.1625
4.83952
-42.3847
-89.3821
-134.998
-178.109
-217.671
-252.775
-282.686
-306.881
-325.074
-337.237
-343.601
-344.646
-341.07
-333.75
-323.678
-311.889
-299.389
-287.072
-275.653
-265.602
-257.098
-250.004
-243.852
-237.862
-230.965
-221.868
-209.125
-191.232
-166.746
-134.404
-93.2555
-42.775
17.0403
85.6099
161.753
243.718
329.265
415.79
500.482
580.504
653.181
716.166
767.593
806.177
831.274
842.895
841.663
828.742
805.732
774.537
737.229
695.903
652.533
608.845
566.21
525.56
487.351
451.565
417.757
385.149
352.759
319.555
284.611
247.259
207.197
164.561
119.936
74.3025
28.943
-14.7001
-55.1786
-91.1914
-121.714
-146.087
-164.059
-175.775
-181.723
-182.646
-179.44
-173.04
-164.327
-154.051
-142.781
-130.892
-118.568
-105.838
-92.6302
-78.8353
-64.3791
-49.2912
-33.7613
-18.1723
-3.10233
10.7115
22.447
31.3025
36.6228
38.0244
35.4982
29.4677
20.783
10.6427
0.446026
-8.40658
-14.7343
-17.7798
-17.3566
-13.9049
-8.43887
-2.38502
2.66626
5.25474
4.33759
-0.485441
-8.85609
-19.6812
-31.3028
-41.7958
-49.35
-52.6752
-51.3587
-46.1063
-38.8141
-32.4397
-30.6754
-37.4569
-56.3698
-90.037
-139.576
-204.212
-281.114
-365.496
-450.985
-530.229
-595.676
-640.436
-659.105
-648.459
-607.903
-539.63
-448.458
-341.353
-226.707
-113.457
-10.1478
75.9416
139.508
177.688
190.231
179.374
149.441
106.235
56.3039
6.17102
-38.3701
-72.8249
-94.3692
-101.997
-96.4464
-79.9247
-55.6952
-27.5756
0.576723
25.332
44.0559
55.1435
58.1068
53.5202
42.8496
28.1994
12.0211
-3.1779
-15.0884
-21.795
-21.9008
-14.58
0.430484
22.8893
52.14
87.2185
126.965
170.13
215.468
261.815
308.143
353.591
397.479
439.293
478.658
515.289
548.945
579.364
606.225
629.107
647.481
660.718
668.139
669.076
662.966
649.462
628.535
600.574
566.454
527.56
485.746
443.242
402.492
365.944
335.81
313.825
301.039
297.657
302.974
315.4
332.591
351.669
369.507
383.044
389.603
387.153
374.517
351.47
318.751
277.963
231.401
181.809
132.105
85.099
43.2252
8.32792
-18.4945
-36.9665
-47.6273
-51.7383
-51.1153
-47.9011
-44.3017
-42.3163
-43.491
-48.7283
-58.1766
-71.2124
-86.5204
-102.256
-116.269
-126.36
-130.541
-127.258
-115.582
-95.3248
-67.0917
-32.2639
7.08794
48.345
88.5259
124.499
153.205
171.875
178.23
170.656
148.332
111.323
60.5971
-2.01032
-73.9196
-151.995
-232.8
-312.89
-389.12
-458.93
-520.56
-573.182
-616.919
-652.743
-682.28
-707.521
-730.508
-753.013
-776.258
-800.726
-826.065
-851.119
-874.056
-892.589
-904.241
-906.621
-897.682
-875.91
-840.45
-791.141
-728.478
-653.509
-567.703
-472.792
-370.63
-263.074
-151.897
-38.7448
74.8834
187.618
298.187
405.365
507.916
604.519
693.701
773.769
842.758
898.425
938.293
959.775
960.381
938.01
891.299
819.998
725.314
610.174
479.334
339.3
198.03
64.4272
-52.358
-143.731
-202.491
-223.608
-204.826
-147.034
-54.3359
66.1903
205.034
351.028
492.283
617.178
715.295
778.203
800.016
777.675
710.936
602.103
455.538
277.039
73.1675
-149.392
-384.353
-626.186
-870.284
-1112.93
-1351.13
-1582.3
-1803.98
-2013.55
-2208.05
-2384.16
-2538.31
-2666.94
-2766.86
-2835.7
-2872.21
-2876.63
-2850.78
-2798.06
-2723.19
-2631.86
-2530.22
-2424.32
-2319.56
-2220.24
-2129.17
-2047.58
-1975.03
-1909.67
-1848.55
-1788.05
-1724.3
-1653.7
-1573.2
-1480.6
-1374.61
-1254.87
-1121.76
-976.203
-819.449
-652.839
-477.686
-295.242
-106.773
86.2796
282.083
478.202
671.444
857.807
1032.57
1190.55
1326.44
1435.32
1513.19
1557.39
1567.11
1543.5
1489.79
1411.01
1313.61
1204.79
1091.82
981.28
878.388
786.528
706.969
638.879
579.61
525.223
471.182
413.13
347.637
272.81
188.693
97.3722
2.79351
-89.7152
-174.143
-244.639
-296.397
-326.466
-334.388
-322.579
-296.376
-263.745
-234.633
-220.032
-230.828
-276.559
-364.205
-497.156
-674.493
-890.662
-1135.63
-1395.51
-1653.63
-1891.95
-2092.65
-2239.84
-2321.01
-2328.27
-2259.14
-2116.83
-1909.94
-1651.7
-1358.78
-1049.77
-743.531
-457.555
-206.508
-1.08051
152.734
253.883
306.002
316.716
296.583
257.804
212.858
173.198
148.168
144.237
164.611
209.257
275.284
357.615
449.843
545.137
637.099
720.453
791.511
848.374
890.874
920.301
938.966
949.695
955.321
958.259
960.209
962.021
963.721
964.683
963.888
960.238
952.856
941.313
925.771
906.995
886.252
865.102
845.139
827.69
813.556
802.808
794.692
787.645
779.429
767.375
748.701
720.867
681.933
630.853
567.693
493.721
411.357
323.998
235.712
150.858
73.6595
7.78727
-43.9945
-80.0873
-100.186
-105.268
-97.4445
-79.6972
-55.5398
-28.6386
-2.44642
20.109
36.8456
46.4334
48.3822
42.9198
30.792
13.0191
-9.34334
-35.4027
-64.5524
-96.5062
-131.241
-168.866
-209.445
-252.805
-298.373
-345.058
-391.227
-434.755
-473.171
-503.881
-524.424
-532.759
-527.518
-508.203
-475.308
-430.322
-375.641
-314.376
-250.081
-186.445
-126.964
-74.6477
-31.7805
0.236109
20.9424
30.7836
30.9859
23.3631
10.0831
-6.58122
-24.4849
-41.806
-57.1827
-69.7832
-79.3061
-85.9156
-90.1275
-92.6611
-94.2804
-95.6459
-97.1946
-99.0643
-101.066
-102.709
-103.259
-101.834
-97.5032
-89.393
-76.7702
-59.1107
-36.1428
-7.86679
25.4441
63.2601
104.823
149.186
195.257
241.853
287.747
331.726
372.634
409.415
441.148
467.072
486.605
499.355
505.127
503.923
495.943
481.581
461.411
436.172
406.74
374.084
339.22
303.148
266.799
230.975
196.317
163.277
132.132
103.004
75.9224
50.8835
27.9346
7.24685
-10.8202
-25.6791
-36.5058
-42.2689
-41.7953
-33.8704
-17.3631
8.63391
44.6634
90.773
146.408
210.338
280.626
354.643
429.141
500.382
564.332
616.91
654.296
673.26
671.501
647.937
602.926
538.346
457.54
365.09
266.44
167.416
73.6722
-9.8505
-79.392
-132.713
-169.258
-190.129
-197.872
-196.102
-189.034
-180.951
-175.706
-176.293
-184.542
-200.973
-224.804
-254.124
-286.182
-317.779
-345.702
-367.165
-380.202
-383.999
-379.118
-367.604
-352.966
-340.027
-334.624
-343.171
-372.071
-426.992
-512.05
-628.967
-776.301
-948.903
-1137.73
-1330.13
-1510.68
-1662.53
-1769.18
-1816.38
-1794.05
-1697.82
-1529.94
-1299.55
-1021.98
-717.372
-408.64
-119.09
130.041
321.805
445.242
496.383
478.415
401.056
279.195
131.033
-24.079
-167.791
-284.674
-363.683
-399.013
-390.3
-342.178
-263.303
-164.984
-59.6382
40.7551
125.995
188.663
224.705
233.543
217.768
182.484
134.417
80.9254
29.0481
-15.3073
-47.9399
-66.6549
-71.2778
-63.4148
-46.0171
-22.8261
2.21603
25.5137
44.2565
56.7061
62.311
61.652
56.2426
48.2237
40.0006
33.8741
31.7095
34.6833
43.1306
56.5065
73.4593
92.0029
109.764
124.275
133.275
134.989
128.342
113.108
89.9405
60.3231
26.415
-9.17204
-43.6441
-74.3111
-98.8552
-115.551
-123.417
-122.281
-112.757
-96.1448
-74.26
-49.2206
-23.2185
1.70242
23.8361
41.955
55.3906
64.0506
68.3772
69.2542
67.8784
65.6092
63.8138
63.7224
66.3073
72.1937
81.6094
94.3728
109.919
127.354
145.542
163.197
178.995
191.678
200.155
203.587
201.454
193.588
180.186
161.796
139.263
113.671
86.2541
58.3009
31.0626
5.66123
-16.9859
-36.2229
-51.6876
-63.3179
-71.332
-76.1855
-78.5102
-79.0414
-78.5415
-77.7267
-77.2054
-77.4316
-78.6791
-81.0359
-84.4181
-88.6009
-93.2619
-98.0298
-102.535
-106.455
-109.551
-111.688
-112.849
-113.127
-112.708
-111.847
-110.834
-109.953
-109.447
-109.477
-110.076
-111.12
-112.287
-113.05
-112.676
-110.27
-104.848
-95.4523
-81.2959
-61.924
-37.3691
-8.27611
24.031
57.5616
89.7659
117.736
138.489
149.305
148.075
133.611
105.884
66.1255
16.7972
-38.5986
-95.8397
-150.404
-197.94
-234.72
-258.035
-266.466
-260.002
-240.006
-209.016
-170.426
-128.091
-85.8869
-47.3139
-15.1538
8.75831
23.6396
29.7372
28.1905
20.8044
9.76939
-2.63493
-14.3149
-23.5859
-29.3221
-31.0221
-28.792
-23.2558
-15.4128
-6.46497
2.36156
9.97722
15.5547
18.6074
19.0161
17.0058
13.0819
7.93709
2.34479
-2.94679
-7.30594
-10.2846
-11.6555
-11.4171
-9.7702
-7.07109
-3.77024
-0.345032
2.76451
5.20982
6.77262
7.38533
7.13267
6.23544
5.01986
3.87658
3.21463
3.41576
4.79402
7.56472
11.8251
17.548
24.5864
32.6886
41.5182
50.6775
59.7296
68.2183
75.6855
81.687
85.8092
87.6886
87.0352
83.6586
77.4954
68.632
57.3194
43.9744
29.1648
13.5763
-2.03549
-16.9057
-30.3256
-41.7068
-50.6353
-56.9092
-60.5555
-61.822
-61.1456
-59.0981
-56.3169
-53.4265
-50.9614
-49.3
-48.619
-48.8741
-49.8126
-51.0144
-51.9583
-52.1017
-50.9654
-48.208
-43.6818
-37.461
-29.8383
-21.2928
-12.4312
-3.91431
3.62354
9.64934
13.7917
15.879
15.9518
14.2485
11.1698
7.22488
2.97138
-1.0455
-4.34469
-6.54681
-7.394
-6.75177
-4.59516
-0.983936
3.9676
10.12
17.332
25.4746
34.4335
44.1022
54.3665
65.0873
76.0842
87.1256
97.9274
108.164
117.487
125.556
132.071
136.804
139.635
140.564
139.726
137.386
133.914
129.76
125.406
121.32
117.908
115.469
114.167
114.009
114.845
116.387
118.24
119.949
121.046
121.11
119.806
116.928
112.415
106.358
98.9867
90.6392
81.7213
72.6593
63.8528
55.632
48.2275
41.7539
36.2106
31.4977
27.4444
23.8446
20.4944
17.2257
13.9311
10.5773
7.20518
3.91847
0.862528
-1.80221
-3.92807
-5.40503
-6.17921
-6.26268
-5.73372
-4.72799
-3.42226
-2.01318
-0.694021
0.367709
1.0489
1.28364
1.06878
0.461594
-0.429816
-1.46235
-2.47773
-3.32387
-3.8752
-4.04931
-3.81836
-3.21396
-2.32612
-1.29691
-0.310808
0.416847
0.652187
0.155613
-1.30444
-3.93589
-7.90476
-13.3144
-20.1831
-28.4235
-37.8263
-48.0535
-58.6449
-69.0398
-78.6153
-86.7376
-92.8238
-96.4048
-97.183
-95.0761
-90.2395
-83.0634
-74.1439
-64.2293
-54.1481
-44.7282
-36.7144
-30.6966
-27.0559
-25.9335
-27.2249
-30.5974
-35.5248
-41.3323
-47.2425
-52.4154
-55.9783
-57.0452
-54.7309
-48.1689
-36.5451
-19.1588
4.48357
34.5426
70.7028
112.037
156.91
202.96
247.179
286.115
316.182
334.05
337.068
323.654
293.594
248.195
190.251
123.829
53.8814
-14.2658
-75.476
-125.354
-160.706
-179.861
-182.798
-171.084
-147.625
-116.277
-81.3577
-47.1358
-17.357
5.14016
18.6739
22.8134
18.3179
6.93666
-8.89405
-26.4135
-42.9099
-56.0577
-64.1804
-66.4123
-62.7453
-53.9654
-41.4928
-27.1532
-12.9141
-0.621336
8.23211
12.6762
12.3577
7.54992
-0.916019
-11.7849
-23.5542
-34.6696
-43.7127
-49.5594
-51.4911
-49.2485
-43.0263
-33.4134
-21.2897
-7.69609
6.30438
19.7566
31.9187
42.3312
50.8446
57.6048
63.002
67.5933
72.011
76.869
82.6804
89.7942
98.3573
108.303
119.364
131.108
142.983
154.37
164.644
173.219
179.591
183.373
184.311
182.295
177.359
169.664
159.486
147.187
133.187
117.936
101.882
85.4515
69.0268
52.9325
37.4299
22.7169
8.93289
-3.83265
-15.5296
-26.1365
-35.6513
-44.085
-51.4568
-57.7939
-63.1322
-67.5184
-71.0128
-73.6901
-75.6394
-76.9609
-77.7607
-78.145
-78.2121
-78.046
-77.7111
-77.2494
-76.6794
-75.9992
-75.1897
-74.221
-73.0579
-71.6664
-70.0182
-68.0944
-65.8878
-63.4035
-60.6578
-57.6768
-54.4941
-51.1481
-47.6791
-44.1273
-40.5307
-36.9238
-33.3374
-29.7983
-26.33
-22.9544
-19.6926
-16.5667
-13.6008
-10.8214
-8.25734
-5.93835
-3.89329
-2.14732
-0.718911
0.382986
1.16132
1.63229
1.82547
1.78254
1.55476
1.19926
0.77478
0.337101
-0.0650722
-0.393445
-0.622208
-0.738637
-0.742184
-0.642189
-0.454512
-0.197459
0.112564
0.465236
0.859946
1.30855
1.83703
2.486
3.31006
4.37604
5.76008
7.54357
9.80776
12.6271
16.0612
20.1467
24.8883
30.2507
36.1535
42.4675
49.0158
55.58
61.9096
67.7374
72.7982
76.8497
79.6953
81.2051
81.3345
80.1366
77.767
74.479
70.6079
66.545
62.703
59.4753
57.1934
56.0867
56.2508
57.6277
60.002
63.0147
66.1943
69.0019
70.8869
71.3456
69.9761
66.5242
60.9126
53.2511
43.8262
33.0702
21.515
9.73405
-1.71832
-12.3643
-21.8484
-29.9665
-36.6747
-42.0773
-46.3969
-49.9304
-52.9989
-55.8962
-58.8451
-61.9639
-65.2493
-68.5748
-71.7055
-74.3248
-76.0695
-76.5666
-75.465
-72.4558
-67.2782
-59.7086
-49.5385
-36.5492
-20.496
-1.11613
21.8301
48.4797
78.756
112.242
148.066
184.826
220.584
252.951
279.262
296.838
303.295
296.867
276.693
243.017
197.274
142.026
80.7742
17.6329
-43.0665
-97.2117
-141.324
-172.903
-190.652
-194.578
-185.929
-167.009
-140.876
-110.985
-80.795
-53.4115
-31.2929
-16.0507
-8.36286
-7.9995
-13.9491
-24.6216
-38.0968
-52.385
-65.6678
-76.4908
-83.8922
-87.4557
-87.2908
-83.9491
-78.2939
-71.3451
-64.1203
-57.4939
-52.0908
-48.2256
-45.8899
-44.786
-44.3979
-44.0858
-43.1911
-41.1349
-37.4989
-32.0786
-24.9033
-16.223
-6.46447
3.83592
14.1143
23.8641
32.7132
40.4819
47.2139
53.1749
58.8191
64.7265
71.5201
79.7725
89.9164
102.169
116.479
132.514
149.668
167.119
183.9
198.997
211.447
220.442
225.402
226.038
222.372
214.732
203.711
190.103
174.818
158.792
142.897
127.865
114.228
102.289
92.1182
83.5671
76.3162
69.9294
63.9206
57.8201
51.2351
43.8969
35.6925
26.6755
17.0586
7.18798
-2.49714
-11.513
-19.3845
-25.6951
-30.1305
-32.5095
-32.8008
-31.1243
-27.7364
-23.0038
-17.3665
-11.2967
-5.25637
0.341451
5.16352
8.97778
11.6633
13.2086
13.7005
13.3035
12.236
10.7425
9.06804
7.43488
6.02489
4.96768
4.33517
4.14216
4.35197
4.88608
5.6361
6.47693
7.27954
7.9225
8.30118
8.33433
7.96758
7.17375
5.95031
4.31433
2.29581
-0.0693733
-2.74593
-5.70357
-8.91864
-12.3723
-16.0451
-19.9088
-23.9167
-27.9941
-32.031
-35.8806
-39.3632
-42.2771
-44.4173
-45.5969
-45.6721
-44.5646
-42.2791
-38.9122
-34.6513
-29.7629
-24.5702
-19.424
-14.6694
-10.6126
-7.49223
-5.45757
-4.5567
-4.73516
-5.84455
-7.65951
-9.90083
-12.2617
-14.4345
-16.1356
-17.1261
-17.2271
-16.3293
-14.3958
-11.4591
-7.6128
-2.99975
2.20303
7.80011
13.5932
19.3951
25.0407
30.3951
35.3576
39.8631
43.8803
47.4073
50.467
53.1004
55.3605
57.3045
58.9871
60.4518
61.7231
62.7993
63.6463
64.1947
64.3408
63.9519
62.8776
60.9653
58.0787
54.1181
49.0401
42.8728
35.7269
27.7985
19.3637
10.7649
2.38842
-5.36424
-12.1098
-17.5177
-21.3428
-23.4524
-23.8447
-22.6553
-20.1522
-16.7156
-12.8074
-8.92763
-5.56532
-3.14334
-1.96363
-2.15561
-3.63231
-6.05856
-8.8363
-11.1127
-11.8171
-9.73207
-3.60122
7.72665
25.1263
49.0129
79.1709
114.625
153.586
193.492
231.167
263.09
285.751
296.057
291.736
271.679
236.168
186.951
127.148
60.9865
-6.60796
-70.5061
-125.909
-168.847
-196.582
-207.873
-203.058
-183.967
-153.667
-116.075
-75.5006
-36.1692
-1.77853
24.8502
42.0006
49.146
46.8928
36.8
21.1065
2.40519
-16.6904
-33.8491
-47.26
-55.7831
-59.0042
-57.1963
-51.2028
-42.2639
-31.815
-21.2834
-11.9102
-4.61525
0.0817971
2.08063
1.66472
-0.578998
-3.86955
-7.35314
-10.219
-11.7956
-11.6163
-9.45032
-5.29827
0.642785
8.03588
16.4724
25.5408
34.8867
44.2554
53.5136
62.648
71.7435
80.9457
90.4142
100.275
110.579
121.271
132.178
143.014
153.4
162.901
171.072
177.503
181.864
183.941
183.658
181.085
176.423
169.982
162.147
153.328
143.92
134.26
124.599
115.083
105.75
96.5515
87.3773
78.0941
68.5879
58.801
48.7603
38.5908
28.5121
18.8187
9.8471
1.93357
-4.62911
-9.63122
-12.9753
-14.6912
-14.935
-13.9726
-12.1497
-9.85391
-7.47266
-5.35343
-3.77093
-2.90462
-2.82885
-3.51572
-4.84934
-6.64863
-8.69524
-10.7627
-12.643
-14.1684
-15.2255
-15.7619
-15.7845
-15.3521
-14.5623
-13.5367
-12.4045
-11.2883
-10.292
-9.49215
-8.93362
-8.62889
-8.56089
-8.68854
-8.95426
-9.29227
-9.63682
-9.92933
-10.1239
-10.1904
-10.1156
-9.9018
-9.56353
-9.12348
-8.60769
-8.04107
-7.44397
-6.82992
-6.20487
-5.56749
-4.91016
-4.22018
-3.48085
-2.67271
-1.77501
-0.768101
0.363153
1.62497
3.00987
4.49238
6.0264
7.54511
8.96408
10.1876
11.1175
11.664
11.7563
11.3518
10.4424
9.05778
7.26383
5.15716
2.85667
0.492829
-1.80386
-3.9138
-5.73742
-7.20162
-8.26299
-8.90759
-9.14785
-9.01698
-8.56182
-7.83526
-6.88883
-5.76656
-4.50048
-3.10807
-1.5916
0.0607847
1.87278
3.87686
6.11087
8.61455
11.4261
14.5786
18.0971
21.9948
26.2696
30.9007
35.8454
41.0365
46.38
51.7552
57.016
61.9946
66.5077
70.3648
73.3792
75.3793
76.2213
75.8011
74.0643
71.0146
66.7168
61.2973
54.939
47.8718
40.36
32.6866
25.1362
17.978
11.4504
5.74792
1.01204
-2.67475
-5.29048
-6.87203
-7.51067
-7.34537
-6.55429
-5.34454
-3.93995
-2.56617
-1.43237
-0.708533
-0.497694
-0.802759
-1.48907
-2.24593
-2.55334
-1.66361
1.38982
7.74367
18.6058
35.1026
58.0804
87.8811
124.125
165.547
209.922
254.13
294.364
326.484
346.482
350.995
337.793
306.168
257.159
193.562
119.713
41.0774
-36.3227
-106.558
-164.435
-206.05
-229.186
-233.501
-220.493
-193.255
-156.05
-113.782
-71.4127
-33.4198
-3.33942
16.5431
25.3342
23.4994
12.6734
-4.64917
-25.4963
-46.8203
-65.8679
-80.4771
-89.2711
-91.7354
-88.1816
-79.6122
-67.5158
-53.6233
-39.6612
-27.1324
-17.1495
-10.3351
-6.79579
-6.16416
-7.69703
-10.4113
-13.2368
-15.1645
-15.3719
-13.3123
-8.75794
-1.79814
7.20566
17.6963
29.016
40.5054
51.5923
61.8575
71.0734
79.2091
86.4074
92.9388
99.1409
105.355
111.868
118.867
126.415
134.445
142.773
151.127
159.182
166.606
173.086
178.367
182.258
184.639
185.454
184.686
182.345
178.441
172.973
165.929
157.288
147.041
135.217
121.906
107.285
91.628
75.3075
58.7786
42.5472
27.1283
12.9971
0.541337
-9.97961
-18.4614
-24.9635
-29.6984
-33.0015
-35.2861
-36.9892
-38.5156
-40.1878
-42.2088
-44.6425
-47.4135
-50.3265
-53.1011
-55.4179
-56.9674
-57.4966
-56.8457
-54.9716
-51.9541
-47.987
-43.3535
-38.392
-33.4566
-28.8772
-24.9255
-21.7891
-19.5588
-18.2266
-17.6967
-17.8044
-18.3416
-19.084
-19.8175
-20.3595
-20.5745
-20.3819
-19.7563
-18.7212
-17.3381
-15.6929
-13.8806
-11.9932
-10.1084
-8.28399
-6.55454
-4.93296
-3.41438
-1.98216
-0.614673
0.708161
1.99929
3.26058
4.48079
5.63545
6.68861
7.59603
8.30938
8.78095
8.96819
8.83789
8.36944
7.55749
6.41394
4.96952
3.27483
1.40082
-0.562112
-2.50659
-4.31305
-5.85678
-7.01699
-7.68716
-7.78555
-7.26455
-6.11753
-4.38229
-2.14027
0.488516
3.35441
6.29002
9.12387
11.6943
13.8625
15.5222
16.6075
17.0949
17.0027
16.3852
15.3246
13.9205
12.278
10.4985
8.67124
6.87066
5.15798
3.5878
2.21834
1.12295
0.400048
0.178455
0.615669
1.88778
4.17126
7.61863
12.3311
18.3324
25.5483
33.7953
42.7802
52.1129
61.329
69.9213
77.3766
83.2131
87.017
88.4739
87.3939
83.7297
77.5839
69.2084
58.9914
47.4356
35.1263
22.692
10.7607
-0.0865673
-9.35768
-16.686
-21.8556
-24.8138
-25.6686
-24.6721
-22.191
-18.6685
-14.5801
-10.3901
-6.51154
-3.27367
-0.897975
0.516921
1.00455
0.737291
0.0337772
-0.631598
-0.619264
0.878338
4.82235
12.2832
24.355
42.0234
65.9917
96.4826
133.047
174.419
218.456
262.196
302.059
334.162
354.745
360.635
349.69
321.153
275.862
216.27
146.263
70.8024
-4.5835
-74.3732
-133.635
-178.536
-206.716
-217.488
-211.833
-192.214
-162.227
-126.147
-88.4161
-53.1596
-23.7637
-2.5753
9.25696
11.7888
6.14731
-5.71467
-21.3372
-38.1007
-53.558
-65.7128
-73.2154
-75.4608
-72.5855
-65.3729
-55.0875
-43.2642
-31.4829
-21.1583
-13.3696
-8.74751
-7.42953
-9.08125
-12.9765
-18.1201
-23.3944
-27.7078
-30.1273
-29.9786
-26.9047
-20.8797
-12.1796
-1.3191
11.0354
24.1618
37.3751
50.1056
61.9538
72.7178
82.3919
91.1399
99.2486
107.068
114.947
123.178
131.947
141.302
151.149
161.256
171.28
180.813
189.418
196.687
202.271
205.921
207.497
206.979
204.451
200.082
194.092
186.727
178.22
168.772
158.535
147.612
136.059
123.908
111.186
97.9362
84.242
70.24
56.1248
42.1456
28.5912
15.7689
3.97797
-6.5184
-15.5182
-22.9001
-28.635
-32.7874
-35.5079
-37.0159
-37.5775
-37.4788
-36.9986
-36.3848
-35.8346
-35.4822
-35.3934
-35.5684
-35.951
-36.4432
-36.9231
-37.2643
-37.3539
-37.1079
-36.4813
-35.4735
-34.1273
-32.5218
-30.7624
-28.9657
-27.2455
-25.6979
-24.3903
-23.354
-22.5813
-22.0284
-21.6223
-21.2703
-20.8729
-20.335
-19.5769
-18.5421
-17.2013
-15.5534
-13.6229
-11.4547
-9.10803
-6.64994
-4.14962
-1.67438
0.712852
2.95427
4.99684
6.79156
8.29281
9.4586
10.2518
10.6422
10.6099
10.1477
9.26444
7.98647
6.358
4.44028
2.3092
0.0520314
-2.23645
-4.4581
-6.51554
-8.31617
-9.77594
-10.8227
-11.3994
-11.4659
-11.0008
-10.0022
-8.48694
-6.49056
-4.06507
-1.2769
1.79597
5.06767
8.4484
11.849
15.1856
18.3838
21.3831
24.1395
26.6281
28.8434
30.7987
32.5238
34.0615
35.4624
36.7797
38.0622
39.3496
40.6662
42.0181
43.3917
44.7542
46.0573
47.2427
48.2495
49.0214
49.5148
49.7042
49.5862
49.1801
48.5253
47.6759
46.6934
45.6374
44.5568
43.4818
42.4184
41.3454
40.2142
38.9531
37.4723
35.6723
33.4521
30.7184
27.3926
23.4177
18.7634
13.4291
7.44687
0.883215
-6.15987
-13.5444
-21.0974
-28.6128
-35.8566
-42.574
-48.5003
-53.374
-56.9543
-59.0389
-59.4833
-58.2188
-55.265
-50.7354
-44.8294
-37.8083
-29.9515
-21.4938
-12.5505
-3.04158
7.36693
19.2822
33.5465
51.1281
72.945
99.6362
131.317
167.363
206.272
245.64
282.295
312.565
332.679
339.242
329.719
302.853
258.957
200.013
129.571
52.4371
-25.8052
-99.3837
-162.958
-212.192
-244.205
-257.846
-253.76
-234.243
-202.919
-164.272
-123.113
-84.0423
-50.9675
-26.7436
-12.955
-9.86311
-16.5071
-30.9341
-50.5184
-72.3253
-93.4715
-111.441
-124.324
-130.962
-130.991
-124.787
-113.339
-98.0641
-80.5952
-62.5753
-45.4713
-30.433
-18.2053
-9.09824
-3.01017
0.504239
2.13578
2.70696
3.05807
3.9464
5.96835
9.51064
14.7321
21.5745
29.7967
39.0267
48.8215
58.7293
68.3453
77.3574
85.576
92.9479
99.5524
105.582
111.31
117.048
123.101
129.721
137.065
145.169
153.922
163.072
172.226
180.886
188.48
194.415
198.123
199.115
197.026
191.648
182.955
171.104
156.433
139.439
120.743
101.052
81.1076
61.6402
43.3179
26.7042
12.2233
0.136614
-9.4654
-16.6582
-21.6629
-24.8147
-26.5217
-27.2196
-27.3267
-27.2034
-27.1223
-27.2508
-27.6493
-28.2842
-29.0547
-29.8269
-30.4726
-30.9021
-31.09
-31.0842
-31.001
-31.0036
-31.2698
-31.9538
-33.15
-34.8651
-37.0041
-39.3729
-41.6985
-43.6624
-44.9436
-45.2628
-44.4234
-42.3406
-39.0562
-34.7369
-29.6558
-24.1606
-18.6339
-13.4491
-8.9294
-5.31506
-2.74052
-1.22581
-0.681186
-0.924192
-1.70655
-2.74746
-3.76932
-4.53162
-4.85909
-4.66043
-3.93534
-2.76896
-1.31439
0.233872
1.67162
2.81685
3.53701
3.76756
3.5192
2.87328
1.96653
0.96798
0.0519716
-0.628314
-0.962974
-0.89999
-0.450578
0.314925
1.27946
2.29754
3.21637
3.89658
4.2297
4.15029
3.64172
2.73557
1.50554
0.0572021
-1.48471
-2.98985
-4.3353
-5.41674
-6.15718
-6.51248
-6.47353
-6.06515
-5.34191
-4.38153
-3.27643
-2.12449
-1.01966
-0.0435794
0.741244
1.2961
1.60825
1.69063
1.57944
1.33011
1.01243
0.705666
0.494242
0.46449
0.702551
1.29322
2.31935
3.86122
5.9953
8.79196
12.3116
16.5988
21.6752
27.5297
34.1088
41.3065
48.9562
56.8279
64.6303
72.0222
78.6317
84.0828
88.028
90.181
90.348
88.4507
84.5391
78.7911
71.4998
63.0483
53.8763
44.443
35.1899
26.5085
18.717
12.0468
6.63982
2.55416
-0.223221
-1.76158
-2.17163
-1.59399
-0.1923
1.84866
4.32124
6.99239
9.60465
11.8855
13.57
14.4397
14.3795
13.4459
11.9404
10.4698
9.97576
11.7122
17.1545
27.8317
45.0896
69.8087
102.118
141.157
184.943
230.389
273.496
309.729
334.519
343.855
334.863
306.286
258.793
195.037
119.473
37.9149
-43.0858
-116.976
-177.94
-221.556
-245.266
-248.614
-233.219
-202.5
-161.192
-114.727
-68.5695
-27.5875
4.4526
25.222
33.9588
31.3938
19.499
1.10796
-20.5321
-42.211
-61.1501
-75.2966
-83.4883
-85.4832
-81.8647
-73.8504
-63.0422
-51.1567
-39.7763
-30.1509
-23.0705
-18.8175
-17.1934
-17.6088
-19.2144
-21.05
-22.1892
-21.8601
-19.5273
-14.9308
-8.08023
0.786981
11.2735
22.9023
35.1949
47.7379
60.2271
72.4864
84.4626
96.1972
107.786
119.331
130.897
142.479
153.979
165.214
175.924
185.807
194.557
201.902
207.643
211.674
213.999
214.723
214.036
212.18
209.411
205.959
201.99
197.581
192.702
187.22
180.914
173.51
164.724
154.312
142.118
128.122
112.465
95.464
77.6003
59.489
41.8296
25.343
10.703
-1.52976
-10.9632
-17.4118
-20.9129
-21.7186
-20.2657
-17.1271
-12.95
-8.39025
-4.04854
-0.416815
2.16014
3.50457
3.60599
2.60341
0.752969
-1.61416
-4.13787
-6.47371
-8.33103
-9.50101
-9.87235
-9.43413
-8.26682
-6.52356
-4.40498
-2.1309
0.0874147
2.07142
3.69322
4.88563
5.64376
6.01825
6.10169
6.01026
5.8633
5.76377
5.78216
5.94605
6.23648
6.5915
6.9161
7.09707
7.02062
6.59024
5.74244
4.45829
2.76915
0.755888
-1.45827
-3.72041
-5.86448
-7.72965
-9.17812
-10.1102
-10.4744
-10.2723
-9.55649
-8.42285
-6.99884
-5.42859
-3.85758
-2.41856
-1.22025
-0.339965
0.179642
0.329718
0.131002
-0.372766
-1.12266
-2.05249
-3.09578
-4.19131
-5.28666
-6.34003
-7.32052
-8.20739
-8.98895
-9.66132
-10.2276
-10.697
-11.0851
-11.4122
-11.7031
-11.9845
-12.2822
-12.6169
-12.9994
-13.4262
-13.8754
-14.3036
-14.6461
-14.8171
-14.7143
-14.2233
-13.2248
-11.6023
-9.25148
-6.08968
-2.06618
2.82842
8.55451
15.0188
22.0742
29.5239
37.1321
44.6377
51.7726
58.2807
63.9355
68.5556
72.0133
74.2383
75.2141
74.9695
73.5667
71.0895
67.633
63.2976
58.1869
52.4109
46.0912
39.3663
32.3961
25.3616
18.4598
11.8937
5.85836
0.523591
-3.98204
-7.58552
-10.2786
-12.1209
-13.2352
-13.7964
-14.0138
-14.1092
-14.293
-14.74
-15.5676
-16.8162
-18.4324
-20.2522
-21.9843
-23.192
-23.2783
-21.4807
-16.8887
-8.49505
4.70569
23.5711
48.6245
79.8522
116.52
157.053
199.017
239.231
274.019
299.587
312.471
310.01
290.763
254.802
203.833
141.117
71.1842
-0.616847
-68.6839
-127.767
-173.532
-203.018
-214.921
-209.68
-189.359
-157.348
-117.918
-75.7082
-35.1944
-0.216129
26.3911
43.0189
49.3483
46.2576
35.5977
19.8745
1.88461
-15.6483
-30.3914
-40.6411
-45.4608
-44.7107
-38.9772
-29.4202
-17.566
-5.07758
6.46812
15.7672
21.9217
24.5066
23.5702
19.5761
13.3001
5.70233
-2.20499
-9.47699
-15.3275
-19.1847
-20.7102
-19.785
-16.4712
-10.9612
-3.52443
5.53867
15.9297
27.3696
39.6022
52.3866
65.4856
78.6547
91.6361
104.162
115.966
126.803
136.468
144.821
151.8
157.428
161.8
165.074
167.432
169.054
170.076
170.565
170.499
169.765
168.172
165.477
161.424
155.792
148.435
139.317
128.536
116.328
103.048
89.1483
75.1304
61.5016
48.7268
37.1877
27.154
18.7666
12.0367
6.8574
3.0275
0.281468
-1.67658
-3.14001
-4.37121
-5.58041
-6.91315
-8.44688
-10.1959
-12.1228
-14.1543
-16.199
-18.1646
-19.9722
-21.5675
-22.9262
-24.055
-24.9888
-25.7837
-26.5084
-27.2347
-28.0285
-28.9418
-30.0069
-31.2326
-32.6028
-34.0769
-35.5925
-37.0687
-38.4114
-39.519
-40.2893
-40.6266
-40.4497
-39.6992
-38.3439
-36.3868
-33.8671
-30.8608
-27.477
-23.8514
-20.1364
-16.4891
-13.0588
-9.97397
-7.33209
-5.1921
-3.57113
-2.44562
-1.7567
-1.41895
-1.33141
-1.38929
-1.49491
-1.56626
-1.54242
-1.38514
-1.07687
-0.616081
-0.0113449
0.724358
1.5774
2.53435
3.57954
4.68983
5.82803
6.93684
7.93562
8.72183
9.17846
9.18719
8.646
7.48863
5.70228
3.34006
0.525281
-2.55433
-5.66243
-8.53837
-10.9267
-12.608
-13.426
-13.3078
-12.273
-10.4318
-7.97077
-5.12879
-2.167
0.663962
3.15463
5.16139
6.62219
7.56178
8.08643
8.36968
8.63131
9.11269
10.0512
11.6561
14.088
17.4431
21.743
26.9311
32.8756
39.3781
46.1887
53.025
59.5938
65.614
70.8379
75.0688
78.1729
80.0846
80.8045
80.391
78.9469
76.6039
73.5067
69.8008
65.6237
61.102
56.3522
51.4856
46.6133
41.8502
37.3141
33.1215
29.3773
26.1618
23.5161
21.4304
19.8361
18.6062
17.563
16.4945
15.1761
13.3966
10.9843
7.83255
3.92244
-0.656535
-5.6866
-10.8028
-15.4763
-19.0043
-20.5152
-18.9974
-13.365
-2.56516
14.272
37.6502
67.5144
103.08
142.725
183.978
223.634
258.008
283.296
296.028
293.532
274.347
238.517
187.72
125.177
55.3797
-16.366
-84.5056
-143.84
-190.091
-220.35
-233.36
-229.595
-211.133
-181.349
-144.469
-105.053
-67.4667
-35.4171
-11.5923
2.54844
6.82408
2.2267
-9.31353
-25.2539
-42.8073
-59.3052
-72.5102
-80.8459
-83.5215
-80.5478
-72.6511
-61.1069
-47.52
-33.5863
-20.8648
-10.5907
-3.54621
-0.00227927
0.269742
-2.07601
-6.08076
-10.629
-14.6022
-17.0179
-17.1394
-14.5428
-9.13935
-1.15263
8.94182
20.5027
32.8221
45.2218
57.1357
68.1671
78.1159
86.9747
94.8977
102.15
109.043
115.877
122.88
130.175
137.755
145.493
153.156
160.442
167.026
172.598
176.905
179.778
181.145
181.029
179.535
176.819
173.055
168.402
162.973
156.811
149.888
142.11
133.344
123.452
112.338
99.9847
86.4923
72.0953
57.1631
42.1792
27.701
14.3057
2.53016
-7.18898
-14.5638
-19.4872
-22.0434
-22.4958
-21.2536
-18.8228
-15.7477
-12.5508
-9.67856
-7.46038
-6.08327
-5.58611
-5.87208
-6.73664
-7.90667
-9.08519
-9.9955
-10.4195
-10.2253
-9.38227
-7.96094
-6.12051
-4.08506
-2.11293
-0.463181
0.636338
1.01555
0.580488
-0.678239
-2.68725
-5.30145
-8.32239
-11.5213
-14.6637
-17.5328
-19.9492
-21.7845
-22.9691
-23.4926
-23.398
-22.7718
-21.7296
-20.4014
-18.9168
-17.3917
-15.9189
-14.5618
-13.3522
-12.2921
-11.3585
-10.511
-9.70028
-8.87681
-7.99922
-7.04025
-5.99061
-4.85989
-3.67481
-2.47501
-1.30737
-0.219669
0.745415
1.555
2.18899
2.64108
2.918
3.03742
3.02512
2.91197
2.73132
2.51708
2.3025
2.11959
1.99863
1.96744
2.04968
2.26221
2.61147
3.08945
3.6705
4.30985
4.94538
5.50291
5.90515
6.0831
5.98836
5.60409
4.95278
4.09897
3.1464
2.22941
1.49981
1.11084
1.20041
1.87588
3.20239
5.19619
7.82381
11.0071
14.633
18.5676
22.6705
26.8099
30.8739
34.7777
38.4651
41.9046
45.0801
47.978
50.5735
52.8176
54.6284
55.8889
56.4526
56.1575
54.8467
52.3941
48.7295
43.8608
37.8883
31.0081
23.5041
15.7273
8.06572
0.907948
-5.3952
-10.5661
-14.4281
-16.923
-18.115
-18.1823
-17.3959
-16.0905
-14.6299
-13.3711
-12.6324
-12.6664
-13.6416
-15.6299
-18.5999
-22.412
-26.8108
-31.4136
-35.6943
-38.9657
-40.3722
-38.9028
-33.4408
-22.8624
-6.18595
17.2338
47.4924
83.9378
125.035
168.336
210.584
247.969
276.515
292.55
293.208
276.87
243.486
194.704
133.797
65.3576
-5.175
-72.1148
-130.168
-175.023
-203.821
-215.439
-210.546
-191.457
-161.771
-125.888
-88.442
-53.7482
-25.3214
-5.53
4.58278
5.29801
-1.94476
-14.8443
-30.6166
-46.3996
-59.6313
-68.3528
-71.4065
-68.5123
-60.224
-47.7832
-32.8973
-17.4792
-3.38318
7.8288
15.0636
17.8
16.112
10.6166
2.36048
-7.33666
-17.0566
-25.4536
-31.4011
-34.0985
-33.1297
-28.4708
-20.4517
-9.68013
3.05806
16.9087
31.0542
44.8006
57.6387
69.2739
79.623
88.7845
96.9869
104.526
111.703
118.762
125.856
133.02
140.167
147.109
153.586
159.303
163.975
167.364
169.305
169.722
168.634
166.136
162.384
157.564
151.864
145.45
138.443
130.919
122.907
114.406
105.407
95.9143
85.9682
75.6602
65.1371
54.5941
44.258
34.3609
25.1125
16.673
9.13328
2.50668
-3.26782
-8.30942
-12.7701
-16.8045
-20.5397
-24.0511
-27.3479
-30.371
-33.0029
-35.0884
-36.4627
-36.981
-36.5472
-35.1347
-32.7986
-29.6762
-25.9766
-21.9608
-17.9152
-14.1222
-10.8312
-8.2347
-6.45004
-5.5112
-5.36918
-5.90158
-6.92952
-8.23965
-9.60854
-10.8267
-11.7194
-12.1626
-12.0921
-11.5052
-10.4559
-9.04328
-7.39626
-5.65563
-3.95638
-2.41221
-1.10417
-0.0745027
0.673881
1.17248
1.47797
1.66017
1.78899
1.92234
2.09659
2.32093
2.57615
2.81816
2.98562
3.01092
2.83309
2.41097
1.73478
0.834227
-0.218683
-1.31309
-2.30942
-3.05557
-3.40719
-3.24964
-2.51814
-1.21301
0.593153
2.75804
5.0827
7.33383
9.27271
10.6865
11.4174
11.384
10.5929
9.13537
7.17304
4.91201
2.57171
0.353258
-1.58716
-3.15535
-4.32426
-5.12707
-5.64014
-5.95954
-6.17586
-6.35169
-6.50582
-6.60633
-6.57355
-6.29167
-5.62655
-4.44633
-2.64097
-0.137321
3.0926
7.03089
11.6199
16.7728
22.3864
28.3514
34.5597
40.9062
47.2849
53.5823
59.6696
65.3968
70.5916
75.0649
78.6224
81.0818
82.2937
82.1612
80.6567
77.8311
73.8133
68.7999
63.0358
56.788
50.3176
43.854
37.5769
31.6072
26.0098
20.8057
15.9909
11.5572
7.5104
3.88106
0.72593
-1.88201
-3.87271
-5.2042
-5.88844
-6.01131
-5.74032
-5.31432
-5.01131
-5.09398
-5.73619
-6.93869
-8.44726
-9.69073
-9.75858
-7.43716
-1.31764
10.0218
27.7723
52.6181
84.4731
122.282
163.934
206.335
245.636
277.623
298.205
303.952
292.585
263.36
217.274
157.047
86.8978
12.1164
-61.5003
-128.277
-183.271
-222.793
-244.764
-248.88
-236.563
-210.717
-175.331
-134.976
-94.2712
-57.3861
-27.6227
-7.13677
3.1888
3.71232
-4.13937
-18.152
-35.67
-53.9608
-70.5515
-83.4989
-91.5672
-94.299
-91.9816
-85.5207
-76.248
-65.6915
-55.3425
-46.4496
-39.8649
-35.9579
-34.603
-35.2364
-36.9687
-38.7329
-39.4473
-38.1665
-34.2048
-27.2136
-17.2076
-4.53843
10.1749
26.1475
42.5428
58.5833
73.6417
87.3
99.3736
109.897
119.082
127.25
134.763
141.952
149.063
156.224
163.431
170.567
177.432
183.786
189.397
194.082
197.734
200.337
201.964
202.747
202.848
202.418
201.551
200.255
198.431
195.869
192.27
187.277
180.53
171.714
160.622
147.194
131.557
114.029
95.1152
75.4702
55.8493
37.0424
19.8035
4.78214
-7.53569
-16.8687
-23.1609
-26.5786
-27.4848
-26.3946
-23.9177
-20.6931
-17.3269
-14.3358
-12.1059
-10.8681
-10.6927
-11.5018
-13.097
-15.198
-17.486
-19.6474
-21.411
-22.5773
-23.0346
-22.7634
-21.8281
-20.3598
-18.5325
-16.5368
-14.5543
-12.7365
-11.1905
-9.97171
-9.08495
-8.49164
-8.12214
-7.8905
-7.70933
-7.50272
-7.21549
-6.8181
-6.30691
-5.7005
-5.0332
-4.34708
-3.68396
-3.07867
-2.55444
-2.12085
-1.77419
-1.50002
-1.27694
-1.0809
-0.889316
-0.684299
-0.454735
-0.197038
0.0853374
0.383432
0.685067
0.977547
1.25043
1.49792
1.72053
1.92552
2.12581
2.33741
2.57543
2.84951
3.15947
3.49236
3.82158
4.10891
4.30921
4.37724
4.27559
3.98237
3.49719
2.84449
2.07326
1.25319
0.467513
-0.196576
-0.658405
-0.853893
-0.743611
-0.317652
0.403442
1.37187
2.51951
3.76761
5.0381
6.26483
7.40371
8.4402
9.39363
10.3177
11.2973
12.4409
13.8709
15.7097
18.0657
21.017
24.5973
28.7817
33.4778
38.5201
43.6713
48.6319
53.0573
56.584
58.8619
59.5905
58.5538
55.6508
50.9152
44.5214
36.7754
28.089
18.9405
9.82536
1.20382
-6.54894
-13.1818
-18.5906
-22.8204
-26.047
-28.5392
-30.608
-32.5504
-34.5962
-36.8682
-39.3616
-41.9455
-44.3884
-46.4005
-47.6869
-47.998
-47.1691
-45.1356
-41.9202
-37.5887
-32.1817
-25.6347
-17.7065
-7.93663
4.3436
19.935
39.6241
63.9805
93.1266
126.522
162.812
199.781
234.451
263.325
282.761
289.437
280.837
255.68
214.236
158.444
91.8347
19.2282
-53.7377
-121.203
-177.722
-218.858
-241.664
-244.983
-229.548
-197.864
-153.89
-102.586
-49.3549
0.526749
42.4447
72.8797
89.6998
92.2884
81.5023
59.4768
29.308
-5.34417
-40.6839
-73.1882
-99.9536
-118.946
-129.134
-130.499
-123.936
-111.054
-93.9212
-74.7833
-55.7894
-38.7583
-25.0098
-15.2724
-9.67203
-7.79338
-8.79884
-11.5837
-14.9441
-17.7351
-19.0004
-18.0611
-14.5579
-8.447
0.042101
10.4774
22.3102
34.9622
47.9034
60.7106
73.102
84.946
96.2465
107.11
117.699
128.185
138.702
149.307
159.962
170.524
180.758
190.356
198.973
206.264
211.919
215.695
217.435
217.076
214.644
210.237
204.001
196.109
186.733
176.032
164.148
151.208
137.336
122.676
107.405
91.7492
75.9917
60.4667
45.5441
31.6047
19.0078
8.05693
-1.03182
-8.15422
-13.3314
-16.7102
-18.5499
-19.1973
-19.0517
-18.5259
-18.0063
-17.8162
-18.1888
-19.249
-21.0089
-23.3746
-26.1648
-29.137
-32.0191
-34.5426
-36.473
-37.6346
-37.9282
-37.3382
-35.9307
-33.8427
-31.264
-28.4142
-25.5185
-22.7841
-20.3803
-18.4242
-16.9732
-16.025
-15.5232
-15.3695
-15.4383
-15.5933
-15.7036
-15.6573
-15.3717
-14.7989
-13.9273
-12.7785
-11.4018
-9.8659
-8.24977
-6.63408
-5.09327
-3.68957
-2.46899
-1.45954
-0.671365
-0.0985684
0.277841
0.486276
0.560693
0.536897
0.449367
0.328824
0.200756
0.0850547
-0.00305993
-0.0506991
-0.0435568
0.0389859
0.229292
0.576463
1.14968
2.03862
3.34989
5.19892
7.69723
10.936
14.9677
19.7875
25.3192
31.406
37.8112
44.2293
50.3062
55.6699
59.9659
62.8946
64.2455
63.9239
61.9663
58.5428
53.9441
48.5563
42.8249
37.2121
32.1529
28.0137
25.0593
23.4322
23.1445
24.0852
26.0399
28.7206
31.8021
34.958
37.8941
40.3736
42.2326
43.3829
43.8058
43.5362
42.6417
41.2006
39.2812
36.927
34.1489
30.9247
27.2067
22.9347
18.053
12.5278
6.36355
-0.384167
-7.60171
-15.1164
-22.7026
-30.094
-37.0019
-43.1374
-48.236
-52.0823
-54.5318
-55.5281
-55.1131
-53.429
-50.7098
-47.2649
-43.4533
-39.6497
-36.2063
-33.4095
-31.4342
-30.2995
-29.8242
-29.5916
-28.9255
-26.8906
-22.326
-13.9254
-0.368644
19.4941
46.4199
80.5387
121.146
166.568
214.139
260.329
301.019
331.914
349.049
349.311
330.911
293.726
239.452
171.526
94.8356
15.2272
-61.114
-128.334
-181.546
-217.345
-234.142
-232.282
-213.924
-182.723
-143.35
-100.918
-60.3938
-26.0561
-1.07807
12.7404
15.0581
6.90485
-9.55895
-31.3922
-55.2843
-77.9737
-96.6242
-109.118
-114.239
-111.736
-102.262
-87.2171
-68.5159
-48.3139
-28.7316
-11.6071
1.69413
10.3965
14.3492
13.9838
10.206
4.24146
-2.54171
-8.81004
-13.4195
-15.5318
-14.6814
-10.7899
-4.13116
4.74481
15.1144
26.1949
37.2544
47.703
57.1556
65.4586
72.6819
79.0791
85.0245
90.9376
97.2069
104.123
111.832
120.308
129.358
138.647
147.734
156.133
163.367
169.016
172.761
174.405
173.88
171.235
166.615
160.23
152.322
143.139
132.907
121.824
110.055
97.7369
84.9957
71.9576
58.7645
45.5836
32.6106
20.0652
8.18059
-2.81332
-12.7085
-21.3381
-28.5922
-34.4288
-38.8779
-42.0379
-44.0661
-45.1625
-45.5506
-45.4576
-45.0939
-44.6368
-44.2177
-43.9153
-43.753
-43.7034
-43.6963
-43.6311
-43.3922
-42.864
-41.9468
-40.5688
-38.6961
-36.3366
-33.5407
-30.3962
-27.0199
-23.5467
-20.1167
-16.863
-13.9008
-11.3189
-9.17433
-7.49024
-6.25718
-5.43673
-4.96731
-4.77117
-4.76185
-4.85146
-4.95725
-5.00718
-4.94406
-4.72845
-4.34003
-3.7778
-3.05895
-2.21672
-1.29716
-0.35522
0.549845
1.35932
2.01986
2.48803
2.73407
2.74476
2.52494
2.09751
1.50183
0.790396
0.0243152
-0.732296
-1.4182
-1.98064
-2.38006
-2.59341
-2.61561
-2.45916
-2.15202
-1.73386
-1.25142
-0.753313
-0.285034
0.115373
0.420531
0.615554
0.698368
0.678629
0.575486
0.414562
0.224632
0.0344642
-0.129752
-0.246085
-0.297512
-0.271565
-0.159172
0.0470239
0.354496
0.77246
1.313
1.9915
2.82634
3.83793
5.04723
6.47412
8.13571
10.045
12.2099
14.6328
17.3107
20.2358
23.3957
26.7733
30.3467
34.0865
37.9535
41.8945
45.8385
49.6938
53.3463
56.6617
59.4898
61.6742
63.0636
63.5261
62.9635
61.3247
58.6148
54.9001
50.3067
45.0138
39.2407
33.2303
27.2304
21.4742
16.1631
11.453
7.44469
4.18072
1.6463
-0.224164
-1.53691
-2.42532
-3.03414
-3.50165
-3.93982
-4.4121
-4.90832
-5.31679
-5.39519
-4.74394
-2.78849
1.22021
8.17654
19.0523
34.7842
56.1187
83.4264
116.511
154.444
195.475
237.034
275.872
308.326
330.704
339.726
332.982
309.321
269.115
214.347
148.505
76.2687
3.05554
-65.5508
-124.393
-169.29
-197.469
-207.831
-201.016
-179.274
-146.152
-106.052
-63.713
-23.6866
10.1353
34.8859
48.9466
52.0116
44.9993
29.8316
9.11864
-14.2051
-37.247
-57.4809
-72.995
-82.6421
-86.0824
-83.727
-76.5964
-66.1225
-53.9221
-41.575
-30.4309
-21.4681
-15.2146
-11.7358
-10.6817
-11.3829
-12.9766
-14.5435
-15.2365
-14.3855
-11.5663
-6.6282
0.318547
8.95059
18.8031
29.3529
40.1004
50.6378
60.6955
70.1625
79.0797
87.6106
95.9945
104.493
113.335
122.673
132.547
142.875
153.451
163.964
174.027
183.214
191.098
197.286
201.45
203.354
202.862
199.951
194.704
187.305
178.021
167.183
155.154
142.31
129.006
115.559
102.23
89.2211
76.6745
64.6879
53.3288
42.6529
32.7189
23.5992
15.3818
8.16536
2.04712
-2.89285
-6.6085
-9.10221
-10.4339
-10.7234
-10.145
-8.91463
-7.27282
-5.46328
-3.71216
-2.20923
-1.09378
-0.44638
-0.287313
-0.581398
-1.24813
-2.17563
-3.23646
-4.30346
-5.26376
-6.02976
-6.54612
-6.79255
-6.78254
-6.55854
-6.18457
-5.73723
-5.29621
-4.93526
-4.71438
-4.67398
-4.83119
-5.17863
-5.68548
-6.3008
-6.95848
-7.58362
-8.09944
-8.43438
-8.52836
-8.33795
-7.83965
-7.03118
-5.93099
-4.57646
-3.02163
-1.33497
0.402182
2.09692
3.64632
4.9403
5.86661
6.31863
6.20576
5.4655
4.07551
2.06359
-0.486629
-3.43603
-6.59731
-9.74915
-12.656
-15.0913
-16.8612
-17.8256
-17.9139
-17.1333
-15.5678
-13.3691
-10.7398
-7.91094
-5.11713
-2.57226
-0.448068
1.14139
2.14809
2.59044
2.54607
2.13826
1.51791
0.843538
0.261952
-0.10809
-0.187182
0.0596389
0.624411
1.46384
2.51164
3.69371
4.94385
6.21785
7.50396
8.82836
10.2549
11.8791
13.8167
16.1889
19.1048
22.644
26.8407
31.6719
37.0496
42.8203
48.7702
54.6373
60.129
64.9451
68.8018
71.4571
72.7322
72.5281
70.8345
67.73
63.3726
57.9834
51.8234
45.168
38.2814
31.3947
24.6899
18.2916
12.2669
6.63299
1.37156
-3.55285
-8.17277
-12.4992
-16.5078
-20.1317
-23.2644
-25.7718
-27.5134
-28.3701
-28.2724
-27.2249
-25.3185
-22.7254
-19.6705
-16.38
-13.0097
-9.56342
-5.81616
-1.26241
4.89057
13.6671
26.1969
43.5222
66.3602
94.8552
128.368
165.349
203.345
239.143
269.08
289.452
297
289.382
265.564
226.07
173.031
110.037
41.7861
-26.4027
-89.1734
-141.717
-180.288
-202.593
-207.989
-197.497
-173.617
-139.979
-100.888
-60.8213
-23.93
6.37777
27.7439
39.0215
40.2849
32.6989
18.2758
-0.443033
-20.7344
-40.0282
-56.1885
-67.7154
-73.848
-74.5687
-70.5154
-62.8244
-52.9266
-42.3305
-32.4169
-24.2715
-18.5724
-15.5405
-14.954
-16.2184
-18.4793
-20.7586
-22.0959
-21.6758
-18.927
-13.5823
-5.69374
4.39317
16.1031
28.7192
41.4848
53.7034
64.8242
74.5039
82.6361
89.3485
94.9674
99.9576
104.847
110.143
116.263
123.468
131.833
141.234
151.366
161.786
171.965
181.353
189.437
195.798
200.137
202.295
202.24
200.056
195.902
189.978
182.495
173.648
163.599
152.479
140.397
127.454
113.767
99.4904
84.8273
70.0405
55.446
41.3985
28.2669
16.4034
6.1117
-2.38409
-8.96213
-13.6163
-16.4575
-17.7026
-17.6522
-16.6605
-15.1003
-13.3276
-11.65
-10.3023
-9.43126
-9.09152
-9.252
-9.81117
-10.619
-11.5023
-12.2898
-12.8343
-13.0297
-12.8201
-12.2031
-11.2264
-9.97923
-8.58125
-7.16952
-5.88474
-4.85757
-4.19562
-3.97176
-4.21466
-4.90278
-5.96302
-7.27486
-8.68059
-10.0009
-11.0545
-11.6797
-11.7547
-11.2146
-10.0611
-8.36524
-6.26051
-3.92897
-1.58055
0.570732
2.33107
3.54831
4.12814
4.04322
3.33435
2.1041
0.50377
-1.28441
-3.06767
-4.66325
-5.91703
-6.71806
-7.0077
-6.78279
-6.09247
-5.02971
-3.71852
-2.29868
-0.909747
0.32376
1.30442
1.97011
2.29765
2.3019
2.03079
1.55719
0.968798
0.357434
-0.191112
-0.605501
-0.834834
-0.851729
-0.652405
-0.254021
0.310236
0.997586
1.76279
2.56516
3.37482
4.17757
4.9781
5.80134
6.69171
7.71026
8.92958
10.4268
12.2751
14.534
17.2406
20.4011
23.9857
27.9263
32.1179
36.4241
40.6856
44.7315
48.3913
51.5074
53.9457
55.6041
56.4186
56.3647
55.4571
53.7451
51.3073
48.2432
44.6663
40.6963
36.4532
32.0524
27.6014
23.1988
18.9325
14.8802
11.1089
7.67418
4.61925
1.9736
-0.24856
-2.04959
-3.44908
-4.48357
-5.20498
-5.67794
-5.97572
-6.17489
-6.34813
-6.55393
-6.82143
-7.12804
-7.36866
-7.31774
-6.58951
-4.60715
-0.595959
6.38272
17.3431
33.2275
54.7088
81.9691
114.493
150.926
189.035
225.819
257.751
281.161
292.692
289.771
271.027
236.572
188.114
128.855
63.1961
-3.7177
-66.5636
-120.428
-161.347
-186.726
-195.588
-188.625
-168.05
-137.278
-100.483
-62.0934
-26.2885
3.44239
24.6262
35.9906
37.4935
30.2073
16.0836
-2.36185
-22.4
-41.4293
-57.266
-68.3551
-73.8827
-73.7884
-68.6842
-59.7016
-48.2918
-36.009
-24.3049
-14.3588
-6.96086
-2.45585
-0.749981
-1.37155
-3.57275
-6.45515
-9.10036
-10.6886
-10.5913
-8.42889
-4.08999
2.28581
10.3553
19.6394
29.6008
39.72
49.56
58.8131
67.3248
75.0938
82.2507
89.0192
95.6664
102.451
109.574
117.144
125.15
133.462
141.841
149.966
157.47
163.987
169.187
172.815
174.714
174.835
173.231
170.047
165.487
159.787
153.174
145.84
137.919
129.474
120.502
110.951
100.75
89.8419
78.2179
65.9472
53.1931
40.2166
27.3635
15.039
3.67157
-6.32776
-14.6067
-20.9073
-25.093
-27.1629
-27.2526
-25.6221
-22.6318
-18.7096
-14.3129
-9.88982
-5.84209
-2.49499
-0.075236
1.30066
1.62743
1.00189
-0.395026
-2.32276
-4.50948
-6.68136
-8.58967
-10.0333
-10.8744
-11.0465
-10.5542
-9.46541
-7.8978
-6.00127
-3.9387
-1.86756
0.0757595
1.78737
3.20212
4.29462
5.07541
5.5835
5.87641
6.01943
6.07543
6.09666
6.11914
6.16028
6.21969
6.28243
6.32422
6.31724
6.23574
6.06024
5.78004
5.39341
4.90608
4.3282
3.67085
2.94276
2.14802
1.2853
0.348521
-0.670915
-1.78111
-2.98632
-4.2839
-5.66218
-7.09923
-8.56277
-10.0108
-11.3929
-12.6518
-13.7258
-14.5525
-15.0735
-15.2412
-15.0272
-14.4308
-13.4866
-12.2695
-10.894
-9.50746
-8.27723
-7.37109
-6.93494
-7.07002
-7.81382
-9.12798
-10.8957
-12.9297
-14.9903
-16.8114
-18.1305
-18.7193
-18.4106
-17.1172
-14.842
-11.6762
-7.78706
-3.39725
1.24293
5.88565
10.3148
14.371
17.9682
21.1013
23.8424
26.327
28.7314
31.2442
34.036
37.2299
40.8781
44.9462
49.3078
53.7506
57.9931
61.7094
64.5613
66.2317
66.4582
65.0616
61.9676
57.2183
50.9734
43.5004
35.1547
26.3516
17.5328
9.13096
1.5357
-4.93574
-10.0599
-13.7192
-15.9039
-16.7044
-16.2963
-14.9192
-12.8536
-10.3966
-7.83917
-5.44424
-3.42559
-1.92492
-0.985694
-0.523059
-0.291581
0.143763
1.4245
4.39181
10.0437
19.4473
33.6028
53.2677
78.7602
109.772
145.228
183.23
221.114
255.632
283.254
300.559
304.665
293.644
266.845
225.098
170.73
107.401
39.7714
-26.9703
-87.6536
-137.678
-173.505
-193.016
-195.715
-182.73
-156.632
-121.093
-80.445
-39.1696
-1.41487
29.4265
51.0206
62.2519
63.2301
55.1544
40.0638
20.513
-0.779294
-21.2656
-38.8459
-52.059
-60.172
-63.1676
-61.6436
-56.6448
-49.4596
-41.4098
-33.6629
-27.0889
-22.1763
-19.0102
-17.3106
-16.5175
-15.9076
-14.7217
-12.2871
-8.11585
-1.97002
6.11336
15.8369
26.6928
38.0387
49.1886
59.5063
68.4886
75.8293
81.4542
85.5254
88.413
90.6408
92.8122
95.5275
99.304
104.509
111.317
119.685
129.369
139.952
150.9
161.621
171.531
180.104
186.911
191.642
194.102
194.199
191.918
187.293
180.392
171.301
160.131
147.026
132.188
115.895
98.5178
80.5248
62.4712
44.9719
28.6606
14.1381
1.91751
-7.62658
-14.298
-18.1022
-19.2486
-18.1327
-15.2984
-11.3856
-7.06934
-2.99673
0.270694
2.30389
2.83778
1.78505
-0.768127
-4.58278
-9.30127
-14.4904
-19.6891
-24.4547
-28.4051
-31.251
-32.8169
-33.0493
-32.0124
-29.8725
-26.8731
-23.3056
-19.4772
-15.6803
-12.1668
-9.12931
-6.68946
-4.89591
-3.7292
-3.11315
-2.93043
-3.04008
-3.29485
-3.55676
-3.70955
-3.66767
-3.38175
-2.84071
-2.07116
-1.13407
-0.118964
0.864436
1.69701
2.26312
2.4647
2.23514
1.5511
0.440595
-1.01457
-2.68286
-4.39386
-5.955
-7.17258
-7.87458
-7.93247
-7.27912
-5.92053
-3.93956
-1.49119
1.21046
3.91174
6.34366
8.24791
9.40209
9.6417
8.87706
7.10364
4.40521
0.949344
-3.02438
-7.22291
-11.3235
-15.001
-17.9562
-19.9426
-20.789
-20.4154
-18.8414
-16.1847
-12.6513
-8.51769
-4.10555
0.24697
4.21659
7.52524
9.96681
11.4278
11.8993
11.4799
10.3665
8.83715
7.22321
5.87712
5.13679
5.29173
6.55425
9.0395
12.7564
17.6109
23.42
29.9362
36.8763
43.9527
50.9015
57.5037
63.5963
69.0726
73.872
77.9621
81.3177
83.901
85.649
86.4701
86.252
84.8795
82.2591
78.3454
73.1647
66.8287
59.5383
51.5723
43.2648
34.9725
27.0387
19.7575
13.3454
7.92383
3.51523
0.0524277
-2.60038
-4.61952
-6.19184
-7.48831
-8.64525
-9.75538
-10.8679
-11.9945
-13.1144
-14.1746
-15.0766
-15.6505
-15.617
-14.5472
-11.8327
-6.68474
1.82334
14.6574
32.6692
56.4007
85.8751
120.413
158.515
197.852
235.384
267.609
290.927
302.063
298.51
278.91
243.315
193.302
131.889
63.2878
-7.50584
-75.2137
-134.819
-182.081
-213.958
-228.888
-226.909
-209.59
-179.805
-141.375
-98.6243
-55.9093
-17.1746
14.4178
36.7475
48.8601
50.9555
44.2502
30.7409
12.9036
-6.63075
-25.3849
-41.2943
-52.8914
-59.3996
-60.7378
-57.441
-50.5179
-41.267
-31.0801
-21.2561
-12.8486
-6.5618
-2.70179
-1.18399
-1.58844
-3.25122
-5.37586
-7.14856
-7.84207
-6.89658
-3.96978
1.04656
8.04226
16.7307
26.709
37.5263
48.749
60.0152
71.0705
81.7818
92.1297
102.183
112.059
121.883
131.744
141.662
151.573
161.321
170.671
179.33
186.984
193.325
198.086
201.064
202.135
201.258
198.47
193.867
187.594
179.818
170.711
160.44
149.155
136.994
124.089
110.576
96.6133
82.394
68.1537
54.1731
40.7705
28.2853
17.0535
7.37857
-0.49836
-6.42557
-10.3602
-12.3775
-12.668
-11.5229
-9.30861
-6.43425
-3.31551
-0.339147
2.16766
3.96009
4.88829
4.89923
4.02833
2.38278
0.119182
-2.58118
-5.53622
-8.58312
-11.5927
-14.4767
-17.1879
-19.7145
-22.0697
-24.2796
-26.3707
-28.3601
-30.2488
-32.0197
-33.6386
-35.0594
-36.2295
-37.0967
-37.6146
-37.7473
-37.4715
-36.7777
-35.6699
-34.165
-32.2916
-30.0892
-27.6087
-24.9116
-22.0713
-19.1722
-16.3089
-13.5838
-11.1038
-8.97444
-7.29394
-6.14595
-5.59185
-5.66294
-6.3532
-7.61349
-9.34828
-11.4164
-13.6368
-15.8001
-17.6852
-19.08
-19.8042
-19.7297
-18.7981
-17.0299
-14.5257
-11.4574
-8.0504
-4.55986
-1.2422
1.67285
4.00722
5.65295
6.58218
6.84785
6.57521
5.94591
5.17669
4.49545
4.11753
4.22465
4.94853
6.36066
8.46863
11.2193
14.5076
18.1907
22.1043
26.0805
29.965
33.6307
36.9877
39.9874
42.6219
44.9173
46.9238
48.7031
50.3154
51.8074
53.2037
54.5015
55.6705
56.6568
57.3911
57.7992
57.8134
57.3831
56.4837
55.1209
53.3316
51.18
48.7502
46.1352
43.4249
40.6929
37.9846
35.3081
32.629
29.8715
26.9253
23.6589
19.9379
15.6459
10.7056
5.09697
-1.13033
-7.85184
-14.8721
-21.9372
-28.755
-35.0209
-40.4466
-44.7878
-47.8686
-49.5985
-49.9804
-49.1083
-47.1544
-44.3456
-40.9316
-37.1432
-33.1438
-28.9752
-24.5037
-19.3743
-12.986
-4.50462
7.07378
22.7989
43.5849
69.9878
101.976
138.736
178.564
218.875
256.371
287.341
308.083
315.389
307.01
282.044
241.173
186.701
122.386
53.076
-15.8048
-78.8468
-131.252
-169.351
-190.985
-195.693
-184.694
-160.68
-127.439
-89.3756
-50.9809
-16.3351
11.3131
29.838
38.3726
37.2872
28.0225
12.8115
-5.66754
-24.6577
-41.6649
-54.7326
-62.6239
-64.8967
-61.8724
-54.5127
-44.2292
-32.6538
-21.405
-11.8779
-5.08288
-1.54834
-1.29402
-3.87076
-8.45552
-13.984
-19.3008
-23.3055
-25.0792
-23.9752
-19.67
-12.1699
-1.78011
10.9568
25.3423
40.6101
56.0114
70.8874
84.7231
97.179
108.1
117.507
125.562
132.539
138.769
144.595
150.329
156.217
162.407
168.943
175.758
182.688
189.491
195.869
201.501
206.068
209.273
210.859
210.625
208.428
204.186
197.881
189.555
179.307
167.294
153.728
138.875
123.054
106.624
89.9853
73.5574
57.766
43.0208
29.6925
18.0901
8.43958
0.868224
-4.60488
-8.06997
-9.71885
-9.82863
-8.73842
-6.82096
-4.45234
-1.98246
0.290507
2.13947
3.41974
4.07171
4.11507
3.6358
2.76782
1.67172
0.51312
-0.557059
-1.41825
-1.99065
-2.23962
-2.1744
-1.84161
-1.31522
-0.684298
-0.0403108
0.534342
0.975454
1.24286
1.32267
1.22605
0.984966
0.64594
0.262577
-0.111897
-0.431248
-0.661258
-0.78269
-0.792061
-0.700363
-0.530111
-0.31126
-0.0766434
0.142466
0.320119
0.438373
0.488671
0.471861
0.396942
0.278737
0.134795
-0.0181875
-0.168054
-0.310652
-0.452693
-0.61364
-0.826265
-1.13557
-1.59597
-2.26676
-3.20631
-4.46554
-6.08135
-8.07081
-10.4265
-13.1131
-16.0666
-19.1938
-22.3752
-25.4691
-28.3186
-30.7617
-32.6428
-33.8281
-34.2214
-33.7789
-32.5226
-30.5476
-28.0232
-25.1845
-22.3155
-19.7244
-17.7118
-16.5374
-16.3876
-17.3496
-19.3951
-22.3771
-26.04
-30.0431
-33.9944
-37.491
-40.1608
-41.7004
-41.905
-40.6852
-38.0701
-34.1957
-29.2819
-23.6002
-17.438
-11.0653
-4.70731
1.47319
7.38081
12.9813
18.2852
23.3246
28.1282
32.6985
36.9945
40.9249
44.3501
47.0956
48.9722
49.802
49.4445
47.8207
44.9304
40.8605
35.7837
29.9474
23.6531
17.231
11.0105
5.2915
0.31874
-3.73786
-6.79495
-8.85886
-10.0199
-10.4386
-10.3264
-9.92132
-9.46342
-9.17058
-9.21826
-9.72428
-10.7398
-12.2462
-14.1569
-16.3214
-18.5294
-20.5111
-21.932
-22.3825
-21.3652
-18.2869
-12.4656
-3.1651
10.3346
28.6245
52.0187
80.3887
113.009
148.454
184.573
218.584
247.289
267.392
275.902
270.546
250.149
214.899
166.469
107.936
43.534
-21.7646
-82.7748
-134.662
-173.476
-196.58
-202.92
-193.114
-169.333
-135.009
-94.4091
-52.1318
-12.5869
20.4697
44.2994
57.4019
59.5771
51.8329
36.159
15.2055
-8.0881
-30.8652
-50.6795
-65.7425
-75.067
-78.498
-76.6372
-70.6794
-62.1896
-52.8527
-44.2321
-37.5647
-33.6197
-32.6312
-34.31
-37.9267
-42.4479
-46.7056
-49.5721
-50.1187
-47.735
-42.1973
-33.679
-22.705
-10.0599
3.33455
16.5536
28.7966
39.4882
48.3419
55.3798
60.9065
65.4457
69.649
74.1927
79.6756
86.5345
94.9851
104.996
116.297
128.418
140.75
152.62
163.364
172.403
179.288
183.736
185.638
185.043
182.131
177.167
170.459
162.308
152.984
142.696
131.595
119.779
107.312
94.2575
80.6972
66.7596
52.6311
38.5587
24.8396
11.8007
-0.230422
-10.9559
-20.1376
-27.6208
-33.3483
-37.3641
-39.8055
-40.8859
-40.8702
-40.0467
-38.6979
-37.0756
-35.3808
-33.7517
-32.2603
-30.917
-29.6816
-28.4799
-27.2221
-25.8207
-24.2065
-22.3395
-20.215
-17.8637
-15.3475
-12.751
-10.1717
-7.70913
-5.45513
-3.48641
-1.85978
-0.610276
0.248246
0.720815
0.828443
0.605565
0.0985689
-0.634342
-1.52225
-2.48038
-3.40974
-4.19872
-4.7274
-4.87491
-4.52972
-3.60186
-2.03578
0.177895
2.99359
6.30651
9.9542
13.7243
17.3687
20.6216
23.2225
24.9389
25.5885
25.0581
23.3166
20.4223
16.5209
11.8366
6.65547
1.30291
-3.88318
-8.58025
-12.5079
-15.4504
-17.2736
-17.9335
-17.4761
-16.0292
-13.7874
-10.99
-7.89801
-4.76928
-1.83627
0.711876
2.7417
4.18108
5.0184
5.29574
5.09746
4.5359
3.73613
2.82176
1.90338
1.07088
0.389914
-0.0980944
-0.373389
-0.434405
-0.294597
0.0196203
0.469816
1.0061
1.56851
2.09052
2.50537
2.75541
2.80318
2.64266
2.30813
1.87864
1.47609
1.25652
1.3948
2.06449
3.41546
5.55226
8.51658
12.2764
16.7237
21.6814
26.918
32.1687
37.1584
41.6237
45.3321
48.0942
49.7709
50.2754
49.5714
47.6707
44.6299
40.5484
35.5662
29.8622
23.6493
17.168
10.6755
4.43144
-1.31872
-6.36127
-10.5308
-13.7233
-15.9041
-17.1097
-17.4426
-17.0602
-16.1589
-14.9544
-13.6618
-12.4756
-11.5525
-10.998
-10.8572
-11.1102
-11.6702
-12.3837
-13.0299
-13.3163
-12.8707
-11.2299
-7.82959
-2.00317
6.99942
19.9628
37.6185
60.5187
88.8796
122.417
160.206
200.598
241.23
279.146
311.039
333.575
343.791
339.48
319.526
284.131
234.893
174.715
107.566
38.1035
-28.7815
-88.4497
-136.967
-171.475
-190.439
-193.748
-182.66
-159.606
-127.885
-91.281
-53.6598
-18.5814
11.0217
33.0741
46.4757
51.103
47.706
37.7209
23.0289
5.69539
-12.2786
-29.1634
-43.6469
-54.9095
-62.627
-66.9121
-68.2085
-67.1595
-64.4711
-60.7906
-56.6135
-52.23
-47.7126
-42.9425
-37.6648
-31.5628
-24.3367
-15.7754
-5.8092
5.46145
17.7665
30.6933
43.7362
56.3608
68.0739
78.4884
87.3748
94.6919
100.593
105.408
109.599
113.71
118.297
123.865
130.809
139.375
149.624
161.433
174.497
188.361
202.45
216.118
228.691
239.508
247.957
253.51
255.738
254.339
249.143
240.131
227.44
211.362
192.342
170.967
147.937
124.035
100.079
76.8794
55.1786
35.6069
18.6382
4.56142
-6.53328
-14.7499
-20.3655
-23.7937
-25.5381
-26.1399
-26.1261
-25.9632
-26.0208
-26.5481
-27.666
-29.3716
-31.5558
-34.0307
-36.5608
-38.8968
-40.8066
-42.1003
-42.6481
-42.3892
-41.3314
-39.5441
-37.1452
-34.2836
-31.1221
-27.8205
-24.5214
-21.3402
-18.3601
-15.6309
-13.1716
-10.9769
-9.02387
-7.28018
-5.71124
-4.28591
-2.98029
-1.77951
-0.67774
0.323296
1.21661
1.99256
2.64131
3.15477
3.52776
3.75847
3.84835
3.80167
3.62502
3.32708
2.9188
2.41393
1.82986
1.18836
0.516081
-0.155616
-0.791628
-1.35498
-1.80953
-2.12325
-2.27176
-2.24167
-2.03319
-1.66152
-1.15684
-0.562443
0.068684
0.678712
1.21063
1.61396
1.84969
1.89365
1.73783
1.38958
0.869111
0.206096
-0.563853
-1.40192
-2.2677
-3.11954
-3.91409
-4.60553
-5.14532
-5.48285
-5.5676
-5.35262
-4.79901
-3.88086
-2.58968
-0.937477
1.04202
3.29444
5.74759
8.31557
10.903
13.409
15.7299
17.7618
19.4023
20.5533
21.125
21.042
20.2517
18.7362
16.5247
13.7063
10.4412
6.96517
3.58767
0.678797
-1.35416
-2.10036
-1.18653
1.67853
6.66136
13.7688
22.8254
33.4677
45.1568
57.2102
68.8505
79.2667
87.6834
93.4305
96.0062
95.1271
90.7591
83.1256
72.6913
60.1232
46.2331
31.9061
18.0251
5.39692
-5.31139
-13.6202
-19.2652
-22.2036
-22.5999
-20.7945
-17.2592
-12.5457
-7.23353
-1.88115
3.01394
7.04481
9.91324
11.4373
11.5507
10.298
7.82852
4.39464
0.35651
-3.80513
-7.47083
-9.86575
-10.0557
-6.96977
0.536552
13.5692
33.0343
59.4406
92.6924
131.909
175.317
220.246
263.269
300.478
327.882
341.888
339.788
320.185
283.287
231.01
166.865
95.6326
22.8678
-45.7062
-104.83
-150.28
-179.311
-190.906
-185.814
-166.376
-136.179
-99.5702
-61.1321
-25.1539
4.81386
26.2841
38.0043
39.9672
33.2747
19.8843
2.28093
-16.8784
-35.101
-50.3367
-61.1696
-66.9086
-67.5779
-63.8192
-56.7269
-47.6471
-37.9672
-28.9259
-21.4645
-16.1343
-13.0661
-11.998
-12.3528
-13.3491
-14.1273
-13.8745
-11.9303
-7.86294
-1.50895
7.0254
17.3971
29.0863
41.473
53.9195
65.8477
76.8024
86.4942
94.8187
101.852
107.826
113.085
118.036
123.09
128.613
134.878
142.035
150.087
158.891
168.167
177.52
186.469
194.494
201.068
205.703
207.984
207.601
204.367
198.234
189.288
177.748
163.943
148.295
131.292
113.463
95.3493
77.4837
60.3644
44.4347
30.0634
17.5281
7.0027
-1.45099
-7.88352
-12.4513
-15.4015
-17.0498
-17.7523
-17.8742
-17.7586
-17.6985
-17.9157
-18.5474
-19.6433
-21.1722
-23.0368
-25.0946
-27.1826
-29.1409
-30.8339
-32.1656
-33.0878
-33.6013
-33.7486
-33.6031
-33.2528
-32.7849
-32.2701
-31.7518
-31.2393
-30.7071
-30.0998
-29.3408
-28.3451
-27.0325
-25.3402
-23.2334
-20.7112
-17.8093
-14.5975
-11.1727
-7.65028
-4.15241
-0.796733
2.31406
5.10047
7.51134
9.52564
11.1507
12.4178
13.3746
14.0774
14.5824
14.9383
15.1801
15.3269
15.3807
15.3298
15.153
14.8259
14.3276
13.6468
12.7855
11.7616
10.6077
9.36817
8.09359
6.83474
5.63581
4.52888
3.53005
2.63795
1.83495
1.09069
0.36754
-0.372869
-1.1631
-2.02425
-2.96208
-3.96551
-5.00761
-6.04911
-7.04359
-7.94383
-8.70815
-9.30576
-9.72048
-9.95212
-10.0154
-9.93653
-9.74834
-9.48412
-9.1717
-8.82837
-8.45739
-8.04677
-7.57049
-6.99248
-6.273
-5.37717
-4.28467
-2.99955
-1.55831
-0.0345026
1.46233
2.79484
3.81413
4.38333
4.40627
3.85695
2.80451
1.42786
0.0149736
-1.05568
-1.35157
-0.436658
2.07038
6.43855
12.7764
21.0009
30.8289
41.793
53.2792
64.5835
74.9775
83.7762
90.3991
94.4184
95.5895
93.8627
89.3771
82.4397
73.4944
63.0841
51.8113
40.2992
29.1557
18.9405
10.1368
3.12608
-1.83229
-4.61725
-5.25576
-3.92491
-0.944536
3.24109
8.0929
13.0172
17.4142
20.7317
22.5188
22.4767
20.5018
16.7191
11.5043
5.49269
-0.42747
-5.14068
-7.35625
-5.69274
1.19967
14.4785
34.918
62.7076
97.2679
137.124
179.872
222.269
260.464
290.357
308.054
310.364
295.267
262.284
212.675
149.438
77.0745
1.16514
-72.2195
-137.18
-188.643
-222.925
-238.124
-234.298
-213.406
-179.024
-135.881
-89.2725
-44.4432
-5.99807
22.5701
39.194
43.3545
36.0107
19.3592
-3.53452
-29.1774
-54.1027
-75.28
-90.4339
-98.2413
-98.3933
-91.5272
-79.0486
-62.8775
-45.1573
-27.9652
-13.0635
-1.71501
5.41821
8.29049
7.40996
3.71428
-1.59223
-7.21491
-11.9344
-14.7418
-14.9298
-12.1336
-6.32378
2.2419
13.0945
25.6432
39.2636
53.3728
67.4826
81.228
94.3705
106.782
118.416
129.27
139.354
148.666
157.173
164.817
171.514
177.181
181.749
185.192
187.536
188.868
189.335
189.127
188.455
187.515
186.453
185.337
184.122
182.642
180.608
177.63
173.255
167.021
158.524
147.482
133.796
117.589
99.2252
79.2987
58.5935
38.019
18.5276
1.02412
-13.7218
-25.1504
-32.965
-37.1574
-38.0041
-36.0329
-31.9653
-26.641
-20.9334
-15.6654
-11.5347
-9.0553
-8.52177
-9.99763
-13.3283
-18.1754
-24.0669
-30.4573
-36.7898
-42.5543
-47.3341
-50.8391
-52.9211
-53.5729
-52.9122
-51.1536
-48.574
-45.4747
-42.1471
-38.8425
-35.7519
-32.9949
-30.6193
-28.6086
-26.897
-25.3878
-23.9734
-22.5532
-21.048
-19.4095
-17.6232
-15.7071
-13.7053
-11.6789
-9.69623
-7.82319
-6.11547
-4.61326
-3.33877
-2.29644
-1.4753
-0.852784
-0.399242
-0.0823206
0.129243
0.262878
0.340619
0.378689
0.388041
0.375551
0.345539
0.301264
0.246135
0.184431
0.121478
0.0633351
0.0161259
-0.0147366
-0.0252022
-0.0128841
0.0231342
0.0830103
0.167263
0.278053
0.420302
0.602298
0.835504
1.13347
1.50992
1.97627
2.53915
3.19832
3.94564
4.76541
5.63617
6.53393
7.43639
8.32734
9.20074
10.0635
10.9365
11.8537
12.8597
14.0053
15.3435
16.9243
18.7912
20.9779
23.5057
26.3821
29.598
33.1263
36.9182
40.8995
44.9672
48.9865
52.7903
56.1824
58.9458
60.8555
61.6965
61.2844
59.4876
56.2466
51.5893
45.638
38.6076
30.7937
22.5517
14.2681
6.32844
-0.915928
-7.17781
-12.2569
-16.0531
-18.569
-19.901
-20.2213
-19.752
-18.7366
-17.4104
-15.9743
-14.5741
-13.2849
-12.1008
-10.9259
-9.56546
-7.7137
-4.93963
-0.676558
5.77612
15.226
28.5235
46.4527
69.5787
98.0652
131.49
168.698
207.725
245.841
279.723
305.759
320.449
320.872
305.123
272.678
224.599
163.556
93.641
19.9835
-51.7735
-116.081
-168.092
-204.187
-222.357
-222.388
-205.832
-175.774
-136.43
-92.631
-49.262
-10.7287
19.4881
39.1396
47.3523
44.6017
32.532
13.6575
-9.00984
-32.3553
-53.5307
-70.2554
-81.0214
-85.1853
-82.9491
-75.2415
-63.5245
-49.5554
-35.1393
-21.9014
-11.1064
-3.54171
0.527325
1.33283
-0.478983
-3.97329
-8.07383
-11.7108
-13.9506
-14.0937
-11.7301
-6.75159
0.675837
10.172
21.2215
33.2588
45.7471
58.2415
70.428
82.1376
93.3361
104.094
114.543
124.83
135.07
145.312
155.518
165.559
175.224
184.249
192.342
199.226
204.668
208.504
210.656
211.125
209.983
207.347
203.35
198.112
191.72
184.211
175.57
165.75
154.69
142.347
128.731
113.937
98.1598
81.7084
64.9943
48.5085
32.7845
18.3516
5.68504
-4.83992
-12.9857
-18.6752
-21.9985
-23.2007
-22.655
-20.8225
-18.2048
-15.295
-12.5329
-10.2686
-8.73951
-8.06026
-8.22781
-9.1381
-10.612
-12.4262
-14.3448
-16.1475
-17.6509
-18.7217
-19.2805
-19.2979
-18.7845
-17.7779
-16.3298
-14.4942
-12.3209
-9.85289
-7.12819
-4.18533
-1.07045
2.15577
5.41318
8.60051
11.5979
14.2739
16.4953
18.1403
19.1114
19.3475
18.8333
17.6039
15.7445
13.3843
10.6863
7.83169
5.00331
2.36836
0.0629006
-1.81973
-3.23549
-4.1903
-4.7349
-4.95463
-4.95575
-4.85002
-4.73981
-4.7057
-4.79823
-5.03475
-5.40163
-5.86096
-6.3604
-6.8442
-7.26332
-7.58296
-7.78642
-7.87492
-7.86386
-7.77663
-7.63729
-7.46394
-7.26367
-7.03043
-6.7457
-6.382
-5.90833
-5.29674
-4.5289
-3.60236
-2.53595
-1.37413
-0.189979
0.914169
1.8096
2.34903
2.3805
1.76737
0.413308
-1.71062
-4.54116
-7.90552
-11.5169
-14.9867
-17.8552
-19.64
-19.8962
-18.2823
-14.6214
-8.9472
-1.52814
7.13933
16.3676
25.3436
33.2156
39.1908
42.6316
43.137
40.5996
35.2296
27.5423
18.3107
8.48664
-0.8986
-8.845
-14.4915
-17.2092
-16.669
-12.8763
-6.16798
2.82608
13.2548
24.1407
34.4886
43.394
50.141
54.277
55.6555
54.4435
51.0914
46.2695
40.7796
35.4521
31.0413
28.1327
27.0732
27.9333
30.5042
34.3309
38.775
43.099
46.5607
48.5045
48.4398
46.096
41.4487
34.7149
26.3199
16.8412
6.93654
-2.73223
-11.5722
-19.1197
-25.0816
-29.3549
-32.0225
-33.3285
-33.6355
-33.371
-32.9683
-32.8083
-33.1678
-34.178
-35.7953
-37.7854
-39.7187
-40.9779
-40.7761
-38.1879
-32.1983
-21.7742
-5.96474
15.9683
44.3949
79.1517
119.392
163.485
208.994
252.772
291.173
320.385
336.848
337.712
321.261
287.245
237.058
173.72
101.649
26.2551
-46.618
-111.311
-162.961
-198.027
-214.648
-212.81
-194.286
-162.372
-121.46
-76.4986
-32.4179
6.40558
36.5898
56.0406
64.0728
61.3562
49.7069
31.7595
10.5711
-10.7902
-29.6176
-43.8599
-52.3044
-54.6379
-51.3878
-43.7619
-33.4169
-22.1899
-11.8323
-3.77849
1.02339
2.20186
-0.0308708
-4.94957
-11.4486
-18.214
-23.9098
-27.3526
-27.6526
-24.3065
-17.2341
-6.75744
6.46668
21.5515
37.503
53.3451
68.2298
81.5212
92.844
102.095
109.421
115.164
119.793
123.83
127.769
132.022
136.872
142.457
148.766
155.663
162.914
170.226
177.284
183.779
189.426
193.976
197.212
198.944
198.997
197.208
193.426
187.524
179.416
169.08
156.58
142.09
125.903
108.433
90.198
71.7944
53.8568
37.0105
21.8205
8.74549
-1.9011
-9.97467
-15.5071
-18.6966
-19.8805
-19.4956
-18.0302
-15.9729
-13.7658
-11.766
-10.2197
-9.25132
-8.86749
-8.97467
-9.40672
-9.95821
-10.4189
-10.6048
-10.3823
-9.68225
-8.50496
-6.91399
-5.02289
-2.9763
-0.929005
0.974232
2.61531
3.91425
4.83454
5.38243
5.60091
5.55997
5.3446
5.04256
4.73329
4.47937
4.32112
4.27477
4.33387
4.47342
4.65597
4.83856
4.97969
5.04539
5.01368
4.87701
4.64235
4.32915
3.96546
3.58275
3.2102
2.86944
2.57043
2.30918
2.06792
1.81758
1.52234
1.14577
0.657289
0.0382197
-0.713888
-1.5833
-2.53693
-3.5279
-4.50108
-5.39977
-6.1724
-6.77812
-7.19069
-7.40007
-7.41177
-7.24432
-6.92543
-6.48758
-5.96385
-5.38457
-4.77524
-4.15593
-3.54188
-2.9449
-2.37517
-1.84265
-1.35796
-0.93228
-0.576411
-0.299265
-0.106051
0.00336154
0.0355902
0.0041568
-0.0708622
-0.163884
-0.245435
-0.284233
-0.249712
-0.114984
0.139823
0.524118
1.0338
1.6494
2.33633
3.04801
3.73233
4.34118
4.84199
5.22959
5.53596
5.83549
6.24374
6.90822
7.99146
9.64748
11.9946
15.0881
18.8976
23.2919
28.0365
32.804
37.1978
40.7879
43.1543
43.9336
42.8617
39.8091
34.802
28.0271
19.8192
10.6332
1.00264
-8.50909
-17.3591
-25.0718
-31.2758
-35.7284
-38.3227
-39.08
-38.1268
-35.6597
-31.9068
-27.0876
-21.3817
-14.9097
-7.72894
0.155712
8.76915
18.1389
28.2715
39.1401
50.6922
62.8771
75.6916
89.2317
103.735
119.594
137.32
157.454
180.416
206.33
234.828
264.907
294.858
322.312
344.425
358.171
360.741
349.959
324.673
285.042
232.663
170.513
102.705
34.0713
-30.3503
-85.8766
-128.701
-156.31
-167.737
-163.634
-146.14
-118.585
-85.0651
-49.9477
-17.3743
9.18217
27.2524
35.5659
34.0921
23.9337
7.0972
-13.8234
-36.0034
-56.739
-73.7511
-85.41
-90.8602
-90.0409
-83.6087
-72.7826
-59.1374
-44.3762
-30.1124
-17.6862
-8.03469
-1.62579
1.54276
1.88672
0.134292
-2.80156
-5.95831
-8.44844
-9.55867
-8.81418
-6.00345
-1.16562
5.45347
13.4667
22.421
31.8708
41.4401
50.865
60.014
68.8833
77.5722
86.2429
95.0716
104.2
113.696
123.524
133.537
143.483
153.031
161.809
169.441
175.597
180.02
182.557
183.162
181.898
178.91
174.402
168.602
161.728
153.96
145.42
136.169
126.208
115.501
104.001
91.6823
78.5721
64.7735
50.4801
35.9766
21.6246
7.83713
-4.9572
-16.3539
-26.0117
-33.686
-39.2524
-42.7167
-44.212
-43.9818
-42.3529
-39.701
-36.4137
-32.8553
-29.3373
-26.0982
-23.2953
-21.0072
-19.2472
-17.984
-17.1655
-16.7414
-16.6795
-16.9738
-17.6419
-18.7121
-20.2051
-22.1127
-24.3785
-26.8869
-29.4608
-31.8724
-33.8633
-35.1736
-35.5748
-34.9008
-33.0733
-30.1174
-26.1639
-21.4387
-16.2401
-10.907
-5.78261
-1.17811
2.65819
5.56346
7.47126
8.41058
8.4935
7.89406
6.82151
5.49181
4.10133
2.80587
1.70741
0.849657
0.222291
-0.227476
-0.578237
-0.915471
-1.31339
-1.82022
-2.44908
-3.17535
-3.94079
-4.66323
-5.25016
-5.61392
-5.68603
-5.4286
-4.8412
-3.96223
-2.86486
-1.6482
-0.425018
0.692124
1.60455
2.23903
2.55576
2.55196
2.26049
1.74415
1.08634
0.379685
-0.285974
-0.834367
-1.21111
-1.38844
-1.3659
-1.167
-0.832611
-0.412063
0.0465667
0.50545
0.943942
1.3624
1.78238
2.24316
2.79528
3.49213
4.38082
5.49397
6.8436
8.41814
10.1831
12.0853
14.0603
16.0415
17.9706
19.8069
21.5361
23.175
24.774
26.4141
28.2003
30.2508
32.683
35.5972
39.0617
43.0995
47.6792
52.7116
58.053
63.5136
68.8713
73.8891
78.3325
81.9865
84.6688
86.2377
86.5961
85.6896
83.5028
80.0545
75.393
69.5957
62.7692
55.0529
46.622
37.6888
28.4999
19.3294
10.4653
2.19211
-5.22906
-11.5807
-16.7061
-20.5213
-23.0198
-24.2694
-24.4025
-23.5988
-22.0646
-20.0074
-17.6068
-14.9807
-12.1456
-8.973
-5.1457
-0.124993
6.85755
16.7675
30.6806
49.6361
74.4375
105.423
142.239
183.675
227.576
270.911
309.977
340.75
359.349
362.544
348.243
315.874
266.598
203.315
130.439
53.4714
-21.5746
-88.8313
-143.22
-181.001
-200.158
-200.574
-183.973
-153.654
-114.048
-70.1702
-27.0301
10.9155
40.2111
58.7003
65.6497
61.6965
48.6392
29.1125
6.19243
-17.0123
-37.7321
-53.8309
-63.9936
-67.7944
-65.6488
-58.6669
-48.435
-36.7594
-25.4092
-15.8879
-9.26249
-6.06372
-6.26519
-9.33508
-14.3481
-20.1373
-25.4639
-29.181
-30.3725
-28.4512
-23.2085
-14.8121
-3.75751
9.21726
23.2404
37.4231
50.9692
63.2641
73.934
82.8697
90.2144
96.3198
101.679
106.843
112.342
118.605
125.908
134.337
143.784
153.964
164.454
174.75
184.321
192.677
199.407
204.222
206.962
207.593
206.185
202.879
197.846
191.255
183.246
173.92
163.339
151.549
138.601
124.58
109.635
93.9938
77.9621
61.9127
46.2572
31.4081
17.738
5.54231
-4.98881
-13.7825
-20.8789
-26.4106
-30.5698
-33.5684
-35.5987
-36.8013
-37.245
-36.9229
-35.764
-33.6588
-30.4943
-26.1922
-20.7448
-14.2422
-6.8871
1.00559
9.02542
16.6972
23.5232
29.0314
32.8248
34.6251
34.3058
31.9108
27.6559
21.9125
15.1755
8.01764
1.03563
-5.20676
-10.2328
-13.6982
-15.4228
-15.4047
-13.8158
-10.978
-7.32333
-3.3422
0.473949
3.68891
5.96959
7.11959
7.09402
5.99404
4.0421
1.54203
-1.16995
-3.7759
-6.0211
-7.74692
-8.90743
-9.56801
-9.88702
-10.0842
-10.4009
-11.0585
-12.2215
-13.9699
-16.285
-19.0502
-22.0656
-25.0746
-27.7973
-29.9665
-31.3616
-31.8346
-31.3268
-29.8726
-27.5929
-24.6776
-21.3609
-17.8936
-14.5148
-11.4282
-8.78357
-6.66758
-5.10203
-4.05047
-3.4308
-3.13181
-3.03091
-3.01096
-2.97387
-2.84987
-2.60174
-2.22408
-1.73828
-1.18415
-0.609641
-0.0596837
0.434485
0.864617
1.25245
1.65373
2.15855
2.88779
3.98519
5.60555
7.89956
10.9965
14.9863
19.9035
25.7143
32.3095
39.505
47.0501
54.6438
61.9585
68.668
74.4776
79.152
82.5386
84.5818
85.3284
84.9207
83.5808
81.5852
79.2348
76.8227
74.6038
72.7699
71.4323
70.6151
70.2567
70.221
70.3143
70.3072
69.9569
69.03
67.3235
64.6815
61.0097
56.284
50.5546
43.9445
36.6419
28.8872
20.9546
13.1299
5.68665
-1.13726
-7.15741
-12.252
-16.3572
-19.4449
-21.4825
-22.3768
-21.91
-19.6804
-15.0658
-7.22807
4.82491
22.1106
45.4814
75.3918
111.659
153.263
198.238
243.688
285.966
320.995
344.714
353.583
345.091
318.164
273.433
213.294
141.751
64.0469
-13.869
-85.9697
-146.799
-192.052
-219.018
-226.826
-216.477
-190.658
-153.37
-109.426
-63.881
-21.4784
13.8399
39.2877
53.4298
56.203
48.7757
33.2771
12.4393
-10.7931
-33.6365
-53.7779
-69.5893
-80.23
-85.6339
-86.3974
-83.5925
-78.5383
-72.566
-66.8107
-62.0568
-58.6518
-56.4966
-55.1029
-53.706
-51.4084
-47.3327
-40.7593
-31.2308
-18.6122
-3.10095
14.8077
34.392
54.7979
75.1404
94.5994
112.497
128.35
141.894
153.078
162.038
169.053
174.494
178.765
182.264
185.336
188.26
191.231
194.37
197.732
201.32
205.101
209.014
212.973
216.861
220.519
223.739
226.247
227.713
227.758
225.978
221.983
215.442
206.129
193.964
179.043
161.649
142.244
121.431
99.9139
78.4265
57.6734
38.2679
20.6868
5.2434
-7.91611
-18.7957
-27.5148
-34.2641
-39.2584
-42.6963
-44.7324
-45.4654
-44.9434
-43.1833
-40.2
-36.0377
-30.799
-24.6629
-17.8915
-10.8205
-3.83749
2.65176
8.26191
12.6675
15.6372
17.0581
16.9466
15.4458
12.8072
9.36262
5.48657
1.55692
-2.08335
-5.15783
-7.47852
-8.95597
-9.59703
-9.49183
-8.79208
-7.6846
-6.36357
-5.00537
-3.74902
-2.68415
-1.84736
-1.22645
-0.771173
-0.408087
-0.0569922
0.353783
0.875418
1.53146
2.31603
3.19697
4.12261
5.0305
5.85626
6.541
7.03632
7.30668
7.32934
7.09252
6.5929
5.83309
4.81999
3.56432
2.08134
0.392572
-1.47207
-3.47226
-5.55616
-7.66056
-9.71278
-11.6343
-13.3462
-14.7752
-15.8609
-16.5619
-16.8611
-16.7689
-16.3232
-15.5867
-14.6417
-13.5811
-12.4992
-11.481
-10.5932
-9.8765
-9.34134
-8.96722
-8.70561
-8.48607
-8.22484
-7.83457
-7.23395
-6.35595
-5.15371
-3.60329
-1.7034
0.527687
3.05698
5.84243
8.83823
11.9989
15.2815
18.6464
22.0559
25.4726
28.8572
32.1678
35.3591
38.3842
41.1968
43.7542
46.0199
47.965
49.5676
50.8101
51.6735
52.1304
52.1375
51.628
50.5092
48.6631
45.9563
42.2548
37.4478
31.4729
24.3432
16.1681
7.16506
-2.34157
-11.9377
-21.1503
-29.4903
-36.5011
-41.8076
-45.1578
-46.4518
-45.7543
-43.288
-39.4096
-34.5705
-29.2679
-23.9906
-19.1647
-15.1032
-11.9613
-9.69885
-8.05291
-6.52141
-4.36543
-0.636778
5.76025
15.966
31.0202
51.6812
78.2294
110.283
146.665
185.356
223.564
257.93
284.844
300.866
303.169
289.967
260.841
216.918
160.857
96.6436
29.2049
-36.1084
-94.1004
-140.299
-171.441
-185.808
-183.379
-165.779
-136.04
-98.2128
-56.8688
-16.5796
18.58
45.4397
62.0106
67.6068
62.8098
49.2906
29.5216
6.42047
-17.0259
-38.1127
-54.7052
-65.433
-69.7785
-68.0557
-61.2911
-51.0299
-39.0947
-27.3297
-17.3628
-10.412
-7.15751
-7.68943
-11.5337
-17.7468
-25.0636
-32.0764
-37.422
-39.9516
-38.8646
-33.7909
-24.8137
-12.4337
2.51897
19.0102
35.9472
52.3225
67.3394
80.4996
91.6465
100.957
108.887
116.078
123.246
131.052
140.001
150.347
162.054
174.785
187.944
200.75
212.334
221.851
228.59
232.057
232.039
228.626
222.193
213.353
202.877
191.601
180.32
169.703
160.216
152.077
145.242
139.426
134.154
128.832
122.834
115.597
106.703
95.9413
83.3491
69.2172
54.0641
38.5816
23.5577
9.78913
-2.00822
-11.277
-17.677
-21.117
-21.7567
-19.9814
-16.3507
-11.532
-6.22479
-1.08687
3.32987
6.62638
8.58236
9.15948
8.48356
6.80969
4.47596
1.85266
-0.706727
-2.9069
-4.54035
-5.50301
-5.79551
-5.51181
-4.81769
-3.92306
-3.05178
-2.41252
-2.17371
-2.44466
-3.26398
-4.59592
-6.33433
-8.31357
-10.3254
-12.1404
-13.5326
-14.3046
-14.3113
-13.4795
-11.8205
-9.43341
-6.49986
-3.26763
-0.0268211
2.91982
5.28884
6.84647
7.43375
6.98364
5.52786
3.19299
0.18634
-3.22659
-6.75034
-10.09
-12.9807
-15.2127
-16.6494
-17.237
-17.0046
-16.0552
-14.55
-12.6864
-10.6738
-8.70965
-6.9581
-5.53416
-4.49426
-3.8344
-3.49556
-3.3752
-3.34321
-3.2599
-2.99353
-2.43492
-1.50705
-0.168323
1.59112
3.75914
6.31542
9.24656
12.5586
16.2835
20.4762
25.2018
30.5102
36.4053
42.8087
49.5287
56.2403
62.4836
67.686
71.209
72.4174
70.7629
65.8704
57.616
46.1804
32.0685
16.0888
-0.710514
-17.1402
-31.995
-44.1864
-52.8682
-57.5341
-58.0778
-54.8037
-48.3892
-39.8022
-30.1864
-20.7281
-12.5207
-6.44463
-3.07287
-2.61085
-4.87366
-9.29763
-14.9815
-20.7502
-25.2375
-26.9822
-24.5417
-16.6206
-2.2168
19.221
47.6373
82.2372
121.405
162.704
202.983
238.605
265.776
280.973
281.383
265.331
232.595
184.577
124.268
56.0189
-14.8829
-82.7644
-142.188
-188.556
-218.613
-230.789
-225.338
-204.249
-170.96
-129.909
-85.9892
-43.973
-7.99271
18.8759
34.8747
39.6484
34.1576
20.4403
1.26525
-20.2727
-41.1614
-58.8317
-71.4304
-77.9772
-78.3982
-73.4404
-64.4894
-53.3207
-41.8226
-31.7271
-24.3836
-20.6003
-20.5682
-23.8724
-29.5806
-36.3953
-42.8426
-47.4743
-49.0558
-46.7177
-40.0547
-29.1634
-14.6169
2.61624
21.2975
40.0697
57.6175
72.8172
84.8603
93.3369
98.2732
100.118
99.68
98.0288
96.3629
95.8676
97.5743
102.239
110.251
121.59
135.816
152.122
169.415
186.431
201.863
214.5
223.344
227.703
227.252
222.051
212.517
199.363
183.504
165.952
147.693
129.593
112.313
96.2596
81.5775
68.173
55.7718
43.9993
32.4694
20.871
9.03774
-3.00851
-15.0454
-26.6715
-37.3561
-46.5117
-53.5761
-58.0943
-59.7872
-58.5992
-54.7175
-48.5607
-40.7401
-31.9978
-23.1305
-14.9079
-7.99777
-2.90334
0.0783588
0.874571
-0.369341
-3.31798
-7.4914
-12.322
-17.2159
-21.6123
-25.0353
-27.1325
-27.6991
-26.6849
-24.1864
-20.4248
-15.7147
-10.4265
-4.94733
0.35531
5.16416
9.23437
12.4059
14.6063
15.8442
16.1963
15.7891
14.7784
13.3294
11.599
9.72282
7.80635
5.92245
4.11326
2.3963
0.773112
-0.760963
-2.20736
-3.55652
-4.78276
-5.84229
-6.67452
-7.20638
-7.35921
-7.05756
-6.23935
-4.86687
-2.93784
-0.495711
2.36207
5.4795
8.64293
11.5893
14.0229
15.6412
16.1682
15.3931
13.2079
9.64039
4.87343
-0.753441
-6.76421
-12.5886
-17.6233
-21.3042
-23.1818
-22.9873
-20.6786
-16.459
-10.7637
-4.213
2.461
8.50555
13.2438
16.1626
16.98
15.6811
12.5182
7.97468
2.69715
-2.5938
-7.20232
-10.5514
-12.2594
-12.1885
-10.4584
-7.42394
-3.61991
0.319627
3.7549
6.13443
7.07586
6.42242
4.26721
0.942418
-3.02476
-6.98274
-10.2426
-12.1692
-12.2644
-10.2303
-6.0065
0.224965
8.06414
16.9443
26.2014
35.1516
43.1677
49.7446
54.5454
57.4258
58.4335
57.7849
55.8248
52.9732
49.6687
46.3144
43.2331
40.6358
38.6077
37.1102
35.9996
35.0567
34.0256
32.6541
30.7317
28.12
24.7724
20.741
16.1698
11.2765
6.32575
1.59693
-2.64901
-6.19916
-8.91167
-10.7296
-11.6846
-11.8898
-11.5237
-10.806
-9.96612
-9.20697
-8.66293
-8.35501
-8.14527
-7.69608
-6.44216
-3.58621
1.87027
11.0506
25.0752
44.886
71.0358
103.472
141.349
182.918
225.531
265.784
299.814
323.714
334.029
328.249
305.233
265.481
211.207
146.182
75.3686
4.388
-61.1098
-116.084
-156.66
-180.539
-187.196
-177.865
-155.301
-123.378
-86.5751
-49.4217
-15.9808
10.5723
28.2266
36.2464
35.1149
26.3349
12.1242
-4.94354
-22.3029
-37.7156
-49.5106
-56.7213
-59.1143
-57.1198
-51.6824
-44.0633
-35.625
-27.6295
-21.0754
-16.5908
-14.3902
-14.2934
-15.7962
-18.1783
-20.6286
-22.369
-22.7603
-21.3778
-18.048
-12.8482
-6.06898
1.84866
10.3938
19.0697
27.4705
35.3401
42.605
49.3775
55.9293
62.6394
69.9249
78.1656
87.6323
98.4313
110.472
123.464
136.94
150.306
162.906
174.101
183.337
190.203
194.474
196.123
195.309
192.344
187.635
181.626
174.732
167.286
159.501
151.455
143.098
134.282
124.806
114.469
103.123
90.7199
77.3347
63.1778
48.5803
33.9627
19.7896
6.51761
-5.45584
-15.8357
-24.4588
-31.3061
-36.4967
-40.2656
-42.9285
-44.8384
-46.3413
-47.7349
-49.2366
-50.9637
-52.9272
-55.0399
-57.1364
-59.0023
-60.4074
-61.14
-61.0372
-60.0068
-58.0404
-55.2149
-51.6834
-47.6575
-43.3836
-39.1154
-35.0879
-31.4947
-28.471
-26.0853
-24.3384
-23.17
-22.4721
-22.1057
-21.9192
-21.7664
-21.5213
-21.0887
-20.41
-19.4636
-18.261
-16.84
-15.2555
-13.5704
-11.8473
-10.1423
-8.50071
-6.95627
-5.53113
-4.23825
-3.08402
-2.07103
-1.20024
-0.472139
0.11296
0.555614
0.858441
1.0275
1.07345
1.01212
0.864373
0.655123
0.411665
0.161514
-0.0699347
-0.261597
-0.398451
-0.472605
-0.483562
-0.437662
-0.346803
-0.22663
-0.0944227
0.0330342
0.141389
0.220282
0.264464
0.274471
0.256915
0.22446
0.195494
0.193463
0.245761
0.382072
0.632157
1.02319
1.57693
2.30719
3.21817
4.30412
5.55084
6.93891
8.44849
10.0649
11.7839
13.6153
15.5844
17.7295
20.0965
22.7303
25.6651
28.9141
32.4619
36.26
40.2273
44.2556
48.2197
51.9904
55.4484
58.4967
61.0691
63.1333
64.6877
65.7529
66.3587
66.5288
66.2673
65.5487
64.3146
62.4779
59.9352
56.5858
52.3545
47.2138
41.2025
34.437
27.1119
19.4899
11.8814
4.61676
-1.986
-7.65271
-12.18
-15.4537
-17.4565
-18.2637
-18.0274
-16.952
-15.2618
-13.1646
-10.8124
-8.26088
-5.4305
-2.07166
2.25884
8.20177
16.569
28.2766
44.2316
65.1744
91.4903
123.016
158.875
197.381
236.055
271.756
300.96
320.138
326.202
316.951
291.454
250.287
195.605
131
61.1738
-8.54257
-72.7659
-126.648
-166.402
-189.701
-195.892
-186.011
-162.602
-129.357
-90.6557
-51.0351
-14.6851
14.9876
35.6712
46.3083
47.0963
39.34
25.1874
7.28988
-11.5645
-28.7977
-42.328
-50.7664
-53.5081
-50.7174
-43.2203
-32.3253
-19.6048
-6.6668
5.05321
14.4546
20.8745
24.123
24.4547
22.4859
19.0747
19.0747
19.0747
19.0747
19.0747
19.0747
19.0747
19.0747
19.0747
19.0747
19.0747
19.0747
19.0747
19.0747
19.0747
19.0747
19.0747
19.0747
19.0747
19.0747
