-109.288
-95.4966
-81.5745
-68.4731
-57.2557
-49.0141
-44.776
-45.4131
-51.562
-63.5655
-81.4425
-104.889
-133.308
-165.868
-201.576
-239.361
-278.153
-316.948
-354.847
-391.071
-424.942
-455.839
-483.139
-506.16
-524.113
-536.087
-541.068
-538.005
-525.918
-504.03
-471.915
-429.64
-377.862
-317.881
-251.621
-181.534
-110.434
-41.2857
23.051
80.0629
127.804
165.057
191.417
207.293
213.825
212.721
206.052
196.016
184.705
173.901
164.926
158.55
154.982
153.911
154.623
156.14
157.384
157.34
155.192
150.424
142.872
132.731
120.511
106.957
92.9505
79.3899
67.0868
56.673
48.5379
42.7973
39.2975
37.6504
37.2928
37.5632
37.7845
37.3436
35.7589
32.7283
28.1551
22.1486
15.0024
7.15442
-0.866287
-8.49749
-15.2015
-20.5156
-24.0909
-25.7173
-25.3336
-23.0231
-18.9987
-13.5791
-7.15994
-0.183437
6.89198
13.6202
19.5934
24.4653
27.9703
29.9393
30.3099
29.1294
26.5519
22.8253
18.2723
13.2627
8.18303
3.40283
-0.756483
-4.04812
-6.31859
-7.51658
-7.69127
-6.98048
-5.59038
-3.76928
-1.77876
0.134547
1.76327
2.95739
3.63432
3.7804
3.44421
2.72287
1.7431
0.639503
-0.467756
-1.49331
-2.40309
-3.22507
-4.05286
-5.04095
-6.39077
-8.32751
-11.0682
-14.7831
-19.5535
-25.3312
-31.9036
-38.8751
-45.6671
-51.5462
-55.6807
-57.227
-55.4359
-49.7707
-40.0164
-26.3647
-9.45503
9.63917
29.4837
48.4124
64.6973
76.7416
83.2697
83.4902
77.2105
64.884
47.5846
26.9076
4.80764
-16.6064
-35.2967
-49.5145
-57.9852
-60.0393
-55.6747
-45.5434
-30.8668
-13.2885
5.31454
23.0417
38.1738
49.3495
55.6944
56.8897
53.1742
45.2844
34.3403
21.6967
8.77618
-3.09275
-12.8157
-19.6344
-23.1816
-23.4873
-20.937
-16.1937
-10.0943
-3.53468
2.64002
7.72907
11.2431
12.9391
12.8224
11.1187
8.22211
4.62868
0.864512
-2.58224
-5.31725
-7.07841
-7.75382
-7.3792
-6.11733
-4.224
-2.00596
0.222845
2.18129
3.65267
4.50483
4.69759
4.27792
3.36454
2.1253
0.750466
-0.574357
-1.69272
-2.49682
-2.94042
-3.04441
-2.89487
-2.63392
-2.4445
-2.53043
-3.09367
-4.31118
-6.31379
-9.16961
-12.874
-17.3478
-22.4435
-27.96
-33.6631
-39.3106
-44.678
-49.5824
-53.9026
-57.5918
-60.6828
-63.2841
-65.5682
-67.7509
-70.066
-72.7357
-75.9411
-79.7943
-84.3176
-89.4305
-94.9488
-100.595
-106.02
-110.837
-114.661
-117.145
-118.024
-117.139
-114.461
-110.091
-104.252
-97.2655
-89.5174
-81.4172
-73.3566
-65.6725
-58.6165
-52.3373
-46.8755
-42.1721
-38.0884
-34.4351
-31.0056
-27.6091
-24.1
-20.3981
-16.4992
-12.4737
-8.45449
-4.61662
-1.1511
1.76235
3.98051
5.41624
6.05008
5.93281
5.17893
3.95252
2.44761
0.865865
-0.605358
-1.81203
-2.64725
-3.05858
-3.04839
-2.66753
-2.00331
-1.16302
-0.254777
0.63245
1.44735
2.19062
2.92256
3.76162
4.87263
6.44511
8.66351
11.6733
15.5478
20.2607
25.6703
31.5177
37.4413
43.0073
47.7512
51.2276
53.0599
52.9845
50.8832
46.8007
40.943
33.6597
25.4112
16.7247
8.14718
0.198161
-6.67001
-12.101
-15.8497
-17.7835
-17.8699
-16.1562
-12.7417
-7.75132
-1.31201
6.46167
15.4709
25.6229
36.8087
48.8718
61.5706
74.5439
87.2849
99.1331
109.29
116.863
120.939
120.675
115.413
104.784
88.8008
67.9187
43.0451
15.4998
-13.0811
-40.8882
-66.1128
-87.1317
-102.678
-111.977
-114.83
-111.625
-103.296
-91.2019
-76.9741
-62.3302
-48.8848
-37.9804
-30.5557
-27.0672
-27.47
-31.2578
-37.5537
-45.2383
-53.0978
-59.9725
-64.8892
-67.1619
-66.4523
-62.7838
-56.5133
-48.2652
-38.8384
-29.1009
-19.8837
-11.8874
-5.61123
-1.31124
1.01102
1.59001
0.853181
-0.63962
-2.26594
-3.41129
-3.53288
-2.21054
0.81915
5.64732
12.1953
20.233
29.4093
39.2901
49.3992
59.2575
68.4175
76.4902
83.1644
88.2173
91.5182
93.0263
92.7839
90.9071
87.5739
83.0112
77.4808
71.2653
64.6525
57.9217
51.3291
45.0959
39.3979
34.3585
30.046
26.474
23.6068
21.3684
19.6537
18.3421
17.3111
16.4484
15.6615
14.8838
14.0769
13.228
12.3448
11.4474
10.5594
9.69922
8.87409
8.07591
7.28127
6.45456
5.55377
4.53789
3.37453
2.04661
0.556834
-1.07048
-2.7907
-4.54282
-6.25562
-7.85491
-9.27088
-10.4446
-11.3327
-11.9103
-12.1715
-12.1281
-11.8068
-11.2456
-10.4898
-9.58846
-8.59109
-7.54493
-6.49318
-5.47371
-4.51827
-3.65215
-2.89396
-2.25561
-1.74233
-1.35277
-1.07934
-0.908756
-0.822942
-0.800302
-0.817305
-0.850271
-0.877187
-0.879344
-0.842571
-0.757864
-0.621252
-0.432816
-0.194928
0.0901068
0.422634
0.808003
1.25816
1.79199
2.43403
3.21141
4.14925
5.26483
6.56138
8.02236
9.60739
11.2505
12.8618
14.3323
15.5428
16.3744
16.7212
16.5024
15.6728
14.2297
12.2151
9.71315
6.84262
3.74551
0.573324
-2.52728
-5.42732
-8.0253
-10.2528
-12.0752
-13.4879
-14.5087
-15.1679
-15.4967
-15.5168
-15.23
-14.6095
-13.5912
-12.0665
-9.8757
-6.80591
-2.59508
3.05279
10.4385
19.8228
31.3667
45.062
60.6607
77.6161
95.0502
111.763
126.293
137.035
142.407
141.049
132.026
115.011
90.4004
59.3538
23.7346
-14.0455
-51.26
-85.1524
-113.233
-133.552
-144.903
-146.95
-140.237
-126.107
-106.523
-83.8315
-60.4875
-38.7896
-20.6441
-7.39348
0.278278
2.35618
-0.573746
-7.45628
-16.9413
-27.5754
-37.9857
-47.0336
-53.9241
-58.2585
-60.0335
-59.5886
-57.5173
-54.5541
-51.4562
-48.894
-47.3639
-47.1316
-48.211
-50.3763
-53.2055
-56.1454
-58.5904
-59.9634
-59.7907
-57.7608
-53.7625
-47.8968
-40.4647
-31.9314
-22.8729
-13.9116
-5.64937
1.39518
6.8366
10.456
12.2139
12.2431
10.8228
8.33834
5.23273
1.95498
-1.08749
-3.56799
-5.26695
-6.084
-6.03521
-5.23755
-3.88324
-2.20819
-0.458816
1.13884
2.40403
3.21815
3.53202
3.36413
2.79065
1.92958
0.921448
-0.0906238
-0.978995
-1.64568
-2.0313
-2.11825
-1.92831
-1.51564
-0.956458
-0.337097
0.257924
0.756296
1.10568
1.27811
1.2709
1.10427
0.816332
0.456502
0.0781886
-0.268048
-0.540084
-0.707951
-0.755433
-0.679633
-0.488858
-0.199408
0.168122
0.592408
1.05437
1.53921
2.03741
2.5447
3.06115
3.58965
4.13412
4.69767
5.28108
5.88171
6.49307
7.10497
7.70439
8.27679
8.80782
9.28518
9.70053
10.0511
10.3408
10.5812
10.7912
10.9963
11.227
11.5163
11.8972
12.399
13.0446
13.8476
14.8104
15.9234
17.1652
18.5046
19.903
21.3185
22.7091
24.0361
25.266
26.3708
27.3258
28.1066
28.6849
29.0248
29.0809
28.7992
28.1218
26.9947
25.3781
23.2573
20.6525
17.6248
14.2778
10.7529
7.21933
3.85908
0.849381
-1.65555
-3.54085
-4.74341
-5.25902
-5.14408
-4.51251
-3.52939
-2.40261
-1.37341
-0.705593
-0.672349
-1.53935
-3.54282
-6.86258
-11.5912
-17.7021
-25.0213
-33.2072
-41.7442
-49.955
-57.0351
-62.1116
-64.324
-62.9254
-57.3923
-47.5357
-33.5958
-16.3068
3.08399
22.8556
40.9165
54.9719
62.7423
62.2133
51.8878
31.0082
-0.284926
-40.8837
-88.7501
-141.063
-194.461
-245.362
-290.318
-326.361
-351.304
-363.965
-364.27
-353.239
-332.858
-305.842
-275.329
-244.544
-216.462
-193.519
-177.391
-168.881
-167.889
-173.495
-184.122
-197.752
-212.182
-225.271
-235.166
-240.474
-240.365
-234.613
-223.561
-208.025
-189.17
-168.346
-146.932
-126.198
-107.182
-90.6232
-76.9203
-66.1423
-58.0671
-52.2475
-48.0919
-44.95
-42.1914
-39.2714
-35.7766
-31.4488
-26.1884
-20.039
-13.1596
-5.78951
1.78871
9.28309
16.4195
22.9605
28.7156
33.5437
37.3493
40.0758
41.6968
42.2085
41.6248
39.9737
37.2981
33.6578
29.1318
23.8222
17.855
11.3802
4.56936
-2.38957
-9.29854
-15.9574
-22.1722
-27.7628
-32.57
-36.4601
-39.3294
-41.1062
-41.7532
-41.2695
-39.6924
-37.0994
-33.6097
-29.3828
-24.6155
-19.5341
-14.3838
-9.41341
-4.85881
-0.925159
2.22932
4.50615
5.87423
6.3711
6.09758
5.20619
3.88471
2.33673
0.761414
-0.665198
-1.80533
-2.56956
-2.92102
-2.8736
-2.48472
-1.84399
-1.05936
-0.242422
0.505122
1.10257
1.49759
1.66943
1.62775
1.40777
1.06256
0.653901
0.242929
-0.117928
-0.390888
-0.555955
-0.611192
-0.570408
-0.458936
-0.30834
-0.150934
-0.0149412
0.0791172
0.120437
0.108266
0.0507347
-0.0374719
-0.138113
-0.232558
-0.304648
-0.342872
-0.341628
-0.301414
-0.227866
-0.129548
-0.0143631
0.115399
0.269024
0.473457
0.778029
1.25608
2.00178
3.12107
4.71679
6.86933
9.61556
12.9296
16.7096
20.7736
24.8675
28.685
31.8973
34.1904
35.3038
35.065
33.4159
30.4245
26.2832
21.2909
15.8224
10.2894
5.09693
0.602946
-2.91665
-5.29119
-6.46556
-6.49677
-5.53794
-3.81254
-1.58232
0.887037
3.35936
5.65768
7.68894
9.46312
11.1067
12.87
15.126
18.3584
23.1329
30.0479
39.6607
52.3902
68.4039
87.5028
109.025
131.791
154.121
173.925
188.888
196.718
195.443
183.71
161.035
127.973
86.1592
38.2138
-12.48
-62.1125
-106.848
-143.242
-168.617
-181.354
-181.057
-168.57
-145.858
-115.753
-81.6188
-46.9582
-15.0345
11.4646
30.6745
41.6913
44.5879
40.3179
30.5251
17.2892
2.84412
-10.6965
-21.5729
-28.5482
-30.9977
-28.9164
-22.8496
-13.7645
-2.88289
8.49908
19.1822
28.205
34.9398
39.1374
40.9197
40.7259
39.225
37.2081
35.4754
34.7331
35.5106
38.1061
42.5653
48.6903
56.0763
64.1693
72.3346
79.9292
86.3677
91.1765
94.0298
94.7673
93.3911
90.0473
84.994
78.5619
71.112
62.9957
54.5198
45.9207
37.348
28.8586
20.4213
11.9308
3.22963
-5.86395
-15.525
-25.8909
-37.0337
-48.9402
-61.5
-74.5067
-87.6695
-100.636
-113.021
-124.442
-134.551
-143.063
-149.775
-154.575
-157.44
-158.424
-157.638
-155.226
-151.348
-146.161
-139.808
-132.418
-124.112
-115.009
-105.24
-94.9554
-84.3328
-73.5753
-62.9036
-52.5416
-42.6957
-33.5306
-25.1432
-17.5389
-10.6123
-4.1372
2.2314
8.94086
16.5082
25.4727
36.3367
49.5018
65.2066
83.4769
104.095
126.596
150.289
174.313
197.705
219.49
238.766
254.785
267.012
275.161
279.199
279.325
275.924
269.506
260.637
249.875
237.71
224.53
210.595
196.046
180.92
165.186
148.788
131.685
113.891
95.4984
76.697
57.7679
39.0705
21.0159
4.03246
-11.4709
-25.1399
-36.7041
-45.9971
-52.9653
-57.6665
-60.258
-60.9789
-60.1277
-58.0399
-55.068
-51.5651
-47.8733
-44.3154
-41.1883
-38.7565
-37.2429
-36.8175
-37.5841
-39.5663
-42.6966
-46.8103
-51.6477
-56.8657
-62.0591
-66.7913
-70.6317
-73.197
-74.1912
-73.4401
-70.9149
-66.7394
-61.1769
-54.5957
-47.4133
-40.0244
-32.7214
-25.6207
-18.6058
-11.3052
-3.1129
6.74037
19.0676
34.5668
53.6429
76.2368
101.694
128.706
155.344
179.205
197.657
208.163
208.636
197.774
175.321
142.206
100.527
53.381
4.55181
-41.9009
-82.1003
-112.793
-131.713
-137.827
-131.416
-114.01
-88.1662
-57.1355
-24.4647
6.41615
32.5677
51.8328
63.015
65.9291
61.3283
50.7259
36.1416
19.8101
3.89082
-9.78574
-19.9081
-25.7916
-27.3996
-25.2814
-20.4433
-14.1733
-7.84418
-2.72256
0.195578
0.302841
-2.5584
-8.09543
-15.6213
-24.157
-32.5643
-39.6911
-44.5106
-46.2383
-44.4144
-38.9428
-30.0873
-18.4269
-4.77885
9.89876
24.6126
38.4347
50.5871
60.5025
67.8553
72.5628
74.7579
74.7401
72.9113
69.7065
65.5296
60.7014
55.4282
49.7925
43.7669
37.2467
30.0953
22.1944
13.4899
4.02584
-6.03743
-16.4256
-26.7708
-36.6484
-45.6224
-53.2953
-59.3532
-63.6013
-65.9849
-66.5943
-65.6527
-63.4907
-60.5102
-57.1429
-53.8091
-50.8797
-48.6469
-47.3047
-46.9406
-47.5382
-48.9897
-51.115
-53.686
-56.4526
-59.1669
-61.6046
-63.5798
-64.9543
-65.6384
-65.5866
-64.7888
-63.2585
-61.0221
-58.1113
-54.5591
-50.4013
-45.6826
-40.4653
-34.8375
-28.92
-22.8679
-16.8665
-11.1213
-5.84158
-1.22238
2.57556
5.44301
7.33488
8.27655
8.36278
7.74958
6.63994
5.26537
3.8652
2.66595
1.86276
1.60459
1.98402
3.0323
4.71906
6.95612
9.60408
12.4811
15.373
18.0451
20.2551
21.7683
22.3737
21.9026
20.2453
17.3682
13.3268
8.27335
2.45728
-3.78296
-10.0382
-15.8561
-20.7764
-24.3705
-26.2819
-26.2627
-24.2004
-20.134
-14.2545
-6.89063
1.51814
10.4602
19.396
27.8034
35.2201
41.2779
45.726
48.4422
49.4311
48.8107
46.7905
43.6425
39.6709
35.181
30.4525
25.7185
21.1517
16.8586
12.8821
9.21009
5.79011
2.54643
-0.601932
-3.72497
-6.86906
-10.0493
-13.2468
-16.4106
-19.4621
-22.2998
-24.8021
-26.8265
-28.2051
-28.7366
-28.1792
-26.2466
-22.6119
-16.9241
-8.83953
1.93142
15.5623
32.0384
51.0814
72.0831
94.0611
115.654
135.17
150.695
160.267
162.096
154.808
137.68
110.826
75.3029
33.0955
-13.0082
-59.6616
-103.289
-140.461
-168.272
-184.657
-188.625
-180.353
-161.158
-133.323
-99.829
-64.0065
-29.1717
1.72173
26.3657
43.2894
51.9424
52.6681
46.58
35.3646
21.0417
5.71336
-8.66732
-20.4833
-28.5813
-32.3325
-31.6286
-26.8219
-18.6251
-7.98489
4.04967
16.4519
28.3211
38.9571
47.903
54.9545
60.1415
63.6867
65.9496
67.3642
68.3772
69.3949
70.7418
72.636
75.1803
78.3692
82.108
86.241
90.5815
94.9405
99.1484
103.067
106.589
109.63
112.11
113.929
114.957
115.014
113.883
111.319
107.086
100.995
92.9496
82.9842
71.2899
58.2227
44.2891
30.1122
16.3791
3.77839
-7.06475
-15.6485
-21.6407
-24.9073
-25.5196
-23.7419
-20.0003
-14.8392
-8.86944
-2.71368
3.04439
7.90434
11.4826
13.5334
13.9573
12.7958
10.216
6.48521
1.93976
-3.04954
-8.11203
-12.9089
-17.1593
-20.6586
-23.2879
-25.0137
-25.8792
-25.9891
-25.4887
-24.5423
-23.312
-21.94
-20.536
-19.1711
-17.877
-16.6518
-15.469
-14.2891
-13.0714
-11.7847
-10.4146
-8.96786
-7.47191
-5.97168
-4.52304
-3.185
-2.01152
-1.04436
-0.307897
0.193343
0.474502
0.567553
0.51655
0.371717
0.183279
-0.00413672
-0.155889
-0.250096
-0.278639
-0.246426
-0.169074
-0.0692206
0.0281815
0.101152
0.1359
0.131211
0.10122
0.075912
0.0990126
0.223347
0.504194
0.991556
1.72249
2.71466
3.96219
5.43445
7.078
8.82166
10.5838
12.2811
13.8375
15.1918
16.3042
17.1592
17.7663
18.1577
18.3839
18.5073
18.5965
18.7184
18.9333
19.2881
19.811
20.5059
21.3466
22.2725
23.186
23.9544
24.4167
24.3959
23.7172
22.2287
19.8245
16.4636
12.1848
7.11222
1.45118
-4.52575
-10.5016
-16.1442
-21.1367
-25.2073
-28.1516
-29.844
-30.2362
-29.3415
-27.207
-23.8787
-19.3671
-13.6215
-6.52084
2.11217
12.4733
24.7162
38.8775
54.7982
72.0552
89.9185
107.347
123.035
135.504
143.253
144.934
139.539
126.581
106.223
79.3433
47.5113
12.879
-22.0145
-54.4981
-82.0511
-102.58
-114.65
-117.641
-111.81
-98.246
-78.7356
-55.5433
-31.1495
-7.97194
11.892
26.872
36.0578
39.2483
36.9143
30.0872
20.191
8.84397
-2.34576
-11.9639
-18.9345
-22.6111
-22.8091
-19.7814
-14.1447
-6.77147
1.34014
9.19859
15.941
20.9309
23.8228
24.5889
23.5056
21.1054
18.0994
15.2817
13.428
13.1984
15.0594
19.2293
25.6569
34.0307
43.8188
54.332
64.8012
74.4597
82.619
88.7309
92.4281
93.542
92.0978
88.2902
82.4462
74.9815
66.3562
57.0354
47.4569
38.0089
29.015
20.727
13.3232
6.90962
1.52497
-2.8537
-6.30287
-8.94285
-10.9261
-12.4236
-13.6102
-14.6492
-15.6782
-16.7969
-18.0594
-19.4702
-20.9867
-22.526
-23.976
-25.2098
-26.1015
-26.5427
-26.4568
-25.8115
-24.6276
-22.9823
-21.007
-18.8792
-16.8073
-15.0115
-13.6998
-13.0443
-13.1576
-14.0758
-15.7476
-18.033
-20.7123
-23.5048
-26.0951
-28.1654
-29.4291
-29.6619
-28.728
-26.5957
-23.3433
-19.1517
-14.2864
-9.07072
-3.85213
1.03176
5.28583
8.68362
11.0848
12.442
12.7974
12.2693
11.0319
9.29105
7.25878
5.13092
3.06961
1.19294
-0.427784
-1.76369
-2.8183
-3.61411
-4.17827
-4.52999
-4.67162
-4.58516
-4.23469
-3.5747
-2.56327
-1.1782
0.566339
2.60564
4.81567
7.0123
8.96034
10.3928
11.0392
10.6609
9.08762
6.2522
2.21532
-2.82312
-8.53047
-14.4664
-20.1251
-24.9892
-28.5894
-30.5616
-30.692
-28.9468
-25.4782
-20.6093
-14.797
-8.57934
-2.51306
2.89046
7.22342
10.2268
11.8172
12.0922
11.3129
9.86594
8.20887
6.8061
6.06279
6.26598
7.54077
9.82799
12.8869
16.3232
19.6392
22.2994
23.8038
23.758
21.9312
18.2947
13.0347
6.53838
-0.644593
-7.86051
-14.4215
-19.6779
-23.0832
-24.2423
-22.9369
-19.1216
-12.8926
-4.42985
6.07824
18.5162
32.9158
49.5063
68.7277
91.1967
117.622
148.672
184.819
226.164
272.294
322.181
374.158
425.98
474.973
518.261
553.034
576.835
587.813
584.924
568.041
537.977
496.402
445.684
388.669
328.42
267.959
210.022
156.867
110.145
70.8382
39.2761
15.2172
-2.02358
-13.4178
-20.0611
-23.0264
-23.251
-21.4672
-18.1796
-13.6862
-8.13127
-1.57769
5.91828
14.2428
23.1819
32.4061
41.4831
49.913
57.1799
62.8087
66.4188
67.7665
66.7703
63.5173
58.2507
51.3413
43.248
34.472
25.5109
16.8175
8.76776
1.63905
-4.39857
-9.28005
-13.033
-15.758
-17.6051
-18.749
-19.3667
-19.6195
-19.6421
-19.5396
-19.3927
-19.2703
-19.2468
-19.4199
-19.9262
-20.9473
-22.7064
-25.4502
-29.4206
-34.815
-41.7455
-50.199
-60.01
-70.8481
-82.2269
-93.5333
-104.077
-113.15
-120.099
-124.387
-125.649
-123.732
-118.707
-110.866
-100.69
-88.8009
-75.8993
-62.7014
-49.872
-37.9694
-27.4025
-18.4067
-11.0384
-5.18799
-0.608418
3.04433
6.16448
9.14861
12.3518
16.0522
20.4267
25.5403
31.3472
37.7054
44.3986
51.1658
57.7316
63.836
69.2588
73.8374
77.4756
80.1439
81.8711
82.7303
82.8201
82.245
81.0962
79.4367
77.2909
74.6411
71.4299
67.5682
62.9473
57.4547
50.9883
43.4719
34.867
25.1816
14.476
2.86423
-9.48742
-22.3661
-35.5205
-48.6725
-61.5301
-73.8025
-85.2154
-95.5259
-104.535
-112.097
-118.126
-122.597
-125.541
-127.036
-127.196
-126.155
-124.054
-121.023
-117.18
-112.619
-107.419
-101.643
-95.3534
-88.622
-81.5367
-74.2086
-66.7716
-59.3756
-52.1744
-45.3083
-38.8858
-32.9655
-27.5439
-22.5503
-17.8515
-13.2664
-8.58988
-3.62094
1.80656
7.79684
14.372
21.4624
28.908
36.4727
43.867
50.7777
56.9009
61.9725
65.7933
68.2466
69.304
69.0227
67.5307
65.0069
61.6549
57.6765
53.2478
48.4999
43.5081
38.291
32.8178
27.0246
20.8364
14.1911
7.06284
-0.519934
-8.46335
-16.6063
-24.7279
-32.5622
-39.8184
-46.2012
-51.4279
-55.2374
-57.39
-57.6592
-55.8192
-51.6353
-44.8677
-35.2949
-22.7631
-7.25903
11.0007
31.4815
53.2638
75.0216
95.0658
111.463
122.225
125.56
120.131
105.31
81.3531
49.4845
11.8468
-28.6699
-68.7135
-104.829
-133.843
-153.23
-161.394
-157.847
-143.255
-119.338
-88.6623
-54.3308
-19.6293
12.3344
38.952
58.361
69.5916
72.6015
68.2034
57.9012
43.6596
27.6424
11.9496
-1.61237
-11.7053
-17.5619
-19.0117
-16.4336
-10.6486
-2.77177
5.95587
14.332
21.3354
26.2315
28.6318
28.505
26.1438
22.0965
17.0743
11.8486
7.15144
3.5911
1.59041
1.35375
2.86297
5.89982
10.0888
14.9527
19.9724
24.643
28.52
31.2508
32.5919
32.4097
30.6704
27.4201
22.7609
16.8269
9.76265
1.70781
-7.21246
-16.8898
-27.2292
-38.141
-49.5285
-61.2753
-73.2314
-85.2025
-96.9438
-108.16
-118.513
-127.64
-135.179
-140.795
-144.215
-145.26
-143.862
-140.088
-134.135
-126.321
-117.062
-106.837
-96.1487
-85.4791
-75.2511
-65.7944
-57.3225
-49.9223
-43.556
-38.0758
-33.2481
-28.7845
-24.3767
-19.7308
-14.5978
-8.79816
-2.23756
5.08558
13.0818
21.5799
30.3423
39.0851
47.5002
55.2787
62.1333
67.8184
72.1468
75.0019
76.3444
76.2133
74.7216
72.0457
68.4109
64.0726
59.2969
54.3392
49.4265
44.7417
40.4136
36.5119
33.0485
29.9834
27.236
24.6984
22.2508
19.7766
17.1756
14.3747
11.3343
8.05085
4.5549
0.905662
-2.81745
-6.52502
-10.1282
-13.5486
-16.7256
-19.6212
-22.2208
-24.5306
-26.5717
-28.3722
-29.9573
-31.3411
-32.5198
-33.4675
-34.1367
-34.4623
-34.369
-33.7815
-32.6366
-30.8939
-28.5462
-25.6267
-22.2122
-18.4218
-14.4111
-10.3624
-6.47013
-2.9254
0.102287
2.4822
4.13826
5.06151
5.31757
5.0476
4.4614
3.82199
3.42194
3.5528
4.47027
6.35889
9.30074
13.253
18.0381
23.3496
28.7744
33.8287
38.0062
40.8306
41.9081
40.9711
37.9105
32.7893
25.839
17.4368
8.06936
-1.7143
-11.3532
-20.3221
-28.1694
-34.5415
-39.188
-41.9488
-42.7248
-41.4379
-37.9895
-32.2288
-23.9402
-12.8613
1.26682
18.6155
39.1623
62.5757
88.1155
114.571
140.264
163.127
180.869
191.218
192.207
182.476
161.533
129.936
89.3473
42.4512
-7.27506
-55.9067
-99.4924
-134.495
-158.194
-168.985
-166.558
-151.902
-127.169
-95.3943
-60.1284
-25.0219
6.57952
31.9808
49.3866
58.0277
58.1582
50.9339
38.1945
22.1843
5.25137
-10.4378
-23.1323
-31.6575
-35.4867
-34.7257
-30.0192
-22.3995
-13.102
-3.37552
5.68818
13.2849
18.9757
22.7065
24.7732
25.7414
26.3373
27.3242
29.3855
33.027
38.5101
45.8239
54.694
64.6264
74.9762
85.0312
94.0981
101.581
107.04
110.23
111.108
109.823
106.672
102.051
96.398
90.1234
83.561
76.9241
70.2822
63.5589
56.5513
48.9684
40.4846
30.7993
19.6961
7.09154
-6.93285
-22.1203
-38.0524
-54.1851
-69.9017
-84.5766
-97.6405
-108.639
-117.276
-123.439
-127.201
-128.799
-128.598
-127.045
-124.608
-121.734
-118.801
-116.087
-113.757
-111.854
-110.308
-108.943
-107.498
-105.647
-103.021
-99.2354
-93.9147
-86.7277
-77.4196
-65.8465
-52.005
-36.0549
-18.329
0.673172
20.3087
39.8316
58.4474
75.3745
89.9085
101.479
109.697
114.377
115.551
113.453
108.491
101.202
92.2049
82.1447
71.6466
61.2721
51.4879
42.6464
34.9768
28.5879
23.4791
19.5578
16.6615
14.5798
13.0779
11.916
10.8663
9.72581
8.32442
6.53
4.24975
1.42948
-1.94857
-5.86863
-10.2844
-15.1214
-20.2793
-25.6327
-31.0324
-36.3062
-41.2607
-45.6844
-49.354
-52.0434
-53.5364
-53.6415
-52.2088
-49.1457
-44.4301
-38.1188
-30.3497
-21.3359
-11.3547
-0.729063
10.1931
21.0622
31.5476
41.355
50.2369
57.996
64.4802
69.5726
73.1772
75.2066
75.5729
74.1884
70.9744
65.8797
58.9056
50.132
39.74
28.026
15.4024
2.38327
-10.4442
-22.4606
-33.0629
-41.7146
-47.9912
-51.6155
-52.4779
-50.638
-46.3079
-39.8183
-31.5732
-21.998
-11.4915
-0.389199
11.0514
22.6399
34.2127
45.5686
56.3919
66.181
74.204
79.5023
80.9558
77.4108
67.8603
51.6465
28.6521
-0.561971
-34.7033
-71.8005
-109.362
-144.624
-174.849
-197.644
-211.236
-214.677
-207.954
-191.977
-168.466
-139.746
-108.478
-77.371
-48.8949
-25.047
-7.18089
4.07884
8.83441
7.83203
2.31464
-6.16691
-15.9587
-25.4986
-33.4799
-38.967
-41.4539
-40.8661
-37.5105
-31.9848
-25.064
-17.5771
-10.2933
-3.82801
1.41992
5.29746
7.89192
9.49582
10.5496
11.5714
13.0831
15.5423
19.2868
24.4965
31.176
39.1573
48.1214
57.6336
67.1893
76.264
84.3612
91.0557
96.0252
99.0711
100.125
99.2402
96.5768
92.3718
86.9083
80.4827
73.375
65.8257
58.0214
50.0907
42.1087
34.1096
26.1034
18.0946
10.0984
2.15346
-5.67246
-13.2828
-20.5594
-27.3737
-33.6013
-39.1366
-43.9049
-47.871
-51.0418
-53.4642
-55.2168
-56.3988
-57.1164
-57.4693
-57.5393
-57.3824
-57.0254
-56.4671
-55.6837
-54.6382
-53.2906
-51.6086
-49.5769
-47.2033
-44.5211
-41.5878
-38.4802
-35.2869
-32.0994
-29.0031
-26.0695
-23.3504
-20.8752
-18.6507
-16.6641
-14.887
-13.2819
-11.8081
-10.4277
-9.11039
-7.83603
-6.59662
-5.39576
-4.24683
-3.17023
-2.18972
-1.32879
-0.607161
-0.0379447
0.374238
0.634092
0.755348
0.759426
0.673276
0.526685
0.349411
0.168495
0.00606431
-0.122135
-0.207375
-0.247743
-0.24721
-0.214159
-0.159618
-0.0954348
-0.0326321
0.019887
0.0561713
0.0735568
0.072555
0.0564275
0.0306597
0.00258563
-0.0186069
-0.0213753
0.00910972
0.0920534
0.25184
0.51803
0.924107
1.5047
2.29132
3.30712
4.56116
6.04345
7.72149
9.53931
11.4196
13.2686
14.9843
16.4654
17.6218
18.3831
18.7055
18.5758
18.0111
17.0556
15.7747
14.247
12.5553
10.7793
8.9881
7.23642
5.56193
3.98545
2.51275
1.13785
-0.152902
-1.37576
-2.5436
-3.65831
-4.70113
-5.62049
-6.31776
-6.63218
-6.32745
-5.0837
-2.49881
1.89655
8.60706
18.1225
30.8495
47.0299
66.6517
89.3656
114.42
140.631
166.408
189.834
208.82
221.308
225.519
220.199
204.838
179.82
146.479
107.026
64.3803
21.8821
-17.0464
-49.2707
-72.2857
-84.4891
-85.3499
-75.4529
-56.4153
-30.6876
-1.2677
28.6355
55.9477
78.0432
92.993
99.7228
98.0679
88.7257
73.1182
53.1852
31.1383
9.20425
-10.6119
-26.7183
-38.0656
-44.2047
-45.2724
-41.9134
-35.1537
-26.2444
-16.4968
-7.12849
0.861116
6.77645
10.2644
11.3075
10.178
7.3634
3.47608
-0.837447
-4.97709
-8.44982
-10.9058
-12.1496
-12.1293
-10.9103
-8.63978
-5.51024
-1.72718
2.51384
7.03918
11.698
16.3544
20.8748
25.1147
28.9103
32.0773
34.4199
35.7469
35.8945
34.7477
32.2589
28.4563
23.4425
17.3834
10.4893
2.99413
-4.86435
-12.8598
-20.7868
-28.4649
-35.7394
-42.4797
-48.5779
-53.9479
-58.5252
-62.2681
-65.1583
-67.2011
-68.4261
-68.8859
-68.6556
-67.831
-66.5275
-64.8772
-63.0264
-61.1317
-59.3541
-57.8525
-56.7748
-56.2475
-56.3644
-57.1756
-58.676
-60.7973
-63.403
-66.2892
-69.1917
-71.8004
-73.7809
-74.802
-74.5667
-72.844
-69.4971
-64.5048
-57.9723
-50.1303
-41.3213
-31.9734
-22.5664
-13.5914
-5.51054
1.28116
6.48572
9.92355
11.544
11.4252
9.7639
6.85687
3.07481
-1.16839
-5.44955
-9.37025
-12.5886
-14.8459
-15.9855
-15.962
-14.8406
-12.7849
-10.0361
-6.88539
-3.64161
-0.59952
1.98936
3.93943
5.14529
5.58637
5.32206
4.4783
3.22796
1.76762
0.293738
-1.01873
-2.03291
-2.66
-2.86208
-2.64825
-2.06543
-1.18621
-0.0959593
1.11858
2.3776
3.61273
4.76773
5.79612
6.65705
7.31093
7.71625
7.82885
7.6044
7.00421
6.00353
4.60108
2.8277
0.75211
-1.51808
-3.84112
-6.05168
-7.97589
-9.44885
-10.3314
-10.5231
-9.96868
-8.65542
-6.60185
-3.83788
-0.379562
3.79754
8.78093
14.7339
21.8926
30.5433
40.9765
53.4204
67.9566
84.4284
102.357
120.879
138.732
154.294
165.693
170.981
168.366
156.464
134.543
102.731
62.119
14.7763
-36.3761
-87.7991
-135.668
-176.258
-206.347
-223.56
-226.645
-215.609
-191.721
-157.37
-115.797
-70.7387
-26.0206
14.84
48.9852
74.4744
90.4248
97.0238
95.4184
87.5015
75.6293
62.3064
49.88
40.2792
34.8275
34.1448
38.1442
46.1152
56.8752
68.9655
80.8622
91.1766
98.8196
103.114
103.849
101.265
95.9946
88.953
81.2055
73.8273
67.7728
63.7685
62.2409
63.2845
66.6698
71.887
78.2175
84.8224
90.8363
95.4576
98.0242
98.0706
95.362
89.9043
81.9323
71.8782
60.3252
47.9512
35.4674
23.5585
12.8279
3.75319
-3.34447
-8.31626
-11.185
-12.1293
-11.4551
-9.55729
-6.87628
-3.85391
-0.892863
1.67625
3.6177
4.80165
5.20322
4.89089
4.00628
2.73852
1.29637
-0.118482
-1.33416
-2.22518
-2.7216
-2.81068
-2.5314
-1.96352
-1.21304
-0.396015
0.376838
1.01322
1.44856
1.65085
1.6209
1.38849
1.00512
0.534595
0.042452
-0.414465
-0.797148
-1.09103
-1.30897
-1.4898
-1.69217
-1.98424
-2.43054
-3.07804
-3.94393
-5.00751
-6.20829
-7.45112
-8.61855
-9.58888
-10.2577
-10.5593
-10.4852
-10.0956
-9.52214
-8.96045
-8.65292
-8.86357
-9.84772
-11.82
-14.9249
-19.2128
-24.6248
-30.9888
-38.0263
-45.3713
-52.5989
-59.2613
-64.9271
-69.2213
-71.8601
-72.6776
-71.6411
-68.8532
-64.5401
-59.0273
-52.7054
-45.9907
-39.2824
-32.9247
-27.1743
-22.1797
-17.9722
-14.4714
-11.5022
-8.82375
-6.16428
-3.26014
0.106944
4.07788
8.69316
13.8812
19.4594
25.1473
30.5914
35.3993
39.1783
41.5773
42.3245
41.2595
38.3546
33.7223
27.6091
20.3753
12.4624
4.35219
-3.47775
-10.5978
-16.6636
-21.4434
-24.8315
-26.8473
-27.6196
-27.3565
-26.3051
-24.7042
-22.7348
-20.4752
-17.8679
-14.7035
-10.6303
-5.19029
2.11582
11.7407
23.9869
38.9017
56.1865
75.1375
94.6344
113.187
129.045
140.362
145.404
142.772
131.605
111.752
83.8534
49.3468
10.3701
-30.4205
-70.0996
-105.759
-134.798
-155.177
-165.616
-165.711
-155.948
-137.635
-112.744
-83.6976
-53.1107
-23.5341
2.78641
24.1027
39.2936
47.9207
50.2082
46.9564
39.4013
29.0418
17.4545
6.11938
-3.72637
-11.191
-15.7807
-17.401
-16.3102
-13.0374
-8.27683
-2.77415
2.7808
7.84241
12.0698
15.3546
17.8151
19.7603
21.6304
23.9218
27.1079
31.5636
37.5044
44.9447
53.6819
63.3058
73.2323
82.7578
91.1263
97.6037
101.548
102.471
100.078
94.2936
85.255
73.2889
58.8675
42.5527
24.9363
6.58354
-12.0137
-30.4676
-48.5075
-65.9754
-82.8056
-98.9943
-114.565
-129.532
-143.877
-157.529
-170.355
-182.174
-192.761
-201.879
-209.298
-214.824
-218.326
-219.752
-219.147
-216.656
-212.524
-207.079
-200.714
-193.857
-186.933
-180.33
-174.365
-169.249
-165.071
-161.786
-159.223
-157.1
-155.055
-152.687
-149.594
-145.414
-139.862
-132.758
-124.039
-113.769
-102.132
-89.4202
-76.0091
-62.334
-48.8573
-36.0374
-24.2968
-13.9936
-5.3978
1.32572
6.12649
9.06837
10.3205
10.1398
8.84714
6.79815
4.35312
1.84759
-0.432954
-2.27202
-3.53333
-4.16338
-4.18586
-3.68885
-2.80696
-1.70046
-0.534038
0.54241
1.40925
1.98726
2.24204
2.18264
1.85527
1.33334
0.70534
0.0623509
-0.513403
-0.957577
-1.22948
-1.31416
-1.22071
-0.977468
-0.624729
-0.206419
0.237924
0.67943
1.10339
1.50946
1.90866
2.31813
2.75473
3.229
3.74084
4.2778
4.81635
5.32594
5.77513
6.13853
6.40338
6.57436
6.67548
6.7483
6.84594
7.02324
7.32389
7.76601
8.3287
8.94228
9.48537
9.7914
9.66586
8.91401
7.37649
4.96944
1.72488
-2.17277
-6.35798
-10.2683
-13.1471
-14.0723
-12.0173
-5.94842
5.04167
21.5734
43.8097
71.3018
102.882
136.634
169.968
199.811
222.889
236.104
236.919
223.728
196.136
155.108
102.956
43.1597
-19.9585
-81.6727
-137.342
-182.895
-215.247
-232.598
-234.59
-222.293
-198.036
-165.114
-127.387
-88.8457
-53.1769
-23.3757
-1.45313
11.7432
16.5782
14.5501
8.09595
0.305176
-5.42749
-5.776
2.15309
20.5017
50.4174
91.9121
143.838
203.986
269.301
336.192
400.917
459.984
510.548
550.745
579.918
598.711
609.011
613.735
616.483
621.102
631.203
649.704
678.446
717.944
767.286
824.216
885.367
946.627
1003.59
1052.01
1088.28
1109.75
1115
1103.87
1077.49
1037.99
988.255
931.512
870.964
809.41
748.965
690.879
635.501
582.374
530.449
478.386
424.891
369.038
310.518
249.796
188.122
127.429
70.1091
18.7134
-24.3795
-57.2795
-78.8408
-88.8227
-87.9336
-77.7584
-60.578
-39.1125
-16.2194
5.4098
23.5192
36.4921
43.4679
44.3637
39.8062
30.9858
19.4607
6.93426
-4.96142
-14.8542
-21.7712
-25.2201
-25.2091
-22.212
-17.089
-10.9775
-5.16603
-0.963692
0.422956
-2.00088
-8.93041
-20.6996
-37.2493
-58.1281
-82.5255
-109.337
-137.255
-164.88
-190.838
-213.899
-233.08
-247.723
-257.54
-262.617
-263.389
-260.567
-255.055
-247.841
-239.891
-232.054
-224.981
-219.082
-214.508
-211.162
-208.74
-206.792
-204.789
-202.197
-198.533
-193.423
-186.622
-178.035
-167.707
-155.805
-142.594
-128.403
-113.6
-98.5655
-83.6713
-69.2682
-55.6727
-43.1599
-31.9556
-22.2305
-14.0939
-7.58966
-2.69352
0.685658
2.70096
3.55843
3.50473
2.81285
1.76734
0.650336
-0.271057
-0.756224
-0.601938
0.346369
2.1825
4.92683
8.51437
12.786
17.4857
22.2669
26.7107
30.355
32.736
33.4368
32.1377
28.6648
23.0265
15.4366
6.31832
-3.71159
-13.8759
-23.2854
-30.9984
-36.0879
-37.714
-35.1995
-28.1066
-16.3102
-0.0641086
19.9511
42.6095
66.3628
89.3151
109.355
124.342
132.329
131.8
121.894
102.569
74.6869
39.993
0.984051
-39.3244
-77.704
-111.055
-136.737
-152.852
-158.433
-153.529
-139.171
-117.222
-90.148
-60.7284
-31.7455
-5.69541
15.451
30.4116
38.6677
40.4462
36.6215
28.5522
17.8797
6.31384
-4.56748
-13.4825
-19.5581
-22.3824
-21.9978
-18.8399
-13.6378
-7.28942
-0.730941
5.1835
9.77853
12.6213
13.5481
12.6544
10.2543
6.81668
2.8894
-0.97808
-4.30371
-6.72549
-8.03263
-8.17285
-7.23695
-5.42458
-2.99758
-0.229321
2.64158
5.44514
8.09613
10.5899
12.9791
15.3359
17.7074
20.0729
22.3134
24.2012
25.4143
25.5767
24.3199
21.3549
16.5424
9.94802
1.86916
-7.1719
-16.4705
-25.2108
-32.5549
-37.7321
-40.1166
-39.2784
-35.0052
-27.2946
-16.3241
-2.41048
14.0321
32.525
52.5449
73.5293
94.8729
115.919
135.959
154.235
169.964
182.376
190.756
194.503
193.18
186.557
174.641
157.686
136.187
110.842
82.5157
52.1758
20.835
-10.5108
-40.936
-69.6275
-95.912
-119.268
-139.323
-155.835
-168.672
-177.777
-183.143
-184.792
-182.761
-177.1
-167.882
-155.213
-139.254
-120.231
-98.4414
-74.2633
-48.146
-20.6046
7.79328
36.44
64.702
91.9337
117.491
140.749
161.115
178.058
191.129
199.992
204.454
204.494
200.286
192.207
180.842
166.965
151.511
135.532
120.137
106.429
95.4283
88.0083
84.8239
86.2588
92.3877
102.96
117.408
134.882
154.307
174.461
194.068
211.897
226.85
238.048
244.887
247.069
244.609
237.801
227.176
213.428
197.336
179.689
161.205
142.482
123.953
105.873
88.3254
71.2528
54.499
37.8638
21.1575
4.25037
-12.8902
-30.1784
-47.4065
-64.2572
-80.3298
-95.1756
-108.337
-119.383
-127.944
-133.729
-136.533
-136.231
-132.757
-126.077
-116.164
-102.975
-86.4504
-66.5366
-43.236
-16.6803
12.7796
44.4845
77.3991
110.086
140.74
167.295
187.602
199.657
201.869
193.31
173.927
144.655
107.431
65.0642
20.9963
-21.0452
-57.4436
-85.0987
-101.782
-106.394
-99.0888
-81.2474
-55.3
-24.4261
7.83127
37.9846
63
80.6241
89.5999
89.7484
81.9132
67.7814
49.6123
29.9152
11.1217
-4.70577
-16.0928
-22.2791
-23.2428
-19.6304
-12.6095
-3.6715
5.58669
13.672
19.3714
21.8761
20.8459
16.4118
9.12309
-0.147924
-10.3284
-20.2788
-28.921
-35.3491
-38.9125
-39.2659
-36.3847
-30.5488
-22.2982
-12.3681
-1.61113
9.08553
18.8798
27.045
33.0236
36.4626
37.2252
35.3822
31.1824
25.0096
17.3285
8.62999
-0.621561
-10.0296
-19.294
-28.2228
-36.7281
-44.8082
-52.5192
-59.9405
-67.1416
-74.1529
-80.9455
-87.4239
-93.43
-98.7596
-103.188
-106.499
-108.518
-109.14
-108.348
-106.226
-102.955
-98.7975
-94.0769
-89.1409
-84.3283
-79.9343
-76.1815
-73.2005
-71.0215
-69.5791
-68.7271
-68.2637
-67.9607
-67.5948
-66.9748
-65.9617
-64.4784
-62.51
-60.0927
-57.2965
-54.2048
-50.8942
-47.4198
-43.8076
-40.0556
-36.1431
-32.0448
-27.7482
-23.2693
-18.6631
-14.0281
-9.50177
-5.24865
-1.44257
1.75446
4.21368
5.85837
6.67769
6.734
6.16257
5.16368
3.98745
2.91266
2.22123
2.17044
2.96524
4.73317
7.50461
11.2009
15.6328
20.5102
25.4644
30.0808
33.9394
36.6592
37.941
37.6034
35.6075
32.0653
27.2324
21.483
15.2722
9.08832
3.40305
-1.37598
-4.94307
-7.11889
-7.85868
-7.24381
-5.45853
-2.75594
0.581565
4.28104
8.11147
11.9053
15.5665
19.065
22.4185
25.6672
28.8446
31.9502
34.9307
37.6717
40.0022
41.7124
42.581
42.4075
41.0454
38.4298
34.5944
29.6762
23.9034
17.5686
10.9896
4.46112
-1.79459
-7.67061
-13.2045
-18.5856
-24.1362
-30.2646
-30.2646
-30.2646
-30.2646
-30.2646
-30.2646
-30.2646
-30.2646
-30.2646
-30.2646
-30.2646
-30.2646
-30.2646
-30.2646
-30.2646
-30.2646
-30.2646
-30.2646
-30.2646
-30.2646
-30.2646
