105.484
62.7921
14.181
-38.692
-93.5573
-147.713
-198.277
-242.481
-277.964
-303.034
-316.854
-319.528
-312.079
-296.324
-274.657
-249.773
-224.369
-200.86
-181.143
-166.429
-157.173
-153.09
-153.26
-156.293
-160.539
-164.307
-166.064
-164.607
-159.162
-149.443
-135.627
-118.298
-98.337
-76.799
-54.7875
-33.337
-13.3226
4.6011
20.0272
32.7927
42.9493
50.7158
56.4213
60.4456
63.1651
64.9083
65.9241
66.3654
66.2864
65.6518
64.3578
62.2577
59.1932
55.0237
49.6542
43.0559
35.2802
26.463
16.8192
6.62918
-3.78235
-14.072
-23.9053
-32.9827
-41.0616
-47.9712
-53.6195
-57.9913
-61.1387
-63.1647
-64.2033
-64.3975
-63.8797
-62.7555
-61.0937
-58.9241
-56.2424
-53.0222
-49.232
-44.8546
-39.9053
-34.4468
-28.5966
-22.5269
-16.4553
-10.6278
-5.29634
-0.692828
2.99501
5.64438
7.21105
7.73419
7.33185
6.18784
4.53144
2.61294
0.677823
-1.05724
-2.42377
-3.31433
-3.68775
-3.5665
-3.02731
-2.18642
-1.18186
-0.154883
0.766997
1.48367
1.93134
2.08625
1.96305
1.60886
1.0939
0.500358
-0.0890379
-0.601255
-0.980933
-1.19531
-1.23581
-1.1165
-0.869861
-0.540743
-0.179438
0.165195
0.451682
0.650327
0.745659
0.736841
0.636201
0.46627
0.255863
0.0357904
-0.165229
-0.323946
-0.424916
-0.461609
-0.436273
-0.358719
-0.244274
-0.111274
0.0215679
0.137554
0.223883
0.272851
0.282272
0.255167
0.198833
0.123466
0.0405718
-0.0386187
-0.104536
-0.150297
-0.172286
-0.170263
-0.147032
-0.107771
-0.0591195
-0.00819708
0.0383491
0.0751282
0.0985505
0.107088
0.101247
0.0832895
0.0567609
0.0259086
-0.0049273
-0.0318695
-0.0519421
-0.0633497
-0.0655772
-0.059319
-0.0462634
-0.0287743
-0.0095225
0.00888324
0.0242174
0.0348773
0.0400183
0.0395796
0.0342099
0.0251168
0.0138887
0.00237005
-0.00727473
-0.0121301
-0.00755057
0.0144573
0.0673888
0.172569
0.361049
0.674343
1.16333
1.88492
2.89649
4.24858
5.97685
8.09438
10.5859
13.4046
16.473
19.6873
22.9257
26.0588
28.9616
31.526
33.6704
35.3473
36.547
37.2962
37.6534
37.7003
37.5314
37.2422
36.9184
36.6268
36.4093
36.2806
36.2291
36.222
36.2125
36.1485
35.9807
35.6694
35.1882
34.5242
33.674
32.6378
31.4113
29.9792
28.3107
26.3593
24.0669
21.3724
18.2227
14.5855
10.4605
5.88684
0.946618
-4.23839
-9.51495
-14.7115
-19.6541
-24.1827
-28.1664
-31.5138
-34.1796
-36.1638
-37.5066
-38.2785
-38.567
-38.4644
-38.0563
-37.4127
-36.5828
-35.5914
-34.4351
-33.0745
-31.4193
-29.304
-26.4538
-22.4434
-16.6544
-8.24302
3.87148
20.9821
44.522
75.9375
116.507
167.112
227.997
298.522
376.985
460.522
545.134
625.872
697.163
753.278
788.895
799.681
782.849
737.587
665.308
569.669
456.342
332.55
206.418
86.2074
-20.4789
-107.417
-170.335
-207.264
-218.638
-207.132
-177.264
-134.827
-86.2103
-37.7043
5.13933
38.0167
58.2053
64.6959
58.1242
40.5263
14.9619
-14.9405
-45.4565
-73.2002
-95.4741
-110.501
-117.524
-116.77
-109.306
-96.8042
-81.2602
-64.7033
-48.9336
-35.3166
-24.6549
-17.1456
-12.4197
-9.65074
-7.71263
-5.3617
-1.41787
5.07768
14.7459
27.8054
44.0628
62.9552
83.6336
105.074
126.201
146.006
163.65
178.533
190.336
199.025
204.818
208.135
209.522
209.574
208.861
207.855
206.888
206.119
205.532
204.945
204.047
202.436
199.677
195.352
189.106
180.692
170.001
157.072
142.106
125.449
107.577
89.062
70.5392
52.6602
36.0496
21.2606
8.73555
-1.22531
-8.48408
-13.072
-15.1822
-15.1484
-13.4126
-10.4835
-6.89097
-3.14156
0.321974
3.1517
5.11431
6.09821
6.10808
5.24869
3.70057
1.69093
-0.536556
-2.74971
-4.75083
-6.39266
-7.58653
-8.30254
-8.56304
-8.43081
-7.99421
-7.35151
-6.59643
-5.8066
-5.03614
-4.31261
-3.63846
-2.99594
-2.35454
-1.67952
-0.940171
-0.116739
0.794989
1.78178
2.81382
3.84803
4.8331
5.71547
6.4454
6.98218
7.29805
7.38037
7.23206
6.87054
6.3253
5.63487
4.84326
3.99655
3.13962
2.31353
1.5533
0.886399
0.331743
-0.100874
-0.410984
-0.607416
-0.708086
-0.73959
-0.736497
-0.740224
-0.797301
-0.956922
-1.26777
-1.77419
-2.51211
-3.5049
-4.75993
-6.26605
-7.99254
-9.88982
-11.8918
-13.9199
-15.8885
-17.7108
-19.3049
-20.6002
-21.542
-22.0951
-22.2457
-22.002
-21.393
-20.4649
-19.278
-17.9018
-16.4099
-14.8753
-13.3658
-11.9406
-10.6477
-9.52186
-8.58428
-7.84303
-7.29425
-6.92415
-6.71139
-6.62965
-6.65011
-6.74348
-6.88153
-7.03771
-7.18708
-7.30545
-7.36791
-7.34721
-7.21218
-6.92663
-6.44914
-5.73387
-4.73257
-3.39766
-1.68603
0.436684
2.99212
5.98574
9.40454
13.2162
17.37
21.799
26.4236
31.1563
35.906
40.5817
45.0954
49.3619
53.2985
56.8213
59.8426
62.2671
63.9907
64.901
64.8822
63.8234
61.6305
58.2412
53.64
47.8721
41.0525
33.3692
25.0774
16.4868
7.93961
-0.21588
-7.65471
-14.1038
-19.366
-23.3364
-26.0096
-27.476
-27.9082
-27.5391
-26.6351
-25.466
-24.2769
-23.2645
-22.5594
-22.2158
-22.2069
-22.4243
-22.6763
-22.683
-22.0632
-20.3126
-16.7763
-10.6196
-0.808801
13.8865
34.8539
63.5493
101.349
149.342
208.075
277.274
355.585
440.38
527.687
612.301
688.082
748.462
787.111
798.688
779.57
728.471
646.815
538.816
411.212
272.688
133.025
2.10997
-111.097
-199.486
-258.502
-286.551
-285.052
-258.148
-212.115
-154.565
-93.5361
-36.5877
9.98085
41.7186
56.3513
53.8335
36.1406
6.84441
-29.457
-67.7762
-103.357
-132.208
-151.491
-159.735
-156.867
-144.07
-123.507
-97.9576
-70.4188
-43.7206
-20.2049
-1.4977
11.6081
19.1558
21.9268
21.2644
18.8484
16.4545
15.7277
17.9962
24.1415
34.5352
49.0407
67.0723
87.6987
109.773
132.072
153.43
172.85
189.583
203.176
213.48
220.625
224.968
227.025
227.387
226.644
225.312
223.773
222.245
220.759
219.175
217.207
214.465
210.515
204.933
197.359
187.549
175.405
160.993
144.546
126.44
107.171
87.3065
67.4381
48.1341
29.8941
13.1153
-1.92972
-15.1004
-26.3828
-35.8724
-43.7481
-50.2423
-55.6098
-60.0996
-63.9322
-67.2835
-70.2775
-72.9852
-75.4301
-77.5984
-79.4511
-80.9378
-82.008
-82.6216
-82.7559
-82.4087
-81.5995
-80.3666
-78.7635
-76.8526
-74.7
-72.369
-69.9159
-67.386
-64.8115
-62.2112
-59.5911
-56.9463
-54.2641
-51.5272
-48.717
-45.8176
-42.8181
-39.7154
-36.5159
-33.2359
-29.9013
-26.5466
-23.2131
-19.9467
-16.7947
-13.8041
-11.0184
-8.476
-6.2084
-4.23862
-2.58042
-1.23762
-0.20393
0.536787
1.00982
1.24837
1.29188
1.18386
0.969476
0.692933
0.39496
0.110532
-0.132899
-0.316551
-0.430685
-0.474233
-0.453691
-0.381454
-0.273752
-0.148445
-0.0228885
0.087906
0.17265
0.224589
0.241723
0.226452
0.184762
0.125093
0.0570333
-0.00996048
-0.0676919
-0.110072
-0.133619
-0.137583
-0.12373
-0.0958372
-0.0589998
-0.0188525
0.0191898
0.0505806
0.0721115
0.0821648
0.0807399
0.069276
0.0503149
0.027062
0.00291252
-0.0189944
-0.0361419
-0.046884
-0.0505581
-0.0474621
-0.0387133
-0.0260204
-0.0114049
0.00308652
0.0156421
0.0248874
0.0300118
0.0308097
0.027642
0.0213302
0.013004
0.003926
-0.00468097
-0.0117836
-0.0166479
-0.0188997
-0.0185334
-0.0158733
-0.0114981
-0.00614052
-0.000579211
0.0044644
0.00841067
0.0108796
0.0117175
0.0109922
0.00896275
0.00603765
0.00276054
-8.9981e-05
-0.00113131
0.00247151
0.0165242
0.0520401
0.127978
0.273945
0.532064
0.957097
1.61407
2.57296
3.90069
5.65086
7.8528
10.5011
13.5475
16.8964
20.4055
23.8917
27.142
29.9297
32.0325
33.2529
33.437
32.4902
30.3879
27.1799
22.9875
17.9942
12.4304
6.55457
0.632409
-5.08297
-10.368
-15.0409
-18.9688
-22.0686
-24.3033
-25.6749
-26.2141
-25.9707
-25.0041
-23.3766
-21.1482
-18.3752
-15.1095
-11.3982
-7.28149
-2.78564
2.09204
7.40719
13.3033
20.0552
28.1177
38.1703
51.148
68.2437
90.8678
120.553
158.798
206.841
265.396
334.353
412.506
497.343
584.97
670.208
746.893
808.392
848.269
861.056
843.008
792.727
711.56
603.685
475.858
336.818
196.447
64.7497
-49.1845
-138.122
-197.403
-225.357
-223.356
-195.528
-148.161
-88.9004
-25.8302
33.4319
82.5243
116.928
134.294
134.491
119.396
92.4647
58.1593
21.3156
-13.4732
-42.3805
-62.7239
-73.1651
-73.726
-65.6369
-51.0526
-32.6853
-13.4077
4.12209
17.769
26.1321
28.6425
25.5474
17.7946
6.84212
-5.57553
-17.6908
-27.9257
-35.0669
-38.3789
-37.6456
-33.1438
-25.5595
-15.8613
-5.15379
5.47144
15.066
22.9227
28.6306
32.0858
33.4595
33.1325
31.61
29.4292
27.0752
24.9161
23.1652
21.8726
20.9443
20.1831
19.3416
18.1784
16.5085
14.2389
11.3871
8.07901
4.53024
1.01284
-2.18485
-4.79956
-6.62926
-7.55917
-7.57476
-6.76047
-5.28547
-3.37916
-1.30035
0.695283
2.38516
3.60346
4.25602
4.32508
3.86444
2.9861
1.84107
0.597171
-0.583122
-1.56206
-2.24101
-2.56857
-2.5421
-2.20296
-1.62691
-0.911235
-0.160662
0.52594
1.06654
1.40341
1.50653
1.37317
1.0242
0.498164
-0.155606
-0.883724
-1.63444
-2.36164
-3.027
-3.60036
-4.05883
-4.38506
-4.56535
-4.58809
-4.44305
-4.12169
-3.6187
-2.93444
-2.07797
-1.07004
0.0547592
1.24731
2.44534
3.57705
4.56679
5.34229
5.84234
6.02394
5.86791
5.38198
4.60107
3.58467
2.41163
1.1731
-0.0357264
-1.12397
-2.01299
-2.64296
-2.9777
-3.00731
-2.74839
-2.24191
-1.54886
-0.743974
0.0915992
0.878285
1.54567
2.03898
2.32382
2.3885
2.24406
1.92168
1.46819
0.940039
0.396628
-0.106298
-0.522379
-0.81892
-0.979297
-1.00337
-0.906034
-0.714232
-0.463077
-0.191641
0.0609129
0.258401
0.369643
0.369424
0.238625
-0.0361665
-0.463173
-1.0458
-1.78271
-2.66753
-3.68852
-4.82827
-6.06385
-7.36758
-8.70841
-10.0539
-11.3726
-12.636
-13.8208
-14.9097
-15.8922
-16.7642
-17.5268
-18.1857
-18.7486
-19.2243
-19.6208
-19.9441
-20.1971
-20.3794
-20.487
-20.5136
-20.4507
-20.2896
-20.0223
-19.6428
-19.1482
-18.5393
-17.8212
-17.0036
-16.1001
-15.1279
-14.107
-13.059
-12.0056
-10.9675
-9.96253
-9.00517
-8.10518
-7.26741
-6.49187
-5.77427
-5.10712
-4.48115
-3.88694
-3.31655
-2.76492
-2.2308
-1.71716
-1.23091
-0.781979
-0.38195
-0.0423569
0.227078
0.420007
0.53462
0.574237
0.54726
0.466486
0.347897
0.209081
0.0674922
-0.0612195
-0.164613
-0.234439
-0.267102
-0.263576
-0.228821
-0.170807
-0.0992761
-0.0244317
0.0443078
0.0993332
0.135551
0.150721
0.145411
0.122623
0.0871637
0.0448594
0.00173072
-0.0367675
-0.0663571
-0.0843367
-0.0897452
-0.0832917
-0.0670863
-0.0442263
-0.018303
0.0070993
0.0288501
0.044615
0.0530621
0.0539207
0.0479011
0.0365004
0.0217303
0.00580981
-0.00913583
-0.0213314
-0.0295375
-0.0331482
-0.0321956
-0.0272436
-0.0190907
-0.00801359
0.00808074
0.0377529
0.104099
0.258873
0.604617
1.32596
2.72946
5.28899
9.69002
16.8632
27.9937
44.4924
67.9143
99.815
141.544
193.981
257.252
330.435
411.35
496.437
580.823
658.577
723.173
768.125
787.742
777.872
736.56
664.486
565.118
444.517
310.824
173.46
42.1582
-74.0619
-167.838
-234.205
-271.047
-279.199
-262.205
-225.774
-177.012
-123.535
-72.5833
-30.2401
-0.845819
13.3346
12.1699
-2.54088
-27.4861
-58.405
-90.7144
-120.115
-143.102
-157.329
-161.785
-156.785
-143.797
-125.133
-103.559
-81.8929
-62.6252
-47.6221
-37.9367
-33.743
-34.3902
-38.5587
-44.4897
-50.2493
-53.9933
-54.1957
-49.8172
-40.3973
-26.065
-7.47665
14.3069
37.9792
62.1626
85.5724
107.153
126.171
142.257
155.4
165.894
174.254
181.114
187.123
192.843
198.682
204.841
211.309
217.869
224.145
229.658
233.89
236.351
236.63
234.446
229.663
222.302
212.526
200.624
186.971
172.003
156.177
139.946
123.736
107.927
92.846
78.7573
65.8613
54.2925
44.1194
35.346
27.9151
21.7138
16.5824
12.3266
8.73283
5.58562
2.68576
-0.132403
-2.98674
-5.93738
-8.98252
-12.0604
-15.0574
-17.8216
-20.1801
-21.9588
-23.0017
-23.1888
-22.45
-20.7734
-18.2085
-14.862
-10.8893
-6.48046
-1.84422
2.8091
7.2828
11.4057
15.0394
18.081
20.4613
22.1405
23.1035
23.3547
22.9165
21.8279
20.1467
17.9514
15.3429
12.4441
9.39645
6.35353
3.47107
0.895344
-1.24922
-2.87132
-3.92127
-4.39556
-4.33655
-3.82738
-2.9825
-1.93521
-0.823409
0.22433
1.1011
1.73078
2.07323
2.12503
1.91609
1.50287
0.959052
0.365202
-0.201368
-0.675384
-1.01006
-1.1807
-1.18528
-1.04221
-0.785911
-0.46086
-0.11506
0.206236
0.465798
0.638145
0.711419
0.687385
0.579733
0.411089
0.209232
0.00307604
-0.181061
-0.322466
-0.408014
-0.433
-0.400816
-0.321664
-0.210542
-0.0848534
0.0380382
0.14298
0.218697
0.258793
0.262033
0.231948
0.175879
0.103653
0.0260796
-0.0465123
-0.105521
-0.144973
-0.16201
-0.156965
-0.133121
-0.096289
-0.0543898
-0.0172105
0.00357603
-0.00587903
-0.0620447
-0.184407
-0.395574
-0.720856
-1.18717
-1.82124
-2.64708
-3.68315
-4.93934
-6.41423
-8.09316
-9.94736
-11.9344
-14.0002
-16.0819
-18.1119
-20.0224
-21.7495
-23.2376
-24.4423
-25.3335
-25.8969
-26.1349
-26.0668
-25.7274
-25.1652
-24.4394
-23.6161
-22.7638
-21.9482
-21.2278
-20.6482
-20.239
-20.0105
-19.9524
-20.0347
-20.2094
-20.4145
-20.5792
-20.6297
-20.4949
-20.1122
-19.4315
-18.4178
-17.0509
-15.3237
-13.2378
-10.7985
-8.00964
-4.87024
-1.37336
2.49165
6.73378
11.3524
16.3285
21.6159
27.1351
32.7709
38.374
43.7677
48.7584
53.149
56.7536
59.4113
60.9983
61.4365
60.6974
58.8031
55.8223
51.8641
47.0703
41.606
35.6519
29.3951
23.0232
16.7174
10.6471
4.96533
-0.195704
-4.72855
-8.55342
-11.6204
-13.9107
-15.4363
-16.2391
-16.3881
-15.9755
-15.1113
-13.9161
-12.5107
-11.0005
-9.45391
-7.87163
-6.14693
-4.01799
-1.01621
3.58208
10.7899
21.9162
38.5304
62.3703
95.1858
138.514
193.401
260.085
337.693
423.995
515.274
606.373
690.955
761.99
812.42
835.97
827.96
786.034
710.669
605.372
476.521
332.836
184.55
42.354
-83.7154
-185.336
-256.749
-295.301
-301.618
-279.387
-234.804
-175.753
-110.838
-48.3894
4.43075
42.3256
62.2907
63.7404
48.342
19.6007
-17.7331
-58.3485
-97.0588
-129.406
-152.117
-163.372
-162.876
-151.728
-132.142
-107.062
-79.7185
-53.1999
-30.087
-12.1841
-0.376084
5.38457
5.97306
2.89407
-1.97521
-6.66265
-9.36238
-8.64875
-3.62105
6.03215
20.0491
37.6812
57.8321
79.2262
100.582
120.766
138.915
154.503
167.361
177.645
185.764
192.284
197.817
202.921
208.011
213.311
218.824
224.345
229.498
233.794
236.699
237.706
236.395
232.478
225.824
216.473
204.613
190.562
174.731
157.585
139.606
121.266
103.003
85.2072
68.2146
52.3022
37.689
24.5363
12.9487
2.97424
-5.3942
-12.2164
-17.6003
-21.6944
-24.6771
-26.745
-28.0981
-28.9269
-29.4004
-29.6574
-29.8017
-29.9019
-29.9945
-30.0908
-30.1857
-30.2671
-30.3243
-30.3549
-30.369
-30.3902
-30.4534
-30.6006
-30.8742
-31.3097
-31.9287
-32.7326
-33.6988
-34.7792
-35.9025
-36.9785
-37.9056
-38.5799
-38.905
-38.8012
-38.2129
-37.1143
-35.5114
-33.4417
-30.9702
-28.1843
-25.186
-22.0835
-18.9836
-15.9838
-13.1664
-10.595
-8.3119
-6.33855
-4.67752
-3.31563
-2.22809
-1.38274
-0.744178
-0.27711
0.051121
0.269013
0.400301
0.464122
0.475698
0.447294
0.389201
0.31056
0.219895
0.125329
0.0344886
-0.0458078
-0.109958
-0.153938
-0.175482
-0.173972
-0.150008
-0.104727
-0.0390124
0.0471797
0.155149
0.287265
0.446188
0.633569
0.848451
1.0857
1.33483
1.57966
1.79885
1.9677
2.06065
2.05457
1.93215
1.68486
1.31528
0.838112
0.279837
-0.323151
-0.927745
-1.48837
-1.96175
-2.31167
-2.51295
-2.55429
-2.4394
-2.18643
-1.82568
-1.39593
-0.939981
-0.499864
-0.11243
0.194225
0.403084
0.509102
0.51871
0.448192
0.321421
0.167586
0.0195465
-0.0867706
-0.111832
-0.0112081
0.265716
0.776088
1.58214
2.74743
4.3309
6.37924
8.91872
11.9478
15.4316
19.2992
23.4439
27.7271
31.9841
36.0322
39.6801
42.738
45.0274
46.3917
46.7054
45.8831
43.8863
40.7282
36.4767
31.253
25.2287
18.6179
11.6682
4.64705
-2.17244
-8.52833
-14.1862
-18.955
-22.6999
-25.352
-26.9123
-27.4502
-27.0957
-26.0269
-24.4513
-22.585
-20.6279
-18.7366
-16.9934
-15.3717
-13.6965
-11.6023
-8.49223
-3.505
4.4973
16.9092
35.3153
61.3663
96.5942
142.171
198.63
265.58
341.459
423.374
507.086
587.173
657.396
711.246
742.64
746.659
720.257
662.804
576.392
465.822
338.26
202.594
68.5458
-54.3268
-157.633
-235.018
-282.789
-300.225
-289.544
-255.523
-204.858
-145.319
-84.8472
-30.6754
11.4051
37.5599
46.1627
37.7708
14.8507
-18.6935
-58.1159
-98.4637
-135.175
-164.567
-184.169
-192.879
-190.932
-179.717
-161.471
-138.91
-114.832
-91.7662
-71.6881
-55.8352
-44.6381
-37.7571
-34.2134
-32.5856
-31.2414
-28.5733
-23.2074
-14.1632
-0.950352
16.4042
37.3937
61.1246
86.4457
112.096
136.853
159.656
179.706
196.515
209.925
220.076
227.35
232.29
235.514
237.624
239.131
240.402
241.623
242.792
243.733
244.131
243.57
241.594
237.756
231.667
223.041
211.726
197.72
181.177
162.398
141.81
119.935
97.3518
74.6548
52.413
31.1331
11.2298
-6.99291
-23.3497
-37.7696
-50.2821
-60.995
-70.0681
-77.6862
-84.034
-89.2757
-93.5423
-96.9247
-99.4751
-101.213
-102.134
-102.226
-101.477
-99.8874
-97.4791
-94.2965
-90.4085
-85.9038
-80.8851
-75.4598
-69.7313
-63.79
-57.7059
-51.5239
-45.2616
-38.9116
-32.4456
-25.8234
-19.0019
-11.9467
-4.64204
2.90059
10.6376
18.4919
26.3564
34.1012
41.5835
48.6604
55.2011
61.0979
66.2756
70.6961
74.3598
77.3022
79.5871
81.2965
82.5189
83.3377
83.8201
84.0093
83.9197
83.5364
82.8185
81.7063
80.1309
78.0248
75.3337
72.0256
68.0985
63.5848
58.5512
53.096
47.3423
41.4301
35.5062
29.7151
24.1907
19.0493
14.3855
10.2689
6.74351
3.82837
1.51905
-0.209998
-1.40256
-2.11746
-2.42506
-2.40346
-2.13451
-1.69974
-1.17633
-0.633332
-0.128504
0.294138
0.605684
0.79258
0.855681
0.808222
0.672917
0.478482
0.25594
0.0350967
-0.158494
-0.305781
-0.395531
-0.424641
-0.397508
-0.324629
-0.220651
-0.102158
0.01452
0.115228
0.189435
0.23109
0.238843
0.215679
0.168056
0.104725
0.0353899
-0.0306066
-0.0854483
-0.123784
-0.143456
-0.146072
-0.137502
-0.128251
-0.133571
-0.17301
-0.269081
-0.444805
-0.720159
-1.10778
-1.6086
-2.2084
-2.87612
-3.56474
-4.21492
-4.76127
-5.14057
-5.30075
-5.20977
-4.86308
-4.28905
-3.5519
-2.75165
-2.02132
-1.52137
-1.43181
-1.94257
-3.24304
-5.51161
-8.90593
-13.5544
-19.5484
-26.9354
-35.7114
-45.8134
-57.1116
-69.4017
-82.4005
-95.7459
-109.004
-121.682
-133.257
-143.201
-151.025
-156.312
-158.754
-158.181
-154.577
-148.088
-139.011
-127.773
-114.901
-100.982
-86.616
-72.3659
-58.7108
-45.9911
-34.3564
-23.7125
-13.6707
-3.507
7.8608
21.8641
40.2297
64.8682
97.6961
140.394
194.109
259.138
334.618
418.297
506.421
593.816
674.172
740.549
786.073
804.726
792.16
746.384
668.23
561.508
432.798
290.891
145.936
8.39906
-112.035
-207.477
-272.634
-305.294
-306.447
-280.033
-232.358
-171.274
-105.221
-42.2712
10.7291
48.8039
69.2283
71.6146
57.7177
31.0075
-3.92098
-42.0114
-78.3988
-108.97
-130.776
-142.252
-143.253
-134.897
-119.281
-99.0947
-77.2091
-56.2841
-38.4488
-25.084
-16.7253
-13.0872
-13.1907
-15.5678
-18.5089
-20.3165
-19.5313
-15.1052
-6.50421
6.26479
22.6987
41.9011
62.7241
83.9258
104.323
122.921
138.998
152.157
162.321
169.692
174.685
177.836
179.712
180.831
181.595
182.249
182.867
183.362
183.515
183.018
181.524
178.696
174.248
167.98
159.791
149.693
137.794
124.285
109.419
93.4815
76.7712
59.5792
42.1773
24.8124
7.70559
-8.94528
-24.9615
-40.1809
-54.4572
-67.6625
-79.6926
-90.4734
-99.9675
-108.179
-115.155
-120.983
-125.786
-129.706
-132.9
-135.517
-137.685
-139.503
-141.025
-142.261
-143.175
-143.69
-143.699
-143.076
-141.696
-139.446
-136.243
-132.044
-126.855
-120.733
-113.785
-106.159
-98.0319
-89.5956
-81.0398
-72.5384
-64.2374
-56.2484
-48.6467
-41.4755
-34.7535
-28.4858
-22.6745
-17.3278
-12.4661
-8.12303
-4.3427
-1.17251
1.34624
3.18852
4.35472
4.87685
4.82098
4.285
3.39222
2.28138
1.09455
-0.0356166
-0.997479
-1.70954
-2.12598
-2.2381
-2.07163
-1.6805
-1.13792
-0.526156
0.0738949
0.591901
0.975225
1.19325
1.23865
1.12577
0.886555
0.564797
0.209508
-0.131615
-0.417889
-0.619887
-0.721845
-0.72213
-0.631916
-0.472412
-0.27115
-0.0578726
0.139404
0.297703
0.401408
0.443436
0.425237
0.355789
0.249878
0.126039
0.00452692
-0.0943747
-0.151554
-0.149763
-0.0739655
0.0884186
0.347084
0.708036
1.17235
1.7346
2.38126
3.08944
3.8263
4.54956
5.20911
5.74991
6.11592
6.25466
6.12226
5.68829
4.93999
3.88566
2.55648
1.00677
-0.687804
-2.43415
-4.12771
-5.6603
-6.92916
-7.84639
-8.34778
-8.39979
-8.00382
-7.19698
-6.04915
-4.65651
-3.13224
-1.59538
-0.159055
1.08051
2.0532
2.72141
3.08317
3.17173
3.05191
2.81373
2.56389
2.41631
2.48237
2.86208
3.63667
4.86339
6.57274
8.76809
11.4276
14.5082
17.9502
21.6841
25.6357
29.7319
33.9054
38.097
42.2575
46.3466
50.3312
54.1828
57.8741
61.3756
64.6527
67.6628
70.3531
72.6588
74.5016
75.7908
76.4248
76.2961
75.2985
73.3379
70.3436
66.2811
61.1636
55.0599
48.0981
40.4622
32.3828
24.1208
15.9474
8.11989
0.859107
-5.67146
-11.3806
-16.2573
-20.3705
-23.8606
-26.9239
-29.7912
-32.7031
-35.8844
-39.5185
-43.7251
-48.5391
-53.8926
-59.5953
-65.3136
-70.5462
-74.5961
-76.5448
-75.2333
-69.2632
-57.0287
-36.7945
-6.82695
34.4138
88.0298
154.404
232.912
321.678
417.415
515.413
609.716
693.51
759.7
801.643
813.938
793.174
738.516
652.035
538.696
406.009
263.336
120.966
-10.9493
-123.452
-209.698
-265.613
-290.226
-285.618
-256.536
-209.71
-152.985
-94.3689
-41.1354
0.929215
28.0462
38.6876
33.5334
15.1707
-12.4087
-44.4331
-76.0141
-102.761
-121.28
-129.497
-126.801
-113.975
-92.9783
-66.5898
-37.9883
-10.3214
13.6836
32.0196
43.5825
48.2259
46.6907
40.4322
31.3751
21.6338
13.2361
7.88454
6.78088
10.5287
19.1182
31.9866
48.1388
66.3068
85.1249
103.298
119.741
133.678
144.693
152.727
158.038
161.113
162.579
163.087
163.217
163.397
163.849
164.57
165.34
165.762
165.321
163.461
159.657
153.49
144.709
133.267
119.346
103.349
85.8749
67.6699
49.563
32.395
16.9435
3.8554
-6.40852
-13.6095
-17.7445
-19.0368
-17.9042
-14.91
-10.7018
-5.9454
-1.26122
2.82985
5.94647
7.86894
8.54234
8.06198
6.64404
4.58623
2.22362
-0.114898
-2.14449
-3.65285
-4.51703
-4.70764
-4.28156
-3.36493
-2.12984
-0.76789
0.53557
1.62362
2.384
2.758
2.74184
2.38096
1.75897
0.982988
0.167644
-0.580053
-1.17329
-1.55414
-1.69766
-1.61145
-1.3312
-0.913129
-0.424747
0.0648646
0.493893
0.814786
0.998701
1.03713
0.940766
0.73615
0.460597
0.156369
-0.135172
-0.378672
-0.54859
-0.631369
-0.625859
-0.542147
-0.399085
-0.22099
-0.0339995
0.137408
0.273317
0.360398
0.392879
0.372474
0.307368
0.210499
0.0974307
-0.015892
-0.115184
-0.189443
-0.231985
-0.240825
-0.21843
-0.170933
-0.106975
-0.0363489
0.0313503
0.0879072
0.127334
0.146263
0.14376
0.120457
0.0769725
0.0116927
-0.0817846
-0.217086
-0.41674
-0.71245
-1.14346
-1.75281
-2.58167
-3.6625
-5.01194
-6.62481
-8.47035
-10.4916
-12.6082
-14.7231
-16.7311
-18.5295
-20.0287
-21.1612
-21.888
-22.2018
-22.1264
-21.7123
-21.029
-20.156
-19.1727
-18.1487
-17.1369
-16.1691
-15.2551
-14.386
-13.5401
-12.6907
-11.815
-10.9017
-9.95693
-9.00693
-8.09685
-7.28639
-6.64242
-6.22971
-6.1012
-6.28908
-6.79801
-7.60137
-8.64102
-9.83064
-11.0625
-12.2166
-13.172
-13.818
-14.0656
-13.8564
-13.1698
-12.0254
-10.4822
-8.63366
-6.5991
-4.51233
-2.50899
-0.713636
0.771686
1.87639
2.56669
2.84695
2.75694
2.36557
1.76189
1.04456
0.311127
-0.35148
-0.874181
-1.20966
-1.33259
-1.23635
-0.92696
-0.415449
0.289758
1.18897
2.2946
3.63115
5.23149
7.13022
9.3549
11.9167
14.8017
17.9651
21.3278
24.7775
28.174
31.3573
34.1592
36.4155
37.9787
38.7299
38.5881
37.5163
35.5246
32.6699
29.0517
24.8054
20.0936
15.0957
9.99753
4.98074
0.213442
-4.15794
-8.0151
-11.2724
-13.8792
-15.8204
-17.1147
-17.8109
-17.9822
-17.7195
-17.1225
-16.2883
-15.2983
-14.1991
-12.9786
-11.5346
-9.63648
-6.88126
-2.65061
3.92411
13.9763
28.8842
50.2029
79.5381
118.357
167.742
228.111
298.927
378.46
463.631
550.017
632.033
703.32
757.317
787.96
790.434
761.859
701.818
612.624
499.279
369.1
231.052
94.8611
-29.9772
-135.18
-214.511
-264.378
-284.108
-275.893
-244.407
-196.163
-138.7
-79.6984
-26.1465
16.3606
44.1026
55.4638
50.8994
32.6667
4.37264
-29.5908
-64.6453
-96.5839
-122.025
-138.717
-145.676
-143.155
-132.461
-115.675
-95.296
-73.8856
-53.7358
-36.6134
-23.5973
-15.0204
-10.5139
-9.13433
-9.55171
-10.2659
-9.82233
-6.99917
-0.945413
8.74219
22.0066
38.3766
57.0592
77.0622
97.3265
116.852
134.803
150.578
163.846
174.543
182.837
189.066
193.671
197.112
199.806
202.072
204.093
205.912
207.434
208.453
208.691
207.84
205.602
201.735
196.077
188.571
179.27
168.331
156.004
142.603
128.483
114.007
99.5219
85.3364
71.7066
58.8287
46.8382
35.8138
25.7862
16.7475
8.66163
1.47424
-4.87943
-10.4683
-15.3615
-19.6254
-23.3233
-26.5141
-29.2527
-31.5895
-33.5698
-35.2328
-36.6105
-37.7268
-38.5968
-39.2261
-39.6119
-39.7432
-39.6026
-39.1684
-38.4169
-37.3258
-35.8769
-34.0602
-31.8766
-29.3405
-26.4817
-23.3455
-19.9921
-16.4938
-12.9318
-9.3909
-5.95456
-2.699
0.312112
3.03217
5.43482
7.5155
9.29102
10.7973
12.0856
13.217
14.2568
15.268
16.3056
17.4114
18.6096
19.9051
21.2817
22.7036
24.1171
25.4549
26.6403
27.5936
28.2379
28.5052
28.3427
27.7172
26.6191
25.0644
23.0946
20.7748
18.1886
15.4324
12.6074
9.8111
7.1292
4.62854
2.35203
0.316112
-1.48902
-3.09652
-4.55763
-5.93475
-7.29357
-8.69511
-10.1883
-11.8042
-13.5515
-15.4152
-17.357
-19.3184
-21.226
-22.9984
-24.5542
-25.8199
-26.7375
-27.2697
-27.4044
-27.1546
-26.5576
-25.6704
-24.564
-23.3165
-22.0057
-20.7021
-19.4635
-18.3311
-17.3268
-16.4538
-15.6977
-15.0301
-14.4135
-13.8058
-13.1663
-12.4597
-11.6607
-10.756
-9.74548
-8.642
-7.46958
-6.26088
-5.05404
-3.88906
-2.80439
-1.8338
-1.00376
-0.331731
0.174857
0.518626
0.711503
0.773225
0.729298
0.608605
0.440907
0.254477
0.0741136
-0.0802537
-0.194204
-0.258614
-0.268622
-0.221921
-0.11661
0.0510582
0.288724
0.609481
1.03275
1.58438
2.29599
3.20351
4.34522
5.75911
7.48005
9.53657
11.9478
14.7206
17.8474
21.3041
25.0505
29.0299
33.171
37.3907
41.5962
45.6885
49.5656
53.125
56.2661
58.8933
60.9185
62.2639
62.8653
62.6756
61.6681
59.8393
57.211
53.8313
49.7741
45.1373
40.0394
34.6152
29.0102
23.3745
17.8563
12.5951
7.71558
3.32141
-0.509717
-3.73016
-6.32485
-8.31198
-9.74156
-10.6915
-11.2614
-11.5634
-11.7102
-11.8
-11.8949
-11.9945
-11.9994
-11.6683
-10.5678
-8.02393
-3.08213
5.50861
19.2742
39.9408
69.2975
108.991
160.26
223.634
298.622
383.452
474.903
568.298
657.692
736.274
796.972
833.197
839.648
813.059
752.782
661.094
543.175
406.732
261.299
117.289
-15.0709
-126.804
-211.103
-263.993
-284.653
-275.372
-241.152
-189.017
-127.131
-63.8331
-6.71818
38.1346
66.7018
77.2753
70.4327
48.7452
16.2788
-22.032
-61.0535
-96.0791
-123.344
-140.373
-146.141
-141.039
-126.677
-105.548
-80.6349
-54.9821
-31.3153
-11.7351
2.47888
10.9422
14.1199
13.1801
9.77274
5.77103
3.00835
3.04597
6.99651
15.4203
28.3007
45.0936
64.8384
86.3093
108.185
129.213
148.345
164.839
178.303
188.698
196.291
201.58
205.198
207.807
210.006
212.255
214.826
217.778
220.968
224.08
226.674
228.241
228.271
226.298
221.954
214.994
205.32
192.98
178.17
161.217
142.561
122.736
102.337
81.9983
62.3546
44.0101
27.4997
13.2536
1.5656
-7.43083
-13.7742
-17.6723
-19.4835
-19.6833
-18.8182
-17.4525
-16.1137
-15.2423
-15.1527
-16.0088
-17.8176
-20.4401
-23.6189
-27.0175
-30.2666
-33.0112
-34.9536
-35.8856
-35.7093
-34.4427
-32.211
-29.2268
-25.761
-22.1095
-18.5593
-15.3589
-12.6951
-10.6788
-9.34097
-8.63699
-8.45987
-8.6585
-9.05928
-9.48789
-9.78898
-9.84158
-9.56902
-8.94252
-7.97892
-6.73311
-5.28674
-3.73475
-2.17159
-0.678608
0.685866
1.893
2.94579
3.8773
4.74489
5.62117
6.58261
7.69691
9.01058
10.5383
12.2556
14.0959
15.9526
17.687
19.1404
20.15
20.5665
20.2711
19.1906
17.308
14.6681
11.3763
7.5922
3.51684
-0.623639
-4.5973
-8.18607
-11.204
-13.5121
-15.0285
-15.7332
-15.6659
-14.9195
-13.6284
-11.954
-10.0685
-8.14002
-6.31856
-4.72625
-3.45078
-2.54326
-2.01978
-1.86608
-2.0444
-2.50132
-3.1756
-4.0051
-4.93196
-5.90573
-6.88425
-7.83259
-8.72052
-9.51938
-10.1991
-10.7258
-11.0616
-11.1648
-10.9917
-10.4995
-9.64829
-8.403
-6.73494
-4.62245
-2.05149
0.983419
4.4777
8.41435
12.7609
17.4661
22.4571
27.637
32.8848
38.0563
42.9885
47.5048
51.4232
54.5658
56.7684
57.8904
57.8245
56.5042
53.9109
50.0775
45.0911
39.0917
32.2688
24.8537
17.1089
9.31409
1.75044
-5.31715
-11.6568
-17.0846
-21.4756
-24.7708
-26.9775
-28.1648
-28.4538
-28.0041
-26.9968
-25.6183
-24.0424
-22.4158
-20.8431
-19.374
-17.9878
-16.5758
-14.9177
-12.6533
-9.25073
-3.97658
4.12281
16.2184
33.6605
57.8945
90.3232
132.115
183.966
245.845
316.744
394.486
475.638
555.571
628.704
688.922
730.164
747.104
735.855
694.58
623.918
527.15
410.048
280.409
147.329
20.2847
-91.8473
-181.714
-244.235
-277.085
-280.848
-258.839
-216.613
-161.253
-100.509
-41.919
7.99629
44.362
64.3465
67.2929
54.5893
29.3144
-4.28106
-41.3822
-77.2271
-107.658
-129.55
-141.072
-141.769
-132.473
-115.065
-92.1378
-66.6009
-41.2948
-18.648
-0.421934
12.435
19.8174
22.385
21.3971
18.4888
15.4235
13.8544
15.1236
20.1204
29.2095
42.2312
58.5666
77.2515
97.1218
116.968
135.68
152.364
166.419
177.575
185.88
191.653
195.41
197.766
199.347
200.698
202.214
204.1
206.346
208.739
210.895
212.308
212.413
210.649
206.523
199.666
189.874
177.132
161.63
143.75
124.049
103.221
82.0473
61.3457
41.9061
24.4319
9.4855
-2.55498
-11.5239
-17.4767
-20.6787
-21.5738
-20.7363
-18.8123
-16.455
-14.2623
-12.7235
-12.1804
-12.806
-14.6031
-17.4213
-20.9892
-24.9576
-28.9477
-32.5983
-35.6069
-37.76
-38.9512
-39.1836
-38.5606
-37.2647
-35.5289
-33.6048
-31.7315
-30.1081
-28.8741
-28.0979
-27.775
-27.8356
-28.1583
-28.5901
-28.9679
-29.14
-28.9846
-28.423
-27.4271
-26.0188
-24.2648
-22.2642
-20.1343
-17.9946
-15.9514
-14.086
-12.4472
-11.0483
-9.86976
-8.86622
-7.97588
-7.13166
-6.27169
-5.34791
-4.3317
-3.21609
-2.01455
-0.757133
0.515392
1.75801
2.92777
3.98881
4.91572
5.69484
6.32358
6.80821
7.16062
7.39467
7.52286
7.55385
7.49106
7.33272
7.07313
6.70502
6.22265
5.62518
4.91982
4.12437
3.2686
2.39418
1.55298
0.803805
0.207934
-0.176063
-0.297326
-0.116774
0.390502
1.23495
2.41439
3.91769
5.72927
7.8338
10.2198
12.8815
15.8184
19.0328
22.525
26.2875
30.2987
34.517
38.8762
43.2828
47.6162
51.7308
55.4605
58.6258
61.0418
62.5276
62.9173
62.071
59.8876
56.3172
51.3722
45.1366
37.7703
29.5081
20.6506
11.5488
2.5804
-5.87738
-13.4784
-19.9367
-25.0511
-28.7224
-30.9614
-31.8849
-31.7025
-30.6931
-29.1753
-27.4741
-25.8881
-24.6588
-23.9454
-23.8049
-24.1765
-24.8678
-25.5419
-25.7017
-24.6733
-21.5911
-15.3921
-4.82784
11.492
35.0164
67.1189
108.914
161.031
223.362
294.824
373.168
454.895
535.314
608.784
669.139
710.273
726.839
714.947
672.793
601.088
503.221
385.104
254.694
121.249
-5.60809
-116.89
-205.187
-265.427
-295.361
-295.715
-269.994
-223.984
-165.002
-101.022
-39.7652
12.119
49.697
70.1505
72.9035
59.4801
33.1325
-1.69961
-40.0182
-76.9032
-108.079
-130.35
-141.866
-142.198
-132.24
-113.963
-90.0584
-63.5371
-37.3288
-13.9328
4.84131
18.0219
25.5053
27.9758
26.737
23.4842
20.0514
18.167
19.2457
24.2394
33.5586
47.0661
64.1376
83.7744
104.749
125.764
145.604
163.26
178.018
189.507
197.692
202.84
205.447
206.146
205.613
204.47
203.217
202.174
201.454
200.966
200.437
199.457
197.536
194.166
188.887
181.339
171.31
158.766
143.863
126.943
108.517
89.227
69.7978
50.9825
33.5001
17.9753
4.88635
-5.47522
-13.027
-17.8972
-20.4059
-21.0255
-20.3283
-18.924
-17.3971
-16.2503
-15.8605
-16.4515
-18.0869
-20.681
-24.0265
-27.8338
-31.7759
-35.534
-38.8374
-41.4926
-43.4014
-44.5635
-45.0673
-45.0696
-44.768
-44.3704
-44.0645
-43.9926
-44.2334
-44.7926
-45.6046
-46.5425
-47.4366
-48.0982
-48.3447
-48.0247
-47.0372
-45.345
-42.9793
-40.0354
-36.6605
-33.036
-29.356
-25.8048
-22.538
-19.6665
-17.2486
-15.2875
-13.7363
-12.5082
-11.4913
-10.5637
-9.60969
-8.53227
-7.26291
-5.7664
-4.04151
-2.11786
-0.0498173
2.09106
4.22419
6.2675
8.14369
9.7849
11.1357
12.1546
12.8147
13.1032
13.0208
12.5809
11.8086
10.7395
9.41843
7.89847
6.2391
4.50494
2.76413
1.08684
-0.456345
-1.79611
-2.86651
-3.60734
-3.96686
-3.9048
-3.3951
-2.42823
-1.01255
0.825578
3.04319
5.58352
8.38
11.3611
14.4553
17.596
20.7251
23.7959
26.7742
29.6376
32.3739
34.9776
37.4455
39.7716
41.943
43.9346
45.7069
47.2037
48.3531
49.07
49.2607
48.8295
47.6863
45.7553
42.9833
39.3472
34.8597
29.5729
23.579
17.0081
10.0224
2.80854
-4.43326
-11.5009
-18.2029
-24.37
-29.8656
-34.593
-38.5001
-41.5796
-43.8669
-45.4329
-46.376
-46.8106
-46.8561
-46.6239
-46.2054
-45.6583
-44.9902
-44.1389
-42.9461
-41.126
-38.2301
-33.6129
-26.4068
-15.5179
0.34799
22.6139
52.7096
91.8947
141.034
200.343
269.131
345.588
426.655
508.036
584.377
649.636
697.621
722.666
720.332
688.077
625.75
535.849
423.471
295.936
162.126
31.601
-86.3832
-183.843
-254.891
-296.313
-307.83
-292.019
-253.906
-200.307
-138.983
-77.7493
-23.6161
17.9097
43.309
51.2683
42.6268
20.0795
-12.3093
-49.7076
-87.1521
-120.139
-145.102
-159.736
-163.134
-155.747
-139.186
-115.901
-88.8058
-60.8714
-34.769
-12.5811
4.38216
15.6544
21.5735
23.1498
21.8671
19.4482
17.6181
17.8924
21.4142
28.8536
40.374
55.662
74.0102
94.436
115.819
137.037
157.089
175.181
190.788
203.663
213.825
221.506
227.086
231.017
233.746
235.651
236.991
237.881
238.284
238.026
236.831
234.36
230.263
224.227
216.017
205.508
192.707
177.756
160.928
142.614
123.296
103.52
83.8622
64.8963
47.158
31.1126
17.1268
5.44655
-3.81628
-10.6877
-15.3243
-17.9953
-19.0561
-18.9145
-17.994
-16.6976
-15.3753
-14.3
-13.6513
-13.5117
-13.872
-14.6466
-15.6952
-16.8479
-17.931
-18.7908
-19.3114
-19.4268
-19.1256
-18.4481
-17.4782
-16.3302
-15.1328
-14.0132
-13.0822
-12.4215
-12.0764
-12.0519
-12.3141
-12.796
-13.4056
-14.0375
-14.5838
-14.9456
-15.0417
-14.8154
-14.2375
-13.3073
-12.0494
-10.5085
-8.74349
-6.81964
-4.80166
-2.74767
-0.704756
1.29339
3.22652
5.08584
6.87007
8.58043
10.2151
11.7641
13.2052
14.5019
15.604
16.4499
16.9718
17.1027
16.7841
15.9733
14.6507
12.8235
10.5282
7.82906
4.81363
1.58643
-1.73929
-5.04992
-8.239
-11.2129
-13.894
-16.2212
-18.1489
-19.6431
-20.6791
-21.2383
-21.3073
-20.8789
-19.9548
-18.5491
-16.6931
-14.4384
-11.859
-9.04981
-6.12349
-3.20387
-0.417403
2.11638
4.29441
6.03824
7.29999
8.06517
8.35224
8.20904
7.70666
6.93156
5.97705
4.93511
3.88947
2.91074
2.0538
1.35766
0.847506
0.538349
0.439853
0.561585
0.9181
1.53316
2.44245
3.69409
5.34644
7.46304
10.1047
13.3195
17.1318
21.5313
26.4644
31.8284
37.4704
43.1908
48.7518
53.8901
58.3319
61.8113
64.0868
64.9595
64.2876
61.9986
58.0988
52.6768
45.903
38.0236
29.3476
20.2302
11.0502
2.18549
-6.01237
-13.2427
-19.2757
-23.9676
-27.2676
-29.2178
-29.9449
-29.6449
-28.5624
-26.9666
-25.1266
-23.2874
-21.649
-20.349
-19.4493
-18.9243
-18.6495
-18.3875
-17.7715
-16.2833
-13.2319
-7.73476
1.28739
15.0921
35.0616
62.604
99.0014
145.209
201.615
267.785
342.235
422.266
503.93
582.15
651.035
704.376
736.288
741.918
718.14
664.102
581.567
474.934
350.956
218.138
85.9064
-36.3613
-140.316
-219.499
-269.987
-290.72
-283.504
-252.677
-204.505
-146.382
-85.9567
-30.2792
14.9196
45.7406
60.3763
59.1053
44.044
18.7057
-12.5611
-45.1779
-74.9065
-98.3191
-113.121
-118.303
-114.117
-101.901
-83.7935
-62.3698
-40.2715
-19.863
-2.96095
9.33816
16.7205
19.611
19.0384
16.437
13.4153
11.5255
12.063
15.9188
23.4994
34.717
49.0449
65.6246
83.4046
101.29
118.28
133.582
146.682
157.37
165.725
172.062
176.849
180.62
183.883
187.04
190.338
193.836
197.405
200.755
203.476
205.093
205.126
203.148
198.824
191.947
182.456
170.439
156.129
139.883
122.168
103.53
84.5684
65.9043
48.1477
31.8639
17.5396
5.55337
-3.8503
-10.5772
-14.6894
-16.3994
-16.0504
-14.0867
-11.014
-7.35577
-3.60838
-0.200808
2.53753
4.3974
5.29716
5.27662
4.47866
3.12142
1.46462
-0.225672
-1.70977
-2.80093
-3.3831
-3.41848
-2.9449
-2.0642
-0.923794
0.305607
1.45307
2.36844
2.93885
3.09917
2.83582
2.184
1.21953
0.0467779
-1.21548
-2.44828
-3.54523
-4.42253
-5.02545
-5.33097
-5.3467
-5.10649
-4.66333
-4.08056
-3.42233
-2.74454
-2.08742
-1.4709
-0.893565
-0.335659
0.234299
0.850095
1.53724
2.30299
3.12888
3.96704
4.74151
5.35422
5.69542
5.65677
5.14555
4.0977
2.48798
0.335573
-2.2956
-5.30201
-8.55039
-11.8911
-15.1734
-18.2604
-21.0422
-23.4455
-25.4394
-27.0352
-28.2823
-29.2599
-30.0651
-30.7998
-31.5569
-32.4075
-33.3914
-34.5102
-35.7257
-36.9626
-38.1159
-39.0628
-39.6763
-39.8409
-39.4669
-38.5022
-36.9408
-34.8246
-32.2412
-29.3156
-26.1979
-23.0489
-20.0235
-17.2569
-14.8521
-12.8723
-11.3366
-10.2224
-9.47004
-8.99255
-8.68671
-8.44557
-8.17045
-7.78129
-7.22436
-6.4765
-5.54578
-4.46844
-3.30291
-2.12153
-1.00117
-0.0138217
0.781635
1.34572
1.66197
1.73767
1.60184
1.3009
0.892916
0.441373
0.0095923
-0.343308
-0.564427
-0.607118
-0.42965
0.00646151
0.737292
1.79545
3.20657
4.9833
7.11768
9.57295
12.2768
15.1173
17.9438
20.5724
22.7975
24.4075
25.2036
25.0202
23.7427
21.3234
17.7908
13.2534
7.8959
1.96912
-4.22615
-10.3599
-16.0962
-21.1178
-25.1492
-27.9772
-29.4665
-29.5696
-28.3298
-25.8774
-22.4179
-18.2144
-13.5648
-8.77524
-4.13231
0.124706
3.82973
6.91342
9.42399
11.5454
13.6135
16.1296
19.7699
25.3888
34.0089
46.7921
64.9814
89.8057
122.341
163.333
212.98
270.718
335.026
403.3
471.843
536.014
590.537
629.978
649.337
644.687
613.77
556.448
474.937
373.761
259.417
139.781
23.3152
-81.806
-168.558
-231.79
-268.73
-279.204
-265.548
-232.241
-185.303
-131.555
-77.8234
-30.1994
6.57098
29.493
37.498
31.38
13.5226
-12.5368
-42.6363
-72.5439
-98.4656
-117.452
-127.663
-128.473
-120.419
-105.01
-84.4435
-61.258
-37.9873
-16.8445
0.519789
13.1665
20.9136
24.2834
24.3673
22.6334
20.7056
20.1446
22.256
27.9475
37.6465
51.2814
68.3242
87.8812
108.819
129.904
149.946
167.914
183.034
194.841
203.197
208.265
210.458
210.365
208.661
206.02
203.04
200.177
197.707
195.711
194.079
192.541
190.711
188.137
184.36
178.967
171.636
162.174
150.538
136.848
121.381
104.558
86.9156
69.0688
51.6703
35.3618
20.7263
8.24445
-1.74192
-9.05482
-13.6912
-15.8186
-15.7558
-13.9405
-10.8864
-7.1357
-3.21067
0.430022
3.42609
5.53828
6.65726
6.79867
6.08573
4.72245
2.9609
1.06686
-0.712345
-2.17429
-3.17978
-3.66186
-3.62519
-3.13716
-2.31243
-1.29357
-0.230435
0.738969
1.50412
1.99248
2.17421
2.06105
1.70027
1.1648
0.54137
-0.0818878
-0.626557
-1.03269
-1.26429
-1.3112
-1.18757
-0.927462
-0.578383
-0.193905
0.17373
0.480029
0.692998
0.795824
0.787356
0.680571
0.499429
0.274683
0.0392893
-0.175978
-0.346162
-0.45464
-0.494328
-0.467555
-0.384765
-0.262338
-0.119899
0.0224947
0.146928
0.239651
0.292364
0.302686
0.273822
0.213566
0.132836
0.0439643
-0.0410031
-0.11179
-0.160997
-0.184723
-0.182691
-0.157891
-0.115859
-0.063715
-0.00909089
0.0408778
0.0803992
0.105611
0.114861
0.108679
0.089483
0.0610682
0.0279881
-0.00510086
-0.0340353
-0.0556166
-0.0679107
-0.070357
-0.0636935
-0.0497254
-0.0309852
-0.0103371
0.00941921
0.0258932
0.0373612
0.042912
0.0424757
0.0367428
0.0269967
0.0148895
0.00219464
-0.00943027
-0.0186505
-0.0246357
-0.0272705
-0.0275073
-0.028014
-0.0342425
-0.0559234
-0.108795
-0.216154
-0.409652
-0.728729
-1.21821
-1.92386
-2.88613
-4.13272
-5.67099
-7.48137
-9.51309
-11.6832
-13.8796
-15.9677
-17.8012
-19.2345
-20.137
-20.4061
-19.9785
-18.8374
-17.0164
-14.5977
-11.7069
-8.50352
-5.16945
-1.89626
1.12727
3.72569
5.74466
7.05506
7.55377
7.16182
5.82134
3.4933
0.157334
-4.18539
-9.50626
-15.7414
-22.7842
-30.4796
-38.6232
-46.9668
-55.229
-63.113
-70.3264
-76.6042
-81.7286
-85.5463
-87.9789
-89.027
-88.7664
-87.3377
-84.9301
-81.7601
-78.048
-73.993
-69.7481
-65.3961
-60.9268
-56.2159
-51.0046
-44.8825
-37.2747
-27.4374
-14.4689
2.65699
25.0275
53.6911
89.5196
133.037
184.226
242.34
305.747
371.845
437.091
497.162
547.27
582.606
598.878
592.873
562.96
509.451
434.759
343.301
241.151
135.464
33.7566
-56.8775
-130.515
-183.008
-212.38
-218.955
-205.228
-175.476
-135.192
-90.4065
-46.9858
-10.0011
16.7661
31.1281
32.5836
22.203
2.34045
-23.7795
-52.5358
-80.3837
-104.267
-121.927
-132.081
-134.456
-129.705
-119.207
-104.806
-88.5198
-72.2589
-57.5919
-45.581
-36.7015
-30.8472
-27.4118
-25.4297
-23.7503
-21.2222
-16.8599
-9.97512
-0.256866
12.2055
26.9543
43.2426
60.1455
76.6874
91.9654
105.254
116.081
124.257
129.876
133.272
134.951
135.503
135.521
135.518
135.862
136.745
138.167
139.951
141.777
143.233
143.868
143.246
140.994
136.84
130.628
122.335
112.056
99.9907
86.4231
71.6893
56.1537
40.1835
24.13
8.3139
-6.98287
-21.5217
-35.1083
-47.5915
-58.8615
-68.8481
-77.5187
-84.8768
-90.9588
-95.8312
-99.5854
-102.331
-104.187
-105.277
-105.713
-105.598
-105.014
-104.018
-102.65
-100.926
-98.8475
-96.4072
-93.5925
-90.3929
-86.8047
-82.8345
-78.5015
-73.8388
-68.8933
-63.7247
-58.4037
-53.0097
-47.6269
-42.3409
-37.2339
-32.3801
-27.8419
-23.6658
-19.8807
-16.4974
-13.51
-10.8983
-8.63233
-6.67699
-4.99634
-3.55756
-2.33363
-1.3045
-0.456864
0.217323
0.723203
1.06577
1.25252
1.29559
1.21294
1.02849
0.771201
0.473143
0.166979
-0.116847
-0.352784
-0.522342
-0.615479
-0.63102
-0.5761
-0.464718
-0.315621
-0.1498
0.0120659
0.151935
0.256212
0.316887
0.331909
0.30482
0.243766
0.160045
0.0664319
-0.0245211
-0.101972
-0.157922
-0.187889
-0.191076
-0.170072
-0.13017
-0.0784254
-0.0225893
0.0299227
0.0729162
0.102056
0.115206
0.112457
0.0958807
0.0690517
0.0364444
0.00277487
-0.0276152
-0.0512621
-0.0659198
-0.0707117
-0.0660935
-0.0536541
-0.0357945
-0.0153401
0.0048594
0.022291
0.0350577
0.0420514
0.043008
0.0384507
0.0295401
0.017861
0.00517732
-0.00680838
-0.0166625
-0.0233721
-0.0264275
-0.0258329
-0.0220512
-0.0158969
-0.0083965
-0.000636576
0.00637904
0.0118468
0.0152434
0.0163615
0.0153024
0.0124307
0.00830018
0.00356409
-0.00111744
-0.00516127
-0.00812644
-0.00975447
-0.00998256
-0.00893067
-0.00686703
-0.00415864
-0.00121409
0.00157621
0.00390791
0.00566892
0.007157
0.00952878
0.0156232
0.0312675
0.0670647
0.140501
0.278026
0.516625
0.904354
1.49936
2.36711
3.57576
5.18997
7.26356
9.8317
12.9033
16.4544
20.4231
24.7069
29.1627
33.611
37.8429
41.6319
44.749
46.9797
48.1432
48.1095
46.8143
44.2691
40.5638
35.8635
30.397
24.4399
18.2926
12.2572
6.61374
1.59991
-2.60451
-5.88754
-8.20805
-9.59245
-10.1258
-9.93851
-9.19042
-8.0536
-6.69572
-5.26487
-3.87673
-2.60351
-1.46375
-0.410455
0.684727
2.05403
4.06356
7.24928
12.3539
20.3554
32.4742
50.1436
74.9289
108.383
151.836
206.128
271.309
346.347
428.897
515.195
600.129
677.52
740.625
782.815
798.364
783.228
735.717
656.924
550.843
424.132
285.534
145.007
12.6999
-102.126
-192.07
-252.34
-281.189
-279.981
-252.898
-206.335
-148.067
-86.3009
-28.7408
18.2284
50.145
64.8031
62.294
44.7744
16.0097
-19.2321
-55.8509
-89.0617
-114.942
-130.824
-135.493
-129.191
-113.444
-90.7421
-64.1412
-36.8272
-11.712
8.89743
23.522
31.6081
33.5011
30.311
23.698
15.6126
8.02858
2.70053
0.974219
3.66598
11.0178
22.7248
38.0229
55.8202
74.8502
93.8281
111.591
127.205
140.041
149.797
156.489
160.402
162.02
161.942
160.794
159.149
157.47
156.062
155.058
154.421
153.96
153.37
152.268
150.242
146.897
141.894
134.99
126.064
115.143
102.404
88.1771
72.9282
57.2278
41.7108
27.0256
13.7778
2.47621
-6.51602
-13.0162
-17.0405
-18.8013
-18.6847
-17.2092
-14.9705
-12.5792
-10.5982
-9.48659
-9.55825
-10.957
-13.6524
-17.4547
-22.047
-27.0285
-31.9649
-36.4378
-40.0886
-42.6521
-43.9761
-44.0265
-42.8795
-40.7014
-37.7219
-34.2026
-30.4071
-26.5746
-22.9002
-19.5233
-16.5245
-13.9296
-11.7196
-9.84386
-8.23509
-6.82299
-5.54548
-4.35622
-3.22811
-2.15272
-1.13672
-0.195993
0.651074
1.39014
2.01618
2.53672
2.97274
3.35718
3.73125
4.13935
4.62322
5.21619
5.93841
6.7936
7.76786
8.83069
9.93806
11.0372
12.0724
12.9912
13.75
14.3186
14.6827
14.8446
14.8217
14.643
14.3443
13.9629
13.5319
13.0759
12.6072
12.1245
11.6129
11.0459
10.3885
9.60246
8.65066
7.50275
6.13944
4.55578
2.76297
0.788106
-1.32781
-3.53364
-5.7731
-7.9902
-10.1347
-12.1666
-14.0592
-15.8
-17.3905
-18.843
-20.1772
-21.4154
-22.5769
-23.6746
-24.7108
-25.6753
-26.5455
-27.2877
-27.8602
-28.2182
-28.3187
-28.1264
-27.6189
-26.79
-25.6529
-24.2399
-22.6009
-20.7997
-18.9094
-17.0063
-15.1641
-13.4485
-11.9123
-10.5919
-9.50591
-8.6539
-8.01784
-7.56417
-7.2472
-7.01339
-6.80621
-6.57114
-6.2604
-5.83686
-5.27688
-4.5718
-3.72791
-2.76509
-1.71439
-0.61466
0.491177
1.56
2.55212
3.4345
4.18324
4.78541
5.24002
5.5582
5.76264
5.88618
5.96993
6.06066
6.208
6.46137
6.86707
7.46563
8.28969
9.36259
10.6977
12.2983
14.1585
16.2645
18.5961
21.1287
23.8361
26.6922
29.674
32.7632
35.9479
39.2224
42.5853
46.0361
49.5687
53.1638
56.7801
60.3459
63.7523
66.8505
69.4531
71.3421
72.2827
72.044
70.423
67.2715
62.5214
56.2048
48.4664
39.5643
29.8584
19.787
9.83325
0.4847
-7.80947
-14.6784
-19.8622
-23.2339
-24.8077
-24.7329
-23.2742
-20.7809
-17.6483
-14.2758
-11.0259
-8.18846
-5.95199
-4.38275
-3.41073
-2.81911
-2.23416
-1.11307
1.27008
5.83681
13.7079
26.1874
44.7152
70.7766
105.761
150.767
206.37
272.366
347.526
429.413
514.312
597.303
672.535
733.676
774.53
789.749
775.545
730.301
654.981
553.255
431.302
297.298
160.639
30.9921
-82.7024
-173.156
-235.462
-267.549
-270.292
-247.291
-204.349
-148.717
-88.2278
-30.4017
18.3405
53.2895
71.8138
73.4579
59.7809
33.9757
0.334247
-36.366
-71.4723
-100.991
-121.99
-132.832
-133.231
-124.132
-107.468
-85.8068
-61.9691
-38.653
-18.1142
-1.93562
9.094
14.9891
16.4754
14.8185
11.6032
8.49712
7.02831
8.40468
13.3918
22.2581
34.7868
50.3454
67.9975
86.6393
105.141
122.474
137.816
150.616
160.62
167.863
172.621
175.348
176.592
176.913
176.81
176.658
176.676
176.908
177.232
177.391
177.026
175.732
173.108
168.804
162.561
154.242
143.846
131.519
117.54
102.306
86.3064
70.0864
54.2127
39.2316
25.6301
13.7995
4.0056
-3.63117
-9.14439
-12.716
-14.6571
-15.3761
-15.3372
-15.0144
-14.8448
-15.1877
-16.293
-18.2831
-21.1496
-24.7643
-28.9031
-33.2786
-37.5779
-41.4995
-44.7868
-47.2527
-48.7946
-49.3977
-49.128
-48.1166
-46.5378
-44.5846
-42.4442
-40.2775
-38.2033
-36.2909
-34.5585
-32.9801
-31.4964
-30.03
-28.5017
-26.8446
-25.0162
-23.005
-20.8323
-18.5481
-16.2243
-13.9434
-11.7873
-9.82641
-8.11144
-6.66802
-5.49564
-4.57012
-3.84913
-3.27973
-2.80652
-2.37934
-1.95935
-1.52292
-1.06294
-0.587731
-0.117919
0.318173
0.689795
0.969035
1.13538
1.17909
1.10295
0.922522
0.664695
0.365077
0.0644649
-0.195087
-0.374179
-0.439549
-0.366826
-0.142372
0.235828
0.758176
1.4042
2.14391
2.93949
3.74743
4.52083
5.21197
5.77504
6.16902
6.36042
6.32586
6.054
5.54675
4.81947
3.90008
2.82713
1.64697
0.41041
-0.830769
-2.02708
-3.13402
-4.11401
-4.93749
-5.58331
-6.03856
-6.29801
-6.36345
-6.24311
-5.95105
-5.50685
-4.9351
-4.26492
-3.5291
-2.76294
-2.00261
-1.28318
-0.636444
-0.0887513
0.340923
0.642347
0.81471
0.866452
0.814267
0.681334
0.495006
0.284147
0.076413
-0.10428
-0.23983
-0.319359
-0.339787
-0.305482
-0.226996
-0.119005
0.0023228
0.122228
0.230148
0.32202
0.401759
0.481658
0.581614
0.727236
0.947076
1.26935
1.71862
2.31296
3.06203
3.9664
5.01831
6.20373
7.50545
8.90685
10.3956
11.967
13.626
15.3884
17.2805
19.3366
21.5961
24.0987
26.8787
29.9598
33.3492
37.0331
40.9742
45.1098
49.3533
53.5963
57.7121
61.5602
64.9897
67.8441
69.964
71.1924
71.3805
70.3959
68.1345
64.5331
59.5838
53.3468
45.9588
37.6354
28.6656
19.3974
10.2159
1.51481
-6.33426
-13.0127
-18.2811
-21.9985
-24.1316
-24.7544
-24.0366
-22.2237
-19.6106
-16.5115
-13.2283
-10.0198
-7.07308
-4.47598
-2.1914
-0.0311074
2.37013
5.57928
10.3847
17.8041
29.0719
45.5948
68.8661
100.33
141.195
192.206
253.388
323.801
401.341
482.637
563.101
637.141
698.576
741.208
759.513
749.351
708.61
637.663
539.575
419.984
286.672
148.846
16.2249
-101.953
-197.893
-266.035
-303.586
-310.729
-290.484
-248.259
-191.147
-127.062
-63.8448
-8.41845
33.883
59.7606
68.1276
60.0184
38.2618
6.97586
-29.0401
-64.9346
-96.3778
-120.016
-133.763
-136.913
-130.069
-114.924
-93.9366
-69.9343
-45.7278
-23.7597
-5.84104
7.00543
14.5854
17.4636
16.8049
14.1558
11.2002
9.52271
10.4099
14.7102
22.7642
34.4084
49.0423
65.7455
83.4237
100.962
117.365
131.868
144.003
153.622
160.88
166.165
170.023
173.055
175.823
178.765
182.143
186.004
190.189
194.352
198.009
200.604
201.569
200.392
196.667
190.14
180.725
168.52
153.796
136.977
118.614
99.347
79.8648
60.8582
42.9751
26.7764
12.6969
1.01463
-8.16679
-14.9216
-19.4886
-22.243
-23.6551
-24.2399
-24.5047
-24.8989
-25.7723
-27.347
-29.7038
-32.7868
-36.4216
-40.3464
-44.2513
-47.8197
-50.7677
-52.8766
-54.0153
-54.1503
-53.3432
-51.7374
-49.5354
-46.9716
-44.2832
-41.6841
-39.3432
-37.371
-35.8149
-34.6616
-33.8474
-33.2732
-32.8211
-32.3722
-31.8211
-31.0874
-30.1215
-28.9069
-27.4568
-25.808
-24.0122
-22.1271
-20.2078
-18.3002
-16.4368
-14.6358
-12.9022
-11.2319
-9.61661
-8.04923
-6.52837
-5.06158
-3.66643
-2.36943
-1.20304
-0.201198
0.60573
1.19587
1.55982
1.70304
1.64634
1.42444
1.08265
0.672435
0.246119
-0.148239
-0.471388
-0.696197
-0.809428
-0.811836
-0.716682
-0.546956
-0.331729
-0.102139
0.112484
0.287894
0.407285
0.462528
0.454275
0.391034
0.287495
0.162391
0.0362431
-0.070721
-0.140273
-0.157385
-0.110931
0.00607037
0.196532
0.459577
0.790898
1.18312
1.62613
2.10738
2.61227
3.12454
3.62694
4.10203
4.53316
4.90567
5.20804
5.43296
5.57826
5.6474
5.64968
5.59998
5.5183
5.42912
5.36079
5.34528
5.41852
5.62129
6.00068
6.61166
7.51809
8.79224
10.5121
12.7559
15.5935
19.0756
23.222
28.0093
33.3616
39.1443
45.1632
51.1692
56.869
61.9412
66.056
68.8996
70.1975
69.7393
67.3993
63.1532
57.0872
49.3992
40.3907
30.4481
20.017
9.56886
-0.435102
-9.58003
-17.5297
-24.0517
-29.032
-32.4794
-34.5167
-35.3631
-35.3065
-34.6719
-33.7859
-32.9421
-32.3681
-32.1968
-32.4398
-32.9647
-33.4752
-33.4941
-32.3505
-29.1756
-22.9117
-12.3426
3.8468
26.973
58.2154
98.437
147.974
206.419
272.419
343.545
416.264
486.05
547.67
595.62
624.694
630.608
610.61
563.961
492.223
399.288
291.115
175.208
59.8832
-46.5847
-136.822
-205.12
-248.001
-264.522
-256.281
-227.134
-182.666
-129.496
-74.4915
-24.0173
16.7203
44.1433
56.5514
54.1353
38.7705
13.6366
-17.2809
-49.7332
-79.7287
-103.972
-120.173
-127.211
-125.133
-115.023
-98.7504
-78.6554
-57.2072
-36.682
-18.8994
-5.04092
4.43172
9.76108
11.7904
11.7944
11.2707
11.7225
14.459
20.4384
30.1674
43.6656
60.4935
79.8339
100.613
121.641
141.756
159.951
175.47
187.865
197.013
203.09
206.515
207.869
207.803
206.947
205.835
204.843
204.158
203.768
203.487
202.986
201.846
199.621
195.893
190.319
182.677
172.883
161.001
147.239
131.926
115.49
98.4264
81.2613
64.5224
48.7075
34.2579
21.5357
10.8067
2.22845
-4.15472
-8.41061
-10.7105
-11.3145
-10.5499
-8.78719
-6.41117
-3.79385
-1.26839
0.892259
2.49061
3.41251
3.62722
3.18001
2.17847
0.774156
-0.858153
-2.54135
-4.11486
-5.44956
-6.45765
-7.09678
-7.36859
-7.3124
-6.99539
-6.5007
-5.91506
-5.31767
-4.77132
-4.31676
-3.97061
-3.72674
-3.56052
-3.43523
-3.30937
-3.14397
-2.9087
-2.58631
-2.17462
-1.68636
-1.1468
-0.589961
-0.0538742
0.424281
0.81252
1.08738
1.23588
1.25605
1.15613
0.952659
0.667895
0.326912
-0.0452429
-0.426024
-0.797265
-1.14636
-1.46667
-1.75728
-2.02206
-2.26834
-2.50521
-2.74178
-2.98542
-3.24036
-3.50658
-3.77917
-4.04823
-4.29921
-4.51375
-4.67095
-4.74891
-4.72666
-4.58604
-4.31378
-3.90325
-3.35605
-2.68297
-1.90439
-1.04978
-0.156309
0.733332
1.57391
2.32102
2.9345
3.38164
3.63965
3.69737
3.55587
3.22801
2.73717
2.11514
1.3996
0.631317
-0.148584
-0.901091
-1.59134
-2.19011
-2.67477
-3.02978
-3.24671
-3.32399
-3.26626
-3.08328
-2.78823
-2.39538
-1.917
-1.35982
-0.721485
0.012414
0.870033
1.8931
3.13454
4.65385
6.51057
8.75653
11.4278
14.5373
18.0693
21.9764
26.1798
30.5727
35.0262
39.3982
43.5413
47.3124
50.5788
53.2232
55.1456
56.2632
56.5093
55.8328
54.1985
51.5901
48.0151
43.5111
38.1515
32.0503
25.3627
18.2808
11.0254
3.83158
-3.06737
-9.45793
-15.163
-20.055
-24.0645
-27.182
-29.4546
-30.9762
-31.8743
-32.2929
-32.3747
-32.2424
-31.9797
-31.611
-31.0807
-30.229
-28.765
-26.2384
-22.0138
-15.2513
-4.90506
10.2518
31.5641
60.3839
97.909
144.972
201.798
267.753
341.136
419.042
497.366
570.978
634.079
680.737
705.534
704.263
674.56
616.374
532.189
426.941
307.63
182.653
60.9501
-48.9386
-139.768
-206.331
-245.953
-258.676
-247.121
-216.059
-171.751
-121.16
-71.1195
-27.5915
4.93312
23.804
28.3366
19.6923
0.549969
-25.3749
-53.889
-80.8852
-102.84
-117.189
-122.553
-118.785
-106.867
-88.6731
-66.6419
-43.4135
-21.4729
-2.84908
11.0992
19.7927
23.4309
22.8929
19.5608
15.096
11.2007
9.3952
10.8388
16.2115
25.666
38.8492
54.984
72.9955
91.6619
109.769
126.247
140.281
151.374
159.37
164.43
166.976
167.605
166.998
165.818
164.632
163.846
163.665
164.086
164.912
165.788
166.254
165.805
163.95
160.267
154.449
146.333
135.921
123.382
109.042
93.3617
76.9051
60.2983
44.1828
29.1654
15.7704
4.39603
-4.71774
-11.5086
-16.0939
-18.7552
-19.9062
-20.0469
-19.7104
-19.4063
-19.5699
-20.5204
-22.4352
-25.3411
-29.1233
-33.5498
-38.308
-43.0474
-47.4228
-51.1332
-53.9517
-55.7432
-56.4691
-56.18
-54.998
-53.0926
-50.6534
-47.8638
-44.8801
-41.8161
-38.7375
-35.6635
-32.5762
-29.4352
-26.1944
-22.8184
-19.2969
-15.6529
-11.9462
-8.2702
-4.74312
-1.49557
1.34437
3.66583
5.388
6.46931
6.91199
6.76154
6.10147
5.04415
3.71905
2.26002
0.79309
-0.57377
-1.75793
-2.70586
-3.39326
-3.82208
-4.01498
-4.0085
-3.84583
-3.57017
-3.21961
-2.82388
-2.40316
-1.96873
-1.52519
-1.0734
-0.613685
-0.14862
0.315151
0.76627
1.18927
1.56622
1.87912
2.11242
2.25535
2.30352
2.25954
2.13266
1.93746
1.6919
1.4151
1.12529
0.83811
0.565778
0.316902
0.0970863
-0.0900479
-0.241709
-0.355035
-0.426738
-0.453459
-0.432816
-0.364943
-0.254169
-0.110405
0.0501702
0.205444
0.328838
0.391806
0.367012
0.231707
-0.0292769
-0.421373
-0.939241
-1.56684
-2.27839
-3.0397
-3.80967
-4.54141
-5.18313
-5.67896
-5.96996
-5.99594
-5.69841
-5.02471
-3.93332
-2.39964
-0.421576
1.97623
4.74037
7.78963
11.0193
14.3087
17.5305
20.5613
23.2914
25.6312
27.5144
28.8964
29.7485
30.0486
29.7713
28.879
27.3154
25.0058
21.8628
17.7989
12.7441
6.66574
-0.411848
-8.39242
-17.1001
-26.2816
-35.618
-44.7473
-53.292
-60.8915
-67.2314
-72.0692
-75.2501
-76.7142
-76.4934
-74.6998
-71.5092
-67.1402
-61.8332
-55.8287
-49.3449
-42.5541
-35.5543
-28.336
-20.7424
-12.4272
-2.81445
8.92946
23.9
43.4209
68.9614
101.993
143.79
195.176
256.244
326.093
402.613
482.392
560.784
632.167
690.403
729.458
744.12
730.712
687.695
616.064
519.455
403.92
277.408
148.976
27.8603
-77.5043
-160.36
-216.309
-243.708
-243.736
-220.135
-178.666
-126.365
-70.6933
-18.6894
23.7679
52.513
65.4047
62.3794
45.2579
17.3507
-17.0742
-53.3862
-87.1713
-114.729
-133.435
-141.937
-140.184
-129.287
-111.262
-88.6902
-64.3419
-40.8223
-20.2744
-4.17073
6.78887
12.6735
14.2231
12.6787
9.56936
6.48841
4.88573
5.90149
10.256
18.2029
29.5439
43.696
59.7973
76.8334
93.767
109.655
123.742
135.516
144.736
151.42
155.804
158.282
159.337
159.466
159.114
158.627
158.211
157.925
157.686
157.294
156.466
154.88
152.222
148.224
142.697
135.554
126.82
116.627
105.205
92.8616
79.9583
66.8837
54.0282
41.7597
30.4022
20.2178
11.3941
4.03576
-1.83794
-6.28955
-9.45453
-11.5269
-12.7408
-13.3492
-13.602
-13.7252
-13.9031
-14.2655
-14.8807
-15.7549
-16.8378
-18.033
-19.213
-20.2354
-20.9594
-21.2615
-21.0471
-20.2593
-18.8834
-16.9467
-14.515
-11.6864
-8.58197
-5.33605
-2.08554
1.04009
3.92752
6.48645
8.65409
10.3968
11.7094
12.6112
13.1411
13.3503
13.2953
13.0309
12.605
12.0548
11.4052
10.6701
9.8544
8.95829
7.98114
6.92547
5.79977
4.61993
3.40904
2.1958
1.01187
-0.111334
-1.14574
-2.06919
-2.86703
-3.53267
-4.06712
-4.47774
-4.77657
-4.97868
-5.10067
-5.15959
-5.17245
-5.15593
-5.12642
-5.10011
-5.09288
-5.11995
-5.19522
-5.33025
-5.53314
-5.80732
-6.1506
-6.55451
-7.00431
-7.47952
-7.95515
-8.40339
-8.7957
-9.10496
-9.30751
-9.38483
-9.32469
-9.1217
-8.77733
-8.29942
-7.7014
-7.00134
-6.22094
-5.38461
-4.51849
-3.64959
-2.80483
-2.00995
-1.2884
-0.660103
-0.14029
0.261548
0.542434
0.706322
0.764167
0.733713
0.639178
0.511035
0.386125
0.30825
0.329277
0.510571
0.924342
1.65424
2.79438
4.44595
6.71088
9.68225
13.4322
17.9983
23.3701
29.4785
36.1891
43.3019
50.5577
57.6509
64.2482
70.0102
74.6144
77.7769
79.2711
78.9412
76.7116
72.5904
66.6692
59.1188
50.1818
40.1616
29.4091
18.3064
7.24797
-3.37899
-13.215
-21.9474
-29.3262
-35.1766
-39.406
-42.0054
-43.0451
-42.6647
-41.0598
-38.4649
-35.1341
-31.3219
-27.2632
-23.1529
-19.1246
-15.2258
-11.3889
-7.39718
-2.84754
2.88566
10.6776
21.6599
37.1941
58.7989
88.0222
126.252
174.471
232.984
301.129
377.05
457.554
538.142
613.213
676.493
721.641
742.968
736.197
699.13
632.118
538.257
423.239
294.884
162.376
35.322
-77.2734
-167.954
-231.582
-265.82
-271.281
-251.324
-211.547
-159.04
-101.509
-46.3827
-0.00608925
32.9742
49.9851
50.6262
36.5057
10.8532
-22.024
-57.3625
-90.5593
-117.708
-135.999
-143.945
-141.425
-129.559
-110.435
-86.7578
-61.4502
-37.2695
-16.4852
-0.64945
9.52092
14.1475
14.0902
10.7663
5.92129
1.38145
-1.17695
-0.417902
4.52394
13.9814
27.761
45.2099
65.3268
86.9025
108.666
129.425
148.178
164.194
177.056
186.659
193.184
197.029
198.743
198.935
198.202
197.057
195.879
194.886
194.125
193.484
192.72
191.498
189.439
186.167
181.355
174.762
166.261
155.852
143.663
129.945
115.048
99.3999
83.4729
67.7543
52.7157
38.7851
26.323
15.6039
6.80242
-0.0132667
-4.88209
-7.94388
-9.42669
-9.62833
-8.89309
-7.58543
-6.06242
-4.64753
-3.60773
-3.1363
-3.34275
-4.25073
-5.80402
-7.87965
-10.3065
-12.8872
-15.421
-17.7248
-19.6502
-21.0955
-22.0116
-22.401
-22.3119
-21.8275
-21.0534
-20.1033
-19.0861
-18.0952
-17.2008
-16.4456
-15.8448
-15.3888
-15.049
-14.7846
-14.5506
-14.3046
-14.0135
-13.6567
-13.2277
-12.7338
-12.192
-11.6255
-11.0577
-10.5077
-9.98608
-9.49304
-9.01789
-8.54107
-8.03762
-7.48181
-6.85199
-6.13507
-5.32975
-4.44816
-3.51541
-2.56743
-1.64711
-0.799466
-0.0664161
0.518079
0.931911
1.16725
1.23123
1.14487
0.94044
0.657616
0.339012
0.0256127
-0.247322
-0.45342
-0.577133
-0.614282
-0.57128
-0.463212
-0.311111
-0.1388
0.0302837
0.175946
0.283492
0.34521
0.36101
0.338234
0.290733
0.237368
0.200146
0.202192
0.265737
0.410302
0.651163
0.998207
1.45526
2.01999
2.68446
3.43651
4.2622
5.1491
6.09081
7.09197
8.1734
9.37623
10.7639
12.4209
14.4473
16.9487
20.0232
23.7447
28.1473
33.2113
38.8534
44.9238
51.2096
57.4449
63.3267
68.5343
72.7509
75.6853
77.0928
76.7931
74.686
70.7624
65.1098
57.9125
49.4441
40.053
30.1407
20.1342
10.4553
1.48809
-6.45072
-13.1356
-18.4476
-22.3793
-25.0282
-26.5797
-27.2816
-27.4138
-27.2559
-27.0573
-27.0124
-27.2427
-27.786
-28.5898
-29.5071
-30.2885
-30.5694
-29.847
-27.4534
-22.5257
-13.9883
-0.557026
19.2158
46.8442
83.7482
131.032
189.213
257.934
335.693
419.661
505.633
588.165
660.923
717.245
750.851
756.627
731.375
674.403
587.85
476.683
348.333
212.007
77.7508
-44.6074
-146.512
-221.581
-266.243
-280.036
-265.53
-227.91
-174.258
-112.663
-51.2626
2.66563
43.4473
67.5143
73.6246
62.791
37.9519
3.44415
-35.6434
-74.1448
-107.439
-131.946
-145.453
-147.24
-138.015
-119.68
-94.9805
-67.0787
-39.1248
-13.8709
6.62702
21.1898
29.5694
32.3809
30.9346
26.997
22.5187
19.3664
19.0902
22.7531
30.836
43.2239
59.2661
77.895
97.7864
117.534
135.819
151.552
163.978
172.724
177.808
179.591
178.698
175.92
172.094
168.007
164.298
161.401
159.512
158.583
158.352
158.392
158.171
157.12
154.706
150.483
144.144
135.547
124.733
111.92
97.4875
81.9468
65.9022
50.0038
34.8979
21.1784
9.34112
-0.252379
-7.40093
-12.0759
-14.4189
-14.7245
-13.4103
-10.9765
-7.95837
-4.87822
-2.19915
-0.287167
0.615695
0.404505
-0.889863
-3.11566
-6.0265
-9.31538
-12.6524
-15.7218
-18.2543
-20.0519
-21.0028
-21.0855
-20.3631
-18.9692
-17.0871
-14.9259
-12.6967
-10.5898
-8.75709
-7.29996
-6.26375
-5.63859
-5.36614
-5.35069
-5.4733
-5.60694
-5.63101
-5.4437
-4.97104
-4.17203
-3.03956
-1.59773
0.104033
1.99879
4.01082
6.06403
8.08905
10.0283
11.8385
13.4905
14.9668
16.2575
17.3554
18.2511
18.9295
19.3677
19.5356
19.3985
18.9218
18.0768
16.8466
15.2317
13.2535
10.9553
8.40154
5.6732
2.86223
0.064082
-2.62996
-5.14
-7.4033
-9.37811
-11.0452
-12.4067
-13.4838
-14.311
-14.9314
-15.3903
-15.7295
-15.9827
-16.172
-16.3065
-16.3818
-16.3821
-16.2823
-16.0523
-15.6608
-15.0795
-14.2861
-13.267
-12.0181
-10.5448
-8.85938
-6.97863
-4.91929
-2.69389
-0.306764
2.24868
4.99083
7.94827
11.1556
14.6468
18.4471
22.5644
26.9811
31.649
36.4866
41.3798
46.1865
50.7425
54.8693
58.3811
61.0918
62.8212
63.401
62.6813
60.5396
56.8909
51.7002
44.9949
36.8759
27.5247
17.2036
6.24868
-4.94683
-15.9567
-26.3523
-35.7356
-43.7718
-50.2169
-54.9375
-57.919
-59.2637
-59.1758
-57.9374
-55.8779
-53.3384
-50.6364
-48.0314
-45.6935
-43.6735
-41.8743
-40.0209
-37.629
-33.9748
-28.0719
-18.6657
-4.25826
16.8213
46.2867
85.6997
136.211
198.261
271.263
353.345
441.177
529.983
613.752
685.677
738.801
766.801
764.806
730.141
662.864
566.008
445.462
309.497
167.968
31.3064
-90.5839
-189.372
-259.163
-297.06
-303.376
-281.455
-237.165
-178.114
-112.715
-49.2105
5.22108
45.1678
67.4355
71.2026
57.8878
30.7664
-5.59562
-46.0067
-85.3252
-119.062
-143.842
-157.693
-160.12
-152.009
-135.359
-112.911
-87.7243
-62.7512
-40.4765
-22.6467
-10.1211
-2.85047
0.0276877
-0.0018759
-1.08483
-1.27538
1.19726
7.706
19.0705
35.4823
56.5133
81.199
108.18
135.88
162.694
187.171
208.149
224.865
236.988
244.617
248.219
248.53
246.447
242.897
238.73
234.625
231.032
228.146
225.916
224.084
222.246
219.921
216.626
211.942
205.56
197.315
187.194
175.328
161.965
147.439
132.13
116.429
100.71
85.3081
70.506
56.5335
43.5675
31.738
21.1338
11.8081
3.78137
-2.95659
-8.44696
-12.7616
-16.0024
-18.2977
-19.7975
-20.6649
-21.0662
-21.1595
-21.0838
-20.9495
-20.8326
-20.7712
-20.7675
-20.7932
-20.7977
-20.7186
-20.4926
-20.0659
-19.4015
-18.4849
-17.3252
-15.9538
-14.4201
-12.7854
-11.1156
-9.47479
-7.91867
-6.49048
-5.21835
-4.1147
-3.17747
-2.39261
-1.73762
-1.18538
-0.707951
-0.279959
0.118767
0.5014
0.873287
1.23209
1.56887
1.86992
2.11931
2.30173
2.40537
2.42449
2.36107
2.22552
2.03586
1.81576
1.59142
1.38785
1.22526
1.11608
1.06333
1.0606
1.09384
1.14449
1.19352
1.22553
1.23206
1.21351
1.17911
1.14511
1.13128
1.15648
1.23407
1.36802
1.55034
1.76041
1.96615
2.12705
2.1983
2.13563
1.9001
1.46228
0.805569
-0.0716437
-1.15483
-2.41303
-3.79925
-5.25109
-6.69159
-8.03011
-9.1634
-9.97718
-10.3489
-10.1522
-9.26376
-7.57241
-4.99043
-1.46587
3.00556
8.3705
14.5118
21.2472
28.3345
35.4817
42.3643
48.6454
53.9986
58.1311
60.8033
61.8451
61.1655
58.7567
54.6923
49.1206
42.2546
34.3594
25.7381
16.7163
7.6272
-1.2054
-9.4822
-16.9438
-23.3843
-28.6618
-32.706
-35.5207
-37.1811
-37.8256
-37.6429
-36.8551
-35.6976
-34.3994
-33.1634
-32.1487
-31.4554
-31.1095
-31.0461
-31.0884
-30.9192
-30.0456
-27.7598
-23.1031
-14.8469
-1.50387
18.6105
47.2537
86.0588
136.268
198.416
272.002
355.2
444.684
535.612
621.839
696.364
751.99
782.137
781.689
747.777
680.338
582.378
459.856
321.198
176.476
36.3679
-88.9832
-191.047
-263.794
-304.272
-312.814
-292.851
-250.376
-193.134
-129.651
-68.2387
-16.0785
21.4873
41.401
43.031
28.0162
-0.14313
-36.6776
-76.2374
-113.585
-144.209
-164.792
-173.485
-169.987
-155.424
-132.066
-102.938
-71.3752
-40.5887
-13.2848
8.6118
24.1115
33.1837
36.6599
36.0394
33.2329
30.2804
29.0808
31.1653
37.5384
48.5978
64.136
83.4141
105.292
128.393
151.279
172.616
191.308
206.592
218.085
225.774
229.977
231.26
230.335
227.96
224.836
221.527
218.403
215.618
213.108
210.629
207.801
204.177
199.305
192.793
184.361
173.874
161.362
147.016
131.172
114.28
96.8651
79.4885
62.7024
47.0139
32.8516
20.5417
10.2908
2.17925
-3.83754
-7.91857
-10.3191
-11.3662
-11.4293
-10.8897
-10.1093
-9.40364
-9.02024
-9.12424
-9.79295
-11.019
-12.7213
-14.7628
-16.9712
-19.1625
-21.1623
-22.8243
-24.0434
-24.7634
-24.9776
-24.7243
-24.0778
-23.1363
-22.0083
-20.7995
-19.6019
-18.4856
-17.4931
-16.6394
-15.9133
-15.2825
-14.7013
-14.1175
-13.4811
-12.7508
-11.8995
-10.9173
-9.81215
-8.60888
-7.34544
-6.0684
-4.82752
-3.67046
-2.63806
-1.76078
-1.05655
-0.530067
-0.173523
0.0314977
0.111323
0.0970072
0.0210711
-0.0855248
-0.195885
-0.288987
-0.350685
-0.373919
-0.358175
-0.308354
-0.233194
-0.143423
-0.049799
0.0388231
0.117313
0.185885
0.251443
0.328555
0.439902
0.616031
0.894248
1.31654
1.92662
2.76627
3.87151
5.26921
6.97469
8.99104
11.3104
13.9175
16.7939
19.9242
23.3011
26.9287
30.8236
35.0125
39.5261
44.3902
49.6146
55.1823
61.0398
67.0909
73.1944
79.1672
84.7914
89.8249
94.0147
97.1108
98.881
99.1252
97.6892
94.477
89.4633
82.7018
74.3321
64.58
53.7534
42.23
30.4383
18.8324
7.86155
-2.06178
-10.5934
-17.484
-22.5987
-25.9266
-27.579
-27.7769
-26.8278
-25.095
-22.962
-20.7954
-18.9085
-17.5299
-16.7743
-16.6176
-16.8729
-17.1645
-16.9018
-15.2529
-11.1253
-3.16364
10.2217
30.781
60.2942
100.375
152.215
216.286
292.03
377.591
469.64
563.363
652.645
730.486
789.63
823.341
826.256
795.167
729.628
632.273
508.771
367.395
218.259
72.2891
-59.9223
-169.242
-248.95
-295.405
-308.334
-290.725
-248.348
-188.969
-121.38
-54.361
4.28862
48.5344
74.6321
81.3422
69.8351
43.3212
6.47587
-35.2565
-76.3825
-112.016
-138.397
-153.222
-155.768
-146.811
-128.369
-103.32
-74.9561
-46.5322
-20.8651
-0.0321066
14.8076
23.456
26.5934
25.5932
22.2679
18.5851
16.394
17.1941
21.9726
31.1222
44.4433
61.2194
80.3498
100.517
120.364
138.656
154.415
167.004
176.161
181.986
184.883
185.471
184.478
182.635
180.579
178.782
177.508
176.798
176.488
176.253
175.66
174.236
171.532
167.173
160.905
152.611
142.325
130.219
116.583
101.794
86.2834
70.4976
54.8667
39.7741
25.5355
12.3852
0.471664
-10.1386
-19.4508
-27.5262
-34.4642
-40.3841
-45.4086
-49.6501
-53.2023
-56.1352
-58.4944
-60.3042
-61.5732
-62.3001
-62.4808
-62.1143
-61.2069
-59.7754
-57.8473
-55.4602
-52.6589
-49.4929
-46.0123
-42.2649
-38.2936
-34.1345
-29.817
-25.3636
-20.7922
-16.118
-11.3563
-6.52595
-1.6514
3.23513
8.09318
12.8747
17.5261
21.9911
26.2145
30.1452
33.7396
36.9632
39.7906
42.2052
44.1963
45.7574
46.8823
47.5641
47.793
47.5567
46.8417
45.6354
43.9292
41.7226
39.026
35.8644
32.2795
28.3305
24.0933
19.6582
15.1258
10.602
6.19186
1.99383
-1.905
-5.43263
-8.53385
-11.17
-13.3169
-14.9619
-16.0998
-16.7292
-16.8496
-16.4598
-15.5578
-14.1434
-12.222
-9.8105
-6.94426
-3.68388
-0.12152
3.61462
7.35859
10.9083
14.031
16.4734
17.9755
18.2894
17.1997
14.5468
10.2478
4.31497
-3.13357
-11.8712
-21.5709
-31.8242
-42.1694
-52.1258
-61.2329
-69.0863
-75.3706
-79.8823
-82.5423
-83.3963
-82.6028
-80.4118
-77.1355
-73.1152
-68.6878
-64.1547
-59.7561
-55.65
-51.8963
-48.444
-45.1179
-41.6027
-37.4242
-31.927
-24.2565
-13.3506
2.04455
23.3233
51.9213
89.1606
136.042
192.993
259.608
334.405
414.668
496.408
574.495
642.991
695.659
726.621
731.08
706.015
650.736
567.197
460.016
336.161
204.327
74.0812
-45.1276
-144.963
-219.074
-263.735
-278.171
-264.541
-227.585
-173.984
-111.537
-48.2434
8.57038
53.0012
81.0983
91.1301
83.5758
60.8639
26.9093
-13.4776
-55.2296
-93.6286
-124.81
-146.113
-156.258
-155.337
-144.643
-126.375
-103.267
-78.194
-53.7993
-32.198
-14.7737
-2.08991
6.08623
10.6639
13.0351
14.8406
17.7271
23.1272
32.0861
45.1517
62.3358
83.143
106.659
131.68
156.869
180.907
202.641
221.184
235.992
246.882
254.014
257.831
258.98
258.203
256.248
253.766
251.249
248.982
247.026
245.233
243.286
240.748
237.134
231.97
224.857
215.515
203.814
189.783
173.607
155.603
136.191
115.858
95.1176
74.4763
54.4023
35.3028
17.5085
1.26558
-13.2662
-26.0095
-36.962
-46.1863
-53.7978
-59.9522
-64.8329
-68.6384
-71.5713
-73.8273
-75.5864
-77.005
-78.2104
-79.2962
-80.3215
-81.3103
-82.2548
-83.12
-83.8494
-84.3733
-84.6161
-84.504
-83.9713
-82.9646
-81.4451
-79.3884
-76.7828
-73.6273
-69.9292
-65.7035
-60.9738
-55.7746
-50.1552
-44.1835
-37.948
-31.5587
-25.1435
-18.8416
-12.7945
-7.13305
-1.96603
2.63187
6.62825
10.037
12.9168
15.3645
17.5031
19.4672
21.3858
23.3673
25.4861
27.775
30.2216
32.7716
35.337
37.8079
40.0672
42.0056
43.5352
44.6004
45.1848
45.3131
45.0491
44.4893
43.7531
42.9714
42.2736
41.7739
41.5591
41.6762
42.1233
42.8421
43.7149
44.566
45.1691
45.2608
44.5606
42.7957
39.7299
35.1926
29.1047
21.4981
12.5246
2.45366
-8.34379
-19.4224
-30.2993
-40.4957
-49.5795
-57.2026
-63.1311
-67.2616
-69.6257
-70.3799
-69.7834
-68.1672
-65.8971
-63.3357
-60.8068
-58.5646
-56.7702
-55.4741
-54.6026
-53.9467
-53.1494
-51.689
-48.8618
-43.765
-35.29
-22.1369
-2.86182
24.0283
59.9281
105.931
162.58
229.607
305.68
388.224
473.364
556.032
630.26
689.678
728.155
740.526
723.3
675.255
597.801
495.052
373.57
241.793
109.216
-14.5813
-120.932
-202.985
-256.388
-279.674
-274.315
-244.432
-196.214
-137.141
-75.0847
-17.4368
29.6654
61.9075
77.1183
75.317
58.5042
30.2414
-4.91469
-42.0423
-76.4677
-104.291
-122.768
-130.513
-127.525
-115.035
-95.2257
-70.8657
-44.9053
-20.0978
1.31639
17.8286
28.7664
34.2839
35.2509
33.0651
29.4196
26.0595
24.5576
26.1364
31.5505
41.0392
54.3447
70.7874
89.3814
108.973
128.383
146.532
162.548
175.828
186.065
193.246
197.602
199.554
199.627
198.374
196.304
193.815
191.161
188.425
185.531
182.258
178.287
173.246
166.771
158.55
148.383
136.208
122.129
106.42
89.5071
71.9398
54.3424
37.3559
21.5775
7.5026
-4.52209
-14.3278
-21.9328
-27.53
-31.4543
-34.1359
-36.0446
-37.6336
-39.2891
-41.2926
-43.7989
-46.8324
-50.2992
-54.0142
-57.7364
-61.2082
-64.1934
-66.5078
-68.0409
-68.765
-68.7324
-68.0626
-66.9214
-65.4948
-63.9636
-62.479
-61.1449
-60.0073
-59.0511
-58.2062
-57.3591
-56.3699
-55.0914
-53.3884
-51.1546
-48.3252
-44.8846
-40.8676
-36.356
-31.4691
-26.3519
-21.1602
-16.0465
-11.1468
-6.5698
-2.39026
1.35393
4.66064
7.55885
10.1015
12.3564
14.3971
16.2945
18.1093
19.8883
21.6631
23.4516
25.2629
27.1034
28.9833
30.9224
32.9527
35.1179
37.4683
40.0524
42.9058
46.0385
49.4239
52.9898
56.6144
60.1269
63.314
65.9316
67.7213
68.4297
67.8307
65.7471
62.0709
56.7801
49.9485
41.749
32.4471
22.3862
11.9646
1.60631
-8.2713
-17.2903
-25.1419
-31.6092
-36.5826
-40.0641
-42.1617
-43.0739
-43.0666
-42.4443
-41.5186
-40.5774
-39.8553
-39.5072
-39.5856
-40.0194
-40.5933
-40.9269
-40.4521
-38.393
-33.7509
-25.3053
-11.6409
8.78709
37.5384
76.0166
125.246
185.61
256.575
336.451
422.231
509.565
592.917
665.919
721.925
754.705
759.205
732.277
673.243
584.228
470.158
338.417
198.193
59.5713
-67.505
-174.271
-254.051
-302.915
-320.02
-307.578
-270.484
-215.646
-151.127
-85.1905
-25.3954
22.1747
53.4517
66.6486
62.2379
42.6699
11.8848
-25.3016
-63.8552
-99.1378
-127.41
-146.172
-154.317
-152.099
-140.938
-123.105
-101.335
-78.4279
-56.8865
-38.6313
-24.822
-15.7945
-11.1105
-9.70112
-10.0766
-10.5683
-9.56966
-5.74543
1.81392
13.5068
29.2076
48.3207
69.8871
92.7258
115.587
137.298
156.884
173.65
187.225
197.553
204.858
209.574
212.261
213.515
213.889
213.83
213.629
213.41
213.125
212.584
211.489
209.479
206.183
201.262
194.45
185.581
174.607
161.603
146.758
130.362
112.782
94.4369
75.767
57.2114
39.1833
22.0527
6.13202
-8.3319
-21.163
-32.2565
-41.5766
-49.1514
-55.0651
-59.4489
-62.4695
-64.3178
-65.1963
-65.3078
-64.8446
-63.9797
-62.8596
-61.6006
-60.2861
-58.9677
-57.6679
-56.385
-55.0991
-53.7791
-52.3901
-50.8996
-49.2829
-47.5266
-45.6292
-43.6005
-41.4574
-39.2194
-36.9026
-34.5146
-32.0516
-29.4972
-26.8254
-24.0051
-21.0081
-17.8166
-14.4304
-10.8717
-7.18748
-3.44692
0.263427
3.84766
7.20981
10.2632
12.9387
15.1902
16.998
18.3684
19.3309
19.9332
20.2344
20.298
20.1851
19.9481
19.6267
19.2452
18.8124
18.323
17.761
17.1042
16.3296
15.4177
14.3576
13.1495
11.806
10.3519
8.82213
7.25878
5.70765
4.21478
2.8237
1.57367
0.49899
-0.370686
-1.00943
-1.39382
-1.50197
-1.31312
-0.80825
0.0281693
1.20503
2.72023
4.55519
6.66878
8.99119
11.4186
13.8097
15.9849
17.7299
18.8029
18.9485
17.9142
15.4729
11.4456
5.72427
-1.70855
-10.7666
-21.2551
-32.8752
-45.239
-57.8917
-70.3411
-82.0902
-92.6695
-101.667
-108.757
-113.713
-116.429
-116.918
-115.309
-111.839
-106.83
-100.668
-93.7716
-86.5603
-79.4209
-72.6723
-66.5303
-61.0709
-56.1936
-51.5832
-46.6753
-40.6286
-32.3128
-20.3227
-3.03121
21.3073
54.395
97.6693
152.031
217.547
293.169
376.514
463.766
549.76
628.263
692.477
735.713
752.176
737.746
690.651
611.904
505.434
377.86
237.917
95.6077
-38.8357
-156.022
-248.384
-310.942
-341.751
-341.99
-315.681
-269.1
-209.957
-146.455
-86.3555
-36.1551
-0.473177
18.2968
20.047
6.74138
-18.0229
-49.6081
-82.9963
-113.432
-136.973
-150.884
-153.85
-145.994
-128.719
-104.407
-76.0336
-46.7469
-19.4673
3.44259
20.4086
30.7553
34.6963
33.2178
27.88
20.5679
13.229
7.62838
5.15083
6.66891
12.486
22.3543
35.5574
51.0417
67.5748
83.9095
98.9321
111.779
121.908
129.125
133.562
135.618
135.869
134.973
133.564
132.17
131.148
130.649
130.607
130.768
130.729
130.001
128.075
124.494
118.907
111.126
101.143
89.1478
75.5046
60.7191
45.386
30.1267
15.5266
2.07787
-9.86477
-20.1089
-28.6296
-35.5536
-41.1272
-45.6719
-49.5356
-53.0444
-56.4626
-59.9647
-63.6216
-67.4019
-71.1868
-74.7953
-78.0153
-80.6363
-82.4795
-83.4211
-83.4066
-82.455
-80.6537
-78.1441
-75.1028
-71.7191
-68.1734
-64.6191
-61.1695
-57.8918
-54.8071
-51.8976
-49.1169
-46.4043
-43.6986
-40.9507
-38.1327
-35.2438
-32.3099
-29.38
-26.5188
-23.7964
-21.2778
-19.0129
-17.029
-15.3266
-13.8794
-12.6376
-11.5357
-10.5019
-9.46815
-8.38037
-7.20592
-5.93809
-4.59685
-3.22572
-1.88546
-0.645377
0.426346
1.27196
1.85191
2.14997
2.17528
1.96103
1.56023
1.03923
0.469877
-0.0785155
-0.546493
-0.890113
-1.0844
-1.12432
-1.02339
-0.810157
-0.523322
-0.20608
0.099513
0.357467
0.541563
0.637486
0.643299
0.56835
0.430913
0.254981
0.0666906
-0.109141
-0.251947
-0.347507
-0.389032
-0.377209
-0.319316
-0.227601
-0.117223
-0.00404452
0.0974308
0.175724
0.223498
0.23803
0.221062
0.178103
0.117338
0.0483111
-0.0194155
-0.0774646
-0.11957
-0.142137
-0.144413
-0.128274
-0.0977141
-0.0581129
-0.0154151
0.0246783
0.0574007
0.07942
0.0891047
0.0865483
0.0733741
0.0523684
0.0270061
0.000941144
-0.0224729
-0.040572
-0.0516442
-0.055043
-0.051156
-0.0412461
-0.0271998
-0.0112234
0.00446829
0.0179316
0.0277095
0.0329633
0.0335125
0.0297877
0.0227113
0.0135292
0.00362014
-0.0056922
-0.0132998
-0.0184266
-0.0206912
-0.0201125
-0.017063
-0.0121711
-0.0061482
0.000543923
0.00837271
0.0200439
0.0427272
0.0913218
0.192538
0.389118
0.74311
1.33693
2.27102
3.65742
5.60916
8.2263
11.58
15.697
20.5461
26.0296
31.9806
38.1678
44.3067
50.0779
55.1488
59.1988
61.9445
63.1623
62.7086
60.5335
56.6883
51.3254
44.6907
37.1082
28.958
20.6497
12.5925
5.16568
-1.30865
-6.58731
-10.5209
-13.0598
-14.2518
-14.2305
-13.1981
-11.4014
-9.1076
-6.57894
-4.05067
-1.71391
0.295783
1.90409
3.09912
3.93091
4.51241
5.02566
5.73612
7.01634
9.37798
13.5079
20.3003
30.8744
46.5639
68.8639
99.3249
139.384
190.14
252.077
324.781
406.672
494.82
584.9
671.324
747.592
806.839
842.547
849.335
823.716
764.714
674.227
557.06
420.609
274.206
128.206
-7.07281
-122.429
-210.723
-267.59
-291.805
-285.298
-252.793
-201.151
-138.498
-73.2657
-13.2507
35.1834
67.6808
82.1905
78.9724
60.333
30.1472
-6.75862
-45.2763
-80.651
-109.01
-127.729
-135.612
-132.873
-120.955
-102.209
-79.5034
-55.8046
-33.7969
-15.5752
-2.44664
5.14745
7.59158
5.95593
1.78427
-3.15556
-7.12321
-8.62757
-6.59409
-0.462645
9.78876
23.6893
40.3769
58.7362
77.5536
95.6671
112.092
126.115
137.338
145.686
151.371
154.824
156.613
157.35
157.608
157.843
158.356
159.26
160.487
161.81
162.883
163.292
162.608
160.441
156.476
150.514
142.48
132.436
120.568
107.166
92.6021
77.296
61.6887
46.2114
31.2618
17.1836
4.25269
-7.33173
-17.4504
-26.0622
-33.1982
-38.9514
-43.4644
-46.9143
-49.4975
-51.4145
-52.8553
-53.9882
-54.9502
-55.8408
-56.7199
-57.6078
-58.4884
-59.3158
-60.0218
-60.5251
-60.742
-60.5957
-60.0256
-58.9944
-57.4933
-55.5431
-53.1931
-50.5161
-47.6013
-44.5443
-41.438
-38.3621
-35.3765
-32.515
-29.7847
-27.1672
-24.6241
-22.1048
-19.5565
-16.9335
-14.2062
-11.3679
-8.43799
-5.46222
-2.50882
0.338062
2.98722
5.35022
7.351
8.93414
10.0707
10.7614
11.0361
10.9505
10.5809
10.0152
9.34513
8.65693
8.02332
7.4974
7.10865
6.86168
6.73755
6.69748
6.68832
6.64922
6.51866
6.24118
5.77319
5.08736
4.17532
3.04859
1.7376
0.289178
-1.23739
-2.77529
-4.25557
-5.61266
-6.7894
-7.74128
-8.43952
-8.87272
-9.04717
-8.98573
-8.7255
-8.3145
-7.80763
-7.26209
-6.73282
-6.26805
-5.90544
-5.66907
-5.56765
-5.59392
-5.72556
-5.92741
-6.15493
-6.35853
-6.48864
-6.50076
-6.36031
-6.04646
-5.55477
-4.89805
-4.10528
-3.2186
-2.2884
-1.36684
-0.500456
0.277739
0.955603
1.54784
2.09961
2.68686
3.41279
4.40022
5.78022
7.67794
10.197
13.4045
17.3173
21.8932
27.0257
32.5454
38.2267
43.8008
48.9727
53.4427
56.9293
59.1924
60.0537
59.4139
57.2625
53.6817
48.842
42.9907
36.4334
29.5119
22.5779
15.9676
9.97656
4.83925
0.713977
-2.32575
-4.29237
-5.27815
-5.44248
-4.99395
-4.16884
-3.20814
-2.33494
-1.73402
-1.5349
-1.79889
-2.50969
-3.5664
-4.7769
-5.84931
-6.38032
-5.84019
-3.55711
1.2937
9.68807
22.7281
41.5845
67.3982
101.139
143.423
194.31
253.095
318.139
386.772
455.308
519.208
573.394
612.708
632.469
629.064
600.485
546.735
470.024
374.711
266.979
154.272
44.5622
-54.4678
-136.224
-195.874
-230.818
-240.889
-228.282
-197.205
-153.328
-103.083
-52.9216
-8.61757
25.3097
45.9856
52.3527
45.1202
26.5153
-0.120234
-30.8252
-61.5402
-88.5904
-109.076
-121.132
-124.04
-118.192
-104.923
-86.2518
-64.5607
-42.2692
-21.535
-4.01935
9.26186
17.9912
22.511
23.7079
22.8411
21.3442
20.6252
21.8915
26.0164
33.4607
44.2504
58.0104
74.0401
91.4214
109.139
126.202
141.746
155.114
165.9
173.965
179.412
182.545
183.806
183.698
182.722
181.307
179.767
178.271
176.832
175.32
173.488
171.012
167.538
162.724
156.291
148.054
137.949
126.045
112.551
97.8001
82.2341
66.3715
50.7721
35.9969
22.5656
10.9167
1.37411
-5.87873
-10.8115
-13.5466
-14.3449
-13.5783
-11.6923
-9.16283
-6.45093
-3.96126
-2.00816
-0.793028
-0.394985
-0.775362
-1.79484
-3.24069
-4.8605
-6.39807
-7.62712
-8.37894
-8.56094
-8.16438
-7.26081
-5.98852
-4.53109
-3.09123
-1.8635
-1.00928
-0.637167
-0.790645
-1.44448
-2.50964
-3.84591
-5.28025
-6.62845
-7.71749
-8.40565
-8.59827
-8.25743
-7.40452
-6.1159
-4.5124
-2.74413
-0.972855
0.646119
1.98015
2.93189
3.44712
3.51701
3.17527
2.49069
1.55643
0.477764
-0.640348
-1.70407
-2.63897
-3.39487
-3.94728
-4.29547
-4.45801
-4.46662
-4.35944
-4.17461
-3.94508
-3.69517
-3.4391
-3.18146
-2.91932
-2.64524
-2.35085
-2.03003
-1.68144
-1.30973
-0.925548
-0.544065
-0.182417
0.143589
0.422992
0.652795
0.840142
1.00312
1.16997
1.37675
1.66376
2.07114
2.63429
3.37967
4.32139
5.45918
6.77772
8.24759
9.82751
11.4678
13.1144
14.7131
16.2139
17.5743
18.762
19.7564
20.5489
21.142
21.5479
21.7862
21.8814
21.8606
21.7512
21.5794
21.3689
21.14
20.9087
20.687
20.4823
20.2981
20.1336
19.985
19.8455
19.7062
19.5558
19.381
19.1653
19.1653
19.1653
19.1653
19.1653
19.1653
19.1653
19.1653
19.1653
19.1653
19.1653
19.1653
19.1653
19.1653
19.1653
19.1653
19.1653
19.1653
19.1653
