-87.9671
-87.5951
-85.7706
-82.0219
-75.9454
-67.2695
-55.9097
-42.0059
-25.9335
-8.28739
10.1619
28.5337
45.9143
61.4356
74.3451
84.0557
90.1745
92.5065
91.0392
85.9129
77.3863
65.8038
51.57
35.1359
16.9949
-2.3143
-22.2027
-42.0316
-61.1226
-78.7816
-94.3353
-107.18
-116.832
-122.981
-125.525
-124.596
-120.554
-113.967
-105.561
-96.155
-86.5857
-77.6282
-69.9266
-63.937
-59.8922
-57.7895
-57.4041
-58.3242
-60.0044
-61.832
-63.1961
-63.5557
-62.496
-59.7693
-55.3168
-49.2681
-41.9212
-33.7049
-25.1292
-16.7286
-9.00536
-2.37622
2.87118
6.61077
8.8962
9.96311
10.2143
10.1873
10.5057
11.8168
14.7218
19.7049
27.0704
36.8962
49.0097
62.9921
78.2107
93.8761
109.119
123.077
134.978
144.217
150.408
153.417
153.357
150.565
145.547
138.915
131.31
123.333
115.481
108.103
101.376
95.3086
89.7581
84.4723
79.14
73.4473
67.1318
60.0265
52.0902
43.4187
34.2374
24.8771
15.7351
7.2301
-0.246115
-6.37102
-10.9244
-13.8073
-15.0455
-14.7779
-13.231
-10.6842
-7.42909
-3.72715
0.227711
4.33864
8.62177
13.2051
18.3079
24.1992
31.1401
39.3136
48.7539
59.2874
70.4986
81.7306
92.1276
100.716
106.517
108.671
106.561
99.9142
88.8573
73.9318
56.0507
36.4109
16.3693
-2.69881
-19.543
-33.1616
-42.893
-48.4643
-49.9922
-47.94
-43.0379
-36.1783
-28.3017
-20.2871
-12.8596
-6.52588
-1.54337
2.07635
4.53167
6.16999
7.4107
8.66312
10.2502
12.3475
14.9457
17.839
20.6416
22.8289
23.7966
22.9322
19.6867
13.6406
4.55443
-7.59981
-22.631
-40.1432
-59.5693
-80.2201
-101.342
-122.175
-142.012
-160.243
-176.389
-190.126
-201.286
-209.849
-215.927
-219.73
-221.536
-221.661
-220.42
-218.109
-214.98
-211.234
-207.016
-202.416
-197.482
-192.23
-186.66
-180.766
-174.554
-168.047
-161.292
-154.36
-147.345
-140.354
-133.5
-126.884
-120.585
-114.64
-109.032
-103.684
-98.449
-93.125
-87.4656
-81.207
-74.0997
-65.9433
-56.6199
-46.1221
-34.5695
-22.2135
-9.42548
3.3283
15.5247
26.6298
36.1481
43.6699
48.9101
51.7356
52.1767
50.422
46.7983
41.7362
35.7281
29.2808
22.8713
16.9069
11.697
7.43597
4.20027
1.95679
0.581797
-0.113746
-0.355539
-0.377725
-0.397853
-0.597074
-1.10657
-2.00039
-3.29403
-4.94806
-6.87541
-8.95151
-11.0263
-12.9369
-14.5213
-15.6301
-16.1388
-15.9564
-15.0327
-13.3619
-10.9829
-7.97627
-4.45808
-0.570929
3.52717
7.6751
11.7213
15.5354
19.0185
22.1101
24.791
27.0828
29.0412
30.746
32.2868
33.7467
35.1857
36.6264
38.043
39.357
40.4404
41.1259
41.2247
40.5499
38.9423
36.2971
32.5863
27.8759
22.3336
16.2272
9.91095
3.80137
-1.65611
-6.02768
-8.93464
-10.0957
-9.36307
-6.74828
-2.43286
3.23779
9.77882
16.6072
23.096
28.6368
32.7025
34.9028
35.0267
33.0647
29.2087
23.8299
17.436
10.6139
3.96549
-1.95675
-6.70569
-9.98126
-11.6533
-11.7641
-10.5109
-8.21269
-5.26559
-2.09319
0.901489
3.37703
5.0833
5.87724
5.72432
4.68706
2.90337
0.558711
-2.14374
-5.01081
-7.88152
-10.6415
-13.2283
-15.6279
-17.8641
-19.9824
-22.0315
-24.0466
-26.0354
-27.97
-29.7862
-31.3892
-32.6651
-33.4961
-33.7775
-33.4325
-32.4236
-30.7592
-28.494
-25.7241
-22.5782
-19.2061
-15.7661
-12.4135
-9.29088
-6.52123
-4.20335
-2.41016
-1.18868
-0.561102
-0.526215
-1.06058
-2.11928
-3.63621
-5.52445
-7.67711
-9.96951
-12.2632
-14.4124
-16.2721
-17.7087
-18.6106
-18.8987
-18.5351
-17.5281
-15.9336
-13.8517
-11.4182
-8.79337
-6.14744
-3.64486
-1.42947
0.388519
1.74201
2.61232
3.0297
3.06923
2.84253
2.48617
2.14773
1.9709
2.08071
2.57045
3.49117
4.84509
6.58335
8.6087
10.7829
12.9388
14.8961
16.4799
17.5413
17.9765
17.7439
16.8754
15.4808
13.7429
11.904
10.244
9.0519
8.59542
9.09051
10.6755
13.3929
17.1808
21.8748
27.2213
32.8993
38.5487
43.803
48.3215
51.8191
54.0895
55.0211
54.6023
52.9185
50.1388
46.4958
42.2599
37.7118
33.1147
28.6909
24.6041
20.9489
17.7495
14.9659
12.5077
10.2517
8.06344
5.81662
3.41036
0.780534
-2.09505
-5.19739
-8.47106
-11.8297
-15.1591
-18.3142
-21.1097
-23.303
-24.576
-24.5191
-22.627
-18.3146
-10.9586
0.0302412
15.109
34.4849
57.9959
85.0084
114.356
144.336
172.79
197.251
215.168
224.181
222.407
208.704
182.878
145.787
99.3367
46.3487
-9.68574
-64.9347
-115.604
-158.317
-190.448
-210.374
-217.606
-212.8
-197.637
-174.595
-146.652
-116.941
-88.4189
-63.5734
-44.2045
-31.3014
-25.0213
-24.7645
-29.33
-37.1252
-46.4023
-55.4885
-62.9845
-67.9079
-69.7718
-68.591
-64.8252
-59.2692
-52.9101
-46.7721
-41.7697
-38.5866
-37.5946
-38.8189
-41.9508
-46.403
-51.3981
-56.076
-59.6073
-61.2968
-60.6666
-57.5084
-51.9012
-44.1936
-34.9549
-24.9022
-14.8134
-5.43751
2.58756
8.80005
12.9559
15.0432
15.2703
14.0305
11.8493
9.32291
7.05389
5.59426
5.39946
6.79807
9.97774
14.9862
21.7445
30.0675
39.6895
50.29
61.517
73.0086
84.4101
95.3883
105.643
114.918
123.007
129.76
135.09
138.969
141.428
142.551
142.463
141.315
139.269
136.477
133.064
129.114
124.658
119.678
114.106
107.846
100.791
92.8505
83.9774
74.1892
63.5841
52.3473
40.7452
29.1085
17.8059
7.21111
-2.3333
-10.5491
-17.2496
-22.3575
-25.9093
-28.0485
-29.0062
-29.0729
-28.5654
-27.7917
-27.0194
-26.4506
-26.2061
-26.3199
-26.7448
-27.3667
-28.0269
-28.5466
-28.7539
-28.5062
-27.7085
-26.3239
-24.3761
-21.9445
-19.1533
-16.1548
-13.1122
-10.1816
-7.49641
-5.15645
-3.22139
-1.70977
-0.602648
0.14906
0.615026
0.87528
1.01071
1.09537
1.19125
1.34563
1.59074
1.94513
2.41613
3.00271
3.69815
4.49253
5.37463
6.33361
7.36038
8.44864
9.59571
10.8026
12.0731
13.4119
14.8214
16.2968
17.8215
19.3622
20.8649
22.2539
23.4334
24.293
24.7166
24.5937
23.8335
22.3772
20.2096
17.3661
13.935
10.0533
5.89783
1.67137
-2.41403
-6.15393
-9.3672
-11.9085
-13.6764
-14.617
-14.723
-14.0299
-12.6092
-10.5616
-8.00969
-5.09169
-1.95586
1.24448
4.35585
7.22996
9.72981
11.7366
13.1573
13.9316
14.0382
13.4989
12.3788
10.7836
8.85218
6.74517
4.63132
2.6717
1.00446
-0.268621
-1.09182
-1.46066
-1.42198
-1.06944
-0.535652
0.017345
0.407298
0.439075
-0.0907895
-1.39212
-3.68041
-7.17518
-12.095
-18.6466
-27.0081
-37.3046
-49.5807
-63.7719
-79.6792
-96.953
-115.091
-133.448
-151.272
-167.742
-182.036
-193.385
-201.145
-204.85
-204.25
-199.337
-190.341
-177.704
-162.044
-144.095
-124.642
-104.46
-84.2552
-64.6136
-45.9722
-28.6003
-12.5999
2.07764
15.603
28.2281
40.2396
51.9091
63.4452
74.9529
86.403
97.6169
108.269
117.905
125.987
131.938
135.212
135.359
132.081
125.285
115.106
101.914
86.2877
68.9699
50.8048
32.6631
15.3664
-0.381145
-14.046
-25.298
-34.0193
-40.2916
-44.363
-46.6022
-47.4457
-47.345
-46.7208
-45.9285
-45.237
-44.8229
-44.7761
-45.116
-45.8133
-46.8127
-48.0538
-49.4859
-51.0762
-52.8101
-54.6851
-56.7004
-58.8442
-61.0817
-63.3455
-65.5297
-67.4886
-69.041
-69.9786
-70.0797
-69.1267
-66.9266
-63.3329
-58.2664
-51.7329
-43.8353
-34.7777
-24.8609
-14.4676
-4.03929
5.95519
15.0553
22.8465
28.9951
33.2772
35.5983
36.0005
34.6578
31.8593
27.9839
23.4706
18.7909
14.4274
10.866
8.60074
8.15083
10.0808
15.0142
23.6258
36.6025
54.5634
77.9432
106.848
140.908
179.148
219.927
260.943
299.361
332.025
355.774
367.797
366
349.319
317.932
273.325
218.207
156.255
91.746
29.0971
-27.605
-75.034
-110.953
-134.402
-145.724
-146.432
-138.943
-126.216
-111.349
-97.1901
-86.0019
-79.2333
-77.4076
-80.1415
-86.2802
-94.1255
-101.72
-107.145
-108.799
-105.61
-97.1682
-83.7623
-66.3192
-46.2644
-25.3246
-5.30177
12.1502
25.7169
34.562
38.3971
37.4792
32.5409
24.6652
15.1252
5.2106
-3.93535
-11.4482
-16.828
-19.9697
-21.1365
-20.8832
-19.9428
-19.0931
-19.0245
-20.2268
-22.9119
-26.9816
-32.0443
-37.475
-42.5097
-46.357
-48.3105
-47.845
-44.6828
-38.8224
-30.5271
-20.2776
-8.69848
3.53055
15.7638
27.4669
38.2723
48.0062
56.6854
64.4869
71.6957
78.6413
85.6315
92.894
100.534
108.51
116.64
124.617
132.055
138.539
143.678
147.159
148.785
148.504
146.41
142.736
137.823
132.079
125.928
119.76
113.888
108.508
103.682
99.3365
95.2793
91.2306
86.8695
81.8843
76.0223
69.1325
61.194
52.3282
42.792
32.9532
23.2512
14.1497
6.08518
-0.580527
-5.59799
-8.85475
-10.3833
-10.3525
-9.04463
-6.82064
-4.07931
-1.21479
1.42207
3.55477
5.0014
5.68275
5.61842
4.9124
3.73082
2.27508
0.754048
-0.641489
-1.75935
-2.49951
-2.81997
-2.73494
-2.30654
-1.63155
-0.825591
-0.00667842
0.71957
1.27156
1.5991
1.686
1.54826
1.22839
0.787045
0.293214
-0.185831
-0.593776
-0.892962
-1.07006
-1.13944
-1.14413
-1.15412
-1.26203
-1.57613
-2.21086
-3.27559
-4.86244
-7.03454
-9.81623
-13.1865
-17.0772
-21.3759
-25.9342
-30.5806
-35.1355
-39.4278
-43.3101
-46.671
-49.443
-51.6043
-53.1765
-54.2163
-54.8045
-55.0332
-54.9924
-54.759
-54.388
-53.9077
-53.3183
-52.5949
-51.6929
-50.5557
-49.1232
-47.3412
-45.1687
-42.5844
-39.5906
-36.2147
-32.5079
-28.5418
-24.4022
-20.1818
-15.9719
-11.8534
-7.88996
-4.12144
-0.561374
2.80309
6.00747
9.10311
12.1479
15.1958
18.2861
21.4351
24.6296
27.8254
30.95
33.9094
36.5993
38.9179
40.7801
42.1295
42.9466
43.252
43.104
42.5903
41.8146
40.8822
39.8841
38.8838
37.9094
36.9493
35.9559
34.8538
33.552
31.9598
30.0017
27.6309
24.8393
21.6616
18.1746
14.4897
10.7418
7.07415
3.62263
0.500858
-2.21166
-4.47657
-6.29809
-7.71849
-8.80838
-9.65329
-10.3383
-10.9333
-11.4806
-11.9875
-12.4247
-12.7312
-12.8252
-12.6197
-12.0403
-11.0417
-9.62151
-7.82789
-5.75966
-3.55916
-1.39828
0.540361
2.08446
3.09245
3.47059
3.18451
2.26381
0.799207
-1.0672
-3.15719
-5.27522
-7.22846
-8.84567
-9.99287
-10.5842
-10.5869
-10.021
-8.95216
-7.48199
-5.73392
-3.83875
-1.92055
-0.0846015
1.59147
3.06261
4.31711
5.37359
6.27468
7.07852
7.84913
8.64695
9.52066
10.5012
11.5985
12.8011
14.0784
15.3842
16.6609
17.8434
18.8615
19.6405
20.101
20.157
19.7147
18.673
16.9263
14.3706
10.9133
6.48614
1.059
-5.34586
-12.6432
-20.6798
-29.2372
-38.0437
-46.7936
-55.1737
-62.8914
-69.7018
-75.4292
-79.9799
-83.3447
-85.5899
-86.8388
-87.2466
-86.9711
-86.1451
-84.854
-83.1217
-80.9063
-78.1073
-74.5791
-70.1505
-64.6418
-57.8788
-49.6973
-39.9395
-28.4447
-15.0394
0.463893
18.2503
38.4622
61.1308
86.0858
112.854
140.57
167.92
193.146
214.136
228.591
234.28
229.341
212.595
183.819
143.928
95.0288
40.314
-16.1902
-70.01
-116.691
-152.287
-173.811
-179.578
-169.405
-144.636
-107.989
-63.2512
-14.8547
32.606
74.8587
108.383
130.736
140.741
138.526
125.418
103.709
76.3371
46.5172
17.3773
-8.36911
-28.6725
-42.3002
-48.8826
-48.8578
-43.3306
-33.8704
-22.2773
-10.348
0.333373
8.55464
13.5737
15.1489
13.5054
9.24866
3.24003
-3.54521
-10.1595
-15.8062
-19.9323
-22.2804
-22.8986
-22.1104
-20.4498
-18.5746
-17.1682
-16.8427
-18.0561
-21.0524
-25.8296
-32.1392
-39.5153
-47.3281
-54.855
-61.3594
-66.1693
-68.7452
-68.7316
-65.9868
-60.5888
-52.818
-43.1212
-32.0598
-20.2506
-8.3058
3.22251
13.8862
23.3708
31.508
38.2721
43.7608
48.1645
51.7285
54.7121
57.3505
59.8229
62.2303
64.5842
66.8065
68.7385
70.158
70.8005
70.3838
68.633
65.3053
60.2132
53.2448
44.3803
33.7034
21.4052
7.77958
-6.79033
-21.8553
-36.9306
-51.5328
-65.217
-77.6133
-88.4563
-97.6041
-105.046
-110.896
-115.372
-118.769
-121.419
-123.651
-125.759
-127.962
-130.393
-133.083
-135.967
-138.899
-141.672
-144.048
-145.786
-146.67
-146.531
-145.262
-142.824
-139.246
-134.615
-129.062
-122.742
-115.814
-108.426
-100.697
-92.7111
-84.518
-76.1413
-67.5929
-58.8909
-50.0783
-41.2379
-32.5006
-24.0446
-16.0857
-8.85867
-2.59304
2.51407
6.32304
8.77189
9.88785
9.78871
8.6737
6.80474
4.48077
2.00827
-0.328296
-2.29255
-3.71572
-4.50777
-4.65906
-4.23312
-3.35189
-2.17565
-0.880535
0.363675
1.41276
2.16234
2.55601
2.58681
2.29275
1.74721
1.0462
0.294146
-0.409839
-0.983566
-1.37006
-1.54186
-1.50122
-1.2766
-0.916303
-0.480286
-0.0314607
0.372492
0.685757
0.878836
0.940479
0.877131
0.710223
0.471879
0.199738
-0.0683546
-0.29912
-0.467534
-0.559088
-0.570485
-0.508857
-0.389756
-0.234298
-0.0659188
0.0928338
0.223067
0.311618
0.352307
0.346373
0.302245
0.23484
0.164597
0.116435
0.118699
0.202077
0.398378
0.739011
1.25302
1.96466
2.89051
4.03652
5.3953
6.94421
8.64486
10.4442
12.2778
14.0744
15.7625
17.2769
18.5655
19.5944
20.3516
20.8474
21.1133
21.1969
21.1563
21.0522
20.9401
20.8634
20.8485
20.9011
21.0064
21.131
21.2275
21.2407
21.1142
20.7974
20.2515
19.4537
18.4003
17.1061
15.6038
13.9396
12.1693
10.3519
8.54481
6.79773
5.14876
3.62114
2.22197
0.942731
-0.238067
-1.35059
-2.42791
-3.49944
-4.58454
-5.68705
-6.79182
-7.86393
-8.85111
-9.68945
-10.3117
-10.6575
-10.6835
-10.3727
-9.7399
-8.83401
-7.73439
-6.54305
-5.37277
-4.33306
-3.51608
-2.98472
-2.76485
-2.84291
-3.16942
-3.66749
-4.24485
-4.80714
-5.2702
-5.56915
-5.66313
-5.53513
-5.18759
-4.63503
-3.89552
-2.98305
-1.90241
-0.647784
0.794684
2.44068
4.29915
6.36291
8.60043
10.9503
13.3198
15.588
17.614
19.2475
20.3434
20.775
20.4469
19.3038
17.3355
14.5762
11.1
7.01155
2.43586
-2.49404
-7.64756
-12.9052
-18.1642
-23.3403
-28.3673
-33.1933
-37.7749
-42.0708
-46.0354
-49.6126
-52.7316
-55.3049
-57.2271
-58.3768
-58.6165
-57.793
-55.7327
-52.2344
-47.0583
-39.9151
-30.4614
-18.3083
-3.05089
15.6745
38.1056
64.2466
93.7494
125.806
159.076
191.677
221.253
245.146
260.647
265.316
257.328
235.792
200.982
154.452
98.9825
38.3669
-22.947
-80.3198
-129.425
-166.732
-189.89
-197.984
-191.61
-172.765
-144.584
-110.946
-76.0133
-43.7533
-17.5173
0.290435
8.41031
6.7785
-3.56381
-20.6824
-42.0485
-64.8812
-86.4893
-104.572
-117.445
-124.175
-124.608
-119.311
-109.425
-96.4736
-82.1391
-68.0492
-55.5891
-45.764
-39.121
-35.7358
-35.2555
-36.99
-40.0332
-43.3974
-46.1422
-47.4838
-46.8724
-44.0324
-38.9638
-31.9099
-23.2988
-13.6694
-3.59219
6.40249
15.8826
24.552
32.2656
39.0235
44.9475
50.245
55.1689
59.9766
64.897
70.1057
75.7133
81.7635
88.2414
95.0876
102.215
109.525
116.922
124.32
131.648
138.848
145.872
152.675
159.206
165.402
171.183
176.444
181.051
184.847
187.65
189.263
189.49
188.148
185.087
180.21
173.491
164.984
154.832
143.26
130.564
117.093
103.223
89.3281
75.7582
62.8118
50.7207
39.6381
29.6361
20.7093
12.7853
5.74101
-0.577707
-6.33436
-11.6805
-16.737
-21.5795
-26.2307
-30.6586
-34.7831
-38.4876
-41.6363
-44.0931
-45.7409
-46.498
-46.3292
-45.2513
-43.3311
-40.6771
-37.4263
-33.7272
-29.7226
-25.5336
-21.2482
-16.9153
-12.5447
-8.11353
-3.57752
1.11479
6.00669
11.1191
16.4394
21.9143
27.4481
32.9053
38.1177
42.8945
47.0344
50.3369
52.614
53.6975
53.4455
51.7433
48.5042
43.6676
37.1981
29.0867
19.3553
8.06488
-4.67391
-18.6883
-33.733
-49.4832
-65.5354
-81.4157
-96.599
-110.536
-122.688
-132.568
-139.777
-144.039
-145.23
-143.387
-138.715
-131.563
-122.402
-111.784
-100.295
-88.5106
-76.947
-66.0289
-56.0624
-47.2229
-39.5569
-32.9958
-27.3789
-22.4842
-18.0601
-13.8574
-9.65535
-5.28169
-0.623884
4.36796
9.68571
15.2738
21.0431
26.8871
32.6959
38.3687
43.822
48.9935
53.8423
58.3455
62.4926
66.2791
69.7006
72.7482
75.4055
77.6478
79.4433
80.7556
81.5463
81.7788
81.4203
80.4445
78.8322
76.5729
73.6653
70.1179
65.9514
61.2003
55.9162
50.1708
44.059
37.6997
31.2356
24.8294
18.6568
12.8969
7.71991
3.27369
-0.329053
-3.02153
-4.79002
-5.67627
-5.77454
-5.22354
-4.19387
-2.87255
-1.44614
-0.0845679
1.07276
1.92696
2.42497
2.55974
2.3656
1.90973
1.2808
0.576514
-0.108658
-0.694055
-1.12067
-1.35565
-1.39318
-1.25216
-0.971059
-0.601093
-0.198516
0.182805
0.497742
0.71448
0.816974
0.805185
0.693325
0.506517
0.276481
0.0368546
-0.18121
-0.352666
-0.461038
-0.499561
-0.470983
-0.386242
-0.262317
-0.119688
0.020181
0.136967
0.212969
0.233862
0.188786
0.069956
-0.127946
-0.408353
-0.773167
-1.22277
-1.75569
-2.36805
-3.05288
-3.79952
-4.59342
-5.41624
-6.24666
-7.06172
-7.83891
-8.55862
-9.20705
-9.77915
-10.2814
-10.7342
-11.1732
-11.6506
-12.2344
-13.0071
-14.0639
-15.5084
-17.4475
-19.9847
-23.2116
-27.1976
-31.9804
-37.556
-43.8714
-50.8215
-58.2491
-65.9511
-73.6886
-81.1997
-88.215
-94.4722
-99.7296
-103.777
-106.442
-107.596
-107.155
-105.083
-101.382
-96.0983
-89.3077
-81.1044
-71.5795
-60.7929
-48.7394
-35.3175
-20.3082
-3.37632
15.8974
37.9455
63.1065
91.4911
122.839
156.395
190.825
224.213
254.141
277.878
292.644
295.949
285.945
261.749
223.679
173.368
113.715
48.6748
-17.0985
-78.7179
-131.575
-171.837
-196.864
-205.485
-198.112
-176.662
-144.311
-105.112
-63.5245
-23.9197
9.88001
34.9712
49.6116
53.3128
46.7822
31.7339
10.6006
-13.8094
-38.6637
-61.4231
-80.0894
-93.3615
-100.691
-102.242
-98.7721
-91.4605
-81.705
-70.9254
-60.3906
-51.089
-43.653
-38.338
-35.0517
-33.4219
-32.8894
-32.8099
-32.5509
-31.5721
-29.4812
-26.0614
-21.2719
-15.2254
-8.14882
-0.336234
7.89951
16.2688
24.5367
32.5416
40.2001
47.501
54.4907
61.2534
67.8901
74.4996
81.1623
87.9303
94.8218
101.821
108.884
115.944
122.921
129.734
136.306
142.574
148.489
154.023
159.164
163.911
168.273
172.256
175.863
179.085
181.898
184.266
186.138
187.453
188.148
188.159
187.429
185.902
183.528
180.253
176.01
170.721
164.286
156.597
147.546
137.052
125.086
111.703
97.065
81.4588
65.2949
49.0913
33.4391
18.9539
6.21829
-4.27795
-12.191
-17.3633
-19.8446
-19.8909
-17.94
-14.5676
-10.428
-6.18667
-2.45301
0.2791
1.67632
1.5916
0.0682557
-2.67713
-6.29019
-10.3277
-14.3137
-17.7957
-20.3949
-21.8446
-22.0131
-20.9094
-18.6725
-15.5461
-11.8429
-7.90389
-4.05742
-0.58275
2.31706
4.53088
6.04256
6.92184
7.30526
7.3702
7.30598
7.28605
7.44493
7.86248
8.55714
9.48842
10.5672
11.6724
12.6701
13.4336
13.8603
13.884
13.4813
12.6718
11.5131
10.0911
8.50876
6.87309
5.28428
3.82644
2.56158
1.5268
0.734662
0.176089
-0.174921
-0.355589
-0.408503
-0.376295
-0.297365
-0.202928
-0.115482
-0.0485858
-0.00772517
0.0080666
0.00417554
-0.0117029
-0.0314728
-0.0481505
-0.0568812
-0.0554627
-0.0444638
-0.0270808
-0.0088887
0.00239301
-0.00292746
-0.0363716
-0.111069
-0.241317
-0.44178
-0.726287
-1.10625
-1.58892
-2.17571
-2.86098
-3.63166
-4.46787
-5.34468
-6.23486
-7.11237
-7.95598
-8.75257
-9.49951
-10.2056
-10.8903
-11.5817
-12.3122
-13.1143
-14.0151
-15.032
-16.169
-17.4153
-18.7457
-20.1229
-21.5017
-22.8344
-24.0767
-25.1922
-26.157
-26.961
-27.6075
-28.1103
-28.489
-28.763
-28.9453
-29.0371
-29.0245
-28.8774
-28.5515
-27.9936
-27.1485
-25.9682
-24.4203
-22.4962
-20.2163
-17.6321
-14.8246
-11.8995
-8.97843
-6.18843
-3.65055
-1.4686
0.280283
1.55237
2.34047
2.67327
2.61112
2.23866
1.65546
0.965552
0.267339
-0.355275
-0.839489
-1.14743
-1.26701
-1.20986
-1.00702
-0.702876
-0.348271
0.00625991
0.316507
0.549155
0.684587
0.717848
0.657955
0.525954
0.352202
0.173355
0.0294331
-0.0388636
0.00747419
0.203623
0.578945
1.15514
1.94461
2.94928
4.15996
5.55667
7.10988
8.78273
10.534
12.3215
14.1052
15.8506
17.5294
19.1208
20.6102
21.9866
23.2399
24.3567
25.3175
26.0946
26.6508
26.9416
26.9181
26.5325
25.7448
24.5293
22.8806
20.8184
18.3889
15.6634
12.7343
9.7091
6.70447
3.84229
1.25089
-0.92674
-2.5166
-3.29045
-2.93976
-1.05384
2.88829
9.50251
19.4521
33.3635
51.7087
74.6624
101.956
132.752
165.57
198.294
228.28
252.563
268.161
272.44
263.482
240.418
203.652
154.944
97.3269
34.8485
-27.8221
-85.8852
-134.93
-171.416
-193.055
-199.04
-190.103
-168.386
-137.155
-100.394
-62.3386
-26.9992
2.25831
23.0314
34.0667
35.2992
27.7514
13.3145
-5.55211
-26.1607
-45.929
-62.6694
-74.8022
-81.474
-82.5761
-78.6709
-70.8445
-60.5099
-49.1934
-38.3286
-29.087
-22.2594
-18.1999
-16.8315
-17.7069
-20.1095
-23.1789
-26.0405
-27.923
-28.2498
-26.6949
-23.1998
-17.9538
-11.3437
-3.88264
3.87062
11.3897
18.2468
24.1589
29.0103
32.8504
35.8692
38.3572
40.6546
43.0993
45.9794
49.4969
53.7457
58.7052
64.2503
70.1724
76.21
82.0829
87.5258
92.3164
96.2967
99.3837
101.57
102.917
103.539
103.582
103.205
102.558
101.766
100.917
100.055
99.1798
98.2534
97.2037
95.9356
94.3391
92.2974
89.6937
86.4184
82.3762
77.4948
71.7348
65.0994
57.6434
49.4778
40.7694
31.7338
22.622
13.7011
5.23241
-2.55226
-9.47072
-15.4064
-20.317
-24.2354
-27.2622
-29.5516
-31.2924
-32.6857
-33.9229
-35.1664
-36.534
-38.09
-39.8425
-41.7467
-43.7147
-45.6281
-47.3541
-48.7608
-49.7324
-50.18
-50.05
-49.3272
-48.0343
-46.2273
-43.9887
-41.418
-38.6222
-35.7067
-32.7671
-29.8833
-27.1156
-24.5028
-22.0633
-19.7968
-17.6884
-15.7128
-13.8394
-12.0365
-10.2756
-8.5351
-6.80168
-5.07188
-3.35151
-1.65424
0.000798932
1.59212
3.09916
4.5054
5.80102
6.9845
8.06311
9.05205
9.9724
10.8481
11.7025
12.5546
13.4161
14.289
15.1647
16.0239
16.8385
17.5741
18.1932
18.6588
18.9384
19.0067
18.8482
18.4578
17.8418
17.0165
16.0066
14.8432
13.5612
12.1972
10.7874
9.36621
7.9649
6.61138
5.32992
4.14116
3.06205
2.10572
1.28097
0.591605
0.0354792
-0.396264
-0.719708
-0.958043
-1.14061
-1.30104
-1.4745
-1.69429
-1.98827
-2.37549
-2.86353
-3.44703
-4.10769
-4.81569
-5.53258
-6.21514
-6.81991
-7.30773
-7.64782
-7.8209
-7.82098
-7.65568
-7.34504
-6.91902
-6.41403
-5.8689
-5.32083
-4.80166
-4.33507
-3.93481
-3.6042
-3.33685
-3.11849
-2.92952
-2.748
-2.55262
-2.32526
-2.05281
-1.72819
-1.35043
-0.923968
-0.457512
0.0374896
0.548341
1.06246
1.56848
2.05699
2.52107
2.95645
3.3615
3.73704
4.08591
4.4123
4.72081
5.01531
5.29754
5.56577
5.81364
6.02932
6.19541
6.28955
6.28585
6.1572
5.8781
5.42796
4.79427
3.97538
2.98239
1.8398
0.584696
-0.73559
-2.06704
-3.35334
-4.54029
-5.57957
-6.43112
-7.06358
-7.45291
-7.57941
-7.42389
-6.96404
-6.17224
-5.01584
-3.46097
-1.48013
0.936941
3.77045
6.95821
10.3863
13.8853
17.2347
20.1749
22.4282
23.7246
23.8315
22.5807
19.892
15.7874
10.3946
3.93949
-3.27213
-10.8815
-18.509
-25.788
-32.3968
-38.0855
-42.6953
-46.1685
-48.5482
-49.9684
-50.6348
-50.7975
-50.7184
-50.634
-50.7163
-51.0329
-51.5089
-51.894
-51.739
-50.3903
-47.0085
-40.621
-30.2115
-14.8477
6.1619
33.096
65.6592
102.858
142.942
183.447
221.327
253.217
275.765
286.025
281.85
262.232
227.526
179.526
121.369
57.2606
-7.92995
-69.1789
-121.839
-162.133
-187.545
-197.062
-191.233
-172.056
-142.695
-107.079
-69.4373
-33.8205
-3.67705
18.4759
31.2502
34.4401
28.9342
16.5093
-0.461327
-19.3416
-37.5659
-52.9303
-63.8131
-69.3019
-69.2237
-64.0824
-54.9215
-43.1362
-30.2625
-17.7729
-6.90112
1.48438
6.94806
9.49439
9.51941
7.7189
4.96881
2.1957
0.254126
-0.174814
1.34669
4.98014
10.6149
17.9056
26.3343
35.2888
44.1442
52.3387
59.4344
65.157
69.4108
72.2705
73.9514
74.7649
75.0658
75.1985
75.4494
76.012
76.9661
78.275
79.7982
81.3171
82.5693
83.2861
83.2285
82.2166
80.1494
77.0132
72.879
67.8894
62.2383
56.1471
49.8402
43.5244
37.3734
31.5193
26.0515
21.0196
16.4414
12.3103
8.60148
5.2749
2.27404
-0.478581
-3.08756
-5.68944
-8.4535
-11.5759
-15.2658
-19.7249
-25.1204
-31.5582
-39.0583
-47.5382
-56.8079
-66.5778
-76.4806
-86.1037
-95.0293
-102.877
-109.341
-114.222
-117.444
-119.061
-119.239
-118.242
-116.392
-114.034
-111.501
-109.074
-106.962
-105.284
-104.066
-103.242
-102.673
-102.166
-101.496
-100.432
-98.76
-96.3035
-92.9382
-88.6036
-83.308
-77.1278
-70.2017
-62.7199
-54.9092
-47.016
-39.2871
-31.9521
-25.2075
-19.2049
-14.0431
-9.766
-6.36501
-3.7858
-1.93826
-0.708323
0.029782
0.401965
0.5246
0.497338
0.398775
0.284953
0.190352
0.130837
0.107869
0.113282
0.133971
0.155967
0.167537
0.161141
0.134242
0.0891833
0.0324603
-0.0261361
-0.0740842
-0.0961585
-0.0740388
0.0140023
0.192587
0.487181
0.92015
1.50516
2.24084
3.10511
4.05191
5.01164
5.89618
6.60848
7.0554
7.16215
6.88579
6.22548
5.22739
3.98331
2.62259
1.29842
0.170194
-0.615621
-0.943598
-0.743876
-0.00127894
1.24213
2.89127
4.80838
6.82793
8.77441
10.4805
11.8036
12.6393
12.9295
12.6658
11.8874
10.6734
9.13282
7.39136
5.57773
3.81088
2.1892
0.782766
-0.370743
-1.26642
-1.92884
-2.40581
-2.75993
-3.05897
-3.36629
-3.73234
-4.18819
-4.7419
-5.37809
-6.06071
-6.73871
-7.35378
-7.84904
-8.17767
-8.31003
-8.23838
-7.97852
-7.568
-7.06127
-6.52229
-6.01579
-5.59847
-5.31118
-5.17342
-5.18062
-5.30462
-5.49689
-5.69422
-5.8257
-5.82042
-5.61494
-5.15988
-4.42514
-3.40349
-2.11224
-0.592928
1.09096
2.85838
4.61705
6.27134
7.73132
8.92202
9.79193
10.3195
10.517
10.4302
10.1353
9.73083
9.3278
9.03758
8.95934
9.16873
9.70897
10.5856
11.7657
13.181
14.7361
16.3187
17.8128
19.1113
20.128
20.8067
21.1265
21.1027
20.7833
20.2415
19.565
18.8442
18.1598
17.5723
17.1141
16.7859
16.5562
16.3651
16.1311
15.7594
15.1516
14.2157
12.8751
11.0771
8.7992
6.05339
2.8885
-0.610667
-4.32663
-8.1151
-11.8131
-15.2486
-18.2522
-20.6685
-22.3693
-23.2656
-23.3189
-22.5501
-21.0445
-18.9502
-16.4683
-13.8322
-11.2763
-8.99197
-7.07455
-5.46724
-3.90952
-1.90282
1.29399
6.6272
15.1621
27.9483
45.8463
69.3361
98.3366
132.068
168.99
206.838
242.773
273.63
296.252
307.861
306.42
290.933
261.643
220.079
168.964
111.96
53.3117
-2.59338
-51.6808
-90.6055
-117.08
-130.078
-129.884
-118.005
-96.941
-69.8622
-40.2304
-11.412
13.6696
32.807
44.6792
48.9075
46.0005
37.2039
24.2802
9.25081
-5.86441
-19.2816
-29.6345
-36.087
-38.3723
-36.7585
-31.9554
-24.9783
-16.9898
-9.14128
-2.43347
2.38995
4.90566
5.02835
2.98544
-0.743317
-5.5103
-10.5956
-15.3006
-19.0295
-21.3482
-22.0178
-20.9995
-18.4351
-14.6065
-9.8824
-4.66098
0.68449
5.84959
10.6278
14.9222
18.7409
22.1775
25.3827
28.5309
31.788
35.2845
39.0977
43.2452
47.6886
52.3473
57.1191
61.9031
66.6217
71.2371
75.7598
80.2466
84.7888
89.4918
94.4488
99.713
105.273
111.033
116.807
122.324
127.24
131.173
133.732
134.563
133.386
130.027
124.445
116.743
107.162
96.0668
83.9145
71.2196
58.5104
46.2885
34.9917
24.966
16.4463
9.54922
4.27518
0.519731
-1.90854
-3.26579
-3.84865
-3.96989
-3.93574
-4.02592
-4.47734
-5.47181
-7.12799
-9.49748
-12.5648
-16.2513
-20.4217
-24.8954
-29.459
-33.8821
-37.9352
-41.4074
-44.1235
-45.9593
-46.852
-46.8062
-45.8925
-44.2412
-42.029
-39.4619
-36.7555
-34.1148
-31.7166
-29.6951
-28.133
-27.0588
-26.4498
-26.2404
-26.3337
-26.6159
-26.9697
-27.2867
-27.4774
-27.4765
-27.2456
-26.7711
-26.0607
-25.1372
-24.0318
-22.7779
-21.4062
-19.9412
-18.4
-16.7933
-15.1274
-13.4083
-11.6449
-9.85256
-8.05551
-6.28733
-4.5898
-3.01
-1.59602
-0.391915
0.567404
1.26054
1.68264
1.84668
1.78265
1.53489
1.15781
0.710588
0.251457
-0.167678
-0.505687
-0.735274
-0.844351
-0.835714
-0.725133
-0.538221
-0.3065
-0.063179
0.16086
0.34043
0.458455
0.507269
0.488808
0.413857
0.30062
0.172965
0.0586516
-0.0121767
-0.00815213
0.102409
0.350548
0.765232
1.37106
2.18491
3.21167
4.43957
5.83599
7.3447
8.88567
10.358
11.6462
12.6305
13.198
13.2568
12.7484
11.6579
10.0212
7.92622
5.50915
2.94515
0.434134
-1.81676
-3.61229
-4.78799
-5.2266
-4.87062
-3.72945
-1.8804
0.536556
3.32979
6.27187
9.11869
11.6299
13.5888
14.8197
15.2007
14.6712
13.2342
10.9526
7.94171
4.35921
0.393468
-3.74834
-7.85169
-11.7055
-15.1125
-17.8982
-19.9203
-21.0762
-21.3097
-20.6155
-19.0408
-16.6841
-13.69
-10.2402
-6.54171
-2.81183
0.737293
3.9145
6.56351
8.5737
9.8867
10.498
10.4539
9.84336
8.78755
7.42653
5.90601
4.36495
2.92519
1.68381
0.708306
0.0345474
-0.332881
-0.418224
-0.270218
0.0441358
0.447713
0.863263
1.22477
1.48916
1.64674
1.72846
1.80805
1.99776
2.43707
3.27498
4.64779
6.65499
9.33672
12.6565
16.4925
20.6389
24.82
28.7129
31.9801
34.305
35.4273
35.1729
33.4747
30.3814
26.0525
20.7413
14.7669
8.48006
2.22607
-3.68967
-9.03012
-13.6458
-17.4827
-20.5792
-23.0527
-25.0776
-26.8585
-28.6014
-30.485
-32.6359
-35.1081
-37.8675
-40.781
-43.6095
-46.0039
-47.505
-47.5496
-45.4855
-40.6021
-32.178
-19.551
-2.20779
20.1126
47.311
78.8327
113.602
150.002
185.919
218.859
246.126
265.066
273.344
269.228
251.833
221.312
178.932
127.047
68.9366
8.54008
-49.9017
-102.247
-144.855
-174.944
-190.859
-192.214
-179.911
-156.011
-123.496
-85.9379
-47.1214
-10.663
20.3335
43.5474
57.6138
62.185
57.8812
46.1448
29.0186
8.87925
-11.8427
-30.925
-46.5713
-57.5628
-63.3344
-63.9718
-60.1368
-52.9339
-43.7386
-34.0087
-25.102
-18.1192
-13.79
-12.4123
-13.8462
-17.5625
-22.7347
-28.3604
-33.397
-36.8933
-38.1022
-36.5615
-32.1362
-25.019
-15.6919
-4.85605
6.6596
17.9989
28.3759
37.1578
43.9249
48.5023
50.9613
51.5932
50.86
49.3295
47.6039
46.2492
45.7352
46.3908
48.3786
51.6909
56.1646
61.5133
67.3696
73.3335
79.0195
84.0978
88.3245
91.5586
93.7653
95.0056
95.4155
95.178
94.4919
93.5409
92.468
91.3556
90.2143
88.9811
87.526
85.6667
83.19
79.8782
75.537
70.0235
63.2706
55.3048
46.2545
36.3475
25.8976
15.2793
4.89529
-4.86157
-13.6462
-21.1955
-27.3533
-32.0843
-35.4737
-37.714
-39.0794
-39.8915
-40.4823
-41.1561
-42.1585
-43.6523
-45.7048
-48.285
-51.2703
-54.4606
-57.5976
-60.3876
-62.5257
-63.721
-63.7214
-62.3375
-59.4641
-55.0972
-49.3461
-42.4363
-34.7022
-26.5688
-18.5215
-11.0655
-4.67851
0.238877
3.40914
4.71338
4.21106
2.13946
-1.10867
-5.0278
-9.05803
-12.6518
-15.3401
-16.7883
-16.8348
-15.5054
-13.0028
-9.67187
-5.94737
-2.29071
0.873864
3.21486
4.53314
4.78048
4.05565
2.57962
0.655129
-1.38258
-3.21566
-4.58667
-5.32881
-5.3798
-4.77876
-3.64837
-2.16617
-0.530731
1.07171
2.49515
3.65234
4.52214
5.14562
5.61247
6.04075
6.55351
7.25622
8.21816
9.46025
10.9508
12.6087
14.3143
15.9241
17.2888
18.2718
18.7643
18.6983
18.0528
16.8558
15.1801
13.1354
10.856
8.48772
6.17399
4.04284
2.19666
0.70482
-0.399962
-1.12157
-1.49698
-1.58981
-1.48185
-1.26345
-1.02369
-0.841482
-0.778252
-0.872963
-1.13987
-1.56911
-2.12988
-2.77568
-3.45098
-4.09825
-4.66462
-5.10725
-5.39698
-5.51985
-5.47642
-5.27942
-4.94997
-4.5133
-3.99456
-3.41535
-2.79158
-2.13274
-1.44252
-0.720634
0.0349119
0.825377
1.64942
2.50205
3.3745
4.25492
5.12948
5.98332
6.80116
7.56708
8.26367
8.87069
9.36386
9.71414
9.88807
9.84928
9.56129
8.99091
8.11159
6.9059
5.36628
3.49393
1.29601
-1.21779
-4.03803
-7.15627
-10.5628
-14.2413
-18.1606
-22.2664
-26.4738
-30.6642
-34.6884
-38.3759
-41.5517
-44.0571
-45.7735
-46.6422
-46.6804
-45.9855
-44.729
-43.1376
-41.464
-39.9525
-38.802
-38.1343
-37.9728
-38.2342
-38.7361
-39.2196
-39.3836
-38.9264
-37.5884
-35.1898
-31.6577
-27.0392
-21.4988
-15.3008
-8.77911
-2.30087
3.77291
9.12243
13.4965
16.7293
18.7453
19.5547
19.2398
17.9376
15.8213
13.0836
9.92372
6.54049
3.12832
-0.123207
-3.02941
-5.41197
-7.10321
-7.95344
-7.84058
-6.68002
-4.43173
-1.10161
3.26578
8.60466
14.8551
21.9975
30.0877
39.2873
49.8777
62.2512
76.8705
94.1955
114.579
138.141
164.639
193.359
223.049
251.922
277.745
298.024
310.259
312.259
302.461
280.209
245.945
201.282
148.916
92.4049
35.824
-16.6636
-61.2553
-94.9256
-115.752
-123.108
-117.708
-101.484
-77.3299
-48.7449
-19.417
7.19204
28.2126
41.6425
46.5039
42.8694
31.7653
14.9706
-5.25387
-26.4703
-46.3612
-62.9855
-74.9661
-81.5922
-82.8329
-79.2684
-71.9551
-62.2479
-51.6048
-41.3994
-32.7639
-26.478
-22.9121
-22.0278
-23.4274
-26.4421
-30.2438
-33.9634
-36.7995
-38.107
-37.4546
-34.6502
-29.7338
-22.9445
-14.6681
-5.37584
4.43694
14.3055
23.8369
32.7358
40.8137
47.9847
54.2489
59.6705
64.353
68.4152
71.9725
75.1229
77.9411
80.4766
82.7588
84.8032
86.62
88.2222
89.6313
90.8819
92.022
93.1124
94.2226
95.426
96.7923
98.3795
100.223
102.326
104.644
107.078
109.465
111.579
113.134
113.804
113.247
111.141
107.221
101.319
93.3951
83.555
72.0548
59.2828
45.7229
31.9047
18.3444
5.48777
-6.33867
-16.9581
-26.3533
-34.6536
-42.1013
-49.0041
-55.6802
-62.4038
-69.3601
-76.6151
-84.1029
-91.6329
-98.9139
-105.592
-111.294
-115.676
-118.466
-119.493
-118.71
-116.196
-112.147
-106.851
-100.655
-93.9282
-87.0254
-80.2507
-73.8348
-67.9202
-62.5596
-57.7242
-53.3228
-49.2255
-45.2915
-41.3937
-37.4407
-33.3896
-29.2516
-25.0888
-21.0025
-17.1177
-13.5636
-10.455
-7.87618
-5.86986
-4.43221
-3.51416
-3.02866
-2.86235
-2.88987
-2.98878
-3.05302
-3.00337
-2.79373
-2.41272
-1.88088
-1.24405
-0.564313
0.0903734
0.656196
1.08202
1.33546
1.4059
1.30447
1.06107
0.719382
0.330374
-0.0544249
-0.389219
-0.63894
-0.782458
-0.813772
-0.741218
-0.584986
-0.373419
-0.138671
0.0876562
0.278372
0.413603
0.482493
0.483599
0.424082
0.317899
0.183342
0.0402968
-0.0924131
-0.199268
-0.269643
-0.298617
-0.286983
-0.240526
-0.168735
-0.083101
0.00480017
0.0852963
0.152541
0.206218
0.252852
0.30649
0.388503
0.526264
0.750575
1.0919
1.57567
2.21732
3.01762
3.95928
5.00545
6.10078
7.17503
8.14917
8.94328
9.4853
9.71944
9.61304
9.16091
8.38646
7.33931
6.0898
4.72106
3.31969
1.96646
0.72812
-0.348521
-1.23947
-1.94323
-2.4775
-2.87352
-3.16927
-3.40256
-3.60525
-3.79937
-3.99562
-4.1942
-4.38761
-4.56452
-4.71392
-4.82854
-4.90694
-4.95374
-4.97808
-4.99054
-4.99944
-5.00704
-5.00682
-4.98228
-4.90782
-4.75151
-4.47958
-4.06164
-3.47603
-2.7141
-1.78287
-0.705302
0.481666
1.7314
2.99334
4.21965
5.37166
6.42538
7.37524
8.23569
9.04033
9.83887
10.6921
11.6659
12.8241
14.223
15.9057
17.8986
20.2105
22.832
25.7371
28.886
32.2267
35.6979
39.2302
42.7466
46.1639
49.3924
52.3373
54.9006
56.9845
58.4956
59.3504
59.4805
58.838
57.399
55.1655
52.1656
48.451
44.0941
39.1826
33.8148
28.0942
22.1255
16.0103
9.84481
3.7183
-2.28786
-8.09951
-13.648
-18.8675
-23.6905
-28.0427
-31.8357
-34.9583
-37.265
-38.5617
-38.5888
-37.004
-33.3689
-27.1456
-17.7128
-4.40788
13.3985
36.1948
64.1957
97.1979
134.45
174.562
215.489
254.602
288.87
315.127
330.421
332.384
319.584
291.793
250.133
197.059
136.178
71.9166
9.07721
-47.6666
-94.263
-127.705
-146.328
-149.947
-139.821
-118.45
-89.2418
-56.0899
-22.9207
6.73505
30.0949
45.3662
51.8536
49.9312
40.8919
26.7039
9.7101
-7.687
-23.3168
-35.4742
-43.0736
-45.711
-43.6377
-37.6557
-28.9578
-18.9361
-8.9869
-0.336547
6.09325
9.76737
10.5624
8.73791
4.86296
-0.287513
-5.85087
-10.9928
-15.007
-17.3881
-17.8715
-16.4391
-13.2938
-8.8098
-3.46735
2.21797
7.76229
12.7686
16.9653
20.224
22.559
24.1084
25.1027
25.8265
26.577
27.627
29.1945
31.4222
34.3686
38.0098
42.2505
46.9421
51.9046
56.9496
61.9012
66.613
70.9794
74.9402
78.4788
81.6154
84.3949
86.8735
89.1034
91.1195
92.9282
94.4987
95.7588
96.594
96.8514
96.3483
94.8863
92.2718
88.3391
82.9779
76.1585
67.953
58.5471
48.2403
37.4321
26.5942
16.2313
6.83365
-1.17214
-7.46971
-11.8897
-14.4319
-15.2702
-14.7366
-13.2885
-11.459
-9.79932
-8.81764
-8.92269
-10.379
-13.2784
-17.5315
-22.8788
-28.9206
-35.1615
-41.0642
-46.1066
-49.8358
-51.9137
-52.1488
-50.5121
-47.1351
-42.2916
-36.3654
-29.8079
-23.0914
-16.6625
-10.9013
-6.09029
-2.39596
0.13589
1.57153
2.06936
1.85192
1.17366
0.288827
-0.577138
-1.24931
-1.61644
-1.63481
-1.32325
-0.750933
-0.0202809
0.752385
1.45563
1.99875
2.32293
2.4066
2.26501
1.94454
1.51321
1.0489
0.627305
0.311375
0.143395
0.140792
0.295806
0.578744
0.944005
1.33775
1.70593
2.00151
2.18983
2.25168
2.18375
1.99689
1.71261
1.35868
0.964612
0.557784
0.16066
-0.210569
-0.545987
-0.840871
-1.09398
-1.30571
-1.47664
-1.60669
-1.69508
-1.74103
-1.74477
-1.70875
-1.63839
-1.5424
-1.4322
-1.32073
-1.22069
-1.14261
-1.09323
-1.07462
-1.08437
-1.11716
-1.16741
-1.23273
-1.31743
-1.43531
-1.61094
-1.87873
-2.27938
-2.85393
-3.63563
-4.64099
-5.86133
-7.25661
-8.75318
-10.2466
-11.6098
-12.706
-13.405
-13.6003
-13.2244
-12.2611
-10.7502
-8.78657
-6.51165
-4.09872
-1.73432
0.402074
2.15744
3.42113
4.13539
4.29939
3.96642
3.23503
2.23531
1.11239
0.00920717
-0.949196
-1.6682
-2.09151
-2.20394
-2.02897
-1.62205
-1.06058
-0.432237
0.176784
0.6922
1.05953
1.24873
1.25536
1.09836
0.815257
0.455466
0.0728215
-0.281648
-0.565846
-0.750971
-0.823744
-0.786455
-0.655042
-0.455652
-0.220282
0.0178694
0.228702
0.388683
0.483119
0.507099
0.465156
0.369945
0.240442
0.100263
-0.0232677
-0.098915
-0.0901629
0.0468743
0.365368
0.928292
1.80624
3.07152
4.78826
6.99914
9.71062
12.8792
16.4017
20.1124
23.789
27.1673
29.9641
31.9062
32.761
32.3652
30.648
27.6448
23.4995
18.4557
12.8366
7.01643
1.38681
-3.67865
-7.85672
-10.9008
-12.6579
-13.0755
-12.1959
-10.1411
-7.08797
-3.23598
1.23003
6.18019
11.5799
17.5261
24.2735
32.2434
42.0066
54.2325
69.602
88.686
111.8
138.854
169.225
201.67
234.325
264.785
290.283
307.96
315.182
309.888
290.903
258.174
212.897
157.494
95.4412
30.9663
-31.3625
-87.0997
-132.382
-164.328
-181.326
-183.178
-171.079
-147.447
-115.615
-79.4388
-42.8621
-9.50129
17.7122
36.7858
46.7959
47.8877
41.1533
28.4141
11.9385
-5.86344
-22.733
-36.8078
-46.7954
-52.0611
-52.6274
-49.0946
-42.4993
-34.1348
-25.3586
-17.413
-11.2788
-7.57677
-6.5247
-7.94891
-11.3429
-15.961
-20.9309
-25.3709
-28.4957
-29.7025
-28.6273
-25.1712
-19.4963
-11.9936
-3.23062
6.11584
15.3346
23.7551
30.8154
36.1195
39.4766
40.921
40.7087
39.292
37.2727
35.3378
34.1859
34.4494
36.6238
41.0112
47.6847
56.4795
67.0095
78.7091
90.8934
102.83
113.81
123.218
130.584
135.616
138.213
138.462
136.604
133.002
128.089
122.323
116.139
109.91
103.923
98.3557
93.2744
88.6382
84.3126
80.0923
75.7289
70.963
65.5566
59.3228
52.151
44.0236
35.0241
25.3341
15.2208
5.01479
-4.9183
-14.2103
-22.5237
-29.5811
-35.1892
-39.2536
-41.7828
-42.8823
-42.7385
-41.5956
-39.7269
-37.4066
-34.8824
-32.3545
-29.9618
-27.7765
-25.8072
-24.0095
-22.3017
-20.5823
-18.7491
-16.714
-14.415
-11.8227
-8.94087
-5.80384
-2.46908
0.990996
4.49772
7.97352
11.3471
14.5561
17.5474
20.2756
22.7006
24.7853
26.4942
27.7933
28.652
29.0455
28.9584
28.3883
27.3488
25.8709
24.0046
21.8178
19.3953
16.8362
14.2507
11.7556
9.46971
7.5065
5.96725
4.93241
4.45299
4.54271
5.17213
6.26611
7.70576
9.33547
10.975
12.4356
13.5391
14.1365
14.1251
13.4607
12.1633
10.3155
8.05304
5.54897
2.99266
0.567067
-1.57317
-3.31969
-4.62186
-5.49002
-5.99021
-6.23096
-6.34448
-6.46473
-6.70598
-7.14475
-7.80794
-8.66861
-9.65025
-10.6386
-11.4999
-12.1019
-12.3363
-12.1379
-11.498
-10.4707
-9.1702
-7.75968
-6.4325
-5.38862
-4.80868
-4.82923
-5.52238
-6.88285
-8.82422
-11.1853
-13.7458
-16.2502
-18.4355
-20.0612
-20.9358
-20.9384
-20.0312
-18.2628
-15.7609
-12.7169
-9.36365
-5.94962
-2.71289
0.142007
2.46205
4.15665
5.20087
5.63129
5.53545
5.0369
4.27769
3.4008
2.53433
1.77915
1.20111
0.828027
0.651479
0.632569
0.710584
0.813249
0.867157
0.807104
0.583319
0.165956
-0.453284
-1.26207
-2.2302
-3.31338
-4.45725
-5.6011
-6.6813
-7.63433
-8.40005
-8.92509
-9.16672
-9.09684
-8.70571
-8.0047
-7.02747
-5.82905
-4.48256
-3.07366
-1.6933
-0.429431
0.64126
1.46059
1.9942
2.23426
2.19926
1.931
1.48903
0.943566
0.367488
-0.171266
-0.616019
-0.925337
-1.07393
-1.05005
-0.849589
-0.467716
0.110331
0.917242
2.00826
3.46061
5.36678
7.82183
10.9059
14.6648
19.0906
24.1077
29.5637
35.2312
40.8172
45.9834
50.3723
53.64
55.4887
55.6994
54.1577
50.8717
45.9796
39.7443
32.5367
24.8069
17.0482
9.75468
3.3796
-1.70336
-5.23001
-7.06413
-7.20201
-5.762
-2.9597
0.929553
5.6179
10.8581
16.4975
22.5286
29.1278
36.6788
45.7695
57.1576
71.6978
90.2278
113.417
141.589
174.545
211.405
250.519
289.466
325.171
354.147
372.839
378.06
367.428
339.773
295.432
236.378
166.149
89.5728
12.3081
-59.7473
-121.099
-167.269
-195.3
-204.07
-194.394
-168.89
-131.631
-87.6357
-42.2684
-0.623989
33.0248
55.6512
65.725
63.27
49.7352
27.7064
0.507456
-28.2532
-55.1303
-77.2309
-92.5015
-99.8884
-99.3624
-91.8185
-78.873
-62.5948
-45.2078
-28.8054
-15.1098
-5.30191
0.0650566
1.06516
-1.67773
-7.12755
-14.0104
-20.9999
-26.8905
-30.7363
-31.9437
-30.3103
-26.0098
-19.5321
-11.5889
-3.00119
5.41595
12.957
19.1059
23.586
26.3749
27.6878
27.9324
27.6432
27.4048
27.7742
29.2105
32.0206
36.3273
42.0597
48.9689
56.6639
64.6621
72.4484
79.5344
85.5113
90.0892
93.1205
94.6045
94.6746
93.571
91.6031
89.1069
86.403
83.7595
81.3637
79.3049
77.5688
76.0437
74.5379
72.8062
70.582
67.6133
63.6978
58.7139
52.6418
45.5738
37.7091
29.3341
20.7891
12.4254
4.55959
-2.56823
-8.82647
-14.2075
-18.8249
-22.8918
-26.6853
-30.5001
-34.6013
-39.1814
-44.3294
-50.0155
-56.0925
-62.3146
-68.3689
-73.9142
-78.6232
-82.2198
-84.5099
-85.3985
-84.8962
-83.1112
-80.2318
-76.501
-72.1873
-67.5561
-62.8439
-58.2392
-53.8712
-49.8066
-46.0545
-42.5778
-39.3086
-36.1663
-33.0742
-29.9749
-26.8397
-23.6738
-20.515
-17.4285
-14.4962
-11.8048
-9.43318
-7.44109
-5.86053
-4.69139
-3.90143
-3.43044
-3.19804
-3.11368
-3.08758
-3.04093
-2.91408
-2.67183
-2.30507
-1.82906
-1.27865
-0.701369
-0.149472
0.328007
0.692136
0.919129
1.0031
0.956336
0.807339
0.596923
0.373115
0.185491
0.079679
0.0926804
0.249487
0.561297
1.02539
1.62651
2.33941
3.13215
3.96965
4.81706
5.6426
6.41968
7.12814
7.75456
8.29183
8.73802
9.09486
9.36606
9.55568
9.6667
9.70016
9.65458
9.52615
9.30924
8.99748
8.58504
8.06808
7.44602
6.72261
5.90631
5.01019
4.05104
3.04789
2.02011
0.985399
-0.0420207
-1.05271
-2.04255
-3.01241
-3.9672
-4.91425
-5.86161
-6.81629
-7.78258
-8.76048
-9.74395
-10.7191
-11.6623
-12.5392
-13.3042
-13.9025
-14.2737
-14.3578
-14.1026
-13.4718
-12.4523
-11.0595
-9.33938
-7.3667
-5.23981
-3.07199
-0.980806
0.923067
2.54628
3.82103
4.71016
5.20877
5.34233
5.1618
4.7366
4.14652
3.47329
2.79305
2.17007
1.6524
1.26944
1.03159
0.931546
0.947131
1.04503
1.18516
1.32516
1.42466
1.44905
1.37244
1.17973
0.86764
0.444782
-0.0691946
-0.645275
-1.24737
-1.83503
-2.3665
-2.80172
-3.10534
-3.24935
-3.21525
-2.9956
-2.59468
-2.02821
-1.32207
-0.509847
0.370593
1.28136
2.18926
3.07045
3.9145
4.72723
5.53178
6.36781
7.28863
8.35671
9.63802
11.1958
13.0842
15.3417
17.9854
21.0045
24.3548
27.9542
31.6794
35.3673
38.8197
41.8138
44.1186
45.5142
45.8142
44.887
42.6732
39.1962
34.5643
28.9632
22.6396
15.8777
8.97197
2.19939
-4.20436
-10.0625
-15.2655
-19.7705
-23.5916
-26.7835
-29.4214
-31.5807
-33.3185
-34.6589
-35.5836
-36.0245
-35.8584
-34.8992
-32.8879
-29.4809
-24.2411
-16.6414
-6.08859
8.02317
26.2238
48.8482
75.8972
106.901
140.814
175.965
210.094
240.492
264.227
278.461
280.8
269.637
244.449
205.97
156.238
98.4688
36.786
-24.177
-79.753
-125.734
-158.817
-176.957
-179.561
-167.527
-143.108
-109.626
-71.0745
-31.6686
4.61688
34.4519
55.4625
66.4136
67.2528
59.0161
43.6192
23.5639
1.60365
-19.5926
-37.7362
-51.1447
-58.8758
-60.7624
-57.3529
-49.7726
-39.5293
-28.2913
-17.6676
-9.0151
-3.29476
-0.98826
-2.08012
-6.1011
-12.222
-19.3821
-26.4346
-32.289
-36.0367
-37.0448
-35.0102
-29.9735
-22.2912
-12.5755
-1.60986
9.74762
20.6618
30.4071
38.4352
44.4172
48.2585
50.0863
50.2145
49.092
47.2418
45.1994
43.4575
42.4227
42.3883
43.523
45.8753
49.3897
53.9303
59.308
65.3053
71.698
78.2692
84.8174
91.1586
97.124
102.557
107.31
111.245
114.233
116.164
116.951
116.543
114.921
112.108
108.164
103.175
97.2481
90.4984
83.0443
75.0016
66.4837
57.6051
48.4854
39.2537
30.0503
21.0237
12.3235
4.09
-3.55922
-10.5419
-16.821
-22.4088
-27.3652
-31.7878
-35.7967
-39.5149
-43.0485
-46.4689
-49.8026
-53.0282
-56.0837
-58.8822
-61.3322
-63.3602
-64.9279
-66.042
-66.7524
-67.1382
-67.2855
-67.2583
-67.0726
-66.6772
-65.9479
-64.6981
-62.7062
-59.7547
-55.6769
-50.4014
-43.987
-36.6399
-28.7099
-20.6631
-13.0343
-6.36644
-1.14281
2.27509
3.69721
3.13368
0.798542
-2.91229
-7.46606
-12.2551
-16.6679
-20.1591
-22.3114
-22.8795
-21.8128
-19.2529
-15.5091
-11.0123
-6.25785
-1.74131
2.10138
4.94408
6.60377
7.05427
6.41925
4.94681
2.96974
0.857434
-1.03393
-2.40648
-3.05553
-2.89046
-1.93985
-0.341046
1.68324
3.85777
5.89211
7.51747
8.51851
8.75645
8.18152
6.83406
4.8353
2.36985
-0.337122
-3.04514
-5.52285
-7.56942
-9.0309
-9.81081
-9.87448
-9.24773
-8.01063
-6.28737
-4.23364
-2.02252
0.169745
2.1773
3.8565
5.0955
5.82098
6.00192
5.65018
4.8181
3.59339
2.09163
0.447151
-1.19726
-2.70108
-3.9364
-4.79736
-5.20791
-5.12743
-4.55374
-3.52316
-2.10753
-0.40827
1.45214
3.3406
5.12483
6.68473
7.92248
8.77042
9.19585
9.20233
8.82736
8.13681
7.21682
6.16393
5.07485
4.03668
3.11894
2.36793
1.80419
1.42303
1.19799
1.08674
1.03846
1.00187
0.932689
0.799672
0.58836
0.302184
-0.0391732
-0.403809
-0.753389
-1.0498
-1.26169
-1.37003
-1.37175
-1.28118
-1.12894
-0.958463
-0.820744
-0.767929
-0.846748
-1.09266
-1.52547
-2.147
-2.94075
-3.87331
-4.89673
-5.95109
-6.96665
-7.86531
-8.56165
-8.96433
-8.97859
-8.51081
-7.47541
-5.80386
-3.45497
-0.424927
3.24484
7.46352
12.0921
16.9502
21.8293
26.5094
30.7791
34.4556
37.4021
39.5405
40.8574
41.4034
41.2844
40.6469
39.6602
38.4955
37.3066
36.2138
35.2925
34.5688
34.0205
33.5848
33.1704
32.6718
31.9844
31.0186
29.71
28.0261
25.9686
23.5714
20.8947
18.018
15.0305
12.0224
9.07826
6.2724
3.67064
1.33883
-0.639385
-2.13562
-2.94271
-2.73934
-1.06217
2.70288
9.29853
19.5343
34.1817
53.8328
78.7365
108.638
142.65
179.187
215.99
250.249
278.834
298.604
306.778
301.296
281.141
246.563
199.157
141.788
78.3547
13.4163
-48.269
-102.241
-144.805
-173.409
-186.891
-185.556
-171.09
-146.317
-114.841
-80.6104
-47.4796
-18.797
2.91508
16.1647
20.5615
16.7551
6.2594
-8.80751
-26.0298
-43.0058
-57.6281
-68.3002
-74.0716
-74.6805
-70.5106
-62.4739
-51.8427
-40.0547
-28.5201
-18.4514
-10.7366
-5.86503
-3.91106
-4.56967
-7.23566
-11.1113
-15.3263
-19.0546
-21.6126
-22.5306
-21.5897
-18.8238
-14.4893
-9.00986
-2.90369
3.29508
9.11161
14.1924
18.3472
21.5655
24.008
25.9732
27.8475
30.0434
32.9371
36.8137
41.8271
47.9797
55.1249
62.9891
71.2119
79.3945
87.1515
94.1572
100.18
105.1
108.911
111.706
113.647
114.933
115.763
116.305
116.67
116.907
116.995
116.858
116.378
115.414
113.82
111.46
108.215
103.995
98.7408
92.4278
85.0742
76.7466
67.5672
57.7192
47.4473
37.052
26.8753
17.2789
8.61618
1.19957
-4.7306
-9.03317
-11.6841
-12.7824
-12.543
-11.2757
-9.35414
-7.17657
-5.12516
-3.5275
-2.62557
-2.5557
-3.34146
-4.89978
-7.05893
-9.5855
-12.2164
-14.6922
-16.7865
-18.3302
-19.2257
-19.4521
-19.0606
-18.162
-16.908
-15.4698
-14.0163
-12.695
-11.618
-10.8534
-10.4234
-10.3082
-10.454
-10.7851
-11.216
-11.6635
-12.0562
-12.3414
-12.488
-12.4864
-12.3446
-12.0838
-11.7317
-11.3168
-10.8633
-10.3872
-9.89526
-9.38446
-8.84448
-8.26064
-7.6178
-6.90442
-6.11599
-5.25751
-4.34453
-3.4026
-2.46531
-1.571
-0.758708
-0.0638972
0.48553
0.872391
1.0922
1.15377
1.07864
0.899354
0.657352
0.400503
0.180807
0.0522016
0.068324
0.279948
0.731801
1.45864
2.48075
3.79935
5.39253
7.21269
9.18616
11.2157
13.1858
14.9713
16.4472
17.5009
18.0428
18.0163
17.4049
16.2355
14.5772
12.5364
10.2468
7.85793
5.52031
3.3718
1.52485
0.0570708
-0.994017
-1.63147
-1.89467
-1.85113
-1.58552
-1.18749
-0.740063
-0.310152
0.0576838
0.34339
0.54948
0.695511
0.81005
0.921545
1.04969
1.19871
1.35369
1.48051
1.5294
1.44144
1.15705
0.624988
-0.18945
-1.29822
-2.68722
-4.31606
-6.12092
-8.01973
-9.91895
-11.721
-13.3313
-14.6649
-15.6515
-16.2393
-16.3973
-16.1166
-15.4109
-14.3153
-12.8848
-11.1915
-9.32073
-7.36631
-5.42469
-3.58872
-1.94131
-0.549557
0.539931
1.30412
1.7445
1.8859
1.77313
1.46584
1.03225
0.54231
0.0610618
-0.356983
-0.672039
-0.861367
-0.919603
-0.857208
-0.697335
-0.471543
-0.214888
0.0391127
0.263151
0.439996
0.565201
0.648352
0.712701
0.793161
0.932834
1.17841
1.57499
2.16091
2.96331
3.99498
5.25297
6.71891
8.36061
10.1344
11.9869
13.8562
15.6713
17.3517
18.8064
19.9348
20.6309
20.7901
20.3193
19.1502
17.2513
14.6398
11.3888
7.6281
3.53927
-0.656807
-4.71798
-8.40257
-11.4923
-13.8133
-15.2527
-15.7683
-15.3894
-14.2075
-12.3565
-9.98244
-7.20263
-4.0596
-0.472941
3.80205
9.19956
16.3421
26.004
39.0338
56.2366
78.2224
105.238
137.002
172.579
210.309
247.84
282.257
310.334
328.865
335.063
326.958
303.73
265.936
215.574
155.957
91.4204
26.8761
-32.714
-82.8865
-120.169
-142.448
-149.178
-141.385
-121.491
-92.981
-59.949
-26.6032
3.21751
26.4521
41.1053
46.3877
42.6999
31.4761
14.9146
-4.35959
-23.6548
-40.5477
-53.155
-60.3119
-61.6466
-57.5482
-49.0442
-37.6099
-24.9407
-12.718
-2.39918
4.94485
8.72887
8.88295
5.81509
0.317884
-6.56387
-13.6847
-19.9487
-24.4392
-26.5155
-25.866
-22.5167
-16.7976
-9.27523
-0.663549
8.27504
16.8241
24.3929
30.5723
35.1629
38.1754
39.8043
40.3839
40.3313
40.0871
40.0605
40.5846
41.888
44.0814
47.1613
51.026
55.5017
60.371
65.4023
70.3731
75.087
79.3815
83.1305
86.2399
88.6414
90.2867
91.1428
91.1905
90.4254
88.8608
86.5305
83.4892
79.8104
75.5809
70.8925
65.8332
60.4805
54.8971
49.1327
43.229
37.229
31.1872
25.1777
19.2988
13.6711
8.42882
3.70501
-0.38751
-3.77607
-6.44525
-8.44757
-9.90519
-11.0014
-11.9624
-13.0316
-14.4402
-16.3777
-18.9664
-22.2451
-26.1613
-30.5756
-35.276
-40.0001
-44.4632
-48.3871
-51.5276
-53.697
-54.7791
-54.7359
-53.6056
-51.493
-48.5538
-44.976
-40.9599
-36.7008
-32.375
-28.1322
-24.0925
-20.3491
-16.9747
-14.0285
-11.5631
-9.628
-8.26868
-7.52155
-7.40479
-7.90762
-8.98042
-10.5283
-12.4106
-14.447
-16.4306
-18.1469
-19.3952
-20.0107
-19.8838
-18.9728
-17.3102
-14.9996
-12.205
-9.13306
-6.01083
-3.062
-0.484085
1.57051
3.00756
3.79701
3.97153
3.61827
2.86524
1.86423
0.772466
-0.264686
-1.12816
-1.73528
-2.04473
-2.05629
-1.80591
-1.35706
-0.789862
-0.189416
0.365119
0.809535
1.10074
1.21967
1.17092
0.979518
0.68552
0.337361
-0.0151198
-0.327051
-0.563586
-0.703141
-0.738611
-0.676599
-0.534978
-0.339275
-0.118489
0.099021
0.289023
0.43386
0.523651
0.556258
0.53623
0.473048
0.379066
0.267529
0.150942
0.0399653
-0.0571315
-0.134513
-0.188461
-0.216834
-0.218456
-0.192487
-0.137848
-0.0526823
0.0661364
0.223402
0.425787
0.681705
1.00062
1.39167
1.86143
2.41109
3.03317
3.70833
4.40302
5.06876
5.64364
6.05662
6.23452
6.11103
5.63676
4.78871
3.57757
2.05144
0.294943
-1.57653
-3.42709
-5.11408
-6.50343
-7.48487
-7.98484
-7.97529
-7.4772
-6.55815
-5.32432
-3.90783
-2.45115
-1.09062
0.0588524
0.916033
1.44112
1.63822
1.5524
1.26211
0.867805
0.478714
0.19924
0.116827
0.292716
0.756587
1.50555
2.50736
3.70715
5.03669
6.42471
7.80709
9.13552
10.3838
11.5514
12.6634
13.7687
14.934
16.238
17.7626
19.584
21.764
24.3417
27.3263
30.6927
34.3791
38.2869
42.2839
46.2089
49.8784
53.0949
55.6577
57.3748
58.0774
57.6349
55.9698
53.07
48.9982
43.8936
37.9671
31.4889
24.7679
18.1267
11.8725
6.26972
1.51513
-2.27947
-5.096
-7.00862
-8.17216
-8.80125
-9.14224
-9.44002
-9.90192
-10.661
-11.7402
-13.0196
-14.2091
-14.8306
-14.2138
-11.5142
-5.75833
4.07669
18.9491
39.6066
66.4222
99.2304
137.19
178.706
221.431
262.371
298.102
325.084
340.042
340.372
324.523
292.277
244.91
185.166
117.061
45.5163
-24.1282
-86.6676
-137.581
-173.502
-192.561
-194.544
-180.862
-154.34
-118.841
-78.8073
-38.741
-2.72173
26.0021
45.2974
54.2814
53.3024
43.7799
27.9353
8.45268
-11.8822
-30.5212
-45.4321
-55.2874
-59.5512
-58.4603
-52.9137
-44.2907
-34.2276
-24.3834
-16.2233
-10.8468
-8.87584
-10.4112
-15.0572
-22.0048
-30.1577
-38.2833
-45.1686
-49.7621
-51.2871
-49.3156
-43.7984
-35.05
-23.6949
-10.5835
3.31106
17.0024
29.5937
40.3637
48.8279
54.7692
58.2379
59.5246
59.1092
57.597
55.6478
53.9081
52.9519
53.2357
55.0691
58.602
63.8273
70.5959
78.6405
87.6064
97.084
106.643
115.861
124.353
131.794
137.93
142.591
145.691
147.224
147.253
145.891
143.284
139.59
134.959
129.514
123.345
116.503
109.008
100.857
92.0468
82.5933
72.5534
62.0421
51.2416
40.4011
29.8255
19.853
10.826
3.05584
-3.21099
-7.82319
-10.7457
-12.0689
-12.0045
-10.8671
-9.04496
-6.96173
-5.03472
-3.63405
-3.04757
-3.45547
-4.91682
-7.36939
-10.6418
-14.4762
-18.5585
-22.552
-26.1311
-29.0117
-30.9746
-31.8815
-31.6806
-30.4049
-28.1616
-25.116
-21.4721
-17.4512
-13.2723
-9.13439
-5.20279
-1.60062
1.59527
4.35342
6.68284
8.62473
10.242
11.6077
12.7937
13.8604
14.849
15.7766
16.6351
17.3933
18.003
18.4067
18.5478
18.3795
17.8741
17.0286
15.8676
14.4428
12.8289
11.116
9.40091
7.77686
6.32436
5.10332
4.14801
3.46532
3.03625
2.8204
2.76261
2.80087
2.87421
2.92963
2.92733
2.84352
2.671
2.41736
2.10168
1.75016
1.39142
1.05226
0.754289
0.511761
0.330774
0.209662
0.14039
0.110527
0.105416
0.110112
0.110795
0.0954654
0.0539362
-0.022762
-0.143291
-0.316935
-0.554258
-0.86726
-1.2689
-1.77201
-2.38771
-3.12357
-3.98193
-4.95863
-6.04255
-7.21607
-8.45652
-9.73829
-11.0353
-12.3234
-13.5816
-14.7931
-15.9442
-17.0228
-18.0155
-18.9054
-19.67
-20.2805
-20.7028
-20.9003
-20.8385
-20.49
-19.8401
-18.8907
-17.6635
-16.2002
-14.5605
-12.8175
-11.0516
-9.34307
-7.76528
-6.37796
-5.22285
-4.32122
-3.67373
-3.2624
-3.05417
-3.00544
-3.06706
-3.18904
-3.32461
-3.43341
-3.48371
-3.45359
-3.33133
-3.11506
-2.81183
-2.43618
-2.00842
-1.55262
-1.09443
-0.658856
-0.268081
0.0605893
0.316478
0.496859
0.607661
0.6634
0.686252
0.704263
0.748901
0.852226
1.04408
1.3497
1.78813
2.37153
3.10556
3.99048
5.02285
6.19703
7.50644
8.944
10.5017
12.1695
13.9341
15.7773
17.6756
19.5997
21.5146
23.3803
25.1518
26.7791
28.2063
29.3718
30.209
30.6491
30.6271
30.0891
29.0031
27.3688
25.2264
22.661
19.801
16.8099
13.8711
11.1678
8.86037
7.06519
5.83748
5.16218
4.95412
5.06818
5.31856
5.50497
5.44278
4.99429
4.09838
2.79689
1.25672
-0.21338
-1.15234
-0.945598
1.16266
6.03797
14.5987
27.7293
46.1636
70.3434
100.266
135.344
174.297
215.117
255.115
291.081
319.544
337.123
340.926
328.945
300.394
255.928
197.696
129.216
55.0627
-19.5807
-89.4698
-149.859
-197.008
-228.561
-243.756
-243.436
-229.87
-206.412
-177.046
-145.895
-116.738
-92.6127
-75.5417
-66.4018
-64.9498
-69.9807
-79.5897
-91.4939
-103.367
-113.145
-119.263
-120.809
-117.569
-109.986
-99.0305
-86.0223
-72.4228
-59.6306
-48.8059
-40.7443
-35.8094
-33.9275
-34.6389
-37.1922
-40.6672
-44.1063
-46.6387
-47.5826
-46.514
-43.2986
-38.0853
-31.2643
-23.4002
-15.1479
-7.16311
-0.0191109
5.86184
10.2546
13.1504
14.7491
15.4252
15.6747
16.0485
17.0834
19.2374
22.8395
28.0579
34.8914
43.1815
52.6439
62.9121
73.5862
84.28
94.6597
104.469
113.542
121.792
129.205
135.805
141.632
146.716
151.056
154.611
157.305
159.029
159.663
159.096
157.238
154.042
149.503
143.66
136.592
128.402
119.209
109.138
98.3166
86.8719
74.9392
62.667
50.2254
37.8091
25.6357
13.9366
2.94148
-7.14263
-16.1529
-23.9901
-30.632
-36.1367
-40.6353
-44.3138
-47.3863
-50.0627
-52.5171
-54.8609
-57.1246
-59.2538
-61.1175
-62.53
-63.2818
-63.1758
-62.0621
-59.8674
-56.6131
-52.4205
-47.5022
-42.1405
-36.6563
-31.3735
-26.5825
-22.5097
-19.2942
-16.9765
-15.4998
-14.721
-14.4331
-14.3926
-14.3506
-14.0822
-13.4132
-12.2383
-10.5319
-8.34868
-5.81555
-3.11524
-0.464288
1.91235
3.80735
5.05495
5.55055
5.264
4.24524
2.62187
0.588698
-1.60969
-3.70171
-5.4146
-6.50082
-6.76234
-6.07039
-4.37879
-1.72948
1.75021
5.85823
10.3353
14.8873
19.2105
23.0169
26.0574
28.1407
29.1462
29.03
27.8247
25.6315
22.6089
18.9568
14.8992
10.6675
6.48461
2.55206
-0.959569
-3.9174
-6.22989
-7.84808
-8.7651
-9.01415
-8.6653
-7.82103
-6.61033
-5.18114
-3.69095
-2.29571
-1.13767
-0.332835
0.0404376
-0.0495037
-0.582504
-1.48662
-2.64405
-3.90312
-5.09562
-6.05786
-6.65307
-6.79224
-6.45011
-5.67362
-4.58072
-3.34879
-2.19357
-1.34104
-0.995892
-1.31117
-2.36354
-4.13803
-6.52477
-9.32841
-12.2892
-15.1128
-17.5051
-19.2067
-20.0233
-19.8473
-18.6688
-16.5737
-13.7311
-10.3709
-6.75563
-3.14964
0.208929
3.13108
5.49159
7.23415
8.36714
8.95153
9.08331
8.87348
8.42877
7.83582
7.15101
6.3971
5.56694
4.63354
3.56496
2.34159
0.973222
-0.487401
-1.93718
-3.22365
-4.15521
-4.52025
-4.11294
-2.76233
-0.360567
3.11419
7.58411
12.8699
18.7014
24.7407
30.6139
35.948
40.4094
43.7371
45.7684
46.4533
45.8562
44.1446
41.5673
38.4244
35.0326
31.6911
28.6509
26.0909
24.1039
22.6928
21.7774
21.2094
20.7951
20.3202
19.5765
18.3852
16.6156
14.1977
11.1264
7.45939
3.30764
-1.17891
-5.82824
-10.4634
-14.9175
-19.0442
-22.7236
-25.8627
-28.3921
-30.2603
-31.428
-31.8619
-31.5307
-30.3983
-28.4151
-25.5015
-21.5239
-16.2643
-9.39098
-0.43996
11.1781
26.1329
45.0831
68.5395
96.6948
129.246
165.241
202.994
240.097
273.557
300.055
316.312
319.512
307.729
280.285
237.974
183.115
119.405
51.5814
-15.0657
-75.2687
-124.371
-158.848
-176.692
-177.613
-163.023
-135.826
-100.025
-60.227
-21.088
13.2128
39.4129
55.4686
60.6925
55.7187
42.3128
23.0619
0.992086
-20.8353
-39.6949
-53.496
-60.9759
-61.7756
-56.3975
-46.0614
-32.487
-17.6342
-3.43824
8.42673
16.7309
20.8001
20.5488
16.438
9.37042
0.541159
-8.73307
-17.184
-23.74
-27.637
-28.4815
-26.263
-21.3183
-14.2575
-5.86263
3.02546
11.617
19.2676
25.5468
30.2729
33.5147
35.5598
36.8578
37.9459
39.3683
41.5999
44.9839
49.6911
55.7042
62.8285
70.7249
78.961
87.0723
94.6235
101.264
106.77
111.064
114.222
116.45
118.052
119.379
120.779
122.537
124.832
127.7
131.012
134.479
137.665
140.034
140.998
139.986
136.514
130.246
121.055
109.05
94.5886
78.2608
60.8429
43.2305
26.355
11.0936
-1.81774
-11.8562
-18.7619
-22.5577
-23.5389
-22.232
-19.3298
-15.61
-11.848
-8.73456
-6.80671
-6.40101
-7.63216
-10.3986
-14.4129
-19.2511
-24.4146
-29.396
-33.7403
-37.0956
-39.2462
-40.1273
-39.8199
-38.5276
-36.5413
-34.1958
-31.824
-29.7168
-28.0908
-27.069
-26.6749
-26.84
-27.4222
-28.232
-29.062
-29.716
-30.0329
-29.9045
-29.2833
-28.1819
-26.6648
-24.8336
-22.8093
-20.7142
-18.6552
-16.7119
-14.9291
-13.3152
-11.8467
-10.4761
-9.14336
-7.78845
-6.36331
-4.84142
-3.22397
-1.54176
0.147219
1.76417
3.21875
4.41994
5.2871
5.75978
5.80516
5.42245
4.64388
3.53247
2.17684
0.683895
-0.829985
-2.24824
-3.4632
-4.38409
-4.94343
-5.10141
-4.84793
-4.20229
-3.21068
-1.94171
-0.48048
1.07834
2.63782
4.10588
5.40175
6.46121
7.24045
7.71828
7.89651
7.79874
7.46761
6.96067
6.34545
5.69373
5.07572
4.55429
4.17988
3.98626
3.98773
4.17782
4.52993
4.99966
5.52897
6.05171
6.50002
6.81121
6.9342
6.83498
6.50036
5.93961
5.18356
4.28114
3.29375
2.28782
1.32668
0.462774
-0.268635
-0.85311
-1.29744
-1.62658
-1.87759
-2.0915
-2.30449
-2.53983
-2.80217
-3.07504
-3.32251
-3.49481
-3.53745
-3.40243
-3.05991
-2.50843
-1.78164
-0.950319
-0.118771
0.584267
1.01934
1.05298
0.575367
-0.483542
-2.1414
-4.35638
-7.0267
-9.99713
-13.0719
-16.0327
-18.6599
-20.7543
-22.1567
-22.7639
-22.5383
-21.5102
-19.7737
-17.4753
-14.7976
-11.9405
-9.10093
-6.45386
-4.13741
-2.24229
-0.807044
0.18078
0.778361
1.07717
1.18999
1.23714
1.33354
1.57801
2.04597
2.78578
3.81884
5.14276
6.73668
8.56771
10.5972
12.7857
15.0968
17.4972
19.9561
22.4421
24.9183
27.3388
29.6448
31.763
33.6069
35.0797
36.0811
36.5147
36.2978
35.37
33.701
31.2959
28.1974
24.4835
20.263
15.6668
10.8381
5.92138
1.05218
-3.65091
-8.09181
-12.199
-15.9243
-19.2391
-22.1288
-24.5859
-26.6042
-28.1726
-29.2704
-29.8601
-29.8796
-29.2284
-27.7488
-25.2031
-21.2513
-15.4353
-7.18194
4.16725
19.2915
38.7885
63.041
92.0649
125.363
161.813
199.613
236.327
269.022
294.523
309.743
312.074
299.767
272.257
230.369
176.363
113.803
47.2474
-18.2052
-77.4526
-125.948
-160.204
-178.17
-179.443
-165.281
-138.416
-102.703
-62.6459
-22.8694
12.3996
39.7767
57.0393
63.2901
58.9537
45.6186
25.7544
2.3476
-21.4929
-42.9113
-59.6168
-70.1
-73.7354
-70.7688
-62.2003
-49.5877
-34.8022
-19.7692
-6.22946
4.45338
11.4192
14.3623
13.5092
9.53156
3.41405
-3.70268
-10.6806
-16.5239
-20.4838
-22.1182
-21.3046
-18.21
-13.2256
-6.88196
0.244129
7.61666
14.8101
21.5547
27.7542
33.4758
38.917
44.3559
50.0934
56.3956
63.4455
71.3093
79.9211
89.0879
98.5127
107.831
116.658
124.631
131.457
136.945
141.02
143.735
145.255
145.835
145.788
145.45
145.138
145.12
145.583
146.615
148.194
150.188
152.36
154.389
155.887
156.429
155.59
152.974
148.26
141.229
131.802
120.058
106.247
90.7865
74.2402
57.2829
40.65
25.0786
11.2434
-0.302617
-9.17949
-15.2144
-18.4566
-19.1695
-17.8014
-14.938
-11.2412
-7.38254
-3.977
-1.52658
-0.377751
-0.697769
-2.47107
-5.5152
-9.51323
-14.0582
-18.7037
-23.0155
-26.6165
-29.2233
-30.6684
-30.9075
-30.0138
-28.158
-25.5808
-22.5595
-19.3744
-16.2788
-13.475
-11.1002
-9.22047
-7.83528
-6.88806
-6.28254
-5.901
-5.62224
-5.33694
-4.95887
-4.43133
-3.72878
-2.85434
-1.83449
-0.712107
0.460736
1.62922
2.74079
3.7485
4.61287
5.30264
5.79497
6.0756
6.13918
5.98997
5.64264
5.12271
4.4663
3.71867
2.93142
2.1585
1.45151
0.855012
0.402822
0.116015
0.00312941
0.0625634
0.286592
0.665923
1.19349
1.86625
2.68415
3.64624
4.74456
5.95723
7.24256
8.53605
9.7517
10.7882
11.5401
11.9113
11.8314
11.2686
10.2406
8.81825
7.12248
5.31435
3.57819
2.10071
1.0483
0.545419
0.657158
1.37811
2.62936
4.26411
6.08154
7.84738
9.31901
10.2721
10.5261
9.96547
8.55435
6.34356
3.46843
0.13834
-3.38156
-6.79459
-9.80092
-12.1274
-13.5564
-13.9501
-13.2687
-11.578
-9.04719
-5.93491
-2.56502
0.705385
3.52248
5.5725
6.61476
6.5068
5.21912
2.83746
-0.447171
-4.35967
-8.57055
-12.7306
-16.507
-19.6154
-21.8472
-23.086
-23.3144
-22.6095
-21.1282
-19.0857
-16.7287
-14.3083
-12.055
-10.1597
-8.76142
-7.94303
-7.73337
-8.11477
-9.03279
-10.4063
-12.1361
-14.1109
-16.2114
-18.3128
-20.2877
-22.0097
-23.3588
-24.2286
-24.5354
-24.2257
-23.284
-21.7365
-19.6518
-17.137
-14.3295
-11.386
-8.46897
-5.73233
-3.30855
-1.29755
0.240994
1.29161
1.88314
2.08519
2.00153
1.76094
1.50652
1.38407
1.53056
2.06343
3.07154
4.60848
6.68877
9.28724
12.3417
15.7581
19.4179
23.1864
26.9199
30.4736
33.7065
36.4865
38.694
40.2257
40.9992
40.9567
40.0704
38.3465
35.8276
32.594
28.7608
24.4734
19.8984
15.2142
10.599
6.2202
2.22356
-1.27384
-4.18881
-6.47346
-8.11309
-9.12012
-9.52308
-9.3495
-8.60161
-7.22453
-5.06945
-1.85778
2.8442
9.62786
19.2103
32.3599
49.7785
71.9503
98.974
130.408
165.158
201.435
236.811
268.378
293.009
307.694
309.915
298.011
271.473
231.126
179.154
118.96
54.8609
-8.3389
-65.8563
-113.443
-147.844
-167.14
-170.927
-160.318
-137.766
-106.735
-71.2708
-35.5209
-3.27173
22.4443
39.6272
47.4461
46.2292
37.3156
22.8011
5.21443
-12.8287
-28.9512
-41.2809
-48.6311
-50.5813
-47.4566
-40.2186
-30.2888
-19.3309
-9.02293
-0.845944
4.08593
5.1386
2.20539
-4.31098
-13.5739
-24.4325
-35.5673
-45.6439
-53.4575
-58.0524
-58.8074
-55.4802
-48.2096
-37.48
-24.0526
-8.87421
7.02529
22.6371
37.0677
49.6143
59.8171
67.4819
72.6762
75.6992
77.0307
77.2673
77.0515
77.0029
77.6579
79.4226
82.5437
87.0971
92.9952
100.009
107.801
115.97
124.091
131.761
138.63
144.432
148.998
152.258
154.233
155.022
154.768
153.637
151.781
149.318
146.308
142.744
138.555
133.616
127.776
120.885
112.829
103.56
93.1177
81.6477
69.3966
56.7002
43.9559
31.5875
20.004
9.56062
0.524234
-6.94947
-12.8266
-17.1916
-20.23
-22.2023
-23.4095
-24.1586
-24.7287
-25.3452
-26.1613
-27.2507
-28.6108
-30.1739
-31.8256
-33.4271
-34.8379
-35.9358
-36.6332
-36.8867
-36.7
-36.1203
-35.2295
-34.1307
-32.9338
-31.7401
-30.63
-29.6531
-28.8236
-28.1205
-27.4921
-26.8652
-26.1561
-25.2836
-24.1804
-22.8032
-21.1388
-19.2066
-17.0558
-14.7595
-12.4053
-10.0843
-7.88048
-5.86081
-4.06942
-2.5247
-1.22079
-0.132537
0.777011
1.54786
2.21464
2.79988
3.30996
3.73438
4.04833
4.21797
4.20761
3.9873
3.53981
2.86578
1.98633
0.942876
-0.205712
-1.38815
-2.52724
-3.54701
-4.37971
-4.97201
-5.28964
-5.32025
-5.07413
-4.58283
-3.8958
-3.0755
-2.19132
-1.31317
-0.50523
0.179563
0.703546
1.04673
1.20727
1.20012
1.05407
0.807573
0.503975
0.186553
-0.105927
-0.342793
-0.503809
-0.580153
-0.574018
-0.497032
-0.367771
-0.208755
-0.0433108
0.107297
0.226181
0.302366
0.331453
0.315444
0.261845
0.182268
0.0907453
0.00202225
-0.0699624
-0.113213
-0.118297
-0.0783787
0.0112954
0.154322
0.354224
0.615364
0.943345
1.34461
1.8251
2.38799
3.03078
3.74217
4.49934
5.26625
5.99351
6.62029
7.07811
7.29654
7.21027
6.76675
5.9339
4.70679
3.11268
1.21354
-0.894592
-3.08582
-5.21226
-7.1152
-8.63872
-9.64447
-10.026
-9.72076
-8.71851
-7.06425
-4.85575
-2.2351
0.62442
3.53501
6.3124
8.7932
10.8496
12.3998
13.4125
13.9068
13.9452
13.6237
13.0587
12.3726
11.6817
11.0848
10.6573
10.4479
10.4799
10.7563
11.2661
11.9923
12.92
14.0413
15.3598
16.8897
18.6535
20.6745
22.9685
25.5327
28.3358
31.3094
34.3431
37.2849
39.9473
42.1183
43.5793
44.1244
43.583
41.8399
38.852
34.6593
29.3876
23.243
16.4973
9.46705
2.48649
-4.121
-10.071
-15.1415
-19.1903
-22.1618
-24.0856
-25.0647
-25.2554
-24.8428
-24.013
-22.9268
-21.6964
-20.368
-18.9089
-17.1991
-15.0262
-12.0806
-7.95408
-2.14264
5.93988
16.9305
31.4621
50.0801
73.1342
100.651
132.208
166.821
202.89
238.205
270.051
295.408
311.246
314.878
304.342
278.74
238.49
185.433
122.768
54.8088
-13.4261
-76.725
-130.247
-170.057
-193.556
-199.762
-189.387
-164.724
-129.343
-87.6526
-44.3784
-4.03224
29.5667
53.6603
66.7737
68.7719
60.7564
44.8261
23.7417
0.541514
-21.84
-40.9057
-54.8448
-62.6752
-64.2703
-60.2807
-51.9675
-40.9782
-29.0985
-18.0117
-9.09688
-3.28431
-0.983031
-2.08
-6.00486
-11.8453
-18.4937
-24.8036
-29.7358
-32.4772
-32.5204
-29.698
-24.172
-16.3842
-6.97824
3.29536
13.6767
23.4845
32.1855
39.4377
45.1061
49.2516
52.0983
53.9849
55.3084
56.4682
57.8167
59.6225
62.0475
65.1401
68.8428
73.0117
77.4434
81.906
86.171
90.04
93.3666
96.0699
98.1392
99.6305
100.654
101.357
101.901
102.434
103.071
103.87
104.814
105.808
106.672
107.157
106.961
105.758
103.235
99.1282
93.2627
85.5811
76.1651
65.2396
53.162
40.3939
27.4608
14.9038
3.22865
-7.1403
-15.8966
-22.8741
-28.0527
-31.549
-33.5918
-34.4883
-34.5839
-34.2224
-33.71
-33.2878
-33.1149
-33.2629
-33.722
-34.4159
-35.2225
-35.9985
-36.6024
-36.915
-36.8538
-36.3805
-35.5016
-34.2625
-32.7372
-31.0149
-29.1865
-27.3315
-25.5094
-23.7539
-22.0721
-20.4474
-18.8462
-17.2258
-15.5435
-13.7651
-11.8705
-9.85796
-7.74396
-5.56137
-3.35477
-1.17474
0.927931
2.90742
4.72638
6.35761
7.78383
8.99591
9.99013
10.7652
11.32
11.6519
11.757
11.6313
11.2737
10.6886
9.88989
8.90315
7.76742
6.535
5.26938
4.0414
2.92375
1.98456
1.28076
0.852008
0.716081
0.866247
1.27118
1.87746
2.61453
3.4016
4.15578
4.80048
5.27319
5.53155
5.55707
5.35602
4.95737
4.40805
3.76631
3.09381
2.44778
1.87399
1.40158
1.04033
0.780682
0.59638
0.449263
0.295519
0.0924284
-0.195368
-0.590924
-1.10205
-1.72073
-2.42488
-3.1822
-3.9554
-4.70809
-5.41031
-6.04302
-6.60076
-7.09208
-7.53788
-7.96767
-8.41453
-8.90944
-9.47578
-10.125
-10.8538
-11.6437
-12.4627
-13.2686
-14.0141
-14.6527
-15.144
-15.4585
-15.5812
-15.5122
-15.2669
-14.8723
-14.3636
-13.7788
-13.1538
-12.5173
-11.8883
-11.2741
-10.6706
-10.0645
-9.43689
-8.76699
-8.03702
-7.23584
-6.36193
-5.42482
-4.44501
-3.45239
-2.48337
-1.57706
-0.771114
-0.0976308
0.420351
0.771296
0.956329
0.988979
0.893585
0.702646
0.453619
0.185874
-0.0613656
-0.249313
-0.337667
-0.280572
-0.021328
0.51259
1.41227
2.78595
4.75199
7.42576
10.9011
15.2279
20.3902
26.2858
32.7155
39.3809
45.8963
51.8133
56.6576
59.9729
61.3694
60.5687
57.4413
52.03
44.5581
35.4181
25.1442
14.3684
3.7677
-5.99526
-14.3295
-20.7666
-24.9997
-26.9067
-26.5564
-24.1961
-20.2244
-15.149
-9.5376
-3.96285
1.0518
5.0826
7.84931
9.2508
9.39122
8.59589
7.41482
6.6106
7.12572
10.0243
16.4037
27.276
43.4242
65.2453
92.6003
124.696
160.024
196.384
231
260.736
282.4
293.099
290.602
273.675
242.316
197.868
142.977
81.3813
17.5773
-43.6325
-97.6317
-140.471
-169.276
-182.534
-180.226
-163.783
-135.891
-100.157
-60.6897
-21.6418
13.2247
40.9091
59.4331
67.9709
66.841
57.3712
41.6587
22.2647
1.88076
-16.9896
-32.2983
-42.6435
-47.3656
-46.5483
-40.931
-31.7529
-20.5524
-8.95072
1.55307
9.75234
14.8513
16.5223
14.9005
10.5241
4.2296
-2.97681
-10.0578
-16.0728
-20.2821
-22.216
-21.7039
-18.8648
-14.061
-7.82787
-0.787657
6.43854
13.31
19.4273
24.5683
28.6977
31.9495
34.5895
36.9621
39.4318
42.3266
45.8915
50.2565
55.4238
61.2729
67.5826
74.0649
80.4061
86.309
91.5304
95.9083
99.3782
101.974
103.815
105.085
105.996
106.758
107.539
108.444
109.489
110.593
111.587
112.22
112.19
111.173
108.86
104.99
99.3902
92.0008
82.8951
72.2855
60.5139
48.0264
35.3344
22.9646
11.4062
1.0601
-7.80024
-15.0524
-20.7281
-24.9953
-28.1237
-30.4361
-32.257
-33.8627
-35.4435
-37.0818
-38.749
-40.3219
-41.6137
-42.4154
-42.5386
-41.8549
-40.3236
-38.0048
-35.0553
-31.7093
-28.2463
-24.9524
-22.0797
-19.8121
-18.2402
-17.3506
-17.0296
-17.081
-17.2551
-17.2843
-16.9202
-15.9672
-14.3089
-11.9223
-8.88075
-5.34382
-1.53692
2.27659
5.82706
8.86976
11.212
12.7326
13.3928
13.236
12.3787
10.9933
9.28549
7.46902
5.74178
4.26517
3.14955
2.44685
2.15088
2.20439
2.51171
2.9548
3.41047
3.76644
3.93455
3.85958
3.52309
2.94211
2.16355
1.25512
0.294298
-0.643084
-1.49321
-2.21216
-2.78034
-3.20264
-3.50463
-3.72504
-3.90608
-4.08316
-4.27594
-4.48253
-4.67796
-4.81775
-4.84598
-4.70683
-4.3575
-3.78047
-2.99264
-2.04976
-1.04492
-0.101
0.641979
1.04322
0.978893
0.358889
-0.859604
-2.66359
-4.98186
-7.6889
-10.6147
-13.5594
-16.3102
-18.6606
-20.4277
-21.4675
-21.6863
-21.047
-19.5702
-17.331
-14.4508
-11.0878
-7.4241
-3.65466
0.0248575
3.42784
6.38536
8.75314
10.4174
11.2997
11.3615
10.6083
9.09248
6.91526
4.22591
1.21746
-1.88193
-4.82203
-7.34813
-9.22166
-10.2423
-10.2692
-9.23802
-7.17282
-4.18861
-0.48552
3.66658
7.95126
12.0344
15.5953
18.3573
20.1138
20.7469
20.2369
18.6627
16.1913
13.0598
9.55157
5.96861
2.60417
-0.2824
-2.48597
-3.86947
-4.37043
-4.00011
-2.83575
-1.0073
1.31987
3.96426
6.74741
9.51105
12.1304
14.5224
16.6479
18.5083
20.1368
21.5859
22.9127
24.1643
25.365
26.508
27.5511
28.4182
29.0059
29.1945
28.8612
27.8959
26.2148
23.7738
20.5775
16.6842
12.2068
7.30838
2.19419
-2.90097
-7.72792
-12.0405
-15.6141
-18.2629
-19.856
-20.3291
-19.6924
-18.0316
-15.5042
-12.3282
-8.76533
-5.09872
-1.6043
1.48261
4.00517
5.92506
7.36062
8.61719
10.2021
12.8165
17.3172
24.6457
35.7248
51.3295
71.9434
97.6163
127.843
161.484
196.75
231.264
262.211
286.578
301.458
304.389
293.693
268.758
230.219
180.006
121.238
57.9604
-5.23674
-63.6906
-113.156
-150.258
-172.855
-180.248
-173.23
-153.962
-125.685
-92.3316
-58.0567
-26.7736
-1.73657
14.7767
21.6504
18.9689
7.91301
-9.46411
-30.5462
-52.5042
-72.6427
-88.7011
-99.0789
-102.963
-100.352
-91.9871
-79.1976
-63.6987
-47.3595
-31.9751
-19.0674
-9.73429
-4.5595
-3.58869
-6.36754
-12.0325
-19.4394
-27.3113
-34.3885
-39.5631
-41.9847
-41.1288
-36.8243
-29.2398
-18.8369
-6.29575
7.57368
21.9246
35.9604
49.0058
60.558
70.3126
78.1662
84.1978
88.633
91.7985
94.0722
95.8356
97.4336
99.1456
101.169
103.617
106.526
109.872
113.59
117.598
121.809
126.147
130.545
134.944
139.281
143.479
147.428
150.979
153.941
156.083
157.149
156.882
155.045
151.454
146.003
138.683
129.59
118.927
106.992
94.1561
80.8379
67.4721
54.4791
42.2368
31.0564
21.1634
12.6861
5.64999
-0.0187579
-4.48309
-7.97684
-10.7805
-13.1925
-15.4993
-17.9468
-20.7167
-23.9099
-27.5405
-31.5383
-35.762
-40.0191
-44.0918
-47.7629
-50.8411
-53.1806
-54.694
-55.3569
-55.2045
-54.3222
-52.8304
-50.8678
-48.5745
-46.0777
-43.4809
-40.8584
-38.2541
-35.6856
-33.1508
-30.6361
-28.1261
-25.6105
-23.0901
-20.5793
-18.1058
-15.7079
-13.4297
-11.3153
-9.40298
-7.72086
-6.28319
-5.08931
-4.12427
-3.36125
-2.76519
-2.29725
-1.9192
-1.5974
-1.30573
-1.02732
-0.754805
-0.489334
-0.238553
-0.0139262
0.172163
0.309095
0.390149
0.41382
0.384244
0.310719
0.206503
0.0870992
-0.0316766
-0.135574
-0.213468
-0.258424
-0.268153
-0.244853
-0.194467
-0.125499
-0.0475351
0.0303371
0.101026
0.160656
0.209368
0.251577
0.295627
0.352858
0.436122
0.557917
0.728323
0.953029
1.23173
1.55721
1.91524
2.28557
2.64372
2.96369
3.22108
3.39623
3.47726
3.46215
3.35999
3.19077
2.98394
2.77546
2.60398
2.50628
2.51261
2.64269
2.90292
3.28528
3.7683
4.31999
4.90223
5.47596
6.00615
6.46568
6.83735
7.11366
7.29458
7.38371
7.38382
7.29303
7.1024
6.79601
6.35363
5.7557
4.98982
4.05725
2.97784
1.79207
0.558934
-0.650308
-1.76198
-2.71192
-3.45739
-3.98677
-4.32512
-4.53411
-4.7061
-4.95276
-5.38976
-6.11968
-7.21552
-8.70725
-10.5735
-12.7394
-15.0816
-17.4391
-19.6297
-21.4688
-22.7894
-23.4601
-23.3987
-22.5805
-21.0399
-18.8648
-16.1863
-13.1636
-9.96679
-6.76019
-3.68748
-0.860759
1.64586
3.79763
5.59616
7.07279
8.27977
9.28077
10.1418
10.9235
11.6762
12.4363
13.2252
14.0504
14.9065
15.778
16.6411
17.466
18.2181
18.8583
19.3433
19.6255
19.6521
19.3669
18.7111
17.6275
16.0651
13.9855
11.3695
8.22438
4.58866
0.535874
-3.82526
-8.35392
-12.8837
-17.2322
-21.2125
-24.6458
-27.3731
-29.2646
-30.2259
-30.1981
-29.153
-27.0793
-23.9622
-19.7563
-14.3543
-7.55854
0.937699
11.5488
24.7663
41.0944
60.9503
84.54
111.725
141.905
173.94
206.138
236.328
262.016
280.62
289.765
287.583
273.003
245.963
207.518
159.817
105.948
49.6591
-5.01542
-54.1695
-94.4342
-123.328
-139.504
-142.861
-134.52
-116.646
-92.1735
-64.4477
-36.8367
-12.3646
6.59598
18.5364
22.9097
20.1103
11.3436
-1.58807
-16.5542
-31.3806
-44.1156
-53.2456
-57.84
-57.6113
-52.8922
-44.5391
-33.7802
-22.0316
-10.7072
-1.04645
6.02148
9.96286
10.6684
8.42803
3.85921
-2.19746
-8.79981
-15.026
-20.0817
-23.3809
-24.5932
-23.655
-20.7467
-16.2428
-10.6436
-4.49928
1.66443
7.40804
12.4228
16.553
19.7967
22.2855
24.2503
25.9771
27.7609
29.863
32.478
35.7126
39.5787
43.9992
48.8258
53.864
58.903
63.7452
68.2332
72.2696
75.8287
78.9579
81.7691
84.4212
87.0955
89.9689
93.1851
96.8313
100.92
105.381
110.062
114.737
119.128
122.927
125.819
127.515
127.769
126.401
123.304
118.454
111.908
103.804
94.3459
83.8008
72.4842
60.7475
48.9632
37.5084
26.7463
17.007
8.56775
1.63557
-3.66719
-7.3115
-9.36357
-9.97898
-9.3892
-7.88144
-5.77372
-3.3877
-1.0219
1.07164
2.70513
3.76549
4.21669
4.09418
3.49255
2.54816
1.41908
0.264658
-0.772737
-1.58223
-2.09367
-2.2812
-2.16117
-1.78532
-1.23055
-0.586683
0.0558722
0.617264
1.03678
1.27818
1.33142
1.21101
0.951452
0.600791
0.213091
-0.159036
-0.471058
-0.691663
-0.806007
-0.81689
-0.743839
-0.620205
-0.488545
-0.39472
-0.381346
-0.481346
-0.712475
-1.0736
-1.54342
-2.08188
-2.63444
-3.13873
-3.53295
-3.7651
-3.80187
-3.63605
-3.29134
-2.82377
-2.31924
-1.88718
-1.65093
-1.73575
-2.25538
-3.29868
-4.91732
-7.11572
-9.84438
-12.9976
-16.4159
-19.895
-23.1986
-26.0781
-28.2941
-29.6406
-29.9681
-29.2034
-27.3631
-24.5587
-20.9924
-16.9433
-12.7437
-8.7499
-5.30843
-2.72311
-1.22533
-0.95157
-1.93016
-4.0788
-7.21266
-11.0621
-15.2977
-19.5606
-23.4937
-26.772
-29.1292
-30.3767
-30.4165
-29.2443
-26.9452
-23.682
-19.6778
-15.1955
-10.5146
-5.90984
-1.63088
2.11324
5.16562
7.42748
8.85881
9.47424
9.33488
8.5375
7.20245
5.46208
3.45075
1.29748
-0.878752
-2.97118
-4.88591
-6.54197
-7.87162
-8.82157
-9.35528
-9.45585
-9.12897
-8.40497
-7.33911
-6.00945
-4.51217
-2.95448
-1.44572
-0.0877723
1.03412
1.85902
2.35536
2.5229
2.39119
2.015
1.4671
0.829529
0.184324
-0.395144
-0.851225
-1.14676
-1.26712
-1.21955
-1.02998
-0.738085
-0.39114
-0.0376138
0.278719
0.523515
0.674979
0.725137
0.679327
0.554168
0.374514
0.170054
-0.0277344
-0.18768
-0.279743
-0.274723
-0.143437
0.14372
0.615941
1.29927
2.2119
3.35819
4.72231
6.26318
7.91195
9.57322
11.1304
12.4552
13.4202
13.9129
13.8504
13.1905
11.9406
10.1599
7.95668
5.47905
2.90152
0.407702
-1.82788
-3.65714
-4.97262
-5.71693
-5.88619
-5.52739
-4.72974
-3.61124
-2.30185
-0.924311
0.426238
1.70407
2.93629
4.24803
5.88835
8.25345
11.9011
17.5483
26.0422
38.2981
55.1977
77.4531
105.443
139.045
177.481
219.223
261.97
302.739
338.07
364.348
378.204
376.961
359.048
324.33
274.283
211.974
141.839
69.2621
0.0131057
-60.3822
-107.266
-137.371
-149.183
-143.08
-121.25
-87.3884
-46.2259
-2.95205
37.3918
70.4704
93.0978
103.517
101.491
88.2114
66.036
38.1182
7.96529
-21.0054
-45.8611
-64.4541
-75.6008
-79.1257
-75.7801
-67.0542
-54.9172
-41.5235
-28.9245
-18.8212
-12.3847
-10.1599
-12.0575
-17.4255
-25.1861
-34.0124
-42.521
-49.4534
-53.8256
-55.0289
-52.8748
-47.5819
-39.7141
-30.08
-19.611
-9.2356
0.234753
8.19402
14.2962
18.4723
20.9117
22.0133
22.3171
22.4256
22.9267
24.3264
26.9995
31.1601
36.8547
43.9742
52.2815
61.4496
71.1039
80.8635
90.3773
99.3521
107.569
114.89
121.254
126.664
131.166
134.828
137.715
139.871
141.298
141.955
141.754
140.57
138.255
134.656
129.638
123.108
115.032
105.453
94.5071
82.4248
69.5294
56.2239
42.9686
30.2504
18.5467
8.2867
-0.184829
-6.63834
-10.9798
-13.2585
-13.6612
-12.4923
-10.1435
-7.05475
-3.67253
-0.408791
2.39408
4.4891
5.73877
6.11661
5.6965
4.63206
3.1288
1.41298
-0.299116
-1.82757
-3.04799
-3.90146
-4.39446
-4.58965
-4.58919
-4.51362
-4.4796
-4.57975
-4.86761
-5.34954
-5.98477
-6.69306
-7.369
-7.90041
-8.18825
-8.16493
-7.80835
-7.1494
-6.27202
-5.30547
-4.40999
-3.75761
-3.51083
-3.80173
-4.71444
-6.273
-8.43632
-11.1006
-14.1088
-17.2665
-20.3605
-23.1806
-25.5385
-27.2859
-28.3255
-28.6186
-28.1847
-27.0965
-25.4699
-23.4508
-21.1994
-18.875
-16.6218
-14.5573
-12.7642
-11.2865
-10.1296
-9.264
-8.63296
-8.16152
-7.76725
-7.37067
-6.90426
-6.31916
-5.58837
-4.70643
-3.68559
-2.54951
-1.32587
-0.0396663
1.29112
2.65632
4.05061
5.46718
6.88981
8.28507
9.59693
10.7454
11.6305
12.1407
12.1663
11.6148
10.4268
8.58921
6.14458
3.19381
-0.107646
-3.56058
-6.93863
-10.0088
-12.5537
-14.3931
-15.4015
-15.5206
-14.7646
-13.218
-11.0255
-8.37688
-5.4873
-2.57586
0.154581
2.53449
4.43991
5.79866
6.59053
6.84194
6.61636
6.00232
5.10068
4.01319
2.83355
1.64184
0.502593
-0.534215
-1.43011
-2.15431
-2.68048
-2.98481
-3.04611
-2.84775
-2.381
-1.64902
-0.670562
0.517425
1.85901
3.28062
4.6945
6.00419
7.11133
7.92315
8.35988
8.3613
7.89213
6.94616
5.54936
3.76242
1.68265
-0.555122
-2.77964
-4.78758
-6.35253
-7.239
-7.22149
-6.107
-3.75859
-0.116989
4.78323
10.8055
17.7134
25.1831
32.8259
40.2184
46.9364
52.5901
56.8548
59.4965
60.3872
59.5115
56.9631
52.9331
47.691
41.5621
34.9007
28.065
21.3918
15.175
9.64892
4.9764
1.24336
-1.54037
-3.43411
-4.55409
-5.057
-5.121
-4.926
-4.63514
-4.37918
-4.24503
-4.26913
-4.43487
-4.67252
-4.85875
-4.81253
-4.28529
-2.94539
-0.360582
4.01406
10.8322
20.8255
34.737
53.2155
76.6777
105.15
138.121
174.425
212.198
248.928
281.615
307.032
322.076
324.156
311.57
283.814
241.767
187.711
125.179
58.6384
-6.95451
-66.6772
-116.165
-152.077
-172.434
-176.804
-166.297
-143.38
-111.555
-74.9201
-37.6953
-3.75673
23.7573
42.7281
52.2003
52.3797
44.4969
30.5628
13.056
-5.4166
-22.4411
-36.0635
-44.9745
-48.5979
-47.0803
-41.1939
-32.1717
-21.5036
-10.7208
-1.19783
6.00546
10.2461
11.3369
9.52391
5.41088
-0.153523
-6.20831
-11.8132
-16.1652
-18.6851
-19.0661
-17.2818
-13.5574
-8.30996
-2.07136
4.59681
11.1819
17.2834
22.653
27.2076
31.0171
34.2695
37.2215
40.1429
43.2642
46.7355
50.6034
54.8081
59.2009
63.5777
67.7214
71.4465
74.6356
77.2628
79.3988
81.1956
81.1956
81.1956
81.1956
81.1956
81.1956
81.1956
81.1956
81.1956
81.1956
81.1956
81.1956
81.1956
81.1956
81.1956
81.1956
81.1956
81.1956
81.1956
81.1956
