44.4822
34.8705
24.6107
14.1727
4.07525
-5.17339
-13.1381
-19.5137
-24.1669
-27.1579
-28.7361
-29.3128
-29.4111
-29.6023
-30.436
-32.3731
-35.732
-40.652
-47.0802
-54.7791
-63.3524
-72.2808
-80.9589
-88.7263
-94.8871
-98.719
-99.4766
-96.3991
-88.7345
-75.7887
-57.0059
-32.077
-1.06347
35.4818
76.4221
119.998
163.867
205.222
241.01
268.209
284.147
286.826
275.194
249.333
210.53
161.212
104.75
45.1494
-13.3366
-66.6202
-111.176
-144.366
-164.666
-171.759
-166.503
-150.766
-127.177
-98.8077
-68.8357
-40.2234
-15.4491
3.68653
16.1659
21.7668
20.9921
14.9313
5.07655
-6.88287
-19.2627
-30.5622
-39.6022
-45.6127
-48.2655
-47.656
-44.2396
-38.7358
-32.0145
-24.9767
-18.4462
-13.0801
-9.3067
-7.29373
-6.94605
-7.92983
-9.71832
-11.6533
-13.016
-13.1013
-11.2897
-7.11009
-0.28897
9.21862
21.2201
35.2992
50.8518
67.1408
83.3639
98.7275
112.519
124.167
133.289
139.718
143.5
144.875
144.243
142.107
139.017
135.509
132.051
128.999
126.567
124.808
123.619
122.75
121.839
120.447
118.102
114.351
108.807
101.191
91.3653
79.3602
65.3766
49.7798
33.0744
15.8671
-1.18166
-17.4103
-32.2082
-45.0625
-55.5934
-63.5763
-68.9486
-71.8003
-72.3535
-70.9311
-67.9216
-63.7441
-58.8173
-53.5361
-48.2568
-43.2905
-38.9025
-35.3145
-32.7057
-31.2112
-30.9144
-31.8361
-33.9212
-37.0279
-40.9228
-45.2855
-49.7252
-53.8088
-57.0981
-59.1926
-59.7717
-58.6314
-55.7097
-51.0979
-45.0345
-37.8837
-30.0994
-22.1804
-14.6207
-7.86194
-2.25297
1.97953
4.74565
6.09189
6.18613
5.2908
3.72775
1.83928
-0.0498477
-1.66543
-2.80813
-3.36717
-3.32232
-2.73501
-1.73047
-0.473662
0.857387
2.09737
3.11544
3.83035
4.21762
4.30822
4.17962
3.9407
3.713
3.61099
3.72404
4.10258
4.75012
5.62221
6.63216
7.66269
8.58174
9.26029
9.58966
9.49593
8.94972
7.9699
6.62105
5.00531
3.24986
1.49237
-0.133229
-1.50859
-2.53837
-3.15264
-3.30439
-2.96332
-2.10783
-0.717552
1.23163
3.76843
6.92241
10.7162
15.1551
20.216
25.8381
31.9176
38.307
44.82
51.2414
57.3401
62.8828
67.6473
71.4324
74.0643
75.3998
75.3271
73.7677
70.6785
66.0583
59.9549
52.4752
43.7929
34.1527
23.8679
13.3095
2.88785
-6.97266
-15.8606
-23.4006
-29.2664
-33.179
-34.8908
-34.1571
-30.7068
-24.223
-14.3464
-0.710366
16.9874
38.8824
64.8232
94.2533
126.123
158.858
190.397
218.326
240.088
253.246
255.79
246.414
224.74
191.449
148.284
97.9305
43.7744
-10.4263
-60.9213
-104.349
-138.069
-160.414
-170.819
-169.827
-158.975
-140.566
-117.381
-92.3468
-68.2178
-47.2998
-31.2472
-20.9531
-16.5352
-17.4124
-22.4541
-30.1765
-38.9605
-47.2598
-53.7776
-57.5936
-58.2305
-55.6593
-50.2499
-42.6773
-33.8013
-24.5363
-15.7262
-8.04101
-1.90378
2.5468
5.45553
7.21583
8.4071
9.71388
11.8373
15.41
20.9232
28.6745
38.7397
50.9703
65.0154
80.3631
96.3962
112.454
127.897
142.158
154.794
165.508
174.165
180.787
185.534
188.672
190.535
191.487
191.88
192.02
192.138
192.369
192.734
193.137
193.365
193.097
191.924
189.377
184.968
178.23
168.775
156.335
140.814
122.323
101.19
77.9675
53.4001
28.3809
3.88544
-19.1063
-39.6918
-57.1243
-70.8773
-80.6885
-86.5782
-88.8402
-88.0056
-84.7844
-79.9923
-74.4695
-69.0023
-64.2548
-60.7168
-58.6743
-58.2019
-59.178
-61.3177
-64.2205
-67.424
-70.4591
-72.9006
-74.4069
-74.7468
-73.812
-71.6146
-68.2732
-63.9895
-59.0201
-53.6471
-48.1505
-42.7846
-37.7605
-33.2347
-29.3037
-26.0036
-23.3143
-21.1666
-19.4518
-18.0318
-16.752
-15.4534
-13.9869
-12.2271
-10.0869
-7.53049
-4.58345
-1.33763
2.05083
5.37225
8.3827
10.8308
12.489
13.1851
12.8297
11.4347
9.12033
6.1081
2.70067
-0.749142
-3.87659
-6.3453
-7.88457
-8.31882
-7.58542
-5.73897
-2.94182
0.557408
4.45363
8.41922
12.1372
15.3299
17.7796
19.3405
19.9419
19.5832
18.324
16.2713
13.5656
10.3699
6.8606
3.2218
-0.357007
-3.68216
-6.55674
-8.78302
-10.1676
-10.53
-9.71427
-7.6026
-4.1299
0.703404
6.82171
14.0693
22.2114
30.9414
39.8938
48.6632
56.8271
63.9714
69.7172
73.7475
75.8302
75.8369
73.7553
69.6925
63.869
56.6036
48.2888
39.3594
30.2575
21.3962
13.1274
5.71773
-0.66343
-5.93986
-10.1063
-13.1872
-15.1804
-15.9893
-15.3588
-12.8241
-7.69325
0.923548
14.0272
32.5827
57.3215
88.5172
125.768
167.827
212.532
256.854
297.098
329.245
349.394
354.261
341.656
310.865
262.868
200.36
127.552
49.7706
-27.0893
-97.1909
-155.383
-197.742
-221.967
-227.574
-215.88
-189.776
-153.337
-111.312
-68.5757
-29.5937
2.02396
23.8386
34.741
34.9442
25.8262
9.65406
-10.7676
-32.4749
-52.7019
-69.1768
-80.3277
-85.3829
-84.3651
-77.9915
-67.503
-54.4506
-40.4696
-27.0709
-15.4723
-6.48588
-0.468831
2.66419
3.37541
2.39972
0.619511
-1.06352
-1.84319
-1.09775
1.55479
6.23751
12.8293
21.0074
30.3095
40.2047
50.1649
59.7272
68.5407
76.3952
83.2291
89.1184
94.2507
98.8878
103.324
107.842
112.678
117.985
123.817
130.116
136.709
143.318
149.576
155.05
159.27
161.76
162.081
159.862
154.843
146.905
136.099
122.654
106.981
89.6504
71.3598
52.8841
35.016
18.5023
3.98222
-8.06425
-17.3531
-23.8132
-27.5823
-28.9817
-28.4736
-26.6065
-23.9549
-21.0605
-18.3818
-16.2567
-14.8825
-14.3134
-14.4749
-15.1924
-16.2281
-17.3222
-18.2325
-18.7673
-18.8083
-18.3215
-17.3555
-16.0291
-14.5101
-12.9884
-11.6488
-10.6459
-10.0849
-10.0096
-10.4005
-11.1797
-12.2243
-13.3839
-14.5003
-15.4271
-16.0456
-16.2758
-16.0819
-15.4711
-14.4878
-13.203
-11.7032
-10.0785
-8.41256
-6.77535
-5.21931
-3.77883
-2.47243
-1.30683
-0.28175
0.605436
1.35611
1.9683
2.43624
2.75151
2.90534
2.89162
2.71014
2.36934
1.88827
1.29724
0.637177
-0.042482
-0.687135
-1.2412
-1.65272
-1.87779
-1.88417
-1.65355
-1.18186
-0.477657
0.441359
1.55287
2.83436
4.26616
5.832
7.51666
9.30087
11.1546
13.0303
14.8581
16.5441
17.9741
19.0213
19.5594
19.4778
18.6983
17.1906
14.9831
12.1694
8.90726
5.41071
1.9361
-1.23638
-3.82323
-5.55766
-6.20672
-5.58432
-3.55944
-0.0601847
4.92514
11.3482
19.1008
28.0142
37.8574
48.336
59.0933
69.715
79.7413
88.6848
96.0576
101.403
104.331
104.555
101.924
96.4425
88.284
77.7859
65.4301
51.8096
37.5829
23.4242
9.97265
-2.20937
-12.663
-21.0379
-27.073
-30.5535
-31.2532
-28.8745
-23.0072
-13.1245
1.36514
21.0029
46.1107
76.5906
111.732
150.075
189.369
226.66
258.52
281.392
292.018
287.879
267.592
231.19
180.236
117.748
47.9401
-24.1969
-93.4154
-154.768
-204.131
-238.619
-256.863
-259.096
-247.059
-223.746
-193.012
-159.117
-126.239
-98.0434
-77.3209
-65.7651
-63.8795
-71.0284
-85.6087
-105.315
-127.455
-149.281
-168.289
-182.462
-190.433
-191.554
-185.891
-174.126
-157.426
-137.258
-115.214
-92.8381
-71.4813
-52.2023
-35.7076
-22.3368
-12.0869
-4.66553
0.435797
3.86018
6.30523
8.45228
10.9103
14.1773
18.6199
24.4684
31.8265
40.6887
50.9636
62.4975
75.0952
88.5356
102.581
116.983
131.481
145.802
159.661
172.764
184.811
195.503
204.555
211.7
216.709
219.389
219.6
217.255
212.327
204.855
194.946
182.778
168.606
152.759
135.633
117.676
99.3726
81.2094
63.6502
47.102
31.8885
18.2297
6.23238
-4.10826
-12.8955
-20.309
-26.5758
-31.9396
-36.6318
-40.8468
-44.7262
-48.3509
-51.7431
-54.8755
-57.6859
-60.0954
-62.0258
-63.4152
-64.2292
-64.4669
-64.1611
-63.3738
-62.1878
-60.696
-58.9908
-57.1536
-55.2486
-53.3185
-51.3843
-49.4489
-47.5012
-45.5232
-43.4956
-41.4024
-39.2345
-36.9907
-34.6775
-32.3077
-29.8982
-27.4681
-25.0375
-22.6257
-20.251
-17.9307
-15.6808
-13.5168
-11.4538
-9.5069
-7.69101
-6.02104
-4.51127
-3.17465
-2.0218
-1.05962
-0.289801
0.292948
0.702569
0.963005
1.10873
1.18395
1.23995
1.33056
1.50585
1.80472
2.24755
2.83015
3.52017
4.25713
4.95655
5.51806
5.83709
5.81859
5.39133
4.52057
3.21725
1.54188
-0.397839
-2.45587
-4.46236
-6.24213
-7.63481
-8.51378
-8.80152
-8.47907
-7.58843
-6.22751
-4.53837
-2.69026
-0.859676
0.79008
2.12749
3.06746
3.5807
3.69698
3.50245
3.1315
2.75441
2.56213
2.74964
3.49945
4.96644
7.2653
10.4614
14.5654
19.5327
25.267
31.627
38.4368
45.4974
52.5978
59.5255
66.0736
72.045
77.2539
81.5239
84.6855
86.573
87.0247
85.8863
83.0203
78.3218
71.7401
63.3029
53.1401
41.5017
28.7659
15.432
2.09811
-10.5759
-21.9155
-31.2803
-38.1049
-41.9231
-42.3675
-39.1455
-31.9966
-20.6474
-4.78209
15.9492
41.8697
73.1582
109.684
150.821
195.285
241.036
285.288
324.655
355.432
373.995
377.267
363.171
331.024
281.772
218.037
143.956
64.8062
-13.5228
-85.1485
-144.83
-188.531
-213.833
-220.161
-208.786
-182.609
-145.774
-103.153
-59.7699
-20.2504
11.6525
33.3971
43.828
43.1776
32.9081
15.4259
-6.2875
-29.0765
-49.9938
-66.621
-77.2943
-81.2182
-78.4647
-69.8686
-56.8432
-41.1451
-24.6239
-8.9859
4.39786
14.6228
21.31
24.5944
25.0504
23.5712
21.221
19.0814
18.1124
19.042
22.297
27.9793
35.8857
45.5669
56.4127
67.7527
78.9565
89.5192
99.1224
107.662
115.241
122.127
128.686
135.301
142.285
149.809
157.849
166.168
174.324
181.718
187.663
191.463
192.504
190.327
184.681
175.556
163.183
148.01
130.663
111.889
92.4917
73.2753
54.9857
38.2659
23.6224
11.4035
1.79061
-5.19782
-9.69329
-11.955
-12.3413
-11.2777
-9.22262
-6.63435
-3.94048
-1.51215
0.355942
1.45866
1.68635
1.02378
-0.457445
-2.6119
-5.23779
-8.09729
-10.9383
-13.5164
-15.6147
-17.0612
-17.7412
-17.6048
-16.6685
-15.0099
-12.7576
-10.0767
-7.1503
-4.16105
-1.27344
1.38077
3.71222
5.67774
7.27809
8.55017
9.55503
10.3636
11.0421
11.6397
12.1796
12.6549
13.0304
13.2495
13.2442
12.9491
12.3139
11.315
9.96357
8.30802
6.43176
4.44546
2.47531
0.648589
-0.921306
-2.14866
-2.98599
-3.43007
-3.52251
-3.34488
-3.00887
-2.64284
-2.37646
-2.32538
-2.57793
-3.18566
-4.15885
-5.46748
-7.04744
-8.81077
-10.6584
-12.4933
-14.2317
-15.8114
-17.1956
-18.3722
-19.3487
-20.1457
-20.7887
-21.3021
-21.705
-22.0119
-22.2349
-22.3896
-22.5011
-22.6101
-22.7758
-23.077
-23.6086
-24.4755
-25.7832
-27.6273
-30.0819
-33.1895
-36.9511
-41.3198
-46.1956
-51.424
-56.798
-62.0636
-66.9294
-71.0803
-74.1947
-75.964
-76.1134
-74.421
-70.7344
-64.9825
-57.1807
-47.4314
-35.9184
-22.8991
-8.69359
6.32483
21.7393
37.0975
51.9194
65.7073
77.9587
88.1852
95.9368
100.832
102.591
101.067
96.2772
88.4133
77.8492
65.1256
50.9196
36.0013
21.1795
7.24621
-5.07544
-15.1684
-22.5398
-26.8137
-27.7013
-24.952
-18.3008
-7.42854
8.04567
28.522
54.3202
85.5277
121.817
162.266
205.231
248.306
288.411
322.011
345.461
355.434
349.378
325.932
285.236
229.067
160.791
85.0925
7.5357
-66.0149
-130.025
-179.897
-212.475
-226.366
-222.064
-201.83
-169.381
-129.402
-86.979
-47
-13.621
10.1534
22.7244
23.9677
15.1236
-1.46805
-22.7417
-45.3356
-66.0198
-82.0708
-91.5526
-93.4779
-87.841
-75.5308
-58.1446
-37.735
-16.5267
3.36236
20.162
32.6302
40.1583
42.7959
41.1994
36.5157
30.219
23.9212
19.1784
17.3159
19.2882
25.5892
36.2192
50.708
68.19
87.5185
107.404
126.558
143.83
158.315
169.426
176.927
180.92
181.797
180.159
176.726
172.229
167.322
162.504
158.069
154.086
150.407
146.705
142.532
137.389
130.81
122.431
112.054
99.6885
85.5679
70.1387
54.0225
37.9555
22.7128
9.02695
-2.49081
-11.4149
-17.549
-20.9436
-21.8844
-20.8559
-18.4832
-15.4613
-12.4814
-10.1615
-8.99219
-9.30009
-11.2331
-14.7666
-19.7267
-25.8273
-32.7128
-40.0037
-47.3369
-54.3992
-60.9499
-66.8329
-71.9779
-76.3926
-80.1481
-83.3608
-86.172
-88.7288
-91.168
-93.6022
-96.1104
-98.7319
-101.462
-104.254
-107.014
-109.613
-111.884
-113.634
-114.65
-114.716
-113.628
-111.205
-107.315
-101.891
-94.9432
-86.5727
-76.9747
-66.4335
-55.3095
-44.0174
-32.997
-22.6804
-13.4577
-5.64558
0.538304
4.99178
7.73432
8.90188
8.73136
7.53629
5.67642
3.52414
1.43106
-0.302393
-1.45149
-1.88405
-1.56808
-0.569994
0.956598
2.7903
4.66813
6.3161
7.48153
7.96356
7.63848
6.47652
4.54762
2.01513
-0.882388
-3.85888
-6.61481
-8.87285
-10.4108
-11.0869
-10.8557
-9.77029
-7.97357
-5.6781
-3.13827
-0.618349
1.63942
3.44269
4.6697
5.28067
5.31923
4.9045
4.21589
3.47318
2.91467
2.77604
3.27149
4.57816
6.82425
10.0805
14.355
19.5907
25.6666
32.4006
39.5571
46.8566
53.988
60.6246
66.4398
71.1245
74.4034
76.0493
75.8963
73.8486
69.8872
64.0725
56.5434
47.5125
37.2589
26.1175
14.4686
2.72856
-8.65401
-19.1937
-28.3532
-35.52
-39.9803
-40.9043
-37.359
-28.3647
-13.0071
9.39479
39.0804
75.6311
117.789
163.361
209.248
251.63
286.302
309.14
316.628
306.379
277.56
231.153
169.99
98.5471
22.5199
-51.7826
-118.132
-171.079
-206.558
-222.325
-218.165
-195.859
-158.908
-112.074
-60.7833
-10.4912
33.9244
68.6628
91.3395
101.135
98.7473
86.1709
66.3395
42.6896
18.7035
-2.51044
-18.5525
-27.9482
-30.2308
-25.8932
-16.2268
-3.0798
11.4284
25.1952
36.3908
43.6526
46.2025
43.8804
37.1021
26.754
14.0476
0.35566
-12.9494
-24.6359
-33.7212
-39.5401
-41.7729
-40.4363
-35.8433
-28.5408
-19.2341
-8.70658
2.25664
12.9352
22.7254
31.1753
38.001
43.0862
46.4653
48.2951
48.8171
48.3163
47.0805
45.3645
43.3639
41.2003
38.9197
36.5032
33.8875
30.992
27.7471
24.1196
20.1306
15.8643
11.4648
7.12327
3.05641
-0.519591
-3.41611
-5.49606
-6.69152
-7.01269
-6.54736
-5.45119
-3.93052
-2.21995
-0.557977
0.836583
1.78432
2.15923
1.89556
0.987353
-0.51879
-2.53611
-4.95336
-7.65139
-10.5185
-13.4626
-16.4196
-19.3562
-22.2687
-25.1781
-28.1222
-31.1464
-34.2949
-37.6027
-41.0888
-44.7524
-48.5702
-52.4964
-56.4637
-60.3863
-64.1636
-67.6856
-70.8385
-73.5114
-75.6038
-77.0329
-77.74
-77.6963
-76.9064
-75.4093
-73.2758
-70.6039
-67.5099
-64.1185
-60.5513
-56.916
-53.2969
-49.7481
-46.2911
-42.9159
-39.5873
-36.2536
-32.8588
-29.3556
-25.7168
-21.9454
-18.0788
-14.19
-10.3818
-6.77779
-3.50838
-0.696458
1.55753
3.1879
4.17224
4.53492
4.34511
3.70975
2.76237
1.64917
0.514299
-0.514083
-1.33518
-1.88329
-2.13109
-2.08847
-1.79718
-1.32208
-0.739912
-0.126453
0.456737
0.975025
1.4314
1.87363
2.39617
3.1355
4.25833
5.94291
8.35536
11.6237
15.8131
20.906
26.7905
33.259
40.0179
46.7084
52.9344
58.2962
62.4238
65.0068
65.8174
64.7227
61.6885
56.7724
50.1118
41.9073
32.4066
21.8913
10.6673
-0.940107
-12.5879
-23.9157
-34.5478
-44.0986
-52.1822
-58.4253
-62.4818
-64.0424
-62.8381
-58.6326
-51.206
-40.3359
-25.7853
-7.31106
15.2957
42.1311
73.064
107.602
144.762
182.986
220.121
253.51
280.192
297.191
301.89
292.406
267.933
228.977
177.442
116.543
50.543
-15.6589
-77.033
-128.958
-167.721
-190.908
-197.647
-188.663
-166.149
-133.47
-94.7492
-54.3797
-16.5389
15.2495
38.4475
51.7005
54.8839
49.005
35.9828
18.3404
-1.14461
-19.7881
-35.303
-46.0268
-51.0522
-50.2545
-44.2213
-34.1038
-21.4137
-7.79725
5.18551
16.2475
24.5098
29.5721
31.5165
30.8511
28.4043
25.1899
22.2605
20.5695
20.8576
23.5764
28.8542
36.5057
46.0797
56.9361
68.3398
79.5584
89.9514
99.0404
106.552
112.433
116.831
120.058
122.527
124.684
126.942
129.614
132.87
136.702
140.92
145.161
148.922
151.607
152.588
151.274
147.182
139.998
129.632
116.248
100.271
82.3657
63.3874
44.3125
26.1504
9.85026
-3.7885
-14.1901
-21.0536
-24.3738
-24.432
-21.7555
-17.0539
-11.1384
-4.83543
1.09709
6.03926
9.55942
11.4396
11.6753
10.4521
8.10241
5.05109
1.75503
-1.35414
-3.91848
-5.68856
-6.54179
-6.48397
-5.63558
-4.20588
-2.45913
-0.677566
0.874293
1.97991
2.49263
2.34731
1.56149
0.226847
-1.50693
-3.453
-5.40996
-7.18312
-8.6021
-9.53337
-9.88714
-9.61947
-8.73082
-7.26254
-5.29255
-2.93062
-0.313253
2.40255
5.04734
7.44953
9.44768
10.904
11.7179
11.8365
11.2628
10.0566
8.33039
6.23827
3.95902
1.67539
-0.448342
-2.28763
-3.77469
-4.9089
-5.75873
-6.45498
-7.17606
-8.12744
-9.51822
-11.5379
-14.3362
-18.008
-22.5841
-28.0292
-34.2443
-41.0744
-48.3185
-55.7408
-63.083
-70.0754
-76.4473
-81.9377
-86.3042
-89.3335
-90.8515
-90.7339
-88.9171
-85.4075
-80.2886
-73.7232
-65.9505
-57.2763
-48.0561
-38.6721
-29.5063
-20.9115
-13.1835
-6.53796
-1.09417
3.13238
6.22771
8.36766
9.79848
10.8118
11.7165
12.8104
14.3537
16.545
19.5023
23.2472
27.6938
32.6424
37.7801
42.6893
46.8681
49.7633
50.8151
49.5136
45.4584
38.4172
28.3733
15.5557
0.445854
-16.2407
-33.5954
-50.5737
-66.0582
-78.9184
-88.0582
-92.4509
-91.1638
-83.3877
-68.4844
-46.0656
-16.1098
20.8943
63.8026
110.706
158.899
204.967
245.002
274.956
291.075
290.384
271.129
233.109
177.851
108.563
29.8901
-52.5263
-132.615
-204.505
-263.134
-304.76
-327.313
-330.554
-316.022
-286.785
-247.04
-201.605
-155.381
-112.829
-77.551
-51.9779
-37.2288
-33.1207
-38.3253
-50.6408
-67.3354
-85.5164
-102.478
-115.99
-124.496
-127.209
-124.106
-115.831
-103.526
-88.6227
-72.6311
-56.9367
-42.6441
-30.4754
-20.7303
-13.3061
-7.76871
-3.45743
0.39146
4.52249
9.55534
15.908
23.7563
33.0306
43.4479
54.5695
65.8762
76.8468
87.0309
96.1051
103.906
110.441
115.868
120.462
124.568
128.539
132.686
137.234
142.287
147.818
153.671
159.575
165.177
170.073
173.847
176.098
176.475
174.699
170.581
164.04
155.11
143.953
130.851
116.201
100.498
84.3057
68.2208
52.8301
38.6654
26.16
15.6139
7.16939
0.802714
-3.66892
-6.56431
-8.30237
-9.35746
-10.2108
-11.3036
-12.9967
-15.541
-19.0613
-23.5538
-28.8977
-34.8775
-41.2127
-47.5916
-53.7043
-59.2716
-64.0678
-67.9344
-70.7861
-72.6084
-73.449
-73.4044
-72.605
-71.1991
-69.3398
-67.1734
-64.8323
-62.4316
-60.0683
-57.8241
-55.7694
-53.968
-52.4816
-51.3722
-50.7019
-50.5282
-50.8953
-51.8199
-53.2745
-55.1694
-57.3382
-59.5297
-61.4112
-62.5847
-62.6165
-61.0788
-57.5985
-51.9085
-43.8945
-33.6313
-21.4042
-7.70968
6.76318
21.1735
34.5872
46.0493
54.6658
59.6858
60.5785
57.0973
49.3237
37.6856
22.9472
6.16507
-11.3856
-28.3131
-43.2312
-54.8903
-62.3041
-64.8575
-62.3829
-55.1923
-44.0598
-30.1536
-14.9224
0.0529694
13.2262
23.2516
29.1314
30.3254
26.8097
19.0781
8.08489
-4.86351
-18.2551
-30.5389
-40.2923
-46.3695
-48.0151
-44.931
-37.2902
-25.6998
-11.1179
5.26223
22.1471
38.2807
52.5681
64.1743
72.5859
77.6343
79.4782
78.5525
75.4902
71.0304
65.9231
60.8424
56.317
52.6863
50.0828
48.442
47.5352
47.0195
46.4964
45.5707
43.9027
41.2472
37.4758
32.5818
26.671
19.9412
12.6587
5.13763
-2.27131
-9.17828
-15.1369
-19.6159
-21.9671
-21.405
-17.0115
-7.78422
7.26256
28.9414
57.6936
93.3775
135.082
181.013
228.493
274.095
313.926
344.02
360.805
361.579
344.912
310.926
261.385
199.598
130.114
58.2599
-10.4135
-70.7279
-118.419
-150.566
-165.858
-164.665
-148.914
-121.797
-87.3517
-49.9655
-13.8823
17.2445
40.6947
54.8908
59.4571
55.1372
43.5887
27.0933
8.22235
-10.4967
-26.873
-39.2738
-46.7535
-49.0849
-46.6975
-40.5402
-31.8941
-22.1618
-12.6653
-4.47443
1.71168
5.62254
7.41035
7.58808
6.92521
6.31942
6.66337
8.72465
13.0529
19.923
29.3177
40.9477
54.3025
68.7234
83.4871
97.8894
111.32
123.319
133.614
142.129
148.974
154.415
158.822
162.616
166.204
169.926
173.998
178.476
183.23
187.942
192.118
195.133
196.289
194.887
190.316
182.136
170.148
154.447
135.437
113.819
90.5334
66.6741
43.3785
21.7104
2.55021
-13.4912
-26.1209
-35.3689
-41.5493
-45.1838
-46.9021
-47.3354
-47.02
-46.3262
-45.4221
-44.2769
-42.6989
-40.401
-37.0802
-32.4988
-26.5526
-19.3182
-11.0717
-2.27794
6.44822
14.4024
20.866
25.1868
26.8554
25.569
21.2747
14.1887
4.78599
-6.2355
-18.0168
-29.6171
-40.103
-48.639
-54.5666
-57.4665
-57.1941
-53.8862
-47.938
-39.9546
-30.6819
-20.9272
-11.478
-3.02769
3.88308
8.90491
11.8948
12.9082
12.1715
10.0386
6.93928
3.32433
-0.385785
-3.84433
-6.8103
-9.16701
-10.9263
-12.2185
-13.2685
-14.3608
-15.7954
-17.8407
-20.6868
-24.407
-28.9328
-34.0453
-39.3885
-44.5013
-48.8654
-51.9654
-53.3496
-52.6859
-49.8038
-44.7164
-37.6204
-28.8738
-18.9566
-8.41789
2.17871
12.3074
21.521
29.4761
35.9424
40.7952
43.9974
45.5765
45.6016
44.169
41.3966
37.4298
32.4547
26.7139
20.5171
14.2428
8.32409
3.21884
-0.633859
-2.86552
-3.22972
-1.64355
1.79011
6.78608
12.9082
19.6254
26.385
32.691
38.1749
42.6461
46.1136
48.7731
50.9616
53.0861
55.5373
58.6028
62.394
66.8002
71.4773
75.8744
79.2957
80.989
80.2489
76.5206
69.4895
59.1457
45.814
30.1447
13.0674
-4.28785
-20.6928
-34.9323
-45.9119
-52.7463
-54.816
-51.7853
-43.5785
-30.3224
-12.2685
10.2851
37.0475
67.7474
102.092
139.671
179.833
221.544
263.288
303.03
338.275
366.235
384.09
389.322
380.063
355.415
315.676
262.444
198.556
127.881
54.9688
-15.3869
-78.6323
-130.912
-169.45
-192.813
-201.009
-195.44
-178.69
-154.2
-125.861
-97.5821
-72.8845
-54.5603
-44.4421
-43.2938
-50.8299
-65.8485
-86.4546
-110.337
-135.064
-158.356
-178.314
-193.572
-203.368
-207.538
-206.434
-200.795
-191.588
-179.844
-166.51
-152.341
-137.832
-123.199
-108.403
-93.2129
-77.2785
-60.2251
-41.7329
-21.6041
0.193714
23.5108
48.0242
73.2697
98.6892
123.688
147.692
170.198
190.817
209.293
225.513
239.495
251.369
261.344
269.671
276.612
282.402
287.23
291.216
294.407
296.776
298.227
298.616
297.76
295.467
291.552
285.858
278.275
268.754
257.314
244.043
229.098
212.694
195.094
176.596
157.521
138.199
118.964
100.145
82.0599
65.0102
49.2758
35.1056
22.7082
12.2404
3.79585
-2.60468
-7.01967
-9.58807
-10.5242
-10.1058
-8.65673
-6.52377
-4.05211
-1.56024
0.682115
2.47087
3.67721
4.24889
4.20289
3.61057
2.5772
1.21898
-0.359057
-2.08083
-3.90979
-5.85087
-7.94361
-10.248
-12.8257
-15.7204
-18.94
-22.4455
-26.147
-29.908
-33.5587
-36.9144
-39.7974
-42.0592
-43.5995
-44.3783
-44.4217
-43.8183
-42.7084
-41.2675
-39.6849
-38.1431
-36.7978
-35.7626
-35.0998
-34.8175
-34.8731
-35.1829
-35.6346
-36.1028
-36.463
-36.6052
-36.4429
-35.9192
-35.0085
-33.7141
-32.0631
-30.0992
-27.8751
-25.4439
-22.8532
-20.1386
-17.3209
-14.4031
-11.371
-8.19473
-4.83426
-1.24832
2.59245
6.68843
10.9909
15.3814
19.6538
23.5038
26.5301
28.252
28.145
25.6963
20.4742
12.2076
0.862864
-13.2917
-29.6485
-47.2612
-64.8896
-81.091
-94.3524
-103.248
-106.608
-103.666
-94.1779
-78.4827
-57.4966
-32.6427
-5.71691
21.2896
46.3929
67.8173
84.1712
94.5754
98.7325
96.9273
89.9633
79.0454
65.6246
51.2247
37.2752
24.9657
15.1408
8.24307
4.30701
3.00211
3.71586
5.66673
8.03442
10.0953
11.3509
11.6374
11.2025
10.738
11.3523
14.4752
21.6903
34.5042
54.0721
80.9168
114.684
153.986
196.369
238.44
276.154
305.231
321.673
322.291
305.187
270.099
218.562
153.85
80.6904
4.78971
-67.7756
-131.223
-180.698
-212.795
-225.902
-220.329
-198.208
-163.188
-119.966
-73.7262
-29.5495
8.12154
35.9097
51.7758
55.1163
46.6896
28.3954
2.94816
-26.5057
-56.7734
-84.959
-108.727
-126.465
-137.344
-141.273
-138.788
-130.883
-118.823
-103.959
-87.5707
-70.755
-54.3508
-38.9173
-24.7477
-11.9122
-0.317848
10.2267
19.9514
29.0763
37.7794
46.1809
54.3437
62.2856
69.9993
77.4764
84.7288
91.8046
98.7959
105.835
113.081
120.698
128.832
137.577
146.956
156.901
167.248
177.735
188.022
197.704
206.35
213.518
218.795
221.811
222.258
219.906
214.61
206.318
195.082
181.065
164.552
145.951
125.794
104.718
83.4446
62.7364
43.3472
25.9655
11.1577
-0.681717
-9.36584
-14.9316
-17.6345
-17.9202
-16.3782
-13.6805
-10.5151
-7.52052
-5.22942
-4.02804
-4.1344
-5.59692
-8.31183
-12.0556
-16.5269
-21.3924
-26.3295
-31.0623
-35.386
-39.1785
-42.4004
-45.0837
-47.3133
-49.205
-50.8827
-52.4594
-54.0228
-55.6272
-57.2912
-59.0008
-60.7146
-62.3714
-63.8966
-65.2079
-66.219
-66.8421
-66.9904
-66.5807
-65.538
-63.8013
-61.3309
-58.1162
-54.1828
-49.5966
-44.4648
-38.9327
-33.1757
-27.3877
-21.7673
-16.5023
-11.7554
-7.65259
-4.27468
-1.65397
0.224863
1.41943
2.02105
2.14397
1.91376
1.4561
0.88694
0.30485
-0.214016
-0.618239
-0.880886
-0.997057
-0.979749
-0.854598
-0.654093
-0.411802
-0.157133
0.0889352
0.316748
0.529244
0.741422
0.978082
1.27007
1.64953
2.14476
2.77546
3.54907
4.45886
5.48414
6.59282
7.74605
8.90437
10.0347
11.1172
12.1505
13.1553
14.1753
15.2741
16.5303
18.029
19.8523
22.0691
24.7256
27.8382
31.3895
35.3286
39.5752
44.028
48.5745
53.1017
57.5037
61.686
65.5639
69.056
72.0747
74.5165
76.2564
77.1484
77.0345
75.7615
73.2036
69.2869
64.0096
57.4556
49.7962
41.2809
32.2197
22.9634
13.8891
5.40148
-2.04834
-7.92506
-11.5634
-12.1315
-8.62493
0.0858231
15.1406
37.5063
67.7424
105.749
150.55
200.156
251.566
300.925
343.849
375.877
393.008
392.24
372.026
332.585
276.002
206.093
128.058
47.9462
-27.9876
-93.955
-145.247
-178.714
-193.049
-188.857
-168.493
-135.715
-95.1889
-51.9254
-10.7082
24.4077
50.4778
65.8918
70.4246
65.1219
52.0485
33.9408
13.8141
-5.4249
-21.312
-32.073
-36.7611
-35.2796
-28.2985
-17.0859
-3.2838
11.337
25.1111
36.6726
45.0881
49.9183
51.2076
49.4101
45.2694
39.6733
33.5054
27.5162
22.2284
17.8876
14.4607
11.6789
9.11391
6.27634
2.71825
-1.87359
-7.60742
-14.3483
-21.7165
-29.1216
-35.8283
-41.0424
-44.0082
-44.103
-40.9183
-34.3183
-24.4694
-11.8384
2.8404
18.6249
34.4452
49.1952
61.8268
71.4369
77.3385
79.111
76.6235
70.0333
59.7583
46.4299
30.8309
13.8262
-3.70691
-20.9415
-37.1528
-51.7543
-64.3172
-74.575
-82.4141
-87.8558
-91.0319
-92.1601
-91.5204
-89.4351
-86.2541
-82.343
-78.0742
-73.8187
-69.937
-66.7666
-64.6083
-63.7085
-64.2424
-66.2967
-69.857
-74.799
-80.8869
-87.7784
-95.0383
-102.16
-108.593
-113.785
-117.219
-118.461
-117.199
-113.283
-106.743
-97.8018
-86.8603
-74.4706
-61.2909
-48.0282
-35.3764
-23.9542
-14.2518
-6.59163
-1.10678
2.25954
3.73533
3.68411
2.55738
0.841126
-0.99697
-2.55384
-3.52594
-3.72963
-3.10603
-1.711
0.307118
2.73821
5.34503
7.89717
10.2002
12.1171
13.5794
14.5896
15.2132
15.5651
15.7915
16.0507
16.4951
17.2564
18.4345
20.0918
22.25
24.8908
27.9572
31.3546
34.9513
38.577
42.0215
45.0344
47.3295
48.5947
48.51
46.7732
43.1309
37.4129
29.565
19.6748
7.98835
-5.08819
-19.0022
-33.0845
-46.5943
-58.774
-68.9117
-76.4016
-80.7986
-81.8593
-79.565
-74.1233
-65.9469
-55.6131
-43.8057
-31.2475
-18.6302
-6.54891
4.54849
14.3945
22.9111
30.1965
36.49
42.1217
47.4543
52.822
58.4778
64.5511
71.0234
77.7212
84.3288
90.4164
95.4826
99.0048
100.493
99.5432
95.8809
89.3981
80.1721
68.4699
54.735
39.5575
23.6325
7.70825
-7.46604
-21.1879
-32.8353
-41.88
-47.8782
-50.4391
-49.1813
-43.6892
-33.49
-18.0664
3.07969
30.3097
63.6877
102.799
146.586
193.24
240.19
284.217
321.696
348.952
362.688
360.428
340.902
304.318
252.468
188.631
117.302
43.7469
-26.5368
-88.3987
-137.574
-171.114
-187.66
-187.523
-172.58
-145.991
-111.791
-74.4052
-38.1539
-6.80171
16.7985
30.9326
35.1072
29.9906
17.2282
-0.833084
-21.4741
-41.944
-59.7715
-73.0156
-80.4311
-81.5398
-76.6064
-66.5329
-52.6895
-36.7088
-20.2706
-4.90264
8.18094
18.1879
24.7963
28.1427
28.7576
27.4621
25.2401
23.1049
21.9755
22.5766
25.3721
30.5358
37.9597
47.2957
58.0215
69.5207
81.1654
92.3913
102.755
111.972
119.922
126.642
132.286
137.084
141.285
145.104
148.685
152.06
155.147
157.742
159.543
160.178
159.246
156.364
151.213
143.584
133.415
120.816
106.085
89.6949
72.2756
54.5662
37.3602
21.4388
7.50299
-3.88989
-12.3763
-17.819
-20.3168
-20.1909
-17.9489
-14.231
-9.74355
-5.18821
-1.19467
1.73645
3.274
3.27664
1.79161
-0.966542
-4.65391
-8.84642
-13.094
-16.9735
-20.1336
-22.3287
-23.4369
-23.4628
-22.526
-20.8361
-18.6616
-16.2938
-14.0125
-12.0564
-10.6014
-9.74799
-9.51828
-9.86108
-10.664
-11.7695
-12.9939
-14.1455
-15.0416
-15.5231
-15.4643
-14.7802
-13.4286
-11.4096
-8.76181
-5.55726
-1.89447
2.10824
6.3191
10.5986
14.8039
18.793
22.4281
25.5792
28.1281
29.9737
31.037
31.2674
30.6477
29.1986
26.9798
24.0892
20.6575
16.8398
12.8045
8.71919
4.73717
0.984651
-2.44913
-5.51752
-8.21709
-10.5831
-12.6805
-14.5915
-16.4015
-18.1855
-19.996
-21.8556
-23.7527
-25.6428
-27.4548
-29.0993
-30.4809
-31.5097
-32.1125
-32.2413
-31.8787
-31.039
-29.7662
-28.1277
-26.2067
-24.0922
-21.8701
-19.6138
-17.378
-15.1937
-13.0665
-10.9774
-8.88595
-6.73545
-4.4596
-1.99021
0.73476
3.76333
7.12238
10.812
14.8013
19.0277
23.3975
27.7906
32.0674
36.078
39.6731
42.714
45.0828
46.6887
47.4703
47.3943
46.449
44.6359
41.9605
38.4249
34.0248
28.7518
22.6022
15.5899
7.76356
-0.774722
-9.85099
-19.2014
-28.4556
-37.122
-44.5769
-50.0603
-52.6861
-51.4735
-45.4108
-33.5575
-15.1865
10.0426
41.8996
79.4218
120.814
163.451
204.001
238.697
263.723
275.669
272.011
251.518
214.522
163.014
100.507
31.7082
-37.9797
-103.049
-158.497
-200.364
-226.138
-234.971
-227.687
-206.597
-175.149
-137.467
-97.8529
-60.3015
-28.098
-3.53428
12.2316
19.1688
18.2357
11.1414
0.0458163
-12.7572
-25.1343
-35.3495
-42.2219
-45.1927
-44.3057
-40.1113
-33.5175
-25.6114
-17.478
-10.0408
-3.94254
0.521938
3.41553
5.11657
6.23388
7.4949
9.62469
13.2336
18.7291
26.2624
35.7163
46.7327
58.7743
71.2094
83.4061
94.8212
105.071
113.974
121.561
128.051
133.802
139.241
144.788
150.781
157.422
164.738
172.573
180.604
188.376
195.36
201.008
204.813
206.355
205.339
201.608
195.147
186.068
174.592
161.018
145.701
129.026
111.392
93.1942
74.8139
56.6105
38.9122
22.007
6.1348
-8.5201
-21.834
-33.7448
-44.2488
-53.3918
-61.2572
-67.9509
-73.5869
-78.2753
-82.1145
-85.1891
-87.5731
-89.3368
-90.5552
-91.3162
-91.7253
-91.9051
-91.9899
-92.1151
-92.4028
-92.9458
-93.7925
-94.9355
-96.3052
-97.7704
-99.1472
-100.215
-100.739
-100.497
-99.3057
-97.0464
-93.6817
-89.2641
-83.9332
-77.9004
-71.4245
-64.7808
-58.2275
-51.9766
-46.1717
-40.878
-36.0842
-31.7168
-27.6633
-23.7993
-20.0169
-16.2473
-12.4755
-8.74505
-5.15189
-1.82918
1.07406
3.41716
5.09076
6.03547
6.2535
5.81217
4.83906
3.50996
2.03147
0.620711
-0.515194
-1.19755
-1.29054
-0.710646
0.569491
2.52238
5.07151
8.10073
11.4658
15.0073
18.5627
21.9786
25.1194
27.8747
30.1631
31.9337
33.1643
33.8582
34.0381
33.7402
33.0066
31.8792
30.3937
28.5765
26.4429
23.9993
21.2476
18.1934
14.8551
11.2751
7.52989
3.73739
0.0603888
-3.29623
-6.09512
-8.08303
-9.01324
-8.67193
-6.90523
-3.64367
1.07957
7.11977
14.2228
22.0391
30.1481
38.091
45.407
51.6696
56.5182
59.6804
60.986
60.3691
57.8628
53.5871
47.7335
40.5488
32.3204
23.3637
14.011
4.60337
-4.5187
-13.0249
-20.6081
-26.9996
-31.9876
-35.4351
-37.2934
-37.605
-36.4908
-34.1139
-30.6214
-26.0671
-20.3303
-13.0511
-3.60709
8.84373
25.2424
46.4326
72.913
104.581
140.52
178.893
216.969
251.329
278.208
293.964
295.591
281.201
250.392
204.443
146.284
80.2462
11.6039
-54.0164
-111.29
-155.818
-184.631
-196.512
-192.091
-173.71
-145.067
-110.719
-75.4777
-43.8167
-19.3418
-4.40099
0.123229
-5.17752
-18.4187
-36.7597
-56.8423
-75.269
-89.0542
-95.9931
-94.904
-85.7226
-69.4447
-47.9368
-23.6469
0.737975
22.6424
39.9136
51.058
55.3791
53.0067
44.8249
32.3142
17.3372
1.89769
-12.0944
-23.0254
-29.7256
-31.5526
-28.4052
-20.6752
-9.14944
5.12174
20.9701
37.2513
52.9674
67.3572
79.9488
90.5708
99.3268
106.538
112.663
118.214
123.664
129.374
135.535
142.132
148.941
155.545
161.377
165.777
168.068
167.63
163.979
156.826
146.13
132.116
115.274
96.3268
76.1708
55.798
36.2048
18.2983
2.8118
-9.76215
-19.2109
-25.6106
-29.302
-30.8391
-30.914
-30.271
-29.6178
-29.5462
-30.4712
-32.5936
-35.8915
-40.1383
-44.9446
-49.8177
-54.2296
-57.6853
-59.7837
-60.2624
-59.0242
-56.1414
-51.8402
-46.467
-40.4435
-34.2156
-28.2039
-22.7605
-18.1383
-14.4738
-11.7861
-9.98904
-8.91497
-8.34509
-8.04242
-7.78263
-7.37914
-6.69977
-5.6737
-4.28882
-2.58091
-0.616977
1.52436
3.77234
6.08053
8.4379
10.8732
13.452
16.2669
19.423
23.0198
27.1324
31.7954
36.9902
42.6374
48.5956
54.6657
60.5993
66.1105
70.8902
74.6211
76.9955
77.7337
76.605
73.4502
68.2042
60.915
51.7572
41.0362
29.1795
16.715
4.23559
-7.64505
-18.3437
-27.358
-34.3102
-38.9795
-41.3177
-41.4463
-39.6361
-36.2708
-31.8005
-26.691
-21.3746
-16.2101
-11.4549
-7.25369
-3.64345
-0.57331
2.06346
4.39028
6.50597
8.4467
10.1562
11.4688
12.1077
11.7022
9.82041
6.0186
-0.100149
-8.82206
-20.2616
-34.3102
-50.6028
-68.5078
-87.146
-105.439
-122.188
-136.17
-146.253
-151.508
-151.302
-145.376
-133.88
-117.366
-96.7458
-73.2134
-48.1373
-22.9456
0.990091
22.4551
40.4695
54.3362
63.659
68.3349
68.5255
64.6167
57.1721
46.8854
34.5363
20.949
6.95401
-6.64778
-19.1186
-29.8139
-38.2056
-43.8936
-46.6006
-46.1477
-42.4108
-35.265
-24.53
-9.93302
8.8915
32.3512
60.7865
94.31
132.616
174.796
219.205
263.42
304.333
338.382
361.912
371.622
365.036
340.918
299.566
242.908
174.404
98.7256
21.2766
-52.3874
-117.162
-168.929
-204.968
-224.174
-227.08
-215.689
-193.141
-163.277
-130.156
-97.5922
-68.7675
-45.9528
-30.3678
-22.1794
-20.6238
-24.2253
-31.0739
-39.1221
-46.4618
-51.5511
-53.367
-51.475
-46.0158
-37.6199
-27.2698
-16.1311
-5.37944
3.95607
11.1144
15.6774
17.5929
17.1497
14.9122
11.6269
8.11673
5.17683
3.48575
3.5406
5.62254
9.79323
15.9197
23.7213
32.829
42.8485
53.4155
64.2349
75.1005
85.8904
96.5448
107.029
117.293
127.236
136.68
145.369
152.979
159.149
163.53
165.824
165.833
163.482
158.833
152.075
143.497
133.454
122.324
110.472
98.221
85.8407
73.5443
61.4986
49.839
38.6845
28.1499
18.3498
9.3958
1.38731
-5.60176
-11.536
-16.4283
-20.3442
-23.3987
-25.7461
-27.5635
-29.0317
-30.3145
-31.5403
-32.789
-34.0845
-35.3953
-36.6412
-37.7061
-38.4548
-38.7508
-38.4745
-37.5374
-35.8933
-33.5417
-30.5272
-26.9317
-22.8625
-18.4389
-13.7776
-8.98137
-4.13097
0.716841
5.52652
10.276
14.9455
19.506
23.9071
28.0702
31.885
35.2125
37.8943
39.7661
40.6753
40.499
39.1601
36.6403
32.9858
28.3074
22.7723
16.5902
9.99518
3.22579
-3.49331
-9.96542
-16.0295
-21.5612
-26.4667
-30.6731
-34.1164
-36.7315
-38.4467
-39.1851
-38.8727
-37.4537
-34.9102
-31.2818
-26.683
-21.3125
-15.4519
-9.45179
-3.70397
1.39627
5.49524
8.32619
9.7481
9.77112
8.56327
6.43562
3.80654
1.14873
-1.07402
-2.47165
-2.78531
-1.92874
-0.00799338
2.68413
5.69808
8.47858
10.4299
10.9875
9.68597
6.21683
0.467275
-7.46271
-17.267
-28.4618
-40.4325
-52.4915
-63.9417
-74.1371
-82.5341
-88.7288
-92.4779
-93.7005
-92.4648
-88.9616
-83.4689
-76.3147
-67.8417
-58.3786
-48.2213
-37.6247
-26.8042
-15.945
-5.21606
5.21568
15.1723
24.4567
32.8497
40.1126
45.9962
50.2539
52.6592
53.026
51.23
47.231
41.0919
32.9931
23.2397
12.2576
0.578197
-11.1902
-22.4015
-32.4185
-40.6615
-46.6503
-50.0313
-50.5818
-48.1868
-42.7903
-34.3296
-22.6695
-7.55913
11.3671
34.5264
62.2588
94.6445
131.299
171.19
212.522
252.738
288.661
316.773
333.615
336.241
322.675
292.28
245.987
186.332
117.28
43.8637
-28.3389
-93.7992
-147.643
-186.179
-207.279
-210.573
-197.428
-170.728
-134.485
-93.3382
-52.0049
-14.762
14.9934
35.0466
44.5084
43.7929
34.4435
18.8426
-0.151463
-19.5901
-36.7935
-49.6426
-56.7742
-57.6644
-52.6018
-42.5624
-29.013
-13.6734
1.72993
15.6859
27.0724
35.2635
40.1636
42.1708
42.0798
40.9428
39.9083
40.0609
42.2812
47.1423
54.8516
65.2439
77.8196
91.8229
106.344
120.436
133.22
143.988
152.259
157.821
160.723
161.248
159.852
157.089
153.534
149.704
146
142.656
139.722
137.069
134.409
131.343
127.423
122.21
115.345
106.601
95.9244
83.4491
69.4881
54.4993
39.0315
23.6578
8.90773
-4.7924
-17.1621
-28.0866
-37.6128
-45.9222
-53.2879
-60.0221
-66.4225
-72.7263
-79.0766
-85.5055
-91.9348
-98.1924
-104.04
-109.21
-113.442
-116.515
-118.277
-118.662
-117.691
-115.477
-112.199
-108.093
-103.42
-98.4412
-93.3962
-88.4793
-83.8265
-79.5064
-75.5209
-71.8114
-68.2727
-64.7713
-61.1665
-57.3323
-53.1772
-48.6594
-43.7959
-38.664
-33.3949
-28.1604
-23.1534
-18.5653
-14.5632
-11.2698
-8.74809
-6.99466
-5.94041
-5.46009
-5.38838
-5.54038
-5.73352
-5.80763
-5.64052
-5.15705
-4.33075
-3.17827
-1.74805
-0.105345
1.68377
3.56657
5.51375
7.52364
9.61966
11.8416
14.2318
16.8191
19.6022
22.5378
25.5329
28.4462
31.0962
33.2781
34.7852
35.4335
35.0858
33.6725
31.2051
27.7817
23.5827
18.8572
13.9012
9.03051
4.5509
0.729591
-2.22904
-4.20036
-5.14729
-5.11821
-4.23557
-2.67707
-0.652015
1.62399
3.95275
6.17301
8.17379
9.90065
11.3552
12.5882
13.689
14.7705
15.9531
17.3465
19.0293
21.028
23.2946
25.6871
27.9548
29.7349
30.5635
29.9046
27.1971
21.9149
13.6333
2.09165
-12.7582
-30.7269
-51.391
-74.1255
-98.161
-122.658
-146.786
-169.797
-191.083
-210.209
-226.923
-241.136
-252.882
-262.261
-269.376
-274.267
-276.849
-276.869
-273.892
-267.31
-256.412
-240.489
-218.982
-191.662
-158.807
-121.344
-80.9228
-39.8913
-1.15777
32.0587
56.5658
69.5822
69.1168
54.2868
25.5225
-15.3753
-65.3447
-120.331
-175.684
-226.638
-268.818
-298.699
-313.971
-313.767
-298.718
-270.843
-233.284
-189.93
-144.969
-102.429
-65.7653
-37.5291
-19.1608
-10.9209
-11.9591
-20.5041
-34.1461
-50.1688
-65.8917
-78.9766
-87.667
-90.9327
-88.512
-80.8526
-68.9683
-54.2382
-38.1795
-22.2263
-7.54442
5.09609
15.38
23.4351
29.7591
35.1018
40.3226
46.2487
53.5515
62.6593
73.7136
86.5718
100.85
115.998
131.385
146.393
160.494
173.304
184.618
194.403
202.777
209.963
216.24
221.882
227.121
232.106
236.892
241.436
245.618
249.252
252.116
253.972
254.578
253.698
251.104
246.58
239.924
230.968
219.589
205.744
189.495
171.037
150.715
129.032
106.625
84.2385
62.6683
42.7004
25.0419
10.2575
-1.28423
-9.44578
-14.3327
-16.2813
-15.8226
-13.6271
-10.4359
-6.98597
-3.93975
-1.82392
-0.986255
-1.57338
-3.53123
-6.62693
-10.4883
-14.6558
-18.6395
-21.9756
-24.2751
-25.2601
-24.786
-22.8461
-19.5626
-15.1645
-9.9586
-4.2961
1.46018
6.96423
11.9094
16.0439
19.1792
21.1922
22.0235
21.672
20.1882
17.6676
14.2433
10.0802
5.36844
0.317384
-4.85178
-9.9141
-14.6504
-18.8578
-22.3605
-25.0207
-26.7471
-27.5018
-27.3032
-26.2246
-24.3889
-21.9586
-19.1233
-16.0835
-13.0347
-10.1521
-7.57738
-5.40945
-3.70003
-2.45383
-1.63369
-1.1695
-0.96986
-0.934886
-0.968718
-0.990212
-0.940717
-0.788211
-0.527552
-0.177121
0.227497
0.641781
1.02132
1.33047
1.54942
1.679
1.74254
1.78477
1.86802
2.06628
2.45797
3.1182
4.11156
5.48604
7.26884
9.46415
12.0527
14.9926
18.2205
21.652
25.1813
28.6797
31.9938
34.9446
37.3296
38.929
39.5166
38.8769
36.8252
33.2309
28.0384
21.2844
13.108
3.75031
-6.45633
-17.1089
-27.763
-37.9666
-47.2947
-55.3808
-61.939
-66.7734
-69.771
-70.8754
-70.0412
-67.1765
-62.0818
-54.4015
-43.6082
-29.0361
-9.97546
14.1721
43.6947
78.358
117.225
158.552
199.801
237.791
268.98
289.857
297.39
289.458
265.216
225.312
171.935
108.667
40.1541
-28.3639
-91.6006
-144.788
-184.177
-207.421
-213.787
-204.182
-180.995
-147.778
-108.815
-68.6325
-31.5157
-1.07882
20.0558
30.4475
29.8821
19.28
0.490506
-23.9923
-51.3511
-78.7647
-103.689
-124.072
-138.492
-146.208
-147.137
-141.762
-131.005
-116.062
-98.2523
-78.8624
-59.0294
-39.65
-21.3285
-4.35952
11.2573
25.7756
39.64
53.41
67.6756
82.9747
99.7167
118.122
138.181
159.644
182.03
204.672
226.781
247.523
266.11
281.88
294.364
303.34
308.843
311.159
310.778
308.33
304.503
299.957
295.241
290.73
286.584
282.741
278.93
274.722
269.593
263
254.46
243.617
230.286
214.49
196.451
176.578
155.419
133.617
111.849
90.7746
70.988
52.9832
37.1301
23.6643
12.687
4.17503
-2.00336
-6.06747
-8.30145
-9.03083
-8.59996
-7.35121
-5.60688
-3.65415
-1.73369
-0.0320008
1.3221
2.25715
2.75498
2.84334
2.58605
2.07145
1.4003
0.673925
-0.0161277
-0.596481
-1.01764
-1.25686
-1.31814
-1.22956
-1.03813
-0.802971
-0.587178
-0.449464
-0.43633
-0.575744
-0.873117
-1.31011
-1.84654
-2.42511
-2.9786
-3.43838
-3.74325
-3.84753
-3.72735
-3.38438
-2.84701
-2.16867
-1.42382
-0.702047
-0.100868
0.282152
0.357303
0.0501112
-0.692299
-1.89626
-3.55831
-5.64391
-8.08818
-10.7988
-13.6606
-16.5424
-19.3044
-21.8066
-23.9182
-25.5251
-26.5376
-26.8966
-26.5771
-25.5906
-23.9844
-21.8398
-19.2678
-16.4038
-13.4015
-10.4257
-7.64459
-5.22105
-3.3031
-2.01256
-1.43268
-1.59514
-2.46796
-3.9462
-5.84806
-7.9182
-9.84001
-11.2571
-11.8026
-11.1351
-8.9763
-5.14715
0.401249
7.56725
16.091
25.5621
35.4425
45.1048
53.8813
61.1209
66.2481
68.8168
68.5544
65.3904
59.465
51.1182
40.8573
29.3094
17.1594
5.08405
-6.31392
-16.562
-25.3581
-32.5875
-38.3119
-42.7265
-46.0886
-48.6206
-50.4026
-51.2715
-50.7481
-48.0167
-41.9748
-31.3625
-14.9675
8.11593
38.21
74.808
116.411
160.493
203.625
241.76
270.655
286.388
285.887
267.405
230.85
177.937
112.097
38.1713
-38.0837
-110.625
-173.788
-222.916
-254.852
-268.25
-263.661
-243.384
-211.126
-171.506
-129.488
-89.8004
-56.4374
-32.273
-18.8429
-16.2981
-23.5242
-38.3941
-58.1134
-79.6071
-99.8965
-116.426
-127.302
-131.434
-128.562
-119.187
-104.432
-85.8321
-65.121
-44.0071
-23.9856
-6.19399
8.6742
20.3955
29.186
35.6237
40.5375
44.8783
49.5892
55.4885
63.1785
72.9861
84.9414
98.7904
114.04
130.027
146
161.205
174.972
186.772
196.27
203.342
208.075
210.734
211.725
211.533
210.665
209.588
208.678
208.177
208.162
208.543
209.06
209.311
208.784
206.912
203.128
196.923
187.91
175.877
160.826
142.997
122.871
101.146
78.6903
56.4794
35.5103
16.717
0.884902
-11.4197
-19.9001
-24.5521
-25.6574
-23.7477
-19.545
-13.8843
-7.62844
-1.58419
3.5701
7.33897
9.44069
9.81271
8.59285
6.08006
2.68088
-1.1512
-4.97577
-8.41802
-11.2082
-13.2045
-14.3974
-14.8975
-14.9077
-14.6858
-14.5023
-14.5981
-15.149
-16.2401
-17.8533
-19.8698
-22.0852
-24.2372
-26.0399
-27.2228
-27.5669
-26.9357
-25.2962
-22.7266
-19.4112
-15.6219
-11.689
-7.96422
-4.78097
-2.41556
-1.0548
-0.773664
-1.52603
-3.14993
-5.38684
-7.91272
-10.3769
-12.4438
-13.8324
-14.3477
-13.9015
-12.5189
-10.3309
-7.55501
-4.46519
-1.3578
1.48392
3.82122
5.48384
6.38411
6.52032
5.96963
4.87244
3.41084
1.78419
0.185274
-1.22035
-2.30959
-3.01044
-3.30363
-3.21805
-2.82108
-2.20557
-1.47526
-0.730397
-0.0547224
0.494942
0.896081
1.16439
1.35401
1.55416
1.88226
2.47404
3.47151
5.00989
7.20459
10.1396
13.8581
18.3551
23.574
29.4044
35.6838
42.2013
48.7049
54.912
60.5228
65.2378
68.7771
70.9014
71.4325
70.2713
67.4104
62.9406
57.0488
50.0075
42.1562
33.8774
25.5678
17.6105
10.3495
4.07284
-0.995022
-4.68516
-6.86144
-7.38321
-6.05913
-2.60165
3.40427
12.5034
25.3305
42.5206
64.5728
91.68
123.552
159.262
197.165
234.9
269.525
297.762
316.342
322.415
313.953
290.096
251.374
199.765
138.572
72.1126
5.28577
-56.9613
-110.17
-150.848
-176.831
-187.468
-183.63
-167.529
-142.396
-112.054
-80.4446
-51.1867
-27.1954
-10.423
-1.73439
-0.922631
-6.85138
-17.6936
-31.2289
-45.1572
-57.3886
-66.2764
-70.7704
-70.4794
-65.6465
-57.0465
-45.829
-33.3301
-20.8798
-9.62757
-0.407372
6.34768
10.6334
12.8477
13.7148
14.1748
15.2519
17.9192
22.9759
30.9506
42.041
56.0951
72.6349
90.9162
110.019
128.951
146.759
162.627
175.955
186.41
193.939
198.756
201.293
202.131
201.922
201.304
200.823
200.874
201.661
203.178
205.219
207.397
209.19
209.989
209.15
206.055
200.159
191.039
178.424
162.225
142.541
119.662
94.0559
66.3427
37.2662
7.65344
-21.6272
-49.7114
-75.7828
-99.1148
-119.107
-135.317
-147.478
-155.515
-159.541
-159.85
-156.895
-151.255
-143.598
-134.632
-125.059
-115.524
-106.571
-98.6049
-91.8699
-86.4356
-82.205
-78.9361
-76.2792
-73.8224
-71.1438
-67.8618
-63.6784
-58.4109
-52.0089
-44.5535
-36.2414
-27.3548
-18.2224
-9.17672
-0.513298
7.54226
14.8556
21.3912
27.2051
32.4261
37.2281
41.7972
46.3009
50.8609
55.5346
60.3068
65.0911
69.7415
74.0705
77.8721
80.9453
83.1164
84.2556
84.288
83.1963
81.0147
77.8162
73.6924
68.7305
62.9891
56.4787
49.1508
40.8992
31.5753
21.0182
9.09507
-4.25331
-18.9688
-34.8428
-51.5008
-68.4089
-84.906
-100.258
-113.728
-124.655
-132.531
-137.058
-138.184
-136.115
-131.283
-124.293
-115.853
-106.683
-97.4356
-88.6235
-80.5742
-73.4111
-67.0652
-61.3135
-55.8379
-50.2932
-44.375
-37.8761
-30.725
-22.9996
-14.9182
-6.80703
0.946087
7.94753
13.8524
18.4111
21.5014
23.1427
23.4911
22.8167
21.4686
19.8302
18.2732
17.1156
16.5875
16.8095
17.7854
19.4081
21.4784
23.7322
25.8735
27.6082
28.6745
28.8673
28.0542
26.1821
23.2747
19.4234
14.7735
9.50915
3.8415
-1.99854
-7.75902
-13.1567
-17.858
-21.4535
-23.4305
-23.1505
-19.8406
-12.6102
-0.503678
17.4032
41.8611
73.2674
111.47
155.59
203.896
253.787
301.897
344.345
377.12
396.537
399.73
385.088
352.565
303.81
242.091
172.002
99.0077
28.8602
-33.0088
-82.0602
-115.103
-130.58
-128.659
-111.121
-81.077
-42.5496
0.0136875
42.2385
80.2716
111.13
132.917
144.897
147.428
141.775
129.84
113.85
96.0399
78.3805
62.368
48.9068
38.2842
30.2337
24.0684
18.8578
13.6213
7.5073
-0.0655063
-9.32071
-20.0996
-31.8967
-43.9451
-55.3348
-65.1445
-72.5668
-77.009
-78.1595
-76.0119
-70.8497
-63.1953
-53.7352
-43.2325
-32.4388
-22.0174
-12.4848
-4.17614
2.7652
8.37534
12.8396
16.4498
19.555
22.5117
25.6381
29.1769
33.2677
37.9316
43.0672
48.4581
53.7909
58.682
62.713
65.4705
66.5893
65.7923
62.9249
57.9783
51.0982
42.5779
32.8353
22.3757
11.7455
1.48147
-7.93875
-16.1386
-22.8725
-28.0407
-31.6871
-33.9818
-35.1903
-35.6339
-35.6461
-35.5316
-35.5312
-35.7978
-36.385
-37.2501
-38.2684
-39.2578
-40.0092
-40.3188
-40.0171
-38.993
-37.2082
-34.7024
-31.5878
-28.0354
-24.2539
-20.4655
-16.8803
-13.6732
-10.9659
-8.81617
-7.21615
-6.0993
-5.35586
-4.85408
-4.46415
-4.08126
-3.64402
-3.14538
-2.63431
-2.20789
-1.99484
-2.13324
-2.74535
-3.91361
-5.66112
-7.93966
-10.627
-13.5346
-16.424
-19.0317
-21.0977
-22.3958
-22.7606
-22.1085
-20.4493
-17.8876
-14.6124
-10.8784
-6.9781
-3.21148
0.145301
2.86753
4.80285
5.88321
6.12695
5.63111
4.55548
3.10071
1.48356
-0.0876911
-1.43468
-2.42486
-2.9805
-3.08024
-2.75388
-2.07171
-1.13032
-0.0371719
1.10422
2.20663
3.20796
4.07595
4.80879
5.43203
5.99263
6.55122
7.17376
7.92365
8.85537
10.0102
11.4141
13.0788
15.0032
17.1782
19.59
22.2251
25.0729
28.1287
31.3937
34.8754
38.5854
42.5369
46.7414
51.2037
55.9158
60.8495
65.9472
71.1138
76.2086
81.0414
85.3732
88.9246
91.3917
92.4695
91.8814
89.4106
84.9298
78.4245
70.0063
59.913
48.4941
36.1859
23.4777
10.8786
-1.11001
-12.0062
-21.3416
-28.6355
-33.3575
-34.8906
-32.5144
-25.427
-12.8215
5.97797
31.3313
63.0752
100.335
141.4
183.715
223.998
258.511
283.449
295.404
291.834
271.472
234.599
183.137
120.525
51.407
-18.8502
-84.7377
-141.207
-184.217
-211.156
-221.084
-214.766
-194.517
-163.859
-127.063
-88.6284
-52.7724
-22.9823
-1.69102
9.90116
11.8462
5.31976
-7.6272
-24.3969
-42.2064
-58.4359
-70.924
-78.1783
-79.4852
-74.915
-65.2322
-51.7316
-36.0269
-19.8218
-4.6941
8.08387
17.6697
23.712
26.3473
26.14
23.9788
20.9459
18.1769
16.7278
17.463
20.9741
27.5345
37.0925
49.2984
63.5604
79.1215
95.1463
110.809
125.373
138.256
149.068
157.634
163.987
168.338
171.034
172.499
173.177
173.475
173.71
174.075
174.619
175.243
175.712
175.682
174.735
172.424
168.322
162.07
153.42
142.277
128.72
113.021
95.6324
77.1689
58.3619
40.0046
22.8858
7.72188
-4.90608
-14.6033
-21.1943
-24.7335
-25.4938
-23.9338
-20.6472
-16.3019
-11.5746
-7.08887
-3.36292
-0.771934
0.471491
0.318475
-1.13232
-3.66489
-6.98551
-10.7663
-14.6871
-18.4708
-21.9072
-24.8654
-27.2915
-29.196
-30.633
-31.6757
-32.3928
-32.8295
-32.9966
-32.8679
-32.3869
-31.4801
-30.0747
-28.1179
-25.593
-22.5309
-19.0141
-15.1727
-11.1733
-7.20233
-3.44788
-0.0815677
2.75515
4.95952
6.47002
7.2637
7.35012
6.76404
5.55886
3.8023
1.57492
-1.02898
-3.89933
-6.90877
-9.91326
-12.7561
-15.2757
-17.3169
-18.7443
-19.4557
-19.3943
-18.5563
-16.9945
-14.8153
-12.1699
-9.24108
-6.22679
-3.32225
-0.702923
1.48986
3.15927
4.25848
4.79102
4.80633
4.39144
3.66006
2.74034
1.7629
0.850193
0.108322
-0.378311
-0.549072
-0.366093
0.189345
1.1222
2.42966
4.10657
6.14899
8.55541
11.3251
14.4544
17.9311
21.7287
25.8019
30.0832
34.4832
38.8923
43.1862
47.2329
50.9003
54.0648
56.6175
58.4703
59.5588
59.8437
59.3101
57.9648
55.8335
52.9565
49.3852
45.1789
40.4028
35.1262
29.4215
23.3645
17.0329
10.506
3.86354
-2.81354
-9.4399
-15.9163
-22.1121
-27.8375
-32.8074
-36.6012
-38.6293
-38.1187
-34.1344
-25.6511
-11.6797
8.55205
35.3872
68.5261
106.855
148.364
190.183
228.771
260.235
280.765
287.117
277.081
249.868
206.332
149
81.8885
10.1223
-60.6002
-124.622
-176.946
-213.776
-232.909
-233.934
-218.219
-188.687
-149.426
-105.184
-60.8087
-20.721
11.5368
33.6151
44.5113
44.5552
35.2425
18.9475
-1.43981
-22.9018
-42.657
-58.4588
-68.7986
-72.9985
-71.1939
-64.218
-53.4144
-40.4071
-26.8612
-14.2647
-3.75647
3.98439
8.77906
10.9236
11.107
10.2884
9.55271
9.96418
12.4345
17.6206
25.8598
37.148
51.158
67.2934
84.768
102.7
120.21
136.508
150.966
163.167
172.921
180.258
185.403
188.719
190.648
191.654
192.154
192.477
192.826
193.263
193.711
193.968
193.734
192.653
190.344
186.451
180.676
172.815
162.779
150.614
136.503
120.767
103.842
86.2578
68.6009
51.4706
35.4345
20.9818
8.48452
-1.83218
-9.90476
-15.8291
-19.8412
-22.2823
-23.5527
-24.0602
-24.1701
-24.1641
-24.2128
-24.3673
-24.57
-24.6812
-24.5196
-23.9067
-22.7097
-20.8757
-18.4511
-15.5849
-12.5136
-9.53306
-6.95959
-5.08796
-4.15156
-4.29091
-5.53467
-7.79532
-10.8797
-14.5125
-18.3689
-22.1121
-25.4305
-28.0693
-29.8544
-30.7041
-30.6303
-29.7272
-28.1527
-26.1032
-23.787
-21.3991
-19.1007
-17.0057
-15.175
-13.6185
-12.304
-11.1698
-10.1406
-9.14223
-8.11449
-7.01988
-5.8478
-4.61426
-3.3576
-2.13151
-0.996554
-0.0114739
0.774497
1.32753
1.63276
1.69543
1.53966
1.20539
0.743863
0.212388
-0.331121
-0.833206
-1.24898
-1.5448
-1.69904
-1.70079
-1.54667
-1.23625
-0.767414
-0.132893
0.680593
1.68956
2.90732
4.33465
5.94973
7.69976
9.49737
11.2237
12.7389
13.8996
14.5794
14.6892
14.1938
13.1192
11.5513
9.62469
7.50426
5.36373
3.36526
1.64449
0.303791
-0.585139
-0.970991
-0.807962
-0.0408867
1.40502
3.62627
6.73332
10.8336
16.0079
22.2842
29.6135
37.8516
46.7505
55.9606
65.046
73.5105
80.835
86.5216
90.141
91.3775
90.067
86.2216
80.0377
71.8841
62.2719
51.8068
41.13
30.854
21.5017
13.4563
6.93067
1.9618
-1.56592
-3.86809
-5.18244
-5.67438
-5.33984
-3.9232
-0.870491
4.66321
13.7386
27.4855
46.8939
72.5683
104.482
141.778
182.664
224.437
263.659
296.469
319.011
327.919
320.787
296.553
255.741
200.511
134.505
62.4994
-10.0827
-77.7535
-135.545
-179.529
-207.209
-217.728
-211.891
-191.985
-161.448
-124.427
-85.2888
-48.137
-16.4086
7.4273
22.0306
27.2115
23.8215
13.541
-1.40134
-18.5384
-35.4645
-50.0935
-60.851
-66.7866
-67.6023
-63.6047
-55.5941
-44.7104
-32.2576
-19.5309
-7.66368
2.48841
10.4174
15.984
19.3921
21.1247
21.8539
22.3366
23.3114
25.4082
29.0797
34.5603
41.8557
50.7601
60.8961
71.7721
82.8464
93.5919
103.553
112.388
119.897
126.026
130.859
134.593
137.495
139.862
141.971
144.038
146.18
148.392
150.542
152.378
153.552
153.66
152.284
149.044
143.641
135.901
125.806
113.508
99.3301
83.7551
67.3902
50.9231
35.0668
20.4992
7.80448
-2.57745
-10.3886
-15.5717
-18.2694
-18.8022
-17.6295
-15.2971
-12.3782
-9.41519
-6.86836
-5.07734
-4.23928
-4.40466
-5.48996
-7.30411
-9.58425
-12.0357
-14.3705
-16.341
-17.764
-18.5343
-18.6278
-18.0941
-17.0425
-15.6224
-14.0019
-12.3476
-10.8073
-9.49735
-8.49531
-7.83774
-7.5231
-7.51816
-7.76677
-8.19923
-8.74064
-9.31681
-9.85685
-10.2926
-10.556
-10.5755
-10.2749
-9.57544
-8.40178
-6.69336
-4.41775
-1.5845
1.74396
5.44719
9.34936
13.2304
16.8452
19.9475
22.3175
23.7867
24.2589
23.7226
22.2539
20.0094
17.2093
14.1141
10.9962
8.11162
5.67375
3.83328
2.66576
2.16809
2.26422
2.8186
3.65573
4.58311
5.41473
5.9923
6.20178
5.98355
5.33521
4.30726
2.99251
1.51105
-0.00720501
-1.4399
-2.68751
-3.68455
-4.4058
-4.86683
-5.11926
-5.24175
-5.32807
-5.47398
-5.76491
-6.26586
-7.01495
-8.02131
-9.26726
-10.7142
-12.3105
-14.0003
-15.7296
-17.4498
-19.1153
-20.6755
-22.0621
-23.1724
-23.8538
-23.8923
-23.011
-20.8819
-17.1535
-11.4926
-3.63655
6.55003
19.0237
33.5241
49.5574
66.4076
83.1774
98.8565
112.411
122.886
129.502
131.741
129.408
122.651
111.95
98.0701
81.9774
64.7459
47.4529
31.0831
16.4527
4.15942
-5.4366
-12.2021
-16.1947
-17.6086
-16.7082
-13.7592
-8.96134
-2.39081
6.04148
16.6082
29.7513
46.0272
66.0071
90.1353
118.559
150.956
186.387
223.218
259.145
291.326
316.643
332.049
334.968
323.685
297.665
257.741
206.137
146.307
82.6182
19.8916
-37.1117
-84.2106
-118.254
-137.441
-141.485
-131.581
-110.216
-80.8271
-47.3732
-13.8661
16.0722
39.578
54.797
60.9982
58.545
48.739
33.5665
15.3873
-3.39063
-20.6076
-34.5869
-44.2827
-49.3322
-50.0156
-47.1376
-41.8542
-35.4746
-29.2633
-24.2712
-21.2121
-20.3968
-21.727
-24.7428
-28.7129
-32.7511
-35.9407
-37.4528
-36.6406
-33.104
-26.7162
-17.6148
-6.16107
7.12376
21.6344
36.7586
51.9437
66.7466
80.8602
94.1161
106.467
117.952
128.657
138.669
148.038
156.759
164.749
171.859
177.883
182.581
185.71
187.039
186.381
183.593
178.591
171.344
161.871
150.24
136.568
121.024
103.841
85.3232
65.8516
45.8864
25.9549
6.62965
-11.5056
-27.8976
-42.0699
-53.6673
-62.4914
-68.5242
-71.9336
-73.0605
-72.387
-70.4891
-67.9785
-65.4384
-63.3631
-62.1053
-61.8409
-62.5526
-64.0363
-65.9297
-67.7586
-68.996
-69.1273
-67.7137
-64.4469
-59.1885
-51.9913
-43.0978
-32.9191
-21.994
-10.9354
-0.367622
9.13639
17.1116
23.2456
27.4052
29.6441
30.1893
29.4085
27.7624
25.7468
23.8301
22.3953
21.6896
21.7915
22.597
23.8286
25.0663
25.7978
25.4825
23.6234
19.836
13.9089
5.84621
-4.11235
-15.4984
-27.6484
-39.7611
-50.973
-60.4442
-67.4442
-71.4283
-72.0944
-69.4158
-63.6426
-55.2754
-45.0123
-33.6774
-22.1405
-11.2361
-1.69345
5.91745
11.2177
14.0295
14.3651
12.4011
8.44156
2.87928
-3.84181
-11.2572
-18.9046
-26.3392
-33.143
-38.9328
-43.3687
-46.1659
-47.1099
-46.0748
-43.0407
-38.1075
-31.5002
-23.5634
-14.7428
-5.55448
3.45654
11.7631
18.9041
24.5265
28.4177
30.5213
30.936
29.8978
27.7471
24.8868
21.738
18.6983
16.1104
14.2424
13.282
13.3422
14.4756
16.6917
19.9722
24.2817
29.5707
35.7713
42.7867
50.479
58.6571
67.0697
75.405
83.2987
90.3502
96.1463
100.29
102.433
102.307
99.7517
94.7373
87.3768
77.9265
66.7736
54.4118
41.4061
28.3514
15.8305
4.37959
-5.53348
-13.5121
-19.2142
-22.3205
-22.4982
-19.3744
-12.535
-1.56442
13.8696
33.8888
58.2534
86.2166
116.422
146.878
175.043
198.021
212.864
216.937
208.303
186.053
150.535
103.424
47.6274
-12.9754
-73.9338
-130.701
-179.131
-215.922
-238.957
-247.499
-242.21
-225.02
-198.846
-167.215
-133.842
-102.216
-75.2407
-54.9677
-42.4558
-37.7517
-39.9917
-47.5975
-58.5364
-70.6077
-81.7188
-90.1192
-94.5691
-94.4284
-89.6657
-80.7928
-68.7422
-54.7076
-39.9713
-25.7398
-13.007
-2.45798
5.5789
11.1319
14.5425
16.3896
17.3933
18.3142
19.8596
22.609
26.9636
33.125
41.0986
50.7191
61.6911
73.6366
86.1434
98.8083
111.271
123.239
134.493
144.897
154.379
162.922
170.541
177.261
183.094
188.022
191.978
194.844
196.446
196.567
194.962
191.39
185.637
177.555
167.09
154.31
139.419
122.761
104.817
86.1738
67.4942
49.469
32.7652
17.9723
5.55362
-4.19283
-11.1591
-15.4341
-17.2915
-17.1597
-15.5774
-13.139
-10.4369
-8.00691
-6.28208
-5.56075
-5.99087
-7.57158
-10.1704
-13.553
-17.4207
-21.4509
-25.3356
-28.8133
-31.6911
-33.8575
-35.282
-36.0072
-36.1317
-35.7901
-35.1303
-34.2931
-33.395
-32.517
-31.6993
-30.942
-30.2114
-29.4504
-28.5906
-27.565
-26.3199
-24.8229
-23.0685
-21.079
-18.9023
-16.6059
-14.2698
-11.9773
-9.80731
-7.82661
-6.08496
-4.61208
-3.41714
-2.49042
-1.80656
-1.32906
-1.01513
-0.820531
-0.703735
-0.629197
-0.569418
-0.505764
-0.428041
-0.332913
-0.221299
-0.095034
0.0467687
0.211026
0.412887
0.676066
1.03077
1.50907
2.13817
2.93251
3.88594
4.96577
6.1098
7.22776
8.20748
8.92569
9.26256
9.11812
8.42853
7.17969
5.4158
3.24135
0.815401
-1.66146
-3.96643
-5.87773
-7.19896
-7.78153
-7.54196
-6.47196
-4.63964
-2.18186
0.71148
3.81891
6.91208
9.78044
12.2531
14.2151
15.6175
16.4789
16.8808
16.9563
16.8756
16.8287
17.0094
17.6006
18.7636
20.6293
23.2933
26.8122
31.2001
36.4246
42.4014
48.9865
55.9697
63.0695
69.9327
76.1434
81.2415
84.7526
86.2275
85.2877
81.6717
75.2746
66.177
54.6553
41.1731
26.3512
10.9202
-4.3398
-18.6652
-31.3717
-41.9051
-49.8723
-55.0451
-57.3351
-56.7397
-53.2702
-46.874
-37.3704
-24.4213
-7.55484
13.7489
39.91
71.0563
106.819
146.156
187.253
227.533
263.809
292.57
310.374
314.301
302.399
274.05
230.187
173.328
107.401
37.3793
-31.2353
-93.0055
-143.159
-178.11
-195.841
-196.083
-180.301
-151.46
-113.638
-71.518
-29.8404
7.11735
35.9785
54.5671
62.0481
58.9008
46.7429
28.0369
5.72612
-17.1524
-37.8276
-54.0873
-64.4752
-68.3778
-66.0019
-58.2563
-46.5616
-32.6198
-18.1742
-4.79136
6.31192
14.3788
19.1545
20.8613
20.1176
17.8165
14.9842
12.6367
11.6532
12.6804
16.0747
21.8862
29.8812
39.5967
50.4157
61.6535
72.6415
82.8012
91.699
99.0781
104.867
109.166
112.212
114.339
115.918
117.314
118.835
120.698
123.003
125.732
128.744
131.798
134.576
136.706
137.803
137.491
135.438
131.385
125.169
116.747
106.213
93.8025
79.8922
64.978
49.6432
34.5116
20.1915
7.21551
-4.01336
-13.2648
-20.5039
-25.8901
-29.751
-32.5337
-34.7391
-36.8495
-39.2584
-42.2141
-45.7843
-49.8473
-54.1118
-58.1602
-61.5116
-63.6933
-64.3117
-63.113
-60.0245
-55.1727
-48.8743
-41.6038
-33.9389
-26.4944
-19.8505
-14.4865
-10.7281
-8.71456
-8.39047
-9.52189
-11.7348
-14.5699
-17.5458
-20.2213
-22.2497
-23.415
-23.6488
-23.0239
-21.7283
-20.0245
-18.2007
-16.5217
-15.1881
-14.3077
-13.8836
-13.8195
-13.9402
-14.0238
-13.8386
-13.1816
-11.9102
-9.96505
-7.37956
-4.27591
-0.849051
2.6591
5.99089
8.90513
11.2057
12.7625
13.5234
13.5135
12.8258
11.6018
10.0074
8.20725
6.34063
4.50426
2.74319
1.05223
-0.612628
-2.31478
-4.1131
-6.03801
-8.07199
-10.1384
-12.1012
-13.7753
-14.9479
-15.4066
-14.97
-13.5182
-11.0169
-7.53235
-3.23514
1.60847
6.65699
11.5237
15.8133
19.162
21.2755
21.9626
21.1594
18.9417
15.523
11.2396
6.52148
1.85313
-2.27176
-5.39766
-7.15094
-7.27532
-5.65517
-2.32398
2.54258
8.64822
15.6094
22.9964
30.3784
37.366
43.648
49.0178
53.387
56.7842
59.3402
61.2612
62.7937
64.1852
65.6457
67.3153
69.2399
71.3594
73.5074
75.4246
76.7816
77.2107
76.3429
73.8458
69.4591
63.0252
54.5111
44.0199
31.7937
18.2075
3.7584
-10.9464
-25.1991
-38.1966
-49.0425
-56.7541
-60.2814
-58.552
-50.5495
-35.4316
-12.6808
17.7275
55.1642
98.2279
144.701
191.607
235.39
272.208
298.31
310.472
306.414
285.153
247.218
194.706
131.146
61.1823
-9.87977
-76.6238
-134.087
-178.275
-206.56
-217.92
-212.98
-193.876
-163.946
-127.305
-88.353
-51.2845
-19.6516
3.96622
18.1569
22.7209
18.5742
7.53144
-7.99452
-25.3332
-41.8938
-55.4595
-64.4072
-67.8348
-65.5894
-58.2037
-46.7567
-32.6839
-17.5648
-2.91528
9.99004
20.2472
27.393
31.4142
32.6987
31.9439
30.0347
27.9115
26.4455
26.3353
28.0369
31.7315
37.3323
44.5233
52.8244
61.6686
70.4817
78.7536
86.0919
92.2539
97.155
100.855
103.525
105.407
106.767
107.845
108.821
109.788
110.738
111.56
112.053
111.945
110.927
108.686
104.943
99.4942
92.2433
83.2266
72.6273
60.7729
48.1166
35.2038
22.6256
10.9649
0.741685
-7.63628
-13.9118
-18.0001
-19.9928
-20.1427
-18.8327
-16.5318
-13.7451
-10.9615
-8.60734
-7.00927
-6.37096
-6.76475
-8.13872
-10.3371
-13.1308
-16.2538
-19.4408
-22.4607
-25.1428
-27.3925
-29.1936
-30.6
-31.7164
-32.6723
-33.5939
-34.5779
-35.6703
-36.8557
-38.0552
-39.1359
-39.9274
-40.2461
-39.9194
-38.8105
-36.8374
-33.9846
-30.3069
-25.9242
-21.0094
-15.7693
-10.4241
-5.18509
-0.234684
4.28942
8.30471
11.7879
14.7729
17.3424
19.6156
21.7321
23.8348
26.0525
28.4851
31.1914
34.1821
37.417
40.8081
44.2271
47.5166
50.5046
53.0193
54.9034
56.0265
56.2935
55.6495
54.0807
51.6117
48.3011
44.2345
39.518
34.2706
28.6173
22.6827
16.5842
10.4271
4.30034
-1.72636
-7.60289
-13.2973
-18.7921
-24.079
-29.1529
-34.0057
-38.6213
-42.9726
-47.0212
-50.7192
-54.0145
-56.8572
-59.2075
-61.0434
-62.3666
-63.2056
-63.6145
-63.6686
-63.4553
-63.0634
-62.5717
-62.0385
-61.4945
-60.9395
-60.3443
-59.6555
-58.8051
-57.7207
-56.3366
-54.6024
-52.4897
-49.9935
-47.1299
-43.9298
-40.43
-36.663
-32.6486
-28.3879
-23.8619
-19.0353
-13.8649
-8.31044
-2.34838
4.01643
10.741
17.7388
24.8793
31.9916
38.8718
45.2923
51.012
55.787
59.3805
61.5738
62.1778
61.0459
58.0885
53.2867
46.7053
38.501
28.9252
18.3186
7.0979
-4.2648
-15.2656
-25.3916
-34.1374
-41.0085
-45.512
-47.134
-45.3145
-39.432
-28.8155
-12.7992
9.17106
37.385
71.6871
111.303
154.714
199.623
243.04
281.502
311.409
329.439
332.984
320.54
291.991
248.724
193.57
130.551
64.4759
0.427966
-56.7808
-103.125
-135.778
-153.382
-156.127
-145.656
-124.803
-97.204
-66.8398
-37.568
-12.6992
5.33104
15.1634
16.573
10.388
-1.7094
-17.4681
-34.3959
-50.0873
-62.5105
-70.2222
-72.49
-69.3154
-61.364
-49.8199
-36.1891
-22.0826
-9.00646
1.81462
9.56194
13.8849
14.8995
13.1292
9.40231
4.72221
0.130528
-3.41938
-5.16345
-4.59252
-1.47846
4.13772
11.9892
21.6483
32.6011
44.3209
56.3297
68.2418
79.7849
90.8
101.222
111.047
120.296
128.972
137.038
144.39
150.86
156.226
160.23
162.616
163.163
161.715
158.209
152.687
145.302
136.309
126.039
114.878
103.227
91.475
79.9641
68.9655
58.6624
49.1413
40.3939
32.327
24.7832
17.5668
10.475
3.32928
-3.99516
-11.5476
-19.2891
-27.0913
-34.7477
-41.9951
-48.5439
-54.112
-58.4595
-61.4181
-62.9123
-62.9699
-61.7196
-59.3775
-56.2235
-52.5711
-48.7361
-45.0059
-41.616
-38.7345
-36.4571
-34.8106
-33.7659
-33.2543
-33.1868
-33.4709
-34.0236
-34.7785
-35.6865
-36.7107
-37.8177
-38.9673
-40.1029
-41.1445
-41.9874
-42.5047
-42.5562
-42.0005
-40.7104
-38.5885
-35.5814
-31.6909
-26.9812
-21.5799
-15.6748
-9.50472
-3.34576
2.50579
7.7531
12.1194
15.3682
17.3215
17.8749
17.0085
14.7922
11.385
7.02746
2.02782
-3.25828
-8.45296
-13.1843
-17.1151
-19.97
-21.5579
-21.7874
-20.674
-18.3378
-14.9915
-10.9202
-6.45467
-1.9406
2.2931
5.96344
8.85683
10.8443
11.8869
12.0303
11.3909
10.1342
8.44932
6.52449
4.52492
2.57791
0.765851
-0.872185
-2.33162
-3.62857
-4.78414
-5.81008
-6.69848
-7.41745
-7.91332
-8.11878
-7.96528
-7.39733
-6.38583
-4.93807
-3.10246
-0.966937
1.34904
3.70794
5.97151
8.01972
9.76889
11.1864
12.2995
13.1975
14.0242
14.9648
16.224
18.0023
20.4707
23.7491
27.8899
32.8711
38.5978
44.9135
51.617
58.4845
65.2896
71.8207
77.8899
83.3354
88.0155
91.7986
94.553
96.1407
96.4185
95.2482
92.5147
88.15
82.1575
74.6323
65.7724
55.8777
45.3366
34.6033
24.1716
14.5519
6.25885
-0.187532
-4.24842
-5.34843
-2.867
3.8449
15.4077
32.3088
54.7544
82.4979
114.679
149.71
185.263
218.367
245.647
263.67
269.37
260.482
235.924
196.055
142.762
79.3557
10.2742
-59.3685
-124.33
-179.81
-221.974
-248.352
-258.076
-251.917
-232.131
-202.136
-166.072
-128.295
-92.8796
-63.1838
-41.5322
-29.0432
-25.6136
-30.0522
-40.3313
-53.9183
-68.1372
-80.5143
-89.0655
-92.4948
-90.2882
-82.7011
-70.6497
-55.5316
-39.0017
-22.7385
-8.22873
3.40304
11.5041
15.9338
17.0364
15.5567
12.5136
9.05217
6.29393
5.20362
6.48723
10.5302
17.3789
26.7639
38.157
50.8539
64.0687
77.0292
89.0622
99.6596
108.519
115.558
120.9
124.838
127.776
130.166
132.438
134.934
137.865
141.274
145.038
148.875
152.389
155.11
156.56
156.302
153.994
149.417
142.505
133.343
122.159
109.303
95.2199
80.412
65.4065
50.7181
36.817
24.1009
12.8729
3.32729
-4.4561
-10.5091
-14.9637
-18.0328
-19.9862
-21.1225
-21.741
-22.116
-22.475
-22.9846
-23.7427
-24.7795
-26.065
-27.5218
-29.0417
-30.5032
-31.7881
-32.7958
-33.4526
-33.7175
-33.5827
-33.0704
-32.2265
-31.1123
-29.796
-28.3438
-26.8133
-25.2485
-23.6765
-22.1081
-20.5397
-18.9586
-17.3495
-15.7038
-14.0278
-12.3507
-10.7298
-9.24972
-8.01699
-7.14721
-6.74751
-6.89619
-7.6232
-8.89515
-10.6084
-12.5922
-14.6227
-16.4459
-17.807
-18.482
-18.3069
-17.1998
-15.174
-12.3388
-8.88925
-5.08524
-1.22344
2.39468
5.49462
7.85684
9.33777
9.88185
9.52371
8.38071
6.63713
4.52229
2.28487
0.166756
-1.62118
-2.91874
-3.6297
-3.72776
-3.25473
-2.31166
-1.04411
0.376641
1.7741
2.98658
3.88449
4.38306
4.44924
4.10212
3.40723
2.46536
1.39775
0.32957
-0.626027
-1.38113
-1.88202
-2.11294
-2.09442
-1.87704
-1.53152
-1.13705
-0.769192
-0.489238
-0.336015
-0.32113
-0.427876
-0.613617
-0.815022
-0.955183
-0.951514
-0.723299
-0.19792
0.684897
1.9711
3.69245
5.86825
8.50782
11.6125
15.1766
19.1848
23.6082
28.396
33.4665
38.6986
43.9254
48.9341
53.4728
57.2655
60.0337
61.5238
61.5346
59.9431
56.7227
51.9523
45.8126
38.5715
30.5592
22.137
13.664
5.46682
-2.18157
-9.07157
-15.0508
-20.0023
-23.8085
-26.3071
-27.2442
-26.2368
-22.7553
-16.1366
-5.63628
9.4744
29.773
55.5226
86.5041
121.873
160.076
198.851
235.343
266.321
288.496
298.9
295.266
276.371
242.269
194.389
135.464
69.3128
0.47893
-66.2134
-126.139
-175.326
-210.838
-231.035
-235.691
-225.965
-204.217
-173.72
-138.278
-101.814
-67.9651
-39.7261
-19.1903
-7.39699
-4.30756
-8.90069
-19.3715
-33.4049
-48.4869
-62.2152
-72.5728
-78.1341
-78.1849
-72.7466
-62.5115
-48.7012
-32.8742
-16.7071
-1.78185
10.5992
19.5476
24.6626
26.0391
24.2167
20.0797
14.726
9.32239
4.96515
2.56109
2.74149
5.81503
11.7617
20.264
30.7687
42.5684
54.8928
66.9968
78.2379
88.1326
96.3903
102.921
107.818
111.325
113.785
115.582
117.089
118.618
120.379
122.46
124.817
127.281
129.578
131.358
132.229
131.796
129.701
125.656
119.483
111.134
100.71
88.4705
74.8195
60.2884
45.499
31.1163
17.7944
6.12125
-3.43407
-10.5625
-15.1415
-17.2436
-17.1244
-15.1931
-11.9679
-8.021
-3.92181
-0.181905
2.78989
4.71888
5.47902
5.09014
3.69928
1.54941
-1.05967
-3.813
-6.41946
-8.64348
-10.3264
-11.3959
-11.8632
-11.8103
-11.3694
-10.6984
-9.95555
-9.27742
-8.76165
-8.45729
-8.36263
-8.43052
-8.57983
-8.71097
-8.7233
-8.5318
-8.08088
-7.35349
-6.37455
-5.20838
-3.95072
-2.71657
-1.62562
-0.787255
-0.287059
-0.176397
-0.466
-1.12378
-2.07635
-3.21342
-4.39389
-5.45323
-6.21187
-6.48531
-6.09675
-4.89301
-2.76329
0.340372
4.3841
9.23823
14.6724
20.3631
25.9146
30.8928
34.869
37.4674
38.411
37.5576
34.9228
30.6834
25.1626
18.7972
12.0911
5.56164
-0.313438
-5.14326
-8.65756
-10.7243
-11.3496
-10.6626
-8.8873
-6.30855
-3.23644
0.0257013
3.20615
6.08079
8.48015
10.2888
11.4396
11.9048
11.6874
10.8138
9.32903
7.29462
4.78927
1.91027
-1.22457
-4.47599
-7.68383
-10.6697
-13.242
-15.2028
-16.357
-16.5228
-15.5434
-13.2979
-9.71224
-4.76748
1.49459
8.96941
17.4916
26.8407
36.7505
46.9203
57.0282
66.7434
75.7384
83.6992
90.3342
95.3824
98.6227
99.8835
99.0546
96.0992
91.0656
84.095
75.4242
65.379
54.3591
42.8121
31.2011
19.9676
9.49646
0.0889066
-8.05066
-14.8079
-20.1296
-23.9737
-26.2434
-26.7172
-24.9907
-20.4486
-12.2846
0.415573
18.5272
42.6849
73.0527
109.106
149.472
191.876
233.225
269.846
297.854
313.621
314.27
298.127
265.047
216.565
155.834
87.342
16.4599
-51.1484
-110.152
-156.144
-186.119
-198.771
-194.59
-175.727
-145.686
-108.859
-69.9777
-33.5652
-3.43476
17.6891
28.397
28.6479
19.6556
3.63399
-16.5568
-37.8127
-57.1822
-72.2101
-81.1896
-83.2999
-78.6235
-68.05
-53.09
-35.6293
-17.6592
-1.01846
12.8215
22.9063
28.8695
30.9233
29.7773
26.5014
22.3556
18.611
16.384
16.5067
19.443
25.2622
33.665
44.0573
55.6567
67.6146
79.1371
89.5868
98.5529
105.884
111.678
116.243
120.021
123.509
127.166
131.337
136.196
141.71
147.639
153.555
158.896
163.022
165.29
165.124
162.08
155.894
146.519
134.137
119.15
102.157
83.9052
65.2357
47.0146
30.0634
15.0926
2.64408
-6.95114
-13.5959
-17.4279
-18.7988
-18.2322
-16.3665
-13.8875
-11.4587
-9.65642
-8.91723
-9.50292
-11.4861
-14.7577
-19.0541
-24.0004
-29.1633
-34.106
-38.4395
-41.8629
-44.1887
-45.3519
-45.4026
-44.4858
-42.8108
-40.6185
-38.1475
-35.6065
-33.155
-30.8924
-28.8579
-27.0381
-25.381
-23.8128
-22.2569
-20.6496
-18.9539
-17.167
-15.3237
-13.4932
-11.7718
-10.2715
-9.10598
-8.37596
-8.155
-8.47705
-9.32702
-10.6352
-12.2758
-14.071
-15.7992
-17.2087
-18.0366
-18.0319
-16.9816
-14.7379
-11.245
-6.55917
-0.861132
5.54389
12.2407
18.7331
24.4863
28.9777
31.7522
32.4742
30.9693
27.2523
21.5341
14.2089
5.82102
-2.98539
-11.5265
-19.1439
-25.2657
-29.4585
-31.4634
-31.2149
-28.8391
-24.6358
-19.0439
-12.5973
-5.87445
0.553445
6.17022
10.556
13.4185
14.6115
14.1411
12.1581
8.93711
4.84625
0.308304
-4.24149
-8.39721
-11.8192
-14.2626
-15.5944
-15.7981
-14.966
-13.2799
-10.9848
-8.35713
-5.67214
-3.1743
-1.05256
0.577286
1.68257
2.31631
2.61289
2.77791
3.0725
3.79273
5.24461
7.71522
11.4418
16.5805
23.179
31.1543
40.2811
50.1928
60.3967
70.3042
79.274
86.6661
91.9001
94.5128
94.2077
90.8908
84.6869
75.9345
65.1588
53.0246
40.2752
27.6637
15.8832
5.50526
-3.06671
-9.62482
-14.1591
-16.8335
-17.9348
-17.797
-16.7066
-14.8008
-11.9727
-7.80618
-1.55872
7.78706
21.3957
40.3783
65.54
97.1109
134.508
176.178
219.571
261.264
297.252
323.376
335.839
331.742
309.553
269.439
213.392
145.119
69.7092
-6.90348
-78.5879
-139.707
-185.749
-213.818
-222.916
-213.998
-189.778
-154.34
-112.6
-69.6955
-30.3885
1.45358
23.2305
33.8044
33.5038
23.9496
7.73827
-11.9679
-31.8852
-49.03
-61.066
-66.5401
-64.987
-56.8995
-43.5796
-26.8995
-9.01079
7.95848
22.177
32.3233
37.7155
38.3486
34.8432
28.319
20.216
12.0912
5.4181
1.41384
0.913219
4.30037
11.501
22.0296
35.0813
49.6502
64.6588
79.0807
92.0417
102.891
111.238
116.953
120.137
121.075
120.173
117.889
114.679
110.94
106.984
103.011
99.1059
95.2495
91.3316
87.1798
82.5907
77.3651
71.3427
64.4334
56.6407
48.0744
38.9505
29.5752
20.3173
11.5675
3.69334
-3.00703
-8.34367
-12.2612
-14.848
-16.3261
-17.0229
-17.3298
-17.6508
-18.3512
-19.7124
-21.8981
-24.9373
-28.7261
-33.0459
-37.5962
-42.0364
-46.0303
-49.2884
-51.6012
-52.8607
-53.0677
-52.3249
-50.8179
-48.7868
-46.4936
-44.1892
-42.0843
-40.3282
-38.9967
-38.0896
-37.5378
-37.218
-36.9717
-36.6277
-36.0239
-35.0288
-33.5586
-31.5905
-29.1687
-26.4037
-23.4623
-20.5506
-17.8887
-15.6834
-14.099
-13.2323
-13.0955
-13.6088
-14.6052
-15.8469
-17.0513
-17.9228
-18.1872
-17.6225
-16.0832
-13.5148
-9.9574
-5.53814
-0.456575
5.03603
10.6589
16.1232
21.151
25.4911
28.9309
31.3063
32.5085
32.4894
31.2641
28.9124
25.576
21.453
16.7889
11.8634
6.97417
2.4178
-1.53014
-4.63531
-6.72265
-7.69101
-7.52251
-6.28549
-4.13027
-1.2777
1.99894
5.39702
8.61058
11.3568
13.3998
14.5702
14.7772
14.0125
12.3461
9.91431
6.90122
3.51668
-0.026277
-3.53173
-6.83595
-9.81544
-12.3874
-14.5029
-16.1356
-17.2668
-17.8727
-17.9131
-17.3275
-16.0368
-13.9521
-10.9886
-7.08298
-2.21057
3.59951
10.2551
17.5987
25.4135
33.4369
41.381
48.9568
55.899
61.9888
67.0692
71.0531
73.9205
75.7054
76.4761
76.3104
75.2709
73.3859
70.6381
66.9658
62.2756
56.4656
49.4557
41.2194
31.8129
21.3947
10.2347
-1.29063
-12.7139
-23.4999
-33.0701
-40.8229
-46.1449
-48.4126
-46.9896
-41.2278
-30.4873
-14.1867
8.10772
36.5525
70.8731
110.209
152.997
196.928
239.013
275.775
303.565
318.958
319.205
302.643
269.023
219.676
157.496
86.7179
12.5231
-59.4942
-123.917
-176.085
-212.582
-231.571
-232.944
-218.261
-190.501
-153.667
-112.29
-70.907
-33.5776
-3.48817
17.3091
28.0047
28.9879
21.6695
8.20502
-8.83841
-26.8259
-43.3672
-56.5631
-65.164
-68.6306
-67.1012
-61.2788
-52.262
-41.3465
-29.8244
-18.8089
-9.10272
-1.12453
5.10289
9.90699
13.8735
17.7253
22.1917
27.8876
35.2186
44.3243
55.0645
67.0471
79.6916
92.3152
104.229
114.831
123.679
130.539
135.405
138.485
140.159
140.921
141.308
141.831
142.908
144.821
147.685
151.441
155.864
160.595
165.177
169.1
171.854
172.967
172.048
168.811
163.096
154.879
144.269
131.505
116.939
101.021
84.2759
67.2709
50.5877
34.785
20.3633
7.7305
-2.82603
-11.1599
-17.2743
-21.3177
-23.5669
-24.3982
-24.2494
-23.5771
-22.813
-22.3253
-22.3867
-23.1556
-24.6683
-26.8458
-29.5116
-32.4184
-35.2812
-37.8115
-39.7498
-40.8925
-41.1112
-40.3625
-38.6894
-36.2139
-33.1228
-29.6489
-26.0497
-22.5857
-19.4992
-16.996
-15.2315
-14.2998
-14.2282
-14.9763
-16.4391
-18.4559
-20.8214
-23.3023
-25.6545
-27.6424
-29.0581
-29.7376
-29.5746
-28.5285
-26.6278
-23.9668
-20.6968
-17.0125
-13.1348
-9.29125
-5.69675
-2.53594
0.0510911
1.97834
3.21791
3.79829
3.79747
3.33166
2.54117
1.57497
0.575716
-0.333326
-1.0581
-1.53963
-1.75563
-1.71801
-1.46702
-1.06287
-0.576168
-0.0782471
0.367487
0.712283
0.926268
0.999903
0.942756
0.779977
0.54715
0.284338
0.0301997
-0.183029
-0.333102
-0.409538
-0.413553
-0.356387
-0.256427
-0.135694
-0.0162453
0.0829848
0.148521
0.173626
0.158479
0.109365
0.0371485
-0.0445556
-0.120961
-0.176791
-0.195421
-0.156036
-0.0287827
0.231514
0.691879
1.44632
2.61782
4.35581
6.82847
10.2101
14.6647
20.3275
27.2869
35.5685
45.1233
55.8216
67.453
79.7327
92.3129
104.8
116.772
127.8
137.469
145.399
151.259
154.79
155.816
154.254
150.124
143.55
134.754
124.048
111.815
98.4917
84.5407
70.4308
56.6155
43.5202
31.5372
21.0343
12.3755
5.95243
2.22159
1.73679
5.16205
13.2494
26.7676
46.375
72.4439
104.857
142.815
184.692
228.003
269.493
305.387
331.764
345.031
342.418
322.423
285.132
232.349
167.5
95.3282
21.3954
-48.5286
-109.114
-156.061
-186.56
-199.556
-195.786
-177.605
-148.617
-113.181
-75.855
-40.8645
-11.6472
9.46072
21.3764
24.2524
19.3084
8.54833
-5.58785
-20.5883
-34.1988
-44.6799
-50.9659
-52.7168
-50.2672
-44.4921
-36.6152
-27.993
-19.9049
-13.3768
-9.05893
-7.16729
-7.49144
-9.46001
-12.2503
-14.9233
-16.5635
-16.4053
-13.9299
-8.92247
-1.48521
7.99148
18.8934
30.4711
41.9396
52.5756
61.8003
69.2384
74.7478
78.4187
80.544
81.5682
82.0202
82.4424
83.3223
85.0361
87.8089
91.6967
96.5875
102.223
108.231
114.17
119.572
123.983
126.994
128.265
127.54
124.655
119.541
112.234
102.869
91.6875
79.0324
65.337
51.1085
36.9003
23.2755
10.7657
-0.172308
-9.19603
-16.1077
-20.8711
-23.6126
-24.6053
-24.2385
-22.9762
-21.3099
-19.7114
-18.5895
-18.2572
-18.9092
-20.6121
-23.3079
-26.8271
-30.9121
-35.2458
-39.4853
-43.2948
-46.3776
-48.5022
-49.5224
-49.3881
-48.1464
-45.9337
-42.9585
-39.4783
-35.7717
-32.1098
-28.7295
-25.8121
-23.4686
-21.7346
-20.5728
-19.8848
-19.5281
-19.3377
-19.1474
-18.8105
-18.2146
-17.2921
-16.0227
-14.43
-12.5735
-10.5363
-8.41242
-6.2942
-4.26322
-2.3841
-0.702624
0.752764
1.96678
2.93192
3.64324
4.09472
4.27815
4.185
3.81112
3.16343
2.26714
1.17181
-0.0452022
-1.27941
-2.40436
-3.28132
-3.77245
-3.75612
-3.14212
-1.88512
0.00600826
2.46402
5.36541
8.53862
11.7775
14.8588
17.5612
19.6846
21.0676
21.6018
21.2413
20.008
17.991
15.3411
12.2591
8.98119
5.76005
2.84438
0.458961
-1.21334
-2.04561
-1.97554
-1.00776
0.790178
3.29783
6.35644
9.78658
13.4067
17.0509
20.5832
23.9082
26.9758
29.7809
32.357
34.7661
37.0851
39.39
41.7391
44.1575
46.6241
49.0616
51.3342
53.2512
54.5797
55.0641
54.4519
52.5225
49.1153
44.1545
37.6652
29.7796
20.7323
10.8434
0.494407
-9.90194
-19.931
-29.1999
-37.3499
-44.0538
-48.9956
-51.8365
-52.1726
-49.4981
-43.1898
-32.5292
-16.7777
4.69188
32.2153
65.6323
104.097
145.952
188.704
229.147
263.628
288.441
300.298
296.804
276.868
240.956
191.159
131.045
65.3084
-0.733761
-61.7332
-112.905
-150.551
-172.438
-177.991
-168.288
-145.851
-114.283
-77.7994
-40.7201
-6.98117
20.2686
38.947
48.1697
48.2293
40.4372
26.8611
9.9985
-7.56802
-23.4899
-35.9101
-43.6345
-46.2031
-43.865
-37.4677
-28.2831
-17.7983
-7.50005
1.32051
7.71899
11.1909
11.6996
9.64169
5.75966
1.01702
-3.5441
-6.94367
-8.38481
-7.341
-3.60137
2.72818
11.2643
21.417
32.4799
43.7262
54.4972
64.2732
72.7182
79.6961
85.2587
89.6108
93.0574
95.9445
98.5998
101.282
104.142
107.208
110.377
113.431
116.058
117.892
118.544
117.644
114.882
110.039
103.016
93.8507
82.722
69.9395
55.9204
41.154
26.1586
11.4364
-2.56938
-15.5087
-27.1478
-37.3786
-46.2132
-53.7674
-60.2342
-65.8521
-70.873
-75.5324
-80.0256
-84.4916
-89.0056
-93.5788
-98.1646
-102.67
-106.969
-110.918
-114.37
-117.191
-119.266
-120.512
-120.884
-120.376
-119.02
-116.887
-114.078
-110.717
-106.94
-102.886
-98.6839
-94.4462
-90.2575
-86.1702
-82.2017
-78.3347
-74.5217
-70.6923
-66.7633
-62.6513
-58.2847
-53.6154
-48.6278
-43.3445
-37.8278
-32.1767
-26.5202
-21.0071
-15.7929
-11.0273
-6.84047
-3.33225
-0.563543
1.44829
2.7301
3.34954
3.40805
3.03109
2.35659
1.5231
0.658685
-0.128035
-0.753738
-1.16263
-1.32487
-1.23169
-0.888062
-0.304375
0.511494
1.56018
2.85378
4.41503
6.27281
8.45439
10.9759
13.8326
16.9902
20.3801
23.8984
27.4106
30.7605
33.784
36.3245
38.2499
39.4668
39.9324
39.6604
38.7225
37.2426
35.3869
33.3492
31.3344
29.541
28.1444
27.284
27.0534
27.4961
28.6057
30.3312
32.586
35.2595
38.2289
41.3713
44.5723
47.7326
50.7692
53.6131
56.2027
58.4749
60.3534
61.7382
62.4966
62.46
61.4275
59.1785
55.4953
50.1919
43.1484
34.3444
23.8885
12.038
-0.792616
-14.0358
-26.9862
-38.8241
-48.6452
-55.4935
-58.3992
-56.4229
-48.7135
-34.5843
-13.6102
14.2561
48.5604
88.2355
131.53
176.005
218.628
255.972
284.514
301.011
302.903
288.688
258.206
212.784
155.204
89.4883
20.5221
-46.4435
-106.347
-154.852
-188.805
-206.547
-208.041
-194.818
-169.739
-136.611
-99.7195
-63.3303
-31.2241
-6.31918
9.57892
15.88
13.1625
2.99537
-12.3403
-30.187
-47.8594
-62.9631
-73.6471
-78.7674
-77.949
-71.5502
-60.5418
-46.3247
-30.5158
-14.7293
-0.383518
11.4472
20.1207
25.4522
27.6788
27.3771
25.3487
22.4931
19.6866
17.6824
17.0422
18.104
20.9848
25.6116
31.7724
39.1749
47.5029
56.4629
65.8155
75.3887
85.0762
94.8228
104.601
114.387
124.132
133.742
143.064
151.874
159.876
166.715
171.989
175.279
176.177
174.328
169.469
161.466
150.351
136.336
119.825
101.4
81.7819
61.7832
42.2384
23.9319
7.52801
-6.48704
-17.8432
-26.4997
-32.6314
-36.5921
-38.8588
-39.9666
-40.4419
-40.7438
-41.2194
-42.079
-43.391
-45.0971
-47.0428
-49.0168
-50.7952
-52.1817
-53.0392
-53.3096
-53.0195
-52.2732
-51.2352
-50.1057
-49.0952
-48.3997
-48.1819
-48.5586
-49.5946
-51.3034
-53.6498
-56.5549
-59.8997
-63.5274
-67.2446
-70.8234
-74.006
-76.5152
-78.0703
-78.4094
-77.3141
-74.6353
-70.3145
-64.397
-57.0354
-48.4813
-39.0658
-29.1725
-19.2057
-9.55909
-0.587236
7.41457
14.2232
19.6922
23.7513
26.4016
27.7115
27.8124
26.895
25.2056
23.0371
20.715
18.5747
16.9308
16.0399
16.0621
17.0272
18.8135
21.1445
23.61
25.7095
26.9157
26.7492
24.8529
21.0549
15.4095
8.2073
-0.0457672
-8.68073
-16.9407
-24.069
-29.3984
-32.4291
-32.8852
-30.7426
-26.2262
-19.776
-11.9901
-3.54994
4.85902
12.6231
19.2627
24.4735
28.1452
30.3545
31.3373
31.4449
31.0892
30.6865
30.6042
31.1167
32.375
34.39
37.0334
40.0521
43.0959
45.7555
47.6054
47.6054
47.6054
47.6054
47.6054
47.6054
47.6054
47.6054
47.6054
47.6054
47.6054
47.6054
47.6054
47.6054
47.6054
47.6054
47.6054
47.6054
47.6054
47.6054
