73.8545
63.1114
50.8447
37.4516
23.4838
9.60631
-3.46109
-15.0144
-24.44
-31.2832
-35.3038
-36.5092
-35.1628
-31.7627
-26.9942
-21.6606
-16.5983
-12.5882
-10.2719
-10.0841
-12.2084
-16.5617
-22.8086
-30.4024
-38.6482
-46.779
-54.0348
-59.7368
-63.3482
-64.5157
-63.0916
-59.1332
-52.885
-44.7458
-35.2259
-24.8994
-14.3562
-4.15661
5.20689
13.3397
19.9656
24.9361
28.2295
29.9406
30.261
29.4536
27.8235
25.6879
23.3481
21.0676
19.0558
17.4617
16.3756
15.8379
15.8549
16.415
17.5054
19.1222
21.2731
23.9686
27.2017
30.9163
34.9681
39.0819
42.8138
45.5262
46.3872
44.4027
38.4884
27.585
10.8109
-12.3607
-41.9203
-77.1654
-116.6
-157.916
-198.084
-233.557
-260.58
-275.579
-275.589
-258.667
-224.22
-173.208
-108.181
-33.1177
46.9096
126.215
199.072
260.306
305.828
333.051
341.127
330.988
305.181
267.522
222.631
175.387
130.39
91.4873
61.4163
41.6028
32.1254
31.8402
38.6391
49.7998
62.3788
73.5953
81.1605
83.5178
79.9693
70.6855
56.6057
39.2498
20.475
2.20882
-13.8025
-26.2034
-34.1713
-37.4805
-36.4857
-32.0345
-25.3256
-17.7342
-10.6314
-5.21828
-2.39645
-2.68617
-6.19896
-12.6627
-21.4906
-31.8817
-42.9366
-53.7715
-63.6184
-71.8976
-78.2585
-82.5859
-84.975
-85.6822
-85.06
-83.487
-81.3031
-78.7565
-75.9717
-72.9398
-69.5313
-65.5297
-60.6797
-54.7423
-47.549
-39.0472
-29.3303
-18.648
-7.39581
3.91582
14.7075
24.3874
32.4112
38.3376
41.8739
42.9052
41.5062
37.932
32.5931
26.0137
18.7831
11.5019
4.73193
-1.04671
-5.46641
-8.28868
-9.40618
-8.83163
-6.67691
-3.12673
1.58784
7.21076
13.4726
20.0891
26.7446
33.0634
38.5724
42.665
44.5772
43.3899
38.071
27.5648
10.9311
-12.4759
-42.8077
-79.5317
-121.288
-165.827
-210.063
-250.249
-282.292
-302.159
-306.353
-292.396
-259.239
-207.55
-139.823
-60.2695
25.5052
111.012
189.522
254.769
301.621
326.631
328.414
307.773
267.591
212.478
148.242
81.2319
17.6528
-37.0747
-78.8318
-105.143
-115.31
-110.337
-92.6726
-65.8028
-33.7713
-0.673001
29.8063
54.7586
72.2945
81.639
83.0865
77.8339
67.7244
54.9421
41.7003
29.9612
21.2186
16.3622
15.634
18.6685
24.6065
32.2575
40.2878
47.4056
52.5227
54.8738
54.082
50.1694
43.5152
34.7722
24.7565
14.3258
4.26394
-4.81451
-12.5291
-18.7612
-23.6449
-27.5234
-30.8814
-34.2624
-38.1836
-43.0594
-49.1425
-56.4889
-64.9484
-74.1811
-83.695
-92.9004
-101.172
-107.913
-112.614
-114.903
-114.576
-111.613
-106.178
-98.5961
-89.324
-78.902
-67.9059
-56.8959
-46.3689
-36.7203
-28.2164
-20.9813
-14.9967
-10.1166
-6.09165
-2.60196
0.70608
4.18346
8.14596
12.8485
18.4684
25.0976
32.7442
41.3405
50.757
60.8175
71.3151
82.0266
92.7231
103.178
113.169
122.483
130.914
138.259
144.326
148.925
151.881
153.031
152.235
149.383
144.407
137.289
128.07
116.861
103.847
89.2894
73.5221
56.9444
40.0055
23.1842
6.9637
-8.19714
-21.8933
-33.8014
-43.7025
-51.498
-57.217
-61.0134
-63.1565
-64.0153
-64.0427
-63.7618
-63.7574
-64.671
-67.1951
-72.057
-79.9831
-91.6327
-107.499
-127.777
-152.224
-180.015
-209.65
-238.924
-264.994
-284.563
-294.173
-290.581
-271.191
-234.469
-180.29
-110.149
-27.1969
63.9314
157.479
247.094
326.461
389.953
433.229
453.691
450.752
425.873
382.369
325.011
259.478
191.732
127.389
71.168
26.4742
-4.84139
-22.5265
-27.7886
-23.0007
-11.3025
3.85038
19.1263
31.6986
39.5251
41.5037
37.4969
28.2367
15.1322
0.0153156
-15.1379
-28.4748
-38.4886
-44.1751
-45.1104
-41.4487
-33.8504
-23.3557
-11.2266
1.21978
12.7652
22.4129
29.4668
33.5639
34.6586
32.9692
28.8981
22.9393
15.5902
7.27784
-1.68784
-11.1325
-21.0055
-31.3443
-42.2229
-53.695
-65.7417
-78.2336
-90.9118
-103.39
-115.179
-125.726
-134.462
-140.859
-144.478
-145.009
-142.304
-136.388
-127.461
-115.883
-102.156
-86.8822
-70.7342
-54.4094
-38.5897
-23.9014
-10.8791
0.0639139
8.65854
14.7915
18.507
19.9961
19.5756
17.6567
14.7073
11.2102
7.62293
4.34071
1.66876
-0.195537
-1.16823
-1.27271
-0.623238
0.599154
2.1748
3.87354
5.4786
6.80263
7.69264
8.02236
7.67144
6.49365
4.27805
0.71013
-4.65768
-12.4149
-23.2699
-37.9862
-57.274
-81.642
-111.223
-145.595
-183.636
-223.438
-262.313
-296.918
-323.503
-338.266
-337.785
-319.477
-282.025
-225.695
-152.508
-66.2042
27.9935
123.817
214.535
293.621
355.419
395.733
412.252
404.774
375.194
327.262
266.143
197.84
128.549
64.0279
9.04683
-33.019
-60.414
-73.0327
-72.2667
-60.698
-41.6882
-18.9191
4.05722
24.2065
39.2996
48.074
50.2632
46.5035
38.1418
26.9788
14.9836
4.01997
-4.38548
-9.20785
-10.0086
-6.93785
-0.663087
7.75987
17.0512
25.8829
33.0435
37.5723
38.8504
36.6407
31.0804
22.6282
11.9817
-0.0248694
-12.5258
-24.7204
-35.9497
-45.7465
-53.8572
-60.235
-65.01
-68.442
-70.865
-72.6295
-74.0517
-75.3732
-76.7372
-78.1795
-79.6362
-80.964
-81.9692
-82.4417
-82.1884
-81.0608
-78.9754
-75.9228
-71.9662
-67.2294
-61.8769
-56.0894
-50.0374
-43.8579
-37.6359
-31.3948
-25.0957
-18.6468
-11.921
-4.77998
2.89874
11.1953
20.125
29.6229
39.5381
49.6374
59.6209
69.1438
77.8463
85.3849
91.4635
95.8597
98.445
99.1945
98.1885
95.6025
91.6896
86.7554
81.1279
75.1225
69.0064
62.9588
57.0323
51.1136
44.8908
37.8311
29.1797
17.9913
3.20563
-16.2238
-41.1456
-71.9827
-108.487
-149.519
-192.904
-235.43
-273.004
-301.022
-314.887
-310.655
-285.688
-239.223
-172.739
-90.0423
2.9601
98.8095
189.285
266.34
323.056
354.472
358.187
334.641
287.042
220.959
143.633
63.1094
-12.6933
-76.8627
-124.204
-151.711
-158.749
-146.949
-119.836
-82.2726
-39.7803
2.1557
38.7183
66.2549
82.5889
87.1262
80.7615
65.6146
44.6447
21.2012
-1.42791
-20.4152
-33.696
-40.1463
-39.6272
-32.9025
-21.4539
-7.22499
7.6656
21.2032
31.7145
38.0365
39.6024
36.4415
29.1009
18.5075
5.79397
-7.88345
-21.5098
-34.3373
-45.9577
-56.3154
-65.6645
-74.4812
-83.3471
-92.8243
-103.341
-115.102
-128.043
-141.819
-155.841
-169.344
-181.48
-191.414
-198.421
-201.965
-201.749
-197.74
-190.159
-179.446
-166.206
-151.141
-134.975
-118.398
-102.002
-86.2563
-71.4809
-57.8526
-45.4184
-34.1209
-23.8299
-14.374
-5.56876
2.76011
10.7606
18.5449
26.1858
33.7168
41.1359
48.4107
55.4841
62.28
68.7082
74.6685
80.0524
84.7449
88.6241
91.561
93.4196
94.0592
93.3382
91.1231
87.2991
81.7845
74.546
65.613
55.0881
43.1522
30.0597
16.1251
1.69794
-12.8733
-27.2861
-41.3365
-54.9742
-68.353
-81.8666
-96.1565
-112.076
-130.599
-152.662
-178.954
-209.66
-244.216
-281.109
-317.799
-350.791
-375.908
-388.731
-385.185
-362.17
-318.154
-253.612
-171.228
-75.8021
26.1397
127.001
218.946
294.798
348.877
377.668
380.214
358.2
315.702
258.654
194.103
129.351
71.1116
24.7678
-6.15957
-20.2906
-18.3852
-3.08139
21.5787
50.7593
79.4935
103.31
118.748
123.704
117.588
101.265
76.8374
47.2766
15.9891
-13.6401
-38.6612
-56.8835
-67.0779
-69.0442
-63.5463
-52.135
-36.8915
-20.1292
-4.09551
9.28999
18.6325
23.1752
22.8236
18.0862
9.94672
-0.308234
-11.2817
-21.6521
-30.33
-36.5702
-40.028
-40.7604
-39.1766
-35.9489
-31.8999
-27.8802
-24.6536
-22.8023
-22.6601
-24.2799
-27.4365
-31.6605
-36.2987
-40.5927
-43.767
-45.117
-44.088
-40.3372
-33.773
-24.5682
-13.1457
-0.138835
13.6672
27.4084
40.2191
51.3057
60.0103
65.8576
68.5823
68.1367
64.6797
58.5494
50.2251
40.2817
29.3422
18.032
6.93821
-3.42292
-12.6299
-20.3697
-26.4423
-30.7568
-33.3212
-34.2259
-33.6262
-31.7218
-28.7379
-24.9077
-20.4581
-15.5976
-10.5093
-5.34575
-0.228017
4.75357
9.5364
14.0815
18.3688
22.3925
26.1566
29.6714
32.9504
36.0091
38.8639
41.5323
44.0342
46.3932
48.6373
50.8001
52.9201
55.0381
57.1935
59.4185
61.7306
64.1244
66.5632
68.9721
71.2318
73.177
74.599
75.2539
74.8768
73.202
69.9874
65.0409
58.2463
49.5852
39.1518
27.1585
13.9304
-0.111793
-14.4788
-28.6481
-42.1026
-54.3705
-65.0593
-73.882
-80.6719
-85.3845
-88.0869
-88.937
-88.1556
-85.9956
-82.7118
-78.5369
-73.6646
-68.2416
-62.3691
-56.1114
-49.5096
-42.5974
-35.415
-28.0208
-20.4957
-12.9435
-5.48333
1.76043
8.67185
15.1566
21.1528
26.6377
31.6289
36.1796
40.3686
44.287
48.0229
51.6458
55.1951
58.6708
62.0304
65.1902
68.0309
70.4068
72.1574
73.1196
73.1394
72.0841
69.8509
66.3754
61.6369
55.662
48.5262
40.3535
31.3138
21.6181
11.5113
1.26286
-8.84577
-18.5347
-27.5408
-35.6328
-42.6241
-48.3842
-52.844
-55.9979
-57.8992
-58.6519
-58.3976
-57.3001
-55.5291
-53.2451
-50.5865
-47.6611
-44.5422
-41.2686
-37.8497
-34.2731
-30.5134
-26.5422
-22.337
-17.8888
-13.209
-8.33569
-3.34123
1.65606
6.47545
10.8506
14.4015
16.6047
16.7703
14.0368
7.39541
-4.23971
-21.9086
-46.4263
-78.1594
-116.784
-161.07
-208.739
-256.453
-299.975
-334.514
-355.232
-357.874
-339.41
-298.612
-236.444
-156.2
-63.3327
35.0113
130.717
215.585
282.256
325.072
340.724
328.637
291.009
232.534
159.818
80.5988
2.85081
-66.0993
-120.34
-155.936
-171.233
-166.867
-145.522
-111.453
-69.8694
-26.2605
14.2636
47.5221
70.6562
82.3288
82.7228
73.3598
56.7748
36.1031
14.6359
-4.5964
-19.1657
-27.4792
-28.8853
-23.6531
-12.8419
1.91334
18.6629
35.4146
50.3806
62.1717
69.9194
73.3182
72.5913
68.3906
61.6516
53.4258
44.7158
36.3338
28.8016
22.3014
16.6787
11.4948
6.11462
-0.181557
-8.08169
-18.1347
-30.6663
-45.7271
-63.0768
-82.2037
-102.375
-122.707
-142.253
-160.082
-175.36
-187.413
-195.763
-200.157
-200.561
-197.138
-190.222
-180.27
-167.818
-153.436
-137.694
-121.127
-104.22
-87.3929
-70.9982
-55.318
-40.5681
-26.9011
-14.4084
-3.12232
6.98271
15.9885
24.0295
31.2855
37.9704
44.3153
50.5479
56.8681
63.424
70.2894
77.4467
84.7774
92.063
98.9961
105.202
110.271
113.793
115.398
114.794
111.792
106.328
98.4695
88.4044
76.4266
62.9078
48.2668
32.9397
17.352
1.89799
-13.0735
-27.2665
-40.4397
-52.4038
-63.017
-72.1799
-79.8303
-85.9387
-90.505
-93.5542
-95.1319
-95.299
-94.126
-91.6874
-88.0578
-83.3102
-77.5178
-70.7581
-63.1187
-54.7049
-45.6434
-36.0854
-26.203
-16.1823
-6.21093
3.53658
12.9149
21.8224
30.2111
38.0912
45.5272
52.6274
59.5256
66.3588
73.2427
80.2486
87.3835
94.5773
101.677
108.448
114.587
119.739
123.524
125.566
125.532
123.161
118.299
110.925
101.162
89.2808
75.6925
60.9198
45.5634
30.2582
15.6255
2.22681
-9.4767
-19.1547
-26.625
-31.8571
-34.9612
-36.1666
-35.7911
-34.2096
-31.8253
-29.0506
-26.3022
-24.0131
-22.6611
-22.8081
-25.1403
-30.4945
-39.8516
-54.2786
-74.8042
-102.226
-136.863
-178.278
-225.036
-274.547
-323.058
-365.845
-397.611
-413.067
-407.635
-378.157
-323.516
-245.041
-146.622
-34.4897
83.3292
197.816
299.929
381.597
436.622
461.352
455.061
419.972
360.939
284.844
199.773
114.105
35.6016
-29.3646
-76.3875
-103.337
-110.387
-99.7864
-75.4074
-42.1529
-5.30028
30.1355
59.9457
81.1221
92.0709
92.6363
83.9522
68.1544
48.004
26.4763
6.36715
-10.0348
-21.179
-26.367
-25.7491
-20.2155
-11.2063
-0.473161
10.1739
19.1011
25.0391
27.2072
25.3633
19.7821
11.1698
0.533618
-10.9742
-22.215
-32.2056
-40.2263
-45.886
-49.139
-50.256
-49.7586
-48.3275
-46.6992
-45.5655
-45.487
-46.8323
-49.746
-54.1473
-59.758
-66.1507
-72.8118
-79.2083
-84.8504
-89.3423
-92.4163
-93.948
-93.9516
-92.5599
-89.9919
-86.5136
-82.3981
-77.891
-73.1829
-68.3949
-63.5757
-58.7112
-53.7432
-48.5952
-43.1998
-37.5235
-31.586
-25.47
-19.3198
-13.3306
-7.7278
-2.7417
1.42067
4.60132
6.71179
7.7456
7.78147
6.97753
5.55781
3.79324
1.97985
0.416363
-0.616545
-0.874243
-0.162593
1.65125
4.63159
8.77031
13.9865
20.1295
26.9864
34.293
41.7495
49.0397
55.8521
61.9028
66.9557
70.8405
73.4638
74.8142
74.9592
74.0349
72.2291
69.7607
66.8563
63.7282
60.5548
57.4667
54.5376
51.7833
49.1662
46.6052
43.9906
41.2001
38.1164
34.6431
30.7183
26.3234
21.4874
16.286
10.8355
5.28229
-0.210064
-5.4752
-10.3578
-14.7253
-18.4759
-21.5424
-23.8919
-25.5213
-26.4504
-26.714
-26.3532
-25.4092
-23.9191
-21.9145
-19.423
-16.4715
-13.0916
-9.32434
-5.22505
-0.865754
3.66419
8.26006
12.8061
17.1817
21.2682
24.9569
28.1551
30.7915
32.8197
34.2186
34.9917
35.1628
34.772
33.8692
32.5093
30.7475
28.6362
26.224
23.5558
20.6741
17.619
14.4286
11.1371
7.77165
4.34756
0.863951
-2.7005
-6.38998
-10.2713
-14.431
-18.9683
-23.9865
-29.5805
-35.8239
-42.7563
-50.3711
-58.608
-67.3483
-76.4162
-85.5853
-94.59
-103.14
-110.94
-117.705
-123.183
-127.166
-129.507
-130.125
-129.01
-126.225
-121.896
-116.213
-109.418
-101.805
-93.7103
-85.5217
-77.6823
-70.7049
-65.1891
-61.8392
-61.4752
-65.0285
-73.5107
-87.9444
-109.248
-138.07
-174.586
-218.273
-267.706
-320.418
-372.873
-420.599
-458.494
-481.31
-484.259
-463.672
-417.617
-346.371
-252.66
-141.602
-20.3393
102.613
218.222
317.901
394.437
442.78
460.574
448.376
409.524
349.692
276.185
197.08
120.318
52.8594
0.00893402
-35.0229
-51.2871
-49.9876
-34.1321
-8.00534
23.4591
55.3213
83.2142
103.795
115.027
116.274
108.211
92.5941
71.9115
48.9935
26.6177
7.16698
-7.62571
-16.823
-20.3128
-18.7319
-13.303
-5.61682
2.60861
9.75849
14.514
15.9874
13.7887
8.0239
-0.768931
-11.7293
-23.8125
-35.9354
-47.1113
-56.5589
-63.7737
-68.5591
-71.0158
-71.497
-70.5381
-68.7712
-66.8385
-65.3133
-64.638
-65.0843
-66.7389
-69.5113
-73.1631
-77.3503
-81.6735
-85.7284
-89.1508
-91.6501
-93.0295
-93.1901
-92.1224
-89.8862
-86.5852
-82.3419
-77.2765
-71.4953
-65.0885
-58.1374
-50.7282
-42.968
-34.9983
-27.0029
-19.2059
-11.8615
-5.23327
0.430848
4.92644
8.11792
9.95767
10.4963
9.88213
8.35088
6.20571
3.79113
1.4632
-0.4409
-1.63074
-1.88558
-1.07031
0.856715
3.8444
7.7578
12.394
17.5031
22.8125
28.0515
32.9742
37.3784
41.1194
44.1164
46.3526
47.8671
48.7417
49.0829
49.0005
48.5875
47.9025
46.9574
45.7133
44.0852
41.9552
39.1922
35.6769
31.327
26.1199
20.1084
13.4295
6.30092
-0.990947
-8.11249
-14.7108
-20.4449
-25.0169
-28.1993
-29.8566
-29.9584
-28.5827
-25.9108
-22.214
-17.835
-13.1664
-8.63104
-4.66823
-1.7282
-0.278362
-0.820127
-3.91306
-10.1982
-20.4083
-35.35
-55.8418
-82.5966
-116.047
-156.128
-202.043
-252.068
-303.443
-352.413
-394.441
-424.621
-438.235
-431.404
-401.727
-348.8
-274.52
-183.102
-80.7826
24.7689
125.255
212.671
280.213
323.054
338.874
328.091
293.75
241.111
176.977
108.875
44.1864
-10.6578
-50.826
-73.5033
-78.0464
-65.8723
-40.1152
-5.10997
34.2219
73.0007
106.954
132.858
148.807
154.301
150.152
138.239
121.157
101.814
83.0299
67.1876
55.9739
50.2337
49.945
54.3036
61.8985
70.9443
79.5385
85.9079
88.6168
86.7141
79.8087
68.0707
52.1655
33.1355
12.2477
-9.16987
-29.8843
-48.8871
-65.4854
-79.3476
-90.5023
-99.2952
-106.312
-112.28
-117.957
-124.031
-131.028
-139.25
-148.735
-159.262
-170.376
-181.44
-191.708
-200.403
-206.797
-210.279
-210.411
-206.955
-199.89
-189.398
-175.834
-159.691
-141.548
-122.022
-101.73
-81.248
-61.0894
-41.6889
-23.3953
-6.47244
8.89607
22.5986
34.5862
44.8635
53.4794
60.5192
66.0974
70.3508
73.4321
75.5039
76.7317
77.2773
77.2906
76.9014
76.2109
75.2837
74.142
72.7629
71.0806
68.9933
66.3758
63.0944
59.0241
54.063
48.1439
41.2392
33.3609
24.5559
14.8995
4.4891
-6.55938
-18.1111
-30.0083
-42.0647
-54.0611
-65.7468
-76.8522
-87.1151
-96.3241
-104.377
-111.351
-117.573
-123.674
-130.613
-139.648
-152.224
-169.795
-193.554
-224.121
-261.222
-303.428
-348.021
-391.047
-427.591
-452.27
-459.895
-446.223
-408.674
-346.899
-263.095
-161.988
-50.4741
63.0621
169.651
260.759
329.273
370.33
381.864
364.811
322.946
262.381
190.799
116.532
47.598
-9.1747
-48.8306
-68.7115
-68.5816
-50.4585
-18.1936
23.1296
67.8909
110.631
146.663
172.542
186.33
187.662
177.617
158.421
133.049
104.772
76.7184
51.498
30.932
15.9096
6.3784
1.45495
-0.368326
-0.956802
-2.24584
-5.9699
-13.4408
-25.3982
-41.9451
-62.5683
-86.2351
-111.547
-136.929
-160.825
-181.876
-199.067
-211.814
-220
-223.945
-224.336
-222.111
-218.327
-214.024
-210.1
-207.221
-205.756
-205.756
-206.974
-208.912
-210.89
-212.137
-211.869
-209.38
-204.1
-195.65
-183.869
-168.825
-150.804
-130.285
-107.901
-84.3922
-60.5487
-37.1591
-14.9563
5.42761
23.496
38.9106
51.4991
61.2499
68.2938
72.8756
75.3215
76.0027
75.3021
73.5865
71.1848
68.3749
65.3788
62.363
59.4443
56.698
54.167
51.8692
49.8047
47.9597
46.3094
44.8185
43.4401
42.1117
40.7469
39.2214
37.3504
34.8581
31.3392
26.2199
18.725
7.86648
-7.53035
-28.7474
-57.0284
-93.3656
-138.232
-191.293
-251.141
-315.125
-379.331
-438.759
-487.715
-520.405
-531.646
-517.627
-476.565
-409.183
-318.878
-211.558
-95.1368
21.2589
128.269
217.336
281.663
316.963
321.899
298.177
250.263
184.792
109.747
33.508
-36.086
-92.5656
-131.444
-150.558
-150.113
-132.453
-101.589
-62.5828
-20.8567
18.4763
51.18
74.3039
86.397
87.5189
79.066
63.4532
43.7018
22.9962
4.26451
-10.1653
-18.8007
-21.0928
-17.4161
-8.93705
2.60168
15.145
26.5998
35.085
39.128
37.7919
30.7236
18.1291
0.687485
-20.5775
-44.4465
-69.653
-95.0136
-119.526
-142.427
-163.217
-181.639
-197.64
-211.309
-222.816
-232.351
-240.072
-246.078
-250.391
-252.957
-253.664
-252.367
-248.912
-243.176
-235.083
-224.636
-211.919
-197.116
-180.498
-162.422
-143.316
-123.658
-103.958
-84.7266
-66.4525
-49.5722
-34.4443
-21.3273
-10.3627
-1.56662
5.16941
10.068
13.4458
15.6851
17.2004
18.4025
19.6633
21.2859
23.4815
26.3561
29.9076
34.0323
38.5415
43.1836
47.6722
51.7145
55.0398
57.4238
58.7075
58.8091
57.7274
55.5382
52.383
48.4526
43.9678
39.1592
34.2476
29.4295
24.8648
20.6715
16.924
13.6565
10.8684
8.53258
6.60328
5.02399
3.73393
2.67292
1.78463
1.0184
0.330062
-0.317831
-0.955871
-1.60747
-2.28819
-3.00481
-3.75426
-4.52293
-5.28648
-6.01073
-6.65357
-7.16802
-7.50607
-7.62295
-7.48112
-7.05363
-6.32616
-5.29765
-3.97939
-2.39315
-0.568834
1.45731
3.64329
5.94018
8.28918
10.6175
12.8345
14.8289
16.47
17.6124
18.1059
17.8102
16.6108
14.4367
11.2743
7.17599
2.26116
-3.29249
-9.26622
-15.4248
-21.5447
-27.4415
-32.9927
-38.1502
-42.9417
-47.4602
-51.842
-56.2383
-60.7847
-65.5726
-70.6292
-75.9075
-81.2885
-86.5961
-91.6207
-96.1501
-100.003
-103.065
-105.316
-106.866
-107.979
-109.098
-110.863
-114.111
-119.861
-129.252
-143.444
-163.458
-189.96
-223.013
-261.832
-304.581
-348.281
-388.878
-421.502
-440.922
-442.158
-421.184
-375.607
-305.225
-212.348
-101.819
19.3051
142.384
258.07
357.315
432.381
477.715
490.574
471.319
423.334
352.601
266.976
175.273
86.2804
7.81425
-54.0533
-95.5258
-115.316
-114.573
-96.537
-65.9778
-28.5046
10.1593
44.8489
71.4991
87.5033
91.8626
85.1267
69.157
46.755
21.2183
-4.11676
-26.2867
-43.0229
-52.9522
-55.6674
-51.6702
-42.2097
-29.0468
-14.182
0.416066
13.0475
22.4585
27.9439
29.3696
27.1232
22.0038
15.0743
7.4962
0.370329
-5.39803
-9.1964
-10.7569
-10.1614
-7.80475
-4.32483
-0.511216
2.79463
4.79541
4.81997
2.38403
-2.77423
-10.6839
-21.1541
-33.8044
-48.1089
-63.4456
-79.148
-94.5526
-109.04
-122.069
-133.194
-142.085
-148.524
-152.404
-153.718
-152.545
-149.029
-143.37
-135.803
-126.591
-116.015
-104.366
-91.9454
-79.0622
-66.0256
-53.1414
-40.7018
-28.9726
-18.1781
-8.48485
0.0122115
7.29952
13.4474
18.6036
22.9781
26.8188
30.382
33.8996
37.5481
41.4217
45.5146
49.712
53.7922
57.4379
60.2545
61.7909
61.5596
59.0522
53.7473
45.1114
32.5984
15.6531
-6.26652
-33.6373
-66.7787
-105.717
-150.019
-198.611
-249.641
-300.406
-347.415
-386.597
-413.672
-424.649
-416.395
-387.179
-337.114
-268.382
-185.216
-93.5844
-0.628912
86.0967
159.473
213.64
244.681
251.072
233.841
196.41
144.154
83.7266
22.2673
-33.4298
-77.6616
-106.396
-117.619
-111.426
-89.8479
-56.4747
-15.9103
26.8413
66.9889
100.489
124.441
137.315
138.987
130.606
114.317
92.893
69.3263
46.4337
26.5258
11.172
1.08418
-3.88027
-4.60628
-2.52612
0.626343
3.07563
3.24478
-0.0526551
-7.48775
-19.1673
-34.6591
-53.0808
-73.2357
-93.773
-113.353
-130.795
-145.196
-156
-163.033
-166.475
-166.809
-164.734
-161.058
-156.594
-152.067
-148.032
-144.829
-142.559
-141.093
-140.11
-139.153
-137.69
-135.189
-131.182
-125.318
-117.401
-107.408
-95.4851
-81.9285
-67.1496
-51.6294
-35.8708
-20.3525
-5.49033
8.38919
21.0627
32.4097
42.3997
51.0711
58.5045
64.7955
70.03
74.2671
77.5286
79.7987
81.0306
81.1598
80.1204
77.8632
74.3708
69.6706
63.8421
57.0194
49.388
41.1774
32.6491
24.0816
15.7539
7.92794
0.831676
-5.35552
-10.5142
-14.5918
-17.6034
-19.628
-20.7978
-21.2837
-21.277
-20.97
-20.5364
-20.1153
-19.7991
-19.6261
-19.5807
-19.5978
-19.5734
-19.3787
-18.8761
-17.936
-16.4517
-14.3522
-11.6103
-8.24587
-4.32484
0.0465912
4.73135
9.57305
14.4085
19.0796
23.4432
27.3782
30.7892
33.6062
35.7812
37.2819
38.0843
38.1648
37.4944
36.0355
33.743
30.5702
26.4801
21.46
15.5377
8.79775
1.39361
-6.44692
-14.425
-22.184
-29.3331
-35.4784
-40.2593
-43.3863
-44.6732
-44.0631
-41.6402
-37.6277
-32.3703
-26.3017
-19.9028
-13.6524
-7.97966
-3.22089
0.411027
2.84333
4.14334
4.50286
4.20934
3.60824
3.06149
2.90727
3.42585
4.81465
7.17476
10.5091
14.7312
19.6823
25.1545
30.9151
36.7319
42.3939
47.7283
52.6101
56.9663
60.772
64.0417
66.8138
69.1324
71.0267
72.4909
73.4693
73.8471
73.4525
72.0694
69.4622
65.4093
59.7424
52.3843
43.3813
32.9229
21.3442
9.11097
-3.21508
-15.0244
-25.7174
-34.7641
-41.7579
-46.4561
-48.8025
-48.9294
-47.1371
-43.8568
-39.5988
-34.8945
-30.2389
-26.041
-22.5862
-20.0171
-18.3317
-17.4008
-17.0009
-16.8595
-16.7084
-16.3411
-15.6689
-14.773
-13.947
-13.7268
-14.9026
-18.505
-25.7584
-37.9929
-56.5066
-82.3768
-116.229
-157.982
-206.613
-259.984
-314.788
-366.663
-410.495
-440.903
-452.871
-442.43
-407.307
-347.422
-265.149
-165.261
-54.5737
58.7078
165.841
258.496
329.671
374.456
390.543
378.422
341.245
284.382
214.738
139.928
67.4157
3.72173
-46.2058
-79.3907
-94.9706
-94.0821
-79.5237
-55.257
-25.8202
4.26815
31.0397
51.4857
63.8059
67.4823
63.1883
52.5595
37.8706
21.6676
6.40623
-5.85856
-13.6984
-16.4334
-14.145
-7.59072
1.95888
12.9311
23.6787
32.6933
38.7792
41.1698
39.5792
34.1878
25.5733
14.5993
2.28219
-10.3464
-22.3629
-33.0477
-41.944
-48.8771
-53.9359
-57.4233
-59.7857
-61.5335
-63.1618
-65.0847
-67.5867
-70.798
-74.6914
-79.1012
-83.7559
-88.3197
-92.4362
-95.7668
-98.0203
-98.9725
-98.4727
-96.4427
-92.8674
-87.7831
-81.2652
-73.4178
-64.3679
-54.2641
-43.279
-31.6144
-19.5073
-7.23343
4.89231
16.5211
27.2819
36.7988
44.7141
50.7152
54.562
56.1126
55.344
52.364
47.4123
40.8494
33.1328
24.7829
16.3413
8.32505
1.18309
-4.74102
-9.23539
-12.232
-13.8035
-14.1452
-13.5452
-12.3457
-10.9018
-9.54136
-8.53138
-8.05377
-8.19188
-8.92848
-10.1539
-11.683
-13.278
-14.6754
-15.6148
-15.8663
-15.2551
-13.6803
-11.1272
-7.67132
-3.47306
1.23575
6.17268
11.0309
15.5079
19.3343
22.2987
24.2674
25.196
25.1322
24.2087
22.6289
20.6449
18.531
16.5563
14.958
13.9191
13.5527
13.8936
14.899
16.457
18.4011
20.5302
22.6298
24.492
25.9307
26.7887
26.9347
26.2458
24.5783
21.726
17.3725
11.0452
2.08346
-10.3637
-27.2953
-49.7575
-78.677
-114.635
-157.604
-206.685
-259.899
-314.101
-365.048
-407.684
-436.617
-446.76
-434.054
-396.164
-333.038
-247.21
-143.787
-30.0709
85.1228
192.401
282.843
349.024
385.875
391.265
366.216
314.742
243.326
160.118
73.9719
-6.57401
-74.2138
-123.604
-151.813
-158.463
-145.556
-117.038
-78.1667
-34.7823
7.43077
43.5929
70.1217
85.0214
87.9518
80.0895
63.8185
42.3043
19.015
-2.74507
-20.235
-31.5653
-35.8524
-33.2329
-24.7505
-12.1441
2.4292
16.6929
28.5356
36.2468
38.6813
35.3405
26.369
12.477
-5.1954
-25.2478
-46.1996
-66.6586
-85.4577
-101.749
-115.05
-125.237
-132.502
-137.28
-140.151
-141.748
-142.666
-143.391
-144.255
-145.409
-146.834
-148.358
-149.698
-150.509
-150.433
-149.145
-146.391
-142.009
-135.942
-128.234
-119.016
-108.485
-96.874
-84.4301
-71.3873
-57.9516
-44.2907
-30.533
-16.7732
-3.08265
10.4769
23.8403
36.9273
49.6355
61.8372
73.3822
84.1042
93.8313
102.398
109.658
115.495
119.833
122.638
123.925
123.749
122.207
119.423
115.542
110.718
105.109
98.862
92.1119
84.978
77.5634
69.958
62.2436
54.4994
46.8075
39.257
31.9456
24.9775
18.4592
12.4914
7.16096
2.53072
-1.36786
-4.54033
-7.03109
-8.92114
-10.3218
-11.3647
-12.19
-12.932
-13.7064
-14.5988
-15.6556
-16.8797
-18.2305
-19.628
-20.9616
-22.1003
-22.9057
-23.2424
-22.9877
-22.037
-20.3058
-17.7289
-14.2582
-9.85963
-4.51391
1.78062
9.00017
17.084
25.9203
35.332
45.0655
54.7851
64.0764
72.4603
79.4182
84.4275
87.0043
86.7499
83.3957
76.8418
67.1827
54.7175
39.9417
23.5184
6.23293
-11.0666
-27.5368
-42.4074
-55.0433
-64.9948
-72.0286
-76.1384
-77.5334
-76.6067
-73.8877
-69.9836
-65.518
-61.072
-57.1344
-54.0663
-52.0833
-51.2566
-51.5332
-52.7754
-54.8152
-57.5206
-60.8675
-65.0076
-70.3219
-77.4448
-87.2445
-100.745
-118.984
-142.802
-172.588
-208.006
-247.758
-289.429
-329.49
-363.48
-386.385
-393.204
-379.621
-342.702
-281.503
-197.483
-94.6371
20.7034
140.395
255.279
356.154
434.798
484.906
502.81
487.895
442.658
372.39
284.556
187.926
91.5951
4.00708
-67.9063
-119.361
-148.078
-154.329
-140.69
-111.557
-72.479
-29.4326
11.9011
46.7523
71.7146
84.9944
86.4445
77.3999
60.3539
38.5291
15.4047
-5.73791
-22.1991
-32.1343
-34.6961
-30.0398
-19.2071
-3.91301
13.7265
31.4877
47.3144
59.5442
67.0615
69.3671
66.5653
59.2768
48.501
35.4467
21.3599
7.37033
-5.62656
-17.0394
-26.601
-34.342
-40.5282
-45.5745
-49.9517
-54.0994
-58.3566
-62.918
-67.8184
-72.9443
-78.0669
-82.8889
-87.0974
-90.4117
-92.6222
-93.6137
-93.3711
-91.9714
-89.5612
-86.329
-82.4739
-78.1785
-73.5886
-68.8018
-63.8666
-58.7898
-53.551
-48.12
-42.4746
-36.6157
-30.5768
-24.4275
-18.2701
-12.23
-6.44188
-1.03335
3.89084
8.2624
12.0583
15.3039
18.0689
20.4576
22.5946
24.6063
26.6033
28.6645
30.8252
33.0717
35.3426
37.5366
39.5251
41.1696
42.339
42.926
42.861
42.1197
40.7267
38.7527
36.3081
33.534
30.5899
27.6416
24.8453
22.3284
20.1638
18.3362
16.7009
14.9387
12.5145
8.65497
2.36001
-7.53252
-22.217
-42.7225
-69.6631
-102.968
-141.642
-183.621
-225.773
-264.082
-294.031
-311.141
-311.612
-292.946
-254.474
-197.666
-126.163
-45.5095
37.4072
115.12
180.463
227.436
251.934
252.241
229.221
186.183
128.45
62.6831
-3.9276
-64.5061
-113.258
-146.067
-160.857
-157.687
-138.586
-107.162
-68.0571
-26.3169
13.2315
46.5248
70.6684
84.1637
86.9461
80.2468
66.3099
48.0154
28.4612
10.5608
-3.29614
-11.4843
-13.2659
-8.79237
1.00156
14.5879
30.0863
45.5205
59.0575
69.2021
74.9267
75.7299
71.6243
63.0624
50.8209
35.86
19.1821
1.70675
-15.822
-32.8888
-49.2177
-64.7448
-79.5614
-93.8394
-107.752
-121.404
-134.776
-147.698
-159.848
-170.779
-179.964
-186.861
-190.974
-191.923
-189.489
-183.65
-174.588
-162.679
-148.46
-132.576
-115.721
-98.5796
-81.7643
-65.7748
-50.9684
-37.5503
-25.5827
-15.0084
-5.68498
2.57572
9.97084
16.6755
22.8227
28.4953
33.7298
38.5307
42.8894
46.806
50.3059
53.451
56.3394
59.0957
61.8516
64.7196
67.7648
70.9792
74.2633
77.4201
80.1631
82.1396
82.9672
82.2801
79.7789
75.2772
68.7378
60.2943
50.2523
39.0706
27.3234
15.6482
4.68585
-4.98036
-12.8786
-18.6896
-22.2706
-23.6599
-23.0623
-20.8196
-17.3684
-13.1926
-8.77559
-4.55647
-0.896163
1.94545
3.81958
4.68634
4.60215
3.69935
2.16152
0.197503
-1.9825
-4.18658
-6.2549
-8.0669
-9.5423
-10.6367
-11.333
-11.6304
-11.5325
-11.0356
-10.1193
-8.74002
-6.82926
-4.29724
-1.04276
3.03089
7.99483
13.8703
20.6038
28.0461
35.938
43.9069
51.4765
58.0896
63.1428
66.0281
66.1752
63.0877
56.3644
45.702
30.8784
11.7189
-11.9419
-40.2873
-73.5161
-111.793
-155.14
-203.272
-255.396
-310.006
-364.736
-416.31
-460.652
-493.177
-509.25
-504.772
-476.826
-424.26
-348.124
-251.856
-141.17
-23.6289
92.0664
196.971
282.875
343.229
373.893
373.603
344.107
289.932
217.848
136.069
53.3258
-22.0908
-83.1871
-124.936
-144.685
-142.266
-119.828
-81.4125
-32.3583
21.3956
74.0089
120.364
156.548
180.146
190.332
187.766
174.326
152.73
126.099
97.5275
69.7107
44.6715
23.6074
6.86694
-5.95864
-15.8532
-24.1373
-32.2134
-41.3292
-52.3916
-65.8496
-81.6566
-99.3071
-117.937
-136.468
-153.767
-168.806
-180.794
-189.266
-194.121
-195.62
-194.318
-190.986
-186.492
-181.688
-177.309
-173.884
-171.688
-170.719
-170.717
-171.202
-171.545
-171.047
-169.02
-164.869
-158.149
-148.615
-136.237
-121.202
-103.885
-84.8114
-64.6055
-43.9339
-23.4528
-3.76262
14.6267
31.3159
46.0232
58.5781
68.9056
77.0046
82.9239
86.741
88.5454
88.4303
86.4914
82.8328
77.5787
70.885
62.951
54.0234
44.395
34.3928
24.3583
14.6216
5.46959
-2.88729
-10.3494
-16.9605
-22.9359
-28.6836
-34.81
-42.1052
-51.4954
-63.9548
-80.3709
-101.365
-127.085
-156.991
-189.687
-222.839
-253.222
-276.94
-289.8
-287.829
-267.86
-228.091
-168.537
-91.2753
-0.425754
98.1489
197.401
289.844
368.391
427.166
462.182
471.786
456.822
420.483
367.887
305.432
240.029
178.296
125.843
86.7035
63.0017
54.8594
60.5538
76.8833
99.682
124.411
146.746
163.091
170.962
169.199
158.002
138.795
113.948
86.4093
59.2915
35.4722
17.2519
6.10887
2.57071
6.21107
15.7604
29.3097
44.576
59.1924
70.9874
78.2211
79.754
75.1332
64.5939
48.9819
29.6132
8.09264
-13.8848
-34.7235
-53.0884
-68.02
-78.9962
-85.9369
-89.1591
-89.291
-87.1609
-83.6772
-79.7123
-76.0077
-73.1045
-71.3083
-70.6866
-71.095
-72.2265
-73.6737
-74.996
-75.7816
-75.6991
-74.5322
-72.1968
-68.7395
-64.3219
-59.1918
-53.6482
-48.0034
-42.5479
-37.5194
-33.0811
-29.3088
-26.1881
-23.6209
-21.44
-19.4302
-17.3526
-14.9699
-12.0712
-8.49168
-4.1287
1.04952
7.00099
13.6131
20.7109
28.069
35.4257
42.4999
49.0072
54.6772
59.2696
62.59
64.5024
64.9388
63.9046
61.4778
57.8006
53.0639
47.4818
41.2578
34.5419
27.3828
19.6767
11.122
1.19005
-10.8776
-26.0282
-45.303
-69.6815
-99.8679
-136.041
-177.602
-222.966
-269.463
-313.386
-350.232
-375.128
-383.422
-371.348
-336.693
-279.328
-201.518
-107.929
-5.30393
98.167
193.719
273.001
329.058
357.162
355.381
324.807
269.418
195.587
111.325
25.3392
-53.9504
-119.322
-165.48
-189.521
-191.09
-172.236
-137.001
-90.802
-39.7077
10.3021
54.0032
87.4463
108.278
115.843
111.078
96.2247
74.4219
49.2272
24.1455
2.21242
-14.3187
-24.1598
-27.0321
-23.5811
-15.1866
-3.70374
8.8268
20.4585
29.5758
35.0617
36.3846
33.5992
27.2735
18.3556
8.00623
-2.58164
-12.3492
-20.5066
-26.6217
-30.6543
-32.9378
-34.1119
-35.0209
-36.5885
-39.6889
-45.0275
-53.0454
-63.8583
-77.2327
-92.6033
-109.124
-125.752
-141.342
-154.76
-164.986
-171.202
-172.867
-169.749
-161.946
-149.858
-134.144
-115.657
-95.359
-74.2399
-53.2351
-33.1572
-14.6451
1.86463
16.1436
28.1558
38.0257
45.9931
52.3648
57.4672
61.6058
65.0366
67.9512
70.4748
72.676
74.5852
76.2165
77.589
78.7436
79.752
80.7161
81.7574
82.9991
84.5426
86.4429
88.6857
91.172
93.7116
96.0275
97.772
98.5535
97.9708
95.6527
91.2979
84.7121
75.837
64.7687
51.7629
37.2239
21.6807
5.74801
-9.92074
-24.6876
-37.9852
-49.3698
-58.5684
-65.52
-70.4066
-73.6754
-76.0473
-78.5058
-82.2599
-88.6685
-99.1169
-114.842
-136.708
-164.959
-198.975
-237.091
-276.521
-313.454
-343.321
-361.262
-362.717
-344.087
-303.363
-240.6
-158.17
-60.7075
45.2491
151.897
251.01
334.862
397.12
433.574
442.604
425.335
385.439
328.652
262.033
193.106
128.978
75.5454
36.9019
14.9924
9.5559
18.3416
37.5548
62.4605
88.057
109.73
123.805
127.937
121.305
104.586
79.7613
49.7536
17.9912
-12.064
-37.3506
-55.5565
-65.3451
-66.4416
-59.5804
-46.3337
-28.8527
-9.56108
9.15581
25.228
37.1133
43.9244
45.4643
42.1739
35.0068
25.2545
14.3472
3.65838
-5.66457
-12.8231
-17.4345
-19.539
-19.5515
-18.1695
-16.2515
-14.6852
-14.261
-15.5683
-18.9246
-24.3446
-31.5509
-40.0204
-49.0609
-57.9038
-65.8013
-72.1158
-76.3904
-78.3938
-78.1339
-75.8439
-71.9406
-66.9653
-61.5134
-56.1629
-51.4104
-47.6206
-44.995
-43.5606
-43.1797
-43.5761
-44.3754
-45.1518
-45.4775
-44.9685
-43.3222
-40.3436
-35.9588
-30.2138
-23.2621
-15.3409
-6.74087
2.22806
11.2695
20.1296
28.6175
36.6173
44.0879
51.0538
57.5877
63.7869
69.7488
75.547
81.2133
86.7253
92.0036
96.9165
101.293
104.941
107.668
109.304
109.721
108.845
106.669
103.251
98.7061
93.1941
86.9002
80.011
72.6925
65.0703
57.2156
49.1405
40.801
32.1104
22.9595
13.2419
2.88023
-8.14992
-19.8024
-31.9516
-44.3933
-56.8551
-69.0159
-80.5308
-91.0614
-100.307
-108.039
-114.131
-118.597
-121.619
-123.58
-125.083
-126.964
-130.274
-136.237
-146.153
-161.259
-182.531
-210.456
-244.781
-284.3
-326.712
-368.616
-405.672
-432.961
-445.496
-438.872
-409.923
-357.322
-281.99
-187.247
-78.6476
36.4885
149.811
252.838
337.908
399.044
432.628
437.784
416.427
372.98
313.797
246.384
178.509
117.332
68.6498
36.3412
22.0766
25.3013
43.4793
72.5506
107.53
143.164
174.569
197.76
210.042
210.197
198.494
176.51
146.823
112.609
77.2139
43.7428
14.7265
-8.11151
-23.9646
-32.9293
-35.8839
-34.2843
-29.9122
-24.6125
-20.052
-17.5292
-17.8524
-21.295
-27.6246
-36.1951
-46.0833
-56.2482
-65.6898
-73.5872
-79.3995
-82.92
-84.2802
-83.9074
-82.4446
-80.6468
-79.2684
-78.9568
-80.1662
-83.1
-87.688
-93.5969
-100.272
-107.001
-112.994
-117.464
-119.705
-119.153
-115.436
-108.395
-98.0937
-84.7994
-68.9602
-51.1657
-32.1046
-12.5199
6.83343
25.2283
41.9996
56.5727
68.487
77.4134
83.1661
85.7089
85.155
81.759
75.9027
68.0717
58.8259
48.7647
38.4878
28.5568
19.4596
11.5808
5.18178
0.391685
-2.79007
-4.47961
-4.88504
-4.27612
-2.95055
-1.20069
0.715826
2.59789
4.31251
5.79345
7.02525
8.01158
8.72859
9.06616
8.76335
7.34852
4.09846
-1.96609
-12.0309
-27.371
-49.1614
-78.2251
-114.746
-157.988
-206.09
-255.972
-303.433
-343.443
-370.638
-379.957
-367.357
-330.489
-269.227
-185.957
-85.5482
24.9978
137.206
242.006
330.729
396.076
432.946
439.001
414.905
364.205
292.879
208.612
119.904
35.122
-38.39
-95.0303
-131.417
-146.583
-141.875
-120.601
-87.4803
-47.973
-7.58974
28.7449
57.1986
75.3593
82.3615
78.8152
66.563
48.3142
27.2093
6.37771
-11.4566
-24.2784
-30.9635
-31.33
-26.064
-16.544
-4.59287
7.80064
18.7547
26.7259
30.6748
30.1493
25.2846
16.7264
5.49514
-7.18573
-20.0723
-32.0679
-42.3558
-50.4815
-56.3789
-60.3397
-62.9361
-64.9102
-67.0473
-70.0524
-74.4464
-80.4944
-88.1733
-97.1826
-106.991
-116.911
-126.194
-134.124
-140.106
-143.727
-144.802
-143.379
-139.716
-134.238
-127.472
-119.972
-112.255
-104.728
-97.6516
-91.1104
-85.0128
-79.1137
-73.0555
-66.425
-58.8176
-49.8998
-39.4642
-27.4681
-14.0518
0.465917
15.6143
30.8158
45.4441
58.8869
70.6066
80.1912
87.3901
92.1299
94.5117
94.7887
93.3303
90.5756
86.984
82.9879
78.9526
75.1485
71.7357
68.7634
66.1821
63.8651
61.6377
59.3077
56.6951
53.6561
50.0994
45.9929
41.3607
36.2709
30.8169
25.0951
19.183
13.1211
6.9026
0.471577
-6.26849
-13.4381
-21.1584
-29.5259
-38.5868
-48.3166
-58.6073
-69.2638
-80.0097
-90.5045
-100.366
-109.201
-116.636
-122.346
-126.083
-127.692
-127.129
-124.457
-119.847
-113.558
-105.922
-97.3136
-88.1217
-78.7219
-69.4484
-60.5721
-52.2866
-44.7012
-37.8436
-31.6701
-26.0823
-20.948
-16.1239
-11.4768
-6.90129
-2.33279
2.247
6.81074
11.2926
15.5999
19.6284
23.2774
26.464
29.1342
31.2688
32.885
34.0323
34.7849
35.2295
35.4523
35.5226
35.4772
35.3024
34.9165
34.1518
32.7374
30.283
26.267
20.0309
10.7841
-2.37502
-20.4167
-44.3065
-74.8964
-112.778
-158.098
-210.362
-268.237
-329.41
-390.537
-447.335
-494.838
-527.82
-541.373
-531.547
-495.991
-434.472
-349.193
-244.811
-128.157
-7.63656
107.598
208.619
287.7
339.182
360.091
350.45
313.227
253.942
179.982
99.7227
21.5756
-46.9286
-99.898
-133.602
-146.703
-140.198
-117.082
-81.819
-39.6744
3.97021
44.2549
77.3463
100.763
113.502
115.959
109.697
97.0766
80.8438
63.7057
47.967
35.2597
26.3943
21.3383
19.3112
18.9732
18.6739
16.7227
11.646
2.39713
-11.5019
-29.902
-52.0511
-76.6943
-102.23
-126.904
-149.006
-167.064
-179.987
-187.174
-188.549
-184.546
-176.039
-164.222
-150.475
-136.207
-122.716
-111.071
-102.024
-95.9667
-92.9238
-92.5918
-94.4011
-97.6015
-101.356
-104.831
-107.278
-108.096
-106.872
-103.397
-97.6681
-89.8626
-80.3051
-69.4225
-57.6954
-45.6094
-33.6111
-22.0723
-11.2636
-1.3416
7.65186
15.7771
23.1728
30.0242
36.5265
42.8477
49.0963
55.2962
61.3731
67.1532
72.3745
76.7109
79.8043
81.3041
80.9076
78.3986
73.6787
66.7898
57.9233
47.416
35.7332
23.4386
11.1545
-0.484955
-10.8835
-19.5304
-26.042
-30.1927
-31.9317
-31.3834
-28.8316
-24.6894
-19.4582
-13.681
-7.89757
-2.60785
1.75032
4.80413
6.22873
5.71342
2.91975
-2.55478
-11.1904
-23.5185
-40.0412
-61.0944
-86.6644
-116.186
-148.368
-181.089
-211.421
-235.81
-250.407
-251.544
-236.267
-202.872
-151.329
-83.5228
-3.25261
84.0386
171.78
252.974
320.992
370.358
397.399
400.682
381.175
342.098
288.503
226.631
163.147
104.347
55.454
20.0761
-0.0953666
-5.33711
2.30589
19.4247
41.7901
64.9547
84.8329
98.1854
102.954
98.4195
85.1698
64.9114
40.1508
13.8041
-11.2094
-32.3387
-47.6902
-56.2084
-57.7342
-52.944
-43.1909
-30.2765
-16.1882
-2.84106
8.14582
15.6119
18.943
18.0802
13.4581
5.88655
-3.60114
-13.9107
-24.037
-33.1828
-40.8336
-46.7837
-51.1148
-54.1367
-56.3015
-58.1079
-60.0096
-62.3406
-65.2657
-68.761
-72.6226
-76.4993
-79.9427
-82.4648
-83.5956
-82.9329
-80.1805
-75.1703
-67.8696
-58.3753
-46.8975
-33.7374
-19.2635
-3.8877
11.9537
27.8162
43.258
57.848
71.1719
82.8381
92.4855
99.7944
104.501
106.416
105.446
101.608
95.0513
86.0622
75.0604
62.5849
49.2652
35.7814
22.8174
11.0105
0.903838
-7.09472
-12.7428
-15.9821
-16.9449
-15.9524
-13.5063
-10.2777
-7.09519
-4.9309
-4.87932
-8.12175
-15.8648
-29.2421
-49.1732
-76.1811
-110.184
-150.295
-194.665
-240.433
-283.811
-320.342
-345.325
-354.372
-344.019
-312.312
-259.261
-187.071
-100.104
-4.54397
92.2008
182.29
258.329
314.217
345.849
351.583
332.396
291.739
235.084
169.255
101.624
39.2706
-11.7789
-47.1477
-64.4816
-63.5641
-46.1792
-15.7564
23.1427
65.4241
106.07
140.683
165.912
179.718
181.468
171.862
152.714
126.638
96.6766
65.9171
37.1539
12.618
-6.19734
-18.6069
-24.7042
-25.2474
-21.4845
-14.944
-7.22219
0.209002
6.15295
9.78485
10.6898
8.84547
4.55998
-1.62225
-9.02886
-16.9671
-24.8167
-32.0977
-38.5083
-43.9318
-48.4152
-52.1269
-55.3018
-58.1827
-60.9674
-63.7685
-66.5912
-69.3293
-71.7812
-73.6791
-74.7291
-74.6523
-73.2241
-70.3026
-65.8447
-59.9084
-52.6407
-44.2568
-35.0129
-25.1794
-15.0187
-4.77098
5.35101
15.158
24.4742
33.1245
40.9239
47.6714
53.153
57.1523
59.4703
59.9492
58.498
55.1153
49.9038
43.0749
34.9409
25.8952
16.3826
6.86284
-2.22763
-10.5131
-17.7101
-23.6528
-28.3098
-31.797
-34.3849
-36.5059
-38.7585
-41.9087
-46.8791
-54.7167
-66.5258
-83.3556
-106.036
-134.972
-169.91
-209.728
-252.288
-294.411
-332.014
-360.436
-374.928
-371.268
-346.411
-299.065
-230.106
-142.724
-42.2736
64.1902
168.624
262.881
339.636
393.231
420.323
420.243
395.021
349.088
288.69
221.109
153.788
93.4931
45.5917
13.549
-1.31692
0.19157
15.4277
40.3721
70.2283
100.058
125.381
142.662
149.646
145.514
130.847
107.435
77.9556
45.5842
13.5738
-15.1294
-38.1991
-54.1408
-62.3843
-63.2599
-57.8706
-47.8863
-35.292
-22.1233
-10.2234
-1.04755
4.46544
5.94649
3.57429
-2.01155
-9.84554
-18.7986
-27.7449
-35.712
-41.9966
-46.2352
-48.4217
-48.877
-48.1751
-47.0403
-46.23
-46.4194
-48.1029
-51.5244
-56.6427
-63.1358
-70.4412
-77.8248
-84.4698
-89.5733
-92.4384
-92.5523
-89.6411
-83.6971
-74.9767
-63.9707
-51.3523
-37.9084
-24.4641
-11.8071
-0.620617
8.56898
15.4256
19.816
21.802
21.6148
19.6157
16.2492
11.9939
7.31801
2.64263
-1.68325
-5.39484
-8.31194
-10.33
-11.4055
-11.5392
-10.7613
-9.12089
-6.68039
-3.51553
0.281274
4.59579
9.28738
14.187
19.0991
23.8081
28.0891
31.723
34.5131
36.3027
36.9915
36.5477
35.0157
32.5163
29.2403
25.4354
21.3871
17.3967
13.7575
10.7336
8.54229
7.34289
7.23218
8.24654
10.369
13.539
17.6625
22.6194
28.2681
34.4451
40.9607
47.5934
54.0834
60.1281
65.38
69.4489
71.9043
72.2786
70.067
64.7246
55.6604
42.2348
23.7689
-0.421559
-30.9564
-68.2746
-112.471
-163.102
-218.98
-278.012
-337.123
-392.309
-438.872
-471.815
-486.396
-478.757
-446.552
-389.465
-309.519
-211.117
-100.765
13.4972
122.896
218.861
293.966
342.762
362.375
352.8
316.856
259.801
188.685
111.502
36.2766
-29.8081
-81.1412
-114.184
-127.695
-122.675
-102.05
-70.1581
-32.1134
6.86644
42.0787
69.8347
87.7863
95.0563
92.1756
80.8546
63.6323
43.4616
23.2868
5.66978
-7.49588
-15.155
-17.137
-14.086
-7.29692
1.51257
10.4575
17.7347
21.8359
21.702
16.8072
7.17112
-6.69389
-23.8869
-43.254
-63.5366
-83.5121
-102.113
-118.512
-132.168
-142.838
-150.544
-155.527
-158.174
-158.944
-158.294
-156.623
-154.229
-151.283
-147.837
-143.834
-139.148
-133.619
-127.099
-119.492
-110.781
-101.049
-90.4783
-79.3383
-67.9621
-56.7107
-45.9349
-35.9376
-26.9419
-19.0693
-12.3302
-6.62827
-1.77733
2.47224
6.4007
10.2849
14.3678
18.8344
23.7983
29.2981
35.3039
41.7317
48.4615
55.3568
62.28
69.104
75.7152
82.0112
87.8924
93.2512
97.963
101.879
104.829
106.624
107.077
106.017
103.318
98.9107
92.8101
85.1198
76.0364
65.8426
54.891
43.5816
32.3335
21.5548
11.613
2.80926
-4.64193
-10.6249
-15.1266
-18.2325
-20.1149
-21.0184
-21.2438
-21.1372
-21.0859
-21.5266
-22.9625
-25.9874
-31.3067
-39.7416
-52.1988
-69.5913
-92.6991
-121.974
-157.304
-197.781
-241.52
-285.585
-326.078
-358.419
-377.801
-379.793
-360.992
-319.643
-256.093
-173.018
-75.3414
30.1652
135.544
232.515
313.406
372.042
404.45
409.298
388.007
344.524
284.796
216.014
145.747
81.0615
27.7548
-10.2175
-31.0535
-35.1351
-24.7908
-3.83865
23.0173
50.8492
75.14
92.311
100.086
97.6575
85.6567
65.9386
41.2355
14.7291
-10.3961
-31.3595
-46.103
-53.4907
-53.3743
-46.5285
-34.4773
-19.2426
-3.05349
11.9421
23.9297
31.6151
34.3291
32.0451
25.3152
15.1411
2.80213
-10.3351
-22.9979
-34.1599
-43.1452
-49.6783
-53.8758
-56.1869
-57.2953
-57.9973
-59.0742
-61.1758
-64.7296
-69.8839
-76.4916
-84.1324
-92.1701
-99.8341
-106.317
-110.871
-112.898
-112.02
-108.113
-101.327
-92.056
-80.8958
-68.5728
-55.8662
-43.5277
-32.2107
-22.4153
-14.4556
-8.44956
-4.3316
-1.884
-0.780938
-0.638982
-1.0673
-1.71162
-2.28762
-2.60107
-2.55413
-2.13897
-1.42106
-0.515879
0.437298
1.30086
1.96053
2.34118
2.41578
2.20739
1.78483
1.25328
0.741338
0.386134
0.318281
0.648101
1.45446
2.77722
4.61376
6.91991
9.61473
12.5885
15.7131
18.853
21.8762
24.6643
27.1198
29.172
30.7796
31.931
32.6422
32.9526
32.9194
32.6102
32.0955
31.4414
30.7019
29.9145
29.0957
28.2399
27.3203
26.2921
25.0972
23.6707
21.9477
19.8713
17.3998
14.5137
11.2229
7.57089
3.63919
-0.452751
-4.55036
-8.4717
-12.0201
-15.0015
-17.2464
-18.6342
-19.1192
-18.7566
-17.7266
-16.3551
-15.1299
-14.7094
-15.9212
-19.7444
-27.2686
-39.6195
-57.8428
-82.7423
-114.679
-153.347
-197.568
-245.14
-292.809
-336.381
-371.035
-391.788
-394.101
-374.534
-331.351
-264.98
-178.232
-76.2202
34.0268
144.23
245.726
330.413
391.664
425.078
428.957
404.477
355.501
288.086
209.749
128.583
52.3549
-12.3221
-60.6279
-89.9294
-99.8924
-92.3179
-70.742
-39.8659
-4.89763
29.1064
57.8208
78.0875
88.1691
87.8045
78.0794
61.1446
39.8326
17.229
-3.74203
-20.6702
-31.9095
-36.7084
-35.2133
-28.3612
-17.6841
-5.06025
7.55165
18.3604
25.9445
29.3873
28.338
22.9963
14.0325
2.45869
-10.528
-23.7093
-35.9944
-46.5393
-54.8225
-60.675
-64.2619
-66.0262
-66.6012
-66.7075
-67.0474
-68.2094
-70.594
-74.3671
-79.4452
-85.5102
-92.0524
-98.4325
-103.957
-107.957
-109.86
-109.254
-105.926
-99.882
-91.347
-80.7358
-68.6124
-55.6337
-42.489
-29.8392
-18.2627
-8.21297
0.0093218
6.26759
10.5848
13.1246
14.1611
14.0417
13.1466
11.8503
10.4877
9.32806
8.55893
8.27976
8.50546
9.17781
10.1828
11.3713
12.58
13.6507
14.4448
14.8508
14.7835
14.1718
12.9362
10.9557
8.02774
3.82757
-2.12375
-10.4694
-21.9915
-37.5373
-57.89
-83.5869
-114.701
-150.619
-189.859
-229.984
-267.646
-298.809
-319.131
-324.492
-311.589
-278.517
-225.231
-153.808
-68.4331
24.8956
118.934
205.958
278.63
330.848
358.46
359.749
335.624
289.484
226.798
154.44
79.8811
10.3436
-47.9768
-90.5305
-114.804
-120.452
-109.159
-84.2876
-50.3483
-12.382
24.6661
56.5069
79.9372
93.1015
95.5671
88.2218
73.0238
52.6478
30.0823
8.22995
-10.4375
-24.1353
-31.9097
-33.6626
-30.0691
-22.4066
-12.3287
-1.61576
8.06235
15.3445
19.3157
19.5739
16.2235
9.80564
1.17847
-8.63158
-18.5866
-27.7815
-35.558
-41.5779
-45.8468
-48.691
-50.6931
-52.5947
-55.1838
-59.1784
-65.123
-73.3091
-83.7291
-96.066
-109.72
-123.866
-137.537
-149.717
-159.439
-165.876
-168.416
-166.712
-160.705
-150.626
-136.971
-120.447
-101.92
-82.3396
-62.6655
-43.8031
-26.5411
-11.5058
0.870681
10.3643
16.957
20.8193
22.28
21.7869
19.8617
17.0535
13.8944
10.8606
8.34172
6.61973
5.85909
6.10727
7.30504
9.30483
11.8947
14.8251
17.8364
20.6829
23.1528
25.0822
26.3619
26.9384
26.8089
26.0129
24.6213
22.7255
20.426
17.8238
15.0129
12.0749
9.07569
6.06311
3.06692
0.100212
-2.83684
-5.75076
-8.64636
-11.5174
-14.3386
-17.0625
-19.6258
-21.9684
-24.0683
-25.9915
-27.9523
-30.3735
-33.9326
-39.5743
-48.4711
-61.9148
-81.1348
-107.049
-139.973
-179.34
-223.476
-269.504
-313.43
-350.423
-375.306
-383.191
-370.178
-334.023
-274.645
-194.39
-97.9789
7.86602
115.086
215.155
300.034
363.093
399.852
408.472
389.905
347.713
287.579
216.586
142.356
72.1854
12.2584
-32.9514
-61.0365
-71.7401
-66.7798
-49.4524
-24.0853
4.58464
32.0227
54.4234
69.0966
74.6769
71.1484
59.6986
42.437
22.0266
1.28417
-17.1981
-31.363
-39.8983
-42.3305
-39.0012
-30.942
-19.6751
-6.97148
5.39488
15.867
23.2719
26.9189
26.6262
22.6775
15.7252
6.6571
-3.55106
-13.9763
-23.864
-32.7062
-40.2744
-46.6091
-51.9697
-56.7563
-61.4168
-66.3536
-71.8418
-77.9712
-84.6179
-91.449
-97.9564
-103.517
-107.467
-109.182
-108.155
-104.053
-96.7623
-86.4017
-73.3159
-58.0446
-41.276
-23.7881
-6.38626
10.1567
25.1539
38.0455
48.4264
56.0589
60.8711
62.944
62.4882
59.8147
55.3036
49.3723
42.4472
34.9405
27.2328
19.6619
12.5171
6.03713
0.411838
-4.21621
-7.74964
-10.1351
-11.3632
-11.4685
-10.5294
-8.66632
-6.03807
-2.83477
0.731666
4.43958
8.07094
11.4247
14.3282
16.6452
18.2771
19.1574
19.2354
18.4507
16.6964
13.7767
9.36119
2.94832
-6.1528
-18.8054
-35.9792
-58.6248
-87.4868
-122.867
-164.369
-210.663
-259.336
-306.877
-348.845
-380.225
-395.981
-391.706
-364.32
-312.681
-237.998
-143.986
-36.6772
76.0814
185.411
282.354
358.888
408.842
428.609
417.552
378.05
315.179
236.087
149.14
62.954
-14.552
-76.9797
-120.046
-141.893
-143.096
-126.387
-96.1401
-57.7183
-16.752
21.5434
52.9372
74.5773
85.178
84.9961
75.6195
59.6125
40.0746
20.1787
2.74671
-10.0853
-17.0803
-17.9745
-13.4185
-4.80257
5.99723
16.9142
25.9842
31.5996
32.6945
28.8443
20.2734
7.78033
-7.40418
-23.8009
-39.8813
-54.2552
-65.8249
-73.8894
-78.1914
-78.905
-76.5738
-72.0089
-66.166
-60.0165
-54.4299
-50.081
-47.389
-46.495
-47.2748
-49.3821
-52.3145
-55.4909
-58.3307
-60.3251
-61.0929
-60.4156
-58.2507
-54.7225
-50.0944
-44.7273
-39.0299
-33.4074
-28.2153
-23.722
-20.0852
-17.3432
-15.421
-14.1498
-13.2959
-12.5966
-11.7957
-10.6761
-9.0848
-6.94623
-4.26457
-1.11396
2.38047
6.06728
9.79478
13.4342
16.8964
20.1397
23.1687
26.0247
28.7703
31.4713
34.179
36.9162
39.6691
42.3854
44.9791
47.3417
49.3556
50.9104
51.9168
52.3192
52.102
51.2918
49.9533
48.1806
46.0853
43.7819
41.3738
38.9403
36.5274
34.1423
31.7538
29.2962
26.6783
23.7942
20.5368
16.8099
12.5404
7.68786
2.25194
-3.72324
-10.1479
-16.8885
-23.7737
-30.6023
-37.156
-43.2124
-48.5612
-53.0189
-56.4423
-58.7388
-59.8722
-59.863
-58.7839
-56.7506
-53.9096
-50.4251
-46.4656
-42.1932
-37.7553
-33.2797
-28.872
-24.616
-20.5737
-16.7862
-13.2733
-10.0314
-7.03177
-4.21772
-1.50471
1.21692
4.07484
7.20322
10.7276
14.7476
19.3195
24.4412
30.0403
35.9681
41.9984
47.8315
53.1017
57.386
60.2128
61.0677
59.3951
54.5984
46.039
33.0433
14.9239
-8.97188
-39.1789
-75.9886
-119.285
-168.362
-221.738
-277.04
-330.961
-379.383
-417.646
-440.99
-445.123
-426.837
-384.598
-318.982
-232.904
-131.534
-21.9317
87.6197
188.463
272.515
333.185
366.115
369.678
345.132
296.434
229.741
152.658
73.3563
-0.340522
-61.7763
-106.096
-130.629
-134.989
-120.905
-91.8276
-52.3659
-7.65756
37.2614
78.0029
111.234
134.909
148.323
151.989
147.391
136.643
122.119
106.108
90.5153
76.6775
65.2676
56.314
49.3073
43.37
37.4598
30.5712
21.9091
11.0118
-2.18833
-17.3684
-33.8762
-50.8348
-67.2716
-82.253
-95.0042
-105.001
-112.021
-116.154
-117.775
-117.472
-115.969
-114.025
-112.341
-111.484
-111.828
-113.529
-116.521
-120.54
-125.175
-129.916
-134.219
-137.558
-139.474
-139.605
-137.699
-133.622
-127.343
-118.921
-108.485
-96.2183
-82.3496
-67.1453
-50.9119
-33.9991
-16.8039
0.23018
16.6199
31.8578
45.4369
56.8821
65.7865
71.8472
74.8966
74.9249
72.0896
66.7097
59.2455
50.2639
40.3939
30.2763
20.5129
11.6215
4.00008
-2.09604
-6.56159
-9.43434
-10.8748
-11.1357
-10.5252
-9.36874
-7.97206
-6.59163
-5.41286
-4.53898
-3.99058
-3.71492
-3.60311
-3.5125
-3.29089
-2.79943
-1.93087
-0.621292
1.14605
3.34381
5.90857
8.74973
11.7546
14.7848
17.6603
20.1299
21.8313
22.2483
20.6785
16.2292
7.85995
-5.5133
-24.8457
-50.7333
-83.1527
-121.217
-163.01
-205.546
-244.919
-276.633
-296.118
-299.342
-283.463
-247.382
-192.115
-120.897
-38.9798
46.863
129.074
200.187
253.722
284.97
291.569
273.773
234.4
178.456
112.502
43.8482
-20.3163
-73.7354
-111.75
-131.73
-133.242
-117.937
-89.2002
-51.6231
-10.3655
29.4933
63.5406
88.4851
102.436
104.99
97.1267
80.9509
59.3234
35.436
12.3893
-7.175
-21.3476
-29.1074
-30.3515
-25.8094
-16.863
-5.3062
6.92104
17.9868
26.3801
31.0591
31.524
27.812
20.4256
10.2092
-1.80326
-14.546
-27.0636
-38.6196
-48.7608
-57.3328
-64.4504
-70.4307
-75.703
-80.7095
-85.8127
-91.2225
-96.9527
-102.812
-108.426
-113.296
-116.865
-118.605
-118.09
-115.066
-109.49
-101.541
-91.6141
-80.2737
-68.1985
-56.1094
-44.696
-34.5493
-26.1069
-19.6172
-15.1243
-12.4742
-11.3412
-11.2695
-11.7268
-12.163
-12.0685
-11.0265
-8.75432
-5.12879
-0.195006
5.84328
12.6496
19.7942
26.8017
33.2027
38.5823
42.6214
45.1254
46.0396
45.4475
43.5564
40.6695
37.1506
33.3843
29.7373
26.5239
23.9804
22.2489
21.3743
21.3105
21.9388
23.0921
24.5843
26.2393
27.9173
29.5338
31.069
32.5664
34.121
35.8579
37.9052
40.3637
43.2787
46.6167
50.2522
53.9645
57.4481
60.3344
62.2241
62.7263
61.5003
58.2962
52.9873
45.5932
36.2881
25.3941
13.3588
0.719773
-11.9398
-24.0414
-35.0602
-44.5682
-52.2665
-58.0038
-61.7783
-63.7253
-64.0899
-63.1913
-61.3814
-59.0034
-56.3563
-53.6676
-51.0777
-48.637
-46.315
-44.019
-41.6196
-38.9798
-35.9814
-32.5487
-28.6631
-24.3698
-19.7747
-15.0326
-10.3293
-5.85921
-1.80285
1.69428
4.53781
6.69422
8.19319
9.12276
9.61805
9.84538
9.98382
10.2064
10.6633
11.4681
12.6889
14.3441
16.402
18.7837
21.3689
24.0014
26.4963
28.6474
30.2356
31.0406
30.8538
29.4954
26.8326
22.7983
17.4074
10.7675
3.08222
-5.355
-14.1769
-22.9675
-31.2937
-38.7402
-44.9443
-49.625
-52.6051
-53.8228
-53.3312
-51.288
-47.935
-43.5723
-38.5291
-33.1348
-27.6941
-22.4673
-17.6581
-13.4078
-9.79665
-6.84989
-4.54772
-2.83664
-1.64097
-0.873227
-0.442248
-0.258932
-0.239315
-0.305392
-0.384174
-0.405706
-0.300863
0.000216002
0.568298
1.47331
2.78052
4.54482
6.80387
9.57079
12.8274
16.519
20.5502
24.7829
29.0342
33.074
36.6199
39.3294
40.7872
40.4908
37.8352
32.1036
22.4711
8.0316
-12.1416
-38.8923
-72.831
-114.143
-162.375
-216.226
-273.404
-330.579
-383.496
-427.261
-456.807
-467.478
-455.689
-419.529
-359.222
-277.356
-178.805
-70.3459
40.006
143.862
233.41
302.317
346.462
364.402
357.49
329.643
286.796
236.101
185.008
140.328
107.421
89.6024
87.834
100.743
124.938
155.573
187.078
213.943
231.458
236.314
226.987
203.872
169.158
126.482
80.3985
35.7721
-2.85637
-31.8243
-48.7681
-52.8601
-44.8432
-26.8687
-2.16989
25.3793
51.7593
73.2901
87.0467
91.1599
84.9721
69.0389
44.9869
15.253
-17.2535
-49.5209
-78.7891
-102.847
-120.241
-130.375
-133.501
-130.608
-123.232
-113.222
-102.484
-92.7512
-85.3958
-81.3031
-80.823
-83.7902
-89.6054
-97.3601
-105.983
-114.388
-121.605
-126.877
-129.72
-129.943
-127.618
-123.034
-116.623
-108.877
-100.272
-91.2069
-81.9589
-72.6639
-63.3232
-53.8298
-44.0119
-33.6852
-22.7064
-11.0197
1.30961
14.0806
26.9609
39.5108
51.2228
61.5721
70.0703
76.3173
80.0434
81.1377
79.6593
75.8304
70.0134
62.673
54.3315
45.5198
36.7312
28.3843
20.7961
14.1704
8.59993
4.08121
0.538996
-2.14413
-4.09777
-5.43765
-6.24728
-6.56928
-6.40695
-5.73494
-4.51644
-2.72356
-0.35723
2.53694
5.85955
9.4568
13.1287
16.6451
19.7676
22.2744
23.9842
24.7768
24.6068
23.5096
21.598
19.0502
16.0915
12.9702
9.93282
7.19912
4.94181
3.27127
2.22768
1.78052
1.83537
2.24657
2.83415
3.40285
3.76104
3.73741
3.19392
2.03377
0.204346
-2.30468
-5.46694
-9.22736
-13.5109
-18.2308
-23.2944
-28.6069
-34.0715
-39.587
-45.0437
-50.3178
-55.2681
-59.734
-63.5378
-66.4922
-68.4114
-69.126
-68.5012
-66.4534
-62.9666
-58.1044
-52.02
-44.9626
-37.2841
-29.4475
-22.0378
-15.7759
-11.5298
-10.3159
-13.2782
-21.6307
-36.551
-59.0171
-89.593
-128.181
-173.779
-224.291
-276.451
-325.906
-367.5
-395.745
-405.451
-392.438
-354.225
-290.584
-203.85
-98.9271
17.0567
135.403
246.74
342.05
413.676
456.193
467.006
446.615
398.501
328.672
244.918
155.895
70.1402
-4.83591
-63.2951
-101.76
-119.206
-116.963
-98.3382
-68.0555
-31.5676
5.6502
38.7437
63.987
79.1048
83.3859
77.5954
63.7132
44.55
23.298
3.07907
-13.452
-24.407
-28.8366
-26.7674
-19.1099
-7.46345
6.15041
19.5845
30.8533
38.375
41.1423
38.8067
31.6721
20.6073
6.89457
-7.96132
-22.4365
-35.178
-45.1574
-51.7727
-54.8909
-54.8289
-52.2826
-48.2151
-43.721
-39.8854
-37.6537
-37.7279
-40.4981
-46.0147
-54.0024
-63.9083
-74.9781
-86.3476
-97.1384
-106.546
-113.911
-118.769
-120.869
-120.179
-116.852
-111.19
-103.597
-94.5202
-84.4081
-73.6681
-62.6395
-51.5779
-40.6515
-29.9467
-19.4813
-9.2223
0.895407
10.9494
21.0128
31.1401
41.3558
51.6486
61.9675
72.2232
82.2928
92.0281
101.266
109.84
117.598
124.408
130.173
134.841
138.403
140.896
142.398
143.018
142.883
142.125
140.865
139.2
137.192
134.857
132.162
129.021
125.303
120.834
115.406
108.794
100.773
91.1344
79.7127
66.4086
51.2142
34.2335
15.6972
-4.03182
-24.4665
-45.0166
-65.0228
-83.803
-100.704
-115.154
-126.715
-135.121
-140.307
-142.427
-141.853
-139.172
-135.171
-130.812
-127.209
-125.57
-127.137
-133.074
-144.326
-161.441
-184.365
-212.257
-243.352
-274.934
-303.437
-324.727
-334.532
-328.985
-305.209
-261.857
-199.502
-120.805
-30.4088
65.4407
159.521
244.419
313.373
361.067
384.248
382.108
356.351
310.968
251.737
185.512
119.421
60.0537
12.7468
-18.9404
-33.5164
-31.5829
-15.6114
10.4894
41.9466
73.7598
101.316
120.913
130.13
128.013
115.072
93.0969
64.8352
33.5832
2.74444
-24.5849
-45.9555
-59.7961
-65.5161
-63.481
-54.8751
-41.4798
-25.404
-8.80378
6.37207
18.5816
26.8162
30.6468
30.1921
26.0236
19.027
10.2417
0.704316
-8.68625
-17.2651
-24.6521
-30.7553
-35.7326
-39.9214
-43.7509
-47.65
-51.9656
-56.9013
-62.4833
-68.5548
-74.7992
-80.7839
-86.0175
-90.0124
-92.342
-92.6863
-90.8616
-86.8317
-80.7022
-72.7017
-63.1534
-52.4426
-40.9853
-29.1998
-17.4835
-6.19672
4.34892
13.8965
22.2469
29.2592
34.8492
38.9863
41.688
43.0129
43.0515
41.9166
39.7329
36.6293
32.7335
28.1709
23.0664
17.5506
11.7663
5.87604
0.0654681
-5.45691
-10.4666
-14.7363
-18.0551
-20.2505
-21.2116
-20.9083
-19.4041
-16.8586
-13.5192
-9.70171
-5.76121
-2.05715
1.08337
3.39954
4.72353
4.99642
4.27124
2.70242
0.522452
-1.99208
-4.56235
-6.95377
-9.02398
-10.7691
-12.365
-14.1997
-16.8912
-21.2837
-28.4134
-39.4332
-55.4884
-77.5404
-106.146
-141.215
-181.779
-225.823
-270.239
-310.933
-343.124
-361.821
-362.435
-341.45
-297.048
-229.598
-141.884
-39.0557
71.7614
182.126
283.158
366.511
425.318
454.974
453.665
422.56
365.657
289.298
201.419
110.644
25.3374
-47.2824
-101.839
-135.251
-146.891
-138.455
-113.571
-77.2214
-35.0543
7.32099
44.9698
74.1293
92.5188
99.4432
95.6953
83.2886
65.0689
44.2645
24.0355
7.08053
-4.65869
-10.1654
-9.38162
-3.11696
7.14311
19.4947
31.8987
42.4524
49.6153
52.3668
50.2844
43.5394
32.822
19.2117
4.01372
-11.4138
-25.8213
-38.2006
-47.8769
-54.5541
-58.3145
-59.5776
-59.0274
-57.5182
-55.9714
-55.272
-56.1768
-59.2393
-64.7588
-72.7546
-82.9691
-94.8951
-107.826
-120.926
-133.304
-144.1
-152.555
-158.082
-160.303
-159.075
-154.485
-146.823
-136.542
-124.197
-110.392
-95.7261
-80.7472
-65.9249
-51.6361
-38.1645
-25.71
-14.4053
-4.33234
4.46223
11.9579
18.1563
23.0837
26.7952
29.3813
30.9709
31.7302
31.8556
31.5606
31.0581
30.5408
30.1619
30.0194
30.1468
30.5107
31.0172
31.5246
31.8609
31.843
31.2933
30.0491
27.9618
24.8829
20.6346
14.9697
7.5246
-2.2238
-14.9812
-31.6228
-53.1253
-80.4331
-114.257
-154.826
-201.615
-253.121
-306.73
-358.74
-404.572
-439.192
-457.679
-455.906
-431.203
-382.908
-312.701
-224.642
-124.893
-21.1366
78.2352
165.055
232.314
274.958
290.458
279.054
243.669
189.503
123.361
52.8282
-14.6166
-72.4185
-115.61
-141.242
-148.545
-138.823
-115.109
-81.6534
-43.3049
-4.88837
29.3594
56.2235
73.7786
81.4703
80.0223
71.1957
57.4469
41.5364
26.1429
13.5293
5.29798
2.25493
4.38959
10.9589
20.6543
31.8212
42.6981
51.6418
57.3143
58.8106
55.7191
48.1153
36.4963
21.6725
4.63337
-13.5904
-32.0524
-49.9883
-66.8753
-82.4514
-96.6957
-109.775
-121.972
-133.6
-144.926
-156.103
-167.132
-177.844
-187.916
-196.903
-204.292
-209.564
-212.253
-211.997
-208.582
-201.959
-192.254
-179.755
-164.886
-148.175
-130.216
-111.63
-93.0234
-74.9612
-57.9343
-42.3414
-28.4738
-16.5078
-6.50297
1.59284
7.93367
12.7599
16.3784
19.139
21.4087
23.5454
25.8722
28.6546
32.0827
36.2585
41.1913
46.7986
52.9149
59.3047
65.6798
71.7188
77.0864
81.4531
84.5135
86.0031
85.7138
83.5078
79.3297
73.215
65.2953
55.798
45.0389
33.4085
21.3508
9.33609
-2.16962
-12.7368
-22.002
-29.6922
-35.6406
-39.7926
-42.2018
-43.0147
-42.4497
-40.7692
-38.252
-35.1662
-31.7481
-28.1876
-24.6221
-21.1394
-17.7873
-14.5909
-11.5737
-8.7823
-6.31285
-4.33699
-3.12697
-3.07689
-4.71691
-8.71494
-15.8584
-27.0071
-43.009
-64.5725
-92.0974
-125.476
-163.89
-205.644
-248.075
-287.6
-319.912
-340.356
-344.459
-328.538
-290.327
-229.505
-148.028
-50.1964
57.5955
167.406
270.538
358.485
423.883
461.374
468.224
444.642
393.745
321.175
234.43
142.002
52.4234
-26.6414
-89.1586
-131.259
-151.487
-150.76
-132.058
-99.9019
-59.7025
-17.064
22.8687
55.9462
79.3791
91.9049
93.7548
86.4445
72.4323
54.6995
36.3126
20.0234
7.95296
1.3891
0.711857
5.44222
14.395
25.9058
38.0949
49.1306
57.4593
61.9745
62.1116
57.8638
49.7254
38.5793
25.5486
11.8354
-1.43052
-13.3159
-23.1687
-30.6574
-35.7669
-38.7562
-40.0895
-40.3528
-40.1685
-40.1183
-40.6829
-42.2027
-44.8602
-48.6829
-53.5615
-59.2794
-65.5477
-72.0407
-78.427
-84.3967
-89.6796
-94.0582
-97.3731
-99.5239
-100.466
-100.202
-98.7768
-96.2593
-92.7348
-88.2897
-83.0006
-76.9255
-70.1003
-62.5403
-54.2472
-45.2216
-35.4773
-25.0568
-14.0436
-2.57015
9.18182
20.9876
32.5937
43.7367
54.1661
63.6666
72.0778
79.3082
85.3416
90.2354
94.1105
97.1338
99.4962
101.388
102.977
104.385
105.677
106.855
107.858
108.572
108.845
108.505
107.384
105.331
102.229
98.0049
92.6298
86.1175
78.5154
69.8938
60.3334
49.9151
38.7127
26.791
14.2088
1.02729
-12.6786
-26.807
-41.2179
-55.726
-70.0994
-84.0666
-97.3316
-109.597
-120.594
-130.118
-138.067
-144.483
-149.584
-153.803
-157.797
-162.451
-168.844
-178.181
-191.672
-210.364
-234.922
-265.395
-300.983
-339.873
-379.182
-415.061
-442.985
-458.207
-456.359
-434.09
-389.668
-323.427
-237.975
-138.113
-30.4481
77.2605
176.933
261.08
323.656
360.754
371.027
355.81
318.906
266.085
204.37
141.195
83.5612
37.2816
6.41484
-7.06434
-3.32696
15.5031
45.7548
82.7628
121.49
157.135
185.66
204.176
211.151
206.449
191.188
167.478
138.065
105.943
73.9855
44.6305
19.6566
0.0661093
-13.9261
-22.8077
-27.6087
-29.6962
-30.552
-31.5638
-33.8527
-38.1555
-44.769
-53.5571
-64.0133
-75.3646
-86.7
-97.1046
-105.783
-112.155
-115.918
-117.068
-115.881
-112.862
-108.669
-104.021
-99.6152
-96.0384
-93.7089
-92.8357
-93.4051
-95.1932
-97.7997
-100.7
-103.304
-105.025
-105.331
-103.801
-100.152
-94.2596
-86.1542
-76.0085
-64.1113
-50.8354
-36.6055
-21.867
-7.06277
7.38477
21.0833
33.6757
44.8424
54.3042
61.8275
67.2329
70.4067
71.3134
70.0067
66.635
61.4402
54.7471
46.9435
38.4531
29.7039
21.0962
12.9744
5.60635
-0.826461
-6.22819
-10.5778
-13.9109
-16.2986
-17.826
-18.5755
-18.616
-17.999
-16.7619
-14.936
-12.5559
-9.66977
-6.34526
-2.67207
1.23998
5.26529
9.26592
13.0902
16.5624
19.4603
21.481
22.1988
21.0227
17.169
9.66482
-2.59866
-20.749
-45.7456
-78.1336
-117.766
-163.539
-213.206
-263.325
-309.392
-346.187
-368.313
-370.877
-350.214
-304.556
-234.512
-143.288
-36.562
77.9677
191.333
294.248
378.138
436.113
463.747
459.57
425.202
365.125
286.115
196.435
104.882
19.8091
-51.7374
-104.691
-136.361
-146.529
-137.253
-112.426
-77.157
-37.0691
2.39855
36.5986
62.1288
77.0908
81.1409
75.3484
61.8966
43.6801
23.8585
5.42518
-9.1562
-18.2099
-20.9794
-17.6298
-9.13242
2.93904
16.6681
30.0713
41.3546
49.1194
52.4989
51.2134
45.5466
36.2542
24.4218
11.2956
-1.88881
-14.06
-24.4263
-32.5434
-38.3295
-42.0304
-44.1446
-45.3201
-46.2412
-47.5189
-49.6006
-52.7096
-56.8191
-61.6634
-66.7811
-71.5835
-75.4378
-77.7532
-78.0594
-76.068
-71.7097
-65.1443
-56.7437
-47.0494
-36.7138
-26.4293
-16.8567
-8.55923
-1.95091
2.73681
5.46675
6.38607
5.79731
4.11477
1.81221
-0.631575
-2.78299
-4.29422
-4.93057
-4.58252
-3.26293
-1.09134
1.73099
4.95079
8.29242
11.4826
14.266
16.4095
17.6918
17.881
16.7009
13.7934
8.68372
0.764062
-10.6924
-26.4702
-47.2949
-73.658
-105.602
-142.493
-182.833
-224.159
-263.086
-295.521
-317.051
-323.47
-311.378
-278.766
-225.477
-153.468
-66.7949
28.6743
125.822
217.028
295.016
353.679
388.772
398.376
383.084
345.871
291.687
226.828
158.17
92.3788
35.1802
-9.20532
-38.4137
-52.0405
-51.5006
-39.6815
-20.4472
1.93232
23.3491
40.3526
50.5163
52.6408
46.7824
34.12
16.6911
-2.95772
-22.1525
-38.4551
-49.9626
-55.5115
-54.7687
-48.2086
-36.9904
-22.7599
-7.40898
7.17335
19.3259
27.7898
31.8172
31.2052
26.2605
17.7055
6.54335
-6.09517
-19.1029
-31.5257
-42.6561
-52.0827
-59.6932
-65.6366
-70.252
-73.9788
-77.2602
-80.4547
-83.7678
-87.2103
-90.5892
-93.5303
-95.5283
-96.0181
-94.456
-90.4017
-83.5903
-73.9833
-61.795
-47.4883
-31.7411
-15.3876
0.658645
15.491
28.2948
38.421
45.4411
49.1772
49.7047
47.3292
42.5421
35.9607
28.2618
20.116
12.1312
4.80932
-1.47891
-6.50288
-10.165
-12.4823
-13.5612
-13.57
-12.7139
-11.2161
-9.30535
-7.21417
-5.18519
-3.48697
-2.43711
-2.43012
-3.96519
-7.66633
-14.2844
-24.6682
-39.6931
-60.1369
-86.5047
-118.815
-156.374
-197.592
-239.874
-279.663
-312.64
-334.121
-339.59
-325.33
-289.048
-230.391
-151.261
-55.8557
49.6075
157.444
259.292
347.021
413.653
454.155
466.003
449.447
407.437
345.23
269.736
188.692
109.782
39.8082
-15.9911
-54.3857
-74.3392
-76.9208
-64.9787
-42.633
-14.6651
14.1145
39.439
58.0364
67.9145
68.4613
60.3667
45.394
26.0419
5.15246
-14.4835
-30.4746
-41.0921
-45.4252
-43.4209
-35.8141
-23.9691
-9.66039
5.17394
18.6737
29.2637
35.8062
37.6849
34.8202
27.6195
16.8782
3.64728
-10.9109
-25.6611
-39.6116
-51.9969
-62.3225
-70.3702
-76.1693
-79.9421
-82.0343
-82.8405
-82.7363
-82.0237
-80.8958
-79.4231
-77.5605
-75.1725
-72.0705
-68.0575
-62.9729
-56.7311
-49.3492
-40.9611
-31.814
-22.2517
-12.6826
-3.54106
4.75685
11.8547
17.4908
21.5221
23.9348
24.8398
24.4559
23.0816
21.0609
18.7469
16.468
14.4995
13.0449
12.2266
12.0866
12.5958
13.669
15.1841
17.0003
18.9755
20.9784
22.8953
24.6292
26.0927
27.1923
27.8055
27.7525
26.7631
24.4461
20.2679
13.5504
3.50234
-10.7043
-29.8061
-54.2677
-84.0665
-118.473
-155.872
-193.685
-228.426
-255.949
-271.861
-272.08
-253.456
-214.369
-155.178
-78.4488
11.1151
107.05
201.776
287.436
356.804
404.143
425.885
421.041
391.284
340.706
275.274
202.083
128.499
61.3086
5.99512
-33.7928
-56.5074
-62.6945
-54.7325
-36.3672
-12.1186
13.3548
35.8512
52.1074
60.1158
59.2524
50.2147
34.7967
15.5441
-4.65463
-22.9832
-37.0645
-45.2368
-46.7134
-41.6145
-30.8814
-16.093
0.781466
17.6566
32.5945
44.0249
50.8983
52.7599
49.7403
42.4747
31.9672
19.4222
6.07098
-6.98641
-18.9018
-29.1512
-37.5535
-44.2377
-49.5692
-54.0478
-58.1958
-62.452
-67.0882
-72.1564
-77.4764
-82.6598
-87.1681
-90.3928
-91.7468
-90.7524
-87.1142
-80.7682
-71.8994
-60.9288
-48.471
-35.2699
-22.1221
-9.79702
1.0352
9.86045
16.3566
20.4065
22.0885
21.6483
19.4582
15.9685
11.659
6.99416
2.3881
-1.82068
-5.38254
-8.13945
-10.0191
-11.0229
-11.2105
-10.6838
-9.57252
-8.02257
-6.18956
-4.23726
-2.34209
-0.703672
0.439016
0.787169
-0.0397759
-2.52248
-7.24893
-14.9009
-26.2086
-41.8653
-62.3973
-87.996
-118.33
-152.371
-188.269
-223.332
-254.138
-276.792
-287.335
-282.244
-258.971
-216.423
-155.308
-78.2748
10.1971
104.16
196.771
281.015
350.468
400.012
426.402
428.607
407.883
367.579
312.704
249.312
183.794
122.165
69.4379
29.1525
3.10662
-8.68574
-7.82413
2.82541
19.5984
38.5539
55.9818
68.8347
75.0379
73.6499
64.8682
49.8927
30.6781
9.61521
-10.8116
-28.347
-41.2294
-48.3691
-49.4285
-44.8021
-35.509
-23.0198
-9.04478
4.68627
16.6263
25.5715
30.7659
31.942
29.3003
23.4351
15.2211
5.67849
-4.16624
-13.4058
-21.3506
-27.5907
-32.0164
-34.7975
-36.3277
-37.1434
-37.8274
-38.9126
-40.7976
-43.6841
-47.5439
-52.119
-56.9527
-61.4462
-64.9342
-66.7666
-66.3883
-63.4058
-57.6353
-49.1266
-38.162
-25.233
-10.9967
3.77955
18.2822
31.7151
43.3584
52.6191
59.0678
62.4627
62.7584
60.1008
54.81
47.3521
38.303
28.3067
18.0316
8.12726
-0.816008
-8.30113
-13.9509
-17.5254
-18.9298
-18.2121
-15.552
-11.2425
-5.66531
0.734557
7.47375
14.0497
19.9512
24.6583
27.6315
28.2941
26.0146
20.099
9.80769
-5.59088
-26.72
-53.9451
-87.1852
-125.711
-167.965
-211.46
-252.794
-287.824
-312.015
-320.932
-310.84
-279.302
-225.707
-151.602
-60.7754
40.9647
146.295
247.117
335.442
404.286
448.475
465.225
454.432
418.64
362.674
293.027
217.057
142.13
74.8027
20.1555
-18.6487
-40.5465
-46.4872
-39.1105
-22.2491
-0.331833
22.2282
41.5825
54.8702
60.4734
58.0887
48.624
33.9492
16.5479
-0.877022
-15.7892
-26.1483
-30.6459
-28.827
-21.0921
-8.58997
6.97593
23.595
39.2166
52.0005
60.5228
63.9134
61.9157
54.8667
43.6062
29.3333
13.4312
-2.7151
-17.8832
-31.1419
-41.9296
-50.0764
-55.7714
-59.4859
-61.8638
-63.5991
-65.3173
-67.4776
-70.3066
-73.773
-77.601
-81.3216
-84.3493
-86.0745
-85.9569
-83.6073
-78.8479
-71.7424
-62.5957
-51.9214
-40.3859
-28.7349
-17.7132
-7.98805
-0.0843317
5.66194
9.12733
10.4016
9.76648
7.65744
4.61254
1.21598
-1.95814
-4.39632
-5.6862
-5.54481
-3.83348
-0.560015
4.13074
9.97592
16.6212
23.6528
30.6324
37.1328
42.7712
47.2386
50.3213
51.9128
52.014
50.7197
48.1905
44.6104
40.132
34.8137
28.5547
21.0404
11.7085
-0.247061
-15.8209
-36.0791
-61.9772
-94.1231
-132.51
-176.262
-223.441
-270.981
-314.784
-350.021
-371.613
-374.873
-356.199
-313.737
-247.891
-161.579
-60.17
48.9192
156.935
254.719
333.744
387.112
410.375
402.062
363.859
300.39
218.661
127.228
35.2089
-48.7393
-117.336
-165.393
-190.244
-191.858
-172.638
-136.954
-90.4833
-39.4558
10.1013
53.0282
85.5324
105.479
112.458
107.633
93.4262
73.0733
50.1345
28.0153
9.55857
-3.24762
-9.42446
-9.0123
-2.95111
7.14
19.2452
31.2542
41.2438
47.7053
49.6954
46.899
39.6064
28.6166
15.0864
0.350219
-14.2644
-27.6018
-38.8063
-47.4003
-53.3088
-56.8316
-58.572
-59.3327
-59.9969
-61.4071
-64.2577
-69.0136
-75.861
-84.6952
-95.1421
-106.609
-118.358
-129.582
-139.492
-147.386
-152.708
-155.08
-154.323
-150.445
-143.627
-134.184
-122.531
-109.141
-94.5105
-79.133
-63.4752
-47.9655
-32.9865
-18.8717
-5.90397
5.68653
15.7248
24.0952
30.7463
35.6942
39.0233
40.8827
41.4769
41.0514
39.8729
38.2072
36.2969
34.3416
32.4843
30.804
29.3175
27.9885
26.7431
25.4878
24.1295
22.5908
20.8218
18.8036
16.5461
14.0783
11.4344
8.63721
5.68062
2.51191
-0.984762
-5.00425
-9.83561
-15.8764
-23.644
-33.7813
-47.0487
-64.2951
-86.3964
-114.153
-148.139
-188.517
-234.82
-285.753
-339.042
-391.396
-438.615
-475.877
-498.204
-501.057
-480.998
-436.318
-367.509
-277.507
-171.625
-57.1584
57.2946
162.735
250.753
314.489
349.419
353.873
329.201
279.585
211.519
133.021
52.7063
-21.1789
-81.6301
-123.567
-144.252
-143.414
-123.072
-87.1211
-40.7247
10.3768
60.5644
104.957
139.88
163.141
174.104
173.563
163.463
146.504
125.697
103.936
83.63
66.4422
53.1587
43.6928
37.2097
32.3447
27.4774
21.0171
11.6619
-1.40424
-18.3974
-38.9121
-61.9878
-86.2487
-110.092
-131.898
-150.23
-164.003
-172.599
-175.921
-174.377
-168.811
-160.387
-150.439
-140.316
-131.238
-124.172
-119.745
-118.207
-119.428
-122.945
-128.034
-133.806
-139.313
-143.647
-146.028
-145.869
-142.814
-136.752
-127.802
-116.279
-102.644
-87.4511
-71.2916
-54.7436
-38.3348
-22.5174
-7.65532
5.97632
18.1828
28.8356
37.8552
45.1951
50.8278
54.7369
56.9139
57.3618
56.1032
53.1926
48.7282
42.8642
35.8177
27.8697
19.3592
10.6683
2.20161
-5.64128
-12.4946
-18.0555
-22.1082
-24.5423
-25.3603
-24.6762
-22.7026
-19.7299
-16.0974
-12.1626
-8.26836
-4.71373
-1.72895
0.541995
2.05111
2.84746
3.0697
2.9307
2.69546
2.65383
3.09049
4.2548
6.33359
9.42997
13.5505
18.6029
24.4038
30.6975
37.1805
43.5326
49.4459
54.6525
58.9436
62.1797
64.291
65.2669
65.1382
63.9543
61.7573
58.5584
54.3163
48.919
42.1704
33.7781
23.3448
10.3612
-5.7933
-25.8365
-50.5459
-80.6849
-116.884
-159.475
-208.286
-262.426
-320.09
-378.456
-433.699
-481.182
-515.835
-532.687
-527.521
-497.531
-441.905
-362.204
-262.475
-149.036
-29.9498
85.769
189.107
272.05
328.482
354.87
350.647
318.23
262.698
191.155
111.883
33.3963
-36.4918
-91.4659
-127.284
-142.075
-136.341
-112.688
-75.3341
-29.4823
19.3642
66.0477
106.293
137.081
156.827
165.37
163.791
154.098
138.842
120.717
102.185
85.1915
70.9795
60.0243
52.0792
46.3161
41.5287
36.3679
29.5724
20.1658
7.59742
-8.18747
-26.7496
-47.2251
-68.4471
-89.1004
-107.888
-123.686
-135.67
-143.4
-146.853
-146.409
-142.783
-136.934
-129.941
-122.879
-116.702
-112.146
-109.666
-109.4
-111.18
-114.564
-118.903
-123.416
-127.278
-129.702
-130.01
-127.694
-122.447
-114.182
-103.026
-89.2977
-73.4684
-56.1184
-37.8834
-19.4027
-1.27099
16.0021
32.0214
46.5221
59.3724
70.5619
80.1784
88.3762
95.3399
101.248
106.239
110.393
113.713
116.131
117.516
117.702
116.515
113.805
109.482
103.535
96.0477
87.2058
77.2831
66.6239
55.6145
44.6493
34.0979
24.2737
15.4106
7.64789
1.02616
-4.50702
-9.08184
-12.8843
-16.1299
-19.0371
-21.8021
-24.5802
-27.4741
-30.5324
-33.7589
-37.1337
-40.6453
-44.3321
-48.3299
-52.9167
-58.5468
-65.8595
-75.6483
-88.7773
-106.039
-127.96
-154.563
-185.145
-218.094
-250.815
-279.816
-300.958
-309.9
-302.657
-276.23
-229.187
-162.106
-77.78
18.8581
121.121
221.213
311.067
383.249
431.83
453.072
445.869
411.857
355.201
282.085
199.971
116.744
39.8328
-24.5614
-72.0586
-100.441
-109.722
-101.952
-80.7991
-50.9803
-17.6155
14.406
40.974
59.1595
67.4374
65.7171
55.196
38.0718
17.161
-4.51907
-24.1495
-39.4437
-48.8803
-51.8167
-48.4812
-39.8573
-27.4853
-13.214
1.06081
13.6375
23.2012
28.9482
30.6336
28.543
23.3994
16.2217
8.15822
0.316816
-6.38555
-11.3371
-14.2969
-15.4059
-15.1465
-14.2566
-13.6133
-14.1012
-16.4845
-21.2984
-28.7736
-38.8018
-50.9458
-64.4892
-78.5185
-92.0251
-104.013
-113.599
-120.092
-123.046
-122.285
-117.893
-110.183
-99.6497
-86.905
-72.62
-57.4668
-42.0727
-26.9852
-12.6521
0.587613
12.501
22.9512
31.882
39.2989
45.2506
49.8115
53.068
55.1092
56.0221
55.8922
54.8079
52.8665
50.1818
46.8903
43.1551
39.166
35.1359
31.2928
27.8689
25.0877
23.1484
22.2092
22.3698
23.6493
25.9624
29.0892
32.6426
36.0331
38.4406
38.7989
35.8116
28.0107
13.8755
-7.98373
-38.5786
-78.2574
-126.421
-181.298
-239.839
-297.792
-349.983
-390.811
-414.897
-417.818
-396.806
-351.301
-283.251
-197.09
-99.3868
1.82062
97.9037
180.627
243.099
280.561
290.907
274.873
235.874
179.525
112.913
43.7305
-20.625
-73.8579
-111.407
-130.826
-131.898
-116.466
-88.0472
-51.2774
-11.2703
27.0216
59.3702
82.6988
95.3323
97.0583
89.0067
73.38
53.0803
31.2853
11.0323
-5.1442
-15.4784
-19.1233
-16.1749
-7.58263
5.03441
19.6319
34.0111
46.0817
54.0847
56.7565
53.4191
43.9959
28.9593
9.22565
-13.9853
-39.3045
-65.3622
-90.9163
-114.947
-136.711
-155.761
-171.923
-185.248
-195.947
-204.312
-210.648
-215.208
-218.155
-219.533
-219.274
-217.216
-213.139
-206.812
-198.044
-186.733
-172.899
-156.713
-138.5
-118.729
-97.9834
-76.9215
-56.2242
-36.5436
-18.4525
-2.40294
11.3041
22.5328
31.3119
37.818
42.3476
45.2791
47.0307
48.0184
48.6184
49.1366
49.7891
50.693
51.8684
53.2489
54.7001
56.0413
57.0689
57.5797
57.3905
56.3544
54.3732
51.4042
47.4635
42.625
37.0153
30.8052
24.1991
17.4212
10.7005
4.25632
-1.71659
-7.06005
-11.6616
-15.4594
-18.443
-20.649
-22.1532
-23.059
-23.4848
-23.5504
-23.365
-23.0175
-22.5704
-22.0573
-21.4846
-20.8355
-20.0777
-19.1706
-18.0743
-16.7563
-15.1977
-13.3963
-11.3685
-9.14746
-6.78102
-4.32665
-1.84641
0.598441
2.95227
5.16868
7.21246
9.05974
10.6964
12.1149
13.311
14.2793
15.0109
15.4919
15.7036
15.6262
15.2434
14.5494
13.5566
12.3017
10.8508
9.30049
7.77413
6.41354
5.36476
4.75855
4.68562
5.16703
6.12064
7.32497
8.38315
8.69101
7.41498
3.48731
-4.37216
-17.5973
-37.6698
-65.9596
-103.51
-150.78
-207.369
-271.765
-341.172
-411.475
-477.388
-532.816
-571.418
-587.329
-575.94
-534.646
-463.42
-365.123
-245.463
-112.594
23.6297
152.649
264.33
350.077
403.778
422.471
406.628
360.042
289.321
203.072
110.888
22.252
-54.4756
-112.899
-149.14
-162.072
-153.213
-126.327
-86.7903
-40.8293
5.27918
45.9398
76.823
95.2447
100.314
92.8503
75.1099
50.36
22.3791
-5.0544
-28.6212
-45.8168
-55.1705
-56.316
-49.9203
-37.4939
-21.1187
-3.13624
14.1625
28.8068
39.3468
44.9693
45.522
41.4555
33.698
23.4857
12.1761
1.06584
-8.76152
-16.5464
-21.9121
-24.8707
-25.7827
-25.2788
-24.1572
-23.2726
-23.4274
-25.2802
-29.2771
-35.6124
-44.2202
-54.7923
-66.8202
-79.6524
-92.5607
-104.808
-115.71
-124.687
-131.303
-135.29
-136.552
-135.165
-131.351
-125.457
-117.915
-109.207
-99.8223
-90.2235
-80.8116
-71.9013
-63.7039
-56.3214
-49.7498
-43.8939
-38.5882
-33.6243
-28.7792
-23.8425
-18.6396
-13.0473
-7.00371
-0.510254
6.37244
13.5332
20.8221
28.0641
35.0724
41.6613
47.6571
52.9073
57.2871
60.7048
63.1045
64.468
64.8152
64.2034
62.7246
60.502
57.6837
54.435
50.9283
47.3323
43.7993
40.4525
37.375
34.5999
32.1046
29.8095
27.5828
25.2507
22.6143
19.4699
15.6332
10.963
5.38331
-1.10055
-8.39213
-16.3033
-24.5628
-32.8338
-40.7381
-47.8865
-53.9102
-58.4918
-61.3924
-62.4723
-61.7019
-59.1631
-55.0409
-49.6045
-43.182
-36.1309
-28.8069
-21.5368
-14.5955
-8.19231
-2.4648
2.5176
6.74223
10.2346
13.0338
15.1625
16.5923
17.2056
16.7567
14.8361
10.8471
4.00514
-6.62676
-22.0533
-43.205
-70.7401
-104.806
-144.791
-189.118
-235.125
-279.105
-316.515
-342.391
-351.919
-341.102
-307.425
-250.416
-171.977
-76.4394
29.7165
138.447
240.976
328.755
394.44
432.737
441.012
419.574
371.621
302.823
220.644
133.468
49.6505
-23.3751
-79.843
-116.163
-131.146
-125.94
-103.705
-69.0759
-27.5122
15.3974
54.5788
85.9951
106.997
116.476
114.82
103.696
85.703
63.9518
41.6287
21.5968
6.08096
-3.53399
-6.78009
-4.06171
3.49147
14.2442
26.313
37.824
47.1409
53.0361
54.7917
52.2269
45.656
35.7918
23.6129
10.2167
-3.32391
-16.0804
-27.3551
-36.7271
-44.0581
-49.4612
-53.2444
-55.8364
-57.709
-59.3056
-60.9839
-62.9797
-65.3913
-68.1865
-71.2263
-74.2998
-77.1657
-79.5923
-81.3908
-82.4392
-82.6929
-82.184
-81.0076
-79.3015
-77.2199
-74.9073
-72.4748
-69.9833
-67.4355
-64.7764
-61.9048
-58.6905
-54.9975
-50.7079
-45.7445
-40.087
-33.7812
-26.9387
-19.7282
-12.3588
-5.05879
1.94904
8.46973
14.3555
19.5186
23.9369
27.6513
30.7565
33.3856
35.6919
37.83
39.9386
42.1273
44.4692
46.999
49.7172
52.5981
55.6009
58.6805
61.797
64.9215
68.0378
71.1391
74.221
77.2707
80.2557
83.1112
85.7312
87.9628
89.6053
90.418
90.1336
88.4807
85.2123
80.1374
73.1541
64.2773
53.6581
41.5898
28.4995
14.9228
1.46539
-11.2461
-22.6178
-32.1407
-39.4364
-44.2895
-46.6645
-46.7051
-44.7151
-41.1246
-36.4439
-31.212
-25.9446
-21.0897
-16.9948
-13.8942
-11.9155
-11.1098
-11.5003
-13.1453
-16.2072
-21.0136
-28.0996
-38.2129
-52.27
-71.2501
-96.0256
-127.137
-164.533
-207.329
-253.611
-300.374
-343.614
-378.62
-400.448
-404.532
-387.361
-347.105
-284.099
-201.071
-103.074
2.90974
108.64
205.494
285.43
341.909
370.642
370.078
341.56
289.13
219.02
138.907
57.0166
-18.7937
-81.8617
-127.365
-152.71
-157.638
-144.058
-115.632
-77.2076
-34.1509
8.31029
45.666
74.5602
93.045
100.64
98.21
87.6943
71.7358
53.2679
35.113
19.6414
8.52742
2.62061
1.93686
5.75616
12.8031
21.4779
30.1036
37.155
41.4437
42.2398
39.3208
32.9515
23.8013
12.8188
1.08127
-10.3586
-20.6104
-29.0529
-35.398
-39.7097
-42.3769
-44.0475
-45.5318
-47.69
-51.3158
-57.0306
-65.1996
-75.8785
-88.796
-103.373
-118.776
-133.993
-147.938
-159.546
-167.879
-172.21
-172.088
-167.372
-158.239
-145.16
-128.847
-110.184
-90.1418
-69.693
-49.7301
-30.9982
-14.0492
0.780773
13.3683
23.7762
32.2079
38.951
44.3163
48.5825
51.9536
54.5344
56.3283
57.2553
57.1877
55.9958
53.5976
50.0013
45.3347
39.8558
33.9415
28.0555
22.6982
18.3457
15.3834
14.0423
14.3448
16.0632
18.6962
21.4636
23.3201
22.9904
19.0272
9.89775
-5.89572
-29.6557
-62.2894
-104.078
-154.437
-211.716
-273.071
-334.481
-390.937
-436.835
-466.54
-475.072
-458.825
-416.204
-348.065
-257.886
-151.588
-37.0362
76.7432
180.536
265.961
326.42
357.831
359.063
332.012
281.31
213.727
137.335
60.5596
-8.7641
-64.2116
-101.372
-118.173
-114.911
-93.9996
-59.4952
-16.472
29.6583
73.7966
111.699
140.352
158.162
164.942
161.73
150.487
133.707
114.031
93.8808
75.1884
59.222
46.5318
37.0025
29.9917
24.5243
19.5077
13.9348
7.04704
-1.5622
-11.9111
-23.659
-36.1893
-48.7288
-60.481
-70.7519
-79.0498
-85.1462
-89.0926
-91.1925
-91.9384
-91.9247
-91.7511
-91.9322
-92.8243
-94.5806
-97.1364
-100.226
-103.426
-106.211
-108.029
-108.36
-106.779
-102.992
-102.992
-102.992
-102.992
-102.992
-102.992
-102.992
-102.992
-102.992
-102.992
-102.992
-102.992
-102.992
-102.992
-102.992
-102.992
-102.992
-102.992
-102.992
