37.2341
40.6355
42.8521
43.6784
43.0963
41.3042
38.7147
35.9151
33.5952
32.4498
33.0708
35.8445
40.8709
47.9202
56.4338
65.5743
74.317
81.5728
86.3245
87.7584
85.371
79.0379
69.034
56.0031
40.8817
24.7884
8.89307
-5.7154
-18.1464
-27.7958
-34.3954
-38.0191
-39.0493
-38.1076
-35.9639
-33.4336
-31.2773
-30.1139
-30.3575
-32.1818
-35.5158
-40.0677
-45.3728
-50.8561
-55.9019
-59.9183
-62.3886
-62.9037
-61.1701
-56.9988
-50.279
-40.9486
-28.9744
-14.3518
2.86867
22.5256
44.2719
67.493
91.2414
114.207
134.746
150.975
160.934
162.804
155.15
137.154
108.809
71.0234
25.6274
-24.7405
-76.8534
-127.201
-172.34
-209.245
-235.617
-250.102
-252.405
-243.277
-224.385
-198.088
-167.151
-134.433
-102.592
-73.8361
-49.7524
-31.2224
-18.4255
-10.9217
-7.79454
-7.82893
-9.69968
-12.1452
-14.1082
-14.8294
-13.8905
-11.2066
-6.97698
-1.60547
4.39427
10.4949
16.2391
21.301
25.5192
28.8985
31.5843
33.8149
35.8609
37.9621
40.2739
42.8301
45.531
48.1581
50.4149
51.9872
52.6123
52.1459
50.6136
48.2353
45.4168
42.707
40.7255
40.0703
41.2194
44.4426
49.7367
56.7974
65.0326
73.6178
81.5875
87.9496
91.8085
92.4788
89.5744
83.0619
73.2696
60.853
46.7207
31.9314
17.5753
4.6552
-6.01748
-13.8999
-18.7591
-20.6745
-20.0022
-17.3096
-13.2885
-8.66113
-4.09174
-0.114702
2.91203
4.8245
5.64187
5.53145
4.75729
3.6212
2.40553
1.32605
0.501066
-0.0595622
-0.445213
-0.817533
-1.37094
-2.28749
-3.69364
-5.62606
-8.01211
-10.6681
-13.3158
-15.6153
-17.209
-17.771
-17.0554
-14.9355
-11.4301
-6.71188
-1.09613
4.98774
11.0403
16.5457
21.0281
24.1047
25.5276
25.2103
23.236
19.8448
15.405
10.3693
5.22341
0.433273
-3.60366
-6.59634
-8.38403
-8.94388
-8.38244
-6.91307
-4.82289
-2.43408
-0.0644097
2.00817
3.57311
4.50432
4.76571
4.40556
3.54149
2.3387
0.984776
-0.335484
-1.4623
-2.2777
-2.71538
-2.76323
-2.45902
-1.8807
-1.13367
-0.337664
0.38363
0.907997
1.11367
0.872257
0.0376755
-1.5653
-4.14847
-7.9595
-13.2701
-20.3524
-29.4453
-40.715
-54.2161
-69.8594
-87.3947
-106.41
-126.354
-146.575
-166.377
-185.083
-202.1
-216.971
-229.42
-239.365
-246.913
-252.334
-256.012
-258.388
-259.9
-260.931
-261.769
-262.593
-263.476
-264.409
-265.34
-266.212
-267.005
-267.754
-268.552
-269.536
-270.845
-272.57
-274.699
-277.066
-279.328
-280.959
-281.283
-279.532
-274.937
-266.82
-254.696
-238.349
-217.893
-193.787
-166.812
-138.022
-108.649
-79.9982
-53.3331
-29.7612
-10.1398
4.99395
15.4625
21.4546
23.501
22.4264
19.2815
15.2649
11.6386
9.64237
10.4085
14.8778
23.7176
37.2439
55.3521
77.4645
102.506
128.919
154.731
177.676
195.374
205.547
206.268
196.193
174.773
142.383
100.372
50.9992
-2.73085
-57.3306
-109.154
-154.748
-191.185
-216.343
-229.091
-229.366
-218.133
-197.236
-169.173
-136.804
-103.051
-70.6158
-41.7407
-18.0438
-0.435247
10.8832
16.3435
16.8779
13.7488
8.36433
2.1027
-3.83622
-8.5385
-11.4357
-12.3158
-11.2904
-8.72815
-5.16615
-1.21356
2.54051
5.60397
7.6368
8.48057
8.16303
6.88108
4.96775
2.8493
0.998433
-0.111471
-0.047933
1.5454
4.92072
10.2056
17.3907
26.3253
36.7223
48.173
60.1716
72.1504
83.5231
93.7354
102.316
108.926
113.397
115.754
116.216
115.182
113.181
110.817
108.692
107.331
107.113
108.214
110.581
113.927
117.768
121.477
124.365
125.772
125.154
122.162
116.688
108.886
99.1624
88.1259
76.5195
65.1336
54.7158
45.8872
39.0768
34.4785
32.0384
31.4686
32.2873
33.878
35.5617
36.6728
36.6313
35.0047
31.5524
26.2493
19.2877
11.0554
2.09504
-6.95346
-15.42
-22.6753
-28.1983
-31.6322
-32.8242
-31.8421
-28.9677
-24.665
-19.5276
-14.211
-9.35738
-5.52173
-3.10937
-2.33137
-3.18409
-5.45461
-8.75102
-12.5531
-16.2765
-19.3417
-21.2396
-21.5853
-20.1543
-16.8991
-11.9442
-5.56469
1.84955
9.83539
17.8996
25.5578
32.3662
37.945
41.9937
44.2995
44.7425
43.2966
40.0305
35.1058
28.7736
21.3672
13.2896
4.99513
-3.03428
-10.3191
-16.4144
-20.9437
-23.6291
-24.3176
-22.9969
-19.8024
-15.0101
-9.01829
-2.31603
4.55661
11.0549
16.6773
21.0093
23.7601
24.7867
24.1029
21.8735
18.3922
14.0478
9.28135
4.53998
0.231828
-3.3125
-5.86824
-7.33189
-7.72281
-7.17137
-5.89591
-4.17163
-2.29543
-0.550873
0.822509
1.65251
1.84768
1.40001
0.377199
-1.09403
-2.85111
-4.72232
-6.55391
-8.23475
-9.7158
-11.0223
-12.257
-13.5944
-15.265
-17.5326
-20.6648
-24.9011
-30.4207
-37.3127
-45.5524
-54.985
-65.3202
-76.1397
-86.9172
-97.0535
-105.922
-112.925
-117.549
-119.421
-118.356
-114.377
-107.73
-98.8625
-88.3887
-77.0284
-65.5385
-54.6363
-44.9256
-36.8323
-30.5549
-26.0362
-22.9565
-20.753
-18.6624
-15.789
-11.1943
-4.00457
6.46841
20.6041
38.3584
59.1742
81.932
104.961
126.119
142.952
152.92
153.681
143.395
121.012
86.5057
41.0049
-13.201
-72.7967
-133.711
-191.498
-241.781
-280.718
-305.411
-314.23
-306.988
-284.955
-250.711
-207.846
-160.553
-113.158
-69.6567
-33.3026
-6.30015
10.3611
16.9192
14.7043
5.87889
-6.90608
-20.89
-33.5647
-42.9741
-47.9132
-48.0099
-43.6835
-35.9978
-26.4368
-16.6401
-8.14095
-2.14175
0.642046
0.0547349
-3.51413
-9.2217
-15.9217
-22.3463
-27.2914
-29.7804
-29.1844
-25.2875
-18.2909
-8.7617
2.46326
14.4031
26.0684
36.5885
45.314
51.8835
56.2464
58.643
59.5455
59.5708
59.3778
59.5639
60.575
62.6413
65.7467
69.6363
73.8599
77.8442
80.9849
82.7428
82.7305
80.7762
76.954
71.5773
65.154
58.3132
51.7131
45.9453
41.4508
38.4596
36.9635
36.7239
37.3144
38.189
38.7656
38.5124
37.0244
34.0793
29.6657
23.9811
17.4004
10.4209
3.59145
-2.56441
-7.62001
-11.3029
-13.5296
-14.4127
-14.2401
-13.4276
-12.4531
-11.7819
-11.7928
-12.7184
-14.6068
-17.312
-20.5137
-23.7643
-26.5557
-28.3966
-28.8885
-27.7896
-25.0582
-20.8676
-15.5929
-9.77109
-4.03857
0.942578
4.56224
6.33333
5.94833
3.3153
-1.42989
-7.93606
-15.6719
-23.9796
-32.1416
-39.4527
-45.2901
-49.1742
-50.815
-50.1369
-47.283
-42.5959
-36.5803
-29.8489
-23.0607
-16.8564
-11.7977
-8.31815
-6.68741
-6.99344
-9.14204
-12.8731
-17.7907
-23.4038
-29.1722
-34.556
-39.0606
-42.2771
-43.9123
-43.8078
-41.9464
-38.445
-33.5369
-27.5442
-20.8438
-13.8313
-6.88533
-0.33718
5.55271
10.609
14.7462
17.9638
20.335
21.9886
23.0895
23.8177
24.3504
24.8462
25.435
26.2121
27.2376
28.5389
30.1168
31.9537
34.0213
36.2885
38.7263
41.3101
44.0176
46.8226
49.6846
52.5361
55.2697
57.7294
59.7094
60.9644
61.2326
60.2708
57.8961
54.0279
48.7206
42.1791
34.7507
26.8913
19.1072
11.8819
5.59765
0.466911
-3.51366
-6.57488
-9.14717
-11.7939
-15.1143
-19.6307
-25.6791
-33.3225
-42.3053
-52.0588
-61.7624
-70.4524
-77.1642
-81.0851
-81.6915
-78.8454
-72.83
-64.3119
-54.2332
-43.6453
-33.5134
-24.5249
-16.9419
-10.529
-4.58154
1.94099
10.19
21.1439
35.3125
52.4866
71.585
90.6409
106.949
117.366
118.732
108.354
84.4796
46.6778
-3.92634
-64.6244
-131.31
-198.864
-261.691
-314.344
-352.14
-371.704
-371.358
-351.309
-313.616
-261.947
-201.153
-136.718
-74.164
-18.4733
26.403
57.8899
74.9617
78.1293
69.2575
51.2434
27.6049
2.03286
-22.0357
-41.7775
-55.2369
-61.4549
-60.4678
-53.1892
-41.1995
-26.4768
-11.1086
2.98014
14.2503
21.7015
24.9422
24.1765
20.1186
13.8507
6.64996
-0.193052
-5.53896
-8.52923
-8.6673
-5.84577
-0.321471
7.35311
16.429
26.0742
35.4865
43.9891
51.1009
56.5736
60.3945
62.7591
64.0192
64.6168
65.012
65.6165
66.7386
68.5447
71.0422
74.081
77.3748
80.5363
83.1243
84.6958
84.8586
83.3186
79.917
74.6529
67.6894
59.3415
50.0478
40.3282
30.7335
21.7915
13.9569
7.56891
2.82437
-0.234661
-1.71494
-1.85074
-0.969747
0.548935
2.31942
3.99089
5.28193
6.00391
6.07146
5.4999
4.3911
2.91051
1.25887
-0.35728
-1.75275
-2.78531
-3.36968
-3.48296
-3.16183
-2.49257
-1.59619
-0.610996
0.324789
1.08806
1.58176
1.74066
1.53186
0.950465
0.0117355
-1.2588
-2.83556
-4.70176
-6.85572
-9.31336
-12.1066
-15.2772
-18.868
-22.9107
-27.4138
-32.3526
-37.6605
-43.2262
-48.8952
-54.4757
-59.75
-64.4885
-68.4664
-71.4816
-73.3728
-74.0357
-73.4377
-71.6269
-68.7374
-64.9863
-60.6632
-56.1106
-51.6972
-47.784
-44.6875
-42.6444
-41.7818
-42.0977
-43.456
-45.5959
-48.1572
-50.7168
-52.8345
-54.0999
-54.1763
-52.8356
-49.9807
-45.6509
-40.0136
-33.3395
-25.968
-18.2663
-10.5869
-3.23
3.58595
9.74039
15.2137
20.0765
24.4669
28.5613
32.5405
36.5579
40.7139
45.0386
49.4858
53.9375
58.2187
62.1188
65.4164
67.9053
69.4169
69.8382
69.1223
67.2921
64.4373
60.7048
56.2851
51.3953
46.2611
41.0989
36.1009
31.4217
27.1703
23.4055
20.1372
17.3302
14.9128
12.7877
10.8433
8.96596
7.05009
5.0064
2.76682
0.28605
-2.46018
-5.47982
-8.77117
-12.3304
-16.158
-20.263
-24.662
-29.373
-34.4011
-39.7188
-45.239
-50.7857
-56.0651
-60.6444
-63.943
-65.2462
-63.7447
-58.6053
-49.0709
-34.5847
-14.9274
9.65045
38.3208
69.62
101.461
131.229
155.975
172.677
178.571
171.497
150.215
114.653
66.0439
6.91433
-59.0692
-127.399
-193.133
-251.372
-297.741
-328.833
-342.55
-338.309
-317.08
-281.27
-234.443
-180.933
-125.388
-72.3005
-25.572
11.8262
38.078
52.6049
56.0098
49.8974
36.6012
18.8572
-0.534838
-19.0208
-34.5401
-45.6879
-51.7839
-52.8466
-49.4902
-42.7621
-33.9507
-24.388
-15.2735
-7.53809
-1.75957
1.8654
3.49678
3.58355
2.76684
1.76965
1.28888
1.90302
4.00536
7.76824
13.1392
19.8655
27.5416
35.6695
43.725
51.2196
57.7517
63.0431
66.9568
69.4975
70.7966
71.0849
70.657
69.8319
68.9145
68.1604
67.7484
67.7628
68.1859
68.9038
69.7216
70.3892
70.6326
70.1886
68.8378
66.4329
62.9187
58.3407
52.843
46.654
40.0633
33.391
26.9551
21.0399
15.8694
11.5882
8.25244
5.82996
4.20958
3.21696
2.63513
2.22764
1.76206
1.0325
-0.120403
-1.79307
-4.00757
-6.70638
-9.75469
-12.9513
-16.0483
-18.7793
-20.8936
-22.193
-22.5666
-22.0175
-20.6775
-18.8047
-16.7632
-14.9861
-13.9243
-13.9879
-15.4873
-18.5807
-23.2377
-29.2221
-36.1002
-43.274
-50.0378
-55.651
-59.4214
-60.7864
-59.3827
-55.0962
-48.0829
-38.76
-27.7665
-15.8991
-4.03045
6.97891
16.3652
23.5322
28.1006
29.9311
29.1213
25.9772
20.9658
14.6563
7.65699
0.55613
-6.12706
-11.9774
-16.7032
-20.1398
-22.2408
-23.0595
-22.7252
-21.418
-19.3457
-16.7252
-13.7684
-10.6744
-7.62492
-4.7833
-2.29439
-0.284188
1.14177
1.90189
1.94385
1.25109
-0.150339
-2.18595
-4.72913
-7.60083
-10.5736
-13.3805
-15.7293
-17.3219
-17.8771
-17.1562
-14.9879
-11.2899
-6.08484
0.493899
8.20587
16.7191
25.6352
34.5229
42.9547
50.5438
56.9772
62.0393
65.6257
67.7443
68.5041
68.0942
66.7559
64.7504
62.3276
59.6989
57.0162
54.3601
51.7375
49.0879
46.2981
43.2228
39.7076
35.6133
30.8362
25.3244
19.0871
12.1958
4.7787
-2.99135
-10.9132
-18.7757
-26.375
-33.5285
-40.0841
-45.9241
-50.9631
-55.143
-58.4249
-60.7815
-62.1907
-62.6319
-62.0847
-60.5291
-57.9463
-54.3169
-49.6173
-43.8119
-36.8447
-28.6331
-19.0694
-8.03488
4.56794
18.7641
34.4382
51.2577
68.5999
85.5011
100.646
112.416
119.001
118.585
109.575
90.8549
62.029
23.5998
-22.9445
-75.1663
-129.845
-183.259
-231.556
-271.155
-299.129
-313.528
-313.571
-299.718
-273.582
-237.735
-195.399
-150.098
-105.296
-64.0766
-28.8875
-1.3781
17.6622
28.2703
31.1951
27.7259
19.4887
8.23766
-4.33419
-16.7481
-27.8437
-36.8305
-43.2889
-47.1287
-48.5179
-47.7952
-45.3816
-41.7024
-37.1301
-31.9526
-26.3663
-20.4927
-14.4093
-8.18699
-1.9245
4.22868
10.0664
15.3391
19.7852
23.1749
25.359
26.3134
26.1709
25.2322
23.9529
22.9047
22.7156
23.9944
27.249
32.8102
40.7693
50.9406
62.8534
75.7773
88.7802
100.813
110.812
117.814
121.061
120.097
114.825
105.543
92.9293
77.9876
61.9577
46.195
32.0347
20.6542
12.9499
9.44177
10.2179
14.9254
22.8094
32.7968
43.6143
53.9277
62.4856
68.2516
70.5073
68.9167
63.5437
54.8217
43.4836
30.4595
16.7602
3.36053
-8.902
-19.4015
-27.7638
-33.8701
-37.8284
-39.9197
-40.529
-40.0732
-38.9363
-37.4197
-35.714
-33.8929
-31.9289
-29.7238
-27.1506
-24.0957
-20.4976
-16.3746
-11.8374
-7.08672
-2.39588
1.91851
5.53288
8.15493
9.55842
9.61019
8.28624
5.6755
1.97152
-2.54617
-7.53804
-12.6345
-17.4664
-21.6924
-25.0209
-27.2261
-28.1563
-27.7365
-25.9662
-22.9143
-18.714
-13.5567
-7.68776
-1.40235
4.96049
11.027
16.4032
20.6963
23.5423
24.6375
23.7717
20.8584
15.9571
9.28476
1.21215
-7.75462
-17.0083
-25.8863
-33.7255
-39.9181
-43.9658
-45.5245
-44.4372
-40.7508
-34.7166
-26.7727
-17.5106
-7.62715
2.13384
11.0465
18.4688
23.9026
27.0439
27.8156
26.3803
23.1305
18.6545
13.6815
9.0096
5.42373
3.6121
4.09046
7.14269
12.7849
20.7569
30.5432
41.4197
52.5225
62.9312
71.7579
78.2328
81.7782
82.0624
79.0295
72.8997
64.1417
53.4197
41.5196
29.2629
17.4178
6.61813
-2.70082
-10.3393
-16.3385
-20.9518
-24.5843
-27.7097
-30.7755
-34.1121
-37.8614
-41.9381
-46.0326
-49.658
-52.2341
-53.1984
-52.1231
-48.8203
-43.413
-36.3585
-28.4135
-20.5434
-13.7835
-9.06977
-7.06536
-8.00794
-11.6065
-17.0099
-22.8612
-27.4418
-28.8951
-25.508
-16.0155
0.114369
22.4581
49.5219
78.7648
106.777
129.606
143.21
143.978
129.255
97.8068
50.1282
-11.4344
-82.798
-158.485
-232.164
-297.318
-347.968
-379.353
-388.484
-374.497
-338.768
-284.773
-217.714
-143.946
-70.293
-3.32548
51.322
89.5037
108.935
109.344
92.4008
61.4296
20.9641
-23.8097
-67.6457
-105.799
-134.493
-151.249
-155.045
-146.309
-126.747
-99.0531
-66.5297
-32.6811
-0.821005
26.2626
46.551
58.9317
63.2229
60.0971
50.9215
37.5453
22.0605
6.56667
-7.03677
-17.2145
-22.9037
-23.5642
-19.1737
-10.1759
2.60844
18.0936
35.0511
52.2307
68.4678
82.7719
94.3876
102.829
107.888
109.613
108.278
104.329
98.3302
90.9042
82.6825
74.2615
66.171
58.8551
52.6634
47.8493
44.5722
42.9005
42.8123
44.1934
46.8348
50.432
54.5902
58.8395
62.6615
65.5286
66.9516
66.5321
64.0115
59.3096
52.546
44.0396
34.2851
23.9071
13.5984
4.04862
-4.12709
-10.4511
-14.6296
-16.5778
-16.4202
-14.4686
-11.1796
-7.0998
-2.80354
1.16702
4.35423
6.42398
7.18838
6.61132
4.79801
1.97113
-1.56229
-5.44912
-9.32895
-12.8695
-15.7957
-17.9095
-19.1007
-19.3476
-18.7088
-17.3094
-15.3212
-12.9422
-10.3764
-7.81534
-5.42498
-3.3362
-1.64093
-0.392515
0.390396
0.717613
0.620224
0.143553
-0.658862
-1.7298
-3.01131
-4.44634
-5.97951
-7.55754
-9.12981
-10.6495
-12.0753
-13.3735
-14.52
-15.5024
-16.3202
-16.9842
-17.5137
-17.9321
-18.2612
-18.515
-18.6934
-18.7773
-18.7248
-18.4706
-17.9269
-16.9877
-15.5355
-13.4508
-10.6245
-6.9717
-2.44673
2.94202
9.11996
15.9385
23.174
30.535
37.6787
44.2376
49.8528
54.2125
57.0897
58.3752
58.0996
56.4405
53.7125
50.3411
46.8202
43.6611
41.3364
40.2269
40.5774
42.4678
45.8009
50.3099
55.5828
61.0994
66.2774
70.5201
73.2638
74.0193
72.4071
68.1841
61.2627
51.72
39.7985
25.8961
10.5462
-5.61281
-21.8766
-37.5219
-51.8559
-64.2665
-74.2664
-81.5283
-85.907
-87.4476
-86.3763
-83.0785
-78.0636
-71.9204
-65.267
-58.6979
-52.7309
-47.755
-43.9847
-41.4208
-39.8259
-38.7187
-37.395
-34.9814
-30.5246
-23.1153
-12.0391
3.05855
22.0175
44.0423
67.6476
90.6914
110.516
124.192
128.853
122.073
102.253
68.9376
23.025
-33.1835
-96.1072
-161.184
-223.308
-277.36
-318.763
-343.986
-350.94
-339.216
-310.121
-266.53
-212.553
-153.078
-93.2418
-37.8856
8.9208
44.251
66.5417
75.6466
72.7286
60.0133
40.444
17.2869
-6.26313
-27.4294
-44.1147
-55.0546
-59.8556
-58.9236
-53.305
-44.4671
-34.0545
-23.6508
-14.5777
-7.75092
-3.60418
-2.08516
-2.71473
-4.69657
-7.05786
-8.80037
-9.04181
-7.13017
-2.71897
4.20305
13.3276
24.082
35.7144
47.3946
58.3173
67.7953
75.3306
80.6573
83.7549
84.8305
84.2772
82.615
80.4219
78.2649
76.6385
75.9153
76.3156
77.8949
80.5515
84.049
88.0526
92.1715
96.0037
99.1776
101.385
102.406
102.117
100.488
97.5698
93.475
88.3503
82.3553
75.6449
68.3602
60.6278
52.5684
44.3099
36.0014
27.8237
19.9913
12.7433
6.3225
0.945414
-3.23245
-6.14885
-7.8578
-8.53708
-8.47714
-8.05105
-7.6691
-7.7244
-8.53781
-10.3108
-13.0939
-16.7757
-21.0949
-25.673
-30.0639
-33.8129
-36.5178
-37.883
-37.7612
-36.1757
-33.3225
-29.5515
-25.3273
-21.1771
-17.6277
-15.1405
-14.0512
-14.5213
-16.5084
-19.7603
-23.8358
-28.1501
-32.0419
-34.8542
-36.0172
-35.1257
-31.9965
-26.7011
-19.5664
-11.1432
-2.14721
6.62234
14.3734
20.4119
24.2191
25.5086
24.2533
20.683
15.251
8.57697
1.37252
-5.6403
-11.8077
-16.6107
-19.7123
-20.9807
-20.4867
-18.478
-15.3334
-11.5055
-7.45829
-3.60851
-0.277332
2.34175
4.19618
5.36831
6.05223
6.51763
7.06645
7.98845
9.52168
11.8228
14.9504
18.8627
23.4282
28.4484
33.6862
38.8971
43.8589
48.3944
52.3859
55.7801
58.5828
60.8467
62.6532
64.0927
65.2452
66.1654
66.8722
67.3451
67.5259
67.3253
66.6317
65.3234
63.2793
60.3912
56.575
51.7813
46.0059
39.2972
31.7618
23.5658
14.9295
6.117
-2.58078
-10.8684
-18.4709
-25.1589
-30.7701
-35.2251
-38.5336
-40.7906
-42.162
-42.8616
-43.1226
-43.1656
-43.1695
-43.2467
-43.4248
-43.6363
-43.714
-43.3908
-42.3036
-40.0018
-35.9638
-29.6267
-20.4346
-7.90955
8.25502
28.0833
51.2019
76.7389
103.261
128.774
150.802
166.569
173.257
168.341
149.955
117.241
70.6197
11.944
-55.5192
-127.288
-198.044
-262.146
-314.237
-349.836
-365.875
-361.072
-336.103
-293.555
-237.634
-173.709
-107.705
-45.4554
7.91241
48.4975
73.9737
83.7424
78.8763
61.8759
36.2758
6.16231
-24.3372
-51.5257
-72.5177
-85.4887
-89.7763
-85.8312
-75.0398
-59.4503
-41.4465
-23.4134
-7.4372
4.92568
12.7898
15.9824
14.9902
10.8274
4.84987
-1.45742
-6.68816
-9.69314
-9.70871
-6.42381
0.0172966
9.07098
19.8963
31.486
42.8066
52.9294
61.1359
66.9876
70.3528
71.3932
70.514
68.2887
65.3693
62.3965
59.9189
58.3335
57.8502
58.4841
60.0739
62.32
64.8376
67.2149
69.0695
70.0958
70.0975
69.0041
66.8679
63.8467
60.1723
56.1131
51.9331
47.8568
44.0406
40.5585
37.4001
34.4831
31.676
28.8277
25.799
22.4901
18.861
14.9403
10.8231
6.65703
2.62069
-1.10341
-4.35603
-7.02519
-9.06361
-10.4973
-11.4249
-12.007
-12.4477
-12.9701
-13.7878
-15.0763
-16.9474
-19.4303
-22.4606
-25.8819
-29.458
-32.8971
-35.8847
-38.1219
-39.3659
-39.465
-38.3856
-36.2262
-33.2141
-29.6869
-26.0563
-22.7601
-20.2067
-18.7194
-18.4877
-19.534
-21.6997
-24.6553
-27.9332
-30.9815
-33.2308
-34.1672
-33.4013
-30.7246
-26.1442
-19.8932
-12.4124
-4.30691
3.71833
10.9352
16.673
20.3937
21.7514
20.6328
17.1701
11.7293
4.87224
-2.70012
-10.2196
-16.9277
-22.1508
-25.3659
-26.2496
-24.7073
-20.8794
-15.1245
-7.98148
-0.115226
7.74989
14.9018
20.7115
24.6962
26.5686
26.2665
23.9609
20.0385
15.062
9.7107
4.70812
0.744153
-1.59902
-1.90886
0.0150349
4.14272
10.2221
17.8117
26.3345
35.1452
43.6022
51.1365
57.3088
61.8473
64.6636
65.8444
65.6206
64.3187
62.3004
59.8986
57.3588
54.795
52.1663
49.2798
45.82
41.4003
35.6315
28.1951
18.9123
7.79548
-4.92272
-18.7912
-33.1704
-47.2892
-60.3188
-71.4565
-80.0069
-85.4522
-87.5037
-86.1293
-81.557
-74.2531
-64.8803
-54.2365
-43.18
-32.543
-23.04
-15.1745
-9.15688
-4.84343
-1.71306
1.10304
4.72733
10.3745
19.1321
31.7084
48.1864
67.8337
89.0154
109.249
125.419
134.135
132.202
117.122
87.5664
43.7245
-12.5365
-77.7303
-147.044
-214.829
-275.232
-322.874
-353.496
-364.471
-355.123
-326.802
-282.713
-227.526
-166.816
-106.411
-51.7381
-7.24344
24.0466
40.7685
43.2562
33.3722
14.1696
-10.5638
-36.8135
-60.8347
-79.5737
-90.9717
-94.1192
-89.2557
-77.6266
-61.2265
-42.4712
-23.845
-7.56985
4.66406
11.8773
13.8751
11.2155
5.08357
-2.90382
-10.9346
-17.2461
-20.3472
-19.1933
-13.2965
-2.76187
11.7471
29.1076
47.8828
66.4968
83.4155
97.316
107.224
112.609
113.423
110.09
103.438
94.5906
84.8332
75.4574
67.6168
62.1994
59.7369
60.3562
63.7807
69.3779
76.2471
83.3346
89.5625
93.9549
95.7461
94.4604
89.9534
82.4144
72.3302
60.4174
47.5335
34.5777
22.3937
11.6848
2.94995
-3.55353
-7.81964
-10.076
-10.7432
-10.3779
-9.60552
-9.05132
-9.27613
-10.7223
-13.6745
-18.2371
-24.3295
-31.6993
-39.9499
-48.5813
-57.0385
-64.7644
-71.2515
-76.0872
-78.9895
-79.8295
-78.6384
-75.5986
-71.0207
-65.3084
-58.9152
-52.2967
-45.8648
-39.9449
-34.7432
-30.3225
-26.5902
-23.2957
-20.0374
-16.2789
-11.3747
-4.61021
4.73834
17.3189
33.5896
53.6808
77.2472
103.336
130.304
155.821
176.983
190.55
193.303
182.469
156.172
113.84
56.4816
-13.1986
-90.9163
-171.134
-247.586
-313.931
-364.463
-394.77
-402.272
-386.532
-349.339
-294.505
-227.442
-154.546
-82.4895
-17.4941
35.3115
72.3851
92.059
94.5978
82.0344
57.8142
26.3026
-7.77767
-39.9095
-66.2775
-84.145
-92.0746
-89.9784
-79.004
-61.2815
-39.5724
-16.8702
3.99449
20.697
31.6701
36.2408
34.6432
27.9164
17.7085
6.01894
-5.08295
-13.727
-18.4652
-18.4241
-13.3745
-3.71454
9.62249
25.3198
41.8629
57.7343
71.592
82.4116
89.5769
92.9144
92.6699
89.4388
84.0605
77.4946
70.6954
64.5005
59.545
56.21
54.6071
54.597
55.8373
57.8486
60.0897
62.032
63.2221
63.3285
62.1665
59.7026
56.0386
51.3825
46.0105
40.227
34.3278
28.5714
23.1595
18.2282
13.8483
10.0325
6.74679
3.92509
1.48236
-0.672921
-2.62902
-4.46395
-6.24112
-8.00717
-9.7914
-11.6062
-13.448
-15.2981
-17.1239
-18.8803
-20.5117
-21.955
-23.145
-24.0211
-24.5365
-24.6679
-24.4247
-23.855
-23.0472
-22.1242
-21.2303
-20.5127
-20.0976
-20.0661
-20.4336
-21.1367
-22.0304
-22.8982
-23.4741
-23.476
-22.644
-20.7808
-17.787
-13.6854
-8.63081
-2.90277
3.11919
8.99404
14.2673
18.5219
21.4256
22.7679
22.4826
20.6524
17.4963
13.3402
8.57691
3.61915
-1.14755
-5.40559
-8.93486
-11.6272
-13.4839
-14.5963
-15.1135
-15.2003
-14.9936
-14.5631
-13.885
-12.8339
-11.1963
-8.70691
-5.10284
-0.188776
6.0972
13.6286
22.0578
30.8131
39.1325
46.1303
50.8938
52.5971
50.6169
44.6361
34.718
21.3384
5.37138
-11.9757
-29.2684
-44.9839
-57.6646
-66.0716
-69.3195
-66.9793
-59.137
-46.4029
-29.8668
-11.0058
8.45067
26.6827
41.9569
52.799
58.1459
57.4617
50.8038
38.8303
22.7447
4.18141
-14.9583
-32.703
-47.2195
-57.0086
-61.0649
-58.9824
-50.992
-37.9279
-21.1262
-2.26976
16.8019
34.2956
48.6559
58.7237
63.8449
63.9194
59.3865
51.1518
40.4662
28.7723
17.5379
8.09499
1.50133
-1.56044
-0.838032
3.48455
10.8279
20.2975
30.791
41.1204
50.1326
56.8189
60.3996
60.3817
56.584
49.1333
38.4348
25.1239
10.0056
-6.01241
-21.9865
-37.0016
-50.2301
-60.9824
-68.7493
-73.232
-74.3599
-72.2926
-67.4062
-60.2627
-51.5652
-42.1001
-32.672
-24.0353
-16.8277
-11.5116
-8.32693
-7.25936
-8.02751
-10.0907
-12.6805
-14.857
-15.592
-13.878
-8.85781
0.0329096
12.9268
29.4093
48.4502
68.4051
87.1021
102.021
110.551
110.309
99.4644
77.0449
43.1524
-0.932777
-52.7907
-109.043
-165.661
-218.358
-263.026
-296.155
-315.199
-318.825
-307.049
-281.219
-243.858
-198.393
-148.788
-99.1297
-53.2113
-14.1642
15.8233
35.6672
45.4137
46.1317
39.6925
28.4693
15.0014
1.66741
-9.58969
-17.4547
-21.3308
-21.3255
-18.1437
-12.9112
-6.95786
-1.5952
2.08211
3.34585
1.91935
-2.00731
-7.82771
-14.6228
-21.2996
-26.7443
-29.9683
-30.2306
-27.121
-20.5983
-10.982
1.09871
14.7883
29.1071
43.0595
55.7342
66.385
74.4863
79.7596
82.1715
81.9084
79.3332
74.932
69.2579
62.8782
56.3296
50.0844
44.5284
39.9497
36.5364
34.3813
33.4903
33.7932
35.1547
37.3853
40.2525
43.4908
46.8136
49.926
52.5386
54.3838
55.2328
54.9127
53.3229
50.4481
46.3655
41.2453
35.3405
28.9685
22.4828
16.2397
10.5618
5.70582
1.83576
-0.991109
-2.82571
-3.81458
-4.17517
-4.16294
-4.03524
-4.01769
-4.27854
-4.91447
-5.94964
-7.347
-9.02899
-10.9029
-12.8859
-14.9258
-17.0125
-19.181
-21.5046
-24.0809
-27.0142
-30.3961
-34.2883
-38.7085
-43.6192
-48.92
-54.4421
-59.9466
-65.1273
-69.6204
-73.0244
-74.9312
-74.9692
-72.8551
-68.4484
-61.8012
-53.1902
-43.1222
-32.3058
-21.5861
-11.8498
-3.91291
1.59119
4.30129
4.17893
1.50766
-3.16071
-9.10442
-15.5562
-21.8291
-27.4179
-32.0541
-35.7019
-38.4962
-40.6368
-42.2634
-43.3436
-43.605
-42.5352
-39.4584
-33.6821
-24.6871
-12.3221
3.04323
20.4474
38.3752
54.9104
67.9863
75.6965
76.6139
70.0646
56.3066
36.577
12.994
-11.6808
-34.3885
-52.1794
-62.6199
-64.1376
-56.2516
-39.6496
-16.1001
11.7885
40.9239
68.1482
90.6556
106.347
114.075
113.744
106.264
93.3625
77.2981
60.5157
45.2982
33.4636
26.149
23.7034
25.6996
31.0532
38.2249
45.4716
51.1068
53.7344
52.4251
46.816
37.125
24.086
8.81838
-7.34478
-23.0447
-37.0725
-48.5102
-56.8201
-61.8741
-63.9251
-63.5283
-61.429
-58.4353
-55.2946
-52.5918
-50.68
-49.6513
-49.3468
-49.3987
-49.2958
-48.4582
-46.3091
-42.3374
-36.1438
-27.4746
-16.2467
-2.57088
13.2218
30.5494
48.5515
66.0742
81.6871
93.7436
100.496
100.265
91.642
73.7106
46.2377
9.81006
-34.1168
-83.2731
-134.731
-185.145
-231.056
-269.211
-296.874
-312.088
-313.862
-302.266
-278.424
-244.403
-203.019
-157.567
-111.512
-68.1731
-30.4257
-0.458058
20.3925
31.7126
33.9872
28.4835
17.0612
1.93307
-14.5946
-30.3709
-43.6127
-53.0571
-58.0427
-58.5146
-54.9588
-48.2789
-39.636
-30.2718
-21.3404
-13.7656
-8.14195
-4.68604
-3.24133
-3.33071
-4.24713
-5.16765
-5.27509
-3.87147
-0.469468
5.14795
12.9052
22.4497
33.2017
44.4305
55.3466
65.1985
73.3623
79.4114
83.161
84.6795
84.2678
82.4088
79.6954
76.7463
74.1223
72.253
71.3858
71.5609
72.6168
74.223
75.9364
77.2697
77.7657
77.0644
74.9558
71.4109
66.5887
60.8176
54.5553
48.3309
42.6785
38.0673
34.84
33.1634
32.9999
34.1033
36.0378
38.2218
39.9899
40.667
39.6475
36.4694
30.8754
22.8525
12.6464
0.745868
-12.1584
-25.2393
-37.6131
-48.4264
-56.9388
-62.5944
-65.0712
-64.3067
-60.4963
-54.0651
-45.6194
-35.8833
-25.6291
-15.6096
-6.50001
1.14696
6.92858
10.6037
12.0899
11.4496
8.87024
4.64001
-0.87524
-7.25473
-14.0437
-20.7742
-26.986
-32.2509
-36.1977
-38.5406
-39.1047
-37.8475
-34.8712
-30.4212
-24.8677
-18.672
-12.3379
-6.35522
-1.14282
3.00002
5.92542
7.64584
8.31743
8.19959
7.59725
6.79606
6.00246
5.30028
4.63282
3.8148
2.57285
0.608076
-2.33059
-6.37585
-11.4881
-17.4294
-23.7718
-29.9402
-35.2854
-39.1731
-41.0779
-40.6642
-37.8413
-32.7853
-25.9207
-17.8689
-9.36751
-1.17624
6.01901
11.6889
15.5196
17.4407
17.6195
16.4248
14.3664
12.0198
9.94875
8.63379
8.4181
9.47521
11.8016
15.2328
19.4791
24.1741
28.9283
33.3805
37.2395
40.3118
42.512
43.856
44.4397
44.4048
43.9002
43.0419
41.879
40.3704
38.377
35.6714
31.9651
26.9516
20.3598
12.0106
1.86958
-9.91447
-22.9912
-36.8157
-50.6829
-63.7858
-75.2928
-84.433
-90.5817
-93.3312
-92.5411
-88.3586
-81.2064
-71.7397
-60.7754
-49.201
-37.8734
-27.5173
-18.6353
-11.4404
-5.82203
-1.35385
2.65193
7.04328
12.6878
20.3076
30.3111
42.6488
56.7202
71.3553
84.8829
95.2876
100.439
98.3655
87.535
67.101
37.0776
-1.58253
-47.0218
-96.6174
-147.211
-195.398
-237.841
-271.569
-294.238
-304.323
-301.237
-285.36
-258.001
-221.286
-177.983
-131.281
-84.531
-40.9703
-3.45467
25.7825
45.3118
54.6124
54.083
44.9588
29.1421
8.96904
-13.0573
-34.5355
-53.4019
-68.1086
-77.7269
-81.9698
-81.1385
-76.008
-67.6706
-57.3615
-46.2893
-35.4906
-25.7251
-17.4196
-10.662
-5.24329
-0.734479
3.41225
7.75621
12.7689
18.7561
25.8111
33.8033
42.4017
51.129
59.4358
66.7834
72.7233
76.9597
79.3873
80.0994
79.3667
77.5903
75.2401
72.7858
70.6343
69.081
68.2813
68.2459
68.8584
69.9093
71.1408
72.2938
73.1485
73.5527
73.4351
72.8006
71.7131
70.2682
68.5619
66.6629
64.5918
62.3127
59.7364
56.7365
53.1739
48.9273
43.9217
38.1533
31.7034
24.7413
17.5123
10.3147
3.46724
-2.728
-8.0222
-12.2501
-15.3504
-17.373
-18.4727
-18.8896
-18.9197
-18.8786
-19.064
-19.7198
-21.0073
-22.9856
-25.6032
-28.7005
-32.0234
-35.2448
-37.9943
-39.8922
-40.5878
-39.8007
-37.3608
-33.2452
-27.6055
-20.7805
-13.2876
-5.79109
0.955638
6.18875
9.22757
9.57106
6.98351
1.55464
-6.2784
-15.7554
-25.8649
-35.4573
-43.3852
-48.6514
-50.5441
-48.7381
-43.3464
-34.9145
-24.3573
-12.8473
-1.67028
7.93223
14.9111
18.5296
18.4404
14.7124
7.80645
-1.49098
-12.1654
-23.088
-33.1313
-41.2754
-46.6964
-48.8328
-47.4267
-42.5405
-34.5508
-24.1183
-12.137
0.3365
12.1713
22.2639
29.6468
33.5934
33.7079
29.9874
22.8438
13.0785
1.80859
-9.6505
-19.9325
-27.7809
-32.2011
-32.5838
-28.7831
-21.1366
-10.425
2.22353
15.4741
27.9508
38.406
45.8723
49.7764
50.0002
46.8833
41.1663
33.8835
26.2198
19.3513
14.2891
11.747
12.0489
15.0858
20.3292
26.896
33.658
39.382
42.8822
43.1674
39.5656
31.8096
20.076
4.97149
-12.5317
-31.2028
-49.6901
-66.6713
-80.9992
-91.8235
-98.6737
-101.492
-100.609
-96.6737
-90.5343
-83.0996
-75.1934
-67.4271
-60.1071
-53.1924
-46.308
-38.8146
-29.9241
-18.8486
-4.9639
12.0326
31.9897
54.2137
77.4392
99.8694
119.292
133.263
139.357
135.445
119.988
92.2954
52.7265
2.78123
-54.9267
-116.836
-178.729
-236.131
-284.755
-320.959
-342.139
-347.011
-335.744
-309.921
-272.345
-226.701
-177.143
-127.839
-82.5479
-44.2688
-15.0034
4.35276
13.9883
15.0378
9.35494
-0.768249
-12.9006
-24.7549
-34.4269
-40.5682
-42.482
-40.1362
-34.1002
-25.4172
-15.4291
-5.57957
2.78266
8.57597
11.1138
10.1754
6.01347
-0.697794
-8.96537
-17.6125
-25.4274
-31.3032
-34.3531
-33.9866
-29.9422
-22.2794
-11.3381
2.32196
17.9894
34.8659
52.1213
68.9356
84.5308
98.1961
109.313
117.381
122.053
123.169
120.789
115.22
107.015
96.9543
85.9923
75.1747
65.5335
57.9717
53.1518
51.4069
52.6877
56.5568
62.2332
68.6847
74.7559
79.3157
81.4045
80.3597
75.903
68.176
57.7203
45.4045
32.3091
19.5859
8.31164
-0.64259
-6.71022
-9.68299
-9.71533
-7.28204
-3.09858
1.98177
7.07789
11.3823
14.2417
15.2089
14.0628
10.8008
5.60789
-1.18718
-9.16052
-17.8387
-26.7364
-35.3847
-43.3502
-50.2476
-55.7492
-59.5944
-61.5997
-61.6702
-59.8121
-56.1416
-50.89
-44.3991
-37.108
-29.5273
-22.2038
-15.6766
-10.4289
-6.84104
-5.14976
-5.41996
-7.53241
-11.1907
-15.9472
-21.2467
-26.482
-31.0564
-34.4449
-36.2486
-36.233
-34.349
-30.7325
-25.6833
-19.627
-13.0646
-6.51783
-0.475087
4.65323
8.56709
11.0936
12.1881
11.9216
10.4586
8.02784
4.89347
1.32757
-2.41099
-6.0905
-9.51261
-12.5118
-14.9497
-16.7078
-17.6794
-17.7661
-16.8774
-14.9378
-11.8974
-7.74797
-2.53973
3.60336
10.4737
17.7794
25.1559
32.1912
38.4635
43.588
47.2662
49.3312
49.7791
48.7835
46.6856
43.9615
41.1704
38.8873
37.6326
37.8052
39.6292
43.1223
48.088
54.1334
60.7098
67.1693
72.8303
77.0445
79.2576
79.0591
76.2181
70.7023
62.6825
52.5203
40.7416
27.9973
15.0113
2.52104
-8.78733
-18.3422
-25.7426
-30.8006
-33.5635
-34.3123
-33.5345
-31.8724
-30.0515
-28.7964
-28.7426
-30.3552
-33.863
-39.2171
-46.0768
-53.8267
-61.6203
-68.4474
-73.2163
-74.8431
-72.3437
-64.9214
-52.0497
-33.5501
-9.66445
18.881
50.8274
84.3647
117.16
146.456
169.241
182.506
183.564
170.403
142.016
98.6758
42.0755
-24.6809
-97.2687
-170.499
-238.807
-296.815
-339.901
-364.701
-369.472
-354.28
-320.986
-273.024
-215.018
-152.269
-90.1899
-33.7558
12.9781
47.2227
67.6432
74.3731
68.8658
53.6129
31.7723
6.75732
-18.1611
-40.1943
-57.283
-68.2315
-72.7249
-71.241
-64.8789
-55.1352
-43.6616
-32.0371
-21.5789
-13.2122
-7.40656
-4.17779
-3.14643
-3.63831
-4.80903
-5.77419
-5.72866
-4.04193
-0.320824
5.56371
13.4848
23.0979
33.9003
45.3035
56.7078
67.5697
77.4553
86.0732
93.2853
99.0951
103.616
107.026
109.517
111.243
112.287
112.634
112.177
110.74
108.123
104.157
98.7652
92.0187
84.1707
75.667
67.1235
59.2708
52.8719
48.6206
47.036
48.3692
52.5369
59.096
67.2658
75.999
84.0945
90.3385
93.654
93.2397
88.6774
79.9932
67.6629
52.5619
35.8645
18.9083
3.04058
-10.533
-20.8787
-27.4279
-30.0244
-28.9214
-24.732
-18.342
-10.7975
-3.18273
3.49722
8.41479
10.9909
10.9323
8.23561
3.16093
-3.8179
-12.078
-20.9187
-29.6304
-37.5564
-44.141
-48.9633
-51.7559
-52.4094
-50.9647
-47.5973
-42.5944
-36.3289
-29.2317
-21.7626
-14.3835
-7.53231
-1.59904
3.09435
6.31072
7.90993
7.85591
6.21808
3.16673
-1.03775
-6.06164
-11.52
-17.0029
-22.104
-26.4497
-29.7264
-31.7027
-32.2461
-31.3319
-29.0426
-25.5592
-21.1453
-16.1243
-10.8527
-5.6924
-0.983218
2.98082
5.97059
7.83476
8.50616
8.0021
6.4198
3.92808
0.756678
-2.81611
-6.47718
-9.894
-12.7318
-14.6729
-15.4371
-14.8031
-12.6274
-8.86041
-3.55582
3.12721
10.9311
19.5155
28.4815
37.4012
45.8509
53.4441
59.8611
64.8717
68.3485
70.2691
70.7069
69.8124
67.7874
64.8571
61.2426
57.1397
52.7049
48.0511
43.2509
38.3477
33.3686
28.3397
23.2973
18.2951
13.4054
8.71513
4.31669
0.296592
-3.27665
-6.3631
-8.95889
-11.0996
-12.8589
-14.344
-15.6861
-17.0301
-18.5216
-20.2939
-22.455
-25.0751
-28.1752
-31.7166
-35.5912
-39.6131
-43.5112
-46.9229
-49.3926
-50.3772
-49.2638
-45.4068
-38.1869
-27.0966
-11.8495
7.49777
30.4256
55.8599
82.1347
107.034
127.929
142.013
146.607
139.516
119.368
85.9019
40.1302
-15.6299
-77.895
-142.304
-204.03
-258.264
-300.714
-328.064
-338.314
-330.991
-307.172
-269.346
-221.122
-166.823
-111.036
-58.1468
-11.9445
24.6898
49.9682
63.2546
65.0014
56.5893
40.0952
18.0249
-6.95999
-32.2928
-55.7097
-75.4012
-90.102
-99.1209
-102.316
-100.025
-92.9691
-82.1297
-68.6307
-53.6205
-38.1738
-23.2149
-9.46825
2.56399
12.5992
20.5515
26.494
30.6134
33.1644
34.4288
34.686
34.1958
33.1955
31.909
30.5617
29.3975
28.6891
28.7384
29.8614
32.3602
36.4821
42.3746
50.0425
59.3152
69.8336
81.0598
92.3124
102.824
111.818
118.588
122.578
123.448
121.111
115.754
107.809
97.9149
86.8405
75.4055
64.3919
54.4648
46.1092
39.591
34.9444
31.9874
30.3629
29.5968
29.1681
28.5795
27.4205
25.4153
22.45
18.5763
13.9945
9.01599
4.01479
-0.627528
-4.57417
-7.57661
-9.50395
-10.3551
-10.2533
-9.42545
-8.16953
-6.81533
-5.68438
-5.05383
-5.12863
-6.02468
-7.76405
-10.2815
-13.4402
-17.0526
-20.904
-24.7733
-28.4501
-31.7446
-34.4922
-36.5526
-37.8069
-38.1544
-37.5131
-35.8245
-33.0634
-29.2513
-24.4708
-18.8769
-12.7024
-6.25391
0.103237
5.96965
10.9453
14.6672
16.8465
17.3013
15.9789
12.9655
8.48175
2.86344
-3.47036
-10.0574
-16.436
-22.1877
-26.9723
-30.5529
-32.8082
-33.7312
-33.4168
-32.0397
-29.8268
-27.0284
-23.8904
-20.6313
-17.426
-14.3975
-11.6159
-9.10383
-6.84799
-4.81215
-2.95146
-1.22483
0.395957
1.92152
3.34476
4.64494
5.79479
6.76916
7.55377
8.15219
8.59025
8.91699
9.20219
9.53102
9.99657
10.6916
11.7003
13.092
14.9163
17.2011
19.9531
23.1599
26.7929
30.8098
35.1553
39.7599
44.5358
49.3705
54.1204
58.6034
62.5953
65.8291
68.0005
68.7811
67.84
64.8724
59.6356
51.9858
41.9138
29.5725
15.2905
-0.430696
-16.9403
-33.4804
-49.2448
-63.4465
-75.3889
-84.5296
-90.5301
-93.2862
-92.9327
-89.8252
-84.4989
-77.6114
-69.8745
-61.9841
-54.5553
-48.0664
-42.8191
-38.9145
-36.2462
-34.5094
-33.2242
-31.7734
-29.4518
-25.5307
-19.3356
-10.3387
1.73778
16.8142
34.3558
53.3031
72.0521
88.507
100.218
104.611
99.2888
82.3802
52.8817
10.9389
-41.9881
-103.116
-168.511
-233.428
-292.788
-341.728
-376.151
-393.204
-391.61
-371.815
-335.93
-287.474
-230.963
-171.394
-113.695
-62.2161
-20.3051
9.96559
27.9141
34.1948
30.5957
19.7217
4.60987
-11.671
-26.3897
-37.4464
-43.563
-44.3538
-40.2771
-32.4822
-22.5799
-12.3693
-3.56164
2.46389
4.84225
3.32169
-1.72718
-9.38819
-18.3466
-27.0823
-34.0809
-38.0333
-37.9991
-33.514
-24.6308
-11.8946
3.74373
21.057
38.6979
55.3596
69.92
81.5548
89.806
94.6029
96.2356
95.289
92.5483
88.8896
85.1705
82.1327
80.3281
80.0737
81.4386
84.2609
88.1897
92.7444
97.3829
101.57
104.839
106.834
107.344
106.31
103.817
100.074
95.371
90.0472
84.4411
78.853
73.5121
68.5548
64.0166
59.8375
55.8801
51.9589
47.8745
43.4503
38.5645
33.1735
27.3232
21.1459
14.8441
8.6636
2.85936
-2.33853
-6.75489
-10.2898
-12.9268
-14.7275
-15.8148
-16.3482
-16.4951
-16.405
-16.1894
-15.9116
-15.588
-15.1987
-14.7061
-14.0763
-13.2993
-12.4032
-11.4597
-10.5788
-9.8933
-9.53685
-9.61729
-10.1921
-11.2497
-12.7011
-14.3838
-16.0785
-17.5375
-18.5188
-18.8237
-18.3287
-17.0088
-14.945
-12.3174
-9.38113
-6.43117
-3.76027
-1.61694
-0.170486
0.511773
0.471479
-0.150279
-1.13716
-2.23239
-3.17866
-3.75705
-3.81928
-3.30886
-2.26863
-0.833906
0.787078
2.34254
3.57193
4.24155
4.17616
3.28296
1.56476
-0.878652
-3.86109
-7.13066
-10.3979
-13.3672
-15.7687
-17.3852
-18.072
-17.7677
-16.4944
-14.3477
-11.4793
-8.07368
-4.32275
-0.402579
3.54558
7.42693
11.1965
14.8544
18.434
21.986
25.5609
29.1923
32.8854
36.6103
40.3025
43.87
47.2042
50.1945
52.7427
54.7747
56.2486
57.1559
57.518
57.3766
56.7813
55.7752
54.3823
52.5987
50.3891
47.6902
44.4201
40.4936
35.8401
30.4223
24.2516
17.3979
9.9927
2.22305
-5.68122
-13.4665
-20.8776
-27.68
-33.6796
-38.7371
-42.7761
-45.7831
-47.8027
-48.9263
-49.2791
-49.0066
-48.2615
-47.1932
-45.9377
-44.6072
-43.2762
-41.964
-40.612
-39.0607
-37.0308
-34.1172
-29.8038
-23.5084
-14.6587
-2.80079
12.2723
30.3871
50.8763
72.5122
93.5118
111.632
124.356
129.165
123.854
106.87
77.6039
36.605
-14.3316
-72.2249
-133.122
-192.45
-245.469
-287.771
-315.765
-327.083
-320.859
-297.831
-260.267
-211.718
-156.624
-99.837
-46.1069
0.40006
36.4952
60.2338
71.0286
69.606
57.8216
38.3644
14.3941
-10.8425
-34.369
-53.773
-67.4056
-74.4743
-75.0275
-69.8448
-60.2543
-47.9074
-34.5413
-21.7599
-10.8557
-2.6911
2.35577
4.37883
3.87635
1.64108
-1.37382
-4.19431
-5.95313
-5.9913
-3.92406
0.333437
6.57988
14.3755
23.1153
32.1158
40.7052
48.3039
54.4888
59.033
61.9203
63.3334
63.6199
63.2416
62.7131
62.5378
63.1466
64.8474
67.7873
71.9329
77.0694
82.8189
88.6767
94.0636
98.3888
101.12
101.852
100.362
96.6523
90.96
83.7401
75.615
67.2971
59.4935
52.8069
47.6447
44.1537
42.1905
41.3344
40.944
40.2511
38.4798
34.9724
29.3051
21.3729
11.4311
0.0854795
-11.7699
-23.0582
-32.6556
-39.5376
-42.9169
-42.3526
-37.8169
-29.7101
-18.822
-6.24634
6.7409
18.8231
28.7864
35.6482
38.756
37.8468
33.062
24.9185
14.241
2.06532
-10.476
-22.2713
-32.3388
-39.9157
-44.5187
-45.9716
-44.3995
-40.1927
-33.9457
-26.3814
-18.2689
-10.3441
-3.24283
2.54852
6.72087
9.14823
9.87363
9.07972
7.05001
4.12693
0.672725
-2.96306
-6.46719
-9.57771
-12.092
-13.8705
-14.8391
-14.9909
-14.3888
-13.1666
-11.5258
-9.72682
-8.07065
-6.87139
-6.42128
-6.9518
-8.59688
-11.3642
-15.1203
-19.5938
-24.3972
-29.0659
-33.1095
-36.0683
-37.5687
-37.3673
-35.3805
-31.6936
-26.5504
-20.3236
-13.4709
-6.48401
0.164978
6.07151
10.9364
14.5896
16.9982
18.2597
18.5818
18.2529
17.6075
16.991
16.7265
17.0878
18.2794
20.424
23.5577
27.6323
32.523
38.0407
43.9482
49.9769
55.845
61.2725
65.995
69.7741
72.4053
73.7237
73.6088
71.9899
68.85
64.2306
58.2344
51.0264
42.83
33.9192
24.6047
15.216
6.07903
-2.50724
-10.2935
-17.0994
-22.8267
-27.4655
-31.0914
-33.8551
-35.9639
-37.6583
-39.1852
-40.7701
-42.5926
-44.7648
-47.3174
-50.1911
-53.2359
-56.2153
-58.8137
-60.6468
-61.2706
-60.1923
-56.8828
-50.7968
-41.4069
-28.2584
-11.0494
10.2641
35.3496
63.3845
92.9757
122.142
148.384
168.858
180.641
181.076
168.133
140.759
99.1388
44.8269
-19.2793
-89.1403
-159.929
-226.501
-283.914
-327.949
-355.539
-365.08
-356.57
-331.565
-292.97
-244.695
-191.207
-137.063
-86.4556
-42.825
-8.59223
14.9849
27.8151
30.8514
25.8692
15.1775
1.30422
-13.3073
-26.5552
-36.8663
-43.298
-45.5545
-43.9233
-39.1504
-32.2756
-24.4541
-16.7852
-10.1716
-5.22028
-2.19373
-1.01151
-1.29583
-2.45064
-3.76065
-4.49562
-4.00659
-1.80295
2.39719
8.64643
16.7769
26.434
37.1287
48.2998
59.3775
69.842
79.2689
87.3602
93.9566
99.0355
102.693
105.12
106.565
107.308
107.624
107.76
107.913
108.222
108.76
109.537
110.507
111.582
112.642
113.549
114.162
114.347
113.982
112.959
111.186
108.579
105.064
100.567
95.0232
88.3815
80.6204
71.7663
61.9138
51.2438
40.0333
28.6539
17.5567
7.24082
-1.78973
-9.07842
-14.2695
-17.1554
-17.7103
-16.1047
-12.6976
-8.00681
-2.66118
2.66091
7.2978
10.6693
12.3321
12.0213
9.67296
5.42739
-0.387171
-7.28802
-14.6852
-21.9381
-28.416
-33.5578
-36.9256
-38.2471
-37.4426
-34.6337
-30.132
-24.4087
-18.0469
-11.6818
-5.93499
-1.34922
1.66795
2.88598
2.27313
-0.00403676
-3.60331
-8.04872
-12.7862
-17.2466
-20.9076
-23.3487
-24.2921
-23.6267
-21.4118
-17.8634
-13.3229
-8.21512
-2.99971
1.87883
6.03576
9.18179
11.1461
11.8849
11.4757
10.099
8.00918
5.50028
2.8699
0.385701
-1.74159
-3.37621
-4.46493
-5.03426
-5.17835
-5.03984
-4.7863
-4.58547
-4.58217
-4.8794
-5.5256
-6.50919
-7.76048
-9.16043
-10.5549
-11.7724
-12.6434
-13.018
-12.7811
-11.8622
-10.2385
-7.93303
-5.00564
-1.54139
2.36341
6.61416
11.128
15.8397
20.7022
25.683
30.7571
35.8975
41.066
46.2056
51.2354
56.0485
60.5148
64.4868
67.8083
70.3262
71.9028
72.4287
71.8337
70.0966
67.2505
63.384
58.6378
53.1956
47.2713
41.0906
34.8711
28.8007
23.0167
17.5881
12.502
7.65802
2.87229
-2.10694
-7.57003
-13.8044
-21.0434
-29.4116
-38.8758
-49.2084
-59.9758
-70.5545
-80.1787
-88.017
-93.2702
-95.2769
-93.6132
-88.1675
-79.1781
-67.2198
-53.1374
-37.9309
-22.6055
-8.01106
5.30141
17.174
27.8621
37.9628
48.2538
59.4583
71.9764
85.6316
99.4923
111.818
120.166
121.667
113.443
93.1111
59.2876
12.0113
-47.0105
-114.385
-185.273
-253.862
-314.021
-360.034
-387.326
-393.053
-376.491
-339.156
-284.639
-218.195
-146.12
-75.0212
-11.0788
40.6255
76.6099
95.2818
96.9876
83.8306
59.2955
27.7388
-6.18261
-38.0705
-64.2639
-82.1877
-90.5381
-89.3006
-79.6103
-63.4905
-43.5101
-22.4118
-2.75754
13.3666
24.5563
30.1906
30.4265
26.0991
18.5484
9.4026
0.346927
-7.0906
-11.7133
-12.7718
-10.0143
-3.67068
5.62165
16.9346
29.1924
41.32
52.3788
61.6733
68.8182
73.7599
76.7525
78.2956
79.0431
79.6968
80.8998
83.1435
86.6995
91.5841
97.5577
104.159
110.767
116.676
121.187
123.687
123.716
121.016
115.551
107.502
97.2465
85.3089
72.3111
58.9145
45.767
33.4571
22.4797
13.2119
5.90047
0.657557
-2.53623
-3.82249
-3.45024
-1.75592
0.861471
3.96902
7.13041
9.93597
12.0291
13.1268
13.0327
11.6415
8.93689
4.98387
-0.0804354
-6.05644
-12.6898
-19.678
-26.677
-33.3116
-39.1921
-43.9396
-47.2197
-48.7819
-48.4998
-46.4033
-42.6981
-37.7639
-32.1295
-26.4257
-21.3196
-17.439
-15.2961
-15.2224
-17.3209
-21.4464
-27.2128
-34.0296
-41.1617
-47.807
-53.1813
-56.6018
-57.5602
-55.7759
-51.2255
-44.1441
-35.0008
-24.4488
-13.2602
-2.24978
7.80163
16.2157
22.4711
26.2385
27.3939
26.0112
22.3376
16.7555
9.73804
1.80353
-6.52591
-14.7575
-22.4511
-29.2333
-34.8033
-38.9334
-41.4681
-42.3221
-41.48
-38.9968
-34.9979
-29.6776
-23.2934
-16.1558
-8.61297
-1.03152
6.22446
12.8146
18.4412
22.8647
25.9148
27.4974
27.5976
26.28
23.6861
20.0291
15.5881
10.6979
5.73764
1.11511
-2.75199
-5.4589
-6.63948
-5.99382
-3.31565
1.48297
8.35233
17.094
27.36
38.6646
50.4081
61.9131
72.471
81.3951
88.0754
92.0319
92.9578
90.7498
85.5212
77.5945
67.4747
55.8051
43.3101
30.7312
18.7627
7.9948
-1.1312
-8.3499
-13.5802
-16.9143
-18.5909
-18.9554
-18.414
-17.3862
-16.2618
-15.3664
-14.9375
-15.1138
-15.9351
-17.3531
-19.2486
-21.4533
-23.7716
-26.0011
-27.9481
-29.4362
-30.3079
-30.4172
-29.6164
-27.7382
-24.5803
-19.8976
-13.4113
-4.83958
6.04572
19.3384
34.9013
52.2695
70.5733
88.505
104.35
116.097
121.621
118.933
106.464
83.3314
49.5656
6.23579
-44.5386
-99.7087
-155.539
-207.949
-252.911
-286.869
-307.111
-312.072
-301.516
-276.58
-239.674
-194.242
-144.41
-94.5689
-48.9186
-11.0487
16.4137
32.0414
35.7055
28.5271
12.6906
-8.8555
-32.7698
-55.7158
-74.7369
-87.5663
-92.8368
-90.1733
-80.1621
-64.2109
-44.322
-22.813
-2.02249
15.9635
29.5324
37.6926
40.1357
37.2144
29.8479
19.371
7.35343
-4.58936
-14.9692
-22.5648
-26.5164
-26.3702
-22.0754
-13.9404
-2.56117
11.267
26.641
42.6341
58.3665
73.0576
86.0614
96.8842
105.191
110.8
113.676
113.914
111.725
107.417
101.375
94.0379
85.8761
77.364
68.9527
61.0447
53.9697
47.967
43.1749
39.6292
37.2736
35.9788
35.5692
35.8534
36.6525
37.8214
39.2585
40.9013
42.7087
44.6315
46.5793
48.3899
49.8098
50.4947
50.0319
47.9868
43.9681
37.702
29.1032
18.3295
5.80729
-7.77906
-21.5378
-34.4551
-45.5066
-53.7792
-58.5875
-59.5681
-56.7368
-50.5007
-41.6225
-31.1398
-20.2506
-10.1781
-2.03301
3.31167
5.31683
3.83503
-0.876273
-8.1865
-17.1641
-26.6805
-35.5356
-42.5901
-46.893
-47.7889
-44.9953
-38.6385
-29.2449
-17.6868
-5.08812
7.29913
18.2343
26.6263
31.6539
32.8561
30.1784
23.9738
14.9566
4.11624
-7.3977
-18.4047
-27.8214
-34.7736
-38.6793
-39.295
-36.7206
-31.3666
-23.8867
-15.0887
-5.83336
3.06417
10.9187
17.2353
21.7402
24.3783
25.2837
24.7268
23.0506
20.6063
17.6984
14.5481
11.2796
7.92915
4.47306
0.867369
-2.90939
-6.81999
-10.7464
-14.4861
-17.7691
-20.2915
-21.7617
-21.9495
-20.7317
-18.1247
-14.2984
-9.56844
-4.36572
0.81285
5.46786
9.1665
11.608
12.6763
12.4698
11.3043
9.68404
8.24316
7.6646
8.5853
11.5013
16.686
24.1347
33.5435
44.3278
55.6784
66.6486
76.261
83.6185
88.007
88.9729
86.3678
80.3536
71.3695
60.0659
47.2177
33.6286
20.0416
7.06595
-4.86893
-15.5308
-24.8724
-32.9949
-40.0957
-46.4085
-52.146
-57.4537
-62.3796
-66.8635
-70.7458
-73.7932
-75.7353
-76.3083
-75.2966
-72.5685
-68.1003
-61.9845
-54.4213
-45.6942
-36.1302
-26.0526
-15.7327
-5.35061
5.0262
15.4365
25.9877
36.7862
47.8434
58.971
69.686
79.148
86.1539
89.2021
86.6358
76.8527
58.5599
31.0376
-5.63111
-50.4064
-101.247
-155.198
-208.602
-257.432
-297.697
-325.871
-339.303
-336.546
-317.565
-283.786
-237.993
-184.061
-126.567
-70.322
-19.8727
20.9613
49.4637
64.2674
65.4435
54.4278
33.7983
6.93542
-22.3884
-50.4397
-73.9234
-90.3067
-98.035
-96.6234
-86.6229
-69.4759
-47.2861
-22.5373
2.20409
24.5683
42.6148
54.9977
61.0539
60.8122
54.9308
44.5788
31.2783
16.7296
2.63711
-9.44536
-18.2391
-22.8267
-22.6978
-17.7554
-8.28859
5.08242
21.4798
39.8528
59.0664
77.9851
95.55
110.842
123.132
131.913
136.915
138.111
135.701
130.085
121.838
111.661
100.348
88.7361
77.6617
67.9168
60.1998
55.0672
52.886
53.7907
57.6505
64.055
72.3258
81.5566
90.6853
98.591
104.208
106.645
105.283
99.8622
90.5125
77.7523
62.4362
45.6645
28.6653
12.6627
-1.25171
-12.2286
-19.7405
-23.6214
-24.0655
-21.5856
-16.9392
-11.0326
-4.81533
0.823126
5.14152
7.61268
7.96057
6.16722
2.45147
-2.7756
-8.9714
-15.5304
-21.8523
-27.4025
-31.7593
-34.6439
-35.9327
-35.6517
-33.9573
-31.1056
-27.4155
-23.2305
-18.883
-14.6638
-10.8004
-7.44346
-4.66392
-2.45767
-0.758352
0.544522
1.58414
2.49412
3.38793
4.34233
5.38662
6.49888
7.60955
8.61181
9.37732
9.7754
9.69306
9.05333
7.8296
6.05386
3.81779
1.26636
-1.41537
-4.02082
-6.34352
-8.19911
-9.44497
-9.9949
-9.82696
-8.98374
-7.56503
-5.71455
-3.60265
-1.40772
0.701352
2.57932
4.11427
5.23218
5.89654
6.10421
5.87859
5.26183
4.30747
3.07463
1.62444
0.0189337
-1.67804
-3.39843
-5.06718
-6.59999
-7.90256
-8.87195
-9.40045
-9.38175
-8.71901
-7.33385
-5.17519
-2.22687
1.48713
5.9005
10.9059
16.36
22.0914
27.9115
33.6274
39.055
44.0321
48.4294
52.158
55.1725
57.468
59.0726
60.0358
60.4146
60.2599
59.605
58.4587
56.8031
54.5965
51.7815
48.2951
44.0808
39.1
33.3405
26.8228
19.6004
11.7568
3.39991
-5.3463
-14.3482
-23.4669
-32.5586
-41.4715
-50.0403
-58.0801
-65.3841
-71.7253
-76.8651
-80.5695
-82.6292
-82.8832
-81.2414
-77.7012
-72.3573
-65.3984
-57.0915
-47.751
-37.6969
-27.2044
-16.4543
-5.49349
5.78115
17.6053
30.2879
44.1105
59.1925
75.3443
91.9355
107.813
121.303
130.307
132.516
125.706
108.081
78.6162
37.342
-14.4936
-74.407
-138.824
-203.375
-263.301
-313.928
-351.144
-371.825
-374.167
-357.88
-324.231
-275.939
-216.916
-151.909
-86.0584
-24.4225
28.4725
69.0298
94.8796
105.052
100.011
81.5545
52.5894
16.8058
-21.7065
-58.8675
-90.9976
-115.152
-129.366
-132.796
-125.732
-109.508
-86.2974
-58.8463
-30.151
-3.13469
19.653
36.2802
45.5973
47.3104
41.96
30.8135
15.6884
-1.27087
-17.8347
-31.9223
-41.804
-46.2518
-44.6283
-36.9079
-23.6352
-5.82947
15.1486
37.7517
60.4039
81.6447
100.248
115.302
126.26
132.934
135.477
134.317
130.086
123.535
115.451
106.588
97.603
89.0199
81.2108
74.3942
68.6501
63.9462
60.1691
57.1577
54.7333
52.7224
50.9725
49.3588
47.7838
46.171
44.4573
42.5842
40.4937
38.1271
35.4295
32.3573
28.8881
25.0295
20.8244
16.3524
11.725
7.07531
2.54495
-1.73138
-5.64011
-9.09997
-12.0683
-14.5417
-16.5516
-18.1549
-19.422
-20.4237
-21.2202
-21.852
-22.3356
-22.6638
-22.8112
-22.7428
-22.4255
-21.8399
-20.991
-19.9153
-18.6823
-17.3902
-16.1544
-15.0907
-14.2949
-13.8216
-13.6662
-13.7536
-13.9367
-14.007
-13.7161
-12.8083
-11.0586
-8.3128
-4.52212
0.232129
5.72923
11.6177
17.4427
22.6894
26.839
29.4296
30.1154
28.7147
25.2427
19.9203
13.1601
5.52781
-2.31516
-9.6826
-15.9381
-20.5649
-23.2217
-23.7782
-22.3252
-19.1596
-14.745
-9.65486
-4.50344
0.124636
3.73949
5.99725
6.73211
5.96597
3.89557
0.859445
-2.71021
-6.34429
-9.59468
-12.0861
-13.5557
-13.8762
-13.0601
-11.2469
-8.67331
-5.63516
-2.44286
0.620626
3.33517
5.56742
7.28098
8.53241
9.45458
10.2305
11.0622
12.1386
13.6076
15.5559
17.9979
20.8759
24.07
27.4162
30.7296
33.8291
36.5611
38.8173
40.5462
41.7553
42.5053
42.8961
43.0477
43.0788
43.0852
43.1227
43.1951
43.2503
43.184
42.8507
42.081
40.7008
38.5515
35.5085
31.4938
26.4838
20.5114
13.6625
6.06868
-2.1022
-10.6563
-19.3842
-28.0712
-36.5059
-44.489
-51.8403
-58.4045
-64.0542
-68.6908
-72.2408
-74.6505
-75.8766
-75.877
-74.5994
-71.97
-67.8819
-62.1836
-54.6694
-45.0764
-33.0949
-18.4011
-0.719779
20.0794
43.8568
70.0663
97.6327
124.88
149.545
168.893
179.966
179.918
166.422
138.086
94.7988
37.9488
-29.5338
-103.343
-178.157
-248.162
-307.667
-351.732
-376.731
-380.775
-363.925
-328.197
-277.328
-216.359
-151.082
-87.4091
-30.7638
14.4593
45.2923
60.4176
60.1993
46.5305
22.5248
-7.90487
-40.5238
-71.2544
-96.6017
-113.982
-121.923
-120.127
-109.398
-91.4488
-68.6264
-43.5906
-18.9861
2.85225
20.1302
31.7401
37.3141
37.1852
32.2729
23.9115
13.6505
3.05169
-6.49026
-13.8849
-18.4285
-19.8282
-18.1721
-13.8549
-7.47719
0.267335
8.69812
17.2346
25.4541
33.1167
40.1587
46.6582
52.7843
58.7368
64.6882
70.7371
76.8776
82.9889
88.8459
94.1463
98.5499
101.725
103.392
103.363
101.566
98.058
93.0188
86.7348
79.5674
71.9168
64.182
56.7239
49.8341
43.7143
38.466
34.0925
30.5104
27.5711
25.0859
22.8544
20.6904
18.4436
16.0137
13.356
10.4795
7.43603
4.30612
1.18129
-1.85238
-4.72756
-7.40393
-9.87045
-12.142
-14.2515
-16.2389
-18.1398
-19.9746
-21.7416
-23.4126
-24.9337
-26.2308
-27.2179
-27.8084
-27.9278
-27.5261
-26.5883
-25.1428
-23.2641
-21.0721
-18.7249
-16.4075
-14.3157
-12.6388
-11.5412
-11.1463
-11.5245
-12.6866
-14.5835
-17.1123
-20.127
-23.4525
-26.8982
-30.2708
-33.3833
-36.0598
-38.1385
-39.4716
-39.9261
-39.3862
-37.759
-34.9821
-31.0351
-25.9496
-19.8186
-12.8009
-5.11926
2.94819
11.0829
18.9451
26.1936
32.5041
37.5821
41.1697
43.0475
43.0335
40.9841
36.8004
30.4433
21.9575
11.5009
-0.625473
-13.9562
-27.8566
-41.5401
-54.1134
-64.6459
-72.2611
-76.2365
-76.1014
-71.7157
-63.3171
-51.5261
-37.3027
-21.858
-6.52745
7.37892
18.7307
26.7165
30.9491
31.5203
28.9983
24.3629
18.8867
13.974
10.9778
11.0156
14.8095
22.5713
33.9496
48.0485
63.5187
78.7112
91.8758
101.38
105.921
104.697
97.5243
84.8772
67.8434
48.0071
27.2685
7.62551
-9.05576
-21.2528
-27.9557
-28.7736
-23.9677
-14.4094
-1.47103
13.136
27.5537
39.9799
48.8553
53.0166
51.8013
45.0934
33.3099
17.332
-1.6083
-22.0708
-42.5626
-61.6877
-78.275
-91.4722
-100.797
-106.141
-107.734
-106.064
-101.777
-95.559
-88.0202
-79.5952
-70.4711
-60.5565
-49.4988
-36.7523
-21.6958
-3.78995
17.243
41.2418
67.4604
94.4876
120.258
142.171
157.328
162.847
156.25
135.84
101.037
52.6015
-7.28595
-75.1188
-146.326
-215.68
-277.811
-327.755
-361.49
-376.367
-371.408
-347.418
-306.895
-253.76
-192.933
-129.804
-69.6742
-17.2174
23.9572
51.6115
65.0148
64.9065
53.2993
33.1554
7.98184
-18.6024
-43.2744
-63.3457
-76.9952
-83.3806
-82.6237
-75.683
-64.1402
-49.9334
-35.0748
-21.3889
-10.3012
-2.69916
1.12552
1.4522
-0.963132
-5.03427
-9.51939
-13.1991
-15.0347
-14.2887
-10.5954
-3.97761
5.18762
16.2449
28.3644
40.6568
52.2856
62.5604
71.0028
77.3799
81.7035
84.1997
85.2553
85.3499
84.983
84.6043
84.5558
85.031
86.0547
87.4866
89.0454
90.3534
90.9944
90.5792
88.8104
85.5384
80.8002
74.8354
68.0742
61.0969
54.5677
49.1505
45.4157
43.752
44.2972
46.8984
51.1115
56.2416
61.4215
65.7184
68.2533
68.3184
65.4735
59.6088
50.9652
40.1083
27.8614
15.2067
3.16706
-7.31299
-15.4741
-20.822
-23.1719
-22.6535
-19.6785
-14.8755
-9.00437
-2.8603
2.81852
7.42955
10.5616
12.0231
11.8414
10.236
7.5716
4.29778
0.885049
-2.23543
-4.72092
-6.35028
-7.03876
-6.83442
-5.89856
-4.47395
-2.84617
-1.30329
-0.099039
0.576309
0.614523
-0.00380851
-1.21406
-2.8823
-4.82722
-6.8461
-8.74107
-10.3426
-11.5274
-12.2289
-12.4394
-12.2048
-11.6129
-10.7774
-9.81975
-8.85264
-7.96584
-7.21712
-6.62868
-6.18935
-5.86163
-5.59225
-5.32447
-5.00996
-4.61869
-4.14524
-3.61076
-3.06051
-2.55738
-2.17284
-1.9765
-2.02632
-2.36039
-2.99146
-3.9041
-5.05439
-6.37163
-7.76168
-9.11154
-10.2954
-11.1817
-11.6423
-11.5616
-10.8472
-9.439
-7.31711
-4.50635
-1.07672
2.86061
7.16173
11.662
16.1901
20.5831
24.6997
28.4313
31.7091
34.5068
36.8395
38.7594
40.3484
41.7101
42.9591
44.2103
45.5651
47.0979
48.8418
50.7761
52.8178
54.8182
56.569
57.8152
58.2771
57.6782
55.7772
52.3989
47.4617
40.9971
33.1583
24.2161
14.5422
4.58049
-5.19027
-14.2997
-22.3298
-28.9545
-33.9721
-37.3244
-39.102
-39.5335
-38.9596
-37.7956
-36.4839
-35.4445
-35.0262
-35.4664
-36.8615
-39.1533
-42.1297
-45.4402
-48.6218
-51.1325
-52.3879
-51.8005
-48.8202
-42.9795
-33.9442
-21.572
-5.97729
12.404
32.7622
53.8885
74.1953
91.7935
104.633
110.699
108.247
96.0463
73.5949
41.2756
0.418905
-46.7444
-97.2426
-147.623
-194.281
-233.826
-263.426
-281.104
-285.926
-278.086
-258.851
-230.392
-195.524
-157.385
-119.097
-83.4555
-52.6777
-28.2358
-10.7903
-0.220811
4.25677
3.91071
0.277955
-5.05662
-10.6587
-15.3986
-18.546
-19.8003
-19.259
-17.3361
-14.6457
-11.871
-9.6383
-8.41175
-8.42265
-9.6391
-11.777
-14.3477
-16.7326
-18.2737
-18.365
-16.5348
-12.5058
-6.22936
2.11189
12.1293
23.2778
34.921
46.4034
57.1207
66.5779
74.4314
80.5094
84.8118
87.4891
88.8077
89.1049
88.7425
88.0631
87.3562
86.8357
86.6312
86.7905
87.2918
88.0603
88.9876
89.9483
90.8143
91.4652
91.794
91.7108
91.1435
90.0385
88.3601
86.0896
83.2247
79.7763
75.7654
71.2175
66.1581
60.6096
54.5922
48.1305
41.2657
34.0712
26.6685
19.238
12.0207
5.30491
-0.601325
-5.4119
-8.91313
-11.0148
-11.7921
-11.5073
-10.6039
-9.66737
-9.35348
-10.2929
-12.984
-17.6927
-24.3777
-32.6558
-41.8204
-50.912
-58.8368
-64.5164
-67.0489
-65.8554
-60.7892
-52.1877
-40.8563
-27.9828
-14.9929
-3.36652
5.5587
10.7684
11.7096
8.3671
1.26647
-8.59517
-19.8803
-31.0841
-40.7262
-47.5324
-50.5848
-49.4205
-44.0688
-35.0267
-23.1784
-9.67514
4.20765
17.2156
28.2457
36.4476
41.2883
42.5766
40.4507
35.3339
27.8684
18.8349
9.06976
-0.6143
-9.49575
-16.996
-22.7123
-26.432
-28.127
-27.9345
-26.1233
-23.0538
-19.1344
-14.779
-10.3703
-6.23123
-2.60625
0.346176
2.55171
4.01
4.77895
4.95605
4.65958
4.01161
3.1246
2.09224
0.984696
-0.152227
-1.29467
-2.4358
-3.57878
-4.72789
-5.87789
-7.00228
-8.04157
-8.89371
-9.40911
-9.39288
-8.61591
-6.83509
-3.82129
0.608322
6.55777
14.0245
22.8809
32.8681
43.6042
54.6067
65.3267
75.193
83.6594
90.2517
94.6085
96.5115
95.9017
92.88
87.691
80.693
72.3153
63.009
53.1962
43.2251
33.3367
23.6491
14.1639
4.79335
-4.59388
-14.1154
-23.8168
-33.6235
-43.3128
-52.5151
-60.7452
-67.4639
-72.1584
-74.43
-74.0742
-71.1364
-65.9333
-59.0328
-51.1927
-43.2669
-36.0917
-30.3688
-26.564
-24.8335
-24.9908
-26.5162
-28.607
-30.2624
-30.3922
-27.9388
-22.0044
-11.9732
2.3757
20.7728
42.3908
65.8176
89.0855
109.772
125.183
132.607
129.637
114.509
86.4206
45.772
-5.71411
-65.0339
-128.113
-190.171
-246.213
-291.562
-322.4
-336.209
-332.071
-310.789
-274.79
-227.852
-174.66
-120.28
-69.5896
-26.7637
5.14864
24.489
31.0808
26.1419
12.0403
-8.06914
-30.6739
-52.3425
-70.1193
-81.8294
-86.2652
-83.2395
-73.5108
-58.6016
-40.5392
-21.5595
-3.81274
10.8931
21.2826
26.7202
27.2292
23.4289
16.4055
7.53963
-1.68416
-9.86086
-15.8197
-18.7349
-18.1833
-14.1485
-6.9763
2.70759
14.1042
26.3559
38.655
50.3332
60.9225
70.1817
78.0881
84.7988
90.587
95.767
100.617
105.315
109.893
114.222
118.027
120.924
122.486
122.312
120.098
115.701
109.172
100.777
90.9743
80.3775
69.6936
59.6485
50.911
44.0213
39.3344
36.9815
36.856
38.6225
41.7514
45.5739
49.3525
52.3602
53.9599
53.6738
51.2365
46.6224
40.0478
31.9433
22.9033
13.6169
4.79017
-2.93212
-9.03427
-13.1804
-15.2423
-15.3034
-13.6378
-10.6711
-6.92685
-2.96603
0.672563
3.52609
5.24969
5.64387
4.66537
2.42186
-0.848243
-4.80749
-9.05917
-13.1904
-16.814
-19.6055
-21.3313
-21.8655
-21.1956
-19.416
-16.7111
-13.331
-9.56234
-5.69807
-2.00909
1.27903
4.00243
6.06728
7.44966
8.18804
8.36993
8.11479
7.55571
6.82233
6.0268
5.25411
4.55754
3.95863
3.45116
3.00756
2.58649
2.14026
1.62141
0.987958
0.207721
-0.738344
-1.85339
-3.12291
-4.51455
-5.98036
-7.46232
-8.90101
-10.2469
-11.4726
-12.5834
-13.6242
-14.6794
-15.8655
-17.3152
-19.1553
-21.4804
-24.327
-27.652
-31.3205
-35.1043
-38.6956
-41.7328
-43.8377
-44.6602
-43.9237
-41.4677
-37.2789
-31.5084
-24.4697
-16.6176
-8.50711
-0.737956
6.11109
11.5498
15.2375
17.0289
16.9984
15.4379
12.8282
9.78573
6.99161
5.11096
4.71265
6.19921
9.75535
15.3213
22.5937
31.054
40.0204
48.7158
56.3465
62.1798
65.6145
66.2369
63.8569
58.5224
50.5111
40.3017
28.5287
15.9255
3.26175
-8.71929
-19.3585
-28.1287
-34.6704
-38.8123
-40.5771
-40.1721
-37.9669
-34.4584
-30.228
-25.8928
-22.0543
-19.2479
-17.8964
-18.2711
-20.4614
-24.3563
-29.6375
-35.7849
-42.0948
-47.7098
-51.6601
-52.9171
-50.4592
-43.3516
-30.8413
-12.4667
11.8207
41.5344
75.5461
112.019
148.405
181.54
207.835
223.583
225.346
210.388
177.094
125.32
56.6059
-25.788
-117.044
-211.142
-301.378
-380.983
-443.792
-484.861
-500.981
-491.025
-456.084
-399.366
-325.895
-242.006
-154.722
-71.0622
2.6339
61.2972
101.568
122.043
123.304
107.74
79.1791
42.3998
2.55613
-35.3913
-67.1864
-89.673
-101.038
-100.885
-90.1403
-70.8213
-45.697
-17.8967
9.48472
33.7388
52.8125
65.4728
71.3557
70.9073
65.2365
55.9055
44.6923
33.3568
23.4383
16.1051
12.0685
11.5623
14.3826
19.9752
27.5522
36.2205
45.1036
53.4433
60.6699
66.4369
70.6209
73.2919
74.662
75.0228
74.6827
73.9115
72.9017
71.7468
70.4405
68.8927
66.9579
64.4715
61.2861
57.3035
52.4981
46.9282
40.7353
34.1322
27.3818
20.7711
14.5818
9.06364
4.41187
0.751159
-1.8718
-3.48764
-4.19593
-4.15055
-3.54094
-2.57148
-1.44141
-0.327149
0.631036
1.33728
1.74259
1.84182
1.66571
1.26914
0.717145
0.0703909
-0.628004
-1.36244
-2.1501
-3.04037
-4.10799
-5.44036
-7.12022
-9.20586
-11.7117
-14.5922
-17.7324
-20.9464
-23.987
-26.563
-28.3665
-29.1038
-28.5285
-26.4722
-22.8696
-17.7743
-11.3643
-3.93609
4.11264
12.3108
20.1492
27.1224
32.7709
36.7229
38.7291
38.6871
36.6538
32.8415
27.5991
21.3794
14.6957
8.0714
1.9897
-3.15189
-7.07698
-9.65135
-10.8877
-10.9337
-10.0461
-8.55338
-6.81343
-5.17067
-3.91807
-3.26842
-3.33744
-4.13981
-5.59744
-7.55794
-9.81996
-12.1618
-14.3692
-16.2598
-17.7011
-18.6202
-19.0064
-18.9062
-18.4116
-17.6459
-16.7464
-15.8486
-15.0726
-14.5125
-14.2314
-14.2609
-14.6043
-15.2441
-16.1493
-17.2839
-18.6122
-20.1012
-21.7189
-23.4283
-25.1792
-26.8983
-28.481
-29.786
-30.6352
-30.8198
-30.1135
-28.2909
-25.1514
-20.5445
-14.3961
-6.73026
2.31417
12.476
23.3748
34.5266
45.3702
55.305
63.7361
70.1226
74.0253
75.1482
73.3682
68.7511
61.5489
52.1798
41.1915
29.2103
16.8838
4.81918
-6.47165
-16.6179
-25.4185
-32.8525
-39.0681
-44.3529
-49.0887
-53.6958
-58.574
-64.0473
-70.3199
-77.4476
-85.3294
-93.7202
-102.261
-110.523
-118.061
-124.465
-129.406
-132.667
-134.162
-133.926
-132.098
-128.879
-124.48
-119.074
-112.752
-105.492
-97.1599
-87.5413
-76.4004
-63.5737
-49.0807
-33.2378
-16.7538
-0.782322
13.0893
22.932
26.6506
22.2326
8.04333
-16.8729
-52.534
-97.8519
-150.594
-207.492
-264.501
-317.174
-361.114
-392.438
-408.21
-406.763
-387.897
-352.916
-304.506
-246.472
-183.361
-120.015
-61.1059
-10.7022
28.0973
53.4129
64.7016
62.7343
49.4379
27.6285
0.66705
-27.9188
-54.8054
-77.1945
-93.0541
-101.258
-101.614
-94.7893
-82.1484
-65.5249
-46.9666
-28.4804
-11.8085
1.74026
11.389
16.9164
18.6102
17.1623
13.5268
8.76016
3.86831
-0.320059
-3.2388
-4.61927
-4.47393
-3.03525
-0.66334
2.25976
5.4298
8.69626
12.1014
15.8763
20.3949
26.0946
33.3769
42.5071
53.5276
66.2036
80.0084
94.1548
107.668
119.489
128.601
134.152
135.561
132.599
125.425
114.577
100.918
85.549
69.6933
54.572
41.2842
30.7042
23.4078
19.6331
19.2774
21.9273
26.9175
33.4083
40.4739
47.1913
52.7214
56.3761
57.6656
56.3248
52.3172
45.8183
37.1832
26.9004
15.5382
3.69027
-8.07753
-19.2716
-29.5043
-38.5147
-46.1743
-52.4788
-57.5281
-61.496
-64.5956
-67.042
-69.0193
-70.6533
-71.9956
-73.0181
-73.6204
-73.6478
-72.9178
-71.25
-68.4973
-64.5717
-59.4631
-53.2484
-46.0896
-38.2225
-29.9376
-21.5569
-13.4082
-5.80258
0.985774
6.73266
11.2717
14.496
16.3557
16.8517
16.0294
13.9715
10.7947
6.64781
1.71359
-3.78865
-9.60054
-15.4253
-20.9338
-25.7769
-29.6061
-32.0993
-32.9917
-32.1067
-29.384
-24.9001
-18.8773
-11.6794
-3.7919
4.21156
11.7149
18.1127
22.8658
25.5538
25.9197
23.8998
19.6372
13.4753
5.93182
-2.3461
-10.6396
-18.2251
-24.442
-28.755
-30.8032
-30.4313
-27.6983
-22.8645
-16.3569
-8.71879
-0.548129
7.56578
15.1017
21.6545
26.9668
30.9417
33.6367
35.2401
36.0351
36.3561
36.5446
36.9089
37.694
39.062
41.0861
43.755
46.9841
50.6312
54.5117
58.411
62.0934
65.307
67.7883
69.268
69.4809
68.1819
65.1676
60.3024
53.5455
44.9738
34.7981
23.3661
11.1515
-1.27192
-13.2712
-24.2051
-33.4826
-40.6211
-45.2999
-47.4013
-47.0347
-44.5384
-40.4576
-35.498
-30.459
-26.1514
-23.3075
-22.4944
-24.0379
-27.9689
-33.9956
-41.5089
-49.6183
-57.2174
-63.0735
-65.9349
-64.6481
-58.2807
-46.2413
-28.3911
-5.13752
22.5018
52.8801
83.7633
112.448
135.956
151.312
155.861
147.613
125.551
89.8618
42.0412
-15.1535
-77.9072
-141.694
-201.727
-253.449
-293.012
-317.674
-326.063
-318.292
-295.895
-261.61
-219.042
-172.25
-125.3
-81.86
-44.8617
-16.2699
3.01991
13.1583
15.205
10.9037
2.40373
-8.03499
-18.3175
-26.7392
-32.1405
-33.9776
-32.3119
-27.7247
-21.1768
-13.8345
-6.88725
-1.37902
1.92524
2.62648
0.724143
-3.40455
-9.07169
-15.3804
-21.3458
-26.0197
-28.6034
-28.5352
-25.545
-19.6707
-11.2377
-0.805773
10.9076
23.1166
35.0577
46.0703
55.658
63.5254
69.5866
73.9469
76.8634
78.6896
79.8137
80.5989
81.3333
82.1953
83.238
84.3929
85.4908
86.2956
86.5457
85.9953
84.4518
81.8029
78.0312
73.2153
67.5188
61.1698
54.4347
47.5914
40.9045
34.6067
28.888
23.8916
19.717
16.4258
14.0484
12.587
12.014
12.2635
13.2192
14.7009
16.4536
18.1454
19.3772
19.7062
18.6838
15.9026
11.0499
3.95672
-5.36134
-16.6813
-29.5709
-43.4096
-57.4316
-70.7847
-82.6002
-92.0629
-98.477
-101.319
-100.277
-95.2701
-86.4545
-74.213
-59.1332
-41.976
-23.6356
-5.09343
12.635
28.5581
41.7696
51.5107
57.2277
58.6196
55.6696
48.6555
38.1353
24.9082
9.95194
-5.65625
-20.8287
-34.5563
-45.9872
-54.4885
-59.682
-61.4534
-59.9342
-55.461
-48.5207
-39.6887
-29.5726
-18.7655
-7.81628
2.78432
12.6046
21.2644
28.4273
33.7967
37.1217
38.212
36.9614
33.3756
27.5966
19.9189
10.7914
0.799117
-9.37299
-18.9953
-27.3602
-33.8528
-38.0172
-39.6066
-38.613
-35.2681
-30.0177
-23.4698
-16.3247
-9.2962
-3.03181
1.95561
5.33867
7.00247
7.0458
5.75764
3.57284
1.01335
-1.37745
-3.09923
-3.75066
-3.07072
-0.961629
2.50835
7.12131
12.5423
18.3635
24.1539
29.5092
34.095
37.6797
40.1529
41.529
41.9356
41.5903
40.7678
39.7643
38.8614
38.2957
38.2364
38.7711
39.9022
41.5486
43.5526
45.6875
47.6659
49.149
49.7575
49.089
46.7439
42.3608
35.6612
26.5002
14.9144
1.16178
-14.2587
-30.6127
-46.968
-62.2637
-75.4062
-85.3857
-91.3975
-92.9546
-89.9758
-82.8324
-72.3464
-59.7299
-46.4696
-34.1625
-24.317
-18.142
-16.3482
-18.9945
-25.4044
-34.1788
-43.3165
-50.4433
-53.1316
-49.2768
-37.4795
-17.3771
10.1377
42.8584
77.3977
109.51
134.577
148.189
146.754
128.034
91.5347
38.6904
-27.1965
-101.25
-177.517
-249.601
-311.355
-357.544
-384.399
-389.999
-374.436
-339.755
-289.679
-229.158
-163.811
-99.3192
-40.8407
7.47266
42.8239
63.9453
71.0928
65.8738
50.9406
29.5967
5.3672
-18.4128
-38.946
-54.2213
-63.1442
-65.5442
-62.0724
-54.0108
-43.0288
-30.9189
-19.3491
-9.65883
-2.72107
1.12103
2.0411
0.650403
-2.13101
-5.23147
-7.59031
-8.30459
-6.74231
-2.61058
4.02635
12.7772
22.9943
33.872
44.5578
54.2624
62.3519
68.4142
72.2927
74.0851
74.1111
72.8563
70.9006
68.8423
67.2266
66.4874
66.9057
68.589
71.4701
75.3238
79.7985
84.4578
88.8286
92.4495
94.9163
95.9207
95.2773
92.9385
88.9945
83.6598
77.2467
70.1293
62.7026
55.3404
48.3592
41.99
36.3632
31.5078
27.3629
23.8007
20.6567
17.7607
14.9672
12.177
9.35107
6.51244
3.73846
1.14427
-1.13919
-2.9891
-4.31305
-5.06632
-5.26184
-4.97135
-4.31796
-3.46113
-2.57651
-1.83357
-1.37422
-1.29552
-1.63876
-2.38638
-3.46695
-4.76737
-6.15024
-7.47393
-8.61222
-9.47111
-10.0003
-10.1986
-10.1122
-9.8269
-9.45574
-9.12241
-8.94387
-9.01333
-9.38585
-10.0683
-11.0149
-12.1297
-13.2749
-14.2856
-14.988
-15.2211
-14.856
-13.8139
-12.0777
-9.69728
-6.78655
-3.51373
-0.0847772
3.2772
6.3545
8.9565
10.938
12.2122
12.7566
12.6123
11.8752
10.6828
9.19618
7.58117
5.9902
4.54718
3.33723
2.40201
1.74109
1.31836
1.07256
0.92983
0.816499
0.670246
0.448061
0.130182
-0.280283
-0.761586
-1.28043
-1.80048
-2.29084
-2.73303
-3.12541
-3.48429
-3.84129
-4.23677
-4.70951
-5.28308
-5.95032
-6.65788
-7.29376
-7.68112
-7.58115
-6.70721
-4.75059
-1.41656
3.53236
10.2307
18.668
28.6557
39.8116
51.5636
63.1786
73.8152
82.5969
88.7004
91.4487
90.3993
85.4167
76.7182
64.8859
50.8394
35.7672
21.0211
7.98111
-2.09691
-8.23438
-9.86557
-6.93746
0.0421806
10.0195
21.4768
32.5777
41.3646
45.9872
44.9382
37.2671
22.7435
1.94598
-23.7427
-52.2388
-80.9552
-107.075
-127.871
-141.031
-144.956
-138.977
-123.472
-99.8518
-70.4191
-38.0992
-6.08538
22.5655
45.3299
60.5526
67.6684
67.2734
61.0276
51.3936
41.241
33.3686
30.0123
32.4169
40.5432
52.9701
67.0192
79.0991
85.2252
81.6435
65.4618
35.19
-8.89897
-64.6502
-128.175
-194.25
-256.921
-310.216
-348.882
-369.04
-368.664
-347.828
-308.696
-255.246
-192.79
-127.336
-64.9022
-10.8449
30.6982
57.1951
67.8973
63.7996
47.3983
22.2935
-7.30953
-37.1304
-63.3112
-82.8243
-93.7488
-95.394
-88.2663
-73.8978
-54.5667
-32.9518
-11.7679
6.57451
20.2453
28.1783
30.148
26.7359
19.1999
9.26833
-1.11072
-10.0302
-15.8624
-17.4469
-14.2076
-6.18929
5.98484
21.2247
38.1341
55.1989
70.9747
84.2542
94.1911
100.373
102.832
102.007
98.6502
93.7146
88.2161
83.1068
79.1644
76.9125
76.5798
78.0984
81.1381
85.1711
89.5534
93.614
96.7391
98.4417
98.4088
96.5236
92.8621
87.6659
81.299
74.1934
66.7933
59.5031
52.6466
46.4407
40.9842
36.2635
32.1713
28.535
25.1513
21.8205
18.378
14.7169
10.8014
6.66758
2.41423
-1.81665
-5.86464
-9.57796
-12.8381
-15.578
-17.7912
-19.5299
-20.8937
-22.0085
-23.0029
-23.9818
-25.0059
-26.0768
-27.1346
-28.0649
-28.719
-28.9421
-28.606
-27.643
-26.073
-24.0197
-21.7114
-19.4638
-17.6449
-16.6251
-16.7182
-18.1213
-20.8637
-24.7729
-29.4682
-34.3847
-38.8298
-42.0662
-43.4121
-42.3446
-38.589
-32.1815
-23.4909
-13.1962
-2.21957
8.3773
17.5189
24.2476
27.8433
27.9141
24.4464
17.8089
8.70958
-1.88775
-12.8745
-23.1227
-31.6078
-37.5147
-40.3153
-39.8105
-36.1345
-29.7232
-21.254
-11.5655
-1.5664
7.85442
15.9093
21.9767
25.6449
26.7333
25.2905
21.573
16.0078
9.14433
1.60086
-5.98881
-13.0249
-18.983
-23.4462
-26.1247
-26.8653
-25.6494
-22.5809
-17.8669
-11.7916
-4.68816
3.09159
11.2045
19.3391
27.2332
34.6824
41.5428
47.7246
53.1823
57.8997
61.8755
65.1107
67.5995
69.3259
70.2657
70.3928
69.6891
68.1549
65.8179
62.7386
59.0115
54.7605
50.1292
45.2687
40.3235
35.4189
30.6515
26.0854
21.7528
17.6611
13.802
10.1627
6.73598
3.52656
0.553027
-2.15539
-4.56609
-6.65283
-8.40543
-9.83707
-10.9875
-11.9211
-12.7208
-13.4791
-14.2883
-15.2324
-16.3814
-17.7869
-19.4758
-21.4398
-23.6169
-25.8653
-27.9329
-29.4299
-29.8165
-28.418
-24.4773
-17.2512
-6.14555
9.12442
28.3743
50.8241
75.0383
98.9588
120.044
135.509
142.637
139.125
123.423
94.9952
54.4851
3.74993
-54.2484
-115.682
-176.201
-231.349
-276.997
-309.756
-327.318
-328.684
-314.258
-285.789
-246.177
-199.161
-148.92
-99.6468
-55.1353
-18.4259
8.44604
24.58
30.2084
26.571
15.69
0.0764728
-17.5897
-34.7688
-49.3234
-59.7064
-65.0622
-65.2348
-60.6952
-52.4024
-41.624
-29.7418
-18.0676
-7.69074
0.628086
6.50924
9.95258
11.2888
11.0952
10.0911
9.0281
8.58963
9.31166
11.5318
15.3699
20.7384
27.3774
34.9071
42.8877
50.8784
58.4882
65.4128
71.4545
76.5266
80.6423
83.893
86.4196
88.3804
89.9207
91.1458
92.1027
92.7702
93.0608
92.8325
91.9105
90.1145
87.289
83.332
78.2174
72.0091
64.8637
57.0217
48.788
40.5044
32.5169
25.1413
18.6318
13.1556
8.77609
5.4469
3.0166
1.24433
-0.175902
-1.58437
-3.32139
-5.69302
-8.93997
-13.213
-18.5571
-24.9067
-32.0916
-39.8536
-47.8726
-55.7977
-63.2813
-70.011
-75.7366
-80.2879
-83.5826
-85.6223
-86.4801
-86.2789
-85.1679
-83.2983
-80.8032
-77.7851
-74.3116
-70.4192
-66.1244
-61.439
-56.3851
-51.0088
-45.3869
-39.6267
-33.8587
-28.2221
-22.8472
-17.8361
-13.2476
-9.08561
-5.2961
-1.77034
1.64644
5.14396
8.93692
13.2582
18.3554
24.4878
31.9173
40.8862
51.5743
64.0326
78.0981
93.3012
108.787
123.277
135.089
142.239
142.632
134.317
115.791
86.3017
46.1
-3.40809
-59.6501
-119.035
-177.257
-229.725
-272.066
-300.63
-312.938
-307.994
-286.433
-250.465
-203.639
-150.442
-95.7999
-44.5323
-0.84286
32.1042
52.4677
59.8485
55.2372
40.808
19.5919
-4.92443
-29.2218
-50.1442
-65.2226
-72.8956
-72.6104
-64.802
-50.7636
-32.4299
-12.1077
7.81619
25.1535
38.1516
45.6669
47.2604
43.2093
34.4397
22.3908
8.82979
-4.36104
-15.3995
-22.7975
-25.5138
-23.0486
-15.4748
-3.40197
12.1162
29.7201
47.9085
65.2087
80.3329
92.303
100.532
104.855
105.508
103.066
98.3395
92.2622
85.7643
79.663
74.5742
70.8568
68.5939
67.6088
67.513
67.7756
67.8061
67.0383
65.0064
61.4049
56.1258
49.2719
41.1449
32.2115
23.0522
14.2977
6.55999
0.364668
-3.90951
-6.07668
-6.17072
-4.44872
-1.36944
2.45222
6.31082
9.48935
11.3426
11.3754
9.30528
5.10228
-1.00132
-8.53275
-16.8312
-25.1249
-32.6244
-38.619
-42.5646
-44.1492
-43.3282
-40.3228
-35.5824
-29.717
-23.409
-17.3202
-12.0064
-7.85373
-5.04572
-3.56368
-3.21894
-3.70846
-4.68275
-5.81299
-6.84568
-7.63604
-8.15592
-8.47713
-8.73532
-9.08285
-9.64076
-10.4594
-11.4951
-12.6082
-13.5811
-14.1545
-14.0748
-13.1431
-11.2586
-8.44646
-4.86678
-0.800884
3.38162
7.27099
10.4726
12.661
13.6243
13.293
11.7478
9.20789
6.0002
2.51486
-0.845914
-3.71866
-5.8221
-6.98766
-7.17338
-6.4606
-5.03461
-3.15319
-1.10803
0.815341
2.37344
3.39241
3.784
3.54911
2.76912
1.58738
0.183739
-1.2538
-2.55667
-3.59888
-4.31301
-4.69731
-4.8132
-4.77364
-4.7238
-4.81669
-5.18685
-5.92598
-7.06418
-8.55961
-10.2987
-12.1071
-13.7692
-15.0557
-15.7521
-15.687
-14.755
-12.931
-10.2746
-6.92477
-3.08407
1.00293
5.07595
8.88561
12.2178
14.9127
16.8776
18.0911
18.6007
18.5127
17.9775
17.171
17.171
17.171
17.171
17.171
17.171
17.171
17.171
17.171
17.171
17.171
17.171
17.171
17.171
17.171
17.171
17.171
17.171
17.171
17.171
17.171
17.171
