123.062
237.199
363.614
496.643
628.893
751.796
856.374
934.176
978.241
983.966
949.767
877.413
771.994
641.49
496.008
346.76
204.921
80.4976
-18.6484
-87.5082
-124.289
-130.403
-110.098
-69.796
-17.2328
39.4861
92.7964
136.447
166.054
179.39
176.393
158.931
130.362
94.9636
57.3199
21.7391
-8.23314
-30.1518
-42.8392
-46.3782
-41.9511
-31.5609
-17.6827
-2.89445
10.4631
20.5587
26.2491
27.1488
23.5954
16.5252
7.28331
-2.6001
-11.6351
-18.5693
-22.5354
-23.1322
-20.4382
-14.9596
-7.528
0.835234
9.06658
16.1996
21.479
24.4364
24.9232
23.0991
19.3832
14.3775
8.77461
3.26457
-1.54938
-5.21487
-7.46911
-8.24994
-7.68079
-6.03436
-3.68173
-1.03493
1.50905
3.61619
5.04993
5.68968
5.53248
4.67988
3.3129
1.65991
-0.0379567
-1.55915
-2.72794
-3.43203
-3.63003
-3.34928
-2.67501
-1.73345
-0.671424
0.364387
1.24598
1.87815
2.20677
2.22061
1.94692
1.44171
0.776153
0.0212916
-0.767094
-1.56129
-2.37041
-3.24361
-4.26661
-5.55077
-7.2147
-9.35973
-12.0417
-15.2433
-18.8526
-22.6516
-26.3209
-29.4606
-31.6276
-32.3868
-31.3685
-28.3262
-23.1872
-16.086
-7.37672
2.38127
12.4648
22.0536
30.3145
36.4957
40.0168
40.5449
38.0431
32.7861
25.3375
16.4907
7.18115
-1.62053
-9.02
-14.3013
-17.0067
-16.9832
-14.3927
-9.68176
-3.51892
3.2932
9.91864
15.5884
19.6879
21.8207
21.8428
19.8632
16.2152
11.4003
6.017
0.681508
-4.04779
-7.73318
-10.1005
-11.0579
-10.6895
-9.22658
-7.0021
-4.39668
-1.78367
0.517926
2.27696
3.36628
3.76089
3.52053
2.76108
1.62098
0.229036
-1.32092
-2.98452
-4.76893
-6.7232
-8.91973
-11.431
-14.3062
-17.5529
-21.1264
-24.9302
-28.8266
-32.6576
-36.2711
-39.5497
-42.4352
-44.945
-47.1756
-49.2913
-51.4982
-54.0075
-56.9918
-60.5433
-64.6415
-69.1361
-73.7517
-78.1135
-81.7931
-84.3668
-85.4788
-84.8975
-82.5567
-78.5737
-73.2399
-66.9846
-60.3171
-53.7529
-47.7372
-42.5754
-38.3821
-35.0576
-32.295
-29.6199
-26.4561
-22.2104
-16.3631
-8.55328
1.35401
13.226
26.6527
40.9696
55.3102
68.6826
80.06
88.4776
93.1222
93.4075
89.0254
79.9702
66.5353
49.285
29.0112
6.6819
-16.6062
-39.6631
-61.223
-79.9417
-94.3796
-102.984
-104.087
-95.9421
-76.8232
-45.188
0.0848174
59.4124
132.212
216.646
309.461
405.976
500.262
585.522
654.651
700.944
718.852
704.703
657.273
578.131
471.673
344.832
206.479
66.5828
-64.7875
-178.474
-267.147
-326.013
-353.223
-349.942
-320.083
-269.748
-206.449
-138.222
-72.7386
-16.5249
25.6304
51.0177
59.0819
51.2422
30.5019
0.914506
-33.0159
-66.9208
-97.0699
-120.737
-136.398
-143.754
-143.597
-137.548
-127.713
-116.326
-105.4
-96.46
-90.3645
-87.2442
-86.5492
-87.1913
-87.7533
-86.7304
-82.7697
-74.8724
-62.5362
-45.8212
-25.3354
-2.1487
22.3506
46.6341
69.221
88.8533
104.636
116.128
123.38
126.908
127.616
126.679
125.399
125.046
126.717
131.211
138.956
149.964
163.848
179.876
197.063
214.28
230.378
244.297
255.166
262.365
265.56
264.706
260.012
251.898
240.921
227.712
212.904
197.084
180.757
164.316
148.05
132.145
116.71
101.796
87.4249
73.6098
60.3685
47.73
35.7326
24.4161
13.8115
3.93185
-5.23435
-13.7229
-21.5888
-28.8958
-35.7039
-42.0568
-47.9722
-53.4373
-58.4105
-62.829
-66.6213
-69.7228
-72.0913
-73.7199
-74.6459
-74.9538
-74.7715
-74.2611
-73.6059
-72.9941
-72.6035
-72.5866
-73.0596
-74.0952
-75.7188
-77.9096
-80.6029
-83.6961
-87.0544
-90.5167
-93.9015
-97.0106
-99.6331
-101.549
-102.533
-102.366
-100.843
-97.7952
-93.1124
-86.765
-78.8287
-69.4995
-59.0979
-48.0575
-36.8961
-26.1733
-16.4366
-8.16505
-1.71741
2.70696
5.08912
5.59002
4.52868
2.34252
-0.463939
-3.37405
-5.90973
-7.67114
-8.36127
-7.79496
-5.8946
-2.67738
1.76052
7.25753
13.5952
20.5006
27.6458
34.6468
41.07
46.448
50.3097
52.2231
51.8475
48.9888
43.648
36.0552
26.6791
16.2071
5.4931
-4.52264
-12.916
-18.8899
-21.8806
-21.6424
-18.2978
-12.3446
-4.61337
3.81748
11.7434
17.975
21.4825
21.525
17.748
10.2358
-0.486237
-13.5027
-27.6035
-41.412
-53.5283
-62.6691
-67.7865
-68.1529
-63.4061
-53.5519
-38.9323
-20.1664
1.92373
26.3924
52.2452
78.5036
104.257
128.703
151.168
171.129
188.212
202.2
213.017
220.718
225.469
227.517
227.162
224.72
220.494
214.745
207.672
199.406
190.009
179.493
167.836
155.014
141.032
125.961
109.972
93.3833
76.7049
60.7002
46.4444
35.3799
29.3419
30.5316
41.4019
64.4342
101.798
154.912
223.963
307.463
401.938
501.863
599.885
687.383
755.301
795.191
800.304
766.583
693.396
583.894
444.91
286.395
120.451
-39.9332
-182.266
-295.9
-373.154
-410.083
-406.788
-367.263
-298.783
-210.952
-114.525
-20.164
62.7122
126.858
167.81
184.121
177.228
150.99
110.988
63.6868
15.5748
-27.6058
-61.4612
-83.3171
-92.3381
-89.4045
-76.7887
-57.6916
-35.7131
-14.3306
3.54596
15.8955
21.7522
21.2129
15.2993
5.70964
-5.49597
-16.2283
-24.672
-29.522
-30.1258
-26.5238
-19.3881
-9.88042
0.548472
10.3831
18.2617
23.1602
24.52
22.3077
17.0043
9.5297
1.11554
-6.85449
-13.0164
-16.1888
-15.5083
-10.5231
-1.23686
11.8996
28.0456
46.0661
64.6544
82.4637
98.2366
110.914
119.718
124.198
124.245
120.072
112.163
101.214
88.0569
73.5796
58.6597
44.1001
30.5792
18.6146
8.53853
0.488762
-5.58901
-9.92467
-12.8951
-14.985
-16.7388
-18.7088
-21.402
-25.2307
-30.4716
-37.2356
-45.4542
-54.8812
-65.1128
-75.6237
-85.816
-95.0769
-102.838
-108.632
-112.137
-113.208
-111.89
-108.412
-103.167
-96.6672
-89.5029
-82.2814
-75.5738
-69.8623
-65.4972
-62.6652
-61.374
-61.4521
-62.5663
-64.2561
-65.98
-67.1731
-67.3076
-65.9508
-62.8146
-57.7891
-50.9575
-42.5896
-33.1141
-23.0735
-13.067
-3.68822
4.53592
11.196
16.0373
18.9775
20.1059
19.6633
18.0067
15.564
12.7834
10.0855
7.82038
6.23673
5.4643
5.51046
6.27062
7.54988
9.09281
10.6173
11.8486
12.5492
12.5425
11.7276
10.0845
7.67002
4.60628
1.06332
-2.76101
-6.66141
-10.4432
-13.9366
-17.0054
-19.5514
-21.5138
-22.865
-23.6057
-23.7576
-23.3586
-22.4581
-21.1141
-19.3918
-17.3635
-15.1078
-12.7093
-10.2573
-7.84239
-5.55335
-3.47174
-1.66676
-0.190017
0.928805
1.68478
2.09864
2.21557
2.10206
1.84145
1.52903
1.26779
1.16549
1.33328
1.88517
2.93711
4.60411
6.9938
10.1957
14.2663
19.2104
24.9615
31.3648
38.165
45.0059
51.4417
56.9648
61.0472
63.1934
62.9991
60.2077
54.7563
46.8042
36.7377
25.1487
12.7881
0.499364
-10.8599
-20.4953
-27.7393
-32.0842
-33.1704
-30.7201
-24.4169
-13.748
2.15545
24.6273
55.463
96.7527
150.528
218.246
300.179
394.836
498.549
605.356
707.269
794.94
858.685
889.707
881.36
830.251
736.976
606.385
447.286
271.629
93.2522
-73.6316
-216.019
-323.558
-389.657
-412.136
-393.331
-339.669
-260.766
-168.197
-74.0854
10.2959
75.7466
116.044
128.442
113.725
75.843
21.1997
-42.3019
-106.316
-163.085
-206.312
-231.798
-237.773
-224.907
-196.033
-155.632
-109.167
-62.3456
-20.4208
12.4036
33.3949
41.5057
37.3732
23.1204
1.99852
-22.0747
-45.0196
-63.0807
-73.2405
-73.5199
-63.1401
-42.5363
-13.234
22.3916
61.4369
100.83
137.687
169.621
194.973
212.937
223.582
227.762
226.945
222.98
217.844
213.393
211.164
212.223
217.106
225.817
237.903
252.556
268.752
285.381
301.366
315.753
327.767
336.836
342.596
344.862
343.598
338.878
330.851
319.709
305.674
288.988
269.91
248.73
225.77
201.402
176.053
150.209
124.41
99.237
75.291
53.16
33.3792
16.3868
2.47908
-8.22881
-15.8291
-20.6289
-23.1338
-24.0057
-23.9982
-23.8737
-24.314
-25.8342
-28.7127
-32.9469
-38.2435
-44.0458
-49.598
-54.0382
-56.5115
-56.2861
-52.8585
-46.0319
-35.9581
-23.1373
-8.3742
7.30191
22.7447
36.8127
48.4916
57.0011
61.8752
63.0043
60.6353
55.3289
47.8814
39.2214
30.2965
21.9635
14.899
9.53717
6.04376
4.32585
4.07423
4.83061
6.06879
7.27769
8.0343
8.05702
7.23313
5.61862
3.4129
0.914122
-1.5365
-3.61263
-5.05497
-5.71119
-5.55977
-4.71592
-3.41978
-2.00888
-0.877935
-0.430604
-1.02847
-2.94325
-6.31818
-11.1437
-17.2511
-24.3254
-31.937
-39.5876
-46.7657
-53.0029
-57.925
-61.2895
-63.0037
-63.1226
-61.8262
-59.3817
-56.097
-52.2741
-48.1721
-43.985
-39.8377
-35.8015
-31.9204
-28.2437
-24.852
-21.8715
-19.4685
-17.8254
-17.1014
-17.3856
-18.6513
-20.724
-23.2681
-25.8005
-27.7314
-28.4291
-27.302
-23.887
-17.9324
-9.4626
1.18517
13.3596
26.1329
38.3751
48.86
56.3922
59.9416
58.772
52.5471
41.4007
25.961
7.32288
-13.0314
-33.3535
-51.7781
-66.4759
-75.7874
-78.315
-72.9604
-58.91
-35.5886
-2.61543
40.1941
92.7467
154.496
224.187
299.585
377.243
452.427
519.248
571.045
601.017
603.037
572.528
507.284
408.08
278.964
127.156
-37.4765
-203.306
-358.109
-490.361
-590.492
-651.955
-671.94
-651.669
-596.213
-513.856
-415.109
-311.479
-214.167
-132.862
-74.7561
-43.9194
-41.0706
-63.7656
-106.947
-163.766
-226.542
-287.744
-340.839
-380.932
-405.118
-412.531
-404.113
-382.175
-349.812
-310.298
-266.529
-220.614
-173.643
-125.666
-75.8527
-22.8113
35.0237
98.9838
169.816
247.445
330.872
418.229
506.973
594.165
676.819
752.228
818.248
873.483
917.349
950.025
972.308
985.386
990.599
989.206
982.199
970.204
953.458
931.868
905.141
872.942
835.061
791.552
742.82
689.648
633.154
574.69
515.709
457.612
401.609
348.617
299.199
253.557
211.581
172.929
137.132
103.707
72.252
42.521
14.4598
-11.7906
-35.9254
-57.5317
-76.1603
-91.4
-102.946
-110.651
-114.555
-114.895
-112.083
-106.673
-99.3113
-90.6782
-81.4314
-72.1545
-63.3166
-55.2474
-48.1288
-42.0047
-36.8074
-32.3982
-28.6162
-25.3287
-22.4752
-20.0985
-18.3547
-17.5018
-17.8657
-19.7889
-23.5678
-29.3889
-37.2726
-47.0332
-58.2627
-70.3409
-82.4722
-93.7463
-103.214
-109.969
-113.23
-112.407
-107.151
-97.3835
-83.295
-65.3325
-44.1611
-20.6149
4.36247
29.781
54.6682
78.1287
99.3973
117.881
133.188
145.144
153.79
159.363
162.274
163.055
162.31
160.657
158.662
156.784
155.327
154.412
153.967
153.746
153.368
152.381
150.329
146.832
141.651
134.73
126.224
116.486
106.029
95.4618
85.4043
76.4009
68.8332
62.8517
58.3334
54.873
51.8125
48.3082
43.4306
36.2878
26.1587
12.6191
-4.35564
-24.3301
-46.4015
-69.2533
-91.2683
-110.691
-125.819
-135.209
-137.852
-133.316
-121.823
-104.242
-82.0223
-57.0392
-31.406
-7.2504
13.5046
29.3326
39.2458
42.8711
40.4553
32.8001
21.1403
6.98106
-8.08344
-22.5474
-35.1469
-44.9726
-51.5333
-54.7656
-54.9943
-52.8534
-49.1814
-44.9051
-40.9291
-38.0404
-36.8362
-37.6762
-40.6529
-45.5746
-51.9485
-58.9588
-65.436
-69.8249
-70.1693
-64.1385
-49.1294
-22.4701
18.2584
74.7958
147.712
235.929
336.356
443.735
550.788
648.71
727.978
779.414
795.347
770.715
703.927
597.343
457.281
293.518
118.357
-54.6432
-212.108
-342.265
-436.168
-488.58
-498.406
-468.645
-405.877
-319.37
-219.93
-118.652
-25.7137
50.6439
104.833
134.282
139.424
123.339
91.1307
49.1211
3.98915
-38.0498
-71.9243
-94.1808
-103.216
-99.2618
-84.1594
-60.9586
-33.4245
-5.51141
19.1255
37.5287
47.7105
48.7827
40.9486
25.3754
3.9814
-20.8273
-46.4339
-70.272
-90.0485
-103.914
-110.578
-109.36
-100.196
-83.5924
-60.5434
-32.4208
-0.846092
32.4467
65.7468
97.4915
126.371
151.41
172.011
187.975
199.477
207.017
211.349
213.392
214.128
214.517
215.406
217.469
221.163
226.703
234.07
243.022
253.129
263.815
274.395
284.119
292.209
297.9
300.474
299.301
293.879
283.883
269.199
249.959
226.562
199.666
170.167
139.147
107.798
77.3422
48.9305
23.5548
1.97026
-15.3594
-28.2868
-36.975
-41.8596
-43.5863
-42.9303
-40.7082
-37.6929
-34.5408
-31.7397
-29.5812
-28.1594
-27.3935
-27.0703
-26.8973
-26.562
-25.7855
-24.367
-22.2119
-19.3428
-15.8918
-12.0778
-8.17306
-4.46322
-1.20863
1.38957
3.21338
4.23985
4.54008
4.26668
3.63205
2.8812
2.26299
2.00362
2.28549
3.2335
4.90968
7.31546
10.4002
14.0733
18.2166
22.6952
27.3639
32.0686
36.6429
40.902
44.6364
47.6085
49.5552
50.1995
49.2707
46.5342
41.826
35.0887
26.4047
16.0189
4.34909
-8.02252
-20.3763
-31.902
-41.7615
-49.1634
-53.4414
-54.1286
-51.0179
-44.201
-34.0795
-21.3445
-6.9238
8.09602
22.5685
35.3938
45.6217
52.5391
55.7326
55.1169
50.9302
43.6944
34.1485
23.163
11.6474
0.460233
-9.66684
-18.1836
-24.7506
-29.2423
-31.7269
-32.4266
-31.6686
-29.8306
-27.2908
-24.3863
-21.3846
-18.4688
-15.7363
-13.2094
-10.8529
-8.5988
-6.37106
-4.11116
-1.80032
0.522663
2.74923
4.69571
6.10552
6.65964
5.99562
3.73531
-0.479962
-6.94831
-15.8637
-27.2739
-41.0447
-56.8351
-74.087
-92.0288
-109.694
-125.945
-139.5
-148.949
-152.756
-149.264
-136.691
-113.167
-76.8363
-26.0457
40.3559
122.623
219.675
328.688
444.825
561.22
669.269
759.292
821.504
847.205
830.009
766.942
659.198
512.411
336.371
144.173
-49.0948
-227.966
-378.297
-488.834
-552.43
-566.763
-534.471
-462.695
-362.112
-245.598
-126.691
-18.0667
69.7977
129.619
157.861
154.813
124.217
72.518
7.86218
-61.0134
-125.864
-179.857
-218.237
-238.671
-241.268
-228.297
-203.668
-172.258
-139.187
-109.126
-85.7367
-71.2872
-66.4805
-70.5032
-81.2631
-95.7737
-110.622
-122.453
-128.41
-126.473
-115.664
-96.0965
-68.8886
-35.9436
0.345193
37.4298
72.9314
104.913
132.066
153.803
170.242
182.102
190.536
196.924
202.659
208.962
216.738
226.495
238.326
251.952
266.802
282.136
297.162
311.148
323.51
333.863
342.027
348.006
351.928
353.972
354.29
352.94
349.844
344.768
337.351
327.148
313.712
296.671
275.823
251.192
223.082
192.077
159.014
124.926
90.9494
58.2236
27.7875
0.48654
-23.0969
-42.6829
-58.2997
-70.2558
-79.085
-85.4708
-90.1618
-93.8866
-97.2794
-100.823
-104.815
-109.354
-114.356
-119.585
-124.696
-129.295
-132.989
-135.437
-136.389
-135.714
-133.407
-129.586
-124.474
-118.37
-111.616
-104.558
-97.5138
-90.746
-84.4408
-78.6999
-73.5413
-68.9102
-64.6965
-60.7573
-56.9413
-53.1106
-49.1593
-45.0257
-40.6967
-36.2067
-31.6289
-27.0641
-22.626
-18.4274
-14.5677
-11.1242
-8.14625
-5.65414
-3.64078
-2.07624
-0.91374
-0.0962055
0.437484
0.747268
0.888035
0.907243
0.84393
0.728848
0.585369
0.430802
0.277795
0.135572
0.0108745
-0.0914543
-0.168201
-0.217736
-0.240071
-0.236878
-0.211306
-0.16744
-0.109185
-0.0384247
0.0476342
0.159812
0.320697
0.568261
0.958749
1.56823
2.49222
3.84294
5.74374
8.32055
11.6906
15.9489
21.1542
27.3157
34.3828
42.2403
50.7095
59.5565
68.5084
77.2736
85.5668
93.1347
99.7791
105.375
109.884
113.353
115.909
117.743
119.081
120.15
121.141
122.17
123.247
124.249
124.924
124.903
123.74
120.968
116.167
109.037
99.4615
87.5595
73.7138
58.5841
43.1059
28.4848
16.1927
7.96313
5.771
11.7695
28.1503
56.8977
99.4303
156.153
225.989
305.983
391.093
474.281
546.947
599.732
623.598
611.061
557.385
461.536
326.729
160.442
-26.1407
-219.206
-403.778
-565.384
-691.687
-773.877
-807.626
-793.502
-736.779
-646.7
-535.294
-415.911
-301.681
-204.071
-131.731
-89.7365
-79.3004
-97.9589
-140.166
-198.2
-263.244
-326.493
-380.158
-418.245
-437.046
-435.3
-414.049
-376.232
-326.093
-268.514
-208.343
-149.819
-96.1537
-49.2964
-9.90289
22.5224
49.3435
72.4274
93.752
115.046
137.507
161.625
187.133
213.077
237.987
260.121
277.74
289.385
294.099
291.591
282.295
267.344
248.444
227.682
207.29
189.389
175.764
167.67
165.721
169.847
179.338
192.946
209.057
225.877
241.633
254.746
263.977
268.504
267.957
262.393
252.219
238.099
220.843
201.299
180.273
158.476
136.494
114.797
93.7612
73.7031
54.9098
37.663
22.2462
8.93489
-2.02761
-10.4648
-16.3051
-19.6147
-20.6208
-19.7155
-17.4415
-14.4552
-11.4731
-9.20493
-8.28321
-9.19694
-12.2392
-17.4756
-24.7385
-33.6472
-43.6534
-54.104
-64.3151
-73.6464
-81.5679
-87.7108
-91.8966
-94.142
-94.6398
-93.7198
-91.7942
-89.2975
-86.6276
-84.0966
-81.898
-80.0935
-78.6202
-77.3156
-75.956
-74.3019
-72.1428
-69.3345
-65.8252
-61.6649
-56.9997
-52.051
-47.085
-42.3755
-38.1682
-34.6486
-31.9201
-29.9926
-28.7833
-28.1271
-27.7949
-27.5166
-27.0071
-25.9914
-24.2315
-21.5506
-17.8567
-13.1632
-7.60274
-1.4325
4.97443
11.1532
16.5883
20.7691
23.255
23.7418
22.1186
18.5067
13.2703
6.99438
0.430827
-5.58364
-10.2273
-12.7984
-12.8098
-10.0615
-4.67724
2.89993
11.9552
21.5885
30.8285
38.7601
44.6468
48.0306
48.7951
47.1815
43.7551
39.3276
34.8442
31.2522
29.3681
29.7625
32.6771
37.9863
45.2087
53.5673
62.09
69.737
75.5367
78.7117
78.7762
75.5923
69.3769
60.6608
50.2057
38.8937
27.6064
17.1094
7.96173
0.458155
-5.3859
-9.80908
-13.2434
-16.2288
-19.3161
-22.9714
-27.4928
-32.9452
-39.1136
-45.4692
-51.1421
-54.8935
-55.0951
-49.7302
-36.4515
-12.7305
23.8671
75.274
142.411
224.649
319.351
421.618
524.355
618.711
694.905
743.348
755.918
727.205
655.501
543.383
397.75
229.287
51.3973
-121.246
-274.357
-395.658
-476.262
-511.627
-501.964
-452.061
-370.562
-268.814
-159.449
-54.8777
34.0901
99.3583
136.254
143.779
124.409
83.492
28.3523
-32.7612
-91.7466
-141.604
-177.166
-195.538
-196.216
-180.898
-153.043
-117.26
-78.6064
-41.9107
-11.1854
10.7969
22.7285
24.786
18.4599
6.2352
-8.81962
-23.4966
-34.8631
-40.5996
-39.2257
-30.1989
-13.8887
8.55695
35.423
64.6824
94.2585
122.263
147.183
168.008
184.272
196.043
203.845
208.533
211.159
212.819
214.525
217.094
221.077
226.731
234.018
242.647
252.132
261.868
271.206
279.528
286.299
291.103
293.654
293.788
291.435
286.583
279.242
269.412
257.066
242.152
224.611
204.411
181.592
156.311
128.879
99.7838
69.6925
39.4224
9.89241
-17.9468
-43.1955
-65.0892
-83.0729
-96.8566
-106.443
-112.122
-114.439
-114.125
-112.021
-108.98
-105.78
-103.048
-101.202
-100.428
-100.678
-101.702
-103.097
-104.377
-105.039
-104.635
-102.833
-99.4592
-94.5237
-88.2259
-80.938
-73.171
-65.5246
-58.6239
-53.0509
-49.2734
-47.5824
-48.0422
-50.464
-54.4065
-59.2083
-64.0497
-68.0401
-70.3201
-70.168
-67.0959
-60.9224
-51.8122
-40.275
-27.1227
-13.3884
-0.215312
11.2704
20.0888
25.5203
27.1909
25.1164
19.7011
11.689
2.07572
-8.0091
-17.4328
-25.1876
-30.4999
-32.9073
-32.2953
-28.8908
-23.2147
-16.0021
-8.10109
-0.3646
6.45195
11.7741
15.2645
16.8474
16.7008
15.2198
12.9589
10.5605
8.67946
7.9123
8.73728
11.4712
16.245
22.9979
31.489
41.3214
51.9757
62.8461
73.2788
82.6069
90.1843
95.4175
97.7986
96.9374
92.5959
84.7191
73.4619
59.2048
42.5546
24.3264
5.50574
-12.8061
-29.4557
-43.2969
-53.2317
-58.2196
-57.2486
-49.2755
-33.1564
-7.60454
28.7807
77.372
139.241
214.761
303.148
402.019
507.087
612.113
709.171
789.285
843.371
863.382
843.49
781.125
677.665
538.666
373.544
194.725
16.3694
-147.181
-283.012
-381.091
-435.364
-444.366
-411.258
-343.302
-250.873
-146.135
-41.5644
51.4744
123.936
169.946
187.213
176.981
143.567
93.5639
34.847
-24.4929
-77.1374
-117.345
-141.484
-148.26
-138.628
-115.445
-82.9178
-45.9451
-9.43488
22.3039
46.0365
59.8947
63.4702
57.7166
44.6929
27.1967
8.34298
-8.85227
-21.8336
-28.7732
-28.7214
-21.6332
-8.28229
9.91589
31.1407
53.4266
74.9124
94.0519
109.761
121.496
129.248
133.486
135.03
134.908
134.191
133.848
134.619
136.94
140.905
146.277
152.545
159.003
164.852
169.305
171.677
171.458
168.357
162.322
153.52
142.308
129.181
114.715
99.5117
84.1504
69.151
54.9504
41.8909
30.2185
20.0886
11.5737
4.67284
-0.680839
-4.61455
-7.31111
-9.00427
-9.972
-10.5264
-10.9989
-11.7217
-13.0042
-15.1102
-18.2339
-22.4816
-27.8605
-34.2752
-41.5362
-49.3767
-57.4772
-65.4944
-73.09
-79.9552
-85.8286
-90.5051
-93.8372
-95.7298
-96.1324
-95.0318
-92.4473
-88.4316
-83.076
-76.5198
-68.9607
-60.6636
-51.9636
-43.2599
-35
-27.6511
-21.6619
-17.4169
-15.1877
-15.0882
-17.0406
-20.7579
-25.7501
-31.3556
-36.7987
-41.2688
-44.0121
-44.4252
-42.1381
-37.0723
-29.4662
-19.8609
-9.04774
2.0174
12.322
20.9131
27.0066
30.0757
29.9074
26.6208
20.6447
12.6603
3.51614
-5.87316
-14.6295
-22.0041
-27.4485
-30.6574
-31.5797
-30.3988
-27.4883
-23.3497
-18.5422
-13.6138
-9.04159
-5.18801
-2.27583
-0.383242
0.543165
0.661421
0.198189
-0.590512
-1.45658
-2.19069
-2.64374
-2.73742
-2.46403
-1.877
-1.07455
-0.179624
0.680979
1.39527
1.8805
2.09201
2.02612
1.71754
1.23253
0.659381
0.0978825
-0.350668
-0.591789
-0.543883
-0.141922
0.660995
1.89376
3.56853
5.68282
8.22205
11.1624
14.4739
18.1234
22.0778
26.3056
30.7785
35.4703
40.3542
45.3973
50.5541
55.7582
60.9146
65.895
70.5353
74.6397
77.9895
80.3576
81.5278
81.3159
79.59
76.2884
71.4313
65.1258
57.5629
49.0086
39.7891
30.2744
20.8627
11.9714
4.03789
-2.4632
-6.98214
-8.83474
-7.12544
-0.667084
12.0778
32.9992
64.2464
108.006
166.14
239.698
328.378
430.016
540.242
652.417
757.933
846.908
909.222
935.782
919.815
858.009
751.281
605.049
428.919
235.815
40.6482
-141.296
-296.043
-412.455
-483.413
-506.489
-484.057
-422.827
-332.901
-226.471
-116.357
-14.5546
69.0202
127.452
157.33
158.801
135.203
92.3578
37.6395
-21.0513
-76.2733
-121.875
-153.584
-169.309
-169.14
-155.089
-130.614
-100.024
-67.835
-38.1762
-14.3059
1.70852
9.12493
8.47701
1.36684
-9.85776
-22.4879
-33.8446
-41.6254
-44.1672
-40.5986
-30.8756
-15.7052
3.62088
25.453
48.0348
69.7447
89.2953
105.869
119.175
129.43
137.272
143.617
149.496
155.886
163.565
173.008
184.328
197.282
211.318
225.664
239.447
251.803
261.998
269.504
274.057
275.668
274.6
271.311
266.376
260.388
253.872
247.193
240.502
233.707
226.479
218.3
208.544
196.573
181.851
164.043
143.09
119.255
93.1221
65.5489
37.5905
10.3908
-14.9352
-37.4151
-56.3144
-71.2006
-81.9712
-88.8428
-92.3064
-93.0551
-91.8969
-89.6622
-87.1192
-84.9042
-83.4739
-83.0826
-83.7829
-85.4481
-87.8106
-90.5098
-93.1449
-95.3246
-96.7102
-97.0478
-96.1891
-94.0978
-90.845
-86.5934
-81.5738
-76.0576
-70.3277
-64.6532
-59.2699
-54.3682
-50.0905
-46.5337
-43.756
-41.7819
-40.6035
-40.1758
-40.4066
-41.1444
-42.17
-43.1954
-43.8765
-43.8403
-42.7246
-40.2263
-36.1514
-30.4562
-23.2742
-14.9203
-5.87207
3.27392
11.8628
19.2541
24.8949
28.3858
29.5292
28.3545
25.1181
20.2755
14.4325
8.27816
2.50891
-2.2491
-5.50982
-6.98216
-6.60279
-4.54211
-1.18141
2.9376
7.18579
10.9336
13.6403
14.9338
14.6679
12.9484
10.1241
6.74161
3.47255
1.02131
0.0284218
0.982587
4.15395
9.55744
16.9505
25.8646
35.6644
45.6272
55.029
63.2285
69.7362
74.2633
76.7429
77.3257
76.3487
74.2839
71.672
69.0486
66.8717
65.4583
64.9376
65.2261
66.0292
66.8685
67.1339
66.1547
63.2824
57.9746
49.8726
38.8609
25.1027
9.04657
-8.59552
-26.8935
-44.7596
-61.0098
-74.4139
-83.7219
-87.6633
-84.9254
-74.1296
-53.8375
-22.6227
20.7591
77.0885
146.305
227.09
316.492
409.719
500.183
579.877
640.097
672.442
669.965
628.299
546.563
427.875
279.363
111.628
-62.2873
-228.293
-372.831
-484.415
-554.924
-580.485
-561.823
-504.051
-415.942
-308.793
-195.037
-86.7998
5.4283
73.8442
113.991
124.973
109.24
71.9857
20.2799
-37.9438
-94.9077
-143.889
-179.903
-200.098
-203.862
-192.63
-169.468
-138.507
-104.296
-71.1872
-42.8115
-21.7012
-9.09841
-4.94696
-8.04972
-16.354
-27.3138
-38.274
-46.8246
-51.0826
-49.8729
-42.7961
-30.1868
-12.9813
7.47852
29.6707
52.1166
73.5726
93.1678
110.476
125.52
138.709
150.733
162.42
174.59
187.918
202.826
219.418
237.47
256.455
275.617
294.074
310.925
325.359
336.742
344.678
349.031
349.915
347.646
342.679
335.524
326.667
316.5
305.265
293.033
279.708
265.063
248.798
230.61
210.275
187.715
163.044
136.594
108.908
80.6995
52.7996
26.0773
1.36076
-20.6382
-39.3869
-54.5744
-66.1283
-74.2074
-79.1689
-81.5169
-81.837
-80.7265
-78.7298
-76.2852
-73.6917
-71.0993
-68.5219
-65.8714
-63.0058
-59.7816
-56.1039
-51.9617
-47.4458
-42.7431
-38.1106
-33.8341
-30.1776
-27.3354
-25.3937
-24.3087
-23.9066
-23.9029
-23.9415
-23.643
-22.6592
-20.7219
-17.6816
-13.5287
-8.39599
-2.54256
3.6791
9.86673
15.617
20.5724
24.4605
27.121
28.517
28.7313
27.9479
26.4232
24.4505
22.3239
20.3048
18.5965
17.3278
16.5474
16.2281
16.2793
16.5651
16.925
17.1945
17.224
16.8921
16.1151
14.8497
13.0907
10.8642
8.2173
5.20598
1.88403
-1.70596
-5.53768
-9.60108
-13.8973
-18.4285
-23.1845
-28.1275
-33.1775
-38.2025
-43.0141
-47.3728
-51.001
-53.6054
-54.9051
-54.6618
-52.7082
-48.9716
-43.4869
-36.3991
-27.9545
-18.4796
-8.35269
2.02954
12.2863
22.0825
31.151
39.3025
46.4237
52.4636
57.4102
61.2641
64.0118
65.6068
65.9601
64.9447
62.4129
58.2252
52.2855
44.5776
35.1964
24.3676
12.452
-0.0661831
-12.608
-24.5378
-35.2039
-43.9695
-50.2215
-53.3463
-52.6699
-47.3713
-36.3913
-18.378
8.28883
45.3488
94.3681
156.313
231.046
316.835
410.005
504.831
593.787
668.155
718.966
738.156
719.76
660.963
562.808
430.437
272.789
101.777
-68.9563
-225.545
-355.453
-448.881
-499.829
-506.679
-472.255
-403.338
-309.74
-203.068
-95.3345
2.39016
81.1338
134.85
160.844
159.77
135.242
93.1166
40.5924
-14.7817
-66.0365
-107.554
-135.597
-148.554
-146.901
-132.898
-110.108
-82.7844
-55.245
-31.2966
-13.7827
-4.30094
-3.10971
-9.21756
-20.6272
-34.6874
-48.498
-59.31
-64.8706
-63.6725
-55.0857
-39.3637
-17.5377
8.78014
37.6459
67.0505
95.1656
120.538
142.215
159.789
173.367
183.479
190.945
196.719
201.739
206.804
212.481
219.065
226.573
234.79
243.326
251.708
259.453
266.143
271.466
275.237
277.383
277.909
276.845
274.192
269.873
263.708
255.414
244.628
230.968
214.097
193.805
170.07
143.11
113.399
81.6483
48.7617
15.7586
-16.3143
-46.4766
-73.8974
-97.9601
-118.299
-134.81
-147.627
-157.085
-163.663
-167.917
-170.427
-171.738
-172.323
-172.554
-172.69
-172.878
-173.169
-173.541
-173.927
-174.246
-174.426
-174.421
-174.216
-173.822
-173.259
-172.532
-171.61
-170.408
-168.771
-166.484
-163.285
-158.902
-153.084
-145.65
-136.519
-125.739
-113.496
-100.102
-85.9764
-71.6064
-57.5002
-44.1414
-31.9443
-21.2199
-12.1526
-4.79302
0.935737
5.2193
8.32354
10.5608
12.2551
13.7093
15.1794
16.856
18.8557
21.222
23.9347
26.9265
30.1029
33.364
36.6232
39.8207
42.9288
45.9495
48.9038
51.8153
54.6925
57.5127
60.2107
62.6763
64.7601
66.2879
67.0808
66.9792
65.8654
63.682
60.4433
56.2379
51.2219
45.604
39.6243
33.5296
27.5495
21.875
16.6439
11.933
7.75917
4.08789
0.847805
-2.05086
-4.69687
-7.16029
-9.47896
-11.6508
-13.6326
-15.3457
-16.6869
-17.5433
-17.8092
-17.4029
-16.2822
-14.456
-11.9941
-9.03218
-5.77453
-2.49266
0.48
2.75922
3.92849
3.56621
1.28127
-3.24464
-10.2118
-19.6594
-31.431
-45.1539
-60.2372
-75.8919
-91.1689
-105.011
-116.305
-123.924
-126.739
-123.602
-113.308
-94.551
-65.9232
-25.9895
26.5192
92.3905
171.522
262.486
362.167
465.585
565.986
655.267
724.705
765.94
772.066
738.677
664.698
552.85
409.663
244.99
71.0872
-98.6504
-251.118
-374.918
-461.578
-506.419
-508.95
-472.784
-405.066
-315.525
-215.27
-115.504
-26.2965
44.4208
91.5401
113.086
110.138
86.4062
47.5435
0.302585
-48.3559
-92.0882
-125.836
-146.279
-152.034
-143.616
-123.172
-94.0617
-60.3399
-26.2069
4.49609
28.7022
44.4024
50.7804
48.197
38.0428
22.4882
4.16932
-14.1452
-29.8695
-40.8615
-45.6075
-43.3181
-33.9346
-18.0571
3.18833
28.3206
55.6878
83.6435
110.696
135.619
157.517
175.848
190.404
201.272
208.762
213.346
215.584
216.072
215.399
214.12
212.742
211.717
211.434
212.219
214.311
217.844
222.819
229.072
236.249
243.791
250.944
256.79
260.31
260.47
256.333
247.17
232.572
212.535
187.503
158.375
126.442
93.2874
60.6441
30.2247
3.5536
-18.1845
-34.2587
-44.4544
-49.0773
-48.8994
-45.0565
-38.9107
-31.8967
-25.3732
-20.4953
-18.1207
-18.7586
-22.5587
-29.3369
-38.6278
-49.7544
-61.9047
-74.2078
-85.8039
-95.9053
-103.847
-109.124
-111.425
-110.64
-106.87
-100.415
-91.7494
-81.4836
-70.318
-58.9846
-48.1878
-38.5461
-30.5425
-24.4867
-20.495
-18.4896
-18.2164
-19.2811
-21.1972
-23.4423
-25.5144
-26.984
-27.5339
-26.9851
-25.3046
-22.5974
-19.0823
-15.0575
-10.8597
-6.82236
-3.23712
-0.324524
1.78508
3.05782
3.5504
3.39368
2.76856
1.87792
0.918625
0.0572644
-0.587329
-0.953051
-1.03448
-0.874722
-0.551011
-0.15696
0.215694
0.492918
0.629593
0.614821
0.471082
0.248056
0.0127091
-0.162287
-0.209609
-0.0758967
0.273436
0.853823
1.66543
2.70033
3.9514
5.42108
7.12798
9.10996
11.4225
14.1329
17.3101
21.0131
25.2787
30.1115
35.477
41.3007
47.4718
53.8525
60.2909
66.6343
72.7423
78.4946
83.7936
88.5607
92.7276
96.2247
98.9702
100.862
101.777
101.576
100.115
97.2647
92.9274
87.055
79.6627
70.8349
60.7249
49.5472
37.5664
25.0849
12.4379
-0.00155237
-11.7973
-22.4031
-31.0932
-36.8775
-38.4238
-34.0151
-21.5854
1.12713
36.2841
85.5105
149.365
226.803
314.754
407.932
498.995
579.079
638.704
668.945
662.691
615.821
528.064
403.42
250.011
79.3823
-94.683
-257.684
-396.045
-498.662
-558.149
-571.618
-540.899
-472.193
-375.208
-261.917
-145.108
-36.9145
52.4942
115.901
149.621
153.619
131.195
88.3008
32.602
-27.5778
-84.295
-130.883
-162.609
-177.037
-174.08
-155.758
-125.729
-88.6708
-49.5969
-13.2026
16.6803
37.4689
48.0188
48.6176
40.8003
27.0288
10.2884
-6.3395
-20.0733
-28.7491
-31.0284
-26.4802
-15.5411
0.631682
20.3831
41.8255
63.1072
82.6512
99.335
112.594
122.441
129.406
134.406
138.579
143.092
148.966
156.922
167.294
179.987
194.509
210.045
225.578
240.025
252.376
261.808
267.777
270.05
268.707
264.092
256.733
247.244
236.22
224.15
211.353
197.953
183.891
168.977
152.964
135.636
116.891
96.8018
75.6521
53.93
32.2901
11.4851
-7.72199
-24.6488
-38.7772
-49.8158
-57.7331
-62.758
-65.348
-66.1305
-65.8253
-65.1593
-64.7845
-65.2086
-66.7463
-69.4965
-73.3456
-77.9954
-83.0113
-87.8822
-92.086
-95.1507
-96.7052
-96.5132
-94.4879
-90.6873
-85.2928
-78.5766
-70.8623
-62.4889
-53.7787
-45.0169
-36.4419
-28.2447
-20.5773
-13.5629
-7.30725
-1.90563
2.55499
5.99996
8.37575
9.66182
9.8826
9.117
7.50271
5.2338
2.55087
-0.275629
-2.96715
-5.26122
-6.93489
-7.82451
-7.83941
-6.96815
-5.277
-2.90148
-0.0322577
3.10266
6.25775
9.18998
11.6773
13.5348
14.6267
14.8749
14.2616
12.8286
10.6711
7.92845
4.77166
1.39019
-2.02204
-5.27911
-8.21367
-10.6845
-12.5809
-13.8243
-14.3666
-14.1863
-13.2829
-11.6695
-9.36598
-6.39181
-2.76195
1.51456
6.43155
11.9787
18.1314
24.839
32.0147
39.5285
47.2057
54.8329
62.1703
68.9696
74.9956
80.0482
83.9816
86.7175
88.2517
88.6515
88.0449
86.6042
84.5243
82.0006
79.2072
76.2785
73.2958
70.2787
67.1829
63.9042
60.29
56.158
51.3241
45.6378
39.0276
31.5547
23.4742
15.3
7.86671
2.37733
0.417761
3.91696
15.0275
35.9075
68.3988
113.619
171.518
240.472
317.012
395.79
469.829
531.109
571.427
583.444
561.766
503.888
410.833
287.373
141.747
-15.0858
-170.593
-312.048
-427.975
-509.44
-551.047
-551.475
-513.535
-443.712
-351.303
-247.247
-142.827
-48.4003
27.682
79.8503
105.709
106.025
84.3492
46.3384
-1.112
-50.8024
-96.1133
-131.735
-154.168
-161.952
-155.627
-137.444
-110.899
-80.1567
-49.4439
-22.5021
-2.14935
9.99547
13.6101
9.59131
-0.170881
-13.1254
-26.4458
-37.4163
-43.7672
-43.923
-37.1388
-23.5192
-3.92891
20.1816
47.0045
74.6215
101.237
125.367
145.971
162.51
174.935
183.627
189.28
192.77
195.025
196.893
199.057
201.968
205.83
210.604
216.059
221.822
227.453
232.509
236.6
239.429
240.813
240.678
239.039
235.965
231.539
225.82
218.808
210.438
200.58
189.059
175.693
160.335
142.914
123.471
102.187
79.3849
55.5244
31.1779
6.99338
-16.35
-38.1894
-57.9253
-75.0622
-89.2416
-100.265
-108.105
-112.908
-114.978
-114.762
-112.812
-109.748
-106.207
-102.789
-100.007
-98.2361
-97.6723
-98.3134
-99.9551
-102.211
-104.558
-106.395
-107.118
-106.197
-103.248
-98.0835
-90.7453
-81.5058
-70.8419
-59.3841
-47.846
-36.9461
-27.3281
-19.4941
-13.7545
-10.2031
-8.71721
-8.98268
-10.5386
-12.8351
-15.2961
-17.3808
-18.6356
-18.7339
-17.5008
-14.9218
-11.1368
-6.42128
-1.15635
4.20935
9.20308
13.3735
16.3344
17.8038
17.6325
15.8218
12.5257
8.03759
2.76276
-2.82144
-8.21343
-12.9381
-16.5944
-18.8953
-19.6938
-18.9945
-16.9471
-13.825
-9.99092
-5.85365
-1.82262
1.73581
4.53432
6.3896
7.23385
7.11269
6.17048
4.62616
2.74314
0.797691
-0.950285
-2.28046
-3.02691
-3.08333
-2.39896
-0.966862
1.19262
4.0495
7.57941
11.7732
16.6388
22.1957
28.4611
35.433
43.0707
51.2784
59.8938
68.6852
77.3566
85.5623
92.9265
99.0677
103.623
106.273
106.759
104.906
100.628
93.9422
84.9729
73.9505
61.2082
47.1728
32.3506
17.31
2.66571
-10.9293
-22.7758
-32.0967
-37.9799
-39.3051
-34.6765
-22.3979
-0.531249
32.9237
79.7137
140.897
216.344
304.272
400.915
500.45
595.246
676.462
734.959
762.413
752.483
701.842
610.918
484.19
329.97
159.686
-13.2813
-175.032
-312.691
-415.832
-477.615
-495.482
-471.325
-411.129
-324.147
-221.726
-115.942
-18.232
61.822
117.413
145.044
144.641
119.262
74.469
17.4614
-43.8963
-102.039
-150.536
-184.717
-202.03
-202.112
-186.608
-158.758
-122.857
-83.6284
-45.6302
-12.7298
12.277
27.8802
33.8949
31.3364
22.1656
8.94843
-5.52036
-18.578
-27.9968
-32.1977
-30.3578
-22.4116
-8.95775
8.90347
29.7724
52.1606
74.6807
96.1948
115.907
133.394
148.589
161.71
173.166
183.459
193.074
202.404
211.695
221.02
230.285
239.261
247.632
255.046
261.168
265.725
268.531
269.498
268.632
266.009
261.751
255.991
248.844
240.383
230.63
219.554
207.087
193.148
177.682
160.688
142.263
122.62
102.1
81.1627
60.357
40.2814
21.529
4.6345
-9.97428
-22.0109
-31.3471
-38.0104
-42.164
-44.0738
-44.069
-42.5036
-39.7249
-36.0533
-31.7749
-27.1457
-22.404
-17.7838
-13.5258
-9.88012
-7.09649
-5.40459
-4.9847
-5.93525
-8.24326
-11.7643
-16.2177
-21.199
-26.2115
-30.7116
-34.1642
-36.0998
-36.1664
-34.1689
-30.0908
-24.0961
-16.5111
-7.78959
1.53515
10.9031
19.7805
27.7059
34.3255
39.4133
42.8775
44.7512
45.1726
44.3565
42.5619
40.0592
37.1005
33.8968
30.6007
27.2994
24.0143
20.7088
17.3018
13.6854
9.7443
5.37416
0.496379
-4.93256
-10.9179
-17.4287
-24.4033
-31.7551
-39.3762
-47.1368
-54.8816
-62.4235
-69.5401
-75.9736
-81.4404
-85.6489
-88.3266
-89.2523
-88.2898
-85.4173
-80.748
-74.5372
-67.1731
-59.151
-51.0311
-43.3843
-36.7314
-31.4832
-27.8892
-26.003
-25.67
-26.5393
-28.1009
-29.7427
-30.8212
-30.7362
-29.0008
-25.2969
-19.5097
-11.7376
-2.27612
8.42026
19.7933
31.2441
42.1961
52.1488
60.7155
67.6409
72.7987
76.1702
77.8116
77.8154
76.2759
73.2639
68.8161
62.9408
55.6371
46.9254
36.8803
25.6636
13.5492
0.942108
-11.6085
-23.3955
-33.5341
-40.9319
-44.2539
-41.8943
-31.9818
-12.4482
18.8059
63.6295
123.228
197.693
285.537
383.33
485.544
584.711
671.94
737.767
773.273
771.302
727.608
641.728
517.424
362.594
188.63
9.2805
-160.826
-307.809
-420.099
-489.723
-513.143
-491.55
-430.585
-339.544
-230.172
-115.239
-7.05733
83.8497
149.788
186.528
193.48
173.437
131.922
76.2838
14.6463
-45.1363
-96.388
-134.288
-156.251
-161.991
-153.291
-133.537
-107.1
-78.6479
-52.4979
-32.0711
-19.5214
-15.5618
-19.4974
-29.4393
-42.6582
-56.0196
-66.4374
-71.2876
-68.7305
-57.9076
-38.9986
-13.1387
17.7796
51.39
85.1764
116.794
144.349
166.593
183.034
193.928
200.185
203.191
204.588
206.03
208.961
214.436
222.998
234.64
248.838
264.64
280.819
296.041
309.041
318.773
324.533
326.019
323.337
316.956
307.616
296.201
283.608
270.616
257.785
245.386
233.383
221.459
209.092
195.66
180.557
163.323
143.739
121.892
98.1974
73.369
48.345
24.1825
1.93444
-17.4741
-33.3511
-45.3114
-53.3101
-57.6312
-58.8369
-57.685
-55.0276
-51.7056
-48.4535
-45.8256
-44.1525
-43.5299
-43.8401
-44.7985
-46.0193
-47.0869
-47.6257
-47.3576
-46.1411
-43.9872
-41.0526
-37.6116
-34.011
-30.616
-27.7538
-25.6634
-24.4588
-24.1103
-24.4468
-25.1784
-25.9357
-26.3216
-25.9666
-24.5817
-22.0012
-18.2103
-13.3544
-7.72831
-1.74823
4.09102
9.26714
13.2841
15.7225
16.2803
14.8024
11.2944
5.92288
-0.99891
-9.0357
-17.6642
-26.3127
-34.4033
-41.3948
-46.8213
-50.3269
-51.691
-50.8437
-47.8699
-43.0007
-36.5939
-29.1045
-21.0482
-12.96
-5.35296
1.32032
6.70051
10.5451
12.7416
13.3097
12.3915
10.2337
7.16107
3.54619
-0.22211
-3.76844
-6.75553
-8.90205
-9.99234
-9.8781
-8.47344
-5.74547
-1.7032
3.61234
10.1347
17.7738
26.4142
35.9091
46.0746
56.6853
67.4735
78.1356
88.343
97.7607
106.068
112.981
118.271
121.784
123.44
123.234
121.228
117.529
112.274
105.616
97.7117
88.7262
78.8384
68.2575
57.2383
46.0914
35.1844
24.9316
15.7781
8.18764
2.64754
-0.295691
0.0334106
4.5338
14.4179
31.251
56.8884
93.2654
142.03
204.044
278.839
364.134
455.551
546.648
629.324
694.595
733.666
739.147
706.216
633.552
523.847
383.81
223.619
55.8939
-105.686
-247.932
-359.646
-432.877
-463.761
-452.848
-404.893
-328.139
-233.226
-131.856
-35.4145
46.2862
106
139.663
146.579
129.203
92.5534
43.3765
-10.8225
-62.7528
-106.192
-136.626
-151.623
-150.906
-136.161
-110.618
-78.4835
-44.3107
-12.3937
13.7448
31.7132
40.4319
40.1296
32.1764
18.7914
2.67768
-13.3627
-26.7804
-35.5577
-38.3855
-34.732
-24.8041
-9.4249
10.1482
32.4319
55.9211
79.2634
101.386
121.566
139.443
154.984
168.414
180.117
190.548
200.141
209.245
218.089
226.768
235.263
243.476
251.27
258.521
265.141
271.103
276.434
281.193
285.432
289.155
292.27
294.56
295.668
295.104
292.276
286.552
277.327
264.114
246.624
224.84
199.062
169.924
138.37
105.596
72.9572
41.8552
13.6189
-10.6122
-29.9846
-43.9986
-52.5411
-55.8828
-54.6399
-49.7101
-42.187
-33.2652
-24.1422
-15.926
-9.55468
-5.73216
-4.88499
-7.14147
-12.3345
-20.0275
-29.5613
-40.1182
-50.7985
-60.7024
-69.0104
-75.0547
-78.3748
-78.7534
-76.2269
-71.0735
-63.777
-54.9739
-45.3876
-35.7583
-26.7744
-19.0135
-12.8981
-8.66825
-6.37495
-5.89108
-6.939
-9.1296
-12.0078
-15.0993
-17.9525
-20.1736
-21.4496
-21.562
-20.3896
-17.9052
-14.1676
-9.3133
-3.5483
2.85963
9.58932
16.2774
22.5339
27.9638
32.1935
34.9007
35.8442
34.8902
32.0304
27.3898
21.2214
13.8886
5.83612
-2.44739
-10.4701
-17.778
-23.9907
-28.8287
-32.1309
-33.8586
-34.0896
-33.0008
-30.8438
-27.9148
-24.524
-20.9655
-17.4922
-14.2974
-11.5026
-9.15528
-7.23195
-5.64946
-4.28013
-2.97027
-1.55951
0.100742
2.13177
4.61602
7.59065
11.0463
14.9311
19.1579
23.6157
28.1802
32.7251
37.1306
41.2886
45.1052
48.5002
51.4042
53.7558
55.4991
56.582
56.9569
56.5821
55.4249
53.4646
50.6955
47.13
42.8017
37.7691
32.1192
25.9719
19.4834
12.8486
6.30367
0.132771
-5.31696
-9.60256
-12.1301
-12.0785
-8.31665
0.656213
16.7038
41.9345
78.4373
127.871
190.944
266.88
352.972
444.377
534.229
614.142
675.061
708.381
707.154
667.207
587.975
472.898
329.294
167.714
0.849275
-157.866
-295.755
-402.305
-470.304
-496.551
-482.072
-431.83
-353.988
-258.834
-157.528
-60.8249
22.0686
84.3695
122.248
134.97
124.671
95.8138
54.4321
7.25894
-39.1354
-79.0978
-108.457
-124.848
-127.786
-118.497
-99.5649
-74.4457
-46.9291
-20.6201
1.50036
17.3868
26.0899
27.7612
23.5192
15.2075
5.08651
-4.49512
-11.4085
-13.9945
-11.231
-2.80486
10.912
28.9713
50.0193
72.505
94.8938
115.859
134.425
150.057
162.671
172.59
180.445
187.044
193.226
199.728
207.076
215.522
225.016
235.232
245.63
255.541
264.264
271.162
275.744
277.711
276.983
273.675
268.059
260.495
251.35
240.927
229.412
216.849
203.144
188.113
171.549
153.301
133.354
111.885
89.2924
66.1836
43.3263
21.5685
1.74008
-15.4487
-29.4962
-40.1714
-47.5408
-51.9557
-54.003
-54.4265
-54.0321
-53.5886
-53.7397
-54.9371
-57.4033
-61.1264
-65.8861
-71.3045
-76.9128
-82.2237
-86.7989
-90.3017
-92.5303
-93.426
-93.0601
-91.6015
-89.2727
-86.3023
-82.8827
-79.1397
-75.1183
-70.7882
-66.0655
-60.8476
-55.0541
-48.6667
-41.7598
-34.5167
-27.227
-20.2642
-14.0468
-8.98631
-5.43121
-3.61311
-3.60465
-5.29503
-8.38782
-12.4224
-16.8169
-20.9291
-24.1259
-25.8559
-25.7141
-23.4919
-19.2069
-13.1076
-5.65332
2.5286
10.7053
18.1129
24.0362
27.8845
29.2561
27.983
24.1513
18.0939
10.3567
1.6411
-7.26958
-15.5922
-22.6239
-27.8125
-30.807
-31.4864
-29.9604
-26.546
-21.7218
-16.0668
-10.1916
-4.66925
0.0250124
3.56028
5.77787
6.69917
6.51412
5.55327
4.24765
3.08174
2.5447
3.08466
5.06973
8.75852
14.2817
21.6347
30.6818
41.169
52.7443
64.9828
77.4141
89.5496
100.908
111.038
119.54
126.078
130.398
132.336
131.824
128.893
123.67
116.375
107.303
96.8143
85.3059
73.1911
60.8721
48.7155
37.0332
26.0709
16.0095
6.9821
-0.889598
-7.43748
-12.369
-15.1746
-15.0339
-10.7426
-0.690966
17.0739
44.6701
84.0763
136.712
202.949
281.644
369.779
462.332
552.45
631.955
692.162
724.916
723.702
684.659
607.333
495.038
354.74
196.463
32.2905
-124.928
-262.978
-371.612
-443.639
-475.637
-468.204
-425.729
-355.735
-267.885
-172.8
-80.8349
-0.972046
60.0463
98.2541
112.629
104.899
79.0518
40.6195
-4.13123
-49.0117
-88.6193
-118.868
-137.297
-143.152
-137.244
-121.649
-99.2893
-73.4746
-47.4534
-24.0363
-5.32006
7.46942
14.0122
14.8229
11.0939
4.48339
-3.12304
-9.84829
-14.0324
-14.3959
-10.1448
-1.01398
12.7513
30.4667
51.121
73.5136
96.3992
118.625
139.243
157.589
173.324
186.428
197.159
205.986
213.499
220.314
226.987
233.943
241.424
249.478
257.953
266.534
274.784
282.196
288.255
292.482
294.479
293.954
290.733
284.754
276.05
264.73
250.953
234.909
216.806
196.869
175.346
152.518
128.713
104.317
79.7734
55.5753
32.2498
10.3275
-9.69092
-27.3731
-42.3901
-54.547
-63.8025
-70.2775
-74.249
-76.1306
-76.4412
-75.7631
-74.6956
-73.8048
-73.5785
-74.3855
-76.4463
-79.8162
-84.381
-89.8682
-95.8698
-101.877
-107.323
-111.633
-114.276
-114.817
-112.962
-108.59
-101.781
-92.814
-82.1569
-70.4305
-58.3594
-46.71
-36.2215
-27.5372
-21.1412
-17.3084
-16.0709
-17.2062
-20.249
-24.5284
-29.228
-33.4669
-36.3937
-37.2849
-35.6358
-31.2315
-24.1882
-14.9555
-4.27872
6.87896
17.4437
26.3568
32.7035
35.8262
35.4096
31.5229
24.6158
15.4668
5.09135
-5.37628
-14.8133
-22.2324
-26.8865
-28.3405
-26.5063
-21.6375
-14.2873
-5.23719
4.59428
14.2521
22.8428
29.6204
34.0511
35.8527
35.0048
31.7312
26.4592
19.7601
12.28
4.67023
-2.47628
-8.67408
-13.576
-16.9837
-18.8403
-19.2064
-18.2278
-16.0983
-13.0241
-9.1946
-4.76222
0.16706
5.53296
11.3111
17.4967
24.0849
31.0502
38.3291
45.8076
53.3159
60.6311
67.4886
73.5994
78.673
82.4422
84.6865
85.2517
84.0622
81.1252
76.5267
70.4185
63.0006
54.5004
45.1519
35.1801
24.7918
14.1779
3.5296
-6.92832
-16.8857
-25.8759
-33.1913
-37.7951
-38.2502
-32.6929
-18.8865
5.61349
43.1614
95.5951
163.721
246.781
342.021
444.45
546.927
640.606
715.748
762.834
773.819
743.347
669.739
555.561
407.67
236.69
55.9699
-119.847
-276.451
-401.471
-485.852
-524.811
-518.265
-470.681
-390.398
-288.51
-177.481
-69.6738
24.0237
95.3074
139.188
154.277
142.622
109.152
60.8225
5.5877
-48.6518
-95.0072
-128.348
-145.764
-146.715
-132.865
-107.658
-75.7067
-42.0777
-11.5875
11.8183
25.5214
28.4824
21.2703
5.88577
-14.5852
-36.4296
-55.8131
-69.2672
-74.0998
-68.6851
-52.6065
-26.6462
7.3658
46.8161
88.6457
129.716
167.157
198.664
222.704
238.622
246.644
247.779
243.648
236.255
227.739
220.133
215.147
214.012
217.378
225.29
237.221
252.17
268.794
285.573
300.972
313.599
322.331
326.408
325.47
319.561
309.079
294.698
277.265
257.693
236.854
215.502
194.215
173.373
153.172
133.659
114.788
96.4827
78.6873
61.4133
44.7572
28.8992
14.0797
0.561423
-11.4159
-21.6802
-30.163
-36.9194
-42.1311
-46.0902
-49.1676
-51.7702
-54.2934
-57.0748
-60.356
-64.2567
-68.7634
-73.7346
-78.9197
-83.9909
-88.5817
-92.3283
-94.9099
-96.0813
-95.6971
-93.7233
-90.2371
-85.4158
-79.5154
-72.8449
-65.7358
-58.5139
-51.4739
-44.8596
-38.8523
-33.5656
-29.0475
-25.2886
-22.2338
-19.7957
-17.8687
-16.3415
-15.1066
-14.0674
-13.1421
-12.2654
-11.3876
-10.4738
-9.50178
-8.46078
-7.35019
-6.17896
-4.96511
-3.73509
-2.52266
-1.36702
-0.310084
0.60703
1.34797
1.88518
2.20334
2.30174
2.19503
1.91225
1.49407
0.988671
0.446899
-0.0827184
-0.558346
-0.948127
-1.23205
-1.40232
-1.46241
-1.42497
-1.30917
-1.13765
-0.933397
-0.71675
-0.502232
-0.295265
-0.0886475
0.140794
0.434632
0.85325
1.47314
2.38034
3.66006
5.38357
7.59438
10.2969
13.4507
16.9727
20.7486
24.6533
28.5752
32.4425
36.2432
40.0355
43.9448
48.1455
52.8287
58.1626
64.2484
71.0814
78.5237
86.2937
93.9747
101.045
106.924
111.031
112.846
111.972
108.181
101.447
91.9572
80.1024
66.4461
51.6813
36.577
21.9242
8.49019
-3.00976
-11.9147
-17.5877
-19.3529
-16.4068
-7.72674
7.9913
32.3223
66.9876
113.591
173.217
245.939
330.319
423.018
518.636
609.88
688.105
744.205
769.748
758.199
706.032
613.529
485.129
329.226
157.42
-16.6809
-178.97
-316.437
-418.648
-478.897
-494.899
-468.922
-407.375
-319.911
-218.185
-114.428
-20.0402
55.6411
106.242
128.841
124.009
95.4345
49.207
-7.12584
-65.5892
-118.77
-160.647
-187.167
-196.536
-189.195
-167.536
-135.4
-97.4492
-58.5083
-22.9505
5.79135
25.5429
35.5127
36.2276
29.3088
17.135
2.45081
-12.0224
-23.9195
-31.4712
-33.6295
-30.0776
-21.1411
-7.62796
9.36729
28.6594
49.1407
69.9005
90.2885
109.923
128.654
146.501
163.571
179.994
195.859
211.19
225.932
239.967
253.138
265.28
276.245
285.917
294.216
301.086
306.482
310.343
312.578
313.049
311.574
307.935
301.907
293.29
281.944
267.828
251.023
231.748
210.357
187.318
163.183
138.549
114.011
90.1215
67.3599
46.1111
26.6583
9.18868
-6.19027
-19.4301
-30.5195
-39.467
-46.2914
-51.0218
-53.7071
-54.4318
-53.3352
-50.6272
-46.5981
-41.6178
-36.1223
-30.5884
-25.4998
-21.3066
-18.3859
-17.0056
-17.2989
-19.2508
-22.6991
-27.3501
-32.8064
-38.6049
-44.2592
-49.3042
-53.3349
-56.0392
-57.2191
-56.7988
-54.8212
-51.4313
-46.8512
-41.3489
-35.2054
-28.6849
-22.0116
-15.3568
-8.83861
-2.53147
3.51397
9.24754
14.5969
19.4514
23.6567
27.0218
29.3392
30.4148
30.102
28.3358
25.1586
20.7349
15.3493
9.38865
3.30938
-2.40685
-7.30243
-10.9926
-13.207
-13.8192
-12.8596
-10.5119
-7.09182
-3.01199
1.26217
5.26138
8.55956
10.8143
11.7963
11.4064
9.67742
6.7641
2.92128
-1.52574
-6.21545
-10.7852
-14.9038
-18.298
-20.772
-22.2167
-22.6098
-22.0067
-20.5241
-18.3182
-15.5605
-12.4143
-9.01334
-5.44696
-1.75154
2.08974
6.13922
10.4903
15.2482
20.5085
26.337
32.7528
39.7181
47.1338
54.8432
62.64
70.2809
77.5
84.0234
89.5832
93.9305
96.8473
98.1578
97.7388
95.529
91.537
85.8459
78.6139
70.0697
60.5015
50.241
39.6424
29.0615
18.8362
9.27711
0.670581
-6.69788
-12.4978
-16.2844
-17.4124
-14.9465
-7.59458
6.30346
28.6936
61.6031
106.802
165.356
237.121
320.291
411.08
503.68
590.538
662.985
712.176
730.208
711.28
652.69
555.513
424.818
269.377
100.857
-67.3822
-221.755
-349.967
-442.385
-493.089
-500.456
-467.22
-400.015
-308.475
-204.017
-98.485
-2.81844
74.0851
126.19
150.75
148.311
122.343
78.5487
23.9903
-33.8699
-88.0724
-132.912
-164.459
-180.808
-182.054
-170.029
-147.853
-119.384
-88.6438
-59.2963
-34.2392
-15.3491
-3.39193
1.90925
1.6795
-2.38693
-8.34011
-14.2746
-18.5764
-20.09
-18.1938
-12.7861
-4.19863
6.93914
19.8572
33.7958
48.1284
62.4398
76.5545
90.5158
104.526
118.864
133.787
149.455
165.865
182.822
199.948
216.719
232.528
246.768
258.909
268.566
275.545
279.858
281.704
281.421
279.415
276.078
271.714
266.475
260.335
253.09
244.398
233.844
221.022
205.625
187.526
166.832
143.917
119.404
94.1251
69.042
45.1451
23.3465
4.37722
-11.2952
-23.5173
-32.4625
-38.6018
-42.6394
-45.4189
-47.8156
-50.6257
-54.4693
-59.7179
-66.4548
-74.4723
-83.3069
-92.3042
-100.707
-107.753
-112.772
-115.266
-114.967
-111.866
-106.207
-98.4523
-89.2252
-79.2352
-69.1993
-59.7678
-51.4619
-44.6321
-39.4375
-35.8484
-33.6691
-32.5759
-32.1663
-32.0105
-31.7019
-30.9
-29.3621
-26.9622
-23.696
-19.672
-15.0922
-10.224
-5.36723
-0.820588
3.1498
6.33518
8.6008
9.89253
10.2338
9.71391
8.47041
6.66894
4.48388
2.0831
-0.381092
-2.77429
-4.97638
-6.8742
-8.3536
-9.29397
-9.56801
-9.04843
-7.62177
-5.208
-1.78294
2.60037
7.79563
13.5567
19.5433
25.3395
30.4862
34.5221
37.0309
37.6892
36.3073
32.8601
27.5012
20.5584
12.5108
3.94772
-4.48483
-12.1457
-18.4604
-22.9758
-25.4021
-25.6362
-23.7644
-20.0439
-14.8668
-8.71046
-2.08073
4.54356
10.7598
16.278
20.9415
24.7302
27.7483
30.1982
32.3463
34.4845
36.8928
39.8065
43.3906
47.723
52.7862
58.4663
64.558
70.7737
76.7562
82.0942
86.3418
89.0435
89.766
88.1364
83.8846
76.8871
67.2045
55.1076
41.085
25.8288
10.1973
-4.83861
-18.2566
-29.0355
-36.1832
-38.7295
-35.6798
-25.9474
-8.29427
18.6724
56.401
106.159
168.658
243.581
329.108
421.542
515.19
602.573
675.024
723.624
740.38
719.434
658.135
557.746
423.668
265.086
94.0984
-75.6015
-230.272
-357.711
-448.644
-497.741
-504.125
-471.315
-406.637
-320.195
-223.558
-128.336
-44.8433
18.9953
58.3756
71.9072
61.4696
31.6796
-10.9321
-58.9101
-104.89
-142.514
-167.134
-176.24
-169.577
-148.974
-117.91
-80.9282
-42.9504
-8.61507
18.2974
35.2798
41.3176
36.9027
23.8577
5.00804
-16.2421
-36.3711
-52.1774
-61.1419
-61.6773
-53.245
-36.3362
-12.3326
16.7273
48.4381
80.3358
110.186
136.221
157.301
172.987
183.531
189.786
193.044
194.852
196.8
200.325
206.544
216.137
229.287
245.678
264.553
284.811
305.141
324.171
340.608
353.367
361.664
365.069
363.522
357.299
346.948
333.2
316.864
298.724
279.452
259.544
239.292
218.794
197.997
176.768
154.98
132.59
109.709
86.639
63.8767
42.078
21.992
4.37227
-10.1211
-21.0128
-28.0834
-31.4097
-31.3678
-28.5988
-23.9407
-18.3382
-12.7398
-7.99755
-4.78143
-3.51787
-4.35961
-7.18845
-11.6488
-17.2063
-23.222
-29.0335
-34.0311
-37.7218
-39.7735
-40.0374
-38.5458
-35.4902
-31.1833
-26.0113
-20.3842
-14.6903
-9.26025
-4.34461
-0.104803
3.38243
6.11073
8.12354
9.4918
10.2936
10.5991
10.4614
9.91528
8.98129
7.67362
6.01012
4.02139
1.75719
-0.71097
-3.29177
-5.88012
-8.36616
-10.646
-12.632
-14.2619
-15.5042
-16.3611
-16.8668
-17.0841
-17.0972
-17.0042
-16.9068
-16.9001
-17.0616
-17.4401
-18.0464
-18.8466
-19.7599
-20.6623
-21.3964
-21.786
-21.657
-20.858
-19.2819
-16.8828
-13.6874
-9.79809
-5.38762
-0.685783
4.04071
8.51265
12.4643
15.6679
17.9544
19.2275
19.4702
18.744
17.1799
14.9632
12.3135
9.46252
6.63026
4.00342
1.71692
-0.158977
-1.62475
-2.74952
-3.66042
-4.52384
-5.51984
-6.81264
-8.52053
-10.6898
-13.2767
-16.1408
-19.0522
-21.7118
-23.7829
-24.9307
-24.8642
-23.3745
-20.3657
-15.8729
-10.0655
-3.23594
4.22567
11.8667
19.2134
25.8139
31.2773
35.3053
37.7134
38.4403
37.5436
35.1858
31.6098
27.1091
21.9956
16.5697
11.0974
5.79765
0.844467
-3.61388
-7.41565
-10.3252
-11.9513
-11.6492
-8.41871
-0.823187
13.0356
35.4435
68.8641
115.575
177.166
253.967
344.496
445.069
549.674
650.233
737.243
800.788
831.782
823.265
771.563
677.098
544.703
383.367
205.417
25.2277
-142.366
-283.749
-388.06
-448.396
-462.514
-432.967
-366.653
-273.866
-166.982
-58.9556
38.1789
114.607
163.699
182.533
171.944
136.124
81.8498
17.4692
-48.2276
-107.09
-152.528
-180.161
-188.157
-177.222
-150.3
-112.016
-67.9751
-23.9946
14.619
43.6781
60.5403
64.3187
55.8705
37.5804
12.98
-13.743
-38.2813
-56.7253
-66.0038
-64.1993
-50.7123
-26.2605
7.27358
47.1221
89.9966
132.49
171.468
204.4
229.602
246.358
254.931
256.448
252.707
245.907
238.372
232.261
229.341
230.813
237.218
248.429
263.723
281.903
301.472
320.813
338.365
352.769
362.974
368.294
368.423
363.404
353.576
339.494
321.851
301.395
278.863
254.931
230.178
205.082
180.025
155.312
131.205
107.953
85.813
65.0693
46.0312
29.0198
14.3416
2.25479
-7.06836
-13.5743
-17.3526
-18.6466
-17.8472
-15.4707
-12.1202
-8.43608
-5.04019
-2.48008
-1.1797
-1.40228
-3.22935
-6.55822
-11.1179
-16.5013
-22.2107
-27.7112
-32.4867
-36.0939
-38.2083
-38.6583
-37.4439
-34.7375
-30.8662
-26.2781
-21.4934
-17.047
-13.4276
-11.0214
-10.065
-10.6163
-12.5451
-15.5457
-19.1708
-22.8818
-26.1096
-28.3187
-29.0678
-28.0577
-25.1635
-20.4473
-14.1501
-6.66499
1.50345
9.79045
17.6254
24.4843
29.9347
33.6695
35.5258
35.4892
33.6833
30.3465
25.8007
20.4144
14.5671
8.61684
2.87597
-2.4047
-7.04175
-10.9167
-13.9675
-16.1761
-17.5564
-18.1438
-17.9896
-17.1598
-15.7382
-13.8312
-11.5741
-9.13346
-6.70548
-4.50894
-2.77166
-1.71236
-1.51935
-2.32911
-4.20743
-7.13596
-11.0066
-15.6243
-20.7199
-25.969
-31.0184
-35.5134
-39.1249
-41.5721
-42.6386
-42.1804
-40.127
-36.4749
-31.2784
-24.6386
-16.6936
-7.61133
2.41472
13.1671
24.4049
35.865
47.2652
58.3099
68.6996
78.1422
86.3677
93.1418
98.2802
101.659
103.222
102.982
101.018
97.4692
92.517
86.3764
79.2796
71.4629
63.1568
54.5784
45.9282
37.388
29.1222
21.2798
13.9975
7.40456
1.63455
-3.15315
-6.73266
-8.74784
-8.62582
-5.48035
1.96827
15.4171
36.9033
68.5896
112.401
169.538
239.942
321.811
411.297
502.491
587.764
658.466
705.92
722.574
703.126
645.452
551.162
425.683
277.831
118.928
-38.4315
-181.782
-300.179
-385.386
-432.713
-441.404
-414.549
-358.544
-282.193
-195.587
-108.897
-31.2448
30.224
70.968
89.3222
86.411
65.7379
32.5263
-7.08975
-46.9163
-81.4835
-106.672
-120.115
-121.342
-111.663
-93.8295
-71.5254
-48.7744
-29.339
-16.1959
-11.151
-14.6366
-25.7075
-42.2246
-61.1923
-79.196
-92.8782
-99.387
-96.7413
-84.0687
-61.691
-31.0544
5.47855
44.9432
84.1482
120.063
150.173
172.75
187.034
193.278
192.678
187.194
179.284
171.585
166.592
166.354
172.248
184.831
203.8
228.059
255.872
285.082
313.372
338.525
358.652
372.369
378.899
378.102
370.424
356.791
338.461
316.857
293.403
269.375
245.801
223.386
202.499
183.194
165.269
148.352
131.995
115.766
99.3271
82.4862
65.2179
47.6558
30.0609
12.7731
-3.84306
-19.4478
-33.764
-46.5983
-57.8432
-67.4656
-75.4835
-81.9399
-86.8797
-90.3338
-92.3149
-92.8241
-91.8674
-89.477
-85.7338
-80.785
-74.8533
-68.235
-61.2858
-54.3971
-47.9633
-42.3468
-37.8429
-34.6497
-32.8469
-32.3851
-33.0881
-34.6686
-36.7541
-38.9236
-40.7492
-41.8388
-41.8762
-40.6534
-38.0914
-34.2476
-29.3084
-23.5688
-17.3993
-11.2068
-5.39099
-0.304351
3.78242
6.70388
8.41075
8.96722
8.53556
7.35047
5.68684
3.82504
2.01846
0.467193
-0.699062
-1.42717
-1.73572
-1.70058
-1.43372
-1.05883
-0.687687
-0.40087
-0.235504
-0.181552
-0.186519
-0.167075
-0.0249398
0.336132
0.995212
2.00305
3.37583
5.09352
7.10171
9.31513
11.6218
13.8871
15.9578
17.6684
18.85
19.3435
19.0174
17.788
15.6384
12.6346
8.93209
4.77243
0.467188
-3.62913
-7.15441
-9.77783
-11.2369
-11.3676
-10.1224
-7.57528
-3.91063
0.600353
5.634
10.8545
15.9553
20.6973
24.9382
28.652
31.9334
34.9874
38.1056
41.6288
45.902
51.2255
57.809
65.7336
74.9271
85.1563
96.0365
107.059
117.631
127.128
134.942
140.538
143.492
143.523
140.51
134.488
125.642
114.28
100.801
85.6684
69.3777
52.4313
35.3245
18.5433
2.57885
-12.0378
-24.6783
-34.5388
-40.551
-41.3031
-35.0025
-19.521
7.43861
48.0315
103.822
175.246
261.076
358.001
460.454
560.781
649.792
717.678
755.182
754.876
712.333
627.01
502.671
347.267
172.249
-8.599
-180.66
-330.118
-445.508
-518.966
-547.033
-530.906
-476.131
-391.783
-289.273
-180.941
-78.6156
7.66334
70.6295
106.372
114.476
97.7395
61.5337
12.9176
-40.367
-90.8836
-132.356
-160.298
-172.359
-168.383
-150.183
-121.11
-85.4732
-47.9073
-12.7702
16.362
37.046
48.145
49.8199
43.3616
30.9024
15.056
-1.45896
-16.1626
-27.0831
-32.9257
-33.1313
-27.8301
-17.7107
-3.83326
12.5779
30.3306
48.4218
66.1379
83.0908
99.1934
114.588
129.543
144.349
159.211
174.189
189.152
203.794
217.662
230.232
240.978
249.459
255.379
258.634
259.329
257.768
254.411
249.826
244.608
239.316
234.398
230.134
226.589
223.597
220.76
217.482
213.028
206.611
197.496
185.114
169.154
149.649
127.007
102.01
75.7535
49.5506
24.7978
2.82804
-15.234
-28.5949
-36.8776
-40.1579
-38.9484
-34.132
-26.8557
-18.3977
-10.025
-2.85959
2.23108
4.70884
4.39641
1.46576
-3.61277
-10.1517
-17.346
-24.3778
-30.5136
-35.1827
-38.0294
-38.9349
-38.0095
-35.5577
-32.0238
-27.926
-23.7875
-20.0745
-17.1459
-15.2215
-14.3699
-14.5148
-15.4589
-16.9188
-18.5667
-20.0735
-21.1477
-21.5664
-21.1958
-19.9999
-18.0378
-15.4494
-12.4348
-9.22654
-6.06134
-3.15169
-0.662108
1.30837
2.73554
3.67015
4.22904
4.57795
4.90819
5.40962
6.24311
7.5159
9.26295
11.4367
13.907
16.4712
18.8738
20.8326
22.0696
22.3414
21.4668
19.3486
15.9882
11.4906
6.0624
0.00149466
-6.32015
-12.4792
-18.0287
-22.5291
-25.5817
-26.8612
-26.1464
-23.3447
-18.5095
-11.8479
-3.717
5.39122
14.8763
24.0667
32.2654
38.803
43.0925
44.6838
43.3108
38.927
31.7232
22.1249
10.7667
-1.55542
-13.9493
-25.5039
-35.3696
-42.8337
-47.3817
-48.7381
-46.8825
-42.0387
-34.6399
-25.274
-14.6165
-3.35793
7.86312
18.5167
28.2201
36.7556
44.0673
50.2385
55.4558
59.9627
64.0127
67.8249
71.5478
75.2342
78.8293
82.1723
85.0094
87.0185
87.8419
87.1234
84.5489
79.8835
73.0055
63.9317
52.832
40.0344
26.0189
11.4059
-3.0543
-16.483
-27.8564
-35.9704
-39.3924
-36.4235
-25.1022
-3.29151
31.1163
79.8625
143.87
222.734
314.257
414.137
515.935
611.395
691.136
745.676
766.64
747.998
687.12
585.455
448.721
286.521
111.436
-62.3113
-220.436
-350.203
-441.85
-489.651
-492.462
-453.718
-380.881
-284.43
-176.551
-69.6856
24.8663
98.1238
144.258
161
149.602
114.393
62.0147
0.43872
-62.0758
-117.975
-161.228
-187.889
-196.364
-187.362
-163.585
-129.206
-89.2134
-48.732
-12.3846
16.2174
34.8125
42.6286
40.3262
29.7725
13.689
-4.77049
-22.4524
-36.5924
-45.1164
-46.8238
-41.4429
-29.5635
-12.4659
8.12095
30.2952
52.2539
72.5245
90.1296
104.668
116.306
125.692
133.805
141.765
150.642
161.28
174.164
189.349
206.454
224.715
243.095
260.418
275.526
287.415
295.351
298.935
298.127
293.218
284.759
273.467
260.121
245.459
230.1
214.49
198.884
183.358
167.847
152.202
136.257
119.888
103.063
85.8686
68.5142
51.3075
34.6134
18.8016
4.19209
-8.98824
-20.6314
-30.7517
-39.4664
-46.9581
-53.4263
-59.0379
-63.8859
-67.9645
-71.1656
-73.2979
-74.1266
-73.4264
-71.0407
-66.9355
-61.2392
-54.2618
-46.4865
-38.5352
-31.1103
-24.9178
-20.5832
-18.5693
-19.1075
-22.1528
-27.3702
-34.1553
-41.6899
-49.0274
-55.1982
-59.3216
-60.7127
-58.9663
-54.0099
-46.1153
-35.8685
-24.1008
-11.79
0.0554577
10.5137
18.8535
24.6116
27.6357
28.0861
26.3996
23.2203
19.3072
15.4311
12.2754
10.3509
9.93684
11.0541
13.4718
16.7462
20.2856
23.4314
25.5456
26.0941
24.7143
21.2611
15.826
8.72706
0.473684
-8.29022
-16.8566
-24.5286
-30.6933
-34.8817
-36.8135
-36.4188
-33.8391
-29.4057
-23.6008
-17.0044
-10.2354
-3.89051
1.50961
5.56458
8.02293
8.79434
7.94495
5.67793
2.30237
-1.80483
-6.23969
-10.6098
-14.5672
-17.833
-20.2119
-21.5972
-21.9659
-21.3678
-19.9087
-17.7312
-14.9955
-11.8615
-8.47401
-4.95158
-1.38006
2.19014
5.74271
9.29104
12.8716
16.5363
20.3451
24.3599
28.6409
33.2459
38.2314
43.655
49.5766
56.057
63.1504
70.8914
79.2752
88.2331
97.6068
107.125
116.393
124.887
131.984
136.996
139.238
138.097
133.115
124.062
110.989
94.2503
74.5013
52.6533
29.8089
7.18307
-13.97
-32.4065
-46.9059
-56.2444
-59.1382
-54.1815
-39.8175
-14.3838
23.7325
75.8129
142.414
222.915
315.097
414.847
516.11
611.149
691.141
747.074
770.84
756.368
700.627
604.328
472.192
312.719
137.461
-40.1243
-206.093
-347.524
-453.926
-518.356
-538.108
-514.897
-454.522
-366.062
-260.736
-150.559
-46.9833
40.3059
104.321
141.314
150.906
135.809
101.206
53.9018
1.34906
-49.3057
-92.0479
-122.602
-138.761
-140.432
-129.401
-108.898
-83.0056
-56.0294
-31.8878
-13.6157
-3.02533
-0.558951
-5.33565
-15.3706
-27.9248
-39.9304
-48.429
-50.968
-45.903
-32.5775
-11.3635
16.4315
48.7702
83.1682
117.016
147.892
173.835
193.546
206.489
212.905
213.736
210.467
204.922
199.039
194.639
193.23
195.856
203.009
214.606
230.031
248.238
267.889
287.511
305.667
321.092
332.807
340.183
342.949
341.163
335.137
325.342
312.308
296.538
278.451
258.35
236.442
212.876
187.805
161.455
134.179
106.491
79.0656
52.7086
28.2921
6.6729
-11.3986
-25.3638
-34.9231
-40.0748
-41.1221
-38.6483
-33.4648
-26.5395
-18.914
-11.6192
-5.59544
-1.62353
-0.27104
-1.85639
-6.43239
-13.7898
-23.4807
-34.8592
-47.1388
-59.4595
-70.9621
-80.8613
-88.5119
-93.4618
-95.4863
-94.6
-91.0465
-85.2652
-77.841
-69.4422
-60.7522
-52.4045
-44.9261
-38.6958
-33.9203
-30.6302
-28.6944
-27.8506
-27.7469
-27.9899
-28.1932
-28.0204
-27.22
-25.6469
-23.2709
-20.1711
-16.5193
-12.5529
-8.54343
-4.7635
-1.45577
1.19166
3.06195
4.11669
4.39381
3.9973
3.0808
1.8274
0.428384
-0.936699
-2.11671
-3.00078
-3.52479
-3.67211
-3.46944
-2.97847
-2.28484
-1.4858
-0.678141
0.0525171
0.639822
1.04179
1.24263
1.25151
1.09898
0.831701
0.506549
0.184714
-0.0735079
-0.21302
-0.187271
0.0391818
0.488658
1.16876
2.07123
3.17148
4.42919
5.79055
7.19222
8.56743
9.85369
11.0017
11.9842
12.8044
13.5016
14.1543
14.8778
15.8183
17.1417
19.0174
21.601
25.0156
29.3342
34.5672
40.6555
47.4703
54.8212
62.4712
70.1564
77.6093
84.5822
90.8669
96.3103
100.823
104.378
107.008
108.788
109.821
110.221
110.089
109.507
108.518
107.124
105.277
102.886
99.8141
95.8874
90.908
84.6713
76.9941
67.7512
56.9242
44.6608
31.3441
17.6678
4.70834
-6.02028
-12.5498
-12.5056
-3.2466
17.8829
53.1851
104.147
170.942
251.972
343.565
439.916
533.35
614.934
675.394
706.231
700.894
655.812
571.122
450.968
303.282
139.062
-28.7574
-186.717
-322.326
-425.437
-489.34
-511.41
-493.273
-440.447
-361.555
-267.197
-168.668
-76.6543
-0.0944272
54.6775
84.4226
89.0857
71.5022
36.7899
-8.4757
-57.1834
-102.585
-139.066
-162.7
-171.55
-165.694
-147.002
-118.722
-84.9345
-49.9621
-17.8127
8.28496
26.2008
35.0548
35.1991
28.0497
15.8045
1.09367
-13.388
-25.2174
-32.5113
-34.098
-29.5815
-19.3021
-4.20926
14.327
34.7346
55.4563
75.1378
92.7667
107.751
119.932
129.547
137.137
143.438
149.248
155.319
162.249
170.422
179.973
190.791
202.551
214.775
226.894
238.325
248.534
257.086
263.675
268.131
270.406
270.536
268.596
264.649
258.708
250.707
240.507
227.92
212.765
194.929
174.446
151.547
126.703
100.622
74.2149
48.5204
24.6069
3.4584
-14.1363
-27.6745
-36.9978
-42.3084
-44.1417
-43.298
-40.7441
-37.4966
-34.503
-32.5348
-32.1056
-33.4236
-36.3842
-40.6009
-45.4724
-50.2753
-54.2709
-56.8121
-57.4362
-55.9316
-52.3697
-47.097
-40.6905
-33.8805
-27.453
-22.1449
-18.546
-17.0217
-17.6655
-20.2884
-24.4452
-29.4931
-34.6751
-39.2156
-42.4163
-43.7398
-42.8711
-39.7494
-34.5688
-27.7482
-19.876
-11.6382
-3.7386
3.17789
8.59048
12.149
13.6977
13.2763
11.0994
7.5205
2.98669
-2.01029
-6.97975
-11.4715
-15.1065
-17.5994
-18.7725
-18.5639
-17.029
-14.3362
-10.7544
-6.63259
-2.36916
1.62661
4.97877
7.38945
8.67823
8.8099
7.9058
6.23585
4.19133
2.24146
0.879105
0.562784
1.66266
4.41744
8.90773
15.0487
22.6022
31.2065
40.4178
49.7587
58.7667
67.0363
74.2504
80.1986
84.7806
87.9972
89.9299
90.7147
90.5125
89.4805
87.7479
85.3983
82.4608
78.9092
74.6719
69.648
63.7309
56.8333
48.9137
39.9981
30.1971
19.7161
8.86021
-1.96
-12.216
-21.2337
-28.147
-31.8359
-30.8659
-23.4571
-7.52332
19.179
58.7655
112.804
181.801
264.683
358.376
457.618
555.106
642.006
708.841
746.621
748.091
708.876
628.352
510.063
361.617
194.028
20.6008
-144.515
-287.897
-398.347
-468.105
-493.647
-475.955
-420.255
-335.266
-232.074
-122.789
-19.1517
68.7304
133.382
170.581
179.561
162.791
125.393
74.2991
17.256
-38.1739
-85.5063
-120.015
-139.133
-142.551
-132.023
-110.928
-83.6617
-54.9508
-29.1818
-9.82613
0.96802
2.57811
-4.1093
-16.9171
-32.7568
-48.1081
-59.5294
-64.13
-59.9431
-46.1575
-23.1838
7.44348
43.3057
81.4451
118.762
152.414
180.159
200.609
213.356
218.972
218.874
215.098
209.996
205.92
204.915
208.48
217.405
231.716
250.717
273.122
297.25
321.257
343.362
362.049
376.208
385.21
388.908
387.568
381.76
372.215
359.681
344.804
328.043
309.638
289.624
267.893
244.29
218.713
191.213
162.068
131.813
101.229
71.2799
43.0178
17.4593
-4.53487
-22.3681
-35.7814
-44.8837
-50.133
-52.2735
-52.2368
-51.0226
-49.5758
-48.6766
-48.8575
-50.3566
-53.1121
-56.7954
-60.8758
-64.7079
-67.6266
-69.0391
-68.5021
-65.7751
-60.8471
-53.9331
-45.4453
-35.9431
-26.0686
-16.4779
-7.77419
-0.451013
5.14873
8.85538
10.6753
10.7756
9.4532
7.09458
4.12966
0.98688
-1.94647
-4.35472
-6.01287
-6.7936
-6.663
-5.66744
-3.91451
-1.55178
1.25318
4.32886
7.51015
10.6431
13.5846
16.2002
18.3603
19.9398
20.82
20.8947
20.0799
18.3244
15.6206
12.012
7.59753
2.53026
-2.98804
-8.71723
-14.3921
-19.7378
-24.4866
-28.3941
-31.2546
-32.9148
-33.2846
-32.3446
-30.1496
-26.8277
-22.5746
-17.6427
-12.3267
-6.94473
-1.81797
2.75069
6.49673
9.21127
10.7539
11.0601
10.1425
8.08569
5.03658
1.19016
-3.22631
-7.96911
-12.792
-17.4572
-21.7422
-25.444
-28.3801
-30.3896
-31.3344
-31.1036
-29.6219
-26.861
-22.8555
-17.7177
-11.6511
-4.9557
1.97754
8.68701
14.6758
19.4607
22.6283
23.893
23.1445
20.4786
16.2033
10.8163
4.9548
-0.677306
-5.39624
-8.62742
-9.98381
-9.32149
-6.76252
-2.6802
2.3531
7.6485
12.5018
16.2975
18.5995
19.2139
18.2138
15.9239
12.8658
9.67585
7.00653
5.42915
5.35139
6.96294
10.2168
14.8478
20.4249
26.4271
32.3301
37.6895
42.2072
45.7709
48.4609
50.5259
52.3317
54.2927
56.7978
60.1424
64.4757
69.7714
75.8227
82.2623
88.6004
94.2767
98.7164
101.386
101.84
99.7598
94.9811
87.5037
77.4954
65.2824
51.3297
36.2147
20.5945
5.17316
-9.32607
-22.1726
-32.6168
-39.8479
-42.925
-40.6973
-31.7424
-14.3671
13.2876
53.0055
106.117
173.018
252.674
342.206
436.695
529.293
611.692
674.94
710.514
711.495
673.666
596.347
482.814
340.216
178.974
11.7357
-147.987
-287.31
-395.403
-464.669
-491.525
-476.702
-425.026
-344.742
-246.462
-141.892
-42.4919
41.7591
103.363
137.953
144.54
125.357
85.3399
31.3363
-28.8447
-87.4196
-137.531
-173.965
-193.609
-195.63
-181.356
-153.92
-117.717
-77.7521
-38.983
-5.71917
18.8449
32.9202
36.2186
29.8576
16.1035
-2.0013
-21.073
-37.8237
-49.449
-53.9247
-50.1824
-38.1564
-18.7058
6.56747
35.5728
66.0205
95.7095
122.778
145.889
164.342
178.087
187.672
194.11
198.71
202.879
207.93
214.918
224.517
236.954
252.005
269.044
287.139
305.182
322.024
336.609
348.082
355.865
359.681
359.545
355.709
348.586
338.66
326.397
312.18
296.264
278.772
259.711
239.033
216.693
192.725
167.304
140.789
113.734
86.8703
61.0582
37.2079
16.1891
-1.26464
-14.6416
-23.717
-28.5871
-29.6685
-27.6605
-23.4769
-18.153
-12.7406
-8.20349
-5.3251
-4.63915
-6.39102
-10.533
-16.7523
-24.5274
-33.2037
-42.0771
-50.4757
-57.8283
-63.7119
-67.8749
-70.2368
-70.8659
-69.9438
-67.7218
-64.4787
-60.4836
-55.9711
-51.1267
-46.0857
-40.9406
-35.7549
-30.5792
-25.4657
-20.479
-15.7011
-11.2306
-7.17692
-3.64959
-0.74651
1.45852
2.92656
3.66121
3.71232
3.17509
2.18451
0.905409
-0.480999
-1.7927
-2.86308
-3.55579
-3.77669
-3.48139
-2.67777
-1.42309
0.183563
2.01276
3.91856
5.75322
7.38129
8.69153
9.6057
10.0834
10.123
9.75814
9.05143
8.08537
6.95173
5.74033
4.52835
3.37077
2.29326
1.28836
0.316165
-0.68993
-1.81225
-3.13376
-4.72071
-6.60571
-8.77424
-11.1569
-13.6294
-16.0203
-18.1264
-19.7325
-20.6339
-20.6583
-19.684
-17.6523
-14.5733
-10.5245
-5.64141
-0.104399
5.8799
12.0978
18.3476
24.4556
30.2876
35.755
40.8146
45.4624
49.7233
53.6367
57.2419
60.5637
63.6015
66.3227
68.6614
70.5231
71.7937
72.353
72.0892
70.9141
68.7749
65.6625
61.6134
56.7064
51.0526
44.7815
38.0276
30.9209
23.5902
16.1858
8.92979
2.19655
-3.38188
-6.80181
-6.59607
-0.805599
12.9406
37.2014
74.3439
126.033
192.663
272.825
362.955
457.256
547.989
626.142
682.418
708.425
697.881
647.654
558.454
435.047
285.945
122.584
-41.8946
-194.103
-321.91
-415.782
-469.794
-482.182
-455.381
-395.567
-311.77
-214.709
-115.491
-24.3553
50.3904
103.125
131.29
135.365
118.49
85.7985
43.577
-1.62784
-43.8439
-78.3443
-102.087
-113.89
-114.343
-105.501
-90.4102
-72.5587
-55.3215
-41.4818
-32.8801
-30.228
-33.0958
-40.0589
-48.9701
-57.3114
-62.5718
-62.5999
-55.8883
-41.7584
-20.429
7.03188
38.8588
72.8202
106.496
137.57
164.096
184.712
198.779
206.429
208.513
206.473
202.143
197.512
194.474
194.607
198.994
208.118
221.83
239.399
259.621
280.982
301.833
320.571
335.79
346.398
351.679
351.317
345.372
334.226
318.507
299.014
276.626
252.24
226.709
200.797
175.157
150.32
126.696
104.584
84.1979
65.6796
49.122
34.5811
22.0835
11.6265
3.17264
-3.35889
-8.1005
-11.2415
-13.0273
-13.7515
-13.7398
-13.3289
-12.8409
-12.5578
-12.6993
-13.4062
-14.7327
-16.6476
-19.0437
-21.7558
-24.583
-27.3133
-29.7477
-31.721
-33.1173
-33.8786
-34.0069
-33.5605
-32.6443
-31.3959
-29.9702
-28.5208
-27.1825
-26.0554
-25.1912
-24.5851
-24.1731
-23.8369
-23.4153
-22.7226
-21.5724
-19.8034
-17.3054
-14.0412
-10.0612
-5.50799
-0.609375
4.33982
9.00571
13.0499
16.1665
18.1169
18.7583
18.0609
16.1137
13.1157
9.35492
5.17727
0.949521
-2.97987
-6.31661
-8.84909
-10.4661
-11.1619
-11.0279
-10.2336
-8.99821
-7.55813
-6.13492
-4.90727
-3.99126
-3.43072
-3.19846
-3.20731
-3.32867
-3.41506
-3.32325
-2.93457
-2.17011
-0.999643
0.555803
2.42673
4.50202
6.63828
8.67035
10.4221
11.7168
12.3882
12.2908
11.3116
9.38363
6.49823
2.71868
-1.80985
-6.85468
-12.0975
-17.1455
-21.5528
-24.8521
-26.5943
-26.3934
-23.9712
-19.1971
-12.1172
-2.96755
7.83199
19.7039
31.9581
43.8519
54.6578
63.7306
70.5674
74.8511
76.4741
75.5383
72.3332
67.2942
60.9488
53.8553
46.5442
39.4669
32.9585
27.2168
22.2991
18.1363
14.5593
11.3358
8.21146
4.95072
1.37445
-2.60864
-6.97605
-11.5684
-16.0641
-19.9471
-22.4633
-22.5708
-18.893
-9.70198
7.03978
33.5418
71.9288
123.862
190.07
269.857
360.687
457.961
555.077
643.84
715.209
760.33
771.696
744.284
676.477
570.599
432.971
273.43
104.374
-60.5604
-208.006
-326.366
-407.101
-445.632
-441.761
-399.551
-326.711
-233.574
-131.813
-33.0709
52.3272
116.425
154.339
164.549
148.776
111.493
59.1546
-0.734166
-60.5889
-113.63
-154.583
-180.137
-189.109
-182.351
-162.413
-133.045
-98.6061
-63.4725
-31.5049
-5.64613
12.3231
21.8558
23.5495
18.9248
10.118
-0.465374
-10.4846
-17.9444
-21.3926
-20.0181
-13.6513
-2.67979
12.0951
29.6331
48.8294
68.6647
88.3126
107.195
124.99
141.591
157.05
171.495
185.06
197.828
209.8
220.882
230.908
239.672
246.976
252.672
256.703
259.129
260.132
260.005
259.116
257.867
256.627
255.673
255.125
254.898
254.671
253.89
251.805
247.544
240.219
229.053
213.507
193.395
168.961
140.905
110.357
78.7861
47.8632
19.2952
-5.35651
-24.8432
-38.3636
-45.6484
-46.9837
-43.1731
-35.4406
-25.2904
-14.3389
-4.1402
3.97336
9.01956
10.4488
8.1746
2.55111
-5.69625
-15.5766
-25.9612
-35.7172
-43.8323
-49.5166
-52.2723
-51.9259
-48.6226
-42.7867
-35.0541
-26.1898
-16.9975
-8.23491
-0.541381
5.61368
9.95933
12.4271
13.1326
12.3395
10.4106
7.75418
4.77141
1.81196
-0.857869
-3.07114
-4.75999
-5.9411
-6.69087
-7.11584
-7.32408
-7.40276
-7.4053
-7.34959
-7.22637
-7.01487
-6.70177
-6.29885
-5.85531
-5.4617
-5.244
-5.34838
-5.91858
-7.06959
-8.86181
-11.2801
-14.2219
-17.4957
-20.8333
-23.9122
-26.3885
-27.9344
-28.2788
-27.2434
-24.7724
-20.9498
-16.0034
-10.293
-4.28296
1.4975
6.50392
10.2312
12.2677
12.3423
10.3608
6.4246
0.830283
-5.95212
-13.3201
-20.5959
-27.0928
-32.1851
-35.3711
-36.3239
-34.9224
-31.2598
-25.6278
-18.4803
-10.3789
-1.93035
6.27981
13.7468
20.0942
25.1053
28.734
31.0974
32.4519
33.1559
33.6252
34.2861
35.5308
37.6789
40.9493
45.4431
51.1376
57.892
65.4607
73.5138
81.6602
89.4721
96.509
102.34
106.562
108.824
108.836
106.397
101.401
93.8606
83.9113
71.8203
57.9826
42.9105
27.2169
11.5942
-3.20206
-16.3591
-26.9938
-34.1178
-36.5872
-33.0528
-21.94
-1.49338
30.0789
74.3402
132.248
203.702
287.102
379.014
474.049
565.056
643.643
701.024
729.079
721.498
674.811
589.136
468.516
320.737
156.661
-10.888
-168.503
-303.689
-406.246
-469.374
-490.357
-470.736
-415.982
-334.713
-237.58
-135.972
-40.7143
39.087
96.9132
129.336
136.113
119.903
85.6556
39.7907
-10.7246
-59.2694
-100.33
-130.04
-146.463
-149.592
-141.113
-123.968
-101.81
-78.4203
-57.1745
-40.6172
-30.1944
-26.1614
-27.6608
-32.9463
-39.7061
-45.437
-47.8132
-45.0029
-35.8943
-20.2105
1.49556
27.9539
57.3773
87.715
116.924
143.22
165.28
182.37
194.389
201.83
205.667
207.186
207.801
208.853
211.449
216.334
223.827
233.812
245.79
258.972
272.401
285.085
296.123
304.803
310.672
313.551
313.526
310.884
306.034
299.411
291.382
282.17
271.811
260.151
246.876
231.591
213.911
193.566
170.495
144.912
117.328
88.5296
59.517
31.3981
5.26919
-17.91
-37.4237
-52.8764
-64.2276
-71.7805
-76.1283
-78.0674
-78.4898
-78.2707
-78.1656
-78.7298
-80.2692
-82.8272
-86.2058
-90.0172
-93.7559
-96.8814
-98.8993
-99.4317
-98.2663
-95.3819
-90.9461
-85.289
-78.8572
-72.1553
-65.6825
-59.8747
-55.0564
-51.41
-48.9646
-47.6036
-47.0899
-47.1039
-47.2886
-47.2955
-46.8267
-45.6666
-43.7009
-40.9222
-37.4213
-33.3672
-28.9794
-24.4968
-20.1466
-16.119
-12.5488
-9.50685
-7.0007
-4.98414
-3.37286
-2.06353
-0.953247
0.0435103
0.982752
1.88503
2.73623
3.49457
4.10256
4.50192
4.64887
4.52726
4.15719
3.59714
2.93908
2.29665
1.78822
1.51737
1.55412
1.92031
2.58212
3.45148
4.39675
5.26128
5.88733
6.14141
5.93718
5.25197
4.13423
2.70033
1.12103
-0.400611
-1.65675
-2.46364
-2.68773
-2.2653
-1.21278
0.373426
2.32762
4.43417
6.45313
8.14878
9.31795
9.81503
9.57129
8.6063
7.03039
5.03729
2.88743
0.883185
-0.661719
-1.45527
-1.25922
0.0836488
2.6303
6.32842
11.0187
16.4484
22.2936
28.1891
33.7612
38.66
42.5888
45.326
46.7394
46.7901
45.5276
43.0762
39.6151
35.3545
30.5108
25.2836
19.837
14.2883
8.70484
3.11233
-2.48199
-8.04841
-13.4717
-18.4658
-22.4704
-24.5456
-23.2881
-16.8073
-2.79964
21.2427
57.6748
108.212
173.368
251.927
340.55
433.66
523.679
601.653
658.22
684.807
674.881
625.044
535.795
411.8
261.618
96.8793
-68.9675
-222.18
-350.3
-443.58
-496.054
-506.128
-476.616
-414.238
-328.661
-231.229
-133.557
-46.1672
22.6473
67.6163
86.8566
81.7932
56.6781
17.799
-27.4992
-71.8397
-108.753
-133.415
-143.112
-137.394
-117.917
-88.0429
-52.2386
-15.4008
17.8243
43.6271
59.4633
64.2844
58.5584
44.0954
23.7177
0.830398
-21.0457
-38.7167
-49.6799
-52.3716
-46.2785
-31.9094
-10.6451
15.5048
44.1985
73.0709
100.013
123.391
142.184
156.03
165.186
170.415
172.828
173.699
174.29
175.696
178.743
183.928
191.412
201.057
212.49
225.184
238.53
251.913
264.748
276.51
286.735
295.009
300.953
304.201
304.396
301.193
294.274
283.388
268.387
249.286
226.302
199.889
170.755
139.844
108.294
77.3638
48.333
22.3945
0.540861
-16.5347
-28.5132
-35.4883
-37.9624
-36.7984
-33.1321
-28.2535
-23.4705
-19.9712
-18.6994
-20.2583
-24.8531
-32.2781
-41.9492
-52.9781
-64.2791
-74.6957
-83.1326
-88.6785
-90.705
-88.9325
-83.4536
-74.7162
-63.4661
-50.6587
-37.3516
-24.5897
-13.2971
-4.18916
2.28907
5.98926
7.05232
5.86894
3.01527
-0.827278
-4.95737
-8.73408
-11.643
-13.3414
-13.6791
-12.6935
-10.5831
-7.66327
-4.31131
-0.910253
2.20266
4.77542
6.66445
7.83987
8.3735
8.41314
8.14792
7.77085
7.4445
7.27481
7.29678
7.47345
7.70774
7.86467
7.80012
7.39124
6.56382
5.31225
3.70922
1.90347
0.105775
-1.43534
-2.46553
-2.76062
-2.16239
-0.60985
1.83876
4.99705
8.55782
12.1179
15.2194
17.4043
18.2751
17.5549
15.1364
11.1132
5.78544
-0.361524
-6.70522
-12.5546
-17.231
-20.1501
-20.8937
-19.2614
-15.2955
-9.27396
-1.67547
6.8812
15.7132
24.1558
31.6386
37.7486
42.2699
45.1978
46.7272
47.2158
47.1313
46.987
47.2763
48.4141
50.6904
54.2429
59.0478
64.9297
71.5853
78.6164
85.5656
91.9509
97.2959
101.155
103.135
102.913
100.261
95.0593
87.3186
77.1951
64.9984
51.1903
36.3734
21.2729
6.71807
-6.368
-16.961
-23.9087
-25.8912
-21.3881
-8.68507
14.0457
48.5595
96.2385
157.697
232.345
318.007
410.675
504.514
592.156
665.306
715.61
735.67
720.081
666.309
575.29
451.613
303.255
140.877
-23.2465
-176.52
-307.383
-406.551
-467.984
-489.461
-472.693
-422.986
-348.494
-259.178
-165.616
-77.8149
-4.15878
49.3719
79.6464
86.4611
72.2711
41.6355
0.470325
-44.7824
-87.9626
-123.881
-148.818
-160.794
-159.598
-146.609
-124.438
-96.4688
-66.3578
-37.5555
-12.9119
5.60114
17.0277
21.4258
19.7413
13.5879
4.97051
-4.00722
-11.4137
-15.7073
-15.8811
-11.525
-2.80658
9.61644
24.7345
41.3522
58.258
74.3773
88.8923
101.316
111.522
119.723
126.414
132.284
138.117
144.676
152.606
162.35
174.083
187.686
202.743
218.574
234.297
248.906
261.37
270.729
276.186
277.187
273.465
265.065
252.33
235.861
216.445
194.979
172.384
149.527
127.16
105.885
86.1341
68.1762
52.137
38.0239
25.7527
15.1684
6.06032
-1.8276
-8.78803
-15.1383
-21.2028
-27.2886
-33.656
-40.488
-47.8633
-55.7386
-63.9432
-72.1896
-80.0991
-87.2398
-93.1734
-97.5034
-99.9215
-100.243
-98.4295
-94.5972
-89.0059
-82.0362
-74.1542
-65.8691
-57.6897
-50.0824
-43.438
-38.047
-34.0876
-31.6261
-30.6274
-30.9734
-32.4861
-34.949
-38.1242
-41.7629
-45.6084
-49.3939
-52.8397
-55.6531
-57.5355
-58.1989
-57.3913
-54.9296
-50.7331
-44.8537
-37.495
-29.0147
-19.9085
-10.7747
-2.2607
5.00022
10.457
13.704
14.5308
12.953
9.21713
3.77982
-2.73803
-9.61689
-16.1163
-21.5549
-25.3837
-27.2425
-26.9936
-24.7291
-20.7508
-15.5272
-9.63255
-3.677
1.76372
6.21045
9.32743
10.9494
11.0868
9.91006
7.71627
4.88414
1.82286
-1.07799
-3.49158
-5.1856
-6.03972
-6.04795
-5.30711
-3.99407
-2.33562
-0.575271
1.05895
2.38224
3.27398
3.69072
3.67109
3.33312
2.86495
2.50998
2.54734
3.26858
4.95166
7.83341
12.0822
17.7732
24.8694
33.2108
42.5161
52.3964
62.3839
71.9713
80.6599
88.0093
93.6838
97.4864
99.3776
99.4731
98.0201
95.3565
91.8562
87.8711
83.6764
79.4301
75.151
70.7206
65.9084
60.4171
53.9407
46.2293
37.1507
26.7452
15.27
3.23735
-8.54975
-18.9609
-26.5028
-29.2983
-25.1057
-11.412
14.3665
54.5559
110.778
183.434
271.192
370.611
475.997
579.585
672.106
743.686
785.005
788.542
749.732
667.837
546.382
393.063
219.102
38.1355
-135.247
-287.105
-405.688
-482.712
-514.21
-500.851
-447.711
-363.532
-259.584
-148.293
-41.8058
49.3208
117.165
157.104
168.044
152.224
114.648
62.2409
2.85812
-55.7271
-106.727
-145.037
-167.667
-173.867
-164.97
-144
-115.101
-82.9004
-51.8595
-25.7258
-7.12168
2.68087
3.79396
-2.43071
-13.6886
-27.1022
-39.6376
-48.504
-51.4885
-47.1923
-35.148
-15.8154
9.53212
39.0106
70.383
101.339
129.762
153.952
172.787
185.802
193.187
195.719
194.62
191.386
187.6
184.741
184.038
186.351
192.115
201.333
213.617
228.264
244.353
260.853
276.713
290.942
302.662
311.126
315.73
316.002
311.581
302.216
287.76
268.185
243.612
214.34
180.875
143.949
104.511
63.693
22.7416
-17.0742
-54.5742
-88.7794
-88.7794
-88.7794
-88.7794
-88.7794
-88.7794
-88.7794
-88.7794
-88.7794
-88.7794
-88.7794
-88.7794
-88.7794
-88.7794
-88.7794
-88.7794
-88.7794
-88.7794
-88.7794
-88.7794
