64.5632
84.4831
104.166
122.562
138.644
151.52
160.523
165.287
165.792
162.36
155.63
146.481
135.944
125.09
114.923
106.285
99.7766
95.7149
94.1207
94.7375
97.0798
100.5
104.267
107.647
109.972
110.702
109.463
106.062
100.493
92.9124
83.6132
72.9843
61.4704
49.5313
37.6075
26.0922
15.3126
5.51843
-3.11968
-10.5069
-16.6155
-21.473
-25.1503
-27.7494
-29.3924
-30.2132
-30.3501
-29.9406
-29.1164
-27.9999
-26.7004
-25.3107
-23.9047
-22.5354
-21.2347
-20.0141
-18.8661
-17.767
-16.6782
-15.5486
-14.3153
-12.9057
-11.2399
-9.2348
-6.81054
-3.89892
-0.453301
3.54079
8.05615
13.0168
18.2952
23.714
29.0537
34.0654
38.4875
42.0651
44.5701
45.8193
45.6902
44.1313
41.1674
36.898
31.4897
25.163
18.1734
10.7897
3.27103
-4.15583
-11.3152
-18.0961
-24.4584
-30.4322
-36.1097
-41.6317
-47.17
-52.9093
-59.0288
-65.6863
-73.0062
-81.0709
-89.9164
-99.5322
-109.863
-120.816
-132.263
-144.051
-156.01
-167.958
-179.709
-191.082
-201.902
-212.012
-221.266
-229.528
-236.664
-242.527
-246.933
-249.64
-250.327
-248.588
-243.936
-235.841
-223.799
-207.426
-186.575
-161.461
-132.763
-101.693
-69.9963
-39.8725
-13.8138
5.63301
16.1574
15.9941
4.20602
-19.1029
-52.6846
-94.1777
-140.282
-187.058
-230.327
-266.11
-291.061
-302.835
-300.333
-283.819
-254.86
-216.131
-171.1
-123.635
-77.5809
-36.3679
-2.68669
21.7336
36.2253
41.1573
37.7993
28.0978
14.3985
-0.850256
-15.3752
-27.3095
-35.3537
-38.8551
-37.8046
-32.7583
-24.7
-14.8669
-4.5599
5.03607
13.0011
18.7832
22.2437
23.645
23.5824
22.8752
22.4319
23.1088
25.583
30.2544
37.1906
46.1192
56.4666
67.437
78.1197
87.6083
95.1187
100.088
102.247
101.651
98.6788
93.9842
88.4253
82.9661
78.5703
76.0966
76.2088
79.3085
85.4981
94.5773
106.071
119.286
133.385
147.474
160.691
172.277
181.644
188.408
192.398
193.646
192.347
188.814
183.419
176.534
168.488
159.534
149.835
139.467
128.442
116.744
104.363
91.3367
77.7822
63.9112
50.0327
36.5364
23.8617
12.4554
2.72375
-5.01303
-10.5592
-13.8683
-15.051
-14.3659
-12.1931
-8.99543
-5.27096
-1.50407
1.88021
4.55277
6.30436
7.0548
6.84736
5.83015
4.22746
2.30542
0.336253
-1.43439
-2.8136
-3.6783
-3.98228
-3.75315
-3.0808
-2.09946
-0.966395
0.160016
1.1399
1.86716
2.27888
2.35844
2.13248
1.66292
1.03536
0.345849
-0.312262
-0.859689
-1.23962
-1.4224
-1.40634
-1.21488
-0.890974
-0.489613
-0.0696034
0.314207
0.617398
0.810445
0.880829
0.832796
0.685033
0.466775
0.213007
-0.0405523
-0.262016
-0.426932
-0.520568
-0.538727
-0.487153
-0.379754
-0.23598
-0.0777891
0.0733816
0.199258
0.286689
0.328761
0.324999
0.280745
0.205869
0.113044
0.015853
-0.0730116
-0.143255
-0.188018
-0.204374
-0.193283
-0.159055
-0.108452
-0.0495784
0.00928131
0.0607244
0.099067
0.120877
0.125165
0.113254
0.0883606
0.054995
0.018254
-0.0168826
-0.0461651
-0.0665317
-0.0763669
-0.0755519
-0.0653199
-0.0479608
-0.0264379
-0.00402247
0.0158975
0.0296158
0.0322932
0.0164098
-0.0303954
-0.127669
-0.303966
-0.597342
-1.0538
-1.72338
-2.65404
-3.88414
-5.43468
-7.30276
-9.45765
-11.8404
-14.3675
-16.9382
-19.4447
-21.7836
-23.8678
-25.6354
-27.057
-28.138
-28.9173
-29.4625
-29.8605
-30.2077
-30.5973
-31.1088
-31.7973
-32.6869
-33.7676
-34.9964
-36.3018
-37.5933
-38.7716
-39.7409
-40.4198
-40.751
-40.7067
-40.2911
-39.5381
-38.5057
-37.2674
-35.9017
-34.4818
-33.0653
-31.6875
-30.3559
-29.0496
-27.7208
-26.3
-24.7026
-22.8373
-20.6148
-17.9569
-14.8047
-11.1262
-6.9224
-2.23137
2.87013
8.26895
13.8226
19.3726
24.7638
29.8719
34.6353
39.0887
43.3938
47.8566
52.9239
59.1489
67.1212
77.3601
90.1817
105.555
122.969
141.351
159.038
173.857
183.29
184.736
175.84
154.856
120.977
74.5996
17.4529
-47.424
-115.884
-183.032
-243.709
-293.042
-326.984
-342.783
-339.307
-317.188
-278.756
-227.783
-169.069
-107.907
-49.5219
1.46893
41.5036
68.3794
81.3885
81.2776
70.0479
50.6291
26.475
1.13509
-22.148
-40.768
-52.9811
-58.0096
-56.0247
-48.0191
-35.5974
-20.7164
-5.41122
8.45868
19.4145
26.4955
29.3182
28.0593
23.3724
16.255
7.8879
-0.529796
-7.93085
-13.4968
-16.7315
-17.4869
-15.9427
-12.5477
-7.9335
-2.81563
2.10598
6.23367
9.13727
10.592
10.5875
9.31101
7.10797
4.42989
1.77525
-0.36769
-1.57015
-1.49958
0.0582726
3.1922
7.87142
13.9616
21.2472
29.4576
38.2919
47.4427
56.6153
65.543
73.9976
81.7963
88.804
94.9335
100.142
104.427
107.817
110.365
112.142
113.222
113.68
113.58
112.973
111.895
110.361
108.371
105.907
102.945
99.4515
95.3977
90.7628
85.5434
79.7603
73.4644
66.7397
59.7033
52.5018
45.303
38.2852
31.6238
25.4778
19.9766
15.2106
11.225
8.01855
5.54685
3.72998
2.46259
1.62556
1.09749
0.764665
0.528663
0.310931
0.0544909
-0.276909
-0.701517
-1.22339
-1.83658
-2.52906
-3.28603
-4.09242
-4.93444
-5.80053
-6.68165
-7.57121
-8.46483
-9.35994
-10.2554
-11.1511
-12.0473
-12.9444
-13.8423
-14.7398
-15.6344
-16.5224
-17.3982
-18.2555
-19.0874
-19.887
-20.6482
-21.366
-22.0367
-22.6578
-23.2277
-23.7445
-24.2056
-24.6063
-24.9396
-25.1952
-25.3598
-25.4173
-25.3498
-25.139
-24.7673
-24.2196
-23.4848
-22.5566
-21.4344
-20.1244
-18.6388
-16.9968
-15.224
-13.3524
-11.42
-9.46993
-7.54906
-5.70592
-3.98756
-2.43576
-1.08279
0.0527993
0.969432
1.68427
2.23272
2.66535
3.04243
3.42648
3.87384
4.4265
5.10538
5.90617
6.79852
7.72879
8.62614
9.41113
10.0058
10.3441
10.3807
10.0989
9.51439
8.67715
7.66988
6.60391
5.61305
4.84595
4.45757
4.60034
5.41559
7.02586
9.52879
12.9931
17.4574
22.9311
29.3982
36.8216
45.1473
54.3068
64.2169
74.7751
85.8521
97.2809
108.844
120.263
131.191
141.211
149.843
156.563
160.835
162.142
160.037
154.183
144.4
130.692
113.269
92.5504
69.1512
43.8544
17.5685
-8.72453
-34.0269
-57.3854
-77.9494
-95.0238
-108.112
-116.949
-121.513
-122.031
-118.955
-112.928
-104.735
-95.2338
-85.2879
-75.6919
-67.1026
-59.9806
-54.5457
-50.7516
-48.2792
-46.5516
-44.7701
-41.9727
-37.1178
-29.1954
-17.3675
-1.1316
19.5029
43.8533
70.4499
97.0122
120.549
137.608
144.654
138.568
117.161
79.6555
27.0163
-37.9218
-110.59
-185.079
-254.753
-313.008
-354.063
-373.683
-369.722
-342.41
-294.35
-230.214
-156.195
-79.2856
-6.47206
56.0338
103.446
132.852
143.421
136.354
114.595
82.3682
44.5902
6.25661
-28.136
-55.0565
-72.2511
-78.8752
-75.4456
-63.6351
-45.9489
-25.333
-4.76902
13.0948
26.2341
33.4336
34.3543
29.4864
20.0045
7.55427
-5.99883
-18.8215
-29.336
-36.3893
-39.3534
-38.1504
-33.2075
-25.3539
-15.6792
-5.3726
4.43364
12.7985
19.0699
22.9366
24.4339
23.905
21.9288
19.2247
16.55
14.6017
13.9353
14.9086
17.6555
22.089
27.9322
34.7689
42.1064
49.4415
56.3211
62.3897
67.4202
71.3238
74.1428
76.0256
77.1921
77.8927
78.3685
78.817
79.3679
80.0707
80.8945
81.7392
82.4547
82.865
82.7926
82.0805
80.6082
78.3015
75.1351
71.1296
66.3452
60.8733
54.8296
48.347
41.5722
34.662
27.7808
21.0975
14.7797
8.98781
3.8655
-0.469353
-3.93406
-6.48854
-8.13969
-8.94172
-8.99205
-8.42308
-7.3905
-6.05963
-4.59117
-3.12803
-1.78473
-0.640331
0.264287
0.924786
1.3678
1.64226
1.80898
1.92969
2.05721
2.22773
2.45629
2.73584
3.0397
3.32712
3.55063
3.66442
3.63204
3.43264
3.06475
2.54711
1.91671
1.22416
0.52746
-0.115168
-0.652256
-1.04494
-1.27104
-1.32681
-1.22644
-0.999322
-0.685685
-0.331238
0.0184888
0.323326
0.552604
0.687799
0.723509
0.666763
0.534908
0.352457
0.147385
-0.0526317
-0.22355
-0.347515
-0.414394
-0.42221
-0.376545
-0.289131
-0.175942
-0.0551546
0.0546801
0.135981
0.172873
0.151335
0.0589462
-0.115516
-0.382317
-0.750584
-1.22757
-1.81737
-2.5192
-3.32567
-4.22123
-5.18143
-6.17306
-7.15558
-8.08366
-8.91071
-9.59299
-10.0937
-10.3867
-10.459
-10.3118
-9.96026
-9.43136
-8.76091
-7.98952
-7.15855
-6.30639
-5.46554
-4.66091
-3.90933
-3.22028
-2.59742
-2.04069
-1.54837
-1.11871
-0.75084
-0.444622
-0.199673
-0.0136156
0.11995
0.213241
0.285355
0.362191
0.475044
0.657947
0.944117
1.36206
1.93203
2.66352
3.5542
4.59052
5.74957
7.00159
8.31228
9.64406
10.9559
12.2017
13.3284
14.2734
14.9646
15.3217
15.2609
14.7018
13.5764
11.8389
9.47375
6.50255
2.98648
-0.975114
-5.25061
-9.68569
-14.1156
-18.3786
-22.3288
-25.8468
-28.8476
-31.2843
-33.147
-34.4594
-35.2715
-35.6504
-35.6703
-35.4026
-34.9056
-34.2135
-33.3252
-32.1904
-30.6954
-28.6483
-25.77
-21.6957
-15.9954
-8.22112
2.01445
14.9275
30.4311
48.0008
66.5666
84.4658
99.4896
109.042
110.418
101.166
79.5027
44.6987
-2.62402
-60.3534
-124.945
-191.69
-255.166
-309.821
-350.609
-373.598
-376.451
-358.73
-321.969
-269.507
-206.118
-137.465
-69.4729
-7.68864
43.293
80.2641
101.658
107.601
99.7693
81.0764
55.2453
26.3215
-1.80943
-25.8436
-43.3734
-53.0682
-54.711
-49.0998
-37.8386
-23.0531
-7.07377
7.87319
19.9302
27.7999
30.8482
29.1157
23.2445
14.3395
3.78666
-6.9446
-16.488
-23.7354
-27.9429
-28.7811
-26.3283
-21.0134
-13.5225
-4.68388
4.65051
13.7109
21.8913
28.7981
34.2646
38.3326
41.2093
43.2073
44.6794
45.958
47.3052
48.8823
50.7368
52.8099
54.9586
56.988
58.6886
59.8715
60.3981
60.1997
59.2848
57.7365
55.6981
53.3525
50.8968
48.5175
46.367
44.5464
43.0949
41.9863
41.1339
40.4011
39.6186
38.6049
37.1887
35.2305
32.642
29.3992
25.5499
21.2118
16.5638
11.8285
7.25109
3.07336
-0.490567
-3.27639
-5.18579
-6.1952
-6.35606
-5.78702
-4.65893
-3.17496
-1.54817
0.0206318
1.36229
2.35376
2.92645
3.06775
2.81627
2.25166
1.48088
0.622614
-0.207991
-0.912625
-1.41966
-1.68981
-1.71723
-1.52653
-1.16641
-0.700948
-0.200092
0.269645
0.65302
0.911664
1.027
1.00037
0.850731
0.610337
0.31929
0.0196709
-0.249934
-0.458887
-0.587474
-0.628201
-0.585416
-0.473487
-0.313928
-0.131929
0.0472027
0.201232
0.313461
0.374234
0.3814
0.33978
0.259816
0.155661
0.042996
-0.0631139
-0.150096
-0.209301
-0.236931
-0.234474
-0.208717
-0.171436
-0.13881
-0.130582
-0.16897
-0.277272
-0.478158
-0.791689
-1.23315
-1.81089
-2.52449
-3.36342
-4.30664
-5.32327
-6.37447
-7.41644
-8.40444
-9.29731
-10.0621
-10.6779
-11.1393
-11.4575
-11.6601
-11.7887
-11.8954
-12.0371
-12.2703
-12.6451
-13.2004
-13.9607
-14.9341
-16.1136
-17.4788
-19
-20.6425
-22.3712
-24.1541
-25.9642
-27.7795
-29.5816
-31.3522
-33.0689
-34.7012
-36.207
-37.5311
-38.6057
-39.3539
-39.6941
-39.5476
-38.8456
-37.5369
-35.594
-33.0174
-29.8375
-26.114
-21.9318
-17.396
-12.6241
-7.73765
-2.85379
1.92226
6.50344
10.825
14.8463
18.5505
21.9422
25.0436
27.8896
30.5223
32.9849
35.3162
37.5446
39.6813
41.7156
43.6097
45.2959
46.6772
47.6312
48.0185
47.6962
46.5342
44.4346
41.349
37.2935
32.3578
26.7055
20.5663
14.2193
7.96939
2.11915
-3.05994
-7.35398
-10.6272
-12.834
-14.021
-14.3195
-13.9282
-13.0898
-12.0636
-11.0973
-10.4023
-10.1335
-10.3766
-11.1434
-12.3736
-13.9421
-15.6678
-17.322
-18.6321
-19.2829
-18.9147
-17.1283
-13.5014
-7.62963
0.802558
11.9204
25.5352
41.0209
57.2218
72.4266
84.4399
90.7689
88.9167
76.7541
52.9128
17.1352
-29.4914
-84.4677
-144.016
-203.412
-257.475
-301.165
-330.187
-341.536
-333.888
-307.791
-265.627
-211.343
-150.002
-87.199
-28.4371
21.4725
58.9006
81.7306
89.4954
83.3144
65.6523
39.9391
10.1094
-19.88
-46.4937
-66.9724
-79.5657
-83.6264
-79.5667
-68.6959
-52.9712
-34.6968
-16.2163
0.368569
13.4186
21.8999
25.4389
24.2926
19.247
11.4631
2.29598
-6.89091
-14.8907
-20.7817
-24.0072
-24.4023
-22.169
-17.8081
-12.0205
-5.58993
0.733987
6.3402
10.8344
14.0829
16.2172
17.602
18.771
20.3411
22.9179
27.0051
32.9299
40.7943
50.4578
61.5525
73.5272
85.714
97.4079
107.947
116.787
123.554
128.078
130.399
130.748
129.507
127.153
124.201
121.135
118.36
116.161
114.677
113.898
113.672
113.736
113.749
113.334
112.129
109.82
106.185
101.109
94.6046
86.8038
77.9493
68.3689
58.4455
48.5813
39.163
30.5296
22.9463
16.5872
11.5279
7.74713
5.13865
3.52933
2.70259
2.42362
2.46377
2.62156
2.73831
2.70729
2.47605
2.04234
1.44493
0.750865
0.0411712
-0.603162
-1.11324
-1.4411
-1.5647
-1.48877
-1.242
-0.871364
-0.434553
0.00826141
0.40216
0.703811
0.88572
0.938057
0.868092
0.69753
0.458319
0.187596
-0.0774898
-0.304419
-0.468885
-0.55697
-0.56579
-0.502697
-0.383268
-0.22849
-0.0615513
0.0952993
0.223444
0.309849
0.348107
0.338536
0.287431
0.205635
0.106694
0.00486778
-0.0867352
-0.157686
-0.201261
-0.214892
-0.200047
-0.161622
-0.106953
-0.0446432
0.0166596
0.0693526
0.107723
0.128468
0.130849
0.116519
0.0890541
0.0533051
0.0146481
-0.0217456
-0.0515387
-0.0716847
-0.0806741
-0.078561
-0.0667901
-0.0478678
-0.0249336
-0.00129826
0.0199906
0.0365044
0.0466728
0.0498907
0.0464911
0.0376039
0.0249255
0.0104308
-0.00395609
-0.0167366
-0.0272929
-0.0364721
-0.0473338
-0.0660412
-0.102791
-0.172582
-0.295569
-0.496741
-0.804778
-1.25003
-1.86179
-2.66519
-3.67804
-4.90815
-6.35135
-7.99053
-9.79574
-11.7252
-13.7272
-15.742
-17.7045
-19.5463
-21.1984
-22.593
-23.6659
-24.3596
-24.6256
-24.428
-23.7465
-22.5791
-20.9438
-18.8795
-16.445
-13.7159
-10.7808
-7.7354
-4.67612
-1.69372
1.13285
3.74134
6.08953
8.15664
9.94264
11.4656
12.757
13.8564
14.8046
15.6376
16.3813
17.0477
17.6336
18.1202
18.4762
18.6607
18.6264
18.3225
17.6951
16.6871
15.236
13.2727
10.7223
7.50819
3.56168
-1.16381
-6.6744
-12.9164
-19.7601
-26.9895
-34.3042
-41.3323
-47.6582
-52.8604
-56.5567
-58.4509
-58.3738
-56.3133
-52.4275
-47.0396
-40.6119
-33.7049
-26.9219
-20.8494
-15.9979
-12.7508
-11.3276
-11.7643
-13.9132
-17.461
-21.9611
-26.8744
-31.6121
-35.5735
-38.1746
-38.8665
-37.1481
-32.5817
-24.8246
-13.6877
0.774266
18.1471
37.5384
57.4902
75.9637
90.4326
98.103
96.2518
82.6449
55.9707
16.2096
-35.1369
-95.0171
-159.026
-221.818
-277.692
-321.256
-348.099
-355.352
-342.072
-309.386
-260.379
-199.734
-133.194
-66.8941
-6.67282
42.5605
77.3206
95.8519
98.214
86.1526
62.7813
32.1283
-1.38995
-33.4989
-60.536
-79.8099
-89.8142
-90.2843
-82.1018
-67.0753
-47.6311
-26.463
-6.18391
10.9766
23.3991
30.2043
31.2815
27.2211
19.1713
8.64115
-2.71713
-13.3212
-21.8391
-27.3206
-29.2665
-27.6361
-22.798
-15.4353
-6.42513
3.29235
12.8361
21.4837
28.7381
34.3571
38.3465
40.922
42.4486
43.3685
44.1276
45.1119
46.5988
48.7306
51.5089
54.8098
58.4148
62.0518
65.4395
68.3284
70.5348
71.9611
72.6038
72.5473
71.9461
70.9992
69.9199
68.9064
68.1157
67.6457
67.5256
67.7159
68.1173
68.5854
68.9497
69.0329
68.6686
67.715
66.0646
63.6487
60.4396
56.4499
51.7311
46.3719
40.4962
34.2598
27.8462
21.4595
15.3144
9.62356
4.58292
0.356455
-2.93799
-5.23977
-6.55178
-6.94096
-6.53259
-5.49863
-4.0416
-2.3754
-0.705675
0.78843
1.96882
2.74803
3.09283
3.02187
2.59801
1.91649
1.09061
0.236883
-0.538825
-1.15242
-1.54913
-1.70687
-1.63551
-1.37267
-0.976763
-0.518591
-0.0725429
0.291569
0.515188
0.555707
0.388912
0.00922989
-0.571983
-1.32968
-2.22938
-3.23185
-4.29766
-5.3911
-6.48309
-7.5529
-8.58856
-9.58618
-10.5483
-11.4819
-12.3957
-13.2981
-14.195
-15.089
-15.978
-16.8555
-17.7112
-18.5317
-19.3023
-20.0078
-20.6343
-21.1703
-21.6076
-21.9415
-22.1709
-22.2982
-22.3278
-22.2658
-22.1184
-21.8904
-21.5847
-21.2012
-20.7364
-20.1833
-19.5325
-18.7733
-17.895
-16.8889
-15.7507
-14.4817
-13.091
-11.5961
-10.0232
-8.4069
-6.78862
-5.2142
-3.731
-2.38436
-1.21397
-0.250552
0.486892
0.992829
1.27573
1.3573
1.27047
1.05633
0.76036
0.428351
0.10246
-0.182163
-0.399857
-0.535812
-0.586203
-0.557189
-0.462949
-0.323088
-0.159765
0.00508884
0.152172
0.266602
0.338992
0.365792
0.348953
0.295042
0.213978
0.117545
0.0178996
-0.0738061
-0.148528
-0.200087
-0.22553
-0.225096
-0.201844
-0.161001
-0.109138
-0.0532902
-0.000113334
0.0448319
0.07761
0.0962695
0.101129
0.0952155
0.085187
0.0830975
0.109225
0.195856
0.39144
0.764028
1.40259
2.41476
3.92002
6.03789
8.87196
12.4913
16.9116
22.0795
27.8621
34.0448
40.3385
46.3963
51.839
56.2871
59.396
60.891
60.5972
58.4614
54.5629
49.1109
42.4286
34.9254
27.0603
19.2998
12.0752
5.74511
0.565705
-3.32718
-5.92245
-7.32503
-7.73537
-7.42012
-6.67806
-5.80532
-5.06412
-4.65837
-4.7185
-5.29642
-6.37044
-7.85827
-9.63564
-11.5567
-13.4721
-15.2416
-16.7358
-17.8273
-18.3698
-18.1685
-16.9487
-14.3332
-9.84207
-2.92842
6.93863
20.1418
36.7456
56.3166
77.7728
99.3124
118.463
132.276
137.665
131.849
112.843
79.8966
33.8137
-22.9301
-86.309
-151.107
-211.477
-261.627
-296.526
-312.55
-307.943
-283.058
-240.321
-183.948
-119.431
-52.8882
9.64314
62.8777
102.832
127.189
135.443
128.82
109.992
82.6526
50.9884
19.1497
-9.23565
-31.4375
-45.8548
-52.0863
-50.8451
-43.7437
-32.9863
-21.0164
-10.1673
-2.3588
1.12503
-0.243676
-6.22405
-15.8951
-27.8261
-40.2997
-51.5573
-60.0314
-64.5385
-64.41
-59.5489
-50.4118
-37.9226
-23.3347
-8.06176
6.49754
19.1213
28.8918
35.276
38.1538
37.7946
34.7889
29.9491
24.1916
18.4198
13.4189
9.7768
7.83665
7.68466
9.17097
11.9578
15.586
19.55
23.3704
26.656
29.1472
30.7376
31.4734
31.5323
31.1861
30.7549
30.5573
30.8652
31.8666
33.6407
36.1469
39.2267
42.6188
45.9852
48.9444
51.1109
52.136
51.7471
49.7799
46.2021
41.1225
34.7869
27.5581
19.8833
12.2512
5.14467
-1.00667
-5.86724
-9.22622
-11.0138
-11.3018
-10.2892
-8.27432
-5.61808
-2.70229
0.111273
2.51671
4.2909
5.30889
5.54701
5.07433
4.0344
2.62048
1.04751
-0.47542
-1.76897
-2.70154
-3.19963
-3.25028
-2.89608
-2.224
-1.35016
-0.402675
0.495178
1.2394
1.75586
2.00618
1.98857
1.7342
1.29983
0.75817
0.187203
-0.339933
-0.763438
-1.04279
-1.15968
-1.11786
-0.94034
-0.664422
-0.335544
-0.000753843
0.297322
0.525306
0.662233
0.700824
0.646916
0.517318
0.336517
0.132786
-0.0657711
-0.234725
-0.355992
-0.419427
-0.423243
-0.373341
-0.281746
-0.164443
-0.0389416
0.078088
0.172819
0.235698
0.262175
0.252666
0.211796
0.146966
0.0663751
-0.0233433
-0.119657
-0.226545
-0.356446
-0.531345
-0.782658
-1.14962
-1.67609
-2.40597
-3.37754
-4.61756
-6.13573
-7.92066
-9.93782
-12.1303
-14.4225
-16.726
-18.9481
-21.0011
-22.811
-24.3255
-25.5191
-26.3953
-26.9851
-27.3427
-27.5376
-27.6464
-27.7431
-27.8912
-28.1372
-28.5065
-29.0025
-29.608
-30.2885
-30.9966
-31.6773
-32.2724
-32.7251
-32.9828
-33.0004
-32.742
-32.1826
-31.3094
-30.123
-28.6373
-26.8797
-24.8903
-22.7193
-20.425
-18.07
-15.7169
-13.4251
-11.2467
-9.22402
-7.38816
-5.75832
-4.3426
-3.13933
-2.13905
-1.32629
-0.680785
-0.177711
0.213403
0.530973
0.824481
1.1577
1.61105
2.28202
3.2826
4.73314
6.75223
9.44333
12.879
17.0845
22.0234
27.5864
33.5867
39.7625
45.7881
51.2943
55.8953
59.2217
60.9561
60.8668
58.8353
54.876
49.1415
41.9161
33.5943
24.6481
15.5863
6.9097
-0.932618
-7.58054
-12.7905
-16.4502
-18.5795
-19.3178
-18.9004
-17.6268
-15.8251
-13.8159
-11.8817
-10.2418
-9.03676
-8.32257
-8.07166
-8.18018
-8.47692
-8.7307
-8.65314
-7.89608
-6.04572
-2.61991
2.92128
11.1386
22.5381
37.4512
55.8753
77.2971
100.535
123.651
143.978
158.298
163.177
155.434
132.669
93.785
39.3813
-28.0491
-104.183
-183.207
-258.408
-322.926
-370.587
-396.677
-398.556
-376.018
-331.343
-269.045
-195.333
-117.379
-42.483
22.7541
73.1378
105.39
118.406
113.232
92.7966
61.4284
24.2478
-13.493
-47.0319
-72.6086
-87.8134
-91.7421
-84.9563
-69.2705
-47.4084
-22.5821
1.94617
23.2651
39.133
48.183
50.0028
45.091
34.7092
20.6585
5.01417
-10.1444
-22.9776
-32.0766
-36.5843
-36.2409
-31.3552
-22.7136
-11.4434
1.14768
13.7369
25.1348
34.402
40.926
44.4502
45.0609
43.1352
39.2631
34.1537
28.54
23.0927
18.353
14.6887
12.2781
11.118
11.0532
11.8207
13.101
14.571
15.9492
17.0323
17.719
18.0203
18.0589
18.0576
18.3196
19.2015
21.0807
24.3185
29.2197
35.9912
44.7022
55.249
67.3299
80.4344
93.8533
106.712
118.031
126.809
132.118
133.218
129.645
121.293
108.452
91.8089
72.3976
51.5097
30.5717
11.0043
-5.9198
-19.2012
-28.2078
-32.7257
-32.963
-29.5069
-23.2404
-15.2317
-6.60956
1.55997
8.38038
13.2046
15.6805
15.7588
13.6667
9.85229
4.90932
-0.507197
-5.76351
-10.3184
-13.7761
-15.9155
-16.6966
-16.2434
-14.8099
-12.7346
-10.3888
-8.12849
-6.2525
-4.97273
-4.3984
-4.53461
-5.29363
-6.51633
-7.99986
-9.52766
-10.8979
-11.9469
-12.5658
-12.7087
-12.3922
-11.6873
-10.7058
-9.58279
-8.45731
-7.45502
-6.67323
-6.17088
-5.96388
-6.02609
-6.29541
-6.68389
-7.09031
-7.41373
-7.56607
-7.48245
-7.12818
-6.50168
-5.63332
-4.58057
-3.42018
-2.23871
-1.12231
-0.147362
0.627318
1.16566
1.45662
1.51349
1.37054
1.07757
0.693283
0.278432
-0.11027
-0.424609
-0.627037
-0.690308
-0.594764
-0.323875
0.141001
0.825536
1.76599
3.01059
4.61841
6.65563
9.18972
12.2821
15.9801
20.3093
25.2666
30.8158
36.8849
43.3667
50.1218
56.9839
63.767
70.2723
76.2955
81.6327
86.0852
89.4632
91.5902
92.3076
91.4815
89.0112
84.8393
78.9633
71.445
62.4168
52.0841
40.7193
28.6499
16.2387
3.85968
-8.12936
-19.4135
-29.7433
-38.9513
-46.9584
-53.7718
-59.4729
-64.1968
-68.1082
-71.3729
-74.132
-76.478
-78.4372
-79.9595
-80.9161
-81.1076
-80.2806
-78.1544
-74.4541
-68.9491
-61.493
-52.0586
-40.765
-27.8916
-13.8742
0.716613
15.2149
28.913
41.1244
51.2475
58.8239
63.5827
65.4659
64.6322
61.4362
56.3891
50.1032
43.2273
36.3819
30.1009
24.7854
20.6762
17.845
16.2052
15.5398
15.5414
15.8586
16.1431
16.092
15.4804
14.1817
12.1766
9.55085
6.48687
3.25272
0.192649
-2.27908
-3.68235
-3.47831
-1.08791
4.06816
12.4991
24.5394
40.2148
59.0964
80.1712
101.767
121.57
136.764
144.301
141.284
125.422
95.4819
51.6571
-4.21752
-68.6655
-136.806
-202.813
-260.541
-304.241
-329.261
-332.635
-313.478
-273.132
-215.037
-144.352
-67.3813
9.12713
78.7126
135.87
176.582
198.654
201.822
187.646
159.199
120.619
76.5728
31.7165
-9.80075
-44.7241
-70.943
-87.5862
-94.9659
-94.3931
-87.8981
-77.8991
-66.8635
-57.0013
-50.0249
-46.9944
-48.2597
-53.494
-61.8057
-71.907
-82.3134
-91.5472
-98.3209
-101.68
-101.093
-96.4848
-88.2092
-76.977
-63.7467
-49.5959
-35.5909
-22.669
-11.5463
-2.65989
3.85203
8.13367
10.5636
11.6839
12.1175
12.4839
13.3243
15.043
17.8722
21.8605
26.8848
32.6822
38.8952
45.1242
50.9786
56.1224
60.3073
63.3912
65.341
66.2211
66.1701
65.3702
64.0135
62.2692
60.2572
58.0282
55.5548
52.7332
49.3944
45.3249
40.2948
34.0897
26.5428
17.5651
7.16737
-4.52595
-17.2763
-30.7421
-44.5024
-58.0889
-71.0247
-82.8637
-93.227
-101.831
-108.508
-113.209
-115.999
-117.041
-116.566
-114.849
-112.174
-108.81
-104.987
-100.885
-96.6293
-92.2925
-87.9066
-83.4744
-78.9844
-74.4224
-69.7815
-65.0655
-60.2892
-55.4748
-50.6467
-45.8269
-41.0319
-36.2731
-31.5596
-26.9037
-22.3269
-17.8642
-13.5658
-9.49375
-5.71429
-2.28632
0.752198
3.39697
5.68651
7.70507
9.57801
11.4592
13.5121
15.8866
18.6953
21.9936
25.766
29.9208
34.2961
38.6741
42.8039
46.4285
49.3132
51.2715
52.1847
52.0139
50.8032
48.6729
45.8054
42.4254
38.777
35.1002
31.6106
28.4829
25.8405
23.7515
22.2302
21.2432
20.719
20.5581
20.6431
20.8471
21.0394
21.0889
20.8656
20.2417
19.093
17.3031
14.7697
11.414
7.19221
2.10802
-3.77664
-10.3336
-17.366
-24.6121
-31.7565
-38.4484
-44.3255
-49.0419
-52.2973
-53.8643
-53.6109
-51.5158
-47.6732
-42.2883
-35.661
-28.1613
-20.198
-12.1832
-4.49829
2.53717
8.68877
13.8213
17.9018
20.9924
23.2334
24.8189
25.9694
26.9027
27.8077
28.824
30.0278
31.4278
32.9676
34.5364
35.9857
37.1481
37.8588
37.9744
37.3902
36.0517
33.9614
31.1797
27.8194
24.0366
20.0162
15.9562
12.0508
8.47441
5.36769
2.82722
0.899231
-0.421997
-1.19099
-1.50373
-1.48678
-1.28425
-1.04386
-0.903824
-0.981965
-1.36841
-2.1227
-3.27555
-4.83494
-6.79554
-9.14982
-11.8989
-15.0611
-18.6761
-22.8041
-27.518
-32.8909
-38.9792
-45.805
-53.3393
-61.4909
-70.1014
-78.9494
-87.764
-96.2442
-104.086
-111.009
-116.783
-121.25
-124.336
-126.059
-126.517
-125.876
-124.351
-122.171
-119.558
-116.698
-113.72
-110.685
-107.577
-104.31
-100.73
-96.627
-91.7419
-85.773
-78.3783
-69.1809
-57.7817
-43.7896
-26.8764
-6.86143
16.1777
41.7811
68.9955
96.3085
121.662
142.573
156.372
160.536
153.091
133.003
100.499
57.2497
6.3525
-47.8867
-100.371
-145.775
-179.175
-196.66
-195.843
-176.182
-139.084
-87.7607
-26.865
38.0435
101.134
156.956
201.026
230.271
243.294
240.424
223.558
195.838
161.202
123.875
87.8713
56.5618
32.3587
16.5413
9.23464
9.52727
15.7018
25.5387
36.6494
46.7939
54.1463
57.4803
56.2598
50.6329
41.3405
29.5593
16.7059
4.2303
-6.57358
-14.7185
-19.6207
-21.1358
-19.536
-15.4365
-9.68669
-3.24242
2.96196
8.12618
11.6683
13.2734
12.9034
10.7726
7.29308
3.00258
-1.51628
-5.71315
-9.1347
-11.4702
-12.574
-12.4652
-11.3062
-9.36632
-6.97574
-4.47729
-2.18193
-0.333328
0.91532
1.51061
1.49496
0.991244
0.179338
-0.731743
-1.53223
-2.03712
-2.10639
-1.65821
-0.674882
0.798285
2.66012
4.76554
6.9409
9.00125
10.7682
12.0868
12.8401
12.96
12.4338
11.305
9.66855
7.66138
5.44847
3.20632
1.10559
-0.705233
-2.11325
-3.05041
-3.49752
-3.48295
-3.07621
-2.37762
-1.50528
-0.581091
0.282545
0.993858
1.48958
1.73889
1.74331
1.5329
1.1596
0.688609
0.189231
-0.273893
-0.648014
-0.897321
-1.0054
-0.975058
-0.825881
-0.589932
-0.306444
-0.0161767
0.243794
0.444272
0.566704
0.604326
0.561724
0.453022
0.299086
0.12418
-0.0474419
-0.194601
-0.301579
-0.35965
-0.367692
-0.331959
-0.265132
-0.184856
-0.111934
-0.0683648
-0.0753356
-0.151318
-0.310345
-0.560573
-0.903254
-1.3322
-1.83386
-2.38807
-2.9695
-3.54968
-4.09956
-4.59223
-5.00563
-5.32486
-5.54391
-5.66634
-5.70516
-5.68151
-5.62255
-5.55866
-5.52025
-5.53466
-5.62338
-5.79994
-6.06864
-6.42427
-6.85276
-7.33266
-7.83728
-8.33726
-8.80326
-9.20856
-9.53118
-9.75542
-9.87261
-9.88107
-9.78526
-9.59434
-9.32029
-8.97592
-8.57307
-8.12121
-7.62673
-7.09297
-6.52097
-5.91085
-5.26349
-4.58228
-3.87453
-3.15227
-2.4323
-1.73538
-1.08457
-0.503107
-0.0119116
0.372795
0.641457
0.792458
0.832516
0.776147
0.644292
0.462323
0.257734
0.0578692
-0.111987
-0.229889
-0.277759
-0.241197
-0.108785
0.12877
0.479225
0.948734
1.54089
2.25486
3.08273
4.00677
4.9969
6.00927
6.98637
7.85902
8.55031
8.98111
9.07679
8.77445
8.03011
6.82522
5.1721
3.11746
0.743687
-1.83305
-4.46833
-6.99871
-9.25449
-11.0749
-12.324
-12.9059
-12.7762
-11.9489
-10.4965
-8.5437
-6.25444
-3.81437
-1.4105
0.789092
2.65301
4.09928
5.10154
5.68792
5.93299
5.94401
5.84355
5.75092
5.76502
5.95083
6.33125
6.88522
7.55205
8.2412
8.8459
9.25879
9.38722
9.16646
8.56892
7.60854
6.33975
4.85153
3.25729
1.6822
0.249407
-0.932825
-1.78163
-2.2463
-2.31035
-1.98859
-1.31929
-0.351951
0.868286
2.31847
4.01681
6.04142
8.54736
11.7794
16.0765
21.8627
29.6159
39.8089
52.8158
68.787
87.5046
108.241
129.657
149.771
166.048
175.604
175.538
163.351
137.386
97.2266
43.9648
-19.7129
-89.6617
-160.635
-226.823
-282.503
-322.715
-343.867
-344.183
-323.925
-285.377
-232.569
-170.803
-106.035
-44.1956
9.45505
50.8682
77.5745
88.8473
85.6508
70.396
46.5444
18.1218
-10.7944
-36.5487
-56.2879
-68.2116
-71.6721
-67.128
-55.9681
-40.2423
-22.3386
-4.65368
10.7039
22.1441
28.7376
30.2615
27.1539
20.3903
11.3071
1.3992
-7.88171
-15.3017
-19.9744
-21.434
-19.6486
-14.9786
-8.09079
0.156147
8.83784
17.085
24.1845
29.6497
33.2558
35.0383
35.2587
34.3471
32.8287
31.2469
30.0928
29.7484
30.4493
32.2702
35.131
38.8217
43.0402
47.4369
51.6606
55.3984
58.4076
60.5339
61.7189
61.9933
61.4617
60.2798
58.6283
56.6873
54.6127
52.5184
50.4653
48.4575
46.4461
44.3406
42.0261
39.384
36.3141
32.7552
28.7008
24.2078
19.3973
14.4456
9.56768
4.99507
0.9497
-2.38128
-4.86722
-6.44918
-7.14654
-7.0544
-6.33198
-5.18393
-3.83681
-2.51389
-1.41142
-0.67908
-0.406867
-0.619597
-1.27918
-2.2939
-3.5332
-4.84566
-6.07799
-7.09268
-7.7824
-8.07969
-7.96137
-7.44754
-6.59575
-5.49157
-4.2367
-2.93649
-1.68807
-0.570621
0.361409
1.08152
1.59077
1.91415
2.09443
2.18461
2.2399
2.31044
2.43557
2.64013
2.93312
3.30843
3.74729
4.22182
4.69903
5.14456
5.52591
5.81473
5.98843
6.03102
5.93351
5.69412
5.31827
4.81856
4.21443
3.53157
2.80084
2.05663
1.33471
0.669691
0.0923679
-0.372878
-0.710158
-0.913432
-0.986931
-0.944553
-0.808281
-0.605811
-0.367652
-0.124047
0.0979316
0.276787
0.398261
0.456095
0.451865
0.393975
0.295974
0.17446
0.0468334
-0.0708141
-0.165445
-0.228286
-0.255399
-0.247628
-0.209966
-0.150496
-0.0790641
-0.00588597
0.0597486
0.110516
0.141748
0.151717
0.141533
0.114691
0.0763835
0.0326569
-0.0104497
-0.047708
-0.0753678
-0.0916486
-0.0970293
-0.0943209
-0.0885063
-0.0863327
-0.0956511
-0.124524
-0.180167
-0.267842
-0.389872
-0.544956
-0.72798
-0.930409
-1.1413
-1.34884
-1.54217
-1.7133
-1.85867
-1.98015
-2.08527
-2.18651
-2.29977
-2.44216
-2.62947
-2.87363
-3.18057
-3.54881
-3.96903
-4.42468
-4.89354
-5.35013
-5.76852
-6.12521
-6.40175
-6.58662
-6.67622
-6.67483
-6.59356
-6.44844
-6.25804
-6.04086
-5.813
-5.58616
-5.36659
-5.15462
-4.94516
-4.72869
-4.49268
-4.22296
-3.9049
-3.524
-3.06581
-2.51526
-1.85545
-1.06622
-0.122827
1.00486
2.35247
3.96009
5.86996
8.12287
10.7533
13.7839
17.2198
21.0437
25.2123
29.6558
34.2792
38.9665
43.5873
48.0038
52.0782
55.679
58.6854
60.9896
62.4974
63.1284
62.8164
61.5115
59.1844
55.8329
51.4901
46.2313
40.1802
33.5097
26.4381
19.2187
12.1242
5.42633
-0.626446
-5.83069
-10.0465
-13.2099
-15.3381
-16.5252
-16.9303
-16.7587
-16.2377
-15.5915
-15.0168
-14.6623
-14.6146
-14.8889
-15.4267
-16.0948
-16.686
-16.9183
-16.4333
-14.7981
-11.5187
-6.07348
2.0208
13.1077
27.2577
44.1194
62.7872
81.7231
98.7713
111.297
116.45
111.543
94.4842
64.2022
20.9842
-33.3445
-95.4485
-160.734
-223.799
-279.04
-321.31
-346.557
-352.34
-338.149
-305.484
-257.683
-199.529
-136.676
-74.9969
-19.9142
24.182
54.3679
69.4215
69.8418
57.6619
36.0928
9.05247
-19.3517
-45.3203
-65.7789
-78.6704
-83.0961
-79.3033
-68.5334
-52.7636
-34.3846
-15.8597
0.58928
13.2341
21.0043
23.5523
21.2223
14.9359
6.01775
-4.01108
-13.6424
-21.5679
-26.8217
-28.866
-27.6159
-23.4046
-16.9011
-8.99504
-0.665338
7.14826
13.6561
18.3
20.7975
21.1483
19.6056
16.6189
12.7597
8.64003
4.83507
1.81929
-0.0774756
-0.690446
-0.0165682
1.80968
4.55618
7.94175
11.6861
15.5535
19.3854
23.1164
26.7736
30.4606
34.3281
38.5381
43.2262
48.4691
54.2616
60.5056
67.0138
73.5243
79.7248
85.2809
89.8655
93.1843
94.9955
95.1243
93.4709
90.0143
84.8136
78.0072
69.8096
60.5062
50.4441
40.0182
29.6516
19.7714
10.7805
3.02843
-3.21621
-7.78752
-10.6361
-11.8325
-11.5589
-10.0906
-7.76794
-4.96315
-2.04457
0.656807
2.87524
4.42959
5.23251
5.28895
4.68515
3.56991
2.13104
0.570064
-0.921861
-2.18412
-3.10114
-3.61011
-3.70174
-3.41477
-2.82552
-2.03429
-1.15052
-0.278772
0.492862
1.10088
1.51028
1.71445
1.73152
1.59813
1.36185
1.07338
0.779593
0.518151
0.314286
0.1797
0.113484
0.104597
0.135321
0.185092
0.234097
0.266211
0.270939
0.244249
0.188337
0.110513
0.0214656
-0.0667495
-0.142686
-0.197176
-0.224496
-0.222914
-0.19463
-0.145177
-0.0824491
-0.0155781
0.0460887
0.0936576
0.118812
0.113327
0.0680688
-0.0282289
-0.190026
-0.43542
-0.785622
-1.2633
-1.88987
-2.68212
-3.64868
-4.78709
-6.08193
-7.50464
-9.01506
-10.5647
-12.101
-13.5727
-14.9349
-16.153
-17.2063
-18.0888
-18.8094
-19.3896
-19.8603
-20.2576
-20.6185
-20.9765
-21.358
-21.7801
-22.2492
-22.7613
-23.3031
-23.8547
-24.392
-24.8901
-25.3259
-25.6799
-25.9374
-26.0883
-26.1255
-26.0435
-25.8352
-25.49
-24.9922
-24.3207
-23.4498
-22.3516
-20.9997
-19.3734
-17.4614
-15.2652
-12.8017
-10.1035
-7.21817
-4.20588
-1.13566
1.91876
4.88372
7.69013
10.2775
12.5974
14.6151
16.3111
17.6807
18.7326
19.4867
19.9711
20.2188
20.2644
20.1412
19.8782
19.4982
19.017
18.4424
17.7752
17.0099
16.1365
15.1434
14.0194
12.7577
11.3583
9.831
8.19806
6.49527
4.77253
3.09269
1.52893
0.160433
-0.933207
-1.67859
-2.0153
-1.90227
-1.32281
-0.287868
1.16306
2.96342
5.02338
7.23548
9.4816
11.6406
13.5958
15.2419
16.4901
17.272
17.5416
17.2746
16.4669
15.1315
13.2948
10.9927
8.26803
5.16795
1.74358
-1.94964
-5.85038
-9.88954
-13.9887
-18.0598
-22.0067
-25.729
-29.1282
-32.116
-34.6226
-36.6058
-38.0572
-39.0059
-39.5187
-39.6945
-39.6552
-39.5327
-39.4532
-39.5199
-39.7967
-40.2924
-40.9469
-41.6187
-42.0745
-41.9795
-40.8928
-38.2707
-33.4871
-25.8799
-14.8341
0.0948843
19.0211
41.5518
66.6278
92.4261
116.37
135.285
145.706
144.318
128.481
96.7396
49.246
-12.0066
-83.1942
-158.94
-232.843
-298.181
-348.714
-379.451
-387.287
-371.409
-333.422
-277.165
-208.261
-133.447
-59.789
6.12024
58.878
94.8128
112.295
111.785
95.6347
67.6773
32.6678
-4.34072
-38.6089
-66.2358
-84.5402
-92.2631
-89.5831
-77.958
-59.827
-38.2226
-16.3459
2.83982
16.9507
24.4243
24.6426
17.9313
5.44894
-11.0143
-29.2946
-47.1357
-62.4583
-73.5883
-79.4197
-79.5006
-74.0373
-63.8225
-50.103
-34.4049
-18.3411
-3.42216
9.10938
18.4042
24.0829
26.2575
25.5013
22.7698
19.2856
16.397
15.4279
17.5326
23.5703
34.0136
48.8977
67.8171
89.9681
114.233
139.296
163.775
186.358
205.931
221.673
233.126
240.212
243.224
242.765
239.668
234.896
229.426
224.157
219.812
216.878
215.57
215.825
217.324
219.541
221.813
223.421
223.676
221.994
217.972
211.425
202.412
191.229
178.375
164.495
150.306
136.516
123.743
112.444
102.867
95.0302
88.725
83.5566
79.0028
74.492
69.4864
63.559
56.4556
48.1315
38.7591
28.7057
18.486
8.69437
-0.0709597
-7.28378
-12.554
-15.6733
-16.6362
-15.6359
-13.0357
-9.32201
-5.04422
-0.751636
3.06621
6.02794
7.89249
8.57248
8.12849
6.74666
4.70355
2.32377
-0.0638822
-2.16639
-3.75807
-4.70074
-4.95106
-4.55568
-3.63572
-2.36384
-0.93739
0.448714
1.62585
2.4698
2.91139
2.93921
2.59476
1.96163
1.1505
0.282395
-0.527548
-1.18388
-1.62069
-1.80667
-1.74538
-1.47105
-1.04098
-0.525915
0.000276041
0.470231
0.830847
1.04844
1.11088
1.02688
0.822598
0.536552
0.213435
-0.102156
-0.371318
-0.565129
-0.667221
-0.674504
-0.596144
-0.451104
-0.264719
-0.0648322
0.121975
0.273591
0.374681
0.417895
0.403942
0.340638
0.241145
0.121669
-0.00105008
-0.112221
-0.201184
-0.263146
-0.300318
-0.322382
-0.346228
-0.394948
-0.496092
-0.679286
-0.973335
-1.40303
-1.98592
-2.72943
-3.62861
-4.66486
-5.80597
-7.00755
-8.21579
-9.37155
-10.4152
-11.2918
-11.9563
-12.3774
-12.5407
-12.4497
-12.1257
-11.6048
-10.9349
-10.1703
-9.3674
-8.57939
-7.85241
-7.2227
-6.71513
-6.34323
-6.11026
-6.01124
-6.03529
-6.16791
-6.3929
-6.6935
-7.05285
-7.45374
-7.87794
-8.30529
-8.71302
-9.07544
-9.36426
-9.54958
-9.60127
-9.49085
-9.19323
-8.68831
-7.96199
-7.00666
-5.82105
-4.40953
-2.78121
-0.948777
1.07234
3.26472
5.60927
8.08518
10.6696
13.3371
16.059
18.8025
21.5302
24.1995
26.762
29.1635
31.3444
33.2401
34.7824
35.9013
36.5274
36.5958
36.0502
34.8482
32.9669
30.408
27.202
23.4115
19.1304
14.4818
9.61144
4.67965
-0.149809
-4.72111
-8.89769
-12.5719
-15.6716
-18.1637
-20.053
-21.377
-22.1982
-22.5914
-22.6311
-22.3763
-21.8563
-21.0572
-19.91
-18.2806
-15.963
-12.6737
-8.0506
-1.65494
7.01975
18.5302
33.4528
52.3347
75.6216
103.558
136.057
172.559
211.88
252.101
290.525
323.752
347.897
358.953
353.284
328.185
282.42
216.649
133.647
38.2638
-62.9205
-162.195
-251.524
-323.443
-371.926
-393.107
-385.739
-351.351
-294.06
-220.078
-136.98
-52.8366
24.6843
89.1235
135.856
162.467
168.85
157.029
130.751
94.9173
54.9229
16.0043
-17.3357
-41.7635
-55.3713
-57.7427
-49.8393
-33.7392
-12.2749
11.3776
34.1039
53.2053
66.6648
73.3048
72.8304
65.7654
53.3014
37.0869
18.9884
0.853459
-15.6953
-29.4165
-39.543
-45.8082
-48.4105
-47.9273
-45.1943
-41.1689
-36.7956
-32.8894
-30.0491
-28.6084
-28.6243
-29.9031
-32.0539
-34.5617
-36.8688
-38.453
-38.8944
-37.9234
-35.4453
-31.5413
-26.448
-20.519
-14.1762
-7.85575
-1.95785
3.19611
7.39292
10.5419
12.6737
13.9246
14.5105
14.693
14.7443
14.9136
15.3992
16.3301
17.7572
19.656
21.938
24.4722
27.1107
29.7177
32.1961
34.5075
36.6824
38.817
41.0562
43.5626
46.4779
49.8796
53.7425
57.9132
62.1021
65.8993
68.813
70.3267
69.9678
67.377
62.3688
54.9719
45.4442
34.2589
22.0617
9.60695
-2.32154
-12.9926
-21.8033
-28.3385
-32.4068
-34.0499
-33.5257
-31.2672
-27.8245
-23.797
-19.7654
-16.2299
-13.5624
-11.9773
-11.5221
-12.0882
-13.4388
-15.2488
-17.1528
-18.7929
-19.8623
-20.1397
-19.5106
-17.9742
-15.6372
-12.6936
-9.39774
-6.03001
-2.86345
-0.13274
1.98977
3.40908
4.11236
4.16377
3.69066
2.86346
1.87205
0.901973
0.113044
-0.376966
-0.50228
-0.251974
0.333898
1.17383
2.15832
3.16532
4.07558
4.78616
5.22065
5.3354
5.12132
4.60172
3.82667
2.8651
1.79567
0.69742
-0.358413
-1.31497
-2.13387
-2.79672
-3.30407
-3.67216
-3.9281
-4.10428
-4.2327
-4.34001
-4.44391
-4.55107
-4.65689
-4.74698
-4.79996
-4.79126
-4.69735
-4.49978
-4.1886
-3.76457
-3.24003
-2.63819
-1.99111
-1.33645
-0.713534
-0.159233
0.295889
0.630685
0.835465
0.912786
0.87698
0.752529
0.571517
0.370441
0.186712
0.0551722
0.00493219
0.0568105
0.221608
0.499389
0.879859
1.34381
1.86552
2.41577
2.96522
3.48759
3.96233
4.37631
4.72437
5.00861
5.23656
5.41849
5.5645
5.68172
5.7723
5.83249
5.85307
5.82094
5.72166
5.54226
5.27385
4.91336
4.46418
3.93558
3.34108
2.69636
2.01718
1.31806
0.611992
-0.0885065
-0.76922
-1.41142
-1.98908
-2.46685
-2.79951
-2.93304
-2.80764
-2.36211
-1.53916
-0.290851
1.41651
3.59867
6.25127
9.3494
12.8487
16.6877
20.791
25.0729
29.4404
33.796
38.0399
42.0713
45.7881
49.0869
51.8612
54.0009
55.3911
55.9143
55.4554
53.9098
51.1959
47.2703
42.1425
35.8882
28.6578
20.6765
12.2366
3.68039
-4.625
-12.3175
-19.0719
-24.6297
-28.8228
-31.5881
-32.9723
-33.1242
-32.2769
-30.7219
-28.7773
-26.7547
-24.9275
-23.5038
-22.6072
-22.2638
-22.3974
-22.8289
-23.2796
-23.3756
-22.656
-20.588
-16.596
-10.1148
-0.67217
11.9947
27.7992
46.1624
65.8994
85.1759
101.571
112.269
114.378
105.349
83.4205
48.0421
0.161092
-57.668
-121.404
-185.872
-245.301
-293.999
-327.044
-340.915
-333.953
-306.604
-261.388
-202.616
-135.885
-67.4259
-3.39049
50.8294
91.1657
115.254
122.592
114.47
93.6987
64.166
30.3144
-3.41571
-33.0919
-55.693
-69.3677
-73.5302
-68.795
-56.7751
-39.7804
-20.4631
-1.45867
14.9335
26.994
33.7303
34.9201
31.0538
23.198
12.8017
1.47787
-9.21125
-17.9382
-23.7445
-26.1131
-24.9777
-20.6739
-13.8453
-5.32238
4.00744
13.3194
21.947
29.442
35.597
40.4307
44.143
47.0511
49.5164
51.8759
54.3854
57.1828
60.2738
63.5397
66.7636
69.6698
71.9686
73.4009
73.7748
72.9911
71.0549
68.073
64.2389
59.8083
55.0695
50.3125
45.8002
41.7459
38.2973
35.5299
33.4469
31.9864
31.0327
30.43
29.9964
29.5371
28.8552
27.7617
26.0829
23.6674
20.3921
16.1678
10.9441
4.71387
-2.48434
-10.5647
-19.395
-28.799
-38.5611
-48.4319
-58.1357
-67.3775
-75.8518
-83.2496
-89.2679
-93.6175
-96.0344
-96.2906
-94.2088
-89.6759
-82.6571
-73.2083
-61.4833
-47.7368
-32.3195
-15.6666
1.72036
19.2974
36.5054
52.7987
67.6714
80.6809
91.4664
99.7619
105.404
108.335
108.604
106.36
101.846
95.3867
87.3752
78.2515
68.4819
58.5336
48.849
39.8207
31.7697
24.9281
19.4289
15.3028
12.4834
10.8202
10.0976
10.0585
10.4303
10.951
11.3914
11.5737
11.3828
10.7707
9.75273
8.3988
6.81818
5.14225
3.50623
2.03244
0.816835
-0.0799002
-0.636092
-0.867723
-0.822676
-0.571739
-0.19785
0.214876
0.590899
0.870642
1.01479
1.00528
0.843221
0.544383
0.13331
-0.362985
-0.920598
-1.52281
-2.16211
-2.84005
-3.56515
-4.34941
-5.20423
-6.13644
-7.14522
-8.22045
-9.34273
-10.485
-11.6158
-12.7026
-13.7167
-14.6362
-15.4492
-16.1548
-16.7631
-17.2935
-17.7713
-18.2243
-18.6787
-19.1549
-19.6652
-20.2115
-20.7854
-21.3685
-21.9352
-22.4549
-22.8954
-23.2258
-23.4191
-23.4538
-23.3144
-22.992
-22.4826
-21.7872
-20.9096
-19.8563
-18.636
-17.2596
-15.7414
-14.1001
-12.3603
-10.5533
-8.71748
-6.89771
-5.1436
-3.50658
-2.03622
-0.776154
0.240104
0.992651
1.47793
1.71057
1.72461
1.57456
1.33641
1.10857
1.01177
1.18678
1.7886
2.97601
4.89635
7.66657
11.3525
15.9496
21.3688
27.4303
33.8683
40.3473
46.4888
51.9063
56.2436
59.2121
60.6216
60.3999
58.5993
55.3885
51.033
45.8662
40.2586
34.5886
29.2231
24.5094
20.7811
18.3752
17.6544
19.0271
22.9552
29.941
40.4893
55.0424
73.8959
97.1031
124.385
155.06
188.013
221.708
254.266
283.587
307.527
324.093
331.652
329.116
316.078
292.888
260.651
221.143
176.663
129.822
83.3092
39.655
1.01445
-30.9993
-55.4208
-71.9684
-81.012
-83.4801
-80.7219
-74.3399
-66.0126
-57.3231
-49.6089
-43.8426
-40.5523
-39.784
-41.1104
-43.6869
-46.3554
-47.7948
-46.7132
-42.0706
-33.3099
-20.564
-4.80057
12.1387
27.6347
38.5392
41.5604
33.7437
12.978
-21.5534
-69.0633
-127.055
-191.462
-257.019
-317.836
-368.089
-402.738
-418.156
-412.603
-386.455
-342.171
-283.995
-217.45
-148.676
-83.7267
-27.8889
14.8652
42.2464
53.7933
50.7907
35.9853
13.1473
-13.4567
-39.6085
-61.6315
-76.7763
-83.4598
-81.3408
-71.2368
-54.9075
-34.7425
-13.4025
6.53829
22.9042
34.1498
39.4908
38.9279
33.1717
23.4875
11.4878
-1.09641
-12.6355
-21.7852
-27.6162
-29.6787
-27.9999
-23.0242
-15.5063
-6.37983
3.38191
12.8924
21.4511
28.6064
34.1766
38.233
41.0511
43.041
44.6682
46.3783
48.5357
51.3829
55.0256
59.4419
64.5119
70.0601
75.9024
81.8872
87.9252
94.0018
100.171
106.536
113.214
120.298
127.829
135.761
143.955
152.179
160.124
167.434
173.739
178.689
181.987
183.408
182.812
180.143
175.421
168.728
160.191
149.967
138.241
125.215
111.121
96.2278
80.8452
65.3334
50.0969
35.5708
22.1979
10.3963
0.523863
-7.15749
-12.5107
-15.5424
-16.4072
-15.3966
-12.9141
-9.43665
-5.47058
-1.5038
2.03773
4.82549
6.65172
7.43847
7.23216
6.18513
4.52722
2.53134
0.477501
-1.38042
-2.8415
-3.77569
-4.13165
-3.93446
-3.27471
-2.29113
-1.14951
-0.0208999
0.938268
1.60203
1.88529
1.7482
1.19472
0.266336
-0.967885
-2.42302
-4.01033
-5.64808
-7.26989
-8.83014
-10.3059
-11.6959
-13.0164
-14.2958
-15.5683
-16.8668
-18.2177
-19.6368
-21.1267
-22.6768
-24.2649
-25.8603
-27.4275
-28.9311
-30.339
-31.6265
-32.7775
-33.7852
-34.6517
-35.3856
-35.9991
-36.5055
-36.9152
-37.2336
-37.459
-37.5819
-37.5855
-37.4471
-37.1407
-36.6399
-35.921
-34.9657
-33.7622
-32.3066
-30.6021
-28.6585
-26.4914
-24.1223
-21.5787
-18.8957
-16.1166
-13.2936
-10.4859
-7.75573
-5.15927
-2.7355
-0.491999
1.60857
3.65825
5.80609
8.25005
11.217
14.9316
19.5769
25.2533
31.9403
39.4716
47.5262
55.643
63.2554
69.7464
74.5159
77.0515
76.9933
74.184
68.6956
60.8305
51.0948
40.1483
28.737
17.6172
7.47985
-1.11405
-7.78182
-12.3444
-14.8277
-15.441
-14.537
-12.5586
-9.98076
-7.25481
-4.76071
-2.77392
-1.44907
-0.821626
-0.826223
-1.32839
-2.16481
-3.18616
-4.29605
-5.47996
-6.8193
-8.48721
-10.7257
-13.8058
-17.9758
-23.4027
-30.1172
-37.9676
-46.592
-55.4129
-63.658
-70.4058
-74.6523
-75.3943
-71.7188
-62.8925
-48.4409
-28.2097
-2.40389
28.3986
63.2602
100.921
139.857
178.356
214.613
246.831
273.338
292.701
303.841
306.133
299.476
284.331
261.714
233.13
200.471
165.866
131.5
99.4386
71.4438
48.835
32.3865
22.2826
18.132
19.037
23.71
30.6228
38.1701
44.8314
49.3128
50.656
48.3051
42.1262
32.3835
19.6754
4.84254
-11.1399
-27.2736
-42.6381
-56.4723
-68.2285
-77.5968
-84.4997
-89.0609
-91.556
-92.3527
-91.8489
-90.4173
-88.3627
-85.8945
-83.1168
-80.0339
-76.5674
-72.5778
-67.8868
-62.2917
-55.5706
-47.4777
-37.7332
-26.0177
-11.9843
4.69892
24.2677
46.7406
71.7738
98.5198
125.531
150.746
171.603
185.279
189.052
180.736
159.12
124.334
78.0575
23.5242
-34.7074
-91.1976
-140.233
-176.511
-195.813
-195.556
-175.151
-136.116
-81.9204
-17.5898
50.8785
117.206
175.542
221.092
250.603
262.643
257.648
237.752
206.435
168.03
127.171
88.2502
54.9376
29.8303
14.2518
8.21715
10.5543
19.1538
31.3065
44.0837
54.7109
60.8922
61.0522
54.4741
41.3246
22.574
-0.173548
-24.9107
-49.4892
-71.8803
-90.4038
-103.902
-111.844
-114.35
-112.141
-106.425
-98.7278
-90.704
-83.936
-79.7551
-79.0988
-82.4195
-89.6519
-100.24
-113.214
-127.311
-141.113
-153.197
-162.27
-167.284
-167.516
-162.613
-152.6
-137.851
-119.04
-97.0636
-72.9637
-47.8387
-22.7653
1.27126
23.4319
43.0616
59.7089
73.1283
83.2667
90.2372
94.2846
95.7452
95.0065
92.4697
88.5175
83.4905
77.6712
71.2785
64.4706
57.3562
50.0129
42.5098
34.932
27.4034
20.103
13.2715
7.20604
2.2399
-1.29018
-3.08711
-2.94128
-0.776149
3.31613
9.05634
15.9825
23.4788
30.8287
37.285
42.1507
44.8585
45.0385
42.5649
37.5758
30.4606
21.8203
12.402
3.01853
-5.53719
-12.5739
-17.5684
-20.2112
-20.4258
-18.3618
-14.3641
-8.92349
-2.61585
3.96181
10.2516
15.7841
20.213
23.3322
25.0763
25.5059
24.7816
23.1318
20.8185
18.1058
15.2332
12.3976
9.74226
7.35325
5.26192
3.45137
1.86551
0.419192
-0.991508
-2.47932
-4.15639
-6.12552
-8.47206
-11.2567
-14.5098
-18.227
-22.3681
-26.8583
-31.5927
-36.4438
-41.2717
-45.9347
-50.3007
-54.2571
-57.7185
-60.6302
-62.9695
-64.7422
-65.9774
-66.7197
-67.0215
-66.9359
-66.5107
-65.7853
-64.7892
-63.5435
-62.0629
-60.3589
-58.4431
-56.3296
-54.0362
-51.5848
-49.0007
-46.3117
-43.5467
-40.735
-37.9052
-35.0853
-32.3023
-29.5822
-26.9494
-24.4255
-22.0279
-19.7681
-17.6499
-15.6691
-13.8121
-12.0567
-10.3715
-8.71563
-7.03806
-5.27626
-3.35589
-1.19191
1.30741
4.23329
7.66579
11.6608
16.236
21.3582
26.9346
32.8084
38.7632
44.5341
49.8261
54.3388
57.7945
59.9666
60.7057
59.9598
57.7863
54.3537
49.9329
44.8774
39.595
34.5137
30.0437
26.5415
24.277
23.41
23.9748
25.8781
28.9071
32.75
37.0247
41.3142
45.2049
48.3234
50.3695
51.14
50.543
48.5999
45.4367
41.2651
36.356
31.0092
25.5228
20.1646
15.1496
10.6253
6.66534
3.27169
0.384659
-2.10151
-4.31962
-6.40946
-8.49924
-10.6905
-13.0481
-15.596
-18.32
-21.1755
-24.1007
-27.0326
-29.9225
-32.7501
-35.5313
-38.3202
-41.2025
-44.2822
-47.6634
-51.4295
-55.6239
-60.2353
-65.1901
-70.3539
-75.5403
-80.5286
-85.0841
-88.9813
-92.0239
-94.0608
-94.9941
-94.7813
-93.4296
-90.9859
-87.5235
-83.13
-77.8967
-71.9125
-65.2617
-58.0259
-50.2885
-42.1388
-33.6742
-24.9969
-16.2027
-7.3613
1.51242
10.4936
19.7826
29.7311
40.8459
53.7563
69.13
87.5344
109.247
134.039
160.979
188.294
213.366
232.878
243.141
240.569
222.251
186.519
133.417
64.984
-14.7436
-100.007
-183.879
-259.023
-318.556
-356.892
-370.444
-358.093
-321.344
-264.158
-192.482
-113.546
-35.0168
35.8723
93.1029
132.479
151.983
151.858
134.418
103.627
64.5147
22.5128
-17.2011
-50.2761
-73.6111
-85.591
-86.1241
-76.4942
-59.0615
-36.8644
-13.1803
8.8986
26.8216
38.8333
44.1026
42.7248
35.6096
24.2795
10.6155
-3.41515
-16.0123
-25.748
-31.7034
-33.5276
-31.4189
-26.0412
-18.3901
-9.63354
-0.948185
6.62785
12.3084
15.6291
16.4695
15.0299
11.7712
7.32853
2.41372
-2.28089
-6.16453
-8.80724
-9.97141
-9.61436
-7.86526
-4.98215
-1.29736
2.84007
7.11656
11.2939
15.2326
18.897
22.3429
25.6918
29.0963
32.7027
36.6178
40.8828
45.4592
50.2276
54.9975
59.5275
63.5509
66.8028
69.0457
70.0899
69.807
68.1362
65.0835
60.7166
55.1555
48.5628
41.1333
33.0846
24.6485
16.0637
7.56807
-0.609582
-8.25753
-15.1901
-21.2559
-26.3457
-30.3969
-33.3956
-35.3753
-36.4103
-36.6068
-36.0897
-34.989
-33.4241
-31.4899
-29.2446
-26.7015
-23.825
-20.5335
-16.7081
-12.2081
-6.89095
-0.636408
6.6295
14.9131
24.138
34.1384
44.6631
55.3906
65.9534
75.9687
85.0724
92.9512
99.3679
104.178
107.336
108.885
108.942
107.674
105.271
101.921
97.7929
93.0236
87.7173
81.9514
75.7877
69.2869
62.5218
55.5868
48.6011
41.7061
35.0563
28.8066
23.0974
18.0405
13.7087
10.1296
7.2852
5.11645
3.53277
2.42386
1.67273
1.16793
0.813499
0.535696
0.285953
0.0402593
-0.204509
-0.436362
-0.635001
-0.778568
-0.849411
-0.838186
-0.745951
-0.584215
-0.373208
-0.138839
0.091037
0.290436
0.43856
0.522187
0.536869
0.486881
0.384021
0.245533
0.0914919
-0.0579653
-0.185185
-0.277038
-0.326254
-0.331972
-0.299535
-0.239648
-0.16705
-0.0988861
-0.0529094
-0.0456601
-0.0907151
-0.197105
-0.368001
-0.599775
-0.88157
-1.19547
-1.51737
-1.81858
-2.06808
-2.23529
-2.29314
-2.22109
-2.00778
-1.65308
-1.16908
-0.580017
0.0790692
0.764899
1.42952
2.0246
2.50602
2.83821
2.99784
2.97627
2.78054
2.43268
1.96746
1.42872
0.864829
0.323746
-0.151789
-0.528318
-0.784638
-0.91344
-0.921563
-0.828976
-0.666699
-0.473918
-0.294547
-0.173462
-0.152661
-0.267641
-0.544407
-0.997647
-1.63068
-2.43775
-3.40894
-4.53758
-5.82923
-7.31075
-9.03725
-11.0944
-13.5943
-16.6635
-20.4234
-24.9661
-30.327
-36.461
-43.2252
-50.373
-57.5632
-64.3822
-70.38
-75.1157
-78.2052
-79.3671
-78.4594
-75.5017
-70.6796
-64.3318
-56.9185
-48.9773
-41.0705
-33.7304
-27.4082
-22.4336
-18.9862
-17.0842
-16.5868
-17.2106
-18.5539
-20.1252
-21.3704
-21.6966
-20.4918
-17.1448
-11.0743
-1.77537
11.1055
27.6641
47.6068
70.1137
93.731
116.333
135.192
147.191
149.159
138.323
112.794
72.0191
17.0996
-49.0864
-122.014
-195.893
-264.267
-320.748
-359.792
-377.402
-371.65
-342.953
-294.048
-229.69
-156.089
-80.1936
-8.89113
51.7528
97.1291
124.518
133.274
124.761
102.047
69.4262
31.828
-5.80064
-39.0681
-64.596
-80.3177
-85.5965
-81.1619
-68.8911
-51.4737
-32.0124
-13.6112
0.99744
9.7492
11.441
5.80937
-6.50228
-24.0745
-44.9159
-66.7125
-87.0928
-103.878
-115.292
-120.12
-117.791
-108.393
-92.6196
-71.6646
-47.0683
-20.5479
6.17769
31.5467
54.2832
73.4847
88.6629
99.7375
106.989
110.976
112.44
112.188
110.999
109.532
108.267
107.472
107.2
107.313
107.522
107.447
106.674
104.815
101.549
96.6618
90.0607
81.7767
71.9538
60.826
48.687
35.857
22.6484
9.33567
-3.86792
-16.8238
-29.4706
-41.8153
-53.9133
-65.8409
-77.6616
-89.3929
-100.976
-112.253
-122.955
-132.708
-141.043
-147.43
-151.317
-152.173
-149.539
-143.068
-132.569
-118.025
-99.6091
-77.674
-52.736
-25.4378
3.49495
33.3035
63.2453
92.6376
120.891
147.53
172.195
194.634
214.681
232.223
247.173
259.445
268.932
275.508
279.041
279.412
276.555
270.495
261.379
249.5
235.31
219.401
202.479
185.312
168.669
153.254
139.645
128.239
119.218
112.541
107.949
105.004
103.137
101.713
100.098
97.7232
94.1406
89.061
82.3755
74.1578
64.6476
54.2201
43.3438
32.5315
22.2911
13.0789
5.26085
-0.915078
-5.33435
-8.01755
-9.1098
-8.85974
-7.59112
-5.6707
-3.47589
-1.36551
0.343712
1.39342
1.59216
0.816815
-0.991565
-3.83547
-7.67001
-12.4116
-17.9451
-24.1282
-30.795
-37.7578
-44.8092
-51.7262
-58.2769
-64.2297
-69.3656
-73.493
-76.4621
-78.178
-78.6106
-77.7991
-75.8505
-72.9319
-69.2561
-65.0636
-60.6015
-56.1018
-51.7625
-47.7324
-44.1017
-40.9004
-38.1026
-35.6375
-33.4053
-31.2948
-29.2015
-27.0436
-24.7727
-22.38
-19.8957
-17.3827
-14.9265
-12.6208
-10.5536
-8.794
-7.38237
-6.32478
-5.59265
-5.12735
-4.84877
-4.66663
-4.49267
-4.252
-3.89212
-3.38831
-2.74505
-1.99332
-1.18453
-0.38207
0.348233
0.947376
1.37094
1.59441
1.61558
1.45386
1.14685
0.744816
0.303985
-0.120487
-0.480849
-0.741693
-0.882975
-0.900812
-0.806054
-0.620735
-0.372698
-0.0888649
0.212175
0.527279
0.874386
1.29544
1.85554
2.63773
3.73363
5.23071
7.19805
9.67242
12.6471
16.0652
19.8189
23.7547
27.6842
31.4003
34.6949
37.378
39.2948
40.3399
40.4661
39.6879
38.0789
35.7644
32.9082
29.698
26.3283
22.9839
19.8257
16.9796
14.5295
12.5155
10.9355
9.75189
8.89964
8.29687
7.85507
7.48858
7.12242
6.69818
6.17832
5.54952
4.826
4.05409
3.31884
2.75324
2.54946
2.97005
4.35499
7.1179
11.7229
18.6331
28.2246
40.6661
55.7767
72.8845
90.7213
107.394
120.465
127.16
124.695
110.692
83.6128
43.1455
-9.53604
-71.6986
-139.196
-206.83
-268.89
-319.801
-354.787
-370.465
-365.28
-339.714
-296.254
-239.108
-173.72
-106.147
-42.3772
12.3173
53.9186
80.0277
90.0219
84.9957
67.5065
41.1695
10.1601
-21.3087
-49.4687
-71.3849
-85.2113
-90.2947
-87.1277
-77.1711
-62.5786
-45.865
-29.5633
-15.913
-6.61105
-2.65124
-4.26129
-10.936
-21.5545
-34.5597
-48.1751
-60.6297
-70.3661
-76.2075
-77.47
-74.0083
-66.1971
-54.8521
-41.1057
-26.2539
-11.5934
1.72877
12.8398
21.2239
26.7575
29.6968
30.6208
30.3414
29.793
29.9162
31.5496
35.3419
41.691
50.7158
62.26
75.9243
91.1218
107.147
123.252
138.719
152.924
165.385
175.794
184.022
190.113
194.26
196.766
198
198.35
198.185
197.811
197.451
197.228
197.158
197.157
197.052
196.603
195.523
193.507
190.257
185.507
179.049
170.744
160.539
148.468
134.646
119.256
102.527
84.7023
66.0138
46.646
26.7108
6.22814
-14.8838
-36.8057
-59.8016
-84.1925
-110.32
-138.507
-169.013
-201.996
-237.483
-275.344
-315.289
-356.872
-399.506
-442.5
-485.097
-526.52
-566.02
-602.913
-636.621
-666.681
-692.756
-714.616
-732.111
-745.128
-753.546
-757.193
-755.81
-749.043
-736.453
-717.555
-691.884
-659.084
-619.004
-571.789
-517.965
-458.48
-394.718
-328.454
-261.768
-196.914
-136.158
-81.6027
-35.0101
2.34501
29.7845
47.2804
55.4471
55.4727
48.9971
37.9505
24.3731
10.2347
-2.72317
-13.1081
-19.9482
-22.7122
-21.2804
-15.8793
-6.99133
4.74189
18.6093
33.9013
49.9552
66.174
82.0222
97.0068
110.653
122.486
132.024
138.794
142.369
142.414
138.755
131.435
120.77
107.367
92.1329
76.2254
60.9872
47.8423
38.1759
33.2079
33.8747
40.7337
53.9018
73.0373
97.3678
125.763
156.842
189.113
221.108
251.528
279.351
303.902
324.888
342.361
356.651
368.241
377.629
385.182
391.005
394.859
396.131
393.889
386.993
374.276
354.758
327.854
293.556
252.545
206.219
156.618
106.261
57.9013
14.2512
-22.3108
-49.9935
-67.7842
-75.5508
-74.0442
-64.8024
-49.9692
-32.0505
-13.6376
2.87248
15.5267
23.0097
24.7604
20.9995
12.6649
1.26454
-11.3371
-23.1701
-32.4183
-37.6528
-38.0086
-33.2853
-23.9562
-11.0902
3.80232
18.977
32.6852
43.3954
49.9777
51.8276
48.9161
41.7631
31.3418
18.9291
5.92606
-6.32778
-16.7199
-24.4909
-29.3052
-31.2611
-30.8418
-28.8177
-26.1151
-23.6717
-22.3
-22.5739
-24.756
-28.7707
-34.2252
-40.4738
-46.7127
-52.094
-55.841
-57.3505
-56.2712
-52.5484
-46.4316
-38.4476
-29.3416
-19.9963
-11.3387
-4.24448
0.549311
2.51442
1.37825
-2.85665
-9.92128
-19.315
-30.3616
-42.2804
-54.2631
-65.5496
-75.493
-83.6098
-89.6079
-93.3924
-95.0496
-94.8085
-92.9877
-89.9298
-85.9314
-81.1777
-75.688
-69.2861
-61.6024
-52.1192
-40.2645
-25.5517
-7.75488
12.905
35.5981
58.7902
80.2538
97.2131
106.629
105.598
91.8197
64.0488
22.4609
-31.1492
-93.3859
-159.506
-223.884
-280.639
-324.328
-350.614
-356.815
-342.254
-308.357
-258.491
-197.57
-131.475
-66.3712
-8.02182
38.8335
70.9464
86.8301
86.8098
72.8591
48.2568
17.1159
-16.1476
-47.341
-72.9512
-90.4833
-98.6515
-97.4101
-87.8365
-71.8924
-52.1022
-31.1961
-11.7616
4.05441
14.7625
19.6481
18.7846
12.9507
3.46874
-8.00644
-19.7211
-30.0465
-37.6676
-41.7169
-41.841
-38.1996
-31.4006
-22.3872
-12.2939
-2.29216
6.55472
13.4098
17.7426
19.3642
18.4178
15.3295
10.7297
5.3572
-0.0404171
-4.79733
-8.40113
-10.5383
-11.1108
-10.2246
-8.15424
-5.29064
-2.08003
1.03762
3.68295
5.57881
6.57543
6.6579
5.9369
4.62527
3.00415
1.38313
0.0591601
-0.721398
-0.793613
-0.0947541
1.32706
3.31716
5.63109
7.96237
9.97849
11.3613
11.8478
11.2652
9.5575
6.79804
3.1861
-0.971998
-5.29624
-9.37623
-12.819
-15.2953
-16.5779
-16.5671
-15.3008
-12.9467
-9.78033
-6.14944
-2.43212
1.00731
3.85846
5.89638
7.00118
7.16386
6.47874
5.12419
3.33506
1.37053
-0.518039
-2.1156
-3.26496
-3.87942
-3.94579
-3.51826
-2.70485
-1.64863
-0.506666
0.570621
1.45713
2.06398
2.34644
2.30476
1.97936
1.44152
0.781267
0.0942722
-0.530461
-1.02035
-1.32513
-1.41792
-1.29139
-0.949731
-0.397969
0.368865
1.37421
2.66377
4.30328
6.36996
8.93893
12.0667
15.7747
20.036
24.7673
29.8288
35.0313
40.1509
44.9486
49.1932
52.6834
55.2681
56.8609
57.4488
57.0926
55.9204
54.1145
51.8934
49.4905
47.1327
45.0197
43.3087
42.1029
41.4477
41.3335
41.7041
42.4707
43.5274
44.7674
46.0957
47.4379
48.7418
49.9741
51.1098
52.1204
52.9595
53.5528
53.7927
53.541
52.6392
50.9268
48.2642
44.5569
39.7788
33.9882
27.3361
20.063
12.4848
4.96873
-2.09871
-8.34707
-13.4573
-17.1923
-19.4201
-20.1254
-19.4103
-17.4828
-14.6343
-11.2103
-7.57605
-4.08112
-1.02806
1.35344
2.92326
3.6378
3.54674
2.78088
1.53292
0.0337046
-1.47312
-2.75542
-3.61358
-3.89655
-3.51243
-2.43344
-0.695937
1.60386
4.31776
7.25679
10.2052
12.9369
15.2341
16.9061
17.807
17.8508
17.0212
15.3752
13.0385
10.1944
7.06599
3.89369
0.911428
-1.67608
-3.71202
-5.09998
-5.809
-5.87109
-5.37212
-4.43785
-3.21718
-1.86499
-0.52639
0.675915
1.65031
2.34052
2.72554
2.81567
2.64539
2.26413
1.72586
1.07887
0.356979
-0.426657
-1.28216
-2.24155
-3.35327
-4.67354
-6.25533
-8.13675
-10.3302
-12.8137
-15.5263
-18.3676
-21.2021
-23.8687
-26.1938
-28.0071
-29.158
-29.531
-29.0585
-27.7286
-25.5876
-22.737
-19.324
-15.5284
-11.5459
-7.57055
-3.77843
-0.314375
2.71734
5.25729
7.2904
8.84107
9.96532
10.7408
11.2561
11.6001
11.8517
12.071
12.2902
12.5075
12.6816
12.7303
12.5317
11.9326
10.7607
8.84339
6.02991
2.21558
-2.63539
-8.47164
-15.1444
-22.4078
-29.9306
-37.3199
-44.1541
-50.0206
-54.5553
-57.4774
-58.6156
-57.9235
-55.4818
-51.4884
-46.2378
-40.0925
-33.4509
-26.7134
-20.2502
-14.3717
-9.30111
-5.14871
-1.88768
0.667605
2.87703
5.27674
8.55789
13.5111
20.9278
31.4572
45.4282
62.6605
82.3025
102.741
121.624
136.029
142.774
138.853
121.924
90.7892
45.7572
-11.1672
-76.332
-144.731
-210.515
-267.657
-310.678
-335.329
-339.138
-321.733
-284.906
-232.407
-169.495
-102.316
-37.1919
20.0931
64.9095
94.2359
106.899
103.58
86.6095
59.574
26.8111
-7.14776
-38.1122
-62.6828
-78.5695
-84.7506
-81.4677
-70.0714
-52.7508
-32.1889
-11.193
7.65303
22.2771
31.3175
34.2184
31.2211
23.2623
11.8005
-1.40278
-14.5156
-25.8555
-34.0705
-38.266
-38.066
-33.6092
-25.487
-14.6351
-2.19637
10.6254
22.7054
33.1134
41.1965
46.6208
49.3741
49.7307
48.1894
45.3925
42.0394
38.8043
36.2664
34.8598
34.8459
36.3078
39.1655
43.2065
48.127
53.5781
59.2106
64.7125
69.8389
74.4274
78.4023
81.7667
84.5835
86.9517
88.9774
90.7471
92.3047
93.6353
94.6596
95.237
95.1798
94.2742
92.3079
89.099
84.5244
78.5437
71.2151
62.7029
53.2728
43.2769
33.1289
23.2708
14.1357
6.10981
-0.501942
-5.50337
-8.82378
-10.5224
-10.78
-9.87761
-8.16607
-6.02771
-3.8362
-1.91804
-0.520813
0.208277
0.230927
-0.387525
-1.49622
-2.88709
-4.3293
-5.60498
-6.54114
-7.03348
-7.0589
-6.67535
-6.00959
-5.23499
-4.54324
-4.11399
-4.08693
-4.54002
-5.47651
-6.82209
-8.4323
-10.1087
-11.6217
-12.7371
-13.243
-12.9735
-11.8285
-9.78434
-6.89834
-3.30399
0.80026
5.16816
9.52658
13.5984
17.125
19.8876
21.7236
22.5394
22.3167
21.1124
19.0519
16.318
13.1331
9.74006
6.3812
3.27781
0.612762
-1.48272
-2.9368
-3.73877
-3.93477
-3.61838
-2.91721
-1.97721
-0.946458
0.0398339
0.871546
1.47205
1.80215
1.85966
1.67481
1.30275
0.813923
0.28393
-0.216122
-0.627587
-0.90986
-1.04316
-1.02851
-0.885142
-0.646069
-0.352402
-0.0473515
0.229375
0.446105
0.582248
0.629621
0.592093
0.483764
0.326078
0.144326
-0.0359459
-0.192163
-0.307236
-0.371107
-0.381253
-0.342187
-0.264127
-0.161103
-0.0487781
0.057696
0.145529
0.205646
0.233436
0.228849
0.195915
0.141804
0.0755791
0.00682427
-0.0557147
-0.105408
-0.138933
-0.157414
-0.167561
-0.182722
-0.223738
-0.319301
-0.505561
-0.824708
-1.32242
-2.0442
-3.03091
-4.31377
-5.90947
-7.81604
-10.01
-12.4453
-15.0549
-17.7538
-20.4448
-23.0253
-25.394
-27.4581
-29.1388
-30.3753
-31.1274
-31.3771
-31.1285
-30.4081
-29.2646
-27.769
-26.0139
-24.1119
-22.1933
-20.4003
-18.8803
-17.7756
-17.2119
-17.286
-18.0539
-19.5208
-21.6348
-24.2857
-27.3093
-30.4972
-33.6125
-36.4089
-38.6519
-40.1392
-40.7185
-40.2992
-38.8591
-36.4423
-33.1522
-29.1383
-24.58
-19.6699
-14.5981
-9.53969
-4.64594
-0.0404655
4.18124
7.9493
11.2155
13.9491
16.134
17.7663
18.8541
19.4175
19.4879
19.1067
18.3215
17.1806
15.727
13.9919
11.9916
9.72748
7.19223
4.38055
1.30441
-1.99031
-5.40874
-8.79668
-11.9379
-14.5604
-16.3523
-16.9851
-16.1441
-13.5603
-9.04293
-2.50689
6.00646
16.3188
28.116
40.9621
54.3247
67.6107
80.2096
91.5387
101.09
108.469
113.431
115.906
116.008
114.045
110.514
106.084
101.577
97.926
96.1162
97.0887
101.612
110.114
122.5
137.975
154.929
170.921
182.803
187.012
180.005
158.789
121.47
67.7319
-0.870406
-80.8492
-167.007
-252.928
-331.674
-396.608
-442.206
-464.765
-462.883
-437.658
-392.567
-333.05
-265.851
-198.212
-137.012
-87.9839
-55.0775
-40.0738
-42.4691
-59.6454
-87.2893
-119.995
-151.967
-177.723
-192.711
-193.774
-179.402
-149.777
-106.6
-52.7691
8.06898
71.9979
135.3
194.849
248.388
294.676
333.493
365.528
392.165
415.216
436.634
458.24
481.499
507.359
536.175
567.702
601.16
635.352
668.817
699.986
727.345
749.567
765.613
774.802
776.838
771.806
760.136
742.551
719.99
693.53
664.295
633.368
601.717
570.124
539.137
509.039
479.852
451.363
423.168
394.753
365.579
335.169
303.198
269.566
234.438
198.26
161.744
125.812
91.5126
59.9204
32.019
8.58785
-9.89648
-23.3308
-32.0156
-36.6388
-38.2095
-37.9473
-37.1377
-36.9703
-38.38
-41.914
-47.6432
-55.1339
-63.4859
-71.4363
-77.5175
-80.2512
-78.3538
-70.9272
-57.6111
-38.6752
-15.0379
11.7941
39.8603
66.9419
90.7963
109.402
121.183
125.189
121.202
109.761
92.0952
69.9897
45.5785
21.1109
-1.28988
-19.8441
-33.2835
-40.9538
-42.8407
-39.5236
-32.0635
-21.8461
-10.3993
0.790294
10.4395
17.5938
21.701
22.6325
20.6513
16.3372
10.4833
3.97654
-2.31865
-7.66197
-11.5122
-13.5699
-13.7858
-12.3384
-9.58636
-6.00432
-2.11263
1.59078
4.68791
6.88181
8.01838
8.08803
7.20908
5.5965
3.52071
1.26231
-0.931728
-2.88494
-4.51678
-5.85367
-7.02448
-8.24116
-9.76736
-11.8792
-14.8235
-18.7789
-23.8251
-29.9235
-36.9132
-44.5212
-52.3854
-60.0892
-67.2014
-73.3174
-78.097
-81.2943
-82.7774
-82.535
-80.6716
-77.3905
-72.9697
-67.7314
-62.0111
-56.1287
-50.3645
-44.9432
-40.026
-35.7104
-32.0382
-29.0066
-26.5841
-24.7246
-23.381
-22.5149
-22.101
-22.128
-22.5943
-23.5008
-24.841
-26.5906
-28.6974
-31.0729
-33.5876
-36.0712
-38.3186
-40.1024
-41.1918
-41.3753
-40.4863
-38.4269
-35.1873
-30.857
-25.6256
-19.7723
-13.6432
-7.62045
-2.08477
2.62289
6.23632
8.59097
9.63947
9.4538
8.21389
6.18443
3.68288
1.04297
-1.42184
-3.45041
-4.85798
-5.54982
-5.52343
-4.85997
-3.70661
-2.25276
-0.703517
0.746371
1.93466
2.7478
3.1296
3.08209
2.65921
1.95482
1.08701
0.181086
-0.646571
-1.3019
-1.72238
-1.88139
-1.78767
-1.48046
-1.02134
-0.484202
0.0552987
0.529361
0.885664
1.09225
1.13934
1.03818
0.817423
0.517613
0.18491
-0.135262
-0.403589
-0.590519
-0.677543
-0.655752
-0.521758
-0.271567
0.106408
0.637554
1.3646
2.34676
3.65331
5.35155
7.4904
10.0822
13.0861
16.3969
19.8422
23.1904
26.1687
28.4906
29.8887
30.1486
29.1401
26.8398
23.343
18.8621
13.7119
8.28328
3.00757
-1.68309
-5.39556
-7.81099
-8.71192
-7.99906
-5.69666
-1.94713
3.00371
8.82856
15.1455
21.5471
27.631
33.03
37.4428
40.6662
42.6284
43.4256
43.3557
42.9453
42.9565
44.3592
48.2543
55.7361
67.6937
84.5701
106.112
131.164
157.567
182.218
201.308
210.758
206.789
186.556
148.739
93.9774
25.0576
-53.1994
-134.362
-211.078
-275.93
-322.359
-345.488
-342.765
-314.305
-262.9
-193.687
-113.536
-30.2341
48.4201
115.488
165.625
195.594
204.492
193.702
166.563
127.848
83.1018
37.9452
-2.57684
-34.5222
-55.4034
-64.3355
-61.9806
-50.3123
-32.2464
-11.1929
9.40799
26.5099
37.7953
41.8904
38.4454
28.0823
12.2307
-7.11933
-27.7084
-47.3032
-63.9613
-76.2342
-83.2926
-84.9644
-81.691
-74.4146
-64.4165
-53.1311
-41.9597
-32.1063
-24.4527
-19.4843
-17.2705
-17.496
-19.537
-22.5671
-25.6795
-28.0097
-28.8428
-27.6954
-24.363
-18.9299
-11.7423
-3.35159
5.56509
14.2943
22.1745
28.6725
33.4384
36.334
37.4322
36.99
35.3987
33.1214
30.6238
28.3108
26.4744
25.2599
24.6529
24.4886
24.4781
24.2503
23.4004
21.5399
18.3428
13.5824
7.15942
-0.879772
-10.3314
-20.8257
-31.8192
-42.5894
-52.2357
-59.6955
-63.7851
-63.2742
-56.9977
-43.999
-23.6906
3.99094
38.4642
78.4427
121.957
166.469
209.073
246.767
276.759
296.774
305.315
301.846
286.866
261.859
229.144
191.611
152.411
114.618
80.919
53.3553
33.1614
20.7022
15.5168
16.453
21.8701
29.8787
38.5848
46.308
51.7497
54.0957
53.0487
48.7938
41.9094
33.2411
23.7586
14.4146
6.02509
-0.818947
-5.7988
-8.87447
-10.2536
-10.3315
-9.61319
-8.62963
-7.85981
-7.66807
-8.26331
-9.68328
-11.8036
-14.3679
-17.0337
-19.4262
-21.1929
-22.0514
-21.825
-20.4625
-18.0393
-14.7443
-10.8512
-6.68265
-2.57027
1.18276
4.33251
6.71446
8.25157
8.94997
8.88428
8.17565
6.96659
5.39682
3.58381
1.61061
-0.477848
-2.67034
-4.97834
-7.4211
-10.0097
-12.7334
-15.5497
-18.3821
-21.1228
-23.6432
-25.8081
-27.4933
-28.6027
-29.0831
-28.9342
-28.2121
-27.0272
-25.5336
-23.915
-22.3652
-21.0669
-20.1706
-19.7751
-19.9125
-20.5397
-21.5388
-22.7268
-23.8744
-24.7325
-25.0628
-24.67
-23.428
-21.3005
-18.3489
-14.7287
-10.6738
-6.46995
-2.42127
1.18783
4.13226
6.28483
7.65209
8.40488
8.9008
9.69475
11.5335
15.3305
22.1191
32.9847
48.9795
71.0274
99.8271
135.766
178.849
228.662
284.353
344.656
407.936
472.267
535.522
595.477
649.921
696.763
734.136
760.485
774.652
775.934
764.14
739.609
703.217
656.348
600.836
538.874
472.896
405.442
339.009
275.917
218.189
167.469
124.979
91.5187
67.5017
53.0075
47.8398
51.5684
63.5442
82.8841
108.431
138.707
171.881
205.775
237.933
265.754
286.694
298.505
299.495
288.758
266.333
233.28
191.628
144.213
94.4126
45.8083
1.82281
-34.63
-61.4336
-77.4618
-82.6554
-77.9764
-65.2496
-46.916
-25.7329
-4.45864
14.4378
29.0113
37.9949
40.8632
37.805
29.6189
17.5508
3.10011
-12.1776
-26.8455
-39.7177
-49.9362
-56.9885
-60.6748
-61.0384
-58.2837
-52.7
-44.611
-34.3583
-22.3178
-8.94156
5.19074
19.3262
32.518
43.6424
51.4634
54.7477
52.4191
43.7384
28.4781
7.06166
-19.3643
-48.9503
-79.2665
-107.524
-130.87
-146.721
-153.089
-148.85
-133.921
-109.301
-76.9897
-39.775
-0.920187
36.2009
68.4794
93.4057
109.322
115.565
112.482
101.331
84.0736
63.1077
40.9575
19.9789
2.10542
-11.3338
-19.7087
-23.0892
-22.1627
-18.0824
-12.2735
-6.2241
-1.28774
1.47783
1.41989
-1.66148
-7.5271
-15.5665
-24.9063
-34.5424
-43.476
-50.838
-55.9857
-58.5629
-58.5193
-56.0904
-51.744
-46.1026
-39.8539
-33.6618
-28.0871
-23.53
-20.1954
-18.0874
-17.0282
-16.6983
-16.6908
-16.5723
-15.9424
-14.4837
-11.9988
-8.42911
-3.85581
1.51586
7.38562
13.3958
19.1731
24.3686
28.694
31.9482
34.0347
34.9673
34.8648
33.9351
32.4504
30.7167
29.0389
27.686
26.8589
26.6639
27.0943
28.0234
29.2094
30.3131
30.9275
30.6168
28.9625
25.6109
20.3177
12.9837
3.67761
-7.35952
-19.7274
-32.8987
-46.2654
-59.1958
-71.093
-81.45
-89.8937
-96.2116
-100.36
-102.453
-102.731
-101.521
-99.1887
-96.0893
-92.5303
-88.742
-84.8642
-80.9463
-76.9605
-72.8235
-68.4236
-63.6489
-58.4126
-52.6743
-46.4531
-39.8324
-32.9573
-26.0227
-19.2554
-12.892
-7.15477
-2.22794
1.76072
4.753
6.76524
7.88528
8.26208
8.0894
7.58567
6.97217
6.45162
6.18914
6.29713
6.82545
7.75791
9.01559
10.4671
11.9452
13.2674
14.2601
14.7814
14.7407
14.1117
12.9375
11.3255
9.43307
7.4459
5.55173
3.91319
2.64399
1.7921
1.33259
1.17142
1.15977
1.11703
0.858882
0.226567
-0.88728
-2.52003
-4.63072
-7.10332
-9.76128
-12.3907
-14.7684
-16.6888
-17.9851
-18.5389
-18.2762
-17.1517
-15.1235
-12.1295
-8.07027
-2.8097
3.80536
11.9059
21.5495
32.6672
45.0212
58.1845
71.551
84.3766
95.8501
105.182
111.7
114.939
114.702
111.098
104.537
95.6876
85.402
74.6206
64.2641
55.1305
47.8088
42.6203
39.5942
38.4809
38.7988
39.9099
41.1124
41.7377
41.2397
39.2646
35.6914
30.6395
24.4436
17.5999
10.6931
4.31463
-1.01511
-4.91133
-7.16718
-7.77022
-6.89285
-4.86
-2.10035
0.910994
3.71036
5.8963
7.16772
7.34579
6.3786
4.32994
1.35553
-2.32871
-6.48115
-10.8666
-15.2821
-19.5732
-23.6403
-27.4339
-30.9426
-34.1756
-37.144
-39.8436
-42.2439
-44.2846
-45.8799
-46.931
-47.3437
-47.0482
-46.0167
-44.2767
-41.9154
-39.0753
-35.9409
-32.7167
-29.6023
-26.7655
-24.3193
-22.3065
-20.6923
-19.3704
-18.1774
-16.9177
-15.3928
-13.4308
-10.9129
-7.79009
-4.09026
0.0881388
4.59255
9.24082
13.8489
18.257
22.3498
26.0676
29.4071
32.4118
35.1554
37.7191
40.1687
42.5331
44.7883
46.849
48.5688
49.7504
50.1647
49.5772
47.7794
44.6218
40.0436
34.0958
26.9531
18.9121
10.3737
1.81034
-6.27804
-13.4173
-19.2125
-23.3966
-25.8653
-26.6947
-26.1354
-24.5862
-22.5461
-20.5545
-19.124
-18.6761
-19.4879
-21.6545
-25.0717
-29.4377
-34.272
-38.9459
-42.7224
-44.8023
-44.3778
-40.6981
-33.1486
-21.349
-5.26156
14.6995
37.5817
61.8586
85.475
105.997
120.873
127.795
125.11
112.224
89.9156
60.4874
27.6891
-3.59426
-27.8776
-39.7648
-34.6962
-9.64055
36.3763
101.994
183.539
275.352
370.374
460.927
539.568
599.918
637.359
649.506
636.414
600.501
546.198
479.394
406.749
334.951
270.02
216.734
178.225
155.786
148.895
155.432
172.05
194.64
218.846
240.552
256.299
263.595
261.093
248.626
227.121
198.395
164.885
129.338
94.4944
62.8079
36.2209
16.014
2.74005
-3.76155
-4.27728
-0.0760164
7.27111
16.0852
24.7671
31.9578
36.6587
38.3004
36.758
32.3163
25.592
17.4263
8.76313
0.526643
-6.48642
-11.6894
-14.7562
-15.6363
-14.5364
-11.8736
-8.20872
-4.1683
-0.367121
2.66091
4.51558
4.96238
3.9419
1.55801
-1.95169
-6.25741
-10.9841
-15.7572
-20.241
-24.1655
-27.3394
-29.6493
-31.0471
-31.5303
-31.1188
-29.8351
-27.6902
-24.6793
-20.7881
-16.0081
-10.358
-3.90772
3.20106
10.7415
18.4001
25.7892
32.4736
38.0085
41.9863
44.0832
44.1012
41.9973
37.894
32.0704
24.9309
16.9581
8.65503
0.48395
-7.18728
-14.1252
-20.2505
-25.6351
-30.4769
-35.0574
-39.6873
-44.6497
-50.1498
-56.2771
-62.9867
-70.1015
-77.3344
-84.3262
-90.6942
-96.0831
-100.212
-102.911
-104.141
-103.997
-102.697
-100.546
-97.9023
-95.1264
-92.5362
-90.3678
-88.7472
-87.6778
-87.0436
-86.6291
-86.151
-85.299
-83.778
-81.3486
-77.8579
-73.2584
-67.6125
-61.0814
-53.9019
-46.3538
-38.7234
-31.2689
-24.1921
-17.6201
-11.5994
-6.10223
-1.04247
3.70072
8.25666
12.7378
17.2189
21.7236
26.219
30.62
34.8003
38.6096
41.8937
44.5152
46.3708
47.4049
47.6165
47.0588
45.8332
44.0774
41.9499
39.6139
37.2207
34.8967
32.7341
30.7855
29.0646
27.5495
26.1909
24.9212
23.6654
22.3509
20.916
19.3161
17.5266
15.5432
13.3797
11.0636
8.63113
6.12193
3.57407
1.02035
-1.51425
-4.01366
-6.47055
-8.88496
-11.2619
-13.6083
-15.9294
-18.2252
-20.4878
-22.6988
-24.829
-26.8393
-28.6832
-30.311
-31.6745
-32.7325
-33.4555
-33.8299
-33.8599
-33.5686
-32.9968
-32.1997
-31.2428
-30.1958
-29.1265
-28.0944
-27.1443
-26.302
-25.57
-24.9257
-24.3213
-23.6863
-22.9315
-21.9576
-20.6645
-18.9648
-16.7972
-14.1406
-11.0252
-7.53948
-3.83092
-0.0991959
3.41852
6.46914
8.8103
10.2391
10.6191
9.9025
8.14239
5.49493
2.20857
-1.39762
-4.9645
-8.12808
-10.5552
-11.9751
-12.2027
-11.1522
-8.83862
-5.36837
-0.921203
4.27497
9.97216
15.9303
21.9422
27.8521
33.5664
39.0557
44.347
49.5093
54.6327
59.8054
65.0924
70.5176
76.0539
81.6208
87.0913
92.3055
97.0904
101.281
104.738
107.368
109.128
110.028
110.122
109.497
108.248
106.46
104.19
101.454
98.2202
94.4174
89.9498
84.7189
78.6508
71.7212
63.9762
55.5428
46.6279
37.5049
28.489
19.9051
12.0525
5.17207
-0.580179
-5.14822
-8.57861
-11.0101
-12.6517
-13.7534
-14.5731
-15.3446
-16.2508
-17.4038
-18.8339
-20.4846
-22.2122
-23.7873
-24.8961
-25.1434
-24.0606
-21.1276
-15.8186
-7.67748
3.57079
17.8841
34.7596
53.1165
71.2427
86.8419
97.2055
99.5074
91.1957
70.4252
36.4597
-10.0334
-66.8599
-130.387
-195.849
-257.836
-310.904
-350.224
-372.177
-374.802
-358.052
-323.805
-275.64
-218.408
-157.666
-99.033
-47.5742
-7.27207
19.346
31.3891
29.5813
16.0542
-6.01027
-32.8313
-60.5139
-85.5055
-104.971
-117.046
-120.952
-116.965
-106.263
-90.6768
-72.3898
-53.6253
-36.3672
-22.1418
-11.8844
-5.89658
-3.89032
-5.10182
-8.4515
-12.7219
-16.7257
-19.4412
-20.0983
-18.2092
-13.5473
-6.0859
4.08564
16.8478
32.1202
49.8996
70.2598
93.3135
119.145
147.726
178.84
212.013
246.497
281.273
315.121
346.702
374.69
397.884
415.335
426.427
430.93
429.003
421.161
408.197
391.088
370.885
348.614
325.187
301.338
277.593
254.266
231.481
209.218
187.369
165.793
144.368
123.031
101.791
80.7335
59.9922
39.7217
20.0555
1.07014
-17.2403
-34.9736
-52.3088
-69.4768
-86.7166
-104.223
-122.096
-140.302
-158.645
-176.773
-194.193
-210.317
-224.522
-236.214
-244.898
-250.234
-252.076
-250.495
-245.77
-238.357
-228.839
-217.855
-206.027
-193.88
-181.775
-169.855
-158.017
-145.902
-132.923
-118.315
-101.211
-80.7469
-56.1726
-26.9742
7.01598
45.5321
87.8265
132.672
178.418
223.112
264.651
300.983
330.302
351.233
362.976
365.387
358.994
344.935
324.834
300.622
274.338
247.923
223.039
200.935
182.364
167.569
156.324
148.031
141.843
136.805
131.99
126.612
120.106
112.169
102.765
92.0858
80.4961
68.4614
56.4712
44.972
34.3142
24.7202
16.2732
8.9271
2.53268
-3.12537
-8.28596
-13.1704
-17.9473
-22.7077
-27.4527
-32.0926
-36.4587
-40.324
-43.4296
-45.5148
-46.348
-45.7537
-43.6359
-39.9945
-34.9342
-28.6659
-21.5
-13.8338
-6.13147
1.09889
7.33299
12.0597
14.8111
15.1922
12.9066
7.77852
-0.233999
-11.0338
-24.3898
-39.9518
-57.2727
-75.8367
-95.0896
-114.468
-133.424
-151.447
-168.075
-182.9
-195.57
-205.778
-213.255
-217.759
-219.067
-216.969
-211.272
-201.807
-188.45
-171.142
-149.919
-124.944
-96.5308
-65.1721
-31.5471
3.47709
38.8644
73.4462
105.977
135.208
159.97
179.264
192.35
198.821
198.655
192.246
180.391
164.257
145.303
125.176
105.587
88.1758
74.369
65.2593
61.5058
63.2732
70.2158
81.5098
95.9325
111.979
128.003
142.376
153.63
160.589
162.458
158.882
149.944
136.132
118.264
97.3801
74.6297
51.1492
27.9549
5.85753
-14.5915
-33.1197
-49.7175
-64.5922
-78.0987
-90.6584
-102.677
-114.475
-126.229
-137.954
-149.495
-160.554
-170.739
-179.622
-186.8
-191.958
-194.915
-195.654
-194.336
-191.292
-186.991
-182.004
-176.95
-172.446
-169.054
-167.236
-167.326
-169.502
-173.782
-180.024
-187.931
-197.066
-206.863
-216.639
-225.61
-232.909
-237.616
-238.8
-235.567
-227.117
-212.807
-192.205
-165.141
-131.744
-92.47
-48.1109
0.211783
51.0789
102.827
153.628
201.586
244.864
281.803
311.067
331.765
343.563
346.769
342.367
332.002
317.879
302.594
288.87
279.234
275.661
279.224
289.823
306.034
325.136
343.34
356.195
359.152
348.202
320.494
274.849
212.068
134.988
48.2625
-42.1248
-129.532
-207.442
-270.244
-313.901
-336.421
-338.065
-321.262
-290.267
-250.594
-208.31
-169.296
-138.559
-119.678
-114.466
-122.862
-143.062
-171.863
-205.154
-238.501
-267.717
-289.37
-301.153
-302.077
-292.481
-273.859
-248.558
-219.378
-189.156
-160.376
-134.866
-113.604
-96.6663
-83.2895
-72.0514
-61.1212
-48.5476
-32.5446
-11.7381
14.6539
46.726
83.8798
124.905
168.128
211.619
253.409
291.712
325.118
352.727
374.227
389.887
400.495
407.219
411.442
414.562
417.812
422.098
427.892
435.181
443.492
451.974
459.525
464.967
467.212
465.421
459.124
448.283
433.297
414.94
394.25
372.384
350.449
329.356
309.692
291.651
275.019
259.226
243.451
226.769
208.319
187.46
163.904
137.797
109.732
80.7074
52.0161
25.0979
1.3671
-17.9593
-32.0074
-40.3501
-43.0538
-40.6654
-34.1419
-24.7353
-13.8471
-2.87511
6.93079
14.5836
19.4348
21.2035
19.9614
16.0807
10.1569
2.92069
-4.84921
-12.4011
-19.0682
-24.3081
-27.7244
-29.0762
-28.2791
-25.4008
-20.6524
-14.3765
-7.02723
0.856659
8.68831
15.8775
21.8805
26.2496
28.6775
29.0287
27.3549
23.8898
19.0249
13.2663
7.18109
1.33574
-3.76224
-7.7149
-10.2697
-11.3371
-10.9891
-9.43898
-7.00665
-4.07421
-1.03771
1.73879
3.96146
5.43352
6.06812
5.88714
5.00716
3.61559
1.9407
0.219708
-1.33086
-2.5393
-3.29489
-3.55494
-3.34274
-2.73764
-1.85918
-0.84794
0.154286
1.02236
1.66172
2.01696
2.07444
1.85921
1.42674
0.851103
0.21088
-0.425232
-1.01126
-1.53353
-2.01556
-2.51732
-3.12882
-3.95846
-5.11777
-6.70427
-8.7851
-11.3837
-14.4714
-17.966
-21.7369
-25.6169
-29.4192
-32.9578
-36.0673
-38.6214
-40.5471
-41.8317
-42.5244
-42.7292
-42.594
-42.2936
-42.0108
-41.9175
-42.1569
-42.8287
-43.9794
-45.5968
-47.6114
-49.9018
-52.3053
-54.6332
-56.687
-58.2764
-59.2373
-59.4459
-58.8308
-57.3793
-55.138
-52.2078
-48.7334
-44.8884
-40.8571
-36.8163
-32.9181
-29.2765
-25.9589
-22.9852
-20.3317
-17.9418
-15.7397
-13.6468
-11.5963
-9.5451
-7.48169
-5.42765
-3.43409
-1.57326
0.0731389
1.42693
2.42583
3.03339
3.24518
3.09048
2.62939
1.94607
1.13899
0.30982
-0.447638
-1.05705
-1.4665
-1.65216
-1.61837
-1.39445
-1.0288
-0.581353
-0.115245
0.311008
0.65007
0.870346
0.958209
0.91791
0.769458
0.545035
0.284556
0.0310304
-0.173746
-0.292779
-0.296532
-0.164594
0.113505
0.538121
1.09969
1.77904
2.54777
3.36866
4.19656
4.97984
5.66311
6.19097
6.51294
6.58893
6.39455
5.92546
5.19988
4.25883
3.16382
1.99222
0.830694
-0.232463
-1.11538
-1.75012
-2.08903
-2.10901
-1.8137
-1.23287
-0.419577
0.554924
1.60781
2.65225
3.60543
4.39678
4.97678
5.32717
5.47387
5.50358
5.5845
5.98938
7.1165
9.50064
13.803
20.7671
31.1297
45.4822
64.0884
86.6816
112.28
139.064
164.378
184.873
196.832
196.623
181.255
148.93
99.5052
34.7682
-41.5364
-123.962
-205.876
-280.176
-340.111
-380.099
-396.411
-387.643
-354.905
-301.696
-233.492
-157.104
-79.8947
-8.94608
49.7005
91.6559
114.571
118.268
104.611
77.1528
40.609
0.232566
-38.8214
-72.0719
-96.1622
-109.14
-110.548
-101.334
-83.6001
-60.2402
-34.5215
-9.65816
11.565
27.0814
35.7174
37.2432
32.3059
22.2653
8.96036
-5.55695
-19.2862
-30.5093
-37.9642
-40.9452
-39.3272
-33.5186
-24.3555
-12.9581
-0.568118
11.6087
22.5393
31.4635
37.951
41.9135
43.5747
43.4075
42.0488
40.2056
38.5628
37.7043
38.0552
39.8484
43.1177
47.7154
53.3486
59.6295
66.1312
72.442
78.212
83.1867
87.225
90.3002
92.4861
93.9309
94.8234
95.3569
95.6943
95.941
96.1259
96.1945
96.0133
95.3847
94.0706
91.8222
88.4112
83.6598
77.4654
69.818
60.8072
50.6198
39.5267
27.8624
15.9978
4.31109
-6.8425
-17.1566
-26.3945
-34.4029
-41.1162
-46.5534
-50.8071
-54.0261
-56.3946
-58.1098
-59.3605
-60.3086
-61.0758
-61.7353
-62.3109
-62.7812
-63.0886
-63.1533
-62.8875
-62.2108
-61.0639
-59.418
-57.2808
-54.6963
-51.7413
-48.5166
-45.1363
-41.7162
-38.3627
-35.1631
-32.1796
-29.4458
-26.9671
-24.724
-22.6775
-20.7771
-18.9686
-17.2015
-15.4364
-13.649
-11.8327
-9.99929
-8.17637
-6.40384
-4.72872
-3.19953
-1.86056
-0.746949
0.119201
0.731073
1.09776
1.2432
1.20357
1.02368
0.752588
0.439081
0.127548
-0.145457
-0.353558
-0.481705
-0.526094
-0.492976
-0.396544
-0.256153
-0.093198
0.0719849
0.222786
0.348153
0.443282
0.509061
0.55041
0.573909
0.585306
0.587495
0.579451
0.556356
0.510876
0.435251
0.323727
0.174752
-0.00754732
-0.212937
-0.425809
-0.626967
-0.796148
-0.91487
-0.969131
-0.951543
-0.862563
-0.71064
-0.511272
-0.285107
-0.0553873
0.154909
0.325813
0.442646
0.497536
0.490016
0.426667
0.319916
0.186194
0.0437172
-0.0897783
-0.199106
-0.273246
-0.306344
-0.298032
-0.253042
-0.180238
-0.0911897
0.00146907
0.0857067
0.151551
0.192173
0.204496
0.189265
0.150642
0.0953866
0.0317853
-0.031528
-0.0866904
-0.127534
-0.150212
-0.153476
-0.138599
-0.108987
-0.0695515
-0.0259342
0.016337
0.0527251
0.0805875
0.100127
0.115379
0.135152
0.173708
0.25089
0.391367
0.622761
0.972583
1.46421
2.11239
2.91915
3.87083
4.93727
6.07354
7.22428
8.33035
9.3368
10.2012
10.9014
11.4408
11.8515
12.1945
12.5557
13.0396
13.7604
14.8316
16.3558
18.4145
21.0604
24.3121
28.151
32.5209
37.3296
42.4515
47.7312
52.9875
58.0184
62.6064
66.5262
69.5535
71.4773
72.1129
71.3176
69.0052
65.1599
59.8462
53.2136
45.4942
45.4942
45.4942
45.4942
45.4942
45.4942
45.4942
45.4942
45.4942
45.4942
45.4942
45.4942
45.4942
45.4942
45.4942
45.4942
45.4942
45.4942
45.4942
45.4942
45.4942
45.4942
