23.6782
19.4781
14.5107
8.88052
2.76163
-3.61252
-9.96725
-16.0113
-21.4648
-26.0875
-29.7021
-32.2122
-33.6097
-33.9729
-33.4544
-32.2612
-30.6293
-28.7965
-26.976
-25.3356
-23.9834
-22.9616
-22.2503
-21.7778
-21.437
-21.1059
-20.6667
-20.0242
-19.1185
-17.9315
-16.4879
-14.8491
-13.1029
-11.3508
-9.69358
-8.2188
-6.99094
-6.04511
-5.38517
-4.98574
-4.79758
-4.75525
-4.78595
-4.8184
-4.79062
-4.65612
-4.38763
-3.97852
-3.44168
-2.80647
-2.11402
-1.41165
-0.747099
-0.163127
0.306872
0.641876
0.834627
0.891398
0.830279
0.678308
0.467862
0.232773
0.004648
-0.190225
-0.333076
-0.413779
-0.430852
-0.390384
-0.304029
-0.186271
-0.0512508
0.090515
0.235111
0.387508
0.562809
0.786237
1.09182
1.51989
2.11379
2.91607
3.96478
5.29015
6.912
8.83793
11.0623
13.5659
16.3158
19.2661
22.3578
25.5198
28.6699
31.7158
34.5578
37.0915
39.213
40.8233
41.8349
42.1776
41.8037
40.6922
38.8506
36.3146
33.1456
29.4259
25.2528
20.7329
15.9759
11.0913
6.18593
1.36551
-3.26238
-7.58135
-11.4568
-14.7242
-17.1773
-18.5593
-18.5614
-16.8325
-13.0061
-6.74245
2.21238
13.9581
28.3708
45.0447
63.2576
81.9733
99.8882
115.524
127.364
134.015
134.377
127.808
114.231
94.2057
68.9067
40.0426
9.69959
-19.8629
-46.4426
-68.1217
-83.463
-91.6499
-92.5554
-86.7309
-75.3207
-59.9123
-42.3461
-24.5056
-8.11718
5.42075
15.1582
20.6547
21.978
19.6446
14.5137
7.65284
0.190241
-6.82378
-12.5331
-16.3565
-18.027
-17.5879
-15.3523
-11.8316
-7.64788
-3.44047
0.219795
2.89925
4.34559
4.50467
3.51031
1.65123
-0.678292
-3.03613
-4.98993
-6.16721
-6.29212
-5.20554
-2.86732
0.657549
5.2255
10.6488
16.7325
23.3078
30.259
37.5383
45.1697
53.2388
61.8739
71.2184
81.4001
92.5019
104.537
117.431
131.02
145.05
159.2
173.096
186.35
198.576
209.426
218.597
225.844
230.981
233.867
234.398
232.491
228.079
221.106
211.533
199.364
184.662
167.584
148.408
127.55
105.572
83.1598
61.0982
40.2109
21.2971
5.0593
-7.96494
-17.4582
-23.3578
-25.8635
-25.4182
-22.6611
-18.3617
-13.3398
-8.38345
-4.17382
-1.22506
0.153492
-0.129837
-1.96124
-5.05558
-9.00681
-13.3474
-17.6092
-21.3777
-24.3352
-26.2875
-27.1731
-27.056
-26.1046
-24.56
-22.6996
-20.8011
-19.11
-17.8153
-17.0342
-16.8075
-17.1039
-17.8319
-18.8573
-20.0226
-21.1665
-22.1413
-22.8261
-23.1359
-23.0247
-22.4855
-21.5453
-20.2582
-18.6967
-16.9427
-15.0798
-13.1856
-11.327
-9.55744
-7.91508
-6.4239
-5.09538
-3.93121
-2.92623
-2.07129
-1.35558
-0.768225
-0.299189
0.0605965
0.319612
0.486449
0.570568
0.582903
0.53615
0.444649
0.323856
0.189489
0.0564713
-0.062163
-0.156227
-0.219053
-0.247782
-0.243233
-0.209398
-0.152663
-0.0809009
-0.00256586
0.0741173
0.141805
0.194522
0.227996
0.239854
0.22969
0.199024
0.15112
0.0906818
0.0234281
-0.0444353
-0.1068
-0.158241
-0.19454
-0.21309
-0.213116
-0.195708
-0.163636
-0.120987
-0.0726703
-0.0238442
0.0206578
0.0568318
0.0818868
0.0944634
0.0946735
0.0839667
0.0648556
0.0405507
0.0145847
-0.00947298
-0.0280932
-0.0375601
-0.0334073
-0.00960589
0.0422785
0.133646
0.278821
0.49417
0.796348
1.19983
1.71411
2.34106
3.073
3.89188
4.76996
5.67178
6.55748
7.38678
8.12328
8.73835
9.21426
9.54611
9.7425
9.82483
9.82555
9.78533
9.74967
9.76509
9.87523
10.1171
10.5176
11.0908
11.8358
12.7355
13.7567
14.8513
15.9586
17.0088
17.9282
18.644
19.0901
19.2123
18.9728
18.3532
17.3553
16.0007
14.3275
12.3868
10.2361
7.9342
5.53533
3.08433
0.613855
-1.85626
-4.31669
-6.76303
-9.18674
-11.5626
-13.8337
-15.8942
-17.5746
-18.631
-18.7438
-17.5304
-14.5748
-9.47395
-1.8995
8.33154
21.1865
36.3583
53.2299
70.8741
88.0944
103.511
115.682
123.259
125.142
120.627
109.524
92.2146
69.6538
43.3014
14.9926
-13.2383
-39.36
-61.5487
-78.3688
-88.9095
-92.8601
-90.5181
-82.7298
-70.774
-56.2047
-40.6721
-25.7455
-12.7576
-2.68693
3.911
6.91882
6.62226
3.63278
-1.21911
-7.00456
-12.8157
-17.8691
-21.5835
-23.6236
-23.9098
-22.5949
-20.015
-16.6231
-12.9149
-9.35857
-6.33446
-4.09374
-2.73751
-2.21777
-2.35751
-2.8855
-3.47962
-3.81215
-3.59083
-2.59057
-0.672562
2.21062
6.02306
10.6644
15.9956
21.8685
28.1529
34.7598
41.6564
48.8723
56.4959
64.6613
73.5279
83.2548
93.9721
105.753
118.593
132.389
146.939
161.944
177.023
191.739
205.63
218.233
229.122
237.921
244.318
248.067
248.985
246.94
241.846
233.659
222.386
208.099
190.96
171.248
149.377
125.915
101.572
77.1781
53.6355
31.8545
12.6794
-3.18794
-15.2551
-23.2892
-27.3414
-27.7423
-25.0686
-20.0836
-13.6602
-6.6941
-0.0180118
5.67272
9.87609
12.3148
12.941
11.9161
9.56879
6.33835
2.71145
-0.840559
-3.91583
-6.22226
-7.60031
-8.02736
-7.60489
-6.53184
-5.06886
-3.49873
-2.08843
-1.05726
-0.554451
-0.648118
-1.32569
-2.50454
-4.05042
-5.80046
-7.58718
-9.26051
-10.7049
-11.8502
-12.675
-13.2033
-13.496
-13.6376
-13.7219
-13.8373
-14.055
-14.4195
-14.9443
-15.6114
-16.375
-17.168
-17.911
-18.5221
-18.9261
-19.0627
-18.8921
-18.3988
-17.5919
-16.5033
-15.1837
-13.6965
-12.1117
-10.4987
-8.92092
-7.43092
-6.06732
-4.85377
-3.79959
-2.90176
-2.14804
-1.52064
-0.99982
-0.567098
-0.207643
0.0884313
0.325892
0.505264
0.624502
0.681102
0.674232
0.606499
0.48504
0.321738
0.132565
-0.0638555
-0.248211
-0.402673
-0.512944
-0.569873
-0.570407
-0.51776
-0.420805
-0.29278
-0.149519
-0.00745627
0.118327
0.215774
0.277037
0.299071
0.283602
0.236514
0.166786
0.0851451
0.00262557
-0.0707826
-0.12723
-0.161739
-0.17252
-0.160859
-0.130646
-0.0876295
-0.0385145
0.0099607
0.05186
0.082698
0.0998425
0.102644
0.0923082
0.0715451
0.0440755
0.0140575
-0.0144779
-0.0381176
-0.0544262
-0.062147
-0.0612336
-0.0527266
-0.0385073
-0.0209725
-0.00267851
0.0140032
0.027213
0.036009
0.0411631
0.0469489
0.0647571
0.119282
0.257426
0.558953
1.14659
2.19221
3.91549
6.57195
10.4295
15.7348
22.6725
31.325
41.6378
53.3976
66.2295
79.6134
92.9208
105.468
116.577
125.644
132.192
135.923
136.741
134.759
130.283
123.774
115.803
106.988
97.9361
89.1931
81.1967
74.2526
68.5248
64.0433
60.7269
58.4157
56.9115
56.0177
55.5786
55.5125
55.8389
56.6945
58.3384
61.1393
65.5424
72.0121
80.95
92.5959
106.923
123.548
141.672
160.081
177.211
191.278
200.468
203.167
198.184
184.949
163.645
135.254
101.497
64.6819
27.4763
-7.37881
-37.3606
-60.4341
-75.2616
-81.328
-78.967
-69.2895
-54.0261
-35.3071
-15.4102
3.49192
19.5546
31.4287
38.3585
40.203
37.3847
30.7796
21.5651
11.0496
0.506038
-8.97281
-16.5799
-21.8539
-24.6898
-25.3059
-24.175
-21.9327
-19.2766
-16.8704
-15.2626
-14.8297
-15.7463
-17.9841
-21.3352
-25.4552
-29.9176
-34.2719
-38.0988
-41.0546
-42.902
-43.5245
-42.9245
-41.2072
-38.5533
-35.1855
-31.3322
-27.1934
-22.9126
-18.5574
-14.1107
-9.47415
-4.48349
1.06612
7.38741
14.6647
23.0188
32.4776
42.956
54.2493
66.0391
77.9133
89.3966
99.9876
109.198
116.588
121.797
124.563
124.734
122.27
117.243
109.829
100.3
89.0147
76.4095
62.98
49.2637
35.8147
23.1733
11.8334
2.20823
-5.4001
-10.8243
-14.0448
-15.1903
-14.5242
-12.4184
-9.31709
-5.69421
-2.00933
1.3332
4.01729
5.83719
6.70665
6.65479
5.81009
4.3751
2.59539
0.726821
-0.995117
-2.38037
-3.30155
-3.70194
-3.59439
-3.05192
-2.1922
-1.15833
-0.098517
0.852559
1.58882
2.04265
2.18906
2.04402
1.65805
1.10614
0.47576
-0.145397
-0.680379
-1.07141
-1.28503
-1.31365
-1.17373
-0.90107
-0.54429
-0.15733
0.207884
0.507739
0.711519
0.80388
0.785129
0.669511
0.481932
0.253684
0.0178329
-0.195129
-0.360841
-0.463483
-0.496858
-0.464141
-0.376485
-0.250765
-0.106852
0.0352105
0.157743
0.247405
0.296407
0.302906
0.2706
0.207678
0.125308
0.0359206
-0.0484937
-0.117843
-0.165002
-0.186395
-0.182068
-0.155306
-0.111881
-0.0590953
-0.0047361
0.0438995
0.0808145
0.101886
0.105173
0.0909679
0.0616096
0.0211122
-0.0253502
-0.0720626
-0.11346
-0.14487
-0.163271
-0.168053
-0.161684
-0.150221
-0.143521
-0.155049
-0.201168
-0.299891
-0.469153
-0.724752
-1.07824
-1.53503
-2.09315
-2.74275
-3.46669
-4.24215
-5.04304
-5.84312
-6.61907
-7.35342
-8.03666
-8.66836
-9.2571
-9.81926
-10.3769
-10.9551
-11.5786
-12.2688
-13.0415
-13.904
-14.8542
-15.88
-16.9591
-18.0603
-19.1455
-20.1717
-21.0942
-21.8698
-22.4595
-22.8316
-22.9637
-22.8438
-22.4709
-21.8544
-21.0123
-19.9696
-18.7558
-17.4025
-15.9416
-14.4038
-12.8178
-11.2102
-9.60642
-8.03066
-6.50734
-5.06124
-3.71751
-2.50091
-1.43448
-0.537709
0.175431
0.698374
1.03332
1.19188
1.19475
1.07044
0.853155
0.579969
0.287748
0.0100632
-0.225491
-0.399279
-0.500708
-0.528328
-0.488974
-0.396106
-0.26758
-0.123081
0.0186
0.142562
0.241585
0.321759
0.411358
0.574198
0.927704
1.66386
3.06847
5.53132
9.53816
15.6357
24.3642
36.1593
51.2325
69.4489
90.2279
112.492
134.689
154.89
170.976
180.878
182.851
175.733
159.156
133.668
100.74
62.6546
22.289
-17.1898
-52.6694
-81.4346
-101.463
-111.637
-111.84
-102.941
-86.6543
-65.3154
-41.588
-18.1536
2.58485
18.7461
29.1371
33.3257
31.6194
24.9582
14.7434
2.62619
-9.71309
-20.7679
-29.3677
-34.7829
-36.7651
-35.5232
-31.646
-25.9838
-19.5096
-13.1783
-7.80121
-3.95111
-1.90575
-1.63396
-2.82206
-4.93401
-7.29501
-9.18634
-9.93885
-9.01364
-6.06077
-0.950371
6.22605
15.1821
25.486
36.6248
48.0754
59.3712
70.1585
80.2339
89.5602
98.2596
106.587
114.885
123.533
132.888
143.233
154.734
167.411
181.129
195.604
210.429
225.107
239.098
251.862
262.899
271.781
278.168
281.818
282.578
280.372
275.186
267.051
256.039
242.255
225.85
207.037
186.105
163.439
139.536
114.995
90.5119
66.8376
44.7362
24.9247
8.01125
-5.56244
-15.5665
-22.0086
-25.1355
-25.4102
-23.4651
-20.0384
-15.8997
-11.7755
-8.28187
-5.87285
-4.80944
-5.15187
-6.7745
-9.40002
-12.6476
-16.0882
-19.3002
-21.9186
-23.6729
-24.41
-24.1012
-22.8338
-20.7895
-18.2144
-15.3833
-12.5652
-9.99214
-7.83583
-6.19372
-5.08557
-4.45972
-4.20745
-4.18294
-4.22577
-4.18282
-3.92702
-3.37081
-2.4731
-1.23962
0.282575
2.01534
3.86226
5.7224
7.50293
9.1293
10.5518
11.7484
12.7231
13.5016
14.1246
14.639
15.0908
15.5173
15.9422
16.3733
16.8016
17.2034
17.5438
17.7812
17.8725
17.7776
17.4636
16.9082
16.1016
15.0475
13.763
12.2776
10.6313
8.87194
7.05234
5.22673
3.44765
1.76286
0.212856
-1.171
-2.36744
-3.36554
-4.16419
-4.77099
-5.20081
-5.47418
-5.61567
-5.65252
-5.6134
-5.52733
-5.42275
-5.32645
-5.26239
-5.25041
-5.30485
-5.43333
-5.63588
-5.90459
-6.22408
-6.57269
-6.92432
-7.25079
-7.52438
-7.72028
-7.81875
-7.80673
-7.67887
-7.43797
-7.09463
-6.66645
-6.17647
-5.65127
-5.11866
-4.60514
-4.13361
-3.72122
-3.37797
-3.10596
-2.89955
-2.7464
-2.62922
-2.52803
-2.4227
-2.29543
-2.13285
-1.92753
-1.67858
-1.39135
-1.07605
-0.745486
-0.412099
-0.0847198
0.234532
0.552659
0.887046
1.26524
1.72311
2.30149
3.04159
3.97984
5.14257
6.54137
8.16974
10.0013
11.99
14.0724
16.1717
18.2028
20.0793
21.7192
23.0516
24.021
24.5905
24.7428
24.4785
23.8133
22.7733
21.3897
19.6942
17.7159
15.4788
13.0029
10.3069
7.41175
4.34632
1.15184
-2.11431
-5.37658
-8.541
-11.4961
-14.1138
-16.2478
-17.7296
-18.3599
-17.8968
-16.0454
-12.4536
-6.72311
1.55725
12.7517
27.0919
44.5749
64.8627
87.2057
110.413
132.89
152.747
167.978
176.692
177.361
169.051
151.6
125.713
92.948
55.601
16.4843
-21.3602
-54.9854
-81.8569
-100.123
-108.806
-107.883
-98.2633
-81.6517
-60.3303
-36.8817
-13.8936
6.32171
21.9576
31.8709
35.6522
33.606
26.6508
16.1561
3.74233
-8.93171
-20.3646
-29.3711
-35.1876
-37.5161
-36.5078
-32.6936
-26.8761
-19.999
-13.0131
-6.75624
-1.85875
1.31483
2.68572
2.44391
1.00044
-1.08209
-3.16989
-4.63886
-4.94608
-3.68496
-0.618905
4.30785
10.9814
19.1479
28.4564
38.5095
48.9142
59.3287
69.4989
79.2827
88.6587
97.7203
106.655
115.714
125.173
135.288
146.257
158.186
171.061
184.739
198.946
213.296
227.312
240.462
252.197
261.989
269.36
273.916
275.357
273.491
268.232
259.595
247.692
232.722
214.967
194.793
172.646
149.057
124.634
100.049
76.0112
53.2346
32.3898
14.0551
-1.33249
-13.517
-22.4488
-28.2898
-31.3981
-32.2913
-31.5938
-29.9733
-28.0743
-26.4575
-25.5496
-25.6119
-26.7282
-28.8133
-31.6405
-34.8818
-38.1573
-41.0858
-43.332
-44.6436
-44.8762
-44.0035
-42.1129
-39.3881
-36.0831
-32.4887
-28.8988
-25.579
-22.74
-20.5209
-18.9801
-18.0975
-17.784
-17.8983
-18.2672
-18.7081
-19.0496
-19.149
-18.9049
-18.2639
-17.2211
-15.8156
-14.1212
-12.2353
-10.2654
-8.31761
-6.48553
-4.84283
-3.43859
-2.29595
-1.4135
-0.768931
-0.324182
-0.0312608
0.161776
0.305288
0.4433
0.609822
0.826387
1.10091
1.42786
1.78969
2.15941
2.50393
2.78798
2.97819
3.04687
2.97521
2.75545
2.39202
1.90132
1.31029
0.653998
-0.0276607
-0.693598
-1.30521
-1.82965
-2.24236
-2.52866
-2.68422
-2.71452
-2.63344
-2.46125
-2.22215
-1.94182
-1.64505
-1.35373
-1.08543
-0.852409
-0.661402
-0.51386
-0.406746
-0.333662
-0.286176
-0.255173
-0.232079
-0.209822
-0.183438
-0.150275
-0.109801
-0.0630955
-0.0120972
0.0412185
0.0956106
0.151138
0.209405
0.273426
0.347083
0.434272
0.537837
0.658508
0.794043
0.93877
1.08368
1.21715
1.3262
1.39823
1.42294
1.39404
1.3107
1.17824
1.00806
0.816793
0.624734
0.45383
0.325429
0.258104
0.265791
0.356429
0.531237
0.784658
1.10494
1.47523
1.87513
2.28237
2.6747
3.03167
3.33623
3.57609
3.74457
3.84105
3.87067
3.84343
3.77262
3.67269
3.55676
3.43407
3.30752
3.17175
3.01172
2.80206
2.50714
2.0819
1.47363
0.624831
-0.522792
-2.02295
-3.91836
-6.23374
-8.96888
-12.093
-15.5409
-19.2129
-22.9777
-26.6788
-30.1434
-33.1917
-35.6445
-37.3249
-38.0547
-37.6426
-35.867
-32.4607
-27.1019
-19.425
-9.05635
4.31994
20.8693
40.4999
62.762
86.7759
111.215
134.36
154.227
168.767
176.108
174.809
164.091
143.996
115.46
80.2751
40.938
0.410051
-38.1888
-71.91
-98.2887
-115.598
-123.017
-120.688
-109.667
-91.7667
-69.3312
-44.9528
-21.1842
-0.272534
16.0533
26.7202
31.3637
30.2947
24.3941
14.9509
3.47148
-8.51749
-19.6457
-28.8377
-35.3998
-39.0496
-39.8927
-38.3522
-35.0687
-30.7835
-26.2242
-22.0067
-18.563
-16.1035
-14.6127
-13.877
-13.5354
-13.1461
-12.2569
-10.4708
-7.49736
-3.18636
2.4617
9.3061
17.0953
25.5098
34.2115
42.8929
51.3193
59.3588
66.9959
74.3301
81.5577
88.9422
96.776
105.341
114.868
125.511
137.318
150.229
164.074
178.585
193.415
208.161
222.387
235.646
247.495
257.512
265.297
270.49
272.768
271.858
267.549
259.707
248.295
233.393
215.217
194.133
170.66
145.466
119.337
93.1448
67.7924
44.1545
23.013
4.99762
-9.46334
-20.1752
-27.1883
-30.786
-31.4519
-29.8176
-26.5997
-22.5304
-18.2911
-14.4558
-11.4495
-9.52479
-8.75958
-9.07217
-10.2524
-12.0033
-13.9873
-15.8719
-17.3695
-18.2679
-18.4472
-17.8856
-16.6516
-14.8873
-12.7835
-10.553
-8.40294
-6.51118
-5.00869
-3.96906
-3.40609
-3.27856
-3.50099
-3.95845
-4.52309
-5.07037
-5.49307
-5.71157
-5.67968
-5.38576
-4.84952
-4.11542
-3.24387
-2.30164
-1.35268
-0.45067
0.366065
1.07681
1.67795
2.18002
2.60318
2.97178
3.30904
3.63249
3.95091
4.26283
4.55692
4.81375
5.00871
5.11547
5.10949
4.97101
4.68727
4.25371
3.67428
2.96081
2.13188
1.21134
0.226785
-0.791825
-1.81331
-2.80612
-3.73896
-4.58141
-5.30458
-5.88198
-6.29079
-6.51326
-6.53843
-6.36371
-5.99627
-5.45375
-4.76422
-3.96507
-3.10093
-2.22061
-1.37343
-0.605258
0.0452998
0.550101
0.893668
1.07414
1.10286
1.00261
0.804819
0.545951
0.263611
-0.0072405
-0.237524
-0.406412
-0.502618
-0.524531
-0.479286
-0.38094
-0.248042
-0.10092
0.0409929
0.161498
0.249392
0.299505
0.312926
0.296465
0.261459
0.22209
0.193468
0.189719
0.222324
0.29891
0.422619
0.592136
0.802346
1.04559
1.31336
1.59836
1.89658
2.20922
2.54413
2.91645
3.34814
3.86647
4.50129
5.28139
6.23042
7.36272
8.67988
10.1684
11.7993
13.5292
15.3037
17.0624
18.7442
20.2935
21.6649
22.827
23.7636
24.4721
24.9604
25.2417
25.3283
25.226
24.9297
24.4215
23.6708
22.6382
21.2805
19.5575
17.4395
14.9129
11.9855
8.68836
5.07598
1.22427
-2.77347
-6.81147
-10.777
-14.5556
-18.0353
-21.1085
-23.6705
-25.6136
-26.8156
-27.1236
-26.3352
-24.1823
-20.3247
-14.3617
-5.86932
5.53357
20.0922
37.8081
58.3347
80.9
104.28
126.843
146.665
161.721
170.12
170.36
161.566
143.658
117.44
84.5783
47.4616
8.97044
-27.8268
-60.0071
-85.1132
-101.419
-108.106
-105.33
-94.1724
-76.4851
-54.6515
-31.2978
-8.9921
10.0324
24.0974
32.2195
34.1598
30.383
21.9385
10.2834
-2.92484
-16.0407
-27.6195
-36.5638
-42.2126
-44.3691
-43.268
-39.4952
-33.872
-27.3235
-20.749
-14.9093
-10.345
-7.33017
-5.86583
-5.70767
-6.42229
-7.46119
-8.24161
-8.22329
-6.972
-4.2032
0.197633
6.17818
13.5431
21.9931
31.1738
40.7254
50.3296
59.7463
68.8376
77.5779
86.0486
94.4207
102.927
111.827
121.373
131.769
143.146
155.535
168.853
182.903
197.376
211.869
225.909
238.979
250.55
260.11
267.191
271.391
272.397
269.99
264.058
254.6
241.729
225.67
206.76
185.448
162.285
137.919
113.066
88.4929
64.9707
43.2339
23.9289
7.56519
-5.52672
-15.2248
-21.6269
-25.0421
-25.9607
-25.0062
-22.874
-20.2637
-17.8132
-16.0418
-15.3084
-15.7905
-17.483
-20.2182
-23.7014
-27.5581
-31.3854
-34.801
-37.4859
-39.2139
-39.8683
-39.444
-38.0367
-35.8221
-33.0288
-29.9084
-26.707
-23.6409
-20.8785
-18.53
-16.6448
-15.2161
-14.1902
-13.4802
-12.981
-12.584
-12.1895
-11.7165
-11.1085
-10.3356
-9.39369
-8.30042
-7.0901
-5.80759
-4.50236
-3.2233
-2.01453
-0.912615
0.0551068
0.871017
1.52692
2.02319
2.36758
2.57399
2.66123
2.65189
2.5712
2.44591
2.30314
2.16904
2.06739
2.01815
2.03598
2.12893
2.29726
2.53267
2.81799
3.12748
3.42801
3.6811
3.84588
3.88284
3.758
3.44711
2.93933
2.2398
1.3707
0.370539
-0.708418
-1.80424
-2.85063
-3.78283
-4.54345
-5.08774
-5.38765
-5.43433
-5.23883
-4.8309
-4.25608
-3.57119
-2.83885
-2.12141
-1.47495
-0.944127
-0.558192
-0.328834
-0.24995
-0.299372
-0.442303
-0.636009
-0.835178
-0.997294
-1.0874
-1.08167
-0.969504
-0.753809
-0.449714
-0.0818585
0.319237
0.721169
1.09346
1.4107
1.65466
1.81525
1.89033
1.88452
1.80742
1.67147
1.48993
1.2752
1.0379
0.786496
0.527786
0.2679
0.0136432
-0.226091
-0.439142
-0.609393
-0.716758
-0.737981
-0.648265
-0.423634
-0.0438205
0.504679
1.22582
2.11196
3.14305
4.28716
5.50266
6.74164
7.95437
9.09418
10.1223
11.0119
11.7511
12.3443
12.812
13.1887
13.5182
13.8482
14.2219
14.67
15.2015
15.7968
16.4031
16.9345
17.2767
17.2976
16.8624
15.8509
14.176
11.8002
8.74735
5.1074
1.03486
-3.26067
-7.52921
-11.4979
-14.8878
-17.4254
-18.8468
-18.8929
-17.2975
-13.7738
-8.00929
0.322782
11.5249
25.8079
43.1986
63.4369
85.8849
109.472
132.703
153.738
170.556
181.17
183.89
177.574
161.837
137.177
104.999
67.5137
27.5359
-11.8083
-47.4189
-76.5621
-97.1685
-108.051
-109.012
-100.84
-85.1786
-64.3128
-40.8832
-17.5771
3.16852
19.4167
29.9043
34.1254
32.3201
25.377
14.6689
1.84565
-11.3858
-23.4671
-33.1566
-39.6416
-42.588
-42.1258
-38.7793
-33.3557
-26.8098
-20.1054
-14.0889
-9.39164
-6.3705
-5.08885
-5.33782
-6.69008
-8.57602
-10.3701
-11.4753
-11.3954
-9.78636
-6.48401
-1.50602
4.96894
12.64
21.1347
30.0637
39.0729
47.8875
56.3418
64.394
72.1238
79.715
87.4265
95.5547
104.393
114.193
125.13
137.277
150.595
164.922
179.989
195.428
210.801
225.623
239.386
251.586
261.741
269.409
274.201
275.786
273.908
268.392
259.156
246.229
229.766
210.062
187.565
162.874
136.733
109.999
83.6093
58.5169
35.6313
15.7479
-0.515902
-12.7727
-20.8983
-25.0408
-25.6045
-23.2089
-18.6273
-12.7125
-6.3169
-0.216605
4.95265
8.74116
10.9085
11.4232
10.4409
8.26409
5.29098
1.95882
-1.31059
-4.15746
-6.31826
-7.64476
-8.10762
-7.78553
-6.84304
-5.50078
-4.00249
-2.58336
-1.44303
-0.726301
-0.512742
-0.815581
-1.58879
-2.74057
-4.15068
-5.68907
-7.23325
-8.68232
-9.96633
-11.0502
-11.9323
-12.6389
-13.2146
-13.7118
-14.1804
-14.6582
-15.1647
-15.6982
-16.2364
-16.7396
-17.157
-17.4339
-17.519
-17.3711
-16.9645
-16.2917
-15.3646
-14.213
-12.8814
-11.4248
-9.90332
-8.37721
-6.90183
-5.52407
-4.27976
-3.19247
-2.27359
-1.52352
-0.933591
-0.488466
-0.168653
0.0471769
0.180224
0.250111
0.273957
0.265955
0.237357
0.196744
0.150465
0.103132
0.0580676
0.0176693
-0.0163447
-0.042803
-0.0610348
-0.0708737
-0.0726745
-0.0673085
-0.0561154
-0.0408044
-0.023306
-0.0055929
0.0105095
0.023497
0.032323
0.0364791
0.0360115
0.0314734
0.0238214
0.0142725
0.00414118
-0.00532295
-0.0130753
-0.0183805
-0.0208703
-0.0205515
-0.017768
-0.0131256
-0.00739195
-0.00138641
0.00412513
0.00851864
0.0113739
0.012505
0.0119596
0.00999289
0.00703643
0.00370032
0.000876669
3.18781e-05
0.00376669
0.0166688
0.0463828
0.104699
0.20836
0.379226
0.643499
1.02983
1.56633
2.2768
3.1766
4.26887
5.54165
6.96662
8.49965
10.0834
11.6515
13.1344
14.4649
15.584
16.4455
17.019
17.2909
17.2637
16.9529
16.3843
15.5886
14.5979
13.4416
12.1433
10.7198
9.18031
7.52785
5.76152
3.87976
1.88431
-0.215309
-2.39694
-4.61996
-6.81794
-8.88864
-10.681
-11.9791
-12.4868
-11.8161
-9.48801
-4.95487
2.35013
12.9311
27.1203
44.9545
66.0585
89.5616
114.076
137.75
158.416
173.803
181.815
180.812
169.874
148.986
119.125
82.2169
40.9791
-1.35384
-41.3716
-75.8612
-102.16
-118.442
-123.907
-118.843
-104.559
-83.205
-57.5009
-30.41
-4.80424
16.8421
32.6934
41.7038
43.6664
39.1629
29.4255
16.1366
1.19319
-13.5302
-26.3944
-36.1587
-42.0805
-43.9455
-42.0319
-37.0195
-29.8607
-21.6332
-13.3942
-6.05363
-0.279639
3.55551
5.38745
5.43292
4.13187
2.06924
-0.111804
-1.79357
-2.45477
-1.72145
0.605852
4.54925
9.97267
16.6181
24.1528
32.2201
40.4884
48.6905
56.6515
64.3014
71.6736
78.8895
86.1341
93.6248
101.579
110.182
119.562
129.77
140.77
152.436
164.553
176.833
188.923
200.426
210.918
219.961
227.124
231.996
234.202
233.42
229.397
221.971
211.09
196.836
179.446
159.322
137.037
113.324
89.0399
65.1252
42.537
22.1787
4.82583
-8.94095
-18.7881
-24.6592
-26.778
-25.6249
-21.8874
-16.3908
-10.017
-3.62057
2.04881
6.40947
9.08937
9.94339
9.04538
6.65738
3.18108
-0.901939
-5.0935
-8.93815
-12.072
-14.2561
-15.3927
-15.5219
-14.804
-13.4873
-11.8701
-10.259
-8.93049
-8.09973
-7.89908
-8.3688
-9.45946
-11.0448
-12.9427
-14.9411
-16.8248
-18.4008
-19.5187
-20.0842
-20.0649
-19.4887
-18.4355
-17.023
-15.3909
-13.6824
-12.0288
-10.5354
-9.27358
-8.27594
-7.53792
-7.02296
-6.67114
-6.40983
-6.16472
-5.86994
-5.47614
-4.95578
-4.30503
-3.54268
-2.70604
-1.84492
-1.0143
-0.266846
0.353858
0.818495
1.11509
1.24966
1.24445
1.13425
0.961174
0.768897
0.596954
0.475945
0.424161
0.445994
0.53224
0.662159
0.806964
0.934236
1.01268
1.01657
0.929425
0.746269
0.474492
0.133032
-0.249855
-0.639944
-1.00104
-1.29908
-1.50587
-1.60181
-1.57758
-1.43422
-1.18197
-0.837707
-0.421652
0.0465437
0.55161
1.086
1.65229
2.26435
2.94695
3.73394
4.66487
5.78054
7.11779
8.70431
10.5539
12.6628
15.0081
17.5476
20.2217
22.9576
25.6741
28.288
30.7203
32.9023
34.7803
36.3192
37.5039
38.3385
38.8443
39.0545
39.0096
38.7507
38.314
37.7257
36.9985
36.1296
35.1006
33.878
32.416
30.6596
28.549
26.0251
23.0361
19.5451
15.5379
11.0305
6.07457
0.7606
-4.78228
-10.3904
-15.8725
-21.0189
-25.6097
-29.4208
-32.2251
-33.7881
-33.859
-32.1623
-28.3956
-22.2424
-13.4072
-1.67462
13.0084
30.4425
50.0937
71.0427
91.9856
111.3
127.178
137.815
141.633
137.508
124.955
104.259
76.5066
43.5244
7.71743
-28.1697
-61.3394
-89.2396
-109.836
-121.82
-124.739
-119.011
-105.856
-87.1257
-65.0766
-42.1066
-20.4912
-2.15007
11.5295
19.7961
22.5569
20.3239
14.0955
5.19295
-4.92395
-14.8401
-23.3437
-29.5446
-32.9419
-33.4377
-31.3001
-27.0869
-21.5412
-15.476
-9.66302
-4.73852
-1.13618
0.947812
1.55657
0.944703
-0.472434
-2.1838
-3.65257
-4.38188
-3.96904
-2.1429
1.21831
6.08879
12.3143
19.6445
27.7738
36.3842
45.1858
53.9506
62.5355
70.8949
79.0801
87.2285
95.5429
104.263
113.635
123.872
135.131
147.475
160.859
175.116
189.956
204.974
219.668
233.466
245.757
255.926
263.393
267.644
268.265
264.967
257.608
246.203
230.936
212.156
190.378
166.264
140.598
114.259
88.1711
63.252
40.3539
20.2027
3.34366
-9.90173
-19.4601
-25.5088
-28.454
-28.8876
-27.5253
-25.1342
-22.4575
-20.1443
-18.6943
-18.4206
-19.436
-21.6618
-24.8576
-28.6671
-32.673
-36.454
-39.6375
-41.9416
-43.2025
-43.385
-42.5774
-40.9708
-38.8288
-36.4512
-34.1357
-32.144
-30.6746
-29.8455
-29.6872
-30.1471
-31.1018
-32.3769
-33.7705
-35.0767
-36.108
-36.7129
-36.7877
-36.2819
-35.1976
-33.5827
-31.5205
-29.1173
-26.4885
-23.7468
-20.9916
-18.303
-15.7388
-13.3344
-11.107
-9.06023
-7.19013
-5.49092
-3.9592
-2.59637
-1.40912
-0.407904
0.395858
0.993396
1.38213
1.56854
1.5697
1.41341
1.13671
0.783136
0.399252
0.0310048
-0.279453
-0.496001
-0.589576
-0.537986
-0.324756
0.0625579
0.634051
1.39861
2.3641
3.53638
4.91719
6.50127
8.27316
10.2044
12.2518
14.3574
16.4501
18.4492
20.2703
21.8314
23.06
23.8992
24.313
24.2892
23.8403
23.0011
21.8251
20.3782
18.7319
16.956
15.1125
13.2499
11.3999
9.57625
7.77528
5.97848
4.15687
2.27644
0.304429
-1.78436
-4.00161
-6.34059
-8.77267
-11.2449
-13.6785
-15.966
-17.9674
-19.5021
-20.3385
-20.182
-18.667
-15.3591
-9.77693
-1.43993
10.0546
24.929
43.1119
64.1323
87.0508
110.449
132.498
151.107
164.145
169.709
166.398
153.552
131.413
101.183
64.9519
25.5067
-13.9561
-50.1824
-80.2264
-101.782
-113.438
-114.818
-106.597
-90.3923
-68.5418
-43.8089
-19.0509
3.10674
20.5489
31.8712
36.4823
34.6028
27.1675
15.6505
1.8411
-12.399
-25.3642
-35.6937
-42.4994
-45.4226
-44.6197
-40.6843
-34.5227
-27.2018
-19.7918
-13.224
-8.18069
-5.02778
-3.79443
-4.19885
-5.71204
-7.64811
-9.26744
-9.87793
-8.92165
-6.03667
-1.08796
5.83444
14.447
24.3281
34.9873
45.9388
56.7686
67.1862
77.0564
86.406
95.409
104.351
113.581
123.455
134.281
146.271
159.505
173.912
189.266
205.202
221.243
236.84
251.411
264.385
275.24
283.53
288.907
291.126
290.047
285.626
277.901
266.985
253.048
236.318
217.083
195.69
172.563
148.201
123.184
98.1597
73.8195
50.8635
29.954
11.6641
-3.57167
-15.4978
-24.064
-29.4312
-31.9575
-32.1626
-30.677
-28.1799
-25.3347
-22.7278
-20.8191
-19.9089
-20.1233
-21.42
-23.6121
-26.4052
-29.4438
-32.3604
-34.821
-36.563
-37.4209
-37.3377
-36.3634
-34.6395
-32.3751
-29.8162
-27.2142
-24.7959
-22.7399
-21.1603
-20.1001
-19.5336
-19.376
-19.4994
-19.7523
-19.9792
-20.0398
-19.8229
-19.2571
-18.3146
-17.0091
-15.3895
-13.5287
-11.5112
-9.42015
-7.32587
-5.27817
-3.30205
-1.39807
0.45339
2.28489
4.13278
6.02779
7.98669
10.0063
12.0605
14.1013
16.0623
17.8662
19.4331
20.6899
21.5783
22.0623
22.1318
21.8041
21.1223
20.1509
18.9697
17.6659
16.3269
15.0318
13.8455
12.8134
11.959
11.2828
10.7648
10.3675
10.0418
9.73283
9.38646
8.95494
8.40169
7.70434
6.85608
5.86522
4.75331
3.55202
2.29938
1.03577
-0.199926
-1.37359
-2.45846
-3.43675
-4.30026
-5.05008
-5.69529
-6.25096
-6.73552
-7.16789
-7.56454
-7.9371
-8.29052
-8.62235
-8.92307
-9.17761
-9.36767
-9.47462
-9.48239
-9.37995
-9.16305
-8.83486
-8.40567
-7.89162
-7.31286
-6.69148
-6.04941
-5.40664
-4.77994
-4.1822
-3.62234
-3.10591
-2.63615
-2.21532
-1.84609
-1.53245
-1.2801
-1.09581
-0.986106
-0.955202
-1.00283
-1.12237
-1.29983
-1.51398
-1.73776
-1.94093
-2.09342
-2.16911
-2.14928
-2.0252
-1.7996
-1.48652
-1.10985
-0.700471
-0.292643
0.080031
0.38844
0.61113
0.736427
0.76328
0.700791
0.566564
0.384143
0.179919
-0.0200728
-0.193067
-0.321825
-0.395976
-0.412247
-0.373535
-0.286865
-0.160467
-0.000344505
0.193139
0.428061
0.722567
1.10486
1.6113
2.28272
3.15914
4.27362
5.64597
7.27721
9.14578
11.2061
13.39
15.6112
17.7721
19.7725
21.5196
22.9371
23.9727
24.6038
24.8395
24.719
24.307
23.685
22.9405
22.1544
21.3887
20.675
20.0078
19.3422
18.5974
17.6673
16.4347
14.7903
12.6504
9.97386
6.77312
3.11962
-0.858383
-4.98395
-9.04354
-12.7996
-16.0001
-18.3808
-19.661
-19.5318
-17.6452
-13.6107
-7.01027
2.55963
15.4162
31.693
51.232
73.4853
97.4535
121.684
144.342
163.364
176.672
182.431
179.304
166.681
144.819
114.89
78.9115
39.561
-0.092352
-36.9184
-68.0665
-91.275
-105.11
-109.1
-103.761
-90.4984
-71.4147
-49.0423
-26.043
-4.90748
12.3045
24.1575
29.9475
29.7153
24.1734
14.5606
2.4475
-10.4786
-22.6224
-32.6586
-39.6601
-43.1654
-43.1833
-40.1392
-34.7768
-28.0294
-20.8814
-14.2367
-8.80986
-5.05121
-3.11241
-2.85232
-3.87942
-5.62204
-7.41549
-8.59379
-8.57444
-6.92609
-3.41229
1.99239
9.11384
17.6141
27.0451
36.9132
46.7447
56.1463
64.851
72.7471
79.8861
86.4705
92.8235
99.3454
106.461
114.565
123.97
134.863
147.278
161.078
175.965
191.49
207.098
222.159
236.024
248.066
257.72
264.512
268.083
268.195
264.73
257.687
247.171
233.385
216.619
197.253
175.75
152.654
128.588
104.239
80.3373
57.6226
36.8021
18.5018
3.218
-8.72644
-17.2129
-22.3406
-24.4201
-23.9448
-21.545
-17.9276
-13.8099
-9.85344
-6.60757
-4.46669
-3.64688
-4.183
-5.94527
-8.67236
-12.0157
-15.5892
-19.018
-21.9815
-24.2439
-25.6734
-26.245
-26.0311
-25.1807
-23.8917
-22.3797
-20.849
-19.4673
-18.3487
-17.5451
-17.0462
-16.788
-16.6667
-16.5558
-16.3256
-15.86
-15.0703
-13.9053
-12.355
-10.45
-8.25549
-5.86264
-3.37776
-0.910795
1.43508
3.57209
5.43381
6.97843
8.18916
9.07242
9.65415
9.97491
10.0845
10.0363
9.88251
9.66971
9.43601
9.20918
9.00623
8.83401
8.69068
8.56779
8.45259
8.33035
8.1865
8.00837
7.78653
7.51549
7.19393
6.82412
6.41085
5.95981
5.47568
4.96034
4.41143
3.82173
3.17949
2.46989
1.67745
0.789007
-0.203054
-1.29802
-2.48493
-3.74193
-5.03704
-6.33035
-7.57721
-8.73221
-9.75322
-10.6051
-11.263
-11.7138
-11.9575
-12.0066
-11.8841
-11.6219
-11.2564
-10.826
-10.3669
-9.91024
-9.47948
-9.0891
-8.74413
-8.44091
-8.16884
-7.91279
-7.65587
-7.38203
-7.07821
-6.73575
-6.35089
-5.92446
-5.46106
-4.96782
-4.45319
-3.92601
-3.39487
-2.86792
-2.35293
-1.8576
-1.3898
-0.95768
-0.569516
-0.233252
0.0441854
0.257707
0.40488
0.486602
0.50754
0.476305
0.405378
0.310837
0.211933
0.130524
0.0903373
0.116038
0.23207
0.461307
0.823607
1.33441
2.00354
2.83437
3.82342
4.96049
6.22915
7.60783
9.07114
10.5915
12.1411
13.6936
15.226
16.7207
18.1659
19.557
20.8962
22.1915
23.4555
24.7024
25.9462
27.1965
28.4566
29.7198
30.9677
32.1681
33.274
34.2247
34.9468
35.3584
35.3732
34.9076
33.8872
32.2541
29.9734
27.0383
23.473
19.3339
14.7078
9.70771
4.46819
-0.862172
-6.12787
-11.174
-15.8529
-20.0286
-23.5787
-26.3901
-28.3497
-29.3277
-29.1566
-27.609
-24.3838
-19.1072
-11.3602
-0.736131
13.0699
30.1518
50.2781
72.8003
96.6053
120.137
141.493
158.605
169.464
172.386
166.258
150.74
126.378
94.6107
57.6647
18.3431
-20.2648
-55.1143
-83.5358
-103.521
-113.93
-114.592
-106.29
-90.6402
-69.8765
-46.5753
-23.3563
-2.59613
13.8116
24.6247
29.3329
28.1491
21.917
11.955
-0.141944
-12.7136
-24.2339
-33.4756
-39.6221
-42.3209
-41.674
-38.1747
-32.6033
-25.8965
-19.0114
-12.7992
-7.90437
-4.70001
-3.26292
-3.389
-4.64316
-6.43426
-8.10351
-9.01388
-8.62893
-6.57208
-2.66035
3.08946
10.4806
19.1774
28.7604
38.788
48.8556
58.6452
67.9601
76.7413
85.0649
93.1218
101.185
109.565
118.567
128.446
139.37
151.397
164.462
178.373
192.831
207.443
221.756
235.281
247.524
258.008
266.291
271.985
274.756
274.34
270.542
263.248
252.431
238.171
220.663
200.234
177.353
152.628
126.795
100.693
75.218
51.2687
29.6839
11.1756
-3.73038
-14.7411
-21.8223
-25.2008
-25.3413
-22.8996
-18.6579
-13.4488
-8.07678
-3.24655
0.495053
2.79676
3.51745
2.71704
0.626479
-2.39849
-5.93299
-9.54097
-12.8283
-15.4855
-17.3154
-18.2446
-18.3188
-17.684
-16.5577
-15.1948
-13.8518
-12.7558
-12.0791
-11.9236
-12.3152
-13.2077
-14.4949
-16.0288
-17.6411
-19.1644
-20.4519
-21.3923
-21.9181
-22.0094
-21.6893
-21.0164
-20.072
-18.9472
-17.7297
-16.4924
-15.2865
-14.137
-13.044
-11.9867
-10.9304
-9.8348
-8.66309
-7.3894
-6.00466
-4.51975
-2.96567
-1.39114
0.142244
1.56643
2.81406
3.82558
4.55537
4.97639
5.08266
4.88957
4.43197
3.76037
2.93571
2.02345
1.08758
0.185254
-0.637422
-1.34794
-1.92822
-2.37372
-2.69107
-2.8947
-3.00312
-3.03526
-3.00762
-2.93237
-2.8167
-2.66342
-2.47236
-2.2424
-1.97364
-1.66911
-1.33603
-0.986009
-0.634482
-0.299299
0.00121398
0.25043
0.435466
0.548803
0.589237
0.562031
0.478271
0.353521
0.205984
0.0544139
-0.0839248
-0.19502
-0.269376
-0.302651
-0.295623
-0.253526
-0.184877
-0.0999987
-0.00946006
0.0773159
0.153086
0.213334
0.256296
0.282521
0.294091
0.293704
0.283814
0.266013
0.240776
0.207592
0.165438
0.113439
0.0515666
-0.0187972
-0.0945563
-0.170891
-0.241495
-0.298937
-0.334974
-0.340672
-0.306274
-0.220815
-0.0716455
0.155953
0.478807
0.915333
1.48435
2.20319
3.08531
4.13752
5.3574
6.73107
8.23192
9.82061
11.4466
13.0512
14.5723
15.9498
17.1316
18.0786
18.7683
19.1965
19.3753
19.3288
19.0866
18.6756
18.1129
17.3987
16.5142
15.4211
14.0672
12.3948
10.3522
7.90621
5.05468
1.83566
-1.66724
-5.32491
-8.96806
-12.3967
-15.3914
-17.7233
-19.1593
-19.4606
-18.3745
-15.6221
-10.8903
-3.83612
5.88756
18.5769
34.3947
53.2697
74.7946
98.1481
122.065
144.876
164.622
179.244
186.822
185.838
175.419
155.513
126.989
91.6052
51.8778
10.8346
-28.2991
-62.449
-89.0279
-106.215
-113.144
-109.975
-97.8464
-78.7156
-55.108
-29.8141
-5.57178
15.2289
30.7809
40.0132
42.6476
39.1594
30.654
18.6803
5.00901
-8.59506
-20.5787
-29.761
-35.4335
-37.3934
-35.912
-31.6477
-25.5202
-18.5648
-11.7862
-6.03029
-1.88883
0.355228
0.737564
-0.419374
-2.57243
-5.04671
-7.13423
-8.18889
-7.70595
-5.37674
-1.11366
4.95607
12.5247
21.1598
30.3739
39.6957
48.7356
57.2356
65.0974
72.3876
79.3186
86.2103
93.4393
101.382
110.357
120.587
132.157
145.008
158.937
173.611
188.602
203.418
217.539
230.457
241.696
250.836
257.523
261.472
262.463
260.344
255.021
246.464
234.714
219.889
202.204
181.985
159.684
135.875
111.256
86.6153
62.793
40.6281
20.8927
4.22729
-8.91852
-18.3302
-24.0512
-26.3806
-25.8439
-23.1411
-19.0765
-14.479
-10.1228
-6.65659
-4.55019
-4.06288
-5.23697
-7.91521
-11.7785
-16.3982
-21.2959
-26.0024
-30.1107
-33.315
-35.4347
-36.4213
-36.348
-35.3876
-33.78
-31.7963
-29.7035
-27.7346
-26.0656
-24.8042
-23.9869
-23.5859
-23.5227
-23.686
-23.9505
-24.1947
-24.315
-24.2355
-23.9117
-23.3301
-22.5029
-21.4607
-20.2435
-18.8923
-17.4425
-15.9199
-14.339
-12.7052
-11.0184
-9.27769
-7.48734
-5.66094
-3.82457
-2.01757
-0.290988
1.29622
2.68263
3.8108
4.63366
5.12017
5.25928
5.06181
4.56002
3.80486
2.86152
1.80369
0.707321
-0.355398
-1.32126
-2.14006
-2.77713
-3.21439
-3.44996
-3.49656
-3.37898
-3.13076
-2.79054
-2.39834
-1.99195
-1.60393
-1.25936
-0.974449
-0.756273
-0.603411
-0.507451
-0.455088
-0.430527
-0.417884
-0.403285
-0.376447
-0.331596
-0.267664
-0.187838
-0.0985712
-0.00825486
0.0742413
0.140948
0.18592
0.205976
0.200995
0.17377
0.129483
0.0748948
0.0174047
-0.0359114
-0.0791351
-0.108127
-0.120871
-0.117519
-0.100157
-0.0723295
-0.0383746
-0.00261863
0.0315134
0.0624136
0.0911511
0.122175
0.163751
0.228022
0.33063
0.489865
0.725408
1.05678
1.50171
2.07459
2.78525
3.63812
4.63195
5.75983
7.00974
8.36513
9.80575
11.3083
12.8474
14.3962
15.9275
17.4148
18.8341
20.1657
21.3951
22.515
23.525
24.4309
25.2425
25.97
26.6195
27.1879
27.6575
27.9922
28.1349
28.008
27.5167
26.5565
25.0239
22.8294
19.9116
16.2507
11.879
6.88643
1.42054
-4.32032
-10.0997
-15.6604
-20.7431
-25.1037
-28.5257
-30.8224
-31.8305
-31.3927
-29.3346
-25.445
-19.466
-11.1078
-0.0921256
13.7718
30.4876
49.7645
70.9271
92.8677
114.065
132.678
146.724
154.306
153.876
144.487
125.986
99.1302
65.575
27.7556
-11.3486
-48.5274
-80.6943
-105.233
-120.291
-124.981
-119.466
-104.916
-83.3498
-57.3786
-29.8927
-3.72967
18.6345
35.3339
45.2752
48.1982
44.6358
35.7835
23.3025
9.08422
-4.99174
-17.2762
-26.5213
-31.9869
-33.4754
-31.2972
-26.1774
-19.1207
-11.2559
-3.67958
2.68007
7.16503
9.44549
9.53098
7.7376
4.61986
0.878746
-2.73997
-5.54363
-6.97466
-6.66755
-4.476
-0.469044
5.10049
11.8489
19.3274
27.0903
34.7583
42.0661
48.8917
55.2638
61.3476
67.4135
73.7928
80.8282
88.825
98.0089
108.495
120.271
133.197
147.011
161.358
175.812
189.912
203.188
215.188
225.493
233.731
239.575
242.745
243.004
240.159
234.067
224.646
211.901
195.946
177.037
155.591
132.193
107.592
82.6627
58.36
35.644
15.401
-1.63728
-14.964
-24.3468
-29.8494
-31.8213
-30.8573
-27.73
-23.3046
-18.4473
-13.9365
-10.3891
-8.20961
-7.56636
-8.3964
-10.4373
-13.2794
-16.4319
-19.3927
-21.7136
-23.0547
-23.219
-22.1676
-20.0136
-16.9966
-13.4439
-9.72363
-6.19598
-3.16995
-0.869675
0.585769
1.18784
1.0299
0.286898
-0.813163
-2.02156
-3.10076
-3.85208
-4.13603
-3.88361
-3.0982
-1.84835
-0.253644
1.53444
3.35358
5.05119
6.50191
7.62048
8.36869
8.75619
8.83543
8.69174
8.42994
8.15931
7.97884
7.96448
8.16003
8.57253
9.17249
9.8988
10.6672
11.3811
11.9431
12.2664
12.2832
11.9518
11.2593
10.2212
8.87895
7.29304
5.53593
3.68304
1.80416
-0.044052
-1.82354
-3.51751
-5.13008
-6.68298
-8.2099
-9.74938
-11.3373
-12.9998
-14.7481
-16.5754
-18.4556
-20.3454
-22.1878
-23.9167
-25.4628
-26.7595
-27.748
-28.3817
-28.6295
-28.4788
-27.9358
-27.0263
-25.794
-24.2986
-22.6123
-20.8154
-18.991
-17.2193
-15.5717
-14.1055
-12.8592
-11.8502
-11.0733
-10.5021
-10.0919
-9.78495
-9.5165
-9.22185
-8.84338
-8.33659
-7.67484
-6.85194
-5.88244
-4.79947
-3.65047
-2.49124
-1.37911
-0.3661
0.507177
1.21608
1.75449
2.13509
2.38757
2.5549
2.68845
2.84238
3.06814
3.40964
3.89954
4.55692
5.3866
6.37988
7.51658
8.76804
10.1008
11.4805
12.8751
14.2582
15.6098
16.9171
18.1722
19.3695
20.5011
21.5522
22.4969
23.2956
23.8941
24.2254
24.2141
23.783
22.8607
21.3906
19.3379
16.697
13.4951
9.79481
5.69282
1.31658
-3.18152
-7.63142
-11.853
-15.6625
-18.8756
-21.3058
-22.7573
-23.0132
-21.8225
-18.8907
-13.8839
-6.45168
3.72311
16.8481
32.9257
51.6527
72.3376
93.8604
114.696
133.012
146.845
154.325
153.934
144.75
126.633
100.327
67.4476
30.3581
-8.06234
-44.7227
-76.6601
-101.369
-117.077
-122.93
-119.068
-106.58
-87.3487
-63.8112
-38.6645
-14.5567
6.19804
21.8481
31.3525
34.4361
31.5526
23.7658
12.571
-0.318199
-13.1891
-24.5283
-33.1778
-38.4347
-40.0862
-38.3839
-33.9636
-27.7271
-20.7019
-13.8987
-8.18313
-4.17478
-2.1848
-2.19444
-3.87509
-6.6441
-9.74794
-12.3612
-13.6891
-13.0611
-10.0045
-4.29182
4.04511
14.731
27.2917
41.1195
55.5504
69.9437
83.7533
96.5845
108.228
118.671
128.08
136.768
145.139
153.633
162.662
172.559
183.534
195.647
208.804
222.764
237.159
251.533
265.37
278.138
289.319
298.433
305.055
308.829
309.472
306.776
300.613
290.939
277.801
261.347
241.831
219.628
195.229
169.243
142.376
115.412
89.1726
64.4714
42.0644
22.5963
6.55309
-5.7758
-14.3202
-19.2336
-20.8782
-19.791
-16.6347
-12.1382
-7.03305
-1.99263
2.42036
5.79226
7.87983
8.61348
8.08295
6.5084
4.20103
1.51821
-1.18139
-3.57792
-5.42173
-6.55346
-6.91174
-6.52912
-5.51772
-4.04761
-2.3209
-0.545163
1.09088
2.43669
3.39265
3.91536
4.01574
3.75083
3.21119
2.50562
1.74566
1.03165
0.441929
0.0261696
-0.196839
-0.237172
-0.128338
0.0804937
0.333284
0.5757
0.762369
0.862027
0.86014
0.758926
0.575076
0.335677
0.0730726
-0.180588
-0.398378
-0.562565
-0.667141
-0.718693
-0.735691
-0.746425
-0.785988
-0.892732
-1.10461
-1.45572
-1.97334
-2.67553
-3.56935
-4.64986
-5.89968
-7.28936
-8.77839
-10.3169
-11.848
-13.3109
-14.6442
-15.7898
-16.6967
-17.3248
-17.6479
-17.6564
-17.3582
-16.7792
-15.9616
-14.9614
-13.8448
-12.6834
-11.5495
-10.5108
-9.62605
-8.94052
-8.483
-8.26356
-8.27285
-8.48273
-8.84866
-9.31338
-9.81199
-10.2775
-10.6469
-10.866
-10.894
-10.7059
-10.2937
-9.66591
-8.84587
-7.86877
-6.77842
-5.62336
-4.45298
-3.3138
-2.24617
-1.28176
-0.442024
0.262273
0.830359
1.26996
1.59524
1.8247
1.97932
2.08116
2.15267
2.21631
2.29451
2.40953
2.58321
2.83618
3.18689
3.6502
4.23598
4.94765
5.78111
6.72406
7.75599
8.84882
9.96853
11.0774
12.1371
13.1121
13.9733
14.7006
15.2855
15.7317
16.0541
16.2759
16.4253
16.5293
16.6089
16.6739
16.7187
16.7203
16.6382
16.4171
15.9908
15.2888
14.2433
12.7965
10.9078
8.55957
5.762
2.55521
-0.990189
-4.77499
-8.67518
-12.5469
-16.2317
-19.5593
-22.3476
-24.397
-25.4795
-25.3253
-23.611
-19.9579
-13.9481
-5.16702
6.72633
21.9042
40.2639
61.3299
84.19
107.486
129.478
148.184
161.585
167.869
165.69
154.385
134.127
105.981
71.8393
34.26
-3.79671
-39.2842
-69.4025
-91.9043
-105.333
-109.165
-103.836
-90.6599
-71.6418
-49.2248
-25.997
-4.39968
13.5282
26.3414
33.2959
34.367
30.1815
21.8802
10.9329
-1.06863
-12.6105
-22.428
-29.6282
-33.7548
-34.7909
-33.1079
-29.3694
-24.4091
-19.0994
-14.2289
-10.4031
-7.98009
-7.04398
-7.41791
-8.70975
-10.3823
-11.8365
-12.4962
-11.8832
-9.67449
-5.73442
-0.121091
6.93369
15.0658
23.8352
32.7889
41.523
49.7336
57.2538
64.0702
70.3194
76.2656
82.2627
88.706
95.9801
104.409
114.211
125.472
138.128
151.965
166.636
181.691
196.613
210.861
223.905
235.267
244.535
251.383
255.568
256.927
255.36
250.821
243.306
232.855
219.554
203.549
185.071
164.449
142.13
118.678
94.7642
71.1357
48.5711
27.8222
9.55212
-5.72309
-17.6814
-26.2234
-31.4783
-33.7865
-33.6598
-31.7257
-28.6613
-25.1259
-21.7001
-18.8378
-16.8362
-15.8259
-15.7817
-16.5486
-17.882
-19.4928
-21.0929
-22.4355
-23.344
-23.7292
-23.5917
-23.0116
-22.1278
-21.1112
-20.1356
-19.3504
-18.8594
-18.7076
-18.8772
-19.2931
-19.8355
-20.3582
-20.7099
-20.7541
-20.3868
-19.5491
-18.2327
-16.4801
-14.3774
-12.0429
-9.61272
-7.22487
-5.00484
-3.05345
-1.43882
-0.192882
0.687608
1.23596
1.50753
1.57
1.49345
1.34145
1.16426
0.994799
0.847687
0.721092
0.600937
0.466583
0.297023
0.0765838
-0.200722
-0.528809
-0.889362
-1.25378
-1.58678
-1.85101
-2.01175
-2.04117
-1.92137
-1.64604
-1.2206
-0.661071
0.00801896
0.756247
1.54996
2.35465
3.13684
3.86534
4.51191
5.05158
5.46264
5.72657
5.82814
5.75567
5.50162
5.06339
4.44431
3.65457
2.71191
1.642
0.478226
-0.739064
-1.96391
-3.14666
-4.23636
-5.1835
-5.94312
-6.47789
-6.76119
-6.77966
-6.53518
-6.04567
-5.3447
-4.47968
-3.50864
-2.49582
-1.50657
-0.601858
0.166861
0.761926
1.16253
1.36629
1.38936
1.26527
1.04282
0.783348
0.557522
0.441745
0.51401
0.849115
1.51322
2.55793
4.01436
5.88792
8.15446
10.7588
13.6158
16.615
19.6274
22.5153
25.1433
27.3893
29.1547
30.3729
31.0138
31.0852
30.6297
29.7181
28.4402
26.8934
25.1716
23.3549
21.5022
19.6472
17.7972
15.9363
14.0308
12.0352
9.9007
7.58182
5.04303
2.264
-0.756349
-3.99707
-7.41363
-10.9374
-14.476
-17.9137
-21.1112
-23.9029
-26.0921
-27.4422
-27.6668
-26.4232
-23.3136
-17.9036
-9.76332
1.46615
15.9827
33.7217
54.2606
76.7519
99.9071
122.048
141.233
155.449
162.85
162.008
152.142
133.285
106.354
73.1151
36.0343
-1.96698
-37.8227
-68.658
-92.1067
-106.568
-111.369
-106.817
-94.1348
-75.285
-52.724
-29.1034
-6.9664
11.5248
24.8008
32.0125
33.0654
28.5631
19.6731
7.93835
-4.93893
-17.3124
-27.7792
-35.3204
-39.3798
-39.8799
-37.1768
-31.9666
-25.1609
-17.7476
-10.6589
-4.65954
-0.268217
2.28129
3.03995
2.30782
0.571569
-1.57417
-3.5103
-4.6708
-4.60564
-3.02302
0.192018
4.98236
11.1441
18.3672
26.2854
34.5285
42.7704
50.7682
58.388
65.6149
72.5487
79.3849
86.3848
93.8386
102.025
111.172
121.426
132.822
145.273
158.57
172.382
186.287
199.789
212.352
223.436
232.524
239.148
242.915
243.523
240.768
234.554
224.901
211.942
195.93
177.238
156.36
133.9
110.558
87.1069
64.3516
43.0855
24.0355
7.80691
-5.16652
-14.6625
-20.692
-23.5003
-23.5447
-21.4513
-17.9545
-13.8258
-9.80079
-6.51117
-4.43142
-3.84407
-4.82773
-7.26787
-10.8879
-15.2957
-20.0389
-24.6627
-28.7618
-32.0225
-34.2499
-35.3786
-35.4675
-34.6801
-33.2552
-31.4709
-29.6082
-27.918
-26.5944
-25.7584
-25.4515
-25.6393
-26.2243
-27.0642
-27.9937
-28.8469
-29.4766
-29.7695
-29.6555
-29.1112
-28.1565
-26.8475
-25.2654
-23.504
-21.6572
-19.8082
-18.021
-16.3361
-14.7692
-13.314
-11.9477
-10.6382
-9.35234
-8.06346
-6.75723
-5.43535
-4.11632
-2.83336
-1.63001
-0.554093
0.349085
1.04321
1.50625
1.73375
1.73997
1.55647
1.22867
0.810827
0.360076
-0.0695409
-0.432361
-0.695008
-0.838469
-0.858139
-0.761914
-0.566708
-0.293941
0.035287
0.404647
0.806024
1.24148
1.72351
2.27347
2.91854
3.68746
4.60572
5.69086
6.94861
8.37033
9.93229
11.5967
13.3148
15.0309
16.6877
18.2313
19.6168
20.8111
21.7961
22.5682
23.1376
23.5244
23.7542
23.8525
23.8396
23.7257
23.5076
23.1677
22.6751
21.9888
21.0627
19.8518
18.3181
16.4363
14.1975
11.6117
8.70783
5.53252
2.14747
-1.37382
-4.9494
-8.49181
-11.9103
-15.1114
-17.998
-20.4652
-22.393
-23.6354
-24.0067
-23.2674
-21.1145
-17.1821
-11.0609
-2.34087
9.3191
24.0988
41.9139
62.321
84.4533
107.01
128.312
146.436
159.404
165.428
163.151
151.873
131.704
103.631
69.473
31.7278
-6.67283
-42.6715
-73.417
-96.5764
-110.586
-114.811
-109.593
-96.1841
-76.5779
-53.2578
-28.905
-6.09568
12.9707
26.6835
34.1502
35.2341
30.5012
21.0903
8.52808
-5.48511
-19.2891
-31.4521
-40.9119
-47.0577
-49.7468
-49.2618
-46.2186
-41.4423
-35.83
-30.2203
-25.2838
-21.4491
-18.8687
-17.4249
-16.7734
-16.4122
-15.7665
-14.2762
-11.4742
-7.04632
-0.865872
6.99927
16.306
26.6778
37.6609
48.7882
59.6398
69.8952
79.3677
88.0207
95.9627
103.425
110.723
118.211
126.237
135.094
144.985
156.004
168.118
181.174
194.911
208.979
222.963
236.412
248.859
259.842
268.922
275.688
279.771
280.845
278.641
272.954
263.663
250.748
234.314
214.606
192.029
167.147
140.671
113.433
86.3366
60.3011
36.192
14.7546
-3.44532
-18.0658
-29.0113
-36.4314
-40.6955
-42.3465
-42.0396
-40.473
-38.3196
-36.1665
-34.4684
-33.5202
-33.449
-34.226
-35.6941
-37.6067
-39.6733
-41.6035
-43.1462
-44.1198
-44.4286
-44.0675
-43.1134
-41.7073
-40.0295
-38.2716
-36.6103
-35.1852
-34.0832
-33.3314
-32.8978
-32.7
-32.6181
-32.512
-32.2386
-31.6682
-30.6978
-29.2605
-27.3305
-24.9239
-22.0954
-18.9324
-15.5466
-12.064
-8.6146
-5.32267
-2.2972
0.375384
2.63665
4.45909
5.84633
6.83063
7.46809
7.83181
8.00403
8.06776
8.09903
8.16037
8.29617
8.53031
8.86601
9.28782
9.7652
10.2573
10.7184
11.1027
11.3696
11.4867
11.433
11.1992
10.7882
10.2131
9.49543
8.66122
7.7382
6.75217
5.72424
4.66886
3.59307
2.49703
1.37581
0.222114
-0.970328
-2.20345
-3.47202
-4.76187
-6.04945
-7.30286
-8.48426
-9.55328
-10.4709
-11.2038
-11.7274
-12.0292
-12.1101
-11.9848
-11.6806
-11.235
-10.6923
-10.0991
-9.49954
-8.9314
-8.42181
-7.98504
-7.6215
-7.31842
-7.0522
-6.792
-6.50423
-6.15724
-5.72566
-5.19391
-4.55824
-3.8273
-3.02122
-2.16925
-1.3066
-0.470635
0.302787
0.982606
1.545
1.97479
2.26578
2.42008
2.44666
2.35944
2.17528
1.91203
1.58713
1.21664
0.814972
0.395068
-0.0310151
-0.451385
-0.853657
-1.2246
-1.5502
-1.81624
-2.00922
-2.11758
-2.13281
-2.05031
-1.8697
-1.59458
-1.2317
-0.789713
-0.277855
0.295325
0.922811
1.59946
2.32174
3.08702
3.89243
4.73368
5.60388
6.49271
7.38607
8.26631
9.11307
9.9048
10.6206
11.2427
11.7581
12.1611
12.4547
12.6508
12.77
12.8401
12.8924
12.9578
13.0613
13.2162
13.4197
13.6486
13.8586
13.9855
13.9502
13.6655
13.0455
12.0162
10.5259
8.55405
6.11824
3.27766
0.132693
-3.17922
-6.49099
-9.61485
-12.3511
-14.4939
-15.8319
-16.1433
-15.1845
-12.6787
-8.30785
-1.71924
7.4469
19.5024
34.63
52.785
73.597
96.2941
119.674
142.14
161.812
176.701
184.945
185.049
176.121
158.043
131.564
98.2811
60.5128
21.08
-16.988
-50.7764
-77.7987
-96.2605
-105.239
-104.758
-95.7521
-79.9259
-59.5329
-37.1004
-15.1402
4.12286
18.9701
28.3353
31.8646
29.8893
23.3219
13.4937
1.95782
-9.71477
-20.122
-28.1785
-33.211
-34.9936
-33.7252
-29.9576
-24.4864
-18.2236
-12.067
-6.7857
-2.93106
-0.784553
-0.343899
-1.34637
-3.32285
-5.67312
-7.75107
-8.94817
-8.76497
-6.86243
-3.08865
2.52031
9.76307
18.314
27.7755
37.7347
47.8155
57.7219
67.2668
76.3844
85.1266
93.6448
102.16
110.93
120.204
130.196
141.048
152.812
165.434
178.757
192.524
206.394
219.962
232.779
244.378
254.294
262.083
267.344
269.729
268.962
264.846
257.277
246.256
231.898
214.436
194.236
171.788
147.706
122.707
97.5877
73.1826
50.317
29.7524
12.1306
-2.07666
-12.6069
-19.4295
-22.7482
-22.9814
-20.7225
-16.6837
-11.6292
-6.30521
-1.37505
2.63478
5.37119
6.67076
6.55512
5.20702
2.93116
0.10526
-2.87223
-5.63171
-7.87359
-9.39714
-10.1146
-10.05
-9.32532
-8.1346
-6.71294
-5.30254
-4.12131
-3.33723
-3.0512
-3.28969
-4.00712
-5.09683
-6.40846
-7.76916
-9.00571
-9.96479
-10.5294
-10.6299
-10.248
-9.41619
-8.20971
-6.73598
-5.12052
-3.49251
-1.97111
-0.654211
0.389445
1.1241
1.54686
1.68393
1.58412
1.31065
0.932408
0.515861
0.118347
-0.216491
-0.460992
-0.603541
-0.646791
-0.604609
-0.498334
-0.352938
-0.193516
-0.0424375
0.0827005
0.170251
0.214892
0.217284
0.183159
0.121984
0.0453793
-0.0345378
-0.106691
-0.16231
-0.19578
-0.205005
-0.191258
-0.15857
-0.112777
-0.0603891
-0.00748428
0.0411538
0.0825167
0.115397
0.140004
0.157314
0.168353
0.173604
0.172705
0.164485
0.147323
0.119726
0.0809611
0.0316001
-0.0261741
-0.0885688
-0.150507
-0.206227
-0.250042
-0.277141
-0.284278
-0.270237
-0.236023
-0.184745
-0.121248
-0.0515497
0.0178274
0.0805513
0.131127
0.165433
0.181095
0.177669
0.156622
0.121129
0.0757306
0.0259751
-0.0218315
-0.0605925
-0.0819868
-0.0756143
-0.0278529
0.0792717
0.268787
0.568603
1.01013
1.62557
2.44409
3.48724
4.76444
6.26929
7.9773
9.84576
11.8158
13.8167
15.7715
17.6036
19.2436
20.6349
21.7372
22.5288
23.0059
23.1795
23.0712
22.7078
22.1163
21.3188
20.3299
19.1552
17.7918
16.2313
14.4623
12.4752
10.2654
7.83756
5.2071
2.40231
-0.535586
-3.55287
-6.58464
-9.55645
-12.3857
-14.982
-17.2453
-19.0606
-20.2887
-20.7525
-20.2216
-18.399
-14.9162
-9.34542
-1.23681
9.81628
24.0845
41.5932
62.0149
84.5876
108.084
130.849
150.921
166.219
174.789
175.068
166.129
147.867
121.087
87.4905
49.5306
10.1757
-27.4063
-60.1946
-85.6497
-101.99
-108.377
-104.984
-92.9482
-74.2059
-51.2449
-26.8023
-3.55005
16.1947
30.6984
38.9575
40.7482
36.5819
27.5781
15.2769
1.41852
-12.2799
-24.3231
-33.5907
-39.4276
-41.6692
-40.6025
-36.8753
-31.3698
-25.0597
-18.8712
-13.5647
-9.65036
-7.34496
-6.57098
-6.99444
-8.09218
-9.23737
-9.79027
-9.18227
-6.98297
-2.94369
2.986
10.668
19.8082
30.005
40.8069
51.7714
62.5175
72.7659
82.364
91.2931
99.6587
107.667
115.59
123.725
132.358
141.722
151.97
163.156
175.224
188.008
201.241
214.571
227.58
239.81
250.78
260.012
267.051
271.477
272.927
271.103
265.792
256.879
244.36
228.363
209.159
187.171
162.975
137.288
110.948
84.8649
59.9746
37.1719
17.2436
0.804805
-11.7541
-20.3015
-24.976
-26.1715
-24.498
-20.7206
-15.6855
-10.2384
-5.14816
-1.04037
1.64937
2.69964
2.10294
0.0425717
-3.14904
-7.04449
-11.1806
-15.1158
-18.4783
-21.0016
-22.5431
-23.086
-22.7265
-21.6479
-20.0886
-18.3059
-16.5427
-15
-13.8172
-13.063
-12.7358
-12.7732
-13.0676
-13.4857
-13.8894
-14.155
-14.188
-13.9332
-13.3781
-12.5508
-11.5123
-10.3451
-9.14066
-7.98563
-6.95097
-6.08367
-5.4027
-4.89914
-4.5402
-4.27629
-4.0497
-3.80384
-3.49135
-3.08044
-2.55839
-1.93219
-1.22646
-0.479075
0.264639
0.958252
1.56026
2.03898
2.37587
2.56678
2.62136
2.56072
2.41378
2.213
1.99001
1.77186
1.57819
1.41977
1.29845
1.20832
1.13786
1.07264
0.997997
0.901436
0.77428
0.612515
0.416783
0.191664
-0.0555141
-0.31607
-0.58129
-0.843438
-1.09634
-1.33547
-1.55763
-1.7603
-1.94086
-2.09591
-2.22078
-2.30947
-2.35496
-2.34998
-2.28794
-2.16408
-1.97648
-1.72691
-1.42136
-1.07028
-0.688337
-0.293865
0.0921533
0.44746
0.750208
0.980836
1.12395
1.17003
1.11668
0.969315
0.741172
0.45257
0.129623
-0.197416
-0.49588
-0.732167
-0.872747
-0.884584
-0.735087
-0.391891
0.177083
1.00281
2.11321
3.53002
5.26457
7.31321
9.65306
12.2391
15.0032
17.8563
20.693
23.399
25.8603
27.9733
29.6535
30.8436
31.5171
31.6795
31.3649
30.6297
29.5438
28.1799
26.6037
24.8643
22.988
20.9753
18.802
16.4252
13.7918
10.8507
7.56553
3.92555
-0.0447741
-4.28141
-8.68085
-13.1053
-17.392
-21.3641
-24.8425
-27.654
-29.6334
-30.6192
-30.4407
-28.9003
-25.755
-20.7056
-13.4039
-3.48325
9.37884
25.3724
44.4489
66.2177
89.8686
114.144
137.381
157.627
172.834
181.09
180.883
171.334
152.377
124.846
90.4538
51.6536
11.4032
-27.1425
-60.9713
-87.5407
-105.051
-112.627
-110.391
-99.4169
-81.5733
-59.2853
-35.2399
-12.0788
7.88552
22.8979
31.9077
34.6236
31.4771
23.5048
12.1703
-0.846484
-13.8663
-25.4058
-34.3299
-39.9468
-42.039
-40.8339
-36.9227
-31.1428
-24.4435
-17.7505
-11.85
-7.3014
-4.38907
-3.11375
-3.22123
-4.26052
-5.66097
-6.8167
-7.1666
-6.26025
-3.80276
0.325185
6.07177
13.2401
21.5301
30.5885
40.0606
49.6356
59.0816
68.2658
77.1602
85.8329
94.4278
103.137
112.171
121.726
131.955
142.952
154.729
167.217
180.256
193.608
206.963
219.953
232.167
243.167
252.508
259.751
264.481
266.325
264.968
260.172
251.799
239.822
224.351
205.645
184.12
160.351
135.054
109.064
83.2902
58.6554
36.0358
16.1909
-0.298358
-13.078
-22.0499
-27.3751
-29.4519
-28.8696
-26.3438
-22.6402
-18.4978
-14.5577
-11.3085
-9.0521
-7.89391
-7.75601
-8.41131
-9.53217
-10.7468
-11.696
-12.0822
-11.7073
-10.4929
-8.48422
-5.83698
-2.79126
0.363786
3.32876
5.83143
7.65804
8.6751
8.83982
8.19876
6.87594
5.05263
2.9422
0.763274
-1.28521
-3.04424
-4.40829
-5.33097
-5.82306
-5.94374
-5.78681
-5.46424
-5.08924
-4.76111
-4.5536
-4.5079
-4.63056
-4.89634
-5.25485
-5.64001
-5.98068
-6.21105
-6.27952
-6.15486
-5.82927
-5.31808
-4.65645
-3.89382
-3.087
-2.29308
-1.56303
-0.936758
-0.440245
-0.0847115
0.132238
0.223963
0.211202
0.118173
-0.0310425
-0.215376
-0.418587
-0.629897
-0.843501
-1.05717
-1.27027
-1.48171
-1.68808
-1.88255
-2.05457
-2.19064
-2.27589
-2.29619
-2.24058
-2.10333
-1.88547
-1.59537
-1.24823
-0.864738
-0.468829
-0.085136
0.263621
0.55887
0.787781
0.944027
1.0277
1.04442
1.00389
0.918128
0.799577
0.659588
0.507306
0.349223
0.18936
0.0300027
-0.127247
-0.280329
-0.425738
-0.557847
-0.668627
-0.747738
-0.782903
-0.760445
-0.665866
-0.484358
-0.201244
0.197649
0.725562
1.39425
2.21316
3.18843
4.32157
5.60818
7.03681
8.58818
10.2351
11.9432
13.6725
15.3801
17.0228
18.5609
19.9612
21.1998
22.2635
23.1505
23.8694
24.4372
24.8755
25.2075
25.4526
25.6231
25.7205
25.7329
25.6344
25.3851
24.9342
24.2225
23.1878
21.7695
19.9149
17.5837
14.7543
11.4278
7.63167
3.42233
-1.11466
-5.8658
-10.6933
-15.4405
-19.9386
-24.0135
-27.4915
-30.2016
-31.9728
-32.6257
-31.9596
-29.7378
-25.6766
-19.4486
-10.7057
0.869894
15.4876
33.1498
53.5494
75.9858
99.3239
122.016
142.202
157.878
167.126
168.371
160.624
143.675
118.207
85.7857
48.753
9.99619
-27.3524
-60.2592
-86.1283
-103.091
-110.204
-107.543
-96.1634
-77.9508
-55.3801
-31.2115
-8.16848
11.3632
25.5799
33.4207
34.6308
29.7253
19.8656
6.66963
-8.01669
-22.3551
-34.729
-43.9121
-49.1739
-50.3162
-47.6414
-41.8634
-33.9768
-25.1052
-16.3487
-8.64922
-2.68899
1.16904
2.89594
2.76918
1.31026
-0.80131
-2.82497
-4.05412
-3.89779
-1.94031
2.02608
7.99707
15.7782
25.0271
35.31
46.1623
57.1473
67.9059
78.1913
87.8881
97.0132
105.702
114.179
122.727
131.641
141.195
151.603
162.989
175.374
188.66
202.632
216.966
231.247
244.986
257.649
268.679
277.527
283.676
286.666
286.117
281.747
273.398
261.042
244.807
224.981
202.02
176.542
149.318
121.233
93.2495
66.3441
41.4445
19.36
0.718567
-14.0821
-24.9038
-31.8729
-35.3595
-35.9331
-34.2996
-31.227
-27.4683
-23.6907
-20.4185
-17.9968
-16.5775
-16.1292
-16.4671
-17.2988
-18.2786
-19.063
-19.3596
-18.9659
-17.7906
-15.8603
-13.3079
-10.3492
-7.25008
-4.28919
-1.72278
0.245517
1.48565
1.9513
1.67905
0.777518
-0.590838
-2.23251
-3.94687
-5.54821
-6.88351
-7.8443
-8.37191
-8.45637
-8.13
-7.4571
-6.52171
-5.41521
-4.2253
-3.02766
-1.88091
-0.824926
0.117874
0.938934
1.6388
2.22212
2.6934
3.05415
3.30176
3.43014
3.43179
3.30063
3.03518
2.6411
2.13287
1.53408
0.876323
0.196873
-0.464645
-1.07003
-1.58624
-1.9886
-2.26287
-2.4062
-2.42652
-2.34076
-2.17219
-1.94715
-1.69191
-1.42989
-1.17974
-0.954283
-0.760576
-0.600716
-0.473308
-0.375192
-0.303064
-0.25469
-0.229454
-0.22819
-0.252378
-0.302936
-0.378937
-0.476581
-0.588695
-0.70493
-0.812644
-0.898374
-0.949619
-0.95666
-0.914082
-0.82175
-0.685072
-0.514469
-0.324104
-0.129997
0.0522911
0.210175
0.336469
0.431429
0.504094
0.57264
0.663572
0.809687
1.04697
1.41078
1.9317
2.63188
3.52204
4.5999
5.84995
7.24465
8.74686
10.313
11.8964
13.4511
14.9343
16.3092
17.5463
18.6246
19.5317
20.2634
20.8232
21.221
21.4712
21.5913
21.5993
21.5131
21.3481
21.1177
20.8327
20.5026
20.136
19.7422
19.331
18.9128
18.4973
18.0918
17.699
17.3146
16.9252
16.5072
16.0261
15.4377
14.69
13.727
12.4928
10.9377
9.02435
6.7333
4.0689
1.0631
-2.22219
-5.69519
-9.23639
-12.7028
-15.933
-18.7522
-20.9747
-22.4025
-22.8194
-21.9806
-19.6023
-15.3565
-8.88029
0.192775
12.174
27.2338
45.2996
65.954
88.3587
111.229
132.876
151.334
164.552
170.645
168.156
156.296
135.126
105.628
69.6738
29.8653
-10.7212
-48.8624
-81.5408
-106.278
-121.403
-126.224
-121.081
-107.271
-86.8721
-62.4783
-36.8869
-12.7821
7.55019
22.4426
30.9774
33.0213
29.1648
20.5823
8.83576
-4.34803
-17.2986
-28.5925
-37.1945
-42.5343
-44.5182
-43.4788
-40.0758
-35.167
-29.6672
-24.417
-20.0752
-17.0481
-15.4604
-15.1674
-15.8017
-16.8457
-17.7164
-17.8505
-16.7779
-14.175
-9.89281
-3.9576
3.45179
12.0461
21.4787
31.4008
41.5122
51.5992
61.5561
71.3901
81.2075
91.1875
101.547
112.502
124.231
136.849
150.382
164.766
179.844
195.379
211.068
226.564
241.494
255.475
268.13
279.093
288.018
294.577
298.465
299.403
297.144
291.484
282.28
269.464
253.065
233.226
210.213
184.422
156.367
126.663
96.0022
65.1108
34.712
5.48315
-21.9821
-47.2038
-69.836
-89.6748
-106.655
-120.835
-132.38
-141.53
-148.575
-153.829
-157.606
-160.199
-161.869
-162.838
-163.281
-163.332
-163.084
-162.596
-161.898
-161
-159.896
-158.567
-156.984
-155.109
-152.891
-150.259
-147.123
-143.367
-138.847
-133.397
-126.842
-119.008
-109.752
-98.9878
-86.7112
-73.0249
-58.1532
-42.4433
-26.3538
-10.4263
4.75446
18.6096
30.6191
40.3705
47.5994
52.215
54.308
54.1397
52.1136
48.7323
44.5465
40.1003
35.8809
32.2764
29.5484
27.8191
27.0748
27.1843
27.9281
29.0342
30.2165
31.2105
31.8019
31.8474
31.2833
30.125
28.4556
26.4089
24.1472
21.8378
19.6317
17.6459
15.9523
14.5727
13.4814
12.6135
11.8783
11.1744
10.4064
9.499
8.40757
7.1242
5.67812
4.13093
2.56759
1.08449
-0.223567
-1.27574
-2.0153
-2.4163
-2.48619
-2.26427
-1.81635
-1.22655
-0.587259
0.0114705
0.491752
0.795894
0.891663
0.774257
0.464846
0.00598773
-0.545384
-1.1264
-1.67693
-2.14734
-2.50425
-2.73367
-2.84108
-2.84878
-2.79085
-2.70682
-2.63486
-2.60548
-2.63674
-2.73131
-2.8758
-3.04238
-3.19237
-3.28129
-3.26482
-3.10488
-2.77504
-2.26465
-1.58108
-0.749958
0.186818
1.17467
2.15117
3.05116
3.81143
4.37418
4.68849
4.70983
4.39767
3.71203
2.61037
1.0461
-1.0296
-3.66226
-6.88457
-10.7043
-15.0917
-19.9684
-25.2013
-30.6031
-35.9407
-40.9513
-45.3659
-48.936
-51.4613
-52.8145
-52.9588
-51.9562
-49.9646
-47.2237
-44.0314
-40.7141
-37.5934
-34.9545
-33.0191
-31.9245
-31.7111
-32.3157
-33.5709
-35.2072
-36.8576
-38.0649
-38.2938
-36.9533
-33.4339
-27.1645
-17.6899
-4.7639
11.553
30.8091
52.111
74.1266
95.1558
113.27
126.511
133.129
131.819
121.934
103.623
77.8802
46.4924
11.8771
-23.1609
-55.729
-83.1633
-103.32
-114.803
-117.107
-110.644
-96.6737
-77.1276
-54.3705
-30.9191
-9.16054
8.89847
21.8222
28.8576
29.9589
25.7295
17.2923
6.11303
-6.20194
-18.1041
-28.2754
-35.7568
-40.0198
-40.9798
-38.9539
-34.5739
-28.6712
-22.1484
-15.8574
-10.4964
-6.53755
-4.19114
-3.40585
-3.90186
-5.22844
-6.83613
-8.15287
-8.65419
-7.91969
-5.67035
-1.78475
3.70548
10.6379
18.7542
27.7426
37.2813
47.0778
56.8998
66.5961
76.1043
85.4485
94.7266
104.09
113.72
123.8
134.49
145.903
158.081
170.989
184.497
198.387
212.357
226.031
238.983
250.754
260.878
268.905
274.426
277.087
276.612
272.811
265.59
254.96
241.036
224.043
204.307
182.257
158.41
133.36
107.752
82.2617
57.5597
34.2796
12.9826
-5.87344
-21.9606
-35.0982
-45.2591
-52.5657
-57.2735
-59.7452
-60.4174
-59.7629
-58.2526
-56.3201
-54.3333
-52.5737
-51.2265
-50.3808
-50.0388
-50.1332
-50.549
-51.1472
-51.7885
-52.3515
-52.7475
-52.9274
-52.882
-52.6368
-52.2415
-51.7572
-51.2422
-50.7402
-50.2704
-49.8224
-49.3562
-48.8063
-48.0902
-47.1195
-45.8117
-44.1016
-41.9503
-39.3509
-36.3307
-32.9489
-29.2917
-25.4647
-21.5843
-17.7682
-14.1272
-10.7585
-7.74037
-5.12864
-2.95572
-1.23046
0.0604789
0.950602
1.49104
1.74763
1.79768
1.726
1.62042
1.56629
1.64047
1.905
2.40111
3.14435
4.12149
5.28994
6.57991
7.89946
9.14202
10.1957
10.9538
11.3247
11.2413
10.6678
9.60382
8.08558
6.18302
3.99432
1.63764
-0.758837
-3.06746
-5.17125
-6.97258
-8.39964
-9.41009
-9.99197
-10.1618
-9.9603
-9.44674
-8.69192
-7.77131
-6.7585
-5.71996
-4.71123
-3.77491
-2.94038
-2.2248
-1.63521
-1.17093
-0.825901
-0.590612
-0.453277
-0.400395
-0.416755
-0.485193
-0.58638
-0.698908
-0.799837
-0.865749
-0.874211
-0.805471
-0.644136
-0.380574
-0.0118398
0.457992
1.01813
1.65197
2.33838
3.05342
3.77211
4.47037
5.12683
5.72467
6.25325
6.70966
7.09988
7.43945
7.75342
8.07518
8.4442
8.90249
9.49012
10.2402
11.174
12.2966
13.5947
15.0355
16.5685
18.1297
19.6467
21.046
22.2596
23.2317
23.9233
24.3146
24.4049
24.2097
23.7559
23.0752
22.1972
21.1434
19.9229
18.5307
16.9482
15.1474
13.0962
10.7655
8.13633
5.20585
1.99225
-1.46303
-5.0953
-8.81898
-12.5316
-16.1186
-19.4575
-22.4196
-24.8678
-26.6488
-27.5793
-27.4301
-25.9104
-22.6638
-17.2813
-9.34259
1.51445
15.4977
32.5528
52.2636
73.7844
95.8295
116.733
134.584
147.428
153.509
151.518
140.809
121.55
94.7746
62.3243
26.6853
-9.26622
-42.5742
-70.5293
-90.9688
-102.509
-104.686
-97.9781
-83.7262
-63.9483
-41.087
-17.7187
3.73653
21.2696
33.4724
39.6452
39.813
34.6564
25.3721
13.4842
0.634151
-11.6238
-21.9977
-29.5839
-33.934
-35.0586
-33.3739
-29.6019
-24.6417
-19.4298
-14.8084
-11.4166
-9.6183
-9.4711
-10.7381
-12.9378
-15.4226
-17.4741
-18.4014
-17.6307
-14.773
-9.66517
-2.37873
6.80225
17.429
28.9543
40.8072
52.4658
63.5193
73.7111
82.9597
91.3553
99.135
106.642
114.271
122.417
131.421
141.527
152.855
165.386
178.964
193.308
208.039
222.708
236.824
249.893
261.434
271.001
278.198
282.685
284.18
282.47
277.408
268.925
257.039
241.865
223.63
202.681
179.493
154.663
128.901
102.999
77.7968
54.1273
32.7614
14.3489
-0.635475
-11.9331
-19.5253
-23.6347
-24.7038
-23.3518
-20.3145
-16.3737
-12.2833
-8.70241
-6.13982
-4.91815
-5.15921
-6.7916
-9.57842
-13.1605
-17.109
-20.9817
-24.3745
-26.9648
-28.5405
-29.0143
-28.4219
-26.9061
-24.6904
-22.0454
-19.2538
-16.5769
-14.2279
-12.3528
-11.0225
-10.2335
-9.91785
-9.96015
-10.2173
-10.5396
-10.7906
-10.8616
-10.6823
-10.2243
-9.4993
-8.55276
-7.45385
-6.28399
-5.12526
-4.05038
-3.11509
-2.35365
-1.7777
-1.37792
-1.12819
-0.991244
-0.924929
-0.888295
-0.846696
-0.775404
-0.661456
-0.503709
-0.311299
-0.100891
0.106771
0.290495
0.431935
0.518137
0.543088
0.508144
0.421416
0.296301
0.149455
-0.00146917
-0.139994
-0.252633
-0.330159
-0.368232
-0.367374
-0.332372
-0.271247
-0.193958
-0.111028
-0.0322633
0.0342882
0.0830536
0.111271
0.118954
0.108534
0.0842569
0.0514412
0.0156961
-0.0177963
-0.0448584
-0.0627012
-0.070091
-0.0673045
-0.0559031
-0.0383752
-0.0177071
0.00305774
0.0212132
0.0346969
0.0422807
0.0436414
0.0393305
0.0306938
0.0198078
0.00951237
0.00358825
0.00708084
0.0266971
0.0711377
0.151188
0.279395
0.469232
0.733727
1.0837
1.52584
2.06094
2.68262
3.37691
4.12272
4.89337
5.65895
6.38928
7.057
7.64053
8.12631
8.5103
8.79844
9.00615
9.15694
9.28033
9.40926
9.57725
9.81547
10.1499
10.5989
11.1712
11.8649
12.6671
13.5542
14.4945
15.4492
16.3763
17.2325
17.9763
18.5691
18.9769
19.1705
19.1251
18.8208
18.2415
17.3756
16.2157
14.7595
13.01
10.9762
8.67221
6.11799
3.33828
0.362844
-2.7732
-6.02801
-9.35076
-12.6781
-15.9295
-19.0007
-21.7561
-24.0185
-25.5577
-26.0803
-25.2232
-22.557
-17.6066
-9.89336
0.996383
15.321
33.0804
53.9179
77.0485
101.236
124.835
145.905
162.396
172.372
174.262
167.092
150.658
125.623
93.5051
56.5649
17.5926
-20.3752
-54.3743
-81.8276
-100.816
-110.274
-110.077
-101.033
-84.7537
-63.4527
-39.677
-16.0186
5.16307
21.9756
33.1592
38.1698
37.1751
30.9702
20.8304
8.32089
-4.90786
-17.3162
-27.6389
-35.0001
-38.9711
-39.5684
-37.1992
-32.5644
-26.5372
-20.0328
-13.8866
-8.75617
-5.05491
-2.92463
-2.24543
-2.67835
-3.73203
-4.84222
-5.45238
-5.08472
-3.39333
-0.194232
4.52895
10.6416
17.8921
25.9575
34.492
43.1742
51.746
60.0394
67.9915
75.6442
83.1322
90.6615
98.4793
106.841
115.979
126.067
137.2
149.373
162.474
176.281
190.47
204.632
218.292
230.937
242.038
251.076
257.573
261.106
261.331
258
250.975
240.238
225.906
208.238
187.642
164.668
140.004
114.45
88.8792
64.1938
41.2614
20.8539
3.58601
-10.1355
-20.1456
-26.5326
-29.6259
-29.9594
-28.2154
-25.1547
-21.5413
-18.0703
-15.3065
-13.6412
-13.27
-14.1939
-16.2418
-19.1097
-22.4124
-25.7386
-28.7039
-30.9956
-32.4041
-32.8379
-32.3237
-30.991
-29.0458
-26.7377
-24.3245
-22.0397
-20.0667
-18.5212
-17.4448
-16.8082
-16.5231
-16.4602
-16.4709
-16.4088
-16.149
-15.6027
-14.7258
-13.5206
-12.0321
-10.3381
-8.53721
-6.73426
-5.02685
-3.49384
-2.18736
-1.12908
-0.310857
0.300796
0.757139
1.11796
1.44194
1.77787
2.158
2.594
3.07603
3.5748
4.04612
4.43725
4.69422
4.76918
4.62689
4.24963
3.64007
2.82171
1.83699
0.74321
-0.393027
-1.50241
-2.51957
-3.38907
-4.07
-4.53876
-4.78978
-4.83423
-4.69714
-4.4133
-4.02273
-3.56617
-3.08113
-2.59906
-2.14352
-1.7296
-1.36434
-1.04788
-0.775017
-0.537
-0.323243
-0.122824
0.0742805
0.276262
0.488813
0.714681
0.953427
1.20135
1.45161
1.69452
1.91806
2.10858
2.25168
2.33312
2.33991
2.26125
2.0896
1.82158
1.4588
1.00857
0.484341
-0.0942207
-0.70154
-1.30705
-1.87665
-2.37476
-2.76672
-3.02148
-3.11414
-3.02813
-2.75667
-2.30333
-1.68158
-0.913367
-0.0268121
0.946512
1.97455
3.02751
4.08016
5.11336
6.11492
7.07969
8.00904
8.90999
9.79392
10.6752
11.5693
12.4915
13.4545
14.4666
15.53
16.6386
17.777
18.9197
20.031
21.0663
21.9737
22.6969
23.1783
23.3637
23.2055
22.6666
21.7238
20.3696
18.6131
16.4793
14.0072
11.2466
8.25412
5.09022
1.81544
-1.51124
-4.83307
-8.0946
-11.2395
-14.2071
-16.9278
-19.3165
-21.2643
-22.6271
-23.212
-22.7633
-20.9529
-17.3805
-11.5928
-3.12753
8.41404
23.2713
41.4154
62.4481
85.5311
109.369
132.263
152.242
167.254
175.414
175.253
165.949
147.489
120.742
87.4249
49.9562
11.2173
-25.7496
-58.069
-83.3424
-99.9012
-106.971
-104.728
-94.2439
-77.3312
-56.3063
-33.7112
-12.0224
6.6121
20.5818
28.9444
31.4699
28.5989
21.3268
11.0343
-0.711417
-12.358
-22.5474
-30.2546
-34.8714
-36.2318
-34.5812
-30.4981
-24.7842
-18.3373
-12.0266
-6.58403
-2.52386
-0.0975031
0.714123
0.173648
-1.2676
-3.04274
-4.54987
-5.22905
-4.62656
-2.43965
1.46193
7.03788
14.1
22.3511
31.4325
40.9754
50.647
60.1875
69.4343
78.3307
86.9204
95.3292
103.738
112.353
121.368
130.943
141.178
152.095
163.638
175.667
187.97
200.27
212.242
223.526
233.74
242.492
249.394
254.069
256.163
255.362
251.401
244.09
233.334
219.159
201.735
181.394
158.639
134.139
108.708
83.2609
58.7602
36.1437
16.2503
-0.251616
-12.9246
-21.6021
-26.4024
-27.7154
-26.16
-22.521
-17.6679
-12.4694
-7.71037
-4.02225
-1.83314
-1.34327
-2.52655
-5.15667
-8.85308
-13.1401
-17.5115
-21.4921
-24.6902
-26.8354
-27.798
-27.5903
-26.3516
-24.3191
-21.7903
-19.0823
-16.4924
-14.2654
-12.5698
-11.4858
-11.005
-11.0409
-11.4477
-12.0445
-12.6417
-13.0655
-13.1784
-12.8931
-12.1788
-11.0601
-9.60928
-7.93336
-6.1585
-4.41355
-2.815
-1.45477
-0.392028
0.350431
0.785477
0.956977
0.932144
0.791969
0.620916
0.497016
0.483373
0.6219
0.929832
1.39923
1.99938
2.68169
3.38624
4.0493
4.61064
5.01996
5.2417
5.2578
5.06847
4.69102
4.15712
3.50901
2.79522
2.06601
1.36918
0.746307
0.229797
-0.159248
-0.412096
-0.532402
-0.535166
-0.444752
-0.292163
-0.111877
0.0614575
0.196114
0.265892
0.252002
0.144121
-0.0594042
-0.352134
-0.720747
-1.14673
-1.60829
-2.08244
-2.54676
-2.98104
-3.36831
-3.69543
-3.95311
-4.13551
-4.23959
-4.26435
-4.21019
-4.07865
-3.87234
-3.59539
-3.25398
-2.85697
-2.4164
-1.94754
-1.46849
-0.999308
-0.560616
-0.171891
0.150296
0.393913
0.552698
0.626826
0.622884
0.553177
0.434442
0.286192
0.128949
-0.017323
-0.134305
-0.205775
-0.217391
-0.155958
-0.00846798
0.238734
0.600315
1.09163
1.72764
2.52117
3.4808
4.60861
5.8984
7.33436
8.89072
10.5323
12.2164
13.8949
15.5178
17.0368
18.4078
19.5935
20.5636
21.293
21.7592
21.9381
21.8006
21.3111
20.4281
19.1091
17.318
15.0339
12.2616
9.03848
5.44
1.57935
-2.3971
-6.31897
-10.0038
-13.2699
-15.9467
-17.88
-18.9305
-18.9621
-17.8238
-15.3271
-11.2267
-5.21303
3.07213
13.9917
27.837
44.7263
64.493
86.5858
110.007
133.312
154.684
172.09
183.497
187.128
181.721
166.747
142.554
110.402
72.3937
31.2854
-9.7895
-47.6508
-79.4161
-102.813
-116.417
-119.795
-113.518
-99.0678
-78.6381
-54.8577
-30.481
-8.07862
10.2325
22.9887
29.4898
29.8122
24.73
15.5601
3.95668
-8.3177
-19.6132
-28.5804
-34.3052
-36.3768
-34.8889
-30.3773
-23.7088
-15.9384
-8.15572
-1.34036
3.75695
6.69464
7.37557
6.0364
3.19601
-0.427559
-4.01922
-6.77386
-7.99475
-7.17175
-4.03096
1.44832
9.04917
18.361
28.844
39.9057
50.9771
61.5818
71.3867
80.2317
88.1352
95.2764
101.959
108.563
115.488
123.102
131.695
141.447
152.406
164.489
177.482
191.069
204.846
218.357
231.114
242.627
252.417
260.034
265.068
267.159
266.007
261.382
253.142
241.25
225.795
207.014
185.302
161.225
135.505
108.999
82.6544
57.4471
34.3124
14.0691
-2.64973
-15.4529
-24.2245
-29.1311
-30.5997
-29.2702
-25.9264
-21.4149
-16.5605
-12.0887
-8.56335
-6.34614
-5.58111
-6.20437
-7.9763
-10.5307
-13.434
-16.2463
-18.5777
-20.1329
-20.7394
-20.3587
-19.0795
-17.0953
-14.6719
-12.1075
-9.69361
-7.67948
-6.24528
-5.48615
-5.4081
-5.93511
-6.92542
-8.19405
-9.5382
-10.7621
-11.6982
-12.2235
-12.2679
-11.8164
-10.9045
-9.60822
-8.03067
-6.28753
-4.49261
-2.74572
-1.12389
0.323344
1.57443
2.63258
3.51963
4.26811
4.91297
5.48412
6.00077
6.46834
6.87818
7.20981
7.43516
7.52409
7.45007
7.19524
6.75407
6.13522
5.36145
4.46778
3.49836
2.50255
1.53074
0.630544
-0.156454
-0.797143
-1.26844
-1.55807
-1.66463
-1.59718
-1.3742
-1.0224
-0.575012
-0.0699528
0.452287
0.950821
1.38655
1.7242
1.93411
1.99365
1.88828
1.6122
1.16864
0.569813
-0.163356
-1.00192
-1.90989
-2.84567
-3.76403
-4.61851
-5.36433
-5.96146
-6.3778
-6.59189
-6.59498
-6.39218
-6.00231
-5.45657
-4.79587
-4.06723
-3.31941
-2.59832
-1.94263
-1.38005
-0.924732
-0.576205
-0.319758
-0.128459
0.0335822
0.207067
0.433025
0.74854
1.18317
1.75645
2.47653
3.3401
4.33316
5.43252
6.60758
7.82224
9.03671
10.2093
11.2979
12.2624
13.0659
13.6778
14.0753
14.2456
14.1877
13.9125
13.4426
12.81
12.0535
11.2146
10.3324
9.43983
8.55879
7.6973
6.84737
5.98451
5.06891
4.04841
2.86318
1.45204
-0.240122
-2.25428
-4.60972
-7.29782
-10.2781
-13.4775
-16.7926
-20.0946
-23.2366
-26.0599
-28.3987
-30.0806
-30.9214
-30.7149
-29.2196
-26.1479
-21.1655
-13.9082
-4.02474
8.75344
24.5189
43.0859
63.8988
85.9753
107.908
127.939
144.108
154.462
157.308
151.462
136.456
112.683
81.4234
44.7764
5.46722
-33.4246
-68.7929
-97.8432
-118.397
-129.126
-129.677
-120.695
-103.712
-80.9559
-55.0714
-28.8178
-4.76453
14.972
28.9223
36.3705
37.3663
32.6484
23.4955
11.5278
-1.51261
-13.9744
-24.4787
-32.0499
-36.1861
-36.8649
-34.4918
-29.8013
-23.7289
-17.2715
-11.3543
-6.72147
-3.85915
-2.95961
-3.9254
-6.40962
-9.8835
-13.7199
-17.2803
-19.9943
-21.4208
-21.2865
-19.4976
-16.1274
-11.3833
-5.55959
1.0149
8.02823
15.2279
22.4501
29.6334
36.8157
44.1187
51.7206
59.8245
68.6252
78.2795
88.8821
100.449
112.911
126.111
139.817
153.726
167.491
180.732
193.056
204.075
213.419
220.746
225.754
228.184
227.828
224.539
218.234
208.912
196.667
181.698
164.325
144.992
124.263
102.8
81.3415
60.6509
41.4706
24.4651
10.1679
-1.06161
-9.06854
-13.9132
-15.8619
-15.358
-12.9768
-9.36775
-5.19289
-1.06623
2.49837
5.12589
6.60185
6.87565
6.04649
4.33456
2.04178
-0.492629
-2.93635
-5.00295
-6.48164
-7.25505
-7.30412
-6.70056
-5.58892
-4.1613
-2.62841
-1.19092
-0.0144889
0.788543
1.16915
1.1427
0.781573
0.201186
-0.458589
-1.05365
-1.45501
-1.56485
-1.32767
-0.735476
0.173043
1.31887
2.59336
3.87185
5.02836
5.94978
6.54797
6.76856
6.59566
6.05211
5.19558
4.11104
2.90063
1.67227
0.528242
-0.444917
-1.1842
-1.65484
-1.85159
-1.79675
-1.5353
-1.128
-0.643255
-0.148994
0.294707
0.641328
0.861446
0.943865
0.894399
0.732663
0.487439
0.191309
-0.124726
-0.435959
-0.727474
-0.996053
-1.25034
-1.50928
-1.79919
-2.14973
-2.58947
-3.14157
-3.82013
-4.6277
-5.55423
-6.57758
-7.6655
-8.77863
-9.87438
-10.9109
-11.8508
-12.6644
-13.3316
-13.8434
-14.2011
-14.4159
-14.5061
-14.4953
-14.4093
-14.2734
-14.1103
-13.9381
-13.7691
-13.6091
-13.4579
-13.3089
-13.1506
-12.9672
-12.7399
-12.4479
-12.0699
-11.585
-10.9746
-10.2233
-9.31995
-8.25928
-7.0422
-5.67636
-4.17596
-2.56115
-0.85682
0.908908
2.70645
4.50651
6.28159
8.00714
9.66215
11.2293
12.6944
14.0462
15.2751
16.3729
17.332
18.1454
18.8066
19.3101
19.6514
19.8279
19.8386
19.6841
19.3664
18.8878
18.2504
17.4551
16.5009
15.3838
14.0973
12.6317
10.9746
9.11215
7.03022
4.71661
2.16369
-0.628664
-3.65015
-6.87766
-10.2737
-13.7856
-17.3456
-20.8702
-24.2582
-27.3867
-30.1016
-32.2066
-33.4483
-33.5044
-31.9799
-28.4192
-22.3413
-13.3035
-0.98967
14.6826
33.4566
54.6528
77.1325
99.3281
119.349
135.162
144.82
146.721
139.852
123.97
99.7102
68.5806
32.8438
-4.69937
-41.0016
-73.099
-98.4342
-115.134
-122.202
-119.611
-108.276
-89.9186
-66.8507
-41.6921
-17.0716
4.65754
21.6521
32.7404
37.4943
36.2107
29.8107
19.6753
7.44164
-5.21131
-16.7623
-26.0088
-32.1734
-34.9486
-34.4791
-31.2908
-26.1794
-20.077
-13.9159
-8.5056
-4.43884
-2.03421
-1.31995
-2.0565
-3.79113
-5.93481
-7.84921
-8.93202
-8.68967
-6.7895
-3.08647
2.3766
9.39295
17.6346
26.7066
36.2049
45.7694
55.1259
64.1133
72.6922
80.9376
89.0177
97.162
105.626
114.653
124.446
135.135
146.767
159.291
172.561
186.341
200.317
214.114
227.313
239.469
250.131
258.858
265.238
268.902
269.537
266.903
260.846
251.308
238.344
222.131
202.975
181.319
157.734
132.911
107.631
82.7335
59.067
37.434
18.5341
2.90941
-9.09981
-17.3847
-22.0772
-23.537
-22.3178
-19.1144
-14.6972
-9.84035
-5.25253
-1.51641
0.955908
1.94759
1.44008
-0.40484
-3.28065
-6.78446
-10.4717
-13.9107
-16.7309
-18.6598
-19.5455
-19.3632
-18.2067
-16.2666
-13.7998
-11.0939
-8.43123
-6.05703
-4.15487
-2.83176
-2.1137
-1.95142
-2.23449
-2.81154
-3.51335
-4.17573
-4.65939
-4.86459
-4.73927
-4.28029
-3.52847
-2.55862
-1.46642
-0.354243
0.682238
1.565
2.2411
2.68607
2.90334
2.92026
2.78161
2.5417
2.25622
1.97481
1.73521
1.55962
1.45332
1.40579
1.39376
1.38584
1.34798
1.24893
1.0653
0.785226
0.410596
-0.0426058
-0.54576
-1.06067
-1.54381
-1.95126
-2.24364
-2.39061
-2.3742
-2.19093
-1.85234
-1.38414
-0.824099
-0.218955
0.379309
0.917621
1.34606
1.62195
1.71361
1.60333
1.28948
0.78736
0.128721
-0.640291
-1.46256
-2.27468
-3.01249
-3.61692
-4.03957
-4.24742
-4.22603
-3.98095
-3.53704
-2.93584
-2.23116
-1.4835
-0.753953
-0.0981151
0.439072
0.82719
1.05247
1.11805
1.04248
0.85669
0.60001
0.315601
0.0460174
-0.17067
-0.303747
-0.331495
-0.241523
-0.0299226
0.30045
0.742183
1.28557
1.92051
2.63785
3.42988
4.29019
5.21291
6.19173
7.21886
8.28435
9.37603
10.4799
11.5813
12.6663
13.7232
14.7436
15.7234
16.6621
17.5626
18.4291
19.2655
20.0737
20.8516
21.592
22.2815
22.9004
23.4224
23.8154
24.0422
24.0621
23.8328
23.3131
22.4653
21.2582
19.6694
17.6872
15.3116
12.5546
9.44014
6.0037
2.29189
-1.63741
-5.71483
-9.85904
-13.9764
-17.961
-21.694
-25.0438
-27.8635
-29.9869
-31.2214
-31.3388
-30.0653
-27.0762
-22.0008
-14.4448
-4.03577
9.50522
26.2714
46.0689
68.3263
92.0375
115.761
137.693
155.812
168.093
172.761
168.546
154.905
132.172
101.594
65.2651
25.934
-13.2742
-49.1946
-78.9716
-100.374
-112.036
-113.59
-105.68
-89.8603
-68.3795
-43.9053
-19.2059
3.15946
21.1074
33.2242
38.8679
38.1729
31.9634
21.5936
8.73931
-4.82899
-17.4636
-27.8211
-34.9892
-38.5487
-38.569
-35.5438
-30.2802
-23.7611
-16.9987
-10.8995
-6.15603
-3.1771
-2.06054
-2.60885
-4.38123
-6.77194
-9.10246
-10.7143
-11.0507
-9.71721
-6.5163
-1.45349
5.28277
13.3624
22.3688
31.8597
41.4256
50.7385
59.5865
67.89
75.7008
83.1841
90.5887
98.2083
106.341
115.25
125.13
136.081
148.099
161.064
174.754
188.853
202.973
216.675
229.495
240.962
250.618
258.035
262.826
264.656
263.257
258.433
250.082
238.202
222.917
204.482
183.299
159.919
135.029
109.43
83.9954
59.6208
37.1581
17.3512
0.775027
-12.2131
-21.502
-27.2327
-29.7788
-29.7042
-27.7024
-24.5259
-20.9114
-17.512
-14.8426
-13.2436
-12.8669
-13.6832
-15.5089
-18.0477
-20.9406
-23.8178
-26.3459
-28.2655
-29.4159
-29.744
-29.2989
-28.2148
-26.6835
-24.9242
-23.1514
-21.548
-20.2452
-19.3106
-18.7469
-18.4984
-18.4648
-18.5191
-18.5273
-18.3668
-17.942
-17.1944
-16.1078
-14.7072
-13.0528
-11.231
-9.34149
-7.48551
-5.75367
-4.21697
-2.9208
-1.88287
-1.09482
-0.527017
-0.135629
0.129332
0.316103
0.464538
0.601558
0.739115
0.87472
0.994219
1.0762
1.09726
1.03726
0.883854
0.635628
0.303486
-0.0898084
-0.511793
-0.923774
-1.28504
-1.55724
-1.70823
-1.71507
-1.56579
-1.25979
-0.807176
-0.227129
0.454295
1.20663
1.99745
2.79465
3.5684
4.29274
4.9467
5.51507
5.98865
6.36403
6.64291
6.83099
6.93651
6.96865
6.93583
6.84429
6.69703
6.49345
6.22951
5.89878
5.49387
5.00833
4.43869
3.78615
3.05794
2.2679
1.43624
0.588491
-0.246269
-1.0378
-1.75733
-2.38017
-2.8881
-3.27108
-3.52824
-3.66788
-3.70664
-3.66767
-3.57822
-3.46677
-3.36003
-3.28002
-3.24159
-3.25046
-3.30197
-3.38078
-3.46137
-3.50956
-3.48479
-3.34327
-3.04162
-2.54087
-1.81051
-0.832022
0.398138
1.86684
3.54389
5.38326
7.32584
9.30377
11.2456
13.0821
14.7519
16.2058
17.4099
18.3461
19.011
19.4122
19.5632
19.4783
19.1679
18.6345
17.8716
16.864
15.5911
14.0304
12.1631
9.97794
7.47601
4.67307
1.60124
-1.69078
-5.1386
-8.66384
-12.1766
-15.5785
-18.765
-21.6283
-24.0573
-25.9357
-27.136
-27.5089
-26.8705
-24.9878
-21.5698
-16.2695
-8.7058
1.49003
14.6011
30.7306
49.7001
70.9605
93.5391
116.044
136.741
153.698
164.998
168.978
164.475
151.023
128.993
99.6162
64.9081
27.487
-9.6945
-43.6654
-71.7607
-91.9125
-102.869
-104.313
-96.8738
-82.0199
-61.866
-38.9096
-15.7377
5.26066
22.1401
33.5776
38.9659
38.4165
32.6793
22.9944
10.9008
-1.97244
-14.1045
-24.2488
-31.5474
-35.5875
-36.3961
-34.3819
-30.2359
-24.8085
-18.9799
-13.5426
-9.10778
-6.04636
-4.46736
-4.23244
-5.00058
-6.29356
-7.57161
-8.30818
-8.05448
-6.48666
-3.43153
1.13
7.07977
14.1951
22.191
30.7663
39.6449
48.6099
57.5239
66.3369
75.0801
83.8502
92.7852
102.039
111.754
122.041
132.957
144.499
156.594
169.102
181.821
194.492
206.816
218.462
229.079
238.313
245.815
251.253
254.323
254.757
252.333
246.888
238.33
226.652
211.949
194.433
174.443
152.453
129.068
105.001
81.0413
58.0106
36.7017
17.8178
1.91253
-10.6596
-19.775
-25.5516
-28.3338
-28.655
-27.1812
-24.6412
-21.7538
-19.1586
-17.3593
-16.6852
-17.2745
-19.0802
-21.8953
-25.3952
-29.1881
-32.8688
-36.0681
-38.4924
-39.9501
-40.3624
-39.7597
-38.2653
-36.0701
-33.4024
-30.4983
-27.5742
-24.8062
-22.3181
-20.1763
-18.3931
-16.9365
-15.7423
-14.7294
-13.8135
-12.9189
-11.9874
-10.9827
-9.89211
-8.72401
-7.50393
-6.26856
-5.05944
-3.91676
-2.87401
-1.95399
-1.16649
-0.507785
0.0380888
0.496542
0.89854
1.27619
1.6584
2.06728
2.51557
3.00566
3.52992
4.07245
4.61167
5.12343
5.584
5.97274
6.27389
6.47766
6.58037
6.58409
6.49566
6.32564
6.08718
5.79511
5.46514
5.11322
4.75502
4.40539
4.07776
3.78356
3.53155
3.32728
3.17257
3.06533
2.99947
2.96515
2.94933
2.93644
2.90944
2.85081
2.74383
2.57374
2.32883
2.00145
1.5887
1.0927
0.520503
-0.116727
-0.804977
-1.52915
-2.27508
-3.0315
-3.79163
-4.55414
-5.3232
-6.10767
-6.9194
-7.7709
-8.67274
-9.63107
-10.6457
-11.7088
-12.8049
-13.9118
-15.0022
-16.0465
-17.0151
-17.8818
-18.6257
-19.2328
-19.6963
-20.0159
-20.1955
-20.2396
-20.1495
-19.9195
-19.5332
-18.9624
-18.1677
-17.1024
-15.7185
-13.9751
-11.8472
-9.33429
-6.46608
-3.30543
0.0535867
3.49179
6.87477
10.0652
12.9361
15.3826
17.3316
18.7471
19.6313
20.021
19.9801
19.5887
18.9311
18.0827
17.0996
16.0111
14.8162
13.4863
11.9721
10.2145
8.15867
5.76739
3.03387
-0.00963675
-3.28766
-6.68269
-10.0412
-13.1833
-15.9139
-18.0322
-19.3376
-19.6284
-18.6945
-16.3045
-12.1942
-6.06346
2.40983
13.5299
27.5158
44.4114
63.9853
85.6419
108.368
130.734
150.973
167.126
177.253
179.681
173.251
157.529
132.938
100.797
63.2342
23.0008
-16.8078
-53.0829
-83.0427
-104.538
-116.281
-117.972
-110.306
-94.8614
-73.8907
-50.0414
-26.0435
-4.40444
12.851
24.3682
29.5588
28.5997
22.3437
12.157
-0.288036
-13.2387
-25.0751
-34.4879
-40.6002
-43.0257
-41.8611
-37.6206
-31.1262
-23.3712
-15.3783
-8.06774
-2.15357
1.92431
4.02654
4.30072
3.13402
1.08138
-1.21907
-3.13167
-4.09921
-3.70105
-1.68802
2.00778
7.28679
13.9154
21.5725
29.9025
38.5668
47.2881
55.8816
64.2715
72.4905
80.6643
88.9851
97.6761
106.956
117.001
127.92
139.734
152.364
165.637
179.292
192.998
206.375
219.016
230.502
240.424
248.389
254.031
257.02
257.068
253.937
247.457
237.541
224.208
207.605
188.024
165.919
141.905
116.74
91.2953
66.5057
43.3022
22.5423
4.93718
-9.01151
-19.0571
-25.23
-27.8318
-27.402
-24.6604
-20.4314
-15.5608
-10.8326
-6.8966
-4.21555
-3.03486
-3.37931
-5.07431
-7.78817
-11.0888
-14.5071
-17.5991
-19.9988
-21.4576
-21.8641
-21.2465
-19.7562
-17.6376
-15.1893
-12.7212
-10.5143
-8.7873
-7.67486
-7.21724
-7.36345
-7.98534
-8.90013
-9.89769
-10.7689
-11.3314
-11.4498
-11.0483
-10.1155
-8.70055
-6.90329
-4.85891
-2.72046
-0.640941
1.24261
2.82156
4.02361
4.81571
5.20239
5.2202
4.9293
4.40371
3.72153
2.95628
2.17032
1.41089
0.708918
0.080183
-0.471541
-0.950326
-1.36366
-1.71852
-2.01859
-2.26288
-2.44578
-2.55856
-2.59162
-2.53725
-2.39226
-2.16
-1.85145
-1.48525
-1.08651
-0.684736
-0.311071
0.00478338
0.237516
0.368694
0.388508
0.296587
0.101832
-0.17864
-0.521294
-0.89843
-1.28065
-1.63928
-1.94849
-2.18707
-2.33971
-2.39772
-2.35934
-2.22948
-2.01913
-1.74428
-1.42462
-1.08195
-0.738472
-0.415109
-0.129911
0.103268
0.275754
0.384604
0.4327
0.428381
0.384657
0.318094
0.24748
0.192429
0.172047
0.203849
0.302993
0.481956
0.750617
1.11672
1.5866
2.16592
2.86036
3.67587
4.61848
5.69354
6.90444
8.2509
9.72715
11.3203
13.0091
14.7634
16.5449
18.308
20.0031
21.5791
22.9872
24.1847
25.138
25.8252
26.2368
26.3755
26.2542
25.8925
25.3135
24.5391
23.5869
22.4681
21.1865
19.7396
18.1204
16.3203
14.3323
12.1534
9.78578
7.23811
4.52452
1.66392
-1.32095
-4.40401
-7.55538
-10.7398
-13.9137
-17.0211
-19.9881
-22.7147
-25.065
-26.8548
-27.8375
-27.6921
-26.0178
-22.3433
-16.1573
-6.96681
5.617
21.7712
41.3481
63.7784
88.0157
112.545
135.466
154.662
168.02
173.698
170.385
157.52
135.429
105.36
69.3957
30.2657
-8.9413
-45.108
-75.4301
-97.7201
-110.635
-113.8
-107.815
-94.147
-74.9229
-52.6618
-29.9711
-9.25346
7.54301
19.1033
24.8368
24.8761
19.991
11.4345
0.74627
-10.4607
-20.7005
-28.7802
-33.9132
-35.7712
-34.4735
-30.5227
-24.6985
-17.9272
-11.1467
-5.18344
-0.655835
2.08597
2.98064
2.23755
0.286516
-2.29505
-4.86594
-6.80427
-7.57947
-6.80529
-4.26921
0.0630486
6.06562
13.4884
22.0042
31.2594
40.9217
50.7181
60.4607
70.0574
79.5087
88.8926
98.3413
108.014
118.069
128.637
139.802
151.587
163.945
176.76
189.845
202.953
215.787
228.009
239.248
249.118
257.224
263.173
266.593
267.137
264.51
258.484
248.92
235.795
219.222
199.475
176.996
152.398
126.448
100.036
74.1246
49.6817
27.6078
8.65957
-6.61845
-17.9452
-25.3311
-29.0764
-29.7401
-28.0817
-24.9811
-21.3485
-18.032
-15.7355
-14.9564
-15.9489
-18.7164
-23.0331
-28.4901
-34.5589
-40.6646
-46.258
-50.879
-54.2037
-56.0714
-56.4894
-55.6165
-53.73
-51.1815
-48.3474
-45.5811
-43.1737
-41.3247
-40.1287
-39.5749
-39.5602
-39.9121
-40.4166
-40.8494
-41.0037
-40.7138
-39.8704
-38.4286
-36.4072
-33.8803
-30.9647
-27.8028
-24.545
-21.3337
-18.2896
-15.5024
-13.0264
-10.8808
-9.05404
-7.51114
-6.20312
-5.0764
-4.08133
-3.17877
-2.34396
-1.56748
-0.85355
-0.216127
0.326382
0.756845
1.06467
1.24977
1.32472
1.31467
1.25519
1.18837
1.15762
1.20219
1.35202
1.62372
2.01825
2.52071
3.10203
3.72256
4.33691
4.89944
5.36962
5.71669
5.92299
5.98573
5.917
5.74238
5.49814
5.22768
4.97753
4.79343
4.71662
4.7808
5.00976
5.41572
5.99836
6.74459
7.62902
8.61509
9.65696
10.7021
11.6944
12.5782
13.3017
13.8214
14.1051
14.1343
13.9051
13.4278
12.7245
11.8255
10.7642
9.57199
8.27277
6.87877
5.38764
3.78183
2.03038
0.0932725
-2.07225
-4.50388
-7.22601
-10.2421
-13.5286
-17.0314
-20.6652
-24.3154
-27.8429
-31.0891
-33.8798
-36.0267
-37.3237
-37.5386
-36.4021
-33.5997
-28.7725
-21.537
-11.5289
1.52523
17.7155
36.8483
58.3582
81.2559
104.134
125.24
142.63
154.368
158.77
154.647
141.505
119.678
90.37
55.5736
17.9005
-19.6822
-54.1656
-82.8244
-103.513
-114.894
-116.571
-109.109
-93.9397
-73.1811
-49.3711
-25.1752
-3.09021
14.8142
27.0901
33.0217
32.6441
26.6752
16.3748
3.35339
-10.6431
-23.9449
-35.1421
-43.2203
-47.6373
-48.3362
-45.6993
-40.4534
-33.5425
-25.9858
-18.74
-12.5812
-8.01988
-5.2556
-4.17495
-4.38847
-5.30003
-6.19761
-6.35299
-5.11768
-2.00319
3.26324
10.7132
20.1437
31.1528
43.1997
55.6787
67.9984
79.6557
90.2949
99.7454
108.035
115.375
122.127
128.748
135.726
143.516
152.479
162.837
174.64
187.762
201.9
216.612
231.343
245.481
258.393
269.476
278.185
284.064
286.757
286.018
281.709
273.801
262.366
247.578
229.708
209.128
186.309
161.815
136.298
110.474
85.0945
60.9073
38.6115
18.8084
1.95837
-11.6552
-21.9458
-29.0276
-33.2
-34.915
-34.7311
-33.2588
-31.1031
-28.8111
-26.8281
-25.4685
-24.9022
-25.1587
-26.1446
-27.6741
-29.5054
-31.3799
-33.0584
-34.3501
-35.1325
-35.3593
-35.0584
-34.3194
-33.2752
-32.0789
-30.8808
-29.8079
-28.9485
-28.3426
-27.9803
-27.8064
-27.7303
-27.6402
-27.4189
-26.9595
-26.1781
-25.0241
-23.4841
-21.5822
-19.3742
-16.9393
-14.3682
-11.7517
-9.1697
-6.68325
-4.33018
-2.12459
-0.0601722
1.88354
3.73341
5.51464
7.24383
8.92423
10.5437
12.0754
13.4815
14.7184
15.7427
16.5176
17.0179
17.2333
17.1701
16.8499
16.3073
15.5855
14.7323
13.7951
12.8169
11.8337
10.8725
9.95062
9.07625
8.2494
7.46351
6.70717
5.96593
5.22409
4.46647
3.67994
2.85492
1.98644
1.07488
0.126052
-0.849197
-1.83607
-2.81732
-3.77503
-4.69252
-5.55608
-6.35639
-7.08956
-7.75765
-8.36862
-8.93588
-9.47721
-10.0132
-10.5654
-11.1536
-11.7933
-12.4925
-13.2495
-14.0502
-14.867
-15.659
-16.3734
-16.9489
-17.3206
-17.4265
-17.2136
-16.6452
-15.7064
-14.4079
-12.7877
-10.9097
-8.85991
-6.73972
-4.65751
-2.71924
-1.01901
0.369177
1.39769
2.04878
2.33502
2.29665
1.99627
1.51143
0.926181
0.322476
-0.227634
-0.668128
-0.962948
-1.09746
-1.07743
-0.925925
-0.678562
-0.377877
-0.0675211
0.213041
0.432753
0.571746
0.622536
0.589708
0.488382
0.341861
0.178918
0.0311318
-0.0694569
-0.0922184
-0.00936643
0.202939
0.563671
1.08608
1.77689
2.63564
3.65428
4.81731
6.10255
7.48258
8.92686
10.4043
11.8858
13.3467
14.7681
16.1375
17.4481
18.6965
19.8803
20.9947
22.0297
22.9677
23.7825
24.4395
24.8976
25.1118
25.0372
24.6328
23.8659
22.7146
21.1713
19.2428
16.951
14.3315
11.432
8.30943
5.02822
1.65771
-1.72958
-5.05941
-8.2567
-11.2458
-13.9498
-16.2872
-18.1666
-19.4765
-20.0705
-19.7496
-18.2452
-15.2086
-10.2169
-2.80337
7.48191
20.9814
37.8187
57.7848
80.2448
104.092
127.77
149.373
166.818
178.084
181.468
175.836
160.822
136.944
105.611
69.0228
29.9535
-8.52991
-43.4009
-72.0017
-92.3297
-103.243
-104.564
-97.0618
-82.3334
-62.5862
-40.3636
-18.2449
1.44019
16.8509
26.8004
30.8332
29.2102
22.8113
12.9737
1.29006
-10.6056
-21.2361
-29.4426
-34.4906
-36.115
-34.5021
-30.2182
-24.0981
-17.1106
-10.2214
-4.26866
0.131991
2.64657
3.24015
2.15552
-0.140735
-3.03471
-5.85256
-7.94688
-8.77151
-7.93672
-5.23989
-0.67027
5.61033
13.3064
22.0406
31.4112
41.0473
50.6549
60.0488
69.167
78.0665
86.9033
95.8989
105.3
115.336
126.181
137.92
150.533
163.885
177.737
191.757
205.55
218.685
230.729
241.273
249.951
256.46
260.556
262.057
260.835
256.801
249.908
240.139
227.522
212.142
194.164
173.857
151.617
127.977
103.602
79.2675
55.8169
34.0989
14.8989
-1.13456
-13.5549
-22.1656
-27.0443
-28.5375
-27.227
-23.8703
-19.3226
-14.4498
-10.0431
-6.74415
-4.99077
-4.98748
-6.70349
-9.89678
-14.16
-18.9811
-23.8114
-28.1312
-31.5074
-33.6352
-34.3617
-33.69
-31.7649
-28.8435
-25.2569
-21.3663
-17.5213
-14.0236
-11.1005
-8.88978
-7.43626
-6.69962
-6.57061
-6.89303
-7.48808
-8.17799
-8.8063
-9.25276
-9.4419
-9.34504
-8.97633
-8.38401
-7.63874
-6.82053
-6.0063
-5.25947
-4.62268
-4.11422
-3.72833
-3.43881
-3.20518
-2.98038
-2.71875
-2.38323
-1.9509
-1.41618
-0.791462
-0.105321
0.601419
1.28099
1.88468
2.36873
2.69939
2.85659
2.83587
2.64843
2.31937
1.88445
1.38589
0.867655
0.370964
-0.0695793
-0.428817
-0.692617
-0.858174
-0.933137
-0.933775
-0.882461
-0.804767
-0.726455
-0.670627
-0.655286
-0.691471
-0.782169
-0.922072
-1.09826
-1.29171
-1.4796
-1.63799
-1.74477
-1.78238
-1.74007
-1.61526
-1.41402
-1.15041
-0.844961
-0.522288
-0.208314
0.0726414
0.300535
0.461695
0.5501
0.56767
0.523542
0.432457
0.312502
0.182569
0.0599073
-0.0418744
-0.11411
-0.153549
-0.162015
-0.145371
-0.111977
-0.0708722
-0.0298616
0.00628648
0.0373854
0.0689403
0.112652
0.186151
0.31185
0.514911
0.820466
1.2504
1.82012
2.53579
3.39253
4.37391
5.45293
6.59442
7.75862
8.90545
9.99889
11.011
11.9249
12.7363
13.4539
14.0973
14.6946
15.2781
15.8797
16.5262
17.235
18.0104
18.8414
19.7006
20.5455
21.3198
21.958
22.3897
22.5452
22.3615
21.788
20.7907
19.3556
17.4902
15.2223
12.5978
9.67647
6.52696
3.2216
-0.167988
-3.57408
-6.93445
-10.1923
-13.2943
-16.1877
-18.8152
-21.1083
-22.9786
-24.306
-24.9239
-24.6036
-23.0405
-19.8487
-14.5711
-6.71478
4.18614
18.4776
36.2733
57.3408
81.0082
106.119
131.055
153.841
172.324
184.411
188.34
182.934
167.811
143.494
111.433
73.8879
33.7174
-5.91734
-41.8942
-71.4693
-92.5726
-104.021
-105.622
-98.1648
-83.2861
-63.2551
-40.6873
-18.2363
1.70147
17.2329
27.139
30.9551
28.9562
22.0575
11.6472
-0.621641
-13.0515
-24.1068
-32.5806
-37.7062
-39.204
-37.265
-32.4777
-25.7135
-17.9888
-10.3218
-3.6034
1.504
4.63018
5.7188
5.00844
2.979
0.273192
-2.39522
-4.33405
-4.95476
-3.83488
-0.754824
4.29324
11.1231
19.3943
28.6677
38.4678
48.3448
57.9285
66.9678
75.3531
83.12
90.4345
97.5645
104.84
112.611
121.198
130.856
141.744
153.897
167.22
181.484
196.34
211.337
225.945
239.587
251.667
261.602
268.855
272.954
273.524
270.298
263.139
252.05
237.183
218.842
197.484
173.711
148.251
121.937
95.6639
70.3457
46.8566
25.9734
8.31893
-5.68656
-15.8585
-22.2618
-25.2025
-25.1967
-22.9199
-19.1422
-14.6553
-10.2013
-6.40854
-3.74335
-2.48063
-2.69671
-4.28331
-6.97992
-10.4199
-14.1836
-17.8529
-21.0596
-23.5236
-25.0769
-25.6717
-25.374
-24.343
-22.8028
-21.0077
-19.2083
-17.6208
-16.4042
-15.6461
-15.3594
-15.4881
-15.9209
-16.511
-17.0978
-17.529
-17.6791
-17.4636
-16.8468
-15.8429
-14.5111
-12.9451
-11.2593
-9.57402
-7.99996
-6.62589
-5.50953
-4.67304
-4.10344
-3.75728
-3.56897
-3.4613
-3.35674
-3.18801
-2.9066
-2.48839
-1.93564
-1.27558
-0.555725
0.163249
0.816025
1.34155
1.69115
1.83478
1.76489
1.4972
1.06857
0.532326
-0.0484596
-0.608574
-1.08832
-1.44016
-1.63364
-1.65792
-1.52188
-1.25182
-0.887186
-0.475067
-0.0641076
0.301292
0.585817
0.766612
0.834873
0.795614
0.665801
0.471203
0.242475
0.0110239
-0.19483
-0.352939
-0.449361
-0.479188
-0.446191
-0.361438
-0.241159
-0.104199
0.0305847
0.146657
0.2316
0.278217
0.284866
0.255085
0.196638
0.120212
0.0380144
-0.0374644
-0.0943492
-0.121856
-0.11041
-0.0515688
0.0620172
0.236406
0.475804
0.78164
1.15141
1.57751
2.04634
2.5379
3.02627
3.48081
3.86845
4.1567
4.31727
4.3299
4.18596
3.8912
3.46735
2.95197
2.39653
1.86261
1.41676
1.12443
1.0437
1.21968
1.68013
2.43284
3.46504
4.74487
6.2246
7.84519
9.54163
11.2484
12.9044
14.4572
15.8653
17.0994
18.1421
18.9851
19.6266
20.0669
20.3048
20.3347
20.1441
19.7135
19.0179
18.0293
16.7208
15.0708
13.0671
10.7111
8.02057
5.03103
1.79662
-1.61093
-5.10447
-8.58478
-11.9449
-15.0748
-17.8662
-20.215
-22.0218
-23.1869
-23.5999
-23.1239
-21.5762
-18.7101
-14.2076
-7.68839
1.25208
12.9753
27.7033
45.4065
65.6957
87.7446
110.267
131.569
149.68
162.558
168.341
165.613
153.638
132.528
103.317
67.908
28.9129
-10.6071
-47.469
-78.7169
-101.948
-115.575
-118.986
-112.591
-97.7479
-76.5757
-51.6919
-25.9011
-1.88002
18.1064
32.4217
40.1885
41.3213
36.4648
26.8533
14.1131
0.0372273
-13.6379
-25.4273
-34.2427
-39.4744
-41.0077
-39.1763
-34.6673
-28.3924
-21.3464
-14.4723
-8.54772
-4.10556
-1.39475
-0.380793
-0.781747
-2.13069
-3.85371
-5.35192
-6.0768
-5.59057
-3.60584
-0.00227686
5.17898
11.7599
19.4639
27.9617
36.9185
46.0369
55.09
63.9437
72.565
81.0172
89.4439
98.0445
107.044
116.659
127.07
138.391
150.651
163.782
177.616
191.886
206.245
220.274
233.51
245.467
255.653
263.601
268.877
271.104
269.976
265.272
256.869
244.76
229.068
210.061
188.162
163.947
138.142
111.592
85.2253
59.9951
36.8157
16.4911
-0.351293
-13.316
-22.2743
-27.3743
-29.024
-27.848
-24.623
-20.1991
-15.4163
-11.0266
-7.62889
-5.62457
-5.19767
-6.32008
-8.77961
-12.2259
-16.2275
-20.3322
-24.1237
-27.2674
-29.5414
-30.8509
-31.2243
-30.7949
-29.771
-28.3996
-26.9281
-25.5707
-24.4813
-23.7379
-23.3373
-23.2027
-23.1994
-23.1578
-22.8999
-22.2649
-21.1314
-19.4328
-17.1654
-14.3876
-11.2115
-7.78872
-4.29161
-0.893871
2.24794
5.00942
7.30836
9.10901
10.4207
11.2912
11.7967
12.029
12.0832
12.046
11.9863
11.9497
11.9564
12.0021
12.0627
12.1001
12.0704
11.9308
11.6472
11.1985
10.5804
9.8052
8.90023
7.90369
6.85942
5.8109
4.79568
3.84082
2.96001
2.15254
1.40432
0.690526
-0.0204363
-0.762276
-1.56601
-2.45565
-3.44479
-4.53457
-5.71309
-6.95633
-8.23039
-9.49473
-10.7061
-11.8226
-12.8076
-13.6327
-14.2806
-14.7457
-15.0342
-15.1628
-15.1556
-15.0402
-14.844
-14.5894
-14.2903
-13.9501
-13.5608
-13.1041
-12.5552
-11.8867
-11.0741
-10.102
-8.96812
-7.68691
-6.29078
-4.82876
-3.36281
-1.96222
-0.696558
0.371773
1.19439
1.74233
2.00929
2.01219
1.78908
1.39473
0.894366
0.356557
-0.154054
-0.583116
-0.891414
-1.05764
-1.07889
-0.968846
-0.75408
-0.468866
-0.149262
0.172816
0.474786
0.747189
0.995581
1.24022
1.51353
1.85553
2.30784
2.90683
3.6771
4.62593
5.73986
6.98388
8.30362
9.63027
10.8878
12.0013
12.9052
13.5508
13.9104
13.9797
13.7757
13.3327
12.6957
11.9129
11.0285
10.0763
9.07582
8.03116
6.93189
5.75704
4.48077
3.07922
1.53763
-0.143376
-1.943
-3.81792
-5.70226
-7.5097
-9.13635
-10.4629
-11.3535
-11.6504
-11.1632
-9.65515
-6.83034
-2.33017
4.25331
13.3386
25.2864
40.3052
58.3407
78.9714
101.332
124.092
145.507
163.553
176.125
181.302
177.611
164.275
141.397
110.032
72.1551
30.4952
-11.7296
-51.1513
-84.6197
-109.551
-124.213
-127.903
-121.012
-104.952
-81.9659
-54.8567
-26.6529
-0.270639
21.7954
37.7135
46.4648
47.8895
42.6315
31.9945
17.7349
1.82037
-13.8139
-27.482
-37.9137
-44.3555
-46.5999
-44.9471
-40.1098
-33.0788
-24.9697
-16.8709
-9.71212
-4.16646
-0.594476
0.966738
0.773679
-0.68649
-2.78057
-4.82289
-6.16546
-6.27392
-4.78161
-1.51733
3.49374
10.0537
17.8344
26.4325
35.4284
44.442
53.1781
61.4573
69.2295
76.5695
83.6576
90.7482
98.1313
106.092
114.875
124.647
135.482
147.344
160.088
173.467
187.15
200.742
213.812
225.912
236.6
245.457
252.097
256.173
257.39
255.502
250.33
241.766
229.795
214.514
196.151
175.081
151.837
127.104
101.696
76.5161
52.5004
30.5481
11.4467
-4.19809
-16.0204
-23.9299
-28.1211
-29.0521
-27.3968
-23.9733
-19.6589
-15.3009
-11.6344
-9.2151
-8.37646
-9.21324
-11.5928
-15.1914
-19.5489
-24.1353
-28.42
-31.9349
-34.3256
-35.3844
-35.0631
-33.4657
-30.824
-27.4594
-23.7379
-20.0236
-16.6368
-13.8211
-11.7225
-10.3826
-9.74427
-9.66897
-9.96227
-10.4033
-10.7747
-10.8891
-10.6098
-9.86203
-8.63695
-6.98595
-5.00856
-2.8355
-0.609442
1.53367
3.4807
5.15289
6.51204
7.56098
8.33889
8.91261
9.36525
9.78381
10.2474
10.8172
11.5295
12.3919
13.3835
14.4576
15.5485
16.5784
17.4669
18.1386
18.5306
18.5981
18.3168
17.6838
16.7158
15.4459
13.9189
12.1871
10.305
8.32645
6.30107
4.27295
2.27979
0.352862
-1.48237
-3.20554
-4.80057
-6.25506
-7.55999
-8.7097
-9.70208
-10.5389
-11.2259
-11.7733
-12.1948
-12.5075
-12.7303
-12.8827
-12.9829
-13.0464
-13.0844
-13.103
-13.1026
-13.0788
-13.0227
-12.9229
-12.7668
-12.5429
-12.2419
-11.858
-11.3897
-10.8396
-10.2143
-9.52337
-8.77827
-7.9916
-7.17609
-6.34415
-5.50771
-4.67836
-3.86768
-3.08759
-2.35058
-1.66953
-1.05734
-0.526006
-0.0856623
0.256648
0.497996
0.640333
0.690795
0.661473
0.568625
0.431405
0.270264
0.105199
-0.0458843
-0.168462
-0.252109
-0.290466
-0.28042
-0.220584
-0.109325
0.0573004
0.287252
0.593465
0.993731
1.50935
2.16262
2.97337
3.95507
5.11103
6.43131
7.89099
9.45019
11.056
12.6466
14.156
15.5208
16.6859
17.6099
18.2683
18.6545
18.7791
18.6658
18.3463
17.8543
17.2193
16.4615
15.5881
14.592
13.4529
12.1403
10.6191
8.85589
6.82649
4.52275
1.95834
-0.82751
-3.76877
-6.77405
-9.73003
-12.5055
-14.9544
-16.9146
-18.2028
-18.6026
-17.8505
-15.6235
-11.5368
-5.16037
3.93738
16.1168
31.5689
50.2059
71.5607
94.7214
118.322
140.609
159.58
173.196
179.627
177.512
166.179
145.799
117.442
83.0132
45.0886
6.65059
-29.2308
-59.7344
-82.5965
-96.3522
-100.479
-95.4245
-82.5226
-63.8054
-41.7447
-18.9535
2.11065
19.407
31.5062
37.6999
38.017
33.1524
24.3229
13.0727
1.05804
-10.1627
-19.3074
-25.4976
-28.3248
-27.8516
-24.5541
-19.2188
-12.8088
-6.32171
-0.655813
3.49874
5.73219
5.94528
4.33719
1.35662
-2.37449
-6.15265
-9.287
-11.184
-11.413
-9.74555
-6.16641
-0.856031
5.8505
13.5217
21.6963
29.9498
37.9518
45.5075
52.5788
59.2839
65.8751
72.7003
80.1522
88.6134
98.4037
109.735
122.682
137.165
152.951
169.673
186.86
203.966
220.419
235.65
249.127
260.377
269.003
274.687
277.188
276.345
272.065
264.328
253.183
238.76
221.279
201.063
178.551
154.296
128.969
103.331
78.2035
54.4157
32.7506
13.8809
-1.68662
-13.6571
-21.9733
-26.8183
-28.5949
-27.8811
-25.3693
-21.795
-17.8646
-14.19
-11.2379
-9.29917
-8.48011
-8.71584
-9.80205
-11.4399
-13.2874
-15.0104
-16.3271
-17.0398
-17.0532
-16.3762
-15.1105
-13.4269
-11.536
-9.65612
-7.98344
-6.66866
-5.80181
-5.40678
-5.44492
-5.82648
-6.42727
-7.10789
-7.73271
-8.18597
-8.38341
-8.27827
-7.86177
-7.15856
-6.21866
-5.10743
-3.89535
-2.64889
-1.42388
-0.261671
0.811733
1.78387
2.65224
3.41976
4.09033
4.66535
5.14178
5.51204
5.76554
5.89148
5.88222
5.73642
5.46123
5.07322
4.59755
4.06568
3.51177
2.96838
2.46186
2.0083
1.61053
1.2567
0.920942
0.566159
0.148864
-0.374395
-1.0398
-1.86917
-2.86415
-4.00252
-5.23766
-6.50118
-7.70899
-8.76989
-9.5959
-10.1127
-10.2691
-10.0438
-9.44861
-8.52795
-7.35413
-6.01947
-4.62614
-3.2753
-2.05662
-1.03986
-0.269059
0.239804
0.497827
0.539179
0.414822
0.184912
-0.0890716
-0.351498
-0.558258
-0.680411
-0.705567
-0.637101
-0.491518
-0.294525
-0.0764182
0.132533
0.30615
0.425408
0.480244
0.470065
0.403098
0.29487
0.16617
0.0408686
-0.0561004
-0.100412
-0.0696064
0.0560195
0.292761
0.652966
1.14451
1.77028
2.52762
3.40806
4.39716
5.4749
6.61657
7.79418
8.97842
10.1408
11.2559
12.3028
13.2667
14.1386
14.9151
15.5965
16.186
16.6873
17.1036
17.4366
17.6862
17.8499
17.9231
17.8992
17.7688
17.5201
17.1386
16.6069
15.9052
15.0123
13.9064
12.5665
10.9744
9.11658
6.9866
4.58744
1.93422
-0.943267
-3.99859
-7.16737
-10.3668
-13.4958
-16.435
-19.0454
-21.1645
-22.5984
-23.1113
-22.4135
-20.1534
-15.9208
-9.26931
0.236393
12.9445
29.0183
48.3288
70.3585
94.1406
118.256
140.905
160.051
173.638
179.836
177.304
165.41
144.377
115.334
80.2483
41.7503
2.86374
-33.3179
-63.9705
-86.8469
-100.516
-104.499
-99.2919
-86.2739
-67.512
-45.4987
-22.8513
-2.01584
14.9904
26.7681
32.6391
32.6557
27.5249
18.4608
6.99053
-5.2578
-16.7595
-26.2641
-32.9146
-36.3069
-36.486
-33.8868
-29.2325
-23.4074
-17.3232
-11.7951
-7.44474
-4.63687
-3.4568
-3.72586
-5.04974
-6.89004
-8.64748
-9.74481
-9.69897
-8.17411
-5.01065
-0.229026
5.99009
13.3443
21.4601
29.9486
38.458
46.7181
54.5701
61.9818
69.0444
75.9558
82.9904
90.4613
98.6791
107.911
118.347
130.073
143.051
157.124
172.015
187.347
202.669
217.484
231.277
243.544
253.812
261.659
266.724
268.709
267.388
262.606
254.287
242.443
227.188
208.757
187.517
163.983
138.811
112.789
86.8
61.7748
38.6274
18.1845
1.11409
-12.1351
-21.3773
-26.7078
-28.4939
-27.3367
-24.0101
-19.3818
-14.3271
-9.64479
-5.98495
-3.79646
-3.29943
-4.48435
-7.13653
-10.8813
-15.2432
-19.7112
-23.8017
-27.1124
-29.3616
-30.4086
-30.2566
-29.0376
-26.984
-24.3913
-21.5768
-18.8404
-16.4315
-14.5246
-13.2076
-12.4804
-12.2654
-12.4254
-12.7874
-13.1682
-13.3984
-13.3423
-12.9119
-12.0731
-10.8451
-9.29283
-7.51525
-5.63005
-3.75802
-2.00864
-0.468442
0.806587
1.79412
2.50421
2.97414
3.26043
3.42916
3.54595
3.66689
3.83137
4.05764
4.34151
4.65808
4.96615
5.21457
5.34971
5.32289
5.09693
4.65104
3.98362
3.11266
2.07395
0.917459
-0.297609
-1.50844
-2.65427
-3.68146
-4.54764
-5.22427
-5.69787
-5.96949
-6.05294
-5.97192
-5.75652
-5.43959
-5.05326
-4.62611
-4.18126
-3.73539
-3.29886
-2.8766
-2.46971
-2.07727
-1.69813
-1.33236
-0.98216
-0.652063
-0.348643
-0.0797
0.146811
0.323947
0.446855
0.513618
0.525767
0.4884
0.409895
0.301259
0.17517
0.0448376
-0.0771927
-0.180163
-0.256017
-0.300018
-0.31099
-0.291183
-0.245782
-0.182124
-0.108724
-0.0342015
0.0337662
0.0893738
0.129392
0.153559
0.164583
0.167753
0.170166
0.179665
0.203656
0.247962
0.315968
0.408215
0.522622
0.655381
0.802477
0.96166
1.13459
1.32878
1.55894
1.84744
2.22346
2.72102
3.37567
4.22034
5.28069
6.57048
8.0876
9.81131
11.7012
13.6982
15.7276
17.7044
19.5395
21.1479
22.4557
23.4071
23.9693
24.1344
23.9194
23.3626
22.5175
21.4457
20.2083
18.8586
17.4351
15.9577
14.4262
12.821
11.1073
9.24006
7.17201
4.86123
2.27932
-0.581247
-3.70139
-7.0316
-10.4904
-13.9643
-17.3088
-20.3484
-22.8733
-24.6346
-25.3344
-24.618
-22.0707
-17.2271
-9.60306
1.24792
15.6492
33.6965
55.1477
79.3313
105.096
130.827
154.538
174.044
187.198
192.158
187.652
173.198
149.24
117.171
79.2375
38.3281
-2.32156
-39.481
-70.2783
-92.5129
-104.887
-107.126
-99.9757
-85.0774
-64.7471
-41.682
-18.6386
1.87732
17.8722
28.0489
31.8964
29.6792
22.3377
11.3158
-1.65652
-14.7957
-26.4829
-35.4427
-40.8638
-42.4525
-40.417
-35.3921
-28.3176
-20.2905
-12.4099
-5.63657
-0.680265
2.07073
2.5747
1.11573
-1.75641
-5.31522
-8.76186
-11.3307
-12.3824
-11.4742
-8.39924
-3.19372
3.88764
12.4218
21.8849
31.7279
41.4487
50.6541
59.1019
66.7217
73.6116
80.0136
86.2735
92.7901
99.9612
108.134
117.563
128.382
140.591
154.051
168.498
183.561
198.787
213.67
227.677
240.274
250.944
259.209
264.645
266.891
265.67
260.795
252.187
239.888
224.075
205.07
183.339
159.496
134.277
108.521
83.1234
58.9835
36.9471
17.7433
1.92744
-10.1645
-18.4442
-23.0772
-24.4656
-23.2077
-20.0396
-15.7632
-11.1711
-6.97441
-3.74242
-1.86029
-1.50844
-2.66485
-5.12863
-8.56109
-12.5382
-16.6079
-20.3453
-23.399
-25.5256
-26.6064
-26.6497
-25.776
-24.1927
-22.1597
-19.9529
-17.829
-15.9961
-14.5931
-13.6799
-13.238
-13.1813
-13.3739
-13.653
-13.8537
-13.8312
-13.4795
-12.7433
-11.6228
-10.1709
-8.48387
-6.68724
-4.91863
-3.31021
-1.97268
-0.982879
-0.376166
-0.144309
-0.238786
-0.578784
-1.06261
-1.58089
-2.02974
-2.32243
-2.39804
-2.22659
-1.8101
-1.18011
-0.392085
0.482266
1.36376
2.17455
2.84598
3.32488
3.57763
3.5918
3.37556
2.95491
2.36956
1.6679
0.901913
0.122541
-0.624026
-1.2989
-1.8719
-2.32193
-2.63669
-2.81191
-2.85043
-2.76139
-2.55939
-2.26383
-1.89813
-1.48882
-1.06428
-0.653122
-0.282242
0.0252603
0.252099
0.388426
0.432796
0.392281
0.281649
0.121663
-0.063303
-0.248039
-0.409309
-0.528344
-0.592708
-0.597326
-0.54458
-0.443503
-0.308225
-0.155909
-0.00445668
0.129723
0.233631
0.299122
0.323791
0.31132
0.271384
0.219208
0.174909
0.162648
0.209621
0.344836
0.597622
0.995851
1.56391
2.32057
3.27697
4.43487
5.78559
7.30953
8.97643
10.7463
12.571
14.3959
16.1624
17.8103
19.2806
20.519
21.4789
22.1247
22.4343
22.4016
22.0368
21.3656
20.4272
19.2707
17.95
16.5192
15.0268
13.5113
11.997
10.4922
8.98865
7.46285
5.87967
4.19741
2.37416
0.375028
-1.82077
-4.21342
-6.77736
-9.45765
-12.1676
-14.7868
-17.1579
-19.0818
-20.31
-20.5355
-19.3866
-16.4283
-11.1793
-3.15245
8.07951
22.7922
41.0027
62.3645
86.0858
110.897
135.087
156.612
173.286
183.019
184.087
175.387
156.638
128.5
92.5774
51.3087
7.74683
-34.7463
-72.8507
-103.642
-124.902
-135.349
-134.76
-123.964
-104.724
-79.5154
-51.2256
-22.8326
2.91792
23.7868
38.2424
45.5681
45.8693
39.9872
29.3363
15.6897
0.942974
-13.1144
-24.9931
-33.6437
-38.5297
-39.6322
-37.3903
-32.5929
-26.2368
-19.3754
-12.9733
-7.78856
-4.291
-2.6262
-2.62396
-3.847
-5.67008
-7.37709
-8.26239
-7.72326
-5.33242
-0.882924
5.59832
13.868
23.5108
34.0027
44.7851
55.339
65.2501
74.2568
82.2765
89.4078
95.9091
102.159
108.602
115.688
123.819
133.289
144.256
156.714
170.493
185.271
200.599
215.94
230.71
244.315
256.192
265.83
272.793
276.726
277.365
274.527
268.119
258.134
244.657
227.876
208.09
185.724
161.332
135.596
109.307
83.3331
58.5713
35.8894
16.0584
-0.312242
-12.83
-21.3577
-26.0288
-27.2363
-25.5957
-21.8848
-16.9689
-11.7167
-6.92014
-3.2241
-1.07545
-0.69565
-2.07912
-5.01612
-9.13611
-13.9653
-18.9909
-23.7239
-27.7532
-30.7863
-32.6714
-33.4019
-33.102
-31.9994
-30.3876
-28.584
-26.8893
-25.5528
-24.7467
-24.553
-24.9614
-25.8796
-27.1517
-28.5832
-29.9676
-31.1127
-31.8621
-32.1102
-31.8101
-30.974
-29.6652
-27.9865
-26.064
-24.0296
-22.005
-20.0878
-18.342
-16.7944
-15.4349
-14.223
-13.0977
-11.9897
-10.8337
-9.5808
-8.20605
-6.71372
-5.13709
-3.53433
-1.98063
-0.558138
0.655047
1.59513
2.22085
2.5186
2.50397
2.21955
1.72963
1.11236
0.450756
-0.176449
-0.702902
-1.08076
-1.28425
-1.31039
-1.17705
-0.918746
-0.580851
-0.213145
0.136578
0.428002
0.632336
0.734557
0.733751
0.641718
0.480193
0.27722
0.0632823
-0.13215
-0.283122
-0.368356
-0.370947
-0.276814
-0.0723816
0.257774
0.732546
1.37455
2.20865
3.25874
4.54331
6.07039
7.83289
9.80517
11.9415
14.1773
16.4322
18.616
20.6358
22.4039
23.8454
24.905
25.5513
25.7786
25.6063
25.0751
24.2414
23.1701
21.9263
20.5679
19.1393
17.6668
16.1565
14.5952
12.953
11.1888
9.25669
7.11329
4.72535
2.07639
-0.827826
-3.95546
-7.24662
-10.6128
-13.9367
-17.0716
-19.8378
-22.0157
-23.3364
-23.4709
-22.0244
-18.5424
-12.5372
-3.53958
8.82082
24.7139
44.0001
66.1346
90.1097
114.457
137.322
156.621
170.251
176.347
173.542
161.186
139.497
109.609
73.512
33.8758
-6.21675
-43.594
-75.3387
-99.1041
-113.364
-117.562
-112.15
-98.5056
-78.7436
-55.4546
-31.3966
-9.18511
8.98412
21.5468
27.6956
27.4091
21.3887
10.9168
-2.34168
-16.5649
-29.9986
-41.153
-48.95
-52.8079
-52.659
-48.9037
-42.3123
-33.893
-24.7424
-15.9023
-8.23526
-2.33614
1.51581
3.36122
3.52521
2.55049
1.11003
-0.0881686
-0.391697
0.720677
3.58653
8.33469
14.8883
22.9929
32.2647
42.2507
52.4924
62.5855
72.2282
81.2523
89.6357
97.495
105.06
112.638
120.563
129.154
138.665
149.253
160.954
173.671
187.179
201.137
215.113
228.612
241.105
252.062
260.972
267.366
270.836
271.046
267.741
260.763
250.061
235.703
217.896
196.993
173.507
148.102
121.579
94.843
68.8501
44.5459
22.7933
4.30102
-10.4386
-21.194
-28.0149
-31.2249
-31.3866
-29.2416
-25.6342
-21.4265
-17.4141
-14.2548
-12.414
-12.1359
-13.4395
-16.1402
-19.8921
-24.2439
-28.7023
-32.7944
-36.1216
-38.3997
-39.4825
-39.3658
-38.1759
-36.1423
-33.5616
-30.7573
-28.0396
-25.671
-23.8412
-22.6525
-22.1177
-22.1678
-22.6696
-23.448
-24.3114
-25.0762
-25.5869
-25.7315
-25.4489
-24.7294
-23.6091
-22.159
-20.4713
-18.6452
-16.7736
-14.9329
-13.1772
-11.5358
-10.0161
-8.60847
-7.29345
-6.04959
-4.86015
-3.71792
-2.62743
-1.60437
-0.672522
0.141076
0.811808
1.3229
1.66972
1.8621
1.92448
1.89367
1.81469
1.73534
1.70044
1.74669
1.89922
2.17025
2.56025
3.06126
3.66155
4.35049
5.12267
5.98005
6.93174
7.99136
9.17238
10.4825
11.918
13.4598
15.0712
16.6987
18.2761
19.7306
20.9903
21.9934
22.6945
23.0709
23.1237
22.8771
22.3734
21.6652
20.8066
19.8435
18.8056
17.701
16.5139
15.2061
13.7219
11.997
9.96776
7.58305
4.81421
1.66393
-1.82807
-5.58278
-9.48362
-13.3813
-17.1006
-20.4474
-23.2134
-25.1762
-26.0948
-25.7003
-23.6877
-19.7121
-13.4001
-4.38209
7.64877
22.8543
41.1532
62.1255
84.9411
108.336
130.652
149.955
164.215
171.542
170.435
160.02
140.227
111.882
76.6891
37.1033
-3.90217
-43.138
-77.5394
-104.498
-122.145
-129.54
-126.761
-114.867
-95.7496
-71.8948
-46.0882
-21.0971
0.626634
17.1903
27.4248
30.9548
28.1726
20.1253
8.33677
-5.4112
-19.3077
-31.7241
-41.383
-47.4703
-49.6802
-48.1948
-43.6071
-36.802
-28.8144
-20.6824
-13.3167
-7.39745
-3.31096
-1.12903
-0.629265
-1.35012
-2.67041
-3.90105
-4.3765
-3.53462
-0.976206
3.50137
9.8981
18.0312
27.5757
38.1196
49.2244
60.4837
71.5724
82.2806
92.5304
102.373
111.97
121.56
131.419
141.815
152.967
165.008
177.966
191.744
206.127
220.79
235.32
249.244
262.056
273.245
282.325
288.85
292.436
292.772
289.626
282.863
272.442
258.434
241.028
220.538
197.411
172.222
145.673
118.563
91.7562
66.1378
42.5521
21.7422
4.29092
-9.43028
-19.2939
-25.428
-28.2027
-28.1933
-26.1223
-22.788
-18.9878
-15.4436
-12.7397
-11.2782
-11.2568
-12.6702
-15.3335
-18.9232
-23.03
-27.216
-31.0694
-34.251
-36.5269
-37.7849
-38.0352
-37.3949
-36.062
-34.2814
-32.3091
-30.3783
-28.673
-27.3099
-26.3315
-25.7099
-25.3589
-25.1528
-24.9485
-24.6073
-24.0148
-23.0941
-21.814
-20.1894
-18.2754
-16.1561
-13.9311
-11.7001
-9.54964
-7.54288
-5.71391
-4.06695
-2.58021
-1.21338
0.0826111
1.35529
2.6414
3.96012
5.30956
6.66709
7.99304
9.23706
10.346
11.272
11.9793
12.4489
12.6806
12.6923
12.5164
12.1943
11.7703
11.2852
10.7703
10.2437
9.70803
9.15078
8.5468
7.86267
7.0624
6.11357
4.99331
3.69306
2.22167
0.606251
-1.10927
-2.8677
-4.60385
-6.25068
-7.74559
-9.03607
-10.0841
-10.8687
-11.387
-11.6526
-11.6935
-11.5481
-11.2603
-10.8754
-10.4351
-9.97441
-9.51885
-9.08362
-8.67377
-8.28574
-7.90975
-7.53275
-7.14129
-6.72415
-6.27418
-5.78927
-5.27246
-4.73121
-4.17624
-3.61998
-3.07514
-2.55344
-2.06476
-1.61661
-1.21401
-0.859747
-0.554655
-0.298151
-0.0886817
0.0758924
0.198036
0.280445
0.326086
0.338352
0.321247
0.279543
0.218837
0.14546
0.0662278
-0.0119612
-0.08262
-0.140203
-0.180589
-0.201437
-0.202372
-0.184954
-0.152433
-0.109319
-0.060824
-0.0122518
0.031581
0.0668218
0.0909042
0.102692
0.10245
0.0916556
0.0727089
0.0485694
0.0223871
-0.00282212
-0.0243926
-0.0400526
-0.0477446
-0.0452015
-0.0293151
0.00460421
0.0635165
0.157097
0.297751
0.500062
0.779643
1.15148
1.62795
2.2169
2.91993
3.73136
4.6379
5.6193
6.64972
7.69993
8.73994
9.74186
10.6827
11.5465
12.3259
13.022
13.6428
14.1995
14.7018
15.1519
15.5391
15.8353
15.9942
15.9531
15.6388
14.9769
13.9036
12.3779
10.3925
7.98181
5.22563
2.2475
-0.791166
-3.70005
-6.26937
-8.2771
-9.49158
-9.66869
-8.54495
-5.83079
-1.21073
5.64143
15.0255
27.1529
42.064
59.5355
78.9986
99.4889
119.65
137.806
152.103
160.71
162.056
155.064
139.353
115.361
84.3796
48.4685
10.2774
-27.2237
-61.0608
-88.5822
-107.75
-117.361
-117.168
-107.885
-91.0848
-68.9988
-44.2466
-19.5357
2.63538
20.233
31.8761
36.9374
35.5511
28.5336
17.2329
3.32887
-11.3859
-25.2196
-36.7619
-45.0152
-49.4645
-50.0834
-47.2815
-41.8065
-34.6147
-26.7319
-19.1193
-12.5624
-7.59307
-4.45016
-3.08112
-3.1787
-4.24544
-5.67493
-6.83807
-7.16317
-6.20026
-3.66357
0.551236
6.3742
13.5893
21.8778
30.87
40.1974
49.5402
58.6626
67.4351
75.8404
83.9647
91.9765
100.096
108.562
117.595
127.364
137.968
149.411
161.604
174.358
187.403
200.402
212.968
224.69
235.153
243.955
250.721
255.115
256.848
255.681
251.437
244.004
233.351
219.541
202.747
183.265
161.53
138.113
113.708
89.1052
65.147
42.6683
22.4333
5.07075
-8.9818
-19.5166
-26.5724
-30.425
-31.554
-30.5877
-28.2349
-25.2104
-22.1647
-19.6252
-17.9554
-17.3361
-17.77
-19.106
-21.0795
-23.3627
-25.6165
-27.539
-28.9026
-29.5782
-29.5428
-28.8722
-27.7211
-26.2931
-24.8078
-23.4671
-22.4273
-21.7787
-21.536
-21.6393
-21.965
-22.3445
-22.5881
-22.5103
-21.9537
-20.8075
-19.0206
-16.6063
-13.6392
-10.2462
-6.59126
-2.85809
0.768808
4.12122
7.0614
9.49183
11.36
12.6579
13.4175
13.7023
13.5968
13.1961
12.5952
11.8808
11.1251
10.3831
9.69162
9.07161
8.53095
8.06879
7.67954
7.35629
7.09318
6.8864
6.73376
6.63324
6.58064
6.56702
6.57648
6.58469
6.55882
6.45899
6.24131
5.86219
5.28338
4.47725
3.43125
2.15117
0.662642
-0.989587
-2.7443
-4.52838
-6.26265
-7.86855
-9.27482
-10.4235
-11.2748
-11.8099
-12.0325
-11.9672
-11.6571
-11.159
-10.5381
-9.86241
-9.19623
-8.59555
-8.10367
-7.74839
-7.54083
-7.47565
-7.53284
-7.68053
-7.87868
-8.083
-8.24896
-8.33535
-8.30736
-8.13896
-7.81458
-7.33015
-6.6933
-5.92293
-5.04801
-4.1056
-3.13829
-2.191
-1.30752
-0.527028
0.119111
0.609879
0.936173
1.10122
1.11981
1.01637
0.82224
0.572327
0.301654
0.0421229
-0.180167
-0.346775
-0.447827
-0.481951
-0.455331
-0.380062
-0.272053
-0.148759
-0.0270012
0.0788776
0.158379
0.205651
0.219784
0.204726
0.169029
0.125596
0.0914888
0.0877331
0.138881
0.272067
0.515308
0.89499
1.43266
2.14154
3.02319
4.06505
5.23926
6.50313
7.80141
9.07015
10.2419
11.2512
12.0411
12.5674
12.8034
12.7412
12.3921
11.7841
10.9578
9.96145
8.84443
7.65181
6.41944
5.17089
3.91651
2.65492
1.37681
0.0705344
-1.271
-2.64305
-4.022
-5.35883
-6.57308
-7.54674
-8.11739
-8.07023
-7.13013
-4.95631
-1.14504
4.75274
13.1922
24.5694
39.1318
56.8738
77.4346
100.021
123.381
145.84
165.425
180.046
187.741
186.939
176.702
156.915
128.385
92.8254
52.7255
11.1182
-28.7339
-63.6879
-91.0636
-108.934
-116.328
-113.318
-100.985
-81.2676
-56.7147
-30.1829
-4.50818
17.7999
34.8088
45.3298
48.9886
46.1946
38.0235
26.0311
12.0281
-2.15563
-14.8857
-24.895
-31.3944
-34.1144
-33.2792
-29.5234
-23.7657
-17.0602
-10.4459
-4.81248
-0.798217
1.27063
1.39545
-0.122006
-2.74237
-5.77601
-8.48193
-10.1652
-10.2606
-8.39431
-4.41622
1.59742
9.36992
18.473
28.3911
38.5912
48.5907
58.013
66.627
74.3654
81.3217
87.727
93.9124
100.26
107.151
114.917
123.797
133.91
145.24
157.634
170.815
184.405
197.955
210.978
222.978
233.484
242.066
248.352
252.037
252.881
250.714
245.432
236.998
225.449
210.905
193.583
173.814
152.045
128.853
104.924
81.0329
58.0019
36.6451
17.7072
1.80069
-10.6496
-19.4472
-24.6445
-26.5374
-25.6367
-22.617
-18.2488
-13.323
-8.57518
-4.61861
-1.89391
-0.639703
-0.887079
-2.47718
-5.09848
-8.33828
-11.7413
-14.8684
-17.3475
-18.9129
-19.4274
-18.8878
-17.4126
-15.2173
-12.5789
-9.79709
-7.15555
-4.88972
-3.16296
-2.05417
-1.55682
-1.58845
-2.00839
-2.64066
-3.29884
-3.80969
-4.03293
-3.87514
-3.29679
-2.31207
-0.982313
0.595738
2.30488
4.0234
5.63999
7.06573
8.24206
9.144
9.77892
10.1814
10.4051
10.5137
10.5708
10.6313
10.7345
10.8988
11.1207
11.3748
11.618
11.7948
11.8444
11.7083
11.3379
10.7006
9.78419
8.59961
7.18073
5.58224
3.87549
2.14276
0.470446
-1.05812
-2.36976
-3.40781
-4.1371
-4.54734
-4.65423
-4.49837
-4.14176
-3.66231
-3.14658
-2.68167
-2.34689
-2.2063
-2.30279
-2.6545
-3.25385
-4.06927
-5.04929
-6.12838
-7.23387
-8.29302
-9.23963
-10.0194
-10.5939
-10.9421
-11.0608
-10.9628
-10.6738
-10.2281
-9.6642
-9.0205
-8.33114
-7.6234
-6.91618
-6.21994
-5.53796
-4.86854
-4.20781
-3.55259
-2.90277
-2.26299
-1.6431
-1.05765
-0.524287
-0.0614897
0.314019
0.589788
0.759652
0.824963
0.794851
0.685494
0.518503
0.318666
0.111353
-0.0800688
-0.236477
-0.344625
-0.397953
-0.39649
-0.345848
-0.255416
-0.13597
0.00300079
0.155903
0.323199
0.512773
0.740241
1.02805
1.4034
1.89506
2.5296
3.32731
4.29844
5.44029
6.73559
8.15242
9.64568
11.16
12.6341
14.0049
15.2131
16.207
16.9464
17.4045
17.5689
17.4403
17.0307
16.3601
15.4527
14.3338
13.0263
11.5495
9.91817
8.14332
6.23369
4.19841
2.04982
-0.193453
-2.5037
-4.84154
-7.15346
-9.36862
-11.3941
-13.1072
-14.3442
-14.8864
-14.4452
-12.6531
-9.06653
-3.1899
5.47286
17.3376
32.6353
51.2976
72.8539
96.3645
120.414
143.18
162.58
176.491
183.007
180.705
168.879
147.7
118.271
82.5699
43.269
3.46728
-33.6441
-65.1324
-88.6457
-102.665
-106.656
-101.097
-87.3936
-67.6845
-44.5691
-20.797
1.04317
18.7987
30.9585
36.7709
36.2643
30.1761
19.8049
6.80938
-7.01672
-19.9659
-30.6074
-37.9274
-41.4063
-41.0298
-37.2385
-30.828
-22.8159
-14.2955
-6.29425
0.345059
5.04971
7.56072
7.93418
6.50417
3.81561
0.538395
-2.62477
-5.02476
-6.13655
-5.60672
-3.27444
0.83402
6.53356
13.5255
21.4518
29.9509
38.7067
47.4861
56.1599
64.7072
73.2035
81.7958
90.67
100.015
109.988
120.69
132.143
144.285
156.974
169.993
183.07
195.897
208.143
219.476
229.566
238.098
244.768
249.288
251.383
250.801
247.313
240.737
230.954
217.938
201.782
182.725
161.172
137.697
113.032
88.0334
63.6342
40.7731
20.3208
3.00342
-10.6644
-20.4282
-26.3177
-28.6403
-27.9477
-24.9754
-20.5652
-15.5784
-10.8112
-6.92084
-4.37126
-3.40378
-4.03402
-6.07416
-9.17614
-12.8891
-16.7235
-20.2134
-22.9704
-24.7231
-25.3383
-24.8242
-23.3158
-21.0461
-18.3088
-15.4173
-12.6648
-10.2919
-8.46358
-7.25752
-6.6651
-6.60229
-6.9289
-7.47261
-8.05439
-8.5119
-8.71835
-8.59471
-8.11474
-7.30263
-6.22463
-4.9762
-3.66683
-2.40479
-1.28373
-0.372735
0.289398
0.695205
0.865468
0.842811
0.683229
0.446924
0.189801
-0.0432652
-0.222634
-0.335242
-0.383222
-0.38031
-0.346855
-0.304384
-0.27065
-0.255941
-0.261179
-0.277958
-0.290407
-0.278416
-0.221642
-0.103567
0.0850021
0.343538
0.660814
1.01544
1.37782
1.71328
1.98589
2.16267
2.21746
2.13426
1.90937
1.55221
1.08462
0.53878
-0.0462006
-0.628288
-1.16686
-1.62666
-1.98098
-2.21365
-2.31974
-2.30501
-2.18422
-1.9788
-1.71396
-1.41598
-1.1096
-0.816045
-0.551663
-0.327266
-0.148178
-0.0148398
0.0761609
0.130839
0.156529
0.16075
0.150332
0.130872
0.10653
0.0800942
0.0532524
0.0269695
0.00188607
-0.0213034
-0.041502
-0.0568654
-0.0644294
-0.0597027
-0.0362669
0.0145208
0.103599
0.243926
0.449794
0.735746
1.11521
1.59901
2.19404
2.90214
3.71964
4.63737
5.64134
6.71407
7.83617
8.9881
10.1519
11.312
12.4564
13.5755
14.6623
15.7102
16.7119
17.658
18.5363
19.3309
20.0227
20.5898
21.0083
21.2534
21.3002
21.1247
20.7049
20.0219
19.0604
17.8101
16.2659
14.429
12.3068
9.91326
7.26924
4.40267
1.34948
-1.84536
-5.12674
-8.42855
-11.6733
-14.7724
-17.6259
-20.1221
-22.1339
-23.5122
-24.0742
-23.5889
-21.7633
-18.2349
-12.5808
-4.34952
6.87588
21.3873
39.2404
60.1434
83.3675
107.708
131.513
152.797
169.427
179.363
180.936
173.094
155.608
129.177
95.4221
56.7627
16.1849
-23.0717
-57.8651
-85.4957
-104
-112.354
-110.567
-99.6427
-81.4398
-58.4248
-33.3741
-9.05291
12.0858
28.1473
37.9593
41.1414
38.0768
29.7984
17.8087
3.86226
-10.2612
-22.9644
-32.9971
-39.5624
-42.3582
-41.5544
-37.7156
-31.6853
-24.4493
-16.9972
-10.1994
-4.71314
-0.925179
1.06619
1.43204
0.563665
-0.997339
-2.63904
-3.7587
-3.83279
-2.47066
0.552505
5.28483
11.6082
19.2665
27.9078
37.1338
46.5516
55.8206
64.6917
73.0319
80.8359
88.22
95.4035
102.677
110.365
118.778
128.179
138.738
150.513
163.426
177.267
191.698
206.278
220.489
233.769
245.546
255.271
262.447
266.645
267.526
264.848
258.476
248.388
234.682
217.583
197.451
174.783
150.214
124.497
98.484
73.081
49.1967
27.6794
9.25229
-5.54752
-16.4174
-23.3184
-26.4802
-26.3803
-23.6982
-19.2495
-13.9076
-8.52015
-3.83233
-0.42307
1.33776
1.30778
-0.4347
-3.62051
-7.83735
-12.5889
-17.3575
-21.6634
-25.1136
-27.4366
-28.4993
-28.3074
-26.9897
-24.7713
-21.9382
-18.8005
-15.6571
-12.7657
-10.3222
-8.44896
-7.19271
-6.53087
-6.38432
-6.63417
-7.14017
-7.75853
-8.35727
-8.82793
-9.09287
-9.10809
-8.86197
-8.3708
-7.67206
-6.81669
-5.86132
-4.86141
-3.86585
-2.9133
-2.03043
-1.23172
-0.520672
0.107992
0.665562
1.1663
1.62454
2.05215
2.45665
2.84011
3.19891
3.52435
3.8039
4.02303
4.16714
4.22365
4.18368
4.04337
3.80474
3.47583
3.07038
2.60687
2.10706
1.59414
1.09062
0.616163
0.185641
-0.192401
-0.516566
-0.792615
-1.03258
-1.25304
-1.4728
-1.71016
-1.98019
-2.29229
-2.64831
-3.0416
-3.45692
-3.87138
-4.25635
-4.58012
-4.81111
-4.92133
-4.88969
-4.70482
-4.36697
-3.88883
-3.29499
-2.62009
-1.90585
-1.19717
-0.537831
0.0337439
0.488238
0.808168
0.989315
1.04065
0.982818
0.845289
0.662636
0.470288
0.300344
0.177913
0.118484
0.126676
0.196606
0.313899
0.459121
0.612219
0.75731
0.887118
1.00631
1.1332
1.29934
1.54717
1.92577
2.4854
3.27159
4.31958
5.64988
7.26551
9.15117
11.2743
13.5879
16.0339
18.5478
21.0624
23.5109
25.8301
27.9616
29.8531
31.4582
32.7371
33.6559
34.1867
34.3074
34.0019
33.2596
32.0749
30.4469
28.3784
25.8758
22.9491
19.6131
15.8894
11.8098
7.41941
2.7794
-2.03073
-6.91309
-11.7532
-16.4241
-20.7916
-24.7201
-28.0775
-30.7362
-32.5689
-33.4381
-33.1794
-31.5823
-28.3736
-23.2128
-15.7078
-5.45867
7.86729
24.4359
44.1337
66.466
90.4886
114.799
137.603
156.86
170.496
176.661
173.996
161.859
140.479
111.016
75.4865
36.5871
-2.58216
-38.8537
-69.3421
-91.7633
-104.681
-107.646
-101.221
-86.8801
-66.8052
-43.6114
-20.0329
1.38698
18.5643
30.0711
35.2418
34.1814
27.6834
17.0727
4.0002
-9.78224
-22.6375
-33.2237
-40.6203
-44.3906
-44.5775
-41.6415
-36.3534
-29.6599
-22.5435
-15.8922
-10.3968
-6.48445
-4.29302
-3.68503
-4.29482
-5.59935
-7.001
-7.91068
-7.82089
-6.36068
-3.32761
1.30497
7.40362
14.7093
22.8845
31.5657
40.4143
49.1596
57.6292
65.7638
73.6168
81.3381
89.1475
97.2992
106.045
115.596
126.095
137.591
150.03
163.254
177.012
190.975
204.759
217.952
230.137
240.906
249.881
256.718
261.112
262.801
261.563
257.224
249.666
238.84
224.784
207.647
187.708
165.396
141.288
116.109
90.6935
65.9479
42.7843
22.0518
4.46332
-9.46877
-19.4813
-25.5858
-28.0667
-27.4517
-24.4572
-19.9152
-14.69
-9.59483
-5.31677
-2.35968
-1.00962
-1.32596
-3.15787
-6.18238
-9.95858
-13.9901
-17.7886
-20.9299
-23.0978
-24.1113
-23.9326
-22.6585
-20.4963
-17.7297
-14.6791
-11.6615
-8.95598
-6.77594
-5.25305
-4.43187
-4.27523
-4.67848
-5.48983
-6.5338
-7.6345
-8.63607
-9.4181
-9.90477
-10.0673
-9.92049
-9.51364
-8.919
-8.21812
-7.48894
-6.79484
-6.17713
-5.65139
-5.20811
-4.81701
-4.43431
-4.01163
-3.50528
-2.88452
-2.13758
-1.27494
-0.329235
0.647859
1.59136
2.43047
3.09686
3.53273
3.69773
3.57386
3.16792
2.51131
1.65715
0.675123
-0.35518
-1.35192
-2.23862
-2.95096
-3.44214
-3.68616
-3.67883
-3.43654
-2.99293
-2.39422
-1.69369
-0.946104
-0.202799
0.492073
1.10386
1.60821
1.99054
2.24461
2.37052
2.37288
2.25916
2.03882
1.72304
1.32503
0.860636
0.348997
-0.187138
-0.721659
-1.22607
-1.6712
-2.02954
-2.27788
-2.39989
-2.38824
-2.24586
-1.98608
-1.63154
-1.21181
-0.760186
-0.309846
0.110079
0.477961
0.782266
1.02291
1.21121
1.36844
1.52327
1.7083
1.95626
2.29627
2.75055
3.33199
4.04276
4.87418
5.80771
6.8171
7.8714
8.9386
9.98941
11.0009
11.9596
12.8632
13.7214
14.5551
15.3935
16.2705
17.22
18.2705
19.44
20.7322
22.1339
23.6139
25.1247
26.6051
27.985
29.1906
30.1492
30.7937
31.0654
30.915
30.3028
29.1974
27.5752
25.4198
22.7237
19.4912
15.7421
11.5167
6.87953
1.92171
-3.23943
-8.46346
-13.5928
-18.4605
-22.8978
-26.7399
-29.8268
-31.9983
-33.0817
-32.8755
-31.1313
-27.5443
-21.7583
-13.3957
-2.11588
12.2995
29.8435
50.1827
72.5792
95.8605
118.454
138.498
154.014
163.138
164.361
156.761
140.175
115.294
83.6452
47.4812
9.56052
-27.134
-59.7138
-85.6958
-103.267
-111.471
-110.284
