-62.0896
-34.0666
-4.30407
25.6688
54.1105
79.2395
99.4263
113.378
120.292
119.952
112.762
99.7079
82.247
62.1533
41.3262
21.5926
4.5254
-8.70185
-17.4075
-21.4346
-21.1224
-17.2256
-10.7925
-3.02062
4.89126
11.8774
17.1095
20.0617
20.5299
18.6097
14.6362
9.10134
2.56005
-4.45817
-11.5197
-18.3297
-24.7431
-30.7452
-36.4092
-41.8407
-47.1242
-52.2813
-57.2514
-61.8983
-66.0405
-69.4989
-72.1499
-73.9714
-75.0695
-75.6747
-76.1026
-76.6816
-77.6523
-79.0561
-80.6286
-81.7228
-81.28
-77.8686
-69.7974
-55.3042
-32.8059
-1.18149
39.9463
89.9779
147.196
208.753
270.814
328.854
378.083
413.962
432.739
431.937
410.715
370.062
312.77
243.191
166.806
89.6517
17.6789
-43.873
-91.0142
-121.384
-134.435
-131.403
-115.076
-89.4063
-59.0091
-28.6265
-2.61154
15.505
23.3242
19.7418
4.95892
-19.6451
-51.7496
-88.4021
-126.359
-162.421
-193.723
-217.961
-233.543
-239.652
-236.238
-223.939
-203.961
-177.92
-147.679
-115.179
-82.2855
-50.666
-21.6898
3.63233
24.6721
41.1718
53.1992
61.0765
65.2915
66.4042
64.9604
61.4232
56.134
49.3055
41.0478
31.4198
20.4962
8.43596
-4.46249
-17.7305
-30.7308
-42.6937
-52.7832
-60.185
-64.2022
-64.3441
-60.3953
-52.4523
-40.9225
-26.4843
-10.0141
7.51057
25.1163
41.9355
57.2889
70.7399
82.1138
91.481
99.1082
105.385
110.735
115.53
120.012
124.233
128.04
131.075
132.826
132.7
130.106
124.56
115.761
103.662
88.4965
70.778
51.2557
30.8465
10.5444
-8.67841
-25.9644
-40.6481
-52.3082
-60.7887
-66.1895
-68.8294
-69.1881
-67.8354
-65.3593
-62.2998
-59.0973
-56.0605
-53.3547
-51.0101
-48.9467
-47.0109
-45.0169
-42.7888
-40.197
-37.1866
-33.7937
-30.1491
-26.4687
-23.0316
-20.1475
-18.1174
-17.1901
-17.5224
-19.1452
-21.9444
-25.6576
-29.8911
-34.1545
-37.911
-40.637
-41.8822
-41.3243
-38.8082
-34.3663
-28.2146
-20.7284
-12.3966
-3.76528
4.62582
12.3027
18.9067
24.2278
28.2176
30.9819
32.7535
33.8502
34.6235
35.4048
36.457
37.9369
39.8738
42.1656
44.5945
46.8566
48.6038
49.4907
49.22
47.5818
44.4796
39.9432
34.1243
27.2783
19.7333
11.8515
3.98689
-3.55531
-10.5523
-16.8869
-22.5567
-27.6679
-32.4142
-37.0423
-41.809
-46.933
-52.5502
-58.6759
-65.1819
-71.7919
-78.0979
-83.5976
-87.7491
-90.0359
-90.0354
-87.4796
-82.3005
-74.6523
-64.9073
-53.6244
-41.4947
-29.2699
-17.6832
-7.37272
1.18227
7.70531
12.1402
14.6409
15.5362
15.2743
14.3559
13.2656
12.41
12.0717
12.383
13.3225
14.7329
16.3565
17.8812
18.9915
19.4158
18.9643
17.5531
15.2125
12.0791
8.3741
4.37261
0.36801
-3.36305
-6.59045
-9.15196
-10.9638
-12.0204
-12.3837
-12.164
-11.4948
-10.5033
-9.27926
-7.84333
-6.11513
-3.88334
-0.778462
3.74766
10.43
20.1776
34.0312
53.0829
78.354
110.636
150.306
197.135
250.131
307.423
366.252
423.06
473.71
513.821
539.194
546.289
532.688
497.486
441.544
367.555
279.903
184.317
87.3414
-4.29637
-84.3676
-147.775
-191.06
-212.732
-213.358
-195.435
-163.04
-121.323
-75.8945
-32.2071
5.02145
32.2566
47.4328
50.0507
41.0888
22.7543
-1.88234
-29.3165
-56.045
-78.9558
-95.6314
-104.54
-105.106
-97.6665
-83.3315
-63.7831
-41.0379
-17.2101
5.70137
25.982
42.3176
53.8557
60.2153
61.4569
58.0214
50.651
40.301
28.0509
15.0198
2.2906
-9.15566
-18.4935
-25.0933
-28.5474
-28.6806
-25.5453
-19.3996
-10.6713
0.0905332
12.2721
25.2537
38.4647
51.4286
63.7929
75.3421
85.9915
95.7657
104.765
113.126
120.981
128.426
135.494
142.145
148.266
153.682
158.179
161.525
163.503
163.925
162.661
159.642
154.877
148.443
140.486
131.205
120.843
109.667
97.956
85.9833
74.0065
62.2579
50.9382
40.2121
30.2061
21.0086
12.6703
5.20784
-1.3924
-7.16764
-12.1717
-16.4672
-20.1181
-23.1836
-25.7133
-27.7448
-29.3035
-30.4044
-31.0548
-31.2582
-31.018
-30.3399
-29.2345
-27.7174
-25.809
-23.5328
-20.9141
-17.9773
-14.7449
-11.2357
-7.46522
-3.44638
0.807175
5.27637
9.93
14.7165
19.5555
24.3291
28.8769
32.9942
36.437
38.9349
40.2136
40.0244
38.1806
34.5954
29.3151
22.5415
14.6359
6.10098
-2.46282
-10.4236
-17.1999
-22.3483
-25.6416
-27.1246
-27.1343
-26.2791
-25.3733
-25.3367
-27.0693
-31.3208
-38.5737
-48.9566
-62.2046
-77.6694
-94.3822
-111.158
-126.731
-139.895
-149.638
-155.254
-156.407
-153.154
-145.923
-135.444
-122.658
-108.601
-94.2961
-80.6487
-68.3715
-57.936
-49.5564
-43.205
-38.6521
-35.5235
-33.3669
-31.7173
-30.1548
-28.3479
-26.0795
-23.2541
-19.8891
-16.0923
-12.033
-7.9101
-3.92448
-0.257403
2.94204
5.56182
7.52653
8.79546
9.36315
9.26514
8.58997
7.4956
6.22617
5.12282
4.62207
5.23573
7.50925
11.959
18.9937
28.8296
41.4126
56.3616
72.9468
90.1123
106.547
120.8
131.432
137.177
137.109
130.771
118.261
100.256
77.9666
53.027
27.3315
2.83961
-18.6284
-35.5787
-46.9911
-52.4093
-51.9645
-46.3317
-36.6275
-24.2637
-10.7778
2.33986
13.8035
22.6605
28.3841
30.9287
30.7515
28.8035
26.4914
25.6053
28.205
36.4521
52.3799
77.6037
112.989
158.321
212.022
271.002
330.685
385.278
428.269
453.135
454.178
427.362
371.049
286.476
177.908
52.3968
-80.8313
-211.305
-328.433
-422.673
-486.611
-515.779
-509.132
-469.11
-401.295
-313.71
-215.864
-117.664
-28.3376
44.5062
95.5762
122.289
124.824
105.869
70.0954
23.4652
-27.548
-76.7207
-118.736
-149.672
-167.278
-171.032
-161.998
-142.511
-115.762
-85.3282
-54.7127
-26.9513
-4.31876
11.843
21.1684
24.1969
22.2106
17.0132
10.6834
5.33638
2.91731
5.04351
12.902
27.2002
48.1615
75.5536
108.739
146.735
188.28
231.899
275.973
318.812
358.729
394.131
423.607
446.016
460.568
466.894
465.072
455.637
439.54
418.069
392.746
365.187
336.966
309.475
283.809
260.685
240.404
222.864
207.611
193.94
181.008
167.966
154.081
138.84
122.017
103.702
84.2894
64.4246
44.9208
26.6553
10.4589
-2.98749
-13.2366
-20.1282
-23.8078
-24.7076
-23.4941
-20.9903
-18.081
-15.616
-14.3206
-14.7244
-17.1157
-21.5252
-27.7377
-35.3288
-43.7219
-52.2554
-60.2548
-67.1007
-72.2865
-75.4614
-76.4553
-75.2845
-72.1387
-67.353
-61.3669
-54.6772
-47.788
-41.1643
-35.1942
-30.1607
-26.2282
-23.4414
-21.7373
-20.9671
-20.9233
-21.3711
-22.0767
-22.832
-23.4715
-23.8816
-24.0015
-23.8172
-23.3503
-22.6445
-21.7518
-20.7202
-19.5853
-18.3663
-17.0661
-15.6753
-14.1785
-12.5615
-10.8174
-8.95064
-6.97841
-4.92874
-2.83674
-0.739445
1.32944
3.34359
5.28628
7.1505
8.93704
10.6513
12.2997
13.8857
15.4074
16.8549
18.2088
19.4384
20.5003
21.3374
21.878
22.0372
21.7214
20.8351
19.2926
17.0312
14.0258
10.3019
5.94462
1.10198
-4.01995
-9.16914
-14.0668
-18.4312
-22.0036
-24.5719
-25.9908
-26.1939
-25.1972
-23.0938
-20.0391
-16.2308
-11.8835
-7.20348
-2.36533
2.5056
7.34357
12.144
16.9564
21.8698
26.9923
32.4277
38.2511
44.4866
51.0894
57.9348
64.8149
71.4453
77.481
82.5425
86.2485
88.2561
88.3023
86.2449
82.0958
76.0438
68.4599
59.8826
50.9802
42.4928
35.1569
29.6213
26.3644
25.6242
27.3506
31.1905
36.5082
42.4413
47.9882
52.1169
53.8821
52.5383
47.6328
39.0698
27.1354
12.4806
-3.93563
-20.9374
-37.248
-51.617
-62.9457
-70.3962
-73.4746
-72.0772
-66.4982
-57.3956
-45.7214
-32.6217
-19.3161
-6.96712
3.4519
11.2802
16.2768
18.7037
19.3734
19.6498
21.3879
26.798
38.2261
57.8549
87.342
127.437
177.63
235.907
298.669
360.883
416.463
458.889
481.976
480.718
452.054
395.458
313.239
210.476
94.5944
-25.3817
-139.809
-239.502
-316.76
-366.221
-385.411
-374.949
-338.36
-281.57
-212.122
-138.255
-67.9553
-8.09208
36.2448
62.1547
69.0449
58.4692
33.7297
-0.688876
-39.7693
-78.6091
-112.985
-139.776
-157.2
-164.863
-163.619
-155.296
-142.314
-127.274
-112.564
-100.032
-90.7603
-84.9675
-82.0333
-80.638
-78.9914
-75.1158
-67.1466
-53.6113
-33.6526
-7.17052
25.133
61.8102
100.817
139.732
176.027
207.342
231.747
247.94
255.383
254.341
245.829
231.491
213.397
193.818
174.986
158.873
147.011
140.376
139.337
143.675
152.668
165.212
179.976
195.563
210.648
224.094
235.021
242.837
247.222
248.089
245.523
239.715
230.908
219.361
205.331
189.08
170.891
151.103
130.128
108.47
86.7178
65.525
45.5664
27.4846
11.8303
-0.99353
-10.7758
-17.5218
-21.4553
-22.9968
-22.7206
-21.2967
-19.424
-17.7627
-16.8754
-17.181
-18.9269
-22.1811
-26.8426
-32.6662
-39.2995
-46.3231
-53.2925
-59.7764
-65.3879
-69.8087
-72.8052
-74.2362
-74.0547
-72.3025
-69.1011
-64.6377
-59.1491
-52.9026
-46.1774
-39.2461
-32.3577
-25.7243
-19.5112
-13.8324
-8.74913
-4.27441
-0.379305
2.99775
5.94083
8.54644
10.9146
13.1417
15.3154
17.512
19.7948
22.2137
24.8043
27.585
30.5522
33.6736
36.8786
40.0503
43.0184
45.5578
47.3947
48.2214
47.7214
45.6016
41.6295
35.6713
27.7244
17.9397
6.6303
-5.73778
-18.5723
-31.1978
-42.9109
-53.0432
-61.025
-66.443
-69.087
-68.9784
-66.3789
-61.7754
-55.8429
-49.3862
-43.2649
-38.3082
-35.2263
-34.5286
-36.4575
-40.9474
-47.6162
-55.7931
-64.5817
-72.953
-79.8589
-84.3506
-85.6901
-83.4367
-77.5012
-68.1578
-56.0133
-41.9387
-26.9707
-12.1971
1.361
12.8538
21.6847
27.5587
30.4941
30.7985
29.0121
25.8299
22.0101
18.2835
15.2724
13.4287
12.998
14.0092
16.2925
19.5175
23.2479
27.0041
30.325
32.8231
34.2259
34.4009
33.3622
31.2592
28.3518
24.9741
21.4937
18.2703
15.6186
13.7797
12.9017
13.0313
14.116
16.0141
18.5111
21.3395
24.1995
26.7791
28.7707
29.8861
29.868
28.5006
25.618
21.1142
14.952
7.17139
-2.10371
-12.6623
-24.2079
-36.366
-48.6979
-60.7207
-71.9328
-81.8444
-90.0101
-96.0614
-99.737
-100.906
-99.5796
-95.9134
-90.1883
-82.7783
-74.0977
-64.5338
-54.367
-43.6859
-32.309
-19.7267
-5.08228
12.7888
35.2481
63.6624
99.1415
142.229
192.59
248.759
308.002
366.352
418.851
459.995
484.347
487.242
465.49
417.96
345.961
253.32
146.152
32.31
-79.4009
-180.169
-262.14
-319.283
-348.044
-347.696
-320.362
-270.693
-205.266
-131.787
-58.1921
8.2308
61.5894
97.9315
115.526
114.868
98.4212
70.1606
34.9687
-2.01491
-36.017
-63.1521
-80.7882
-87.7272
-84.1956
-71.6658
-52.5445
-29.7819
-6.45525
14.6187
31.1978
41.8249
45.9192
43.7503
36.3103
25.1122
11.9464
-1.36841
-13.2082
-22.3161
-27.9068
-29.6998
-27.8833
-23.023
-15.9335
-7.53392
1.29147
9.81042
17.524
24.206
29.9008
34.8839
39.5962
44.5633
50.3116
57.2921
65.8215
76.0429
87.9111
101.199
115.526
130.392
145.235
159.472
172.554
184.002
193.434
200.581
205.289
207.504
207.26
204.651
199.809
192.885
184.033
173.406
161.16
147.46
132.498
116.505
99.7699
82.6396
65.5142
48.829
33.0237
18.5045
5.60287
-5.46121
-14.6061
-21.8998
-27.5537
-31.8981
-35.3437
-38.3325
-41.2869
-44.5614
-48.4045
-52.9351
-58.1341
-63.8535
-69.8388
-75.7609
-81.2547
-85.9573
-89.5417
-91.7445
-92.3834
-91.3651
-88.6838
-84.4138
-78.6956
-71.7207
-63.7157
-54.9272
-45.609
-36.0107
-26.3695
-16.9037
-7.8076
0.750383
8.62821
15.7082
21.8933
27.1009
31.2571
34.2907
36.1292
36.698
35.9247
33.7474
30.128
25.0677
18.6236
10.9241
2.17951
-7.31357
-17.1752
-26.9542
-36.1488
-44.2356
-50.7051
-55.1021
-57.0661
-56.3697
-52.9477
-46.916
-38.5745
-28.3935
-16.9837
-5.05274
6.64875
17.3847
26.4892
33.4126
37.7546
39.2788
37.9098
33.7126
26.8621
17.6055
6.22696
-6.97885
-21.7218
-37.7157
-54.6648
-72.2404
-90.0538
-107.634
-124.416
-139.746
-152.907
-163.162
-169.818
-172.292
-170.19
-163.361
-151.95
-136.408
-117.486
-96.1892
-73.699
-51.2824
-30.1823
-11.5104
3.84827
15.3079
22.6237
25.8982
25.5525
22.2669
16.8978
10.3812
3.63524
-2.52886
-7.47735
-10.7995
-12.3252
-12.1143
-10.4223
-7.64689
-4.26437
-0.763432
2.41587
4.93127
6.5712
7.26913
7.09949
6.25731
5.02557
3.73521
2.72338
2.29485
2.69099
4.06891
6.49172
9.92923
14.2669
19.3203
24.852
30.5885
36.2359
41.4935
46.0663
49.6766
52.0766
53.061
52.4811
50.2585
46.3968
40.9904
34.2277
26.3878
17.8297
8.9741
0.279535
-7.78588
-14.774
-20.285
-23.9928
-25.6645
-25.1759
-22.5194
-17.8082
-11.2743
-3.26146
5.79048
15.3714
24.9417
33.9923
42.1232
49.1414
55.167
60.7335
66.86
75.0706
87.3347
105.91
133.081
170.809
220.326
281.722
353.614
432.947
515.015
593.723
662.107
713.056
740.162
738.581
705.775
642.011
550.539
437.384
310.783
180.325
55.902
-53.378
-140.183
-199.715
-230.14
-232.654
-211.176
-171.741
-121.668
-68.6338
-19.7677
19.1169
44.0738
53.302
47.1412
27.8078
-1.072
-35.0572
-69.5281
-100.281
-124.013
-138.643
-143.448
-139.014
-127.024
-109.928
-90.5483
-71.6711
-55.6875
-44.3142
-38.4288
-38.0272
-42.2963
-49.7841
-58.6344
-66.8535
-72.5715
-74.267
-70.9319
-62.1607
-48.1609
-29.6897
-7.93087
15.6685
39.5789
62.3652
82.8387
100.169
113.949
124.203
131.347
136.115
139.441
142.338
145.774
150.56
157.264
166.157
177.202
190.071
204.2
218.863
233.262
246.613
258.226
267.564
274.277
278.208
279.375
277.924
274.081
268.087
260.151
250.413
238.928
225.678
210.603
193.653
174.841
154.297
132.31
109.345
86.0324
63.1356
41.4867
21.9102
5.13689
-8.2765
-18.0135
-24.0388
-26.6094
-26.2525
-23.7143
-19.8851
-15.7093
-12.0937
-9.822
-9.48774
-11.4508
-15.8216
-22.4714
-31.0678
-41.1255
-52.0697
-63.2998
-74.2489
-84.4319
-93.4783
-101.147
-107.325
-112.013
-115.295
-117.315
-118.238
-118.229
-117.429
-115.948
-113.864
-111.222
-108.056
-104.391
-100.267
-95.7406
-90.8957
-85.84
-80.7
-75.6101
-70.6991
-66.0757
-61.8155
-57.9509
-54.4667
-51.3001
-48.3478
-45.4777
-42.5452
-39.4107
-35.9586
-32.1128
-27.8494
-23.202
-18.2621
-13.1717
-8.11036
-3.27758
1.12718
4.92475
7.97441
10.188
11.5387
12.063
11.8566
11.0638
9.86264
8.44583
7.00139
5.69356
4.64689
3.93497
3.57506
3.52933
3.71242
4.00453
4.26854
4.36905
4.19113
3.65636
2.73435
1.44804
-0.127595
-1.87343
-3.63949
-5.26206
-6.58227
-7.46395
-7.80848
-7.56487
-6.734
-5.36677
-3.55644
-1.42646
0.884656
3.23959
5.51766
7.62789
9.51821
11.1801
12.6479
13.9934
15.3153
16.726
18.3349
20.2325
22.4739
25.0665
27.9606
31.0452
34.1496
37.0483
39.4708
41.1114
41.6418
40.7239
38.0243
33.2344
26.0938
16.4218
4.15276
-10.6265
-27.6424
-46.4102
-66.2279
-86.1923
-105.243
-122.232
-136.016
-145.563
-150.057
-148.989
-142.229
-130.054
-113.139
-92.504
-69.4219
-45.3038
-21.5664
0.496429
19.8259
35.6809
47.6819
55.8137
60.3878
61.9715
61.2958
59.1528
56.2976
53.3657
50.8146
48.8945
47.6483
46.9389
46.4955
45.9726
45.0094
43.2841
40.5536
36.6759
31.6146
25.4268
18.2413
10.2326
1.59769
-7.45844
-16.7236
-25.9636
-34.8921
-43.1256
-50.1312
-55.1735
-57.2754
-55.2097
-47.5401
-32.7314
-9.33858
23.7295
66.8931
119.579
179.951
244.77
309.441
368.292
415.078
443.685
448.931
427.358
377.888
302.22
204.896
92.9769
-24.6145
-138.041
-237.645
-315.048
-364.121
-381.672
-367.794
-325.801
-261.791
-183.892
-101.287
-23.1578
42.3273
88.8614
112.585
112.359
89.6991
48.4217
-5.9615
-66.9913
-128.06
-183.157
-227.483
-257.86
-272.915
-273.041
-260.142
-237.248
-208.027
-176.287
-145.518
-118.529
-97.2064
-82.415
-74.0316
-71.0927
-72.0252
-74.9219
-77.8241
-78.9769
-77.0303
-71.1679
-61.1563
-47.3179
-30.4374
-11.619
7.8844
26.8487
44.2417
59.3537
71.8827
81.9659
90.1541
97.3361
104.619
113.182
124.118
138.292
156.213
177.961
203.16
231.003
260.34
289.788
317.89
343.262
364.739
381.487
393.077
399.501
401.143
398.695
393.049
385.157
375.899
365.958
355.734
345.298
334.403
322.536
309.019
293.139
274.28
252.053
226.397
197.628
166.449
133.905
101.282
69.9882
41.4066
16.7527
-3.05001
-17.4618
-26.3747
-30.1139
-29.3925
-25.2278
-18.8291
-11.4712
-4.3691
1.43391
5.15188
6.30839
4.75181
0.634318
-5.63991
-13.4891
-22.2401
-31.2147
-39.8058
-47.5338
-54.0794
-59.2892
-63.1585
-65.7944
-67.3701
-68.0756
-68.0752
-67.4778
-66.322
-64.5805
-62.178
-59.0212
-55.0341
-50.1908
-44.5429
-38.2333
-31.4968
-24.6448
-18.0381
-12.0506
-7.02958
-3.25761
-0.922243
-0.0964945
-0.732769
-2.67031
-5.65442
-9.36417
-13.4444
-17.5382
-21.3149
-24.4935
-26.8574
-28.2616
-28.6335
-27.9658
-26.3049
-23.7348
-20.3592
-16.284
-11.6034
-6.39119
-0.699878
5.43268
11.9692
18.8539
25.9922
33.2318
40.3513
47.0581
52.999
57.7826
61.0139
62.3346
61.4663
58.2497
52.674
44.8934
35.226
24.1371
12.2056
0.0800879
-11.5731
-22.1219
-31.017
-37.8307
-42.2831
-44.2543
-43.7812
-41.0424
-36.3316
-30.0248
-22.5435
-14.3199
-5.76426
2.75995
10.9534
18.5897
25.5159
31.6461
36.9502
41.4394
45.1515
48.1365
50.4461
52.1256
53.2126
53.7394
53.7433
53.2805
52.4453
51.3878
50.3284
49.5624
49.452
50.4015
52.8166
57.0514
63.3461
71.768
82.1619
94.1225
106.995
119.908
131.842
141.721
148.52
151.381
149.713
143.269
132.189
117.004
98.5886
78.0897
56.8137
36.1037
17.2121
1.18543
-11.2261
-19.626
-23.9899
-24.6461
-22.2214
-17.5631
-11.6455
-5.47491
-0.000865884
3.95567
5.75367
4.95993
1.35442
-5.08381
-14.2053
-25.7284
-39.282
-54.4514
-70.8233
-88.0328
-105.807
-124.005
-142.648
-161.933
-182.221
-203.997
-227.802
-254.137
-283.355
-315.547
-350.447
-387.364
-425.16
-462.273
-496.786
-526.544
-549.296
-562.854
-565.264
-554.972
-530.99
-493.052
-441.758
-378.691
-306.49
-228.843
-150.38
-76.4375
-12.6929
35.3212
62.7753
66.1156
43.5716
-4.47794
-75.3485
-164.146
-264.124
-367.274
-465.089
-549.404
-613.22
-651.405
-661.19
-642.397
-597.388
-530.74
-448.698
-358.47
-267.466
-182.549
-109.399
-52.0377
-12.5726
8.84564
13.8476
5.49499
-12.1931
-34.7751
-57.9175
-77.8618
-91.7802
-97.9905
-96.0169
-86.5057
-71.0185
-51.74
-31.1419
-11.6491
4.65485
16.2503
22.314
22.7546
18.1574
9.65282
-1.2673
-12.9599
-23.8395
-32.5609
-38.1574
-40.1207
-38.4206
-33.4643
-26.0091
-17.0394
-7.62731
1.20714
8.62147
14.0495
17.2653
18.4081
17.9671
16.7281
15.6896
15.9531
18.6028
24.5825
34.5852
48.9666
67.691
90.3168
116.024
143.678
171.927
199.318
224.419
245.94
262.827
274.334
280.061
279.952
274.264
263.504
248.359
229.611
208.066
184.49
159.574
133.915
108.025
82.3501
57.2996
33.2719
10.6739
-10.075
-28.5544
-44.3688
-57.1826
-66.7591
-72.9939
-75.9382
-75.8062
-72.9649
-67.9083
-61.2171
-53.5128
-45.4086
-37.4658
-30.1585
-23.851
-18.7874
-15.0932
-12.7876
-11.8004
-11.9943
-13.1863
-15.1679
-17.7221
-20.6366
-23.7142
-26.7786
-29.68
-32.2964
-34.5357
-36.3353
-37.6604
-38.502
-38.8724
-38.8002
-38.3238
-37.4849
-36.3222
-34.8668
-33.1394
-31.1508
-28.9049
-26.4042
-23.6576
-20.6873
-17.5351
-14.266
-10.9681
-7.74784
-4.72303
-2.01147
0.28072
2.07084
3.30925
3.98561
4.13076
3.81401
3.13603
2.2184
1.19106
0.179242
-0.70846
-1.38966
-1.81424
-1.96647
-1.86317
-1.54836
-1.08541
-0.547622
-0.00863648
0.466246
0.826932
1.04294
1.10514
1.02494
0.831445
0.567109
0.282717
0.0322817
-0.131567
-0.161329
-0.0173108
0.330787
0.903277
1.71067
2.75436
4.02761
5.51651
7.20088
9.05501
11.0483
13.146
15.3099
17.4997
19.6747
21.7959
23.8286
25.7448
27.5264
29.1668
30.672
32.0607
33.3629
34.6167
35.8646
37.1481
38.5024
39.9511
41.5012
43.14
44.8326
46.5229
48.1357
49.5815
50.7631
51.5835
51.9545
51.8047
51.0866
49.7815
47.9014
45.4888
42.6121
39.3602
35.8337
32.1367
28.3692
24.6197
20.9622
17.4534
14.1346
11.0346
8.17337
5.56707
3.23123
1.18254
-0.56184
-1.98747
-3.0879
-3.87129
-4.36698
-4.63092
-4.74844
-4.83348
-5.0237
-5.47157
-6.33208
-7.74859
-9.83845
-12.6806
-16.3068
-20.6985
-25.7892
-31.4721
-37.6127
-44.063
-50.6745
-57.3093
-63.8459
-70.18
-76.2191
-81.8748
-87.0529
-91.6453
-95.5257
-98.5509
-100.57
-101.436
-101.031
-99.2783
-96.163
-91.742
-86.1436
-79.5557
-72.2025
-64.3083
-56.0507
-47.5059
-38.5886
-28.9934
-18.1485
-5.19334
11.0002
31.7489
58.4079
92.1501
133.688
182.975
238.932
299.272
360.467
417.909
466.284
500.115
514.43
505.457
471.235
412.051
330.607
231.898
122.779
11.2874
-94.1958
-185.848
-257.241
-304.003
-324.241
-318.652
-290.339
-244.36
-187.067
-125.34
-65.8059
-14.1412
25.4681
50.6491
60.9284
57.59
43.339
21.8292
-2.87706
-26.8459
-46.7392
-60.1634
-65.8669
-63.7767
-54.8852
-41.0153
-24.5051
-7.85923
6.58665
16.9466
21.9818
21.1969
14.8349
3.78048
-10.6057
-26.6931
-42.7984
-57.3827
-69.209
-77.4422
-81.6869
-81.9665
-78.6523
-72.3597
-63.8284
-53.8056
-42.9468
-31.7448
-20.495
-9.29454
1.92775
13.3582
25.2334
37.7725
51.1181
65.2922
80.1725
95.4917
110.858
125.794
139.787
152.344
163.046
171.587
177.803
181.675
183.322
182.961
180.871
177.345
172.636
166.93
160.319
152.804
144.306
134.706
123.884
111.766
98.3685
83.8244
68.3971
52.4722
36.5299
21.1011
6.71466
-6.15936
-17.1599
-26.0736
-32.8565
-37.6348
-40.6876
-42.4109
-43.2707
-43.7501
-44.2966
-45.2771
-46.9444
-49.4187
-52.6852
-56.6072
-60.9509
-65.4192
-69.6901
-73.4531
-76.4424
-78.4609
-79.3944
-79.2155
-77.9764
-75.794
-72.8292
-69.2631
-65.2748
-61.0216
-56.6255
-52.1668
-47.6844
-43.1827
-38.6431
-34.0378
-29.3447
-24.5585
-19.6997
-14.8174
-9.98774
-5.30752
-0.884687
3.17297
6.76887
9.82707
12.2987
14.165
15.4364
16.1491
16.359
16.1347
15.551
14.6826
13.6009
12.371
11.0522
9.69842
8.35991
7.08417
5.91639
4.89837
4.06638
3.44794
3.05843
2.89791
2.94923
3.17783
3.53356
3.95468
4.37342
4.72261
4.94232
4.98569
4.82299
4.44342
3.85445
3.07884
2.14993
1.10619
-0.0142424
-1.17782
-2.3581
-3.53605
-4.69805
-5.83222
-6.92368
-7.94987
-8.8769
-9.65787
-10.2337
-10.5367
-10.4966
-10.0478
-9.13825
-7.73655
-5.83828
-3.46913
-0.685146
2.43006
5.77032
9.21301
12.6252
15.8687
18.8042
21.2944
23.207
24.4187
24.8213
24.3291
22.8887
20.4886
17.1681
13.0223
8.20314
2.91387
-2.60206
-8.07783
-13.2436
-17.8486
-21.6815
-24.5882
-26.4831
-27.3536
-27.2582
-26.3165
-24.6948
-22.5886
-20.2033
-17.7366
-15.3638
-13.2277
-11.4332
-10.0465
-9.09873
-8.59192
-8.50683
-8.81042
-9.46219
-10.4183
-11.6334
-13.0591
-14.6413
-16.3155
-18.0027
-19.6053
-21.0068
-22.0737
-22.6614
-22.6244
-21.8278
-20.162
-17.5555
-13.9872
-9.49476
-4.17916
1.79615
8.21073
14.7975
21.2569
27.2745
32.5404
36.7688
39.7176
41.2055
41.125
39.4514
36.246
31.6528
25.8905
19.2377
12.0154
4.56587
-2.76893
-9.66885
-15.8544
-21.102
-25.2544
-28.2252
-29.9985
-30.6221
-30.1967
-28.8618
-26.7785
-24.1129
-21.0182
-17.6181
-13.9877
-10.1319
-5.95635
-1.23131
4.45132
11.7213
21.4613
34.8082
53.1047
77.7826
110.168
151.218
201.204
259.407
323.871
391.291
457.088
515.71
561.143
587.591
590.233
565.951
513.906
435.874
336.256
221.762
100.773
-17.5127
-124.064
-210.993
-272.394
-304.949
-308.21
-284.553
-238.805
-177.599
-108.563
-39.4374
22.7636
72.453
105.953
121.719
120.299
104.048
76.6589
42.5776
6.38648
-27.7633
-56.6062
-78.0546
-91.3078
-96.7816
-95.8837
-90.6796
-83.5028
-76.5665
-71.6288
-69.7516
-71.1795
-75.3465
-81.0007
-86.423
-89.7052
-89.0453
-83.0209
-70.8033
-52.2868
-28.1186
0.369166
31.3155
62.5484
91.8369
117.142
136.839
149.881
155.89
155.171
148.647
137.73
124.144
109.736
96.2747
85.2782
77.8843
74.7675
76.1139
81.6497
90.7145
102.369
115.522
129.056
141.946
153.353
162.686
169.63
174.132
176.369
176.68
175.487
173.212
170.199
166.655
162.615
157.936
152.326
145.4
136.756
126.06
113.123
97.9642
80.8422
62.2567
42.9117
23.6509
5.37176
-11.07
-24.9522
-35.7619
-43.2459
-47.4297
-48.6031
-47.2766
-44.1136
-39.8496
-35.207
-30.8189
-27.1678
-24.5477
-23.0516
-22.5841
-22.8958
-23.6335
-24.3982
-24.8033
-24.5265
-23.348
-21.1733
-18.0374
-14.0933
-9.58631
-4.81905
-0.112778
4.23083
7.9623
10.9081
12.9839
14.196
14.633
14.4487
13.8398
13.0207
12.1999
11.5583
11.2337
11.3117
11.8227
12.7454
14.0152
15.5365
17.1955
18.8746
20.4641
21.8718
23.0294
23.8951
24.4527
24.7078
24.6813
24.402
23.8988
23.194
22.2983
21.2079
19.9039
18.3523
16.5066
14.3108
11.7035
8.62382
5.01954
0.85612
-3.87286
-9.13558
-14.8537
-20.8977
-27.0869
-33.1956
-38.9655
-44.1231
-48.4007
-51.5594
-53.4111
-53.8363
-52.797
-50.3416
-46.6019
-41.7823
-36.1424
-29.9741
-23.577
-17.2345
-11.1917
-5.64085
-0.711499
3.53028
7.07633
9.96494
12.2656
14.0625
15.4387
16.464
17.1863
17.6289
17.7919
17.6583
17.2016
16.3945
15.2151
13.6511
11.6991
9.3591
6.6257
3.47559
-0.145002
-4.3305
-9.22056
-14.996
-21.8646
-30.0355
-39.6854
-50.9177
-63.7223
-77.9385
-93.231
-109.081
-124.801
-139.57
-152.491
-162.673
-169.314
-171.789
-169.731
-163.083
-152.123
-137.455
-119.965
-100.735
-80.9502
-61.7799
-44.268
-29.2359
-17.2121
-8.39575
-2.65845
0.417473
1.46893
1.26005
0.580189
0.144906
0.512015
2.02251
4.7723
8.61628
13.2023
18.0284
22.5148
26.0809
28.2174
28.546
26.8624
23.1577
17.6214
10.6262
2.70021
-5.51083
-13.2863
-19.8767
-24.5503
-26.6405
-25.5921
-21.0046
-12.6713
-0.610285
14.9173
33.404
54.112
76.1076
98.3153
119.587
138.781
154.85
166.918
174.353
176.818
174.304
167.13
155.919
141.548
125.076
107.653
90.4283
74.4503
60.58
49.4191
41.2613
36.0712
33.4936
32.8945
33.4297
34.1391
34.0591
32.3468
28.4071
22.0121
13.4031
3.35865
-6.78444
-15.1761
-19.5767
-17.5684
-6.84948
14.4069
47.1685
91.1884
144.745
204.54
265.814
322.69
368.741
397.729
404.407
385.292
339.265
267.919
175.563
68.8838
-43.72
-153.037
-250.066
-327.022
-378.198
-400.57
-394.064
-361.475
-308.042
-240.759
-167.508
-96.1388
-33.6035
14.7416
45.6049
57.9499
52.9084
33.4486
3.85633
-30.8901
-65.7687
-96.3058
-119.045
-131.848
-134.007
-126.175
-110.139
-88.4746
-64.1473
-40.1028
-18.904
-2.45201
8.18144
12.802
12.0261
7.12018
-0.225252
-8.15167
-14.8831
-18.94
-19.2932
-15.4435
-7.42565
4.2565
18.7471
34.987
51.8704
68.3896
83.7496
97.4415
109.271
119.344
128.015
135.808
143.333
151.183
159.865
169.727
180.922
193.397
206.899
221.014
235.212
248.903
261.497
272.454
281.322
287.761
291.544
292.555
290.757
286.171
278.845
268.831
256.178
240.938
223.185
203.048
180.754
156.654
131.255
105.219
79.3415
54.509
31.6306
11.558
-4.99908
-17.5497
-25.8797
-30.0823
-30.5566
-27.9719
-23.2023
-17.2389
-11.0895
-5.67884
-1.76097
0.147115
-0.197725
-2.75979
-7.25054
-13.1808
-19.9309
-26.8305
-33.2357
-38.5968
-42.5087
-44.7386
-45.2322
-44.0975
-41.5731
-37.9849
-33.6986
-29.0746
-24.4297
-20.0101
-15.9767
-12.4028
-9.2828
-6.54843
-4.08971
-1.7773
0.516791
2.90209
5.45724
8.22271
11.1983
14.3442
17.5858
20.8196
23.9209
26.7521
29.1717
31.0435
32.2457
32.6798
32.2789
31.0143
28.8999
25.9931
22.3931
18.2342
13.6764
8.89295
4.0568
-0.673564
-5.1662
-9.32496
-13.0947
-16.4614
-19.4485
-22.1078
-24.509
-26.7264
-28.8267
-30.8586
-32.8446
-34.7778
-36.6223
-38.3183
-39.7899
-40.956
-41.7418
-42.0899
-41.9701
-41.385
-40.3734
-39.0076
-37.3881
-35.6333
-33.8676
-32.2068
-30.7441
-29.5379
-28.6015
-27.8983
-27.3416
-26.7995
-26.1047
-25.0693
-23.5003
-21.2174
-18.0695
-13.9488
-8.80219
-2.63724
4.47548
12.4057
20.9714
29.9506
39.0969
48.1565
56.8853
65.0646
72.5136
79.0959
84.7206
89.337
92.9239
95.4745
96.9817
97.4238
96.7564
94.9112
91.8032
87.3463
81.4762
74.1745
65.4932
55.5726
44.6496
33.0544
21.1943
9.52747
-1.4725
-11.3541
-19.7246
-26.2805
-30.8281
-33.2919
-33.7112
-32.2252
-29.0492
-24.4466
-18.7001
-12.0846
-4.84776
2.80347
10.7073
18.7444
26.8303
34.9039
42.9153
50.8154
58.5477
66.0433
73.2195
79.9801
86.2168
91.8092
96.6229
100.504
103.269
104.699
104.53
102.456
98.1392
91.2385
81.4493
68.5565
52.4931
33.3961
11.6493
-12.0952
-36.9273
-61.7211
-85.2119
-106.098
-123.159
-135.374
-142.029
-142.793
-137.757
-127.429
-112.686
-94.6828
-74.7403
-54.2137
-34.3667
-16.2617
-0.679694
11.9225
21.4137
27.9531
31.9232
33.8436
34.2783
33.7477
32.6588
31.2599
29.6244
27.6635
25.1632
21.8393
17.4008
11.6147
4.36479
-4.29765
-14.113
-24.579
-34.9228
-44.0794
-50.6852
-53.0994
-49.4706
-37.868
-16.4851
16.0848
60.5281
116.486
182.288
254.81
329.513
400.698
461.991
506.993
530.051
527.023
495.927
437.373
354.687
253.71
142.25
29.2885
-75.9885
-165.196
-231.661
-271.124
-282.143
-266.159
-227.213
-171.386
-106.009
-38.7858
23.0815
73.6527
108.805
126.538
127.002
112.278
85.9441
52.5118
16.7992
-16.6668
-44.1554
-63.0891
-72.2263
-71.6632
-62.6755
-47.4349
-28.6494
-9.17992
8.32021
21.6994
29.5107
31.1085
26.643
16.9628
3.45186
-12.1746
-28.0852
-42.5338
-54.0269
-61.4435
-64.1015
-61.7719
-54.6465
-43.2688
-28.4411
-11.1194
7.69221
27.0387
46.0952
64.2279
81.0318
96.3453
110.24
122.989
135.019
146.841
158.979
171.898
185.933
201.24
217.763
235.228
253.162
270.937
287.833
303.104
316.055
326.103
332.828
335.994
335.549
331.6
324.371
314.145
301.222
285.87
268.303
248.686
227.145
203.803
178.818
152.419
124.929
96.7801
68.497
40.6737
13.9299
-11.139
-34.013
-54.2929
-71.7325
-86.2562
-97.9569
-107.078
-113.98
-119.097
-122.892
-125.806
-128.222
-130.433
-132.627
-134.878
-137.162
-139.371
-141.34
-142.88
-143.804
-143.954
-143.222
-141.555
-138.96
-135.492
-131.24
-126.308
-120.787
-114.744
-108.201
-101.141
-93.5099
-85.2345
-76.2474
-66.5119
-56.0456
-44.9377
-33.3557
-21.541
-9.79363
1.55291
12.1614
21.7222
29.9814
36.7625
41.9787
45.6356
47.8246
48.7089
48.5039
47.4556
45.8182
43.8345
41.719
39.6461
37.7421
36.0827
34.6945
33.5607
32.6301
31.8278
31.0678
30.2652
29.347
28.261
26.9821
25.5153
23.8955
22.1838
20.4617
18.8215
17.3562
16.148
15.2566
14.7092
14.4937
14.5541
14.792
15.0728
15.2364
15.1135
14.5446
13.3988
11.593
9.10451
5.97879
2.32837
-1.67628
-5.82329
-9.8814
-13.6247
-16.8565
-19.4305
-21.2639
-22.3446
-22.7278
-22.5257
-21.8899
-20.9897
-19.9896
-19.0276
-18.1984
-17.5428
-17.0447
-16.6351
-16.2037
-15.6144
-14.7241
-13.4012
-11.5418
-9.08119
-6.00036
-2.32634
1.8718
6.4898
11.3949
16.4302
21.415
26.1406
30.3644
33.805
36.1424
37.0282
36.1076
33.0528
27.6045
19.6166
9.09543
-3.7726
-18.6122
-34.8722
-51.8613
-68.8026
-84.9013
-99.4171
-111.732
-121.402
-128.198
-132.107
-133.327
-132.226
-129.297
-125.092
-120.164
-115.015
-110.051
-105.561
-101.705
-98.5232
-95.9596
-93.8882
-92.1457
-90.561
-88.9786
-87.2732
-85.3554
-83.1695
-80.685
-77.8856
-74.7591
-71.2896
-67.4557
-63.2334
-58.6034
-53.562
-48.1307
-42.3642
-36.3539
-30.2255
-24.1304
-18.2326
-12.6928
-7.65147
-3.21356
0.561954
3.66748
6.14557
8.08172
9.5924
10.81
11.867
12.8819
13.9477
15.1253
16.4413
17.8908
19.4434
21.0516
22.6612
24.2194
25.6823
27.0193
28.2141
29.2628
30.169
30.9383
31.5715
32.0599
32.3815
32.5012
32.3723
31.9418
31.1568
29.9712
28.353
26.2918
23.8079
20.9671
17.9049
14.8634
12.2415
10.652
10.9739
14.3782
22.3037
36.3587
58.1337
88.9283
129.415
179.291
236.985
299.493
362.413
420.216
466.754
495.956
502.628
483.24
436.556
364.021
269.804
160.481
44.3944
-69.2477
-171.398
-254.189
-311.804
-341.088
-341.827
-316.656
-270.637
-210.557
-144.067
-78.7551
-21.2985
23.2228
51.7682
63.5
59.6677
43.2491
18.4118
-10.1248
-37.7395
-60.4918
-75.5683
-81.5498
-78.4788
-67.736
-51.754
-33.6167
-16.6014
-3.72426
2.65578
1.12877
-8.60801
-25.7379
-48.4521
-74.195
-99.989
-122.799
-139.885
-149.11
-149.154
-139.633
-121.09
-94.8951
-63.042
-27.8952
8.09202
42.6507
73.9277
100.652
122.223
138.708
150.769
159.516
166.326
172.638
179.759
188.703
200.08
214.039
230.278
248.108
266.561
284.525
300.886
314.663
325.11
331.795
334.621
333.812
329.86
323.445
315.33
306.258
296.86
287.578
278.622
269.955
261.319
252.284
242.325
230.905
217.56
201.971
184.013
163.782
141.594
117.948
93.4858
68.9274
45.0055
22.406
1.71737
-16.6049
-32.2574
-45.0924
-55.1077
-62.427
-67.2747
-69.9485
-70.7939
-70.1826
-68.4948
-66.1056
-63.3758
-60.6434
-58.2166
-56.367
-55.3221
-55.2585
-56.2962
-58.4944
-61.8514
-66.3071
-71.7496
-78.0243
-84.9455
-92.308
-99.8975
-107.501
-114.911
-121.932
-128.38
-134.083
-138.88
-142.617
-145.148
-146.334
-146.038
-144.13
-140.486
-134.997
-127.576
-118.173
-106.794
-93.5196
-78.5287
-62.1116
-44.6809
-26.7697
-9.0165
7.86398
23.1232
36.0326
45.9426
52.3437
54.9195
53.5893
48.5311
40.1835
29.2236
16.5221
3.07827
-10.0578
-21.8697
-31.4559
-38.1007
-41.3257
-40.9175
-36.9286
-29.652
-19.5732
-7.30804
6.46681
21.0789
35.9135
50.4478
64.2636
77.038
88.5171
98.4804
106.705
112.942
116.903
118.28
116.771
112.137
104.257
93.184
79.1861
62.7678
44.6607
25.7844
7.17995
-10.0768
-24.9731
-36.6548
-44.5094
-48.2245
-47.8161
-43.6227
-36.2666
-26.5875
-15.5566
-4.18186
6.58498
15.9297
23.2368
28.1258
30.4609
30.3343
28.029
23.9658
18.6427
12.5734
6.23376
0.0188778
-5.78228
-10.9954
-15.5521
-19.4681
-22.8115
-25.6683
-28.1106
-30.1714
-31.8318
-33.0189
-33.6176
-33.4902
-32.5032
-30.5546
-27.5982
-23.6615
-18.8539
-13.3638
-7.44607
-1.40066
4.45517
9.81669
14.4207
18.0703
20.6521
22.145
22.6185
22.2219
21.1655
19.6949
18.0635
16.5045
15.2063
14.2943
13.8199
13.7592
14.0207
14.4592
14.8975
15.1491
15.0413
14.4356
13.2412
11.4234
9.00332
6.05253
2.68279
-0.966314
-4.73988
-8.47867
-12.0273
-15.2397
-17.9814
-20.131
-21.5804
-22.2358
-22.021
-20.8816
-18.7923
-15.7644
-11.8539
-7.16795
-1.86833
3.82923
9.66125
15.3284
20.513
24.901
28.2062
30.1952
30.7083
29.6759
27.1262
23.1839
18.0594
12.0294
5.41272
-1.45889
-8.26794
-14.736
-20.6424
-25.8351
-30.2344
-33.8284
-36.6615
-38.8158
-40.385
-41.4382
-41.973
-41.8573
-40.7633
-38.104
-32.9877
-24.2127
-10.3238
10.249
38.9657
76.8771
124.286
180.423
243.214
309.188
373.603
430.784
474.683
499.574
500.817
475.567
423.309
346.14
248.73
137.949
22.2062
-89.4332
-188.222
-266.684
-319.41
-343.607
-339.326
-309.358
-258.815
-194.456
-123.869
-54.5938
6.68857
54.8119
86.5612
100.848
98.6282
82.5856
56.6495
25.4082
-6.49673
-34.922
-56.6587
-69.7124
-73.4081
-68.3245
-56.0834
-39.0343
-19.8823
-1.31126
14.3512
25.3908
30.8612
30.6279
25.3065
16.1142
4.66149
-7.28454
-18.0323
-26.1656
-30.6887
-31.1051
-27.4268
-20.1191
-9.99574
1.91841
14.5365
26.8515
38.0529
47.6086
55.3027
61.2315
65.7602
69.4513
72.9734
77.0062
82.1503
88.8533
97.3601
107.688
119.631
132.788
146.61
160.464
173.698
185.702
195.968
204.12
209.94
213.363
214.462
213.414
210.464
205.878
199.908
192.763
184.583
175.437
165.331
154.227
142.071
128.831
114.526
99.2623
83.2438
66.779
50.2673
34.1716
18.9791
5.15634
-6.897
-16.8878
-24.6587
-30.2029
-33.6626
-35.3116
-35.5247
-34.7379
-33.4034
-31.9462
-30.7253
-30.0047
-29.936
-30.5547
-31.7885
-33.4775
-35.4018
-37.3144
-38.9743
-40.1754
-40.7689
-40.6752
-39.8851
-38.4513
-36.4718
-34.0695
-31.37
-28.4831
-25.489
-22.4318
-19.3203
-16.1357
-12.8432
-9.40783
-5.80878
-2.05222
1.82045
5.72995
9.56248
13.1787
16.4271
19.1601
21.2503
22.6055
23.1792
22.9768
22.0549
20.5155
18.4943
16.1467
13.6318
11.0966
8.664
6.42359
4.42801
2.69374
1.2061
-0.0727944
-1.1948
-2.21661
-3.19233
-4.16842
-5.18151
-6.25868
-7.41941
-8.6781
-10.046
-11.5313
-13.1375
-14.8595
-16.6784
-18.5561
-20.4319
-22.2209
-23.8173
-25.1017
-25.9517
-26.2563
-25.9305
-24.9279
-23.2511
-20.9551
-18.1456
-14.9702
-11.6042
-8.23348
-5.03518
-2.16077
0.277614
2.21503
3.63514
4.56518
5.06576
5.2171
5.10432
4.80405
4.37462
3.85117
3.2463
2.5557
1.76738
0.872364
-0.125349
-1.20178
-2.31028
-3.38379
-4.3418
-5.10062
-5.58537
-5.74155
-5.54416
-5.00302
-4.16331
-3.10122
-1.91548
-0.715869
0.38952
1.30659
1.96547
2.32753
2.38839
2.17704
1.75153
1.192
0.592413
0.0516104
-0.335093
-0.483453
-0.326544
0.180398
1.05658
2.29374
3.85584
5.68049
7.68217
9.75743
11.7918
13.6678
15.274
16.5138
17.3128
17.6251
17.437
16.7673
15.666
14.2097
12.4957
10.6347
8.7435
6.93833
5.32837
4.01107
3.06819
2.56278
2.53677
3.00901
3.97374
5.39956
7.2295
9.38241
11.7563
14.2337
16.6892
18.9986
21.0486
22.746
24.0253
24.8526
25.2266
25.1738
24.7411
23.9847
22.9576
21.6982
20.2211
18.5126
16.5322
14.2196
11.5068
8.33395
4.66522
0.502996
-4.10288
-9.05261
-14.2013
-19.3708
-24.3661
-28.9947
-33.0841
-36.4958
-39.1332
-40.9422
-41.9052
-42.0295
-41.332
-39.8224
-37.4849
-34.2581
-30.0095
-24.5048
-17.3698
-8.05345
4.19799
20.3354
41.4518
68.6603
102.902
144.695
193.855
249.24
308.577
368.426
424.324
471.127
503.524
516.671
506.858
472.116
412.657
331.074
232.252
122.979
11.3026
-94.296
-185.801
-256.523
-301.812
-319.523
-310.189
-276.886
-224.803
-160.6
-91.618
-25.0678
32.726
76.9228
104.553
114.657
108.189
87.6962
56.8567
19.921
-18.8505
-55.6899
-87.7042
-113.101
-131.243
-142.538
-148.194
-149.896
-149.443
-148.41
-147.887
-148.319
-149.473
-150.516
-150.204
-147.123
-139.955
-127.731
-110.013
-87.0032
-59.5506
-29.0668
2.6386
33.5753
61.8097
85.691
104.037
116.254
122.389
123.097
119.546
113.266
105.972
99.3707
94.9869
94.0187
97.2392
104.95
116.989
132.784
151.447
171.89
192.951
213.513
232.606
249.481
263.646
274.87
283.153
288.667
291.683
292.495
291.339
288.344
283.493
276.628
267.473
255.696
240.979
223.108
202.049
178.015
151.495
123.255
94.295
65.7712
38.8928
14.8035
-5.53384
-21.4364
-32.5702
-38.9799
-41.0758
-39.5808
-35.4442
-29.7343
-23.5226
-17.7755
-13.2643
-10.5036
-9.72358
-10.8763
-13.6732
-17.6454
-22.2196
-26.7961
-30.8233
-33.8565
-35.5982
-35.9167
-34.8422
-32.5445
-29.2957
-25.4245
-21.2686
-17.1297
-13.2384
-9.73069
-6.63962
-3.90114
-1.3735
1.13324
3.8215
6.86902
10.3952
14.4354
18.927
23.7089
28.5348
33.0994
37.0725
40.1381
42.0328
42.5774
41.6996
39.4431
35.9632
31.5102
26.4016
20.9892
15.6227
10.6177
6.22761
2.6262
-0.100669
-1.95306
-3.00623
-3.39346
-3.28525
-2.86765
-2.3223
-1.81011
-1.45977
-1.36145
-1.56526
-2.08383
-2.89764
-3.96211
-5.21528
-6.58531
-7.99743
-9.37994
-10.6692
-11.8139
-12.7777
-13.5414
-14.1032
-14.4783
-14.6953
-14.7931
-14.8148
-14.8025
-14.7906
-14.8015
-14.8419
-14.9019
-14.9558
-14.9659
-14.8877
-14.6759
-14.2909
-13.7048
-12.905
-11.8968
-10.7032
-9.3633
-7.92842
-6.4575
-5.01182
-3.6498
-2.42226
-1.3688
-0.51531
0.127067
0.561684
0.804856
0.883372
0.831322
0.686591
0.487374
0.26902
0.0614643
-0.112554
-0.238419
-0.30969
-0.327372
-0.298566
-0.23469
-0.149511
-0.0572022
0.0293608
0.099926
0.147706
0.169707
0.166568
0.141997
0.101907
0.0534074
0.00376708
-0.0405034
-0.0743707
-0.0947264
-0.100544
-0.0927614
-0.0739296
-0.0477073
-0.0182715
0.0102673
0.0343747
0.0514732
0.0601594
0.0602505
0.0526719
0.0392178
0.0222303
0.00424445
-0.012343
-0.0255197
-0.0337328
-0.0356749
-0.0296458
-0.0123808
0.022668
0.0874567
0.201565
0.394053
0.704472
1.1826
1.88664
2.87988
4.22595
5.98306
8.19771
10.8984
14.0897
17.7475
21.8162
26.2071
30.8007
35.4508
39.9926
44.2526
48.0611
51.2661
53.746
55.4216
56.2651
56.3042
55.6224
54.3533
52.67
50.7714
48.8642
47.1459
45.7872
44.9195
44.6268
44.9468
45.8828
47.4276
49.604
52.5168
56.4145
61.7497
69.2228
79.7904
94.6184
114.964
141.983
176.467
218.545
267.4
321.047
376.253
428.642
473.001
503.798
515.837
504.978
468.82
407.212
322.528
219.62
105.443
-11.6093
-122.583
-218.945
-293.524
-341.306
-359.962
-350.05
-314.882
-260.061
-192.772
-120.924
-52.2415
6.56059
50.4406
76.4526
83.8954
74.1898
50.5182
17.289
-20.4949
-57.88
-90.5388
-115.215
-129.995
-134.387
-129.223
-116.397
-98.5095
-78.4505
-58.9922
-42.437
-30.36
-23.4701
-21.5965
-23.79
-28.5169
-33.9133
-38.0614
-39.2517
-36.1998
-28.1937
-15.158
2.36526
23.3115
46.2468
69.5559
91.6401
111.1
126.881
138.374
145.446
148.43
148.048
145.311
141.384
137.458
134.626
133.781
135.544
140.227
147.825
158.044
170.341
183.988
198.144
211.918
224.446
234.938
242.731
247.322
248.38
245.761
239.489
229.749
216.853
201.214
183.32
163.703
142.926
121.562
100.183
79.3481
59.5934
41.4125
25.2379
11.4174
0.189818
-8.3354
-14.1925
-17.5627
-18.7645
-18.2309
-16.4736
-14.0395
-11.4622
-9.2155
-7.67316
-7.08104
-7.5431
-9.02344
-11.3631
-14.3089
-17.5505
-20.7606
-23.6332
-25.916
-27.4339
-28.1007
-27.92
-26.9756
-25.4136
-23.4202
-21.1962
-18.9336
-16.7958
-14.9028
-13.3236
-12.0752
-11.1274
-10.413
-9.84082
-9.30987
-8.72346
-8.00096
-7.08646
-5.95346
-4.60558
-3.07347
-1.40867
0.324507
2.05798
3.72858
5.2854
6.69466
7.94188
9.03067
9.9786
10.8106
11.5507
12.2133
12.7962
13.2743
13.5986
13.6975
13.483
12.8603
11.7398
10.0501
7.75099
4.84338
1.37653
-2.54992
-6.78868
-11.1527
-15.4271
-19.3852
-22.805
-25.4874
-27.2716
-28.0486
-27.7689
-26.4467
-24.1572
-21.0304
-17.2399
-12.9898
-8.50108
-3.99783
0.304923
4.211
7.55053
10.1852
12.0114
12.9621
13.0069
12.1528
10.4431
7.95638
4.8055
1.13484
-2.88335
-7.0545
-11.1696
-15.0154
-18.3867
-21.1
-23.0077
-24.0108
-24.0688
-23.2058
-21.5097
-19.1272
-16.2508
-13.1027
-9.91397
-6.90357
-4.25838
-2.11717
-0.560105
0.394954
0.789241
0.713553
0.293874
-0.325862
-1.00163
-1.6056
-2.03902
-2.24044
-2.18864
-1.90044
-1.42401
-0.829172
-0.195893
0.397177
0.882842
1.21296
1.36287
1.33231
1.14323
0.834907
0.457389
0.0642199
-0.294572
-0.578338
-0.759916
-0.827634
-0.785174
-0.649526
-0.447495
-0.211328
0.0258714
0.234373
0.39118
0.482193
0.503041
0.458598
0.361396
0.229249
0.0824536
-0.059008
-0.177928
-0.261647
-0.302874
-0.299252
-0.251462
-0.159729
-0.0189179
0.187198
0.49148
0.947428
1.63022
2.63361
4.06215
6.01881
8.58938
11.8253
15.7278
20.2354
25.2184
30.4805
35.7695
40.7957
45.2567
48.8654
51.3782
52.6198
52.5017
51.0322
48.3159
44.5452
39.9815
34.9315
29.7197
24.6604
20.0323
16.0583
12.8919
10.6108
9.21911
8.65692
8.81642
9.56484
10.7738
12.3558
14.309
16.7701
20.0708
24.7922
31.8005
42.2466
57.5067
79.0488
108.216
145.939
192.41
246.773
306.894
369.281
429.207
481.057
518.891
537.151
531.434
499.194
440.285
357.214
255.072
141.114
24.0449
-86.914
-183.038
-257.073
-304.028
-321.698
-310.834
-274.969
-219.916
-153.02
-82.2651
-15.3568
41.1085
82.2917
105.507
110.336
98.4725
73.3227
39.449
1.92146
-34.3287
-65.0772
-87.2347
-99.0954
-100.394
-92.1813
-76.5521
-56.2733
-34.368
-13.7109
3.31583
15.0697
20.7768
20.5392
15.2315
6.31114
-4.42496
-15.1015
-24.009
-29.8012
-31.6264
-29.1814
-22.6898
-12.8143
-0.521553
13.0783
26.8929
39.9894
51.6985
61.6725
69.8931
76.6349
82.3945
87.7977
93.501
100.1
108.053
117.635
128.912
141.741
155.799
170.62
185.64
200.253
213.857
225.897
235.899
243.49
248.418
250.549
249.86
246.426
240.397
231.971
221.375
208.841
194.596
178.858
161.844
143.785
124.944
105.632
86.2211
67.1433
48.8744
31.9051
16.7001
3.65107
-6.9693
-15.0434
-20.6294
-23.9614
-25.428
-25.5315
-24.8327
-23.8873
-23.1846
-23.094
-23.8285
-25.4277
-27.7646
-30.5735
-33.4953
-36.1351
-38.1221
-39.1657
-39.0983
-37.901
-35.7061
-32.7794
-29.4816
-26.2171
-23.3754
-21.2748
-20.115
-19.9472
-20.6635
-22.0091
-23.6148
-25.0453
-25.8564
-25.6543
-24.1475
-21.1861
-16.7819
-11.1088
-4.48387
2.66877
9.86366
16.6048
22.4346
26.975
29.9582
31.2441
30.8243
28.8149
25.4404
21.0104
15.8937
10.491
5.2074
0.42724
-3.50879
-6.32373
-7.82067
-7.89505
-6.54196
-3.85796
-0.0366243
4.64265
9.83234
15.1404
20.1587
24.493
27.7941
29.7849
30.2821
29.2108
26.6092
22.6241
17.4969
11.5426
5.12217
-1.38725
-7.62231
-13.2606
-18.0427
-21.7869
-24.3957
-25.8548
-26.2241
-25.6228
-24.2124
-22.1776
-19.7093
-16.9917
-14.1926
-11.4599
-8.921
-6.68528
-4.84743
-3.48995
-2.68335
-2.48354
-2.92639
-4.0204
-5.73911
-8.01506
-10.7372
-13.7528
-16.8755
-19.8975
-22.6062
-24.803
-26.3217
-27.0439
-26.9109
-25.9284
-24.1659
-21.7484
-18.8439
-15.6473
-12.3611
-9.1785
-6.26687
-3.7559
-1.73003
-0.225897
0.765354
1.29168
1.43071
1.27849
0.9379
0.507848
0.0742977
-0.296108
-0.559533
-0.695519
-0.70496
-0.606059
-0.428967
-0.209903
0.0145302
0.2122
0.359059
0.441315
0.456184
0.411467
0.324255
0.219158
0.126372
0.0797936
0.115317
0.269312
0.577227
1.07222
1.78376
2.73602
3.94614
5.42224
7.16126
9.14679
11.3471
13.7139
16.1816
18.669
21.0812
23.3151
25.2646
26.8292
27.9216
28.4758
28.4541
27.8511
26.6962
25.0512
23.0061
20.6711
18.1668
15.6137
13.1217
10.7808
8.65506
6.77912
5.15888
3.77548
2.59244
1.5647
0.648384
-0.190079
-0.96664
-1.67492
-2.28401
-2.73761
-2.95168
-2.80653
-2.12863
-0.658447
1.99546
6.41029
13.397
24.0223
39.5804
61.4933
91.1265
129.526
177.104
233.317
296.407
363.271
429.513
489.726
537.975
568.462
576.274
558.105
512.844
441.924
349.365
241.479
126.274
12.6226
-90.6964
-175.954
-237.302
-271.377
-277.595
-258.116
-217.488
-162.039
-99.0833
-36.0653
20.2561
64.4922
93.0985
104.6
99.5573
80.3059
50.5067
14.5923
-22.8247
-57.501
-86.0112
-106.05
-116.566
-117.734
-110.778
-97.6895
-80.8893
-62.8709
-45.8834
-31.6826
-21.3741
-15.36
-13.3808
-14.6383
-17.9714
-22.0586
-25.6146
-27.5591
-27.1359
-23.976
-18.0996
-9.86682
0.112352
11.0916
22.3075
33.089
42.9424
51.6044
59.0589
65.5192
71.3809
77.1549
83.3916
90.6053
99.2097
109.47
121.474
135.131
150.18
166.221
182.756
199.236
215.103
229.834
242.97
254.142
263.079
269.599
273.604
275.056
273.953
270.314
264.162
255.517
244.404
230.864
214.977
196.886
176.821
155.121
132.239
108.739
85.2744
62.549
41.27
22.0902
5.5514
-7.96588
-18.2783
-25.4174
-29.6253
-31.3291
-31.0966
-29.579
-27.4458
-25.3213
-23.7288
-23.0484
-23.4926
-25.1005
-27.752
-31.1964
-35.0934
-39.0591
-42.7136
-45.7226
-47.8304
-48.8815
-48.8285
-47.7274
-45.723
-43.0246
-39.8781
-36.5368
-33.2341
-30.1615
-27.4539
-25.1824
-23.3552
-21.9264
-20.8087
-19.8907
-19.0539
-18.1885
-17.2068
-16.0505
-14.6936
-13.1405
-11.4191
-9.57166
-7.64461
-5.67896
-3.70363
-1.73217
0.236342
2.21274
4.2105
6.23733
8.28741
10.3358
12.3364
14.224
15.9202
17.3427
18.4155
19.0799
19.3022
19.0792
18.4385
17.4343
16.1402
14.6381
13.0072
11.3132
9.60027
7.88718
6.16696
4.41145
2.57875
0.622869
-1.49604
-3.80217
-6.29633
-8.95098
-11.7083
-14.4818
-17.1608
-19.6188
-21.7231
-23.3469
-24.3814
-24.7472
-24.4036
-23.3551
-21.6536
-19.3964
-16.719
-13.785
-10.772
-7.85646
-5.19793
-2.9256
-1.1276
0.15531
0.931037
1.25241
1.20889
0.914848
0.49577
0.0742713
-0.242473
-0.372339
-0.263879
0.102499
0.717535
1.54944
2.55209
3.67344
4.86233
6.07256
7.26329
8.39596
9.4287
10.3098
10.9727
11.334
11.2971
10.7619
9.63914
7.8694
5.44121
2.40656
-1.11069
-4.91592
-8.75544
-12.3384
-15.3663
-17.5668
-18.7262
-18.7178
-17.5199
-15.2226
-12.0209
-8.19534
-4.08254
-0.038728
3.5985
6.54597
8.60376
9.67386
9.76664
8.99474
7.55566
5.70538
3.72677
1.8965
0.454942
-0.417745
-0.616335
-0.114863
1.03951
2.74161
4.84979
7.21034
9.68116
12.151
14.5519
16.8623
19.1018
21.3182
23.5683
25.8981
28.3229
30.8131
33.2864
35.6088
37.6038
39.0679
39.7926
39.5879
38.3048
35.8561
32.2308
27.5028
21.8316
15.4574
8.68748
1.87828
-4.58859
-10.3334
-15.0074
-18.3219
-20.0744
-20.1705
-18.6374
-15.6289
-11.4178
-6.37505
-0.934419
4.46014
9.42312
13.711
17.3151
20.5527
24.1407
29.2285
37.3678
50.3962
70.2233
98.5268
136.385
183.901
239.88
301.652
365.081
424.822
474.804
508.908
521.746
509.431
470.223
404.93
317.017
212.36
98.6912
-15.2039
-120.44
-209
-274.602
-313.347
-324.076
-308.393
-270.37
-215.977
-152.318
-86.7852
-26.227
23.7603
59.3451
78.7276
82.1465
71.6445
50.6421
23.3848
-5.65626
-32.3543
-53.3997
-66.6269
-71.1673
-67.4254
-56.8965
-41.8621
-25.0117
-9.04475
3.69589
11.5147
13.5478
9.82457
1.20933
-10.7624
-24.1237
-36.7558
-46.67
-52.2547
-52.4596
-46.8962
-35.8492
-20.2025
-1.29434
19.2749
39.8544
58.9474
75.3822
88.4315
97.8676
103.952
107.365
109.087
110.252
111.99
115.284
120.846
129.046
139.876
152.972
167.672
183.109
198.323
212.376
224.455
233.956
240.527
244.087
244.799
243.02
239.225
233.925
227.58
220.538
212.982
204.912
196.162
186.438
175.386
162.669
148.05
131.462
113.058
93.2297
72.5975
51.9585
32.2145
14.2784
-1.02365
-13.0436
-21.383
-25.9365
-26.9006
-24.7494
-20.1787
-14.0275
-7.18672
-0.507389
5.28264
9.64216
12.2552
13.0415
12.1395
9.86583
6.65788
3.00701
-0.608909
-3.78559
-6.23852
-7.83051
-8.57828
-8.6384
-8.27548
-7.81747
-7.6045
-7.93831
-9.03895
-11.0141
-13.8445
-17.387
-21.393
-25.5399
-29.4706
-32.8352
-35.3295
-36.7275
-36.9014
-35.8314
-33.6012
-30.3843
-26.4206
-21.9889
-17.3766
-12.8525
-8.64344
-4.91832
-1.77996
0.734727
2.64737
4.02492
4.96311
5.56879
5.94366
6.17127
6.30878
6.38387
6.39686
6.32693
6.14108
5.8039
5.28639
4.57207
3.65954
2.56093
1.29685
-0.110998
-1.64805
-3.31401
-5.12737
-7.12594
-9.36292
-11.8985
-14.7883
-18.0691
-21.746
-25.7804
-30.0839
-34.5164
-38.8916
-42.9884
-46.5674
-49.3897
-51.2383
-51.9378
-51.3713
-49.4939
-46.3397
-42.0223
-36.729
-30.7076
-24.2476
-17.6571
-11.2381
-5.26237
0.0496725
4.54391
8.14087
10.836
12.6925
13.8276
14.3951
14.565
14.5044
14.36
14.2458
14.2351
14.3585
14.6064
14.9358
15.2793
15.5564
15.6828
15.5792
15.1785
14.4293
13.2976
11.7673
9.8379
7.52245
4.84556
1.84192
-1.44346
-4.95349
-8.61568
-12.3383
-16.0073
-19.4855
-22.6154
-25.2273
-27.1521
-28.2374
-28.3671
-27.4785
-25.5776
-22.7463
-19.1426
-14.991
-10.5645
-6.16039
-2.07155
1.44198
4.17821
6.01204
6.90521
6.90661
6.1428
4.80054
3.10346
1.28615
-0.431238
-1.86443
-2.88016
-3.40319
-3.41461
-2.94234
-2.04562
-0.796651
0.737624
2.50995
4.50105
6.72016
9.19773
11.9716
15.0694
18.4904
22.1907
26.0747
29.9945
33.7598
37.1547
39.9623
41.9918
43.105
43.2389
42.4203
40.77
38.496
35.8757
33.2293
30.8872
29.1559
28.2863
28.4484
29.7158
32.0606
35.361
39.4185
43.9849
48.7954
53.6071
58.242
62.6341
66.8787
71.2829
76.4088
83.0998
92.4725
105.859
124.685
150.274
183.592
224.954
273.741
328.177
385.24
440.742
489.621
526.42
545.925
543.865
517.58
466.549
392.67
300.247
195.66
86.7331
-18.0891
-110.681
-184.142
-233.564
-256.544
-253.394
-227.018
-182.486
-126.368
-65.9196
-8.23697
40.5268
75.7797
94.8849
97.2942
84.4265
59.3232
26.1405
-10.4453
-45.8417
-76.0771
-98.2127
-110.59
-112.898
-106.07
-92.0406
-73.3978
-52.9963
-33.5728
-17.4167
-6.12984
-0.496569
-0.470529
-5.26668
-13.5373
-23.6011
-33.691
-42.1873
-47.8089
-49.7408
-47.6895
-41.8662
-32.9053
-21.7372
-9.4346
2.94442
14.4966
24.5795
32.8729
39.3914
44.451
48.597
52.5079
56.8885
62.3683
69.4176
78.2918
89.0073
101.351
114.917
129.165
143.489
157.286
170.021
181.271
190.749
198.316
203.965
207.792
209.961
210.662
210.073
208.329
205.5
201.579
196.483
190.068
182.151
172.545
161.098
147.737
132.506
115.597
97.3618
78.3116
59.086
40.4086
23.0248
7.63118
-5.19303
-15.0464
-21.7473
-25.352
-26.1482
-24.6217
-21.4038
-17.2034
-12.7336
-8.6421
-5.45133
-3.51674
-3.00559
-3.89783
-6.00703
-9.01762
-12.5329
-16.1274
-19.3977
-22.0056
-23.7105
-24.3872
-24.03
-22.7425
-20.7163
-18.2023
-15.4775
-12.8116
-10.4383
-8.53157
-7.1917
-6.44019
-6.22399
-6.42792
-6.89323
-7.43981
-7.88936
-8.08688
-7.91806
-7.32082
-6.29011
-4.87553
-3.17261
-1.30904
0.572428
2.33197
3.84959
5.03881
5.85559
6.30168
6.42209
6.2974
6.03196
5.73985
5.53053
5.4962
5.70249
6.18368
6.94269
7.95548
9.17869
10.5587
12.0408
13.5754
15.1223
16.6505
18.134
19.5467
20.855
22.0129
22.9591
23.6184
23.9078
23.7464
23.0673
21.8308
20.0354
17.7251
14.9909
11.9666
8.81827
5.72888
2.88012
0.433647
-1.48563
-2.80205
-3.49594
-3.60372
-3.21173
-2.44445
-1.44914
-0.378708
0.624882
1.44459
1.99821
2.24314
2.17595
1.82712
1.25214
0.520535
-0.295573
-1.13163
-1.93829
-2.68569
-3.36405
-3.98092
-4.55597
-5.11432
-5.67979
-6.26923
-6.8888
-7.53282
-8.1851
-8.82246
-9.41958
-9.95429
-10.4121
-10.7894
-11.0946
-11.347
-11.5739
-11.8062
-12.0739
-12.4016
-12.8057
-13.2929
-13.8612
-14.5018
-15.2024
-15.9505
-16.7356
-17.5507
-18.3913
-19.2534
-20.1301
-21.0077
-21.8625
-22.6584
-23.3474
-23.8715
-24.1672
-24.1714
-23.8289
-23.099
-21.9616
-20.4218
-18.5119
-16.2908
-13.8412
-11.2637
-8.66914
-6.17069
-3.87432
-1.87063
-0.227963
1.01254
1.8392
2.26942
2.34669
2.13537
1.71392
1.16747
0.580475
0.030491
-0.416531
-0.708975
-0.810429
-0.698991
-0.365526
0.188601
0.953879
1.91486
3.05218
4.34457
5.77096
7.31276
8.95626
10.6947
12.5293
14.469
16.5285
18.7232
21.0636
23.5479
26.1545
28.8361
31.5166
34.0915
36.4325
38.397
39.841
40.6341
40.6752
39.9059
38.3204
35.9692
32.9572
29.4335
25.5767
21.5759
17.6103
13.8307
10.345
7.21121
4.43752
1.99144
-0.18438
-2.15045
-3.94511
-5.55691
-6.89545
-7.76054
-7.80967
-6.52525
-3.18639
3.14515
13.6109
29.4968
52.114
82.6136
121.741
169.554
225.156
286.492
350.272
412.073
466.64
508.37
531.947
533.028
508.894
458.963
385.067
291.444
184.424
71.84
-37.7734
-136.083
-215.854
-271.716
-300.715
-302.567
-279.602
-236.409
-179.237
-115.23
-51.6058
5.12723
49.8207
79.1345
91.7442
88.2992
71.1577
43.9456
11.0094
-23.1634
-54.4838
-79.6989
-96.6837
-104.568
-103.695
-95.4411
-81.9213
-65.6405
-49.1304
-34.6218
-23.7894
-17.5924
-16.2217
-19.1502
-25.2687
-33.0832
-40.9416
-47.2605
-50.7218
-50.4194
-45.9403
-37.3784
-25.2831
-10.5566
5.68459
22.2632
38.0905
52.2943
64.3115
73.9375
81.3304
86.9709
91.5866
96.0501
101.263
108.044
117.02
128.558
142.71
159.212
177.508
196.81
216.186
234.654
251.288
265.306
276.138
283.476
287.279
287.757
285.322
280.518
273.939
266.147
257.599
248.593
239.242
229.472
219.05
207.642
194.873
180.408
164.018
145.638
125.405
103.667
80.9714
58.022
35.6203
14.5923
-4.28935
-20.3783
-33.2143
-42.5638
-48.4363
-51.0761
-50.9298
-48.5956
-44.7592
-40.1252
-35.3512
-30.992
-27.4593
-24.9997
-23.6933
-23.4692
-24.1364
-25.4235
-27.0231
-28.6341
-29.9981
-30.9252
-31.3085
-31.1248
-30.4236
-29.3067
-27.902
-26.3349
-24.7041
-23.063
-21.4113
-19.6969
-17.8274
-15.6892
-13.1704
-10.1843
-6.68816
-2.69593
1.71772
6.42253
11.2456
15.9905
20.4584
24.4702
27.885
30.6128
32.6213
33.9358
34.6327
34.8278
34.6626
34.2886
33.8518
33.479
33.2664
33.2717
33.5094
33.9504
34.5257
35.1346
35.655
35.9573
35.9182
35.4342
34.433
32.8815
30.7897
28.2104
25.2341
21.9813
18.5913
15.2102
11.9785
9.01992
6.43215
4.28046
2.59477
1.37013
0.570386
0.134527
-0.0152322
0.0355181
0.202174
0.40885
0.59433
0.715783
0.750064
0.69273
0.555131
0.360128
0.137095
-0.0831348
-0.272779
-0.410593
-0.484051
-0.49011
-0.434645
-0.330775
-0.196439
-0.0516047
0.0844776
0.195646
0.270541
0.303481
0.294406
0.247796
0.170553
0.0688547
-0.0557996
-0.210916
-0.41693
-0.709692
-1.14044
-1.7724
-2.67361
-3.90653
-5.51539
-7.513
-9.86891
-12.5009
-15.271
-17.9881
-20.4165
-22.2923
-23.3452
-23.3261
-22.0367
-19.3594
-15.2823
-9.91716
-3.50485
3.59291
10.9172
17.9493
24.1595
29.0598
32.2559
33.4881
32.655
29.8111
25.1369
18.8809
11.2798
2.46994
-7.59405
-19.1953
-32.8684
-49.3588
-69.528
-94.2092
-124.035
-159.261
-199.619
-244.215
-291.518
-339.417
-385.375
-426.645
-460.527
-484.644
-497.193
-497.146
-484.372
-459.669
-424.697
-381.827
-333.904
-283.978
-235.009
-189.598
-149.765
-116.807
-91.2341
-72.8069
-60.649
-53.4225
-49.5402
-47.3848
-45.5079
-42.7866
-38.5221
-32.4738
-24.8304
-16.1293
-7.13905
1.27608
8.29082
13.2354
15.682
15.4924
12.8267
8.11349
1.9911
-4.77129
-11.3609
-17.0062
-21.0503
-23.0081
-22.6021
-19.7796
-14.7082
-7.7549
0.552833
9.58084
18.6564
27.1494
34.5633
40.6323
45.4159
49.3781
53.4351
58.9515
67.6657
81.5317
102.474
132.073
171.202
219.687
276.03
337.277
399.079
455.98
501.926
530.942
537.903
519.29
473.798
402.719
309.996
201.943
86.649
-26.8727
-129.666
-213.824
-273.36
-304.841
-307.708
-284.251
-239.248
-179.323
-112.129
-45.4368
13.7198
59.7728
89.1203
100.364
94.2729
73.4919
42.0617
4.81351
-33.2739
-67.6734
-94.7995
-112.338
-119.391
-116.442
-105.151
-88.0355
-68.0694
-48.2727
-31.3281
-19.2763
-13.3152
-13.7206
-19.8846
-30.4591
-43.5782
-57.1251
-69.0105
-77.4265
-81.0481
-79.1625
-71.7158
-59.2779
-42.9354
-24.1319
-4.47598
14.4559
31.3006
45.0538
55.167
61.5891
64.7517
65.504
65.0056
64.5929
65.6304
69.3662
76.8014
88.5892
104.97
125.747
150.306
177.675
206.609
235.709
263.54
288.751
310.176
326.913
338.369
344.27
344.641
339.76
330.099
316.255
298.893
278.694
256.32
232.398
207.517
182.23
157.065
132.526
109.096
87.2273
67.3214
49.7117
34.64
22.2384
12.517
5.36295
0.54787
-2.25347
-3.43784
-3.4437
-2.72046
-1.70007
-0.773167
-0.271199
-0.454615
-1.50667
-3.5317
-6.55657
-10.5344
-15.3495
-20.8241
-26.7267
-32.7822
-38.6855
-44.1183
-48.7684
-52.3509
-54.6299
-55.4386
-54.6945
-52.4098
-48.6935
-43.7456
-37.8433
-31.3201
-24.5398
-17.8684
-11.6455
-6.15898
-1.62505
1.82544
4.15274
5.40651
5.71736
5.28268
4.34825
3.18707
2.07698
1.27846
1.01419
1.45166
2.69011
4.75308
7.58713
11.0672
15.0083
19.1824
23.3395
27.2299
30.6269
33.3452
35.2555
36.2924
36.4551
35.8009
34.4334
32.4859
30.1025
27.4196
24.5496
21.5693
18.5142
15.3795
12.1279
8.70193
5.04017
1.09441
-3.15462
-7.68483
-12.4253
-17.255
-22.0067
-26.4778
-30.4445
-33.6801
-35.9754
-37.1595
-37.1199
-35.8206
-33.3155
-29.7552
-25.3859
-20.5383
-15.6067
-11.0173
-7.19082
-4.49989
-3.22799
-3.53438
-5.43031
-8.77046
-13.2619
-18.4904
-23.9613
-29.1508
-33.5601
-36.7677
-38.4712
-38.5155
-36.9037
-33.789
-29.4518
-24.2618
-18.6336
-12.979
-7.6622
-2.96371
0.943908
4.00543
6.27676
7.90452
9.09436
10.073
11.0491
12.1795
13.5445
15.1355
16.8582
18.5472
19.9924
20.9712
21.2824
20.7766
19.3793
17.1036
14.0503
10.3979
6.38173
2.26749
-1.67868
-5.21863
-8.16636
-10.4047
-11.8934
-12.6675
-12.827
-12.5203
-11.922
-11.2097
-10.5419
-10.0397
-9.77441
-9.7621
-9.96576
-10.3034
-10.6609
-10.9073
-10.9098
-10.5465
-9.71539
-8.33942
-6.36741
-3.77284
-0.55129
3.28188
7.69276
12.6288
18.0174
23.7652
29.7567
35.857
41.9153
47.7726
53.2717
58.2686
62.6443
66.3151
69.2405
71.4263
72.9242
73.8255
74.2504
74.3338
74.2088
73.9885
73.7504
73.5223
73.2742
72.917
72.3089
71.27
69.6044
67.1271
63.6919
59.2181
53.7093
47.263
40.0687
32.3927
24.5533
16.8873
9.71355
3.29778
-2.17722
-6.63118
-10.094
-12.6997
-14.6682
-16.2763
-17.8225
-19.5894
-21.8082
-24.6289
-28.0972
-32.1392
-36.5489
-40.9768
-44.9133
-47.6669
-48.3401
-45.8125
-38.7493
-25.6547
-4.9893
24.6365
64.1993
113.953
173.123
239.654
310.101
379.695
442.64
492.622
523.501
530.092
508.927
458.885
381.565
281.342
165.063
41.4139
-79.977
-189.576
-278.99
-341.884
-374.647
-376.729
-350.602
-301.38
-236.129
-162.995
-90.2409
-25.3344
25.8202
59.4101
73.9619
70.2966
51.2195
21.005
-15.2461
-52.2881
-85.3642
-110.722
-125.957
-130.163
-123.884
-108.898
-87.865
-63.9134
-40.1991
-19.5101
-3.95286
5.24641
7.81295
4.36986
-3.72137
-14.5969
-26.1661
-36.3896
-43.524
-46.3061
-44.0604
-36.7224
-24.7846
-9.17966
8.87754
28.0643
47.1168
64.9685
80.848
94.3264
105.319
114.045
120.957
126.659
131.816
137.072
142.993
150.015
158.424
168.346
179.752
192.473
206.222
220.62
235.217
249.522
263.026
275.229
285.662
293.903
299.596
302.457
302.283
298.952
292.416
282.705
269.921
254.232
235.881
215.18
192.517
168.352
143.213
117.683
92.3777
67.9151
44.8814
23.7932
5.06177
-11.0352
-24.3726
-34.983
-43.0487
-48.8794
-52.8804
-55.5123
-57.2482
-58.5322
-59.743
-61.167
-62.9819
-65.252
-67.9355
-70.9006
-73.9498
-76.8484
-79.3535
-81.2419
-82.3338
-82.5092
-81.7184
-79.9829
-77.3897
-74.079
-70.2266
-66.0246
-61.6611
-57.3031
-53.0822
-49.0876
-45.3636
-41.9139
-38.7108
-35.7064
-32.846
-30.0796
-27.3706
-24.701
-22.0718
-19.4998
-17.0124
-14.6405
-12.4118
-10.3464
-8.45434
-6.73619
-5.18568
-3.79412
-2.5549
-1.46696
-0.536357
0.224657
0.800808
1.17869
1.35241
1.32877
1.13109
0.80064
0.395243
-0.0150102
-0.354582
-0.551012
-0.544031
-0.293993
0.211612
0.954595
1.88613
2.93064
3.99331
4.97031
5.76074
6.27866
6.46375
6.28913
5.7652
4.93889
3.88835
2.71353
1.52397
0.425382
-0.493252
-1.17009
-1.57707
-1.72174
-1.64419
-1.40949
-1.09709
-0.788517
-0.555601
-0.450724
-0.500633
-0.704537
-1.03659
-1.45217
-1.89662
-2.31514
-2.66179
-2.90641
-3.03826
-3.06597
-3.01395
-2.91628
-2.80916
-2.72356
-2.67924
-2.68121
-2.71923
-2.77008
-2.80226
-2.78205
-2.67989
-2.47599
-2.16418
-1.75362
-1.268
-0.742495
-0.219109
0.259039
0.653599
0.936359
1.0935
1.12826
1.06166
0.931099
0.786731
0.685879
0.685848
0.835901
1.16929
1.69633
2.39964
3.23217
4.11895
4.96257
5.65232
6.07627
6.13508
5.75596
4.90481
3.59486
1.88996
-0.0982004
-2.21924
-4.29876
-6.15692
-7.62849
-8.58166
-8.93302
-8.65633
-7.78389
-6.40018
-4.62863
-2.61366
-0.500521
1.58386
3.54628
5.33659
6.94985
8.4214
9.81582
11.2122
12.6882
14.3055
16.0993
18.0734
20.2003
22.4288
24.694
26.9315
29.0909
31.1477
33.1116
35.0287
36.9773
39.0569
41.372
44.0111
47.0254
50.4097
54.0889
57.9138
61.6661
65.0752
67.8431
69.6757
70.3166
69.578
67.3659
63.6946
58.6901
52.5798
45.6714
38.3229
30.9071
23.7754
17.225
11.474
6.64498
2.76115
-0.247368
-2.52737
-4.27922
-5.7288
-7.09711
-8.56827
-10.256
-12.1671
-14.1603
-15.9015
-16.8188
-16.0643
-12.4997
-4.71879
8.87253
29.907
59.8342
99.6389
149.53
208.65
274.862
344.676
413.365
475.283
524.391
554.91
562.054
542.709
495.974
423.461
329.299
219.823
102.981
-12.4779
-117.922
-205.755
-270.208
-307.906
-318.151
-302.884
-266.35
-214.515
-154.314
-92.8416
-36.5701
9.29856
41.288
57.8665
59.4221
48.0172
26.9712
0.335947
-27.663
-53.1489
-73.02
-85.239
-88.9612
-84.5056
-73.1852
-57.0342
-38.4738
-19.9672
-3.7039
8.64702
16.0936
18.3762
15.9254
9.7375
1.19218
-8.15893
-16.8028
-23.4483
-27.1606
-27.436
-24.2116
-17.8171
-8.88067
1.79484
13.3638
25.0609
36.2985
46.7285
56.2631
65.0551
73.4442
81.8796
90.8304
100.699
111.747
124.047
137.462
151.656
166.133
180.301
193.542
205.29
215.1
222.696
227.993
231.1
232.285
231.924
230.427
228.176
225.447
222.367
218.882
214.761
209.623
202.989
194.356
183.276
169.431
152.703
133.214
111.342
87.7089
63.1337
38.5634
14.9876
-6.65381
-25.5583
-41.133
-53.0439
-61.2368
-65.9284
-67.5697
-66.7875
-64.3112
-60.8953
-57.2457
-53.9579
-51.4734
-50.058
-49.8014
-50.6366
-52.3744
-54.7468
-57.4534
-60.2037
-62.7509
-64.9143
-66.5873
-67.7336
-68.3725
-68.5577
-68.3529
-67.8101
-66.9515
-65.7597
-64.176
-62.1076
-59.4419
-56.0662
-51.8897
-46.865
-41.0064
-34.4011
-27.2121
-19.6724
-12.0694
-4.72283
2.04191
7.92199
12.6628
16.0785
18.0655
18.6077
17.7733
15.7051
12.6045
8.71402
4.29808
-0.374251
-5.04367
-9.47163
-13.448
-16.7962
-19.377
-21.0915
-21.8842
-21.7457
-20.7141
-18.8746
-16.3564
-13.3248
-9.97073
-6.49591
-3.09713
0.0502978
2.80674
5.07883
6.82485
8.05427
8.8217
9.21603
9.34667
9.32844
9.26761
9.25043
9.33583
9.55251
9.90051
10.3564
10.8809
11.4272
11.9494
12.4086
12.778
13.0451
13.2116
13.2922
13.3124
13.305
13.3074
13.3583
13.4945
13.7476
14.1411
14.6867
15.3809
16.2018
17.1072
18.034
18.9
19.608
20.0531
20.1319
19.7532
18.8493
17.3855
15.3665
12.8396
9.8921
6.64412
3.23707
-0.180401
-3.46744
-6.50468
-9.20481
-11.5184
-13.4343
-14.975
-16.1876
-17.1319
-17.8681
-18.4464
-18.8988
-19.2362
-19.4494
-19.514
-19.3981
-19.0714
-18.513
-17.7177
-16.6983
-15.4849
-14.1212
-12.6571
-11.1415
-9.6147
-8.1027
-6.61466
-5.14354
-3.6701
-2.16959
-0.619737
0.991413
2.65922
4.35909
6.04661
7.6613
9.13334
10.3919
11.374
12.0317
12.3373
12.2851
11.8897
11.1814
10.2006
8.99085
7.59352
6.045
4.37668
2.6181
0.802398
-1.02744
-2.81305
-4.4776
-5.92627
-7.05085
-7.73821
-7.88169
-7.39386
-6.21898
-4.34304
-1.80008
1.32652
4.90834
8.78163
12.7615
16.6595
20.3009
23.5414
26.2776
28.4522
30.0498
31.0874
31.5992
31.6197
31.1689
30.2426
28.8091
26.8139
24.1919
20.8823
16.8474
12.0876
6.65321
0.648427
-5.77181
-12.4128
-19.0568
-25.483
-31.4886
-36.9063
-41.6183
-45.563
-48.7354
-51.1808
-52.9833
-54.2501
-55.0941
-55.6164
-55.8878
-55.931
-55.6997
-55.0533
-53.7247
-51.2833
-47.0981
-40.3138
-29.8573
-14.4945
7.04705
35.8833
72.7174
117.554
169.431
226.235
284.656
340.323
388.146
422.832
439.526
434.48
405.658
353.161
279.421
189.082
88.6049
-14.3789
-111.878
-196.412
-261.818
-303.91
-320.882
-313.432
-284.587
-239.263
-183.632
-124.375
-67.9181
-19.7515
16.098
37.3863
43.7395
36.5168
18.4836
-6.65067
-34.7638
-61.85
-84.4849
-100.176
-107.564
-106.471
-97.7977
-83.2991
-65.2773
-46.2376
-28.5517
-14.1698
-4.41172
0.143994
-0.331122
-5.0012
-12.5268
-21.2743
-29.5439
-35.7861
-38.7817
-37.7655
-32.4836
-23.1824
-10.5368
4.46968
20.6922
36.9806
52.3222
65.9551
77.4395
86.6826
93.9168
99.6385
104.52
109.304
114.705
121.316
129.545
139.576
151.365
164.66
179.047
194.011
208.994
223.462
236.951
249.107
259.699
268.617
275.854
281.477
285.582
288.252
289.523
289.343
287.565
283.936
278.117
269.721
258.36
243.705
225.554
203.892
178.931
151.135
121.212
90.0829
58.8122
28.5287
0.327078
-24.8276
-46.1855
-63.2766
-75.9449
-84.3517
-88.9445
-90.3989
-89.5381
-87.2426
-84.3579
-81.6139
-79.5609
-78.5315
-78.6298
-79.7467
-81.5987
-83.7844
-85.8484
-87.3474
-87.9083
-87.2721
-85.3209
-82.0841
-77.7258
-72.5164
-66.7936
-60.917
-55.2251
-49.997
-45.4261
-41.6056
-38.5283
-36.0986
-34.1548
-32.497
-30.9168
-29.2254
-27.2749
-24.9732
-22.2888
-19.2473
-15.9212
-12.4146
-8.84571
-5.33021
-1.96684
1.17208
4.04534
6.64221
8.97754
11.0839
13.002
14.7718
16.4248
17.9791
19.4375
20.7885
22.0104
23.0762
23.9601
24.6428
25.1161
25.3849
25.4668
25.3898
25.1881
24.8963
24.5447
24.1544
23.7352
23.2848
22.791
22.2359
21.6004
20.8705
20.0414
19.1204
18.1281
17.0961
16.0635
15.0706
14.1532
13.3362
12.6289
12.0224
11.4899
10.9892
10.4683
9.87195
9.14927
8.26015
7.18064
5.90573
4.44968
2.844
1.13355
-0.628213
-2.38405
-4.07699
-5.65285
-7.06128
-8.25526
-9.18954
-9.81887
-10.0969
-9.97648
-9.41289
-8.36961
-6.82727
-4.79406
-2.31592
0.516106
3.56351
6.64462
9.54586
12.0387
13.8998
14.9322
14.982
13.9503
11.7979
8.54131
4.24369
-0.998621
-7.07053
-13.8509
-21.2212
-29.0697
-37.2909
-45.7804
-54.4294
-63.1177
-71.7098
-80.0525
-87.9779
-95.3084
-101.865
-107.479
-111.998
-115.301
-117.303
-117.962
-117.28
-115.309
-112.141
-107.911
-102.782
-96.9445
-90.598
-83.9448
-77.1764
-70.4633
-63.9465
-57.731
-51.8836
-46.4338
-41.3789
-36.6914
-32.3288
-28.2434
-24.3922
-20.7433
-17.2807
-14.0049
-10.93
-8.07837
-5.47391
-3.13429
-1.06441
0.748264
2.33571
3.74829
5.05077
6.3158
7.61583
9.01446
10.5585
12.2716
14.1513
16.168
18.2688
20.3837
22.4345
24.3449
26.0517
27.5125
28.7115
29.6589
30.3848
30.9272
31.3164
31.5583
31.6229
31.4407
30.9141
29.9454
28.485
26.5955
24.528
22.7988
22.2518
24.0873
29.838
41.2742
60.2274
88.3337
126.715
175.638
234.198
300.102
369.611
437.683
498.348
545.285
572.545
575.33
550.711
498.17
419.874
320.626
207.468
88.9971
-25.5483
-127.285
-208.656
-264.243
-291.31
-290.027
-263.34
-216.53
-156.511
-90.9822
-27.5254
27.2159
68.201
92.4194
99.0489
89.3442
66.2905
34.0826
-2.49196
-38.6836
-70.3454
-94.37
-108.955
-113.684
-109.422
-98.071
-82.2118
-64.7027
-48.2805
-35.2159
-27.0622
-24.5181
-27.4127
-34.8011
-45.1505
-56.5838
-67.1455
-75.0552
-78.9183
-77.8712
-71.6503
-60.5819
-45.5008
-27.616
-8.34024
10.8887
28.7768
44.3106
56.8507
66.173
72.4586
76.2377
78.2985
79.5748
81.0275
83.5354
87.805
94.3101
103.263
114.618
128.102
143.267
159.551
176.346
193.052
209.127
224.113
237.644
249.444
259.298
267.034
272.489
275.493
275.86
273.396
267.925
259.318
247.542
232.692
215.028
194.982
173.151
150.262
127.128
104.575
83.3753
64.1822
47.4745
33.5227
22.3775
13.8818
7.70458
3.38996
0.416485
-1.74206
-3.56119
-5.42152
-7.58012
-10.1592
-13.1516
-16.4414
-19.8342
-23.0942
-25.9817
-28.2865
-29.8546
-30.6039
-30.53
-29.7014
-28.2457
-26.33
-24.1385
-21.8497
-19.6171
-17.5545
-15.7281
-14.1552
-12.8093
-11.6309
-10.5409
-9.45623
-8.30438
-7.03546
-5.63044
-4.10441
-2.50486
-0.905358
0.604563
1.93168
2.99215
3.72351
4.09423
4.1095
3.8124
3.28046
2.61773
1.94333
1.37787
1.02921
0.979357
1.27404
1.91638
2.86537
4.03971
5.32629
6.59266
7.70176
8.52734
8.96801
8.95849
8.47648
7.54453
6.22671
4.62045
2.8447
1.02601
-0.715868
-2.28084
-3.59836
-4.63305
-5.38559
-5.88889
-6.20016
-6.39026
-6.53165
-6.68678
-6.89833
-7.18259
-7.52666
-7.88979
-8.20851
-8.40488
-8.39669
-8.10829
-7.48066
-6.47954
-5.10036
-3.36971
-1.34309
0.900681
3.26749
5.65725
7.97342
10.1313
12.0639
13.7259
15.0932
16.1604
16.9363
17.4379
17.6837
17.6889
17.4618
17.0019
16.3009
15.3455
14.1209
12.6151
10.8224
8.74594
6.39842
3.80142
0.983688
-2.02105
-5.1759
-8.44161
-11.776
-15.1318
-18.454
-21.676
-24.7176
-27.484
-29.8682
-31.7557
-33.0338
-33.6016
-33.3824
-32.3346
-30.4602
-27.8096
-24.4807
-20.6136
-16.3799
-11.9686
-7.57103
-3.36464
0.499901
3.90894
6.79143
9.12004
10.9082
12.2034
13.0794
13.626
13.9402
14.1178
14.2465
14.4005
14.6372
14.9951
15.493
16.1309
16.8909
17.7406
18.6361
19.5275
20.3642
21.1016
21.7075
22.1684
22.4935
22.7173
22.8992
23.1208
23.4803
24.0855
25.0455
26.4616
28.4181
30.9725
34.1457
37.9124
42.1917
46.841
51.652
56.3536
60.6205
64.0908
66.3898
67.1612
66.102
62.9963
57.7458
50.3911
41.1201
30.2633
18.2723
5.68652
-6.91011
-18.937
-29.8637
-39.2496
-46.774
-52.2519
-55.6364
-57.0075
-56.5502
-54.5251
-51.2345
-46.9869
-42.0607
-36.6673
-30.9115
-24.748
-17.9346
-9.98677
-0.145379
12.6266
29.5979
52.1547
81.6092
118.938
164.473
217.6
276.514
338.112
398.068
451.123
491.583
513.979
513.792
488.157
436.409
360.393
264.458
155.13
40.488
-70.6866
-169.86
-249.688
-304.81
-332.408
-332.451
-307.606
-262.835
-204.744
-140.77
-78.3173
-23.944
17.2931
42.2799
50.0268
41.5903
19.7647
-11.4015
-47.192
-82.8332
-114.054
-137.531
-151.183
-154.287
-147.417
-132.246
-111.226
-87.2138
-63.0872
-41.3955
-24.0897
-12.3511
-6.53349
-6.21022
-10.3129
-17.333
-25.5563
-33.2972
-39.105
-41.9185
-41.1563
-36.7378
-29.0396
-18.8002
-6.98939
5.33798
17.1833
27.7259
36.4123
43.007
47.6032
50.5976
52.6333
54.5221
57.153
61.3972
68.0186
77.596
90.4647
106.681
126.01
147.942
171.734
196.46
221.091
244.57
265.89
284.163
298.675
308.923
314.632
315.749
312.422
304.967
293.828
279.528
262.637
243.729
223.368
202.08
180.348
158.609
137.246
116.592
96.9286
78.4847
61.4362
45.9045
31.956
19.603
8.8065
-0.5185
-8.49429
-15.2691
-21.0032
-25.8534
-29.9576
-33.4219
-36.3108
-38.6433
-40.3952
-41.5082
-41.9049
-41.5076
-40.2596
-38.1443
-35.2014
-31.5357
-27.3173
-22.7742
-18.1753
-13.8084
-9.95354
-6.85654
-4.70509
-3.61022
-3.59555
-4.59527
-6.46092
-8.97613
-11.8774
-14.8786
-17.6968
-20.0762
-21.8086
-22.7485
-22.8216
-22.026
-20.4275
-18.1486
-15.3538
-12.2311
-8.97408
-5.76355
-2.75279
-0.0563095
2.25635
4.16141
5.67657
6.85219
7.75926
8.47562
9.0724
9.60214
10.0903
10.5312
10.8886
11.1009
11.0908
10.7759
10.0818
8.95328
7.36294
5.31724
2.85823
0.0622465
-2.96396
-6.0889
-9.16289
-12.0253
-14.5127
-16.4671
-17.747
-18.2379
-17.8646
-16.6033
-14.4902
-11.6282
-8.18639
-4.39292
-0.521019
3.13242
6.27321
8.63875
10.0263
10.3167
9.49074
7.63477
4.9351
1.66059
-1.86465
-5.29531
-8.30175
-10.6051
-12.0065
-12.4061
-11.8113
-10.3316
-8.16189
-5.55742
-2.80196
-0.175016
2.0788
3.77453
4.80313
5.13795
4.83145
4.00317
2.82135
1.48051
0.178147
-0.906941
-1.63246
-1.90493
-1.6858
-0.991075
0.114752
1.52943
3.12687
4.77237
6.33759
7.71345
8.81988
9.61152
10.0791
10.247
10.1666
9.90886
9.55374
9.18131
8.86321
8.65649
8.59998
8.71314
8.99699
9.43619
10.0017
10.6533
11.3412
12.0082
12.591
13.0229
13.2372
13.1731
12.7822
12.0375
10.9417
9.5345
7.89814
6.15761
4.47612
3.04412
2.06205
1.7179
2.1614
3.47774
5.6645
8.61536
12.1143
15.8429
19.4011
22.3423
24.2173
24.6242
23.2573
19.949
14.6974
7.67727
-0.768828
-10.1583
-19.9117
-29.4073
-38.0385
-45.2707
-50.688
-54.0278
-55.1983
-54.2783
-51.5002
-47.2182
-41.866
-35.9095
-29.7978
-23.9177
-18.5534
-13.851
-9.78696
-6.13725
-2.44756
1.99272
8.16286
17.295
30.812
50.2018
76.8202
111.628
154.89
205.877
262.643
321.931
379.268
429.279
466.207
484.585
479.983
449.703
393.327
313.002
213.409
101.397
-14.6761
-125.829
-223.437
-300.183
-350.859
-372.902
-366.615
-335.037
-283.501
-218.933
-149.013
-81.2845
-22.3342
22.8563
51.3294
62.3016
57.0466
38.5481
10.9819
-20.8953
-52.3675
-79.3158
-98.6489
-108.565
-108.633
-99.6964
-83.6328
-63.0115
-40.7
-19.4749
-1.6837
11.0056
17.7448
18.5296
14.1152
5.84613
-4.57057
-15.3145
-24.6898
-31.3229
-34.299
-33.2272
-28.2315
-19.8772
-9.04745
3.20907
15.8388
27.9295
38.8251
48.1975
56.0673
62.7766
68.9188
75.2382
82.5136
91.4432
102.543
116.076
132.009
150.019
169.524
189.753
209.829
228.864
246.046
260.715
272.408
280.887
286.13
288.298
287.695
284.699
279.709
273.085
265.109
255.957
245.694
234.286
221.629
207.583
192.018
174.853
156.095
135.857
114.368
91.9715
69.1027
46.2606
23.9729
2.75774
-16.9127
-34.6431
-50.1388
-63.2205
-73.8293
-82.0229
-87.9631
-91.8971
-94.1336
-95.0165
-94.8979
-94.1122
-92.9543
-91.6622
-90.4071
-89.2889
-88.3398
-87.5339
-86.8013
-86.0452
-85.1603
-84.0494
-82.6368
-80.8772
-78.7596
-76.3053
-73.5614
-70.591
-67.4618
-64.2349
-60.9549
-57.6439
-54.2991
-50.8953
-47.3902
-43.7333
-39.8762
-35.7823
-31.4356
-26.8466
-22.0552
-17.1296
-12.1623
-7.26271
-2.54864
1.86449
5.87339
9.39594
12.378
14.7975
16.6648
18.0208
18.9303
19.4754
19.7456
19.829
19.8047
19.7365
19.6698
19.6311
19.6308
19.667
19.731
19.8131
19.9065
20.0099
20.1273
20.2658
20.4311
20.6222
20.8263
21.0152
21.1438
21.1517
20.9679
20.5179
19.7324
18.556
16.9544
14.9198
12.4718
9.65656
6.54089
3.20606
-0.26007
-3.7702
-7.24317
-10.6075
-13.8024
-16.7774
-19.4904
-21.9054
-23.9923
-25.7264
-27.0904
-28.0774
-28.6938
-28.9611
-28.9158
-28.6073
-28.0929
-27.4309
-26.6736
-25.86
-25.0105
-24.125
-23.183
-22.1486
-20.9767
-19.6228
-18.0517
-16.2465
-14.2147
-11.9913
-9.63798
-7.23817
-4.88855
-2.68795
-0.725058
0.933359
2.25172
3.23088
3.90806
4.35114
4.64761
4.88963
5.15718
5.50209
5.9356
6.42206
6.88023
7.19269
7.22241
6.83421
5.91808
4.41086
2.31291
-0.302867
-3.29114
-6.44383
-9.50821
-12.2114
-14.2885
-15.5104
-15.7091
-14.7967
-12.7762
-9.74219
-5.87266
-1.41067
3.36039
8.14591
12.6699
16.7019
20.0774
22.7097
24.5914
25.7859
26.4104
26.6132
26.5481
26.3514
26.1226
25.9131
25.7231
25.507
25.1863
24.6663
23.8558
22.6837
21.1134
19.1496
16.8395
14.2675
11.5446
8.79543
6.14493
3.70615
1.57185
-0.189942
-1.53616
-2.44557
-2.91356
-2.94667
-2.55844
-1.7682
-0.603405
0.894236
2.65991
4.59569
6.56203
8.3738
9.80439
10.6012
10.5157
9.34962
7.01774
3.62417
-0.454889
-4.49375
-7.3626
-7.51704
-3.05401
8.14744
28.1929
58.8554
101.205
155.232
219.54
291.166
365.604
437.063
498.963
544.627
568.08
564.864
532.721
472.052
386.058
280.541
163.355
43.601
-69.3561
-166.904
-242.109
-290.427
-310.126
-302.36
-270.907
-221.617
-161.648
-98.5985
-39.6356
9.2541
43.8308
61.9176
63.4511
50.2819
25.768
-5.77144
-39.6644
-71.4776
-97.5211
-115.213
-123.275
-121.745
-111.831
-95.6376
-75.8037
-55.1146
-36.1344
-20.9019
-10.7229
-6.07611
-6.6315
-11.37
-18.7788
-27.0913
-34.5367
-39.5681
-41.0425
-38.3343
-31.3751
-20.6208
-6.95667
8.44341
24.2821
39.3075
52.4651
63.0167
70.6151
75.3294
77.6194
78.2677
78.2759
78.7398
80.718
85.1079
92.5439
103.327
117.395
134.332
153.418
173.713
194.158
213.687
231.337
246.336
258.163
266.577
271.602
273.486
272.621
269.462
264.43
257.844
249.864
240.474
229.505
216.685
201.719
184.376
164.582
142.479
118.475
93.2305
67.6291
42.695
19.4944
-0.977322
-17.903
-30.733
-39.2433
-43.5547
-44.1131
-41.6317
-37.0057
-31.2106
-25.1963
-19.7913
-15.6272
-13.0919
-12.315
-13.1832
-15.3845
-18.47
-21.9264
-25.2481
-28.0011
-29.8704
-30.6867
-30.4321
-29.2252
-27.29
-24.9136
-22.4014
-20.0326
-18.0256
-16.5139
-15.5363
-15.0411
-14.9023
-14.9443
-14.9713
-14.7966
-14.2688
-13.2897
-11.8244
-9.90146
-7.60414
-5.05557
-2.39963
0.219017
2.67281
4.86503
6.73762
8.27283
9.48884
10.4309
11.1594
11.7376
12.2201
12.6444
13.0265
13.3599
13.6197
13.7692
13.7675
13.579
13.1805
12.5664
11.7518
10.7712
9.67536
8.52534
7.38558
6.3167
5.36921
4.57886
3.96415
3.52624
3.25102
3.11277
3.07892
3.11489
3.18844
3.27279
3.34817
3.40174
3.42586
3.41529
3.36368
3.26014
3.08653
2.81607
2.41371
1.83817
1.04573
-0.00504686
-1.34811
-3.00512
-4.9819
-7.26663
-9.8302
-12.6287
-15.6075
-18.7064
-21.8645
-25.0242
-28.1328
-31.1422
-34.0056
-36.6737
-39.089
-41.1822
-42.8704
-44.0596
-44.6505
-44.5486
-43.6773
-41.9911
-39.4884
-36.2199
-32.2925
-27.8653
-23.1408
-18.348
-13.7235
-9.48934
-5.8327
-2.88945
-0.73325
0.628027
1.2485
1.23386
0.725999
-0.115018
-1.12912
-2.1722
-3.1279
-3.91425
-4.48476
-4.8246
-4.94313
-4.86451
-4.6181
-4.2304
-3.71966
-3.09373
-2.3513
-1.48564
-0.490087
0.636125
1.88293
3.22629
4.6276
6.03582
7.39196
8.63538
9.7109
10.5754
11.2033
11.5896
11.7502
11.7198
11.5474
11.2896
11.0044
10.7439
10.5498
10.4493
10.4542
10.5621
10.7583
11.0203
11.3216
11.6356
11.9387
12.2121
12.4428
12.6238
12.753
12.833
12.8694
12.8697
12.841
12.7876
12.7075
12.5884
12.4043
12.1127
11.6541
10.9541
9.9293
8.49696
6.58767
4.16163
1.22753
-2.13569
-5.75351
-9.32603
-12.3942
-14.3042
-14.178
-10.9003
-3.14032
10.5745
31.7187
61.5562
100.869
149.653
206.842
270.104
335.792
399.088
454.354
495.688
517.609
515.798
487.763
433.344
354.944
257.445
147.804
34.364
-74.0285
-168.985
-243.489
-292.646
-314.169
-308.552
-278.903
-230.492
-170.056
-104.979
-42.4399
11.3588
51.7953
76.2046
83.9961
76.519
56.7116
28.5945
-3.31641
-34.6
-61.4501
-81.0689
-91.8989
-93.6787
-87.3346
-74.736
-58.3588
-40.9063
-24.9386
-12.5547
-5.16178
-3.3521
-6.892
-14.8151
-25.5984
-37.3924
-48.2728
-56.4813
-60.6273
-59.8301
-53.7894
-42.7819
-27.5901
-9.37735
10.4719
30.5255
49.4686
66.2435
80.1475
90.8833
98.5572
103.633
106.848
109.104
111.356
114.497
119.27
126.201
135.563
147.371
161.399
177.227
194.285
211.917
229.432
246.158
261.476
274.848
285.837
294.114
299.454
301.734
300.924
297.074
290.304
280.788
268.743
254.411
238.053
219.934
200.317
179.462
157.628
135.073
112.062
88.8735
65.802
43.1611
21.2784
0.486786
-18.8893
-36.5516
-52.2481
-65.7922
-77.0787
-86.0956
-92.9276
-97.7527
-100.83
-102.48
-103.062
-102.946
-102.481
-101.971
-101.651
-101.668
-102.075
-102.829
-103.798
-104.785
-105.547
-105.827
-105.383
-104.015
-101.591
-98.0574
-93.4472
-87.8748
-81.5221
-74.6174
-67.4099
-60.1425
-53.0269
-46.2247
-39.8361
-33.8976
-28.3891
-23.2489
-18.3925
-13.7344
-9.20772
-4.77943
-0.459466
3.69798
7.60021
11.1278
14.1506
16.5447
18.2095
19.0806
19.1388
18.4132
16.9788
14.9491
12.4651
9.68203
6.75567
3.82983
1.0262
-1.56234
-3.87469
-5.88082
-7.5777
-8.98285
-10.1265
-11.0431
-11.7639
-12.3103
-12.6901
-12.8951
-12.9019
-12.6746
-12.169
-11.3376
-10.1354
-8.52457
-6.47907
-3.98802
-1.05866
2.2815
5.98316
9.97468
14.163
18.4363
22.6689
26.7279
30.4819
33.8102
36.6114
38.8111
40.3661
41.2651
41.5268
41.193
40.3211
38.9755
38.9755
38.9755
38.9755
38.9755
38.9755
38.9755
38.9755
38.9755
38.9755
38.9755
38.9755
38.9755
38.9755
38.9755
38.9755
38.9755
38.9755
38.9755
38.9755
