58.1226
57.2476
56.0879
54.7986
53.7476
53.5903
55.3241
60.2983
70.1585
86.711
111.704
146.544
191.972
247.752
312.429
383.203
455.971
525.554
586.122
631.754
657.106
658.068
632.347
579.87
502.947
406.164
295.996
180.192
66.9942
-35.698
-121.134
-184.374
-222.741
-236.004
-226.286
-197.709
-155.846
-107.028
-57.6227
-13.3478
21.2906
43.3807
51.7773
47.0594
31.2928
7.64294
-20.1049
-48.0533
-72.6655
-91.1504
-101.722
-103.71
-97.5329
-84.5316
-66.7174
-46.4575
-26.1516
-7.93522
6.55397
16.3259
21.0934
21.2363
17.6867
11.7597
4.95315
-1.25464
-5.5843
-7.09342
-5.25964
-0.00464778
8.33858
19.1057
31.4143
44.2934
56.8116
68.1883
77.8747
85.5967
91.3565
95.3974
98.1365
100.08
101.731
103.507
105.674
108.306
111.277
114.282
116.879
118.553
118.783
117.116
113.225
106.953
98.3411
87.6301
75.2433
61.7492
47.8096
34.1188
21.3405
10.0488
0.679094
-6.50526
-11.4291
-14.2021
-15.0974
-14.5154
-12.9384
-10.8796
-8.83585
-7.24571
-6.45982
-6.72325
-8.17075
-10.8327
-14.6493
-19.4891
-25.1695
-31.4759
-38.1787
-45.0465
-51.8551
-58.3937
-64.4686
-69.9037
-74.5404
-78.2349
-80.8551
-82.2748
-82.3676
-81.0011
-78.0338
-73.3167
-66.7029
-58.0657
-47.3263
-34.4887
-19.6781
-3.17764
14.5449
32.827
50.8265
67.5644
81.9955
93.103
100.005
102.059
98.9567
90.7779
78.0163
61.5513
42.5792
22.5056
2.81371
-15.0763
-29.9397
-40.8555
-47.2777
-49.0625
-46.4504
-40.006
-30.5275
-18.9388
-6.1783
6.89843
19.593
31.4058
42.0429
51.3913
59.4675
66.3526
72.123
76.7921
80.2718
82.3618
82.769
81.154
77.1969
70.6715
61.5147
49.879
36.1583
20.982
5.17456
-10.3122
-24.4887
-36.4259
-45.3499
-50.7216
-52.2892
-50.109
-44.5273
-36.1261
-25.6332
-13.8046
-1.29029
11.5027
24.529
38.1841
53.3214
71.1898
93.2832
121.107
155.884
198.237
247.896
303.489
362.456
421.133
475.015
519.176
548.81
559.825
549.401
516.442
461.839
388.501
301.146
205.863
109.498
18.9487
-59.5552
-121.085
-162.491
-182.661
-182.55
-164.962
-134.155
-95.2835
-53.7916
-14.8066
17.3857
39.7303
50.6207
49.9336
38.8913
19.7825
-4.41221
-30.4375
-55.169
-75.9609
-90.899
-98.9382
-99.9212
-94.4863
-83.8917
-69.7837
-53.9482
-38.078
-23.5837
-11.4688
-2.27459
3.90666
7.36454
8.66671
8.54016
7.75632
7.03505
6.97587
8.01873
10.4316
14.3183
19.6389
26.2357
33.8587
42.1896
50.8609
59.4745
67.6196
74.8943
80.9302
85.4211
88.1545
89.0418
88.1445
85.6913
82.0814
77.8706
73.7369
70.4266
68.6814
69.1526
72.3097
78.3525
87.1391
98.1419
110.442
122.772
133.607
141.305
144.279
141.183
131.102
113.697
89.3041
58.9639
24.3627
-12.2976
-48.5007
-81.6604
-109.383
-129.713
-141.336
-143.713
-137.126
-122.636
-101.965
-77.3071
-51.098
-25.7772
-3.55834
13.7622
24.9444
29.3811
27.1121
18.7778
5.52446
-11.129
-29.4468
-47.6419
-64.036
-77.2012
-86.0729
-90.024
-88.896
-82.9855
-72.9893
-59.9141
-44.9622
-29.4056
-14.461
-1.17899
9.64108
17.5052
22.2421
23.9869
23.1329
20.2624
16.0632
11.2425
6.44871
2.20752
-1.12081
-3.36034
-4.51501
-4.7438
-4.32037
-3.58378
-2.88704
-2.54963
-2.81888
-3.84321
-5.6579
-8.18267
-11.2291
-14.5156
-17.687
-20.3384
-22.0404
-22.3671
-20.9247
-17.3815
-11.4972
-3.15054
7.63869
20.6955
35.6874
52.1349
69.4383
86.9167
103.859
119.582
133.485
145.106
154.16
160.56
164.425
166.065
165.941
164.626
162.74
160.894
159.635
159.399
160.475
162.994
166.919
172.064
178.105
184.614
191.08
196.94
201.607
204.49
205.029
202.722
197.158
188.063
175.33
159.057
139.563
117.4
93.3268
68.2712
43.2657
19.3666
-2.43457
-21.2972
-36.6063
-48.0252
-55.5201
-59.3532
-60.0451
-58.3102
-54.9733
-50.8762
-46.7854
-43.3112
-40.8478
-39.5408
-39.2859
-39.7595
-40.4772
-40.8737
-40.3944
-38.5875
-35.1844
-30.1567
-23.743
-16.4376
-8.94292
-2.08931
3.26889
6.36778
6.64394
3.82531
-2.01049
-10.4194
-20.6197
-31.5649
-42.0516
-50.851
-56.8474
-59.1657
-57.274
-51.0471
-40.7841
-27.1789
-11.2477
5.7774
22.5744
37.8621
50.5214
59.6923
64.8393
65.7796
62.6728
55.9788
46.3893
34.7435
21.9395
8.85028
-3.74431
-15.206
-25.062
-33.0052
-38.8745
-42.6221
-44.2743
-43.8949
-41.5598
-37.3461
-31.3393
-23.6585
-14.4917
-4.13629
6.96713
18.218
28.8637
38.0381
44.8299
48.3757
47.9659
43.1508
33.8302
20.3106
3.32093
-16.0224
-36.2998
-55.9145
-73.2494
-86.8332
-95.4984
-98.5094
-95.645
-87.2238
-74.0698
-57.422
-38.7994
-19.8384
-2.12215
12.9768
24.4242
31.6073
34.3667
32.9766
28.0788
20.5832
11.5472
2.05271
-6.90721
-14.5184
-20.2057
-23.6592
-24.8283
-23.8893
-21.1922
-17.1975
-12.4113
-7.32595
-2.3731
2.10742
5.88232
8.82389
10.8965
12.1349
12.6184
12.446
11.7159
10.511
8.89351
6.90742
4.58784
1.97536
-0.867811
-3.8431
-6.80549
-9.56085
-11.8723
-13.4761
-14.1061
-13.5242
-11.552
-8.10045
-3.19138
3.03206
10.3091
18.279
26.5122
34.5494
41.9458
48.3135
53.357
56.8976
58.8839
59.387
58.5827
56.7211
54.091
50.9799
47.6392
44.2552
40.9327
37.6916
34.478
31.1858
27.688
23.8704
19.6643
15.0746
10.2002
5.25021
0.557911
-3.40148
-5.9855
-6.35299
-3.43514
4.07357
17.6808
38.9934
69.5294
110.446
162.204
224.233
294.642
370.084
445.815
515.993
574.215
614.23
630.731
620.118
581.098
515.019
425.88
319.988
205.317
90.6438
-15.4203
-105.367
-173.576
-216.851
-234.644
-228.957
-203.944
-165.289
-119.449
-72.8569
-31.2022
1.14325
21.4893
28.9551
24.3683
9.9678
-11.0333
-34.9572
-58.1736
-77.5497
-90.7898
-96.6325
-94.8966
-86.3861
-72.6805
-55.85
-38.1394
-21.6634
-8.15113
1.23277
5.97763
6.22365
2.67741
-3.53499
-11.0519
-18.47
-24.5235
-28.2264
-28.9651
-26.5349
-21.1205
-13.2303
-3.59673
6.94046
17.5519
27.5212
36.3213
43.6566
49.47
53.9159
57.307
60.0442
62.5408
65.1515
68.1157
71.5222
75.2984
79.2236
82.9634
86.1191
88.2836
89.0972
88.2946
85.7373
81.4287
75.5104
68.2415
59.9653
51.0683
41.9382
32.9259
24.3185
16.3243
9.07348
2.63053
-2.98241
-7.75861
-11.6812
-14.7049
-16.749
-17.7038
-17.4505
-15.8905
-12.9806
-8.76662
-3.40905
2.80411
9.46265
16.0581
22.0247
26.7937
29.8529
30.8053
29.4166
25.6476
19.6634
11.8217
2.63766
-7.26703
-17.2263
-26.5947
-34.8067
-41.4246
-46.1694
-48.9321
-49.7664
-48.8652
-46.5248
-43.1033
-38.9784
-34.5087
-30.004
-25.7054
-21.7765
-18.3038
-15.3065
-12.7507
-10.5665
-8.66619
-6.95898
-5.36318
-3.81345
-2.26362
-0.685238
0.937204
2.61318
4.35399
6.18021
8.12759
10.2502
12.6204
15.3244
18.4545
22.0983
26.3254
31.1737
36.635
42.6433
49.0645
55.6895
62.2333
68.3403
73.5977
77.5592
79.7776
79.8456
77.4421
72.378
64.6368
54.403
42.0734
28.2451
13.6802
-0.753045
-14.1572
-25.6908
-34.651
-40.5368
-43.0813
-42.2395
-38.1276
-30.9176
-20.7021
-7.35458
9.57956
30.9256
57.8231
91.5537
133.26
183.585
242.297
307.969
377.792
447.595
512.095
565.371
601.531
615.453
603.522
564.227
498.529
409.931
304.228
188.959
72.6324
-36.1763
-129.74
-201.982
-249.08
-269.782
-265.422
-239.635
-197.823
-146.456
-92.2818
-41.5787
0.496462
30.3694
46.2893
48.3352
38.2073
18.8489
-6.04234
-32.5411
-56.9937
-76.4301
-88.848
-93.3462
-90.107
-80.2459
-65.5607
-48.2222
-30.4528
-14.2336
-1.07535
8.12528
13.1338
14.3355
12.6167
9.19438
5.4193
2.58351
1.75438
3.65458
8.59811
16.4844
26.8448
38.9288
51.816
64.5351
76.1755
85.9778
93.3956
98.1239
100.095
99.4498
96.4825
91.5841
85.1772
77.6627
69.3794
60.5833
51.4469
42.0769
32.5467
22.9357
13.3694
4.05061
-4.72485
-12.5726
-19.0467
-23.688
-26.086
-25.9493
-23.1711
-17.8798
-10.4657
-1.57552
7.92829
17.04
24.7095
29.9543
31.9726
30.2401
24.5795
15.1909
2.64042
-12.1937
-28.2098
-44.1956
-58.9508
-71.405
-80.7164
-86.3422
-88.0724
-86.0276
-80.6223
-72.5018
-62.4613
-51.3581
-40.0271
-29.2084
-19.4931
-11.2912
-4.82146
-0.122509
2.91953
4.53204
5.01132
4.67807
3.838
2.75124
1.6129
0.545231
-0.399187
-1.22549
-1.97848
-2.72187
-3.51794
-4.41038
-5.4124
-6.50126
-7.61936
-8.68117
-9.58459
-10.2246
-10.5069
-10.3599
-9.74295
-8.6493
-7.10469
-5.16062
-2.88407
-0.344645
2.39883
5.31048
8.38615
11.6571
15.1872
19.0633
23.3793
28.2156
33.6164
39.5691
45.9886
52.7096
59.4896
66.0229
71.9646
76.9618
80.6886
82.8797
83.3593
82.0601
79.031
74.4324
68.5199
61.618
54.0888
46.2969
38.5762
31.2012
24.3653
18.1689
12.6215
7.65889
3.1812
-0.886478
-4.50968
-7.4408
-9.10759
-8.51438
-4.18523
5.81726
23.7659
52.0159
92.6296
146.911
214.918
295.044
383.769
475.662
563.698
639.88
696.109
725.19
721.833
683.485
610.86
508.069
382.319
243.2
101.663
-31.188
-145.317
-232.839
-288.831
-311.751
-303.462
-268.836
-215.031
-150.534
-84.1144
-23.8042
23.9523
54.8988
67.256
61.6899
40.9881
9.50895
-27.5089
-64.6784
-97.1439
-121.128
-134.29
-135.872
-126.632
-108.596
-84.6701
-58.1906
-32.4576
-10.3224
6.12808
15.7594
18.4396
14.9589
6.84116
-3.91772
-15.1447
-24.7787
-31.1178
-32.9992
-29.8948
-21.9214
-9.76924
5.43128
22.2846
39.32
55.1734
68.7374
79.2668
86.4298
90.303
91.3189
90.1731
87.7096
84.7974
82.2164
80.5639
80.1926
81.1851
83.3651
86.3412
89.5758
92.4685
94.4429
95.0246
93.9021
90.9635
86.3043
80.2089
73.1072
65.5131
57.9554
50.9071
44.7264
39.6141
35.5953
32.5261
30.1238
28.0171
25.8078
23.1343
19.7299
15.4656
10.3719
4.63691
-1.41888
-7.38797
-12.8338
-17.3531
-20.6329
-22.4943
-22.9165
-22.0367
-20.1291
-17.5625
-14.7477
-12.0796
-9.88515
-8.38367
-7.66594
-7.69354
-8.31752
-9.31208
-10.4166
-11.3789
-11.9918
-12.1192
-11.7069
-10.7789
-9.42161
-7.75981
-5.93024
-4.05738
-2.23619
-0.523936
1.05835
2.51613
3.86607
5.11887
6.2636
7.25675
8.01806
8.43403
8.36888
7.68156
6.2465
3.97556
0.838022
-3.12382
-7.78577
-12.9409
-18.3074
-23.5447
-28.2772
-32.1229
-34.725
-35.7834
-35.082
-32.5095
-28.0706
-21.8858
-14.18
-5.26158
4.50596
14.735
25.0433
35.0786
44.5338
53.1535
60.7293
67.0896
72.0833
75.5658
77.3881
77.396
75.4396
71.3945
65.191
56.849
46.5094
34.4568
21.1269
7.09328
-6.96564
-20.3184
-32.2423
-42.0853
-49.3139
-53.5363
-54.4877
-51.9761
-45.7907
-35.5887
-20.785
-0.479522
26.5399
61.6875
106.347
161.525
227.44
303.113
386.048
472.113
555.659
629.936
687.755
722.34
728.225
702.084
643.339
554.445
440.803
310.288
172.455
37.5316
-84.6824
-185.85
-259.945
-303.806
-317.341
-303.368
-267.131
-215.57
-156.444
-97.4224
-45.2571
-5.13052
19.7632
28.3683
21.6562
2.29035
-25.871
-58.3597
-90.6892
-118.883
-139.88
-151.791
-153.978
-146.984
-132.335
-112.241
-89.2679
-65.9984
-44.7378
-27.2849
-14.7884
-7.69115
-5.75946
-8.18031
-13.7086
-20.8422
-28.0036
-33.7092
-36.7122
-36.1086
-31.4007
-22.5181
-9.79761
6.07011
24.1215
43.2175
62.1493
79.7424
94.9518
106.941
115.142
119.287
119.419
115.874
109.244
100.314
89.9906
79.2172
68.8907
59.7835
52.4799
47.3319
44.4397
43.6575
44.6244
46.816
49.6101
52.3592
54.4614
55.4215
54.8969
52.723
48.9178
43.6655
37.283
30.1742
22.7784
15.5191
8.75865
2.76443
-2.31089
-6.4339
-9.68017
-12.2115
-14.2441
-16.0123
-17.7321
-19.5683
-21.6111
-23.8627
-26.2367
-28.5702
-30.6473
-32.2308
-33.0968
-33.0701
-32.0527
-30.0435
-27.1457
-23.5601
-19.5662
-15.4932
-11.6842
-8.45881
-6.07818
-4.71757
-4.44879
-5.23448
-6.93449
-9.32275
-12.1124
-14.9859
-17.6259
-19.7449
-21.1087
-21.5541
-20.9967
-19.4323
-16.9298
-13.6193
-9.67699
-5.3089
-0.735619
3.82115
8.14937
12.055
15.3683
17.9491
19.6921
20.5318
20.4484
19.4735
17.6937
15.2519
12.3437
9.20798
6.11186
3.33004
1.12165
-0.29287
-0.751102
-0.161151
1.4949
4.16704
7.75182
12.1123
17.0996
22.5717
28.4058
34.5014
40.7741
47.1425
53.5097
59.7467
65.6797
71.0858
75.6991
79.2265
81.3721
81.8655
80.4914
77.1165
71.7094
64.3519
55.242
44.6865
33.0867
20.9167
8.69654
-3.03672
-13.7582
-22.9793
-30.2603
-35.2045
-37.427
-36.495
-31.8465
-22.704
-8.01312
13.5575
43.5186
83.3447
134.143
196.248
268.805
349.442
434.119
517.234
592.014
651.179
687.799
696.226
672.959
617.287
531.617
421.388
294.592
160.955
30.864
-85.7772
-180.643
-247.864
-284.597
-291.202
-271.036
-229.904
-175.24
-115.154
-57.4564
-8.79181
26.0251
44.3987
46.0426
32.7815
8.11289
-23.3972
-56.7956
-87.4079
-111.406
-126.216
-130.719
-125.258
-111.436
-91.7841
-69.3284
-47.1367
-27.9016
-13.6128
-5.35464
-3.24435
-6.50746
-13.6676
-22.8158
-31.9148
-39.0955
-42.9039
-42.4696
-37.5774
-28.6414
-16.5894
-2.68261
11.7006
25.2824
37.073
46.5016
53.4737
58.3494
61.8498
64.9084
68.4914
73.4164
80.1982
88.944
99.3145
110.556
121.597
131.195
138.111
141.285
139.985
133.913
123.257
108.667
91.1864
72.1227
52.8988
34.8908
19.2798
6.93403
-1.66524
-6.44855
-7.7332
-6.15555
-2.57183
2.05801
6.78797
10.7911
13.4405
14.3588
13.4333
10.7985
6.79148
1.88819
-3.36933
-8.44528
-12.8733
-16.3037
-18.5319
-19.5052
-19.3116
-18.1526
-16.3065
-14.0869
-11.8019
-9.72013
-8.04437
-6.89739
-6.31814
-6.2683
-6.64684
-7.30985
-8.09282
-8.83244
-9.38555
-9.64357
-9.54127
-9.05956
-8.22272
-7.09082
-5.74886
-4.29429
-2.82477
-1.42801
-0.175173
0.881379
1.70606
2.2749
2.56923
2.57075
2.26057
1.6237
0.659391
-0.60429
-2.09494
-3.6837
-5.18126
-6.34562
-6.90354
-6.58452
-5.1635
-2.50562
1.3948
6.38907
12.169
18.2852
24.1888
29.2914
33.0374
34.9769
34.8304
32.5357
28.269
22.4385
15.6487
8.64177
2.22123
-2.83197
-5.84139
-6.30567
-3.94986
1.2478
9.05596
19.0162
30.4908
42.7258
54.921
66.299
76.1647
83.952
89.2525
91.8284
91.6097
88.6802
83.2561
75.661
66.3002
55.636
44.1653
32.3979
20.8367
9.95548
0.176573
-8.1541
-14.791
-19.6089
-22.6134
-23.933
-23.7857
-22.4121
-19.9728
-16.4153
-11.3264
-3.8008
7.63496
24.9986
50.6897
87.1708
136.506
199.806
276.68
364.789
459.64
554.694
641.842
712.223
757.291
769.986
745.826
683.736
586.47
460.532
315.585
163.42
16.6224
-112.881
-215.196
-283.565
-315.062
-310.792
-275.591
-217.286
-145.62
-71.0118
-3.3015
49.3481
81.2769
89.7907
75.2356
40.7021
-8.57265
-66.0066
-124.563
-177.611
-219.659
-246.881
-257.388
-251.253
-230.293
-197.677
-157.41
-113.795
-70.9135
-32.2087
-0.198241
23.6626
38.9718
46.2488
46.7162
42.0354
34.0393
24.4959
14.9289
6.50782
0.00921829
-4.1601
-5.89562
-5.30333
-2.6046
1.94523
8.11259
15.7108
24.596
34.6405
45.6934
57.541
69.8769
82.2893
94.2717
105.255
114.655
121.937
126.672
128.588
127.609
123.864
117.678
109.53
100.005
89.7251
79.2891
69.21
59.875
51.5212
44.2342
37.9644
32.5594
27.8049
23.4676
19.335
15.2461
11.1107
6.91513
2.7166
-1.37296
-5.20921
-8.64087
-11.5342
-13.794
-15.3778
-16.3037
-16.6489
-16.5413
-16.1447
-15.6395
-15.2003
-14.9752
-15.0674
-15.523
-16.3251
-17.3965
-18.6101
-19.8047
-20.8061
-21.4488
-21.5969
-21.1613
-20.1106
-18.4752
-16.3442
-13.8551
-11.1787
-8.50014
-5.99949
-3.83274
-2.11666
-0.918365
-0.250657
-0.0736039
-0.301769
-0.816114
-1.47902
-2.15061
-2.70445
-3.04092
-3.09683
-2.85024
-2.32032
-1.56236
-0.65874
0.292714
1.19164
1.94747
2.48985
2.7758
2.79312
2.55984
2.12006
1.53716
0.88538
0.240992
-0.325696
-0.756646
-1.01004
-1.06165
-0.903676
-0.541584
0.0106359
0.735979
1.62015
2.65687
3.85218
5.22717
6.81872
8.67766
10.8644
13.4418
16.4669
19.9805
23.9985
28.5032
33.4388
38.7099
44.184
49.6983
55.0699
60.1077
64.6259
68.4558
71.4564
73.5202
74.5756
74.5839
73.5339
71.4336
68.3026
64.1669
59.0572
53.011
46.0785
38.3299
29.8614
20.7986
11.2959
1.53261
-8.29051
-17.9479
-27.173
-35.6212
-42.8099
-48.0382
-50.3005
-48.2181
-40.0201
-23.611
3.24797
42.6321
96.04
163.922
245.23
337.091
434.696
531.468
619.56
690.616
736.741
751.526
730.979
674.213
583.776
465.545
328.201
182.337
39.309
-89.9921
-196.318
-273.014
-316.639
-327.193
-307.918
-264.75
-205.478
-138.75
-73.0462
-15.7577
27.5401
53.533
61.3103
52.2096
29.411
-2.64706
-38.941
-74.5335
-105.16
-127.668
-140.267
-142.581
-135.522
-121.011
-101.61
-80.1155
-59.1716
-40.9512
-26.936
-17.8136
-13.4891
-13.1972
-15.6866
-19.4454
-22.932
-24.7818
-23.967
-19.893
-12.4298
-1.88033
11.1008
25.6221
40.6851
55.3118
68.6539
80.0729
89.1852
95.8722
100.256
102.653
103.506
103.313
102.562
101.669
100.936
100.532
100.484
100.695
100.968
101.042
100.63
99.4602
97.3039
94.004
89.4898
83.7837
76.9982
69.3249
61.0165
52.3643
43.6732
35.236
27.3103
20.0998
13.7409
8.29703
3.75954
0.0556548
-2.93826
-5.37973
-7.4416
-9.29398
-11.0884
-12.9456
-14.948
-17.1358
-19.5088
-22.0301
-24.6331
-27.2303
-29.7218
-32.0042
-33.9782
-35.555
-36.6609
-37.2407
-37.2597
-36.7061
-35.5933
-33.963
-31.8888
-29.4791
-26.8776
-24.2605
-21.8276
-19.7889
-18.3444
-17.661
-17.8475
-18.9322
-20.8448
-23.4088
-26.3434
-29.2793
-31.7864
-33.4121
-33.7262
-32.3682
-29.0907
-23.7948
-16.5533
-7.61811
2.58708
13.4913
24.4151
34.6216
43.3763
50.0123
53.9925
54.9658
52.8099
47.6542
39.8818
30.1052
19.1198
7.83495
-2.80806
-11.9265
-18.7832
-22.8616
-23.9194
-22.0136
-17.4932
-10.9602
-3.20149
4.89933
12.4612
18.7036
23.0326
25.1047
24.8622
22.5365
18.6189
13.8046
8.91491
4.80841
2.28915
2.02298
4.46932
9.83502
18.0534
28.7891
41.4669
55.3203
69.4548
82.9192
94.781
104.198
110.481
113.15
111.963
106.941
98.3576
86.7207
72.726
57.1996
41.0279
25.0843
10.157
-3.11155
-14.2702
-23.083
-29.5282
-33.7704
-36.1047
-36.875
-36.3681
-34.6898
-31.6364
-26.577
-18.3747
-5.37678
14.4951
43.5315
83.8953
137.18
203.921
283.142
372.038
465.883
558.227
641.397
707.274
748.239
758.17
733.336
673.042
579.93
459.862
321.401
174.943
31.6196
-97.8948
-204.513
-281.662
-325.894
-337.12
-318.451
-275.672
-216.45
-149.361
-82.8901
-24.4977
20.1173
47.4957
56.5951
48.6686
26.8838
-4.25034
-39.5629
-73.9145
-102.819
-122.926
-132.315
-130.584
-118.748
-98.9648
-74.1529
-47.5527
-22.2908
-1.00302
14.4427
23.1006
24.9708
20.9019
12.399
1.36846
-10.1601
-20.2984
-27.5183
-30.8018
-29.7099
-24.3711
-15.3982
-3.75281
9.4193
22.9575
35.8366
47.2806
56.8292
64.3517
70.0146
74.211
77.4663
80.3357
83.3087
86.7331
90.7663
95.3595
100.271
105.109
109.384
112.581
114.224
113.928
111.445
106.687
99.7301
90.8064
80.2779
68.6042
56.3031
43.9109
31.9435
20.8623
11.0465
2.77394
-3.7904
-8.59601
-11.7005
-13.2554
-13.4869
-12.6722
-11.1151
-9.12365
-6.9902
-4.97677
-3.30529
-2.15265
-1.64957
-1.88185
-2.89289
-4.68629
-7.22787
-10.447
-14.2374
-18.4586
-22.9381
-27.4756
-31.8497
-35.8262
-39.1685
-41.6486
-43.0593
-43.2251
-42.0144
-39.3506
-35.2236
-29.7004
-22.9341
-15.1691
-6.74193
1.92708
10.3498
17.9973
24.3359
28.8713
31.1966
31.0395
28.303
23.0925
15.7264
6.72297
-3.23312
-13.3464
-22.7811
-30.7401
-36.5432
-39.6965
-39.9424
-37.2866
-31.997
-24.5743
-15.699
-6.16004
3.22605
11.6954
18.6075
23.4988
26.1133
26.4082
24.5376
20.8155
15.6681
9.58082
3.04792
-3.46928
-9.57224
-14.9419
-19.3432
-22.6205
-24.6869
-25.5126
-25.1135
-23.5444
-20.8956
-17.2928
-12.8974
-7.90569
-2.5413
2.95769
8.35968
13.4652
18.1335
22.3059
26.018
29.3999
32.6576
36.0395
39.7877
44.0818
48.9826
54.3851
59.9894
65.2996
69.6522
72.278
72.3899
69.2886
62.4728
51.7384
37.2513
19.5823
-0.304021
-21.105
-41.2743
-59.1387
-73.0179
-81.3272
-82.6457
-75.7444
-59.5812
-33.2857
3.83635
52.2436
112.024
182.682
262.88
350.185
440.899
530.049
611.59
678.847
725.16
744.671
733.134
688.624
612.021
507.177
380.716
241.473
99.6307
-34.3325
-150.75
-241.788
-302.244
-330.03
-326.279
-295.079
-242.875
-177.634
-107.878
-41.7147
14.0186
54.3986
76.7899
80.9201
68.6716
43.6388
10.5242
-25.5393
-59.6511
-87.7093
-106.823
-115.534
-113.836
-103.02
-85.3635
-63.7439
-41.2057
-20.5598
-4.05163
6.86462
11.6296
10.5593
4.719
-4.28402
-14.5535
-24.1677
-31.4189
-35.0033
-34.141
-28.6213
-18.7731
-5.37421
10.4835
27.5516
44.5836
60.4741
74.3642
85.7039
94.2695
100.138
103.627
105.216
105.455
104.88
103.939
102.95
102.075
101.323
100.579
99.6409
98.268
96.23
93.346
89.5127
84.7159
79.0276
72.5885
65.5811
58.1986
50.6162
42.9676
35.3341
27.745
20.1915
12.6492
5.1064
-2.40841
-9.80496
-16.9211
-23.5271
-29.3443
-34.0784
-37.4597
-39.2875
-39.4687
-38.0458
-35.2087
-31.2866
-26.7215
-22.0258
-17.7289
-14.3198
-12.194
-11.6099
-12.6611
-15.2675
-19.1856
-24.0374
-29.352
-34.6172
-39.3327
-43.0603
-45.4651
-46.343
-45.6339
-43.4184
-39.8999
-35.3764
-30.2034
-24.7552
-19.3869
-14.4026
-10.0313
-6.41387
-3.60052
-1.55785
-0.184515
0.667917
1.1714
1.49834
1.80148
2.19879
2.76464
3.52744
4.47346
5.55549
6.70455
7.84234
8.89203
9.7856
10.4666
10.8889
11.0122
10.7985
10.2094
9.20961
7.7754
5.90786
3.64914
1.09734
-1.58388
-4.16515
-6.36347
-7.86736
-8.37327
-7.62899
-5.4777
-1.8949
2.98859
8.88363
15.3621
21.8985
27.9286
32.9182
36.4336
38.201
38.1489
36.4248
33.3825
29.5421
25.5252
21.9742
19.4659
18.431
19.0896
21.4135
25.1183
29.6892
34.4353
38.5669
41.2867
41.8815
39.8073
34.7546
26.6917
15.8799
2.86589
-11.5451
-26.3253
-40.2608
-51.9791
-59.9666
-62.5799
-58.0677
-44.6256
-20.5082
15.7796
65.2127
127.917
202.832
287.443
377.649
467.852
551.299
620.673
668.872
689.891
679.653
636.689
562.51
461.639
341.253
210.474
79.416
-41.9099
-144.671
-222.14
-270.349
-288.408
-278.44
-245.184
-195.295
-136.485
-76.5808
-22.6455
19.7477
47.0062
57.7337
52.6659
34.3572
6.67724
-25.8029
-58.4492
-87.1468
-108.756
-121.397
-124.545
-118.94
-106.341
-89.1774
-70.1443
-51.8128
-36.296
-25.0134
-18.5743
-16.782
-18.7466
-23.0779
-28.1249
-32.2249
-33.9296
-32.1793
-26.4126
-16.6013
-3.21826
12.8525
30.4455
48.2634
65.0274
79.6112
91.1466
99.0904
103.251
103.779
101.115
95.9253
89.0119
81.2214
73.3591
66.1169
60.0196
55.3952
52.3681
50.8746
50.6954
51.4998
52.8965
54.4822
55.8847
56.7946
56.9853
56.3189
54.7418
52.2711
48.9769
44.9641
40.3552
35.2781
29.8582
24.2151
18.4636
12.7152
7.08122
1.67391
-3.39456
-8.01532
-12.0883
-15.5294
-18.2772
-20.2997
-21.5986
-22.2098
-22.2021
-21.671
-20.7307
-19.5041
-18.1119
-16.6635
-15.2485
-13.9328
-12.756
-11.7339
-10.8621
-10.1229
-9.49179
-8.94499
-8.4646
-8.04246
-7.68139
-7.39399
-7.19942
-7.11865
-7.16903
-7.35921
-7.68489
-8.12647
-8.64852
-9.20137
-9.72455
-10.1515
-10.4153
-10.4539
-10.2155
-9.66208
-8.77117
-7.53586
-5.96241
-4.06654
-1.869
0.608272
3.34459
6.32039
9.51431
12.8976
16.4267
20.0355
23.6284
27.0778
30.226
32.8932
34.8935
36.0543
36.2405
35.3775
33.4701
30.6145
26.9999
22.899
18.6484
14.6202
11.1886
8.6965
7.42524
7.57134
9.2328
12.4054
16.9881
22.7954
29.5731
37.0149
44.7765
52.4862
59.754
66.1787
71.3583
74.9052
76.4658
75.7465
72.541
66.7554
58.4271
47.7306
34.971
20.562
4.99647
-11.1843
-27.4093
-43.075
-57.5118
-69.92
-79.285
-84.2948
-83.2902
-74.2876
-55.1054
-23.6143
21.8949
82.2653
157.018
243.977
339.073
436.403
528.59
607.433
664.78
693.513
688.508
647.414
571.137
463.938
333.13
188.383
40.7566
-98.4503
-218.865
-312.087
-372.494
-397.708
-388.705
-349.54
-286.77
-208.636
-124.128
-42.0281
29.9464
85.8207
121.802
136.45
130.59
106.992
69.8861
24.3657
-24.2276
-70.8838
-111.402
-142.727
-163.126
-172.195
-170.726
-160.459
-143.749
-123.223
-101.433
-80.5769
-62.2902
-47.5365
-36.5938
-29.1289
-24.3388
-21.1344
-18.3381
-14.868
-9.88694
-2.90075
6.20146
17.1638
29.429
42.2381
54.7489
66.1549
75.7895
83.2026
88.2032
90.8651
91.4976
90.5898
88.7361
86.5543
84.6079
83.3413
83.0336
83.7768
85.4768
87.8758
90.5905
93.1609
95.1024
95.9548
95.3254
92.9213
88.5706
82.2333
74.0022
64.0964
52.8482
40.6851
28.1066
15.6549
3.88265
-6.68493
-15.5888
-22.4742
-27.1238
-29.4815
-29.6629
-27.9504
-24.7708
-20.6571
-16.1975
-11.9772
-8.51986
-6.23418
-5.37433
-6.01733
-8.06098
-11.2423
-15.1741
-19.3951
-23.427
-26.8324
-29.2654
-30.5099
-30.5011
-29.3277
-27.2162
-24.4986
-21.5681
-18.8296
-16.6487
-15.3076
-14.9717
-15.6704
-17.2958
-19.6169
-22.3091
-24.9945
-27.2872
-28.8398
-29.3827
-28.755
-26.9203
-23.9688
-20.1034
-15.6149
-10.8467
-6.15619
-1.8766
1.7166
4.43052
6.16882
6.93417
6.81961
5.99092
4.66271
3.07177
1.45095
0.00687804
-1.09622
-1.74512
-1.87857
-1.48122
-0.572661
0.806363
2.60787
4.78832
7.3164
10.1758
13.3624
16.8771
20.7138
24.8455
29.21
33.6975
38.144
42.3311
45.9968
48.8552
50.6246
51.062
49.9979
47.3678
43.2333
37.7911
31.3642
24.3782
17.3219
10.6982
4.97043
0.511548
-2.4376
-3.79425
-3.64003
-2.20518
0.169802
3.09357
6.20169
9.24841
12.206
15.3616
19.3968
25.4311
35.0039
49.9754
72.3279
103.871
145.873
198.663
261.279
331.231
404.467
475.565
538.183
585.724
612.123
612.669
584.718
528.197
445.797
342.826
226.721
106.276
-9.29872
-111.387
-192.89
-248.96
-277.445
-279.007
-256.899
-216.461
-164.387
-107.898
-53.8939
-8.22192
24.8832
43.1163
46.1642
35.526
14.1351
-14.1509
-45.1176
-74.7419
-99.6538
-117.466
-126.944
-128.009
-121.602
-109.433
-93.6637
-76.5737
-60.2513
-46.349
-35.9244
-29.3784
-26.4862
-26.5073
-28.3494
-30.7605
-32.5197
-32.6034
-30.308
-25.317
-17.7119
-7.9293
3.32371
15.1814
26.7421
37.1854
45.8688
52.3956
56.6449
58.7662
59.1388
58.3058
56.8905
55.5084
54.6845
54.7872
55.9852
58.2327
61.2828
64.7261
68.0493
70.7048
72.1822
72.0728
70.1194
66.245
60.5594
53.3423
45.0075
36.0528
27.0041
18.3583
10.5347
3.83769
-1.56395
-5.64173
-8.49581
-10.3304
-11.4205
-12.0738
-12.5948
-13.2518
-14.2538
-15.7354
-17.7523
-20.2842
-23.244
-26.4912
-29.8468
-33.1083
-36.065
-38.511
-40.2593
-41.1537
-41.0805
-39.9789
-37.8496
-34.7603
-30.848
-26.3149
-21.4199
-16.4625
-11.7613
-7.62739
-4.3348
-2.09188
-1.01627
-1.11755
-2.2903
-4.31959
-6.89921
-9.66134
-12.2148
-14.1881
-15.2711
-15.252
-14.0437
-11.6957
-8.39152
-4.42949
-0.189693
3.9091
7.45805
10.1063
11.6023
11.8238
10.7915
8.66588
5.72733
2.34159
-1.08377
-4.14672
-6.49593
-7.86815
-8.1136
-7.20676
-5.24206
-2.41567
1.00366
4.71065
8.40186
11.8116
14.7414
17.0799
18.8118
20.0147
20.8459
21.5207
22.2853
23.3875
25.0483
27.4369
30.6513
34.7049
39.5203
44.93
50.6825
56.4565
61.8788
66.5501
70.0737
72.089
72.3053
70.5328
66.7079
60.9086
53.3561
44.4025
34.5032
24.1782
13.9647
4.3691
-4.17605
-11.3407
-16.9053
-20.7407
-22.7584
-22.8296
-20.6834
-15.7977
-7.30798
6.03472
25.825
53.8563
91.8567
141.122
202.092
273.944
354.281
439.024
522.541
598.062
658.338
696.48
706.845
685.854
632.608
549.194
440.629
314.444
179.938
47.2145
-73.8844
-174.814
-249.197
-293.432
-306.965
-292.21
-254.135
-199.583
-136.42
-72.6175
-15.3838
29.5537
58.448
69.7656
64.1482
44.1292
13.659
-22.4893
-59.3524
-92.3708
-117.878
-133.436
-138.001
-131.901
-116.661
-94.7074
-68.9913
-42.5905
-18.3351
1.50125
15.4143
22.7709
23.7978
19.4694
11.3177
1.19387
-8.98453
-17.4706
-22.8805
-24.3227
-21.4533
-14.4585
-3.97287
9.0493
23.4872
38.209
52.2087
64.7074
75.2103
83.5164
89.6858
93.9749
96.7536
98.4195
99.3223
99.7102
99.7032
99.2949
98.3783
96.7891
94.3565
90.9519
86.5268
81.1337
74.9281
68.1506
61.0949
54.0669
47.3417
41.1276
35.5397
30.5906
26.195
22.1898
18.3638
14.4935
10.3773
5.86564
0.880265
-4.57658
-10.4251
-16.5205
-22.6715
-28.6617
-34.2697
-39.2848
-43.5174
-46.8047
-49.0113
-50.0292
-49.7777
-48.2066
-45.3038
-41.1068
-35.7182
-29.3206
-22.1887
-14.6925
-7.289
-0.499443
5.12794
9.06685
10.8684
10.2162
6.97416
1.21808
-6.75158
-16.4208
-27.0958
-37.9567
-48.1263
-56.7469
-63.0569
-66.461
-66.5863
-63.3182
-56.8144
-47.4942
-36.0058
-23.1731
-9.92835
2.76392
13.9858
22.9402
29.015
31.8321
31.2758
27.5013
20.9191
12.16
2.02192
-8.59697
-18.7723
-27.6303
-34.4197
-38.5738
-39.7568
-37.8901
-33.1559
-25.9782
-16.9813
-6.93121
3.33624
12.9932
21.2967
27.6575
31.6954
33.2745
32.516
29.7863
25.6605
20.8641
16.1979
12.4519
10.3187
10.3122
12.7045
17.485
24.3502
32.727
41.8258
50.722
58.4548
64.1323
67.0317
66.6808
62.9111
55.8774
46.0389
34.1062
20.9607
7.55674
-5.17895
-16.4348
-25.5742
-32.153
-35.8877
-36.5713
-33.9477
-27.5668
-16.653
-0.0328059
23.8386
56.7162
100.263
155.632
222.986
301.059
386.844
475.529
560.71
634.93
690.465
720.285
719.024
683.828
614.924
515.825
393.109
255.801
114.427
-20.1226
-137.787
-230.415
-292.604
-322.19
-320.342
-291.263
-241.557
-179.342
-113.246
-51.4111
-0.618409
34.3578
51.1109
49.6545
32.184
2.60029
-34.1259
-72.6593
-107.981
-135.967
-153.798
-160.176
-155.321
-140.796
-119.172
-93.6036
-67.3754
-43.4771
-24.2548
-11.1797
-4.74754
-4.51164
-9.23153
-17.1076
-26.0643
-34.0422
-39.2612
-40.4244
-36.8427
-28.4733
-15.8722
-0.0786135
17.5517
35.5358
52.4521
67.1032
78.6375
86.6159
91.024
92.2302
90.9033
87.9009
84.147
80.5126
77.7151
76.2447
76.3246
77.9055
80.692
84.1942
87.7979
90.843
92.7026
92.8543
90.9367
86.7859
80.4501
72.1805
62.4013
51.662
40.578
29.7675
19.7891
11.0907
3.97075
-1.44034
-5.18107
-7.44056
-8.52558
-8.81717
-8.72262
-8.62871
-8.86127
-9.65515
-11.1371
-13.3224
-16.1234
-19.3687
-22.8283
-26.242
-29.3471
-31.9023
-33.7074
-34.6167
-34.5467
-33.4789
-31.4582
-28.5875
-25.0199
-20.948
-16.5918
-12.1851
-7.96032
-4.13431
-0.894176
1.61432
3.29543
4.10793
4.0651
3.23018
1.70826
-0.364042
-2.82911
-5.51743
-8.25414
-10.863
-13.1687
-14.9992
-16.1899
-16.5912
-16.0796
-14.5721
-12.0423
-8.53476
-4.17503
0.828522
6.19334
11.583
16.6386
21.0166
24.4298
26.6832
27.6988
27.5254
26.3285
24.3641
21.9365
19.3505
16.8627
14.6422
12.7467
11.1188
9.60446
7.99047
6.05794
3.64233
0.691197
-2.6912
-6.22144
-9.44294
-11.7624
-12.5138
-11.0422
-6.79758
0.57587
11.1648
24.7393
40.7393
58.2996
76.311
93.5146
108.616
120.413
127.911
130.431
127.681
119.788
107.292
91.0941
72.3713
52.4597
32.7272
14.4438
-1.33394
-13.8508
-22.7042
-27.8505
-29.5631
-28.3426
-24.7848
-19.4169
-12.5193
-3.95862
6.93799
21.4321
41.3133
68.7069
105.746
154.132
214.644
286.669
367.861
454.012
539.208
616.286
677.559
715.733
724.875
701.295
644.197
555.986
442.177
310.896
172.046
36.2324
-86.397
-187.247
-260.164
-302.013
-312.87
-295.832
-256.481
-202.087
-140.67
-80.0379
-26.9332
13.6285
38.7523
47.7682
42.0594
24.6587
-0.313655
-28.2869
-54.865
-76.3638
-90.2022
-95.1128
-91.1636
-79.6076
-62.5959
-42.8055
-23.0358
-5.83017
6.83314
13.7479
14.5685
9.78176
0.576056
-11.364
-24.1051
-35.72
-44.5172
-49.2221
-49.0908
-43.9527
-34.1821
-20.6104
-4.39524
13.1347
30.6394
46.9124
60.9964
72.2602
80.4312
85.5849
88.0971
88.5673
87.7244
86.3279
85.074
84.5178
85.0174
86.7045
89.4818
93.0457
96.9307
100.569
103.359
104.735
104.231
101.533
96.5096
89.2311
79.9568
69.1088
57.2287
44.9223
32.802
21.43
11.2719
2.66191
-4.21491
-9.32345
-12.7641
-14.7457
-15.5501
-15.4946
-14.8958
-14.0404
-13.1652
-12.4474
-12.0044
-11.9004
-12.1583
-12.7718
-13.7154
-14.9521
-16.4355
-18.1103
-19.9089
-21.7502
-23.5382
-25.1653
-26.5186
-27.4891
-27.9829
-27.9329
-27.3079
-26.1184
-24.418
-22.2986
-19.8827
-17.31
-14.724
-12.2566
-10.0158
-8.07559
-6.46939
-5.18798
-4.1808
-3.36074
-2.61156
-1.79793
-0.77781
0.583026
2.39491
4.72781
7.59638
10.949
14.6631
18.5488
22.3611
25.8219
28.6465
30.5752
31.403
31.005
29.353
26.5219
22.6847
18.0962
13.0688
7.94341
3.05821
-1.27924
-4.81464
-7.36146
-8.80632
-9.10542
-8.27344
-6.36716
-3.46717
0.339049
4.96903
10.3498
16.4139
23.0871
30.2716
37.828
45.5605
53.2117
60.4678
66.9767
72.3765
76.3318
78.5705
78.9168
77.3137
73.8316
68.6622
62.0979
54.5019
46.2728
37.8088
29.4774
21.5918
14.3959
8.05619
2.65969
-1.78387
-5.33496
-8.10915
-10.2493
-11.8788
-13.0318
-13.5603
-13.0254
-10.5916
-4.9507
5.68725
23.5029
50.8485
89.8977
142.19
208.131
286.539
374.336
466.489
556.25
635.726
696.705
731.67
734.816
702.944
636.066
537.621
414.252
275.162
131.138
-6.64175
-127.833
-224.044
-289.689
-322.48
-323.509
-296.93
-249.295
-188.656
-123.548
-61.9958
-10.6558
25.8079
45.0585
47.1149
34.0991
9.75563
-21.1748
-53.6408
-82.9341
-105.238
-118.011
-120.181
-112.136
-95.5427
-73.0162
-47.7116
-22.8782
-1.4418
14.3402
23.115
24.5428
19.2728
8.80083
-4.768
-19.0156
-31.5275
-40.191
-43.4395
-40.4175
-31.0512
-16.0219
3.34952
25.2883
47.7961
68.8959
86.8622
100.409
108.818
111.986
110.405
105.061
97.2886
88.5824
80.4046
74.0057
70.2819
69.6844
72.1888
77.3246
84.2581
91.9129
99.1142
104.735
107.826
107.723
104.103
97.0107
86.8322
74.2365
60.0891
45.3499
30.9689
17.7907
6.47861
-2.53663
-9.07777
-13.214
-15.2282
-15.5643
-14.7635
-13.3948
-11.9913
-10.9954
-10.7201
-11.3288
-12.8339
-15.1122
-17.9348
-21.0064
-24.0077
-26.6376
-28.6482
-29.871
-30.2311
-29.749
-28.5311
-26.7505
-24.6219
-22.3732
-20.2185
-18.3344
-16.8433
-15.8045
-15.2135
-15.0088
-15.0853
-15.3111
-15.5456
-15.6576
-15.5387
-15.1139
-14.3454
-13.2323
-11.8054
-10.1188
-8.24069
-6.24301
-4.1933
-2.14832
-0.150478
1.77338
3.61097
5.36199
7.03436
8.6395
10.1869
11.678
13.1007
14.4237
15.5947
16.5406
17.1734
17.4001
17.1375
16.3282
14.9573
13.0642
10.7494
8.17319
5.54481
3.1052
1.1034
-0.229266
-0.704101
-0.195576
1.34526
3.88639
7.32026
11.4785
16.1539
21.1276
26.196
31.1952
36.018
40.6206
45.0177
49.2664
53.4391
57.5917
61.7298
65.7794
69.5686
72.8243
75.1873
76.245
75.5796
72.8248
67.7237
60.1773
50.2762
38.3097
24.7486
10.2052
-4.62111
-19.0028
-32.2307
-43.6344
-52.5668
-58.3481
-60.1798
-57.0484
-47.6522
-30.3894
-3.44419
35.0063
86.4619
151.679
230.223
320.072
417.393
516.541
610.369
690.829
749.81
780.129
776.503
736.379
660.472
552.914
420.982
274.422
124.454
-17.4204
-140.649
-236.738
-300.11
-328.601
-323.547
-289.47
-233.407
-163.987
-90.3851
-21.2723
36.098
76.5742
97.4939
98.7489
82.5471
52.9235
15.0806
-25.3476
-63.0115
-93.4579
-113.573
-121.817
-118.248
-104.344
-82.6713
-56.4589
-29.1307
-3.8686
16.7495
30.9984
38.1229
38.3249
32.6365
22.7084
10.5492
-1.74703
-12.2511
-19.4004
-22.1351
-19.962
-12.948
-1.6551
12.9709
29.7374
47.352
64.5631
80.2811
93.67
104.205
111.692
116.255
118.287
118.379
117.237
115.587
114.089
113.26
113.417
114.647
116.799
119.507
122.234
124.332
125.121
123.965
120.349
113.943
104.643
92.5929
78.1765
61.9864
44.7699
27.361
10.6037
-4.72224
-17.9666
-28.6576
-36.5296
-41.5292
-43.7989
-43.644
-41.487
-37.8171
-33.1414
-27.9434
-22.6531
-17.6304
-13.1608
-9.46115
-6.69175
-4.96902
-4.3762
-4.96819
-6.76961
-9.76644
-13.8932
-19.0184
-24.9325
-31.3405
-37.8642
-44.0547
-49.4176
-53.4502
-55.6883
-55.7582
-53.4284
-48.6549
-41.6103
-32.6939
-22.5159
-11.8555
-1.59508
7.36428
14.197
18.2457
19.1018
16.661
11.1483
3.10424
-6.66405
-17.1651
-27.3275
-36.1153
-42.6397
-46.2538
-46.6187
-43.7339
-37.9278
-29.8113
-20.201
-10.0206
-0.195664
8.44844
15.2709
19.875
22.1358
22.1957
20.4293
17.3851
13.7111
10.0755
7.09176
5.25608
4.90425
6.19038
9.08812
13.4117
18.8517
25.0204
31.4989
37.8809
43.809
48.9981
53.2473
56.4385
58.5257
59.517
59.4542
58.3941
56.3944
53.5063
49.7748
45.2452
39.9738
34.0389
27.551
20.6563
13.5356
6.39446
-0.549862
-7.08365
-13.0065
-18.1288
-22.2496
-25.1088
-26.315
-25.2551
-21.0056
-12.273
2.60102
25.537
58.4936
103.124
160.346
229.885
309.891
396.712
484.925
567.652
637.184
685.829
706.882
695.584
649.895
570.982
463.3
334.262
193.519
51.9348
-79.5883
-191.303
-275.655
-328.043
-347.208
-335.222
-297.081
-239.985
-172.393
-103.003
-39.7628
10.9566
44.935
60.3819
57.9024
40.181
11.4464
-23.1987
-58.49
-89.662
-112.981
-126.099
-128.193
-119.908
-103.116
-80.5476
-55.352
-30.6526
-9.15033
7.17737
17.2532
20.9429
18.9723
12.7423
4.07546
-5.06475
-12.8441
-17.7816
-18.9031
-15.8121
-8.67557
1.8612
14.8141
29.0266
43.3386
56.7343
68.4509
78.0394
85.3752
90.6222
94.1634
96.5099
98.2047
99.7345
101.461
103.577
106.097
108.865
111.598
113.932
115.483
115.902
114.92
112.379
108.245
102.605
95.647
87.6328
78.8614
69.6378
60.2448
50.9233
41.8629
33.2019
25.0341
17.4217
10.4081
4.03088
-1.66972
-6.6469
-10.8487
-14.2239
-16.7311
-18.3492
-19.0864
-18.9882
-18.1397
-16.665
-14.7209
-12.4874
-10.1554
-7.91213
-5.92816
-4.34485
-3.26538
-2.74911
-2.81013
-3.41971
-4.51226
-5.9941
-7.75391
-9.67373
-11.6394
-13.5494
-15.3205
-16.8916
-18.2229
-19.2933
-20.0954
-20.6294
-20.8967
-20.8951
-20.6153
-20.0401
-19.1457
-17.9056
-16.2951
-14.2974
-11.9088
-9.14373
-6.03844
-2.65289
0.928722
4.59931
8.23207
11.6855
14.8107
17.4603
19.5007
20.8254
21.3698
21.1252
20.1497
18.5739
16.5976
14.4782
12.5089
10.9886
10.1877
10.313
11.4785
13.6858
16.8189
20.6556
24.8939
29.1909
33.2093
36.6613
39.3466
41.1732
42.1617
42.4284
42.1522
41.5312
40.7361
39.8702
38.9426
37.8594
36.4357
34.4244
31.558
27.5949
22.3638
15.7974
7.95409
-0.975997
-10.6749
-20.7057
-30.5172
-39.4371
-46.6499
-51.1597
-51.7511
-46.9654
-35.1201
-14.3982
16.9713
60.4375
116.776
185.708
265.563
353.059
443.296
529.99
605.976
663.936
697.258
700.917
672.231
611.373
521.55
408.801
281.429
149.145
22.0254
-90.5751
-181.009
-244.105
-277.62
-282.333
-261.787
-221.72
-169.275
-112.107
-57.4865
-11.5197
21.4292
39.0644
41.2109
29.61
7.50571
-20.9088
-51.1045
-78.8082
-100.503
-113.784
-117.539
-111.955
-98.357
-78.9243
-56.3332
-33.3706
-12.5762
4.04828
15.232
20.5173
20.2313
15.3637
7.37389
-2.03977
-11.1761
-18.5419
-23.0146
-23.9394
-21.1579
-14.9696
-6.04018
4.72653
16.3328
27.8258
38.4146
47.5499
54.9628
60.659
64.8755
68.0098
70.5339
72.9074
75.501
78.5419
82.0836
86.0046
90.0309
93.7781
96.8056
98.6742
99.0014
97.5062
94.0411
88.6078
81.357
72.573
62.6468
52.0401
41.2449
30.7431
20.9691
12.2791
4.9288
-0.938086
-5.29176
-8.20803
-9.85196
-10.4553
-10.2899
-9.6404
-8.77772
-7.93652
-7.29789
-6.97871
-7.02809
-7.43078
-8.11688
-8.97653
-9.87811
-10.688
-11.2899
-11.6017
-11.588
-11.2662
-10.7067
-10.0242
-9.36368
-8.88089
-8.7205
-8.99478
-9.76596
-11.0348
-12.7371
-14.7488
-16.8989
-18.9888
-20.8145
-22.1899
-22.9672
-23.0523
-22.4124
-21.0774
-19.1316
-16.7007
-13.933
-10.9784
-7.96911
-5.00224
-2.12977
0.644225
3.35735
6.07448
8.86724
11.7909
14.8629
18.047
21.2472
24.3128
27.0548
29.2714
30.7783
31.4392
31.1907
30.0572
28.1537
25.6749
22.8738
20.0328
17.4335
15.3292
13.9252
13.3668
13.7356
15.0515
17.2767
20.32
24.0382
28.2369
32.6706
37.0464
41.034
44.2848
46.4591
47.2615
46.4782
44.0103
39.8965
34.3179
27.5822
20.0868
12.267
4.53788
-2.75467
-9.36031
-15.1138
-19.8803
-23.4569
-25.4443
-25.1137
-21.3045
-12.3956
3.61362
28.8883
65.4119
114.544
176.545
250.166
332.385
418.392
501.858
575.488
631.811
664.101
667.29
638.742
578.751
490.683
380.727
257.277
130.029
8.91487
-96.9886
-180.43
-236.706
-264.067
-263.741
-239.624
-197.661
-145.035
-89.2631
-37.3229
5.08775
34.0778
47.8283
46.587
32.4145
8.73809
-20.2166
-50.033
-76.671
-96.9287
-108.75
-111.358
-105.212
-91.8141
-73.4065
-52.6063
-32.0322
-13.9719
-0.125274
8.54979
11.8822
10.4283
5.328
-1.89755
-9.5747
-16.1015
-20.1406
-20.7606
-17.5146
-10.452
-0.0705996
12.7811
27.0333
41.539
55.2129
67.1511
76.718
83.5932
87.7774
89.5585
89.4466
88.087
86.1639
84.307
83.0121
82.5848
83.112
84.4629
86.3191
88.2258
89.6591
90.0986
89.0966
86.3365
81.6716
75.1428
66.9723
57.5358
47.3176
36.8548
26.678
17.2556
8.94843
1.97953
-3.57847
-7.79755
-10.872
-13.083
-14.7553
-16.2106
-17.7249
-19.4933
-21.6071
-24.0456
-26.683
-29.3084
-31.6577
-33.451
-34.433
-34.4095
-33.2769
-31.0411
-27.8235
-23.8529
-19.447
-14.9833
-10.8649
-7.48344
-5.18394
-4.23279
-4.79154
-6.8972
-10.4497
-15.2073
-20.7913
-26.7008
-32.3405
-37.0614
-40.2163
-41.2256
-39.651
-35.2674
-28.1235
-18.5794
-7.31208
4.72004
16.3552
26.3448
33.4979
36.837
35.7438
30.0727
20.2134
7.08749
-7.92427
-23.1201
-36.6647
-46.8036
-52.0764
-51.5002
-44.6982
-31.9566
-14.1999
7.11083
30.1436
52.9042
73.4603
90.1527
101.768
107.654
107.762
102.624
93.2534
81.0047
67.395
53.92
41.883
32.2587
25.6065
22.0402
21.2564
22.6124
25.2412
28.1871
30.5411
31.5595
30.7517
27.9264
23.1941
16.9299
9.70284
2.18782
-4.9269
-11.0187
-15.5825
-18.2438
-18.7276
-16.7865
-12.0966
-4.14412
7.86733
25.0548
48.8033
80.5987
121.744
172.983
234.096
303.538
378.225
453.535
523.585
581.765
621.494
637.074
624.531
582.282
511.537
416.343
303.253
180.665
57.9097
-55.7843
-152.302
-225.502
-271.82
-290.528
-283.653
-255.566
-212.318
-160.822
-107.998
-59.9853
-21.5187
4.46568
16.9675
16.808
6.30305
-11.2155
-31.9532
-52.2041
-68.8296
-79.6096
-83.4366
-80.3409
-71.3623
-58.3002
-43.3861
-28.9287
-16.9816
-9.07438
-6.03768
-7.93761
-14.1186
-23.341
-33.9864
-44.3001
-52.6332
-57.654
-58.5027
-54.873
-47.0145
-35.6628
-21.9104
-7.03875
7.66118
21.0578
32.3131
40.9667
46.961
50.6075
52.5038
53.4146
54.1379
55.3766
57.6325
61.1386
65.8352
71.3914
77.2647
82.7888
87.2735
90.1027
90.8163
89.1671
85.1452
78.9706
71.0578
61.9589
52.2945
42.6835
33.6787
25.7166
19.0857
13.9145
10.1784
7.72265
6.29613
5.59158
5.28605
5.07757
4.7142
4.01334
2.87046
1.25764
-0.786613
-3.1738
-5.78555
-8.49425
-11.1816
-13.7527
-16.1444
-18.327
-20.3003
-22.0845
-23.7093
-25.2012
-26.5736
-27.8203
-28.9139
-29.8088
-30.4498
-30.7824
-30.7655
-30.3821
-29.6471
-28.6095
-27.3501
-25.9717
-24.5863
-23.2986
-22.1897
-21.3033
-20.6362
-20.1357
-19.7035
-19.2066
-18.493
-17.4117
-15.8332
-13.6677
-10.8801
-7.4985
-3.61532
0.618562
5.00689
9.32613
13.3468
16.8555
19.6751
21.681
22.8124
23.0764
22.5464
21.3545
19.6786
17.7269
15.7201
13.8737
12.3822
11.406
11.0623
11.4203
12.5011
14.2808
16.6974
19.6575
23.0455
26.7307
30.5737
34.4317
38.161
41.6189
44.6643
47.1571
48.9584
49.9315
49.9451
48.88
46.6387
43.1576
38.4203
32.4697
25.4162
17.4402
8.78681
-0.244213
-9.31193
-18.0428
-26.0277
-32.7984
-37.7808
-40.227
-39.1389
-33.2087
-20.8076
-0.0577365
30.984
74.0252
130.137
199.312
280.054
369.102
461.385
550.25
628.001
686.693
719.092
719.663
685.425
616.55
516.575
392.196
252.644
108.717
-28.3945
-148.344
-242.763
-306.137
-336.325
-334.657
-305.613
-256.134
-194.674
-130.12
-70.7164
-23.1452
8.14714
21.2935
17.0024
-1.77191
-30.421
-63.4403
-95.243
-120.917
-136.833
-141.027
-133.334
-115.26
-89.649
-60.1826
-30.8135
-5.20355
13.7558
24.2801
25.8534
19.2051
6.12107
-10.873
-28.9026
-45.1523
-57.2341
-63.4709
-63.0655
-56.1406
-43.6575
-27.2325
-8.88284
9.25943
25.2274
37.4592
44.9699
47.4407
45.2185
39.2335
30.849
21.6676
13.317
7.24549
4.54766
5.84087
11.2041
20.1835
31.8612
44.9776
58.0897
69.7467
78.6608
83.853
84.7578
81.2755
73.7684
63.0027
50.047
36.1399
22.5447
10.4089
0.643701
-6.16223
-9.78753
-10.3785
-8.40747
-4.59685
0.180689
5.01222
9.05186
11.613
12.2358
10.7245
7.15121
1.83029
-4.73394
-11.9162
-19.0475
-25.4917
-30.7111
-34.3167
-36.0973
-36.0277
-34.257
-31.0814
-26.9067
-22.205
-17.4724
-13.1892
-9.78527
-7.61072
-6.91195
-7.81247
-10.2993
-14.2164
-19.2681
-25.0334
-30.9957
-36.5853
-41.235
-44.4421
-45.8317
-45.2114
-42.6082
-38.2805
-32.6993
-26.4984
-20.3969
-15.105
-11.2234
-9.15457
-9.03722
-10.7176
-13.7616
-17.509
-21.1601
-23.8856
-24.9404
-23.7667
-20.0719
-13.868
-5.47118
4.54031
15.4006
26.2516
36.2455
44.6384
50.8658
54.5893
55.714
54.3781
50.9206
45.8352
39.7188
33.2192
26.9879
21.6374
17.7038
15.612
15.6441
17.9101
22.3244
28.593
36.2161
44.5124
52.6675
59.8056
65.0791
67.766
67.361
63.6472
56.7335
47.0495
35.2952
22.35
9.15517
-3.41172
-14.6442
-24.0727
-31.4673
-36.7659
-39.9319
-40.7607
-38.6761
-32.5681
-20.7329
-0.963811
29.1771
71.9175
128.716
199.678
283.069
375.043
469.686
559.417
635.735
690.217
715.63
706.992
662.393
583.45
475.309
346.166
206.39
67.3448
-59.9081
-165.856
-243.561
-289.34
-303.014
-287.725
-249.358
-195.672
-135.254
-76.4633
-26.4731
9.45631
28.4169
29.9653
15.9256
-10.0661
-43.1958
-78.1897
-110.02
-134.512
-148.784
-151.487
-142.826
-124.394
-98.8377
-69.4324
-39.6201
-12.5686
9.19021
24.0076
31.2319
31.1878
25.0375
14.5549
1.84959
-10.9187
-21.7978
-29.2452
-32.2575
-30.4211
-23.8899
-13.3044
0.33085
15.7902
31.7728
47.0363
60.5073
71.3631
79.0823
83.4658
84.6294
82.9737
79.1329
73.9092
68.1958
62.8942
58.8325
56.69
56.9343
59.7777
65.1548
72.7248
81.8972
91.8789
101.738
110.478
117.122
120.788
120.772
116.605
108.107
95.4112
78.9733
59.5484
38.1474
15.9686
-5.69051
-25.5345
-42.3767
-55.2405
-63.4469
-66.6758
-64.9963
-58.8594
-49.0542
-36.6308
-22.7983
-8.80898
4.15867
15.1049
23.2907
28.2887
29.9976
28.6221
24.6205
18.6304
11.3808
3.60341
-4.04617
-11.0495
-17.0619
-21.9225
-25.6404
-28.3593
-30.3093
-31.7536
-32.937
-34.0448
-35.1759
-36.3332
-37.4305
-38.3141
-38.794
-38.6792
-37.8122
-36.0969
-33.5163
-30.1393
-26.1145
-21.6538
-17.0087
-12.4422
-8.20075
-4.48993
-1.45608
0.823947
2.34476
3.16648
3.40276
3.20461
2.74264
2.18979
1.7065
1.42959
1.46554
1.88832
2.74149
4.04371
5.79689
7.99573
10.6374
13.7305
17.3009
21.3952
26.0778
31.4231
37.4994
44.3475
51.9531
60.2177
68.9326
77.7607
86.2331
93.7641
99.6871
103.312
103.994
101.22
94.6799
84.3328
70.4481
53.6112
34.6937
14.7874
-4.89405
-23.1323
-38.8271
-51.1068
-59.4069
-63.5021
-63.4789
-59.6468
-52.3908
-41.9876
-28.4128
-11.1823
10.7268
38.8326
74.955
120.871
177.854
246.166
324.595
410.156
498.027
581.801
654.038
707.079
733.999
729.582
691.137
619.052
516.969
391.546
251.841
108.372
-28.0014
-147.245
-241.202
-304.412
-334.589
-332.718
-302.777
-251.124
-185.657
-114.852
-46.8007
11.6232
55.3971
81.7087
90.0278
81.9067
60.5589
30.2892
-4.14243
-38.1365
-67.7793
-90.2213
-103.881
-108.466
-104.838
-94.7427
-80.4728
-64.4989
-49.1267
-36.2183
-27.0038
-21.9972
-21.0137
-23.2747
-27.5767
-32.4965
-36.6029
-38.6485
-37.7198
-33.3325
-25.4646
-14.5305
-1.30394
13.1958
27.8386
41.5202
53.2865
62.4308
68.5561
71.5987
71.8127
69.7204
66.0373
61.58
57.1689
53.5369
51.251
50.6579
51.8554
54.6934
58.802
63.6436
68.5807
72.9513
76.144
77.662
77.1713
74.5276
69.7814
63.1617
55.0427
45.8995
36.2568
26.6395
17.5279
9.3232
2.32534
-3.2772
-7.40509
-10.0764
-11.3882
-11.4941
-10.5826
-8.85706
-6.52079
-3.76781
-0.778818
2.27837
5.24578
7.97189
10.3097
12.1178
13.2649
13.6379
13.1522
11.762
9.47054
6.33553
2.47116
-1.95624
-6.73807
-11.6383
-16.412
-20.8257
-24.677
-27.8112
-30.1333
-31.6127
-32.2804
-32.2201
-31.553
-30.4195
-28.9601
-27.2993
-25.5329
-23.7218
-21.8916
-20.0383
-18.1384
-16.1616
-14.0834
-11.8963
-9.61754
-7.29153
-4.988
-2.79511
-0.809141
0.877725
2.18979
3.07865
3.53099
3.57235
3.26661
2.71128
2.02973
1.36155
0.852795
0.647719
0.882868
1.68392
3.16455
5.42587
8.55492
12.6205
17.6655
23.6959
30.6669
38.4699
46.921
55.7554
64.6306
73.138
80.8259
87.2305
91.9129
94.4989
94.7163
92.4254
87.639
80.5284
71.4144
60.7439
49.0545
36.9296
24.9511
13.6517
3.47496
-5.25576
-12.3537
-17.7684
-21.566
-23.8866
-24.8774
-24.6011
-22.9244
-19.3988
-13.1554
-2.84509
13.339
37.5249
71.8897
118.264
177.649
249.733
332.492
421.989
512.453
596.675
666.7
714.741
734.194
720.591
672.338
591.122
481.912
352.519
212.805
73.6089
-54.4427
-162.089
-242.407
-291.475
-308.662
-296.515
-260.28
-207.138
-145.262
-82.8202
-27.0656
16.4058
44.1298
54.9566
49.9377
31.9598
5.1908
-25.5754
-55.5857
-80.7222
-97.9579
-105.631
-103.519
-92.7257
-75.4102
-54.4069
-32.7951
-13.4755
1.19356
9.66184
11.3283
6.55324
-3.45018
-16.8204
-31.3155
-44.6077
-54.567
-59.5016
-58.3323
-50.6845
-36.8954
-17.942
4.69615
29.2195
53.7118
76.3423
95.5442
110.152
119.489
123.391
122.185
116.607
107.693
96.6383
84.6631
72.8784
62.183
53.1936
46.2157
41.2567
38.0731
36.2465
35.2725
34.6514
33.966
32.9388
31.4601
29.5863
27.5117
25.5184
23.9154
22.9756
22.8797
23.6757
25.2569
27.3624
29.5957
31.462
32.4168
31.9222
29.5056
24.8163
17.6749
8.11198
-3.60891
-16.9865
-31.2996
-45.6486
-59.0205
-70.3748
-78.7421
-83.3275
-83.605
-79.3915
-70.8886
-58.6835
-43.7078
-27.1545
-10.3642
5.30882
18.6329
28.6222
34.6313
36.4106
34.1168
28.2775
19.7175
9.45515
-1.41557
-11.8448
-20.933
-28.0121
-32.6953
-34.8905
-34.7793
-32.7666
-29.4097
-25.3357
-21.1594
-17.4104
-14.4781
-12.5792
-11.75
-11.862
-12.6573
-13.7977
-14.9199
-15.6899
-15.8496
-15.2494
-13.864
-11.7888
-9.2187
-6.41091
-3.63908
-1.14366
0.913118
2.48092
3.63812
4.58868
5.63896
7.15745
9.52284
13.0679
18.0267
24.4936
32.3974
41.4976
51.3989
61.5866
71.4738
80.4576
87.9763
93.5604
96.8726
97.7327
96.1251
92.19
86.2005
78.5278
69.6026
59.8733
49.7697
39.6722
29.8905
20.6521
12.1001
4.29939
-2.74807
-9.07711
-14.7188
-19.6402
-23.6611
-26.3504
-26.9154
-24.1092
-16.1932
-0.995445
23.9014
60.8295
111.583
176.902
255.976
346.089
442.49
538.576
626.404
697.494
743.827
758.901
738.684
682.3
592.359
474.828
338.482
193.978
52.6839
-74.5815
-178.731
-253.362
-295.364
-305.107
-286.211
-244.943
-189.327
-128.104
-69.6786
-21.1693
12.3047
28.0493
25.8943
7.98034
-21.7143
-58.0272
-95.3506
-128.359
-152.635
-165.137
-164.448
-150.82
-126.005
-92.9266
-55.2476
-16.8836
18.4618
47.6949
68.6212
80.1045
82.0918
75.5169
62.1081
44.1309
24.1039
4.51983
-12.3992
-24.8915
-31.7784
-32.5158
-27.1779
-16.3833
-1.17575
17.124
37.0778
57.2862
76.5245
93.8464
108.648
120.684
130.039
137.065
142.279
146.252
149.501
152.388
155.051
157.375
158.995
159.353
157.77
153.56
146.134
135.107
120.382
102.196
81.128
58.0656
34.1278
10.563
-11.3735
-30.5439
-46.0403
-57.2731
-64.0237
-66.4575
-65.0962
-60.7527
-54.4369
-47.2447
-40.2414
-34.3542
-30.2845
-28.4489
-28.9554
-31.6132
-35.976
-41.409
-47.1728
-52.5125
-56.7418
-59.3135
-59.8683
-58.2592
-54.5508
-48.9943
-41.984
-34.0027
-25.5614
-17.1427
-9.15463
-1.89884
4.44259
9.80219
14.2062
17.7426
20.5237
22.651
24.1872
25.1413
25.4671
25.0768
23.8651
21.7397
18.6538
14.6318
9.78731
4.32723
-1.45749
-7.21428
-12.5614
-17.1261
-20.5843
-22.6948
-23.3259
-22.4687
-20.2375
-16.8557
-12.6307
-7.91947
-3.09117
1.51099
5.60225
8.98082
11.5416
13.2788
14.2776
14.6979
14.7529
14.6857
14.7475
15.1785
16.194
17.973
20.6506
24.3096
28.9737
34.5981
41.0614
48.1585
55.5982
63.0087
69.9516
75.9478
80.5127
83.1991
83.643
81.6071
77.0162
69.9778
60.7862
49.9064
37.9396
25.5737
13.5238
2.4707
-6.99311
-14.4026
-19.4332
-21.8817
-21.6097
-18.4526
-12.1046
-2.00079
12.7693
33.4811
61.6886
99.0108
146.795
205.69
275.203
353.328
436.351
518.901
594.307
655.231
694.524
706.172
686.203
633.392
549.656
440.042
312.311
176.154
42.1446
-79.4261
-179.687
-252.133
-293.275
-302.904
-283.962
-242.048
-184.63
-120.089
-56.7136
-1.77083
39.2324
63.028
68.7609
57.8621
33.66
0.797808
-35.456
-69.9105
-98.0819
-116.678
-123.894
-119.498
-104.714
-81.9446
-54.3644
-25.4671
1.39116
23.3876
38.5279
45.8148
45.2814
37.8985
25.3799
9.91804
-6.11137
-20.4371
-31.1402
-36.8369
-36.782
-30.8901
-19.6808
-4.16485
14.3108
34.235
54.101
72.5542
88.5062
101.207
110.278
115.702
117.781
117.074
114.317
110.332
105.946
101.91
98.837
97.1532
97.0681
98.5668
101.42
105.216
109.399
113.334
116.359
117.858
117.31
114.344
108.771
100.602
90.0478
77.497
63.4862
48.6522
33.6795
19.2473
5.97901
-5.59985
-15.0921
-22.247
-26.9653
-29.2922
-29.4014
-27.573
-24.1675
-19.6006
-14.3187
-8.7773
-3.4215
1.33257
5.11581
7.62433
8.63736
8.03327
5.80173
2.04962
-3.00162
-9.02841
-15.6275
-22.347
-28.7243
-34.3255
-38.7842
-41.8336
-43.3297
-43.2613
-41.7469
-39.0191
-35.3965
-31.2491
-26.9595
-22.8839
-19.319
-16.4762
-14.4669
-13.2984
-12.8823
-13.0519
-13.5876
-14.2461
-14.7898
-15.0136
-14.7642
-13.9504
-12.544
-10.5704
-8.09243
-5.19084
-1.9451
1.58128
5.34816
9.33778
13.5459
17.9671
22.5784
27.3234
32.1021
36.7681
41.1345
44.9878
48.109
50.2988
51.403
51.3355
50.0955
47.776
44.5633
40.7263
36.5974
32.5459
28.9467
26.1469
24.4335
24.0049
24.9484
27.227
30.6768
35.0155
39.8619
44.7644
49.2365
52.7954
55
55.4868
54.0015
50.4282
44.8184
37.4242
28.7404
19.5535
10.9952
4.58462
2.23721
6.21187
18.9686
42.9186
80.0707
131.604
197.428
275.815
363.196
454.19
541.926
618.635
676.475
708.467
709.423
676.712
610.76
515.176
396.495
263.544
126.528
-4.06695
-118.585
-209.214
-270.75
-301.047
-301.091
-274.719
-228.02
-168.526
-104.283
-42.9352
9.07743
47.1166
68.6847
73.4864
63.2278
41.2016
11.7257
-20.4827
-50.9174
-75.8056
-92.4875
-99.6222
-97.211
-86.4554
-69.4819
-48.9816
-27.8173
-8.64866
6.38115
15.8648
19.24
16.7857
9.51652
-1.00157
-12.8856
-24.1868
-33.127
-38.294
-38.7762
-34.2264
-24.8545
-11.3569
5.20162
23.5366
42.3005
60.2286
76.2596
89.6182
99.8545
106.843
110.743
111.934
110.934
108.316
104.628
100.335
95.779
91.1637
86.5625
81.9453
77.2162
72.2581
66.9737
61.3184
55.3207
49.0873
42.7939
36.663
30.9346
25.8334
21.5373
18.1534
15.7033
14.1197
13.2542
12.895
12.7912
12.6798
12.3138
11.4849
10.0424
7.90403
5.05983
1.56971
-2.44498
-6.81404
-11.3341
-15.7857
-19.951
-23.6303
-26.6564
-28.9067
-30.3108
-30.8537
-30.5749
-29.5623
-27.943
-25.8703
-23.5101
-21.0265
-18.5692
-16.2632
-14.2021
-12.4448
-11.0165
-9.91188
-9.10203
-8.542
-8.17952
-7.96321
-7.85006
-7.81116
-7.83569
-7.93261
-8.12989
-8.47071
-9.00628
-9.78517
-10.8396
-12.1701
-13.731
-15.4191
-17.0695
-18.4601
-19.326
-19.3843
-18.3657
-16.0503
-12.3015
-7.09379
-0.529729
7.15762
15.6172
24.4071
33.0333
40.9955
47.8345
53.1756
56.7632
58.4827
58.3677
56.5923
53.4508
49.3263
44.6537
39.8794
35.4226
31.6406
28.8007
27.0599
26.4542
26.8973
28.1902
30.0403
32.089
33.9461
35.2277
35.5945
34.7857
32.6465
29.1465
24.3879
18.6064
12.1684
5.57078
-0.551813
-5.40739
-8.01738
-7.18698
-1.49314
10.6855
31.0711
61.3026
102.664
155.747
220.092
293.884
373.781
454.937
531.273
595.993
642.298
664.212
657.402
619.857
552.326
458.43
344.41
218.546
90.3045
-30.6645
-135.558
-217.34
-271.443
-296.162
-292.706
-264.91
-218.665
-161.145
-99.9296
-42.1514
6.2506
41.0757
60.1599
63.4106
52.5949
30.929
2.53554
-28.151
-56.955
-80.4374
-96.2313
-103.209
-101.478
-92.2207
-77.4233
-59.5289
-41.076
-24.3636
-11.1847
-2.65414
0.860308
-0.296351
-5.18588
-12.4582
-20.5651
-27.9762
-33.3706
-35.7822
-34.6876
-30.029
-22.1777
-11.8484
0.0216665
12.4099
24.3436
35.0169
43.8764
50.6668
55.4326
58.4803
60.306
61.5021
62.6573
64.2617
66.6339
69.8762
73.8639
78.2692
82.6133
86.3384
88.8893
89.7909
88.7128
85.5122
80.2499
73.1799
64.7144
55.3718
45.7151
36.2894
27.5677
19.9095
13.5377
8.53386
4.85056
2.33716
0.774712
-0.0862146
-0.490477
-0.650948
-0.732185
-0.84615
-1.05859
-1.40263
-1.89507
-2.55088
-3.39254
-4.45211
-5.7661
-7.36451
-9.25685
-11.4188
-13.7834
-16.2391
-18.6378
-20.8111
-22.5926
-23.8432
-24.4735
-24.4597
-23.8486
-22.7521
-21.3305
-19.7688
-18.2486
-16.9223
-15.8915
-15.1954
-14.8077
-14.6454
-14.5841
-14.4793
-14.189
-13.5938
-12.6122
-11.2092
-9.39716
-7.23012
-4.79334
-2.19008
0.471808
3.09114
5.58112
7.87265
9.91343
11.6638
13.0913
14.1655
14.8555
15.1322
14.974
14.3782
13.3736
12.0337
10.4872
8.92166
7.57875
6.73918
6.69745
7.72823
10.048
13.7773
18.909
25.2885
32.6103
40.4327
48.2113
55.3473
61.2459
65.3781
67.3371
66.8833
63.9715
58.7567
51.5779
42.9222
33.3721
23.5449
14.0283
5.32208
-2.20923
-8.36609
-13.1222
-16.6082
-19.0688
-20.7932
-22.0191
-22.8176
-22.9655
-21.8274
-18.2693
-10.6383
3.16108
25.4692
58.5477
104.151
163.049
234.574
316.304
403.946
491.507
571.763
636.979
679.813
694.268
676.55
625.702
543.913
436.433
311.116
177.617
46.3763
-72.5101
-170.362
-240.815
-280.433
-288.965
-269.23
-226.65
-168.515
-103.067
-38.5316
17.791
60.2613
85.3937
92.06
81.4009
56.4791
21.7355
-17.6676
-56.5275
-90.2215
-115.196
-129.278
-131.791
-123.473
-106.24
-82.8279
-56.3716
-29.991
-6.41929
12.2764
24.86
30.9709
31.0556
26.2094
17.9584
8.01743
-1.94304
-10.4909
-16.5677
-19.5545
-19.2689
-15.9044
-9.92771
-1.95851
7.34948
17.4052
27.7428
38.0437
48.1209
57.8739
67.2279
76.0732
84.2193
91.3742
97.1558
101.132
102.883
102.078
98.5443
92.3247
83.7008
73.1867
61.485
49.4138
37.8147
27.4554
18.9413
12.6498
8.69447
6.92503
6.95999
8.24706
10.1408
11.9865
13.1981
13.3216
12.0755
9.36754
5.28549
0.0691038
-5.93276
-12.3111
-18.6453
-24.5441
-29.6769
-33.7921
-36.7243
-38.3919
-38.789
-37.9747
-36.0617
-33.2074
-29.6065
-25.4848
-21.0933
-16.6997
-12.5768
-8.98646
-6.16021
-4.27783
-3.44744
-3.69001
-4.93153
-7.00512
-9.66397
-12.6042
-15.495
-18.0136
-19.8783
-20.8779
-20.8922
-19.9015
-17.9843
-15.3034
-12.0837
-8.58318
-5.06248
-1.75625
1.15049
3.53821
5.35995
6.63966
7.46263
7.96023
8.29087
8.61971
9.09916
9.85185
10.9574
12.4441
14.2855
16.4028
18.6729
20.9409
23.0376
24.7992
26.0878
26.8097
26.9303
26.4811
25.561
24.3273
22.981
21.7461
20.846
20.4802
20.8039
21.9134
23.8373
26.5355
29.9021
33.7728
37.9338
42.13
46.0741
49.4558
51.9538
53.2513
53.0574
51.1321
47.3128
41.5404
33.8776
24.519
13.7902
2.13753
-9.88367
-21.6151
-32.2851
-40.9774
-46.5793
-47.727
-42.7712
-29.8028
-6.77174
28.2752
76.8395
139.533
215.631
302.703
396.44
490.746
578.151
650.523
700.008
720.06
706.409
657.798
576.362
467.563
339.686
202.942
68.3162
-53.6897
-154.233
-227.076
-269.177
-280.862
-265.568
-229.229
-179.386
-124.174
-71.306
-27.2015
3.65498
19.0548
19.0917
5.89732
-16.8538
-44.5858
-72.5151
-96.3036
-112.591
-119.353
-116.049
-103.57
-83.9995
-60.239
-35.5594
-13.1342
4.37782
15.1552
18.405
14.4069
4.41478
-9.5636
-25.0726
-39.5552
-50.6923
-56.6903
-56.4827
-49.8242
-37.2721
-20.0658
0.0732423
21.1875
41.3399
58.8452
72.4486
81.4314
85.6391
85.4358
81.6007
75.1888
67.3782
59.3275
52.0582
46.3723
42.8063
41.6185
42.8004
46.1029
51.0708
57.0803
63.3794
69.134
73.4838
75.6096
74.8135
70.6061
62.7903
51.5284
37.3772
21.2759
4.48043
-11.5568
-25.3517
-35.5784
-41.2582
-41.92
-37.7043
-29.3911
-18.3409
-6.35021
4.56367
12.4233
15.5623
12.8698
3.97167
-10.6786
-29.8164
-51.4904
-73.2816
-92.5893
-106.95
-114.345
-113.466
-103.89
-86.1617
-61.7531
-32.922
-2.47317
26.5421
51.1559
68.8051
77.6074
76.5627
65.6583
45.8676
19.0447
-12.2724
-45.1271
-76.4495
-103.368
-123.494
-135.153
-137.531
-130.737
-115.758
-94.3339
-68.7474
-41.575
-15.4111
7.39527
24.9663
36.0606
40.1636
37.4968
28.9503
15.9499
0.277427
-16.1354
-31.4142
-43.9296
-52.4469
-56.2235
-55.0482
-49.2211
-39.4825
-26.8988
-12.7249
1.7437
15.3105
26.9948
36.1158
42.3358
45.6621
46.4108
45.1379
42.5502
39.4054
36.4155
34.1631
33.0401
33.2137
34.6226
37
39.921
42.8648
45.2847
46.6761
46.6353
44.9033
41.3897
36.1764
29.5023
21.7323
13.3161
4.74308
-3.49859
-10.9516
-17.1995
-21.8513
-24.4972
-24.6385
-21.6007
-14.4492
-1.93639
17.4874
45.566
84.0146
134.184
196.648
270.775
354.385
443.56
532.722
614.983
682.778
728.708
746.478
731.786
683.034
601.727
492.498
362.738
221.87
80.3749
-51.3257
-163.964
-250.372
-306.16
-330.057
-323.88
-292.159
-241.476
-179.613
-114.63
-53.9706
-3.71907
31.9351
50.9628
53.4908
41.5482
18.6166
-10.9432
-42.5086
-71.777
-95.2461
-110.544
-116.586
-113.554
-102.724
-86.1769
-66.4425
-46.1264
-27.5705
-12.5857
-2.28104
2.99715
3.6232
0.561643
-4.82427
-10.9942
-16.4509
-19.9304
-20.5413
-17.841
-11.8457
-2.98033
8.01831
20.2269
32.6705
44.4475
54.8306
63.3315
69.7276
74.0495
76.5383
77.5805
77.6338
77.1536
76.5318
76.0534
75.8748
76.0233
76.4148
76.8841
77.2211
77.2063
76.642
75.3727
73.297
70.368
66.588
61.9972
56.6622
50.6662
44.1024
37.0726
29.6903
22.086
14.415
6.8629
-0.351177
-6.9765
-12.7391
-17.3571
-20.5633
-22.1333
-21.9179
-19.8746
-16.0942
-10.8176
-4.43643
2.52369
9.43935
15.6419
20.4814
23.3948
23.9689
21.9908
17.4775
10.6811
2.06867
-7.72189
-17.9439
-27.8149
-36.5916
-43.6387
-48.4842
-50.855
-50.6909
-48.137
-43.5159
-37.2861
-29.9905
-22.2021
-14.4727
-7.28873
-1.03828
4.00945
7.71148
10.0462
11.0983
11.0361
10.0847
8.49697
6.52681
4.40541
2.32348
0.420014
-1.22187
-2.57234
-3.64648
-4.49154
-5.17166
-5.75215
-6.28508
-6.79803
-7.28708
-7.71479
-8.0129
-8.08905
-7.83627
-7.14368
-5.90695
-4.03747
-1.46941
1.83537
5.88449
10.6537
16.0868
22.0954
28.5598
35.3292
42.223
49.033
55.5274
61.4575
66.5663
70.6017
73.3301
74.553
74.1223
71.9554
68.0456
62.4682
55.3804
47.0143
37.663
27.6619
17.365
7.12147
-2.74573
-11.954
-20.2626
-27.4572
-33.3116
-37.5267
-39.6478
-38.9729
-34.4701
-24.7322
-8.00135
17.7059
54.3566
103.545
166.059
241.434
327.576
420.566
514.708
602.871
677.13
729.625
753.543
744.075
699.191
620.122
511.435
380.696
237.738
93.6323
-40.5114
-154.742
-241.324
-295.514
-315.957
-304.69
-266.731
-209.362
-141.174
-71.0343
-7.08112
44.119
78.1665
93.1224
89.4891
69.9037
38.6082
0.776679
-38.2044
-73.4105
-100.931
-118.242
-124.368
-119.839
-106.458
-86.9404
-64.4691
-42.2365
-23.0327
-8.92587
-1.06596
0.374326
-3.87205
-12.3471
-23.1236
-34.0967
-43.2704
-49.0035
-50.1872
-46.3392
-37.6107
-24.7129
-8.78152
8.7982
26.58
43.2333
57.688
69.2312
77.5498
82.7182
85.1383
85.4439
84.3861
82.7144
81.0721
79.9159
79.4702
79.7178
80.4259
81.2009
81.5625
81.0241
79.1706
75.721
70.5691
63.7983
55.6705
46.5911
37.0569
27.5949
18.7003
10.7814
4.11913
-1.15569
-5.0644
-7.76371
-9.513
-10.6311
-11.449
-12.2641
-13.303
-14.6961
-16.4667
-18.5348
-20.7358
-22.8492
-24.6349
-25.8721
-26.3951
-26.1224
-25.0738
-23.3733
-21.2359
-18.9412
-16.7959
-15.0913
-14.0622
-13.8527
-14.4956
-15.9063
-17.8939
-20.1871
-22.4697
-24.422
-25.7612
-26.2759
-25.8492
-24.4693
-22.2263
-19.2965
-15.9167
-12.3536
-8.87141
-5.70229
-3.02304
-0.940379
0.514326
1.38099
1.75875
1.78825
1.63075
1.44709
1.37883
1.53379
1.97722
2.72901
3.76671
5.03342
6.44885
7.92216
9.36472
10.7013
11.8786
12.8707
13.681
14.3411
14.9071
15.4543
16.0708
16.851
17.8883
19.2696
21.0697
23.3465
26.1383
29.4602
33.3019
37.6253
42.3612
47.4061
52.6189
57.8172
62.7771
67.2361
70.9017
73.4676
74.6365
74.1479
71.8094
67.5256
61.3209
53.3516
43.9053
33.3837
22.2731
11.1016
0.39182
-9.38852
-17.8681
-24.801
-30.075
-33.6961
-35.7439
-36.298
-35.3394
-32.6355
-27.6258
-19.3346
-6.33898
13.1728
41.2314
79.7949
130.355
193.489
268.429
352.737
442.184
530.883
611.708
676.984
719.352
732.713
713.097
659.334
573.404
460.404
328.13
186.3
45.5407
-83.752
-192.513
-273.94
-324.137
-342.4
-331.123
-295.349
-242.049
-179.217
-114.92
-56.4079
-9.38993
22.4444
37.6268
36.8317
22.5526
-1.40565
-30.5386
-60.2734
-86.5395
-106.216
-117.412
-119.559
-113.332
-100.418
-83.1788
-64.2655
-46.2361
-31.2211
-20.6801
-15.2694
-14.8275
-18.4706
-24.7755
-32.0185
-38.4351
-42.4642
-42.9459
-39.2523
-31.3373
-19.7075
-5.32254
10.5551
26.5386
41.2983
53.7215
63.0337
68.8674
71.2763
70.695
67.8563
63.6792
59.1433
55.1665
52.5001
51.6525
52.8468
56.0145
60.823
66.7301
73.0574
79.0726
84.0719
87.4529
88.7723
87.7819
84.4435
78.9204
71.5491
62.7961
53.2042
43.3351
33.7145
24.7851
16.8723
10.1646
4.71124
0.43478
-2.8414
-5.35604
-7.36742
-9.11136
-10.7657
-12.4268
-14.1013
-15.715
-17.136
-18.2095
-18.796
-18.8089
-18.2414
-17.1808
-15.8054
-14.3644
-13.1436
-12.4222
-12.427
-13.2939
-15.0404
-17.5583
-20.625
-23.9341
-27.1392
-29.9045
-31.953
-33.1057
-33.3043
-32.6145
-31.2109
-29.3453
-27.3045
-25.3646
-23.7486
-22.5942
-21.9352
-21.6998
-21.7244
-21.7814
-21.6147
-20.98
-19.6816
-17.6029
-14.7239
-11.1266
-6.98435
-2.5398
1.92791
6.14057
9.85812
12.91
15.2155
16.7905
17.7382
18.2265
18.4553
18.6192
18.8723
19.3009
19.9096
20.6234
21.3052
21.7879
21.9143
21.5785
20.7625
19.5588
18.1759
16.922
16.1703
16.3073
17.6733
20.5027
24.8727
30.6701
37.58
45.1013
52.5871
59.3063
64.5204
67.5647
67.9255
65.3027
59.6495
51.1851
40.376
27.8906
14.5303
1.1462
-11.4474
-22.5509
-31.6378
-38.3814
-42.6426
-44.4158
-43.7326
-40.5362
-34.5407
-25.1047
-11.1495
8.83986
36.7014
74.3538
123.431
184.833
258.254
341.795
431.737
522.578
607.367
678.337
727.768
748.966
737.216
690.548
610.204
500.701
369.482
226.191
81.6563
-53.2686
-168.86
-257.531
-314.562
-338.477
-331.032
-296.844
-242.713
-176.745
-107.39
-42.5107
11.4035
49.8095
70.4084
73.1647
60.0667
34.6784
1.55646
-34.3874
-68.4983
-96.8933
-116.829
-126.894
-127.017
-118.315
-102.812
-83.0799
-61.8547
-41.6728
-24.5781
-11.9243
-4.28798
-1.49032
-2.7138
-6.68686
-11.9058
-16.8614
-20.2396
-21.0753
-18.8425
-13.4779
-5.34178
4.87278
16.2638
27.8591
38.7495
48.2006
55.7303
61.146
64.5403
66.2499
66.7877
66.7571
66.7635
67.3323
68.8436
71.4907
75.2625
79.9531
85.1915
90.4886
95.2948
99.0602
101.292
101.606
99.7569
95.6659
89.4184
81.252
71.5283
60.6928
49.2297
37.6143
26.2706
15.5376
5.64957
-3.26812
-11.1869
-18.1485
-24.2289
-29.4981
-33.9844
-37.6486
-40.3751
-41.9811
-42.2454
-40.9512
-37.9375
-33.1489
-26.6769
-18.7825
-9.8966
-0.595345
8.44718
16.5237
22.9674
27.2251
28.9204
27.8979
24.2436
18.2786
10.527
1.66121
-7.56617
-16.3989
-24.1504
-30.2678
-34.378
-36.3132
-36.1132
-34.0057
-30.3684
-25.6778
-20.4521
-15.1944
-10.3426
-6.23225
-3.07339
-0.944728
0.197097
0.495527
0.163288
-0.552424
-1.40416
-2.17375
-2.69412
-2.86174
-2.63923
-2.04912
-1.1605
-0.0708869
1.11393
2.29944
3.41903
4.44567
5.39738
6.33594
7.35909
8.58744
10.1478
12.155
14.6956
17.8142
21.506
25.7158
30.3439
35.2579
40.3091
45.3496
50.2476
54.8966
59.2173
63.1504
66.6425
69.6273
72.007
73.638
74.3264
73.834
71.8992
68.2684
62.7373
55.1947
45.6636
34.3316
21.5638
7.89572
-5.99636
-19.3438
-31.3457
-41.23
-48.3017
-51.9668
-51.7197
-47.0948
-37.588
-22.5692
-1.21797
27.4828
64.6602
111.354
168.213
235.126
310.848
392.717
476.537
556.709
626.629
679.339
708.351
708.534
676.919
613.293
520.478
404.217
272.684
135.671
3.54097
-113.89
-208.412
-274.277
-308.743
-312.252
-288.23
-242.542
-182.705
-116.944
-53.2351
1.55507
42.3363
66.1994
72.5308
62.8469
40.3911
9.56435
-24.7274
-57.7208
-85.3597
-104.715
-114.22
-113.72
-104.327
-88.1464
-67.8987
-46.5038
-26.6842
-10.6333
0.21783
5.31369
4.96577
0.234874
-7.27176
-15.6562
-23.0026
-27.6323
-28.3125
-24.396
-15.8807
-3.38657
11.9418
28.5933
44.8865
59.1811
70.0791
76.5931
78.2619
75.2019
68.0877
58.0662
46.6149
35.3631
25.898
19.58
17.3899
19.8256
26.8587
37.9546
52.1495
68.1718
84.5915
99.9759
113.034
122.735
128.385
129.666
126.632
119.664
109.409
96.6889
82.4173
67.5071
52.7972
38.9923
26.6225
16.0231
7.33327
0.512211
-4.63191
-8.40308
-11.1735
-13.3388
-15.2762
-17.3084
-19.677
-22.5242
-25.885
-29.6891
-33.7706
-37.8852
-41.7336
-44.9898
-47.3325
-48.4777
-48.2111
-46.4159
-43.0943
-38.3782
-32.5286
-25.9193
-19.0076
-12.292
-6.26267
-1.34911
2.12805
3.9939
4.23988
3.0243
0.652309
-2.46265
-5.85084
-9.04477
-11.6363
-13.3245
-13.9479
-13.4964
-12.1027
-10.0131
-7.54431
-5.0314
-2.77586
-1.00084
0.179519
0.772381
0.898783
0.767857
0.637182
0.76582
1.36781
2.57402
4.40902
6.78755
9.53173
12.4069
15.1703
17.624
19.6627
21.3061
22.7098
24.1494
25.98
28.575
32.2538
37.2091
43.4479
50.7548
58.6863
66.6003
73.7164
79.2021
82.2727
82.2921
78.861
71.88
61.5796
48.5122
33.5075
17.5958
1.90774
-12.4364
-24.4382
-33.3187
-38.5927
-40.1107
-38.0609
-32.9282
-25.4088
-16.2834
-6.25863
4.20903
15.0826
26.8762
40.713
58.2768
81.6327
112.913
153.894
205.516
267.431
337.669
412.512
486.637
553.542
606.231
638.067
643.665
619.709
565.542
483.442
378.52
258.261
131.742
8.65194
-101.773
-191.745
-255.73
-290.971
-297.657
-278.744
-239.469
-186.614
-127.649
-69.853
-19.5192
18.6514
41.9243
49.6372
43.0525
24.9946
-0.662131
-29.5791
-57.5336
-80.9228
-97.1375
-104.773
-103.669
-94.7885
-79.9697
-61.5963
-42.2309
-24.2643
-9.62164
0.441865
5.44024
5.64624
1.98315
-4.15901
-11.1528
-17.3747
-21.4266
-22.3095
-19.5304
-13.133
-3.65327
7.98955
20.6463
33.112
44.2955
53.3596
59.8157
63.5614
64.8613
64.2762
62.5579
60.5259
58.9451
58.4242
59.3433
61.8213
65.7196
70.6794
76.1822
81.6233
86.3859
89.9082
91.7359
91.5567
89.2163
84.7189
78.2138
69.9729
60.3619
49.8097
38.7754
27.7176
17.0657
7.1938
-1.59985
-9.10874
-15.2274
-19.9536
-23.3836
-25.6994
-27.1497
-28.0249
-28.6273
-29.24
-30.0957
-31.3498
-33.0605
-35.1787
-37.5496
-39.9275
-42.0016
-43.4317
-43.8886
-43.0944
-40.8592
-37.1073
-31.8917
-25.3956
-17.9197
-9.86034
-1.67948
6.12937
13.0759
18.7066
22.6367
24.579
24.3697
21.9896
17.5793
11.4437
4.04412
-4.02727
-12.0899
-19.4341
-25.3932
-29.4192
-31.1536
-30.4824
-27.5637
-22.8226
-16.9098
-10.6272
-4.82868
-0.309761
2.29929
2.62068
0.584515
-3.55587
-9.25031
-15.7159
-22.0294
-27.2348
-30.4526
-30.9767
-28.3487
-22.4018
-13.2726
-1.38052
12.6184
27.8981
43.5395
58.6108
72.2426
83.6919
92.3919
97.9831
100.327
99.5005
95.7758
89.5856
81.4794
72.0737
62.0001
51.8567
42.1652
33.3383
25.6584
19.2701
14.1851
10.2992
7.41759
5.2869
3.62984
2.18094
0.722988
-0.874262
-2.61023
-4.30172
-5.52339
-5.54574
-3.28396
2.72175
14.2681
33.3673
62.0269
101.931
154.055
218.26
292.952
374.888
459.193
539.635
609.165
660.657
687.758
685.739
652.197
587.513
494.985
380.598
252.465
120
-7.06094
-119.675
-210.416
-274.188
-308.653
-314.34
-294.42
-254.205
-200.436
-140.463
-81.4115
-29.4429
10.8171
36.6275
47.2343
43.7362
28.7492
5.92961
-20.5758
-46.68
-68.8393
-84.4206
-91.9185
-91.0117
-82.4701
-67.9364
-49.6256
-29.9854
-11.3643
4.27225
15.5486
21.7904
23.0373
19.9666
13.7451
5.83658
-2.2088
-8.95379
-13.2403
-14.3049
-11.8357
-5.96801
2.77258
13.5691
25.4372
37.3567
48.394
57.8018
65.0851
70.0306
72.6971
73.3754
72.5222
70.6826
68.409
66.1895
64.3918
63.2297
62.7534
62.8614
63.332
63.866
64.1356
63.8305
62.6982
60.5716
57.3833
53.1664
48.042
42.1989
35.8663
29.2864
22.6877
16.2653
10.1681
4.49399
-0.705677
-5.41632
-9.64592
-13.4102
-16.7202
-19.5749
-21.9603
-23.8558
-25.2456
-26.1336
-26.5568
-26.5952
-26.3727
-26.0499
-25.8061
-25.8148
-26.2156
-27.0878
-28.4306
-30.1539
-32.0822
-33.9722
-35.5413
-36.5039
-36.6094
-35.6773
-33.624
-30.4769
-26.3749
-21.5538
-16.3208
-11.0191
-5.98979
-1.53426
2.11686
4.82542
6.55531
7.36946
7.41542
6.90197
6.07035
5.16417
4.40168
3.95363
3.92861
4.36652
5.23977
6.46064
7.89306
9.367
10.6939
11.6821
12.1518
11.95
10.964
9.13492
6.4701
3.0525
-0.953136
-5.29992
-9.66554
-13.6672
-16.8848
-18.8921
-19.2927
-17.7583
-14.0659
-8.12805
-0.0141132
10.0408
21.6411
34.2488
47.2146
59.8171
71.3097
80.9697
88.1489
92.321
93.1236
90.3927
84.1843
74.783
62.6937
48.6144
33.3921
17.9612
3.26873
-9.80871
-20.5472
-28.4481
-33.287
-35.1281
-34.2891
-31.2515
-26.5136
-20.4012
-12.8601
-3.27524
9.63273
27.7805
53.5273
89.3037
137.096
197.858
270.965
353.821
441.738
528.155
605.209
664.611
698.707
701.563
669.915
603.813
506.85
385.925
250.559
111.855
-18.7656
-130.861
-216.148
-269.386
-288.88
-276.53
-237.452
-179.229
-110.91
-41.8926
19.1666
65.2824
91.8079
96.7804
80.9266
47.3568
1.00749
-52.077
-105.528
-153.401
-190.808
-214.375
-222.474
-215.257
-194.466
-163.108
-125.007
-84.3206
-45.0658
-10.7091
16.143
33.9306
42.1958
41.5169
33.3404
19.7387
3.12925
-14.014
-29.4235
-41.2515
-48.2168
-49.6754
-45.6162
-36.5905
-23.5891
-7.88658
9.12616
26.102
41.8727
55.546
66.5586
74.6836
79.9959
82.8082
83.5859
82.8583
81.1363
78.8479
76.2982
73.6546
70.9576
68.1499
65.1176
61.7359
57.9095
53.6038
48.8612
43.8026
38.6144
33.5242
28.7704
24.5693
21.0864
18.4133
16.5537
15.4196
14.8368
14.5586
14.2873
13.7001
12.4782
10.3375
7.0578
2.50918
-3.32627
-10.3396
-18.2893
-26.8066
-35.4136
-43.5552
-50.6431
-56.11
-59.4671
-60.3606
-58.6191
-54.2839
-47.619
-39.097
-29.3611
-19.1664
-9.30868
-0.546074
6.47419
11.2775
13.6037
13.4249
10.9378
6.53191
0.739324
-5.82836
-12.5464
-18.8391
-24.23
-28.3747
-31.075
-32.2733
-32.0321
-30.5036
-27.895
-24.437
-20.3583
-15.8705
-11.1622
-6.40192
-1.74532
2.65592
6.648
10.0738
12.7783
14.6196
15.4848
15.3071
14.082
11.8782
8.84227
5.19503
1.21989
-2.75522
-6.38045
-9.30876
-11.2203
-11.8451
-10.9819
-8.51412
-4.41978
1.22218
8.23185
16.334
25.1703
34.318
43.3148
51.6887
58.9906
64.8277
68.8925
70.9872
71.038
69.0988
65.3433
60.0461
53.5553
46.2579
38.5447
30.7743
23.2435
16.1637
9.64825
3.71054
-1.72314
-6.78521
-11.6201
-16.318
-20.8285
-24.8604
-27.7771
-28.5076
-25.5007
-16.7535
0.0566715
27.3186
67.1173
120.781
188.41
268.474
357.577
450.462
540.317
619.364
679.694
714.212
717.589
687.048
622.872
528.541
410.478
277.412
139.459
7.03879
-110.242
-204.581
-270.731
-306.435
-312.488
-292.457
-252.093
-198.543
-139.456
-82.1043
-32.623
4.55044
26.9895
34.3239
28.0392
11.0754
-12.7062
-39.11
-64.1702
-84.6226
-98.236
-103.975
-101.988
-93.4464
-80.264
-64.7459
-49.2251
-35.7309
-25.7322
-19.9839
-18.4868
-20.5573
-24.9881
-30.2702
-34.8413
-37.3245
-36.7238
-32.5539
-24.8878
-14.3221
-1.86736
11.2147
23.6036
34.1116
41.848
46.3334
47.5511
45.9307
42.2698
37.6091
33.0776
29.7346
28.4255
29.6739
33.6194
40.0089
48.2383
57.438
66.5891
74.6531
80.6993
84.0138
84.1767
81.1011
75.0291
66.4894
56.2236
45.0901
33.9623
23.63
14.7185
7.63276
2.53141
-0.667726
-2.25458
-2.67179
-2.44621
-2.1162
-2.16363
-2.95817
-4.71945
-7.50003
-11.1894
-15.537
-20.1898
-24.7398
-28.7743
-31.9246
-33.9064
-34.5495
-33.813
-31.7865
-28.6771
-24.7849
-20.4697
-16.1138
-12.0839
-8.69685
-6.19211
-4.71335
-4.30016
-4.88985
-6.32848
-8.38926
-10.7963
-13.251
-15.459
-17.1549
-18.123
-18.2129
-17.3485
-15.5312
-12.8358
-9.40167
-5.41987
-1.11668
3.2637
7.47637
11.2915
14.5077
16.9618
18.5361
19.1619
18.8213
17.5481
15.4279
12.5993
9.25517
5.64334
2.06412
-1.13729
-3.58671
-4.90653
-4.75118
-2.85001
0.947148
6.62857
13.9913
22.6312
31.9586
41.2411
49.6719
56.4588
60.9221
62.5913
61.2848
57.1614
50.7333
42.8343
34.5445
27.077
21.6385
19.2793
20.7521
26.3974
36.0708
49.1257
64.4545
80.588
95.8425
108.5
116.997
120.109
117.097
107.799
92.6715
72.746
49.5318
24.8612
0.70306
-21.0312
-38.6594
-50.8507
-56.6743
-55.5649
-47.2114
-31.3955
-7.82944
23.9527
64.594
114.77
174.898
244.747
323.02
407.018
492.492
573.758
644.103
696.467
724.308
722.522
688.275
621.597
525.635
406.508
272.765
134.506
2.29776
-113.989
-206.252
-269.006
-299.901
-299.856
-272.8
-225.069
-164.557
-99.7269
-38.6257
11.99
47.3091
64.8412
64.4866
48.3152
20.1065
-15.2749
-52.5771
-86.8403
-113.977
-131.189
-137.189
-132.212
-117.842
-96.6825
-71.9392
-46.9589
-24.7964
-7.85561
2.3588
5.3568
1.64414
-7.41721
-19.8416
-33.3093
-45.4728
-54.2423
-58.0178
-55.8445
-47.4811
-33.3799
-14.5897
7.40172
30.8596
54.0053
75.2045
93.1224
106.83
115.855
120.179
120.186
116.573
110.242
102.177
93.3376
84.5607
76.4983
69.5787
64.0014
59.7571
56.6684
54.4437
52.7343
51.189
49.4993
47.431
44.8415
41.6817
37.9862
33.8541
29.4247
24.8525
20.2836
15.8379
11.5969
7.59925
3.84255
0.291038
-3.11247
-6.4324
-9.72591
-13.0299
-16.3513
-19.6617
-22.8968
-25.9621
-28.742
-31.1135
-32.9611
-34.1917
-34.7478
-34.6165
-33.8332
-32.4801
-30.6785
-28.5768
-26.3355
-24.1099
-22.0353
-20.2137
-18.705
-17.5242
-16.6428
-15.9967
-15.4965
-15.0416
-14.5337
-13.8899
-13.0524
-11.9942
-10.7206
-9.26578
-7.68558
-6.04771
-4.42074
-2.86351
-1.41664
-0.0972877
1.1021
2.21088
3.27366
4.34103
5.45907
6.6591
7.9492
9.30894
10.688
12.009
13.1749
14.0789
14.6178
14.7056
14.2874
13.3519
11.9412
10.1557
8.15486
6.15066
4.39436
3.15716
2.7057
3.2751
5.04238
8.10382
12.4594
18.0066
24.5448
31.79
39.3975
46.9915
54.1952
60.6595
66.0868
70.2465
72.9812
74.2057
73.8989
72.092
68.8564
64.2941
58.5313
51.7161
44.02
35.6408
26.8044
17.7648
8.79837
0.194148
-7.76044
-14.7944
-20.6642
-25.1535
-28.0551
-29.1297
-28.0392
-24.2608
-16.9987
-5.11777
12.8671
38.7112
74.2465
121.068
180.124
251.273
332.88
421.562
512.159
597.993
671.434
724.703
750.833
744.638
703.549
628.156
522.387
393.249
250.172
104.028
-34.0484
-153.876
-247.316
-309.108
-337.333
-333.467
-302.04
-249.938
-185.488
-117.413
-53.8326
-1.40111
35.3035
54.0918
55.1578
40.7875
14.8406
-17.9067
-52.4622
-84.2682
-109.722
-126.516
-133.767
-131.945
-122.632
-108.158
-91.1794
-74.2694
-59.5626
-48.5078
-41.7452
-39.1137
-39.7717
-42.4023
-45.4658
-47.4576
-47.1363
-43.6914
-36.8341
-26.8055
-14.3091
-0.383588
13.7611
26.9185
38.047
46.397
51.59
53.6429
52.9395
50.1571
46.1611
41.8845
38.2093
35.8631
35.3448
36.8834
40.4338
45.7041
52.2088
59.338
66.4318
72.8522
78.0425
81.5723
83.1627
82.6943
80.1995
75.8422
69.8892
62.678
54.5838
45.989
37.2576
28.7153
20.6366
13.238
6.67722
1.05588
-3.57402
-7.20348
-9.8602
-11.6039
-12.5237
-12.737
-12.3888
-11.6499
-10.712
-9.78017
-9.05989
-8.74169
-8.98293
-9.88957
-11.5005
-13.7767
-16.5985
-19.7709
-23.0392
-26.1123
-28.6919
-30.5046
-31.3324
-31.0379
-29.5807
-27.0232
-23.5243
-19.3228
-14.7114
-10.0061
-5.51454
-1.50661
1.80731
4.28999
5.88093
6.59073
6.48834
5.68365
4.30887
2.5014
0.390569
-1.91034
-4.30653
-6.71945
-9.08127
-11.3281
-13.3941
-15.2077
-16.6914
-17.7655
-18.3538
-18.3927
-17.8389
-16.6769
-14.9237
-12.6291
-9.87316
-6.75907
-3.40365
0.0741233
3.56489
6.97944
10.2568
13.3688
16.3207
19.1477
21.907
24.6685
27.5012
30.4615
33.5799
36.8515
40.2283
43.617
46.881
49.8484
52.3254
54.1141
55.0332
54.9396
53.746
51.4353
48.066
43.7693
38.738
33.2073
27.431
21.6549
16.0931
10.9079
6.19883
2.00299
-1.6914
-4.91473
-7.66767
-9.85411
-11.1975
-11.1485
-8.79933
-2.82762
8.49893
27.2276
55.5118
95.2848
147.839
213.369
290.553
376.278
465.593
551.949
627.734
685.08
716.813
717.441
684.004
616.661
518.893
397.284
260.892
120.278
-13.6607
-130.911
-223.435
-286.011
-316.691
-316.855
-290.856
-245.325
-188.247
-127.937
-72.0531
-26.7724
3.78974
17.8522
15.9335
0.537911
-24.3722
-54.0315
-83.561
-108.602
-125.824
-133.246
-130.369
-118.093
-98.4783
-74.3738
-48.9777
-25.3926
-6.22824
6.70168
12.5567
11.5089
4.6486
-6.22161
-18.8709
-30.9601
-40.3549
-45.3907
-45.0597
-39.1001
-27.9825
-12.803
4.89628
23.3504
40.8052
55.7308
66.9882
73.9329
76.4472
74.9043
70.0785
63.0155
54.888
46.8539
39.9341
34.9216
32.3246
32.3441
34.8807
39.5647
45.8024
52.8353
59.8063
65.8326
70.0825
71.8538
70.6491
66.2422
58.7277
48.5426
36.4531
23.4995
10.8992
-0.0861534
-8.30635
-12.8818
-13.3441
-13.3441
-13.3441
-13.3441
-13.3441
-13.3441
-13.3441
-13.3441
-13.3441
-13.3441
-13.3441
-13.3441
-13.3441
-13.3441
-13.3441
-13.3441
-13.3441
-13.3441
-13.3441
-13.3441
