-80.8154
-76.2841
-71.1201
-65.2855
-58.7339
-51.4125
-43.2693
-34.2615
-24.3661
-13.5879
-1.96539
10.4289
23.4926
37.1025
51.1258
65.4325
79.9039
94.4379
108.948
123.353
137.571
151.496
164.988
177.859
189.869
200.728
210.108
217.66
223.047
225.964
226.171
223.513
217.938
209.507
198.389
184.859
169.279
152.085
133.761
114.826
95.8057
77.2173
59.5491
43.2416
28.6695
16.1243
5.8004
-2.21577
-7.94998
-11.5377
-13.2137
-13.2934
-12.1485
-10.1773
-7.77415
-5.29968
-3.05595
-1.26779
-0.0724661
0.481941
0.4298
-0.125929
-1.03281
-2.11105
-3.1761
-4.05961
-4.62665
-4.78775
-4.50509
-3.79255
-2.71022
-1.35428
0.15604
1.69301
3.13449
4.37619
5.34072
5.98282
6.29049
6.28224
6.00139
5.50827
4.87159
4.16019
3.43597
2.74886
2.134
1.61116
1.18614
0.853541
0.600354
0.409745
0.264452
0.149445
0.0536026
-0.0296312
-0.102508
-0.163933
-0.21083
-0.239628
-0.247597
-0.233835
-0.199804
-0.149387
-0.0885241
-0.0245328
0.0347732
0.0820508
0.111369
0.119016
0.104064
0.0685997
0.0175424
-0.041943
-0.101416
-0.152407
-0.187814
-0.203289
-0.198425
-0.177587
-0.150198
-0.130418
-0.136189
-0.187754
-0.305884
-0.510074
-0.817017
-1.23961
-1.78664
-2.4631
-3.27098
-4.21028
-5.27966
-6.47668
-7.79719
-9.23388
-10.7743
-12.3989
-14.0787
-15.775
-17.4397
-19.0173
-20.4488
-21.6765
-22.6495
-23.3291
-23.6927
-23.7362
-23.4747
-22.9401
-22.1771
-21.238
-20.1765
-19.042
-17.875
-16.7041
-15.5457
-14.4046
-13.2779
-12.158
-11.0379
-9.91468
-8.7921
-7.6822
-6.60462
-5.58457
-4.64953
-3.82518
-3.13137
-2.57856
-2.16543
-1.87797
-1.69021
-1.56657
-1.46561
-1.34466
-1.16488
-0.896008
-0.520407
-0.0355598
0.545138
1.19361
1.87029
2.52893
3.12257
3.60983
3.96083
4.16176
4.21757
4.15224
4.00667
3.83436
3.69567
3.6513
3.75616
4.05428
4.5756
5.33495
6.33341
7.56156
9.00435
10.6464
12.477
14.4935
16.7025
19.1178
21.7553
24.625
27.7211
31.0115
34.4285
37.8628
41.1623
44.1368
46.5689
48.2304
48.9036
48.4027
46.5962
43.424
38.9093
33.1629
26.3784
18.8198
10.8029
2.67093
-5.23052
-12.5784
-19.0927
-24.5514
-28.796
-31.7285
-33.299
-33.4862
-32.2746
-29.6353
-25.514
-19.836
-12.5283
-3.5607
6.99889
18.9228
31.7683
44.8418
57.1947
67.6613
74.9425
77.7319
74.8727
65.5284
49.3411
26.5541
-1.92567
-34.5416
-69.1847
-103.368
-134.462
-159.964
-177.766
-186.393
-185.169
-174.301
-154.862
-128.676
-98.121
-65.8696
-34.6091
-6.7652
15.7328
31.6204
40.384
42.2572
38.1353
29.4203
17.822
5.13945
-6.94875
-17.0619
-24.2437
-28.0272
-28.4349
-25.92
-21.2606
-15.4233
-9.41583
-4.14864
-0.321136
1.65397
1.68214
-0.0262966
-3.00868
-6.63191
-10.1904
-13.0061
-14.5174
-14.3456
-12.3336
-8.55145
-3.2733
3.07112
9.96158
16.8598
23.2799
28.8477
33.3436
36.7233
39.1169
40.8068
42.1891
43.7229
45.876
49.0709
53.6389
59.7868
67.5774
76.9274
87.6193
99.3273
111.652
124.159
136.419
148.046
158.721
168.215
176.392
183.211
188.703
192.955
196.081
198.191
199.362
199.621
198.92
197.138
194.086
189.522
183.184
174.827
164.268
151.431
136.386
119.373
100.814
81.2998
61.5534
42.3794
24.593
8.94539
-3.95087
-13.6848
-20.091
-23.2681
-23.5696
-21.5658
-17.9828
-13.6246
-9.28712
-5.67602
-3.33596
-2.60082
-3.56951
-6.10962
-9.88716
-14.4181
-19.1342
-23.4556
-26.8598
-28.9419
-29.4568
-28.343
-25.723
-21.8849
-17.2461
-12.3044
-7.58337
-3.5771
-0.700069
0.752464
0.630727
-1.05869
-4.15744
-8.3744
-13.3163
-18.527
-23.5309
-27.8771
-31.1795
-33.1498
-33.6197
-32.5518
-30.0375
-26.2823
-21.5816
-16.2886
-10.7786
-5.41334
-0.50882
3.68948
7.02273
9.4245
10.9165
11.5959
11.6152
11.1599
10.4237
9.58708
8.80011
8.17079
7.7605
7.58563
7.62455
7.82827
8.13291
8.47209
8.7876
9.0371
9.19817
9.2686
9.26336
9.20917
9.13769
9.07859
9.05358
9.07238
9.13093
9.21224
9.28932
9.3299
9.30173
9.1778
8.94038
8.5833
8.112
7.54143
6.89223
6.18597
5.44041
4.66577
3.86267
3.02237
2.12909
1.16405
0.110415
-1.04189
-2.29235
-3.62784
-5.02281
-6.44173
-7.84329
-9.18572
-10.4323
-11.5561
-12.5432
-13.394
-14.1225
-14.7533
-15.3178
-15.8498
-16.3809
-16.9369
-17.5352
-18.1841
-18.8827
-19.623
-20.3916
-21.1727
-21.9501
-22.7088
-23.4366
-24.1229
-24.7588
-25.3349
-25.8398
-26.258
-26.5689
-26.7464
-26.7589
-26.5711
-26.1457
-25.4461
-24.44
-23.1021
-21.4172
-19.3827
-17.0099
-14.3246
-11.3668
-8.18861
-4.85206
-1.42542
2.02069
5.41745
8.70198
11.8208
14.7326
17.4098
19.8389
22.0199
23.9636
25.6897
27.2228
28.589
29.8135
30.9176
31.9187
32.8294
33.6595
34.4168
35.1081
35.7386
36.3098
36.8159
37.2396
37.5478
37.6902
37.5992
37.1946
36.3905
35.106
33.2752
30.8589
27.8521
24.2895
20.2454
15.8298
11.1801
6.44928
1.79255
-2.64661
-6.74926
-10.4311
-13.6481
-16.3958
-18.6994
-20.5948
-22.0973
-23.1625
-23.6427
-23.2503
-21.5391
-17.9188
-11.7128
-2.26331
10.9224
28.0049
48.6546
71.94
96.2981
119.611
139.398
153.101
158.434
153.739
138.285
112.462
77.8299
36.9978
-6.63908
-49.2855
-87.1915
-117.097
-136.614
-144.49
-140.729
-126.548
-104.181
-76.5785
-47.0244
-18.7378
5.49148
23.5907
34.3851
37.6551
34.0736
25.0404
12.442
-1.62553
-15.1345
-26.3678
-34.1004
-37.7015
-37.1527
-32.9886
-26.1733
-17.9373
-9.59582
-2.37541
2.73216
5.074
4.39022
0.817249
-5.15443
-12.7586
-21.0549
-29.0414
-35.7637
-40.4119
-42.3951
-41.3893
-37.3552
-30.5278
-21.3788
-10.559
1.17308
13.0295
24.2683
34.2607
42.5416
48.8426
53.1029
55.4606
56.2279
55.8524
54.8728
53.8696
53.4188
54.0483
56.2001
60.1996
66.2337
74.337
84.3889
96.1208
109.134
122.931
136.946
150.593
163.309
174.592
184.037
191.361
196.409
199.151
199.665
198.103
194.662
189.547
182.945
175.005
165.836
155.508
144.074
131.589
118.139
103.863
88.973
73.753
58.5569
43.7862
29.8604
17.1787
6.08233
-3.18106
-10.4833
-15.8294
-19.3566
-21.3192
-22.0602
-21.9745
-21.4671
-20.9127
-20.62
-20.8061
-21.5827
-22.9547
-24.8316
-27.048
-29.3913
-31.6315
-33.551
-34.9685
-35.7578
-35.8568
-35.2695
-34.0591
-32.336
-30.242
-27.932
-25.5582
-23.2551
-21.1303
-19.258
-17.6787
-16.4009
-15.4074
-14.6615
-14.1149
-13.7144
-13.4079
-13.1479
-12.894
-12.6133
-12.2801
-11.8744
-11.3803
-10.7852
-10.0785
-9.25166
-8.29827
-7.21464
-6.00057
-4.65979
-3.20021
-1.6336
0.025126
1.75878
3.54879
5.37568
7.21891
9.05613
10.8618
12.6055
14.2508
15.7541
17.065
18.128
18.8855
19.2818
19.2683
18.8082
17.8822
16.4924
14.665
12.4527
9.93475
7.21469
4.41735
1.68279
-0.841319
-3.00923
-4.6879
-5.76838
-6.17676
-5.88361
-4.91065
-3.33342
-1.27918
1.08045
3.54192
5.88631
7.89843
9.38667
10.2011
10.2483
9.49991
7.99573
5.83908
3.18618
0.230327
-2.81721
-5.74735
-8.37224
-10.5411
-12.1513
-13.1543
-13.5549
-13.4061
-12.7989
-11.85
-10.6875
-9.43795
-8.21413
-7.10658
-6.17805
-5.46163
-4.96231
-4.66112
-4.52121
-4.49483
-4.53032
-4.57832
-4.59666
-4.55364
-4.4296
-4.21689
-3.91868
-3.54682
-3.11922
-2.65724
-2.1831
-1.7178
-1.27939
-0.881808
-0.53406
-0.239787
0.0029128
0.201457
0.36856
0.521813
0.683033
0.877351
1.13202
1.47494
1.93302
2.53038
3.28673
4.21606
5.32589
6.61735
8.08596
9.723
11.5171
13.4553
15.5234
17.7053
19.9806
22.3217
24.6911
27.0383
29.2994
31.3974
33.2465
34.7571
35.8436
36.4321
36.4683
35.9234
34.7981
33.1233
30.9578
28.3827
25.4945
22.3954
19.1838
15.9449
12.7429
9.61551
6.57095
3.58825
0.621078
-2.3952
-5.53309
-8.85976
-12.4215
-16.2263
-20.2255
-24.2942
-28.2114
-31.6421
-34.1244
-35.0699
-33.7838
-29.5161
-21.5477
-9.31255
7.45698
28.5819
53.3173
80.2944
107.552
132.67
153.008
166.008
169.543
162.233
143.695
114.681
77.0647
33.6852
-11.9398
-55.9967
-94.8003
-125.205
-144.947
-152.881
-149.07
-134.739
-112.085
-83.9921
-53.6692
-24.2816
1.39586
21.2545
34.03
39.3688
37.7823
30.504
19.2741
6.08385
-7.08632
-18.5019
-26.8571
-31.3881
-31.9086
-28.7709
-22.7649
-14.9727
-6.60109
1.18502
7.40764
11.3835
12.7844
11.6478
8.33977
3.48051
-2.15479
-7.74578
-12.532
-15.9008
-17.4486
-17.0101
-14.6555
-10.6582
-5.43982
0.497202
6.64102
12.5356
17.8321
22.3213
25.9451
28.7868
31.0453
32.9969
34.9518
37.2118
40.0338
43.6049
48.0297
53.3309
59.4608
66.3204
73.7824
81.7129
89.9882
98.5048
107.18
115.947
124.742
133.487
142.082
150.385
158.216
165.352
171.538
176.497
179.948
181.619
181.269
178.7
173.773
166.422
156.666
144.623
130.517
114.687
97.5788
79.7364
61.7774
44.3584
28.1304
13.6893
1.52698
-8.01302
-14.7666
-18.7644
-20.2283
-19.5481
-17.242
-13.9049
-10.1495
-6.54991
-3.59051
-1.62866
-0.872797
-1.37837
-3.06044
-5.7204
-9.08258
-12.8356
-16.6734
-20.3302
-23.6071
-26.3859
-28.6305
-30.3769
-31.7135
-32.755
-33.6156
-34.3834
-35.1011
-35.7558
-36.2783
-36.5528
-36.4348
-35.7749
-34.4441
-32.3578
-29.4942
-25.9052
-21.7168
-17.1217
-12.3619
-7.70599
-3.42276
0.245057
3.10465
5.03149
5.98065
5.99005
5.17548
3.71807
1.84578
-0.18924
-2.13479
-3.76189
-4.88475
-5.37555
-5.17281
-4.28277
-2.77409
-0.766818
1.58275
4.09955
6.60744
8.94529
10.9799
12.6147
13.794
14.5029
14.763
14.6259
14.1645
13.4646
12.6159
11.7051
10.8102
9.99604
9.31217
8.79112
8.44824
8.28217
8.27595
8.39881
8.60865
8.85513
9.08357
9.23936
9.27289
9.14441
8.8285
8.31741
7.62286
6.77563
5.82291
4.82323
3.83955
2.9311
2.14499
1.50886
1.02568
0.67179
0.398687
0.138835
-0.185169
-0.649086
-1.31474
-2.21873
-3.3639
-4.715
-6.19941
-7.71307
-9.13109
-10.3216
-11.1612
-11.5495
-11.4215
-10.7554
-9.57503
-7.94708
-5.97389
-3.78255
-1.51264
0.695938
2.71338
4.42794
5.75081
6.61837
6.99209
6.85717
6.22053
5.10895
3.56764
1.65935
-0.536295
-2.92374
-5.39341
-7.825
-10.0927
-12.0723
-13.6495
-14.7289
-15.2432
-15.1604
-14.4883
-13.276
-11.6116
-9.61586
-7.43244
-5.2163
-3.12048
-1.28332
0.182904
1.20086
1.73361
1.7865
1.40517
0.670283
-0.310575
-1.41288
-2.50599
-3.46384
-4.17436
-4.5469
-4.51709
-4.04878
-3.13303
-1.78471
-0.0371222
2.06432
4.46847
7.12398
9.98304
13.0031
16.1462
19.3764
22.656
25.9404
29.1743
32.2886
35.1994
37.8093
40.0113
41.695
42.7542
43.0949
42.6446
41.3598
39.2322
36.293
32.6143
28.3069
23.5159
18.4121
13.1816
8.01426
3.09069
-1.42915
-5.41601
-8.77831
-11.4656
-13.4676
-14.8086
-15.5369
-15.7086
-15.3661
-14.5111
-13.0748
-10.8904
-7.67229
-3.01376
3.58931
12.6796
24.7422
40.0776
58.6578
79.9947
103.05
126.221
147.423
164.279
174.399
175.71
166.801
147.198
117.549
79.6471
36.3009
-8.94472
-52.206
-89.7155
-118.274
-135.636
-140.772
-133.98
-116.827
-91.9314
-62.6278
-32.5466
-5.17775
16.5319
30.4961
35.6858
32.1855
21.1102
4.40122
-15.4667
-35.8234
-54.142
-68.3348
-76.9729
-79.4072
-75.7838
-66.9594
-54.3374
-39.6499
-24.7185
-11.2257
-0.523766
6.49838
9.47974
8.58129
4.41763
-2.05956
-9.70697
-17.3437
-23.8941
-28.504
-30.6184
-30.0167
-26.8044
-21.3681
-14.3022
-6.31861
1.84756
9.52654
16.1861
21.4817
25.2811
27.6632
28.8941
29.3839
29.6329
30.1713
31.5005
34.0413
38.0937
43.812
51.1949
60.0934
70.2324
81.2441
92.7089
104.2
115.322
125.751
135.253
143.7
151.066
157.416
162.877
167.611
171.774
175.48
178.771
181.594
183.788
185.093
185.165
183.614
180.039
174.082
165.468
154.05
139.83
122.977
103.817
82.8148
60.5356
37.6053
14.6633
-7.68107
-28.8844
-48.4958
-66.1712
-81.6776
-94.8878
-105.769
-114.369
-120.798
-125.216
-127.822
-128.837
-128.506
-127.082
-124.823
-121.986
-118.814
-115.534
-112.34
-109.393
-106.807
-104.65
-102.941
-101.651
-100.713
-100.025
-99.4575
-98.8671
-98.0998
-96.9998
-95.4154
-93.2061
-90.2494
-86.4494
-81.7465
-76.1262
-69.6283
-62.3514
-54.4543
-46.1509
-37.6994
-29.3851
-21.5001
-14.3195
-8.07878
-2.95389
0.953522
3.62354
5.1177
5.57072
5.17553
4.16325
2.78058
1.26724
-0.164055
-1.34292
-2.15074
-2.52356
-2.44888
-1.95746
-1.11184
0.00661533
1.31015
2.71508
4.14916
5.55535
6.8923
8.13208
9.25643
10.2527
11.1103
11.8195
12.3711
12.759
12.9826
13.0506
12.9822
12.808
12.5669
12.3019
12.0526
11.8485
11.701
11.5992
11.5072
11.3671
11.1041
10.6371
9.89028
8.80573
7.3546
5.54533
3.42726
1.08945
-1.34544
-3.73103
-5.90974
-7.72627
-9.04076
-9.7403
-9.74821
-9.03041
-7.59891
-5.5122
-2.87277
0.178294
3.4695
6.80965
10.0006
12.8515
15.1932
16.8917
17.8596
18.0633
17.5258
16.3248
14.5849
12.4665
10.1504
7.82206
5.65515
3.79699
2.35725
1.40061
0.943929
0.957923
1.37285
2.08743
2.97991
3.92017
4.78179
5.45283
5.84462
5.89768
5.58452
4.90919
3.90373
2.62232
1.13378
-0.486645
-2.16502
-3.83517
-5.4431
-6.94888
-8.32605
-9.55894
-10.6387
-11.5587
-12.3106
-12.8817
-13.2535
-13.4031
-13.305
-12.9351
-12.2744
-11.3126
-10.0512
-8.50423
-6.69877
-4.67367
-2.47776
-0.167924
2.19265
4.53559
6.78794
8.87236
10.7073
12.208
13.2876
13.861
13.8487
13.1834
11.8167
9.72744
6.92901
3.47579
-0.532933
-4.95252
-9.59713
-14.2488
-18.6713
-22.6281
-25.9021
-28.3156
-29.7475
-30.1455
-29.5311
-27.9974
-25.6984
-22.8316
-19.6154
-16.2634
-12.957
-9.81884
-6.88856
-4.10438
-1.29459
1.81481
5.5702
10.3334
16.3975
23.8831
32.6294
42.1038
51.3562
59.0421
63.5278
63.078
56.1061
41.4513
18.6357
-11.9454
-48.9435
-90.1094
-132.482
-172.696
-207.361
-233.468
-248.762
-252.019
-243.208
-223.492
-195.092
-161.01
-124.682
-89.573
-58.7943
-34.7781
-19.0486
-12.114
-13.4851
-21.8087
-35.094
-50.9942
-67.1087
-81.2639
-91.7428
-97.4394
-97.9246
-93.4262
-84.7313
-73.0325
-59.7402
-46.2902
-33.9672
-23.7682
-16.3142
-11.8191
-10.1117
-10.703
-12.8847
-15.844
-18.7788
-20.9974
-21.994
-21.491
-19.4475
-16.0363
-11.5946
-6.55937
-1.39479
3.47571
7.72622
11.167
13.7624
15.6277
17.0077
18.2416
19.7201
21.84
24.9629
29.3813
35.2954
42.8027
51.8977
62.4821
74.382
87.3678
101.176
115.529
130.148
144.769
159.145
173.049
186.277
198.641
209.972
220.113
228.92
236.256
241.996
246.019
248.212
248.47
246.694
242.796
236.707
228.385
217.827
205.086
190.283
173.621
155.388
135.959
115.782
95.3549
75.2013
55.8315
37.7089
21.2163
6.62997
-5.89669
-16.3374
-24.7854
-31.4343
-36.5513
-40.4442
-43.4281
-45.794
-47.7832
-49.5695
-51.2511
-52.8515
-54.3289
-55.592
-56.5208
-56.9874
-56.8775
-56.1071
-54.6345
-52.4665
-49.6579
-46.3058
-42.5399
-38.5097
-34.3711
-30.2741
-26.3523
-22.7153
-19.4442
-16.5904
-14.176
-12.1963
-10.6226
-9.40493
-8.47461
-7.74733
-7.12614
-6.50589
-5.77886
-4.84191
-3.60441
-1.99644
0.0239436
2.46543
5.30097
8.46868
11.8763
15.4085
18.9374
22.3331
25.4756
28.2645
30.6274
32.5237
33.9464
34.9193
35.4912
35.7285
35.7058
35.4972
35.1677
34.7673
34.3272
33.8587
33.3541
32.7911
32.1371
31.356
30.4132
29.2811
27.9429
26.3943
24.6439
22.7122
20.6293
18.4326
16.1642
13.8689
11.5926
9.3809
7.27831
5.32713
3.56613
2.02894
0.742105
-0.276959
-1.02176
-1.49801
-1.72409
-1.73032
-1.55726
-1.25283
-0.86877
-0.456812
-0.0649226
0.265742
0.502962
0.624468
0.617919
0.480075
0.215499
-0.164886
-0.645139
-1.20543
-1.82295
-2.47275
-3.12867
-3.7645
-4.35546
-4.88005
-5.32204
-5.6724
-5.93089
-6.10696
-6.21973
-6.29683
-6.3721
-6.48237
-6.66362
-6.94696
-7.35501
-7.89924
-8.57861
-9.37982
-10.2791
-11.2454
-12.2444
-13.2432
-14.2149
-15.1416
-16.0174
-16.8489
-17.654
-18.4592
-19.2945
-20.1881
-21.1593
-22.2126
-23.3326
-24.4797
-25.5906
-26.5795
-27.3444
-27.7756
-27.7659
-27.2229
-26.0803
-24.3078
-21.9175
-18.9667
-15.5559
-11.8221
-7.92838
-4.05075
-0.363607
2.97437
5.83256
8.11762
9.77895
10.8099
11.2452
11.1543
10.633
9.79297
8.75052
7.61667
6.48798
5.43967
4.52122
3.75462
3.13535
2.63573
2.21049
1.80389
1.35786
0.820378
0.153325
-0.661134
-1.61627
-2.67931
-3.79296
-4.87993
-5.84984
-6.60758
-7.06137
-7.12858
-6.73676
-5.81779
-4.29356
-2.05405
1.06886
5.32397
11.0493
18.6545
28.5669
41.1392
56.5271
74.5556
94.6061
115.556
135.798
153.36
166.111
172.035
169.537
157.717
136.577
107.109
71.2535
31.7237
-8.28809
-45.4719
-76.787
-99.817
-113.046
-116.017
-109.362
-94.6915
-74.3749
-51.2345
-28.2013
-7.97485
7.2707
16.1011
17.9356
13.0539
2.50097
-12.0892
-28.726
-45.3178
-59.9199
-70.9468
-77.3251
-78.5764
-74.8249
-66.7352
-55.3937
-42.1512
-28.4488
-15.6486
-4.88661
3.035
7.70967
9.13782
7.69162
4.04117
-0.946053
-6.3187
-11.154
-14.6563
-16.2331
-15.5401
-12.496
-7.26576
-0.219853
8.12586
17.1793
26.3425
35.0757
42.9476
49.6695
55.1093
59.2884
62.361
64.582
66.2672
67.751
69.3474
71.3164
73.8412
77.0158
80.8435
85.245
90.0751
95.1435
100.238
105.147
109.681
113.686
117.055
119.734
121.716
123.041
123.774
123.996
123.777
123.159
122.133
120.631
118.517
115.598
111.649
106.437
99.7724
91.5422
81.7528
70.554
58.2477
45.2771
32.1945
19.6129
8.14536
-1.65855
-9.3723
-14.7388
-17.6982
-18.3929
-17.1493
-14.4395
-10.827
-6.9042
-3.22914
-0.269729
1.63917
2.32065
1.76109
0.0965235
-2.41697
-5.44418
-8.61709
-11.5807
-14.0325
-15.7525
-16.6191
-16.6125
-15.805
-14.3422
-12.4163
-10.2388
-8.01328
-5.91347
-4.06734
-2.54933
-1.37991
-0.531876
0.058054
0.474194
0.805244
1.12805
1.4937
1.91757
2.37476
2.8014
3.10201
3.16205
2.86417
2.10624
0.81884
-1.02022
-3.37624
-6.15451
-9.20436
-12.3303
-15.3093
-17.9117
-19.9248
-21.1745
-21.5442
-20.9872
-19.5326
-17.2826
-14.4031
-11.1067
-7.63271
-4.22416
-1.10543
1.53683
3.56815
4.91442
5.56338
5.55973
4.9949
3.99301
2.6951
1.2434
-0.232308
-1.62512
-2.85716
-3.88147
-4.67988
-5.25781
-5.63713
-5.84845
-5.92398
-5.89192
-5.77301
-5.57942
-5.3157
-4.98139
-4.57449
-4.09508
-3.54831
-2.94635
-2.30883
-1.66188
-1.03587
-0.462259
0.029917
0.417408
0.68544
0.829391
0.855209
0.778577
0.622948
0.416748
0.190146
-0.0282111
-0.214064
-0.349692
-0.425079
-0.438002
-0.393037
-0.299687
-0.169936
-0.0156635
0.153604
0.33216
0.518494
0.714426
0.923154
1.14654
1.38221
1.62116
1.84643
2.0334
2.15188
2.16993
2.05876
1.79828
1.38192
0.82018
0.141867
-0.607274
-1.36857
-2.07658
-2.66659
-3.08229
-3.28255
-3.24622
-2.97428
-2.48902
-1.83048
-1.05058
-0.205983
0.649339
1.47074
2.2279
2.90758
3.51393
4.06642
4.59599
5.14009
5.73735
6.42281
7.2243
8.16021
9.23898
10.4599
11.8151
13.292
14.8756
16.5511
18.3049
20.1255
22.0029
23.9276
25.8888
27.8718
29.856
31.8122
33.7013
35.4736
37.0697
38.4224
39.4606
40.1144
40.321
40.0305
39.2116
37.8552
35.9769
33.6158
30.832
27.7015
24.3102
20.7467
17.0972
13.4407
9.84777
6.38051
3.09719
0.0597647
-2.6538
-4.93211
-6.60826
-7.43573
-7.06788
-5.04998
-0.834684
6.16898
16.5075
30.5585
48.3856
69.5964
93.2392
117.771
141.122
160.869
174.497
179.735
174.893
159.167
132.836
97.3354
55.1666
9.65957
-35.3853
-76.1275
-109.131
-131.758
-142.47
-140.978
-128.25
-106.355
-78.1894
-47.1102
-16.5333
10.453
31.4122
44.7864
50.0028
47.4557
38.3765
24.6138
8.36004
-8.1393
-22.8563
-34.1998
-41.162
-43.3793
-41.1103
-35.1398
-26.628
-16.9292
-7.40423
0.749121
6.62935
9.71479
9.89268
7.43517
2.93053
-2.81782
-8.90905
-14.4635
-18.7279
-21.1547
-21.45
-19.5855
-15.7765
-10.4322
-4.08606
2.68409
9.3346
15.4244
20.665
24.9468
28.3397
31.0705
33.4793
35.9645
38.9213
42.6852
47.4849
53.4131
60.4152
68.2996
76.7642
85.4372
93.9246
101.858
108.937
114.963
119.857
123.661
126.529
128.703
130.479
132.167
134.053
136.358
139.207
142.599
146.4
150.334
153.998
156.886
158.434
158.063
155.25
149.584
140.829
128.968
114.238
97.1265
78.349
58.7979
39.4662
21.3573
5.38922
-7.69439
-17.3959
-23.5094
-26.1346
-25.6571
-22.6988
-18.0438
-12.5505
-7.059
-2.30665
1.13988
2.92918
2.94218
1.28199
-1.76037
-5.75832
-10.2126
-14.6164
-18.5142
-21.5492
-23.4938
-24.2612
-23.8998
-22.5723
-20.5231
-18.0411
-15.421
-12.9286
-10.7742
-9.09546
-7.95101
-7.32402
-7.1342
-7.25583
-7.53896
-7.83113
-7.99706
-7.93443
-7.58443
-6.93641
-6.02676
-4.93239
-3.76012
-2.63314
-1.67605
-1.00015
-0.690233
-0.794107
-1.3158
-2.21304
-3.39937
-4.75069
-6.11599
-7.33118
-8.23483
-8.68432
-8.57057
-7.82977
-6.45075
-4.47694
-2.00273
0.835446
3.87237
6.93009
9.83478
12.4326
14.6025
16.2654
17.3874
17.9786
18.0874
17.7904
17.1814
16.3582
15.4119
14.4179
13.4297
12.4773
11.5685
10.6936
9.83186
8.95853
8.052
7.0991
6.09841
5.0611
4.00937
2.97305
1.98488
1.07559
0.269332
-0.419618
-0.988616
-1.44661
-1.81247
-2.11203
-2.37428
-2.62742
-2.89512
-3.19374
-3.53055
-3.90324
-4.30057
-4.70398
-5.08969
-5.43113
-5.70129
-5.87473
-5.92929
-5.84733
-5.61648
-5.23016
-4.68765
-3.99393
-3.15921
-2.19815
-1.12883
0.0285226
1.25278
2.52279
3.81757
5.1155
6.39236
7.61838
8.75504
9.75231
10.5476
11.0673
11.2318
10.9632
10.1962
8.88953
7.03711
4.67656
1.89334
-1.18057
-4.37379
-7.48824
-10.3159
-12.6582
-14.3447
-15.2508
-15.3103
-14.5227
-12.9548
-10.7351
-8.044
-5.09841
-2.13458
0.610735
2.91888
4.60663
5.5414
5.65355
4.94489
3.49249
1.44682
-0.976482
-3.5114
-5.86238
-7.7297
-8.83719
-8.95941
-7.94518
-5.73465
-2.36766
2.01757
7.19554
12.8728
18.7137
24.3686
29.5031
33.8237
37.0975
39.1664
39.9518
39.4534
37.7402
34.938
31.2135
26.7578
21.7707
16.4469
10.9647
5.47764
0.108522
-5.05352
-9.95405
-14.5715
-18.9123
-23.0021
-26.8719
-30.5391
-33.9812
-37.107
-39.7252
-41.5209
-42.0463
-40.7379
-36.9687
-30.1396
-19.806
-5.82449
11.5056
31.337
52.2384
72.2517
89.0501
100.19
103.422
97.0248
80.1012
52.7909
16.3622
-26.8412
-73.5972
-120.125
-162.485
-197.017
-220.744
-231.704
-229.167
-213.702
-187.097
-152.138
-112.291
-71.3051
-32.8137
0.0442707
24.9225
40.4629
46.3695
43.3602
33.0091
17.5046
-0.641919
-18.901
-35.0062
-47.1819
-54.2952
-55.92
-52.3149
-44.3241
-33.2195
-20.5096
-7.73872
3.69701
12.6982
18.5605
21.0168
20.223
16.6962
11.216
4.70589
-1.89012
-7.72019
-12.1142
-14.6424
-15.1386
-13.6895
-10.5948
-6.30426
-1.34405
3.76055
8.55449
12.7077
16.0497
18.5808
20.4617
21.9828
23.5188
25.4754
28.2351
32.1089
37.3006
43.8859
51.8104
60.9033
70.9045
81.5008
92.364
103.187
113.711
123.746
133.17
141.932
150.028
157.482
164.324
170.559
176.151
181.009
184.977
187.84
189.339
189.192
187.119
182.881
176.302
167.306
155.926
142.325
126.785
109.698
91.5416
72.8433
54.146
35.9682
18.7699
2.92479
-11.2973
-23.738
-34.3462
-43.1652
-50.3122
-55.9541
-60.2822
-63.4885
-65.7475
-67.2034
-67.9651
-68.1069
-67.6761
-66.7034
-65.2152
-63.2454
-60.8448
-58.0863
-55.0652
-51.8953
-48.7008
-45.6052
-42.72
-40.1336
-37.9021
-36.0447
-34.5422
-33.3409
-32.3592
-31.4987
-30.6552
-29.7318
-28.6492
-27.3539
-25.8233
-24.0664
-22.1207
-20.0462
-17.9159
-15.8069
-13.79
-11.9224
-10.2416
-8.76337
-7.48257
-6.37703
-5.4133
-4.55356
-3.76241
-3.01252
-2.2884
-1.58785
-0.921054
-0.30769
0.227436
0.659347
0.967717
1.14079
1.1779
1.0902
0.899791
0.637181
0.337786
0.0378385
-0.229654
-0.438359
-0.571079
-0.620959
-0.591374
-0.494584
-0.349408
-0.178217
-0.00359773
0.154944
0.2839
0.377918
0.440858
0.48545
0.531417
0.602113
0.72003
0.901732
1.15301
1.46516
1.81319
2.1567
2.44372
2.61729
2.62414
2.42425
1.99981
1.36214
0.555219
-0.345011
-1.23591
-1.99759
-2.50551
-2.64478
-2.3242
-1.48828
-0.125472
1.72847
3.99249
6.54729
9.24661
11.931
14.4425
16.6383
18.4017
19.6498
20.3368
20.4534
20.0227
19.0944
17.7371
16.0312
14.0632
11.9208
9.69065
7.45696
5.30164
3.30414
1.5409
0.0836185
-1.00365
-1.66851
-1.87466
-1.60594
-0.86924
0.304616
1.86224
3.73145
5.82701
8.0576
10.3332
12.5717
14.7045
16.6794
18.4623
20.0358
21.3968
22.5532
23.5191
24.311
24.9431
25.4237
25.7511
25.9105
25.8712
25.5849
24.9858
23.9926
22.513
20.4516
17.7197
14.2472
9.99486
4.96693
-0.779654
-7.12897
-13.9052
-20.8778
-27.7729
-34.2913
-40.1304
-45.0091
-48.6921
-51.0097
-51.8702
-51.2609
-49.2372
-45.8983
-41.3541
-35.6882
-28.9263
-21.0186
-11.8476
-1.26575
10.8351
24.4313
39.2664
54.7661
69.9923
83.6587
94.2201
100.034
99.5772
91.6877
75.7916
52.0755
21.57
-13.8785
-51.7496
-89.0924
-122.839
-150.144
-168.712
-177.058
-174.673
-162.075
-140.734
-112.895
-81.3102
-48.9264
-18.5641
7.37178
27.1171
39.6863
44.9125
43.3904
36.3382
25.3996
12.4151
-0.807904
-12.6982
-22.0757
-28.2432
-31.0115
-30.6593
-27.8408
-23.4561
-18.5045
-13.9406
-10.5494
-8.85462
-9.06851
-11.0848
-14.5128
-18.7451
-23.048
-26.6621
-28.9006
-29.2337
-27.3495
-23.1852
-16.9273
-8.98272
0.07588
9.58018
18.8443
27.2406
34.2643
39.5812
43.053
44.7407
44.8864
43.8785
42.2055
40.4039
39.008
38.5041
39.295
41.6758
45.82
51.7773
59.4785
68.7473
79.3167
90.8473
102.949
115.202
127.181
138.48
148.729
157.619
164.915
170.466
174.204
176.141
176.349
174.935
172.016
167.69
162.017
155.005
146.621
136.81
125.527
112.781
98.6729
83.4268
67.4055
51.1035
35.1191
20.1057
6.71033
-4.49432
-13.0733
-18.7805
-21.5908
-21.7071
-19.5445
-15.6899
-10.8453
-5.75917
-1.1541
2.34017
4.24298
4.26148
2.30895
-1.4985
-6.86532
-13.3565
-20.4489
-27.5881
-34.2438
-39.9585
-44.3852
-47.3103
-48.6612
-48.4993
-47.0001
-44.4247
-41.0851
-37.3089
-33.4072
-29.6465
-26.2307
-23.2898
-20.8793
-18.9865
-17.5435
-16.4446
-15.5644
-14.7768
-13.9703
-13.0596
-11.9923
-10.7515
-9.35182
-7.83417
-6.25616
-4.68248
-3.17519
-1.7854
-0.547264
0.525446
1.43991
2.22223
2.91322
3.56237
4.22081
4.93369
5.73286
6.63056
7.6151
8.64934
9.6728
10.6079
11.3699
11.8804
12.0816
11.95
11.5071
10.8239
10.0188
9.24773
8.68775
8.51516
8.88185
9.89255
11.5863
13.9251
16.7917
19.9964
23.2942
26.4084
29.0591
30.9928
32.0096
31.9845
30.8803
28.7515
25.7374
22.0469
17.9367
13.6849
9.56407
5.81625
2.6328
0.140564
-1.60429
-2.61474
-2.96452
-2.77436
-2.19475
-1.38746
-0.507934
0.30972
0.963598
1.39014
1.56531
1.5012
1.23909
0.83983
0.373075
-0.0938375
-0.506263
-0.831264
-1.0646
-1.23505
-1.40532
-1.66908
-2.14362
-2.95842
-4.24029
-6.09674
-8.59926
-11.7691
-15.5673
-19.8911
-24.5769
-29.4111
-34.1458
-38.52
-42.282
-45.2118
-47.1395
-47.9602
-47.6403
-46.2181
-43.7974
-40.5343
-36.621
-32.2676
-27.6831
-23.0596
-18.5601
-14.3102
-10.3962
-6.86681
-3.73944
-1.00885
1.34296
3.33717
4.99034
6.30916
7.28845
7.91225
8.15765
8.00037
7.421
6.41084
4.97627
3.14092
0.945547
-1.55436
-4.29257
-7.19693
-10.1941
-13.2132
-16.1885
-19.0587
-21.7653
-24.2459
-26.4246
-28.1961
-29.4056
-29.8244
-29.1261
-26.8716
-22.5118
-15.4206
-4.96522
9.38397
27.9133
50.516
76.5621
104.822
133.471
160.2
182.416
197.535
203.308
198.145
181.382
153.446
115.886
71.2653
22.916
-25.4011
-69.8988
-107.168
-134.537
-150.342
-154.071
-146.379
-128.969
-104.355
-75.5553
-45.739
-17.882
5.53306
22.7401
32.8133
35.6863
32.0714
23.2976
11.0936
-2.65395
-16.1342
-27.8121
-36.5725
-41.7979
-43.3766
-41.6492
-37.3058
-31.2536
-24.4744
-17.8909
-12.2582
-8.08982
-5.62503
-4.83471
-5.46144
-7.08369
-9.19319
-11.2737
-12.8708
-13.645
-13.4027
-12.1044
-9.85103
-6.85232
-3.38409
0.260238
3.81652
7.08967
9.9818
12.5058
14.7838
17.0308
19.5268
22.5812
26.4939
31.518
37.8289
45.5024
54.5048
64.6944
75.834
87.6133
99.676
111.651
123.183
133.957
143.725
152.313
159.632
165.673
170.497
174.214
176.965
178.896
180.129
180.742
180.755
180.118
178.715
176.377
172.905
168.097
161.778
153.834
144.234
133.047
120.444
106.691
92.1315
77.161
62.1955
47.6421
33.8705
21.1904
9.83597
-0.0422199
-8.37771
-15.1822
-20.5346
-24.566
-27.4438
-29.3543
-30.4878
-31.0241
-31.1225
-30.9144
-30.4992
-29.944
-29.2859
-28.5369
-27.6901
-26.7263
-25.6216
-24.3529
-22.9035
-21.2665
-19.4468
-17.4611
-15.3374
-13.1119
-10.8265
-8.52465
-6.24767
-4.0317
-1.90493
0.113791
2.01533
3.79932
5.47227
7.04488
8.52892
9.93427
11.2663
12.5243
13.7008
14.7823
15.7511
16.5878
17.275
17.8
18.1575
18.3513
18.3943
18.3074
18.1165
17.849
17.5299
17.1776
16.8013
16.399
15.9578
15.4557
14.8643
14.1533
13.2949
12.2681
11.0616
9.67642
8.12609
6.43566
4.63947
2.77791
0.893685
-0.971915
-2.78238
-4.50861
-6.1306
-7.63808
-9.03014
-10.314
-11.503
-12.614
-13.665
-14.6719
-15.6465
-16.5937
-17.5101
-18.3832
-19.1914
-19.9047
-20.4874
-20.9006
-21.1068
-21.0743
-20.7813
-20.2204
-19.4008
-18.3503
-17.1138
-15.7511
-14.332
-12.9304
-11.6173
-10.4538
-9.48523
-8.73637
-8.20917
-7.88264
-7.71514
-7.6488
-7.61552
-7.54378
-7.36577
-7.02388
-6.47597
-5.69901
-4.69056
-3.46818
-2.06683
-0.534645
1.07247
2.69664
4.28367
5.78789
7.17565
8.42725
9.53703
10.5119
11.3687
12.1304
12.8224
13.4693
14.0921
14.7069
15.3249
15.9534
16.5979
17.2649
17.9649
18.715
19.541
20.4787
21.5734
22.8786
24.4529
26.3552
28.6387
31.3437
34.4892
38.065
42.0243
46.2782
50.6931
55.0916
59.2572
62.9442
65.8897
67.8303
68.5203
67.7502
65.3653
61.282
55.5001
48.1094
39.2916
29.3141
18.5182
7.30185
-3.90185
-14.649
-24.5096
-33.0918
-40.0634
-45.1696
-48.2457
-49.2234
-48.1296
-45.0758
-40.2374
-33.8224
-26.0306
-17.0085
-6.80834
4.63609
17.5057
32.0525
48.5143
66.9955
87.3327
108.976
130.919
151.699
169.498
182.328
188.283
185.826
174.055
152.912
123.285
86.9812
46.5833
5.18262
-33.9566
-67.7646
-93.7129
-110.093
-116.195
-112.354
-99.8814
-80.8706
-57.9275
-33.8488
-11.2991
7.47759
20.8766
28.0601
28.9842
24.3307
15.3572
3.69377
-8.88814
-20.7008
-30.3343
-36.7985
-39.5992
-38.747
-34.7035
-28.2766
-20.4853
-12.4104
-5.05424
0.777139
4.55462
6.06494
5.40649
2.9469
-0.748399
-5.00505
-9.13348
-12.5154
-14.6731
-15.3148
-14.3529
-11.8949
-8.21165
-3.68777
1.23705
6.12878
10.6137
14.4214
17.4112
19.5813
21.0598
22.0823
22.9579
24.0307
25.6417
28.0938
31.626
36.3962
42.4741
49.843
58.4082
68.0101
78.4389
89.45
100.777
112.146
123.28
133.915
143.805
152.727
160.496
166.961
172.018
175.602
177.683
178.258
177.336
174.923
171.013
165.58
158.58
149.966
139.707
127.818
114.391
99.6164
83.8065
67.3911
50.9039
34.9475
20.1445
7.07916
-3.76338
-12.0507
-17.6426
-20.6107
-21.2332
-19.967
-17.3982
-14.1798
-10.9614
-8.32261
-6.71663
-6.43088
-7.56884
-10.0541
-13.6545
-18.0226
-22.7458
-27.4
-31.599
-35.0351
-37.5069
-38.9304
-39.3368
-38.8557
-37.6896
-36.0825
-34.2877
-32.5389
-31.0267
-29.8843
-29.1812
-28.925
-29.071
-29.5346
-30.2079
-30.9742
-31.7223
-32.3565
-32.803
-33.0121
-32.9572
-32.631
-32.0399
-31.1984
-30.1244
-28.835
-27.3449
-25.6661
-23.8091
-21.7857
-19.6117
-17.3104
-14.9147
-12.4686
-10.0266
-7.6517
-5.41154
-3.37355
-1.599
-0.137317
0.978993
1.7379
2.14949
2.24541
2.07606
1.7059
1.20744
0.654456
0.115435
-0.352147
-0.706041
-0.921492
-0.991389
-0.924396
-0.741407
-0.470891
-0.143793
0.211321
0.572243
0.925763
1.26872
1.60737
1.95537
2.33056
2.75123
3.23244
3.78301
4.4037
5.087
5.81851
6.57953
7.35034
8.11322
8.85448
9.56487
10.2384
10.8694
11.4494
11.9634
12.3878
12.69
12.8301
12.7649
12.4542
11.867
10.9884
9.82482
8.40669
6.78891
5.04763
3.27441
1.56814
0.0257276
-1.26726
-2.24492
-2.86732
-3.12416
-3.03564
-2.65057
-2.04233
-1.30333
-0.538549
0.140941
0.624363
0.807114
0.596266
-0.0842133
-1.2883
-3.04273
-5.34187
-8.14293
-11.3622
-14.8728
-18.506
-22.0553
-25.2861
-27.9501
-29.8049
-30.6363
-30.2835
-28.6617
-25.7816
-21.7608
-16.8253
-11.3006
-5.58873
-0.13678
4.60485
8.22782
10.4115
10.9632
9.84766
7.20232
3.33399
-1.3029
-6.14598
-10.5789
-13.9941
-15.8572
-15.7664
-13.4988
-9.03856
-2.58377
5.46987
14.5659
24.0409
33.1893
41.3314
47.8783
52.3865
54.596
54.4497
52.0915
47.8447
42.1738
35.6341
28.8154
22.285
16.5371
11.9531
8.77506
7.0961
6.86621
7.9122
9.96871
12.716
15.8203
18.9721
21.9197
24.4954
26.6341
28.385
29.9163
31.5131
33.5652
36.5406
40.9394
47.225
55.7322
66.5611
79.4732
93.8106
108.464
121.911
132.332
137.804
136.555
127.228
109.14
82.4661
48.329
8.7615
-33.4556
-75.0667
-112.692
-143.211
-164.122
-173.841
-171.884
-158.925
-136.713
-107.862
-75.5472
-43.1426
-13.845
9.66503
25.4898
32.6792
31.278
22.2583
7.34846
-11.2133
-30.9678
-49.5304
-64.8571
-75.4512
-80.4923
-79.8752
-74.162
-64.4596
-52.2418
-39.1424
-26.7459
-16.4003
-9.07429
-5.26975
-4.9981
-7.81623
-12.914
-19.2382
-25.6367
-31.0023
-34.4022
-35.1766
-32.9993
-27.8948
-20.2138
-10.5728
0.232221
11.3271
21.862
31.104
38.5099
43.7728
46.8395
47.8994
47.3495
45.7404
43.7116
41.9235
40.9926
41.4361
43.6299
47.7832
53.9291
61.9334
71.516
82.2854
93.7793
105.509
117.002
127.84
137.686
146.302
153.558
159.421
163.943
167.235
169.437
170.685
171.081
170.665
169.399
167.158
163.733
158.852
152.209
143.504
132.485
118.999
103.027
84.7175
64.3983
42.5722
19.8922
-2.88189
-24.9417
-45.4966
-63.8419
-79.4193
-91.8649
-101.037
-107.02
-110.111
-110.777
-109.605
-107.239
-104.314
-101.397
-98.942
-97.2585
-96.4984
-96.6638
-97.6292
-99.1771
-101.039
-102.94
-104.636
-105.943
-106.757
-107.062
-106.92
-106.457
-105.837
-105.235
-104.808
-104.663
-104.837
-105.279
-105.845
-106.3
-106.333
-105.584
-103.676
-100.26
-95.0569
-87.8942
-78.7427
-67.7331
-55.1601
-41.4676
-27.2174
-13.0433
0.403293
12.5117
22.7662
30.7911
36.3803
39.5095
40.3298
39.1432
36.3657
32.4794
27.9832
23.3443
18.9578
15.1172
11.9987
9.65938
8.04943
7.03468
6.42692
6.01737
5.6091
5.04456
4.22505
3.12047
1.76876
0.265929
-1.25148
-2.62857
-3.71587
-4.39144
-4.57852
-4.25668
-3.46528
-2.29917
-0.897466
0.572911
1.93662
3.02984
3.71822
3.91099
3.56972
2.71133
1.40542
-0.23327
-2.05588
-3.89275
-5.56753
-6.91102
-7.77375
-8.03657
-7.61891
-6.48434
-4.64328
-2.15287
0.885963
4.3341
8.02236
11.7618
15.3554
18.6115
21.3562
23.4459
24.7777
25.2961
24.9971
23.9267
22.1761
19.872
17.1647
14.214
11.1747
8.18391
5.35061
2.74887
0.41507
-1.65118
-3.48261
-5.13749
-6.6911
-8.22659
-9.82587
-11.5611
-13.4874
-15.6365
-18.0129
-20.5908
-23.314
-26.0977
-28.8328
-31.3924
-33.6399
-35.4396
-36.666
-37.2146
-37.0096
-36.0104
-34.2149
-31.6592
-28.4151
-24.5831
-20.2855
-15.6562
-10.8316
-5.94168
-1.1024
3.58988
8.0617
12.2633
16.1664
19.76
23.0429
26.0153
28.6692
30.9802
32.901
34.359
35.2576
35.483
34.9144
33.4378
30.9605
27.4259
22.8251
17.2062
10.6785
3.41195
-4.36738
-12.3863
-20.3364
-27.8885
-34.7071
-40.4644
-44.8503
-47.5778
-48.382
-47.0149
-43.239
-36.8286
-27.5848
-15.3727
-0.184118
17.7815
38.0285
59.6937
81.5138
101.858
118.833
130.47
134.954
130.894
117.56
95.0701
64.4743
27.7224
-12.4909
-52.988
-90.4439
-121.754
-144.379
-156.63
-157.848
-148.457
-129.896
-104.425
-74.8466
-44.1806
-15.3226
9.25812
27.7542
39.163
43.3259
40.8668
33.0461
21.5528
8.26748
-4.97574
-16.5969
-25.4273
-30.8012
-32.5778
-31.0975
-27.0851
-21.5164
-15.4681
-9.97122
-5.88537
-3.80565
-4.01137
-6.45777
-10.8073
-16.4934
-22.8051
-28.9811
-34.3012
-38.1639
-40.1436
-40.021
-37.7877
-33.6264
-27.8712
-20.9551
-13.3533
-5.528
2.11853
9.2773
15.7514
21.4594
26.4253
30.7587
34.6286
38.2357
41.7868
45.4748
49.4645
53.8874
58.842
64.3998
70.6129
77.5213
85.1559
93.5376
102.669
112.523
123.026
134.043
145.366
156.705
167.695
177.907
186.87
194.105
199.16
201.653
201.3
197.951
191.599
182.384
170.583
156.583
140.846
123.872
106.163
88.1838
70.3396
52.9587
36.2871
20.493
5.67835
-8.10443
-20.8343
-32.5051
-43.1127
-52.6478
-61.0944
-68.4339
-74.6533
-79.7546
-83.7653
-86.7454
-88.7916
-90.0354
-90.6372
-90.7749
-90.6296
-90.3701
-90.1375
-90.0324
-90.1065
-90.359
-90.7387
-91.1519
-91.4727
-91.5573
-91.257
-90.4309
-88.9558
-86.7333
-83.6953
-79.8074
-75.0719
-69.5302
-63.2649
-56.4002
-49.1003
-41.5648
-34.0195
-26.7037
-19.8548
-13.6898
-8.38851
-4.07787
-0.821278
1.38643
2.61733
3.00215
2.71636
1.96215
0.948656
-0.127566
-1.09944
-1.84196
-2.27939
-2.38654
-2.18448
-1.73171
-1.11206
-0.421134
0.247012
0.811463
1.21308
1.41949
1.42617
1.254
0.943926
0.549656
0.129609
-0.260888
-0.576171
-0.784909
-0.872476
-0.840989
-0.707248
-0.499059
-0.250572
0.00267721
0.228366
0.4011
0.50485
0.533969
0.492787
0.394003
0.256197
0.100869
-0.0505747
-0.1795
-0.272091
-0.320576
-0.323554
-0.285499
-0.215567
-0.125951
-0.030019
0.0594877
0.131992
0.18018
0.200574
0.193565
0.162946
0.115079
0.0578183
-0.000633693
-0.0527971
-0.0927776
-0.11684
-0.123647
-0.114176
-0.0913475
-0.0594512
-0.0234628
0.0116558
0.0415791
0.0630947
0.0743887
0.0751258
0.0663342
0.0501319
0.0293458
0.0070885
-0.0136404
-0.030258
-0.0407531
-0.0436607
-0.0378741
-0.0223597
0.0041179
0.0431453
0.0966061
0.166414
0.25411
0.360481
0.485364
0.627842
0.786934
0.962819
1.15852
1.3818
1.64699
1.97625
2.39993
2.95573
3.68655
4.63718
5.85022
7.3618
9.19762
11.3699
13.8756
16.696
19.7972
23.1321
26.6423
30.2604
33.911
37.5125
40.9772
44.2119
47.1182
49.5946
51.5389
52.8526
53.447
53.2503
52.2154
50.3266
47.6045
44.109
39.937
35.2169
30.1002
24.7492
19.3246
13.9734
8.81938
3.95652
-0.552519
-4.67438
-8.39908
-11.7317
-14.6826
-17.2573
-19.4455
-21.208
-22.4601
-23.0503
-22.7355
-21.1594
-17.8436
-12.2047
-3.61017
8.52141
24.5806
44.6068
68.1378
94.1084
120.832
146.091
167.336
181.984
187.766
183.073
167.248
140.763
105.253
63.3886
18.6064
-25.2741
-64.4869
-95.7555
-116.665
-125.921
-123.472
-110.466
-89.0745
-62.1934
-33.0773
-4.94918
19.3611
37.707
48.8136
52.3477
48.8703
39.6859
26.6174
11.7373
-2.90372
-15.5214
-24.7852
-29.9317
-30.7978
-27.7766
-21.7092
-13.7334
-5.11014
2.94637
9.41562
13.579
15.0795
13.9315
10.4839
5.34621
-0.708827
-6.85262
-12.3035
-16.4131
-18.7276
-19.0195
-17.2887
-13.7372
-8.7226
-2.69852
3.84926
10.4632
16.7641
22.4866
27.4974
31.7963
35.5021
38.8261
42.0388
45.4326
49.2862
53.8341
59.2432
65.5995
72.9044
81.0811
89.9889
99.4434
109.24
119.175
129.071
138.785
148.219
157.317
166.061
174.451
182.491
190.173
197.453
204.247
210.421
215.788
220.116
223.132
224.537
224.018
221.271
216.016
208.029
197.172
183.419
166.896
147.895
126.888
104.52
81.5838
58.9682
37.598
18.3571
2.01128
-10.8628
-19.9322
-25.1395
-26.7063
-25.1086
-21.0255
-15.2689
-8.70073
-2.14892
3.66873
8.20495
11.1211
12.3001
11.8348
9.99385
7.17188
3.83027
0.436269
-2.59227
-4.93056
-6.375
-6.85395
-6.4216
-5.23732
-3.53457
-1.5842
0.342938
2.00925
3.23605
3.91913
4.03351
3.62786
2.8104
1.72892
0.548073
-0.573015
-1.50003
-2.13758
-2.43689
-2.39694
-2.05938
-1.49876
-0.809594
-0.0924169
0.559531
1.07121
1.39325
1.50543
1.41605
1.15791
0.781512
0.346836
-0.0851954
-0.460495
-0.737876
-0.892861
-0.918975
-0.826646
-0.640096
-0.39282
-0.122391
0.134701
0.347525
0.494007
0.562757
0.553331
0.474994
0.344154
0.18069
0.00342893
-0.174872
-0.352554
-0.54339
-0.779426
-1.1115
-1.60685
-2.34363
-3.40263
-4.85712
-6.76202
-9.14412
-11.9947
-15.2661
-18.8724
-22.6955
-26.5943
-30.4177
-34.0189
-37.2686
-40.0671
-42.3526
-44.1051
-45.3458
-46.1326
-46.5515
-46.7059
-46.7056
-46.6553
-46.6455
-46.745
-46.9973
-47.4189
-48.0015
-48.7153
-49.515
-50.3464
-51.1532
-51.884
-52.497
-52.9646
-53.2745
-53.4292
-53.4422
-53.3328
-53.1184
-52.8075
-52.3921
-51.8429
-51.1068
-50.1089
-48.7582
-46.9579
-44.6184
-41.6728
-38.0914
-33.8937
-29.1564
-24.0138
-18.6517
-13.2938
-8.18284
-3.55738
0.371737
3.44289
5.56023
6.70318
6.9277
6.35911
5.17767
3.59865
1.84968
0.148299
-1.31732
-2.40207
-3.01051
-3.09617
-2.65442
-1.71113
-0.309718
1.50051
3.67263
6.16569
8.94349
11.9699
15.2019
18.5838
22.0427
25.488
28.8152
31.912
34.6673
36.9794
38.7637
39.9574
40.522
40.4427
39.7271
38.4015
36.5085
34.1037
31.2541
28.0363
24.5356
20.8444
17.0612
13.2885
9.62977
6.1865
3.05464
0.321389
-1.93653
-3.65176
-4.76033
-5.18926
-4.83697
-3.54856
-1.09119
2.86159
8.72502
16.9672
28.035
42.244
59.6444
79.8883
102.127
124.976
146.564
164.685
177.04
181.539
176.612
161.491
136.398
102.612
62.3912
18.7577
-24.8262
-64.8493
-98.1529
-122.289
-135.782
-138.274
-130.516
-114.239
-91.9028
-66.3754
-40.5841
-17.1809
1.73307
14.7961
21.47
22.0174
17.3856
9.01773
-1.37699
-12.0623
-21.4925
-28.4831
-32.3186
-32.7891
-30.1603
-25.0855
-18.478
-11.3645
-4.73821
0.568141
3.97597
5.21318
4.32225
1.6277
-2.3291
-6.87631
-11.3065
-14.9677
-17.3391
-18.084
-17.0763
-14.3974
-10.3102
-5.21156
0.425395
6.11398
11.4118
15.968
19.5554
22.0848
23.6024
24.2718
24.3462
24.1341
23.9641
24.1527
24.9782
26.6617
29.3559
33.1407
38.0248
43.9513
50.8068
58.433
66.6393
75.2168
83.9514
92.6368
101.086
109.137
116.662
123.562
129.762
135.204
139.829
143.564
146.302
147.896
148.15
146.834
143.697
138.507
131.085
121.355
109.379
95.3896
79.7997
63.1882
46.2669
29.8244
14.6547
1.48108
-9.11784
-16.7686
-21.3425
-22.9685
-22.0179
-19.0627
-14.8124
-10.0364
-5.48409
-1.80827
0.495806
1.1315
0.0173736
-2.72112
-6.78239
-11.7369
-17.086
-22.3243
-26.9973
-30.7489
-33.3531
-34.7276
-34.9288
-34.1296
-32.5841
-30.5843
-28.4147
-26.3116
-24.4315
-22.8333
-21.4759
-20.2307
-18.9071
-17.2871
-15.163
-12.3738
-8.8354
-4.55957
0.339431
5.65204
11.0931
16.3313
21.0246
24.8575
27.5752
29.0101
29.0996
27.8907
25.533
22.2611
18.3673
14.1707
9.98423
6.08483
2.68973
-0.0587956
-2.09875
-3.44425
-4.17299
-4.40771
-4.29463
-3.98193
-3.60106
-3.25315
-3.00172
-2.87198
-2.85605
-2.92254
-3.0285
-3.13169
-3.20111
-3.22433
-3.21068
-3.19004
-3.20793
-3.3176
-3.57089
-4.00901
-4.65487
-5.50801
-6.54262
-7.70908
-8.93845
-10.1494
-11.2562
-12.1779
-12.8452
-13.2075
-13.2365
-12.9277
-12.2997
-11.3914
-10.2574
-8.96256
-7.57643
-6.16781
-4.80009
-3.52756
-2.39285
-1.42563
-0.642226
-0.0463107
0.369832
0.623418
0.738918
0.745566
0.674726
0.557272
0.421152
0.289351
0.178478
0.0982128
0.0517263
0.037109
0.0496745
0.0848441
0.14119
0.223123
0.34271
0.520191
0.782947
1.16296
1.69304
2.40249
3.3128
4.43426
5.76404
7.28606
8.9728
10.7886
12.6942
14.6514
16.628
18.601
20.5593
22.5044
24.4493
26.4158
28.4312
30.5231
32.7148
35.0199
37.4388
39.9553
42.5356
45.1287
47.6687
50.0786
52.2754
54.175
55.6981
56.7746
57.3467
57.3708
56.8172
55.6688
53.9189
51.5688
48.6268
45.1082
41.0366
36.447
31.3892
25.9309
20.1603
14.1862
8.13587
2.1513
-3.61746
-9.01962
-13.9113
-18.1618
-21.657
-24.2984
-25.996
-26.6561
-26.1639
-24.3687
-21.0748
-16.0502
-9.05902
0.0773699
11.3926
24.673
39.3599
54.4844
68.6604
80.1563
87.0535
87.4788
79.8827
63.3197
37.6816
3.8374
-36.3524
-80.1611
-124.251
-165.027
-199.045
-223.409
-236.118
-236.298
-224.299
-201.643
-170.835
-135.056
-97.794
-62.4494
-31.9718
-8.56783
6.48793
12.9215
11.408
3.41449
-9.03729
-23.6528
-38.1545
-50.5446
-59.3104
-63.5532
-63.0326
-58.1262
-49.7206
-39.0501
-27.5106
-16.4712
-7.10893
-0.283202
3.53893
4.30194
2.32948
-1.75025
-7.10819
-12.8314
-18.0378
-21.976
-24.0985
-24.1038
-21.9447
-17.8063
-12.0585
-5.19219
2.25284
9.75764
16.885
23.3247
28.9191
33.669
37.7195
41.3305
44.8354
48.5952
52.9517
58.1872
64.4932
71.9512
80.5269
90.0772
100.368
111.098
121.934
132.534
142.584
151.815
160.024
167.079
172.92
177.553
181.035
183.456
184.923
185.535
185.365
184.443
182.747
180.194
176.646
171.927
165.84
158.202
148.875
137.802
125.03
110.734
95.2188
78.9074
62.3133
45.9988
30.5241
16.3936
4.00915
-6.3657
-14.6224
-20.8046
-25.0856
-27.7313
-29.0541
-29.3675
-28.9461
-28.0001
-26.6655
-25.0106
-23.0562
-20.8042
-18.2674
-15.4952
-12.5892
-9.70597
-7.04647
-4.83343
-3.28117
-2.56255
-2.77867
-3.93621
-5.93634
-8.57689
-11.5681
-14.5596
-17.1763
-19.0571
-19.8945
-19.4684
-17.6715
-14.5234
-10.1722
-4.88241
0.98873
7.0242
12.7864
17.8584
21.8823
24.5919
25.8354
25.5867
23.9438
21.1152
17.3962
13.1379
8.71187
4.47524
0.739241
-2.25602
-4.35818
-5.50979
-5.74596
-5.18345
-4.00284
-2.42611
-0.691933
0.96843
2.35266
3.30415
3.72294
3.57004
2.86535
1.68005
0.124524
-1.66628
-3.54852
-5.38428
-7.05426
-8.46731
-9.56617
-10.3295
-10.7703
-10.9312
-10.878
-10.6904
-10.4536
-10.2482
-10.142
-10.1828
-10.393
-10.7669
-11.2712
-11.8476
-12.4188
-12.8964
-13.1905
-13.2199
-12.9218
-12.2602
-11.2312
-9.86529
-8.2258
-6.40335
-4.50739
-2.65533
-0.960654
0.478672
1.59023
2.33452
2.70892
2.74776
2.51868
2.11537
1.64772
1.23016
0.969495
0.953418
1.24102
1.85623
2.78501
3.97662
5.34891
6.79705
8.20474
9.45666
10.4508
11.1089
11.3849
11.2685
10.7856
9.99378
8.97511
7.82546
6.64335
5.51938
4.52791
3.72254
3.13582
2.78296
2.66858
2.79464
3.16777
3.80421
4.731
5.98317
7.59701
9.60058
12.0031
14.785
17.8902
21.2225
24.6466
27.9939
31.0731
33.6838
35.6323
36.7474
36.8945
35.9874
33.9957
30.9478
26.929
22.0759
16.5663
10.6064
4.41628
-1.78534
-7.79564
-13.4407
-18.5853
-23.1399
-27.0624
-30.3564
-33.0645
-35.2573
-37.0188
-38.4275
-39.5333
-40.3297
-40.7246
-40.5101
-39.3412
-36.7318
-32.0787
-24.7237
-14.0579
0.33936
18.544
40.1414
64.1274
88.8878
112.282
131.834
145.018
149.598
143.976
127.483
100.571
64.8574
23.0108
-21.5077
-64.8248
-103.097
-132.96
-151.916
-158.619
-153.01
-136.293
-110.759
-79.4904
-45.9724
-13.6865
14.2808
35.5574
48.7
53.2851
49.8726
39.857
25.2319
8.30391
-8.60573
-23.4341
-34.5939
-41.1135
-42.6897
-39.6563
-32.8785
-23.5942
-13.2265
-3.19288
5.26674
11.2227
14.1389
13.9007
10.7905
5.42008
-1.3697
-8.62489
-15.3962
-20.8445
-24.3238
-25.4347
-24.0443
-20.276
-14.4714
-7.13225
1.14881
9.76062
18.1398
25.8248
32.4923
37.9744
42.2559
45.4554
47.7927
49.5501
51.032
52.5293
54.292
56.5136
59.3273
62.8114
67.0026
71.9105
77.5317
83.8567
90.8703
98.5436
106.82
115.596
124.71
133.925
142.932
151.358
158.786
164.791
168.971
170.995
170.633
167.787
162.504
154.98
145.534
134.583
122.599
110.056
97.397
84.9924
73.1222
61.9694
51.6288
42.1263
33.4453
25.5528
18.4233
12.0534
6.46735
1.71317
-2.14994
-5.0688
-7.01493
-8.00078
-8.0905
-7.4031
-6.10743
-4.40945
-2.53385
-0.702496
0.887085
2.08035
2.77902
2.9474
2.61126
1.84968
0.781218
-0.453496
-1.71046
-2.85994
-3.80109
-4.47185
-4.85355
-4.96983
-4.88049
-4.67137
-4.44162
-4.29008
-4.30236
-4.54009
-5.03333
-5.77699
-6.73119
-7.82553
-8.96658
-10.0475
-10.9591
-11.6003
-11.8882
-11.7657
-11.2059
-10.2143
-8.82644
-7.10347
-5.12513
-2.98176
-0.766671
1.42994
3.5246
5.44164
7.11212
8.47172
9.45892
10.0148
10.0855
9.62697
8.61256
7.04127
4.9455
2.3964
-0.494728
-3.58001
-6.6838
-9.61608
-12.1891
-14.2352
-15.6243
-16.2775
-16.1768
-15.3688
-13.9619
-12.1174
-10.036
-7.94045
-6.0559
-4.59074
-3.71839
-3.56194
-4.18269
-5.57332
-7.65661
-10.2899
-13.2758
-16.3778
-19.3413
-21.9161
-23.8803
-25.0614
-25.353
-24.7244
-23.2227
-20.9665
-18.132
-14.9342
-11.604
-8.36583
-5.41637
-2.90853
-0.940545
0.448205
1.27506
1.60649
1.54642
1.22203
0.768777
0.31619
-0.0244255
-0.169371
-0.0685615
0.292053
0.891501
1.67787
2.57481
3.48981
4.32339
4.97845
5.36935
5.43011
5.12154
4.43692
3.40591
2.09599
0.611024
-0.913823
-2.32073
-3.44128
-4.11088
-4.18401
-3.54857
-2.13723
0.0655131
3.02183
6.64461
10.8067
15.3538
20.1195
24.9398
29.6659
34.1728
38.3625
42.1635
45.5243
48.4061
50.7732
52.5867
53.7998
54.3581
54.2046
53.2871
51.5685
49.0369
45.7142
41.6604
36.9743
31.789
26.2625
20.5654
14.8662
9.31699
4.03997
-0.881582
-5.40794
-9.54121
-13.3169
-16.7889
-20.0081
-22.995
-25.7088
-28.0141
-29.6499
-30.2073
-29.1249
-25.7121
-19.2096
-8.89291
5.7858
25.0307
48.5383
75.3714
103.908
131.896
156.63
175.23
185.014
183.881
170.664
145.387
109.375
65.1839
16.37
-32.8929
-78.285
-115.841
-142.41
-156.01
-156.039
-143.307
-119.901
-88.8966
-53.9649
-18.9291
12.6754
37.9787
55.0506
63.0453
62.2057
53.7396
39.5908
22.1424
3.89506
-12.841
-26.2008
-34.9422
-38.5307
-37.1299
-31.5084
-22.8814
-12.7144
-2.51537
6.35755
12.8502
16.3141
16.5484
13.7822
8.60632
1.86759
-5.45783
-12.3941
-18.0824
-21.8717
-23.3752
-22.4882
-19.3709
-14.3996
-8.09781
-1.05672
6.14292
12.9985
19.1351
24.3331
28.5333
31.8216
34.3993
36.5431
38.5644
40.7711
43.4374
46.7838
50.9667
56.0773
62.1447
69.1432
76.9988
85.595
94.7769
104.353
114.101
123.766
133.072
141.731
149.449
155.949
160.978
164.327
165.844
165.446
163.12
158.934
153.028
145.606
136.924
127.27
116.944
106.236
95.4077
84.677
74.2133
64.1361
54.5223
45.4185
36.8555
28.862
21.4748
14.7436
8.73017
3.50171
-0.879832
-4.36986
-6.95258
-8.64933
-9.52229
-9.67264
-9.23346
-8.35862
-7.20941
-5.94118
-4.69215
-3.57576
-2.67755
-2.05615
-1.74764
-1.77157
-2.13684
-2.84591
-3.89608
-5.27769
-6.96962
-8.93353
-11.1085
-13.408
-15.7201
-17.913
-19.8436
-21.3707
-22.3692
-22.7442
-22.4433
-21.4644
-19.8583
-17.7259
-15.2094
-12.4799
-9.72077
-7.11139
-4.81051
-2.94279
-1.58905
-0.781262
-0.502496
-0.691653
-1.25205
-2.0628
-2.99171
-3.90826
-4.69554
-5.26002
-5.53847
-5.50161
-5.15415
-4.53168
-3.69461
-2.71999
-1.69207
-0.692614
0.208135
0.958793
1.53185
1.92581
2.16423
2.29179
2.36776
2.45764
2.62399
2.91747
3.36953
3.98754
4.7533
5.62502
6.54278
7.43659
8.23607
8.88028
9.32652
9.5565
9.57928
9.43021
9.16607
8.85687
8.57547
8.38629
8.33484
8.4394
8.68623
9.02904
9.39295
9.68244
9.79224
9.61985
9.07773
8.10373
6.66828
4.77767
2.47317
-0.173474
-3.06702
-6.09696
-9.14561
-12.0951
-14.8324
-17.2534
-19.2645
-20.785
-21.7491
-22.1087
-21.8374
-20.935
-19.4314
-17.389
-14.9032
-12.0986
-9.12244
-6.13396
-3.29168
-0.739573
1.406
3.06679
4.20928
4.84626
5.03336
4.8608
4.44175
3.89867
3.34974
2.897
2.61771
2.56004
2.74326
3.16214
3.79452
4.61069
5.58278
6.69271
7.93728
9.32972
10.8975
12.677
14.7057
17.0139
19.6164
22.5067
25.6535
29
32.467
35.9574
39.3619
42.566
45.4546
47.9169
49.8488
51.1546
51.7478
51.5524
50.5051
48.5586
45.687
41.8914
37.2063
31.7051
25.502
18.7512
11.6422
4.38975
-2.77888
-9.63895
-15.984
-21.6399
-26.4756
-30.4089
-33.4063
-35.4758
-36.6533
-36.9818
-36.4853
-35.1393
-32.8431
-29.3992
-24.5093
-17.7957
-8.8544
2.65769
16.9077
33.7595
52.66
72.5668
91.9481
108.872
121.192
126.808
123.976
111.61
89.533
58.6134
20.7745
-21.1507
-63.6993
-103.157
-135.988
-159.249
-170.936
-170.217
-157.516
-134.443
-103.59
-68.2087
-31.8297
2.1321
30.7414
51.8274
64.1642
67.531
62.6542
51.0464
34.7692
16.1546
-2.48025
-19.0895
-32.0999
-40.5375
-44.0724
-42.9838
-38.0579
-30.4368
-21.4426
-12.3993
-4.47342
1.44855
4.83658
5.54323
3.78191
0.0650702
-4.8861
-10.247
-15.196
-19.0103
-21.1403
-21.2568
-19.2686
-15.3107
-9.70836
-2.92211
4.51668
12.0727
19.2674
25.7278
31.2188
35.6567
39.1047
41.7533
43.888
45.8511
48.0008
50.6738
54.1529
58.6442
64.2632
71.0298
78.873
87.641
97.1177
107.041
117.125
127.076
136.616
145.496
153.508
160.496
166.355
171.034
174.529
176.87
178.114
178.318
177.531
175.77
173.012
169.183
164.166
157.809
149.951
140.454
129.241
116.334
101.881
86.1753
69.6573
52.8916
36.5297
21.2551
7.71993
-3.52001
-12.0626
-17.7019
-20.4502
-20.5361
-18.3793
-14.5453
-9.68565
-4.47094
0.474824
4.63148
7.62517
9.25213
9.4823
8.44371
6.39085
3.66174
0.629688
-2.34457
-4.95457
-6.97924
-8.30051
-8.90611
-8.87851
-8.37235
-7.58434
-6.7202
-5.96337
-5.44967
-5.25092
-5.36921
-5.7417
-6.2547
-6.76429
-7.12019
-7.1894
-6.87621
-6.13613
-4.98206
-3.48222
-1.75055
0.0688992
1.82117
3.36051
4.56873
5.36937
5.73602
5.69381
5.31418
4.7038
3.98938
3.30053
2.75298
2.43444
2.39484
2.6419
3.14246
3.82892
4.60978
5.38248
6.047
6.51824
6.73572
6.6696
6.32245
5.72673
4.93877
4.03008
3.07741
2.15273
1.31462
0.601792
0.0296581
-0.40992
-0.745886
-1.02275
-1.29373
-1.61318
-2.02942
-2.57863
-3.28066
-4.13696
-5.13093
-6.23035
-7.39159
-8.56497
-9.70055
-10.7537
-11.6899
-12.4879
-13.1418
-13.661
-14.0686
-14.3985
-14.6908
-14.9873
-15.326
-15.7363
-16.2348
-16.8228
-17.4845
-18.1881
-18.8881
-19.529
-20.0509
-20.3954
-20.5113
-20.3606
-19.9221
-19.1948
-18.1979
-16.9695
-15.5634
-14.0438
-12.479
-10.9347
-9.46711
-8.11784
-6.90931
-5.84288
-4.89896
-4.03932
-3.21131
-2.35322
-1.40039
-0.291173
1.02793
2.59829
4.4468
6.58507
9.00991
11.7047
14.6408
17.7797
21.073
24.4636
27.8855
31.2637
34.5151
37.55
40.2747
42.5957
44.4245
45.6834
46.3102
46.2634
45.5253
44.104
42.0331
39.3698
36.1917
32.5909
28.6686
24.5284
20.2698
15.983
11.7442
7.61334
3.63253
-0.172982
-3.79328
-7.23116
-10.4987
-13.6125
-16.5873
-19.4251
-22.1004
-24.5401
-26.6017
-28.053
-28.5625
-27.7076
-25.0083
-19.9919
-12.2843
-1.71954
11.5509
26.9734
43.5562
59.9004
74.3081
84.9616
90.1514
88.5233
79.3032
62.4631
38.7971
9.89065
-22.0175
-54.2652
-84.0599
-108.793
-126.339
-135.289
-135.103
-126.15
-109.637
-87.4462
-61.8926
-35.4472
-10.4582
11.0949
27.7831
38.8304
44.1281
44.169
39.9165
32.6313
23.6829
14.3699
5.7722
-1.35005
-6.60377
-9.95572
-11.6787
-12.2634
-12.3123
-12.4307
-13.1314
-14.7624
-17.4658
-21.1678
-25.599
-30.3371
-34.8651
-38.6354
-41.1334
-41.9314
-40.7316
-37.3921
-31.9372
-24.5523
-15.5639
-5.40873
5.40514
16.3426
26.886
36.5767
45.051
52.0663
57.5172
61.4399
64.0045
65.4966
66.2907
66.8151
67.5143
68.8107
71.0692
74.5702
79.491
85.899
93.7557
102.93
113.218
124.366
136.091
148.101
160.108
171.834
183.012
193.384
202.692
210.674
217.065
221.598
224.017
224.092
221.636
216.529
208.731
198.302
185.403
170.301
153.364
135.043
115.857
96.3714
77.1674
58.8163
41.8482
26.7234
13.8053
3.33939
-4.56188
-9.92434
-12.9082
-13.7933
-12.9555
-10.835
-7.90034
-4.61093
-1.38191
1.44521
3.62351
5.01133
5.57217
5.36438
4.52237
3.23206
1.70347
0.143823
-1.26593
-2.38892
-3.1429
-3.50297
-3.49709
-3.19541
-2.69567
-2.1066
-1.53186
-1.05643
-0.736993
-0.597114
-0.627391
-0.790021
-1.02675
-1.26882
-1.44751
-1.50382
-1.39622
-1.10577
-0.638129
-0.0224074
0.692621
1.44457
2.16487
2.78664
3.25226
3.51956
3.56615
3.39137
3.01577
2.47825
1.83136
1.13535
0.451705
-0.163088
-0.662905
-1.01595
-1.20697
-1.23765
-1.12515
-0.899143
-0.597722
-0.262743
0.06487
0.349211
0.562334
0.685614
0.709308
0.630432
0.4494
0.166178
-0.223141
-0.728485
-1.36604
-2.15627
-3.11988
-4.27215
-5.61673
-7.13967
-8.8051
-10.5534
-12.3025
-13.9528
-15.395
-16.5202
-17.2317
-17.4556
-17.1504
-16.3137
-14.984
-13.239
-11.1895
-8.96871
-6.72013
-4.58354
-2.68155
-1.10821
0.0793167
0.864724
1.27206
1.36061
1.216
0.938487
0.630049
0.381786
0.263236
0.314887
0.544738
0.929242
1.41839
1.94415
2.43096
2.80697
3.01419
3.0164
2.80361
2.39255
1.82331
1.15269
0.445457
-0.234952
-0.834652
-1.31485
-1.65357
-1.84309
-1.88341
-1.77294
-1.49857
-1.0273
-0.301979
0.757172
2.24443
4.2542
6.86197
10.1034
13.9544
18.3166
23.0105
27.7789
32.3025
36.2254
39.1896
40.874
41.0326
39.5272
36.3501
31.632
25.6349
18.7294
11.3588
3.99521
-2.90822
-8.96213
-13.8781
-17.494
-19.7845
-20.8565
-20.9315
-20.3146
-19.3569
-18.4106
-17.782
-17.6832
-18.1872
-19.1877
-20.3735
-21.2222
-21.0269
-18.9597
-14.1789
-5.97192
6.08167
21.9523
41.0408
62.1293
83.425
102.708
117.572
125.728
125.33
115.272
95.4028
66.6302
30.8793
-9.07931
-49.9215
-88.1378
-120.431
-144.087
-157.28
-159.253
-150.384
-132.105
-106.705
-77.0416
-46.198
-17.1378
7.61031
26.1949
37.59
41.6366
38.9807
30.9228
19.2046
5.7626
-7.51791
-19.0193
-27.5552
-32.4651
-33.6369
-31.459
-26.7165
-20.4482
-13.7866
-7.80114
-3.36511
-1.05873
-1.1181
-3.43127
-7.5778
-12.9029
-18.614
-23.8868
-27.9662
-30.2517
-30.3579
-28.1459
-23.7223
-17.4121
-9.70673
-1.19854
7.49191
15.786
23.2075
29.4269
34.2863
37.8036
40.1565
41.6503
42.6736
43.6483
44.9801
47.0144
50.0042
54.0911
59.3017
65.5592
72.7059
80.5336
88.817
97.3432
105.935
114.463
122.844
131.032
138.995
146.692
154.044
160.913
167.097
172.326
176.278
178.609
178.987
177.131
172.85
166.069
156.854
145.412
132.082
117.31
101.623
85.5819
69.7466
54.6373
40.7009
28.2868
17.6297
8.8429
1.92034
-3.25313
-6.88362
-9.24475
-10.6503
-11.4259
-11.8814
-12.2877
-12.8583
-13.7384
-15.0016
-16.6534
-18.6421
-20.8729
-23.2262
-25.575
-27.8012
-29.8085
-31.5309
-32.9354
-34.0214
-34.8147
-35.3601
-35.7116
-35.9236
-36.0427
-36.1023
-36.1197
-36.0951
-36.0138
-35.8503
-35.5725
-35.147
-34.5444
-33.7429
-32.7314
-31.5109
-30.0946
-28.5064
-26.7789
-24.9495
-23.0575
-21.1403
-19.2306
-17.3544
-15.53
-13.7683
-12.0741
-10.4483
-8.89046
-7.40125
-5.9848
-4.6499
-3.4102
-2.28335
-1.28913
-0.446777
0.227978
0.725738
1.04576
1.19732
1.19988
1.0819
0.878458
0.62784
0.367632
0.13084
-0.0573929
-0.181988
-0.238744
-0.233676
-0.181032
-0.100344
-0.0129904
0.061197
0.106791
0.11472
0.0831055
0.0169575
-0.07313
-0.173001
-0.267327
-0.341977
-0.386038
-0.393222
-0.362507
-0.297993
-0.208055
-0.103969
0.00175939
0.0971083
0.172057
0.219729
0.237035
0.224771
0.187215
0.131307
0.0655687
-0.00108544
-0.0604607
-0.105977
-0.133224
-0.140108
-0.126578
-0.093986
-0.0441555
0.0217029
0.104116
0.206389
0.335456
0.502478
0.723106
1.01737
1.40911
1.92489
2.59237
3.43804
4.48462
5.74811
7.23497
8.9398
10.844
12.9159
15.1118
17.3797
19.6634
21.9077
24.0636
26.0926
27.9694
29.6817
31.2282
32.6126
33.8373
34.895
35.7622
36.394
36.7238
36.6659
36.1236
35
33.2114
30.7007
27.4485
23.4816
18.8753
13.7509
8.26809
2.61293
-3.017
-8.42791
-13.4442
-17.9202
-21.7478
-24.8597
-27.2275
-28.855
-29.7659
-29.9855
-29.5172
-28.3138
-26.2489
-23.0943
-18.5136
-12.0827
-3.34511
8.09534
22.4522
39.6221
59.0653
79.7338
100.073
118.12
131.692
138.654
137.235
126.32
105.702
76.2143
39.7296
-0.982788
-42.5378
-81.3092
-113.85
-137.301
-149.725
-150.334
-139.559
-118.984
-91.1297
-59.1337
-26.3736
3.92458
29.0384
47.0195
56.8564
58.5144
52.8583
41.4741
26.421
9.94864
-5.78351
-18.9497
-28.2388
-32.9564
-33.0431
-29.0138
-21.8349
-12.759
-3.14142
5.73617
12.816
17.3716
19.0641
17.9456
14.4153
9.13735
2.93515
-3.32291
-8.83137
-12.9365
-15.197
-15.4117
-13.6146
-10.0418
-5.07698
0.812892
7.14419
13.4748
19.4486
24.8211
29.4679
33.3748
36.6165
39.3275
41.6706
43.8085
45.882
47.9966
50.2177
52.5756
55.0746
57.7071
60.466
63.3558
66.3975
69.6282
73.0946
76.8417
80.8986
85.264
89.8932
94.6894
99.5008
104.124
108.314
111.8
114.302
115.555
115.323
113.422
109.733
104.218
96.924
87.9953
77.6697
66.2738
54.2091
41.9297
29.9128
18.6239
8.47921
-0.190633
-7.17026
-12.3801
-15.8836
-17.8798
-18.6817
-18.6809
-18.3051
-17.9692
-18.0299
-18.745
-20.2449
-22.5188
-25.4169
-28.6693
-31.9197
-34.7693
-36.8262
-37.7549
-37.319
-35.4116
-32.0706
-27.4764
-21.9321
-15.8294
-9.60397
-3.68666
1.54487
5.80669
8.93766
10.9134
11.8441
11.9566
11.5636
11.0238
10.6975
10.9032
11.8786
13.7513
16.5218
20.0601
24.118
28.3538
32.3692
35.7537
38.1306
39.2007
38.778
36.812
33.3957
28.7561
23.2311
17.2328
11.2039
5.57209
0.707359
-3.11284
-5.72616
-7.09437
-7.29827
-6.51989
-5.01513
-3.08035
-1.0175
0.898466
2.44611
3.47577
3.91806
3.78258
3.1479
2.14461
0.934085
-0.314387
-1.44529
-2.33512
-2.90529
-3.12884
-3.03055
-2.68103
-2.18588
-1.67159
-1.26998
-1.1031
-1.27028
-1.83878
-2.83872
-4.26283
-6.07054
-8.19565
-10.5562
-13.0652
-15.6402
-18.2103
-20.7207
-23.1324
-25.4198
-27.5652
-29.5529
-31.3633
-32.9694
-34.3354
-35.4185
-36.1729
-36.5561
-36.5349
-36.0918
-35.2293
-33.9708
-32.3602
-30.4577
-28.334
-26.063
-23.7142
-21.3461
-19.0004
-16.6985
-14.4401
-12.2046
-9.95369
-7.63767
-5.20184
-2.59454
0.225063
3.28014
6.57119
10.0735
13.7376
17.4922
21.2499
24.9146
28.3891
31.5831
34.419
36.8363
38.7938
40.269
41.2564
41.7641
41.8106
41.4214
40.6262
39.4562
37.9419
36.1106
33.9836
31.5733
28.881
25.8951
22.5912
18.9339
14.881
10.3906
5.42928
-0.0183171
-5.93924
-12.2836
-18.9579
-25.8209
-32.6836
-39.311
-45.4274
-50.7215
-54.8513
-57.4478
-58.1174
-56.446
-52.009
-44.3942
-33.2448
-18.3268
0.379275
22.5713
47.5224
74.0068
100.285
124.172
143.204
154.893
157.048
148.11
127.46
95.6238
54.3459
6.50185
-44.1533
-93.3695
-136.872
-170.853
-192.417
-199.92
-193.153
-173.351
-143.026
-105.647
-65.2217
-25.8223
8.86809
35.9418
53.5383
60.9746
58.7279
48.2821
31.8691
12.1425
-8.16903
-26.5856
-41.1395
-50.5508
-54.3035
-52.6207
-46.3539
-36.8071
-25.5256
-14.0777
-3.85933
4.05913
9.02775
10.8494
9.75232
6.31318
1.34586
-4.22636
-9.49766
-13.6898
-16.2341
-16.8188
-15.3986
-12.1715
-7.52737
-1.97871
3.91697
9.63298
14.7389
18.949
22.1496
24.4035
25.9325
27.0817
28.2699
29.9338
32.4711
36.1916
41.2807
47.7789
55.5815
64.4556
74.073
84.0539
94.0151
103.615
112.592
120.783
128.138
134.7
140.587
145.952
150.944
155.667
160.145
164.306
167.974
170.874
172.661
172.952
171.37
167.585
161.361
152.586
141.305
127.726
112.221
95.3081
77.6216
59.8675
42.7721
27.0268
13.233
1.85555
-6.81443
-12.6795
-15.8394
-16.5756
-15.3205
-12.612
-9.04138
-5.1969
-1.6118
1.28016
3.17635
3.92179
3.50973
2.06709
-0.172598
-2.90508
-5.79553
-8.5184
-10.7925
-12.4081
-13.2434
-13.2701
-12.5473
-11.2072
-9.43274
-7.43298
-5.41687
-3.57036
-2.03827
-0.912837
-0.229659
0.0293505
-0.0730476
-0.442665
-0.969331
-1.54235
-2.06406
-2.45984
-2.6839
-2.72019
-2.57932
-2.29194
-1.90027
-1.44902
-0.977146
-0.511518
-0.0632807
0.372935
0.817119
1.29998
1.85789
2.52771
3.34202
4.32519
5.49009
6.83487
8.33949
9.96185
11.6338
13.2583
14.7092
15.8351
16.4686
16.4419
15.6068
13.8586
11.1596
7.55835
3.20176
-1.66498
-6.71077
-11.5443
-15.7505
-18.9339
-20.7631
-21.0121
-19.5906
-16.5603
-12.1351
-6.66217
-0.589138
5.58175
11.3452
16.2445
19.9171
22.1286
22.7911
21.9652
19.8441
16.7251
12.9701
8.96255
5.06501
1.58285
-1.26174
-3.3435
-4.635
-5.19609
-5.15434
-4.68034
-3.96136
-3.17707
-2.4799
-1.98172
-1.74733
-1.79439
-2.09844
-2.60147
-3.22232
-3.86739
-4.44067
-4.85239
-5.02618
-4.90487
-4.455
-3.67023
-2.57328
-1.21612
0.322055
1.93956
3.51957
4.93987
6.08408
6.85315
7.17569
7.01583
6.37724
5.303
3.87092
2.18512
0.364676
-1.46921
-3.20634
-4.75968
-6.07598
-7.14415
-8.00105
-8.73391
-9.47859
-10.4125
-11.7417
-13.6816
-16.4324
-20.1519
-24.9279
-30.7553
-37.5206
-44.9991
-52.8652
-60.717
-68.1135
-74.6195
-79.8542
-83.5354
-85.5138
-85.7922
-84.5237
-81.9895
-78.5565
-74.617
-70.5191
-66.4948
-62.5973
-58.6587
-54.2818
-48.8751
-41.7368
-32.186
-19.7289
-4.23405
13.9148
33.7268
53.6048
71.4591
84.9323
91.7123
89.8874
78.2869
56.7459
26.2437
-11.117
-52.2934
-93.6307
-131.287
-161.697
-182.007
-190.42
-186.401
-170.73
-145.376
-113.236
-77.7705
-42.5812
-10.9959
14.2906
31.4775
39.795
39.5078
31.7949
18.5306
2.00164
-15.3983
-31.458
-44.3863
-52.9743
-56.6701
-55.5653
-50.3047
-41.9395
-31.7485
-21.0528
-11.0491
-2.67974
3.44904
7.09491
8.35802
7.61839
5.44583
2.49744
-0.582402
-3.24676
-5.10628
-5.95957
-5.7933
-4.75511
-3.10608
-1.1611
0.773359
2.45522
3.74938
4.65211
5.29523
5.93112
6.90153
8.59512
11.3992
15.6517
21.5985
29.3614
38.9192
50.1049
62.6178
76.051
89.9292
103.755
117.056
129.431
140.585
150.354
158.716
165.781
171.769
176.975
181.721
186.309
190.971
195.829
200.865
205.908
210.639
214.611
217.288
218.1
216.493
212
204.287
193.203
178.808
161.382
141.415
119.576
96.663
73.5468
51.0996
30.1297
11.3215
-4.81129
-17.9561
-28.0121
-35.0819
-39.446
-41.5231
-41.8224
-40.8909
-39.2639
-37.4209
-35.7515
-34.534
-33.9268
-33.9722
-34.6113
-35.7061
-37.0675
-38.4839
-39.7482
-40.6811
-41.1479
-41.0678
-40.4173
-39.2256
-37.5657
-35.5418
-33.2744
-30.8863
-28.4894
-26.1746
-24.0055
-22.0153
-20.2081
-18.5629
-17.0403
-15.5905
-14.1617
-12.7084
-11.1976
-9.61333
-7.9589
-6.25625
-4.54336
-2.86973
-1.2908
0.138041
1.36714
2.35731
3.08324
3.53535
3.72012
3.65894
3.38597
2.9451
2.3866
1.76356
1.12845
0.530017
0.0104729
-0.39675
-0.668813
-0.794709
-0.775884
-0.626122
-0.370561
-0.0437137
0.313587
0.658269
0.949866
1.15563
1.25515
1.24372
1.13345
0.951964
0.73823
0.536355
0.388004
0.324783
0.361833
0.49381
0.694014
0.917006
1.10445
1.19342
1.12608
0.859214
0.37227
-0.327343
-1.20266
-2.18959
-3.20324
-4.1473
-4.92535
-5.45262
-5.66658
-5.535
-5.06048
-4.28074
-3.2648
-2.10539
-0.908632
0.21775
1.17621
1.88982
2.3101
2.42146
2.24186
1.81995
1.22921
0.55993
-0.0897051
-0.622647
-0.951042
-1.00273
-0.725745
-0.0906241
0.909377
2.26
3.92926
5.87176
8.03363
10.3574
12.7862
15.2674
17.7544
20.2075
22.5935
24.8845
27.056
29.0853
30.9503
32.6293
34.1011
35.3468
36.3521
37.1095
37.6205
37.8971
37.9617
37.8459
37.5865
37.2206
36.7795
36.2817
35.7272
35.0934
34.3336
33.3798
32.148
30.5479
28.4936
25.9157
22.7723
19.0572
14.8048
10.0903
5.02548
-0.249636
-5.57851
-10.8015
-15.7695
-20.3558
-24.4642
-28.0299
-31.0133
-33.3826
-35.0875
-36.0253
-36.0063
-34.7264
-31.7603
-26.585
-18.6437
-7.44984
7.27668
25.4632
46.5573
69.4536
92.5029
113.621
130.496
140.867
142.847
135.221
117.686
90.9748
56.8546
17.9715
-22.4206
-60.822
-93.8887
-118.816
-133.657
-137.528
-130.682
-114.449
-91.0344
-63.2401
-34.1139
-6.59783
16.7918
34.2118
44.6419
47.926
44.7077
36.2772
24.3552
10.8461
-2.40612
-13.8303
-22.2849
-27.1455
-28.3199
-26.1955
-21.533
-15.3256
-8.64531
-2.49583
2.30834
5.22615
6.03008
4.80254
1.89376
-2.14911
-6.6698
-10.9947
-14.517
-16.7638
-17.4392
-16.4416
-13.8548
-9.91763
-4.97733
0.565549
6.31268
11.9173
17.1212
21.7764
25.8495
29.4113
32.614
35.6609
38.7736
42.1624
46.0021
50.416
55.4696
61.172
67.4832
74.3258
81.5974
89.1827
96.9626
104.82
112.644
120.327
127.764
134.846
141.459
147.474
152.75
157.128
160.431
162.478
163.086
162.091
159.364
154.829
148.483
140.403
130.752
119.771
107.768
95.0928
82.1168
69.2056
56.6964
44.878
33.9764
24.1463
15.4678
7.94894
1.53181
-3.8974
-8.49615
-12.4518
-15.967
-19.2445
-22.473
-25.813
-29.3834
-33.2506
-37.4185
-41.8223
-46.3278
-50.7357
-54.7945
-58.2206
-60.7257
-62.0486
-61.9889
-60.4379
-57.4021
-53.017
-47.5456
-41.3633
-34.9278
-28.7376
-23.2835
-18.9981
-16.2093
-15.1042
-15.7065
-17.8713
-21.299
-25.5646
-30.1615
-34.5537
-38.2303
-40.7566
-41.8162
-41.2384
-39.0107
-35.2729
-30.2964
-24.4501
-18.1587
-11.8573
-5.94855
-0.766135
3.45146
6.57476
8.58434
9.55989
9.65984
9.09462
8.09735
6.89559
5.68733
4.62357
3.79888
3.24999
2.96173
2.87873
2.92079
2.99952
3.0342
2.96467
2.76007
2.42241
1.98497
1.50608
1.05929
0.72154
0.561016
0.626333
0.93856
1.48716
2.23039
3.09995
4.00928
4.86376
5.57145
6.05227
6.2445
6.10758
5.62161
4.78418
3.6062
2.10813
0.318222
-1.72677
-3.97849
-6.37259
-8.82464
-11.2283
-13.4574
-15.3726
-16.8326
-17.7094
-17.9043
-17.3629
-16.0872
-14.1406
-11.6463
-8.77815
-5.74497
-2.76958
-0.066272
2.1812
3.838
4.83068
5.15246
4.86063
4.06696
2.92238
1.59815
0.266071
-0.919848
-1.83818
-2.4097
-2.60104
-2.42257
-1.92108
-1.16882
-0.250625
0.749102
1.7577
2.72268
3.61634
4.43661
5.20427
5.95754
6.74517
7.61915
8.62808
9.81199
11.1989
12.8034
14.6261
16.6553
18.8685
21.2347
23.7165
26.272
28.8568
31.4249
33.9299
36.3251
38.5635
40.5973
42.3776
43.8534
44.9715
45.6779
45.9189
45.6451
44.8153
43.4018
41.3958
38.8113
35.6878
32.0907
28.1085
23.8479
19.4262
14.963
10.5707
6.34603
2.36278
-1.33378
-4.73035
-7.84664
-10.7336
-13.4679
-16.1407
-18.8389
-21.6182
-24.4668
-27.2643
-29.7413
-31.4519
-31.7696
-29.9224
-25.0727
-16.444
-3.48347
13.9628
35.4949
60.0586
85.9349
110.837
132.119
147.079
153.313
149.074
133.575
107.183
71.4713
29.1068
-16.4127
-61.1405
-101.131
-132.898
-153.812
-162.399
-158.484
-143.176
-118.699
-88.1011
-54.8639
-22.4961
5.8635
27.7708
41.6986
47.1357
44.5582
35.2881
21.2636
4.75761
-11.9191
-26.6905
-37.9352
-44.6304
-46.4107
-43.5423
-36.8245
-27.4368
-16.756
-6.1691
3.09665
10.106
14.2991
15.5209
13.9979
10.2716
5.10007
-0.65677
-6.15206
-10.6541
-13.6234
-14.7592
-14.0105
-11.5562
-7.75783
-3.09309
1.91841
6.78913
11.1271
14.6818
17.369
19.2709
20.6159
21.7405
23.0398
24.9151
27.7233
31.737
37.116
43.8944
51.9818
61.1782
71.1966
81.693
92.2981
102.647
112.407
121.297
129.101
135.678
140.957
144.935
147.664
149.236
149.767
149.377
148.174
146.236
143.598
140.24
136.094
131.043
124.942
117.645
109.034
99.0604
87.7677
75.3203
62.0073
48.2341
34.4935
21.3229
9.25131
-1.25729
-9.8545
-16.3465
-20.7149
-23.1173
-23.8663
-23.3919
-22.1908
-20.7698
-19.5917
-19.0284
-19.328
-20.5984
-22.8077
-25.8019
-29.3336
-33.0997
-36.782
-40.0851
-42.7679
-44.6657
-45.7006
-45.8815
-45.2927
-44.0769
-42.4114
-40.485
-38.4748
-36.5286
-34.7518
-33.2014
-31.8864
-30.7738
-29.7983
-28.8754
-27.9146
-26.8319
-25.5608
-24.0593
-22.3142
-20.341
-18.1814
-15.8976
-13.5651
-11.2642
-9.07211
-7.05561
-5.2653
-3.732
-2.46528
-1.45412
-0.669612
-0.0690151
0.399193
0.789914
1.15624
1.54494
1.99299
2.52537
3.15421
3.87926
4.68953
5.56584
6.48387
7.41742
8.34133
9.23388
10.0782
10.8625
11.58
12.2264
12.7988
13.2921
13.6976
14.0013
14.183
14.2172
14.0759
13.7309
13.1589
12.3452
11.2882
10.0025
8.52055
6.89228
5.18292
3.46864
1.83049
0.347332
-0.911575
-1.89348
-2.56763
-2.92866
-2.9974
-2.81891
-2.4579
-1.9921
-1.50436
-1.07433
-0.770878
-0.64605
-0.731217
-1.03579
-1.54851
-2.24091
-3.07246
-3.9964
-4.96573
-5.93823
-6.8803
-7.76899
-8.59234
-9.34802
-10.0408
-10.679
-11.2712
-11.8221
-12.3306
-12.7871
-13.1735
-13.464
-13.6265
-13.6261
-13.4292
-13.0077
-12.3436
-11.4329
-10.2887
-8.94208
-7.4418
-5.85119
-4.24356
-2.69595
-1.28189
-0.064313
0.910796
1.61895
2.05932
2.25421
2.24571
2.09012
1.85074
1.5901
1.36268
1.20911
1.15261
1.19828
1.33508
1.54042
1.78649
2.04744
2.30644
2.5615
2.82951
3.14796
3.57427
4.18296
5.06091
6.30092
7.99401
10.2209
13.0429
16.493
20.5686
25.2245
30.3703
35.87
41.5453
47.1828
52.5454
57.3851
61.4586
64.5435
66.4523
67.0461
66.2435
64.0263
60.4413
55.5973
49.6587
42.8359
35.3735
27.5373
19.6007
11.8316
4.48037
-2.23093
-8.11781
-13.0412
-16.9141
-19.7064
-21.4478
-22.2268
-22.1846
-21.5004
-20.3671
-18.956
-17.3731
-15.6129
-13.5188
-10.7637
-6.86473
-1.24132
6.68049
17.3257
30.8118
46.8056
64.4311
82.2609
98.4112
110.74
117.13
115.806
105.653
86.4562
59.0329
25.2209
-12.2821
-50.2088
-85.1028
-113.736
-133.501
-142.728
-140.874
-128.575
-107.544
-80.3408
-50.0463
-19.8888
7.12855
28.5526
42.7182
48.8769
47.2086
38.7222
25.0685
8.29469
-9.42531
-26.0483
-39.8787
-49.7223
-54.9654
-55.5781
-52.049
-45.2676
-36.3739
-26.5967
-17.1013
-8.86354
-2.58052
1.37437
2.954
2.40211
0.188866
-3.07136
-6.70851
-10.0808
-12.6451
-14.0078
-13.9523
-12.4425
-9.60553
-5.69616
-1.05018
3.96794
9.01602
13.8182
18.1975
22.0934
25.5642
28.7742
31.9678
35.4359
39.477
44.3594
50.2883
57.3818
65.6577
75.032
85.3291
96.3007
107.651
119.067
130.245
140.914
150.859
159.924
168.02
175.112
181.203
186.316
190.471
193.655
195.813
196.831
196.543
194.738
191.185
185.664
178.002
168.107
155.997
141.822
125.871
108.569
90.4551
72.1494
54.3106
37.5853
22.5565
9.69597
-0.674424
-8.40817
-13.543
-16.2926
-17.0213
-16.2053
-14.384
-12.1074
-9.88502
-8.14132
-7.18309
-7.1806
-8.16443
-10.0369
-12.596
-15.5681
-18.6449
-21.5206
-23.9243
-25.6455
-26.5492
-26.5813
-25.7639
-24.183
-21.9712
-19.2889
-16.3058
-13.1873
-10.0844
-7.12992
-4.43753
-2.10396
-0.211468
1.17096
1.98886
2.20637
1.81259
0.828978
-0.684055
-2.6234
-4.84393
-7.16467
-9.38065
-11.2794
-12.6606
-13.3561
-13.2477
-12.2811
-10.4724
-7.9074
-4.73377
-1.14582
2.63478
6.38077
9.88074
12.9575
15.4819
17.3799
18.6335
19.2753
19.3784
19.0426
18.3798
17.5003
16.5013
15.4592
14.4263
13.4309
12.4812
11.5713
10.6882
9.81798
8.95074
8.08357
7.22103
6.37364
5.55509
4.77877
4.05465
3.38705
2.77377
2.2067
1.67358
1.16062
0.655143
0.147897
-0.365627
-0.88505
-1.40619
-1.9231
-2.43069
-2.92725
-3.41643
-3.90813
-4.418
-4.96568
-5.57175
-6.25411
-7.02423
-7.88399
-8.82366
-9.82145
-10.8449
-11.8536
-12.8039
-13.6531
-14.3647
-14.912
-15.2809
-15.4703
-15.4907
-15.3611
-15.1051
-14.7457
-14.3012
-13.7821
-13.1887
-12.5122
-11.7354
-10.8364
-9.79172
-8.57996
-7.18503
-5.59891
-3.82404
-1.87562
0.216184
2.40404
4.62175
6.78356
8.7852
10.5074
11.8224
12.6028
12.7341
12.1273
10.7335
8.55503
5.65495
2.16041
-1.73983
-5.80478
-9.75725
-13.3054
-16.1683
-18.1023
-18.9265
-18.5433
-16.9522
-14.254
-10.6453
-6.40291
-1.85964
2.62632
6.70467
10.0658
12.4696
13.7666
13.9109
12.9616
11.0753
8.48913
5.49789
2.4271
-0.394443
-2.66023
-4.10767
-4.53433
-3.80851
-1.87407
1.24984
5.47323
10.6433
16.5551
22.964
29.5997
36.1805
42.4284
48.0829
52.9144
56.7352
59.4091
60.8568
61.0593
60.0564
57.9422
54.8569
50.9759
46.4965
41.6238
36.5564
31.4737
26.5246
21.8203
17.4304
13.383
9.66949
6.25214
3.0755
0.078792
-2.79089
-5.5661
-8.24776
-10.7953
-13.1173
-15.0627
-16.412
-16.8691
-16.0596
-13.5388
-8.81925
-1.42305
9.03592
22.7441
39.5669
58.936
79.7744
100.488
119.046
133.159
140.539
139.217
127.859
106.042
74.4273
34.798
-10.0567
-56.5998
-100.921
-139.174
-168.022
-185.028
-188.929
-179.782
-158.931
-128.836
-92.766
-54.4088
-17.4512
14.8226
39.8619
56.0754
62.9312
60.9264
51.4409
36.5002
18.4857
-0.1716
-17.273
-31.0787
-40.4585
-44.953
-44.7493
-40.5817
-33.5768
-25.0682
-16.4063
-8.78751
-3.12064
0.0565122
0.605608
-1.23605
-4.9233
-9.70183
-14.7227
-19.1573
-22.2984
-23.6372
-22.9093
-20.1068
-15.4587
-9.38514
-2.43197
4.80435
11.7529
17.9369
23.0278
26.8788
29.5361
31.2257
32.3188
33.2797
34.6037
36.7517
40.0908
44.8481
51.0832
58.6841
67.3846
76.8031
86.4951
96.012
104.959
113.041
120.094
126.096
131.152
135.469
139.31
142.946
146.605
150.433
154.461
158.595
162.616
166.2
168.946
170.413
170.164
167.805
163.028
155.64
145.59
132.985
118.088
101.312
83.1887
64.3383
45.4214
27.09
9.93919
-5.53612
-18.9745
-30.1676
-39.0647
-45.7622
-50.4799
-53.5269
-55.2628
-56.0569
-56.2521
-56.1353
-55.9191
-55.7337
-55.63
-55.5926
-55.559
-55.4423
-55.154
-54.6242
-53.8157
-52.7317
-51.4165
-49.9489
-48.4313
-46.9757
-45.6886
-44.6583
-43.9442
-43.5709
-43.5256
-43.7595
-44.1906
-44.7083
-45.1791
-45.452
-45.3661
-44.7588
-43.4767
-41.3879
-38.3957
-34.4525
-29.572
-23.8369
-17.4026
-10.4924
-3.38657
3.59641
10.1236
15.8752
20.5723
24.0025
26.039
26.6529
25.9148
23.9879
21.111
17.5753
13.6954
9.78064
6.10717
2.89529
0.293871
-1.62684
-2.87383
-3.52192
-3.69808
-3.56143
-3.28167
-3.01819
-2.90226
-3.02393
-3.42478
-4.09678
-4.98696
-6.00693
-7.04568
-7.98418
-8.70986
-9.1294
-9.17853
-8.82794
-8.08488
-6.99048
-5.61354
-4.04141
-2.36947
-0.690306
0.916005
2.38944
3.6946
4.82194
5.78554
6.61809
7.36354
8.06872
8.77478
9.5098
10.2832
11.0832
11.8766
12.6123
13.2266
13.6513
13.8215
13.6846
13.2068
12.379
11.2184
9.76844
8.0952
6.28125
4.41794
2.59658
0.899857
-0.605796
-1.87588
-2.89103
-3.65728
-4.20347
-4.57603
-4.83178
-5.0296
-5.22206
-5.44808
-5.72753
-6.05854
-6.418
-6.76508
-7.0473
-7.20855
-7.19771
-6.97686
-6.52777
-5.85596
-4.9915
-3.98664
-2.91038
-1.84091
-0.856729
-0.0276773
0.593042
0.974933
1.11372
1.03197
0.776852
0.415372
0.0276591
-0.300853
-0.487494
-0.459759
-0.161268
0.444308
1.37166
2.61464
4.14915
5.93763
7.93443
10.0912
12.3615
14.7042
17.0841
19.4713
21.8374
24.1512
26.3729
28.4496
30.3114
31.8717
33.0289
33.6731
33.6945
32.9948
31.4986
29.1645
25.994
22.0369
17.3924
12.2056
6.65885
0.959424
-4.67603
-10.0386
-14.9437
-19.246
-22.8501
-25.7166
-27.8621
-29.3528
-30.2929
-30.807
-31.0199
-31.0326
-30.8981
-30.597
-30.0161
-28.9332
-27.014
-23.8275
-18.8862
-11.7162
-1.95656
10.5216
25.4936
42.2835
59.7198
76.17
89.6682
98.1322
99.6464
92.7697
76.8162
52.0568
19.7998
-17.674
-57.32
-95.659
-129.181
-154.772
-170.088
-173.85
-165.99
-147.649
-121.027
-89.0992
-55.2538
-22.8862
4.98555
26.0421
38.8834
43.1255
39.37
29.0586
14.2369
-2.73496
-19.4867
-33.9189
-44.4275
-50.0493
-50.5177
-46.2286
-38.1292
-27.5495
-16.0025
-4.98
4.22989
10.6841
13.8704
13.7318
10.6341
5.28318
-1.39116
-8.36802
-14.6673
-19.4641
-22.173
-22.4952
-20.4253
-16.2207
-10.3423
-3.37436
4.06234
11.3928
18.1558
24.05
28.9539
32.9198
36.1463
38.933
41.6276
44.5717
48.0538
52.2747
57.3295
63.2059
69.7984
76.9343
84.4064
92.0071
99.5593
106.939
114.086
121.006
127.76
134.441
141.153
147.977
154.951
162.045
169.148
176.059
182.494
188.093
192.438
195.083
195.579
193.517
188.561
180.494
169.249
154.946
137.9
118.63
97.8333
76.3507
55.1081
35.0452
17.0381
1.82314
-10.0694
-18.3635
-23.0607
-24.4375
-23.0131
-19.4944
-14.7023
-9.4871
-4.6452
-0.843056
1.44081
1.9511
0.664933
-2.22483
-6.34892
-11.2179
-16.2878
-21.0269
-24.9763
-27.7963
-29.2963
-29.4433
-28.3525
-26.2596
-23.4829
-20.3778
-17.2917
-14.5242
-12.2968
-10.7349
-9.86399
-9.61714
-9.85433
-10.388
-11.0123
-11.5312
-11.7833
-11.6586
-11.1086
-10.1461
-8.83868
-7.29485
-5.64694
-4.03233
-2.57599
-1.37608
-0.494354
0.0480286
0.26939
0.221699
-0.0186887
-0.362245
-0.717893
-1.00361
-1.15488
-1.13021
-0.913475
-0.513099
0.0414267
0.70494
1.4231
2.13908
2.7997
3.36034
3.78834
4.06466
4.184
4.15348
3.9904
3.71924
3.36862
2.9681
2.54554
2.1249
1.72468
1.35722
1.02858
0.739121
0.484629
0.257711
0.0494425
-0.148982
-0.344763
-0.542318
-0.742553
-0.942669
-1.13652
-1.31547
-1.46966
-1.58948
-1.66698
-1.69718
-1.67887
-1.61486
-1.51165
-1.37846
-1.22587
-1.06429
-0.902484
-0.746638
-0.599924
-0.462872
-0.334362
-0.213068
-0.0990195
0.00505993
0.0929979
0.15523
0.179766
0.153983
0.0669709
-0.0879625
-0.311089
-0.594812
-0.923295
-1.27337
-1.61664
-1.92261
-2.16232
-2.31202
-2.35629
-2.2901
-2.11944
-1.86037
-1.53664
-1.17601
-0.805897
-0.448962
-0.119245
0.180426
0.459329
0.737828
1.04453
1.41204
1.87196
2.45002
3.16199
4.01141
4.98912
6.07515
7.24237
8.46143
9.70611
10.9583
12.2116
13.4733
14.764
16.115
17.5648
19.1533
20.917
22.8839
25.0703
27.4785
30.0968
32.9
35.8506
38.8994
41.986
45.0377
47.9675
50.6732
53.0357
54.9209
56.1837
56.6753
56.2554
54.8053
52.2435
48.54
43.727
37.9049
31.2413
23.9623
16.3371
8.65774
1.21488
-5.72587
-11.9451
-17.2854
-21.6596
-25.0509
-27.5039
-29.1071
-29.9666
-30.1734
-29.7657
-28.6903
-26.7713
-23.6942
-19.0169
-12.2162
-2.77524
9.69326
25.3023
43.7505
64.2193
85.3397
105.253
121.773
132.639
135.825
129.856
114.085
88.871
55.6307
16.7415
-24.6899
-65.1667
-101.202
-129.722
-148.422
-156.02
-152.382
-138.508
-116.378
-88.6861
-58.5082
-28.9351
-2.73066
17.9515
31.7588
38.2219
37.7259
31.3839
20.8342
7.9948
-5.19216
-16.9937
-26.0701
-31.5919
-33.2821
-31.3868
-26.5841
-19.8499
-12.3019
-5.04347
0.973858
5.05437
6.81964
6.22531
3.53615
-0.732914
-5.89896
-11.2045
-15.9099
-19.3751
-21.1218
-20.8718
-18.5599
-14.3226
-8.46546
-1.41671
6.32858
14.2653
21.9306
28.9467
35.0503
40.1069
44.1115
47.1753
49.5032
51.3654
53.0663
54.9156
57.2027
60.1777
64.0375
68.9182
74.8915
81.9645
90.0814
99.1261
108.927
119.264
129.874
140.464
150.725
160.344
169.027
176.508
182.566
187.035
189.807
190.829
190.095
187.634
183.493
177.73
170.396
161.537
151.199
139.437
126.343
112.059
96.8025
80.8799
64.6862
48.6936
33.4246
19.4119
7.15093
-2.9506
-10.618
-15.7438
-18.4059
-18.8647
-17.5418
-14.9787
-11.7835
-8.5695
-5.89546
-4.2119
-3.8218
-4.85874
-7.28458
-10.9059
-15.4064
-20.39
-25.43
-30.1163
-34.0976
-37.1123
-39.007
-39.7404
-39.3759
-38.0621
-36.0074
-33.4513
-30.6356
-27.7798
-25.0621
-22.6078
-20.485
-18.7079
-17.2447
-16.03
-14.9787
-14.0002
-13.0102
-11.9404
-10.7453
-9.40414
-7.92076
-6.32024
-4.64362
-2.94147
-1.26718
0.329505
1.80803
3.14127
4.31841
4.31841
4.31841
4.31841
4.31841
4.31841
4.31841
4.31841
4.31841
4.31841
4.31841
4.31841
4.31841
4.31841
4.31841
4.31841
4.31841
4.31841
4.31841
4.31841
4.31841
4.31841
4.31841
