-174.722
-129.118
-79.6315
-28.416
21.978
68.8442
109.597
142.051
164.657
176.68
178.275
170.462
155.004
134.206
110.651
86.9226
65.3361
47.7191
35.257
28.4242
27.0004
30.1652
36.6536
44.9491
53.4889
60.8548
65.9283
67.9958
66.7938
62.4963
55.6498
47.0694
37.7132
28.5503
20.4416
14.0444
9.75202
7.67156
7.6382
9.26176
11.9958
15.2186
18.3155
20.7518
22.1289
22.2188
20.9746
18.5185
15.1115
11.1089
6.90954
2.90527
-0.564337
-3.24628
-4.99488
-5.77797
-5.66913
-4.82838
-3.47481
-1.85513
-0.212407
1.24143
2.34641
3.00688
3.19488
2.94507
2.34272
1.50706
0.572395
-0.330355
-1.08963
-1.62489
-1.89318
-1.89016
-1.64633
-1.21925
-0.683263
-0.118283
0.40089
0.813433
1.07863
1.17881
1.11906
0.924116
0.633111
0.293097
-0.0477453
-0.346298
-0.569396
-0.696939
-0.723021
-0.655159
-0.511906
-0.319339
-0.10697
0.0963377
0.265936
0.384043
0.441255
0.436834
0.377884
0.277615
0.153038
0.0224153
-0.09717
-0.191838
-0.252321
-0.274634
-0.260021
-0.214242
-0.146364
-0.0672731
0.0118882
0.0811531
0.132858
0.16236
0.168307
0.152449
0.119096
0.0743009
0.0249138
-0.0223651
-0.0618122
-0.0892964
-0.10263
-0.101639
-0.0879676
-0.0646819
-0.0357318
-0.00536033
0.0224613
0.0445039
0.0586085
0.0638434
0.0604918
0.0498869
0.0341327
0.0157575
-0.00264892
-0.018768
-0.0308151
-0.037707
-0.0391241
-0.0354695
-0.0277413
-0.017344
-0.00586897
0.00512603
0.0143089
0.020717
0.0238388
0.0236306
0.020472
0.0150737
0.00835239
0.00129408
-0.00517762
-0.010311
-0.0136023
-0.0148332
-0.0140676
-0.0116137
-0.00795956
-0.00369213
0.000586653
0.00433736
0.00714427
0.00875451
0.00909259
0.00825104
0.00646096
0.00404823
0.00138244
-0.00117422
-0.00331173
-0.00480573
-0.00553661
-0.00549346
-0.00476388
-0.00351253
-0.0019522
-0.000311967
0.00119336
0.00238876
0.00315677
0.00344615
0.00327133
0.00270358
0.00185601
0.00086471
-0.000132425
-0.00102035
-0.0017427
-0.00236343
-0.00317099
-0.00482974
-0.00855399
-0.0162427
-0.0304852
-0.0543487
-0.0908969
-0.142457
-0.209735
-0.290946
-0.381191
-0.47229
-0.553241
-0.611337
-0.63387
-0.610154
-0.53354
-0.403045
-0.224263
-0.00934612
0.223983
0.454194
0.658103
0.812851
0.897048
0.890561
0.772656
0.518685
0.0959516
-0.54013
-1.44832
-2.70103
-4.38028
-6.56982
-9.34427
-12.7564
-16.8246
-21.5226
-26.7734
-32.4483
-38.3729
-44.3382
-50.1166
-55.4807
-60.2226
-64.1705
-67.2022
-69.2518
-70.3105
-70.4213
-69.6685
-68.1628
-66.0267
-63.3787
-60.3215
-56.9335
-53.2647
-49.338
-45.1535
-40.6973
-35.9511
-30.9038
-25.5609
-19.9526
-14.1388
-8.20964
-2.28237
3.50632
9.01085
14.0895
18.6179
22.501
25.6822
28.1487
29.9308
31.0964
31.74
31.9689
31.8877
31.5825
31.1095
30.4867
29.6921
28.6678
27.3295
25.5793
23.3217
20.4784
17.0022
12.8855
8.16545
2.9228
-2.72319
-8.62403
-14.6133
-20.5187
-26.1736
-31.4264
-36.1476
-40.2322
-43.5984
-46.1778
-47.8962
-48.6392
-48.2003
-46.213
-42.072
-34.8605
-23.3045
-5.78099
19.5952
54.7907
101.58
161.196
233.953
318.887
413.497
513.635
613.611
706.54
784.898
841.282
869.242
864.118
823.74
748.882
643.406
514.041
369.808
221.161
78.9421
-46.7291
-147.48
-217.509
-254.106
-257.81
-232.204
-183.371
-119.109
-47.9848
21.6242
82.4127
128.836
157.548
167.547
160.046
138.095
106.027
68.808
31.383
-1.91192
-27.7996
-44.3359
-50.9922
-48.555
-38.8745
-24.5094
-8.32093
6.92569
18.9062
25.9893
27.3746
23.1118
14.0093
1.45786
-12.8032
-26.9385
-39.2574
-48.4114
-53.5305
-54.2852
-50.8768
-43.962
-34.5302
-23.7519
-12.821
-2.811
5.43894
11.3968
14.8648
15.963
15.0748
12.7667
9.6941
6.50701
3.76628
1.88102
1.07158
1.36067
2.59035
4.46051
6.58149
8.53319
9.92246
10.4319
9.85478
8.11309
5.25806
1.45481
-3.0456
-7.94175
-12.9202
-17.691
-22.017
-25.7326
-28.7515
-31.0638
-32.7226
-33.8246
-34.4864
-34.8217
-34.9208
-34.837
-34.5791
-34.1134
-33.3718
-32.2675
-30.7133
-28.6413
-26.0209
-22.8717
-19.2695
-15.345
-11.2738
-7.26069
-3.51858
-0.246015
2.39453
4.29449
5.41116
5.77231
5.47297
4.66483
3.53972
2.30898
1.18129
0.341531
-0.0670757
0.0444448
0.704713
1.88275
3.49522
5.4189
7.50675
9.60543
11.5722
13.2889
14.6725
15.6797
16.3068
16.5847
16.5694
16.3314
15.9436
15.4704
14.9596
14.4381
13.9101
13.3606
12.7603
12.0735
11.2655
10.3098
9.1934
7.91996
6.50967
4.99713
3.42698
1.84841
0.309334
-1.1489
-2.49556
-3.71285
-4.79643
-5.75406
-6.60288
-7.36566
-8.06666
-8.72774
-9.36502
-9.98675
-10.5924
-11.173
-11.7129
-12.1918
-12.5884
-12.8825
-13.0586
-13.1071
-13.0262
-12.8213
-12.5044
-12.0925
-11.6048
-11.0611
-10.4786
-9.87089
-9.24664
-8.60947
-7.95874
-7.29097
-6.60175
-5.88782
-5.14903
-4.38979
-3.6199
-2.85443
-2.11288
-1.41744
-0.79085
-0.253889
0.176968
0.49153
0.687201
0.769469
0.751551
0.653279
0.499444
0.317857
0.137388
-0.0138135
-0.109824
-0.128178
-0.0508941
0.134592
0.434523
0.847937
1.36592
1.97112
2.63781
3.33265
4.01629
4.64583
5.17802
5.57283
5.797
5.82719
5.65226
5.27427
4.70825
3.98066
3.1267
2.18701
1.20414
0.219091
-0.731346
-1.61648
-2.41253
-3.10238
-3.67453
-4.12141
-4.43755
-4.61781
-4.65605
-4.54438
-4.27311
-3.83118
-3.20707
-2.38989
-1.37044
-0.142166
1.29829
2.95079
4.81189
6.87537
9.13324
11.577
14.199
16.994
19.9596
23.0966
26.4076
29.8943
33.5539
37.3736
41.3251
45.3603
49.4072
53.3688
57.1252
60.5382
63.4594
65.7399
67.2412
67.8454
67.4636
66.042
63.5651
60.0556
55.5725
50.2079
44.0815
37.3364
30.1337
22.6467
15.0555
7.54049
0.275369
-6.58018
-12.8875
-18.5351
-23.4425
-27.5617
-30.8752
-33.3908
-35.1339
-36.1378
-36.4326
-36.0323
-34.9175
-33.0102
-30.1346
-25.9597
-19.9233
-11.1436
1.65995
20.2082
46.6252
83.2847
132.515
196.166
275.081
368.545
473.841
586.003
697.891
800.643
884.472
939.76
958.283
934.408
866.048
755.242
608.216
434.926
248.102
61.9152
-109.539
-253.771
-361.218
-426.2
-447.403
-427.826
-374.245
-296.25
-205.025
-112.011
-27.6316
39.7714
84.6769
104.738
100.733
76.1559
36.5268
-11.4735
-60.9182
-105.488
-140.162
-161.681
-168.749
-161.971
-143.568
-116.923
-86.0343
-54.9533
-27.2768
-5.75078
7.9759
13.4348
11.2658
3.01544
-9.15559
-22.8087
-35.562
-45.3817
-50.7998
-51.0382
-46.0364
-36.3876
-23.2025
-7.92453
7.87599
22.7008
35.2937
44.7628
50.6473
52.9241
51.9628
48.4376
43.2131
37.2187
31.33
26.2688
22.5335
20.3631
19.7376
20.4091
21.9579
23.8632
25.5793
26.6058
26.5464
25.148
22.3186
18.1243
12.7666
6.54649
-0.18048
-7.04972
-13.7292
-19.951
-25.5306
-30.3715
-34.4565
-37.8288
-40.5655
-42.749
-44.4412
-45.6631
-46.3847
-46.5245
-45.9602
-44.5478
-42.1468
-38.6471
-33.9947
-28.2107
-21.4022
-13.7625
-5.56047
2.88058
11.2104
19.084
26.1938
32.2976
37.2398
40.9624
43.5059
44.9992
45.6407
45.6732
45.355
44.9321
44.6128
44.549
44.8245
45.4528
46.3817
47.5058
48.6831
49.7548
50.5647
50.9767
50.8885
50.2403
49.0177
47.2497
45.0023
42.3684
39.4566
36.3793
33.2417
30.1333
27.1213
24.2476
21.5279
18.9543
16.4992
14.1206
11.7688
9.39293
6.94704
4.39563
1.718
-1.08894
-4.00928
-7.00853
-10.0355
-13.026
-15.9074
-18.6043
-21.0451
-23.1672
-24.9231
-26.2838
-27.2411
-27.8084
-28.0184
-27.9196
-27.5711
-27.0365
-26.3778
-25.649
-24.8915
-24.1311
-23.3764
-22.6202
-21.8417
-21.0113
-20.096
-19.0651
-17.8956
-16.5767
-15.1119
-13.5203
-11.8348
-10.0991
-8.36295
-6.67686
-5.08634
-3.62718
-2.32174
-1.17707
-0.184815
0.676901
1.44004
2.14207
2.82082
3.50945
4.23225
5.00159
5.81665
6.66382
7.51886
8.35036
9.12403
9.80721
10.373
10.8033
11.0908
11.2395
11.2633
11.1845
11.0305
10.8306
10.6127
10.4007
10.2124
10.0579
9.9394
9.85181
9.78353
9.71812
9.63597
9.51593
9.33674
9.07804
8.72109
8.24918
7.64779
6.90485
6.01106
4.96047
3.75121
2.38638
0.874873
-0.768112
-2.52099
-4.35635
-6.2422
-8.14387
-10.0264
-11.8569
-13.6071
-15.2552
-16.7866
-18.194
-19.4766
-20.638
-21.6842
-22.6208
-23.4508
-24.173
-24.7813
-25.2645
-25.6076
-25.793
-25.8029
-25.6209
-25.2342
-24.635
-23.821
-22.7954
-21.5667
-20.1467
-18.5488
-16.7854
-14.8651
-12.7899
-10.5532
-8.13902
-5.52234
-2.6716
0.447137
3.86459
7.60193
11.6646
16.0371
20.6799
25.5286
30.4958
35.4761
40.3526
45.0054
49.3207
53.1987
56.5616
59.358
61.5659
63.1923
64.2694
64.8496
64.9975
64.781
64.2618
63.4867
62.4791
61.233
59.7093
57.836
55.5125
52.619
49.0304
44.6339
39.3486
33.1437
26.0539
18.1883
9.73069
0.932216
-7.90529
-16.4521
-24.3774
-31.3767
-37.197
-41.6561
-44.6548
-46.1801
-46.2969
-45.128
-42.8182
-39.4806
-35.1221
-29.5485
-22.2557
-12.3202
1.68302
21.7037
50.1373
89.6128
142.631
211.068
295.606
395.175
506.532
624.089
740.085
845.134
929.131
982.406
996.974
967.704
893.209
776.316
624.019
446.902
258.095
71.8916
-97.7821
-238.862
-342.402
-403.436
-421.359
-399.783
-345.917
-269.563
-181.871
-94.0229
-15.9995
44.4219
82.3334
95.9768
86.6307
58.1532
16.2632
-32.3303
-80.8316
-123.184
-154.727
-172.613
-175.98
-165.853
-144.839
-116.658
-85.5878
-55.8946
-31.3161
-14.6555
-7.51856
-10.2129
-21.803
-40.3015
-62.9639
-86.6457
-108.178
-124.722
-134.065
-134.827
-126.571
-109.802
-85.8644
-56.7607
-24.9046
7.14888
36.9726
62.5052
82.232
95.2956
101.527
101.4
95.9248
86.4866
74.6654
62.0493
50.0653
39.8463
32.1438
27.2922
25.2232
25.5231
27.5226
30.4041
33.3145
35.4685
36.2331
35.1857
32.1425
27.1571
20.4927
12.5739
3.92596
-4.89123
-13.3456
-20.9857
-27.4782
-32.6279
-36.3796
-38.8029
-40.0649
-40.3945
-40.0438
-39.253
-38.2219
-37.0911
-35.9354
-34.7673
-33.55
-32.2158
-30.688
-28.9004
-26.8138
-24.4258
-21.7739
-18.9321
-16.001
-13.0953
-10.3295
-7.80365
-5.59251
-3.7377
-2.24496
-1.08707
-0.214488
0.423653
0.844428
0.979467
0.607455
-0.722184
-3.75963
-9.59737
-19.6603
-35.6211
-59.2282
-92.0489
-135.149
-188.746
-251.901
-322.288
-396.131
-468.328
-532.787
-582.977
-612.609
-616.404
-590.82
-534.636
-449.306
-339.007
-210.371
-71.8972
66.8602
196.253
307.516
393.636
450.021
474.867
469.221
436.71
383.017
315.158
240.668
166.799
99.8088
44.4296
3.55486
-21.8423
-32.568
-30.8853
-20.0651
-3.87828
13.9082
29.9699
41.7565
47.6874
47.2056
40.6979
29.3068
14.6656
-1.40604
-17.2119
-31.4631
-43.5129
-53.5238
-62.5532
-72.5471
-86.2341
-106.914
-138.146
-183.341
-245.293
-325.678
-424.57
-540.049
-667.946
-801.802
-933.087
-1051.7
-1146.76
-1207.61
-1224.96
-1192.03
-1105.61
-966.674
-780.779
-557.805
-311.283
-57.2437
187.251
405.748
584.013
711.426
781.997
794.883
754.351
669.2
551.715
416.282
277.837
150.327
45.3471
-28.8793
-68.1032
-72.1762
-44.72
7.59293
76.0406
150.998
223.09
284.209
328.304
351.856
354.023
336.459
302.865
258.342
208.65
159.46
115.69
80.9974
57.4641
45.4994
43.9484
50.3762
61.4779
73.5603
83.032
86.8474
82.858
70.0376
48.5651
19.7632
-14.0904
-50.0545
-84.8788
-115.381
-138.802
-153.102
-157.161
-150.877
-135.137
-111.69
-82.9262
-51.5941
-20.5009
7.78133
31.1622
48.2114
58.2516
61.3616
58.2968
50.3413
39.1151
26.3615
13.7411
2.65571
-5.88026
-11.3102
-13.5451
-12.918
-10.0935
-5.94963
-1.44714
2.49457
5.1023
5.82384
4.36747
0.706052
-4.95054
-12.2071
-20.5497
-29.417
-38.2677
-46.6359
-54.1689
-60.6467
-65.9808
-70.1978
-73.4101
-75.781
-77.4881
-78.6921
-79.5119
-80.0073
-80.1663
-79.8912
-78.9748
-77.0603
-73.5801
-67.6783
-58.1319
-43.2988
-21.1313
10.7051
54.5774
112.49
185.584
273.596
374.391
483.678
595.013
700.162
789.813
854.578
886.159
878.51
828.805
738.061
611.3
457.197
287.258
114.616
-47.3825
-186.632
-293.554
-362.074
-390.15
-379.815
-336.751
-269.446
-188.082
-103.294
-24.9553
38.8548
82.6012
103.681
102.435
81.8142
46.7666
3.4432
-41.661
-82.5244
-114.277
-133.673
-139.314
-131.627
-112.622
-85.4766
-54.0262
-22.2197
6.37701
28.9802
43.849
50.3889
49.1038
41.4163
29.3943
15.4265
1.89318
-9.12719
-16.0831
-18.0864
-14.9527
-7.15216
4.31562
18.0966
32.6825
46.6078
58.6204
67.8078
73.6684
76.1245
75.4831
72.3537
67.5385
61.9117
56.3033
51.4014
47.6834
45.3803
44.4754
44.7332
45.7513
47.0278
48.0318
48.271
47.3471
44.9942
41.0986
35.6981
28.9651
21.1758
12.6721
3.82115
-5.02316
-13.5508
-21.5174
-28.7548
-35.172
-40.747
-45.5122
-49.5369
-52.9087
-55.7169
-58.0393
-59.9326
-61.4291
-62.5356
-63.2367
-63.5006
-63.285
-62.5452
-61.2409
-59.3436
-56.8429
-53.7523
-50.1131
-45.9963
-41.5025
-36.7582
-31.9097
-27.1145
-22.5299
-18.3016
-14.5523
-11.3714
-8.8089
-6.87123
-5.52275
-4.69051
-4.27278
-4.15017
-4.1979
-4.29806
-4.35031
-4.28003
-4.04315
-3.62731
-3.0494
-2.35018
-1.58662
-0.823168
-0.122953
0.46002
0.886846
1.13733
1.21104
1.12583
0.914369
0.619124
0.286682
-0.0379362
-0.31623
-0.519923
-0.633073
-0.652462
-0.586389
-0.452161
-0.272723
-0.0729672
0.123792
0.298708
0.43938
0.540738
0.604852
0.639783
0.657689
0.672488
0.697385
0.742578
0.813445
0.909413
1.02365
1.14364
1.2525
1.33096
1.35972
1.32188
1.20532
1.00446
0.721581
0.367149
-0.0405544
-0.476692
-0.911791
-1.31416
-1.65255
-1.89885
-2.03048
-2.03227
-1.89764
-1.62892
-1.23664
-0.737965
-0.154234
0.491984
1.18005
1.89407
2.62483
3.37039
4.1351
4.92689
5.75338
6.61733
7.5124
8.42019
9.30918
10.1362
10.8504
11.3991
11.7352
11.8243
11.6513
11.2249
10.5791
9.77191
8.8814
7.99917
7.22265
6.64689
6.35699
6.42177
6.88946
7.78537
9.11168
10.8489
12.9586
15.3856
18.0604
20.8978
23.793
26.6136
29.1889
31.2997
32.6727
32.9838
31.8768
28.997
24.0422
16.8228
7.32608
-4.23054
-17.3656
-31.3319
-45.152
-57.6919
-67.7682
-74.2756
-76.3201
-73.3387
-65.1889
-52.1937
-35.134
-15.1865
6.1847
27.3726
46.7877
63.0173
74.9625
81.9391
83.7297
80.5847
73.1726
62.4893
49.7369
36.1899
23.0624
11.3924
1.9541
-4.79359
-8.71996
-9.99849
-9.05189
-6.47516
-2.94751
0.855939
4.34283
7.06532
8.76139
9.37651
9.07109
8.22219
7.42979
7.53542
9.65505
15.2181
25.992
44.0614
71.725
111.279
164.678
233.083
316.365
412.646
517.985
626.317
729.731
819.088
884.956
918.738
913.848
866.747
777.671
650.912
494.599
319.972
140.248
-30.7954
-180.307
-297.75
-375.994
-411.99
-406.942
-365.985
-297.413
-211.585
-119.656
-32.2927
41.4676
95.079
124.999
130.803
114.93
82.1107
38.5742
-8.84086
-53.5692
-90.0806
-114.441
-124.628
-120.577
-103.986
-77.9291
-46.3292
-13.3894
16.9589
41.517
58.1431
65.9125
65.1104
57.0739
43.9184
28.1937
12.5194
-0.752796
-9.80955
-13.5527
-11.6688
-4.59411
6.6117
20.4569
35.2447
49.3035
61.1917
69.8539
74.7135
75.697
73.1939
67.9617
60.9943
53.3708
46.1045
40.0086
35.5925
33.0005
31.9956
31.9936
32.1395
31.4215
28.8075
23.3891
14.5171
1.91039
-14.2754
-33.43
-54.5265
-76.2124
-96.9451
-115.156
-129.424
-138.639
-142.124
-139.722
-131.809
-119.257
-103.329
-85.5436
-67.5052
-50.7314
-36.4993
-25.7233
-18.88
-15.9867
-16.6317
-20.0503
-25.2345
-31.0607
-36.4206
-40.3393
-42.0704
-41.1573
-37.4594
-31.1426
-22.6376
-12.5743
-1.7012
9.20153
19.4036
28.2944
35.4331
40.5766
43.6834
44.8951
44.5008
42.8881
40.49
37.7313
34.9839
32.5324
30.5546
29.1174
28.1866
27.6471
27.3318
27.052
26.6283
25.9148
24.8176
23.3031
21.3985
19.1835
16.7767
14.318
11.9497
9.79969
7.96754
6.51512
5.46293
4.79145
4.447
4.35107
4.41145
4.53388
4.63277
4.63975
4.50938
4.22168
3.78132
3.21423
2.56196
1.87501
1.20573
0.601902
0.101463
-0.270928
-0.505462
-0.606823
-0.592168
-0.487894
-0.325674
-0.138343
0.0438967
0.196515
0.302678
0.354129
0.350958
0.300413
0.215003
0.110215
0.00215791
-0.094579
-0.168601
-0.212781
-0.224668
-0.206255
-0.16321
-0.103744
-0.0373031
0.0267171
0.0800228
0.116114
0.130528
0.120642
0.0851222
0.0231546
-0.0663526
-0.185441
-0.337519
-0.527453
-0.76133
-1.04593
-1.38797
-1.79321
-2.26555
-2.80615
-3.41278
-4.07933
-4.79577
-5.54838
-6.32036
-7.09273
-7.84554
-8.5593
-9.2164
-9.80275
-10.3092
-10.7326
-11.0768
-11.3527
-11.5776
-11.774
-11.967
-12.1815
-12.4388
-12.7532
-13.1288
-13.5578
-14.0193
-14.4799
-14.8964
-15.2189
-15.395
-15.3754
-15.1174
-14.5896
-13.7734
-12.664
-11.2692
-9.60716
-7.70253
-5.58277
-3.27444
-0.800478
1.82126
4.57786
7.45965
10.4572
13.5577
16.74
19.9704
23.197
26.3428
29.298
31.9102
33.975
35.2303
35.357
33.9916
30.7541
25.2903
17.3289
6.74458
-6.38145
-21.7136
-38.6395
-56.2807
-73.5425
-89.2006
-102.018
-110.88
-114.926
-113.668
-107.065
-95.5549
-80.0239
-61.7268
-42.1576
-22.8921
-5.42023
9.00996
19.5168
25.6638
27.4828
25.4426
20.3678
13.3235
5.48442
-1.98772
-8.0371
-11.7556
-12.362
-9.11769
-1.19385
12.4781
33.3248
63.1625
104.091
158.219
227.223
311.792
411.047
522.063
639.616
756.265
862.83
949.23
1005.62
1023.65
997.698
925.785
810.175
657.388
477.693
284.11
91.0463
-87.2551
-238.243
-352.373
-424.038
-452.009
-439.357
-392.87
-322.079
-238.017
-151.894
-73.8408
-11.8825
28.767
46.0144
40.8036
16.6804
-20.9101
-65.4845
-110.42
-149.778
-178.961
-195.133
-197.379
-186.618
-165.281
-136.853
-105.316
-74.5986
-48.0826
-28.2381
-16.4071
-12.7548
-16.3752
-25.5213
-37.918
-51.1085
-62.7879
-71.0813
-74.7394
-73.2333
-66.7494
-56.094
-42.5298
-27.5719
-12.7725
0.476239
11.0994
18.4405
22.2989
22.9064
20.8515
16.9666
12.1959
7.46394
3.5596
1.05036
0.233628
1.1275
3.49816
6.91621
10.832
14.658
17.8478
19.9609
20.7085
19.975
17.8158
14.4351
10.1473
5.32963
0.37257
-4.36506
-8.59173
-12.1056
-14.8028
-16.6717
-17.7763
-18.2324
-18.1802
-17.7591
-17.0873
-16.2484
-15.2884
-14.2185
-13.0266
-11.6903
-10.1924
-8.53282
-6.73738
-4.85992
-2.97929
-1.19108
0.404131
1.7139
2.6664
3.22016
3.36988
3.14746
2.61836
1.87422
1.02297
0.178145
-0.551009
-1.06738
-1.29107
-1.16152
-0.637073
0.307152
1.68223
3.48811
5.71535
8.34549
11.35
14.6884
18.306
22.1323
26.0811
30.0523
33.9361
37.6195
40.9945
43.9661
46.4611
48.4343
49.8723
50.7946
51.2507
51.3145
51.0755
50.6291
50.0666
49.4659
48.884
48.3533
47.8797
47.445
47.0112
46.5266
45.9334
45.1743
44.1988
42.9682
41.4582
39.6603
37.582
35.245
32.6833
29.9408
27.0684
24.1216
21.1575
18.2328
15.4014
12.7125
10.2095
7.92816
5.89609
4.13215
2.64611
1.43864
0.501689
-0.180991
-0.632907
-0.883642
-0.96741
-0.921413
-0.78409
-0.593343
-0.384824
-0.19039
-0.0367642
0.0554853
0.0726286
0.00804653
-0.13792
-0.358546
-0.641691
-0.971072
-1.32775
-1.69166
-2.04311
-2.364
-2.63881
-2.85517
-3.00408
-3.07986
-3.0799
-3.00426
-2.85533
-2.6376
-2.35747
-2.02321
-1.64478
-1.23368
-0.80247
-0.364118
0.0687987
0.485014
0.875412
1.23364
1.55638
1.84316
2.09573
2.31705
2.50998
2.67604
2.81432
2.92092
2.98897
3.00944
2.97249
2.86935
2.69429
2.44641
2.13085
1.75932
1.34956
0.924117
0.508143
0.126923
-0.196832
-0.445407
-0.607947
-0.68152
-0.671242
-0.589489
-0.454326
-0.287394
-0.111567
0.0513306
0.182421
0.267093
0.295584
0.262809
0.167494
0.0107902
-0.20542
-0.480272
-0.81552
-1.21686
-1.69496
-2.26626
-2.95377
-3.7877
-4.806
-6.05414
-7.58382
-9.45016
-11.7072
-14.4022
-17.5698
-21.2259
-25.3647
-29.9564
-34.9482
-40.266
-45.818
-51.4966
-57.1805
-62.7348
-68.0105
-72.8441
-77.0584
-80.4663
-82.8789
-84.1182
-84.033
-82.5191
-79.5371
-75.1288
-69.4266
-62.6527
-55.1086
-47.1506
-39.1526
-31.4555
-24.3011
-17.7531
-11.6037
-5.27337
2.28484
12.6565
27.9811
50.8756
84.2335
130.878
193.082
271.993
367.057
475.547
592.321
709.91
818.996
909.259
970.526
994.054
973.777
907.317
796.582
647.851
471.295
279.999
88.5854
-88.3564
-237.852
-349.911
-418.525
-442.169
-423.763
-370.119
-290.966
-197.698
-101.999
-14.5389
56.1191
104.283
127.493
126.476
104.73
67.8123
22.4628
-24.3378
-66.2391
-98.2283
-117.103
-121.672
-112.691
-92.5598
-64.8538
-33.7522
-3.45286
22.3564
40.9085
50.612
51.133
43.3127
28.9463
10.4661
-9.42212
-28.1005
-43.3516
-53.5901
-57.992
-56.5159
-49.8248
-39.1286
-25.9747
-12.0183
1.19586
12.4138
20.7963
25.9752
28.0432
27.4847
25.0629
21.6836
18.2548
15.5613
14.1696
14.3715
16.1703
19.3062
23.3145
27.6041
31.5453
34.5545
36.1644
36.0731
34.169
30.5283
25.3921
19.1253
12.1655
4.96984
-2.03472
-8.49165
-14.1417
-18.8356
-22.5312
-25.2798
-27.2011
-28.4541
-29.2053
-29.5999
-29.7381
-29.6595
-29.3367
-28.6804
-27.552
-25.7862
-23.2179
-19.711
-15.1861
-9.64176
-3.16778
4.05321
11.7554
19.6106
27.2578
34.3378
40.5287
45.5787
49.3304
51.7361
52.8596
52.8674
52.0073
50.5802
48.9066
47.2928
46.0003
45.2223
45.0692
45.564
46.6482
48.1961
50.0348
51.9677
53.797
55.3439
56.4633
57.0521
57.0519
56.4452
55.2485
53.5028
51.2636
48.5923
45.5495
42.192
38.5717
34.7378
30.7407
26.6355
22.4865
18.369
14.3688
10.58
7.09897
4.01753
1.41451
-0.652309
-2.15285
-3.0891
-3.49619
-3.44022
-3.01271
-2.3224
-1.48545
-0.614942
0.188823
0.846375
1.30446
1.53832
1.55085
1.3688
1.03686
0.610333
0.147606
-0.296859
-0.678068
-0.964149
-1.13789
-1.19631
-1.14858
-1.01288
-0.812825
-0.573892
-0.320454
-0.0735871
0.150208
0.339453
0.487456
0.591648
0.652696
0.673605
0.658942
0.614223
0.545473
0.458881
0.36043
0.255395
0.147591
0.0383812
-0.0745126
-0.198187
-0.345494
-0.535477
-0.793154
-1.14865
-1.63591
-2.29138
-3.15313
-4.26062
-5.65517
-7.38055
-9.48284
-12.0087
-15.001
-18.4921
-22.4938
-26.9867
-31.9093
-37.1489
-42.538
-47.8558
-52.8385
-57.1964
-60.6375
-62.8961
-63.7612
-63.1021
-60.8878
-57.1961
-52.2117
-46.2121
-39.5433
-32.5873
-25.7259
-19.3046
-13.6008
-8.80119
-4.98895
-2.14399
-0.154145
1.16382
2.03678
2.705
3.39307
4.28516
5.50727
7.1177
9.10608
11.3999
13.8772
16.3831
18.7485
20.8075
22.4142
23.4552
23.8581
23.5964
22.6885
21.1944
19.2081
16.8477
14.2446
11.5323
8.83569
6.26292
3.89892
1.80254
0.00638985
-1.48037
-2.66709
-3.57511
-4.23059
-4.65696
-4.8669
-4.85217
-4.56837
-3.91002
-2.67115
-0.487945
3.23531
9.40794
19.3229
34.6851
57.5618
90.2202
134.832
193.051
265.51
351.305
447.592
549.389
649.689
739.931
810.804
853.321
860.004
826.014
750.038
634.784
486.98
316.854
137.139
-38.2616
-195.786
-323.695
-413.335
-460.023
-463.44
-427.506
-359.768
-270.384
-170.867
-72.7352
13.7512
80.6199
122.88
138.812
129.859
100.15
55.7618
3.80774
-48.4983
-94.705
-129.807
-150.687
-156.282
-147.488
-126.835
-97.9936
-65.199
-32.666
-4.06827
17.8589
31.556
36.7048
34.131
25.5735
13.3631
0.059699
-11.9013
-20.511
-24.4032
-22.968
-16.3575
-5.39455
8.59514
23.9977
39.1422
52.5171
62.946
69.7047
72.5712
71.807
68.0806
62.3466
55.7001
49.2275
43.8711
40.3238
38.9643
39.8363
42.6692
46.9361
51.936
56.8889
61.032
63.7033
64.4073
62.8541
58.9727
52.8988
44.9419
35.5361
25.1842
14.3992
3.65161
-6.67255
-16.2997
-25.08
-32.9824
-40.0752
-46.4956
-52.4123
-57.9873
-63.3403
-68.5208
-73.4922
-78.1289
-82.2277
-85.5311
-87.7615
-88.6596
-88.0228
-85.7386
-81.8081
-76.3556
-69.6242
-61.9569
-53.7653
-45.4915
-37.5648
-30.362
-24.1731
-19.1779
-15.435
-12.8844
-11.3628
-10.6283
-10.3921
-10.3533
-10.2307
-9.79146
-8.87033
-7.38083
-5.31619
-2.74161
0.220544
3.41025
6.65147
9.77314
12.6273
15.1027
17.1325
18.6969
19.819
20.5574
20.9953
21.2277
21.3497
21.4454
21.5797
21.7934
22.1017
22.4956
22.9454
23.407
23.8274
24.1514
24.3271
24.3102
24.0677
23.5793
22.8383
21.8516
20.6383
19.2286
17.6614
15.982
14.2397
12.485
10.7663
9.1278
7.6062
6.22913
5.0135
3.96498
3.07848
2.33949
1.72638
1.21324
0.773029
0.380491
0.0146881
-0.339333
-0.689763
-1.0382
-1.38057
-1.70869
-2.01195
-2.27909
-2.49965
-2.66499
-2.76881
-2.80735
-2.77914
-2.68481
-2.5268
-2.30944
-2.0391
-1.72463
-1.37778
-1.01352
-0.649977
-0.307769
-0.00882213
0.225458
0.376402
0.430396
0.380935
0.230019
-0.011445
-0.324402
-0.683581
-1.06038
-1.42631
-1.75655
-2.03303
-2.24664
-2.39822
-2.49819
-2.56483
-2.62151
-2.6931
-2.80218
-2.96538
-3.19032
-3.47359
-3.79967
-4.14116
-4.45995
-4.70929
-4.83658
-4.78648
-4.50441
-3.93994
-3.05022
-1.80312
-0.180056
1.82168
4.18726
6.8836
9.85969
13.0484
16.3694
19.7339
23.0498
26.2273
29.1837
31.8473
34.1583
36.0675
37.5335
38.5174
38.9792
38.8749
38.1566
36.7756
34.6892
31.8691
28.3099
24.0374
19.1134
13.6367
7.74032
1.58381
-4.65652
-10.7999
-16.6735
-22.123
-27.0216
-31.2739
-34.8174
-37.619
-39.6697
-40.9776
-41.5608
-41.4418
-40.6445
-39.1934
-37.116
-34.4454
-31.2227
-27.4949
-23.3051
-18.6678
-13.5259
-7.68402
-0.719427
8.12081
20.0179
36.6439
60.1496
93.038
137.895
196.976
271.674
361.952
465.843
579.123
695.29
805.892
901.233
971.383
1007.38
1002.44
953.025
859.529
726.544
562.583
379.302
190.318
9.76441
-149.221
-275.879
-362.919
-407.171
-409.747
-375.697
-313.234
-232.639
-144.995
-60.9202
10.5588
62.8591
92.3408
98.4236
83.3349
51.5544
9.04598
-37.6092
-82.066
-118.952
-144.413
-156.412
-154.783
-141.044
-118.031
-89.3997
-59.0896
-30.8035
-7.57634
8.52891
16.5704
16.7216
10.1269
-1.34769
-15.427
-29.755
-42.1972
-51.0809
-55.3504
-54.627
-49.178
-39.8072
-27.6921
-14.1925
-0.659791
11.7295
22.098
29.9383
35.1274
37.8897
38.7204
38.2822
37.2933
36.4213
36.196
36.951
38.7972
41.6276
45.1507
48.9431
52.5136
55.3689
57.0724
57.2902
55.8202
52.6026
47.7132
41.3433
33.7697
25.3206
16.3415
7.16503
-1.91167
-10.6424
-18.8387
-26.3689
-33.1527
-39.1499
-44.3496
-48.757
-52.3829
-55.2353
-57.3129
-58.6035
-59.0834
-58.7212
-57.4834
-55.3419
-52.2833
-48.3174
-43.4859
-37.8686
-31.5857
-24.7972
-17.6963
-10.5002
-3.43537
3.27753
9.44069
14.8945
19.5302
23.2982
26.2116
28.3434
29.8187
30.8019
31.4811
32.0495
32.6877
33.547
34.7365
36.3139
38.2821
40.5912
43.1449
45.8125
48.4424
50.8782
52.9742
54.6085
55.6939
56.1836
56.0729
55.3955
54.2155
52.6164
50.6871
48.5088
46.1433
43.6249
40.9572
38.1164
35.0586
31.7322
28.0921
24.1143
19.807
15.2184
10.4384
5.59341
0.836682
-3.66648
-7.75551
-11.2914
-14.1713
-16.3391
-17.79
-18.5704
-18.7705
-18.5139
-17.9431
-17.2046
-16.4342
-15.7451
-15.2191
-14.9023
-14.8049
-14.9053
-15.1563
-15.4939
-15.8464
-16.1434
-16.3224
-16.3354
-16.1511
-15.7569
-15.1576
-14.3737
-13.438
-12.3919
-11.282
-10.156
-9.05932
-8.03259
-7.10875
-6.31131
-5.65296
-5.13497
-4.74732
-4.4698
-4.27391
-4.1257
-3.98921
-3.83024
-3.62008
-3.33869
-2.97693
-2.53762
-2.0351
-1.49345
-0.943549
-0.419314
0.0463377
0.425356
0.697728
0.853606
0.89414
0.830988
0.684605
0.481598
0.251503
0.0234237
-0.177062
-0.330368
-0.424487
-0.455581
-0.427563
-0.350805
-0.240179
-0.112682
0.0150606
0.129136
0.220292
0.285275
0.327425
0.356448
0.387377
0.438817
0.53064
0.681386
0.905665
1.21189
1.60063
2.06374
2.58453
3.13879
3.69672
4.22543
4.69194
5.06605
5.3231
5.4461
5.42699
5.26707
4.97634
4.57208
4.07671
3.51535
2.9133
2.29379
1.67628
1.0754
0.500596
-0.0434684
-0.556026
-1.03894
-1.49531
-1.92827
-2.33998
-2.73111
-3.10062
-3.44594
-3.76328
-4.048
-4.29491
-4.49842
-4.65258
-4.751
-4.78698
-4.75368
-4.64476
-4.45527
-4.1828
-3.82869
-3.39915
-2.90592
-2.3663
-1.80249
-1.24012
-0.706022
-0.225503
0.180926
0.501005
0.734241
0.895108
1.01552
1.14596
1.35479
1.72507
2.34895
3.31977
4.72265
6.6249
9.06747
12.0591
15.5739
19.5531
23.9102
28.5394
33.3244
38.1489
42.9037
47.4934
51.8392
55.8797
59.5687
62.8721
65.7626
68.2153
70.2028
71.6912
72.6381
72.992
72.6938
71.6812
69.8945
67.2847
63.8234
59.5117
54.3892
48.54
42.0949
35.2293
28.156
21.1122
14.3439
8.0873
2.54983
-2.10627
-5.77675
-8.42213
-10.0675
-10.7946
-10.7241
-9.98879
-8.69227
-6.85289
-4.32918
-0.728328
4.69491
13.1319
26.2787
46.3235
75.8232
117.442
173.542
245.66
333.926
436.543
549.433
666.17
778.28
875.924
948.913
987.933
985.812
938.633
846.511
713.892
549.311
364.627
173.803
-8.58297
-168.919
-296.019
-382.279
-424.379
-423.47
-384.826
-317.041
-230.884
-137.961
-49.385
25.4207
79.6185
109.489
114.549
97.2873
62.5671
16.8092
-32.9325
-79.8806
-118.319
-144.172
-155.323
-151.664
-134.898
-108.136
-75.3685
-40.8822
-8.70529
17.8591
36.5587
46.3543
47.415
40.9655
29.0196
14.0457
-1.38721
-14.9377
-24.7557
-29.6575
-29.1991
-23.6499
-13.8828
-1.20042
12.8707
26.7915
39.1989
49.0515
55.719
59.0106
59.1456
56.6772
52.3831
47.1409
41.8064
37.1077
33.5683
31.4645
30.8186
31.4251
32.9012
34.7538
36.4517
37.4933
37.4622
36.0648
33.1489
28.7029
22.8399
15.7699
7.76798
-0.858983
-9.80101
-18.7671
-27.4993
-35.7785
-43.424
-50.2881
-56.2485
-61.2011
-65.0552
-67.732
-69.1671
-69.3166
-68.1654
-65.7357
-62.0939
-57.3546
-51.6788
-45.2672
-38.3483
-31.1616
-23.9397
-16.89
-10.1803
-3.92834
1.80181
6.99741
11.6889
15.9377
19.8224
23.4252
26.8199
30.0646
33.1974
36.2369
39.186
42.0378
44.7824
47.4135
49.933
52.3534
54.6982
56.9997
59.2938
61.6152
63.9907
66.4334
68.9382
71.4784
74.0055
76.4503
78.7271
80.7386
82.3826
83.5574
84.167
84.1233
83.3478
81.7714
79.3346
75.9904
71.7079
66.4796
60.3281
53.3112
45.5232
37.0906
28.1621
18.8955
9.44186
-0.0673202
-9.52922
-18.8724
-28.0532
-37.046
-45.8309
-54.3804
-62.6481
-70.5628
-78.0282
-84.9288
-91.1419
-96.5519
-101.067
-104.631
-107.239
-108.934
-109.81
-110.002
-109.672
-108.988
-108.115
-107.187
-106.301
-105.505
-104.796
-104.119
-103.379
-102.451
-101.197
-99.4803
-97.1862
-94.2326
-90.5828
-86.2499
-81.2965
-75.8284
-69.9826
-63.9137
-57.7777
-51.7176
-45.8518
-40.2674
-35.0176
-30.1251
-25.5882
-21.3905
-17.5104
-13.9306
-10.6437
-7.65632
-4.98808
-2.6681
-0.728729
0.80198
1.9077
2.58996
2.87195
2.79934
2.43803
1.86916
1.18197
0.46571
-0.198549
-0.744998
-1.12827
-1.32616
-1.33965
-1.19041
-0.916196
-0.564858
-0.187739
0.166677
0.458155
0.658592
0.754059
0.74493
0.644288
0.474947
0.265618
0.0467469
-0.153403
-0.311981
-0.413701
-0.45169
-0.426869
-0.345835
-0.217344
-0.0476951
0.164419
0.432776
0.787208
1.27494
1.95886
2.91251
4.21187
5.92487
8.09989
10.7549
13.869
17.3771
21.1705
25.1011
28.9915
32.6479
35.876
38.4968
40.3607
41.3597
41.4344
40.5769
38.8304
36.2835
33.0628
29.3232
25.2369
20.9826
16.7349
12.6547
8.88102
5.52512
2.66648
0.35123
-1.40693
-2.62365
-3.33886
-3.61009
-3.5045
-3.0896
-2.42153
-1.52903
-0.389175
1.10934
3.21931
6.40516
11.4243
19.4047
31.8936
50.8426
78.4955
117.15
168.791
234.617
314.531
406.676
507.142
609.927
707.239
790.134
849.46
876.971
866.479
814.848
722.669
594.502
438.616
266.245
90.4431
-75.3073
-218.56
-329.248
-400.728
-430.414
-419.905
-374.632
-303.073
-215.65
-123.47
-37.0525
34.7794
85.7398
112.56
115.077
95.9567
60.105
13.8687
-35.8581
-82.5084
-120.592
-146.242
-157.509
-154.394
-138.638
-113.323
-82.3451
-49.85
-19.6882
5.02936
22.2383
31.0636
31.7977
25.7338
14.8912
1.67765
-11.4602
-22.3534
-29.3575
-31.5047
-28.5526
-20.9345
-9.62763
4.03363
18.5697
32.5626
44.8303
54.5499
61.3195
65.1562
66.4398
65.8134
64.061
61.9804
60.2677
59.4295
59.7296
61.1737
63.531
66.3836
69.196
71.393
72.4345
71.8796
69.4322
64.9653
58.5238
50.3065
40.6343
29.9075
18.5607
7.01915
-4.337
-15.1987
-25.342
-34.6308
-43.0092
-50.486
-57.1153
-62.9744
-68.1425
-72.6828
-76.6284
-79.9743
-82.6754
-84.6503
-85.7909
-85.9764
-85.0901
-83.0375
-79.7626
-75.2623
-69.5945
-62.8815
-55.306
-47.1009
-38.5348
-29.8925
-21.4554
-13.4808
-6.18512
0.270008
5.78629
10.3318
13.9388
16.6963
18.7393
20.2341
21.3634
22.3101
23.2423
24.3007
25.5878
27.1621
29.0348
31.1721
33.5004
35.9154
38.2949
40.5113
42.4463
44.0027
45.1149
45.7552
45.936
45.7073
45.1503
44.368
43.4724
42.5724
41.7613
41.1074
40.6473
40.3834
40.2853
40.2956
40.3367
40.3198
40.1537
39.751
39.0341
37.9385
36.4156
34.4356
31.9895
29.093
25.788
22.1445
18.2575
14.2404
10.2125
6.28099
2.51975
-1.05107
-4.48106
-7.89562
-11.4887
-15.5003
-20.181
-25.7456
-32.3257
-39.9259
-48.3943
-57.4118
-66.5055
-75.0841
-82.494
-88.0877
-91.2968
-91.6991
-89.072
-83.4242
-75.0018
-64.2676
-51.8569
-38.5141
-25.0193
-12.112
-0.423625
9.57661
17.6139
23.6175
27.7063
30.1548
31.3439
31.7035
31.6552
31.5612
31.6857
32.1723
33.0379
34.1841
35.4197
36.4932
37.1275
37.0533
36.0357
33.8933
30.5078
25.8254
19.8524
12.6474
4.31417
-5.0048
-15.1313
-25.8517
-36.9168
-48.0414
-58.9083
-69.1763
-78.4953
-86.5253
-92.9613
-97.558
-100.154
-100.688
-99.2114
-95.8877
-90.9821
-84.8429
-77.8742
-70.5044
-63.1524
-56.1964
-49.9471
-44.6285
-40.3672
-37.1917
-35.0397
-33.7742
-33.2036
-33.1064
-33.2546
-33.4363
-33.4724
-33.2287
-32.6204
-31.6103
-30.2013
-28.4246
-26.3268
-23.9571
-21.3581
-18.561
-15.5865
-12.4498
-9.16958
-5.77816
-2.32938
1.09673
4.39497
7.442
10.1087
12.2762
13.8535
14.7928
15.1022
14.8515
14.1721
13.2492
12.3093
11.6022
11.3812
11.8831
13.3094
15.8117
19.4809
24.3412
30.3491
37.3964
45.3164
53.8935
62.8748
71.9831
80.9315
89.4375
97.2371
104.097
109.826
114.276
117.348
118.985
119.164
117.885
115.16
111.003
105.428
98.4498
90.0956
80.4238
69.5513
57.6882
45.1811
32.5638
20.6153
10.4208
3.42676
1.47428
6.78636
21.8819
49.3884
91.7372
150.747
227.128
319.982
426.379
541.14
656.892
764.48
853.719
914.429
937.632
916.74
848.549
733.882
577.764
389.074
179.721
-36.5641
-245.66
-434.508
-592.413
-712.015
-789.836
-826.347
-825.574
-794.332
-741.204
-675.417
-605.759
-539.676
-482.626
-437.759
-405.919
-385.921
-375.049
-369.672
-365.891
-360.12
-349.544
-332.408
-308.118
-277.172
-240.951
-201.417
-160.782
-121.182
-84.4132
-51.7493
-23.8603
-0.823388
17.7865
32.751
45.0373
55.6274
65.3743
74.8977
84.5311
94.3159
104.04
113.306
121.617
128.461
133.394
136.093
136.394
134.294
129.942
123.597
115.588
106.261
95.9353
84.8641
73.213
61.0518
48.3636
35.068
21.0586
6.24978
-9.37087
-25.6907
-42.4294
-59.1144
-75.0828
-89.5143
-101.5
-110.141
-114.665
-114.554
-109.655
-100.255
-87.1125
-71.4202
-54.7053
-38.6733
-25.0135
-15.1925
-10.2675
-10.7476
-16.5292
-26.9147
-40.7164
-56.4262
-72.426
-87.1988
-99.5045
-108.486
-113.687
-114.969
-112.35
-105.787
-94.9465
-79.0067
-56.5396
-25.5083
16.6031
72.5261
144.835
235.511
345.499
474.329
474.329
474.329
474.329
474.329
474.329
474.329
474.329
474.329
474.329
474.329
474.329
474.329
474.329
474.329
474.329
474.329
474.329
474.329
474.329
