25.4849
8.36738
-10.4976
-30.357
-50.2595
-69.1252
-85.836
-99.3382
-108.745
-113.429
-113.09
-107.797
-97.9902
-84.4487
-68.2213
-50.5325
-32.6697
-15.866
-1.19097
10.5394
18.8232
23.4988
24.7343
22.9848
18.9213
13.3436
7.08578
0.926971
-4.48424
-8.6833
-11.4176
-12.6474
-12.523
-11.3426
-9.49738
-7.41333
-5.49446
-4.07562
-3.38801
-3.54024
-4.51507
-6.18084
-8.31501
-10.6363
-12.8417
-14.6432
-15.802
-16.1543
-15.6276
-14.2467
-12.1268
-9.45796
-6.48051
-3.45681
-0.640955
1.74974
3.56034
4.72101
5.26917
5.37362
5.36292
5.75637
7.29223
10.9421
17.898
29.5178
47.2195
72.3217
105.841
148.261
199.314
257.804
321.508
387.201
450.817
507.739
553.217
582.853
593.105
581.743
548.183
493.659
421.193
335.359
241.87
147.025
57.0895
-22.3168
-86.7516
-133.343
-160.999
-170.41
-163.863
-144.889
-117.797
-87.153
-57.2767
-31.7969
-13.3284
-3.29029
-1.8775
-8.17639
-20.398
-36.1913
-52.992
-68.3616
-80.2786
-87.3497
-88.9256
-85.1148
-76.7044
-65.007
-51.6564
-38.3827
-26.7939
-18.1896
-13.4235
-12.8294
-16.2113
-22.8949
-31.8295
-41.7255
-51.2074
-58.9663
-63.8922
-65.176
-62.3709
-55.4123
-44.5962
-30.5246
-14.0246
3.94663
22.4007
40.4115
57.1942
72.1635
84.9684
95.5017
103.886
110.438
115.621
119.985
124.108
128.538
133.749
140.112
147.876
157.167
168.001
180.296
193.89
208.556
224.008
239.905
255.849
271.374
285.953
298.997
309.876
317.95
322.615
323.35
319.779
311.716
299.2
282.514
262.173
238.89
213.527
187.018
160.308
134.272
109.665
87.0773
66.9145
49.3949
34.5657
22.3306
12.4868
4.76442
-1.13547
-5.50807
-8.6199
-10.6929
-11.8978
-12.3563
-12.1502
-11.3355
-9.95924
-8.07603
-5.76226
-3.12505
-0.304737
2.52979
5.1925
7.49683
9.27484
10.3963
10.7842
10.4247
9.36894
7.727
5.65434
3.3325
0.947138
-1.33371
-3.37804
-5.10257
-6.47831
-7.52861
-8.32058
-8.95155
-9.53284
-10.1735
-10.966
-11.9763
-13.2379
-14.7522
-16.4923
-18.4101
-20.4452
-22.5336
-24.6148
-26.6367
-28.5571
-30.3429
-31.9675
-33.4069
-34.6356
-35.6246
-36.3404
-36.7462
-36.8055
-36.4863
-35.7665
-34.6375
-33.1075
-31.2022
-28.964
-26.4499
-23.7286
-20.8784
-17.9854
-15.1441
-12.4566
-10.0334
-7.98972
-6.44002
-5.48673
-5.20573
-5.6296
-6.73186
-8.41576
-10.5109
-12.7803
-14.9384
-16.6791
-17.7121
-17.8015
-16.8022
-14.6884
-11.5685
-7.68266
-3.38179
0.910634
4.74924
7.72339
9.51148
9.92487
8.93462
6.67711
3.4374
-0.387166
-4.33781
-7.9523
-10.822
-12.6402
-13.2354
-12.5861
-10.8153
-8.16764
-4.97106
-1.59122
1.61727
4.35529
6.41432
7.69766
8.22542
8.12258
7.59191
6.87574
6.21227
5.79349
5.73162
6.03986
6.63116
7.33558
7.93359
8.20004
7.95104
7.08609
5.61777
3.68388
1.53941
-0.470683
-1.95405
-2.5225
-1.84497
0.305928
4.02017
9.23395
15.7326
23.1717
31.1131
39.0712
46.5615
53.1478
58.4804
62.3224
64.5616
65.2087
64.3827
62.2867
59.1784
55.3389
51.0426
46.534
42.0096
37.6087
33.4118
29.4458
25.6931
22.1049
18.6148
15.1508
11.6464
8.04728
4.31652
0.436085
-3.59236
-7.74767
-11.9893
-16.257
-20.4701
-24.5271
-28.3062
-31.6675
-34.4577
-36.5178
-37.694
-37.8507
-36.886
-34.7494
-31.4581
-27.1116
-21.9013
-16.1101
-10.099
-4.2769
0.949172
5.24219
8.41803
10.5348
11.9759
13.5105
16.3141
21.9316
32.1729
48.9373
73.9763
108.614
153.463
208.163
271.211
339.888
410.35
477.862
537.185
583.077
610.855
616.942
599.342
557.958
494.716
413.459
319.624
219.728
120.726
29.3195
-48.7062
-109.029
-149.17
-168.652
-168.939
-153.162
-125.682
-91.5328
-55.8445
-23.2812
2.41554
18.7474
24.6102
20.2739
7.20538
-12.2302
-35.1457
-58.5337
-79.6446
-96.2975
-107.093
-111.508
-109.881
-103.282
-93.3099
-81.8385
-70.7465
-61.6688
-55.7959
-53.7432
-55.5028
-60.4781
-67.5932
-75.4591
-82.5724
-87.5203
-89.1644
-86.781
-80.1425
-69.5317
-55.691
-39.7161
-22.9114
-6.6262
7.90535
19.7031
28.1418
33.0056
34.4926
33.1734
29.9111
25.7543
21.8177
19.1632
18.6959
21.0826
26.7014
35.6241
47.63
62.2471
78.8127
96.5472
114.63
132.273
148.78
163.595
176.329
186.769
194.867
200.718
204.521
206.538
207.049
206.311
204.529
201.826
198.241
193.727
188.174
181.427
173.326
163.738
152.59
139.9
125.793
110.508
94.3949
77.895
61.5149
45.7896
31.2414
18.3381
7.45417
-1.1601
-7.3994
-11.3105
-13.0856
-13.042
-11.5908
-9.19736
-6.33894
-3.46253
-0.948593
0.916513
1.95703
2.11213
1.42866
0.0437892
-1.83971
-3.98254
-6.13891
-8.08438
-9.63898
-10.6835
-11.1678
-11.1118
-10.5975
-9.75679
-8.75308
-7.76185
-6.95041
-6.45977
-6.39027
-6.79238
-7.66336
-8.95025
-10.5582
-12.363
-14.2264
-16.0117
-17.5974
-18.8886
-19.8226
-20.3715
-20.5384
-20.3516
-19.8562
-19.1045
-18.1479
-17.0313
-15.7891
-14.4452
-13.0152
-11.5104
-9.94304
-8.33036
-6.69831
-5.08272
-3.52835
-2.08571
-0.806248
0.263369
1.08701
1.64389
1.93169
1.96757
1.78684
1.43948
0.984989
0.486268
0.0032579
-0.412808
-0.723904
-0.90798
-0.959762
-0.889613
-0.720736
-0.485161
-0.219088
0.0417921
0.266466
0.431781
0.524373
0.541213
0.488857
0.381609
0.238951
0.0826464
-0.066026
-0.188503
-0.270297
-0.301303
-0.275111
-0.18755
-0.0349244
0.187492
0.486187
0.868941
1.34302
1.91224
2.57336
3.31269
4.10368
4.90647
5.6696
6.33432
6.84068
7.13473
7.17554
6.94086
6.43039
5.66608
4.68931
3.5556
2.32749
1.06708
-0.170872
-1.34388
-2.42422
-3.39837
-4.26395
-5.02451
-5.68332
-6.23735
-6.67212
-6.95841
-7.05112
-6.89034
-6.40467
-5.51653
-4.14922
-2.23532
0.274221
3.40123
7.13271
11.4157
16.1558
21.2194
26.4407
31.6319
36.5968
41.1451
45.1069
48.3453
50.766
52.3229
53.0201
52.9081
52.0778
50.6497
48.7612
46.5512
44.1454
41.6406
39.0917
36.5027
33.8232
30.9526
27.7527
24.0679
19.753
14.7039
8.88764
2.3671
-4.68486
-11.985
-19.1552
-25.7524
-31.3119
-35.3971
-37.6512
-37.8427
-35.9003
-31.9303
-26.2156
-19.1942
-11.4211
-3.51651
3.8924
10.2307
15.0289
17.9657
18.8987
17.8825
15.1795
11.267
6.84718
2.86194
0.508889
1.24971
6.7932
19.0326
39.9182
71.254
114.425
170.077
237.801
315.868
401.088
488.848
573.343
648.025
706.216
741.832
750.125
728.333
676.152
595.948
492.652
373.359
246.644
121.703
7.39673
-88.6564
-160.84
-206.053
-223.928
-216.719
-188.905
-146.56
-96.5776
-45.8562
-0.542255
34.5786
56.4837
64.0737
58.0939
40.8451
15.7379
-13.2405
-42.0749
-67.2173
-85.9739
-96.7462
-99.1124
-93.754
-82.253
-66.7978
-49.8429
-33.7714
-20.5999
-11.7593
-7.97154
-9.22618
-14.8513
-23.6588
-34.1392
-44.6763
-53.7537
-60.1282
-62.9519
-61.8342
-56.8416
-48.4428
-37.4102
-24.6962
-11.3006
1.85296
14.0173
24.6895
33.6398
40.9045
46.7444
51.5801
55.9139
60.2499
65.0228
70.5448
76.9755
84.3175
92.4347
101.09
109.993
118.853
127.422
135.53
143.1
150.147
156.757
163.055
169.163
175.158
181.036
186.687
191.883
196.287
199.483
201.011
200.425
197.344
191.508
182.815
171.345
157.365
141.309
123.748
105.336
86.7535
68.6531
51.6014
36.0383
22.2512
10.3685
0.372539
-7.86979
-14.5661
-19.9521
-24.2496
-27.633
-30.2115
-32.0275
-33.0704
-33.303
-32.6932
-31.2476
-29.0367
-26.2107
-23.0001
-19.7011
-16.6481
-14.1766
-12.5821
-12.081
-12.779
-14.653
-17.5469
-21.1849
-25.1988
-29.1671
-32.6605
-35.2901
-36.7501
-36.8526
-35.5486
-32.9345
-29.2413
-24.8096
-20.0523
-15.4078
-11.2915
-8.04817
-5.91246
-4.98197
-5.20646
-6.39561
-8.24479
-10.3763
-12.3903
-13.9188
-14.6732
-14.4793
-13.2943
-11.2029
-8.39551
-5.13323
-1.70575
1.6094
4.58024
7.04204
8.9053
10.1512
10.8174
10.978
10.7236
10.1432
9.31279
8.29089
7.11992
5.83275
4.46114
3.04348
1.62954
0.281065
-0.932366
-1.94107
-2.68512
-3.1242
-3.24539
-3.06707
-2.63806
-2.03168
-1.33554
-0.63843
-0.0164152
0.479537
0.832174
1.0609
1.21796
1.37768
1.62002
2.01055
2.58016
3.30825
4.1131
4.85244
5.33591
5.34913
4.68714
3.19285
0.794571
-2.46401
-6.4078
-10.7331
-15.0314
-18.8331
-21.6667
-23.1243
-22.9255
-20.9673
-17.3529
-12.3921
-6.57292
-0.506085
5.1492
9.7687
12.8434
14.0449
13.2671
10.638
6.5003
1.36497
-4.15596
-9.42707
-13.8672
-17.0167
-18.5862
-18.4812
-16.8013
-13.8153
-9.91679
-5.56705
-1.23337
2.6696
5.82841
8.06431
9.34855
9.79937
9.66202
9.27587
9.03285
9.33296
10.5415
12.9524
16.7616
22.0504
28.782
36.8075
45.8811
55.6804
65.8304
75.9261
85.5537
94.3092
101.813
107.722
111.741
113.632
113.224
110.424
105.222
97.7067
88.0632
76.5804
63.645
49.7295
35.3735
21.1562
7.66194
-4.55713
-15.0207
-23.3563
-29.328
-32.8554
-34.0186
-33.0488
-30.3055
-26.2409
-21.3575
-16.1605
-11.1134
-6.59885
-2.89002
-0.134226
1.65079
2.57001
2.83747
2.76165
2.73589
3.23963
4.85374
8.28876
14.4199
24.315
39.2381
60.6045
89.8709
128.349
176.949
235.88
304.354
380.357
460.539
540.288
614.004
675.565
718.945
738.907
731.679
695.521
631.089
541.539
432.345
310.83
185.475
65.0775
-42.1414
-129.361
-191.829
-227.283
-236.085
-221.065
-187.088
-140.42
-87.9712
-36.5124
8.04164
41.1995
60.2569
64.4276
54.7434
33.7538
5.07712
-27.1316
-58.7243
-86.0507
-106.341
-117.948
-120.425
-114.457
-101.66
-84.2848
-64.8802
-45.9458
-29.6322
-17.5109
-10.4398
-8.52997
-11.208
-17.3568
-25.5104
-34.0719
-41.5261
-46.6212
-48.4982
-46.7591
-41.4709
-33.1105
-22.4658
-10.5073
1.74858
13.3679
23.6045
31.9714
38.2742
42.6057
45.3077
46.9063
48.0328
49.3389
51.4185
54.742
59.612
66.141
74.2541
83.7108
94.1451
105.115
116.154
126.826
136.762
145.695
153.472
160.059
165.522
170.004
173.689
176.762
179.372
181.593
183.4
184.656
185.113
184.425
182.182
177.954
171.341
162.037
149.879
134.892
117.317
97.6163
76.4503
54.6346
33.0729
12.6786
-5.70922
-21.4037
-33.9337
-43.0837
-48.9079
-51.7137
-52.0208
-50.4988
-47.8916
-44.9388
-42.3019
-40.5026
-39.8809
-40.5729
-42.5132
-45.4563
-49.0165
-52.7194
-56.0602
-58.5616
-59.8256
-59.5742
-57.6753
-54.1518
-49.1737
-43.0348
-36.1186
-28.856
-21.681
-14.9894
-9.10447
-4.25236
-0.550102
1.99447
3.47186
4.05119
3.95483
3.43059
2.7246
2.05768
1.60729
1.49615
1.78802
2.49015
3.56126
4.92355
6.47705
8.1145
9.7353
11.257
12.6235
13.8086
14.8149
15.668
16.4066
17.0696
17.6824
18.245
18.7227
19.0431
19.0993
18.76
17.8864
16.3539
14.0754
11.025
7.25609
2.91353
-1.7655
-6.46176
-10.7971
-14.3693
-16.7959
-17.7628
-17.0708
-14.6746
-10.7059
-5.47695
0.539203
6.74999
12.5034
17.1588
20.1611
21.1062
19.7917
16.2435
10.7164
3.66662
-4.29777
-12.4847
-20.1936
-26.7909
-31.7744
-34.8224
-35.8196
-34.8594
-32.2236
-28.3424
-23.741
-18.979
-14.5901
-11.0282
-8.62565
-7.56632
-7.87568
-9.42756
-11.9658
-15.1377
-18.5353
-21.7405
-24.3682
-26.1049
-26.7374
-26.1707
-24.4319
-21.6624
-18.0976
-14.0381
-9.81579
-5.75808
-2.15497
0.767859
2.86732
4.09105
4.47516
4.13259
3.23409
1.98449
0.597367
-0.72891
-1.83114
-2.59529
-2.96349
-2.93383
-2.55359
-1.90724
-1.10097
-0.245832
0.558594
1.23788
1.75234
2.10137
2.3219
2.48141
2.66611
2.96617
3.45983
4.19874
5.19671
6.42349
7.80472
9.22823
10.556
11.6401
12.3412
12.5462
12.1833
11.2322
9.72806
7.75885
5.45578
2.97938
0.502249
-1.80853
-3.80729
-5.38173
-6.45983
-7.01125
-7.04363
-6.5951
-5.72455
-4.50145
-2.99672
-1.27583
0.605399
2.60217
4.67983
6.81142
8.97447
11.148
13.3106
15.44
17.5153
19.5241
21.4751
23.4212
25.4927
27.9449
31.214
35.9754
43.1895
54.1161
70.2746
93.3305
124.9
166.278
218.116
280.102
350.695
426.987
504.742
578.631
642.678
690.854
717.767
719.342
693.398
640.036
561.773
463.386
351.494
233.904
118.822
14.0161
-73.9655
-140.417
-182.879
-201.271
-197.759
-176.375
-142.455
-101.966
-60.8171
-24.2249
3.78435
20.6956
25.6226
19.2271
3.46587
-18.7869
-44.1862
-69.3701
-91.3682
-107.917
-117.657
-120.198
-116.059
-106.504
-93.3037
-78.4634
-63.9491
-51.4489
-42.1947
-36.8586
-35.528
-37.7554
-42.6668
-49.11
-55.8196
-61.5781
-65.3534
-66.3995
-64.3128
-59.0419
-50.8564
-40.282
-28.0139
-14.8219
-1.4572
11.4267
23.3325
33.9543
43.1859
51.1084
57.9573
64.0785
69.8772
75.7671
82.1244
89.2506
97.3478
106.506
116.702
127.811
139.626
151.88
164.271
176.491
188.242
199.255
209.299
218.188
225.776
231.956
236.65
239.806
241.384
241.356
239.696
236.386
231.412
224.768
216.462
206.517
194.976
181.912
167.428
151.673
134.844
117.197
99.0476
80.7693
62.7777
45.5118
29.4055
14.8563
2.19333
-8.35003
-16.6556
-22.7295
-26.6993
-28.8001
-29.351
-28.7247
-27.3143
-25.5009
-23.6241
-21.9597
-20.7057
-19.976
-19.8033
-20.1494
-20.9204
-21.9856
-23.1978
-24.412
-25.5019
-26.3719
-26.9635
-27.2577
-27.2712
-27.0495
-26.6566
-26.164
-25.639
-25.1353
-24.6855
-24.2968
-23.9505
-23.6041
-23.1971
-22.6579
-21.9116
-20.8891
-19.533
-17.804
-15.6841
-13.1784
-10.3158
-7.14856
-3.75208
-0.223983
3.317
6.73319
9.87177
12.5709
14.6688
16.0153
16.4861
15.9983
14.5259
12.112
8.87749
5.02152
0.814398
-3.41885
-7.32296
-10.5433
-12.7597
-13.7202
-13.2697
-11.3711
-8.11438
-3.71378
1.50856
7.15038
12.7659
17.9069
22.1646
25.2065
26.8053
26.8565
25.3836
22.5295
18.5378
13.7239
8.44199
3.04969
-2.12461
-6.8092
-10.8086
-14.0138
-16.4026
-18.03
-19.0115
-19.4988
-19.6537
-19.6213
-19.508
-19.3659
-19.1873
-18.91
-18.4319
-17.6346
-16.4096
-14.6855
-12.4493
-9.75994
-6.74988
-3.61603
-0.599394
2.04268
4.0683
5.28235
5.56317
4.8808
3.30441
0.997622
-1.79775
-4.78768
-7.65841
-10.1114
-11.8965
-12.8386
-12.8561
-11.9668
-10.283
-7.99511
-5.34731
-2.60778
-0.0376636
2.13755
3.75092
4.70913
4.99845
4.6817
3.88713
2.79099
1.59606
0.508259
-0.286009
-0.639742
-0.460468
0.280873
1.54821
3.24597
5.23134
7.33182
9.36583
11.1637
12.5868
13.5413
13.9866
13.9362
13.4513
12.6298
11.5903
10.4559
9.33857
8.32582
7.47299
6.79989
6.29266
5.91003
5.59259
5.27353
4.88958
4.3905
3.74635
2.95171
2.0267
1.0148
-0.0219899
-1.01012
-1.87251
-2.5368
-2.94285
-3.04853
-2.8333
-2.29931
-1.47034
-0.389439
0.883638
2.27391
3.69096
5.02741
6.15767
6.93997
7.2261
6.88334
5.83331
4.1098
1.93456
-0.195596
-1.424
-0.471635
4.37734
15.2153
34.3546
64.0653
106.22
161.881
230.892
311.545
400.415
492.405
581.055
659.09
719.17
754.731
760.818
734.784
676.739
589.699
479.374
353.64
221.748
93.3606
-22.4406
-118.075
-188.187
-230.102
-243.957
-232.517
-200.708
-154.935
-102.289
-49.7292
-3.34655
32.2105
54.0985
61.4014
55.0202
37.3639
11.8962
-17.3945
-46.5306
-72.0221
-91.2329
-102.604
-105.717
-101.219
-90.6132
-75.9732
-59.6174
-43.7859
-30.3659
-20.69
-15.429
-14.5799
-17.5424
-23.2629
-30.4225
-37.6381
-43.6505
-47.4756
-48.5044
-46.5418
-41.7884
-34.7708
-26.2376
-17.0356
-7.98698
0.219629
7.10901
12.4649
16.3382
19.02
20.9875
22.83
25.1674
28.5711
33.4959
40.2314
48.8772
59.3418
71.365
84.5581
98.4549
112.567
126.432
139.661
151.958
163.135
173.111
181.89
189.545
196.181
201.917
206.856
211.072
214.599
217.433
219.528
220.808
221.166
220.476
218.589
215.347
210.583
204.142
195.891
185.745
173.691
159.807
144.279
127.404
109.592
91.339
73.2065
55.7783
39.6192
25.2315
13.0147
3.23474
-3.99591
-8.72343
-11.1438
-11.5808
-10.4523
-8.23056
-5.39908
-2.41099
0.346532
2.5789
4.09969
4.83416
4.8113
4.14618
3.0151
1.62708
0.194877
-1.09097
-2.08255
-2.68752
-2.87381
-2.66647
-2.13776
-1.39253
-0.551186
0.267396
0.960826
1.45443
1.7077
1.71571
1.50579
1.13043
0.657763
0.161013
-0.291562
-0.644991
-0.863297
-0.932139
-0.858362
-0.66685
-0.395378
-0.0883341
0.209746
0.459985
0.633627
0.714711
0.700781
0.601729
0.43707
0.232119
0.013656
-0.194343
-0.374345
-0.517823
-0.626439
-0.711726
-0.793324
-0.896009
-1.04589
-1.26624
-1.57359
-1.97441
-2.4631
-3.02138
-3.61939
-4.21838
-4.77474
-5.24505
-5.59128
-5.78582
-5.81535
-5.68308
-5.40908
-5.02836
-4.58708
-4.13698
-3.72907
-3.40692
-3.20084
-3.12344
-3.16744
-3.30604
-3.49591
-3.68244
-3.80661
-3.81266
-3.65552
-3.30713
-2.76085
-2.03336
-1.16379
-0.210187
0.756274
1.65866
2.42231
2.98257
3.29143
3.32236
3.07288
2.5647
1.84147
0.96446
0.00659521
-0.954423
-1.84312
-2.59258
-3.14939
-3.47659
-3.55453
-3.37988
-2.96335
-2.32733
-1.50415
-0.5358
0.525062
1.61337
2.65043
3.54479
4.19633
4.50457
4.38063
3.76188
2.62694
1.00843
-0.999096
-3.23833
-5.49659
-7.52149
-9.04358
-9.8036
-9.5811
-8.22074
-5.65281
-1.90524
2.89484
8.53016
14.7121
21.1071
27.3669
33.1601
38.2004
42.2686
45.2268
47.0221
47.6822
47.3014
46.0224
44.0134
41.4465
38.4778
35.2332
31.8006
28.2289
24.5342
20.7124
16.754
12.6615
8.4643
4.22924
0.0649372
-3.88205
-7.43903
-10.4259
-12.6786
-14.074
-14.552
-14.1323
-12.9216
-11.1107
-8.95967
-6.77438
-4.87536
-3.5635
-3.08665
-3.61117
-5.20183
-7.81235
-11.2872
-15.374
-19.7432
-24.0106
-27.7572
-30.5381
-31.8761
-31.2358
-27.9802
-21.319
-10.2645
6.38139
29.9846
61.9611
103.574
155.66
218.313
290.58
370.239
453.705
536.133
611.724
674.218
717.546
736.532
727.586
689.254
622.564
531.096
420.748
299.225
175.288
57.8704
-44.8363
-126.221
-181.903
-210.119
-211.807
-190.38
-151.236
-101.058
-47.0181
4.03574
46.2955
75.5428
89.4737
87.7785
71.984
45.099
11.1197
-25.5324
-60.5668
-90.3095
-112.065
-124.326
-126.819
-120.399
-106.821
-88.4326
-67.8223
-47.4886
-29.5515
-15.5457
-6.30898
-1.96892
-2.01832
-5.46023
-10.9966
-17.232
-22.8657
-26.8485
-28.4891
-27.502
-23.9976
-18.4214
-11.457
-3.90848
3.42131
9.83923
14.8469
18.1937
19.8946
20.2159
19.6315
18.759
18.2825
18.872
21.1067
25.4106
32.0057
40.8883
51.8288
64.3962
78.0038
91.97
105.59
118.205
129.271
138.405
145.418
150.323
153.318
154.752
155.071
154.757
154.263
153.951
154.051
154.623
155.55
156.546
157.183
156.939
155.25
151.571
145.44
136.525
124.673
109.927
92.5408
72.9648
51.8164
29.8365
7.83332
-13.3792
-33.0444
-50.5196
-65.3226
-77.1634
-85.9573
-91.8198
-95.0436
-96.061
-95.3949
-93.6063
-91.2395
-88.775
-86.5899
-84.9324
-83.9107
-83.4969
-83.5452
-83.8209
-84.0376
-83.897
-83.1276
-81.5168
-78.9342
-75.3432
-70.8008
-65.4458
-59.478
-53.1312
-46.6442
-40.233
-34.0697
-28.2682
-22.8807
-17.9036
-13.2912
-8.97519
-4.88489
-0.966472
2.80308
6.40857
9.7965
12.8817
15.559
17.7179
19.2573
20.0987
20.1953
19.537
18.151
16.097
13.461
10.3455
6.86097
3.11683
-0.784448
-4.75055
-8.69908
-12.5542
-16.2412
-19.6804
-22.7827
-25.4467
-27.5612
-29.0108
-29.6854
-29.4928
-28.3711
-26.3005
-23.3113
-19.4874
-14.9644
-9.92152
-4.5694
0.865526
6.15837
11.1025
15.5242
19.2938
22.3321
24.613
26.1608
27.0439
27.3659
27.2536
26.8442
26.2716
25.653
25.0772
24.5953
24.2155
23.9032
23.5859
23.1649
22.5317
21.588
20.2669
18.553
16.4967
14.2219
11.9223
9.84594
8.26854
7.45673
7.62606
8.8988
11.2679
14.5726
18.4917
22.5554
26.1795
28.7176
29.529
28.0545
23.8921
16.8635
7.06069
-5.13426
-19.0614
-33.8294
-48.3923
-61.6496
-72.5583
-80.2436
-84.0947
-83.8323
-79.5408
-71.6592
-60.9314
-48.3241
-34.92
-21.8022
-9.94129
-0.101636
7.2256
11.854
13.8972
13.7305
11.9254
9.16796
6.17008
3.5868
1.94734
1.6072
2.72434
5.25968
8.99912
13.5922
18.6013
23.5549
27.9992
31.5419
33.8863
34.8518
34.3816
32.5372
29.4829
25.462
20.7673
15.7112
10.5951
5.68348
1.18299
-2.77171
-6.12435
-8.896
-11.1769
-13.1126
-14.8848
-16.6904
-18.7181
-21.1264
-24.0237
-27.4522
-31.3782
-35.688
-40.1935
-44.6438
-48.7455
-52.1871
-54.6664
-55.9164
-55.725
-53.9418
-50.4675
-45.2219
-38.0872
-28.8342
-17.0399
-2.01609
17.2269
41.9574
73.6188
113.635
163.135
222.621
291.634
368.473
450.048
531.902
608.46
673.481
720.697
744.546
740.909
707.752
645.547
557.425
448.994
327.855
202.849
83.1376
-22.765
-107.89
-167.52
-199.624
-204.969
-186.898
-150.833
-103.552
-52.3607
-4.25156
34.8402
60.6066
70.7044
64.8373
44.5967
13.0971
-25.5308
-66.7161
-106.018
-139.626
-164.728
-179.731
-184.308
-179.292
-166.445
-148.14
-127.012
-105.61
-86.1102
-70.0995
-58.465
-51.3802
-48.3827
-48.523
-50.5565
-53.1514
-55.083
-55.3931
-53.4973
-49.2348
-42.8586
-34.9744
-26.4392
-18.2346
-11.3308
-6.55487
-4.4794
-5.34066
-8.99566
-14.9222
-22.2622
-29.9043
-36.5965
-41.078
-42.2134
-39.1145
-31.2359
-18.4315
-0.967389
20.5096
45.0427
71.4644
98.5115
124.942
149.64
171.7
190.483
205.638
217.097
225.041
229.849
232.03
232.157
230.8
228.47
225.577
222.402
219.089
215.649
211.972
207.861
203.057
197.275
190.237
181.704
171.507
159.562
145.889
130.621
113.991
96.3304
78.0384
59.5587
41.3455
23.8321
7.40254
-7.63001
-21.0349
-32.6657
-42.4525
-50.3868
-56.5019
-60.8536
-63.5042
-64.5136
-63.9384
-61.8395
-58.2967
-53.4253
-47.3918
-40.4234
-32.8072
-24.8779
-16.995
-9.51045
-2.73433
3.09907
7.8568
11.5211
14.1887
16.0552
17.386
18.4782
19.618
21.039
22.8872
25.1967
27.8789
30.7253
33.4235
35.585
36.7801
36.5787
34.5926
30.5177
24.1737
15.5373
4.76654
-7.78771
-21.5861
-35.9245
-49.9772
-62.8585
-73.6981
-81.7225
-86.3346
-87.1804
-84.1945
-77.6162
-67.9747
-56.0418
-42.7593
-29.1471
-16.2044
-4.81466
4.33398
10.8052
14.4412
15.3594
13.9189
10.6654
6.25957
1.39957
-3.25305
-7.13678
-9.83633
-11.1083
-10.8854
-9.26113
-6.4583
-2.78696
1.40287
5.76774
10.0116
13.917
17.3636
20.3338
22.9051
25.2307
27.5113
29.9621
32.777
36.0972
39.9838
44.4017
49.2132
54.1854
59.0081
63.3224
66.7559
68.9608
69.6506
68.6323
65.829
61.2916
55.1989
47.8442
39.6118
30.9451
22.309
14.1518
6.86931
0.77493
-3.92171
-7.126
-8.8589
-9.24734
-8.50577
-6.91111
-4.77378
-2.40771
-0.102291
1.90115
3.42635
4.37119
4.70869
4.48024
3.78248
2.74987
1.53509
0.289788
-0.852319
-1.78839
-2.45452
-2.82861
-2.92875
-2.80775
-2.54518
-2.23813
-1.99127
-1.90688
-2.07486
-2.56296
-3.40726
-4.60403
-6.10406
-7.81137
-9.58813
-11.2668
-12.6694
-13.6323
-14.033
-13.8148
-13.0042
-11.7178
-10.1556
-8.58145
-7.29228
-6.58004
-6.6929
-7.80059
-9.96971
-13.1523
-17.1895
-21.8294
-26.7565
-31.6284
-36.1151
-39.9347
-42.8828
-44.8514
-45.8358
-45.9299
-45.3114
-44.2183
-42.9218
-41.6965
-40.7939
-40.42
-40.7217
-41.7821
-43.6261
-46.2343
-49.5618
-53.5567
-58.1727
-63.3701
-69.1006
-75.2741
-81.7092
-88.0704
-93.7988
-98.0465
-99.626
-96.9912
-88.268
-71.3533
-44.0951
-4.55897
48.6353
115.941
196.53
288.03
386.413
486.107
580.338
661.709
722.946
757.739
761.539
732.22
670.485
579.953
466.887
339.612
207.665
80.7981
-32.0428
-123.636
-189.188
-226.732
-237.2
-224.148
-193.196
-151.263
-105.692
-63.382
-30.0297
-9.56198
-3.81958
-12.5106
-33.4234
-62.8554
-96.1913
-128.551
-155.422
-173.203
-179.594
-173.805
-156.556
-129.898
-96.8845
-61.1396
-26.392
3.97266
27.285
41.8513
47.0768
43.4492
32.3952
16.0382
-3.10502
-22.4468
-39.6298
-52.7726
-60.6359
-62.6966
-59.1308
-50.7154
-38.6705
-24.4652
-9.61615
4.49856
16.7871
26.5416
33.479
37.7277
39.7679
40.3398
40.3333
40.6747
42.2228
45.6822
51.5428
60.0435
71.1651
84.6451
100.015
116.649
133.83
150.808
166.868
181.378
193.839
203.908
211.414
216.353
218.869
219.227
217.776
214.905
211.007
206.436
201.48
196.335
191.092
185.73
180.121
174.041
167.191
159.226
149.791
138.563
125.291
109.839
92.2164
72.606
51.3642
29.0111
6.19833
-16.3399
-37.8478
-57.6154
-75.0435
-89.6993
-101.355
-110.005
-115.858
-119.311
-120.892
-121.21
-120.874
-120.438
-120.34
-120.868
-122.136
-124.091
-126.533
-129.155
-131.589
-133.458
-134.427
-134.236
-132.733
-129.874
-125.726
-120.444
-114.238
-107.35
-100.015
-92.4397
-84.7874
-77.1704
-69.6554
-62.2738
-55.0384
-47.959
-41.0571
-34.3754
-27.9808
-21.9622
-16.4209
-11.4588
-7.16287
-3.5903
-0.756112
1.37524
2.89251
3.93399
4.67755
5.32559
6.08644
7.15458
8.69197
10.813
13.5747
16.9735
20.9488
25.392
30.161
35.0962
40.0374
44.8391
49.3815
53.5782
57.3785
60.7653
63.7507
66.3685
68.6673
70.7037
72.5369
74.2259
75.828
77.3979
78.9878
80.6458
82.4139
84.3229
86.3868
88.5958
90.9099
93.2547
95.5197
97.5615
99.2114
100.287
100.607
100.007
98.3563
95.5674
91.6071
86.4997
80.3257
73.2185
65.3563
56.9534
48.25
39.5009
30.9643
22.8894
15.5036
9.0007
3.52836
-0.821334
-4.01898
-6.10059
-7.16532
-7.36799
-6.90672
-6.00666
-4.90153
-3.81458
-2.94111
-2.43404
-2.39395
-2.86435
-3.83215
-5.23329
-6.96249
-8.88618
-10.8574
-12.7316
-14.3814
-15.7097
-16.6594
-17.2178
-17.4156
-17.319
-17.0153
-16.5938
-16.1247
-15.6386
-15.1116
-14.4593
-13.5421
-12.1835
-10.1997
-7.43759
-3.81599
0.636235
5.75206
11.2143
16.5647
21.2346
24.5978
26.0377
25.0233
21.1813
14.3568
4.65073
-7.57039
-21.6963
-36.924
-52.332
-66.9684
-79.942
-90.5052
-98.1184
-102.49
-103.591
-101.637
-97.0544
-90.4241
-82.4181
-73.7333
-65.0308
-56.8851
-49.7471
-43.9233
-39.5689
-36.6962
-35.1925
-34.8459
-35.3754
-36.461
-37.7724
-38.9931
-39.8386
-40.0679
-39.4862
-37.9375
-35.2871
-31.3898
-26.0459
-18.9446
-9.60129
2.70081
18.9487
40.396
68.4983
104.769
150.553
206.732
273.389
349.496
432.674
519.109
603.667
680.221
742.205
783.309
798.248
783.489
737.824
662.692
562.193
442.77
312.594
180.73
56.1823
-53.038
-140.723
-203.043
-238.825
-249.508
-238.808
-212.137
-175.863
-136.529
-100.102
-71.3666
-53.5071
-47.9201
-54.2582
-70.6773
-94.2384
-121.399
-148.525
-172.36
-190.394
-201.1
-204.024
-199.721
-189.575
-175.528
-159.764
-144.385
-131.139
-121.211
-115.115
-112.677
-113.13
-115.264
-117.639
-118.813
-117.543
-112.959
-104.667
-92.7809
-77.8902
-60.958
-43.1821
-25.8306
-10.0782
3.13637
13.2148
19.9555
23.5572
24.5737
23.8292
22.3072
21.0298
20.9424
22.8173
27.1866
34.3074
44.1617
56.4842
70.8139
86.5583
103.062
119.674
135.799
150.945
164.742
176.958
187.493
196.364
203.687
209.645
214.466
218.39
221.645
224.415
226.824
228.912
230.624
231.807
232.217
231.536
229.403
225.457
219.374
210.922
199.993
186.635
171.062
153.652
134.92
115.478
95.983
77.0787
59.3408
43.2275
29.0449
16.9306
6.85516
-1.35879
-8.00243
-13.4379
-18.0516
-22.2088
-26.2156
-30.2898
-34.5443
-38.9833
-43.5102
-47.946
-52.056
-55.5808
-58.2687
-59.9072
-60.3476
-59.5242
-57.4631
-54.2822
-50.1813
-45.4242
-40.3151
-35.1706
-30.2909
-25.9337
-22.292
-19.479
-17.5214
-16.3617
-15.8686
-15.856
-16.1058
-16.3947
-16.5196
-16.3202
-15.6949
-14.6089
-13.093
-11.2349
-9.16258
-7.02352
-4.96337
-3.10633
-1.54088
-0.312633
0.574854
1.15218
1.47114
1.58978
1.55868
1.41145
1.16111
0.802691
0.321151
-0.297744
-1.05619
-1.93552
-2.89174
-3.85671
-4.74467
-5.46303
-5.92561
-6.06563
-5.8464
-5.26753
-4.36556
-3.2088
-1.88712
-0.498397
0.86617
2.1354
3.26782
4.25611
5.12546
5.92596
6.72048
7.56962
8.51657
9.57402
10.7156
11.8732
12.9407
13.7836
14.2544
14.21
13.5304
12.137
10.0062
7.1796
3.76673
-0.0586102
-4.06937
-8.00281
-11.5831
-14.5468
-16.6686
-17.7845
-17.8096
-16.7476
-14.6924
-11.8192
-8.36765
-4.61798
-0.862884
2.62121
5.60044
7.90441
9.43922
10.1915
10.2235
9.66011
8.67031
7.44569
6.17874
5.04349
4.18012
3.68444
3.6024
3.92953
4.61465
5.56738
6.6686
7.78297
8.77274
9.51149
9.89677
9.86032
9.37508
8.45787
7.16782
5.60039
3.87761
2.13565
0.510819
-0.874368
-1.9237
-2.57694
-2.81567
-2.66474
-2.18923
-1.48732
-0.680002
0.101313
0.72787
1.08597
1.08741
0.676924
-0.164067
-1.41762
-3.03315
-4.93437
-7.02821
-9.21464
-11.3959
-13.4841
-15.407
-17.1096
-18.5551
-19.7215
-20.598
-21.1803
-21.4664
-21.4531
-21.1343
-20.5008
-19.542
-18.2486
-16.6161
-14.6486
-12.3615
-9.78476
-6.96379
-3.96053
-0.85318
2.26473
5.28596
8.09215
10.5578
12.5566
13.971
14.708
14.7228
14.0514
12.8563
11.4793
10.5011
10.7939
13.5558
20.3075
32.8336
53.0526
82.8106
123.605
176.261
240.612
315.225
397.244
482.399
565.209
639.397
698.469
736.419
748.443
731.594
685.256
611.372
514.383
400.86
278.882
157.226
44.4691
-51.8838
-126.141
-174.942
-197.501
-195.548
-172.997
-135.384
-89.162
-40.935
3.26095
38.5607
61.6867
71.1487
67.2195
51.7095
27.5854
-1.50766
-31.7533
-59.6379
-82.3367
-97.9753
-105.748
-105.894
-99.5477
-88.4965
-74.887
-60.9168
-48.5534
-39.3135
-34.1196
-33.2466
-36.3545
-42.5928
-50.7588
-59.4826
-67.414
-73.3882
-76.5511
-76.4334
-72.9697
-66.4652
-57.5195
-46.9221
-35.5347
-24.1765
-13.5268
-4.05559
4.01291
10.7008
16.2461
21.0465
25.5893
30.3753
35.8486
42.3404
50.033
58.946
68.9461
79.7748
91.0908
102.519
113.698
124.325
134.179
143.145
151.209
158.443
164.99
171.025
176.731
182.263
187.724
193.14
198.449
203.488
207.991
211.598
213.871
214.316
212.421
207.696
199.727
188.227
173.08
154.386
132.48
107.938
81.5523
54.2879
27.2153
1.42882
-22.0414
-42.3141
-58.729
-70.8976
-78.7279
-82.4202
-82.4358
-79.4418
-74.2394
-67.6839
-60.6053
-53.7375
-47.6628
-42.7773
-39.2776
-37.1698
-36.2971
-36.3817
-37.074
-38.0044
-38.8299
-39.2723
-39.143
-38.3537
-36.913
-34.9102
-32.4905
-29.8252
-27.0811
-24.3956
-21.859
-19.5076
-17.3275
-15.2683
-13.2629
-11.2499
-9.19356
-7.09726
-5.00819
-3.01139
-1.21454
0.273468
1.36647
2.0226
2.25943
2.15963
1.8657
1.56417
1.46154
1.75524
2.60416
4.10298
6.2641
9.01001
12.1772
15.5313
18.7912
21.6592
23.8537
25.1391
25.3511
24.4123
22.3393
19.2385
15.2934
10.7449
5.86693
0.941893
-3.76346
-8.01744
-11.6377
-14.499
-16.5351
-17.7346
-18.1327
-17.8003
-16.8323
-15.3373
-13.4307
-11.2308
-8.85827
-6.43842
-4.10303
-1.99054
-0.2423
1.00592
1.63703
1.56858
0.769077
-0.728705
-2.82052
-5.33195
-8.02939
-10.6403
-12.8806
-14.4861
-15.2434
-15.016
-13.7631
-11.5459
-8.52282
-4.93337
-1.07195
2.74379
6.20671
9.05176
11.0814
12.1823
12.3317
11.593
10.1027
8.05031
5.65403
3.13629
0.701303
-1.48269
-3.29514
-4.6682
-5.58545
-6.07536
-6.20107
-6.04817
-5.71227
-5.28761
-4.85784
-4.48936
-4.22753
-4.09518
-4.09326
-4.20281
-4.38788
-4.59892
-4.77634
-4.85429
-4.76447
-4.44017
-3.82049
-2.85479
-1.50733
0.238256
2.37519
4.87105
7.66724
10.6811
13.8105
16.9407
19.9523
22.729
25.1639
27.1627
28.6438
29.5353
29.771
29.2875
28.0241
25.9292
22.9722
19.1603
14.5574
9.30101
3.61085
-2.21269
-7.80475
-12.7658
-16.7025
-19.2748
-20.2418
-19.5
-17.1065
-13.2838
-8.40356
-2.95102
2.52571
7.47542
11.4048
13.9328
14.8324
14.0535
11.726
8.14266
3.72391
-1.02966
-5.59193
-9.46603
-12.2331
-13.5894
-13.3675
-11.538
-8.18989
-3.4888
2.38728
9.3309
17.4002
26.914
38.5294
53.2793
72.5475
97.9608
131.189
173.658
226.214
288.764
359.98
437.121
516.03
591.34
656.909
706.419
734.103
735.48
708.004
651.528
568.498
463.846
344.572
219.074
96.2927
-15.2035
-108.101
-177.06
-219.202
-234.298
-224.66
-194.742
-150.535
-98.8206
-46.3817
0.71988
37.7341
61.6138
71.1766
67.0395
51.3505
27.3696
-1.03839
-29.9302
-55.7646
-75.784
-88.2607
-92.5915
-89.2455
-79.5855
-65.5987
-49.5792
-33.8068
-20.2614
-10.4059
-5.05602
-4.34525
-7.77782
-14.3551
-22.7508
-31.509
-39.2374
-44.7733
-47.3039
-46.4323
-42.1864
-34.9751
-25.5043
-14.6645
-3.40904
7.36342
16.9082
24.706
30.5005
34.3028
36.3641
37.1237
37.1423
37.0277
37.3639
38.651
41.2612
45.4137
51.1698
58.4452
67.0361
76.654
86.9639
97.6208
108.3
118.72
128.655
137.94
146.466
154.171
161.026
167.02
172.142
176.372
179.661
181.933
183.075
182.946
181.379
178.201
173.251
166.399
157.57
146.769
134.096
119.764
104.096
87.5257
70.5724
53.8156
37.8525
23.2514
10.5028
-0.0268555
-8.13181
-13.7891
-17.1626
-18.5867
-18.5306
-17.5464
-16.2072
-15.0431
-14.4825
-14.8071
-16.1263
-18.3736
-21.326
-24.6417
-27.9128
-30.723
-32.7047
-33.5866
-33.2272
-31.6298
-28.9384
-25.4164
-21.411
-17.3093
-13.4929
-10.2942
-7.96264
-6.64215
-6.36222
-7.04286
-8.51132
-10.5279
-12.8171
-15.1
-17.1244
-18.6893
-19.6614
-19.983
-19.67
-18.8034
-17.5125
-15.9557
-14.2991
-12.6959
-11.2696
-10.1021
-9.22741
-8.63244
-8.26336
-8.03688
-7.85457
-7.61834
-7.24476
-6.67666
-5.89043
-4.89837
-3.74599
-2.50501
-1.26309
-0.11189
0.864787
1.60143
2.05847
2.22651
2.127
1.8096
1.34716
0.82904
0.353937
0.0228704
-0.067069
0.17192
0.813814
1.91482
3.50984
5.60932
8.19671
11.2269
14.6262
18.2933
22.1029
25.9101
29.5565
32.8781
35.7133
37.9129
39.3498
39.9284
39.5934
38.3351
36.1932
33.2547
29.6497
25.5417
21.1159
16.5652
12.0762
7.81616
3.92287
0.497751
-2.39703
-4.7375
-6.5336
-7.82268
-8.66176
-9.11981
-9.27087
-9.18851
-8.94193
-8.59352
-8.19767
-7.80028
-7.43856
-7.14082
-6.92594
-6.8026
-6.76848
-6.80967
-6.90079
-7.00613
-7.08197
-7.08008
-6.95221
-6.65507
-6.15529
-5.43355
-4.48733
-3.33182
-1.99846
-0.531577
1.0168
2.59301
4.14787
5.64183
7.0484
8.35523
9.56285
10.6813
11.7255
12.7099
13.6445
14.5313
15.3639
16.128
16.8038
17.3686
17.7995
18.0745
18.1735
18.0767
17.7636
17.2112
16.393
15.2804
13.8443
12.06
9.91243
7.40236
4.55154
1.40641
-1.96095
-5.45506
-8.96248
-12.3602
-15.5255
-18.3475
-20.7365
-22.6327
-24.0119
-24.8874
-25.3088
-25.3579
-25.1408
-24.7793
-24.4008
-24.1285
-24.0729
-24.3252
-24.9519
-25.9906
-27.4428
-29.2635
-31.3414
-33.4685
-35.2976
-36.2886
-35.6527
-32.3058
-24.8505
-11.6082
9.27896
39.6639
81.1293
134.662
200.31
276.87
361.686
450.607
538.146
617.866
682.956
726.952
744.5
732.072
688.516
615.365
516.839
399.54
271.844
143.086
22.6154
-81.1508
-161.569
-214.402
-238.166
-234.171
-206.244
-160.188
-103.055
-42.3099
14.9836
62.8892
97.138
115.441
117.553
105.093
81.1762
49.898
15.7598
-16.9004
-44.4006
-64.081
-74.5109
-75.5285
-68.1224
-54.188
-36.1993
-16.8439
1.3279
16.2008
26.3068
30.9351
30.137
24.6361
15.665
4.75721
-6.47608
-16.5554
-24.3035
-28.9617
-30.2423
-28.3176
-23.7537
-17.3997
-10.2516
-3.30643
2.57427
6.77628
9.00771
9.32918
8.13681
6.10132
4.07191
2.95807
3.60516
6.68041
12.5843
21.3989
32.8785
46.4849
61.4587
76.9194
91.9778
105.847
117.934
127.906
135.718
141.597
145.996
149.517
152.815
156.501
161.052
166.748
173.623
181.461
189.815
198.052
205.42
211.124
214.403
214.605
211.25
204.071
193.046
178.399
160.586
140.259
118.214
95.3301
72.4942
50.5365
30.1662
11.9226
-3.85544
-17.0405
-27.706
-36.0972
-42.5872
-47.6236
-51.6735
-55.17
-58.4701
-61.8235
-65.3584
-69.0817
-72.894
-76.6155
-80.0192
-82.8662
-84.9396
-86.0731
-86.1711
-85.2183
-83.2801
-80.493
-77.0479
-73.1685
-69.0877
-65.0243
-61.1642
-57.6447
-54.5465
-51.8909
-49.6436
-47.7237
-46.0159
-44.3855
-42.6944
-40.8157
-38.6471
-36.1203
-33.208
-29.9253
-26.3283
-22.5084
-18.5839
-14.6888
-10.9617
-7.5334
-4.51628
-1.99555
-0.0229945
1.38599
2.25199
2.62813
2.59374
2.24618
1.69146
1.03474
0.371592
-0.219058
-0.679836
-0.977156
-1.10073
-1.0605
-0.881351
-0.596394
-0.239583
0.161204
0.589632
1.04404
1.5377
2.09608
2.75154
3.53629
4.47473
5.57649
6.83142
8.20735
9.65132
11.0942
12.4581
13.6658
14.651
15.3668
15.7931
15.9401
15.8474
15.5807
15.2231
14.866
14.5976
14.4926
14.604
14.9575
15.5499
16.3509
17.3074
18.3508
19.4039
20.3882
21.2305
21.8678
22.2507
22.3457
22.136
21.6217
20.8185
19.7568
18.4793
17.0383
15.4924
13.9026
12.3277
10.8201
9.42218
8.16266
7.0556
6.10018
5.28258
4.57922
3.96107
3.39844
2.8654
2.34342
1.82359
1.30729
0.805143
0.334692
-0.0829386
-0.42679
-0.67965
-0.83098
-0.878781
-0.8302
-0.70086
-0.513082
-0.293349
-0.069487
0.131921
0.287405
0.377428
0.386078
0.299795
0.10556
-0.210926
-0.66652
-1.28095
-2.07597
-3.07342
-4.29254
-5.74694
-7.44175
-9.37133
-11.5178
-13.8505
-16.3261
-18.8897
-21.476
-24.0122
-26.4198
-28.619
-30.532
-32.0881
-33.2289
-33.9124
-34.1185
-33.8517
-33.1433
-32.0512
-30.6576
-29.0638
-27.3831
-25.7316
-24.2178
-22.933
-21.942
-21.2764
-20.9311
-20.865
-21.0051
-21.257
-21.5175
-21.6926
-21.7151
-21.5614
-21.2611
-20.8948
-20.5744
-20.4015
-20.4021
-20.4413
-20.1274
-18.7203
-15.0692
-7.60254
5.6034
26.6608
57.6088
100.071
154.867
221.648
298.602
382.327
467.907
549.22
619.472
671.9
700.554
701.06
671.24
611.497
524.907
416.983
295.153
168.007
44.4155
-67.3604
-160.474
-230.101
-273.804
-291.608
-285.807
-260.543
-221.218
-173.818
-124.247
-77.7277
-38.3506
-8.79001
9.78452
17.6194
16.1384
7.60009
-5.29663
-19.8059
-33.4801
-44.4306
-51.4831
-54.2206
-52.9224
-48.4209
-41.9031
-34.6913
-28.0331
-22.9277
-20.0081
-19.4878
-21.172
-24.5248
-28.7771
-33.0565
-36.5187
-38.4637
-38.4215
-36.1996
-31.8905
-25.84
-18.5866
-10.781
-3.09781
3.84714
9.56653
13.7488
16.2802
17.2413
16.8801
15.5675
13.7429
11.8561
10.3135
9.43614
9.43145
10.384
12.2637
14.9504
18.2713
22.0458
26.1303
30.4557
35.0512
40.0488
45.6657
52.1685
59.8213
68.8288
79.2809
91.1105
104.071
117.737
131.531
144.771
156.73
166.709
174.096
178.419
179.386
176.891
171.017
162.007
150.237
136.174
120.335
103.256
85.4578
67.4283
49.6047
32.3668
16.0332
0.861646
-12.9486
-25.2534
-35.9601
-45.0236
-52.4432
-58.2592
-62.5493
-65.4249
-67.0269
-67.5205
-67.0896
-65.9312
-64.2488
-62.2457
-60.1178
-58.0457
-56.1849
-54.655
-53.5289
-52.8227
-52.4886
-52.4139
-52.4269
-52.3119
-51.8309
-50.752
-48.8791
-46.0807
-42.3122
-37.6289
-32.1866
-26.2298
-20.0688
-14.0477
-8.5077
-3.75064
-0.00724135
2.58618
3.99968
4.30913
3.68366
2.36313
0.628646
-1.22984
-2.9449
-4.29827
-5.13977
-5.39683
-5.07416
-4.2442
-3.03028
-1.58501
-0.067117
1.38031
2.64722
3.66759
4.42275
4.93701
5.26657
5.4838
5.65974
5.84804
6.07344
6.32711
6.56991
6.74321
6.78516
6.64923
6.3213
5.83162
5.25894
4.72536
4.38247
4.39053
4.89405
5.99769
7.74633
10.1127
12.9944
16.2216
19.5737
22.8029
25.6617
27.9301
29.4393
30.0888
29.8546
28.7883
27.008
24.6815
22.0058
19.184
16.4044
13.8218
11.546
9.635
8.09583
6.89076
5.94788
5.17437
4.47048
3.74267
2.91437
1.93356
0.776671
-0.551132
-2.01877
-3.57455
-5.15296
-6.68222
-8.09164
-9.31832
-10.3125
-11.0415
-11.4915
-11.6677
-11.5926
-11.3026
-10.8432
-10.2639
-9.61276
-8.93141
-8.25151
-7.59242
-6.96071
-6.3512
-5.74921
-5.13369
-4.48039
-3.76483
-2.96444
-2.05992
-1.03554
0.121139
1.42013
2.87003
4.47906
6.25586
8.21002
10.352
12.6924
15.2397
17.9971
20.9569
24.0946
27.3613
30.678
33.9313
36.9739
39.6287
41.6997
42.9869
43.3049
42.5034
40.4859
37.2245
32.7688
27.2454
20.8508
13.8346
6.47768
-0.933275
-8.13113
-14.8906
-21.0443
-26.4909
-31.1947
-35.1766
-38.4988
-41.2464
-43.5076
-45.3568
-46.8427
-47.9825
-48.7639
-49.1526
-49.105
-48.5835
-47.5711
-46.0845
-44.1821
-41.9644
-39.5662
-37.1365
-34.8049
-32.6332
-30.5526
-28.2918
-25.3041
-20.7077
-13.257
-1.36563
16.8032
43.1647
79.4622
126.953
186.067
256.084
334.903
418.944
503.252
581.814
648.078
695.627
718.936
714.09
679.381
615.668
526.449
417.625
296.952
173.279
55.6341
-47.7047
-130.047
-186.933
-216.513
-219.609
-199.495
-161.393
-111.802
-57.7099
-5.81914
38.1494
69.9812
87.2836
89.5676
78.1082
55.6171
25.7845
-7.24639
-39.4029
-67.1448
-87.8154
-99.8534
-102.854
-97.4866
-85.2982
-68.4317
-49.3078
-30.308
-13.4999
-0.42987
7.99737
11.5482
10.6058
6.0481
-0.91954
-8.95074
-16.7386
-23.169
-27.4303
-29.072
-28.011
-24.4904
-19.003
-12.193
-4.75057
2.68499
9.60402
15.6776
20.7791
24.9762
28.4988
31.6906
34.9511
38.6793
43.2232
48.8425
55.6853
63.7803
73.0418
83.2866
94.2579
105.654
117.161
128.477
139.342
149.555
158.984
167.569
175.317
182.283
188.556
194.227
199.371
204.021
208.16
211.709
214.534
216.459
217.28
216.789
214.793
211.133
205.694
198.411
189.275
178.327
165.659
151.408
135.759
118.941
101.228
82.9359
64.4214
46.0707
28.2882
11.4777
-3.9785
-17.7437
-29.5501
-39.2197
-46.6789
-51.9662
-55.2305
-56.7194
-56.7598
-55.7301
-54.0283
-52.0388
-50.1001
-48.4788
-47.3497
-46.7864
-46.7625
-47.1618
-47.7988
-48.4445
-48.8566
-48.8094
-48.1218
-46.6778
-44.4406
-41.4559
-37.8465
-33.7972
-29.5339
-25.2972
-21.316
-17.7824
-14.8328
-12.5352
-10.8861
-9.8157
-9.2013
-8.88593
-8.70061
-8.48657
-8.11466
-7.49975
-6.6083
-5.45857
-4.11404
-2.67111
-1.24326
0.0559747
1.1289
1.90625
2.35504
2.48104
2.32587
1.95975
1.47119
0.955519
0.503747
0.193328
0.0817735
0.20356
0.570243
1.17325
1.98847
2.98185
4.11491
5.3498
6.65338
8.00016
9.37394
10.7682
12.1848
13.6314
15.1168
16.6457
18.2119
19.7924
21.342
22.7908
24.0454
24.994
25.5178
25.5057
24.8736
23.5832
21.6586
19.1968
16.3684
13.4061
10.5823
8.17636
6.43611
5.5401
5.56543
6.46777
8.07703
10.1106
12.2028
13.9479
14.9497
14.8725
13.4856
10.6958
6.56374
1.30071
-4.75153
-11.1574
-17.4347
-23.1067
-27.7533
-31.0543
-32.8207
-33.01
-31.7245
-29.1936
-25.7417
-21.7483
-17.6021
-13.6584
-10.2021
-7.42149
-5.39579
-4.09633
-3.40091
-3.11851
-3.02059
-2.87451
-2.47464
-1.66739
-0.3673
1.43704
3.68734
6.26862
9.02874
11.801
14.4268
16.7754
18.7577
20.334
21.5138
22.3489
22.9213
23.3286
23.6667
24.0151
24.4242
24.9072
25.4366
25.9466
26.3396
26.4971
26.2936
25.6108
24.3523
22.4556
19.9006
16.7138
12.9663
8.76776
4.25514
-0.420921
-5.11095
-9.68029
-14.0198
-18.0523
-21.7338
-25.0502
-28.01
-30.6345
-32.9474
-34.9658
-36.694
-38.1202
-39.2179
-39.9506
-40.2793
-40.1709
-39.6077
-38.594
-37.1604
-35.3638
-33.2833
-31.0091
-28.6275
-26.1969
-23.717
-21.0889
-18.0661
-14.1994
-8.78276
-0.809887
11.0392
28.3632
52.9351
86.5169
130.593
186.044
252.803
329.547
413.504
500.42
584.746
660.043
719.586
757.097
767.522
747.734
697.068
617.58
514.004
393.37
264.346
136.355
18.5995
-80.894
-156.095
-203.54
-222.6
-215.415
-186.511
-142.168
-89.6181
-36.1831
11.5396
48.3507
70.9083
77.9346
70.1626
50.0496
21.3116
-11.6511
-44.3586
-72.8097
-93.931
-105.871
-108.118
-101.437
-87.6634
-69.3702
-49.4811
-30.8691
-15.9978
-6.64314
-3.72458
-7.25599
-16.412
-29.691
-45.1453
-60.6452
-74.1405
-83.8892
-88.6297
-87.6819
-80.9743
-68.9999
-52.7154
-33.4004
-12.4958
8.55805
28.4658
46.1907
61.0286
72.6388
81.0319
86.5238
89.6611
91.1325
91.6759
91.9922
92.6752
94.1631
96.7136
100.404
105.152
110.752
116.922
123.354
129.758
135.901
141.625
146.863
151.622
155.974
160.02
163.862
167.569
171.15
174.533
177.557
179.975
181.474
181.699
180.292
176.935
171.383
163.502
153.291
140.895
126.601
110.824
94.0837
76.9695
60.0995
44.0793
29.4595
16.6983
6.13099
-2.05144
-7.81189
-11.265
-12.6631
-12.371
-10.8328
-8.53275
-5.95391
-3.53853
-1.65364
-0.564988
-0.421672
-1.25269
-2.97533
-5.41409
-8.32761
-11.4405
-14.4759
-17.1863
-19.3776
-20.9259
-21.7844
-21.9813
-21.609
-20.8066
-19.7391
-18.5752
-17.4671
-16.5342
-15.8529
-15.453
-15.3198
-15.4024
-15.6257
-15.9039
-16.1543
-16.3091
-16.3233
-16.1792
-15.8852
-15.4719
-14.9839
-14.4708
-13.9772
-13.5348
-13.1567
-12.8348
-12.5405
-12.2287
-11.8421
-11.318
-10.5939
-9.6131
-8.33019
-6.71647
-4.76588
-2.50092
0.0220221
2.70938
5.43067
8.02364
10.3051
12.0874
13.1993
13.5086
12.9445
11.5145
9.3144
6.52704
3.40998
0.271444
-2.56241
-4.78506
-6.147
-6.48734
-5.75532
-4.01813
-1.45418
1.66747
5.01857
8.24976
11.0303
13.0841
14.218
14.3391
13.459
11.6863
9.2084
6.26482
3.1178
0.0218613
-2.80299
-5.19205
-7.0489
-8.34961
-9.13829
-9.51484
-9.61634
-9.5946
-9.59247
-9.72218
-10.0485
-10.5795
-11.2651
-12.006
-12.6687
-13.1071
-13.185
-12.7986
-11.8934
-10.4747
-8.60931
-6.41881
-4.06536
-1.73223
0.398238
2.16608
3.45181
4.18894
4.36964
4.04315
3.30799
2.29923
1.17328
0.0920923
-0.791054
-1.34306
-1.45906
-1.06698
-0.129188
1.35822
3.3678
5.84414
8.70808
11.8613
15.1914
18.5766
21.8908
25.0076
27.8032
30.1591
31.9642
33.1173
33.5304
33.1346
31.8878
29.7838
26.8622
23.2173
19.0027
14.4309
9.7653
5.30454
1.35933
-1.77632
-3.85645
-4.71339
-4.28254
-2.61801
0.10408
3.59599
7.48228
11.3349
14.716
17.2228
18.5305
18.4262
16.8322
13.8134
9.57101
4.4207
-1.23952
-6.9691
-12.3273
-16.9127
-20.3962
-22.5411
-23.209
-22.3462
-19.9494
-16.0108
-10.4439
-2.99977
6.81653
19.8069
37.0981
60.0904
90.321
129.234
177.873
236.527
304.395
379.33
457.735
534.668
604.176
659.846
695.514
706.04
688.042
640.473
564.945
465.742
349.498
224.581
100.243
-14.3405
-111.041
-183.614
-228.315
-244.218
-233.203
-199.623
-149.717
-90.8228
-30.5237
24.192
67.6435
95.9739
107.421
102.326
82.9057
52.8195
16.6168
-20.8754
-55.1388
-82.459
-100.28
-107.39
-103.925
-91.2272
-71.5585
-47.7499
-22.813
0.427368
19.6392
33.1994
40.3019
40.959
35.9053
26.4284
14.1538
0.815348
-11.9595
-22.8254
-30.8388
-35.515
-36.8209
-35.1141
-31.0412
-25.4129
-19.0748
-12.7897
-7.14611
-2.50026
1.0438
3.61827
5.54547
7.271
9.28675
12.0553
15.9452
21.1849
27.839
35.8091
44.8542
54.6293
64.7321
74.7534
84.3228
93.145
101.023
107.864
113.679
118.556
122.641
126.107
129.121
131.821
134.299
136.588
138.655
140.412
141.714
142.373
142.173
140.881
138.269
134.134
128.319
120.739
111.398
100.407
87.9849
74.4532
60.2134
45.7137
31.4065
17.7028
4.93068
-6.69503
-17.0872
-26.282
-34.4155
-41.6866
-48.3112
-54.4757
-60.2977
-65.8017
-70.9104
-75.4567
-79.2111
-81.9208
-83.3551
-83.3476
-81.8309
-78.8571
-74.6023
-69.3537
-63.4826
-57.4061
-51.5443
-46.277
-41.9068
-38.6315
-36.5297
-35.5593
-35.5695
-36.3235
-37.5302
-38.8796
-40.0785
-40.8827
-41.1202
-40.7045
-39.635
-37.9861
-35.8874
-33.4972
-30.9762
-28.463
-26.0561
-23.8053
-21.7106
-19.7312
-17.7992
-15.8378
-13.779
-11.5793
-9.2299
-6.76085
-4.23857
-1.75729
0.573624
2.64477
4.36163
5.65734
6.50163
6.90481
6.9165
6.61935
6.11881
5.53021
4.9651
4.51845
4.25846
4.22016
4.40352
4.77621
5.28043
5.84286
6.38606
6.83974
7.15022
7.28671
7.24358
7.03852
6.70706
6.29454
5.847
5.40232
4.98319
4.59294
4.21458
3.81342
3.34262
2.75078
1.99064
1.02745
-0.153978
-1.54458
-3.10928
-4.78833
-6.50174
-8.15595
-9.65229
-10.8958
-11.8036
-12.3125
-12.3831
-12.0036
-11.1885
-9.97686
-8.42667
-6.60894
-4.60043
-2.47712
-0.309129
1.84213
3.92426
5.89179
7.7024
9.31262
10.6742
11.7324
12.4275
12.6991
12.4942
11.7772
10.5409
8.81664
6.68095
4.25812
1.7167
-0.740118
-2.88966
-4.50931
-5.39817
-5.39842
-4.4136
-2.42149
0.520365
4.27745
8.6493
13.3877
18.22
22.8745
27.1057
30.7146
33.5642
35.5854
36.7757
37.1896
36.9229
36.0948
34.8281
33.2327
31.3936
29.3652
27.1706
24.8086
22.2626
19.5137
16.5513
13.3834
10.0416
6.58208
3.0818
-0.369454
-3.67912
-6.76274
-9.55374
-12.0105
-14.1201
-15.8974
-17.3818
-18.6297
-19.7072
-20.6812
-21.6122
-22.5488
-23.5239
-24.552
-25.6281
-26.725
-27.789
-28.7317
-29.4159
-29.633
-29.0727
-27.2844
-23.6352
-17.2738
-7.112
8.15823
29.9959
59.8767
99.0903
148.48
208.155
277.212
353.542
433.746
513.236
586.519
647.668
690.921
711.36
705.55
672.065
611.813
528.092
426.374
313.816
198.565
88.9355
-7.43735
-84.3659
-137.705
-165.71
-169.112
-150.925
-116.001
-70.4089
-20.714
26.753
66.5519
94.6406
108.688
108.171
94.2551
69.5004
37.4328
2.04655
-32.6991
-63.329
-87.2
-102.716
-109.4
-107.824
-99.4251
-86.237
-70.5815
-54.7568
-40.7642
-30.1007
-23.6351
-21.5758
-23.5211
-28.5805
-35.5409
-43.0546
-49.8221
-54.7488
-57.0586
-56.3551
-52.6307
-46.2279
-37.763
-28.0273
-17.8794
-8.14078
0.492562
7.51787
12.6671
15.9223
17.5065
17.8529
17.5569
17.3161
17.8629
19.8952
24.012
30.657
40.0775
52.2993
67.1221
84.1345
102.747
122.238
141.817
160.684
178.092
193.409
206.159
216.054
223.004
227.114
228.655
228.026
225.701
222.168
217.875
213.17
208.269
203.234
197.973
192.264
185.797
178.225
169.225
158.554
146.093
131.882
116.13
99.21
81.6352
64.0152
47.0058
31.2508
17.3251
5.68372
-3.37812
-9.74893
-13.5083
-14.9159
-14.3837
-12.4346
-9.65068
-6.61742
-3.86889
-1.83985
-0.829752
-0.982136
-2.28132
-4.5662
-7.55906
-10.9056
-14.2215
-17.1395
-19.3522
-20.6461
-20.9226
-20.2046
-18.6293
-16.4278
-13.8951
-11.3541
-9.11827
-7.45678
-6.56649
-6.55293
-7.42197
-9.08258
-11.3594
-14.0132
-16.767
-19.3338
-21.4444
-22.8711
-23.4468
-23.0765
-21.7421
-19.4996
-16.4702
-12.8269
-8.77803
-4.54932
-0.366691
3.5593
7.04634
9.94987
12.1688
13.648
14.377
14.3865
13.7429
12.5415
10.8989
8.94669
6.82467
4.67506
2.63717
0.841816
-0.594748
-1.57772
-2.04106
-1.95459
-1.32961
-0.221796
1.26968
3.00772
4.82747
6.55041
8.00118
9.02504
9.50415
9.37052
8.61398
7.28422
5.48656
3.37186
1.1217
-1.0695
-3.01367
-4.54787
-5.5507
-5.95527
-5.75724
-5.01716
-3.85653
-2.44736
-0.995886
0.278667
1.1682
1.50049
1.1617
0.113938
-1.5947
-3.82919
-6.37669
-8.96511
-11.2897
-13.045
-13.9586
-13.8238
-12.5266
-10.0657
-6.5627
-2.26117
2.48593
7.2406
11.5154
14.8183
16.7036
16.8248
14.9822
11.1615
5.5547
-1.43925
-9.2381
-17.123
-24.3054
-30.0068
-33.5434
-34.4041
-32.3129
-27.2671
-19.5455
-9.68468
1.57364
13.3594
24.7659
34.9458
43.2003
49.0512
52.2867
52.9752
51.4469
48.243
44.0408
39.5622
35.4773
32.3149
30.3914
29.7677
30.2405
31.3706
32.5461
33.072
32.2751
29.6096
24.7474
17.6401
8.54238
-2.00744
-13.2476
-24.2858
-34.2127
-42.2177
-47.6938
-50.3128
-50.0628
-47.2416
-42.4083
-36.3009
-29.7327
-23.483
-18.1992
-14.3231
-12.0505
-11.3293
-11.8922
-13.3176
-15.1049
-16.7507
-17.8109
-17.9338
-16.8589
-14.3745
-10.2432
-4.10493
4.62102
16.8097
33.6538
56.6108
87.2619
127.079
177.119
237.691
308.035
386.094
468.42
550.28
625.951
689.221
734.015
755.099
748.75
713.296
649.463
560.444
451.692
330.441
205.015
84.0025
-24.5906
-114.123
-179.928
-219.695
-233.574
-224.013
-195.356
-153.258
-104.001
-53.7985
-8.15879
28.6139
53.7395
66.0825
66.0756
55.4763
36.9989
13.8794
-10.5692
-33.3583
-52.1388
-65.4016
-72.5524
-73.8648
-70.3326
-63.4476
-54.9409
-46.522
-39.6493
-35.3575
-34.1582
-36.018
-40.4114
-46.4318
-52.9442
-58.7536
-62.7681
-64.1342
-62.3308
-57.212
-48.9978
-38.2188
-25.6254
-12.0775
1.56944
14.5665
26.348
36.5769
45.1537
52.1935
57.9768
62.8846
67.3285
71.6872
76.2567
81.2221
86.6501
92.5034
98.6694
104.998
111.343
117.59
123.683
129.629
135.489
141.362
147.353
153.544
159.969
166.589
173.286
179.861
186.046
191.526
195.963
199.015
200.368
199.75
196.948
191.816
184.29
174.388
162.221
147.995
132.012
114.67
96.4564
77.9274
59.6868
42.3512
26.5099
12.683
1.27987
-7.43481
-13.3646
-16.5896
-17.3593
-16.0683
-13.2192
-9.37524
-5.1083
-0.948415
2.66054
5.3939
7.06512
7.62915
7.17084
5.88035
4.01941
1.88265
-0.241125
-2.10315
-3.52084
-4.39339
-4.7057
-4.52137
-3.96651
-3.20715
-2.42376
-1.78623
-1.43254
-1.45327
-1.88363
-2.70308
-3.8421
-5.19455
-6.63353
-8.02847
-9.26125
-10.2394
-10.9052
-11.2397
-11.2621
-11.0247
-10.6043
-10.0915
-9.58021
-9.15598
-8.88767
-8.82052
-8.97254
-9.33375
-9.86843
-10.5198
-11.2167
-11.8814
-12.4377
-12.8191
-12.975
-12.8757
-12.5152
-11.9107
-11.1004
-10.1387
-9.08953
-8.01914
-6.98842
-6.04655
-5.22631
-4.5418
-3.98877
-3.54742
-3.18709
-2.87216
-2.56807
-2.24678
-1.89076
-1.49506
-1.06739
-0.626211
-0.197326
0.190442
0.509808
0.739129
0.865526
0.886625
0.810777
0.655814
0.446618
0.211889
-0.0193822
-0.221282
-0.373728
-0.464327
-0.489149
-0.452418
-0.365236
-0.243588
-0.105942
0.0292405
0.145743
0.23135
0.278946
0.286911
0.258836
0.202704
0.129719
0.0530155
-0.0135231
-0.0561154
-0.0614744
-0.0166987
0.0912411
0.276207
0.553492
0.93998
1.45361
2.11194
2.92989
3.91676
5.07291
6.38669
7.83211
9.36789
10.9383
12.4762
13.908
15.1606
16.1698
16.8886
17.2958
17.4021
17.2544
16.9356
16.5606
16.2681
16.2088
16.5311
17.3654
18.8095
20.9163
23.6845
27.0546
30.9102
35.0831
39.3648
43.5195
47.3
50.4633
52.7867
54.0801
54.198
53.0481
50.5974
46.8758
41.9767
36.0544
29.3174
22.0182
14.4397
6.87869
-0.373016
-7.04679
-12.9146
-17.8032
-21.6042
-24.2784
-25.8551
-26.4249
-26.1288
-25.1421
-23.6579
-21.8689
-19.9526
-18.0596
-16.3082
-14.7847
-13.5495
-12.6456
-12.1061
-11.9549
-12.1963
-12.7877
-13.5934
-14.3229
-14.4594
-13.1925
-9.37208
-1.50506
12.1867
33.6321
64.6965
106.898
161.079
227.081
303.465
387.353
474.422
559.102
634.977
695.369
734.043
745.957
727.94
679.225
601.718
499.973
380.852
252.89
125.454
7.78181
-91.9709
-167.557
-215.239
-234.092
-225.981
-195.222
-147.985
-91.515
-33.2787
19.86
62.3381
90.3919
102.309
98.4257
80.8823
53.1966
19.7109
-15.0038
-46.7139
-71.9933
-88.5502
-95.3846
-92.7741
-82.1061
-65.5913
-45.9075
-25.8214
-7.83885
6.0763
14.6886
17.5677
15.0587
8.15898
-1.67169
-12.7394
-23.3493
-32.0146
-37.6193
-39.5172
-37.5638
-32.0819
-23.7738
-13.5943
-2.60532
8.1687
17.8668
25.8847
31.9268
36.014
38.4498
39.753
40.5688
41.5697
43.3622
46.4092
50.9764
57.1097
64.6427
73.2322
82.4156
91.6816
100.545
108.615
115.648
121.575
126.508
130.714
134.567
138.485
142.86
147.982
153.986
160.811
168.185
175.639
182.544
188.174
191.781
192.676
190.305
184.315
174.598
161.311
144.873
125.933
105.324
83.9935
62.927
43.0731
25.2682
10.1745
-1.76555
-10.3546
-15.6443
-17.9169
-17.6478
-15.4527
-12.0252
-8.07
-4.23982
-1.08068
1.00889
1.80143
1.24537
-0.548332
-3.33533
-6.77873
-10.4964
-14.1088
-17.2827
-19.7641
-21.3999
-22.1442
-22.0513
-21.2574
-19.9533
-18.3541
-16.6688
-15.0737
-13.694
-12.5937
-11.7749
-11.186
-10.7369
-10.3179
-9.81929
-9.1505
-8.2536
-7.1117
-5.75055
-4.23379
-2.65283
-1.1132
0.280833
1.44091
2.30669
2.85386
3.09695
3.087
2.90435
2.64792
2.42239
2.32525
2.43531
2.80414
3.45115
4.36228
5.49203
6.76773
8.09538
9.36624
10.464
11.2726
11.6843
11.609
10.9834
9.7808
8.01846
5.76321
3.13256
0.290688
-2.56124
-5.20033
-7.40189
-8.96218
-9.72171
-9.58618
-8.5422
-6.66543
-4.11936
-1.1442
1.96342
4.87794
7.27648
8.87101
9.43739
8.83781
7.03439
4.09242
0.173351
-4.48136
-9.5735
-14.7755
-19.7592
-24.2226
-27.9132
-30.6443
-32.3057
-32.8665
-32.3718
-30.9337
-28.7177
-25.927
-22.784
-19.5125
-16.3204
-13.3844
-10.8389
-8.76761
-7.20104
-6.11879
-5.45645
-5.11669
-4.98308
-4.93509
-4.86255
-4.67778
-4.32427
-3.78089
-3.06135
-2.20935
-1.29008
-0.379438
0.447959
1.13025
1.62823
1.9325
2.06722
2.08999
2.08827
2.17253
2.46683
3.09748
4.18006
5.80538
8.0251
10.8383
14.1804
17.9177
21.8475
25.708
29.1958
31.9919
33.7931
34.3439
33.4676
31.0901
27.2535
22.1193
15.9589
9.13272
2.06193
-4.80657
-11.0365
-16.2375
-20.0966
-22.4023
-23.062
-22.1076
-19.6923
-16.076
-11.6004
-6.65579
-1.64252
3.0691
7.17564
10.4694
12.855
14.3516
15.0798
15.235
15.0511
14.7599
14.552
14.546
14.7701
15.1608
15.5802
15.8521
15.817
15.4026
14.7063
14.0824
14.223
16.2172
21.5678
32.1436
50.0494
77.4019
116.02
167.054
230.609
305.418
388.647
475.886
561.369
638.425
700.125
740.045
753.055
736.015
688.273
611.89
511.55
394.154
268.138
142.615
26.4372
-72.7092
-149.05
-199.237
-222.577
-220.939
-198.398
-160.639
-114.227
-65.8265
-21.4703
14.0404
37.5449
47.7065
44.9671
31.299
9.80066
-15.8002
-41.6688
-64.3444
-81.1267
-90.3294
-91.3841
-84.7952
-71.9675
-54.9402
-36.0692
-17.7034
-1.89448
9.82508
16.5769
18.1756
15.0774
8.25487
-0.978734
-11.167
-20.9027
-28.9909
-34.5656
-37.1509
-36.6663
-33.3813
-27.8337
-20.725
-12.8107
-4.79945
2.72696
9.3654
14.9125
19.3565
22.8461
25.6425
28.0652
30.4381
33.0455
36.0999
39.7265
43.964
48.7778
54.085
59.7826
65.7774
72.01
78.4695
85.1966
92.2744
99.8072
107.891
116.583
125.866
135.629
145.65
155.6
165.055
173.529
180.507
185.494
188.06
187.875
184.746
178.628
169.633
158.023
144.186
128.611
111.858
94.5215
77.1975
60.4532
44.7986
30.6632
18.3771
8.15608
0.0945888
-5.83641
-9.78323
-11.996
-12.8082
-12.6101
-11.8185
-10.8449
-10.0647
-9.78959
-10.2456
-11.5575
-13.7414
-16.7055
-20.2591
-24.1305
-27.9916
-31.4882
-34.2743
-36.0465
-36.5767
-35.7383
-33.5239
-30.0513
-25.5573
-20.3789
-14.9224
-9.62624
-4.91812
-1.17379
1.31928
2.38893
1.99326
0.222024
-2.71507
-6.51166
-10.7965
-15.1699
-19.2411
-22.6624
-25.157
-26.5379
-26.7173
-25.7048
-23.5979
-20.5629
-16.8127
-12.582
-8.10393
-3.5909
0.778782
4.86696
8.57521
11.8388
14.6175
16.8849
18.6196
19.7995
20.3999
20.3967
19.7732
18.5291
16.6898
14.3151
11.5033
8.39143
5.15024
1.97366
-0.935215
-3.38076
-5.19194
-6.23815
-6.44215
-5.789
-4.33022
-2.18273
0.477532
3.42708
6.41074
9.16086
11.4184
12.954
13.5873
13.2023
11.7572
9.28842
5.90701
1.78941
-2.8376
-7.71552
-12.5748
-17.1553
-21.2252
-24.5966
-27.1359
-28.7708
-29.4902
-29.3406
-28.4178
-26.8555
-24.8117
-22.4542
-19.947
-17.4378
-15.0482
-12.8679
-10.9514
-9.3201
-7.96597
-6.85893
-5.9549
-5.20421
-4.55912
-3.97949
-3.43623
-2.9122
-2.40088
-1.90309
-1.42275
-0.962129
-0.517753
-0.0773526
0.381474
0.890814
1.49035
2.22405
3.13634
4.26825
5.65436
7.32042
9.28209
11.544
14.0991
16.9276
19.995
23.2503
26.623
30.0214
33.3321
36.4219
39.1425
41.3389
42.8604
43.5744
43.3807
42.2246
40.1074
37.0923
33.3043
28.9234
24.1717
19.2954
14.5438
10.1469
6.29519
3.12379
0.702116
-0.968784
-1.95167
-2.36186
-2.35085
-2.08705
-1.73601
-1.4425
-1.31658
-1.42506
-1.78892
-2.38689
-3.1641
-4.04458
-4.9458
-5.79288
-6.53049
-7.1297
-7.58738
-7.91533
-8.11633
-8.14473
-7.85079
-6.91102
-4.7523
-0.483441
7.14489
19.7273
39.1137
67.2259
105.78
155.935
217.918
290.678
371.655
456.728
540.384
616.132
677.115
716.877
730.16
713.634
666.442
590.471
490.301
372.82
246.562
120.828
4.71991
-93.8009
-168.706
-216.459
-236.268
-230.024
-201.936
-157.929
-104.883
-49.8256
0.844504
41.9885
70.1675
83.8469
83.3613
70.6665
48.9263
21.9994
-6.10285
-31.719
-51.944
-64.9008
-69.8567
-67.1875
-58.2085
-44.9083
-29.626
-14.7189
-2.26107
6.1918
9.75076
8.24423
2.17539
-7.39943
-19.0483
-31.1698
-42.1995
-50.791
-55.9533
-57.131
-54.2255
-47.5596
-37.7989
-25.8416
-12.6962
0.639214
13.281
24.5385
33.9607
41.3517
46.756
50.4216
52.747
54.2219
55.3679
56.6866
58.6165
61.504
65.5846
70.9763
77.6816
85.5966
94.5259
104.201
114.304
124.489
134.405
143.728
152.174
159.523
165.633
170.447
173.99
176.359
177.705
178.204
178.023
177.292
176.069
174.325
171.938
168.699
164.338
158.56
151.09
141.723
130.366
117.078
102.08
85.7653
68.6683
51.4289
34.7346
19.2564
5.58373
-5.83187
-14.7188
-21.007
-24.8268
-26.4856
-26.4269
-25.1749
-23.2748
-21.2337
-19.4711
-18.2826
-17.8217
-18.0986
-18.9976
-20.3061
-21.7538
-23.0552
-23.9501
-24.2379
-23.8023
-22.6234
-20.7771
-18.423
-15.7818
-13.1071
-10.6541
-8.65017
-7.26932
-6.61486
-6.71056
-7.50125
-8.86197
-10.6142
-12.5466
-14.4382
-16.0806
-17.2979
-17.9618
-18.0008
-17.4035
-16.2153
-14.5304
-12.4789
-10.2121
-7.8866
-5.64946
-3.62538
-1.90752
-0.552196
0.422288
1.0328
1.32539
1.3669
1.23556
1.01152
0.768546
0.567558
0.452675
0.44971
0.566957
0.797733
1.12398
1.52022
1.9573
2.40551
2.83709
3.22813
3.56006
3.8209
4.00612
4.11879
4.1689
4.17149
4.14375
4.10141
4.05496
4.00633
3.94684
3.85673
3.70673
3.46159
3.08503
2.54582
1.82371
0.914578
-0.166246
-1.38299
-2.68104
-3.99106
-5.23504
-6.33364
-7.21397
-7.81678
-8.10237
-8.05448
-7.68183
-7.01716
-6.11401
-5.04164
-3.87856
-2.70555
-1.59865
-0.623007
0.172125
0.756566
1.12059
1.27442
1.24601
1.07742
0.820134
0.529749
0.260377
0.0593197
-0.0375625
-0.00930772
0.148293
0.422748
0.786992
1.20353
1.63033
2.02791
2.36688
2.63496
2.84256
3.02587
3.247
3.59065
4.15769
5.05614
6.39065
8.25183
10.7066
13.7908
17.5048
21.8117
26.6381
31.8772
37.3918
43.0185
48.5705
53.8419
58.6112
62.6469
65.7156
67.593
68.0789
67.0152
64.3059
59.9376
53.995
46.6712
38.2666
29.1771
19.8689
10.8427
2.58953
-4.45539
-9.95733
-13.7174
-15.6946
-16.0112
-14.9401
-12.8755
-10.2901
-7.68426
-5.5331
-4.23709
-4.08274
-5.21677
-7.63641
-11.1963
-15.63
-20.5832
-25.6533
-30.4312
-34.5374
-37.6484
-39.5055
-39.903
-38.6501
-35.5097
-30.1187
-21.9027
-10.0053
6.74256
29.7882
60.7349
101.126
152.143
214.256
286.871
368.06
454.42
541.141
622.291
691.326
741.775
768.006
765.982
733.884
672.497
585.298
478.207
359.032
236.66
120.117
17.606
-64.3482
-121.54
-152.43
-158.174
-142.334
-110.323
-68.6723
-24.2194
16.688
48.8637
68.7661
74.7462
67.0501
47.5954
19.57
-13.084
-46.226
-76.043
-99.4824
-114.55
-120.447
-117.55
-107.247
-91.6637
-73.3324
-54.836
-38.4874
-26.0705
-18.673
-16.6221
-19.5198
-26.3643
-35.7342
-46.0056
-55.5728
-63.0439
-67.3907
-68.0384
-64.8905
-58.2922
-48.9437
-37.7784
-25.8255
-14.0746
-3.35934
5.72807
12.8839
18.1003
21.6369
23.9642
25.689
27.4733
29.9574
33.6939
39.0994
46.4253
55.747
66.9709
79.8542
94.034
109.063
124.445
139.674
154.266
167.788
179.879
190.269
198.781
205.339
209.955
212.723
213.795
213.367
211.65
208.851
205.15
200.682
195.524
189.691
183.14
175.78
167.493
158.155
147.667
135.979
123.116
109.193
94.424
79.1179
63.6628
48.4996
34.0871
20.8627
9.20432
-0.601497
-8.38125
-14.0831
-17.7727
-19.6176
-19.8648
-18.8153
-16.7987
-14.1527
-11.2066
-8.26908
-5.61989
-3.50229
-2.11569
-1.60748
-2.0643
-3.50386
-5.86906
-9.02637
-12.7703
-16.8348
-20.9118
-24.6755
-27.8109
-30.0431
-31.1642
-31.0551
-29.6995
-27.1875
-23.7094
-19.5388
-15.0087
-10.4797
-6.30737
-2.80845
-0.231113
1.26866
1.6423
0.953875
-0.625621
-2.83465
-5.34722
-7.80644
-9.86254
-11.2113
-11.6287
-10.9975
-9.32156
-6.72757
-3.45069
0.192262
3.84013
7.13057
9.7435
11.4395
12.0878
11.681
10.3326
8.26034
5.755
3.14063
0.731176
-1.21007
-2.50247
-3.06706
-2.93009
-2.21156
-1.10124
0.173189
1.38041
2.31657
2.82896
2.82957
2.29772
1.27319
-0.157741
-1.87977
-3.76624
-5.69415
-7.55463
-9.25846
-10.737
-11.9399
-12.8312
-13.386
-13.5876
-13.4275
-12.9067
-12.0387
-10.8529
-9.39611
-7.73377
-5.94756
-4.13098
-2.3825
-0.79729
0.541483
1.57062
2.25301
2.581
2.57662
2.28861
1.78646
1.15258
0.47322
-0.170466
-0.71023
-1.09661
-1.30222
-1.32236
-1.17292
-0.886113
-0.504586
-0.0747311
0.360084
0.765536
1.12104
1.42265
1.68402
1.9353
2.22024
2.59166
3.1055
3.81386
4.75738
5.95756
7.40975
9.07809
10.8935
12.7565
14.5449
16.1273
17.3806
18.2096
18.5643
18.4539
17.9519
17.1921
16.3552
15.6455
15.2634
15.3741
16.0793
17.3959
19.244
21.4483
23.7523
25.845
27.3965
28.0976
27.699
26.0446
23.0935
18.9289
13.7519
7.8612
1.62155
-4.57521
-10.3514
-15.3821
-19.4262
-22.3466
-24.1185
-24.8227
-24.6296
-23.7719
-22.514
-21.119
-19.8195
-18.7942
-18.1534
-17.9342
-18.1049
-18.5772
-19.2244
-19.9009
-20.4628
-20.7827
-20.7587
-20.3119
-19.3703
-17.835
-15.5297
-12.1348
-7.11471
0.347592
11.3897
27.459
50.2316
81.4451
122.646
174.868
238.284
311.882
393.239
478.454
562.291
638.539
700.594
742.169
758.077
744.949
701.788
630.271
534.733
421.813
299.825
177.898
65.0154
-30.9263
-103.928
-150.459
-169.729
-163.636
-136.409
-94.0026
-43.331
8.56017
55.2778
91.7325
114.588
122.468
115.92
97.1503
69.596
37.3833
4.76053
-24.4306
-47.1815
-61.5994
-67.0261
-63.9923
-54.0296
-39.3778
-22.633
-6.3854
7.10468
16.1588
19.834
17.9704
11.1355
0.484635
-12.4376
-25.9242
-38.3299
-48.2646
-54.7363
-57.2323
-55.7336
-50.6704
-42.8298
-33.2321
-22.9948
-13.2009
-4.78626
1.54385
5.36371
6.54248
5.22937
1.81621
-3.11422
-8.84607
-14.5884
-19.5294
-22.8861
-23.9495
-22.1257
-16.9741
-8.23939
4.12476
19.9444
38.8304
60.2013
83.3242
107.369
131.472
154.801
176.609
196.284
213.369
227.57
238.741
246.856
251.968
254.176
253.589
250.309
244.42
235.998
225.128
211.933
196.596
179.39
160.683
140.943
120.719
100.611
81.2317
63.1587
46.8895
32.8022
21.1258
11.9253
5.10203
0.409385
-2.51768
-4.12294
-4.88324
-5.26189
-5.66606
-6.41263
-7.70582
-9.62834
-12.1462
-15.126
-18.3611
-21.6042
-24.6007
-27.12
-28.9803
-30.0653
-30.3318
-29.8072
-28.5798
-26.7827
-24.5747
-22.1209
-19.5747
-17.0634
-14.6792
-12.4753
-10.4679
-8.64166
-6.96007
-5.37633
-3.84537
-2.3344
-0.831075
0.651772
2.07551
3.37938
4.48824
5.32366
5.8169
5.92229
5.62865
4.96714
4.01359
2.88449
1.72659
0.700911
-0.0367848
-0.356557
-0.172989
0.54077
1.74583
3.33861
5.1603
7.01397
8.68716
9.97744
10.7175
10.7966
10.1758
8.89459
7.06789
4.87458
2.53766
0.299309
-1.60673
-2.98195
-3.68614
-3.65385
-2.90249
-1.531
0.290614
2.33977
4.36546
6.11541
7.36301
7.93101
7.70945
6.66599
4.84775
2.37493
-0.572919
-3.77599
-6.9964
-10.0009
-12.5821
-14.5746
-15.8673
-16.4079
-16.2019
-15.3067
-13.8225
-11.8825
-9.64361
-7.27968
-4.97637
-2.92669
-1.32522
-0.358911
-0.193335
-0.954377
-2.70704
-5.4346
-9.02235
-13.2503
-17.7986
-22.268
-26.2145
-29.196
-30.8255
-30.8232
-29.0601
-25.5859
-20.636
-14.6143
-8.05463
-1.56242
4.2534
8.85152
11.8221
12.935
12.1665
9.70033
5.90447
1.28588
-3.56968
-8.06509
-11.6576
-13.9151
-14.5561
-13.4693
-10.7128
-6.49284
-1.12744
4.99917
11.4853
17.9567
24.1028
29.6993
34.6163
38.8123
42.3141
45.1898
47.5172
49.3537
50.714
51.5583
51.7924
51.2824
49.8774
47.4406
43.8796
39.1747
33.3968
26.7152
19.3911
11.7593
4.19976
-2.89804
-9.17198
-14.3222
-18.139
-20.5214
-21.4832
-21.148
-19.7327
-17.5224
-14.84
-12.0135
-9.34476
-7.08333
-5.40699
-4.41138
-4.1087
-4.43499
-5.26444
-6.42854
-7.73706
-8.99796
-10.0325
-10.6818
-10.801
-10.236
-8.78206
-6.12146
-1.74876
5.10652
15.5386
30.9798
53.1421
83.8645
124.858
177.363
241.757
317.184
401.275
490.035
577.974
658.472
724.391
768.85
786.074
772.19
725.852
648.596
544.853
421.618
287.785
153.248
27.8708
-79.5418
-162.143
-215.705
-238.961
-233.606
-203.961
-156.353
-98.3136
-37.682
18.261
63.5348
93.9955
107.621
104.527
86.7422
57.7757
22.0635
-15.6442
-50.8689
-79.8982
-100.139
-110.301
-110.408
-101.646
-86.0963
-66.3848
-45.3048
-25.4628
-8.98403
2.68915
8.89451
9.74018
6.00149
-1.05273
-9.87556
-18.8677
-26.5843
-31.8996
-34.1128
-32.9888
-28.7355
-21.9273
-13.3901
-4.06676
5.11865
13.38
20.1584
25.1737
28.4348
30.2129
30.9829
31.3453
31.9387
33.3558
36.0721
40.3946
46.4362
54.1143
63.1728
73.223
83.7947
94.393
104.552
113.88
122.091
129.026
134.65
139.044
142.381
144.894
146.838
148.458
149.947
151.424
152.907
154.306
155.424
155.973
155.605
153.94
150.62
145.342
137.91
128.259
116.483
102.84
87.7435
71.7355
55.4485
39.5532
24.7014
11.4693
0.306976
-8.50004
-14.8526
-18.8406
-20.7272
-20.9149
-19.8999
-18.2183
-16.3911
-14.8749
-14.0217
-14.053
-15.0504
-16.9607
-19.6158
-22.7634
-26.1031
-29.3252
-32.1465
-34.3391
-35.7512
-36.3161
-36.0523
-35.0529
-33.4687
-31.4864
-29.3054
-27.115
-25.0759
-23.3063
-21.8744
-20.7967
-20.0428
-19.544
-19.2061
-18.9236
-18.5934
-18.128
-17.4654
-16.5751
-15.4596
-14.1515
-12.7063
-11.1918
-9.67681
-8.21956
-6.85916
-5.61121
-4.46862
-3.40778
-2.39869
-1.41706
-0.455627
0.467988
1.30901
1.99981
2.46035
2.61321
2.40039
1.79876
0.831303
-0.428319
-1.85897
-3.30286
-4.58275
-5.52289
-5.97097
-5.81768
-5.0112
-3.56466
-1.55554
0.882726
3.57573
6.32747
8.94165
11.242
13.0892
14.3929
15.1165
15.2762
14.9333
14.1824
13.1364
11.9113
10.612
9.32186
8.09545
6.95697
5.90255
4.90624
3.92839
2.92485
1.85562
0.691923
-0.579273
-1.95345
-3.40943
-4.91241
-6.41845
-7.87961
-9.24872
-10.4832
-11.5478
-12.4151
-13.0658
-13.4869
-13.6704
-13.6121
-13.3106
-12.7679
-11.991
-10.9935
-9.79821
-8.4386
-6.95985
-5.41787
-3.87682
-2.40498
-1.06941
0.0700443
0.966451
1.59059
1.93398
2.00986
1.85167
1.50953
1.04481
0.52379
0.0111001
-0.435913
-0.77092
-0.959615
-0.977561
-0.805143
-0.420599
0.207239
1.12444
2.39377
4.09108
6.2958
9.07574
12.4682
16.4602
20.9719
25.8465
30.8505
35.6855
40.0118
43.4804
45.7718
46.6333
45.9124
43.5792
39.7359
34.6109
28.5386
21.9272
15.2184
8.84478
3.18859
-1.45161
-4.88443
-7.03631
-7.94946
-7.76806
-6.71522
-5.06403
-3.10607
-1.12115
0.648933
2.02016
2.87829
3.18265
2.9622
2.30526
1.34477
0.24173
-0.830127
-1.69458
-2.17373
-2.07488
-1.16003
0.902512
4.60047
10.6431
20.0126
33.9786
54.0508
81.8504
118.891
166.282
224.379
292.453
368.424
448.752
528.528
601.792
662.073
703.087
719.512
707.725
666.388
596.783
502.849
390.875
268.904
145.911
30.8571
-68.2529
-145.193
-196.118
-219.87
-217.971
-194.304
-154.547
-105.435
-53.9406
-6.49919
31.6556
56.9601
67.7573
64.2903
48.4752
23.4986
-6.69503
-37.9558
-66.4486
-89.0818
-103.802
-109.73
-107.141
-97.3044
-82.214
-64.2648
-45.9089
-29.3436
-16.2643
-7.70816
-3.99615
-4.77281
-9.12687
-15.7696
-23.2421
-30.1223
-35.2049
-37.6351
-36.983
-33.2553
-26.8494
-18.4621
-8.96695
0.718552
9.76011
17.5112
23.5841
27.8811
30.5857
32.1166
33.0554
34.0578
35.7608
38.6985
43.2364
49.5309
57.5167
66.9239
77.3178
88.1574
98.8627
108.883
117.757
125.159
130.925
135.059
137.717
139.177
139.788
139.925
139.927
140.054
140.445
141.099
141.867
142.464
142.504
141.547
139.15
134.932
128.621
120.102
109.441
96.8914
82.8786
67.9686
52.8179
38.1154
24.5209
12.6066
2.8087
-4.60684
-9.5606
-12.1576
-12.6676
-11.4906
-9.11302
-6.0582
-2.83817
0.0896699
2.35682
3.70664
4.0051
3.2396
1.5072
-1.00557
-4.04879
-7.3381
-10.5838
-13.5175
-15.9141
-17.6078
-18.5009
-18.5666
-17.8446
-16.432
-14.4709
-12.1335
-9.60714
-7.08024
-4.72995
-2.71254
-1.15633
-0.157219
0.223466
-0.0408251
-0.943176
-2.4457
-4.48285
-6.96529
-9.78408
-12.815
-15.9233
-18.9678
-21.8063
-24.2997
-26.3178
-27.7441
-28.4813
-28.4574
-27.6309
-25.997
-23.5922
-20.4982
-16.8431
-12.7999
-8.58073
-4.42682
-0.594545
2.66247
5.11338
6.57078
6.90993
6.08441
4.13627
1.199
-2.50768
-6.69131
-11.008
-15.0896
-18.5748
-21.1409
-22.5328
-22.587
-21.2466
-18.5679
-14.7149
-9.94503
-4.58607
0.993051
6.4144
11.323
15.4153
18.4617
20.3209
20.9452
20.3763
18.7342
16.1995
12.9928
9.35366
5.52091
1.71686
-1.86426
-5.06312
-7.75808
-9.86484
-11.3341
-12.1487
-12.3207
-11.8897
-10.9216
-9.50787
-7.76464
-5.8301
-3.85982
-2.01916
-0.472392
0.630858
1.17093
1.07335
0.321772
-1.03364
-2.87447
-5.02018
-7.24238
-9.28622
-10.8968
-11.8474
-11.9657
-11.1551
-9.40634
-6.79994
-3.49664
0.281794
4.27959
8.2382
11.9279
15.1757
17.8862
20.0532
21.7591
23.1645
24.4868
25.9712
27.8583
30.3508
33.585
37.6092
42.3722
47.7228
53.4192
59.1484
64.5506
69.2491
72.8793
75.1186
75.7119
74.4941
71.4075
66.5122
59.9896
52.1365
43.3482
34.0909
24.8638
16.1531
8.38333
1.87038
-3.2157
-6.87323
-9.27075
-10.7262
-11.664
-12.5545
-13.844
-15.8852
-18.8786
-22.8347
-27.5636
-32.6933
-37.7155
-42.0524
-45.1343
-46.4765
-45.7466
-42.8097
-37.749
-30.8558
-22.5914
-13.5241
-4.24575
4.72629
13.054
20.6827
27.9326
35.5649
44.8052
57.3061
75.0343
100.074
134.351
179.296
235.49
302.339
377.849
458.545
539.59
615.113
678.735
724.23
746.261
741.062
707.007
644.93
558.192
452.423
335.007
214.341
98.9782
-3.25546
-86.0385
-145.153
-178.827
-187.787
-175.033
-145.37
-104.765
-59.614
-16.0236
20.8315
47.1846
60.9536
61.7995
50.9768
31.0133
5.27146
-22.5453
-48.8764
-70.722
-85.9491
-93.4615
-93.2252
-86.1607
-73.93
-58.6523
-42.5939
-27.8713
-16.2026
-8.73495
-5.95974
-7.71842
-13.2883
-21.5294
-31.0685
-40.4923
-48.5256
-54.1737
-56.8141
-56.2326
-52.6035
-46.4242
-38.416
-29.4084
-20.2218
-11.5659
-3.96345
2.29416
7.15578
10.7884
13.5301
15.8265
18.1618
20.9937
24.6997
29.5408
35.6456
43.0129
51.5303
61.0041
71.1939
81.8466
92.7236
103.62
114.373
124.858
134.984
144.673
153.85
162.426
170.286
177.289
183.263
188.016
191.346
193.053
192.961
190.932
186.885
180.81
172.774
162.929
151.504
138.796
125.148
110.931
96.5142
82.2399
68.4027
55.2314
42.8801
31.4287
20.8916
11.2323
2.38359
-5.73271
-13.1875
-20.031
-26.286
-31.9472
-36.9872
-41.3659
-45.0427
-47.9878
-50.191
-51.6674
-52.4579
-52.6256
-52.2493
-51.4143
-50.2034
-48.689
-46.9279
-44.9588
-42.8034
-40.4699
-37.958
-35.2648
-32.3894
-29.3362
-26.1161
-22.7466
-19.251
-15.6577
-12.0022
-8.32926
-4.69804
-1.18639
2.10545
5.05443
7.5188
9.34756
10.3951
10.54
9.70522
7.87693
5.11917
1.58021
-2.51047
-6.85593
-11.1151
-14.9334
-17.9776
-19.9696
-20.716
-20.1296
-18.2392
-15.1882
-11.221
-6.65951
-1.87246
2.75921
6.87675
10.1743
12.4232
13.4864
13.3245
11.99
9.61496
6.3917
2.55099
-1.65906
-5.99121
-10.2125
-14.1125
-17.5081
-20.2449
-22.199
-23.2791
-23.4312
-22.6437
-20.9534
-18.4507
-15.2802
-11.6368
-7.75631
-3.89844
-0.326257
2.71814
5.03756
6.50052
7.05581
6.73842
5.66567
4.0235
2.04458
-0.019154
-1.92587
-3.47114
-4.50971
-4.9688
-4.85161
-4.23104
-3.23486
-2.02505
-0.774349
0.356708
1.23911
1.78892
1.97377
1.81195
1.3651
0.725882
0.00288253
-0.695087
-1.27305
-1.66061
-1.81823
-1.73865
-1.44369
-0.977356
-0.396503
0.239409
0.87811
1.48259
2.03664
2.54736
3.04477
3.57875
4.21431
5.0257
6.09067
7.48507
9.27858
11.5312
14.2908
17.5902
21.4456
25.8531
30.7867
36.1942
41.995
48.0772
54.2957
60.4723
66.397
71.8327
76.5234
80.2058
82.6263
83.5611
82.8381
80.3593
76.119
70.216
62.856
54.3436
45.0625
35.4472
25.9466
16.9862
8.93147
2.05755
-3.47098
-7.609
-10.4269
-12.0955
-12.8614
-13.0169
-12.8676
-12.7013
-12.7619
-13.2297
-14.2102
-15.7309
-17.7457
-20.1461
-22.7762
-25.4509
-27.9741
-30.1549
-31.8203
-32.8202
-33.0229
-32.2963
-30.4721
-27.2927
-22.344
-14.9831
-4.2804
11.0039
32.3793
61.5012
99.9519
148.938
208.936
279.342
358.195
442.05
526.052
604.241
670.079
717.142
739.896
734.444
699.125
634.884
545.33
436.472
316.154
193.256
76.7677
-25.1555
-106.022
-161.632
-190.419
-193.484
-174.322
-138.291
-91.9054
-42.0436
4.83285
43.3489
69.7104
81.9751
80.0857
65.6825
41.7343
12.0494
-19.2656
-48.329
-71.9288
-87.8419
-95.0035
-93.5177
-84.5263
-69.9643
-52.2423
-33.904
-17.2999
-4.31829
3.80099
6.55542
4.16951
-2.50279
-12.1426
-23.1708
-33.9636
-43.0521
-49.2834
-51.9261
-50.7156
-45.8379
-37.8608
-27.6272
-16.1265
-4.36286
6.76351
16.5492
24.5454
30.5788
34.7352
37.3152
38.7687
39.6195
40.3932
41.5538
43.4591
46.3369
50.2814
55.2687
61.1845
67.8583
75.0988
82.7222
90.573
98.5334
106.522
114.483
122.373
130.146
137.735
145.046
151.953
158.301
163.911
168.593
172.158
174.421
175.217
174.4
171.851
167.476
161.217
153.056
143.028
131.231
117.844
103.132
87.4519
71.2485
55.0328
39.354
24.7591
11.7467
0.720272
-8.0518
-14.4652
-18.591
-20.6686
-21.0797
-20.3057
-18.8756
-17.3077
-16.0564
-15.4658
-15.7401
-16.9303
-18.9406
-21.5512
-24.4548
-27.3016
-29.746
-31.4897
-32.3161
-32.1117
-30.874
-28.7041
-25.788
-22.3685
-18.7129
-15.0803
-11.6934
-8.71708
-6.24692
-4.30692
-2.85698
-1.80741
-1.03825
-0.420236
0.165504
0.811562
1.57388
2.46775
3.47005
4.52661
5.56319
6.49784
7.25274
7.76358
7.98548
7.895
7.48899
6.78132
5.79919
4.58003
3.16993
1.62344
0.00423926
-1.61446
-3.15071
-4.51674
-5.62408
-6.39081
-6.74994
-6.65792
-6.10192
-5.10478
-3.72663
-2.06292
-0.238589
1.60097
3.30142
4.71234
5.70004
6.15907
6.02125
5.26113
3.89736
1.98961
-0.368419
-3.05926
-5.95364
-8.92237
-11.8465
-14.6244
-17.1744
-19.4342
-21.3569
-22.9061
-24.0507
-24.762
-25.0134
-24.7829
-24.0585
-22.8441
-21.166
-19.0771
-16.6576
-14.013
-11.2674
-8.55386
-6.00317
-3.73198
-1.83219
-0.362933
0.653832
1.23387
1.42735
1.31247
0.986918
0.558336
0.134873
-0.183438
-0.311877
-0.186555
0.231798
0.955704
1.97036
3.23443
4.68226
6.22722
7.76644
9.18653
10.3704
11.2044
11.5868
11.4347
10.6924
9.3379
7.38922
4.90916
2.00879
-1.15118
-4.36158
-7.36975
-9.88915
-11.6145
-12.2429
-11.4997
-9.16759
-5.11552
0.675971
8.09716
16.9023
26.7156
37.0515
47.3471
57.0049
65.4425
72.1421
76.6972
78.8488
78.5083
75.7648
70.874
64.2324
56.3383
47.7443
39.0075
30.6409
23.0736
16.6206
11.467
7.66557
5.14783
3.7458
3.2213
3.29888
3.69856
4.16487
4.48939
4.52519
4.19254
3.47621
2.41604
1.09252
-0.390246
-1.92171
-3.40039
-4.74602
-5.90755
-6.86655
-7.63652
-8.2585
-8.79366
-9.31317
-9.88476
-10.5546
-11.3222
-12.1062
-12.6995
-12.7148
-11.5254
-8.21265
-1.53482
10.0607
28.3617
55.2354
92.3886
141.057
201.658
273.457
354.32
440.61
527.278
608.182
676.616
725.994
750.622
746.433
711.601
646.908
555.835
444.32
320.218
192.525
70.464
-37.464
-124.333
-185.452
-218.762
-224.918
-207.074
-170.396
-121.385
-67.0955
-14.3452
30.9907
64.5224
83.68
87.8143
78.0724
57.0809
28.491
-3.55127
-34.9393
-62.0828
-82.2764
-93.9274
-96.6274
-91.0769
-78.8835
-62.2721
-43.7503
-25.7724
-10.4462
0.689306
6.79296
7.75121
4.11582
-3.03385
-12.2787
-22.0696
-30.9304
-37.6302
-41.3068
-41.5319
-38.3162
-32.0603
-23.4645
-13.4116
-2.84113
7.37015
16.5072
24.0864
29.8915
33.9745
36.6256
38.3181
39.6372
41.2015
43.5875
47.2645
52.5476
59.5713
68.2861
78.4749
89.7875
101.785
113.988
125.929
137.189
147.43
156.415
164.013
170.193
175.012
178.589
181.09
182.695
183.581
183.9
183.761
183.219
182.268
180.833
178.781
175.92
172.018
166.826
160.099
151.635
141.303
129.078
115.068
99.5305
82.8704
65.6283
48.4449
32.0124
17.0158
4.0692
-6.34307
-13.9155
-18.5528
-20.3794
-19.7273
-17.101
-13.1259
-8.48501
-3.85151
0.174832
3.12076
4.67656
4.71378
3.28287
0.592017
-3.02909
-7.1757
-11.4187
-15.354
-18.6449
-21.0533
-22.4579
-22.8575
-22.36
-21.1606
-19.5112
-17.6858
-15.9455
-14.5084
-13.5261
-13.0701
-13.1295
-13.6178
-14.39
-15.2648
-16.0504
-16.5704
-16.6853
-16.3089
-15.4164
-14.0443
-12.2829
-10.2616
-8.13062
-6.04174
-4.12932
-2.49551
-1.20049
-0.258689
0.358976
0.717765
0.90803
1.03224
1.19192
1.47601
1.95195
2.65979
3.60956
4.78148
6.12831
7.57945
9.04606
10.4271
11.6161
12.5079
13.0067
13.0335
12.5335
11.4836
9.89695
7.82646
5.36461
2.63978
-0.191333
-2.95484
-5.47356
-7.58225
-9.14265
-10.0565
-10.2751
-9.80385
-8.70165
-7.07488
-5.06684
-2.84384
-0.579815
1.55887
3.42662
4.90849
5.92593
6.4381
6.43913
5.95232
5.0228
3.71028
2.08354
0.217662
-1.80575
-3.89627
-5.95165
-7.85627
-9.48275
-10.6981
-11.3743
-11.4032
-10.7128
-9.28303
-7.15779
-4.45076
-1.34298
1.92849
5.09053
7.86049
9.9765
11.2277
11.4802
10.696
8.94072
6.38008
3.26503
-0.0928638
-3.35225
-6.17537
-8.25982
-9.36513
-9.33143
-8.08883
-5.6571
-2.13681
2.30642
7.46191
13.0956
18.9705
24.8646
30.5831
35.9661
40.89
45.2647
49.0271
52.1334
54.5508
56.2516
57.2098
57.4006
56.8034
55.4077
53.219
50.2661
46.6057
42.325
37.5408
32.3949
27.046
21.6599
16.398
11.406
6.80479
2.68302
-0.906632
-3.94807
-6.45925
-8.48705
-10.1004
-11.3825
-12.4225
-13.3079
-14.1176
-14.9168
-15.7522
-16.6508
-17.6183
-18.6409
-19.6872
-20.7111
-21.6553
-22.4526
-23.025
-23.2767
-23.0788
-22.2432
-20.4838
-17.3675
-12.2612
-4.28476
7.71135
25.1259
49.5235
82.4763
125.328
178.899
243.165
316.962
397.783
481.715
563.57
637.23
696.183
734.209
746.135
728.545
680.363
603.188
501.325
381.492
252.209
122.949
3.15238
-98.7776
-176.353
-225.654
-245.674
-238.31
-208.024
-161.215
-105.398
-48.2998
3.01482
42.8832
67.5673
75.5103
67.3162
45.4742
13.8835
-22.7498
-59.5563
-92.1073
-116.908
-131.728
-135.75
-129.521
-114.754
-93.9943
-70.2262
-46.4592
-25.3574
-8.94757
1.56238
5.84562
4.40184
-1.59455
-10.515
-20.5315
-29.8705
-37.033
-40.9587
-41.1166
-37.5203
-30.6721
-21.4509
-10.9631
-0.37937
9.22221
16.9865
22.3735
25.2042
25.6594
24.2363
21.6695
18.8304
16.6152
15.8367
17.1297
20.8822
27.1968
35.8871
46.5065
58.4066
70.8157
82.9289
93.9976
103.409
110.748
115.831
118.713
119.67
119.147
117.705
115.937
114.404
113.561
113.704
114.94
117.17
120.104
123.286
126.147
128.06
128.403
126.62
122.269
115.06
104.871
91.7526
75.9149
57.7029
37.5649
16.0179
-6.38643
-29.0917
-51.5623
-73.3033
-93.8764
-112.913
-130.122
-145.299
-158.333
-169.199
-177.963
-177.963
-177.963
-177.963
-177.963
-177.963
-177.963
-177.963
-177.963
-177.963
-177.963
-177.963
-177.963
-177.963
-177.963
-177.963
-177.963
-177.963
-177.963
-177.963
