-113.312
-111.458
-109.12
-106.226
-102.699
-98.4705
-93.4765
-87.6698
-81.0239
-73.5387
-65.2449
-56.2039
-46.5074
-36.2725
-25.6354
-14.743
-3.74345
7.22401
18.0391
28.6098
38.8799
48.834
58.4988
67.9393
77.2497
86.5392
95.9128
105.45
115.18
125.067
134.989
144.737
154.016
162.463
169.668
175.215
178.718
179.866
178.455
174.418
167.84
158.957
148.137
135.85
122.628
109.019
95.5383
82.6327
70.6482
59.8152
50.2452
41.9414
34.8192
28.7337
23.5097
18.9707
14.9623
11.3688
8.12092
5.19504
2.60467
0.387042
-1.41309
-2.75943
-3.63735
-4.06251
-4.08375
-3.78011
-3.25276
-2.61338
-1.97089
-1.4186
-1.02382
-0.821263
-0.811039
-0.961435
-1.2158
-1.50246
-1.74607
-1.87896
-1.85071
-1.63501
-1.23292
-0.672421
-0.0044785
0.703682
1.37705
1.94202
2.33504
2.50997
2.44309
2.13559
1.61319
0.923175
0.129154
-0.695693
-1.47622
-2.14293
-2.63873
-2.92432
-2.98144
-2.81385
-2.44585
-1.91846
-1.28394
-0.599036
0.0817657
0.712348
1.25937
1.70445
2.0439
2.28625
2.44809
2.54916
2.60765
2.63644
2.64108
2.61946
2.56341
2.46144
2.30213
2.07736
1.78446
1.4267
1.01193
0.54943
0.0456933
-0.499828
-1.09785
-1.77023
-2.54812
-3.46731
-4.56127
-5.85306
-7.34763
-9.02578
-10.8413
-12.7221
-14.575
-16.2942
-17.7726
-18.9129
-19.639
-19.9045
-19.6981
-19.0444
-18.0011
-16.6524
-15.0998
-13.4512
-11.811
-10.2705
-8.90114
-7.75006
-6.83933
-6.16728
-5.71243
-5.43876
-5.30179
-5.25467
-5.25352
-5.26171
-5.25279
-5.21209
-5.13717
-5.03738
-4.93263
-4.85149
-4.82832
-4.8993
-5.09706
-5.44423
-5.94628
-6.58501
-7.31388
-8.05652
-8.70952
-9.14982
-9.24607
-8.87305
-7.92693
-6.33953
-4.08936
-1.20766
2.22122
6.06571
10.1581
14.3094
18.3269
22.0311
25.2713
27.9372
29.9671
31.3503
32.1248
32.3706
32.1996
31.7429
31.1367
30.5085
29.9647
29.5806
29.3941
29.403
29.5668
29.8128
30.0447
30.1542
30.0335
29.587
28.7424
27.4575
25.7247
23.5709
21.0538
18.2546
15.2689
12.1961
9.12905
6.14556
3.30156
0.627874
-1.86982
-4.20786
-6.41878
-8.54369
-10.6239
-12.6932
-14.7711
-16.8589
-18.9385
-20.9732
-22.9104
-24.6833
-26.2091
-27.381
-28.0495
-27.9935
-26.8803
-24.2189
-19.3158
-11.2426
1.17002
19.2973
44.6344
78.6522
122.599
177.259
242.7
318.036
401.245
489.1
577.222
660.296
732.433
787.677
820.584
826.83
803.766
750.832
669.785
564.679
441.6
308.156
172.799
44.0278
-70.4102
-164.244
-233.235
-275.508
-291.612
-284.336
-258.275
-219.24
-173.568
-127.421
-86.1615
-53.8625
-33.0075
-24.3939
-27.2381
-39.4518
-58.0411
-79.5709
-100.632
-118.257
-130.234
-135.3
-133.197
-124.593
-110.904
-94.0385
-76.1062
-59.1369
-44.8329
-34.3911
-28.4039
-26.8473
-29.1448
-34.2945
-41.0346
-48.0239
-54.0125
-57.9825
-59.2445
-57.4824
-52.7456
-45.3978
-36.0304
-25.3576
-14.109
-2.93175
7.68228
17.4397
26.2541
34.2236
41.5824
48.6379
55.7026
63.0338
70.7889
79.0028
87.5905
96.3713
105.11
113.569
121.553
128.952
135.759
142.069
148.052
153.911
159.824
165.89
172.077
178.199
183.909
188.728
192.087
193.401
192.14
187.907
180.496
169.938
156.514
140.742
123.339
105.153
87.0859
70.0079
54.6741
41.6567
31.2973
23.685
18.6626
15.8586
14.7415
14.6876
15.0561
15.2607
14.8308
13.456
11.0088
7.5453
3.2844
-1.43031
-6.18073
-10.5299
-14.076
-16.4997
-17.5976
-17.302
-15.6828
-12.9342
-9.34847
-5.28121
-1.11177
2.79525
6.12389
8.63273
10.1707
10.6826
10.2043
8.84951
6.79117
4.2384
1.41337
-1.47052
-4.22669
-6.70871
-8.81781
-10.5049
-11.7675
-12.6424
-13.1955
-13.5104
-13.6768
-13.7795
-13.8904
-14.0626
-14.3272
-14.6934
-15.1501
-15.6704
-16.2166
-16.7459
-17.2164
-17.5922
-17.8482
-17.9724
-17.9671
-17.8481
-17.6415
-17.3795
-17.0939
-16.8101
-16.5403
-16.2785
-15.9971
-15.6458
-15.1538
-14.4347
-13.394
-11.9381
-9.98426
-7.47114
-4.36772
-0.681333
3.53643
8.18627
13.1209
18.148
23.0381
27.5353
31.3737
34.2958
36.0739
36.5308
35.5595
33.1382
29.3393
24.3312
18.3709
11.7901
4.97285
-1.6712
-7.73557
-12.846
-16.6864
-19.0192
-19.7001
-18.6844
-16.0276
-11.88
-6.47782
-0.131484
6.78673
13.8572
20.63
26.6461
31.4634
34.6893
36.0158
35.2564
32.3796
27.533
21.0532
13.4566
5.40833
-2.32944
-8.96792
-13.7722
-16.1437
-15.6937
-12.2978
-6.12273
2.37892
12.5076
23.3855
34.0465
43.5387
51.0239
55.8653
57.6901
56.4213
52.2758
45.7291
37.4523
28.2318
18.8795
10.1464
2.64958
-3.18054
-7.12793
-9.19187
-9.56398
-8.58596
-6.69493
-4.36407
-2.04602
-0.125246
1.11603
1.51603
1.03574
-0.252744
-2.18861
-4.55106
-7.09021
-9.55593
-11.7214
-13.3986
-14.4443
-14.7534
-14.2398
-12.8021
-10.275
-6.36845
-0.600813
7.76389
19.7602
36.7291
60.2702
92.1237
133.973
187.172
252.422
329.43
416.611
510.881
607.622
700.841
783.563
848.43
888.458
897.865
872.862
812.285
717.973
594.809
450.408
294.451
137.765
-8.76876
-135.324
-234.128
-300.214
-331.858
-330.622
-301.039
-249.971
-185.736
-117.128
-52.437
1.39731
39.4214
59.0211
59.9801
44.2563
15.5289
-21.4111
-61.3397
-99.2603
-130.968
-153.461
-165.162
-165.942
-156.973
-140.426
-119.092
-95.9592
-73.8182
-54.9328
-40.8153
-32.1218
-28.668
-29.5517
-33.355
-38.3927
-42.9699
-45.6155
-45.2638
-41.3668
-33.9282
-23.4637
-10.8988
2.57631
15.6743
27.1759
36.0748
41.6871
43.7149
42.2637
37.8142
31.1561
23.2955
15.3448
8.40982
3.48232
1.3502
2.53059
7.2317
15.3452
26.4686
39.9534
54.9746
70.6132
85.9426
100.112
112.416
122.347
129.626
134.202
136.238
136.069
134.147
130.98
127.069
122.845
118.628
114.595
110.765
107.014
103.101
98.7163
93.5321
87.2649
79.7271
70.8696
60.8051
49.81
38.3041
26.8106
15.9008
6.13205
-2.01417
-8.18521
-12.1949
-14.0415
-13.9036
-12.1158
-9.128
-5.45251
-1.60787
1.93509
4.7982
6.72717
7.60646
7.45711
6.41929
4.72281
2.65013
0.496982
-1.46452
-3.01614
-4.014
-4.39808
-4.19031
-3.48308
-2.42015
-1.17342
0.0813755
1.1868
2.02124
2.51015
2.63019
2.40665
1.90497
1.21833
0.452933
-0.2866
-0.910196
-1.35203
-1.57616
-1.57783
-1.38075
-1.03101
-0.588956
-0.120078
0.313784
0.6618
0.889362
0.980702
0.938854
0.78324
0.545421
0.263682
-0.0227639
-0.279234
-0.480072
-0.611707
-0.674005
-0.679874
-0.653262
-0.625848
-0.632885
-0.708668
-0.882147
-1.17318
-1.58979
-2.12676
-2.76571
-3.47656
-4.22036
-4.95303
-5.62972
-6.20922
-6.65802
-6.95362
-7.08668
-7.06178
-6.89683
-6.62099
-6.27151
-5.88968
-5.5165
-5.18855
-4.93454
-4.77307
-4.7119
-4.74875
-4.87358
-5.07211
-5.32981
-5.63576
-5.98544
-6.38148
-6.83208
-7.34664
-7.92949
-8.57259
-9.24906
-9.90908
-10.48
-10.8714
-10.9853
-10.7303
-10.0379
-8.87838
-7.27288
-5.3
-3.09451
-0.837782
1.25933
2.97948
4.12474
4.54206
4.14501
2.92864
0.97557
-1.5478
-4.40471
-7.30956
-9.95532
-12.0436
-13.3148
-13.5741
-12.713
-10.7222
-7.69696
-3.83256
0.588131
5.21532
9.65965
13.5246
16.4419
18.1083
18.3195
16.9999
14.2232
10.2219
5.38112
0.217064
-4.66183
-8.608
-10.9984
-11.3022
-9.146
-4.36683
2.95237
12.4723
23.6145
35.6057
47.5473
58.5021
67.5891
74.0766
77.461
77.5226
74.3513
68.3376
60.1297
50.5624
40.5641
31.0552
22.8486
16.565
12.5735
10.9625
11.5456
13.8983
17.4207
21.4182
25.1868
28.0949
29.6506
29.5473
27.6836
24.1582
19.24
13.3224
6.8645
0.331861
-5.8596
-11.3875
-16.0507
-19.7789
-22.6218
-24.7222
-26.2731
-27.4645
-28.4234
-29.1496
-29.4516
-28.8856
-26.7028
-21.8097
-12.7535
2.25621
25.2735
58.4748
103.94
163.357
237.665
326.674
428.716
540.395
656.512
770.217
873.429
957.503
1014.1
1036.14
1018.75
960.035
861.526
728.306
568.674
393.431
214.844
45.4143
-103.387
-222.274
-305.041
-349.089
-355.535
-328.908
-276.472
-207.28
-131.093
-57.2821
6.13964
53.2584
80.7023
87.7557
76.1578
49.6363
13.2552
-27.3307
-66.6149
-99.8861
-123.712
-136.216
-137.139
-127.695
-110.255
-87.9271
-64.0867
-41.9207
-24.0445
-12.2307
-7.27087
-8.97542
-16.2961
-27.5431
-40.6593
-53.5121
-64.1634
-71.0876
-73.3158
-70.4966
-62.875
-51.2016
-36.5908
-20.3506
-3.80909
11.8421
25.6703
37.0795
45.8398
52.0715
56.1907
58.8281
60.7338
62.6786
65.3645
69.3521
75.0088
82.4829
91.7018
102.392
114.121
126.343
138.463
149.895
160.108
168.675
175.294
179.8
182.155
182.426
180.75
177.3
172.248
165.742
157.897
148.794
138.502
127.102
114.717
101.539
87.8416
73.9788
60.3714
47.4731
35.7292
25.5282
17.1578
10.7695
6.35878
3.76507
2.69035
2.73558
3.44923
4.38115
5.13472
5.40988
5.03203
3.96303
2.29408
0.221943
-1.98723
-4.04104
-5.66483
-6.64062
-6.83614
-6.22056
-4.86578
-2.9338
-0.6528
1.71427
3.90395
5.68462
6.88291
7.40106
7.22358
6.41321
5.09731
3.44739
1.65486
-0.0936215
-1.63778
-2.86008
-3.69511
-4.13154
-4.20722
-3.99875
-3.60746
-3.1439
-2.71295
-2.40128
-2.26856
-2.34273
-2.61975
-3.06689
-3.62898
-4.23632
-4.81337
-5.28709
-5.59434
-5.68762
-5.53895
-5.14163
-4.5099
-3.67673
-2.68982
-1.60637
-0.486951
0.610628
1.63695
2.55516
3.34307
3.99301
4.50934
4.90418
5.19221
5.38546
5.4891
5.4991
5.40227
5.17869
4.80641
4.2674
3.55393
2.67426
1.65634
0.548972
-0.580276
-1.65027
-2.57426
-3.26967
-3.66858
-3.72754
-3.43547
-2.81827
-1.93956
-0.896943
0.185921
1.17076
1.91853
2.30406
2.22988
1.63748
0.514643
-1.102
-3.12975
-5.44751
-7.90751
-10.3497
-12.6173
-14.5711
-16.1021
-17.1397
-17.656
-17.665
-17.218
-16.3951
-15.2948
-14.0223
-12.6785
-11.3505
-10.1047
-8.98218
-7.99841
-7.14497
-6.39412
-5.70521
-5.0319
-4.32945
-3.56125
-2.70365
-1.7488
-0.704967
0.405467
1.54994
2.69094
3.79153
4.82023
5.75449
6.58209
7.30059
7.9149
8.43369
8.86526
9.21379
9.47653
9.64249
9.69285
9.60295
9.34569
8.89565
8.23349
7.34999
6.24925
4.95057
3.48886
1.91347
0.285411
-1.32675
-2.85193
-4.22202
-5.37729
-6.27096
-6.8726
-7.16968
-7.16711
-6.88452
-6.35096
-5.5968
-4.64177
-3.47797
-2.04618
-0.203719
2.3167
5.95581
11.3796
19.5243
31.6217
49.1853
73.9408
107.686
152.073
208.325
276.905
357.192
447.204
543.448
640.93
733.384
813.714
874.631
909.42
912.743
881.383
814.798
715.415
588.593
442.241
286.125
130.939
-12.7475
-135.543
-230.155
-292.069
-319.909
-315.448
-283.26
-230.099
-164.055
-93.6217
-26.782
29.7906
71.3166
95.2388
101.269
91.177
68.3586
37.2658
2.76759
-30.4695
-58.5118
-78.5438
-89.0778
-89.9798
-82.3269
-68.133
-49.9881
-30.6673
-12.7586
1.64405
11.1523
15.1831
13.9453
8.32768
-0.287208
-10.2523
-19.8946
-27.7311
-32.6389
-33.9603
-31.539
-25.6879
-17.1015
-6.72857
4.37367
15.1849
24.8474
32.76
38.6304
42.4848
44.6384
45.6321
46.1491
46.9215
48.6405
51.8784
57.0335
64.2981
73.653
84.8852
97.6232
111.384
125.624
139.79
153.357
165.859
176.905
186.173
193.409
198.412
201.016
201.087
198.517
193.237
185.232
174.561
161.379
145.96
128.699
110.111
90.8147
71.498
52.875
35.6348
20.3885
7.61988
-2.35278
-9.40155
-13.5954
-15.1886
-14.5925
-12.333
-8.99979
-5.1919
-1.46568
1.70962
3.98485
5.14974
5.13691
4.01188
1.95142
-0.786323
-3.89609
-7.06004
-9.97916
-12.3986
-14.1251
-15.0366
-15.0826
-14.2797
-12.7012
-10.4649
-7.72039
-4.6367
-1.39176
1.83701
4.88088
7.58741
9.82762
11.5028
12.5503
12.9479
12.7155
11.9141
10.6404
9.01872
7.18949
5.29593
3.47052
1.82253
0.428228
-0.675046
-1.49031
-2.05786
-2.44821
-2.75232
-3.07048
-3.50144
-4.13274
-5.03307
-6.24661
-7.7891
-9.64551
-11.769
-14.0812
-16.4753
-18.8205
-20.9703
-22.7733
-24.0863
-24.7887
-24.7965
-24.074
-22.6419
-20.5796
-18.0222
-15.1506
-12.1769
-9.32541
-6.81299
-4.82882
-3.51762
-2.96698
-3.20016
-4.17474
-5.78691
-7.88084
-10.2621
-12.7142
-15.0163
-16.9615
-18.3739
-19.1227
-19.1324
-18.3886
-16.9378
-14.8819
-12.3674
-9.57069
-6.6801
-3.87778
-1.32224
0.865982
2.614
3.90091
4.75624
5.25325
5.49798
5.61586
5.73735
5.98431
6.45811
7.23021
8.33534
9.76749
11.4787
13.3809
15.3505
17.2363
18.8707
20.0829
20.7134
20.6296
19.7393
18.0017
15.4345
12.1155
8.17934
3.80854
-0.779946
-5.35128
-9.67101
-13.5232
-16.7269
-19.1491
-20.7133
-21.4034
-21.2621
-20.3844
-18.9071
-16.9949
-14.8256
-12.5738
-10.3973
-8.42439
-6.74633
-5.41254
-4.43068
-3.77047
-3.37072
-3.14855
-3.00985
-2.85956
-2.6108
-2.19184
-1.55046
-0.655275
0.50554
1.92762
3.595
5.48496
7.57216
9.83151
12.2392
14.772
17.4047
20.1071
22.8395
25.5501
28.1725
30.6259
32.8175
34.6479
36.0176
36.8363
37.0319
36.5585
35.4034
33.5908
31.1823
28.274
24.9898
21.473
17.8748
14.3426
11.0091
7.9816
5.33545
3.1093
1.30488
-0.109737
-1.19344
-2.02285
-2.68143
-3.24858
-3.78964
-4.34841
-4.94254
-5.56238
-6.17241
-6.71373
-7.10512
-7.23925
-6.97053
-6.0917
-4.29799
-1.14035
4.02717
12.0967
24.2395
41.9068
66.7801
100.658
145.265
201.994
271.584
353.783
447.036
548.267
652.812
754.56
846.328
920.451
969.552
987.384
969.652
914.679
823.818
701.528
555.091
393.981
228.975
71.086
-69.5202
-184.516
-268.176
-317.84
-334.021
-320.165
-282.107
-227.299
-163.92
-99.9651
-42.4378
3.28741
33.8597
48.0853
46.8062
32.5609
9.08837
-19.2519
-48.0691
-73.469
-92.4653
-103.238
-105.226
-99.054
-86.3308
-69.3422
-50.697
-32.9684
-18.3751
-8.53716
-4.32865
-5.83581
-12.4151
-22.8349
-35.4756
-48.5577
-60.3686
-69.4596
-74.7932
-75.8276
-72.5339
-65.3519
-55.0935
-42.8134
-29.6635
-16.7511
-5.01735
4.85156
12.4739
17.7804
20.9858
22.5306
23.0049
23.0655
23.357
24.4464
26.7756
30.6365
36.1656
43.3566
52.0851
62.1395
73.2519
85.1238
97.4442
109.898
122.163
133.909
144.784
154.417
162.423
168.416
172.04
173.005
171.124
166.349
158.798
148.761
136.689
123.166
108.855
94.4391
80.5575
67.745
56.3873
46.6951
38.7021
32.2844
27.1996
23.1369
19.7708
16.8116
14.042
11.3396
8.67948
6.12122
3.78205
1.80323
0.31522
-0.592237
-0.890705
-0.621663
0.107281
1.13702
2.27926
3.34251
4.15737
4.59743
4.59286
4.1354
3.27463
2.1069
0.758993
-0.630539
-1.92989
-3.02986
-3.85535
-4.37172
-4.58574
-4.5417
-4.31364
-3.99482
-3.6858
-3.48228
-3.46386
-3.68485
-4.16775
-4.90014
-5.83525
-6.89598
-7.98214
-8.98002
-9.77331
-10.2543
-10.3345
-9.95285
-9.08203
-7.73134
-5.94644
-3.806
-1.41565
1.10023
3.60807
5.97534
8.08042
9.82146
11.1234
11.9426
12.2685
12.1222
11.5526
10.6292
9.43415
8.05301
6.56588
5.03995
3.52412
2.0464
0.614164
-0.782825
-2.16727
-3.56788
-5.01258
-6.52221
-8.10561
-9.75629
-11.4511
-13.1506
-14.801
-16.3379
-17.6909
-18.7899
-19.572
-19.9905
-20.0232
-19.6813
-19.0159
-18.1215
-17.1342
-16.2248
-15.5841
-15.4035
-15.8509
-17.0454
-19.0346
-21.7774
-25.1367
-28.8833
-32.7127
-36.2728
-39.1997
-41.1577
-41.8778
-41.1899
-39.0432
-35.5145
-30.7997
-25.1928
-19.0536
-12.7683
-6.70911
-1.19643
3.53095
7.33483
10.1841
12.1488
13.3834
14.1015
14.5474
14.9655
15.5737
16.543
17.9835
19.9405
22.3982
25.2897
28.5134
31.9507
35.4841
39.013
42.4649
45.8001
49.01
52.1083
55.1159
58.0411
60.858
63.4866
65.7777
67.509
68.3927
68.099
66.2913
62.6718
57.0294
49.284
39.5182
27.992
15.1369
1.52787
-12.1615
-25.2165
-36.944
-46.7323
-54.1021
-58.7433
-60.5356
-59.5505
-56.039
-50.4041
-43.1635
-34.9045
-26.2326
-17.7169
-9.83023
-2.88771
3.01659
8.07069
12.7977
18.0935
25.2386
35.8753
51.9382
75.5307
108.745
153.424
210.882
281.601
364.938
458.882
559.921
663.052
761.975
849.495
918.109
960.741
971.531
946.605
884.693
787.504
659.795
509.082
345.023
178.529
20.7024
-118.259
-230.072
-309.159
-353.125
-362.876
-342.367
-298.026
-237.929
-170.841
-105.24
-48.4354
-5.88465
19.2269
26.1159
16.2437
-7.08603
-39.3069
-75.2629
-109.886
-138.8
-158.773
-167.998
-166.162
-154.328
-134.657
-110.028
-83.6034
-58.4026
-36.943
-20.9781
-11.3601
-8.03111
-10.1304
-16.1917
-24.3963
-32.8427
-39.7975
-43.8953
-44.2701
-40.607
-33.1183
-22.4569
-9.58485
4.37809
18.3055
31.1934
42.2557
50.9758
57.1178
60.6991
61.9381
61.1878
58.8686
55.4118
51.2207
46.6524
42.0175
37.5932
33.6419
30.4264
28.216
27.2787
27.8605
30.1521
34.2513
40.1257
47.5853
56.2694
65.6538
75.0786
83.796
91.033
96.0612
98.2674
97.2142
92.6847
84.7059
73.5478
59.6993
43.8242
26.7044
9.17513
-7.93781
-23.8735
-37.9795
-49.7412
-58.7968
-64.9403
-68.1144
-68.3982
-65.9896
-61.1869
-54.3682
-45.9703
-36.4656
-26.3382
-16.0583
-6.05682
3.29912
11.7266
19.0422
25.1692
30.1353
34.0618
37.1424
39.6161
41.7355
43.7329
45.7892
48.0065
50.3887
52.831
55.1211
56.9537
57.9571
57.7323
55.8995
52.1487
46.2868
38.2755
28.2542
16.5426
3.62293
-9.89835
-23.3448
-36.0341
-47.3434
-56.7702
-63.9776
-68.8231
-71.3635
-71.8388
-70.6367
-68.2419
-65.1777
-61.9472
-58.9802
-56.5921
-54.9595
-54.1134
-53.9501
-54.2573
-54.7508
-55.1167
-55.0542
-54.312
-52.7168
-50.1893
-46.7472
-42.497
-37.6157
-32.3256
-26.8665
-21.4693
-16.3327
-11.6069
-7.38538
-3.70344
-0.544923
2.14633
4.45167
6.46193
8.26313
9.92516
11.4947
12.9929
14.417
15.7459
16.9477
17.9881
18.8387
19.4835
19.9231
20.177
20.282
20.289
20.2557
20.2387
20.2831
20.4126
20.6212
20.868
21.0761
21.1376
20.9233
20.297
19.1326
17.3318
14.8398
11.6566
7.84218
3.51511
-1.15638
-5.96897
-10.7031
-15.1434
-19.0992
-22.4205
-25.0107
-26.8318
-27.9038
-28.2979
-28.1243
-27.5179
-26.6217
-25.5715
-24.483
-23.4423
-22.5004
-21.6712
-20.9321
-20.2264
-19.4658
-18.533
-17.2836
-15.5484
-13.1377
-9.84774
-5.47278
0.177819
7.25662
15.8509
25.9543
37.4417
50.0521
63.3849
76.9128
90.0122
102.01
112.244
120.124
125.195
127.187
126.04
121.914
115.169
106.321
95.9838
84.8036
73.3924
62.2727
51.8385
42.3365
33.8677
26.408
19.8418
14.0028
8.71578
3.83269
-0.741339
-5.0343
-9.00701
-12.5644
-15.5757
-17.8989
-19.4069
-20.0094
-19.6697
-18.4134
-16.3295
-13.5643
-10.3095
-6.78702
-3.2328
0.120083
3.05615
5.39004
6.9761
7.71478
7.55592
6.49915
4.59171
1.92407
-1.37617
-5.15172
-9.22412
-13.4028
-17.4939
-21.3087
-24.6694
-27.4108
-29.3744
-30.3935
-30.264
-28.7022
-25.2889
-19.4064
-10.178
3.57422
23.3349
50.8429
87.9642
136.482
197.811
272.655
360.652
460.073
567.616
678.375
786.025
883.22
962.214
1015.62
1037.25
1022.88
970.93
882.796
762.954
618.659
459.34
295.718
138.773
-1.33847
-116.269
-200.258
-250.613
-267.835
-255.404
-219.233
-166.9
-106.733
-46.8773
5.54821
45.1213
68.5373
74.7579
64.8903
41.8334
9.75433
-26.5287
-62.1747
-92.8845
-115.342
-127.496
-128.656
-119.434
-101.524
-77.4032
-49.9577
-22.1215
3.45431
24.658
40.0811
49.0834
51.7636
48.852
41.5471
31.3228
19.7316
8.22673
-1.97898
-10.0063
-15.3517
-17.8802
-17.7778
-15.474
-11.5488
-6.63712
-1.34218
3.83293
8.52995
12.5547
15.8724
18.5825
20.8804
23.0119
25.2275
27.7428
30.7097
34.1998
38.2011
42.6267
47.3314
52.1347
56.8433
61.2733
65.2654
68.6957
71.4788
73.5651
74.9339
75.5835
75.5209
74.7515
73.2724
71.0682
68.1126
64.3739
59.8256
54.4598
48.3021
41.4259
33.9624
26.1056
18.1094
10.2763
2.93815
-3.56934
-8.93635
-12.9091
-15.3172
-16.0945
-15.2912
-13.0743
-9.71677
-5.57531
-1.0589
3.40841
7.42685
10.6579
12.8547
13.8827
13.7278
12.4917
10.3755
7.65272
4.63621
1.64264
-1.0417
-3.18993
-4.65583
-5.38591
-5.4218
-4.89336
-4.0037
-3.00769
-2.18605
-1.81723
-2.14978
-3.37764
-5.62078
-8.91304
-13.1984
-18.3354
-24.1103
-30.2552
-36.471
-42.4527
-47.9128
-52.6038
-56.3352
-58.987
-60.5165
-60.9597
-60.4261
-59.0877
-57.1614
-54.887
-52.5016
-50.2133
-48.1777
-46.4807
-45.1295
-44.0542
-43.1212
-42.1547
-40.967
-39.3902
-37.3069
-34.6752
-31.5436
-28.0538
-24.4307
-20.9608
-17.9601
-15.7379
-14.5563
-14.5949
-15.9198
-18.4643
-22.0212
-26.2493
-30.6941
-34.8222
-38.0657
-39.875
-39.7738
-37.4108
-32.6038
-25.3693
-15.9347
-4.73185
7.63054
20.4107
32.7918
43.9491
53.118
59.66
63.1171
63.253
60.0749
53.8358
45.0162
34.2854
22.4478
10.3762
-1.06187
-11.0771
-19.0253
-24.4612
-27.1732
-27.1973
-24.8061
-20.4762
-14.8363
-8.60227
-2.50507
2.77896
6.69013
8.83264
9.00336
7.20036
3.61167
-1.41306
-7.40397
-13.8205
-20.1032
-25.7235
-30.2259
-33.2602
-34.6007
-34.1527
-31.9452
-28.1132
-22.8707
-16.4789
-9.21293
-1.33197
6.94436
15.4498
24.0741
32.7543
41.456
50.1482
58.7749
67.2295
75.3364
82.8446
89.4359
94.7483
98.4131
100.1
99.5648
96.6928
91.5291
84.2917
75.3644
65.2677
54.6132
44.0444
34.1734
25.5196
18.46
13.1941
9.72928
7.88664
7.32534
7.58282
8.12587
8.40804
7.92973
6.29841
3.28789
-1.10398
-6.60037
-12.5959
-18.118
-21.8068
-21.925
-16.4102
-2.98096
20.6918
56.7462
106.83
171.761
251.183
343.275
444.561
549.901
652.685
745.264
819.601
868.077
884.362
864.248
806.311
712.297
587.163
438.749
277.091
113.461
-40.7516
-175.193
-281.572
-354.45
-391.698
-394.572
-367.415
-317.026
-251.797
-180.718
-112.383
-54.1129
-11.2758
13.1126
18.4973
6.60475
-18.9794
-53.406
-91.2486
-127.193
-156.65
-176.221
-183.988
-179.59
-164.117
-139.831
-109.78
-77.3455
-45.8
-17.9134
4.33733
19.9318
28.8333
31.8863
30.6082
26.9122
22.8015
20.0781
20.1033
23.6382
30.7782
40.9838
53.196
66.0147
77.9114
87.4447
93.4517
95.1891
92.4123
85.3831
74.8146
61.7616
47.4775
33.2582
20.2936
9.54499
1.66256
-3.05243
-4.6392
-3.42947
0.0297205
5.0691
10.9924
17.161
23.0582
28.3271
32.78
36.3819
39.2141
41.4254
43.1799
44.6108
45.7858
46.6905
47.2292
47.2432
46.5427
44.9454
42.3163
38.6013
33.8502
28.2236
21.9853
15.4782
9.08972
3.21006
-1.81066
-5.70019
-8.29249
-9.54303
-9.52949
-8.43845
-6.54003
-4.15448
-1.6149
0.769025
2.74204
4.1258
4.83071
4.85653
4.28251
3.2491
1.93409
0.526445
-0.798834
-1.90183
-2.69267
-3.13902
-3.26584
-3.14806
-2.8977
-2.64724
-2.53166
-2.67121
-3.15695
-4.04059
-5.32965
-6.98831
-8.94363
-11.0963
-13.3347
-15.5497
-17.6495
-19.5721
-21.2925
-22.8267
-24.228
-25.5793
-26.9801
-28.5303
-30.313
-32.3786
-34.7314
-37.322
-40.0456
-42.7473
-45.2337
-47.2904
-48.7033
-49.2815
-48.8811
-47.4265
-44.9269
-41.4859
-37.3026
-32.6606
-27.9059
-23.4142
-19.549
-16.6171
-14.8266
-14.2531
-14.8219
-16.3087
-18.3607
-20.5372
-22.3637
-23.3934
-23.2671
-21.7629
-18.8292
-14.5954
-9.35905
-3.55181
2.31205
7.69695
12.1093
15.1548
16.5822
16.3094
14.4291
11.1935
6.98179
2.25447
-2.49928
-6.81501
-10.3006
-12.6735
-13.7826
-13.6153
-12.2878
-10.022
-7.11314
-3.89188
-0.686365
2.21143
4.57156
6.24191
7.15315
7.31386
6.79757
5.72492
4.24397
2.51169
0.67869
-1.12151
-2.77863
-4.20786
-5.34922
-6.16551
-6.63969
-6.77258
-6.581
-6.09621
-5.36204
-4.43244
-3.36779
-2.23002
-1.07691
0.0439314
1.10045
2.07997
2.99095
3.86211
4.73927
5.68029
6.74909
8.00985
9.52247
11.34
13.5085
16.0687
19.0591
22.5188
26.4893
31.0144
36.1373
41.8956
48.3144
55.3988
63.1268
71.4429
80.2551
89.4351
98.8214
108.227
117.451
126.288
134.545
142.053
148.672
154.303
158.888
162.403
164.859
166.286
166.73
166.234
164.833
162.542
159.346
155.202
150.03
143.719
136.139
127.15
116.623
104.466
90.6467
75.2134
58.3172
40.2185
21.2864
1.98443
-17.1553
-35.5677
-52.6966
-68.038
-81.1794
-91.8299
-99.8371
-105.19
-108.005
-108.504
-106.981
-103.766
-99.194
-93.5787
-87.1927
-80.2617
-72.9652
-65.4466
-57.8268
-50.2179
-42.7332
-35.4868
-28.579
-22.0636
-15.8947
-9.85686
-3.48381
4.02052
13.8425
27.5787
47.1944
74.901
112.944
163.302
227.329
305.361
396.362
497.663
604.859
711.917
811.518
895.623
956.236
986.258
980.355
935.707
852.539
734.336
587.705
421.868
247.841
77.39
-78.1182
-208.835
-307.375
-369.489
-394.38
-384.633
-345.788
-285.608
-213.143
-137.709
-67.8991
-10.7435
28.8961
48.6486
48.65
31.2781
0.657735
-37.9881
-79.0529
-117.238
-148.141
-168.686
-177.349
-174.182
-160.647
-139.293
-113.342
-86.2257
-61.1518
-40.738
-26.7555
-20.0016
-20.3052
-26.6489
-37.3824
-50.4889
-63.8677
-75.5945
-84.1311
-88.4639
-88.1637
-83.3686
-74.7026
-63.1461
-49.8822
-36.1371
-23.036
-11.4881
-2.11033
4.80601
9.28863
11.6424
12.3827
12.1539
11.6459
11.5157
12.3256
14.4986
18.2959
23.8136
30.9948
39.6537
49.5044
60.1917
71.3179
82.4653
93.2133
103.151
111.889
119.067
124.372
127.547
128.406
126.856
122.901
116.656
108.343
98.285
86.8892
74.6221
61.9804
49.4586
37.5185
26.5617
16.9105
8.7967
2.35852
-2.35411
-5.36959
-6.78174
-6.73703
-5.42363
-3.06362
0.092124
3.76746
7.66509
11.4733
14.8772
17.5742
19.2944
19.8227
19.0197
16.8386
13.3342
8.66242
3.06923
-3.13044
-9.58096
-15.9185
-21.8038
-26.9507
-31.148
-34.2719
-36.2882
-37.2452
-37.2589
-36.4926
-35.1346
-33.3759
-31.3915
-29.3251
-27.2805
-25.3169
-23.4487
-21.6494
-19.8557
-17.9739
-15.8859
-13.4557
-10.5369
-6.98242
-2.65586
2.55321
8.71192
15.825
23.8162
32.5137
41.6413
50.8206
59.5845
67.405
73.7332
78.0491
79.9166
79.0359
75.2876
68.7616
59.7655
48.8107
36.5766
23.8559
11.4867
0.280081
-9.05152
-15.9556
-20.0859
-21.3291
-19.8106
-15.8786
-10.0693
-3.05618
4.4115
11.5757
17.7356
22.3071
24.8699
25.1982
23.2729
19.2734
13.5517
6.59116
-1.04549
-8.7724
-16.0362
-22.3648
-27.4041
-30.9409
-32.9088
-33.3795
-32.5402
-30.6618
-28.0619
-25.0668
-21.9773
-19.0413
-16.4353
-14.2563
-12.5234
-11.1874
-10.148
-9.2731
-8.42029
-7.45597
-6.27115
-4.79217
-2.98568
-0.858053
1.5503
4.17438
6.93633
9.75766
12.5703
15.3248
17.9949
20.5778
23.0897
25.5576
28.0096
30.4629
32.9136
35.3284
37.6412
39.7532
41.5387
42.8557
43.559
43.5153
42.6184
40.802
38.0477
34.39
29.9135
24.7475
19.0547
13.0184
6.82824
0.666251
-5.30494
-10.9517
-16.175
-20.9125
-25.1353
-28.841
-32.0428
-34.7574
-36.9921
-38.7354
-39.9514
-40.5803
-40.5445
-39.7597
-38.1483
-35.6525
-32.2434
-27.9219
-22.7088
-16.6237
-9.65057
-1.69598
7.45871
18.2033
31.1369
47.0901
67.1243
92.4977
124.592
164.791
214.314
274
344.067
423.867
511.674
604.543
698.296
787.654
866.548
928.586
967.658
978.6
957.848
903.98
818.07
703.787
567.201
416.313
260.347
108.89
-29.0258
-145.78
-235.861
-296.322
-326.948
-330.119
-310.399
-273.917
-227.608
-178.424
-132.607
-95.0967
-69.1364
-56.1095
-55.601
-65.661
-83.218
-104.582
-125.967
-143.971
-155.96
-160.32
-156.556
-145.248
-127.881
-106.572
-83.7603
-61.8738
-43.0408
-28.8592
-20.255
-17.4348
-19.9285
-26.7077
-36.3573
-47.2741
-57.866
-66.7281
-72.7791
-75.3457
-74.1927
-69.5012
-61.8044
-51.8925
-40.7012
-29.1973
-18.2747
-8.66833
-0.893428
4.78878
8.37849
10.1207
10.4683
10.0289
9.49993
9.59808
10.9874
14.2124
19.6427
27.4327
37.5027
49.5411
63.0304
77.2934
91.5546
105.013
116.914
126.622
133.671
137.806
138.999
137.436
133.495
127.693
120.633
112.936
105.185
97.8684
91.3442
85.8166
81.3332
77.7978
74.9983
72.6454
70.4161
67.9977
65.1272
61.6217
57.3972
52.474
46.9694
41.0788
35.0484
29.1428
23.6122
18.6621
14.4302
10.9722
8.25777
6.17782
4.56041
3.19415
1.85549
0.336384
-1.53106
-3.85613
-6.67925
-9.97104
-13.6404
-17.55
-21.5371
-25.436
-29.0994
-32.416
-35.3213
-37.8012
-39.8888
-41.6539
-43.1896
-44.5957
-45.9639
-47.3649
-48.8402
-50.3963
-52.0038
-53.5977
-55.0806
-56.3267
-57.1887
-57.5066
-57.119
-55.8782
-53.6679
-50.4213
-46.1403
-40.9097
-34.9057
-28.394
-21.7164
-15.2631
-9.43454
-4.59407
-1.01853
1.14715
1.92363
1.51321
0.293742
-1.21056
-2.37954
-2.56343
-1.15721
2.32618
8.19348
16.5277
27.17
39.7288
53.6155
68.1026
82.395
95.7079
107.341
116.739
123.537
127.583
128.936
127.845
124.712
120.039
114.377
108.265
102.188
96.534
91.5737
87.4495
84.1797
81.6732
79.7513
78.1724
76.6562
74.906
72.6277
69.5459
65.4198
60.058
53.3341
45.2021
35.7093
25.0045
13.3388
1.05779
-11.4178
-23.62
-35.0693
-45.3142
-53.9698
-60.7512
-65.4975
-68.1839
-68.9197
-67.9335
-65.5474
-62.1435
-58.1264
-53.887
-49.7702
-46.0513
-42.9208
-40.4805
-38.7486
-37.6722
-37.1459
-37.0318
-37.1797
-37.4442
-37.6985
-37.842
-37.8043
-37.5445
-37.0467
-36.315
-35.3661
-34.2232
-32.9096
-31.4446
-29.8404
-28.1009
-26.2216
-24.1908
-21.9922
-19.6074
-17.0196
-14.217
-11.1964
-7.96615
-4.54917
-0.983993
2.67496
6.35909
9.98919
13.4807
16.7503
19.7235
22.3412
24.5661
26.3863
27.8165
28.896
29.6836
30.2507
30.6719
31.0156
31.3359
31.6652
32.0109
32.3538
32.6518
32.844
32.8594
32.6251
32.0754
31.1598
29.8497
28.1419
26.06
23.6525
20.9884
18.1502
15.2262
12.3011
9.44818
6.72201
4.15422
1.75198
-0.500242
-2.63577
-4.69848
-6.73422
-8.78223
-10.8679
-12.9977
-15.1567
-17.3083
-19.3926
-21.3238
-22.9804
-24.1875
-24.6885
-24.108
-21.9081
-17.3454
-9.4381
3.04342
21.5503
47.6787
83.0347
129.038
186.671
256.199
336.886
426.76
522.474
619.314
711.389
792.019
854.304
891.823
899.382
873.718
814.047
722.37
603.478
464.631
314.928
164.455
23.2948
-99.4768
-196.678
-263.691
-298.837
-303.409
-281.388
-238.862
-183.257
-122.46
-63.9521
-14.0494
22.662
43.652
48.5089
38.7542
17.4525
-11.3185
-43.0634
-73.4508
-98.8157
-116.527
-125.19
-124.68
-116.016
-101.102
-82.3977
-62.5475
-44.0315
-28.8733
-18.4364
-13.3253
-13.3921
-17.8363
-25.3753
-34.457
-43.4831
-51.0144
-55.9345
-57.5557
-55.6617
-50.4871
-42.6438
-33.0095
-22.5934
-12.3984
-3.29434
4.08646
9.42031
12.7274
14.3683
15.004
15.5233
16.946
20.3097
26.5536
36.4094
50.3125
68.3431
90.2046
115.241
142.495
170.796
198.872
225.469
249.467
269.978
286.408
298.489
306.274
310.087
310.464
308.063
303.578
297.668
290.885
283.648
276.219
268.716
261.141
253.412
245.406
236.997
228.081
218.602
208.55
197.965
186.924
175.523
163.866
152.042
140.119
128.136
116.1
103.987
91.7515
79.3281
66.6445
53.6289
40.2213
26.3846
12.1175
-2.53337
-17.4619
-32.4949
-47.3897
-61.8387
-75.4812
-87.9245
-98.7699
-107.645
-114.235
-118.314
-119.769
-118.616
-115.003
-109.202
-101.592
-92.6305
-82.8151
-72.6493
-62.6037
-53.0837
-44.404
-36.7728
-30.2862
-24.9326
-20.607
-17.1304
-14.2754
-11.7917
-9.43109
-6.96843
-4.21749
-1.03989
2.65261
6.90159
11.7096
17.0491
22.8715
29.1122
35.6939
42.5253
49.4983
56.4841
63.3305
69.8615
75.8805
81.1769
85.5362
88.7522
90.6405
91.0518
89.8838
87.0908
82.691
76.7699
69.4804
61.0385
51.7151
41.8231
31.7006
21.6913
12.1224
3.28319
-4.59416
-11.35
-16.906
-21.2675
-24.5177
-26.8061
-28.331
-29.3192
-30.0042
-30.606
-31.3133
-32.2704
-33.5695
-35.2477
-37.2896
-39.6339
-42.1835
-44.817
-47.4015
-49.8043
-51.9034
-53.5956
-54.8016
-55.4685
-55.5696
-55.102
-54.0824
-52.542
-50.5215
-48.066
-45.2208
-42.0279
-38.5245
-34.7418
-30.7053
-26.4367
-21.9554
-17.2822
-12.4417
-7.46582
-2.39589
2.71604
7.8078
12.8097
17.6491
22.257
26.5753
30.5643
34.2088
37.5223
40.5476
43.354
46.0315
48.6822
51.4118
54.321
57.4993
61.0213
64.9458
69.316
74.1599
79.4881
85.2893
91.5195
98.089
104.847
111.565
117.93
123.545
127.939
130.597
131
128.681
123.276
114.589
102.629
87.6474
70.1391
50.8239
30.5999
10.4743
-8.52098
-25.4205
-39.4116
-49.9068
-56.5922
-59.4473
-58.7324
-54.9441
-48.7424
-40.8542
-31.9606
-22.5755
-12.926
-2.84655
8.30042
21.6595
38.8574
61.9027
93.0007
134.285
187.48
253.521
332.19
421.804
519.042
618.955
715.193
800.47
867.225
908.426
918.4
893.602
833.184
739.299
617.054
474.137
320.125
165.572
20.9728
-104.259
-202.694
-269.56
-303.112
-304.676
-278.364
-230.507
-168.89
-101.868
-37.4827
17.3342
57.3807
79.574
83.0801
69.1889
40.9661
2.74154
-40.4974
-83.7276
-122.456
-153.169
-173.622
-182.956
-181.641
-171.263
-154.215
-133.319
-111.44
-91.1418
-74.4166
-62.5123
-55.8728
-54.1813
-56.4919
-61.4231
-67.3828
-72.7939
-76.2922
-76.8765
-73.9962
-67.5739
-57.9665
-45.8762
-32.2282
-18.0334
-4.25491
8.30554
19.0899
27.8281
34.5434
39.5242
43.2686
46.4126
49.6521
53.6665
59.0521
66.2687
75.6037
87.1522
100.814
116.305
133.183
150.876
168.726
186.032
202.09
216.234
227.874
236.526
241.831
243.575
241.691
236.26
227.5
215.756
201.47
185.162
167.392
148.733
129.731
110.879
92.5929
75.1877
58.8764
43.7695
29.889
17.1896
5.58419
-5.0284
-14.7386
-23.6078
-31.6573
-38.8685
-45.1895
-50.5509
-54.8836
-58.1387
-60.304
-61.4157
-61.5628
-60.8837
-59.5555
-57.778
-55.7535
-53.6667
-51.6659
-49.8501
-48.2604
-46.88
-45.6401
-44.4314
-43.1197
-41.563
-39.6274
-37.2007
-34.202
-30.5857
-26.3414
-21.4898
-16.0756
-10.1602
-3.81379
2.88964
9.87518
17.0653
24.3738
31.6964
38.8979
45.8005
52.1757
57.7433
62.1818
65.1506
66.3228
65.4261
62.2852
56.8597
49.271
39.8117
28.936
17.2293
5.36125
-5.9734
-16.1182
-24.5151
-30.7544
-34.6078
-36.0419
-35.2116
-32.4342
-28.1493
-22.8689
-17.125
-11.4192
-6.18107
-1.73773
1.70315
4.05609
5.34808
5.69872
5.29362
4.35448
3.10949
1.76716
0.495901
-0.589264
-1.43203
-2.03275
-2.43983
-2.73638
-3.02395
-3.40544
-3.96925
-4.77621
-5.85068
-7.17641
-8.69741
-10.3233
-11.9387
-13.4149
-14.6233
-15.4483
-15.7997
-15.6219
-14.8995
-13.6596
-11.9692
-9.92917
-7.6644
-5.3123
-3.01022
-0.883291
0.966008
2.46556
3.57794
4.3011
4.66545
4.72799
4.56414
4.25835
3.89442
3.54663
3.2724
3.1073
3.06269
3.12627
3.26526
3.4319
3.57054
3.62543
3.54849
3.30603
2.88367
2.28883
1.55054
0.716211
-0.15393
-0.994476
-1.7433
-2.34983
-2.78181
-3.02973
-3.10786
-3.05196
-2.91369
-2.75254
-2.62641
-2.58234
-2.6486
-2.82954
-3.10385
-3.42649
-3.73407
-3.95281
-4.00794
-3.8332
-3.37901
-2.61832
-1.54926
-0.194483
1.40248
3.18314
5.08112
7.02931
8.96608
10.8397
12.6107
14.2521
15.748
17.091
18.2795
19.3155
20.2028
20.946
21.5507
22.0229
22.3688
22.593
22.6978
22.6803
22.5307
22.2317
21.7582
21.0793
20.1613
18.9728
17.4896
15.7002
13.6105
11.2464
8.65531
5.90442
3.07757
0.269807
-2.41904
-4.89122
-7.05744
-8.84231
-10.1882
-11.0572
-11.4315
-11.311
-10.7092
-9.64378
-8.12214
-6.1169
-3.52928
-0.138847
4.4581
10.9142
20.187
33.5667
52.6541
79.2705
115.286
162.365
221.651
293.416
376.727
469.194
566.857
664.269
754.801
831.173
886.16
913.404
908.23
868.335
794.258
689.54
560.534
415.872
265.65
120.415
-9.89877
-116.978
-194.937
-240.838
-254.871
-240.169
-202.312
-148.578
-87.0538
-25.7097
28.4428
70.021
95.6999
104.37
97.0254
76.4186
46.5456
12.0359
-22.4696
-52.877
-76.0718
-90.1875
-94.6922
-90.3031
-78.7555
-62.4715
-44.18
-26.5387
-11.8069
-1.6037
3.22759
2.6431
-2.68118
-11.5107
-22.2667
-33.2604
-42.9169
-49.9604
-53.5421
-53.3023
-49.3632
-42.2635
-32.8461
-22.1198
-11.1126
-0.736687
8.31955
15.662
21.2171
25.2156
28.1367
30.6248
33.3895
37.1034
42.3096
49.3513
58.3299
69.0957
81.2693
94.2908
107.488
120.152
131.619
141.332
148.899
154.115
156.971
157.64
156.436
153.767
150.082
145.808
141.307
136.832
132.508
128.323
124.142
119.731
114.798
109.037
102.178
94.028
84.5089
73.6778
61.7335
49.0051
35.9262
22.9955
10.7296
-0.385898
-9.94282
-17.6476
-23.3455
-27.03
-28.8353
-29.0153
-27.9105
-25.9082
-23.401
-20.7485
-18.2461
-16.1052
-14.4453
-13.2981
-12.6213
-12.3202
-12.2725
-12.3522
-12.4505
-12.4895
-12.4297
-12.2682
-12.0314
-11.763
-11.509
-11.3036
-11.1561
-11.042
-10.8956
-10.6059
-10.0141
-8.91422
-7.05688
-4.1593
0.0764109
5.93591
13.6562
23.3828
35.1252
48.7164
63.7843
79.7404
95.793
110.987
124.271
134.586
140.97
142.666
139.218
130.546
116.982
99.2631
78.484
55.9997
33.3027
11.8801
-6.929
-22.0599
-32.8167
-38.925
-40.5371
-38.1904
-32.7269
-25.1839
-16.6716
-8.25118
-0.828674
4.92457
8.61785
10.1507
9.68862
7.61063
4.43802
0.754339
-2.8727
-5.95834
-8.14999
-9.25453
-9.24269
-8.23274
-6.45757
-4.22138
-1.85251
0.341187
2.109
3.28239
3.78639
3.63775
2.93143
1.81886
0.481565
-0.895514
-2.14765
-3.14801
-3.81783
-4.12861
-4.09706
-3.77452
-3.23296
-2.5501
-1.79605
-1.02317
-0.260381
0.487785
1.23792
2.02133
2.87601
3.83876
4.93873
6.19362
7.60901
9.18046
10.8978
12.7502
14.7305
16.838
19.0774
21.4551
23.9721
26.6152
29.3474
32.101
34.7732
37.2279
39.3031
40.8241
41.6218
41.5529
40.5197
38.487
35.4923
31.6487
27.1379
22.1955
17.0877
12.0852
7.43451
3.33217
-0.0950925
-2.80202
-4.82644
-6.28086
-7.33516
-8.19311
-9.0658
-10.1459
-11.5864
-13.486
-15.8832
-18.7587
-22.0438
-25.6313
-29.3846
-33.1404
-36.6999
-39.8066
-42.1095
-43.1149
-42.1327
-38.2256
-30.175
-16.4782
4.60682
34.9556
76.3986
130.471
198.106
279.291
372.753
475.703
583.735
690.908
790.063
873.37
933.065
962.306
956.029
911.7
829.819
714.117
571.376
410.874
243.533
80.8396
-66.2993
-188.649
-279.536
-335.438
-356.204
-344.898
-307.284
-251.05
-184.86
-117.362
-56.2696
-7.62858
24.6767
39.1185
36.4365
19.2931
-8.25944
-41.421
-75.306
-105.545
-128.757
-142.851
-147.135
-142.241
-129.89
-112.551
-93.0375
-74.1089
-58.1152
-46.7331
-40.8125
-40.345
-44.5429
-52.0111
-60.9798
-69.5632
-76.0102
-78.9166
-77.3753
-71.0532
-60.1905
-45.5312
-28.1983
-9.53478
9.06807
26.3333
41.2331
53.082
61.5823
66.8197
69.215
69.4417
68.3232
66.7235
65.4466
65.1536
66.3079
69.1493
73.697
79.7775
87.0687
95.154
103.578
111.894
119.706
126.692
132.614
137.316
140.71
142.758
143.453
142.797
140.792
137.436
132.727
126.669
119.292
110.661
100.893
90.1572
78.6778
66.7258
54.6036
42.6252
31.0944
20.2831
10.4131
1.64357
-5.93467
-12.2973
-17.4782
-21.5559
-24.637
-26.8394
-28.2766
-29.0459
-29.2197
-28.8424
-27.9299
-26.4731
-24.4443
-21.8054
-18.5185
-14.5574
-9.92022
-4.64229
1.19343
7.44845
13.9261
20.3753
26.5016
31.9856
36.5075
39.7765
41.5603
41.7129
40.196
37.0906
32.5974
27.024
20.7604
14.2453
7.92554
2.21562
-2.54065
-6.09999
-8.33846
-9.25732
-8.97531
-7.70903
-5.74395
-3.39994
-0.995542
1.18483
2.91724
4.05549
4.53811
4.38508
3.68559
2.57918
1.23308
-0.181143
-1.50866
-2.628
-3.46157
-3.9794
-4.19644
-4.16441
-3.95989
-3.67049
-3.3813
-3.16333
-3.06525
-3.10945
-3.29218
-3.5876
-3.95466
-4.34554
-4.71432
-5.02473
-5.25577
-5.40475
-5.48739
-5.53525
-5.59095
-5.70205
-5.91435
-6.26572
-6.78105
-7.4692
-8.32216
-9.31664
-10.4177
-11.5835
-12.7711
-13.9403
-15.0574
-16.0948
-17.0299
-17.8408
-18.5018
-18.9788
-19.2262
-19.187
-18.7966
-17.9894
-16.7103
-14.9258
-12.637
-9.88828
-6.77326
-3.43355
-0.051442
3.16384
5.99515
8.23946
9.73038
10.3583
10.0855
8.95443
7.08686
4.67492
1.96366
-0.772432
-3.25676
-5.23846
-6.51772
-6.9657
-6.53671
-5.27144
-3.2911
-0.783118
2.01952
4.86294
7.49808
9.70454
11.3101
12.2039
12.3423
11.7471
10.4971
8.71485
6.55004
4.1634
1.71286
-0.655549
-2.81081
-4.63426
-6.01253
-6.82869
-6.95482
-6.24913
-4.55979
-1.73627
2.35295
7.79892
14.6308
22.7989
32.1662
42.5105
53.5396
64.9162
76.2913
87.3387
97.7873
107.443
116.196
124.018
130.939
137.021
142.325
146.878
150.656
153.57
155.469
156.156
155.41
153.014
148.78
142.576
134.34
124.095
111.949
98.0929
82.8009
66.4185
49.3551
32.0742
15.0798
-1.09988
-15.934
-28.9151
-39.5887
-47.5838
-52.6382
-54.6152
-53.5024
-49.3872
-42.4062
-32.6668
-20.1507
-4.61094
14.5127
38.137
67.5085
104.087
149.334
204.407
269.801
344.983
428.08
515.703
602.956
683.688
750.971
797.792
817.868
806.482
761.217
682.479
573.698
441.185
293.612
141.201
-5.30564
-135.751
-241.612
-316.852
-358.486
-366.777
-345.069
-299.274
-237.096
-167.099
-97.7288
-36.4253
11.0992
41.3214
53.0845
47.4887
27.5333
-2.42811
-37.3359
-72.0926
-102.168
-124.074
-135.675
-136.294
-126.643
-108.593
-84.8252
-58.4289
-32.4854
-9.70146
7.87488
19.0289
23.4349
21.5985
14.7049
4.40223
-7.44844
-19.0201
-28.7352
-35.4255
-38.4214
-37.5676
-33.1687
-25.8792
-16.5571
-6.10607
4.67275
15.1961
25.1675
34.5929
43.7427
53.0709
63.1066
74.335
87.0902
101.475
117.318
134.18
151.4
168.175
183.667
197.109
207.909
215.725
220.508
222.505
222.225
220.373
217.749
215.144
213.235
212.49
213.107
214.98
217.71
220.646
222.964
223.762
222.172
217.458
209.102
196.865
180.804
161.271
138.867
114.386
88.7381
62.8807
37.748
14.2004
-7.01008
-25.2582
-40.0505
-51.0224
-57.9343
-60.671
-59.2467
-53.8158
-44.6873
-32.3362
-17.4082
-0.709397
16.82
34.1525
50.237
64.0756
74.8057
81.7774
84.6161
83.2614
77.9766
69.3245
58.1124
45.3123
31.963
19.0677
7.49744
-2.09012
-9.30567
-14.0535
-16.5236
-17.1532
-16.5614
-15.4668
-14.5955
-14.5929
-15.9472
-18.9353
-23.5948
-29.7266
-36.9259
-44.6373
-52.226
-59.0579
-64.5765
-68.368
-70.2083
-70.0849
-68.1934
-64.9093
-60.7394
-56.2599
-52.049
-48.6216
-46.3752
-45.5506
-46.214
-48.258
-51.4237
-55.3367
-59.5534
-63.6108
-67.0714
-69.5603
-70.788
-70.5591
-68.7692
-65.3912
-60.4588
-54.0511
-46.2831
-37.3059
-27.3159
-16.5721
-5.41412
5.72391
16.3124
25.744
33.3721
38.5712
40.8117
39.7405
35.2548
27.555
17.1654
4.9148
-8.12502
-20.7376
-31.6857
-39.8448
-44.3285
-44.5887
-40.4762
-32.2545
-20.5644
-6.34589
9.27276
25.1031
40.0247
53.0979
63.6477
71.3111
76.0441
78.0909
77.9228
76.1573
73.4691
70.5063
67.8216
65.8253
64.765
64.729
65.671
67.4466
69.8556
72.6812
75.719
78.7933
81.7595
84.4938
86.8759
88.7684
90.0008
90.3622
89.6062
87.4694
83.7011
78.1005
70.5557
61.0763
49.8158
37.0774
23.3016
9.03593
-5.10948
-18.5163
-30.6146
-40.9361
-49.1554
-55.117
-58.8428
-60.5208
-60.4759
-59.1261
-56.9306
-54.3335
-51.7124
-49.3353
-47.3319
-45.683
-44.2267
-42.6825
-40.6868
-37.8352
-33.7208
-27.9624
-20.2126
-10.1409
2.60721
18.47
38.035
62.0889
91.6291
127.811
171.812
224.614
286.703
357.744
436.269
519.462
603.095
681.683
748.86
797.972
822.815
818.42
781.786
712.425
612.65
487.526
344.496
192.701
42.0837
-97.6033
-217.78
-311.87
-375.9
-408.782
-412.271
-390.616
-349.944
-297.49
-240.746
-186.658
-140.938
-107.583
-88.6248
-84.1302
-92.4238
-110.49
-134.488
-160.31
-184.109
-202.74
-214.063
-217.098
-212.009
-199.962
-182.86
-163.02
-142.837
-124.463
-109.556
-99.1141
-93.4148
-92.044
-94.0141
-97.9407
-102.251
-105.397
-106.044
-103.215
-96.3836
-85.4993
-70.9616
-53.5414
-34.2689
-14.3028
5.20312
23.2197
38.9388
51.8357
61.6967
68.6109
72.9321
75.2178
76.1542
76.4766
76.8939
78.0226
80.3383
84.1437
89.5573
96.5187
104.811
114.094
123.945
133.902
143.509
152.352
160.089
166.469
171.34
174.644
176.408
176.721
175.705
173.488
170.177
165.836
160.476
154.055
146.492
137.694
127.591
116.168
103.5
89.7759
75.3012
60.4921
45.8477
31.9108
19.2176
8.24619
-0.631979
-7.18956
-11.3661
-13.2731
-13.18
-11.4849
-8.67253
-5.26463
-1.77035
1.35949
3.76813
5.2157
5.58726
4.88632
3.21575
0.749484
-2.30062
-5.71813
-9.31115
-12.9337
-16.497
-19.9706
-23.3732
-26.757
-30.1871
-33.7206
-37.3886
-41.1838
-45.0554
-48.912
-52.6313
-56.0758
-59.1113
-61.6246
-63.5398
-64.8289
-65.5165
-65.6779
-65.4308
-64.9217
-64.3099
-63.7493
-63.3721
-63.275
-63.5104
-64.0818
-64.9454
-66.0161
-67.1768
-68.2904
-69.2115
-69.797
-69.9132
-69.4384
-68.2609
-66.2735
-63.3656
-59.4169
-54.2942
-47.8547
-39.9558
-30.4713
-19.3117
-6.44492
8.08598
24.152
41.5363
59.9425
79.0119
98.347
117.539
136.194
153.958
170.53
185.674
199.218
211.048
221.097
229.333
235.743
240.323
243.072
243.989
243.081
240.369
235.907
229.792
222.18
213.29
203.406
192.867
182.043
171.308
161.004
151.401
142.663
134.818
127.737
121.14
114.615
107.649
99.6951
90.2308
78.8346
65.2495
49.4339
31.5892
12.1588
-8.20104
-28.6793
-48.3868
-66.4453
-82.0763
-94.6783
-103.885
-109.596
-111.974
-111.419
-108.513
-103.949
-98.4504
-92.6995
-87.268
-82.5725
-78.8498
-76.156
-74.3874
-73.3183
-72.6488
-72.0569
-71.2466
-69.9873
-68.1399
-65.6677
-62.6329
-59.1792
-55.5065
-51.8386
-48.3923
-45.3477
-42.827
-40.8804
-39.4829
-38.5394
-37.8986
-37.3715
-36.755
-35.8542
-34.5048
-32.5896
-30.051
-26.8956
-23.1924
-19.0645
-14.6755
-10.2117
-5.8642
-1.80972
1.80445
4.87232
7.33553
9.18438
10.4536
11.2141
11.5612
11.6021
11.4434
11.1797
10.8857
10.6114
10.3803
10.192
10.0268
9.85205
9.63041
9.3268
8.91518
8.38332
7.73535
6.992
6.18834
5.3696
4.58563
3.88451
3.3065
2.8787
2.61126
2.49544
2.50378
2.59212
2.70334
2.77219
2.73069
2.51333
2.06152
1.32695
0.274136
-1.117
-2.84679
-4.88739
-7.16766
-9.5491
-11.7913
-13.5075
-14.1141
-12.7794
-8.38544
0.486573
15.5277
38.6157
71.6605
116.377
173.995
244.934
328.475
422.503
523.355
625.862
723.587
809.301
875.64
915.893
924.81
899.331
839.107
746.747
627.724
489.939
342.994
197.249
62.7934
-51.562
-139.133
-195.96
-221.086
-216.501
-186.757
-138.337
-78.8413
-16.1096
42.6148
91.3904
126.077
144.588
146.886
134.747
111.34
80.688
47.0916
14.5778
-13.5521
-35.0361
-48.8022
-54.9521
-54.6003
-49.6018
-42.2152
-34.7514
-29.2531
-27.2434
-29.569
-36.3479
-47.0177
-60.4687
-75.2347
-89.7125
-102.378
-111.974
-117.64
-118.99
-116.114
-109.524
-100.054
-88.7264
-76.6134
-64.7002
-53.7771
-44.365
-36.6803
-30.6421
-25.9143
-21.9757
-18.2059
-13.9762
-8.73353
-2.06743
6.24519
16.2219
27.6826
40.2796
53.545
66.9467
79.9473
92.0564
102.873
112.11
119.611
125.34
129.364
131.834
132.946
132.914
131.937
130.181
127.76
124.727
121.076
116.745
111.632
105.614
98.5621
90.3685
80.9651
70.3426
58.564
45.772
32.1889
18.1093
3.88499
-10.0956
-23.4334
-35.7461
-46.6964
-56.0161
-63.526
-69.1471
-72.9043
-74.9203
-75.4013
-74.6167
-72.8734
-70.4893
-67.7679
-64.9762
-62.3281
-59.9739
-57.9971
-56.4164
-55.1936
-54.2444
-53.4517
-52.6801
-51.7891
-50.6456
-49.1344
-47.1665
-44.6847
-41.6664
-38.1238
-34.101
-29.6681
-24.9131
-19.9324
-14.8201
-9.65835
-4.50859
0.593835
5.64223
10.6572
15.6819
20.7744
25.9978
31.4104
37.055
42.9492
49.0768
55.3811
61.7602
68.0648
74.101
79.6369
84.4151
88.1699
90.6494
91.6397
90.9899
88.6332
84.6033
79.0409
72.1904
64.385
56.0215
47.5268
39.3198
31.7725
25.1759
19.7133
15.4455
12.3098
10.1317
8.64928
7.54627
6.48976
5.16783
3.32264
0.775014
-2.56185
-6.68051
-11.4885
-16.8264
-22.4915
-28.2635
-33.9278
-39.2947
-44.211
-48.5632
-52.2733
-55.2877
-57.5629
-59.0499
-59.6823
-59.3714
-58.0109
-55.4925
-51.7333
-46.7097
-40.4954
-33.294
-25.461
-17.5062
-10.0726
-3.89042
0.291309
1.78846
0.0711341
-5.15371
-13.878
-25.7569
-40.1083
-55.9503
-72.0739
-87.1446
-99.8227
-108.889
-113.363
-112.602
-106.366
-94.8464
-78.6529
-58.762
-36.4301
-13.0837
9.80267
30.8288
48.7796
62.7139
72.0249
76.4683
76.1578
71.5308
63.289
52.3235
39.6298
26.2248
13.0706
1.01345
-9.25985
-17.2461
-22.6316
-25.2832
-25.2281
-22.6274
-17.7477
-10.9344
-2.58823
6.85323
16.9308
27.1756
37.1212
46.3161
54.3402
60.8243
65.4751
68.1046
68.6643
67.2844
64.3153
60.3724
56.3771
53.5881
53.6117
58.3754
70.0498
90.9037
123.083
168.322
227.596
300.765
386.256
480.845
579.61
676.105
762.777
831.61
874.95
886.403
861.699
799.381
701.222
572.274
420.53
256.224
90.8332
-64.0753
-198.033
-302.725
-372.797
-406.309
-404.792
-372.916
-317.82
-248.201
-173.283
-101.794
-41.0724
3.5991
29.3729
35.9027
25.1162
0.745967
-32.3059
-68.676
-103.231
-131.66
-150.904
-159.389
-157.052
-145.181
-126.102
-102.776
-78.3546
-55.7629
-37.3577
-24.6899
-18.3963
-18.2183
-23.1312
-31.5573
-41.6262
-51.4442
-59.3383
-64.0463
-64.8358
-61.5432
-54.5377
-44.6229
-32.8933
-20.5695
-8.83479
1.30798
9.1429
14.3022
16.7795
16.8999
15.254
12.6098
9.81446
7.69859
6.99366
8.26922
11.894
18.0212
26.595
37.376
49.9773
63.9092
78.6246
93.563
108.189
122.021
134.656
145.783
155.184
162.736
168.4
172.208
174.243
174.622
173.473
170.919
167.059
161.96
155.66
148.165
139.471
129.584
118.54
106.431
93.4202
79.7519
65.7451
51.7786
38.2626
25.6033
14.1647
4.23227
-4.01601
-10.5269
-15.3757
-18.7551
-20.9524
-22.3165
-23.2209
-24.025
-25.0411
-26.5077
-28.5729
-31.2876
-34.609
-38.4111
-42.5021
-46.6445
-50.5768
-54.0347
-56.7707
-58.5702
-59.2652
-58.744
-56.9567
-53.9175
-49.702
-44.4416
-38.3127
-31.5243
-24.3025
-16.8737
-9.44893
-2.2098
4.7027
11.1949
17.2226
22.789
27.939
32.7491
37.3173
41.7492
46.1448
50.5836
55.111
59.7244
64.3629
68.9001
73.1425
76.8353
79.6757
81.3338
81.4814
79.8249
76.1399
70.3045
62.3257
52.356
40.697
27.7884
14.1824
0.505124
-12.5914
-24.482
-34.6204
-42.5857
-48.1172
-51.1345
-51.7417
-50.2135
-46.9663
-42.5172
-37.4353
-32.2906
-27.6051
-23.8117
-21.224
-20.0192
-20.2343
-21.776
-24.4402
-27.94
-31.9374
-36.0758
-40.0096
-43.4294
-46.0801
-47.7734
-48.3921
-47.8899
-46.2859
-43.6555
-40.1205
-35.8361
-30.9794
-25.737
-20.2938
-14.8227
-9.47622
-4.3799
0.371756
4.71609
8.62021
12.0759
15.0923
17.6873
19.8792
21.6794
23.0875
24.0901
24.6626
24.774
24.3941
23.5008
22.0871
20.1665
17.7752
14.9733
11.8431
8.48706
5.02481
1.58947
-1.67636
-4.62589
-7.11483
-9.00986
-10.1984
-10.5991
-10.1726
-8.92978
-6.93797
-4.32295
-1.26599
2.0041
5.22392
8.11254
10.3915
11.8057
12.1447
11.2606
9.08429
5.63566
1.0298
-4.52369
-10.7282
-17.2151
-23.566
-29.3417
-34.1154
-37.5078
-39.2206
-39.0646
-36.979
-33.0396
-27.4553
-20.5509
-12.7409
-4.49399
3.70572
11.3981
18.1826
23.7475
27.8893
30.522
31.6756
31.4843
30.1673
28.0029
25.2992
22.3649
19.4815
16.8803
14.7263
13.1082
12.0374
11.4546
11.2422
11.2423
11.2774
11.172
10.7725
9.96347
8.67913
6.90833
4.69338
2.12292
-0.680013
-3.57298
-6.41025
-9.05786
-11.4055
-13.3737
-14.9136
-15.9997
-16.6118
-16.7065
-16.177
-14.8014
-12.1833
-7.68967
-0.397238
10.9405
27.887
52.2612
86.004
130.966
188.623
259.732
343.974
439.637
543.392
650.248
753.715
846.215
919.72
966.569
980.363
956.825
894.491
795.122
663.76
508.394
339.263
167.874
5.85581
-136.206
-249.813
-329.351
-372.538
-380.501
-357.461
-310.102
-246.706
-176.167
-107.009
-46.5279
-0.140783
28.9968
40.077
34.4521
15.2164
-13.3689
-46.5249
-79.5926
-108.583
-130.582
-143.978
-148.499
-145.077
-135.578
-122.441
-108.28
-95.5128
-86.0433
-81.0503
-80.8867
-85.0966
-92.5364
-101.577
-110.349
-117.008
-119.971
-118.103
-110.839
-98.2218
-80.8651
-59.8464
-36.5549
-12.5123
10.8057
32.1272
50.502
65.3697
76.574
84.3284
89.1406
91.7138
92.8363
93.2797
93.7155
94.6611
96.4574
99.2774
103.158
108.044
113.839
120.447
127.799
135.865
144.646
154.15
164.363
175.205
186.501
197.955
209.137
219.49
228.358
235.025
238.77
238.936
234.997
226.621
213.722
196.497
175.431
151.28
125.023
97.7891
70.7661
45.1013
21.8027
1.65587
-14.8355
-27.4783
-36.3839
-41.9298
-44.6935
-45.3679
-44.6689
-43.2462
-41.6089
-40.0733
-38.7394
-37.4979
-36.0663
-34.0484
-31.0097
-26.5586
-20.4228
-12.5101
-2.94611
7.9168
19.5219
31.1585
42.0343
51.3616
58.4448
62.7596
64.0127
62.1747
57.4829
50.4138
41.6279
31.8965
22.0167
12.7263
4.62811
-1.8695
-6.58977
-9.59869
-11.1901
-11.8459
-12.175
-12.8377
-14.4607
-17.5548
-22.4415
-29.1996
-37.6389
-47.306
-57.5234
-67.4589
-76.2178
-82.9472
-86.9392
-87.7186
-85.106
-79.2446
-70.5905
-59.8652
-47.9787
-35.932
-24.7117
-15.1903
-8.0429
-3.69026
-2.27223
-3.65349
-7.45769
-13.124
-19.9775
-27.304
-34.4213
-40.7381
-45.7966
-49.2954
-51.0929
-51.1926
-49.7151
-46.862
-42.8766
-38.0089
-32.4884
-26.5077
-20.2209
-13.7522
-7.21525
-0.736287
5.52428
11.3574
16.5032
20.6642
23.5323
24.829
24.3495
22.0061
17.8615
12.1445
5.24521
-2.31255
-9.91873
-16.9389
-22.782
-26.9655
-29.1687
-29.2671
-27.3436
-23.6756
-18.6991
-12.9556
-7.02895
-1.47878
3.21936
6.72172
8.84598
9.58066
9.07391
7.60458
5.53999
3.28648
1.23933
-0.261741
-0.966443
-0.733862
0.462442
2.5431
5.3424
8.6344
12.1614
15.6609
18.8874
21.6288
23.7158
25.0264
25.4872
25.0721
23.8016
21.7422
19.0054
15.7463
12.1594
8.47102
4.92722
1.77709
-0.747495
-2.45395
-3.21025
-2.9626
-1.74673
0.309532
2.99329
6.02354
9.07644
11.8166
13.931
15.1621
15.3364
14.3857
12.361
9.43774
5.91724
2.22627
-1.07914
-3.30387
-3.59752
-0.936628
5.88493
18.2433
37.6337
65.5653
103.394
152.094
211.983
282.439
361.648
446.448
532.321
613.57
683.708
736.023
764.294
763.537
730.713
665.266
569.419
448.152
308.856
160.689
13.6994
-122.167
-238.069
-327.146
-385.162
-410.859
-405.956
-374.831
-323.921
-260.923
-193.908
-130.442
-76.8361
-37.5842
-15.0569
-9.45819
-19.0335
-40.482
-69.508
-101.431
-131.781
-156.803
-173.823
-181.448
-179.583
-169.291
-152.53
-131.798
-109.759
-88.8895
-71.1836
-57.9561
-49.7533
-46.3729
-46.9783
-50.2821
-54.7694
-58.9251
-61.438
-61.3542
-58.1668
-51.8339
-42.7306
-31.5454
-19.1415
-6.40636
5.88958
17.2016
27.2746
36.153
44.1408
51.7176
59.4298
67.7728
77.086
87.4753
98.7761
110.561
122.191
132.899
141.895
148.477
152.13
152.595
149.914
144.423
136.714
127.567
117.851
108.424
100.032
93.2233
88.2881
85.2342
83.7923
83.4574
83.5561
83.3342
82.0503
79.0667
73.9246
66.3956
56.5044
44.5202
30.9193
16.3251
1.43326
-13.0686
-26.5758
-38.6283
-48.9522
-57.4771
-64.329
-69.7997
-74.3
-78.3002
-82.2688
-86.6145
-91.6385
-97.5028
-104.216
-111.639
-119.502
-127.443
-135.043
-141.877
-147.547
-151.718
-154.139
-154.653
-153.197
-149.791
-144.525
-137.546
-129.044
-119.243
-108.391
-96.7589
-84.6376
-72.3302
-60.1472
-48.3954
-37.3644
-27.3105
-18.44
-10.8936
-4.73457
0.0582572
3.58991
6.04177
7.65671
8.71841
9.52677
10.372
11.5104
13.1434
15.4038
18.3484
21.9586
26.1486
30.7794
35.6776
40.6547
45.5282
50.139
54.3646
58.1285
61.402
64.2021
66.583
68.6251
70.4202
72.058
73.612
75.1288
76.6214
78.0664
79.4062
80.5551
81.4093
81.8581
81.7967
81.1375
79.8189
77.8112
75.1177
71.7728
67.8352
63.3804
58.4913
53.2511
47.7372
42.0195
36.1615
30.2236
24.27
18.3745
12.6281
7.14331
2.05698
-2.47145
-6.26649
-9.14903
-10.9546
-11.5564
-10.8895
-8.97327
-5.92739
-1.97611
2.56013
7.28729
11.7724
15.586
18.3476
19.7666
19.6751
18.0459
14.995
10.7675
5.70867
0.224127
-5.26514
-10.3684
-14.7654
-18.2363
-20.6795
-22.1143
-22.6705
-22.566
-22.0757
-21.4979
-21.1198
-21.1887
-21.8906
-23.3368
-25.5605
-28.5206
-32.1108
-36.1734
-40.5145
-44.9196
-49.1691
-53.0533
-56.3849
-59.0112
-60.823
-61.7608
-61.8183
-61.0407
-59.5197
-57.3844
-54.7893
-51.9001
-48.879
-45.8713
-42.9938
-40.3275
-37.9124
-35.7479
-33.7947
-31.9793
-30.1993
-28.3289
-26.225
-23.7339
-20.7003
-16.98
-12.4548
-7.05251
-0.766778
6.32333
14.0393
22.0978
30.1175
37.6397
44.1619
49.183
52.2547
53.0339
51.3282
47.1305
40.6361
32.2384
22.5054
12.1352
1.89787
-7.43234
-15.1458
-20.6608
-23.5747
-23.697
-21.0627
-15.924
-8.72277
-0.0474309
9.42197
18.9735
27.9225
35.6658
41.7239
45.7717
47.6521
47.3763
45.1086
41.1409
35.8591
29.7049
23.138
16.6018
10.4968
5.16497
0.889605
-2.0871
-3.5262
-3.13456
-0.492128
5.02694
14.3248
28.6229
49.4546
78.5875
117.859
168.919
232.897
310.022
399.251
497.971
601.852
704.911
799.832
878.535
932.954
955.951
942.222
889.102
797.106
670.151
515.376
342.58
163.331
-10.1523
-166.212
-294.91
-388.992
-444.54
-461.251
-442.306
-393.863
-324.256
-242.99
-159.672
-83.0056
-19.9556
24.8282
49.2782
53.8627
41.2556
15.7847
-17.2556
-52.3349
-84.3692
-109.277
-124.357
-128.456
-121.934
-106.441
-84.5697
-59.4189
-34.1506
-11.5841
6.12216
17.6698
22.6909
21.6941
15.9056
7.03825
-2.97548
-12.2489
-19.1721
-22.5828
-21.8629
-16.9568
-8.31678
3.20843
16.5227
30.4461
43.8712
55.8926
65.8971
73.6068
79.0742
82.6364
84.837
86.3299
87.7796
89.7701
92.7346
96.912
102.332
108.831
116.085
123.667
131.098
137.912
143.693
148.113
150.946
152.064
151.423
149.043
144.98
139.301
132.08
123.388
113.306
101.942
89.451
76.0542
62.0486
47.8056
33.7559
20.3605
8.07217
-2.70839
-11.6744
-18.6475
-23.5999
-26.6591
-28.0963
-28.298
-27.7253
-26.8662
-26.1861
-26.0822
-26.8479
-28.6486
-31.5116
-35.3296
-39.8765
-44.8328
-49.8181
-54.4268
-58.2644
-60.9811
-62.2998
-62.0374
-60.1181
-56.577
-51.5561
-45.2922
-38.0992
-30.3448
-22.426
-14.7428
-7.67326
-1.5512
3.35201
6.841
8.8041
9.21483
8.12746
5.66682
2.01402
-2.61049
-7.96398
-13.7967
-19.8635
-25.9306
-31.7781
-37.1991
-41.9968
-45.9821
-48.9743
-50.8045
-51.3243
-50.4175
-48.0142
-44.1049
-38.7519
-32.0951
-24.3511
-15.8045
-6.79112
2.32565
11.182
19.4424
26.8264
33.1297
38.2379
42.1307
44.8766
46.6186
47.5532
47.9044
47.8977
47.7339
47.5699
47.5035
47.5685
47.7357
47.9228
48.0084
47.8509
47.3076
46.2526
44.592
42.2737
39.2921
35.6875
31.5404
26.9619
22.0814
17.0342
11.9484
6.93438
2.07627
-2.57234
-6.98953
-11.1821
-15.1793
-19.0237
-22.7605
-26.426
-30.037
-33.5824
-37.0176
-40.2637
-43.2113
-45.7282
-47.6714
-48.9013
-49.2964
-48.7657
-47.259
-44.7704
-41.3379
-37.0358
-31.9642
-26.2356
-19.9615
-13.2418
-6.15827
1.22737
8.8696
16.732
24.7774
32.9583
41.2086
49.4388
57.5354
65.3639
72.7762
79.6185
85.7415
91.0081
95.2999
98.5205
100.597
101.477
101.129
99.5374
96.7029
92.6426
87.3946
81.0233
73.6269
65.3436
56.3557
46.8899
37.2104
27.6077
18.3806
9.81523
2.16159
-4.38753
-9.71392
-13.7841
-16.6511
-18.4465
-19.365
-19.6407
-19.5206
-19.2373
-18.9831
-18.891
-19.0214
-19.3562
-19.7969
-20.1642
-20.1899
-19.4989
-17.577
-13.7259
-7.01659
3.74204
19.9983
43.3916
75.6081
118.154
172.055
237.528
313.653
398.147
487.261
575.886
657.868
726.531
775.35
798.701
792.584
755.214
687.388
592.573
476.677
347.529
214.132
85.764
-28.949
-122.879
-191.063
-231.112
-243.319
-230.473
-197.404
-150.337
-96.1312
-41.5164
7.59971
46.6633
72.8047
84.9426
83.6732
70.9791
49.8126
23.6184
-4.13947
-30.388
-52.7505
-69.7213
-80.7048
-85.9335
-86.2902
-83.0743
-77.7478
-71.7013
-66.067
-61.5978
-58.6208
-57.0602
-56.5167
-56.385
-55.9862
-54.6954
-52.0453
-47.7942
-41.9537
-34.7737
-26.6955
-18.279
-10.1195
-2.76517
3.35248
7.96786
11.0048
12.5735
12.9447
12.5048
11.7009
10.9837
10.7551
11.3269
12.8957
15.5349
19.2026
23.763
29.0168
34.7337
40.6833
46.6585
52.4895
58.0471
63.2363
67.9821
72.2122
75.838
78.7406
80.7616
81.7023
81.331
79.3979
75.6566
69.8897
61.9375
51.7247
39.2857
24.7817
8.51038
-9.09631
-27.4858
-46.0104
-63.9631
-80.6221
-95.2984
-107.386
-116.406
-122.044
-124.173
-122.863
-118.369
-111.108
-101.615
-90.4905
-78.3471
-65.754
-53.1931
-41.0279
-29.4908
-18.6875
-8.61731
0.794662
9.66015
18.0904
26.1651
33.9113
41.295
48.2255
54.5701
60.1769
64.9003
68.6253
71.2875
72.8857
73.4848
73.2104
72.2355
70.7609
68.9917
67.1136
65.2701
63.544
61.9454
60.4057
58.7813
56.8664
54.4133
51.1613
46.8693
41.3504
34.5027
26.3334
16.9721
6.67119
-4.208
-15.2213
-25.8777
-35.6807
-44.1709
-50.9633
-55.7774
-58.4536
-58.9573
-57.3694
-53.8645
-48.6825
-42.0965
-34.3815
-25.7908
-16.539
-6.7975
3.30108
13.6494
24.1462
34.6761
45.0902
55.193
64.7371
73.4274
80.9352
86.9202
91.0605
93.0843
92.8026
90.137
85.1396
78.0026
69.054
58.7411
47.601
36.2216
25.1969
15.081
6.34444
-0.660607
-5.72492
-8.79333
-9.96187
-9.46166
-7.63167
-4.88338
-1.66119
1.59754
4.49886
6.72209
8.04067
8.33304
7.58323
5.87224
3.36174
0.272301
-3.14117
-6.61466
-9.89852
-12.7775
-15.0859
-16.7178
-17.6307
-17.844
-17.4328
-16.5168
-15.2471
-13.7899
-12.3113
-10.9625
-9.86775
-9.1158
-8.75636
-8.80078
-9.22696
-9.9869
-11.0152
-12.2366
-13.571
-14.9361
-16.2478
-17.419
-18.3606
-18.9829
-19.2009
-18.942
-18.1546
-16.8176
-14.9464
-12.5965
-9.86159
-6.86633
-3.75515
-0.676913
2.23221
4.86628
7.16576
9.13075
10.8299
12.4041
14.0626
16.0726
18.7397
22.3807
27.2899
33.7016
41.7531
51.4532
62.6607
75.0782
88.263
101.656
114.625
126.527
136.763
144.847
150.458
153.477
154.007
152.366
149.054
144.698
139.98
135.55
131.943
129.503
128.325
128.232
128.771
129.258
128.846
126.614
121.681
113.316
101.041
84.7067
64.5419
41.1555
15.5029
-11.1879
-37.5183
-62.0405
-83.3832
-100.37
-112.119
-118.111
-118.228
-112.75
-102.317
-87.8595
-70.503
-51.4509
-31.8585
-12.704
5.33507
21.9889
37.4754
52.5394
68.438
86.8593
109.766
139.164
176.805
223.849
280.527
345.855
417.446
491.484
562.886
625.663
673.466
700.259
701.044
672.541
613.723
526.13
413.892
283.45
143.003
1.72263
-131.143
-247.19
-339.684
-404.176
-438.87
-444.674
-424.958
-385.058
-331.591
-271.681
-212.176
-158.97
-116.475
-87.3157
-72.2476
-70.2931
-79.0647
-95.2136
-114.944
-134.523
-150.727
-161.184
-164.568
-160.65
-150.212
-134.838
-116.634
-97.9032
-80.8302
-67.2112
-58.2528
-54.4647
-55.6477
-60.9709
-69.1207
-78.4976
-87.4312
-94.3879
-98.1449
-97.9144
-93.4063
-84.8279
-72.8251
-58.378
-42.6652
-26.9158
-12.2677
0.352809
10.3178
17.3426
21.4891
23.1283
22.8724
21.4852
19.7834
18.5411
18.4072
19.8441
23.091
28.155
34.825
42.707
51.2731
59.9186
68.0226
75.0049
80.3771
83.7834
85.0284
84.0909
81.1211
76.422
70.4157
63.5973
56.4823
49.5511
43.1997
37.7011
33.1826
29.6218
26.8614
24.6402
22.6358
20.5126
17.969
14.778
10.8149
6.07151
0.653841
-5.23377
-11.3161
-17.2816
-22.8187
-27.6504
-31.5623
-34.4213
-36.1835
-36.8921
-36.6646
-35.6738
-34.1232
-32.2224
-30.1628
-28.0986
-26.1334
-24.3139
-22.631
-21.0275
-19.4102
-17.6652
-15.674
-13.3282
-10.5418
-7.25903
-3.4586
0.845904
5.60911
10.7589
16.2025
21.8331
27.5353
33.1903
38.6795
43.8876
48.7045
53.0278
56.7648
59.8347
62.1706
63.7221
64.4558
64.3548
63.417
61.6499
59.0648
55.6707
51.4686
46.4492
40.5946
33.8856
26.3134
17.8958
8.69552
-1.16281
-11.479
-21.9712
-32.2788
-41.9767
-50.6008
-57.6826
-62.791
-65.5749
-65.8042
-63.4014
-58.4618
-51.2569
-42.2234
-31.9339
-21.0555
-10.298
-0.357568
8.13923
14.6843
18.9259
20.691
19.9899
17.0021
12.0458
5.5324
-2.08759
-10.3815
-18.9865
-27.6488
-36.2439
-44.7722
-53.3312
-62.0643
-71.0955
-80.4599
-90.0429
-99.5402
-108.45
-116.105
-121.734
-124.563
-123.924
-119.363
-110.739
-98.2739
-82.5692
-64.5663
-45.4632
-26.5942
-9.28891
5.27134
16.1807
22.9034
25.3238
23.747
18.8499
11.592
3.09666
-5.47924
-13.0719
-18.8175
-22.1279
-22.7284
-20.6548
-16.2159
-9.92713
-2.42757
5.60786
13.5494
20.8774
27.2244
32.3924
36.3455
39.1832
41.0992
42.3348
43.1334
43.7022
44.1873
44.6615
45.1273
45.5303
45.7803
45.7744
45.4192
44.6466
43.4231
41.7514
39.6652
37.2203
34.4822
31.5159
28.3768
25.1058
21.7291
18.2617
14.7137
11.0984
7.44059
3.78267
0.188261
-3.25807
-6.45489
-9.29135
-11.6567
-13.4499
-14.587
-15.0025
-14.641
-13.4365
-11.2757
-7.94707
-3.07851
3.92796
13.9514
28.1808
48.0978
75.3971
111.829
158.962
217.879
288.829
370.897
461.732
557.42
652.55
740.5
813.964
865.657
889.143
879.66
834.831
755.152
644.165
508.28
356.235
198.275
45.1284
-93.0846
-207.875
-293.214
-346.072
-366.597
-357.947
-325.774
-277.464
-221.231
-165.161
-116.348
-80.1985
-59.9815
-56.6604
-69.0012
-93.9239
-127.038
-163.284
-197.594
-225.501
-243.621
-249.968
-244.077
-226.936
-200.758
-168.618
-134.027
-100.482
-71.0631
-48.1044
-32.9812
-26.0273
-26.5777
-33.1249
-43.5588
-55.4561
-66.383
-74.1738
-77.1572
-74.3093
-65.3222
-50.5874
-31.1045
-8.32991
16.0102
40.1205
62.3267
81.2346
95.8446
105.613
110.458
110.721
107.083
100.462
91.8977
82.4444
73.073
64.6029
57.6572
52.6468
49.7764
49.0694
50.4031
53.5489
58.2114
64.0615
70.7628
77.9882
85.4303
92.8051
99.8518
106.332
112.03
116.75
120.318
122.584
123.418
122.709
120.361
116.288
110.414
102.673
93.0206
81.4439
67.9842
52.7578
35.9757
17.9591
-0.854076
-19.9149
-38.58
-56.1413
-71.8637
-85.0299
-94.9885
-101.201
-103.287
-101.058
-94.5506
-84.0375
-70.0329
-53.2772
-34.7061
-15.4042
3.45629
20.6865
35.1583
45.8805
52.0695
53.2067
49.0794
39.7992
25.7986
7.8024
-13.221
-36.1275
-59.6777
-82.6241
-103.797
-122.186
-137.001
-147.721
-154.115
-156.241
-154.418
-149.175
-141.193
-131.226
-120.031
-108.297
-96.5958
-85.3487
-74.8147
-65.1035
-56.2032
-48.0219
-40.4323
-33.3139
-26.5856
-20.2246
-14.2709
-8.81591
-3.98023
0.115416
3.38135
5.78633
7.37697
8.28626
8.72982
8.99039
9.39271
10.2719
11.9394
14.6513
18.5811
23.8026
30.2822
37.8819
46.3723
55.4533
64.7798
73.9887
82.7257
90.6684
97.5445
103.144
107.326
110.022
111.228
111.003
109.457
106.74
103.033
98.5295
93.429
87.9215
82.1779
76.3388
70.5068
64.7397
59.046
53.3836
47.6614
41.7451
35.4666
28.6388
21.0744
12.6086
3.1238
-7.42554
-18.9915
-31.4168
-44.4286
-57.6427
-70.5824
-82.7088
-93.4634
-102.319
-108.836
-112.709
-113.818
-112.25
-108.309
-102.495
-95.4678
-87.975
-80.7728
-74.5355
-69.7693
-66.7425
-65.4426
-65.5681
-66.5591
-67.6627
-68.0279
-66.8154
-63.3094
-57.016
-47.7335
-35.5877
-21.0245
-4.76496
12.2745
29.0825
44.6624
58.1368
68.8338
76.3462
80.5578
81.6351
79.9894
76.2138
71.0059
65.0856
59.1177
53.6488
49.0628
45.5601
43.1596
41.7209
40.9835
40.6143
40.2593
39.5912
38.3483
36.3609
33.5635
29.9924
25.7714
21.0887
16.1683
11.2406
6.5164
2.16582
-1.69517
-5.0101
-7.77981
-10.0539
-11.9176
-13.4763
-14.8403
-16.11
-17.3663
-18.6628
-20.0242
-21.4486
-22.9123
-24.3784
-25.8056
-27.1566
-28.4043
-29.536
-30.5538
-31.4717
-32.311
-33.0931
-33.8328
-34.5315
-35.1722
-35.7151
-36.0925
-36.2012
-35.8881
-34.9265
-32.98
-29.5564
-23.9553
-15.2218
-2.11877
16.8617
43.4302
79.36
126.27
185.337
256.964
340.444
433.678
533.009
633.236
727.839
809.44
870.465
903.945
904.359
868.41
795.606
688.568
552.978
397.178
231.437
66.97
-85.1665
-215.175
-315.477
-381.414
-411.614
-407.982
-375.329
-320.696
-252.474
-179.411
-109.664
-49.9699
-5.05447
22.687
33.2066
28.5453
12.3526
-10.7417
-35.8101
-58.2804
-74.4776
-82.0003
-79.8997
-68.6573
-49.9826
-26.4754
-1.20529
22.7283
42.5992
56.3731
62.9094
62.0314
54.4694
41.6951
25.6785
8.60578
-7.40312
-20.542
-29.5035
-33.5856
-32.7133
-27.3834
-18.5457
-7.44388
4.56084
16.1581
26.2293
33.9469
38.8236
40.7135
39.7707
36.3777
31.0577
24.3854
16.91
9.09751
1.30086
-6.24435
-13.4002
-20.0895
-26.2499
-31.7872
-36.5371
-40.2404
-42.5405
-43.0012
-41.1486
-36.5297
-28.7834
-17.7125
-3.34849
14.0013
33.7324
54.9504
76.5108
97.0865
115.26
129.634
138.947
142.188
138.697
128.247
111.081
87.9225
59.9345
28.645
-4.16671
-36.6065
-66.8144
-93.1126
-114.137
-128.942
-137.064
-138.544
-133.904
-124.077
-110.311
-94.0395
-76.7508
-59.8572
-44.5831
-31.8789
-22.371
-16.3466
-13.7742
-14.3531
-17.583
-22.8456
-29.4858
-36.8833
-44.507
-51.9467
-58.9201
-65.2578
-70.8724
-75.7182
-79.7514
-82.8993
-85.0433
-86.0189
-85.6332
-83.6948
-80.0509
-74.6242
-67.4431
-58.6589
-48.5475
-37.4944
-25.9646
-14.462
-3.48297
6.52896
15.223
22.3692
27.8736
31.7776
34.243
35.5262
35.9434
35.8327
35.5168
35.2715
35.302
35.7293
36.588
37.8337
39.3585
41.0125
42.6264
44.0346
45.094
45.6983
45.7854
45.3394
44.3866
42.9875
41.2262
39.1984
37.0002
34.7181
32.4213
30.1571
27.9487
25.796
23.6787
21.5612
19.3985
17.1422
14.7468
12.1742
9.3969
6.39931
3.17633
-0.269852
-3.93468
-7.81701
-11.9243
-16.2756
-20.9022
-25.8432
-31.1381
-36.8163
-42.8851
-49.3191
-56.052
-62.9743
-69.9363
-76.7566
-83.2354
-89.1693
-94.3657
-98.6543
-101.894
-103.977
-104.825
-104.388
-102.642
-99.5815
-95.2249
-89.6138
-82.8184
-74.943
-66.1307
-56.5658
-46.472
-36.1061
-25.7466
-15.6778
-6.17177
2.53136
10.2413
16.832
22.25
26.5167
29.722
32.0118
33.5689
34.5918
35.2709
35.7675
36.1976
36.6212
37.0405
37.4046
37.622
37.5782
37.1554
36.2524
34.8019
32.7824
30.2243
27.2078
23.8558
20.3202
16.7658
13.352
10.2172
7.46448
5.15335
3.29555
1.85686
0.763236
-0.0895325
-0.824094
-1.56955
-2.45067
-3.57966
-5.05108
-6.93997
-9.30221
-12.1752
-15.5768
-19.4991
-23.8951
-28.6557
-33.5756
-38.3094
-42.3207
-44.8299
-44.7687
-40.7544
-31.0954
-13.8461
13.0751
51.6933
103.708
170.164
251.083
345.121
449.31
558.947
667.702
767.978
851.509
910.17
936.884
926.532
876.715
788.266
665.406
515.501
348.454
175.76
9.37736
-139.482
-261.465
-349.978
-401.751
-417.032
-399.369
-355.049
-292.263
-220.112
-147.581
-82.6006
-31.3009
2.46583
17.3074
14.1744
-4.01319
-32.9294
-67.5113
-102.644
-133.778
-157.413
-171.396
-175.036
-169.011
-155.127
-135.961
-114.449
-93.4727
-75.4958
-62.2993
-54.8258
-53.1486
-56.5538
-63.7129
-72.9144
-82.3191
-90.2048
-95.1704
-96.2797
-93.1331
-85.8665
-75.0871
-61.7587
-47.0578
-32.2198
-18.3946
-6.52805
2.72136
9.02292
12.3732
13.0584
11.5887
8.61436
4.83743
0.927173
-2.5494
-5.17634
-6.71327
-7.09514
-6.40996
-4.85949
-2.70997
-0.240384
2.30422
4.74821
7.00556
9.08325
11.0688
13.1055
15.3591
17.9838
21.0895
24.7185
28.8321
33.3097
37.9591
42.5375
46.7782
50.4205
53.2394
55.0702
55.8261
55.5074
54.2009
52.0693
49.3333
46.248
43.0754
40.0578
37.3942
35.2224
33.6089
32.5472
31.9653
31.7393
31.713
31.7194
31.601
31.227
30.504
29.3799
27.8417
25.9073
23.6136
21.005
18.1221
14.9942
11.6371
8.05434
4.24296
0.201922
-4.05931
-8.51309
-13.1087
-17.7707
-22.4018
-26.8878
-31.1064
-34.9365
-38.2673
-41.0067
-43.087
-44.4688
-45.1411
-45.1204
-44.4476
-43.1828
-41.4013
-39.1875
-36.6294
-33.8131
-30.8169
-27.7059
-24.5277
-21.3102
-18.0623
-14.7783
-11.446
-8.05698
-4.61779
-1.15978
2.25546
5.53648
8.56932
11.2313
13.4099
15.0231
16.0384
16.4869
16.4681
16.1461
15.7337
15.4683
15.5814
16.2648
17.6402
19.7352
22.4706
25.6602
29.0251
32.2201
34.8694
36.6074
37.119
36.1746
33.6553
29.5657
24.0322
17.2868
9.64007
1.44443
-6.94654
-15.2179
-23.1274
-30.5292
-37.3842
-43.7556
-49.7895
-55.6848
-61.6544
-67.8831
-74.4886
-81.4889
-88.7802
-96.1296
-103.182
-109.482
-114.51
-117.735
-118.661
-116.896
-112.198
-104.522
-94.0429
-81.1638
-66.4911
-50.7913
-34.9258
-19.7725
-6.14339
5.29326
14.0749
19.9848
23.0645
23.5985
22.0717
19.1079
15.3951
11.6092
8.34348
6.05409
5.02593
5.36186
6.99455
9.71707
13.2259
17.1693
21.1939
24.9833
28.2853
30.9261
32.8112
33.9177
34.2785
33.9646
33.0677
31.6865
29.917
27.8483
25.5625
23.137
20.6487
18.1761
15.8
13.6012
11.6552
10.025
8.75275
7.85251
7.30473
7.05435
7.01299
7.06541
7.07984
6.921
6.46437
5.60984
4.2929
2.49206
0.231266
-2.42287
-5.36874
-8.48124
-11.6255
-14.6713
-17.5058
-20.044
-22.2346
-24.0616
-25.5418
-26.7181
-27.6499
-28.4029
-29.0377
-29.6006
-30.1164
-30.5844
-30.9771
-31.2426
-31.3087
-31.0881
-30.4819
-29.3789
-27.647
-25.1133
-21.5327
-16.5442
-9.62283
-0.0345602
13.1909
31.2555
55.5417
87.505
128.507
179.598
241.255
313.127
393.796
480.62
569.691
655.951
733.478
795.955
837.27
852.197
837.076
790.39
713.148
609.004
484.076
346.462
205.5
70.8632
-48.4074
-144.813
-213.132
-250.89
-258.519
-239.188
-198.328
-142.942
-80.756
-19.3615
34.5875
76.0059
101.786
110.946
104.527
85.2602
57.0756
24.5114
-7.88685
-36.1098
-57.1092
-69.0651
-71.478
-65.0917
-51.6741
-33.6967
-13.9615
4.7728
20.1199
30.3147
34.3603
32.065
23.978
11.2416
-4.61198
-21.8884
-38.9516
-54.4102
-67.248
-76.8887
-83.1909
-86.3823
-86.9478
-85.4913
-82.5954
-78.6996
-74.0154
-68.4899
-61.8224
-53.5289
-43.0435
-29.839
-13.5477
5.93908
28.4074
53.3049
79.7752
106.739
133.012
157.434
179.008
197.012
211.079
221.226
227.842
231.622
233.466
234.359
235.239
236.882
239.813
244.246
250.07
256.874
264.002
270.629
275.857
278.807
278.707
274.959
267.198
255.316
239.472
220.074
197.752
173.302
147.635
121.71
96.4699
72.7795
51.3748
32.8203
17.4828
5.52043
-3.11274
-8.64612
-11.4598
-12.0419
-10.9411
-8.71798
-5.90055
-2.94696
-0.219363
2.03013
3.66096
4.63402
4.99211
4.8335
4.28165
3.4545
2.43686
1.25934
-0.113017
-1.78042
-3.89561
-6.63999
-10.1916
-14.6897
-20.2008
-26.6927
-34.0204
-41.9271
-50.061
-58.0065
-65.3251
-71.6015
-76.4878
-79.7405
-81.2448
-81.0232
-79.2287
-76.1218
-72.0374
-67.3449
-62.4068
-57.5426
-53.0011
-48.9439
-45.442
-42.4833
-39.9899
-37.841
-35.8975
-34.0254
-32.1147
-30.0918
-27.9245
-25.6205
-23.2204
-20.7869
-18.393
-16.1104
-13.9998
-12.1051
-10.4498
-9.03784
-7.8561
-6.8787
-6.07214
-5.40006
-4.82733
-4.32302
-3.86218
-3.42653
-3.00436
-2.58986
-2.18207
-1.78379
-1.40045
-1.03906
-0.707229
-0.412364
-0.160865
0.0425719
0.195711
0.29976
0.360848
0.392283
0.417679
0.47471
0.618761
0.925334
1.48989
2.424
3.84712
5.87435
8.60133
12.0882
16.3456
21.3242
26.9122
32.9387
39.1866
45.4111
51.3633
56.815
61.5821
65.5437
68.6538
70.9458
72.5269
73.5662
74.2742
74.8791
75.5997
76.6209
78.0708
80.0069
82.409
85.183
88.1744
91.1889
94.0196
96.4749
98.4047
99.7207
100.409
100.529
100.209
99.619
98.9498
98.3758
98.0226
97.9346
98.0504
98.1887
98.0474
97.2187
95.2215
91.547
85.7173
77.348
66.2087
52.2734
35.7506
17.0902
-3.03823
-23.7943
-44.2374
-63.4112
-80.4317
-94.5666
-105.296
-112.347
-115.703
-115.575
-112.365
-106.603
-98.8802
-89.7911
-79.8736
-69.5636
-59.1538
-48.7547
-38.2544
-27.2737
-15.1237
-0.77477
17.146
40.3084
70.5679
109.776
159.518
220.792
293.665
376.966
468.065
562.804
655.626
739.929
808.614
854.809
872.649
858.045
809.306
727.53
616.69
483.385
336.279
185.284
40.5906
-88.342
-193.71
-270.09
-314.893
-328.488
-314.003
-276.835
-223.943
-163.019
-101.631
-46.4538
-2.6568
26.4867
39.7407
37.8057
23.0067
-1.17226
-30.6387
-61.2526
-89.3306
-112.036
-127.622
-135.508
-136.208
-131.118
-122.224
-111.761
-101.875
-94.3375
-90.3315
-90.3391
-94.1297
-100.842
-109.145
-117.441
-124.094
-127.647
-126.998
-121.523
-111.133
-96.2599
-77.7766
-56.8758
-34.9101
-13.2256
6.99393
24.8548
39.8357
51.82
61.0731
68.1743
73.9116
79.1584
84.748
91.3635
99.4574
109.209
120.523
133.066
146.329
159.712
172.61
184.49
194.947
203.736
210.779
216.141
219.99
222.552
224.056
224.696
224.604
223.833
222.366
220.128
217.015
212.915
207.73
201.389
193.851
185.11
175.176
164.081
151.865
138.58
124.297
109.113
93.1607
76.6154
59.6954
42.653
25.7578
9.27378
-6.56596
-21.5822
-35.6653
-48.7814
-60.9661
-72.308
-82.9241
-92.9314
-102.42
-111.433
-119.95
-127.895
-135.137
-141.517
-146.873
-151.065
-154.01
-155.696
-156.202
-155.698
-154.44
-152.748
-150.982
-149.509
-148.664
-148.714
-149.831
-152.061
-155.314
-159.358
-163.826
-168.236
-172.023
-174.576
-175.284
-173.59
-169.038
-161.318
-150.305
-136.083
-118.948
-99.4011
-78.1147
-55.8857
-33.5743
-12.0355
7.94911
25.7333
40.8542
53.0613
62.3252
68.8236
72.9086
75.0588
75.8231
75.762
75.3926
75.1447
75.3293
76.1238
77.5727
79.6027
82.0483
84.6852
87.2651
89.5496
91.3378
92.4859
92.9183
92.6277
91.6685
90.1422
88.18
85.9237
83.5071
81.0414
78.6044
76.2348
73.9316
71.6572
69.3446
66.906
64.2436
61.2602
57.8699
54.0083
49.6419
44.7747
39.4524
33.7622
27.8274
21.7966
15.8277
10.0697
4.64405
-0.37082
-4.94822
-9.11356
-12.9354
-16.5081
-19.9294
-23.2754
-26.5793
-29.8156
-32.8951
-35.67
-37.9508
-39.5323
-40.2251
-39.8891
-38.4628
-35.9851
-32.6041
-28.5734
-24.2322
-19.9751
-16.2119
-13.3251
-11.6286
-11.3341
-12.529
-15.1677
-19.0779
-23.9802
-29.5183
-35.2951
-40.9118
-46.0038
-50.2709
-53.4983
-55.5675
-56.4563
-56.2296
-55.0223
-53.0168
-50.4184
-47.4306
-44.2323
-40.9597
-37.6929
-34.4484
-31.1778
-27.7727
-24.0756
-19.896
-15.0315
-9.29207
-2.52587
5.3553
14.3536
24.3685
35.1872
46.4863
57.843
68.7582
78.6891
87.0896
93.4557
97.3708
98.5475
96.8602
92.3647
85.3026
76.0868
65.271
53.5044
41.4763
29.8569
19.2392
10.0905
2.71637
-2.75782
-6.3869
-8.38807
-9.10804
-8.9794
-8.47144
-8.04077
-8.08652
-8.91377
-10.7075
-13.5175
-17.2532
-21.685
-26.4478
-31.0432
-34.8336
-37.0293
-36.667
-32.5877
-23.4237
-7.60932
16.566
50.8475
96.8355
155.738
228.068
313.326
409.713
513.935
621.166
725.22
818.936
894.787
945.635
965.552
950.603
899.456
813.744
698.083
559.754
408.05
253.381
106.235
-23.8683
-129.308
-205.055
-249.057
-262.277
-248.388
-213.194
-163.843
-107.952
-52.7527
-4.35552
32.7916
56.1959
65.3575
61.5687
47.5246
26.8091
3.33415
-19.1973
-37.7392
-50.2166
-55.6818
-54.3093
-47.2472
-36.3594
-23.9013
-12.177
-3.22373
1.43993
0.975671
-4.71488
-15.0304
-28.7954
-44.4481
-60.2598
-74.5564
-85.9132
-93.3013
-96.1704
-94.4651
-88.5774
-79.2481
-67.4357
-54.1721
-40.4262
-26.9933
-14.4213
-2.98204
7.31583
16.6763
25.4411
34.0025
42.7195
51.848
61.4955
71.6028
81.9559
92.2215
101.999
110.885
118.527
124.682
129.245
132.264
133.932
134.557
134.523
134.226
134.028
134.197
134.869
136.027
137.49
138.937
139.936
139.994
138.618
135.37
129.928
122.123
111.976
99.6973
85.6809
70.4688
54.7051
39.0768
24.2515
10.8174
-0.766517
-10.2067
-17.3922
-22.3928
-25.4382
-26.8827
-27.1582
-26.7234
-26.0138
-25.3983
-25.1476
-25.4156
-26.2367
-27.5366
-29.1544
-30.8736
-32.4557
-33.6745
-34.3449
-34.3445
-33.6264
-32.2203
-30.2259
-27.7966
-25.1182
-22.3852
-19.7768
-17.4366
-15.4578
-13.8755
-12.6668
-11.7581
-11.0394
-10.3815
-9.65608
-8.75362
-7.59816
-6.15616
-4.43835
-2.49467
-0.403156
1.74506
3.86209
5.87805
7.7517
9.47519
11.0722
12.5897
14.0853
15.6113
17.2
18.8514
20.5257
22.1435
23.5919
24.7379
25.4457
25.5962
25.1061
23.9421
22.1306
19.7576
16.962
13.9205
10.8266
7.86841
5.20585
2.95352
1.17006
-0.14359
-1.03721
-1.59692
-1.92589
-2.12362
-2.26733
-2.39858
-2.51764
-2.58656
-2.54049
-2.30523
-1.81819
-1.0487
-0.0143306
1.21007
2.4923
3.65225
4.47984
4.75887
4.29387
2.93593
0.604157
-2.70007
-6.88808
-11.7885
-17.1612
-22.7178
-28.1481
-33.1471
-37.4422
-40.8152
-43.1193
-44.2887
-44.3401
-43.3671
-41.5277
-39.0272
-36.0984
-32.9801
-29.8967
-27.0406
-24.5581
-22.54
-21.0176
-19.9642
-19.3016
-18.9111
-18.6486
-18.3607
-17.903
-17.1557
-16.0377
-14.5157
-12.6076
-10.3804
-7.94248
-5.43012
-2.99141
-0.767936
1.12282
2.6025
3.6425
4.26886
4.56086
4.64343
4.67437
4.82804
5.27753
6.17775
7.65176
9.78237
12.6101
16.1378
20.3402
25.1767
30.6036
36.5825
43.0819
50.0714
57.5068
65.3101
73.3468
81.4064
89.1912
96.3188
102.34
106.774
109.158
109.102
106.359
100.879
92.864
82.8147
71.5558
60.2542
50.4175
43.8725
42.7167
49.2316
65.7483
94.4558
137.15
194.932
267.885
354.761
452.747
557.355
662.511
760.864
844.322
904.795
935.058
929.628
885.554
802.967
685.33
539.296
374.199
201.199
32.2023
-121.332
-249.544
-345.135
-404.041
-425.725
-413.07
-371.901
-310.204
-237.141
-162.011
-93.251
-37.6149
0.394375
18.7937
18.0776
0.897831
-28.4754
-64.8266
-102.71
-137.122
-164.045
-180.823
-186.33
-180.938
-166.304
-145.026
-120.22
-95.0774
-72.4612
-54.5874
-42.8191
-37.5878
-38.4397
-44.1855
-53.1262
-63.3174
-72.8363
-80.0184
-83.6373
-83.0134
-78.0445
-69.1638
-57.2374
-43.4203
-28.9904
-15.1851
-3.05563
6.64194
13.5125
17.5394
19.056
18.68
17.219
15.5637
14.5797
15.0118
17.4101
22.0843
29.0882
38.2333
49.1269
61.2274
73.9092
86.5292
98.4871
109.275
118.509
125.947
131.48
135.12
136.965
137.166
135.892
133.299
129.514
124.629
118.71
111.81
103.995
95.3624
86.0626
76.3037
66.3497
56.5053
47.091
38.4127
30.7298
24.2264
18.9919
15.0106
12.1655
10.2523
9.00426
8.12192
7.30653
6.291
4.86594
2.89792
0.338497
-2.77646
-6.33623
-10.1719
-14.0783
-17.8378
-21.2444
-24.1244
-26.3535
-27.8661
-28.659
-28.7873
-28.3548
-27.4995
-26.3758
-25.1368
-23.9179
-22.8236
-21.92
-21.2327
-20.7505
-20.4341
-20.2291
-20.0791
-19.9388
-19.7841
-19.6158
-19.459
-19.3548
-19.3481
-19.4714
-19.7285
-20.0805
-20.4379
-20.6597
-20.5628
-19.9392
-18.5815
-16.3121
-13.0119
-8.64509
-3.27403
2.93706
9.73229
16.7873
23.743
30.2462
35.9918
40.7605
44.4485
47.0819
48.8153
49.9127
50.7109
51.5713
52.8237
54.7112
57.3438
60.6678
64.4558
68.3223
71.7606
74.2003
75.0757
73.8975
70.3179
70.3179
70.3179
70.3179
70.3179
70.3179
70.3179
70.3179
70.3179
70.3179
70.3179
70.3179
70.3179
70.3179
70.3179
70.3179
70.3179
70.3179
70.3179
70.3179
