10.0896
9.06987
7.86193
6.48184
4.96058
3.34302
1.68529
0.0505604
-1.49599
-2.89261
-4.08572
-5.03354
-5.70793
-6.09444
-6.19076
-6.00391
-5.5471
-4.83672
-3.89006
-2.72426
-1.35641
0.19534
1.90985
3.76087
5.71494
7.72977
9.75326
11.7232
13.568
15.2079
16.5576
17.5294
18.0378
18.0043
17.3641
16.0713
14.1057
11.478
8.23346
4.45451
0.260203
-4.19603
-8.73088
-13.1365
-17.1847
-20.6287
-23.1987
-24.5925
-24.4602
-22.3889
-17.8939
-10.4251
0.600318
15.7337
35.3953
59.747
88.5514
121.04
155.824
190.863
223.54
250.825
269.544
276.724
269.972
247.843
210.142
158.093
94.3666
22.9152
-51.3508
-123.029
-186.771
-237.847
-272.648
-289.072
-286.739
-267.004
-232.781
-188.188
-138.074
-87.4769
-41.0908
-2.79228
24.7094
40.0712
43.3486
35.8672
19.961
-1.38175
-24.9177
-47.5412
-66.6247
-80.2708
-87.4545
-88.0465
-82.7276
-72.8126
-60.0154
-46.1874
-33.0662
-22.0626
-14.1109
-9.59271
-8.33993
-9.70573
-12.6905
-16.1002
-18.7145
-19.4426
-17.4473
-12.2266
-3.64533
8.08174
22.4476
38.7412
56.1509
73.8693
91.186
107.557
122.646
136.33
148.682
159.925
170.371
180.354
190.17
200.026
210.011
220.078
230.059
239.692
248.649
256.589
263.189
268.176
271.344
272.561
271.757
268.909
264.017
257.09
248.128
237.123
224.071
208.984
191.926
173.037
152.559
130.854
108.407
85.8055
63.7132
42.8189
23.7823
7.17509
-6.5724
-17.2117
-24.6994
-29.198
-31.0569
-30.772
-28.9325
-26.1593
-23.0423
-20.0859
-17.666
-16.0054
-15.1682
-15.0724
-15.5196
-16.2351
-16.915
-17.2717
-17.0741
-16.1771
-14.5375
-12.2159
-9.36431
-6.20334
-2.99202
0.00530091
2.55044
4.45737
5.60999
5.97002
5.575
4.52745
2.97759
1.10214
-0.9174
-2.91453
-4.75312
-6.33709
-7.61389
-8.57216
-9.23461
-9.6478
-9.87057
-9.96285
-9.97627
-9.94764
-9.89572
-9.82128
-9.70996
-9.53715
-9.274
-8.89354
-8.37618
-7.71383
-6.91224
-5.9915
-4.98452
-3.934
-2.88806
-1.89513
-0.998672
-0.232226
0.384584
0.84864
1.17418
1.3917
1.54501
1.68665
1.87224
2.15429
2.57638
3.16819
3.9423
4.89284
5.9964
7.2149
8.50013
9.79927
11.0606
12.2392
13.3006
14.2242
15.0041
15.6478
16.1749
16.6127
16.9932
17.3485
17.708
18.0961
18.5303
19.0219
19.5766
20.1967
20.8828
21.6366
22.4625
23.369
24.368
25.4739
26.7005
28.056
29.5382
31.1277
32.7825
34.4331
35.9812
37.2998
38.2386
38.6329
38.3149
37.129
34.9471
31.6832
27.3062
21.8476
15.4046
8.13701
0.258743
-7.97572
-16.2878
-24.3932
-32.0186
-38.9166
-44.8737
-49.7104
-53.2714
-55.4062
-55.9408
-54.6473
-51.2192
-45.2621
-36.3095
-23.8746
-7.53749
12.9338
37.4435
65.4315
95.7679
126.708
155.935
180.697
198.049
205.169
199.724
180.224
146.329
99.0353
40.7204
-24.9871
-93.5026
-159.72
-218.537
-265.398
-296.798
-310.664
-306.584
-285.832
-251.207
-206.693
-156.997
-107.02
-61.3239
-23.6662
3.34662
18.4567
21.7836
14.6944
-0.459452
-20.6961
-42.8001
-63.7101
-80.8534
-92.3908
-97.3519
-95.6539
-88.0139
-75.7741
-60.6705
-44.5785
-29.2676
-16.1958
-6.36283
-0.235714
2.25271
1.63926
-1.18492
-5.12061
-9.01605
-11.8111
-12.6528
-10.9718
-6.5128
0.677719
10.3011
21.8816
34.8544
48.652
62.7791
76.8648
90.6895
104.185
117.409
130.508
143.662
157.036
170.736
184.775
199.059
213.39
227.481
240.984
253.526
264.742
274.298
281.919
287.386
290.538
291.263
289.476
285.114
278.119
268.446
256.068
240.998
223.316
203.198
180.94
156.978
131.889
106.379
81.2471
57.338
35.4786
16.4107
0.724781
-11.1944
-19.2053
-23.4232
-24.2094
-22.1346
-17.9232
-12.3825
-6.32605
-0.500327
4.47855
8.17039
10.3353
10.9352
10.114
8.15995
5.45633
2.42625
-0.520824
-3.03539
-4.86222
-5.85981
-6.00428
-5.37879
-4.15132
-2.54453
-0.802427
0.842026
2.19432
3.11813
3.54563
3.47815
2.97791
2.15269
1.13598
0.0653034
-0.9383
-1.7872
-2.43853
-2.8988
-3.22156
-3.49864
-3.8465
-4.38954
-5.24273
-6.49576
-8.20078
-10.365
-12.9494
-15.8725
-19.02
-22.2579
-25.4469
-28.4578
-31.1851
-33.5563
-35.5384
-37.1386
-38.4011
-39.3995
-40.2266
-40.9823
-41.7617
-42.643
-43.6783
-44.8872
-46.2523
-47.72
-49.2036
-50.5899
-51.749
-52.5454
-52.851
-52.5578
-51.5889
-49.9079
-47.5243
-44.4949
-40.9206
-36.9386
-32.7109
-28.4102
-24.2047
-20.244
-16.6469
-13.4931
-10.8199
-8.62283
-6.86083
-5.46429
-4.34464
-3.40413
-2.54483
-1.67578
-0.718223
0.391038
1.69782
3.22962
4.99514
6.98401
9.16653
11.4939
13.8993
16.2997
18.5998
20.6973
22.4895
23.8811
24.7923
25.1662
24.9746
24.2219
22.9456
21.2138
19.1194
16.772
14.2888
11.7837
9.35959
7.10086
5.06974
3.3055
1.82705
0.638472
-0.262243
-0.870942
-1.16029
-1.05673
-0.4107
1.0384
3.69777
8.14823
15.1495
25.6088
40.4989
60.7178
86.8939
119.154
156.892
198.583
241.696
282.759
317.596
341.731
350.936
341.835
312.476
262.787
194.8
112.62
22.1009
-69.7319
-155.437
-227.999
-281.633
-312.447
-318.875
-301.817
-264.484
-211.967
-150.601
-87.1996
-28.282
20.6359
55.5816
74.4527
77.101
65.1804
41.7954
11.0084
-22.7228
-55.1029
-82.4847
-102.229
-112.91
-114.348
-107.488
-94.1605
-76.7458
-57.8164
-39.7893
-24.6353
-13.6766
-7.486
-5.89295
-8.08146
-12.7597
-18.3716
-23.3198
-26.171
-25.8189
-21.5909
-13.2896
-1.17114
14.1291
31.7101
50.539
69.5865
87.9473
104.932
120.121
133.383
144.85
154.862
163.9
172.493
181.137
190.227
200
210.513
221.638
233.086
244.449
255.249
264.992
273.217
279.535
283.642
285.336
284.501
281.098
275.138
266.671
255.772
242.534
227.082
209.579
190.25
169.392
147.391
124.723
101.947
79.6774
58.5579
39.2128
22.2018
7.97245
-3.17994
-11.1401
-15.9848
-17.977
-17.5413
-15.2245
-11.6446
-7.43417
-3.18457
0.603347
3.55655
5.45187
6.22107
5.93941
4.80002
3.07777
1.08767
-0.85738
-2.48443
-3.59005
-4.05874
-3.86908
-3.08776
-1.85337
-0.352651
1.20711
2.62596
3.73581
4.41893
4.61861
4.34108
3.64946
2.65067
1.47781
0.270238
-0.845745
-1.77336
-2.45684
-2.88684
-3.0992
-3.16769
-3.19187
-3.28191
-3.54259
-4.05867
-4.88351
-6.03244
-7.48139
-9.1709
-11.0145
-12.9103
-14.7534
-16.4486
-17.9204
-19.1197
-20.0267
-20.6503
-21.0233
-21.1956
-21.2262
-21.1752
-21.0971
-21.035
-21.0189
-21.064
-21.1728
-21.3371
-21.5413
-21.7649
-21.9852
-22.179
-22.3227
-22.3931
-22.3674
-22.2227
-21.9371
-21.4907
-20.867
-20.0553
-19.0521
-17.8636
-16.5056
-15.004
-13.3936
-11.7158
-10.0164
-8.34202
-6.73734
-5.2424
-3.89034
-2.70586
-1.70445
-0.892104
-0.265618
0.186955
0.485867
0.659493
0.744478
0.786137
0.838833
0.965892
1.23856
1.73356
2.52895
3.69843
5.30431
7.39005
9.97319
13.0398
16.5409
20.3927
24.4789
28.6571
32.7676
36.6441
40.1253
43.0665
45.3503
46.8943
47.6568
47.639
46.8838
45.4716
43.513
41.1393
38.4919
35.711
32.9246
30.2394
27.7332
25.4508
23.404
21.5779
19.9452
18.4911
17.251
16.3605
16.1123
17.0129
19.8212
25.5523
35.424
50.7321
72.6478
101.95
138.723
182.078
229.949
279.04
324.968
362.619
386.694
392.398
376.152
336.242
273.264
190.302
92.7668
-12.0771
-115.867
-210.064
-286.925
-340.389
-366.766
-365.122
-337.34
-287.823
-222.93
-150.18
-77.3743
-11.721
40.917
76.5704
93.4555
91.9915
74.5615
45.0655
8.33666
-30.4989
-66.6373
-96.1142
-116.174
-125.459
-124.012
-113.118
-95.007
-72.4846
-48.5267
-25.903
-6.86539
7.06585
15.203
17.6792
15.3379
9.54846
1.97881
-5.64256
-11.744
-15.0837
-14.8618
-10.7657
-2.94958
8.03949
21.3752
36.0848
51.1838
65.7938
79.2325
91.067
101.129
109.492
116.428
122.333
127.654
132.818
138.172
143.936
150.192
156.877
163.812
170.732
177.326
183.285
188.331
192.242
194.86
196.093
195.892
194.235
191.104
186.461
180.246
172.375
162.761
151.336
138.092
123.113
106.6
88.8925
70.4615
51.8882
33.8248
16.941
1.86398
-10.8799
-20.9152
-28.0515
-32.298
-33.8572
-33.0986
-30.5162
-26.6757
-22.158
-17.505
-13.1751
-9.50999
-6.71781
-4.87152
-3.92142
-3.71924
-4.04954
-4.66446
-5.3176
-5.79337
-5.92923
-5.62918
-4.86808
-3.68743
-2.18399
-0.493293
1.22948
2.829
4.16741
5.13834
5.67616
5.75979
5.41132
4.68995
3.68243
2.49138
1.22309
-0.0238572
-1.16788
-2.15075
-2.94063
-3.53182
-3.94158
-4.20473
-4.36697
-4.47768
-4.58327
-4.72158
-4.91813
-5.18421
-5.51701
-5.90142
-6.31325
-6.72308
-7.10029
-7.41672
-7.64934
-7.78191
-7.80543
-7.71758
-7.52149
-7.2241
-6.83468
-6.3636
-5.82176
-5.22048
-4.57196
-3.88986
-3.18991
-2.49013
-1.81054
-1.1722
-0.595651
-0.0989156
0.30464
0.608177
0.812612
0.926862
0.966939
0.953914
0.910971
0.859995
0.818211
0.79548
0.792754
0.802037
0.807964
0.790793
0.730358
0.610364
0.422376
0.168982
-0.134115
-0.457046
-0.755529
-0.971136
-1.03199
-0.854132
-0.343989
0.597249
2.06698
4.1521
6.91808
10.3973
14.5782
19.3976
24.7368
30.424
36.2422
41.9436
47.2682
51.9659
55.818
58.6583
60.3884
60.987
60.5114
59.0911
56.9139
54.2061
51.2093
48.1566
45.2508
42.646
40.4363
38.6502
37.2522
36.1518
35.2192
34.3081
33.2864
32.0747
30.6922
29.3075
28.287
28.2341
30.003
34.6738
43.4726
57.629
78.1704
105.671
139.986
180.024
223.603
267.46
307.43
338.822
356.952
357.772
338.507
298.19
238.007
161.368
73.6789
-18.1695
-106.54
-183.911
-243.75
-281.274
-293.999
-281.995
-247.836
-196.242
-133.472
-66.5605
-2.49528
52.5613
93.9049
118.712
126.215
117.617
95.7917
64.7989
29.31
-5.9923
-36.9606
-60.4143
-74.4154
-78.3674
-72.9446
-59.874
-41.6137
-20.9749
-0.740603
16.6714
29.4657
36.622
37.9369
33.9594
25.8415
15.1297
3.53113
-7.31473
-16.0303
-21.6392
-23.6402
-22.0121
-17.158
-9.803
-0.862521
8.69694
17.9866
26.298
33.169
38.4094
42.0862
44.4774
46.0018
47.1379
48.3445
49.9922
52.3145
55.3823
59.104
63.2461
67.4715
71.3869
74.5926
76.7279
77.5069
76.7427
74.3589
70.3895
64.9699
58.3219
50.7338
42.5392
34.0947
25.758
17.8672
10.7202
4.55756
-0.453563
-4.2311
-6.78559
-8.22159
-8.73197
-8.58431
-8.09962
-7.62442
-7.4985
-8.02146
-9.42192
-11.8329
-15.2769
-19.6622
-24.792
-30.3847
-36.1035
-41.5914
-46.508
-50.5634
-53.5449
-55.3349
-55.9174
-55.3723
-53.8611
-51.6035
-48.8506
-45.8566
-42.8532
-40.029
-37.5167
-35.3869
-33.6514
-32.2717
-31.1726
-30.2586
-29.4301
-28.5974
-27.6918
-26.6712
-25.5219
-24.2558
-22.9036
-21.5076
-20.1121
-18.7564
-17.4683
-16.2607
-15.1312
-14.0634
-13.0311
-12.0032
-10.9498
-9.84692
-8.68159
-7.45423
-6.17978
-4.88665
-3.61382
-2.40665
-1.31167
-0.371296
0.381067
0.924855
1.25465
1.38077
1.32803
1.13299
0.840014
0.496579
0.148579
-0.163994
-0.410432
-0.571445
-0.639902
-0.620182
-0.526327
-0.379304
-0.203771
-0.0247644
0.135301
0.258992
0.335379
0.360622
0.3377
0.275526
0.187846
0.0924678
0.0113295
-0.0282428
0.00887987
0.168707
0.510892
1.10988
2.05311
3.43522
5.348
7.8667
11.0345
14.8474
19.2427
24.0933
29.2099
34.3522
39.2474
43.6148
47.1934
49.7685
51.1939
51.4074
50.436
48.3926
45.4622
41.8809
37.9112
33.8138
29.8229
26.1245
22.8422
20.0297
17.6715
15.6901
13.9592
12.321
10.6079
8.66763
6.39335
3.75959
0.863435
-2.03099
-4.45065
-5.68418
-4.77885
-0.579698
8.17472
22.6922
43.9062
72.2161
107.224
147.525
190.602
232.88
269.976
297.126
309.766
304.185
278.146
231.38
165.845
85.7029
-3.01816
-93.0267
-176.576
-246.358
-296.365
-322.597
-323.521
-300.222
-256.231
-197.068
-129.545
-60.9601
1.742
52.72
87.8128
104.884
103.906
86.7941
57.0266
19.1161
-21.9926
-61.5201
-95.3731
-120.534
-135.286
-139.261
-133.322
-119.32
-99.7536
-77.3972
-54.9356
-34.6559
-18.2227
-6.55647
0.183065
2.51874
1.504
-1.47549
-4.91681
-7.40292
-7.77051
-5.22612
0.597574
9.64508
21.4935
35.4469
50.6536
66.2279
81.3619
95.4133
107.961
118.826
128.058
135.893
142.698
148.895
154.898
161.053
167.598
174.639
182.149
189.983
197.907
205.629
212.839
219.234
224.543
228.534
231.018
231.837
230.857
227.952
223
215.885
206.504
194.794
180.757
164.489
146.21
126.28
105.202
83.604
62.2074
41.7721
23.0354
6.64569
-6.89834
-17.2948
-24.4657
-28.5608
-29.9358
-29.1101
-26.707
-23.386
-19.7736
-16.4035
-13.6691
-11.7975
-10.8431
-10.703
-11.1488
-11.8715
-12.5313
-12.8072
-12.4398
-11.2617
-9.21528
-6.35326
-2.82697
1.13743
5.2697
9.289
12.9357
15.9976
18.3285
19.8564
20.5826
20.5725
19.9396
18.8266
17.385
15.7572
14.0629
12.3897
10.7908
9.28667
7.8724
6.52655
5.22166
3.93387
2.65036
1.37373
0.122944
-1.0692
-2.16118
-3.10963
-3.87675
-4.43696
-4.78192
-4.92314
-4.89178
-4.73597
-4.51581
-4.29712
-4.14456
-4.11522
-4.25334
-4.58661
-5.12452
-5.85851
-6.76369
-7.8018
-8.9248
-10.0787
-11.2075
-12.2565
-13.1764
-13.9258
-14.4745
-14.8064
-14.9211
-14.8359
-14.5854
-14.2204
-13.8049
-13.4112
-13.1131
-12.9785
-13.0606
-13.3905
-13.969
-14.7627
-15.7009
-16.6771
-17.5536
-18.1712
-18.361
-17.9612
-16.8335
-14.881
-12.063
-8.40557
-4.00609
0.969588
6.29761
11.7136
16.9356
21.6897
25.7359
28.891
31.0454
32.1718
32.3255
31.6354
30.2874
28.5021
26.5108
24.5308
22.7447
21.2843
20.2219
19.5677
19.2743
19.2458
19.3517
19.4431
19.3735
19.0236
18.333
17.3397
16.2272
15.3754
15.4061
17.2101
21.9364
30.9263
45.5764
67.127
96.3889
133.441
177.348
225.97
275.915
322.694
361.093
385.735
391.779
375.643
335.652
272.478
189.306
91.6525
-13.129
-116.624
-210.292
-286.45
-339.159
-364.892
-362.911
-335.289
-286.594
-223.287
-152.911
-83.1908
-21.165
27.5609
59.3375
72.7297
68.4945
49.302
19.2519
-16.7365
-53.5791
-86.6395
-112.231
-127.955
-132.85
-127.352
-113.088
-92.5464
-68.6779
-44.4795
-22.6205
-5.14798
6.69744
12.5459
12.8471
8.72307
1.75318
-6.27301
-13.6017
-18.7281
-20.5541
-18.4774
-12.4077
-2.71783
9.85795
24.3578
39.7382
55.0113
69.3564
82.1959
93.2277
102.418
109.957
116.195
121.563
126.494
131.357
136.415
141.797
147.501
153.412
159.34
165.059
170.344
175.006
178.909
181.974
184.166
185.476
185.888
185.355
183.776
180.986
176.762
170.848
162.99
152.981
140.707
126.197
109.646
91.4325
72.1069
52.3605
32.9752
14.7577
-1.53042
-15.2426
-25.9048
-33.2573
-37.273
-38.1528
-36.2977
-32.2623
-26.6954
-20.2739
-13.6399
-7.34519
-1.81088
2.69608
6.06705
8.33821
9.66241
10.2708
10.4296
10.3978
10.3904
10.551
10.9371
11.5173
12.1809
12.7575
13.0435
12.8317
11.9411
10.2422
7.67628
4.26559
0.114492
-4.59899
-9.63947
-14.7364
-19.6099
-23.9962
-27.6718
-30.4723
-32.3048
-33.1534
-33.0766
-32.1986
-30.6945
-28.7715
-26.6489
-24.5374
-22.621
-21.0417
-19.8899
-19.1995
-18.9494
-19.0697
-19.4534
-19.97
-20.4819
-20.8602
-20.9984
-20.8231
-20.3003
-19.4362
-18.2742
-16.8862
-15.3623
-13.7978
-12.281
-10.8821
-9.64616
-8.5892
-7.69906
-6.94025
-6.26197
-5.60814
-4.92775
-4.18415
-3.36165
-2.46875
-1.53721
-0.617415
0.229563
0.941861
1.46762
1.77534
1.86265
1.76268
1.54727
1.3265
1.24441
1.47067
2.18851
3.57942
5.80562
8.99178
13.2078
18.4548
24.6562
31.6559
39.224
47.0707
54.867
62.2702
68.9527
74.6292
79.0806
82.1714
83.8588
84.1927
83.3065
81.4005
78.7197
75.5287
72.0868
68.6245
65.326
62.3159
59.6529
57.3301
55.2809
53.3916
51.5215
49.53
47.315
44.8607
42.2947
39.9498
38.4193
38.5911
41.641
48.9663
62.0425
82.2012
110.342
146.616
190.124
238.719
288.951
336.222
375.17
400.248
406.44
390.01
349.167
284.524
199.27
98.9954
-8.81298
-115.555
-212.471
-291.648
-346.916
-374.55
-373.652
-346.19
-296.693
-231.643
-158.671
-85.6496
-19.8028
33.0451
69.0152
86.45
85.9093
69.9062
42.4357
8.36985
-27.1958
-59.5612
-84.9347
-100.787
-106.018
-100.934
-87.0635
-66.8322
-43.1762
-19.1261
2.57365
19.7699
31.1012
36.0799
35.0585
29.0973
19.7597
8.86901
-1.74027
-10.4445
-16.0029
-17.664
-15.1996
-8.87185
0.656621
12.4504
25.4477
38.6042
51.0161
62.0102
71.1923
78.4527
83.934
87.9701
91.0067
93.518
95.9306
98.5635
101.592
105.035
108.771
112.565
116.118
119.112
121.256
122.32
122.155
120.7
117.968
114.029
108.979
102.921
95.9372
88.0829
79.3791
69.8207
59.3893
48.0708
35.8731
22.8426
9.07527
-5.27742
-20.0094
-34.867
-49.5611
-63.7835
-77.2255
-89.5975
-100.647
-110.176
-118.051
-124.211
-128.672
-131.519
-132.898
-133.004
-132.058
-130.294
-127.934
-125.176
-122.173
-119.03
-115.8
-112.485
-109.049
-105.43
-101.556
-97.366
-92.8233
-87.9278
-82.7221
-77.291
-71.7552
-66.258
-60.9492
-55.9665
-51.4185
-47.3702
-43.8345
-40.7699
-38.086
-35.6547
-33.3272
-30.954
-28.405
-25.5871
-22.4582
-19.0332
-15.3844
-11.6325
-7.93375
-4.46035
-1.38062
1.16114
3.06134
4.26871
4.78943
4.68553
4.0668
3.07766
1.88066
0.638864
-0.500734
-1.42096
-2.04385
-2.33488
-2.30205
-1.99019
-1.47164
-0.834721
-0.171523
0.433487
0.912718
1.22171
1.34196
1.28024
1.06501
0.740503
0.359528
-0.0239675
-0.361644
-0.615953
-0.763071
-0.793128
-0.707548
-0.513713
-0.217677
0.183836
0.710492
1.40272
2.32184
3.54524
5.15657
7.23221
9.82613
12.9555
16.5901
20.6472
24.994
29.4571
33.8388
37.9378
41.5715
44.5976
46.9303
48.5512
49.5115
49.9256
49.9575
49.8019
49.6608
49.7211
50.1335
50.9965
52.3464
54.1537
56.3272
58.7235
61.1625
63.4467
65.3855
66.8241
67.6782
67.9752
67.9017
67.8523
68.4711
70.6741
75.6324
84.7013
99.2799
120.6
149.456
185.911
229.03
276.694
325.573
371.278
408.735
432.731
438.585
422.852
383.93
322.485
241.594
146.572
44.4911
-56.5607
-148.378
-223.572
-276.418
-303.494
-304.033
-279.955
-235.561
-176.961
-111.309
-45.9469
12.4271
58.4615
88.6542
101.601
97.9758
80.2744
52.3547
18.8618
-15.3921
-46.0107
-69.4932
-83.5597
-87.2996
-81.1398
-66.6541
-46.2538
-22.8075
0.755233
21.8066
38.3087
48.9982
53.4574
52.0728
45.8997
36.458
25.4934
14.7367
5.6904
-0.53242
-3.30326
-2.50303
1.5192
8.04113
16.098
24.6289
32.6189
39.2196
43.8347
46.1651
46.2111
44.2359
40.7008
36.1812
31.2786
26.5385
22.3864
19.0868
16.7298
15.2432
14.4266
13.9992
13.6547
13.1131
12.1636
10.6929
8.69589
6.26986
3.59332
0.894911
-1.58286
-3.61938
-5.04616
-5.76792
-5.77219
-5.12721
-3.96921
-2.48172
-0.870162
0.664395
1.94902
2.85722
3.32003
3.32897
2.93125
2.21868
1.31194
0.342954
-0.562489
-1.2996
-1.79536
-2.01429
-1.95894
-1.66562
-1.19634
-0.62843
-0.0432862
0.484202
0.894307
1.14832
1.23117
1.15079
0.934708
0.624518
0.269166
-0.0819502
-0.385226
-0.607702
-0.730073
-0.747672
-0.669564
-0.516106
-0.315568
-0.100476
0.0956686
0.240789
0.305498
0.263266
0.0897836
-0.237965
-0.742405
-1.44535
-2.36701
-3.52392
-4.92617
-6.57421
-8.45606
-10.5454
-12.8013
-15.1694
-17.5861
-19.9829
-22.2938
-24.4613
-26.4438
-28.2202
-29.7931
-31.1885
-32.4532
-33.6484
-34.8407
-36.0919
-37.448
-38.9298
-40.5256
-42.1888
-43.8401
-45.3751
-46.6773
-47.6337
-48.1531
-48.1823
-47.7195
-46.8219
-45.606
-44.2392
-42.9246
-41.8789
-41.3069
-41.3743
-42.1829
-43.7502
-45.9968
-48.7422
-51.7123
-54.558
-56.883
-58.2808
-58.3738
-56.854
-53.517
-48.2897
-41.2459
-32.6104
-22.7482
-12.1411
-1.34895
9.0405
18.4716
26.4854
32.783
37.2796
40.1433
41.8114
42.9802
44.5676
47.6504
53.3806
62.8907
77.1954
97.1004
123.125
155.447
193.864
237.794
286.28
338.043
391.544
445.078
496.885
545.279
588.776
626.217
656.855
680.405
697.013
707.158
711.459
710.421
704.138
692.017
672.574
643.384
601.211
542.356
463.201
360.872
233.946
83.0611
-88.6623
-275.508
-469.386
-660.409
-837.747
-990.676
-1109.68
-1187.45
-1219.69
-1205.6
-1147.89
-1052.58
-928.287
-785.332
-634.706
-486.989
-351.381
-234.944
-142.117
-74.5395
-31.192
-8.79511
-2.41369
-6.17305
-13.9995
-20.2995
-20.5076
-11.4568
8.45005
39.2645
79.6841
127.37
179.335
232.359
283.36
329.711
369.453
401.407
425.176
441.071
449.956
453.059
451.78
447.495
441.414
434.468
427.263
420.077
412.902
405.521
397.591
388.744
378.661
367.139
354.123
339.712
324.146
307.766
290.968
274.147
257.651
241.745
226.577
212.177
198.459
185.237
172.255
159.227
145.876
131.976
117.393
102.111
86.2538
70.0831
53.9854
38.4389
23.9689
11.094
0.270041
-8.16058
-14.009
-17.2634
-18.0926
-16.8309
-13.944
-9.98165
-5.52309
-1.12059
2.75101
5.73387
7.61171
8.31735
7.92361
6.61964
4.67662
2.40755
0.126383
-1.88881
-3.42459
-4.35023
-4.62416
-4.28895
-3.45681
-2.28812
-0.966577
0.325972
1.43166
2.23342
2.66498
2.7135
2.4153
1.846
1.10679
0.309051
-0.44065
-1.05337
-1.46699
-1.65109
-1.60735
-1.36586
-0.978322
-0.50919
-0.0262576
0.40823
0.744793
0.951566
1.01642
0.946353
0.764606
0.505971
0.211199
-0.0787602
-0.327928
-0.509295
-0.607256
-0.618362
-0.550459
-0.420498
-0.251432
-0.0686931
0.103271
0.243967
0.339013
0.381273
0.370888
0.314153
0.221202
0.102426
-0.0363698
-0.199877
-0.409669
-0.709999
-1.17148
-1.89087
-2.98553
-4.58157
-6.79627
-9.71651
-13.3764
-17.7382
-22.6805
-27.9975
-33.4111
-38.596
-43.2154
-46.9631
-49.6056
-51.0181
-51.2082
-50.3232
-48.6385
-46.5282
-44.4205
-42.7448
-41.8763
-42.0862
-43.5044
-46.0997
-49.6797
-53.9112
-58.358
-62.5315
-65.9482
-68.186
-68.934
-68.0287
-65.4735
-61.4387
-56.2444
-50.3266
-44.1938
-38.3767
-33.3763
-29.6131
-27.3785
-26.7883
-27.7376
-29.8584
-32.4832
-34.6252
-34.9858
-32.0085
-23.9942
-9.28781
13.4664
45.0219
85.2199
132.732
184.92
237.87
286.648
325.76
349.798
354.163
335.783
293.689
229.343
146.666
51.7224
-47.8953
-143.905
-228.284
-294.195
-336.766
-353.615
-345.058
-313.982
-265.411
-205.83
-142.37
-81.9628
-30.5648
7.44085
29.6176
35.5856
26.8781
6.58039
-21.1853
-51.855
-81.0175
-104.936
-120.939
-127.651
-125.033
-114.269
-97.5064
-77.5018
-57.2278
-39.4845
-26.5651
-20.0089
-20.4632
-27.6608
-40.5045
-57.2405
-75.6931
-93.5277
-108.512
-118.747
-122.84
-120.017
-110.157
-93.7517
-71.8149
-45.7374
-17.1197
12.4023
41.3194
68.3834
92.7017
113.787
131.557
146.296
158.581
169.176
178.926
188.648
199.027
210.546
223.436
237.654
252.896
268.629
284.151
298.652
311.287
321.247
327.827
330.475
328.834
322.775
312.401
298.048
280.263
259.77
237.419
214.129
190.813
168.319
147.358
128.45
111.893
97.7409
85.8148
75.7286
66.9362
58.7891
50.5983
41.6935
31.4734
19.4428
5.23471
-11.3819
-30.5063
-52.1188
-76.0995
-102.25
-130.315
-160.009
-191.038
-223.127
-256.052
-289.67
-323.951
-359.01
-395.127
-432.764
-472.561
-515.315
-561.937
-613.38
-670.548
-734.177
-804.697
-882.096
-965.778
-1054.44
-1146.02
-1237.64
-1325.69
-1405.94
-1473.78
-1524.5
-1553.62
-1557.28
-1532.61
-1478.07
-1393.65
-1281.09
-1143.82
-986.862
-816.497
-639.844
-464.312
-297.017
-144.207
-10.7692
100.128
187.214
251.099
294.063
319.694
332.399
336.88
337.608
338.379
341.984
350.023
362.875
379.814
399.24
418.985
436.659
449.979
457.064
456.639
448.16
431.839
408.586
379.871
347.546
313.631
280.114
248.756
220.948
197.612
179.16
165.506
156.127
150.161
146.53
144.063
141.63
138.237
133.113
125.757
115.949
103.736
89.3937
73.3707
56.2218
38.5471
20.9357
3.92242
-12.0412
-26.6023
-39.5106
-50.6138
-59.8487
-67.231
-72.8469
-76.8449
-79.4303
-80.8575
-81.4179
-81.4197
-81.1543
-80.8478
-80.5964
-80.2927
-79.5528
-77.6623
-73.5654
-65.9194
-53.2324
-34.0882
-7.44117
27.0575
68.7604
115.82
165.143
212.553
253.166
281.957
294.433
287.337
259.233
210.891
145.389
67.8843
-14.9067
-95.4744
-166.405
-221.278
-255.438
-266.544
-254.81
-222.921
-175.649
-119.205
-60.455
-6.08294
38.1838
68.1847
81.7123
78.6362
60.7688
31.5044
-4.70292
-42.9506
-78.5028
-107.336
-126.555
-134.636
-131.489
-118.346
-97.4962
-71.9301
-44.9295
-19.6641
1.15995
15.5633
22.4468
21.628
13.7703
0.224132
-17.1906
-36.4278
-55.4511
-72.4367
-85.9214
-94.8862
-98.7765
-97.4661
-91.1798
-80.3934
-65.7297
-47.8645
-27.4559
-5.10081
18.6806
43.4368
68.7625
94.2701
119.565
144.232
167.837
189.941
210.13
228.054
243.454
256.195
266.276
273.825
279.073
282.318
283.867
283.991
282.872
280.568
277.004
271.969
265.153
256.189
244.715
230.432
213.169
192.921
169.884
144.453
117.208
88.8719
60.2546
32.1896
5.46551
-19.2336
-41.3763
-60.6143
-76.7929
-89.9416
-100.248
-108.021
-113.642
-117.524
-120.07
-121.641
-122.537
-122.99
-123.165
-123.169
-123.066
-122.887
-122.639
-122.314
-121.884
-121.299
-120.478
-119.306
-117.625
-115.24
-111.925
-107.439
-101.552
-94.0649
-84.8445
-73.8447
-61.1281
-46.8762
-31.389
-31.389
-31.389
-31.389
-31.389
-31.389
-31.389
-31.389
-31.389
-31.389
-31.389
-31.389
-31.389
-31.389
-31.389
-31.389
-31.389
-31.389
-31.389
-31.389
