41.449
28.2595
13.2513
-3.11542
-20.1863
-37.1494
-53.0939
-67.0868
-78.2578
-85.8846
-89.4657
-88.7748
-83.8873
-75.1773
-63.2834
-49.0498
-33.4466
-17.4807
-2.10578
11.858
23.7881
33.3001
40.2643
44.7978
47.2375
48.0999
48.0383
47.8055
48.2306
50.2155
54.7455
62.9078
75.8943
94.9684
121.369
156.137
199.873
252.441
312.687
378.219
445.336
509.15
563.931
603.652
622.685
616.547
582.595
520.543
432.735
324.083
201.702
74.2395
-48.996
-159.004
-248.041
-310.427
-343.107
-345.901
-321.433
-274.732
-212.592
-142.756
-73.0375
-10.4956
39.261
72.5506
87.8432
85.7224
68.6103
40.3053
5.40356
-31.3179
-65.4798
-93.5767
-113.302
-123.696
-125.123
-119.076
-107.877
-94.2924
-81.1305
-70.8693
-65.3566
-65.6112
-71.7428
-82.9886
-97.8545
-114.336
-130.187
-143.206
-151.496
-153.687
-149.076
-137.693
-120.275
-98.1647
-73.1408
-47.212
-22.3931
-0.491937
17.068
29.3727
36.0788
37.4087
34.0849
27.2175
18.1611
8.36256
-0.784747
-8.06253
-12.5173
-13.5135
-10.7504
-4.2491
5.68539
18.5172
33.5414
49.9486
66.8863
83.5155
99.0598
112.846
124.336
133.147
139.065
142.043
142.195
139.774
135.145
128.752
121.082
112.627
103.853
95.165
86.8929
79.2738
72.4498
66.4721
61.3129
56.8824
53.0494
49.6632
46.5735
43.6476
40.783
37.9145
35.0151
32.0921
29.1794
26.3271
23.5895
21.0152
18.6381
16.473
14.5134
12.7339
11.0958
9.55367
8.06366
6.59116
5.1166
3.63885
2.17556
0.760642
-0.560977
-1.74024
-2.73169
-3.50079
-4.02982
-4.32129
-4.39835
-4.30178
-4.0839
-3.80011
-3.49933
-3.21504
-2.95889
-2.71879
-2.46278
-2.14947
-1.74412
-1.23833
-0.670205
-0.140827
0.1768
0.0396481
-0.850745
-2.82102
-6.18822
-11.2156
-18.068
-26.773
-37.1943
-49.0229
-61.7877
-74.8864
-87.6336
-99.3203
-109.278
-116.937
-121.883
-123.883
-122.906
-119.117
-112.852
-104.586
-94.8821
-84.3409
-73.5543
-63.0595
-53.3058
-44.6316
-37.2541
-31.2704
-26.6692
-23.3497
-21.1455
-19.8494
-19.2374
-19.0864
-19.1857
-19.3349
-19.3289
-18.9213
-17.7684
-15.3549
-10.9133
-3.36122
8.71443
26.9901
53.2305
88.9988
135.276
192.045
257.925
329.939
403.506
472.706
530.812
571.045
587.451
575.771
534.157
463.626
368.151
254.373
130.956
7.65879
-105.732
-200.491
-269.9
-309.941
-319.652
-301.107
-259.043
-200.187
-132.393
-63.6921
-1.39112
48.684
82.7129
99.1272
98.5703
83.5982
58.1784
27.0659
-4.85688
-33.1937
-54.5285
-66.7514
-69.1915
-62.5585
-48.717
-30.3378
-10.4813
7.82974
21.9936
30.1244
31.2314
25.2694
13.0678
-3.8434
-23.477
-43.6669
-62.3412
-77.759
-88.6821
-94.4704
-95.0929
-91.0645
-83.3224
-73.0648
-61.5761
-50.0629
-39.5188
-30.6336
-23.7506
-18.8715
-15.7021
-13.7272
-12.3017
-10.7444
-8.42502
-4.83312
0.374132
7.34931
16.0561
26.2916
37.7242
49.9411
62.4979
74.9644
86.9616
98.1862
108.421
117.534
125.464
132.204
137.778
142.22
145.561
147.821
149.005
149.112
148.143
146.113
143.065
139.071
134.235
128.693
122.603
116.129
109.437
102.679
95.9855
89.4619
83.1851
77.2055
71.55
66.2267
61.2284
56.5368
52.1246
47.9575
43.9951
40.1917
36.4981
32.8645
29.2446
25.6024
21.9178
18.1938
14.4607
10.7784
7.23441
3.93756
1.00784
-1.43732
-3.29827
-4.50801
-5.04444
-4.93792
-4.2728
-3.18231
-1.83699
-0.428112
0.852055
1.83066
2.37274
2.39546
1.87623
0.853742
-0.578198
-2.28306
-4.09849
-5.85528
-7.39577
-8.58922
-9.34224
-9.60324
-9.36116
-8.63974
-7.48959
-5.98078
-4.19844
-2.24249
-0.231538
1.69093
3.35106
4.54313
5.03477
4.58014
2.94092
-0.0872873
-4.64658
-10.7908
-18.4668
-27.5062
-37.6306
-48.4699
-59.592
-70.5393
-80.867
-90.1778
-98.1477
-104.542
-109.217
-112.119
-113.263
-112.721
-110.605
-107.052
-102.216
-96.2638
-89.3802
-81.7696
-73.6617
-65.3136
-57.0073
-49.0414
-41.717
-35.3183
-30.0904
-26.2172
-23.8
-22.8393
-23.2164
-24.6719
-26.7759
-28.8854
-30.0926
-29.1725
-24.5533
-14.3391
3.58194
31.3192
70.6477
122.589
186.967
262.023
344.193
428.13
507.029
573.248
619.166
638.175
625.64
579.693
501.702
396.344
271.232
136.161
2.03946
-120.322
-221.418
-294.08
-334.217
-341.154
-317.564
-269.001
-203.123
-128.708
-54.6075
11.2421
62.6264
95.5962
108.702
102.917
81.2782
48.3248
9.40338
-30.0527
-65.1863
-92.2458
-108.93
-114.519
-109.806
-96.8397
-78.5393
-58.239
-39.2168
-24.2746
-15.4121
-13.6296
-18.8715
-30.1069
-45.5278
-62.8301
-79.5372
-93.3237
-102.299
-105.218
-101.6
-91.7438
-76.652
-57.8699
-37.2734
-16.8308
1.62961
16.6185
27.1311
32.7246
33.5256
30.1715
23.6996
15.4009
6.65941
-1.20333
-7.06124
-10.0824
-9.78642
-6.05872
0.873625
10.4983
22.0961
34.8307
47.8399
60.3171
71.5783
81.1076
88.5794
93.8589
96.9826
98.1246
97.5546
95.5934
92.5724
88.7996
84.5373
79.9888
75.2968
70.5482
65.7838
61.0108
56.2141
51.3677
46.4424
41.4138
36.2677
31.0057
25.6507
20.2511
14.884
9.65616
4.70131
0.173602
-3.76338
-6.95124
-9.25385
-10.575
-10.8741
-10.1783
-8.58764
-6.27334
-3.46756
-0.445827
2.49671
5.07259
7.03022
8.17978
8.41392
7.72097
6.18881
3.99878
1.40947
-1.26843
-3.70438
-5.58445
-6.64827
-6.72214
-5.74408
-3.77701
-1.00768
2.26952
5.6825
8.82204
11.2881
12.7363
12.9187
11.7137
9.14092
5.36005
0.652918
-4.60813
-10.0015
-15.1022
-19.5254
-22.9641
-25.2144
-26.1873
-25.9065
-24.4924
-22.1375
-19.0755
-15.5493
-11.7832
-7.9608
-4.21182
-0.608439
2.8301
6.12613
9.32769
12.4907
15.661
18.858
22.0603
25.1948
28.1293
30.6696
32.5623
33.5047
33.1617
31.1922
27.2813
21.1785
12.7385
1.95798
-10.9945
-25.7615
-41.7981
-58.3922
-74.7076
-89.8439
-102.912
-113.112
-119.815
-122.624
-121.419
-116.377
-107.957
-96.8643
-83.9857
-70.3108
-56.8436
-44.516
-34.1097
-26.1967
-21.0999
-18.8799
-19.3454
-22.0862
-26.5211
-31.952
-37.6124
-42.698
-46.369
-47.7224
-45.7419
-39.2482
-26.8832
-7.16277
21.369
59.8785
108.893
167.918
235.102
307.037
378.782
444.148
496.26
528.328
534.537
510.925
456.094
371.635
262.193
135.114
-0.259963
-133.588
-254.668
-354.576
-426.641
-467.14
-475.622
-454.837
-410.277
-349.422
-280.776
-212.849
-153.185
-107.58
-79.5539
-70.1346
-77.9549
-99.6312
-130.354
-164.606
-196.9
-222.465
-237.772
-240.88
-231.544
-211.116
-182.25
-148.477
-113.695
-81.6631
-55.5425
-37.5506
-28.7523
-29.009
-37.0775
-50.8371
-67.6073
-84.5127
-98.8451
-108.381
-111.621
-107.92
-97.511
-81.4181
-61.2829
-39.128
-17.0933
2.82221
18.9818
30.2725
36.1912
36.8518
32.9192
25.4838
15.8988
5.6012
-4.05742
-11.9516
-17.2789
-19.6061
-18.8637
-15.2975
-9.38807
-1.75434
6.94268
16.0832
25.1486
33.7529
41.6474
48.701
54.8665
60.1389
64.5182
67.9798
70.4604
71.8586
72.0503
70.9137
68.3589
64.357
58.9619
52.3218
44.6774
36.347
27.7014
19.1299
11.005
3.64786
-2.69936
-7.89145
-11.8867
-14.742
-16.5968
-17.6502
-18.1331
-18.2801
-18.3035
-18.3747
-18.6119
-19.0773
-19.7826
-20.7005
-21.7807
-22.9675
-24.2157
-25.5012
-26.8269
-28.2194
-29.7194
-31.3666
-33.1821
-35.1512
-37.2115
-39.2477
-41.0961
-42.558
-43.4205
-43.4827
-42.5826
-40.6212
-37.5802
-33.5312
-28.6331
-23.1206
-17.2827
-11.4355
-5.89191
-0.931686
3.22391
6.43099
8.63313
9.86207
10.2295
9.91126
9.12652
8.11401
7.10877
6.3214
5.92222
6.03151
6.71652
7.9948
9.84265
12.207
15.0183
18.2026
21.6902
25.4215
29.3469
33.4245
37.6142
41.8713
46.1398
50.3484
54.4095
58.2205
61.6695
64.6424
67.0316
68.7447
69.711
69.8866
69.2542
67.8213
65.6136
62.6675
59.0211
54.7074
49.7487
44.1563
37.9341
31.086
23.6284
15.6043
7.09741
-1.75443
-10.7522
-19.6349
-28.0884
-35.7635
-42.3024
-47.3714
-50.6953
-52.0899
-51.4867
-48.9477
-44.6662
-38.9535
-32.2129
-24.903
-17.4948
-10.4275
-4.06701
1.32827
5.63469
8.88361
11.2798
13.2231
15.3391
18.5159
23.94
33.1083
47.7884
69.8953
101.264
143.32
196.675
260.719
333.297
410.548
487.004
555.973
610.191
642.679
647.682
621.55
563.418
475.564
363.366
234.857
99.9163
-30.7991
-147.032
-240.063
-303.659
-334.705
-333.451
-303.355
-250.55
-183.023
-109.621
-39.012
21.2595
65.529
90.484
95.3273
81.629
52.9142
14.057
-29.4273
-72.0963
-109.213
-137.227
-154.061
-159.183
-153.486
-139
-118.499
-95.0529
-71.607
-50.6127
-33.7731
-21.9118
-14.972
-12.1304
-12.0006
-12.8888
-13.064
-11.0066
-5.60301
3.73113
17.0116
33.7253
52.9385
73.451
93.9754
113.312
130.498
144.92
156.36
164.999
171.365
176.231
180.503
185.094
190.798
198.202
207.622
219.079
232.314
246.835
261.99
277.041
291.247
303.921
314.471
322.411
327.352
328.969
326.974
321.076
310.971
296.348
276.917
252.47
222.952
188.537
149.695
107.238
62.3194
16.4003
-28.8336
-71.5921
-110.124
-142.869
-168.6
-186.536
-196.411
-198.493
-193.546
-182.752
-167.577
-149.633
-130.519
-111.683
-94.3043
-79.218
-66.8798
-57.3764
-50.4728
-45.6903
-42.3998
-39.9208
-37.6107
-34.9372
-31.5257
-27.179
-21.8718
-15.7235
-8.95491
-1.83967
5.34509
12.36
19.0326
25.2721
31.068
36.4768
41.5969
46.5385
51.3918
56.1986
60.9309
65.48
69.6571
73.2066
75.8312
77.226
77.1175
75.3044
71.693
66.3245
59.3882
51.219
42.2762
33.1052
24.2847
16.3636
9.79648
4.88527
1.73703
0.244622
0.0959457
0.812582
1.81493
2.50642
2.36586
1.03469
-1.61444
-5.43969
-10.0307
-14.7506
-18.8157
-21.4028
-21.7703
-19.3752
-13.9687
-5.65581
5.08962
17.4601
30.3942
42.6914
53.1485
60.6981
64.5326
64.198
59.6464
51.2395
39.7066
26.0603
11.4829
-2.80237
-15.6592
-26.1506
-33.6222
-37.7489
-38.5411
-36.3132
-31.6194
-25.1693
-17.7336
-10.0538
-2.7661
3.65144
8.90458
12.8804
15.6204
17.2738
18.0387
18.0969
17.5476
16.3491
14.2734
10.8875
5.56932
-2.42759
-13.8579
-29.3206
-49.0647
-72.7986
-99.5441
-127.583
-154.535
-177.586
-193.866
-200.914
-197.179
-182.452
-158.127
-127.24
-94.2264
-64.4207
-43.365
-36.0182
-45.9955
-74.9615
-122.275
-184.951
-257.939
-334.7
-407.975
-470.656
-516.624
-541.453
-542.884
-521.03
-478.275
-418.921
-348.629
-273.729
-200.504
-134.529
-80.1408
-40.0886
-15.396
-5.42799
-8.13924
-20.4558
-38.7338
-59.2335
-78.5518
-93.967
-103.665
-106.834
-103.631
-95.0441
-82.6655
-68.4297
-54.3355
-42.1923
-33.4137
-28.8758
-28.8497
-33.0078
-40.4991
-50.0777
-60.2702
-69.5599
-76.5668
-80.2037
-79.7906
-75.1157
-66.4367
-54.4249
-40.0602
-24.4915
-8.88321
5.73116
18.5696
29.1793
37.4635
43.6552
48.2454
51.8773
55.2244
58.8715
63.2153
68.3989
74.2882
80.4919
86.4202
91.3717
94.6352
95.5918
93.8011
89.0623
81.4415
71.2642
59.0746
45.57
31.5194
17.6772
4.70423
-6.89597
-16.8185
-24.9721
-31.4677
-36.5846
-40.7171
-44.3116
-47.8002
-51.5395
-55.7618
-60.5435
-65.7942
-71.2663
-76.5849
-81.2916
-84.8993
-86.9493
-87.066
-85.0023
-80.6708
-74.1586
-65.7236
-55.7714
-44.8184
-33.4421
-22.2257
-11.703
-2.30938
5.65545
12.0485
16.8871
20.3335
22.6656
24.2343
25.4162
26.5665
27.9776
29.8487
32.2696
35.2194
38.5798
42.1587
45.7227
49.0307
51.8661
54.0621
55.5188
56.2081
56.1692
55.4946
54.3106
52.7539
50.9499
48.9948
46.9437
44.8067
42.5522
40.1175
37.4231
34.39
30.955
27.0845
22.7815
18.0882
13.0815
7.86406
2.55117
-2.7434
-7.92111
-12.9093
-17.6674
-22.1872
-26.4877
-30.6048
-34.5781
-38.4358
-42.1816
-45.7852
-49.1777
-52.2542
-54.8827
-56.9191
-58.2251
-58.6882
-58.2392
-56.8659
-54.6197
-51.6139
-48.0154
-44.0274
-39.8693
-35.7532
-31.862
-28.3312
-25.2367
-22.5896
-20.3379
-18.3726
-16.5343
-14.6149
-12.3476
-9.38065
-5.23127
0.773232
9.55504
22.3217
40.5479
65.8743
99.9015
143.883
198.348
262.708
334.936
411.409
486.976
555.304
609.48
642.82
649.76
626.709
572.71
489.803
383.006
259.903
129.888
3.15132
-110.447
-202.472
-266.827
-300.373
-303.184
-278.408
-231.777
-170.833
-103.982
-39.4994
15.3832
55.2168
76.8084
79.3978
64.5368
35.7061
-2.26143
-43.8698
-83.6677
-116.89
-139.963
-150.822
-149.024
-135.655
-113.064
-84.467
-53.4876
-23.6859
1.86072
20.8814
32.1087
35.3376
31.3519
21.7402
8.63346
-5.59579
-18.6328
-28.4836
-33.674
-33.368
-27.4011
-16.233
-0.834884
17.4701
37.1879
56.8352
75.0994
90.963
103.781
113.309
119.684
123.369
125.063
125.602
125.85
126.608
128.531
132.075
137.468
144.703
153.566
163.667
174.493
185.46
195.969
205.447
213.388
219.372
223.08
224.288
222.868
218.768
212.005
202.655
190.85
176.778
160.695
142.931
123.893
104.071
84.0277
64.3731
45.7382
28.7325
13.8982
1.66572
-7.68502
-14.0513
-17.5187
-18.3541
-16.9809
-13.9387
-9.83263
-5.27683
-0.839776
3.00361
5.90737
7.67443
8.25968
7.75675
6.37143
4.38535
2.11507
-0.128427
-2.07537
-3.52427
-4.35818
-4.54949
-4.15393
-3.29572
-2.14649
-0.901103
0.246781
1.12651
1.60774
1.61172
1.11596
0.152421
-1.20002
-2.82756
-4.59608
-6.36658
-8.00955
-9.41669
-10.5089
-11.2401
-11.5966
-11.5938
-11.2694
-10.6769
-9.8773
-8.93305
-7.90146
-6.82984
-5.75128
-4.68161
-3.61787
-2.53895
-1.40896
-0.183762
1.17947
2.71054
4.41386
6.25741
8.1652
10.0152
11.6437
12.8568
13.447
13.2148
11.9895
9.64953
6.13614
1.46073
-4.29629
-10.994
-18.4449
-26.4324
-34.7268
-43.1002
-51.335
-59.228
-66.5894
-73.2377
-78.9954
-83.6847
-87.1292
-89.1602
-89.6297
-88.428
-85.5035
-80.8818
-74.6786
-67.1062
-58.4672
-49.1387
-39.5449
-30.1226
-21.2822
-13.3683
-6.6224
-1.14923
3.11509
6.43539
9.31271
12.5218
17.1434
24.575
36.4975
54.7701
81.2347
117.425
164.203
221.378
287.371
359.029
431.648
499.252
555.135
592.608
605.858
590.779
545.67
471.646
372.717
255.486
128.507
1.38665
-116.259
-215.845
-290.724
-336.845
-353.093
-341.268
-305.739
-252.816
-189.944
-124.818
-64.5409
-14.9079
20.0967
38.5536
40.6039
28.2082
4.72199
-25.6473
-58.4243
-89.4172
-115.175
-133.304
-142.624
-143.155
-135.968
-122.917
-106.309
-88.561
-71.8766
-57.9933
-48.0174
-42.3583
-40.7612
-42.4215
-46.1581
-50.6164
-54.4718
-56.6078
-56.2486
-53.0324
-47.025
-38.674
-28.7172
-18.0603
-7.64065
1.70376
9.34467
14.9402
18.4707
20.2302
20.7784
20.8585
21.2951
22.8833
26.2852
31.9456
40.0364
50.4368
62.7489
76.3466
90.4496
104.213
116.818
127.562
135.92
141.595
144.527
144.884
143.022
139.429
134.66
129.261
123.712
118.372
113.452
109.004
104.935
101.036
97.035
92.6418
87.6037
81.7482
75.013
67.4591
59.2668
50.7144
42.1448
33.9249
26.4025
19.8676
14.5216
10.4588
7.66171
6.00868
5.29427
5.25739
5.61407
6.09042
6.45164
6.52408
6.20789
5.47967
4.38542
3.02555
1.53446
0.0576758
-1.27028
-2.34457
-3.10315
-3.53307
-3.66969
-3.58914
-3.39553
-3.20449
-3.1252
-3.24341
-3.60765
-4.22079
-5.03892
-5.97847
-6.9315
-7.78784
-8.46108
-8.914
-9.17869
-9.36661
-9.66526
-10.3203
-11.6046
-13.7782
-17.0445
-21.511
-27.1587
-33.8278
-41.2205
-48.9225
-56.4387
-63.2411
-68.8193
-72.7307
-74.6421
-74.3607
-71.8499
-67.2313
-60.7724
-52.8628
-43.9825
-34.6643
-25.4548
-16.8767
-9.39332
-3.37904
0.904871
3.3273
3.89719
2.76564
0.220005
-3.33071
-7.37953
-11.3541
-14.6576
-16.7152
-17.024
-15.1995
-11.0166
-4.4362
4.38331
15.0952
27.1922
40.0519
52.9943
65.344
76.4908
85.9387
93.3387
98.5009
101.385
102.073
100.73
97.5628
92.7757
86.5452
79.0051
70.2498
60.3515
49.3874
37.4693
24.77
11.5389
-1.89641
-15.1441
-27.7766
-39.3694
-49.5449
-58.0139
-64.61
-69.3091
-72.2334
-73.637
-73.8747
-73.3595
-72.5131
-71.716
-71.2644
-71.3391
-71.989
-73.1309
-74.5623
-75.9819
-77.0094
-77.1963
-76.0179
-72.8457
-66.901
-57.2077
-42.5647
-21.5718
7.26405
45.3223
93.5666
152.181
220.202
295.237
373.335
449.102
516.065
567.297
596.21
597.432
567.632
506.147
415.324
300.487
169.523
32.1253
-101.213
-220.331
-316.497
-383.338
-417.483
-418.838
-390.46
-338.086
-269.348
-192.829
-117.05
-49.5417
3.90613
39.7302
56.7763
56.1817
40.9952
15.6037
-14.9459
-45.6387
-72.1095
-91.1182
-100.836
-100.926
-92.426
-77.4704
-58.8934
-39.7831
-23.0417
-11.0084
-5.18761
-6.10791
-13.319
-25.5165
-40.7676
-56.803
-71.3307
-82.3318
-88.3026
-88.4142
-82.5781
-71.4144
-56.1342
-38.3573
-19.8908
-2.49957
12.3033
23.4228
30.2882
32.8903
31.7519
27.838
22.4231
16.9307
12.7678
11.1705
13.078
19.0451
29.2006
43.2518
60.532
80.0829
100.762
121.363
140.728
157.861
172.001
182.678
189.73
193.288
193.734
191.633
187.656
182.495
176.789
171.054
165.643
160.717
156.256
152.073
147.866
143.272
137.927
131.534
123.909
115.016
104.986
94.1055
82.7888
71.529
60.8408
51.1981
42.9772
36.4118
31.567
28.3346
26.4512
25.5353
25.1385
24.8035
24.1205
22.7751
20.5806
17.4936
13.6092
9.14156
4.39044
-0.298301
-4.57457
-8.12263
-10.6932
-12.1266
-12.3655
-11.4576
-9.5483
-6.86392
-3.68897
-0.337846
2.87513
5.66466
7.79948
9.12084
9.55266
9.10276
7.85522
5.95546
3.59008
0.9643
-1.72025
-4.28463
-6.58672
-8.52898
-10.0598
-11.1689
-11.8778
-12.2285
-12.27
-12.0468
-11.59
-10.9117
-10.0041
-8.84244
-7.39243
-5.62076
-3.50786
-1.06109
1.67355
4.60339
7.58681
10.4377
12.9374
14.8524
15.9569
16.0563
15.0082
12.7394
9.25388
4.63272
-0.974909
-7.36843
-14.3171
-21.5829
-28.9415
-36.1986
-43.1996
-49.8329
-56.0258
-61.7377
-66.9498
-71.6556
-75.8524
-79.5355
-82.6947
-85.3131
-87.3674
-88.83
-89.6717
-89.8654
-89.3891
-88.2299
-86.3865
-83.8712
-80.7113
-76.9489
-72.641
-67.8594
-62.6897
-57.2315
-51.5967
-45.9068
-40.2877
-34.8601
-29.7259
-24.9476
-20.5189
-16.3249
-12.09
-7.31732
-1.22767
7.28332
19.6456
37.5452
62.761
96.9036
141.069
195.453
259.002
329.163
401.831
471.536
531.879
576.197
598.366
593.636
559.376
495.592
405.15
293.632
168.847
40.0446
-83.0633
-191.349
-277.245
-335.522
-363.787
-362.623
-335.39
-287.714
-226.734
-160.234
-95.7473
-39.7583
2.91139
29.4766
39.2938
33.707
15.6767
-10.7445
-41.0125
-70.6883
-95.959
-114.027
-123.336
-123.614
-115.767
-101.619
-83.5857
-64.2973
-46.2387
-31.4478
-21.3015
-16.4088
-16.6128
-21.0896
-28.5232
-37.3238
-45.8599
-52.6728
-56.6475
-57.1241
-53.9419
-47.4161
-38.258
-27.4537
-16.1205
-5.35956
3.87389
10.8723
15.2373
16.8997
16.0988
13.3297
9.26746
4.67956
0.338913
-3.05449
-4.93561
-4.91634
-2.80585
1.38952
7.48421
15.1453
23.9337
33.3502
42.881
52.0405
60.4056
67.6419
73.5178
77.9084
80.7891
82.2201
82.3253
81.268
79.226
76.3699
72.846
68.7659
64.2036
59.2006
53.7757
47.9402
41.714
35.14
28.2958
21.2979
14.3008
7.48795
1.05753
-4.7951
-9.89674
-14.1138
-17.3659
-19.6337
-20.9602
-21.4451
-21.2334
-20.4998
-19.431
-18.2073
-16.9864
-15.8913
-15.0019
-14.3525
-13.9338
-13.7001
-13.579
-13.4832
-13.323
-13.0174
-12.504
-11.7449
-10.7305
-9.47929
-8.03449
-6.45878
-4.8266
-3.21567
-1.69832
-0.333562
0.839481
1.80603
2.5777
3.1919
3.70862
4.20494
4.7677
5.48504
6.43776
7.69119
9.28869
11.2473
13.5564
16.179
19.0559
22.1123
25.2652
28.4316
31.5353
34.5113
37.3079
39.8853
42.2109
44.2524
45.9695
47.3062
48.1846
48.5025
48.1357
46.9456
44.7928
41.5554
37.149
31.5473
24.7991
17.039
8.48941
-0.545998
-9.69967
-18.5653
-26.7294
-33.8066
-39.4737
-43.5006
-45.7731
-46.305
-45.2391
-42.8345
-39.4434
-35.4788
-31.376
-27.5524
-24.3695
-22.1007
-20.9082
-20.8311
-21.7854
-23.5762
-25.9198
-28.4731
-30.865
-32.7254
-33.7028
-33.4652
-31.6777
-27.9558
-21.8012
-12.5358
0.742233
19.1468
43.9115
76.1971
116.808
165.848
222.383
284.179
347.607
407.771
458.874
494.823
509.973
499.937
462.303
397.162
307.335
198.257
77.5008
-45.9773
-162.802
-264.205
-342.981
-394.253
-415.951
-408.94
-376.807
-325.331
-261.733
-193.791
-128.953
-73.5404
-32.1463
-7.27811
0.727485
-6.47228
-25.6213
-52.4129
-82.1131
-110.177
-132.785
-147.243
-152.209
-147.73
-135.11
-116.628
-95.1626
-73.7713
-55.2797
-41.9322
-35.1415
-35.359
-42.0742
-53.9345
-68.9609
-84.8285
-99.1726
-109.882
-115.345
-114.618
-107.51
-94.566
-76.9662
-56.356
-34.6299
-13.6979
4.73616
19.3605
29.3846
34.6016
35.378
32.5783
27.4342
21.3789
15.8666
12.1993
11.3819
14.0195
20.2696
29.8481
42.0878
56.0382
70.5913
84.6171
97.0917
107.203
114.423
118.54
119.654
118.128
114.522
109.503
103.751
97.872
92.3349
87.423
83.2223
79.6356
76.4217
73.2528
69.7797
65.6958
60.7904
54.9841
48.343
41.0697
33.4748
25.9341
18.8378
12.5394
7.3125
3.31926
0.595129
-0.949623
-1.51303
-1.37249
-0.84852
-0.266257
0.0802007
-0.0433185
-0.791734
-2.23215
-4.34584
-7.03921
-10.1616
-13.5268
-16.9357
-20.1978
-23.1482
-25.6613
-27.6577
-29.1066
-30.0232
-30.4617
-30.5049
-30.2525
-29.8071
-29.2612
-28.6848
-28.1161
-27.5546
-26.9598
-26.2536
-25.3287
-24.0607
-22.3238
-20.0086
-17.0385
-13.3844
-9.07417
-4.1964
1.10195
6.62387
12.1346
17.3761
22.0813
25.9864
28.8415
30.4177
30.5142
28.9659
25.6528
20.5126
13.5553
4.87819
-5.32211
-16.7431
-28.9795
-41.5381
-53.8636
-65.3763
-75.5159
-83.7891
-89.8126
-93.3489
-94.3272
-92.8491
-89.1752
-83.6954
-76.8848
-69.2495
-61.269
-53.3417
-45.7403
-38.5846
-31.8348
-25.3082
-18.7172
-11.7229
-3.99653
4.72053
14.568
25.5377
37.47
50.08
63.0141
75.9359
88.6362
101.154
113.893
127.694
143.847
163.988
189.878
223.064
264.461
313.926
369.913
429.309
487.509
538.782
576.88
595.839
590.838
558.991
499.93
416.076
312.551
196.711
77.3794
-36.1396
-135.11
-212.349
-263.013
-285.081
-279.493
-249.918
-202.219
-143.682
-82.1158
-24.9512
21.5544
52.9214
66.796
63.0231
43.4569
11.5538
-28.1834
-70.8312
-111.658
-146.653
-172.914
-188.864
-194.287
-190.192
-178.55
-161.94
-143.156
-124.837
-109.152
-97.5755
-90.78
-88.6329
-90.2989
-94.42
-99.3419
-103.358
-104.934
-102.894
-96.5432
-85.7241
-70.8006
-52.5839
-32.2112
-10.9956
9.73112
28.7669
45.1619
58.3044
67.9635
74.2882
77.7639
79.1356
79.3071
79.2281
79.7819
81.6869
85.4208
91.1751
98.8435
108.044
118.168
128.455
138.078
146.233
152.218
155.508
155.795
153.011
147.328
139.123
128.934
117.4
105.191
92.9459
81.2158
70.4221
60.8337
52.5632
45.5806
39.743
34.8324
30.5984
26.7984
23.2307
19.7571
16.3134
12.9067
9.60332
6.50837
3.74194
1.41503
-0.391069
-1.63956
-2.34564
-2.57645
-2.44409
-2.0935
-1.68693
-1.38741
-1.34313
-1.67473
-2.46646
-3.76236
-5.567
-7.85056
-10.5567
-13.6117
-16.9333
-20.4379
-24.0443
-27.675
-31.2538
-34.702
-37.934
-40.8534
-43.3531
-45.3177
-46.6312
-47.1873
-46.902
-45.7268
-43.6592
-40.7506
-37.1073
-32.8867
-28.2868
-23.5302
-18.8457
-14.4476
-10.5165
-7.18351
-4.51912
-2.52827
-1.15159
-0.272281
0.272633
0.67826
1.15672
1.92246
3.1791
5.10798
7.85816
11.5367
16.1983
21.8331
28.3536
35.5823
43.2433
50.9618
58.2759
64.6623
69.5766
72.5047
73.0203
70.8392
65.8644
58.2109
48.2073
36.3709
23.357
9.89031
-3.3144
-15.6299
-26.5816
-35.8906
-43.4879
-49.4981
-54.1953
-57.9386
-61.096
-63.9698
-66.7339
-69.3921
-71.764
-73.5014
-74.1327
-73.1294
-69.9875
-64.3118
-55.8914
-44.758
-31.2167
-15.8447
0.544942
16.9744
32.4042
45.8642
56.6069
64.2706
69.0371
71.7577
74.0152
78.0837
86.7574
103.03
129.643
168.544
220.342
283.868
355.928
431.356
503.39
564.356
606.586
623.442
610.284
565.244
489.648
388.048
267.809
138.329
9.98741
-107.037
-203.909
-274.091
-314.002
-323.287
-304.69
-263.57
-207.125
-143.461
-80.6015
-25.598
16.1879
41.5357
49.5268
41.4165
20.2602
-9.63967
-43.3803
-76.1125
-103.62
-122.767
-131.762
-130.246
-119.193
-100.669
-77.4859
-52.8037
-29.7345
-10.9872
1.40769
6.27435
3.35927
-6.70498
-22.5258
-42.1454
-63.2791
-83.5695
-100.831
-113.263
-119.604
-119.234
-112.188
-99.1129
-81.1585
-59.8203
-36.758
-13.6058
8.19993
27.5602
43.8042
56.7241
66.5535
73.8933
79.5991
84.6446
89.9795
96.4008
104.452
114.361
126.028
139.045
152.773
166.424
179.176
190.27
199.101
205.285
208.685
209.407
207.77
204.238
199.349
193.631
187.527
181.342
175.202
169.055
162.689
155.782
147.964
138.89
128.315
116.146
102.48
87.6172
72.0374
56.359
41.273
27.4671
15.5494
5.98104
-0.973305
-5.27029
-7.08652
-6.79149
-4.8993
-2.00631
1.27714
4.39203
6.88532
8.44807
8.93372
8.3558
6.86713
4.72458
2.24514
-0.240761
-2.43255
-4.09453
-5.07914
-5.33673
-4.91207
-3.92935
-2.56875
-1.03841
0.454291
1.72842
2.64924
3.14013
3.18608
2.82909
2.15691
1.2873
0.350131
-0.530174
-1.24969
-1.736
-1.95416
-1.90745
-1.63324
-1.19502
-0.671681
-0.14579
0.307793
0.631447
0.791379
0.780534
0.617628
0.342645
0.00961754
-0.322139
-0.596991
-0.77086
-0.816937
-0.72859
-0.519332
-0.220509
0.121547
0.445738
0.669403
0.670004
0.252713
-0.894302
-3.24904
-7.49548
-14.5365
-25.4626
-41.4651
-63.6915
-93.0537
-130.013
-174.374
-225.13
-280.39
-337.423
-392.818
-442.772
-483.456
-511.43
-524.053
-519.815
-498.567
-461.591
-411.507
-352.029
-287.585
-222.864
-162.335
-109.799
-68.0367
-38.5781
-21.6276
-16.1412
-20.0412
-30.5332
-44.4814
-58.7932
-70.7659
-78.3554
-80.3431
-76.3871
-66.9623
-53.2081
-36.7097
-19.2483
-2.55371
11.9081
23.0905
30.449
33.9487
34.0035
31.3621
26.9624
21.779
16.6879
12.3672
9.25048
7.53814
7.26749
8.43114
11.1271
15.7152
22.947
34.0345
50.6211
74.6303
107.985
152.214
207.999
274.732
350.179
430.338
509.563
580.976
637.151
670.991
676.67
650.513
591.663
502.418
388.176
256.974
118.679
-16.0731
-137.041
-235.494
-305.135
-342.717
-348.276
-324.978
-278.603
-216.75
-147.881
-80.3311
-21.3991
23.3687
50.629
59.3961
50.9037
28.2172
-4.3334
-41.8123
-79.3387
-112.665
-138.612
-155.312
-162.267
-160.215
-150.865
-136.532
-119.752
-102.913
-87.9639
-76.2166
-68.2669
-64.0218
-62.8179
-63.6015
-65.1385
-66.2199
-65.8385
-63.3137
-58.3571
-51.0763
-41.9242
-31.6074
-20.9708
-10.8749
-2.08364
4.82719
9.5299
11.9726
12.3745
11.1935
9.07325
6.775
5.10378
4.83314
6.63494
11.0186
18.2838
28.4898
41.4443
56.713
73.6502
91.4481
109.203
125.989
140.941
153.322
162.593
168.447
170.834
169.952
166.212
160.181
152.519
143.895
134.916
126.07
117.68
109.893
102.689
95.9163
89.3425
82.7145
75.8168
68.5199
60.8123
52.8098
44.7446
36.9334
29.7329
23.4876
18.4798
14.8878
12.7583
11.9985
12.3847
13.5901
15.2241
16.8788
18.1767
18.813
18.5867
17.4188
15.354
12.5479
9.24213
5.72979
2.3178
-0.710198
-3.12558
-4.77761
-5.60533
-5.638
-4.98477
-3.81574
-2.33746
-0.766245
0.697308
1.88958
2.69883
3.07256
3.01707
2.59012
1.88815
1.03031
0.141323
-0.664362
-1.29553
-1.69285
-1.83274
-1.72629
-1.41414
-0.958207
-0.431697
0.091052
0.543688
0.874799
1.0521
1.06369
0.916648
0.633539
0.247736
-0.201701
-0.674742
-1.13416
-1.54804
-1.89099
-2.14425
-2.29513
-2.3361
-2.26408
-2.08013
-1.78971
-1.40338
-0.937813
-0.416772
0.128127
0.657245
1.12342
1.47316
1.64835
1.58801
1.22979
0.510731
-0.632611
-2.26426
-4.44826
-7.24649
-10.714
-14.8915
-19.7956
-25.4075
-31.6621
-38.4392
-45.559
-52.7836
-59.825
-66.362
-72.0624
-76.6123
-79.7473
-81.2833
-81.1421
-79.3692
-76.1381
-71.7424
-66.5731
-61.0836
-55.7464
-51.0064
-47.2349
-44.6915
-43.4959
-43.6121
-44.8438
-46.8354
-49.0726
-50.8754
-51.3794
-49.5092
-43.9539
-33.168
-15.4236
11.0603
47.8946
96.2094
156.286
227.193
306.501
390.166
472.636
547.233
606.772
644.378
654.37
633.105
579.619
495.986
387.287
261.207
127.278
-4.12188
-122.889
-220.292
-289.89
-328.169
-334.823
-312.643
-267.058
-205.388
-135.928
-66.9681
-5.88969
41.5739
71.8242
83.5976
77.8771
57.5498
26.8737
-9.16526
-45.5181
-77.6782
-102.16
-116.802
-120.887
-115.063
-101.115
-81.6213
-59.5475
-37.8383
-19.055
-5.09927
2.95242
4.89441
1.32487
-6.5139
-16.9583
-28.1756
-38.4105
-46.1977
-50.5157
-50.8707
-47.3056
-40.3411
-30.8609
-19.9614
-8.7855
1.6365
10.521
17.4247
22.2878
25.4259
27.4714
29.2764
31.7884
35.9172
42.4098
51.7475
64.0799
79.2009
96.5702
115.375
134.62
153.246
170.236
184.728
196.094
203.992
208.384
209.511
207.847
204.021
198.731
192.656
186.373
180.296
174.639
169.412
164.437
159.399
153.909
147.57
140.056
131.16
120.834
109.202
96.5457
83.2755
69.8772
56.8571
44.6853
33.7475
24.3101
16.5026
10.3186
5.63268
2.22994
-0.156508
-1.80639
-2.97619
-3.87075
-4.62525
-5.29888
-5.87989
-6.30055
-6.45938
-6.24769
-5.57673
-4.40208
-2.74177
-0.685711
1.60537
3.9116
5.97523
7.52886
8.32718
8.178
6.96827
4.68158
1.40456
-2.67881
-7.30442
-12.1544
-16.8894
-21.1827
-24.7516
-27.3832
-28.9501
-29.417
-28.8359
-27.3325
-25.0855
-22.3019
-19.1925
-15.9487
-12.7248
-9.62669
-6.70737
-3.96929
-1.37265
1.15191
3.68762
6.31446
9.09199
12.0434
15.1419
18.3006
21.3672
24.1248
26.2995
27.5753
27.6164
26.0946
22.7218
17.2832
9.66958
-0.0948065
-11.8328
-25.2054
-39.7169
-54.7349
-69.5251
-83.3002
-95.2774
-104.741
-111.105
-113.963
-113.134
-108.681
-100.914
-90.371
-77.7797
-63.9992
-49.9533
-36.5567
-24.6427
-14.8975
-7.80658
-3.61696
-2.3161
-3.62781
-7.02221
-11.7347
-16.7875
-21.0062
-23.0293
-21.3136
-14.1496
0.289875
23.8394
58.1459
104.384
162.903
232.853
311.882
395.975
479.533
555.723
617.1
656.44
667.681
646.823
592.634
507.061
395.236
265.071
126.481
-9.67478
-132.776
-233.613
-305.373
-344.329
-350.145
-325.764
-276.928
-211.378
-137.88
-65.1842
-1.05471
48.5059
79.7696
91.4842
84.7633
62.7079
29.8263
-8.65569
-47.4988
-82.0807
-108.881
-125.774
-132.118
-128.642
-117.184
-100.307
-80.8837
-61.6856
-45.0363
-32.5688
-25.1011
-22.6348
-24.4597
-29.3403
-35.7491
-42.1104
-47.0225
-49.431
-48.7369
-44.8327
-38.0691
-29.1648
-19.0759
-8.8464
0.54006
8.2884
13.8856
17.1508
18.2402
17.6082
15.9355
14.0336
12.7404
12.8204
14.8802
19.308
26.2434
35.5758
46.9708
59.9186
73.7957
87.9337
101.685
114.477
125.859
135.521
143.298
149.162
153.191
155.533
156.366
155.857
154.131
151.254
147.227
141.994
135.475
127.591
118.307
107.664
95.8029
82.9786
69.5509
55.9644
42.7118
30.2892
19.1471
9.64575
2.01881
-3.64896
-7.42795
-9.5333
-10.2996
-10.1444
-9.5246
-8.89171
-8.65011
-9.12274
-10.5268
-12.9607
-16.4029
-20.7201
-25.6854
-31.0015
-36.3295
-41.3186
-45.6371
-48.9998
-51.1933
-52.0933
-51.6768
-50.0234
-47.3077
-43.7812
-39.7446
-35.5134
-31.3791
-27.5712
-24.2256
-21.3624
-18.8776
-16.5512
-14.0694
-11.0612
-7.14371
-1.97209
4.71167
13.037
22.9749
34.3225
46.7062
59.6009
72.3657
84.2922
94.6608
102.8
108.143
110.273
108.961
104.18
96.1048
85.0904
71.6392
56.353
39.8819
22.8738
5.93054
-10.4237
-25.7614
-39.7558
-52.1728
-62.8543
-71.6976
-78.6354
-83.6203
-86.6187
-87.6119
-86.6069
-83.6522
-78.8556
-72.3989
-64.5462
-55.6416
-46.0965
-36.3648
-26.911
-18.172
-10.5195
-4.22559
0.565752
3.85907
5.82332
6.80669
7.35542
8.2394
10.4812
15.3757
24.4794
39.5399
62.341
94.4498
136.878
189.698
251.689
320.092
390.565
457.389
513.952
553.451
569.756
558.276
516.72
445.61
348.447
231.508
103.266
-26.4829
-147.677
-251.083
-329.301
-377.528
-394.011
-380.131
-340.112
-280.428
-208.972
-134.114
-63.7594
-4.53157
38.8479
63.9072
70.487
60.5306
37.6491
6.53088
-27.7202
-60.2342
-86.9353
-104.955
-112.862
-110.7
-99.8356
-82.6738
-62.256
-41.8239
-24.3896
-12.3681
-7.30963
-9.7565
-19.232
-34.3541
-53.052
-72.8525
-91.1988
-105.762
-114.706
-116.886
-111.941
-100.305
-83.1089
-62.0121
-38.9782
-16.0268
5.00783
22.6824
36.0915
44.9419
49.5471
50.7504
49.787
48.1068
47.1812
48.3182
52.5063
60.3064
71.7991
86.5921
103.882
122.56
141.347
158.936
174.132
185.97
193.795
197.306
196.558
191.924
184.036
173.69
161.761
149.107
136.496
124.542
113.673
104.123
95.9382
89.0079
83.1037
77.9253
73.1447
68.4481
63.5673
58.3032
52.5382
46.2389
39.451
32.2868
24.9105
17.5199
10.3288
3.55101
-2.61452
-7.99496
-12.453
-15.894
-18.2704
-19.5854
-19.8934
-19.2992
-17.9538
-16.047
-13.7977
-11.44
-9.20757
-7.31642
-5.94779
-5.23269
-5.24004
-5.96982
-7.35242
-9.25465
-11.4923
-13.8484
-16.0958
-18.0215
-19.4518
-20.2732
-20.4482
-20.0229
-19.1243
-17.9475
-16.7321
-15.7307
-15.1719
-15.2224
-15.9538
-17.3186
-19.1415
-21.1277
-22.8901
-23.9922
-24.002
-22.5501
-19.3833
-14.4068
-7.70742
0.443773
9.61256
19.242
28.7081
37.3827
44.6972
50.1979
53.5873
54.747
53.7408
50.7978
46.2794
40.6344
34.349
27.8963
21.692
16.0592
11.2068
7.21987
4.06455
1.60302
-0.382154
-2.15832
-4.0107
-6.21109
-8.99018
-12.5155
-16.8764
-22.0773
-28.0382
-34.6033
-41.556
-48.6389
-55.5782
-62.1086
-67.9994
-73.0766
-77.2419
-80.4851
-82.89
-84.6317
-85.9655
-87.2057
-88.6959
-90.7692
-93.6997
-97.6477
-102.597
-108.29
-114.163
-119.291
-122.358
-121.666
-115.222
-100.9
-76.7115
-41.1531
6.39147
65.2719
133.287
206.583
279.789
346.419
399.522
432.486
439.916
418.427
367.243
288.491
187.136
70.5544
-52.2082
-171.4
-277.614
-362.8
-421.102
-449.424
-447.663
-418.588
-367.399
-301.036
-227.325
-154.083
-88.279
-35.3596
1.20908
20.1328
22.2187
10.0715
-12.3892
-40.5186
-69.5636
-95.2341
-114.164
-124.22
-124.633
-115.958
-99.8746
-78.8827
-55.9172
-33.9533
-15.6395
-3.00099
2.75904
1.34559
-6.65401
-19.896
-36.4838
-54.2201
-70.8762
-84.4459
-93.359
-96.6309
-93.9371
-85.6094
-72.5578
-56.1326
-37.9448
-19.6673
-2.84158
11.2894
21.9044
28.6703
31.7493
31.7465
29.6099
26.4953
23.614
22.0826
22.7923
26.3118
32.834
42.1706
53.7923
66.9078
80.5688
93.7887
105.658
115.444
122.664
127.12
128.9
128.345
125.975
122.411
118.273
114.096
110.253
106.907
104.005
101.291
98.3636
94.7459
89.9755
83.6869
75.6822
65.9772
54.8166
42.6556
30.113
17.9004
6.7389
-2.7247
-9.99222
-14.7685
-16.99
-16.8247
-14.6453
-10.9787
-6.44175
-1.66929
2.75438
6.35369
8.80308
9.9477
9.80281
8.53364
6.41987
3.81022
1.07357
-1.44735
-3.47429
-4.82027
-5.40273
-5.24301
-4.45377
-3.21714
-1.7573
-0.311303
0.898337
1.68614
1.91937
1.52577
0.493553
-1.13567
-3.27898
-5.82736
-8.66151
-11.6662
-14.7414
-17.8091
-20.8154
-23.7287
-26.5339
-29.2252
-31.7986
-34.2449
-36.5457
-38.6711
-40.5816
-42.2317
-43.5761
-44.5752
-45.2015
-45.4427
-45.3029
-44.7999
-43.9608
-42.8155
-41.3902
-39.703
-37.7631
-35.5727
-33.1346
-30.4606
-27.5813
-24.5525
-21.4565
-18.3966
-15.4839
-12.8189
-10.4703
-8.45537
-6.72704
-5.16972
-3.6068
-1.81933
0.426361
3.34592
7.10398
11.7859
17.3786
23.7636
30.7231
37.9588
45.1209
51.8424
57.7755
62.6237
66.1647
68.263
68.8679
68.0008
65.734
62.1664
57.4024
51.5389
44.6645
36.8705
28.2725
19.0364
9.40336
-0.296386
-9.64476
-18.1582
-25.33
-30.6894
-33.8679
-34.6629
-33.0851
-29.3805
-24.0193
-17.6511
-11.03
-4.9213
-0.00290967
3.22291
4.49378
3.81895
1.47747
-2.01059
-5.92593
-9.38825
-11.3767
-10.7279
-6.11959
3.93587
21.0557
46.8743
82.8318
129.868
188.054
256.232
331.746
410.347
486.353
553.07
603.468
631.018
630.582
599.215
536.749
446.044
332.864
205.366
73.2776
-53.1547
-164.281
-252.096
-311.084
-338.746
-335.758
-305.756
-254.779
-190.462
-121.094
-54.6529
2.05084
44.0342
68.5344
75.109
65.4541
42.9857
12.256
-21.7113
-54.0768
-80.7554
-98.8374
-106.825
-104.673
-93.6427
-76.0185
-54.7154
-32.8535
-13.3449
1.45336
9.98669
11.6278
6.67671
-3.75253
-17.9348
-33.7927
-49.1766
-62.1282
-71.1007
-75.1101
-73.8081
-67.472
-56.922
-43.3779
-28.2798
-13.0946
0.865261
12.5924
21.4847
27.3891
30.5856
31.7175
31.6816
31.492
32.1394
34.4613
39.04
46.1389
55.6825
67.2802
80.2872
93.893
107.225
119.45
129.87
137.984
143.535
146.51
147.118
145.745
142.887
139.078
134.821
130.534
126.509
122.894
119.696
116.804
114.023
111.117
107.856
104.052
99.5916
94.4481
88.6879
82.4575
75.961
69.4309
63.0957
57.1481
51.7205
46.8681
42.5636
38.7026
35.1198
31.6131
27.9719
24.0066
19.5757
14.6055
9.10147
3.14975
-3.09226
-9.41346
-15.5729
-21.3268
-26.4549
-30.7831
-34.1998
-36.6645
-38.2075
-38.9224
-38.9511
-38.4652
-37.6459
-36.6635
-35.6613
-34.7432
-33.968
-33.3489
-32.8591
-32.4413
-32.0203
-31.5162
-30.857
-29.9886
-28.8812
-27.5318
-25.9621
-24.2131
-22.3368
-20.3859
-18.4044
-16.4194
-14.4351
-12.4312
-10.3645
-8.17441
-5.79145
-3.14698
-0.183425
3.13705
6.82655
10.8688
15.2203
19.8141
24.5658
29.381
34.1608
38.8075
43.2276
47.3327
51.0394
54.2686
56.9447
58.9964
60.3579
60.9732
60.7998
59.8136
58.0129
55.4202
52.0821
48.0658
43.4537
38.3355
32.7996
26.9266
20.7829
14.4199
7.8751
1.17809
-5.64158
-12.5447
-19.4725
-26.3383
-33.0211
-39.3638
-45.1751
-50.2374
-54.3201
-57.1978
-58.6715
-58.5917
-56.8798
-53.5455
-48.6977
-42.5455
-35.3911
-27.6091
-19.6162
-11.8276
-4.6008
1.8332
7.44999
12.5184
17.6825
24.0218
33.0632
46.7192
67.1258
96.3719
136.131
187.236
249.262
320.206
396.343
472.331
541.584
596.911
631.331
638.98
615.962
561.012
475.874
365.313
236.743
99.5098
-36.0694
-159.814
-262.766
-338.135
-381.968
-393.488
-375.045
-331.719
-270.627
-200.033
-128.381
-63.3692
-11.174
24.0946
40.6578
39.0416
21.7875
-7.04489
-42.5068
-79.4326
-113.073
-139.616
-156.542
-162.79
-158.727
-145.948
-126.95
-104.716
-82.2937
-62.4022
-47.1187
-37.6791
-34.4019
-36.7371
-43.4189
-52.6957
-62.6005
-71.2245
-76.9591
-78.6794
-75.8507
-68.5514
-57.4162
-43.5124
-28.1699
-12.7898
1.34337
13.2227
22.2339
28.2132
31.444
32.5968
32.622
32.6132
33.6573
36.6938
42.3969
51.097
62.7471
76.9368
92.9498
109.855
126.62
142.228
155.788
166.623
174.326
178.784
180.159
178.841
175.376
170.379
164.447
158.084
151.646
145.31
139.081
132.82
126.295
119.244
111.439
102.741
93.1418
82.7767
71.921
60.9596
50.3416
40.5249
31.9198
24.8379
19.4555
15.7935
13.7176
12.9563
13.1348
13.8181
14.5599
14.9494
14.6519
13.4401
11.2118
7.99473
3.93799
-0.708677
-5.62435
-10.4525
-14.8391
-18.4683
-21.0943
-22.5645
-22.8322
-21.9592
-20.1061
-17.514
-14.478
-11.317
-8.34176
-5.8257
-3.9813
-2.9441
-2.76602
-3.41805
-4.80137
-6.76475
-9.1254
-11.6903
-14.2749
-16.7168
-18.8839
-20.6748
-22.0146
-22.8454
-23.1155
-22.769
-21.7386
-19.9443
-17.2992
-13.7231
-9.16324
-3.61832
2.83599
10.0268
17.6727
25.387
32.6952
39.0698
43.9764
46.928
47.5391
45.5722
40.9694
33.864
24.57
13.5491
1.36112
-11.3953
-24.1448
-36.3899
-47.7518
-57.9927
-67.0164
-74.8504
-81.612
-87.4647
-92.5729
-97.0606
-100.98
-104.298
-106.894
-108.578
-109.121
-108.296
-105.919
-101.889
-96.2223
-89.0704
-80.7236
-71.5965
-62.1959
-53.0719
-44.7544
-37.6766
-32.0871
-27.9554
-24.8756
-21.9797
-17.8814
-10.6754
1.97708
22.6512
53.838
97.5172
154.669
224.804
305.609
392.801
480.278
560.57
625.594
667.599
680.192
659.279
603.768
515.934
401.342
268.361
127.302
-10.6956
-134.884
-236.068
-307.564
-345.841
-350.763
-325.438
-275.696
-209.284
-134.896
-61.1609
4.2893
55.5555
88.9521
103.188
99.2515
80.0502
49.8535
13.6422
-23.5601
-57.2854
-84.0861
-101.824
-109.768
-108.501
-99.6853
-85.7134
-69.3095
-53.1377
-39.462
-29.8971
-25.2707
-25.6031
-30.193
-37.7871
-46.8035
-55.5736
-62.5715
-66.6022
-66.9295
-63.3343
-56.1018
-45.948
-33.898
-21.1378
-8.85857
1.88752
10.3032
15.9241
18.6524
18.7457
16.767
13.5019
9.8562
6.74662
4.99577
5.24495
7.8926
13.0646
20.6173
30.1723
41.1741
52.9649
64.8634
76.2385
86.5678
95.4757
102.747
108.318
112.247
114.677
115.787
115.756
114.725
112.788
109.982
106.298
101.707
96.1784
89.7094
82.3437
74.1835
65.3905
56.1772
46.7896
37.4845
28.5062
20.0644
12.3199
5.37603
-0.719274
-5.96519
-10.3937
-14.0529
-16.9919
-19.2495
-20.8496
-21.8039
-22.1214
-21.8224
-20.9532
-19.5994
-17.892
-16.0064
-14.1514
-12.5497
-11.4127
-10.9126
-11.1573
-12.1708
-13.8839
-16.1368
-18.6924
-21.2614
-23.5328
-25.2082
-26.034
-25.828
-24.497
-22.0432
-18.5592
-14.2133
-9.22596
-3.84253
1.69456
7.17086
12.4185
17.3271
21.8449
25.9732
29.7528
33.2471
36.5233
39.6346
42.6058
45.423
48.0301
50.3287
52.1852
53.4403
53.9215
53.458
51.8956
49.1115
45.0282
39.6261
32.953
25.1298
16.3517
6.88365
-2.95125
-12.7885
-22.2449
-30.9441
-38.543
-44.7563
-49.3754
-52.2813
-53.4484
-52.941
-50.9039
-47.5471
-43.1291
-37.9395
-32.2816
-26.4559
-20.7445
-15.3941
-10.5999
-6.48852
-3.10194
-0.382141
1.8436
3.87935
6.18206
9.38943
14.3509
22.1501
34.0983
51.6719
76.3708
109.486
151.786
203.175
262.364
326.672
391.989
452.995
503.609
537.657
549.66
535.636
493.788
424.951
332.727
223.254
104.636
-13.9087
-123.057
-214.424
-281.498
-320.335
-329.937
-312.267
-271.906
-215.414
-150.483
-85.0076
-26.1829
20.2565
50.5667
63.2497
59.0201
40.5094
11.765
-22.3777
-56.9616
-87.5278
-110.615
-124.09
-127.277
-120.897
-106.835
-87.7829
-66.8147
-46.9535
-30.7846
-20.1606
-16.0253
-18.3691
-26.3084
-38.2674
-52.2325
-66.0387
-77.652
-85.4111
-88.2037
-85.5603
-77.6602
-65.2577
-49.5435
-31.9634
-14.0215
2.9073
17.7319
29.7514
38.7032
44.7523
48.4289
50.5261
51.975
53.7144
56.5718
61.1682
67.8558
76.6927
87.4526
99.6649
112.678
125.732
138.045
148.881
157.62
163.803
167.162
167.632
165.336
160.562
153.718
145.282
135.748
125.581
115.171
104.815
94.7064
84.9422
75.5465
66.4994
57.7695
49.3426
41.2429
33.5423
26.3579
19.8377
14.1387
9.40069
5.72024
3.13058
1.58923
0.976178
1.10263
1.72888
2.58882
3.41737
3.97726
4.08157
3.60933
2.51267
0.815081
-1.39809
-3.99521
-6.81728
-9.69752
-12.4789
-15.0281
-17.2432
-19.0575
-20.4365
-21.3722
-21.8744
-21.9619
-21.6547
-20.9693
-19.9179
-18.5121
-16.7695
-14.7232
-12.4304
-9.97898
-7.48949
-5.11082
-3.01028
-1.35829
-0.309782
0.0151244
-0.451648
-1.71348
-3.70303
-6.28373
-9.25905
-12.3883
-15.4073
-18.0517
-20.0795
-21.2917
-21.547
-20.7699
-18.9529
-16.15
-12.4667
-8.04503
-3.04847
2.3525
7.99143
13.7126
19.3725
24.8378
29.979
34.6646
38.7561
42.1066
44.5641
45.9802
46.2231
45.1938
42.8418
39.1792
34.2898
28.3311
21.5283
14.1611
6.54277
-1.00411
-8.17433
-14.7044
-20.3919
-25.1075
-28.7976
-31.4787
-33.2231
-34.1408
-34.3579
-33.9985
-33.1697
-31.9549
-30.4146
-28.5952
-26.5424
-24.3169
-22.0081
-19.7422
-17.6798
-16.0027
-14.8852
-14.4521
-14.7197
-15.5249
-16.4449
-16.7187
-15.187
-10.2732
-0.0356928
17.6859
45.0141
83.675
134.572
197.355
270.074
349.003
428.709
502.415
562.637
602.038
614.39
595.489
543.897
461.368
352.879
226.242
91.338
-40.9475
-159.925
-256.299
-323.189
-356.86
-357.05
-326.89
-272.409
-201.726
-124.028
-48.4788
16.8143
65.6376
94.2326
101.527
89.0293
60.4241
20.9398
-23.4176
-66.6599
-103.541
-130.129
-144.163
-145.178
-134.395
-114.409
-88.7402
-61.3055
-35.8909
-15.6826
-2.91431
1.33667
-2.80691
-14.1325
-30.5742
-49.5366
-68.2582
-84.1658
-95.1787
-99.9265
-97.8628
-89.2678
-75.1476
-57.0531
-36.8438
-16.4333
2.45164
18.4687
30.7935
39.1762
43.9205
45.7942
45.8872
45.4402
45.6675
47.5977
51.9523
59.0741
68.9127
81.063
94.8475
109.427
123.921
137.522
149.582
159.668
167.582
173.336
177.102
179.149
179.767
179.206
177.63
175.091
171.536
166.83
160.792
153.25
144.088
133.285
120.951
107.333
92.8111
77.8747
63.0819
49.01
36.202
25.1147
16.0767
9.25822
4.65947
2.11603
1.3219
1.86654
3.2813
5.08956
6.85476
8.22079
8.94057
8.89034
8.06888
6.58291
4.62146
2.42318
0.240973
-1.69145
-3.18736
-4.12618
-4.46269
-4.22594
-3.5091
-2.45242
-1.22211
0.0116538
1.0949
1.90571
2.36432
2.43699
2.13384
1.50195
0.61504
-0.438453
-1.56732
-2.68812
-3.73337
-4.65656
-5.43406
-6.06371
-6.56096
-6.95311
-7.27273
-7.55123
-7.81353
-8.0745
-8.33782
-8.59713
-8.83956
-9.05079
-9.22095
-9.35028
-9.45361
-9.56273
-9.72633
-10.0074
-10.4782
-11.2138
-12.2839
-13.7449
-15.632
-17.951
-20.6727
-23.7274
-27.0024
-30.3429
-33.5558
-36.4187
-38.6943
-40.1476
-40.5675
-39.7875
-37.7053
-34.2972
-29.6252
-23.8347
-17.1444
-9.82773
-2.18945
5.45918
12.8236
19.6442
25.7072
30.8483
34.9487
37.9258
39.7218
40.2924
39.6005
37.6147
34.3148
29.7033
23.819
16.7511
8.64877
-0.275204
-9.7486
-19.4517
-29.0358
-38.1446
-46.4384
-53.6149
-59.4277
-63.6994
-66.3288
-67.2935
-66.6471
-64.5136
-61.0782
-56.5762
-51.2799
-45.4846
-39.4925
-33.5965
-28.0613
-23.1048
-18.8768
-15.4341
-12.7112
-10.4847
-8.3296
-5.57318
-1.25174
5.91234
17.4926
35.275
61.0881
96.5402
142.678
199.609
266.15
339.591
415.637
488.604
551.865
598.538
622.318
618.35
583.995
519.381
427.617
314.628
188.622
59.2367
-63.5044
-170.306
-253.62
-308.447
-332.805
-327.838
-297.527
-248.095
-187.163
-122.797
-62.5636
-12.7075
22.4437
40.8033
42.5506
29.8803
6.53022
-22.8372
-53.3094
-80.367
-100.419
-111.172
-111.804
-102.936
-86.4248
-65.0173
-41.9215
-20.3555
-3.13106
7.67828
10.953
6.60825
-4.45947
-20.5422
-39.3787
-58.4629
-75.3622
-88.0051
-94.9077
-95.3139
-89.238
-77.4127
-61.1531
-42.1599
-22.291
-3.33003
13.2174
26.2784
35.302
40.2777
41.6869
40.4002
37.5374
34.3133
31.8888
31.2471
33.1039
37.8613
45.6009
56.1122
68.9463
83.4842
99.009
114.773
130.055
144.201
156.653
166.963
174.798
179.938
182.274
181.799
178.606
172.879
164.885
154.963
143.51
130.959
117.76
104.354
91.1558
78.5276
66.7678
56.0993
46.666
38.5342
31.6994
26.0969
21.6142
18.1055
15.4048
13.3389
11.7384
10.4463
9.32535
8.26241
7.17126
5.9929
4.69393
3.26308
1.70627
0.0406866
-1.71139
-3.5282
-5.39302
-7.29679
-9.23876
-11.225
-13.2652
-15.3682
-17.537
-19.7636
-22.0252
-24.281
-26.4709
-28.5163
-30.3235
-31.789
-32.8076
-33.2815
-33.1309
-32.3032
-30.7822
-28.5932
-25.8051
-22.5286
-18.9096
-15.119
-11.3395
-7.75101
-4.51536
-1.76315
0.41694
1.98499
2.95221
3.37889
3.36829
3.05713
2.6038
2.17552
1.93574
2.03323
2.594
3.71662
5.4711
7.90047
11.0237
14.8382
19.3198
24.4198
30.0571
36.1077
42.3925
48.6674
54.6189
59.8703
63.9994
66.5695
67.1716
65.4724
61.2624
54.4965
45.3201
34.0748
21.2825
7.60757
-6.19848
-19.3637
-31.1653
-40.9942
-48.407
-53.1598
-55.2204
-54.7594
-52.1218
-47.7833
-42.2973
-36.2385
-30.15
-24.4976
-19.6366
-15.792
-13.0538
-11.3847
-10.6395
-10.5904
-10.9562
-11.4267
-11.6788
-11.3755
-10.1436
-7.52673
-2.91934
4.50592
15.8543
32.5181
56.1069
88.2746
130.438
183.407
246.983
319.596
398.076
477.64
552.143
614.603
657.958
675.957
664.051
620.154
545.137
442.965
320.437
186.552
51.5716
-74.0884
-181.001
-261.746
-311.683
-329.368
-316.594
-278.042
-220.613
-152.537
-82.3746
-18.05
33.9798
69.3215
85.954
84.2322
66.612
37.1506
0.863836
-36.9698
-71.4685
-98.6931
-116.025
-122.345
-118.014
-104.67
-84.9009
-61.8223
-38.6445
-18.2661
-2.94796
5.90313
7.82652
3.27625
-6.51756
-19.7679
-34.3968
-48.3116
-59.6581
-67.0223
-69.5603
-67.0478
-59.849
-48.816
-35.1368
-20.1549
-5.18621
8.64442
20.5264
30.0354
37.149
42.2086
45.8381
48.8327
52.0356
56.2184
61.9809
69.6804
79.3972
90.938
103.872
117.594
131.406
144.597
156.526
166.684
174.736
180.534
184.109
185.641
185.401
183.701
180.831
177.01
172.361
166.898
160.544
153.165
144.617
134.8
123.706
111.448
98.2793
84.5811
70.8322
57.5625
45.2966
34.495
25.5036
18.5156
13.5537
10.4714
8.97487
8.66064
9.06393
9.71146
10.1717
10.0973
9.25399
7.53534
4.96077
1.65942
-2.15769
-6.23287
-10.2998
-14.1191
-17.5079
-20.3589
-22.648
-24.4296
-25.8199
-26.9717
-28.0435
-29.1676
-30.4221
-31.8112
-33.2573
-34.6075
-35.6533
-36.162
-35.9151
-34.7474
-32.5817
-29.452
-25.512
-21.0264
-16.3462
-11.8698
-7.99707
-5.08032
-3.38095
-3.03585
-4.03881
-6.2387
-9.35447
-13.0044
-16.7454
-20.1177
-22.6887
-24.0915
-24.055
-22.4223
-19.1582
-14.3448
-8.16859
-0.900506
7.12901
15.5566
24.0125
32.1446
39.6394
46.2369
51.741
56.0221
59.0148
60.709
61.1356
60.3496
58.4103
55.3631
51.2257
45.9801
39.5753
31.9396
23.0031
12.727
1.13623
-11.6504
-25.3975
-39.7419
-54.1969
-68.1725
-81.0123
-92.0422
-100.629
-106.24
-108.5
-107.237
-102.509
-94.6068
-84.0423
-71.5036
-57.7977
-43.7782
-30.2685
-17.9883
-7.48878
0.898184
7.09659
11.3121
14.0509
16.1351
18.7137
23.26
31.5399
45.5286
67.2544
98.5582
140.775
194.366
258.566
331.108
408.12
484.241
552.995
607.411
640.812
647.689
624.508
570.341
487.204
380.028
256.265
125.153
-3.25516
-119.179
-214.168
-281.998
-319.281
-325.741
-304.102
-259.647
-199.493
-131.703
-64.3397
-4.58296
41.9798
71.8281
83.7011
78.5113
59.0108
29.2747
-5.92132
-41.7434
-73.8812
-99.0054
-115.055
-121.342
-118.467
-108.096
-92.6155
-74.7469
-57.1518
-42.0941
-31.1882
-25.2584
-24.3179
-27.6547
-34.0045
-41.7792
-49.315
-55.1065
-57.9977
-57.31
-52.895
-45.1144
-34.7534
-22.8874
-10.7183
0.593239
10.0826
17.1028
21.401
23.1429
22.882
21.4806
19.9918
19.518
21.0648
25.4073
32.9875
43.8547
57.6559
73.6772
90.9287
108.263
124.507
138.601
149.709
157.304
161.216
161.626
159.025
154.133
147.797
140.873
134.122
128.113
123.167
119.323
116.359
113.832
111.161
107.718
102.926
96.3554
87.7867
77.256
65.0594
51.7232
37.9457
24.5153
12.2189
1.75189
-6.35951
-11.813
-14.557
-14.7858
-12.9078
-9.48868
-5.1806
-0.645813
3.51577
6.82608
8.96941
9.81052
9.38993
7.89903
5.63975
2.97525
0.278285
-2.11622
-3.94906
-5.06162
-5.40596
-5.04051
-4.11335
-2.83632
-1.45412
-0.212284
0.671843
1.03241
0.770396
-0.139722
-1.65195
-3.65815
-6.00306
-8.50286
-10.9647
-13.2053
-15.0665
-16.427
-17.2089
-17.3799
-16.9515
-15.9752
-14.5369
-12.7514
-10.7581
-8.71632
-6.80133
-5.19876
-4.09657
-3.67349
-4.08346
-5.43693
-7.78108
-11.0819
-15.2121
-19.9475
-24.9757
-29.917
-34.3567
-37.885
-40.1421
-40.8591
-39.8926
-37.2459
-33.0742
-27.6731
-21.4503
-14.8847
-8.47849
-2.70535
2.03661
5.46415
7.43615
7.96714
7.22656
5.52473
3.28693
1.01782
-0.741676
-1.46198
-0.673944
1.98436
6.72719
13.5911
22.4186
32.8592
44.3873
56.3383
67.9595
78.4715
87.1346
93.3135
96.5337
96.5221
93.2284
86.8237
77.6774
66.3156
53.3656
39.4957
25.3552
11.5241
-1.52493
-13.4474
-24.0316
-33.1875
-40.9251
-47.325
-52.5067
-56.5987
-59.7145
-61.9354
-63.3022
-63.815
-63.4408
-62.1268
-59.8167
-56.469
-52.073
-46.6613
-40.3171
-33.1737
-25.4067
-17.2177
-8.80648
-0.332921
8.13653
16.6959
25.6767
35.7237
47.8475
63.4259
84.1232
111.704
147.737
193.217
248.158
311.229
379.54
448.637
512.759
565.365
599.868
610.496
593.137
546.054
470.336
370.004
251.744
124.278
-2.53766
-118.783
-215.568
-286.007
-325.949
-334.369
-313.394
-267.941
-205.064
-133.058
-60.4823
4.80512
56.4666
90.2731
104.404
99.4422
78.0818
44.6164
4.27782
-37.4756
-75.6299
-106.166
-126.437
-135.332
-133.245
-121.854
-103.772
-82.1206
-60.0865
-40.5219
-25.6287
-16.7585
-14.3382
-17.9169
-26.3138
-37.8362
-50.5341
-62.4541
-71.8629
-77.419
-78.2766
-74.1207
-65.137
-51.9305
-35.4074
-16.6403
3.26561
23.2908
42.5916
60.5563
76.8255
91.2796
103.999
115.206
125.202
134.298
142.768
150.801
158.485
165.804
172.649
178.847
184.19
188.472
191.518
193.207
193.49
192.391
190.001
186.468
181.978
176.731
170.929
164.756
158.369
151.891
145.412
138.988
132.649
126.403
120.236
114.115
107.985
101.769
95.3703
88.667
81.5262
73.8132
65.4094
56.232
46.255
35.5267
24.1813
12.4428
0.61755
-10.9222
-21.7649
-31.4932
-39.721
-46.1295
-50.4994
-52.7332
-52.8675
-51.0707
-47.6282
-42.9163
-37.3667
-31.427
-25.5208
-20.0115
-15.1741
-11.1779
-8.08033
-5.83398
-4.30411
-3.29567
-2.58655
-1.96345
-1.25678
-0.37049
0.696973
1.84395
2.87139
3.50414
3.42644
2.32865
-0.0402954
-3.82122
-9.00152
-15.3874
-22.5974
-30.0798
-37.1546
-43.0752
-47.1047
-48.5969
-47.0718
-42.2774
-34.2284
-23.2175
-9.7976
5.26277
21.0461
36.566
50.8522
63.0316
72.3976
78.4619
80.9852
79.9854
75.7246
68.677
59.4817
48.8845
37.6734
26.6134
16.3842
7.52814
0.411549
-4.79625
-8.12318
-9.77469
-10.0961
-9.522
-8.51874
-7.52783
-6.91663
-6.94246
-7.73365
-9.28869
-11.4923
-14.1449
-16.9996
-19.8013
-22.3217
-24.3852
-25.883
-26.7745
-27.0779
-26.8529
-26.1803
-25.1432
-23.8131
-22.2447
-20.4783
-18.55
-16.5034
-14.4004
-12.3222
-10.3553
-8.55611
-6.89224
-5.16187
-2.90034
0.707849
6.88498
17.2516
33.7226
58.2879
92.6809
137.965
194.104
259.592
331.255
404.269
472.473
528.943
566.789
580.053
564.593
518.8
444.024
344.64
227.711
102.295
-21.53
-133.788
-225.721
-290.76
-325.208
-328.579
-303.521
-255.387
-191.489
-120.162
-49.7624
12.2733
60.1963
90.4535
101.895
95.6765
74.8948
44.0225
8.2291
-27.3161
-58.0741
-80.6254
-92.9726
-94.636
-86.5504
-70.7961
-50.2139
-27.9637
-7.08771
9.86603
21.1201
25.8177
24.0408
16.7073
5.37151
-8.03542
-21.4873
-33.1279
-41.4863
-45.6201
-45.1739
-40.3542
-31.8323
-20.5961
-7.77623
5.52516
18.3808
30.1401
40.4774
49.3861
57.125
64.1315
70.9181
77.9697
85.6578
94.1822
103.547
113.57
123.918
134.17
143.873
152.614
160.064
166.011
170.372
173.179
174.558
174.687
173.765
171.97
169.443
166.272
162.494
158.113
153.115
147.501
141.305
134.607
127.547
120.314
113.136
106.247
99.8675
94.1616
89.2131
84.9999
81.3837
78.1136
74.8466
71.1841
66.7199
61.0952
54.0524
45.4798
35.441
24.1838
12.1257
-0.18189
-12.107
-23.0017
-32.2691
-39.4255
-44.149
-46.3097
-45.9781
-43.4115
-39.0213
-33.3251
-26.8916
-20.284
-14.009
-8.4772
-3.97822
-0.671224
1.40906
2.33391
2.2536
1.36628
-0.112813
-1.97797
-4.05263
-6.20055
-8.32835
-10.3804
-12.3285
-14.1577
-15.853
-17.3871
-18.7133
-19.7626
-20.447
-20.6666
-20.32
-19.3155
-17.5825
-15.0797
-11.8001
-7.77234
-3.05825
2.25269
8.0504
14.2112
20.6036
27.0909
33.532
39.7785
45.6715
51.0387
55.694
59.4405
62.0787
63.4189
63.2967
61.5905
58.2377
53.2482
46.7128
38.8042
29.7712
19.926
9.62415
-0.758729
-10.8524
-20.3164
-28.8603
-36.2585
-42.3575
-47.0767
-50.4017
-52.3749
-53.0823
-52.6408
-51.187
-48.8677
-45.8349
-42.2416
-38.2413
-33.9864
-29.6278
-25.3125
-21.1789
-17.3509
-13.9296
-10.983
-8.53378
-6.54157
-4.87896
-3.29566
-1.37016
1.54749
6.38986
14.4017
27.1167
46.254
73.5157
110.288
157.275
214.126
279.125
349.034
419.149
483.608
535.933
569.761
579.657
561.895
515.087
440.542
342.314
226.887
102.559
-21.4192
-135.826
-232.448
-304.936
-349.424
-364.843
-352.915
-317.812
-265.575
-203.341
-138.501
-77.8956
-27.1257
9.93289
31.3786
37.2832
29.4644
11.0782
-13.9029
-41.2535
-67.0281
-88.003
-101.983
-107.947
-106.04
-97.4133
-83.9642
-68.0065
-51.925
-37.8568
-27.437
-21.6338
-20.6854
-24.1361
-30.9582
-39.7348
-48.877
-56.8431
-62.3328
-64.4351
-62.7136
-57.2258
-48.4773
-37.3236
-24.8337
-12.137
-0.272638
9.94089
17.9993
23.7617
27.4498
29.6008
30.9815
32.4745
34.9542
39.1668
45.6303
54.5663
65.8714
79.1294
93.6634
108.616
123.05
136.055
146.842
154.827
159.678
161.333
159.992
156.069
150.129
142.819
134.782
126.591
118.695
111.386
104.786
98.8623
93.451
88.3031
83.1289
77.6457
71.6186
64.8924
57.4111
49.2259
40.4897
31.4433
22.3915
13.6757
5.64269
-1.38673
-7.14653
-11.4503
-14.2097
-15.4447
-15.2841
-13.957
-11.773
-9.09543
-6.30799
-3.77926
-1.82843
-0.696243
-0.524341
-1.34524
-3.084
-5.5712
-8.56537
-11.7822
-14.927
-17.7263
-19.9556
-21.4598
-22.1647
-22.0797
-21.29
-19.943
-18.2273
-16.3507
-14.5153
-12.8961
-11.6226
-10.7658
-10.3326
-10.2674
-10.4603
-10.7617
-11.001
-11.0068
-10.626
-9.74065
-8.27861
-6.21882
-3.58974
-0.461874
3.06444
6.87431
10.8546
14.9095
18.9726
23.016
27.0533
31.1376
35.3536
39.8051
44.598
49.8201
55.5191
61.681
68.2107
74.9174
81.5085
87.5944
92.7063
96.3288
97.9459
97.0955
93.4288
86.7645
77.1308
64.7891
50.2316
34.1532
17.3988
0.890509
-14.4564
-27.8182
-38.5389
-46.1878
-50.5925
-51.8435
-50.271
-46.3982
-40.8772
-34.4164
-27.7078
-21.3632
-15.8645
-11.5334
-8.52148
-6.81893
-6.27807
-6.6463
-7.60058
-8.77562
-9.778
-10.18
-9.48989
-7.10122
-2.23008
6.14101
19.287
38.7023
65.9742
102.554
149.436
206.777
273.529
347.16
423.562
497.189
561.482
609.53
634.907
632.559
599.605
535.919
444.383
330.765
203.207
71.403
-54.4393
-164.714
-251.454
-309.168
-335.363
-330.708
-298.821
-245.724
-179.053
-107.126
-37.9926
21.4238
65.983
92.7341
101.033
92.3808
70.0293
38.4164
2.51715
-32.8047
-63.3674
-86.1013
-99.3005
-102.681
-97.2584
-85.0762
-68.8337
-51.4682
-35.7495
-23.9341
-17.5183
-17.1097
-22.423
-32.3884
-45.3485
-59.3112
-72.2239
-82.2309
-87.8872
-88.3039
-83.2151
-72.964
-58.4177
-40.8255
-21.6438
-2.35072
15.7272
31.5563
44.4913
54.3174
61.2383
65.8147
68.8662
71.3471
74.2166
78.3156
84.2667
92.4065
102.757
115.035
128.699
143.023
157.182
170.347
181.772
190.855
197.187
200.565
200.983
198.606
193.723
186.698
177.927
167.795
156.647
144.78
132.437
119.816
107.087
94.4032
81.9176
69.7873
58.1748
47.2412
37.1339
27.9725
19.834
12.7426
6.66464
1.51016
-2.85727
-6.60526
-9.91299
-12.9502
-15.8579
-18.7331
-21.6201
-24.509
-27.3415
-30.0224
-32.4363
-34.4641
-36.0006
-36.968
-37.3252
-37.0718
-36.2473
-34.9249
-33.2027
-31.1934
-29.0126
-26.7699
-24.5599
-22.458
-20.5168
-18.7666
-17.2165
-15.8573
-14.6653
-13.6057
-12.6365
-11.7113
-10.7815
-9.79832
-8.71336
-7.4782
-6.04395
-4.36049
-2.37678
-0.0426103
2.68754
5.84856
9.4573
13.5047
17.9489
22.7107
27.6728
32.6836
37.566
42.1293
46.1854
49.5642
52.1286
53.7858
54.4927
54.2555
53.1232
51.1755
48.5086
45.2193
41.3906
37.0814
32.3205
27.1055
21.4086
15.1861
8.39348
1.00192
-6.98356
-15.5082
-24.4554
-33.6407
-42.813
-51.6648
-59.8486
-67.0018
-72.7744
-76.8596
-79.023
-79.1272
-77.1501
-73.1926
-67.4755
-60.324
-52.1402
-43.365
-34.431
-25.7089
-17.4488
-9.71843
-2.33865
5.17829
13.679
24.3913
38.8967
59.028
86.6734
123.485
170.512
227.807
294.076
366.462
440.522
510.467
569.659
611.323
629.403
619.417
579.203
509.41
413.654
298.304
171.892
44.2303
-74.648
-175.595
-251.348
-297.3
-311.936
-296.901
-256.686
-198.005
-128.935
-57.9401
7.07859
59.6206
95.1947
111.651
109.212
90.2291
58.7014
19.6505
-21.572
-59.9511
-91.37
-113.009
-123.548
-123.168
-113.369
-96.6428
-76.0602
-54.8262
-35.8629
-21.4685
-13.0872
-11.2066
-15.3847
-24.3899
-36.4265
-49.4098
-61.2524
-70.1257
-74.6655
-74.1029
-68.3097
-57.7608
-43.4249
-26.604
-8.74542
8.74744
24.6818
38.2005
48.8547
56.6184
61.851
65.2152
67.5669
69.8307
72.8788
77.4259
83.9508
92.6519
103.437
115.946
129.604
143.687
157.406
169.985
180.737
189.117
194.764
197.515
197.398
194.606
189.458
182.349
173.703
163.926
153.376
142.342
131.042
119.632
108.219
96.8899
85.7246
74.8154
64.2733
54.2264
44.8121
36.1634
28.3931
21.5809
15.763
10.9291
7.02484
3.96059
1.62365
-0.108201
-1.35475
-2.22501
-2.81398
-3.20445
-3.47268
-3.69589
-3.95908
-4.3587
-5.00176
-5.99953
-7.45647
-9.45587
-12.0446
-15.2192
-18.9166
-23.0101
-27.3128
-31.589
-35.5713
-38.9837
-41.5669
-43.1052
-43.4504
-42.5404
-40.4117
-37.2004
-33.1342
-28.512
-23.6756
-18.9735
-14.7234
-11.1774
-8.49539
-6.73006
-5.82739
-5.64111
-5.95957
-6.54002
-7.14444
-7.57067
-7.6737
-7.37394
-6.65166
-5.52985
-4.0495
-2.24319
-0.112707
2.38411
5.33413
8.8566
13.0795
18.1085
23.9942
30.7027
38.0957
45.9237
53.8331
61.3893
68.111
73.5133
77.1547
78.6805
77.8608
74.6152
69.0244
61.3267
51.8984
41.2236
29.8529
18.3583
7.28681
-2.8829
-11.7764
-19.1498
-24.905
-29.0911
-31.8942
-33.6142
-34.6313
-35.3647
-36.2259
-37.5722
-39.6634
-42.6272
-46.4375
-50.9088
-55.7083
-60.3878
-64.4291
-67.3027
-68.5294
-67.7387
-64.715
-59.4241
-52.011
-42.7662
-32.0539
-20.2073
-7.39608
6.51271
22.0741
40.3265
62.7573
91.1434
127.257
172.46
227.246
290.804
360.723
432.901
501.74
560.634
602.697
621.655
612.755
573.56
504.485
408.991
293.372
166.17
37.2781
-83.1523
-185.839
-263.396
-311.12
-327.438
-313.967
-275.196
-217.84
-149.962
-79.9896
-15.7476
36.3715
72.0067
89.1404
88.107
71.3202
42.7751
7.40646
-29.6068
-63.4998
-90.4638
-108.016
-115.167
-112.382
-101.365
-84.704
-65.4375
-46.608
-30.8564
-20.1063
-15.3719
-16.7019
-23.2554
-33.4885
-45.4187
-56.9267
-66.0536
-71.2552
-71.5835
-66.7775
-57.2569
-44.0261
-28.5053
-12.3156
2.95301
15.9581
25.7796
32.0291
34.8828
35.0357
33.5852
31.8632
31.2416
32.9372
37.8453
46.4215
58.6271
73.9433
91.4497
109.953
128.147
144.785
158.829
169.575
176.719
180.37
181.006
179.376
176.381
172.923
169.779
167.484
166.269
166.035
166.384
166.694
166.219
164.213
160.046
153.305
143.859
131.891
117.878
102.542
86.7612
71.4672
57.5395
45.7059
36.4667
30.0473
26.3867
25.1579
25.8187
27.6838
30.008
32.0717
33.2569
33.1072
31.3658
27.9891
23.1372
17.1428
10.4653
3.63477
-2.80747
-8.36471
-12.6332
-15.338
-16.3541
-15.712
-13.5871
-10.2766
-6.16478
-1.68269
2.73539
6.69296
9.86645
12.0311
13.0752
13.0026
11.9223
10.0287
7.57415
4.83686
2.08934
-0.430361
-2.54098
-4.13201
-5.16838
-5.68595
-5.77926
-5.58361
-5.25414
-4.94477
-4.78966
-4.88911
-5.30134
-6.04045
-7.08002
-8.36136
-9.80443
-11.3199
-12.8201
-14.2282
-15.484
-16.5463
-17.3923
-18.015
-18.4184
-18.6133
-18.613
-18.4304
-18.0768
-17.562
-16.896
-16.0906
-15.1621
-14.1321
-13.0285
-11.8843
-10.7349
-9.61577
-8.55776
-7.58407
-6.70713
-5.9269
-5.23069
-4.59424
-3.9841
-3.36038
-2.67916
-1.8937
-0.953862
0.196363
1.62238
3.40225
5.62787
8.40242
11.833
16.0183
21.0329
26.9094
33.6226
41.0772
49.1026
57.456
65.8346
73.8942
81.2747
87.6276
92.6425
96.0709
97.7441
97.5834
95.6029
91.9051
86.6687
80.1325
72.5751
64.2938
55.5837
46.7196
37.9421
29.448
21.3864
13.8598
6.92871
0.618893
-5.06937
-10.1524
-14.6547
-18.602
-22.0161
-24.9108
-27.2908
-29.1504
-30.4747
-31.2417
-31.4242
-30.9927
-29.9147
-28.1499
-25.6341
-22.2481
-17.7672
-11.7926
-3.67474
7.55188
23.1899
44.8233
74.1555
112.731
161.558
220.686
288.816
363.041
438.803
510.121
570.115
611.755
628.766
616.537
572.896
498.619
397.576
276.478
144.242
11.0595
-112.713
-217.692
-296.48
-344.43
-360.057
-345.078
-304.066
-243.794
-172.357
-98.2026
-29.1824
28.2575
69.6565
92.8402
97.9273
87.0656
63.9536
33.2252
-0.215348
-31.8196
-57.9109
-76.0344
-85.1155
-85.4248
-78.3747
-66.1899
-51.5087
-36.9727
-24.8614
-16.8138
-13.6665
-15.4169
-21.3056
-29.9936
-39.8023
-48.9779
-55.9418
-59.4943
-58.9483
-54.1809
-45.6032
-34.0582
-20.6695
-6.6632
6.80885
18.8207
28.7806
36.4852
42.1165
46.187
49.4441
52.7496
56.9518
62.7666
70.6825
80.9001
93.3104
107.515
122.877
138.606
153.851
167.798
179.76
189.248
196.012
200.054
201.61
201.107
199.092
196.158
192.857
189.622
186.711
184.167
181.816
179.289
176.08
171.62
165.363
156.879
145.922
132.488
116.834
99.4676
81.1046
62.5973
44.8478
28.7144
14.9228
3.99392
-3.80271
-8.46696
-10.2549
-9.63811
-7.24248
-3.77405
0.0573209
3.60778
6.35517
7.93549
8.15814
7.00091
4.58796
1.15597
-2.98602
-7.49742
-12.043
-16.3227
-20.0921
-23.1742
-25.4619
-26.9144
-27.5485
-27.4273
-26.6482
-25.331
-23.6082
-21.6162
-19.4887
-17.3515
-15.3185
-13.4888
-11.9443
-10.7485
-9.94528
-9.55985
-9.59917
-10.0543
-10.9032
-12.1142
-13.6494
-15.468
-17.5275
-19.7843
-22.1915
-24.695
-27.2284
-29.7074
-32.0253
-34.0501
-35.6251
-36.5735
-36.7069
-35.8376
-33.7941
-30.4377
-25.6791
-19.4934
-11.9319
-3.12884
6.69648
17.2434
28.139
38.9533
49.2173
58.4474
66.171
71.9549
75.4346
76.3418
74.5289
69.9873
62.8577
53.4295
42.1278
29.4886
16.1233
2.67441
-10.2322
-22.0334
-32.2697
-40.6145
-46.8902
-51.0692
-53.2609
-53.6869
-52.648
-50.488
-47.5587
-44.1885
-40.6597
-37.1933
-33.9435
-30.9999
-28.395
-26.1163
-24.1207
-22.3487
-20.7373
-19.2299
-17.7811
-16.3497
-14.8783
-13.2518
-11.2327
-8.37793
-3.94826
3.16519
14.4647
31.7839
57.1096
92.2788
138.568
196.233
264.081
339.179
416.793
490.628
553.374
597.521
616.333
604.843
560.703
484.738
381.112
257.047
122.123
-12.7496
-136.552
-239.407
-313.684
-354.815
-361.727
-336.841
-285.645
-215.929
-136.781
-57.4906
13.5077
69.513
106.169
121.751
117.112
95.3325
61.1345
20.1484
-21.8545
-59.6741
-89.251
-108.038
-115.148
-111.275
-98.4304
-79.5384
-57.9585
-37.0027
-19.508
-7.51486
-2.07999
-3.23554
-10.0848
-21.0086
-33.9452
-46.7001
-57.2428
-63.9538
-65.7942
-62.3839
-53.987
-41.4169
-25.8791
-8.78143
8.4623
24.6083
38.7176
50.2383
59.0288
65.3282
69.683
72.8446
75.6544
78.9307
83.3707
89.4769
97.5118
107.483
119.155
132.087
145.682
159.253
172.082
183.487
192.87
199.762
203.848
204.981
203.177
198.605
191.559
182.425
171.645
159.68
146.975
133.931
120.885
108.1
95.7574
83.9684
72.7811
62.1971
52.1877
42.7102
33.7206
25.1833
17.0761
9.39189
2.13774
-4.66826
-10.9999
-16.8258
-22.1106
-26.8163
-30.9023
-34.3259
-37.0443
-39.0172
-40.2125
-40.612
-40.2192
-39.0652
-37.2141
-34.7643
-31.8473
-28.6207
-25.2587
-21.9387
-18.8271
-16.0643
-13.7523
-11.9458
-10.6474
-9.80856
-9.33569
-9.10078
-8.9556
-8.74766
-8.33611
-7.60595
-6.47872
-4.91874
-2.93419
-0.573075
2.08537
4.94265
7.89485
10.8464
13.7225
16.4773
19.0994
21.6106
24.0614
26.5222
29.0725
31.7887
34.7334
37.9451
41.4311
45.1603
49.0579
52.9996
56.8072
60.2461
63.0279
64.8206
65.2679
64.0192
60.7674
55.2914
47.4974
37.4511
25.3972
11.7592
-2.88083
-17.8212
-32.2953
-45.5355
-56.8388
-65.628
-71.501
-74.2638
-73.9431
-70.779
-65.1977
-57.7689
-49.1513
-40.0331
-31.073
-22.8475
-15.8096
-10.2609
-6.34093
-4.03026
-3.16697
-3.47079
-4.56926
-6.01915
-7.31686
-7.89349
-7.0935
-4.14137
1.89285
12.1117
27.7698
50.1923
80.6168
119.958
168.513
225.657
289.58
357.146
423.934
484.492
532.818
563.014
570.037
550.436
502.959
428.93
332.311
219.435
98.4221
-21.6434
-131.676
-223.566
-291.034
-330.278
-340.306
-322.947
-282.534
-225.316
-158.679
-90.2855
-27.2313
24.6713
61.4166
81.0796
83.8313
71.7114
48.2068
17.7025
-15.1198
-45.8573
-70.8728
-87.6418
-94.9344
-92.8274
-82.5618
-66.2795
-46.6798
-26.646
-8.88582
4.37344
11.6063
12.1111
6.02819
-5.73555
-21.6597
-39.8152
-58.0939
-74.4377
-87.0421
-94.5173
-95.9946
-91.1739
-80.3117
-64.1577
-43.8503
-20.7828
3.54206
27.6573
50.2613
70.32
87.1355
100.374
110.057
116.513
120.307
122.15
122.804
122.989
123.311
124.209
125.926
128.511
131.844
135.673
139.669
143.475
146.754
149.224
150.672
150.965
150.032
147.856
144.444
139.821
134.015
127.057
118.99
109.882
99.8357
89.001
77.5774
65.808
53.9665
42.3372
31.1923
20.7703
11.2578
2.77874
-4.60777
-10.9023
-16.1525
-20.4366
-23.8449
-26.4637
-28.3631
-29.5896
-30.1665
-30.0987
-29.3827
-28.0189
-26.0231
-23.4367
-20.3333
-16.8205
-13.0384
-9.15376
-5.35299
-1.83273
1.20971
3.58643
5.12907
5.69907
5.19765
3.57544
0.840881
-2.93334
-7.60677
-12.9717
-18.7584
-24.6458
-30.2773
-35.282
-39.2984
-42.0016
-43.1297
-42.5073
-40.0651
-35.8523
-30.0404
-22.9181
-14.8755
-6.38004
2.05708
9.92021
16.733
22.103
25.7634
27.608
27.7146
26.3525
23.9712
21.1673
18.6315
17.0781
17.1639
19.4056
24.1049
31.2918
40.6944
51.7417
63.6005
75.247
85.5642
93.4579
97.9751
98.4144
94.4114
85.9895
73.5689
57.9312
40.1443
21.4552
3.16471
-13.5026
-27.5157
-38.1306
-44.9479
-47.9312
-47.3832
-43.8878
-38.2238
-31.2642
-23.8724
-16.81
-10.6639
-5.80245
-2.36359
-0.273174
0.709236
0.925839
0.746675
0.497287
0.398702
0.529214
0.815364
1.05693
0.987724
0.370394
-0.881429
-2.56703
-4.07003
-4.26673
-1.50552
6.31066
21.518
46.3617
82.5716
130.9
190.704
259.661
333.702
407.209
473.485
525.467
556.579
561.614
537.514
483.917
403.389
301.276
185.21
64.3057
-51.8336
-154.172
-235.226
-289.844
-315.693
-313.402
-286.344
-240.121
-181.802
-119.052
-59.2387
-8.64137
28.1508
48.5985
52.3002
40.8238
17.3234
-13.991
-48.4566
-81.5525
-109.418
-129.241
-139.483
-139.929
-131.58
-116.406
-97.0112
-76.2552
-56.8782
-41.1773
-30.7645
-26.4279
-28.1036
-34.951
-45.5153
-57.9495
-70.2662
-80.5876
-87.3635
-89.5353
-86.6283
-78.7688
-66.6262
-51.2945
-34.1301
-16.5686
0.0540278
14.6565
26.5238
35.3661
41.3207
44.9009
46.9014
48.275
49.9983
52.9421
57.7639
64.8323
74.1925
85.5732
98.431
112.026
125.516
138.055
148.891
157.436
163.322
166.414
166.808
164.785
160.756
155.19
148.547
141.214
133.465
125.437
117.141
108.49
99.3392
89.5484
79.0307
67.7988
55.9922
43.8835
31.8629
20.4018
10.0028
1.14172
-5.79056
-10.5368
-13.0077
-13.297
-11.6744
-8.55849
-4.47287
0.00941223
4.32564
7.98055
10.594
11.934
11.9322
10.6789
8.40191
5.4278
2.13478
-1.09988
-3.9496
-6.17959
-7.67383
-8.44467
-8.62394
-8.43722
-8.16525
-8.09799
-8.48815
-9.51063
-11.2336
-13.605
-16.4566
-19.5246
-22.4843
-24.9942
-26.7438
-27.498
-27.1331
-25.6583
-23.2207
-20.0913
-16.6358
-13.2712
-10.4167
-8.44202
-7.62269
-8.1058
-9.89165
-12.833
-16.6518
-20.9711
-25.3583
-29.373
-32.6153
-34.7667
-35.6211
-35.1
-33.2542
-30.2489
-26.3382
-21.8306
-17.0503
-12.3003
-7.83013
-3.8124
-0.329238
2.62973
5.15925
7.42156
9.62316
11.9883
14.7316
18.0337
22.0205
26.7498
32.2039
38.2901
44.8463
51.653
58.448
64.9444
70.8493
75.8835
79.7993
82.397
83.5382
83.1544
81.2514
77.9079
73.2679
67.528
60.9197
53.6891
46.0752
38.2912
30.5093
22.8519
15.3907
8.15186
1.128
-5.70666
-12.3795
-18.9035
-25.2648
-31.4136
-37.2612
-42.6819
-47.5199
-51.6013
-54.7487
-56.799
-57.6202
-57.1275
-55.295
-52.1614
-47.8284
-42.4501
-36.2118
-29.2993
-21.8571
-13.9352
-5.42804
3.99344
14.9436
28.3636
45.5183
67.9229
97.1794
134.714
181.433
237.34
301.184
370.217
440.147
505.329
559.224
595.079
606.755
589.584
541.123
461.685
354.55
225.806
83.8263
-61.5539
-200.054
-322.036
-419.508
-486.932
-521.725
-524.415
-498.425
-449.557
-385.225
-313.562
-242.506
-178.981
-128.252
-93.5305
-75.8419
-74.1551
-85.7356
-106.656
-132.39
-158.415
-180.742
-196.328
-203.33
-201.177
-190.495
-172.881
-150.596
-126.205
-102.224
-80.8162
-63.5611
-51.3285
-44.2528
-41.8027
-42.9266
-46.248
-50.2791
-53.6264
-55.1617
-54.1417
-50.2667
-43.6767
-34.8914
-24.7075
-14.0679
-3.92311
4.89908
11.8
16.4802
18.9682
19.6055
18.9928
17.9064
17.1967
17.682
20.0524
24.7924
32.1325
42.0318
54.1917
68.0972
83.0766
98.3746
113.225
126.918
138.858
148.594
155.842
160.483
162.542
162.159
159.556
154.993
148.741
141.054
132.157
122.243
111.483
100.038
88.0833
75.8171
63.4765
51.3371
39.7042
28.8955
19.2156
10.928
4.22721
-0.782873
-4.1027
-5.83933
-6.19726
-5.45871
-3.95608
-2.03991
-0.0465842
1.73052
3.06326
3.80221
3.88066
3.30954
2.16496
0.570489
-1.32287
-3.35662
-5.38219
-7.27441
-8.93997
-10.3211
-11.3948
-12.1686
-12.6741
-12.9597
-13.0828
-13.1027
-13.0753
-13.0476
-13.0552
-13.1194
-13.2471
-13.4309
-13.6505
-13.8757
-14.0696
-14.1927
-14.2073
-14.0806
-13.7883
-13.3157
-12.6584
-11.821
-10.815
-9.65479
-8.3546
-6.92365
-5.36259
-3.66021
-1.79134
0.283792
2.61807
5.27374
8.31613
11.8052
15.7854
20.2755
25.2583
30.6728
36.4091
42.3075
48.1619
53.7283
58.7382
62.9152
65.994
67.7408
67.971
66.5652
63.4792
58.7495
52.4916
44.8932
36.2018
26.7084
16.7288
6.58423
-3.41754
-12.9979
-21.9195
-29.9942
-37.0859
-43.1089
-48.0232
-51.8272
-54.5499
-56.2428
-56.9735
-56.8206
-55.8701
-54.2136
-51.947
-49.1695
-45.982
-42.4852
-38.7762
-34.9448
-31.0676
-27.2007
-23.3685
-19.5469
-15.6366
-11.4251
-6.53335
-0.35444
8.00675
19.77
36.4647
59.8319
91.6243
133.301
185.644
248.355
319.713
396.382
473.44
544.679
603.171
642.039
655.34
638.925
591.143
513.27
409.575
287.015
154.564
22.2804
-99.7771
-202.642
-279.392
-325.849
-340.935
-326.661
-287.75
-230.974
-164.281
-95.8473
-33.1611
17.744
52.8288
70.3126
70.6511
56.2542
30.9991
-0.383387
-32.965
-62.2367
-84.6135
-97.779
-100.843
-94.3085
-79.8788
-60.1285
-38.1057
-16.9095
0.700149
12.6179
17.6022
15.3625
6.52538
-7.50684
-24.7786
-43.0516
-60.0879
-73.9103
-83.0129
-86.4995
-84.1399
-76.343
-64.0557
-48.6053
-31.5075
-14.2658
1.8124
15.762
27.0519
35.6148
41.8155
46.3636
50.1873
54.2857
59.5791
66.7797
76.2956
88.1806
102.134
117.548
133.589
149.315
163.783
176.169
185.848
192.447
195.865
196.247
193.928
189.368
183.069
175.501
167.055
158.006
148.517
138.656
128.439
117.876
107.015
95.9717
84.9446
74.203
64.0597
54.8288
46.7795
40.0929
34.8324
30.9299
28.1929
26.3297
24.9877
23.8011
22.4378
20.6398
18.2525
15.2372
11.6685
7.71551
3.61285
-0.376162
-3.99704
-7.03829
-9.35788
-10.8991
-11.6947
-11.8595
-11.5736
-11.0579
-10.5471
-10.2614
-10.3832
-11.0381
-12.2844
-14.1107
-16.4405
-19.1434
-22.0497
-24.9672
-27.6975
-30.0504
-31.8549
-32.9676
-33.2778
-32.7119
-31.2359
-28.8595
-25.6405
-21.6893
-17.1735
-12.3184
-7.40348
-2.75215
1.28675
4.36485
6.16634
6.44308
5.04862
1.96626
-2.67362
-8.59069
-15.3682
-22.4832
-29.3502
-35.375
-40.0115
-42.815
-43.486
-41.8981
-38.1082
-32.3462
-24.9871
-16.5086
-7.43983
1.69307
10.4178
18.358
25.2626
31.0193
35.6531
39.3092
42.2236
44.6849
46.9905
49.4024
52.1068
55.1814
58.574
62.0956
65.4297
68.1575
69.7989
69.8654
67.919
63.6327
56.843
47.5883
36.1265
22.9291
8.64934
-5.93154
-19.9752
-32.6657
-43.2877
-51.2942
-56.3547
-58.3791
-57.5132
-54.1104
-48.6826
-41.8391
-34.2241
-26.4588
-19.0958
-12.589
-7.27775
-3.38295
-1.00958
-0.151105
-0.690202
-2.39212
-4.8875
-7.64279
-9.91828
-10.7186
-8.74745
-2.38823
10.2609
31.2659
62.6285
105.949
162.008
230.335
308.845
393.64
479.074
558.099
622.919
665.86
680.365
661.949
608.97
523.084
409.292
275.549
131.987
-10.164
-139.81
-247.209
-325.03
-369.088
-378.71
-356.651
-308.629
-242.523
-167.368
-92.2722
-25.3967
26.8787
60.5213
74.0897
68.6538
47.4233
15.1557
-22.5694
-60.1098
-92.4596
-115.809
-127.906
-128.201
-117.756
-98.9776
-75.1879
-50.1265
-27.433
-10.1827
-0.526136
0.529162
-6.82199
-21.2781
-40.6588
-62.2275
-83.0606
-100.414
-112.041
-116.426
-112.91
-101.705
-83.7973
-60.7782
-34.6083
-7.36946
18.9742
42.7753
62.8441
78.5201
89.6756
96.6582
100.187
101.224
100.832
100.042
99.7517
100.641
103.136
107.396
113.34
120.689
129.024
137.85
146.651
154.946
162.322
168.458
173.127
176.194
177.6
177.337
175.43
171.922
166.86
160.298
152.3
142.953
132.383
120.76
108.311
95.3138
82.0858
68.9647
56.2824
44.3369
33.3658
23.5252
14.8785
7.39578
0.965727
-4.58327
-9.45432
-13.8507
-17.9465
-21.8627
-25.6535
-29.3029
-32.7323
-35.8178
-38.4127
-40.3741
-41.5865
-41.9813
-41.5489
-40.3412
-38.4659
-36.0733
-33.3375
-30.4359
-27.5295
-24.746
-22.1698
-19.837
-17.7388
-15.8289
-14.0361
-12.2786
-10.477
-8.56705
-6.50694
-4.28154
-1.90181
0.599511
3.17505
5.77142
8.33814
10.8355
13.2407
15.5513
17.7859
19.9825
22.1938
24.4805
26.9036
29.5151
32.3481
35.407
38.6582
42.0222
45.3685
48.5154
51.2343
53.2612
54.3132
54.1103
52.3995
48.9795
43.7226
36.5925
27.6554
17.0834
5.15101
-7.77562
-21.2559
-34.7962
-47.8749
-59.9688
-70.581
-79.2674
-85.6622
-89.4999
-90.6334
-89.0465
-84.8599
-78.3286
-69.8313
-59.8522
-48.9542
-37.7471
-26.8511
-16.8592
-8.29934
-1.59978
2.94163
5.18253
5.15587
3.086
-0.595463
-5.2297
-9.90349
-13.4168
-14.2555
-10.5917
-0.339285
18.7016
48.5941
90.9094
146.304
214.099
291.946
375.687
459.466
536.149
598.009
637.621
648.833
627.678
573.07
487.169
375.347
245.737
108.408
-25.7098
-146.027
-243.458
-311.39
-346.345
-348.251
-320.311
-268.483
-200.676
-125.753
-52.4894
11.3896
59.9877
89.7397
99.6056
90.9538
67.1718
33.075
-5.80164
-43.9328
-76.4655
-99.7413
-111.63
-111.647
-100.868
-81.6577
-57.265
-31.3498
-7.49297
11.2437
22.6611
25.6365
20.1903
7.40952
-10.7524
-31.7672
-52.8719
-71.4148
-85.1632
-92.5393
-92.7609
-85.8754
-72.6912
-54.6216
-33.4659
-11.161
10.4648
29.903
46.1183
58.6278
67.5024
73.2965
76.9217
79.4843
82.113
85.7981
91.2642
98.8885
108.672
120.265
133.033
146.159
158.759
170.001
179.202
185.905
189.915
191.303
190.368
187.584
183.511
178.717
173.691
168.782
164.152
159.764
155.398
150.687
145.187
138.445
130.079
119.846
107.696
93.7944
78.5239
62.4548
46.2908
30.797
16.72
4.70953
-4.74873
-11.3809
-15.1479
-16.2418
-15.0568
-12.1393
-8.12408
-3.66483
0.633248
4.27007
6.89152
8.3105
8.50763
7.61296
5.87265
3.60583
1.15759
-1.14605
-3.03609
-4.32767
-4.93422
-4.86837
-4.23062
-3.18859
-1.95009
-0.733982
0.257444
0.86131
0.969888
0.537977
-0.418139
-1.82914
-3.5866
-5.55991
-7.61367
-9.62292
-11.4846
-13.1242
-14.4967
-15.584
-16.3883
-16.9241
-17.2103
-17.2637
-17.0952
-16.7085
-16.1022
-15.2736
-14.2238
-12.963
-11.5143
-9.91626
-8.22203
-6.4969
-4.81308
-3.24324
-1.85362
-0.697521
0.189596
0.792926
1.11866
1.19196
1.05304
0.752142
0.344191
-0.115966
-0.577189
-0.994185
-1.32817
-1.54635
-1.62068
-1.5266
-1.24218
-0.748119
-0.0287365
0.926379
2.1204
3.54768
5.19306
7.03256
9.03541
11.1671
13.393
15.6809
18.003
20.3353
22.6553
24.9376
27.149
29.2431
31.1569
32.8085
34.098
34.9108
35.1233
34.61
33.2521
30.9467
27.6155
23.2143
17.7406
11.2397
3.80892
-4.40235
-13.1956
-22.3313
-31.5404
-40.54
-49.0506
-56.8147
-63.6134
-69.2805
-73.712
-76.8695
-78.778
-79.5175
-79.2097
-78.0017
-76.0477
-73.4912
-70.4466
-66.9816
-63.095
-58.689
-53.529
-47.1925
-39.0114
-28.0205
-12.9375
7.79725
35.8926
72.9734
120.249
178.119
245.787
320.961
399.733
476.706
545.39
598.856
630.561
635.233
609.685
553.414
468.889
361.458
238.887
110.566
-13.4996
-123.78
-212.259
-273.273
-304.057
-304.927
-279.105
-232.208
-171.488
-104.931
-40.3286
15.5621
57.6736
83.0366
90.9091
82.635
61.2714
31.0505
-3.24451
-36.9061
-65.8557
-87.063
-98.7958
-100.685
-93.6204
-79.4992
-60.8866
-40.6252
-21.455
-5.68401
5.05446
9.93875
8.98454
2.96778
-6.7356
-18.366
-30.0214
-39.8939
-46.4732
-48.698
-46.0428
-38.5346
-26.7062
-11.4959
5.88926
24.1279
41.937
58.2059
72.0973
83.1083
91.0876
96.2119
98.9285
99.8752
99.7879
99.41
99.4128
100.335
102.545
106.229
111.399
117.919
125.539
133.94
142.762
151.645
160.243
168.235
175.325
181.241
185.723
188.523
189.403
188.153
184.605
178.663
170.327
159.718
147.087
132.813
117.385
101.371
85.3687
69.9587
55.6571
42.8737
31.8848
22.8209
15.6707
10.2994
6.47793
3.91823
2.31041
1.35628
0.796091
0.425859
0.104613
-0.247972
-0.661506
-1.12952
-1.62558
-2.11778
-2.5792
-2.99313
-3.35283
-3.65697
-3.90275
-4.07923
-4.16302
-4.11838
-3.90216
-3.4732
-2.80472
-1.89698
-0.787803
0.441634
1.6676
2.73187
3.45667
3.6651
3.20449
1.96985
-0.0758182
-2.88722
-6.33094
-10.1895
-14.1757
-17.9572
-21.1887
-23.5496
-24.7834
-24.7336
-23.3718
-20.8141
-17.3206
-13.2784
-9.16739
-5.51259
-2.82755
-1.5564
-2.02119
-4.38164
-8.61232
-14.5003
-21.6638
-29.5889
-37.6801
-45.3189
-51.922
-56.9944
-60.17
-61.2372
-60.1457
-56.9971
-52.0203
-45.5357
-37.914
-29.5349
-20.7506
-11.8578
-3.08176
5.42811
13.5912
21.3797
28.7958
35.8469
42.5204
48.7632
54.4679
59.4676
63.5429
66.4382
67.8888
67.6532
65.5487
61.4836
55.4822
47.6981
38.413
28.0213
17.0003
5.87143
-4.84528
-14.6752
-23.2284
-30.2282
-35.5266
-39.106
-41.0666
-41.6044
-40.9811
-39.4922
-37.4356
-35.0845
-32.6668
-30.351
-28.24
-26.3715
-24.7257
-23.2397
-21.827
-20.4013
-18.901
-17.3086
-15.6604
-14.0361
-12.5255
-11.1652
-9.85038
-8.22828
-5.59361
-0.811189
7.70114
21.8973
43.9113
75.7445
118.853
173.69
239.281
312.94
390.191
464.989
530.233
578.532
603.137
598.888
563.043
495.834
400.664
283.881
154.181
21.6724
-103.226
-210.943
-293.791
-346.765
-367.994
-358.819
-323.488
-268.528
-201.897
-132.013
-66.802
-12.8633
25.1465
44.8595
46.2491
31.4071
4.09247
-30.8728
-68.2784
-103.183
-131.476
-150.292
-158.229
-155.375
-143.15
-123.996
-100.978
-77.339
-56.076
-39.5833
-29.4045
-26.1095
-29.305
-37.763
-49.6428
-62.7716
-74.9438
-84.2007
-89.0591
-88.6636
-82.8507
-72.1233
-57.5461
-40.5804
-22.8824
-6.09208
8.36198
19.4206
26.4985
29.5264
28.9313
25.5588
20.5515
15.1991
10.7803
8.4138
8.93713
12.8237
20.1473
30.5934
43.5151
58.0221
73.0918
87.6883
100.874
111.901
120.278
125.795
128.523
128.773
127.035
123.899
119.969
115.788
111.769
108.157
105.008
102.203
99.4747
96.4652
92.7849
88.0783
82.0828
74.6734
65.8887
55.9341
45.1635
34.0415
23.0917
12.8385
3.75027
-3.80926
-9.61451
-13.594
-15.8269
-16.5223
-15.9848
-14.5721
-12.6501
-10.5527
-8.54928
-6.8244
-5.47153
-4.4992
-3.84853
-3.41819
-3.09275
-2.77002
-2.38344
-1.91656
-1.40784
-0.94564
-0.654557
-0.675572
-1.14312
-2.16261
-3.79154
-6.02699
-8.80087
-11.9835
-15.3947
-18.821
-22.0358
-24.8212
-26.9868
-28.3861
-28.9256
-28.5693
-27.3356
-25.2905
-22.5354
-19.194
-15.3994
-11.282
-6.96135
-2.54106
1.89264
6.26944
10.5317
14.6307
18.5232
22.1682
25.5259
28.5546
31.2092
33.4377
35.1774
36.351
36.8641
36.605
35.4481
33.2612
29.9172
25.3093
19.3675
12.0758
3.48702
-6.26698
-16.9706
-28.3273
-39.9697
-51.4776
-62.4008
-72.2882
-80.7172
-87.324
-91.8303
-94.0649
-93.9778
-91.6452
-87.2663
-81.1497
-73.6934
-65.3578
-56.6357
-48.0194
-39.9692
-32.8828
-27.0668
-22.7123
-19.8735
-18.4506
-18.1785
-18.6196
-19.1614
-19.0144
-17.2095
-12.593
-3.82617
10.5983
32.2987
62.8828
103.743
155.769
219
292.275
372.963
456.841
538.207
610.259
665.724
697.68
700.466
670.539
607.145
512.682
392.677
255.362
110.887
-29.7359
-155.818
-258.151
-329.992
-367.741
-371.238
-343.652
-290.981
-221.253
-143.526
-66.8305
0.81634
53.2169
86.5239
99.459
93.2125
71.0633
37.7863
-1.06186
-39.8832
-73.7118
-98.7456
-112.683
-114.847
-106.09
-88.5335
-65.1684
-39.3957
-14.5633
6.44061
21.4953
29.4276
30.0571
24.1141
13.057
-1.18058
-16.4722
-30.7741
-42.3618
-50.0031
-53.0536
-51.4731
-45.7669
-36.87
-25.9893
-14.43
-3.42444
6.01639
13.213
17.8803
20.1385
20.4733
19.6525
18.611
18.3191
19.6516
23.2726
29.5514
38.5177
49.8614
62.9739
77.0253
91.0654
104.135
115.372
124.102
129.901
132.623
132.395
129.58
124.707
118.396
111.265
103.855
96.5624
89.6011
82.9962
76.6042
70.16
63.3426
55.8464
47.4493
38.0667
27.7829
16.8567
5.70024
-5.16459
-15.1664
-23.7518
-30.4504
-34.9302
-37.0347
-36.7994
-34.4451
-30.3513
-25.0132
-18.9887
-12.8423
-7.09281
-2.1695
1.61792
4.0943
5.21867
5.07009
3.82296
1.71568
-0.982683
-4.00359
-7.10432
-10.085
-12.796
-15.1369
-17.0475
-18.4951
-19.4598
-19.9219
-19.8534
-19.2153
-17.9609
-16.0444
-13.4337
-10.1235
-6.14794
-1.58813
3.4248
8.71398
14.0672
19.2525
24.0373
28.2088
31.5928
34.0698
35.5851
36.1527
35.8525
34.8181
33.2197
31.2403
29.0499
26.7799
24.5027
22.2178
19.8497
17.2562
14.2484
10.6197
6.17917
0.786146
-5.62035
-13.0005
-21.2042
-29.9753
-38.9677
-47.773
-55.9561
-63.0937
-68.8143
-72.832
-74.974
-75.1963
-73.5879
-70.3618
-65.8351
-60.3989
-54.4833
-48.519
-42.9022
-37.9625
-33.94
-30.9691
-29.0703
-28.148
-27.9883
-28.2556
-28.4786
-28.0249
-26.0628
-21.5186
-13.0469
0.960725
22.298
52.7722
93.9293
146.693
210.968
285.271
366.503
449.91
529.32
597.645
647.617
672.669
667.831
630.505
561
462.717
341.961
207.372
69.0524
-62.4915
-177.474
-267.857
-328.172
-356.012
-352.177
-320.43
-266.945
-199.498
-126.537
-56.2258
4.40261
50.1072
77.8409
86.87
78.6192
56.2839
24.2771
-12.411
-48.8525
-80.7473
-104.852
-119.235
-123.344
-117.901
-104.656
-86.0403
-64.7883
-43.5638
-24.6476
-9.7134
0.290282
5.15112
5.31073
1.71272
-4.38891
-11.6304
-18.7204
-24.5824
-28.4455
-29.881
-28.7881
-25.3407
-19.9093
-12.9731
-5.03577
3.4451
12.1069
20.7087
29.1358
37.3869
45.5492
53.7675
62.2122
71.0506
80.4239
90.4296
101.111
112.454
124.38
136.755
149.389
162.046
174.448
186.281
197.21
206.88
214.932
221.013
224.789
225.971
224.335
219.751
212.206
201.827
188.89
173.821
157.174
139.598
121.784
104.408
88.072
73.2399
60.2024
49.0517
39.6844
31.8283
25.0903
19.0188
13.1719
7.18218
0.808366
-6.03245
-13.2556
-20.6235
-27.7806
-34.3041
-39.7618
-43.7703
-46.0458
-46.4411
-44.9659
-41.7871
-37.2129
-31.661
-25.6178
-19.5929
-14.0749
-9.49122
-6.17688
-4.35171
-4.10802
-5.40777
-8.08921
-11.8819
-16.4295
-21.3188
-26.1125
-30.3848
-33.7549
-35.9171
-36.6634
-35.897
-33.6354
-30.0023
-25.2096
-19.5326
-13.2795
-6.76038
-0.25775
5.99679
11.8387
17.1774
21.9941
26.3311
30.2757
33.9392
37.4361
40.8646
44.2899
47.7335
51.1664
54.5081
57.6303
60.3636
62.5079
63.8449
64.1527
63.2226
60.8773
56.9901
51.5048
44.4532
35.9691
26.2951
15.7813
4.87219
-5.91675
-16.0344
-24.9375
-32.1397
-37.2606
-40.069
-40.5146
-38.7425
-35.087
-30.0443
-24.2256
-18.2964
-12.9071
-8.62669
-5.88453
-4.9296
-5.81128
-8.38333
-12.3296
-17.2069
-22.4978
-27.6657
-32.2031
-35.6644
-37.6773
-37.9257
-36.1033
-31.8419
-24.6237
-13.7007
1.95093
23.6083
52.6822
90.4871
137.911
195.031
260.736
332.456
406.073
476.082
536.022
579.151
599.28
591.649
553.711
485.686
390.783
275.051
146.836
15.9329
-107.468
-213.903
-295.674
-347.666
-367.842
-357.369
-320.356
-263.265
-194.071
-121.3
-53.0535
3.84522
44.5029
66.3296
69.1178
54.8371
27.1945
-8.9668
-48.3437
-85.8366
-117.12
-139.064
-149.964
-149.584
-139.016
-120.394
-96.5234
-70.471
-45.1677
-23.0799
-5.97331
5.20941
10.3569
10.0954
5.61669
-1.5419
-9.73292
-17.4188
-23.3511
-26.6911
-27.0638
-24.544
-19.5843
-12.8986
-5.32087
2.34127
9.43663
15.5683
20.6467
24.8933
28.7953
33.0203
38.3045
45.3308
54.6144
66.4124
80.669
97.0032
114.74
132.981
150.697
166.846
180.482
190.852
197.472
200.167
199.073
194.607
187.407
178.248
167.956
157.308
146.96
137.379
128.816
121.295
114.643
108.533
102.551
96.2712
89.324
81.4585
72.5817
62.7763
52.2917
41.5133
30.9129
20.9889
12.2047
4.93239
-0.589135
-4.27918
-6.2194
-6.63843
-5.88002
-4.35947
-2.51459
-0.757393
0.567869
1.21563
1.05635
0.0791774
-1.6191
-3.85641
-6.39552
-8.97793
-11.357
-13.3272
-14.7453
-15.5426
-15.7262
-15.3709
-14.601
-13.5674
-12.4212
-11.2897
-10.2565
-9.35103
-8.54699
-7.77198
-6.92546
-5.90287
-4.62185
-3.04618
-1.20341
0.807113
2.81783
4.60812
5.92946
6.53729
6.22505
4.85578
2.38652
-1.11793
-5.48414
-10.4424
-15.6507
-20.7285
-25.2941
-29.0032
-31.583
-32.8574
-32.7615
-31.344
-28.7562
-25.2322
-21.0603
-16.5515
-12.007
-7.68956
-3.80155
-0.470283
2.25672
4.40772
6.07479
7.3957
8.53219
9.64713
10.8832
12.3455
14.0895
16.1161
18.3744
20.7704
23.1829
25.4808
27.5422
29.2689
30.5955
31.4903
31.9482
31.9777
31.5856
30.7625
29.4736
27.6578
25.2353
22.1234
18.2568
13.6108
8.2197
2.19028
-4.29557
-10.9882
-17.5881
-23.7719
-29.2232
-33.665
-36.8887
-38.7763
-39.3134
-38.5911
-36.7962
-34.1911
-31.0858
-27.8046
-24.6524
-21.8812
-19.6614
-18.0563
-16.9979
-16.2619
-15.438
-13.8947
-10.7436
-4.812
5.35579
21.447
45.2549
78.4644
122.351
177.421
243.044
317.155
396.102
474.718
546.645
604.913
642.721
654.31
635.811
585.926
506.325
401.679
279.318
148.513
19.5131
-97.5733
-193.886
-262.767
-300.449
-306.381
-283.169
-236.156
-172.694
-101.224
-30.2824
32.4464
80.9093
111.223
121.917
113.882
90.0372
54.8033
13.4379
-28.6604
-66.5988
-96.513
-115.916
-123.847
-120.822
-108.617
-89.9108
-67.8703
-45.7077
-26.2836
-11.7916
-3.55757
-1.96377
-6.49714
-15.9013
-28.4043
-41.9859
-54.6491
-64.6613
-70.7396
-72.1634
-68.8058
-61.0895
-49.8779
-36.3208
-21.6795
-7.15411
6.26425
17.8984
27.4376
34.935
40.7547
45.4802
49.8007
54.3925
59.8126
66.4197
74.3304
83.4153
93.3313
103.584
113.605
122.839
130.816
137.205
141.847
144.751
146.074
146.072
145.051
143.306
141.084
138.541
135.734
132.624
129.088
124.95
120.012
114.088
107.035
98.7781
89.3238
78.7728
67.3174
55.2334
42.8633
30.594
18.8298
7.9634
-1.65289
-9.73226
-16.0734
-20.5728
-23.2282
-24.1338
-23.4662
-21.4657
-18.412
-14.6003
-10.3179
-5.82562
-1.34461
2.95014
6.92986
10.5066
13.624
16.2464
18.3477
19.9035
20.8853
21.2607
20.9967
20.0683
18.4685
16.2205
13.3879
10.0809
6.45811
2.71938
-0.908358
-4.19332
-6.92656
-8.95177
-10.1925
-10.6719
-10.5204
-9.96898
-9.32568
-8.93984
-9.15632
-10.2674
-12.469
-15.8284
-20.2678
-25.5679
-31.3893
-37.3086
-42.8646
-47.605
-51.1293
-53.1214
-53.3698
-51.7747
-48.344
-43.1815
-36.471
-28.4591
-19.438
-9.73177
0.317602
10.3615
20.0569
29.0781
37.1297
43.9585
49.3633
53.2019
55.3931
55.9137
54.792
52.0976
47.9318
42.4183
35.6977
27.9239
19.2649
9.90449
0.044832
-10.0912
-20.2603
-30.2015
-39.6421
-48.3071
-55.9317
-62.2759
-67.1399
-70.3793
-71.918
-71.7567
-69.977
-66.7388
-62.271
-56.8576
-50.8181
-44.4861
-38.1869
-32.2148
-26.8135
-22.1571
-18.3333
-15.3255
-12.9937
-11.049
-9.02072
-6.21746
-1.68593
5.81699
17.8181
36.0614
62.3566
98.3329
145.107
202.904
270.701
345.965
424.574
500.976
568.612
620.567
650.384
652.928
625.167
566.743
480.231
371.041
246.947
117.302
-7.95744
-119.393
-209.084
-271.461
-303.845
-306.628
-283.094
-238.909
-181.346
-118.385
-57.7617
-6.12277
31.6443
52.8207
56.9802
45.8296
22.807
-7.49582
-40.0041
-69.8328
-92.8809
-106.28
-108.652
-100.165
-82.3862
-57.9809
-30.2916
-2.87032
20.9796
38.5961
48.2408
49.2465
42.022
27.9249
9.02896
-12.1766
-33.1142
-51.4291
-65.2471
-73.3543
-75.2803
-71.2863
-62.2647
-49.5707
-34.8119
-19.6237
-5.45946
6.58074
15.8634
22.2679
26.1629
28.3204
29.7816
31.694
35.1419
40.9929
49.7792
61.6268
76.2405
92.9432
110.762
128.546
145.108
159.354
170.401
177.67
180.924
180.273
176.138
169.175
160.181
149.99
139.367
128.931
119.095
110.046
101.757
94.0233
86.5361
78.952
70.971
62.401
53.2008
43.498
33.5784
23.8506
14.7913
6.88001
0.532747
-3.95645
-6.458
-7.02811
-5.90662
-3.4921
-0.297857
3.10504
6.15052
8.3381
9.2842
8.75844
6.70147
3.22303
-1.41823
-6.84997
-12.6314
-18.3027
-23.4329
-27.6617
-30.7296
-32.4959
-32.9426
-32.1653
-30.3535
-27.7629
-24.6841
-21.411
-18.212
-15.3074
-12.8548
-10.9421
-9.58966
-8.75911
-8.36761
-8.30503
-8.45176
-8.69495
-8.94118
-9.12454
-9.20945
-9.18852
-9.07616
-8.89945
-8.68765
-8.46207
-8.22747
-7.96585
-7.63275
-7.15636
-6.43903
-5.36153
-3.79009
-1.58651
1.37897
5.2125
9.98072
15.6957
22.3034
29.6767
37.6166
45.8603
54.0971
61.9912
69.208
75.442
80.4421
84.0319
86.1216
86.7105
85.8794
83.7737
80.5802
76.5007
71.7275
66.4233
60.7097
54.6659
48.3353
41.7414
34.9068
27.8733
20.7183
13.5654
6.58558
-0.00959344
-5.9835
-11.0956
-15.1254
-17.8969
-19.2988
-19.3005
-17.9597
-15.4227
-11.9157
-7.72724
-3.18207
1.39275
5.70819
9.55793
12.8649
15.7271
18.462
21.6457
26.1452
33.1341
44.0778
60.6681
84.6857
117.776
161.143
215.181
279.116
350.714
426.158
500.147
566.265
617.589
647.5
650.553
623.306
564.954
477.663
366.535
239.194
105.031
-25.7879
-143.428
-239.452
-307.713
-344.956
-351.07
-328.959
-284.061
-223.612
-155.733
-88.4792
-28.96
17.3569
47.1011
59.1683
54.6094
36.2771
8.29352
-24.5801
-57.5854
-86.5423
-108.293
-120.975
-124.101
-118.465
-105.897
-88.9075
-70.2911
-52.7305
-38.456
-28.9972
-25.0474
-26.4491
-32.288
-41.0761
-50.9899
-60.1322
-66.7792
-69.5875
-67.7357
-60.9911
-49.6978
-34.6954
-17.1823
1.45421
19.8192
36.6788
51.0976
62.5284
70.8487
76.3409
79.6235
81.5452
83.0573
85.082
88.3946
93.5313
100.735
109.941
120.801
132.736
145.021
156.871
167.528
176.34
182.817
186.666
187.801
186.327
182.512
176.736
169.438
161.067
152.03
142.657
133.183
123.737
114.36
105.022
95.6545
86.1837
76.5613
66.7861
56.916
47.0671
37.4019
28.109
19.3785
11.3787
4.23672
-1.97248
-7.22841
-11.5591
-15.029
-17.724
-19.7363
-21.1532
-22.0501
-22.489
-22.5224
-22.2002
-21.5784
-20.7265
-19.7328
-18.7058
-17.771
-17.0637
-16.7185
-16.8563
-17.5715
-18.9198
-20.9088
-23.4924
-26.5701
-29.9901
-33.5584
-37.0507
-40.2285
-42.8559
-44.7161
-45.6263
-45.4476
-44.0911
-41.5173
-37.7306
-32.7703
-26.6993
-19.5941
-11.5381
-2.62179
7.04974
17.3414
28.0679
38.9724
49.7103
59.8435
68.8509
76.157
81.1775
83.3785
82.3408
77.8202
69.7938
58.4849
44.3597
28.0961
10.5268
-7.43497
-24.8779
-40.9716
-55.0316
-66.5634
-75.2826
-81.1099
-84.1461
-84.6333
-82.9096
-79.3639
-74.3975
-68.3943
-61.7035
-54.6306
-47.4375
-40.3463
-33.5457
-27.1967
-21.4367
-16.3828
-12.1326
-8.76358
-6.32969
-4.85199
-4.30001
-4.55924
-5.38185
-6.32098
-6.65511
-5.31717
-0.85157
8.57154
25.055
50.7645
87.6077
136.824
198.542
271.382
352.2
436.057
516.468
585.955
636.835
662.179
656.77
617.94
546.126
445.061
321.535
184.762
45.412
-85.5442
-198.043
-284.016
-338.228
-358.754
-347.063
-307.688
-247.569
-175.143
-99.3238
-28.4889
30.3948
72.4168
95.0771
98.3303
84.3388
56.9916
21.265
-17.4804
-54.1779
-84.6263
-105.897
-116.545
-116.608
-107.437
-91.3702
-71.3254
-50.3663
-31.2948
-16.3224
-6.85136
-3.38267
-5.54798
-12.2494
-21.8778
-32.5734
-42.4913
-50.0383
-54.0527
-53.9104
-49.5511
-41.4291
-30.4018
-17.5761
-4.13627
8.82342
20.4395
30.1781
37.8821
43.7633
48.3449
52.3652
56.657
62.0195
69.1016
78.31
89.7535
103.23
118.253
134.118
149.989
164.999
178.351
189.403
197.722
203.113
205.614
205.46
203.028
198.767
193.137
186.546
179.316
171.66
163.686
155.417
146.82
137.842
128.442
118.619
108.42
97.9491
87.3541
76.8105
66.5005
56.5906
47.2131
38.453
30.3431
22.8653
15.9592
9.53521
3.48993
-2.27775
-7.85259
-13.2919
-18.6187
-23.8185
-28.841
-33.6049
-38.0057
-41.9252
-45.2427
-47.8459
-49.6418
-50.5659
-50.5899
-49.727
-48.0343
-45.6113
-42.596
-39.1561
-35.4785
-31.7558
-28.1714
-24.8859
-22.0239
-19.6646
-17.8363
-16.5152
-15.6297
-15.0689
-14.6945
-14.355
-13.9012
-13.1994
-12.1431
-10.6596
-8.71254
-6.29866
-3.43993
-0.172357
3.46695
7.45201
11.7772
16.4616
21.5465
27.087
33.1373
39.7328
46.8713
54.4962
62.4849
70.6437
78.7108
86.3659
93.2479
98.9761
103.176
105.504
105.675
103.486
98.8349
91.7363
82.3298
70.881
57.7725
43.4869
28.5798
13.6453
-0.722746
-13.9725
-25.6328
-35.346
-42.8921
-48.2004
-51.3479
-52.5455
-52.111
-50.434
-47.9348
-45.0217
-42.053
-39.3051
-36.9531
-35.0632
-33.5991
-32.4396
-31.4053
-30.2893
-28.8873
-27.0201
-24.5412
-21.3221
-17.2097
-11.9536
-5.1113
4.04873
16.6169
34.0456
58.0494
90.3826
132.497
185.123
247.841
318.736
394.233
469.179
537.213
591.389
625.004
632.495
610.277
557.396
475.86
370.612
249.107
120.565
-5.02249
-117.988
-210.05
-275.187
-310.238
-315.135
-292.773
-248.525
-189.507
-123.663
-58.8293
-1.86283
42.0427
69.7916
80.5356
75.5408
57.8147
31.5558
1.51293
-27.6629
-51.991
-68.5965
-75.9684
-74.0243
-63.9919
-48.1375
-29.388
-10.9
4.36733
14.0265
16.5415
11.3873
-0.920165
-18.9215
-40.4174
-62.7501
-83.1274
-98.9485
-108.096
-109.161
-101.581
-85.6756
-62.5833
-34.1098
-2.50875
29.7758
60.3755
87.2406
108.835
124.266
133.333
136.505
134.821
129.743
122.967
116.224
111.087
108.809
110.206
115.591
124.77
137.091
151.539
166.871
181.755
194.925
205.301
212.1
214.887
213.602
208.528
200.235
189.492
177.161
164.096
151.046
138.586
127.072
116.631
107.183
98.4844
90.198
81.9607
73.4541
64.4595
54.8931
44.8171
34.4268
24.0168
13.9349
4.52863
-3.90364
-11.1522
-17.1197
-21.826
-25.3958
-28.0309
-29.9725
-31.4599
-32.6929
-33.8016
-34.8298
-35.7334
-36.3925
-36.636
-36.2744
-35.1345
-33.0932
-30.1028
-26.2068
-21.5424
-16.331
-10.8567
-5.43698
-0.389265
4.00277
7.51815
10.0195
11.4636
11.9003
11.4608
10.3378
8.75915
6.96073
5.16021
3.53604
2.2132
1.25696
0.674586
0.423855
0.426547
0.584634
0.796738
0.972705
1.04459
0.973044
0.748855
0.389989
-0.064844
-0.564817
-1.05637
-1.49201
-1.8373
-2.07549
-2.20913
-2.25895
-2.26016
-2.25682
-2.29479
-2.41405
-2.64079
-2.97999
-3.40931
-3.87481
-4.28988
-4.53781
-4.47895
-3.96228
-2.84087
-0.989711
1.67591
5.184
9.49349
14.4879
19.9767
25.7034
31.3625
36.6211
41.145
44.626
46.8072
47.504
46.6182
44.1427
40.1571
34.8144
28.321
20.9127
12.8311
4.30279
-4.47373
-13.334
-22.1446
-30.7922
-39.1692
-47.1561
-54.6082
-61.3473
-67.1632
-71.8258
-75.1068
-76.8085
-76.7957
-75.0247
-71.5653
-66.6094
-60.466
-53.54
-46.2977
-39.2224
-32.7643
-27.2883
-23.0235
-20.0119
-18.0578
-16.6754
-15.0385
-11.9438
-5.80667
5.28472
23.4302
50.6782
88.6894
138.336
199.296
269.726
346.093
423.246
494.755
553.515
592.543
605.885
589.47
541.807
464.376
361.671
240.845
111.007
-17.7358
-135.377
-233.099
-304.206
-344.791
-354.066
-334.307
-290.453
-229.428
-159.259
-88.1391
-23.527
28.5973
64.2518
81.6988
81.4135
65.8014
38.7212
4.88689
-30.7679
-63.685
-90.1693
-107.722
-115.194
-112.769
-101.777
-84.4074
-63.3394
-41.3622
-21.0238
-4.35015
7.34038
13.5132
14.3889
10.8245
4.12812
-4.16039
-12.4941
-19.5176
-24.2184
-26.013
-24.7649
-20.7345
-14.4763
-6.70083
1.87413
10.6593
19.295
27.7034
36.0852
44.8641
54.5903
65.8208
78.9962
94.3366
111.771
130.91
151.072
171.351
190.711
208.116
222.639
233.572
240.502
243.34
242.322
237.96
230.973
222.189
212.448
202.505
192.958
184.195
176.365
169.395
163.014
156.821
150.348
143.142
134.84
125.222
114.255
102.103
89.108
75.755
62.6081
50.2421
39.1718
29.7908
22.3284
16.8292
13.1582
11.0275
10.0424
9.75721
9.73386
9.59486
9.06406
7.99049
6.35371
4.25111
1.8705
-0.54754
-2.75166
-4.52058
-5.69737
-6.2134
-6.09923
-5.48172
-4.5681
-3.61938
-2.91659
-2.72411
-3.25485
-4.64154
-6.9178
-10.0114
-13.7507
-17.8829
-22.1029
-26.0875
-29.5323
-32.1851
-33.8732
-34.5198
-34.1496
-32.8809
-30.9085
-28.4768
-25.8496
-23.2788
-20.9762
-19.0926
-17.7049
-16.8139
-16.3508
-16.1917
-16.1778
-16.1378
-15.9101
-15.361
-14.3984
-12.9785
-11.1058
-8.82711
-6.2203
-3.37988
-0.401227
2.63458
5.67326
8.69557
11.7198
14.7978
18.0045
21.4213
25.1148
29.1137
33.3856
37.8188
42.2117
46.2738
49.6408
51.9028
52.6458
51.5002
48.1912
42.5845
34.7186
24.8202
13.2977
0.713009
-12.2654
-24.9224
-36.5629
-46.5758
-54.4885
-60.0056
-63.0277
-63.6496
-62.1384
-58.8957
-54.4094
-49.1998
-43.7684
-38.5522
-33.8903
-30.0026
-26.9843
-24.8118
-23.361
-22.4315
-21.7748
-21.1208
-20.1974
-18.7381
-16.4719
-13.0905
-8.19268
-1.21018
8.66653
22.5383
41.789
67.9873
102.68
147.077
201.67
265.838
337.536
413.14
487.528
554.433
607.041
638.78
644.186
619.728
564.439
480.268
372.063
247.185
114.787
-15.1459
-132.879
-229.977
-300.188
-340.065
-349.232
-330.285
-288.358
-230.415
-164.375
-98.1819
-38.9425
7.77909
38.427
51.6482
48.2134
30.6985
2.98633
-30.3341
-64.5872
-95.5738
-120.013
-135.824
-142.228
-139.682
-129.663
-114.357
-96.2886
-77.9625
-61.5391
-48.6003
-40.0149
-35.9139
-35.7651
-38.5268
-42.852
-47.3103
-50.5971
-51.703
-50.0256
-45.4144
-38.1476
-28.8518
-18.3777
-7.65495
2.45599
11.2907
18.473
23.9598
28.0363
31.2638
34.39
38.2349
43.57
51.0065
60.9071
73.3326
88.0287
104.453
121.834
139.263
155.784
170.503
182.666
191.728
197.391
199.609
198.566
194.634
188.308
180.139
170.673
160.393
149.686
138.826
127.981
117.23
106.598
96.0873
85.7157
75.5374
65.6573
56.2299
47.4456
39.5086
32.6082
26.8906
22.4345
19.2358
17.2014
16.1557
15.8567
16.0206
16.3507
16.5682
16.4386
15.7936
14.543
12.678
10.2638
7.42458
4.32106
1.12492
-2.00768
-4.95971
-7.67074
-10.1453
-12.4501
-14.6998
-17.0324
-19.5773
-22.4215
-25.579
-28.9694
-32.4109
-35.6288
-38.282
-40.0023
-40.4436
-39.3328
-36.5165
-31.9955
-25.9424
-18.6979
-10.7471
-2.67543
4.88887
11.3407
16.1635
18.9876
19.6331
18.134
14.7396
9.89198
4.18365
-1.70255
-7.06336
-11.2482
-13.7272
-14.1467
-12.3663
-8.4737
-2.77558
4.2335
11.9213
19.5813
26.5023
32.0378
35.6668
37.0418
36.0173
32.6574
27.2228
20.1369
11.9376
3.21809
-5.43571
-13.5051
-20.5894
-26.4419
-30.9884
-34.3247
-36.6939
-38.4472
-39.9908
-41.7258
-43.9881
-46.9955
-50.8081
-55.3073
-60.1985
-65.0368
-69.2764
-72.3365
-73.6786
-72.8832
-69.7152
-64.1675
-56.4705
-47.0641
-36.5265
-25.4657
-14.3797
-3.50214
7.34509
18.8639
32.323
49.5013
72.5065
103.467
144.119
195.336
256.692
326.133
399.859
472.475
537.42
587.66
616.547
618.733
590.998
532.857
446.836
338.377
215.351
87.2473
-35.8539
-144.398
-230.403
-288.311
-315.53
-312.616
-283.07
-232.805
-169.358
-100.953
-35.5486
20.0272
60.7408
83.7615
88.5788
76.8391
51.9451
18.4848
-18.4254
-53.7983
-83.3566
-103.974
-113.939
-113.028
-102.394
-84.3003
-61.7521
-38.0658
-16.4409
0.420758
10.6051
13.1612
8.14975
-3.43112
-19.8236
-38.7633
-57.7714
-74.4511
-86.7506
-93.1678
-92.8759
-85.7627
-72.3872
-53.8641
-31.6989
-7.59397
16.7464
39.7918
60.3237
77.5235
91.0072
100.808
107.315
111.18
113.212
114.258
115.109
116.419
118.654
122.074
126.74
132.547
139.269
146.607
154.24
161.859
169.188
175.986
182.035
187.125
191.022
193.458
194.117
192.649
188.697
181.933
172.112
159.12
143.02
124.084
102.798
79.8556
56.1176
32.5597
10.2009
-9.97545
-27.1007
-40.4933
-49.7156
-54.6118
-55.3206
-52.2632
-46.1072
-37.7093
-28.0419
-18.1113
-8.87402
-1.1586
4.39847
7.3983
7.70177
5.42697
0.922726
-5.27833
-12.5215
-20.1
-27.3249
-33.589
-38.4171
-41.4996
-42.7065
-42.0817
-39.821
-36.2351
-31.7059
-26.6386
-21.4167
-16.3638
-11.7163
-7.60778
-4.06693
-1.02666
1.65726
4.18144
6.76731
9.63382
12.9729
16.9294
21.5864
26.9559
32.9754
39.5088
46.3517
53.2409
59.8669
65.8906
70.9622
74.744
76.9344
77.2931
75.6637
71.9938
66.3472
58.9084
49.9767
39.949
29.2941
18.517
8.12053
-1.43589
-9.77247
-16.6185
-21.8305
-25.3972
-27.4312
-28.1485
-27.838
-26.8265
-25.4421
-23.9812
-22.6822
-21.7095
-21.1476
-21.0047
-21.2266
-21.7152
-22.3505
-23.0128
-23.6003
-24.0396
-24.2845
-24.299
-24.0211
-23.3046
-21.8398
-19.0632
-14.0698
-5.55669
8.1709
29.0985
59.2837
100.518
153.902
219.388
295.385
378.513
463.608
544.001
612.11
660.263
681.657
671.319
626.917
549.283
442.552
313.887
172.809
30.1999
-102.861
-216.311
-302.177
-355.398
-374.28
-360.548
-318.996
-256.802
-182.599
-105.443
-33.7879
25.389
67.2282
89.332
91.7933
76.9318
48.7937
12.496
-26.4913
-63.0325
-92.9031
-113.196
-122.525
-121.02
-110.137
-92.3194
-70.5808
-48.0519
-27.5674
-11.3324
-0.706209
3.88351
2.89659
-2.47312
-10.5301
-19.3501
-27.0546
-32.0514
-33.2134
-29.9803
-22.377
-10.9557
3.32324
19.25
35.5398
50.9982
64.659
75.8789
84.3823
90.2558
93.8985
95.94
97.1382
98.2735
100.051
103.024
107.54
113.72
121.463
130.475
140.311
150.431
160.251
169.191
176.718
182.375
185.8
186.744
185.073
180.773
173.943
164.794
153.633
140.844
126.869
112.179
97.2446
82.514
68.3841
55.1856
43.1714
32.5126
23.3014
15.5576
9.23813
4.24736
0.446671
-2.33748
-4.30657
-5.68372
-6.70684
-7.6204
-8.66483
-10.0636
-12.0087
-14.6455
-18.059
-22.264
-27.1996
-32.7319
-38.6618
-44.741
-50.6924
-56.2336
-61.1012
-65.0725
-67.9831
-69.7379
-70.3145
-69.7607
-68.1834
-65.7346
-62.5927
-58.9441
-54.9656
-50.8108
-46.6012
-42.4233
-38.3319
-34.3574
-30.5181
-26.8318
-23.3266
-20.0474
-17.0553
-14.4197
-12.2046
-10.4502
-9.15379
-8.25514
-7.62875
-7.08658
-6.39187
-5.28295
-3.50411
-0.839083
2.85792
7.63831
13.4461
20.1175
27.3935
34.9431
42.3935
49.3644
55.5001
60.4985
64.1314
66.2572
66.8238
65.8647
63.4873
59.8571
55.1786
49.6756
43.5714
37.0712
30.3477
23.5316
16.7073
9.91611
3.16423
-3.56215
-10.2789
-16.9842
-23.6407
-30.1623
-36.4086
-42.1885
-47.2742
-51.4229
-54.4057
-56.0375
-56.2058
-54.8917
-52.1827
-48.2719
-43.4455
-38.0582
-32.4993
-27.1536
-22.3598
-18.3702
-15.3148
-13.1701
-11.7307
-10.5825
-9.0742
-6.28861
-1.02161
8.21647
23.1544
45.6445
77.4606
120.007
173.966
238.924
313.069
393.011
473.822
549.323
612.619
656.831
675.942
665.628
623.942
551.761
452.884
333.775
202.964
70.1778
-54.6866
-162.611
-246.395
-301.372
-325.804
-320.938
-290.708
-241.152
-179.62
-113.889
-51.2876
2.05439
41.7617
65.5147
73.0858
66.1289
47.7694
22.0619
-6.60427
-34.0773
-56.9241
-72.7722
-80.486
-80.1713
-73.0283
-61.0834
-46.8467
-32.942
-21.7579
-15.1575
-14.2776
-19.431
-30.1154
-45.1167
-62.688
-80.7762
-97.2679
-110.225
-118.085
-119.812
-114.976
-103.77
-86.9549
-65.7526
-41.6955
-16.4536
8.34308
31.2664
51.2216
67.534
79.986
88.8001
94.5748
98.1808
100.632
102.951
106.033
110.55
116.87
125.035
134.768
145.528
156.591
167.147
176.401
183.67
188.452
190.472
189.7
186.335
180.761
173.493
165.101
156.144
147.107
138.354
130.1
122.409
115.207
108.319
101.508
94.5284
87.1708
79.2975
70.8687
61.9507
52.709
43.3889
34.2856
25.7096
17.9515
11.2513
5.77435
1.59804
-1.29183
-2.9942
-3.67767
-3.5594
-2.88095
-1.88395
-0.788329
0.224867
1.02465
1.5347
1.7317
1.63808
1.31083
0.827711
0.272813
-0.277187
-0.764841
-1.16119
-1.47221
-1.74226
-2.05458
-2.52819
-3.31088
-4.56763
-6.46432
-9.14745
-12.7212
-17.2242
-22.6102
-28.7339
-35.3476
-42.1096
-48.6052
-54.3793
-58.9782
-61.9961
-63.1197
-62.1668
-59.1118
-54.0959
-47.4185
-39.5115
-30.8993
-22.148
-13.8117
-6.3803
-0.235991
4.37744
7.36982
8.80316
8.87506
7.88953
6.21973
4.26712
2.42185
1.02859
0.360646
0.604209
1.85295
4.11213
7.31018
11.3152
15.9533
21.0253
26.3197
31.6202
36.7068
41.3526
45.3186
48.3502
50.178
50.5268
49.1326
45.7673
40.2679
32.5673
22.7207
10.9244
-2.47645
-16.9941
-32.019
-46.8548
-60.7645
-73.0255
-82.9877
-90.1299
-94.1083
-94.7917
-92.2799
-86.9008
-79.1879
-69.8379
-59.6521
-49.468
-40.0853
-32.1965
-26.3257
-22.7849
-21.6521
-22.774
-25.793
-30.1979
-35.3895
-40.7529
-45.7239
-49.836
-52.7332
-54.1395
-53.7807
-51.2691
-45.974
-36.9186
-22.7488
-1.81714
27.5921
66.9052
116.813
176.823
244.899
317.316
388.772
452.81
502.509
531.353
534.159
507.9
452.306
370.113
266.924
150.685
30.8319
-82.755
-180.871
-256.016
-303.202
-320.444
-308.875
-272.484
-217.534
-151.732
-83.2802
-19.9259
31.8775
67.5969
84.9756
84.0947
67.1536
38.0178
1.60618
-36.7954
-72.2045
-100.518
-118.93
-126.153
-122.438
-109.397
-89.6776
-66.5336
-43.3599
-23.2458
-8.60537
-0.921051
-0.62599
-7.12734
-18.9575
-34.0243
-49.9213
-64.2546
-74.943
-80.4567
-79.9668
-73.3955
-61.3659
-45.068
-26.0633
-6.05972
13.3116
30.6887
45.1181
56.1281
63.7323
68.3718
70.8086
71.9902
72.9063
74.4563
77.343
82.0036
88.5806
96.9324
106.677
117.262
128.04
138.357
147.621
155.362
161.265
165.183
167.125
167.226
165.704
162.81
158.784
153.81
147.996
141.358
133.836
125.313
115.652
104.742
92.5381
79.0938
64.5864
49.3197
33.7101
18.2564
3.49605
-10.0462
-21.909
-31.7399
-39.3271
-44.6159
-47.7073
-48.8393
-48.3544
-46.6592
-44.1791
-41.3171
-38.4179
-35.7438
-33.4622
-31.645
-30.2792
-29.2848
-28.5377
-27.8938
-27.2119
-26.3719
-25.2887
-23.9195
-22.2652
-20.3675
-18.301
-16.1632
-14.063
-12.1087
-10.3967
-9.00187
-7.97019
-7.31414
-7.01135
-7.00651
-7.21665
-7.53928
-7.86285
-8.07844
-8.09161
-7.83289
-7.26569
-6.39049
-5.2446
-3.89719
-2.44025
-0.976275
0.395529
1.59281
2.56138
3.28269
3.77624
4.0966
4.32542
4.5594
4.89615
5.41976
6.1883
7.22512
8.51516
10.0071
11.6208
13.2594
14.8242
16.2296
17.417
18.3649
19.0931
19.6623
20.1675
20.7259
21.4634
22.4987
23.9287
25.8169
28.1851
31.0103
34.2248
37.7212
41.3592
44.9746
48.3886
51.4173
53.8805
55.6084
56.449
56.272
54.9734
52.4787
48.7454
43.7661
37.5724
30.2385
21.8858
12.6865
2.86622
-7.2964
-17.4741
-27.3002
-36.3851
-44.3372
-50.791
-55.4372
-58.0531
-58.5292
-56.8885
-53.2947
-48.047
-41.5615
-34.3406
-26.9326
-19.8868
-13.7099
-8.82668
-5.54978
-4.05915
-4.38877
-6.41645
-9.85019
-14.2054
-18.7702
-22.5642
-24.3029
-22.3915
-14.9766
-0.0806064
24.1643
59.1912
105.616
162.859
228.857
299.935
370.922
435.52
486.923
518.609
525.203
503.276
451.955
373.234
271.93
155.27
32.1582
-87.7836
-195.274
-282.387
-343.394
-375.326
-378.197
-354.861
-310.55
-252.153
-187.343
-123.668
-67.7246
-24.4985
3.05029
14.1281
9.97857
-6.47701
-31.168
-59.4902
-86.927
-109.598
-124.678
-130.637
-127.309
-115.771
-98.089
-76.9612
-55.3158
-35.9178
-21.0308
-12.1713
-9.97598
-14.1884
-23.7558
-37.015
-51.9367
-66.3954
-78.4292
-86.4607
-89.4545
-86.9987
-79.3041
-67.1285
-51.6403
-34.2416
-16.3759
0.654327
15.8379
28.5565
38.6266
46.2814
52.0984
56.8862
61.5484
66.9441
73.7641
82.4379
93.0822
105.495
119.191
133.479
147.551
160.597
171.897
180.908
187.316
191.056
192.293
191.382
188.793
185.036
180.58
175.79
170.883
165.916
160.792
155.307
149.201
142.224
134.193
125.043
114.855
103.854
92.3891
80.8925
69.8179
59.5804
50.498
42.7477
36.3413
31.1249
26.8018
22.9751
19.205
15.0713
10.2341
4.48361
-2.2269
-9.77008
-17.8559
-26.0643
-33.894
-40.8215
-46.3615
-50.1227
-51.8508
-51.4552
-49.0171
-44.7781
-39.1135
-32.4928
-25.4337
-18.4542
-12.0286
-6.5508
-2.30645
0.5429
1.96528
2.05276
1.00627
-0.88821
-3.29016
-5.83941
-8.19256
-10.0571
-11.2199
-11.5662
-11.0859
-9.86737
-8.07599
-5.92252
-3.62322
-1.35827
0.765135
2.73875
4.66288
6.73701
9.23137
12.4431
16.6427
22.0192
28.6317
36.3762
44.9723
53.9737
62.8015
70.7978
77.2921
81.6734
83.4572
82.3406
78.2359
71.2816
61.827
50.3955
37.6302
24.2306
10.8881
-1.77325
-13.2413
-23.1451
-31.2642
-37.5208
-41.9572
-44.704
-45.9449
-45.8834
-44.7165
-42.6182
-39.7341
-36.1848
-32.0783
-27.5243
-22.6509
-17.6159
-12.6141
-7.87541
-3.65271
-0.19782
2.27819
3.6626
4.01785
3.67464
3.33117
4.13881
7.74538
16.2611
32.115
57.7822
95.3879
146.227
210.268
285.749
368.951
454.248
534.48
601.632
647.75
665.973
651.531
602.54
520.467
410.179
279.546
138.654
-1.28471
-129.164
-235.203
-311.994
-355.249
-364.152
-341.305
-292.271
-224.806
-147.878
-70.6107
-1.27675
53.5369
89.5122
104.876
100.362
78.8892
45.0144
4.24757
-37.6829
-75.52
-105.049
-123.492
-129.695
-124.109
-108.581
-86.0068
-59.8799
-33.8255
-11.1527
5.51241
14.4819
15.1287
7.87624
-5.93184
-24.2567
-44.6496
-64.5605
-81.6347
-93.9634
-100.267
-99.9921
-93.3232
-81.1066
-64.7056
-45.8048
-26.1888
-7.52062
8.85257
22.0456
31.7164
38.0746
41.8182
44.0091
45.9052
48.7735
53.7079
61.4776
72.4238
86.4176
102.881
120.868
139.185
156.549
171.737
183.732
191.833
195.716
195.451
191.468
184.478
175.373
165.098
154.54
144.425
135.24
127.206
120.269
114.149
108.398
102.493
95.924
88.2817
79.3271
69.033
57.5968
45.4217
33.0701
21.1972
10.4719
1.49759
-5.25899
-9.52217
-11.2383
-10.581
-7.93011
-3.82831
1.07911
6.11374
10.6341
14.0985
16.1128
16.4601
15.1072
12.1913
7.98646
2.85849
-2.78812
-8.56208
-14.13
-19.2482
-23.7777
-27.6824
-31.0103
-33.8633
-36.3603
-38.6001
-40.6303
-42.4272
-43.89
-44.8497
-45.0905
-44.3818
-42.5134
-39.3307
-34.7628
-28.8404
-21.7012
-13.582
-4.7995
4.27651
13.2536
21.746
29.4002
35.9125
41.041
44.6099
46.51
46.6973
45.1899
42.0669
37.4662
31.5833
24.668
17.0176
8.96615
0.869379
-6.91548
-14.052
-20.2481
-25.2768
-28.9935
-31.3452
-32.3719
-32.1993
-31.0231
-29.088
-26.6624
-24.0139
-21.3859
-18.9802
-16.9457
-15.3745
-14.3054
-13.7324
-13.6185
-13.9103
-14.5516
-15.4939
-16.7
-18.1397
-19.7746
-21.5295
-23.2484
-24.634
-25.173
-24.0567
-20.1139
-11.783
2.84448
25.8796
59.3733
104.944
163.334
233.965
314.592
401.132
487.772
567.369
632.132
674.513
688.196
669.012
615.668
530.13
417.619
286.177
145.862
7.68371
-117.604
-220.67
-294.6
-335.58
-343.201
-320.353
-272.744
-208.109
-135.236
-62.9257
0.97892
50.3794
81.4489
92.8504
85.6472
62.94
29.2992
-9.92239
-49.3028
-84.0005
-110.269
-125.788
-129.784
-122.953
-107.215
-85.3403
-60.5129
-35.8948
-14.2376
2.40976
12.8724
16.8917
15.0467
8.57911
-0.845716
-11.4029
-21.3607
-29.2909
-34.2145
-35.6719
-33.7182
-28.8528
-21.9004
-13.8639
-5.77115
1.4649
7.15728
10.9167
12.68
12.6965
11.4782
9.72218
8.21771
7.74741
8.99506
12.4684
18.4444
26.9418
37.7222
50.3184
64.0854
78.2685
92.0789
104.769
115.699
124.386
130.539
134.064
135.052
133.753
130.53
125.813
120.047
113.65
106.978
100.3
93.7917
87.5354
81.5343
75.7331
70.0423
64.3639
58.6143
52.7416
46.7367
40.6375
34.5245
28.5125
22.7371
17.3391
12.4495
8.17587
4.59196
1.73137
-0.414497
-1.89431
-2.791
-3.21325
-3.28508
-3.13473
-2.88381
-2.63773
-2.47827
-2.45888
-2.60321
-2.90696
-3.34272
-3.86727
-4.43054
-4.98506
-5.49481
-5.94245
-6.33389
-6.69975
-7.09322
-7.58465
-8.25307
-9.17596
-10.4181
-12.0211
-13.9952
-16.3145
-18.9158
-21.7028
-24.5533
-27.3299
-29.891
-32.102
-33.8435
-35.0165
-35.5445
-35.3719
-34.4603
-32.7837
-30.324
-27.068
-23.0058
-18.1336
-12.4576
-6.00098
1.18727
9.02454
17.3874
26.1072
34.9705
43.723
52.0798
59.7391
66.3994
71.7789
75.6342
77.7772
78.0879
76.5235
73.12
67.9901
61.3144
53.3293
44.312
34.5631
24.39
14.0906
3.93941
-5.82343
-14.9997
-23.4365
-31.0256
-37.6998
-43.4265
-48.1996
-52.0322
-54.95
-56.9863
-58.1794
-58.5723
-58.2133
-57.1577
-55.4689
-53.2193
-50.4896
-47.3666
-43.94
-40.297
-36.5167
-32.6608
-28.761
-24.7973
-20.6626
-16.1106
-10.6854
-3.64405
6.1119
20.0632
40.0247
67.9901
105.854
155.024
215.97
287.782
367.848
451.734
533.35
605.42
660.232
690.577
690.745
657.419
590.33
492.54
370.309
232.532
89.8231
-46.6327
-166.318
-260.533
-323.319
-352.029
-347.502
-313.806
-257.623
-187.358
-112.1
-40.5627
19.8499
63.7614
88.2452
92.9254
79.768
52.6147
16.5366
-22.8983
-60.3453
-91.3069
-112.591
-122.566
-121.192
-109.863
-91.0776
-68.0109
-44.0431
-22.3101
-5.32975
5.25812
8.81657
5.69921
-2.88378
-15.0929
-28.7423
-41.5992
-51.6599
-57.3735
-57.7896
-52.6212
-42.2239
-27.5032
-9.7689
9.43999
28.5356
46.046
60.7479
71.7574
78.575
81.088
79.5364
74.4529
66.586
56.8181
46.0866
35.3132
25.348
16.9275
10.6463
6.9418
6.08729
8.19213
13.2058
20.9252
31.0051
42.9722
56.2439
70.1534
83.9815
96.9953
108.491
117.842
124.541
128.24
128.779
126.195
120.721
112.762
102.855
91.6196
79.7019
67.7183
56.207
45.5923
36.1631
28.0691
21.3317
15.8678
11.521
8.09616
5.39245
3.22997
1.46819
0.0142435
-1.1785
-2.12016
-2.79979
-3.2036
-3.33254
-3.21649
-2.92269
-2.55702
-2.25781
-2.18306
-2.49262
-3.32809
-4.79321
-6.93777
-9.74744
-13.1413
-16.9776
-21.0673
-25.1932
-29.1331
-32.6826
-35.6758
-38.0003
-39.6055
-40.503
-40.7588
-40.4807
-39.8001
-38.8537
-37.7655
-36.6333
-35.5194
-34.4483
-33.4089
-32.3612
-31.2453
-29.9905
-28.5225
-26.769
-24.6634
-22.1473
-19.1736
-15.7122
-11.757
-7.3364
-2.52315
2.55612
7.71697
12.7208
17.2889
21.1272
23.9615
25.5792
25.8723
24.8744
22.785
19.9739
16.9624
14.3806
12.9041
13.1771
15.7326
20.9183
28.841
39.3344
51.9574
66.0209
80.6419
94.8179
107.514
117.753
124.702
127.741
126.518
120.979
111.366
98.1978
82.2216
64.3482
45.5729
26.8916
9.2185
-6.68497
-20.2652
-31.2085
-39.4484
-45.1473
-48.6559
-50.454
-51.0799
-51.0567
-50.824
-50.6838
-50.7666
-51.0254
-51.2561
-51.1452
-50.3367
-48.5089
-45.4483
-41.1053
-35.6194
-29.3021
-22.5738
-15.8563
-9.43185
-3.28643
3.03514
10.5327
20.7789
35.8409
58.0776
89.8068
132.869
188.137
255.053
331.29
412.617
493.064
565.382
621.791
654.93
658.857
629.978
567.719
474.853
357.386
224.019
85.2452
-47.8064
-164.612
-256.424
-317.208
-344.24
-338.286
-303.364
-246.137
-175.018
-99.1354
-27.2687
33.0918
76.4722
99.8497
102.767
87.1391
56.8008
16.8705
-26.976
-69.2281
-105.172
-131.364
-145.906
-148.502
-140.324
-123.703
-101.721
-77.7494
-54.9958
-36.1262
-22.9857
-16.453
-16.4291
-21.95
-31.3965
-42.7664
-53.9688
-63.1017
-68.6799
-69.7882
-66.1485
-58.0982
-46.4917
-32.5415
-17.6252
-3.08448
9.95678
20.734
28.926
34.6741
38.5374
41.3932
44.2983
48.3312
54.4376
63.2972
75.231
90.1564
107.596
126.735
146.52
165.782
183.37
198.272
209.723
217.266
220.783
220.479
216.833
210.518
202.307
192.974
183.208
173.542
164.312
155.648
147.487
139.619
131.744
123.533
114.698
105.038
94.4805
83.0946
71.0884
58.7866
46.5936
34.9481
24.2753
14.9424
7.22261
1.27212
-2.87957
-5.32472
-6.26073
-5.96479
-4.764
-3.00481
-1.02514
0.868478
2.41776
3.42349
3.7509
3.33088
2.15802
0.28619
-2.17764
-5.08159
-8.23888
-11.44
-14.4665
-17.1067
-19.1708
-20.5063
-21.01
-20.6376
-19.408
-17.4023
-14.7581
-11.6589
-8.31977
-4.97102
-1.84082
0.861366
2.95941
4.322
4.87027
4.58116
3.48653
1.66848
-0.748245
-3.60603
-6.72508
-9.91427
-12.9814
-15.7423
-18.0289
-19.6955
-20.6242
-20.7288
-19.9574
-18.2948
-15.7626
-12.4189
-8.357
-3.70236
1.39125
6.74665
12.1691
17.4526
22.3863
26.7605
30.3724
33.0304
34.5589
34.803
33.6338
30.9553
26.7133
20.9041
13.5844
4.87836
-5.01713
-15.8329
-27.2328
-38.8246
-50.1758
-60.8349
-70.3543
-78.3165
-84.3603
-88.2063
-89.6795
-88.7275
-85.4317
-80.009
-72.8043
-64.2707
-54.9398
-45.3827
-36.1651
-27.801
-20.7072
-15.1632
-11.2785
-8.9648
-7.91387
-7.57599
-7.13816
-5.50439
-1.28689
7.17495
21.745
44.3471
76.7339
120.172
175.074
240.638
314.569
392.962
470.418
540.415
595.929
630.226
637.732
614.854
560.606
476.956
368.814
243.64
110.731
-19.7419
-137.816
-234.802
-304.198
-342.328
-348.655
-325.711
-278.685
-214.728
-142.068
-69.0528
-3.2452
49.3354
84.7359
101.316
99.7066
82.5154
53.8216
18.5527
-18.1824
-51.7151
-78.3267
-95.593
-102.54
-99.6087
-88.4546
-71.6179
-52.1195
-33.0374
-17.1157
-6.45058
-2.283
-4.91354
-13.7382
-27.3895
-43.9571
-61.254
-77.0931
-89.5408
-97.1196
-98.9409
-94.7577
-84.9389
-70.3746
-52.3296
-32.2668
-11.6648
8.14833
26.1263
41.5881
54.2479
64.1942
71.8238
77.7469
82.6747
87.3091
92.2461
97.9056
104.492
111.99
120.188
128.728
137.166
145.043
151.943
157.545
161.649
164.191
165.224
164.894
163.396
160.926
157.642
153.623
148.859
143.247
136.623
128.794
119.599
108.956
96.9074
83.6532
69.553
55.1085
40.9192
27.6215
15.8167
5.9993
-1.50443
-6.57866
-9.33533
-10.1035
-9.39235
-7.83152
-6.09761
-4.83469
-4.57917
-5.69792
-8.34699
-12.4557
-17.7379
-23.7287
-29.8429
-35.4462
-39.9335
-42.8015
-43.71
-42.5228
-39.324
-34.4086
-28.2488
-21.4398
-14.6332
-8.46564
-3.49134
-0.125854
1.39207
1.01768
-1.10491
-4.66835
-9.24419
-14.3359
-19.4358
-24.0801
-27.894
-30.6236
-32.1516
-32.4934
-31.7779
-30.2136
-28.0466
-25.5153
-22.8094
-20.0387
-17.2169
-14.2626
-11.0173
-7.27804
-2.83895
2.46468
8.71649
15.89
23.8345
32.2789
40.8524
49.119
56.6217
62.9294
67.6805
70.6164
71.6021
70.6299
67.8083
63.3367
57.4717
50.4904
42.6553
34.1873
25.2509
15.9523
6.35172
-3.51281
-13.5947
-23.806
-33.9891
-43.8982
-53.1959
-61.4666
-68.2483
-73.0783
-75.5485
-75.3633
-72.3905
-66.6992
-58.5766
-48.5212
-37.2116
-25.4543
-14.1151
-4.0422
4.00978
9.44932
11.904
11.2622
7.70116
1.70876
-5.89709
-13.9465
-20.8983
-24.8375
-23.5153
-14.4611
4.80736
36.4654
81.9723
141.622
214.132
296.37
383.302
468.232
543.354
600.556
632.403
633.146
599.606
531.789
433.117
310.237
172.393
30.4657
-104.219
-221.135
-311.704
-370.188
-394.229
-384.972
-346.761
-286.496
-212.705
-134.502
-60.5354
1.92597
47.6795
73.974
80.5747
69.5262
44.6672
10.9789
-26.1388
-61.5674
-91.0634
-111.681
-121.988
-122.072
-113.348
-98.2247
-79.6743
-60.7759
-44.2932
-32.3367
-26.1454
-26.0051
-31.2998
-40.6771
-52.2943
-64.1064
-74.1526
-80.8057
-82.9535
-80.0959
-72.3516
-60.3836
-45.2595
-28.2732
-10.7549
6.10417
21.3889
34.5456
45.409
54.1721
61.3102
67.4737
73.367
79.6339
86.7617
95.0189
104.43
114.785
125.688
136.617
147.006
156.32
164.121
170.11
174.154
176.274
176.616
175.407
172.896
169.298
164.75
159.284
152.821
145.194
136.186
125.587
113.252
99.1562
83.4354
66.4031
48.5441
30.4811
12.9205
-3.41735
-17.8721
-29.9135
-39.1979
-45.6024
-49.2355
-50.4199
-49.6528
-47.5477
-44.7654
-41.9432
-39.6305
-38.237
-38.0005
-38.9754
-41.0425
-43.937
-47.2913
-50.6844
-53.694
-55.9418
-57.1305
-57.066
-55.6657
-52.952
-49.0352
-44.0884
-38.3196
-31.9446
-25.1657
-18.1572
-11.0617
-3.99363
2.94851
9.66656
16.0467
21.9477
27.1971
31.5983
34.9477
37.0622
37.81
37.1416
35.1142
31.9038
27.8024
23.199
18.5464
14.3166
10.9533
8.8247
8.18506
9.14955
11.6849
15.6173
20.6556
26.4269
32.5189
38.5239
44.0787
48.8965
52.7866
55.6606
57.5268
58.4722
58.6383
58.1907
57.289
56.0588
54.5681
52.8123
50.7078
48.0977
44.768
40.4758
34.9857
28.1098
19.748
9.92045
-1.21177
-13.342
-26.0309
-38.737
-50.8601
-61.7945
-70.9843
-77.9749
-82.455
-84.2831
-83.4978
-80.309
-75.0726
-68.2529
-60.3755
-51.9782
-43.5642
-35.5639
-28.3073
-22.0114
-16.7808
-12.6198
-9.45216
-7.14116
-5.50084
-4.28969
-3.17885
-1.69221
0.875461
5.54478
13.713
27.1529
47.9119
78.0865
119.472
173.118
238.859
314.917
397.664
481.653
559.951
624.778
668.383
684.057
667.109
615.677
531.212
418.559
285.598
142.471
0.51316
-129
-236.092
-313.178
-355.845
-363.25
-338.078
-286.089
-215.338
-135.151
-55.0295
16.412
72.3255
108.249
122.402
115.648
91.1519
53.7981
9.45427
-35.8159
-76.4942
-108.219
-128.199
-135.406
-130.525
-115.706
-94.1569
-69.6386
-45.9356
-26.3719
-13.4233
-8.46788
-11.6947
-22.1672
-38.0231
-56.7749
-75.665
-92.03
-103.626
-108.878
-107.029
-98.1758
-83.1946
-63.5726
-41.1751
-17.98
4.183
23.8555
40.1086
52.6191
61.6597
68.0096
72.8022
77.3366
82.8778
90.4763
100.828
114.193
130.374
148.763
168.432
188.265
207.098
223.86
237.685
247.993
254.529
257.353
256.799
253.405
247.822
240.722
232.716
224.293
215.781
207.334
198.953
190.524
181.865
172.787
163.142
152.867
142
130.69
119.172
107.74
96.6967
86.3135
76.7875
68.2155
60.5845
53.78
47.6121
41.8533
36.2806
30.7169
25.062
19.3115
13.558
7.97704
2.79982
-1.72335
-5.36176
-7.94021
-9.36655
-9.64733
-8.88966
-7.28959
-5.10933
-2.64668
-0.201359
1.95714
3.61595
4.63615
4.95932
4.603
3.64642
2.20928
0.426781
-1.575
-3.69995
-5.89609
-8.16128
-10.54
-13.1118
-15.9745
-19.2231
-22.9299
-27.1274
-31.7972
-36.8657
-42.2079
-47.6572
-53.0201
-58.0934
-62.6807
-66.6077
-69.733
-71.9564
-73.2234
-73.5275
-72.912
-71.4696
-69.3417
-66.7145
-63.8103
-60.8735
-58.1496
-55.8587
-54.1652
-53.1492
-52.7846
-52.9283
-53.3254
-53.6317
-53.4512
-52.3854
-50.0869
-46.3095
-40.9476
-34.0577
-25.8585
-16.7089
-7.06707
2.56534
11.704
19.9399
26.9865
32.7078
37.1252
40.4024
42.8103
44.6793
46.3448
48.0951
50.129
52.5271
55.2409
58.0993
60.8298
63.0913
64.5127
64.7339
63.444
60.4141
55.5229
48.7724
40.2946
30.348
19.3038
7.62362
-4.17058
-15.5325
-25.9311
-34.8898
-42.0239
-47.0699
-49.9066
-50.5636
-49.217
-46.1719
-41.834
-36.6724
-31.179
-25.8275
-21.037
-17.1424
-14.3723
-12.8333
-12.499
-13.1976
-14.5977
-16.1866
-17.2436
-16.8092
-13.6628
-6.32351
6.90047
27.7923
58.0191
98.8378
150.74
213.088
283.82
359.296
434.376
502.741
557.481
591.874
600.263
578.904
526.641
445.298
339.703
217.322
87.5402
-39.3291
-153.167
-245.165
-308.786
-340.442
-339.816
-309.794
-256.017
-186.144
-108.905
-33.0867
33.433
84.4871
116.168
127.08
118.275
92.913
55.7029
12.2058
-31.8989
-71.4961
-102.587
-122.652
-130.803
-127.719
-115.397
-96.7633
-75.207
-54.1007
-36.3681
-24.148
-18.5879
-19.7821
-26.8474
-38.1165
-51.4131
-64.368
-74.7324
-80.6499
-80.8574
-74.797
-62.6322
-45.1773
-23.7544
-0.00468007
24.321
47.5644
68.3319
85.6202
98.8844
108.049
113.466
115.831
116.072
115.226
114.319
114.257
115.745
119.234
124.897
132.635
142.112
152.802
164.056
175.167
185.437
194.236
201.047
205.494
207.36
206.587
203.266
197.61
189.934
180.62
170.088
158.764
147.055
135.323
123.866
112.902
102.563
92.8934
83.8562
75.3508
67.236
59.3589
51.5849
43.8249
36.0564
28.3334
20.7856
13.6049
7.02207
1.27634
-3.41723
-6.89861
-9.08713
-9.99614
-9.73614
-8.50625
-6.57512
-4.25427
-1.86702
0.282821
1.93901
2.9145
3.10462
2.49065
1.13407
-0.837228
-3.24894
-5.90365
-8.6048
-11.1784
-13.4905
-15.4581
-17.0539
-18.3032
-19.276
-20.0732
-20.8121
-21.6098
-22.57
-23.7723
-25.2658
-27.0672
-29.1621
-31.5081
-34.0384
-36.6648
-39.2796
-41.7575
-43.9582
-45.7311
-46.923
-47.3891
-47.0063
-45.6875
-43.3952
-40.1503
-36.0364
-31.1969
-25.8247
-20.1464
-14.4015
-8.82082
-3.60495
1.09294
5.1791
8.62451
11.4633
13.7853
15.7235
17.4397
19.1091
20.906
22.9924
25.5098
28.5728
32.2667
36.6449
41.728
47.5006
53.9084
60.8526
68.184
75.6975
83.1287
90.154
96.3982
101.449
104.88
106.284
105.311
101.706
95.3528
86.2976
74.771
61.1854
46.1158
30.2615
14.393
-0.711609
-14.3319
-25.8666
-34.883
-41.15
-44.6513
-45.5776
-44.3001
-41.3289
-37.2606
-32.7227
-28.3191
-24.5844
-21.9478
-20.7112
-21.0398
-22.961
-26.3685
-31.0218
-36.5364
-42.3577
-47.719
-51.5898
-52.6302
-49.1757
-39.2823
-20.8587
8.09746
49.1631
103.086
169.375
245.962
329.036
413.104
491.341
556.203
600.261
617.13
602.376
554.248
474.115
366.527
238.878
100.687
-37.3842
-164.687
-271.727
-351.175
-398.597
-412.836
-395.998
-353.065
-291.195
-218.813
-144.608
-76.5714
-21.1783
17.1892
36.5348
37.2386
21.7733
-5.79751
-40.4601
-76.9401
-110.354
-136.75
-153.473
-159.347
-154.648
-140.904
-120.573
-96.627
-72.1278
-49.8357
-31.8975
-19.647
-13.5291
-13.1441
-17.3948
-24.705
-33.276
-41.343
-47.3998
-50.3658
-49.6786
-45.3093
-37.7034
-27.6636
-16.1943
-4.33322
7.00696
17.1639
25.8039
32.944
38.9198
44.3062
49.8055
56.1228
63.8458
73.3486
84.7306
97.7993
112.096
126.96
141.617
155.279
167.24
176.953
184.082
188.509
190.326
189.787
187.25
183.114
177.759
171.504
164.582
157.132
149.215
140.836
131.974
122.61
112.757
102.469
91.8499
81.0506
70.2583
59.6805
49.5278
39.9957
31.2498
23.4136
16.5615
10.7156
5.8475
1.88385
-1.28508
-3.79449
-5.79287
-7.4296
-8.84341
-10.1527
-11.4487
-12.7915
-14.2105
-15.7072
-17.2619
-18.8414
-20.4083
-21.929
-23.3808
-24.7556
-26.0608
-27.3166
-28.5509
-29.7919
-31.0601
-32.3624
-33.6871
-35.0025
-36.2596
-37.3963
-38.3439
-39.0341
-39.4049
-39.4055
-38.999
-38.1629
-36.8893
-35.1826
-33.0584
-30.5416
-27.6647
-24.4666
-20.9912
-17.2852
-13.3957
-9.36452
-5.22271
-0.982129
3.37282
7.89265
12.6676
17.8277
23.5363
29.9771
37.3329
45.759
55.3537
66.1279
77.9796
90.6756
103.845
103.845
103.845
103.845
103.845
103.845
103.845
103.845
103.845
103.845
103.845
103.845
103.845
103.845
103.845
103.845
103.845
103.845
103.845
103.845
