-9.21308
0.41091
10.9132
21.8497
32.6813
42.822
51.6974
58.8069
63.7827
66.4355
66.7838
65.0605
61.6964
57.2814
52.5083
48.1034
44.7517
43.0245
43.3168
45.8007
50.4015
56.7994
64.4574
72.6743
80.6566
87.602
92.7848
95.6321
95.7828
93.1193
87.7712
80.0872
70.5825
59.8666
48.5648
37.242
26.342
16.1491
6.77776
-1.80852
-9.75402
-17.2501
-24.468
-31.4969
-38.2985
-44.6868
-50.3384
-54.8333
-57.7215
-58.6061
-57.2295
-53.5499
-47.7924
-40.465
-32.3336
-24.3554
-17.5785
-13.0189
-11.5328
-13.7017
-19.746
-29.4806
-42.319
-57.3247
-73.3051
-88.9337
-102.888
-113.985
-121.298
-124.243
-122.625
-116.648
-106.871
-94.1435
-79.5066
-64.08
-48.9479
-35.0482
-23.0763
-13.4062
-6.03544
-0.557336
3.83496
8.30652
14.2964
23.3893
37.1455
56.8993
83.5427
117.319
157.655
203.064
251.144
298.694
341.95
376.931
399.851
407.57
398.003
370.448
325.771
266.412
196.209
120.054
43.4102
-28.2383
-89.9491
-137.816
-169.342
-183.647
-181.487
-165.094
-137.856
-103.89
-67.5561
-32.9887
-3.6762
17.845
30.165
33.0324
27.251
14.4674
-3.11673
-23.0649
-43.018
-60.961
-75.4169
-85.5519
-91.1861
-92.721
-90.998
-87.1159
-82.2331
-77.3829
-73.3254
-70.4533
-68.7592
-67.865
-67.1045
-65.644
-62.6214
-57.2839
-49.1035
-37.858
-23.6654
-6.97077
11.5104
30.8825
50.1796
68.4795
85.0052
99.2026
110.784
119.737
126.295
130.88
134.027
136.297
138.198
140.116
142.269
144.681
147.191
149.477
151.103
151.576
150.413
147.201
141.653
133.65
123.265
110.761
96.5737
81.2723
65.5024
49.9208
35.1267
21.5983
9.6441
-0.624526
-9.29554
-16.6309
-23.0175
-28.9013
-34.7132
-40.7998
-47.3676
-54.4494
-61.8986
-69.4101
-76.5654
-82.8929
-87.9357
-91.3156
-92.7842
-92.2554
-89.8146
-85.7055
-80.297
-74.0363
-67.3956
-60.8189
-54.6767
-49.2328
-44.6272
-40.8734
-37.8727
-35.4378
-33.3264
-31.2764
-29.0412
-26.4199
-23.2804
-19.5728
-15.3331
-10.677
-5.78579
-0.885043
3.77986
7.97002
11.4775
14.146
15.885
16.6773
16.5785
15.7094
14.2429
12.3861
10.3617
8.38893
6.66635
5.35845
4.58609
4.42156
4.88771
5.96089
7.57662
9.63726
12.0205
14.5883
17.1946
19.6937
21.946
23.8243
25.2189
26.0417
26.23
25.7496
24.5964
22.7964
20.4041
17.499
14.1798
10.5582
6.75147
2.87615
-0.95766
-4.64961
-8.11054
-11.262
-14.0343
-16.3642
-18.1921
-19.4611
-20.1166
-20.1083
-19.3933
-17.9425
-15.7474
-12.83
-9.25225
-5.1263
-0.622653
4.02512
8.52119
12.5155
15.6206
17.4365
17.5843
15.7439
11.6941
5.3476
-3.22192
-13.7671
-25.8716
-38.9729
-52.402
-65.436
-77.3571
-87.5116
-95.3613
-100.523
-102.793
-102.149
-98.7411
-92.8642
-84.9202
-75.372
-64.6935
-53.3185
-41.5885
-29.7047
-17.6839
-5.32522
7.80634
22.3703
39.207
59.2531
83.4152
112.408
146.573
185.694
228.853
274.342
319.679
361.724
396.925
421.657
432.634
427.331
404.373
363.811
307.256
237.834
159.95
78.8938
0.323328
-70.3064
-128.302
-170.208
-194.138
-199.929
-189.1
-164.621
-130.536
-91.4831
-52.1713
-16.8855
10.9308
28.9684
36.196
32.8492
20.279
0.689779
-23.1928
-48.4769
-72.4399
-92.8063
-107.942
-116.952
-119.681
-116.629
-108.801
-97.5235
-84.2393
-70.3268
-56.9469
-44.9413
-34.7839
-26.5838
-20.1344
-14.9927
-10.5759
-6.25945
-1.4629
4.28451
11.3048
19.758
29.6516
40.8658
53.1863
66.3395
80.0213
93.9185
107.721
121.123
133.829
145.541
155.967
164.816
171.814
176.712
179.303
179.445
177.076
172.228
165.033
155.727
144.638
132.167
118.766
104.902
91.0216
77.5175
64.6919
52.7315
41.692
31.4972
21.9545
12.7859
3.67239
-5.69352
-15.5544
-26.0401
-37.1342
-48.6595
-60.2855
-71.5589
-81.9529
-90.9287
-98.0018
-102.804
-105.13
-104.97
-102.51
-98.1173
-92.3007
-85.6525
-78.7859
-72.2684
-66.5624
-61.9797
-58.6535
-56.5326
-55.3974
-54.8954
-54.5923
-54.0312
-52.7934
-50.5528
-47.1163
-42.4474
-36.6683
-30.0427
-22.9411
-15.7935
-9.03726
-3.06511
1.8186
5.42922
7.71706
8.76566
8.77428
8.02782
6.85864
5.60536
4.57337
4.00126
4.03594
4.71843
5.98077
7.65419
9.48752
11.1748
12.3898
12.8257
12.2358
10.4709
7.5104
3.47955
-1.34855
-6.57002
-11.6856
-16.1514
-19.4397
-21.1026
-20.8294
-18.4906
-14.162
-8.12516
-0.843379
7.08397
14.9829
22.1751
28.0475
32.1145
34.0639
33.7841
31.3685
27.1002
21.4176
14.8691
8.06041
1.60206
-3.93851
-8.07663
-10.4399
-10.7875
-9.01932
-5.17816
0.555906
7.87582
16.3628
25.5064
34.7304
43.4249
50.9856
56.8591
60.5916
61.8772
60.5985
56.8534
50.9613
43.4442
34.9808
26.3367
18.2769
11.4718
6.41032
3.33297
2.1982
2.68869
4.25953
6.22219
7.85208
8.50222
7.70409
5.23832
1.16352
-4.20014
-10.3273
-16.5701
-22.2481
-26.7267
-29.466
-30.0323
-28.069
-23.2364
-15.1371
-3.249
13.1081
34.7465
62.5089
97.0857
138.767
187.165
240.961
297.745
354.002
405.29
446.614
472.977
480.019
464.672
425.717
364.137
283.206
188.279
86.2963
-14.9413
-107.625
-184.806
-241.167
-273.585
-281.418
-266.494
-232.792
-185.888
-132.233
-78.3734
-30.2026
7.64926
32.2339
42.4669
39.0712
24.309
1.5532
-25.2337
-52.0409
-75.301
-92.2775
-101.309
-101.897
-94.634
-81.013
-63.1335
-43.3682
-24.0259
-7.05784
6.16101
14.9551
19.3684
20.0879
18.2909
15.4406
13.0638
12.5392
14.926
20.8488
30.4512
43.415
59.0375
76.3494
94.2537
111.664
127.627
141.41
152.553
160.877
166.46
169.585
170.67
170.195
168.635
166.406
163.828
161.111
158.348
155.536
152.591
149.378
145.731
141.479
136.465
130.558
123.667
115.752
106.827
96.9659
86.3056
75.0394
63.4117
51.7048
40.2219
29.2663
19.1195
10.0189
2.13909
-4.42184
-9.64885
-13.6088
-16.441
-18.3412
-19.5394
-20.2766
-20.7799
-21.2417
-21.8039
-22.5484
-23.4957
-24.6093
-25.8062
-26.9709
-27.9701
-28.6679
-28.9387
-28.6782
-27.8114
-26.2977
-24.1344
-21.3571
-18.0394
-14.2904
-10.2509
-6.08763
-1.98633
1.85808
5.25358
8.0258
10.0346
11.1912
11.4734
10.936
9.71452
8.01884
6.11646
4.30569
2.88079
2.09268
2.11053
2.99025
4.65624
6.90136
9.40793
11.7889
13.6441
14.6242
14.4905
13.161
10.7347
7.4862
3.8326
0.275578
-2.67302
-4.57046
-5.11496
-4.19892
-1.9349
1.3501
5.15165
8.85143
11.7985
13.3973
13.19
10.9228
6.58662
0.427912
-7.07277
-15.2507
-23.3299
-30.5102
-36.0579
-39.3903
-40.1428
-38.2117
-33.766
-27.2271
-19.2176
-10.4854
-1.81261
6.07873
12.6112
17.4149
20.3598
21.5523
21.2989
20.0408
18.2732
16.4607
14.9649
13.9938
13.5826
13.6049
13.8135
13.8992
13.5568
12.5466
10.7397
8.14029
4.88361
1.20986
-2.57833
-6.1672
-9.28244
-11.7309
-13.4266
-14.3988
-14.7807
-14.7829
-14.6556
-14.6463
-14.9592
-15.7208
-16.9542
-18.5628
-20.3188
-21.8542
-22.6504
-22.0266
-19.1336
-12.9626
-2.38453
13.7655
36.5528
66.7559
104.648
149.774
200.775
255.294
310.016
360.856
403.302
432.875
445.666
438.854
411.155
363.117
297.199
217.629
130.041
40.9215
-43.0569
-115.733
-172.105
-208.839
-224.588
-220.069
-197.913
-162.293
-118.399
-71.8205
-27.9149
8.75696
34.8691
48.5948
49.6788
39.3215
19.9039
-5.39968
-33.0674
-59.6728
-82.2737
-98.7035
-107.741
-109.148
-103.585
-92.4251
-77.5057
-60.8457
-44.3756
-29.7065
-17.9663
-9.71328
-4.93126
-3.09645
-3.29973
-4.40215
-5.19985
-4.57656
-1.62616
4.26576
13.3855
25.6971
40.8837
58.4119
77.6079
97.7336
118.053
137.881
156.621
173.772
188.938
201.81
212.164
219.838
224.732
226.797
226.044
222.549
216.461
208.009
197.507
185.351
172.003
157.97
143.776
129.925
116.862
104.939
94.3805
85.2684
77.5358
70.9784
65.2832
60.0693
54.9382
49.5265
43.5532
36.8571
29.4179
21.3585
12.929
4.47425
-3.60967
-10.9248
-17.1195
-21.9288
-25.2032
-26.9219
-27.1904
-26.2223
-24.3109
-21.7926
-19.008
-16.2666
-13.817
-11.828
-10.3803
-9.46999
-9.02051
-8.90272
-8.95795
-9.02154
-8.94366
-8.60536
-7.92855
-6.87996
-5.46973
-3.74596
-1.78671
0.309054
2.43044
4.46293
6.29576
7.8284
8.9767
9.67854
9.89917
9.63579
8.92069
7.82219
6.44265
4.91307
3.38427
2.01495
0.957568
0.343418
0.268431
0.781439
1.87646
3.49018
5.50523
7.75924
10.0589
12.1974
13.974
15.2131
15.7805
15.596
14.6403
12.9552
10.6385
7.83201
4.70678
1.44533
-1.77606
-4.80308
-7.51543
-9.83381
-11.7213
-13.1794
-14.2395
-14.9511
-15.3692
-15.5421
-15.5012
-15.2549
-14.7862
-14.0538
-12.9977
-11.5465
-9.62686
-7.17256
-4.13404
-0.486501
3.76268
8.5673
13.8362
19.4282
25.1486
30.75
35.9385
40.3868
43.7564
45.726
46.0253
44.4687
40.985
35.6384
28.6349
20.3146
11.1271
1.59435
-7.73655
-16.344
-23.78
-29.7101
-33.9406
-36.4291
-37.2789
-36.7179
-35.0646
-32.6855
-29.9469
-27.1665
-24.5651
-22.2228
-20.0411
-17.7124
-14.7019
-10.2466
-3.37876
7.01915
22.1201
43.0186
70.5618
105.158
146.588
193.847
245.054
297.457
347.562
391.387
424.828
444.101
446.21
429.37
393.322
339.493
270.961
192.216
108.749
26.5084
-48.7045
-111.831
-159.059
-188.187
-198.79
-192.192
-171.233
-139.89
-102.787
-64.6572
-29.8408
-1.85114
16.9272
25.3913
23.715
13.1999
-3.98757
-25.1533
-47.4392
-68.1696
-85.1396
-96.8179
-102.448
-102.046
-96.3071
-86.4391
-73.9544
-60.4479
-47.3908
-35.9624
-26.9379
-20.6375
-16.936
-15.3255
-15.0165
-15.0619
-14.4883
-12.4172
-8.16571
-1.31629
8.24916
20.3514
34.549
50.2011
66.5465
82.7919
98.1963
112.142
124.189
134.098
141.833
147.537
151.482
154.015
155.488
156.207
156.38
156.09
155.296
153.84
151.489
147.973
143.035
136.482
128.213
118.249
106.734
93.9299
80.193
65.9399
51.6108
37.631
24.3766
12.1473
1.14991
-8.50867
-16.817
-23.8466
-29.7328
-34.6512
-38.7945
-42.3491
-45.4767
-48.3004
-50.8969
-53.2938
-55.4733
-57.3793
-58.9279
-60.0196
-60.5509
-60.4268
-59.57
-57.9297
-55.4869
-52.2583
-48.2976
-43.6949
-38.5734
-33.0849
-27.4031
-21.7158
-16.2165
-11.0954
-6.52972
-2.67564
0.34055
2.4302
3.54964
3.7067
2.96586
1.45112
-0.654418
-3.11344
-5.64485
-7.9399
-9.68362
-10.58
-10.3785
-8.89824
-6.0476
-1.83501
3.63019
10.148
17.4479
25.217
33.1314
40.8877
48.2286
54.9603
60.9587
66.1643
70.5681
74.1914
77.0643
79.2075
80.6214
81.283
81.1529
80.1867
78.351
75.6361
72.0655
67.6978
62.6219
56.9475
50.7926
44.2724
37.4904
30.5352
23.483
16.4037
9.3706
2.47008
-4.19071
-10.4801
-16.2434
-21.3094
-25.5023
-28.6553
-30.627
-31.3157
-30.6724
-28.7091
-25.5037
-21.2001
-16.0057
-10.1849
-4.05133
2.04191
7.71493
12.5764
16.2432
18.3645
18.649
16.8947
13.0159
7.0644
-0.759075
-10.1082
-20.5091
-31.3938
-42.1453
-52.1502
-60.8527
-67.8038
-72.7015
-75.4151
-75.9947
-74.6617
-71.7825
-67.8285
-63.3235
-58.7851
-54.663
-51.278
-48.7686
-47.0448
-45.7578
-44.2858
-41.7432
-37.0172
-28.8375
-15.881
3.08643
29.0398
62.5063
103.381
150.769
202.896
257.097
309.925
357.377
395.237
419.489
426.786
414.877
382.97
331.936
264.35
184.328
97.1806
8.91718
-74.3378
-146.954
-204.351
-243.434
-262.858
-263.102
-246.336
-216.107
-176.902
-133.619
-91.0409
-53.35
-23.7496
-4.22649
4.52987
3.0552
-7.09268
-23.6306
-43.8953
-65.1913
-85.0985
-101.708
-113.766
-120.719
-122.666
-120.237
-114.413
-106.335
-97.1005
-87.5988
-78.3947
-69.6709
-61.236
-52.5925
-43.0507
-31.8692
-18.4009
-2.22129
16.7778
38.3437
61.8704
86.4577
111.01
134.361
155.407
173.226
187.178
196.957
202.61
204.504
203.267
199.693
194.639
188.922
183.228
178.044
173.616
169.948
166.818
163.833
160.49
156.263
150.671
143.354
134.12
122.973
110.117
95.9261
80.9051
65.6237
50.6512
36.4934
23.5402
12.0327
2.05136
-6.47324
-13.731
-19.9889
-25.5413
-30.6605
-35.5548
-40.3397
-45.0234
-49.5101
-53.6173
-57.1046
-59.71
-61.1879
-61.3437
-60.0624
-57.3261
-53.2206
-47.9307
-41.7258
-34.9372
-27.9316
-21.0818
-14.7394
-9.21083
-4.73818
-1.48705
0.459314
1.09977
0.510061
-1.16596
-3.7273
-6.92779
-10.4885
-14.1106
-17.4884
-20.3239
-22.3429
-23.312
-23.0581
-21.4862
-18.5966
-14.4955
-9.39931
-3.62817
2.41184
8.25752
13.4269
17.4641
19.985
20.7208
19.5509
16.524
11.8609
5.94008
-0.734023
-7.57721
-13.9808
-19.37
-23.2597
-25.3
-25.3091
-23.2874
-19.414
-14.0248
-7.57633
-0.597416
6.36443
12.7977
18.277
22.5036
25.3317
26.7793
27.0191
26.3529
25.17
23.8958
22.9346
22.6155
23.1476
24.59
26.8426
29.6579
32.6753
35.4717
37.6255
38.7827
38.7181
37.3816
34.9216
31.6805
28.1607
24.9627
22.7027
21.9199
22.9857
26.0292
30.8914
37.1166
43.9867
50.5941
55.947
59.0916
59.2366
55.8602
48.7862
38.2177
24.7231
9.1768
-7.33705
-23.6446
-38.6099
-51.254
-60.8495
-66.9822
-69.5716
-68.8518
-65.3175
-59.6443
-52.594
-44.916
-37.2556
-30.0744
-23.5877
-17.7226
-12.0977
-6.02798
1.43969
11.4567
25.2644
44.0478
68.7578
99.9169
137.432
180.44
227.232
275.264
321.297
361.657
392.598
410.732
413.46
399.352
368.394
322.072
263.254
195.898
124.614
54.1544
-11.0987
-67.5717
-112.807
-145.607
-166.007
-175.103
-174.771
-167.328
-155.193
-140.592
-125.344
-110.739
-97.5126
-85.9111
-75.8105
-66.8703
-58.6901
-50.9422
-43.4631
-36.2941
-29.6681
-23.9539
-19.5675
-16.8735
-16.0906
-17.2229
-20.0255
-24.014
-28.5139
-32.7448
-35.9244
-37.3769
-36.6284
-33.4756
-28.0155
-20.6325
-11.9444
-2.71381
6.26208
14.2678
20.7756
25.5263
28.5732
30.2818
31.2869
32.4109
34.5546
38.5758
45.1695
54.7665
67.4622
82.9835
100.699
119.67
138.737
156.628
172.086
183.99
191.461
193.943
191.254
183.59
171.498
155.807
137.545
117.827
97.7515
78.3011
60.2681
44.2038
30.4013
18.9076
9.56168
2.05017
-4.02706
-9.09193
-13.5311
-17.653
-21.663
-25.6563
-29.6283
-33.4981
-37.1396
-40.4162
-43.2127
-45.4595
-47.1473
-48.329
-49.1094
-49.6259
-50.0216
-50.4179
-50.8894
-51.4464
-52.0292
-52.5133
-52.7275
-52.4808
-51.5946
-49.9349
-47.4404
-44.1395
-40.1554
-35.697
-31.0362
-26.4753
-22.3092
-18.7879
-16.0845
-14.2738
-13.3247
-13.1057
-13.4052
-13.9611
-14.4961
-14.7544
-14.5342
-13.7112
-12.2523
-10.2153
-7.73805
-5.01714
-2.28055
0.242585
2.35081
3.89439
4.79229
5.04063
4.71251
3.9499
2.94888
1.93988
1.16459
0.85114
1.18923
2.30695
4.25123
6.97439
10.329
14.0736
17.8901
21.4131
24.2692
26.1208
26.7109
25.9003
23.6929
20.2441
15.8496
10.9172
5.92306
1.35919
-2.32121
-4.75333
-5.69923
-5.07022
-2.93095
0.51475
4.95407
10.0069
15.2739
20.3838
25.0359
29.0306
32.2858
34.8376
36.8234
38.4518
39.9613
41.574
43.4507
45.6544
48.127
50.6848
53.0327
54.7979
55.5759
54.9853
52.7221
48.6066
42.6165
34.9015
25.7783
15.7058
5.2449
-4.99383
-14.4065
-22.4515
-28.6977
-32.8605
-34.8214
-34.6307
-32.4931
-28.7371
-23.7732
-18.0422
-11.9596
-5.85867
0.0655967
5.80639
11.5868
17.8867
25.4471
35.2428
48.4125
66.1402
89.4885
119.192
155.439
197.667
244.42
293.309
341.093
383.91
417.631
438.31
442.672
428.564
395.314
343.926
277.089
198.977
114.869
30.6278
-47.8934
-115.449
-167.925
-202.735
-219.035
-217.739
-201.348
-173.598
-139.003
-102.327
-68.0571
-39.9463
-20.6639
-11.5941
-12.7947
-23.1108
-40.4184
-61.9589
-84.7195
-105.809
-122.784
-133.893
-138.214
-135.676
-126.977
-113.419
-96.6754
-78.5463
-60.7188
-44.5679
-31.02
-20.4886
-12.8845
-7.6906
-4.08412
-1.08553
2.2899
6.89803
13.3659
22.0351
32.9508
45.8914
60.4291
76.0077
92.0241
107.9
123.137
137.344
150.251
161.693
171.588
179.906
186.646
191.812
195.405
197.425
197.88
196.795
194.226
190.265
185.034
178.675
171.332
163.13
154.161
144.474
134.079
122.965
111.12
98.5684
85.3958
71.7772
57.9873
44.397
31.4512
19.6315
9.40544
1.17172
-4.79249
-8.37308
-9.64296
-8.86399
-6.46591
-3.00447
0.896027
4.60827
7.56726
9.3272
9.60313
8.29286
5.47726
1.40014
-3.56897
-8.98362
-14.3745
-19.3018
-23.401
-26.4156
-28.2159
-28.8014
-28.2881
-26.8838
-24.8535
-22.4826
-20.0392
-17.7439
-15.7472
-14.1196
-12.853
-11.8731
-11.0604
-10.2757
-9.38696
-8.29417
-6.9476
-5.35894
-3.60316
-1.81166
-0.157635
1.16414
1.96053
2.06356
1.35147
-0.234501
-2.67946
-5.89078
-9.7012
-13.8784
-18.1409
-22.1781
-25.6738
-28.3316
-29.8985
-30.1876
-29.0953
-26.6136
-22.8347
-17.9477
-12.2272
-6.01394
0.311516
6.35878
11.7596
16.1984
19.4378
21.3371
21.862
21.0839
19.17
16.3649
12.967
9.3012
5.69254
2.442
-0.192038
-2.006
-2.85633
-2.65852
-1.38117
0.962618
4.32461
8.62917
13.7781
19.6514
26.1047
32.9632
40.0158
47.0098
53.6509
59.6091
64.5328
68.071
69.9016
69.7647
67.4936
63.0425
56.5035
48.1115
38.2334
27.3443
15.99
4.74207
-5.8503
-15.3061
-23.2505
-29.4408
-33.778
-36.3024
-37.1747
-36.6458
-35.0188
-32.607
-29.6938
-26.4955
-23.131
-19.5955
-15.7399
-11.2538
-5.65497
1.71064
11.6484
25.0649
42.8792
65.8925
94.6216
129.117
168.788
212.28
257.429
301.327
340.516
371.295
390.116
394.024
381.065
350.625
303.618
242.504
171.116
94.3204
17.5334
-53.8272
-114.901
-161.877
-192.363
-205.581
-202.386
-185.093
-157.15
-122.708
-86.1355
-51.5369
-22.3427
-1.00207
11.1859
14.0969
8.6688
-3.32175
-19.5588
-37.519
-54.7926
-69.3578
-79.7771
-85.3012
-85.8765
-82.0649
-74.896
-65.6753
-55.7794
-46.4629
-38.7023
-33.0909
-29.793
-28.5573
-28.7812
-29.6131
-30.0754
-29.194
-26.1158
-20.2052
-11.1079
1.21868
16.5111
34.2363
53.6533
73.8917
94.0371
113.215
130.666
145.802
158.239
167.818
174.586
178.772
180.74
180.937
179.832
177.868
175.413
172.729
169.948
167.074
163.989
160.476
156.254
151.014
144.465
136.374
126.602
115.134
102.092
87.74
72.4655
56.7545
41.1497
26.2041
12.4299
0.252551
-10.028
-18.262
-24.4597
-28.7836
-31.5258
-33.0725
-33.8598
-34.3272
-34.8733
-35.8184
-37.3786
-39.6534
-42.6264
-46.1791
-50.114
-54.184
-58.1233
-61.6766
-64.6224
-66.7895
-68.0642
-68.39
-67.7608
-66.2097
-63.7972
-60.6
-56.7026
-52.1935
-47.165
-41.7156
-35.9549
-30.0073
-24.0146
-18.1358
-12.5421
-7.40983
-2.90964
0.805825
3.61405
5.43361
6.23277
6.03503
4.92136
3.02914
0.547761
-2.28907
-5.21459
-7.94402
-10.1935
-11.7026
-12.2586
-11.721
-10.0429
-7.28491
-3.61954
0.676959
5.24637
9.68219
13.5724
16.5461
18.3187
18.7278
17.7571
15.5418
12.3564
8.58509
4.67896
1.10486
-1.70682
-3.40953
-3.777
-2.72484
-0.314925
3.25706
7.68919
12.612
17.6335
22.3855
26.5652
29.9683
32.5089
34.225
35.2691
35.8836
36.3656
37.0241
38.1341
39.8938
42.3908
45.5804
49.2811
53.1883
56.9041
59.9827
61.9823
62.5211
61.3265
58.2726
53.4007
46.919
39.1814
30.6478
21.8316
13.2399
5.31622
-1.60854
-7.34941
-11.8811
-15.3312
-17.9536
-20.0871
-22.1046
-24.3587
-27.132
-30.5931
-34.7642
-39.4976
-44.4607
-49.1272
-52.7754
-54.4961
-53.2159
-47.7451
-36.8558
-19.3946
5.57169
38.5901
79.6501
128.032
182.199
239.766
297.559
351.781
398.288
432.953
452.09
452.877
433.743
394.643
337.191
264.601
181.457
93.3065
6.13798
-74.2058
-142.602
-195.144
-229.496
-245.074
-243.02
-225.998
-197.825
-162.997
-126.171
-91.6584
-62.9941
-42.6277
-31.7585
-30.3275
-37.1544
-50.1899
-66.8464
-84.3588
-100.131
-112.028
-118.584
-119.106
-113.68
-103.077
-88.588
-71.8142
-54.4404
-38.023
-23.816
-12.6521
-4.8865
-0.404966
1.31403
1.09493
-0.0637319
-1.12493
-1.13874
0.655572
4.76029
11.3871
20.4611
31.6571
44.4582
58.2291
72.2925
85.9995
98.7877
110.222
120.015
128.031
134.27
138.844
141.941
143.788
144.618
144.638
144.005
142.816
141.1
138.828
135.924
132.28
127.779
122.314
115.803
108.197
99.4852
89.6984
78.9003
67.1862
54.6787
41.5273
27.9092
14.0327
0.139041
-13.4984
-26.5792
-38.7876
-49.8104
-59.3605
-67.2021
-73.1768
-77.2236
-79.3918
-79.8419
-78.835
-76.7102
-73.8524
-70.6549
-67.4803
-64.6256
-62.2942
-60.5804
-59.4649
-58.8257
-58.4588
-58.1092
-57.5074
-56.4071
-54.6197
-52.0425
-48.6774
-44.6363
-40.135
-35.4737
-31.0065
-27.1034
-24.1065
-22.2884
-21.8141
-22.7134
-24.8675
-28.0114
-31.7546
-35.617
-39.0783
-41.6345
-42.8548
-42.4312
-40.2161
-36.2399
-30.7102
-23.989
-16.5543
-8.94896
-1.72438
4.61539
9.66199
13.1392
14.9242
15.0518
13.7035
11.1816
7.87347
4.209
0.61599
-2.52269
-4.90567
-6.33981
-6.75382
-6.19652
-4.81939
-2.84495
-0.525272
1.90321
4.26111
6.45639
8.49769
10.4876
12.5966
15.0213
17.9354
21.4409
25.5321
30.0775
34.8278
39.4496
43.5806
46.8996
49.196
50.4268
50.7483
50.5107
50.2158
50.439
51.7277
54.4933
58.9144
64.8706
71.9218
79.338
86.1809
91.4252
94.1034
93.4522
89.0375
80.8376
69.2708
55.161
39.6457
24.0389
9.66731
-2.29459
-10.9697
-15.8818
-17.0057
-14.7572
-9.92807
-3.57455
3.12226
9.00802
13.1007
14.7163
13.5664
9.82114
4.13649
-2.35613
-8.10058
-11.2104
-9.61087
-1.23043
15.7636
42.6984
80.1239
127.572
183.39
244.689
307.448
366.778
417.342
453.901
471.911
468.102
440.956
391.009
320.924
235.315
140.328
43.0355
-49.2911
-129.941
-193.455
-236.164
-256.523
-255.179
-234.808
-199.71
-155.257
-107.238
-61.2078
-21.8965
7.23612
24.2709
28.8986
22.2975
6.84821
-14.2665
-37.5196
-59.4955
-77.2882
-88.8003
-92.9154
-89.5343
-79.4849
-64.3273
-46.0894
-26.9714
-9.05849
5.92491
16.7924
22.9916
24.6158
22.3388
17.2895
10.8879
4.66406
0.0836517
-1.60404
0.519159
6.96961
17.8375
32.806
51.208
72.1091
94.4082
116.942
138.582
158.324
175.344
189.046
199.077
205.324
207.895
207.086
203.341
197.208
189.294
180.223
170.596
160.959
151.773
143.391
136.039
129.813
124.666
120.421
116.78
113.353
109.693
105.34
99.8746
92.9657
84.4168
74.199
62.4658
49.5488
35.9323
22.2091
9.02321
-2.9937
-13.2859
-21.4278
-27.1643
-30.4308
-31.3529
-30.2257
-27.4751
-23.607
-19.1509
-14.6036
-10.3806
-6.78043
-3.96436
-1.95475
-0.6498
0.147253
0.689357
1.24248
2.04382
3.26668
4.99602
7.21735
9.81968
12.6114
15.3461
17.7558
19.5843
20.6204
20.7223
19.8349
17.9947
15.3245
12.0184
8.31852
4.48841
0.784734
-2.56846
-5.40048
-7.60774
-9.15935
-10.0947
-10.5133
-10.5596
-10.4033
-10.2192
-10.1678
-10.3799
-10.9451
-11.9072
-13.2634
-14.9685
-16.9417
-19.0744
-21.238
-23.2915
-25.0882
-26.4839
-27.3454
-27.5612
-27.0541
-25.794
-23.8103
-21.1992
-18.1262
-14.8193
-11.5526
-8.62075
-6.30684
-4.84597
-4.39102
-4.98487
-6.54412
-8.85749
-11.6002
-14.3633
-16.694
-18.1428
-18.3115
-16.8957
-13.7184
-8.75062
-2.11933
5.89807
14.8894
24.3319
33.6215
42.1054
49.117
54.012
56.2049
55.2073
50.6648
42.3917
30.3993
14.9146
-3.61536
-24.5347
-47.0081
-70.0664
-92.667
-113.762
-132.373
-147.658
-158.973
-165.917
-168.358
-166.436
-160.543
-151.286
-139.43
-125.827
-111.336
-96.7484
-82.7036
-69.6155
-57.6079
-46.4648
-35.6065
-24.1008
-10.7228
5.92971
27.2603
54.4477
88.1881
128.443
174.235
223.54
273.317
319.695
358.327
384.86
395.483
387.466
359.61
312.532
248.74
172.463
89.2623
5.46725
-72.4979
-138.8
-188.813
-219.585
-230.105
-221.336
-196.026
-158.33
-113.291
-66.2537
-22.2869
14.3288
40.4836
54.4643
56.0086
46.1959
27.2024
1.95852
-26.2445
-54.1498
-78.89
-98.2668
-110.93
-116.45
-115.275
-108.604
-98.1774
-86.0248
-74.2027
-64.5416
-58.4374
-56.7037
-59.4981
-66.3276
-76.1264
-87.3971
-98.3935
-107.327
-112.569
-112.834
-107.313
-95.7596
-78.5083
-56.43
-30.8336
-3.32391
24.3668
50.5528
73.7564
92.8392
107.09
116.26
120.549
120.542
117.109
111.28
104.115
96.5841
89.4659
83.2824
78.27
74.3897
71.3692
68.7718
66.0777
62.7682
58.4016
52.6705
45.4369
36.7409
26.786
15.9036
4.50493
-6.97288
-18.1188
-28.5905
-38.1433
-46.6416
-54.054
-60.433
-65.8857
-70.539
-74.5075
-77.8667
-80.6386
-82.7881
-84.2324
-84.8601
-84.5572
-83.2342
-80.8511
-77.436
-73.0931
-68
-62.3939
-56.5486
-50.7453
-45.2429
-40.2498
-35.9035
-32.2598
-29.2921
-26.9018
-24.9373
-23.218
-21.561
-19.8062
-17.8357
-15.5876
-13.0602
-10.3082
-7.43206
-4.56089
-1.83331
0.622241
2.70478
4.35342
5.55404
6.33953
6.7838
6.99077
7.08002
7.17112
7.36861
7.74961
8.35527
9.18706
10.208
11.3485
12.5162
13.6078
14.5226
15.1741
15.5008
15.4724
15.093
14.3987
13.4523
12.3339
11.1297
9.92071
8.77201
7.72593
6.79911
5.98469
5.25937
4.594
3.96566
3.36886
2.82308
2.37486
2.09319
2.05898
2.35025
3.02646
4.11541
5.6062
7.45003
9.56911
11.8716
14.2691
16.6922
19.0995
21.4778
23.831
26.161
28.4421
30.5975
32.481
33.8717
34.4826
33.9843
32.0396
28.3446
22.6688
14.8893
5.01302
-6.81259
-20.3032
-35.0512
-50.5455
-66.1954
-81.3534
-95.3378
-107.457
-117.037
-123.463
-126.225
-124.986
-119.637
-110.366
-97.6858
-82.4293
-65.6903
-48.7012
-32.6562
-18.4995
-6.71101
2.86683
11.1176
19.6164
30.4548
45.9281
68.1214
98.452
137.248
183.441
234.452
286.298
333.949
371.881
394.767
398.196
379.332
337.389
273.861
192.463
98.7882
-0.28179
-97.3294
-185.216
-257.857
-310.852
-341.904
-350.97
-340.155
-313.346
-275.68
-232.885
-190.611
-153.81
-126.247
-110.191
-106.298
-113.701
-130.258
-152.938
-178.266
-202.78
-223.445
-237.968
-244.997
-244.185
-236.128
-222.189
-204.258
-184.457
-164.861
-147.237
-132.852
-122.36
-115.769
-112.491
-111.463
-111.314
-110.556
-107.783
-101.833
-91.9256
-77.7346
-59.4087
-37.537
-13.0675
12.8078
38.7847
63.5821
86.063
105.332
120.798
132.205
139.614
143.371
144.032
142.282
138.85
134.422
129.578
124.736
120.134
115.826
111.707
107.549
103.058
97.9254
91.8817
84.7387
76.4186
66.9654
56.5405
45.4027
33.8776
22.3209
11.08
0.459692
-9.30442
-18.0622
-25.7539
-32.4041
-38.1065
-43.0025
-47.2568
-51.0348
-54.4821
-57.7115
-60.7969
-63.7727
-66.6409
-69.3795
-71.9527
-74.3201
-76.4414
-78.2794
-79.7974
-80.9558
-81.7076
-81.9949
-81.7483
-80.8905
-79.3436
-77.0395
-73.9331
-70.0142
-65.3176
-59.9284
-53.982
-47.6567
-41.1613
-34.718
-28.5436
-22.8304
-17.731
-13.3464
-9.72124
-6.84375
-4.65167
-3.04205
-1.88421
-1.03429
-0.350529
0.292171
0.989165
1.79583
2.72127
3.72696
4.73131
5.62018
6.26281
6.53158
6.32298
5.57689
4.29089
2.5271
0.410019
-1.88482
-4.15002
-6.17077
-7.75105
-8.738
-9.04083
-8.64186
-7.59806
-6.03325
-4.12193
-2.06713
-0.0752918
1.66876
3.02348
3.90641
4.30228
4.26279
3.89846
3.36431
2.84205
2.5219
2.58705
3.20245
4.50852
6.61834
9.61576
13.5518
18.4369
24.2294
30.8205
38.02
45.5484
53.037
60.0433
66.0796
70.6555
73.3285
73.7574
71.75
67.2975
60.5917
52.0182
42.1282
31.5904
21.1289
11.4539
3.19514
-3.15652
-7.29135
-9.10432
-8.69802
-6.36597
-2.55834
2.16698
7.20504
11.9733
15.9868
18.9351
20.7556
21.6954
22.3544
23.6957
27.0164
33.8667
45.9132
64.7488
91.6581
127.361
171.768
223.779
281.179
340.659
397.991
448.361
486.83
508.883
511.003
491.166
449.212
386.999
308.329
218.624
124.402
32.5967
-50.1698
-118.292
-167.754
-196.515
-204.65
-194.24
-169.041
-133.969
-94.4741
-55.8969
-22.8741
1.13196
14.1307
15.704
6.9113
-9.97484
-31.8575
-55.2708
-76.8413
-93.6972
-103.781
-106.033
-100.436
-87.9302
-70.2101
-49.4555
-28.0205
-8.13126
8.37364
20.2321
26.8599
28.3618
25.4583
19.3475
11.5249
3.58632
-2.95981
-6.85123
-7.18662
-3.48882
4.2845
15.7772
30.3087
46.9719
64.7425
82.5849
99.545
114.822
127.816
138.147
145.657
150.383
152.531
152.425
150.468
147.095
142.738
137.788
132.571
127.33
122.209
117.25
112.393
107.491
102.329
96.6548
90.2232
82.8325
74.368
64.8328
54.3673
43.2498
31.8793
20.7404
10.3547
1.22504
-6.22057
-11.6772
-14.9979
-16.2096
-15.5099
-13.2428
-9.8604
-5.87159
-1.78837
1.92652
4.90292
6.89362
7.7887
7.61335
6.51051
4.71151
2.49904
0.167358
-2.01494
-3.83539
-5.15761
-5.92911
-6.17645
-5.98941
-5.49728
-4.84126
-4.14792
-3.50812
-2.96498
-2.51283
-2.10691
-1.68187
-1.17509
-0.550508
0.181932
0.954797
1.64208
2.06906
2.03177
1.32353
-0.235446
-2.76954
-6.32434
-10.8519
-16.2065
-22.1531
-28.3852
-34.5534
-40.2992
-45.2906
-49.2565
-52.0144
-53.4891
-53.7196
-52.8534
-51.1294
-48.8499
-46.3473
-43.947
-41.9336
-40.5225
-39.8406
-39.9197
-40.7
-42.0454
-43.7662
-45.6461
-47.4705
-49.0515
-50.2465
-50.9698
-51.1944
-50.9467
-50.2942
-49.3285
-48.147
-46.8349
-45.4496
-44.0093
-42.4855
-40.802
-38.8387
-36.4415
-33.4376
-29.6556
-24.9499
-19.2255
-12.4634
-4.7403
3.75722
12.7298
21.7738
30.4025
38.0795
44.2621
48.4505
50.239
49.3638
45.7405
39.4881
30.9339
20.597
9.1519
-2.6271
-13.9333
-24.0012
-32.1768
-37.9781
-41.1372
-41.62
-39.6221
-35.5396
-29.9199
-23.3941
-16.5992
-10.0926
-4.26492
0.743054
5.11224
9.39533
14.532
21.8145
32.7914
49.1024
72.2497
103.325
142.728
189.913
243.228
299.878
356.044
407.165
448.371
475.003
483.178
470.304
435.488
379.767
306.123
219.27
125.239
30.7945
-57.2494
-132.718
-190.705
-228.051
-243.627
-238.382
-215.156
-178.294
-133.097
-85.2035
-39.9604
-1.8688
25.8342
41.4172
44.701
36.9194
20.4248
-1.71183
-26.1491
-49.7106
-69.7544
-84.4365
-92.8439
-94.9938
-91.7105
-84.4091
-74.8229
-64.7153
-55.6175
-48.6233
-44.2658
-42.4841
-42.6794
-43.8431
-44.7361
-44.0881
-40.789
-34.0458
-23.4851
-9.19121
8.32146
28.1929
49.3442
70.625
90.9607
109.478
125.592
139.05
149.916
158.522
165.374
171.045
176.067
180.837
185.552
190.186
194.505
198.112
200.528
201.28
199.986
196.43
190.603
182.719
173.189
162.57
151.49
140.564
130.31
121.089
113.056
106.151
100.12
94.5559
88.9717
82.8749
75.8485
67.6189
58.106
47.4464
35.9879
24.2561
12.8946
2.58927
-6.01764
-12.4098
-16.2666
-17.5096
-16.3198
-13.122
-8.5378
-3.31309
1.7713
5.99349
8.77704
9.75854
8.82753
6.13402
2.0629
-2.82046
-7.84605
-12.326
-15.6413
-17.3173
-17.0789
-14.8806
-10.9066
-5.54454
0.664412
7.09142
13.0931
18.0835
21.5954
23.3267
23.1648
21.1894
17.6553
12.9572
7.58289
2.06007
-3.09689
-7.436
-10.6079
-12.3942
-12.7228
-11.6688
-9.44103
-6.35808
-2.81328
0.765551
3.95895
6.39706
7.7955
7.98266
6.91541
4.68155
1.48809
-2.36379
-6.51469
-10.5898
-14.2434
-17.1989
-19.2799
-20.4268
-20.6985
-20.257
-19.3399
-18.2228
-17.179
-16.441
-16.1704
-16.4395
-17.2264
-18.4243
-19.8612
-21.326
-22.5971
-23.4671
-23.7616
-23.3509
-22.1528
-20.1315
-17.2936
-13.6839
-9.38483
-4.51817
0.750339
6.20655
11.5864
16.5804
20.8465
24.0328
25.8072
25.8929
24.1041
20.3759
14.784
7.55023
-0.969103
-10.3102
-19.9421
-29.3139
-37.9045
-45.2663
-51.0597
-55.0728
-57.2267
-57.5666
-56.2407
-53.4708
-49.5183
-44.6479
-39.0901
-33.0043
-26.4401
-19.3003
-11.3067
-1.97609
9.38261
23.6409
41.7793
64.7678
93.3978
128.081
168.642
214.135
262.736
311.738
357.68
396.62
424.52
437.712
433.385
410.009
367.65
308.096
234.788
152.546
67.1073
-15.4454
-89.3117
-149.573
-192.685
-216.815
-221.971
-209.925
-183.945
-148.362
-108.056
-67.893
-32.2117
-4.39572
13.4109
20.4262
17.1852
5.3462
-12.6192
-33.8032
-55.2558
-74.3455
-89.0429
-98.1008
-101.114
-98.467
-91.18
-80.6925
-68.6116
-56.4677
-45.5071
-36.5491
-29.9179
-25.4535
-22.5905
-20.4864
-18.1762
-14.7272
-9.37218
-1.60428
8.77572
21.6594
36.672
53.2425
70.6883
88.2998
105.413
121.459
135.997
148.718
159.431
168.047
174.555
178.995
181.446
182.018
180.846
178.088
173.919
168.529
162.109
154.84
146.874
138.324
129.253
119.672
109.547
98.8155
87.4022
75.249
62.338
48.7141
34.4997
19.9001
5.19716
-9.26792
-23.121
-35.9883
-47.531
-57.4787
-65.6556
-71.9967
-76.552
-79.4771
-81.012
-81.4498
-81.099
-80.2455
-79.1177
-77.8612
-76.5266
-75.0715
-73.3778
-71.281
-68.6074
-65.2124
-61.0151
-56.0231
-50.3432
-44.177
-37.8023
-31.5417
-25.7252
-20.6501
-16.5455
-13.5457
-11.6758
-10.8519
-10.8936
-11.5496
-12.5294
-13.5388
-14.3135
-14.6466
-14.4079
-13.552
-12.116
-10.2081
-7.98768
-5.64255
-3.36398
-1.32388
0.343888
1.55649
2.28843
2.57145
2.48871
2.16436
1.74984
1.40817
1.29739
1.55445
2.28072
3.53048
5.30351
7.543
10.139
12.9378
15.7558
18.3973
20.6733
22.42
23.5148
23.8875
23.5268
22.4798
20.8471
18.7716
16.4253
13.9932
11.6575
9.58355
7.90879
6.7355
6.12774
6.11228
6.68315
7.80869
9.44016
11.5206
13.9927
16.8045
19.9127
23.2821
26.8813
30.6753
34.6152
38.6265
42.5986
46.377
49.761
52.5089
54.3505
55.0069
54.216
51.7608
47.4982
41.3834
33.4882
24.0099
13.2686
1.69386
-10.2006
-21.8508
-32.6841
-42.1638
-49.8353
-55.368
-58.5905
-59.5133
-58.3356
-55.4313
-51.3114
-46.564
-41.7708
-37.4082
-33.74
-30.7151
-27.8877
-24.3783
-18.8955
-9.83303
4.55208
25.8892
55.3948
93.5633
139.9
192.746
249.246
305.482
356.786
398.198
425.029
433.441
420.982
386.975
332.717
261.439
178.03
88.5566
-0.366247
-82.2722
-151.516
-203.844
-236.786
-249.837
-244.405
-223.543
-191.513
-153.241
-113.73
-77.5111
-48.1879
-28.1311
-18.3354
-18.4533
-26.9797
-41.5568
-59.3478
-77.4311
-93.1643
-104.476
-110.06
-109.454
-103.006
-91.7452
-77.1831
-61.0673
-45.1345
-30.8845
-19.405
-11.2623
-6.46724
-4.51433
-4.48295
-5.18395
-5.33019
-3.70815
0.670342
8.45355
19.8837
34.7838
52.5956
72.4599
93.3265
114.079
133.659
151.17
165.961
177.667
186.22
191.819
194.876
195.938
195.608
194.46
192.97
191.47
190.116
188.888
187.611
185.986
183.64
180.178
175.235
168.522
159.864
149.227
136.725
122.625
107.324
91.3238
75.188
59.4995
44.8099
31.5944
20.2131
10.8836
3.66827
-1.52374
-4.91838
-6.84643
-7.70358
-7.90597
-7.84637
-7.85555
-8.17314
-8.93048
-10.1467
-11.7374
-13.5347
-15.3139
-16.8258
-17.8284
-18.1149
-17.5367
-16.018
-13.5614
-10.2466
-6.22153
-1.68855
3.11273
7.92393
12.4866
16.5592
19.9322
22.44
23.9686
24.4604
23.9142
22.3817
19.9606
16.7849
13.0131
8.81681
4.36843
-0.168438
-4.64687
-8.94164
-12.9516
-16.5999
-19.8325
-22.6165
-24.9377
-26.7994
-28.2213
-29.2389
-29.902
-30.2727
-30.4212
-30.4201
-30.3372
-30.2273
-30.1251
-30.0391
-29.949
-29.8065
-29.5404
-29.0648
-28.2902
-27.1348
-25.5362
-23.4596
-20.9037
-17.9025
-14.5239
-10.8659
-7.05103
-3.21998
0.475096
3.87748
6.83366
9.20256
10.8669
11.7469
11.8161
11.1167
9.77293
7.99768
6.09058
4.42345
3.41268
3.4793
4.99936
8.24992
13.3568
20.2514
28.6443
38.0214
47.6668
56.7142
64.2225
69.2705
71.0582
69.0044
62.825
52.5826
38.6977
21.92
3.26038
-16.1065
-34.959
-52.1483
-66.7074
-77.9357
-85.4489
-89.1903
-89.4038
-86.5744
-81.3491
-74.4468
-66.5736
-58.3504
-50.2587
-42.6045
-35.4938
-28.8156
-22.2251
-15.1299
-6.68431
4.19335
18.7657
38.3698
64.2539
97.3636
138.1
186.081
239.961
297.333
354.784
408.095
452.601
483.675
497.277
490.499
462.016
412.386
344.122
261.544
170.386
77.2371
-11.1442
-88.5319
-149.877
-191.805
-212.915
-213.845
-197.098
-166.67
-127.53
-85.0181
-44.2445
-9.5539
15.8774
30.2802
33.3479
26.1183
10.7108
-10.0391
-32.9913
-55.1094
-73.8129
-87.2404
-94.3987
-95.1928
-90.3446
-81.2216
-69.6038
-57.4242
-46.5135
-38.3818
-34.0573
-33.9968
-38.0719
-45.6264
-55.5895
-66.6288
-77.3203
-86.3154
-92.4867
-95.0375
-93.5685
-88.0966
-79.0284
-67.0958
-53.262
-38.6108
-24.2324
-11.1158
-0.0609805
8.38374
13.9533
16.6662
16.7955
14.8167
11.3389
7.02944
2.53908
-1.56276
-4.83742
-7.00687
-7.96255
-7.75454
-6.56434
-4.66615
-2.38252
-0.0400947
2.06933
3.71868
4.76389
5.15017
4.90693
4.13355
2.97891
1.61778
0.227309
-1.03375
-2.04096
-2.71425
-3.02145
-2.97602
-2.62969
-2.06171
-1.36623
-0.63956
0.031248
0.577332
0.953702
1.14145
1.1466
0.996232
0.732611
0.40644
0.0702418
-0.227179
-0.444513
-0.549676
-0.519621
-0.338717
0.00357416
0.51492
1.20157
2.06866
3.1192
4.35221
5.76034
7.32773
9.02872
10.8278
12.6809
14.5383
16.3481
18.0602
19.6306
21.0244
22.218
23.1999
23.9702
24.5387
24.9227
25.1438
25.2262
25.1949
25.0752
24.8943
24.6824
24.4752
24.3142
24.2451
24.3134
24.5557
24.9888
25.5971
26.3217
27.054
27.6353
27.8663
27.5251
26.3933
24.2866
21.0867
16.7678
11.4147
5.22776
-1.48698
-8.34166
-14.9029
-20.7355
-25.448
-28.7346
-30.4072
-30.4148
-28.846
-25.9173
-21.9464
-17.3161
-12.4328
-7.68337
-3.39797
0.180522
2.91535
4.78269
5.8659
6.33866
6.43908
6.438
6.60472
7.17375
8.31545
10.1129
12.5466
15.4884
18.7052
21.8721
24.5963
26.4506
27.0138
25.9166
22.888
17.797
10.685
1.7828
-8.49149
-19.5552
-30.7051
-41.1789
-50.2287
-57.198
-61.5939
-63.1429
-61.8246
-57.876
-51.7642
-44.129
-35.6999
-27.1925
-19.1952
-12.0553
-5.77836
0.0459309
6.27235
14.1688
25.3116
41.4043
64.0277
94.3471
132.813
178.907
230.98
286.229
340.843
390.31
429.872
455.059
462.256
449.194
415.317
361.956
292.273
210.986
123.908
37.3361
-42.5994
-110.573
-162.591
-196.361
-211.441
-209.188
-192.494
-165.37
-132.419
-98.2933
-67.1709
-42.3385
-25.9091
-18.7017
-20.2854
-29.1669
-43.0875
-59.3829
-75.3574
-88.6234
-97.3693
-100.53
-97.8447
-89.8148
-77.5633
-62.6362
-46.7678
-31.6465
-18.7082
-8.98168
-2.99849
-0.773114
-1.84759
-5.38858
-10.3191
-15.4643
-19.6928
-22.0361
-21.7761
-18.4943
-12.0836
-2.72651
9.15247
22.9508
37.9597
53.4351
68.6616
83.0045
95.9473
107.115
116.28
123.359
128.395
131.532
132.985
133
131.826
129.674
126.693
122.95
118.432
113.05
106.67
99.1527
90.3938
80.3717
69.18
57.0471
44.3344
31.5118
19.1136
7.67881
-2.31435
-10.5111
-16.7288
-20.9851
-23.4986
-24.6631
-24.9971
-25.0764
-25.4578
-26.6064
-28.8346
-32.2615
-36.7986
-42.1616
-47.9077
-53.4922
-58.3373
-61.9048
-63.7631
-63.6412
-61.4643
-57.366
-51.6766
-44.8896
-37.6087
-30.4825
-24.134
-19.0923
-15.7354
-14.2494
-14.6108
-16.5918
-19.7894
-23.6748
-27.655
-31.1416
-33.6165
-34.6877
-34.1286
-31.8966
-28.1299
-23.1235
-17.2887
-11.101
-5.04453
0.442241
5.01084
8.43433
10.6223
11.619
11.5852
10.7689
9.46685
7.98446
6.59769
5.52198
4.89126
4.74888
5.05058
5.6781
6.46085
7.20228
7.70719
7.80666
7.37765
6.35563
4.73949
2.58964
0.0204585
-2.81046
-5.71477
-8.48607
-10.9122
-12.7873
-13.9242
-14.1667
-13.4032
-11.579
-8.70776
-4.87952
-0.262509
4.90262
10.3185
15.6571
20.5944
24.8505
28.2299
30.6541
32.1824
33.0123
33.4597
33.9182
34.8017
36.4781
39.2036
43.0688
47.9648
53.5777
59.4125
64.8452
69.1966
71.8169
72.1691
69.9006
64.8921
57.2774
47.4329
35.9374
23.5103
10.9337
-1.02723
-11.6999
-20.564
-27.2904
-31.7562
-34.0356
-34.3694
-33.1184
-30.7068
-27.5621
-24.0548
-20.4443
-16.83
-13.1104
-8.95166
-3.77006
3.2644
13.1936
27.1956
46.4607
72.0179
104.524
144.036
189.81
240.152
292.392
342.982
387.752
422.304
442.506
445.018
427.78
390.385
334.269
262.681
180.431
93.4253
8.06669
-69.4256
-133.673
-180.695
-208.297
-216.24
-206.182
-181.401
-146.344
-106.069
-65.6459
-29.6001
-1.45513
16.5708
23.6925
20.5064
8.78141
-8.87052
-29.393
-49.6991
-67.0482
-79.3442
-85.3253
-84.6327
-77.7618
-65.913
-50.7706
-34.2442
-18.2089
-4.27601
6.3805
13.1251
15.8863
15.1109
11.6618
6.6782
1.41992
-2.88338
-5.16209
-4.60371
-0.711467
6.67575
17.3984
31.0194
46.8866
64.2071
82.1236
99.788
116.425
131.382
144.168
154.469
162.152
167.259
169.976
170.605
169.522
167.135
163.844
160
155.88
151.66
147.411
143.095
138.579
133.659
128.085
121.604
113.993
105.096
94.861
83.3522
70.7652
57.418
43.7292
30.1839
17.2881
5.51879
-4.72552
-13.1676
-19.6813
-24.3043
-27.2307
-28.7849
-29.3778
-29.4521
-29.4236
-29.627
-30.2731
-31.424
-32.9897
-34.7463
-36.3722
-37.4982
-37.7627
-36.865
-34.6089
-30.9317
-25.9145
-19.7756
-12.8475
-5.54389
1.67993
8.36671
14.0942
18.5062
21.3359
22.4225
21.7204
19.3018
15.3543
10.1724
4.14259
-2.27658
-8.58227
-14.2607
-18.8258
-21.8612
-23.0611
-22.2672
-19.4957
-14.9504
-9.01772
-2.24228
4.71727
11.1486
16.3571
19.7394
20.8527
19.4678
15.6018
9.52307
1.72757
-7.11069
-16.2107
-24.7677
-32.0392
-37.4223
-40.5141
-41.1475
-39.399
-35.5681
-30.1324
-23.685
-16.862
-10.2707
-4.4254
0.299696
3.6987
5.73992
6.5516
6.39105
5.6026
4.57065
3.67398
3.2464
3.54764
4.74641
6.91569
10.0391
14.0257
18.7297
23.9726
29.5635
35.3155
41.0571
46.636
51.9173
56.7752
61.0812
64.6915
67.4372
69.1211
69.5244
68.424
65.6206
60.9733
54.4372
46.096
36.1847
25.0953
13.362
1.62461
-9.42901
-19.1352
-26.9337
-32.4421
-35.5141
-36.271
-35.0971
-32.5957
-29.5092
-26.6087
-24.5677
-23.8347
-24.5221
-26.3248
-28.4851
-29.8098
-28.7479
-23.5263
-12.3376
6.43387
33.97
70.7864
116.539
169.9
228.526
289.136
347.71
399.797
440.902
466.938
474.672
462.121
428.855
376.14
306.916
225.588
137.645
49.1537
-33.822
-105.809
-162.45
-200.902
-220.065
-220.623
-204.878
-176.43
-139.725
-99.5335
-60.435
-26.3511
-0.192401
16.3546
22.8827
20.168
9.94546
-5.40472
-23.2164
-40.8927
-56.2156
-67.5747
-74.0955
-75.6588
-72.821
-66.6526
-58.5247
-49.8763
-41.994
-35.8342
-31.9073
-30.2356
-30.3833
-31.5502
-32.7099
-32.7697
-30.7289
-25.813
-17.5671
-5.90124
8.91534
26.3037
45.4576
65.4438
85.3061
104.157
121.253
136.037
148.161
157.475
164.007
167.922
169.478
168.987
166.777
163.17
158.461
152.911
146.744
140.151
133.287
126.275
119.204
112.126
105.059
97.9826
90.8471
83.5773
76.0838
68.2763
60.0772
51.4342
42.3326
32.802
22.9207
12.8139
2.64844
-7.37758
-17.0473
-26.1398
-34.4444
-41.7744
-47.9779
-52.9458
-56.6157
-58.9732
-60.0495
-59.9165
-58.6804
-56.4743
-53.4504
-49.7734
-45.6138
-41.1431
-36.5295
-31.9348
-27.5102
-23.394
-19.7074
-16.5509
-14.0002
-12.1026
-10.8728
-10.2909
-10.3007
-10.8109
-11.6989
-12.8177
-14.0054
-15.0977
-15.9407
-16.4045
-16.3943
-15.859
-14.7952
-13.2469
-11.3006
-9.0756
-6.71274
-4.36044
-2.16129
-0.239906
1.30677
2.41602
3.06239
3.25745
3.04642
2.50253
1.71952
0.803286
-0.136744
-0.995791
-1.68095
-2.11698
-2.25047
-2.05198
-1.51625
-0.660295
0.480394
1.85739
3.41602
5.10264
6.87167
8.69147
10.5484
12.4486
14.4163
16.4911
18.7213
21.1572
23.8438
26.8138
30.0826
33.6452
37.475
41.5251
45.7311
50.0154
54.291
58.4678
62.4566
66.1747
69.5505
72.5268
75.0642
77.1408
78.7511
79.9008
80.6003
80.8556
80.6596
79.9849
78.7796
76.9678
74.4558
71.1422
66.9322
61.7537
55.5721
48.4028
40.3188
31.4526
21.992
12.17
2.25023
-7.49069
-16.7822
-25.3777
-33.0699
-39.7017
-45.172
-49.4351
-52.4934
-54.3848
-55.1624
-54.8694
-53.5079
-51.003
-47.1658
-41.6578
-33.9682
-23.4104
-9.15191
9.71461
34.0548
64.5337
101.427
144.431
192.494
243.724
295.389
344.046
385.807
416.709
433.174
432.471
413.131
375.251
320.612
252.606
175.959
96.2819
19.496
-48.7776
-103.805
-142.216
-162.321
-164.228
-149.753
-122.139
-85.6386
-44.9993
-4.92833
30.3989
57.7366
75.0303
81.5233
77.7078
65.1401
46.1535
23.5112
0.0460189
-21.6692
-39.5856
-52.3515
-59.3836
-60.8385
-57.4991
-50.597
-41.6009
-31.9985
-23.1003
-15.885
-10.9032
-8.24219
-7.55419
-8.13523
-9.04331
-9.2374
-7.71949
-3.66285
3.48718
13.9497
27.5863
43.9213
62.1978
81.4633
100.671
118.789
134.898
148.275
158.451
165.238
168.721
169.234
167.295
163.544
158.663
153.306
148.033
143.265
139.258
136.093
133.689
131.821
130.161
128.312
125.85
122.37
117.518
111.03
102.759
92.7005
80.9995
67.9522
53.9901
39.6507
25.5361
12.2613
0.398315
-9.57751
-17.3343
-22.7165
-25.7594
-26.6843
-25.8737
-23.8289
-21.1161
-18.3058
-15.9136
-14.3487
-13.8756
-14.5929
-16.4317
-19.1724
-22.4778
-25.9383
-29.1238
-31.6367
-33.1597
-33.4927
-32.5759
-30.4952
-27.4701
-23.8256
-19.9508
-16.2501
-13.0918
-10.7618
-9.42651
-9.11198
-9.69967
-10.9413
-12.4903
-13.9461
-14.9056
-15.0166
-14.0248
-11.8112
-8.41454
-4.0368
0.968021
6.1216
10.8626
14.599
16.7671
16.8933
14.6534
9.92327
2.8154
-6.30504
-16.8292
-27.9415
-38.6833
-48.04
-55.0418
-58.8688
-58.9457
-55.0151
-47.1775
-35.8934
-21.9442
-6.35717
9.69808
25.0275
38.5322
49.3147
56.7591
60.5782
60.8213
57.8454
52.255
44.8199
36.3817
27.7625
19.6853
12.7153
7.22673
3.39649
1.22246
0.561003
1.17632
2.79357
5.14769
8.02108
11.2657
14.8072
18.6313
22.7564
27.1971
31.9252
36.8368
41.7305
46.3025
50.1609
52.8589
53.9421
53.0055
49.7506
44.0355
35.9095
25.6278
13.6419
0.568196
-12.8628
-25.87
-37.6912
-47.6491
-55.2084
-60.0179
-61.9332
-61.0212
-57.5461
-51.9404
-44.7634
-36.6503
-28.2502
-20.1553
-12.8186
-6.4634
-0.993607
4.08382
9.70201
17.2212
28.3386
44.9091
68.6805
100.966
142.297
192.115
248.562
308.445
367.38
420.165
461.313
485.712
489.301
469.676
426.524
361.813
279.692
186.122
88.2588
-6.31407
-90.4155
-158.044
-205.008
-229.325
-231.353
-213.644
-180.546
-137.612
-90.9061
-46.2878
-8.76567
18.0029
32.0182
33.0244
22.3822
2.75709
-22.323
-48.9783
-73.4869
-92.7314
-104.533
-107.84
-102.761
-90.4483
-72.8617
-52.4518
-31.8042
-13.2972
1.18884
10.4784
14.203
12.7962
7.38829
-0.377457
-8.57986
-15.2724
-18.7217
-17.6049
-11.1443
0.82993
17.8912
39.0943
63.1056
88.3655
113.263
136.301
156.238
172.187
183.67
190.621
193.351
192.472
188.794
183.218
176.629
169.796
163.305
157.517
152.556
148.325
144.555
140.86
136.807
131.982
126.044
118.769
110.067
99.9872
88.7
76.473
63.6352
50.5419
37.5423
24.9536
13.0426
2.01557
-7.98457
-16.8754
-24.6281
-31.2581
-36.8149
-41.3719
-45.0166
-47.8429
-49.944
-51.4076
-52.3121
-52.7247
-52.7009
-52.2849
-51.5108
-50.4037
-48.981
-47.253
-45.223
-42.8881
-40.2394
-37.2658
-33.9581
-30.3167
-26.3593
-22.1305
-17.7082
-13.2072
-8.77752
-4.59681
-0.856739
2.25502
4.57535
5.98608
6.43121
5.9286
4.57408
2.53719
0.0486538
-2.61904
-5.17589
-7.34078
-8.86719
-9.56566
-9.32077
-8.10128
-5.96275
-3.04254
0.452088
4.26164
8.09633
11.6607
14.6788
16.9185
18.2118
18.4711
17.6978
15.9828
13.4988
10.4833
7.21419
3.98101
1.05311
-1.34953
-3.07984
-4.07771
-4.37241
-4.07258
-3.34533
-2.38745
-1.39312
-0.523084
0.12024
0.508038
0.688868
0.780684
0.952722
1.40036
2.317
3.86736
6.16612
9.26468
13.1474
17.7368
22.906
28.4954
34.3295
40.2313
46.0314
51.5701
56.6938
61.2469
65.0634
67.9607
69.74
70.1954
69.1308
66.3854
61.8615
55.5518
47.5605
38.1137
27.5564
16.3342
4.96203
-6.01758
-16.0812
-24.7709
-31.735
-36.7569
-39.77
-40.8563
-40.2286
-38.1977
-35.128
-31.3855
-27.2818
-23.0181
-18.6343
-13.9667
-8.61812
-1.94819
6.91055
19.0017
35.4526
57.337
85.497
120.338
161.621
208.294
258.387
309.028
356.594
396.995
426.088
440.163
436.436
413.483
371.539
312.607
240.353
159.786
76.7658
-2.60908
-72.6503
-128.678
-167.498
-187.693
-189.705
-175.692
-149.199
-114.683
-76.9617
-40.6593
-9.71103
13.0105
25.9145
28.7429
22.4579
8.99682
-9.06514
-28.8948
-47.7721
-63.408
-74.1758
-79.2364
-78.5513
-72.7957
-63.1907
-51.2844
-38.7155
-26.9884
-17.289
-10.3587
-6.43709
-5.27376
-6.20082
-8.25132
-10.3047
-11.2391
-10.0709
-6.06693
1.18193
11.7307
25.2929
41.2897
58.9286
77.2967
95.4604
112.558
127.873
140.894
151.337
159.146
164.475
167.647
169.093
169.299
168.741
167.834
166.891
166.091
165.469
164.918
164.205
162.997
160.902
157.51
152.441
145.389
136.166
124.732
111.216
95.9192
79.3012
61.9512
44.5412
27.7709
12.3064
-1.27829
-12.5515
-21.26
-27.3459
-30.9436
-32.3567
-32.0183
-30.4401
-28.1555
-25.6657
-23.3929
-21.6465
-20.6055
-20.3169
-20.7103
-21.6232
-22.8351
-24.104
-25.2003
-25.9355
-26.1805
-25.8742
-25.0218
-23.683
-21.9549
-19.9512
-17.7817
-15.5354
-13.2692
-11.0039
-8.7276
-6.40517
-3.99251
-1.45269
1.22878
4.03203
6.89653
9.72144
12.3729
14.6972
16.5384
17.7568
18.2476
17.9551
16.8815
15.0893
12.6972
9.86862
6.79684
3.68672
0.736171
-1.88078
-4.02747
-5.6136
-6.59918
-6.99339
-6.84927
-6.25486
-5.32237
-4.17632
-2.94201
-1.73526
-0.654082
0.227316
0.861933
1.23095
1.34244
1.22809
0.93838
0.536693
0.0928126
-0.323487
-0.648227
-0.82779
-0.821783
-0.603888
-0.160565
0.51215
1.41325
2.54192
3.9022
5.50621
7.37522
9.53789
12.026
14.8674
18.0779
21.6511
25.5489
29.6932
33.9601
38.1776
42.1293
45.5635
48.2085
49.794
50.0756
48.8614
46.0367
41.5838
35.594
28.2689
19.911
10.9028
1.67673
-7.32003
-15.6637
-22.989
-29.0179
-33.5787
-36.6138
-38.1744
-38.4055
-37.5208
-35.771
-33.4076
-30.6437
-27.6143
-24.3351
-20.6656
-16.2758
-10.626
-2.96357
7.65079
22.2809
42.0091
67.7865
100.247
139.507
184.969
235.185
287.791
339.57
386.646
424.807
449.945
458.539
448.143
417.789
368.238
302.043
223.384
137.704
51.1646
-29.9916
-100.103
-154.683
-190.873
-207.699
-206.095
-188.707
-159.509
-123.276
-85.0018
-49.3238
-20.0348
0.268141
10.3628
10.4002
1.73743
-13.3596
-32.0948
-51.5464
-69.0446
-82.4765
-90.4888
-92.5712
-89.0237
-80.8233
-69.4163
-56.4724
-43.6329
-32.2889
-23.4131
-17.4643
-14.3686
-13.575
-14.171
-15.0367
-15.016
-13.0775
-8.4472
-0.694866
10.2316
24.0247
40.0807
57.5946
75.6719
93.4382
110.134
125.186
138.239
149.164
158.034
165.071
170.593
174.947
178.451
181.351
183.796
185.823
187.367
188.286
188.383
187.445
185.269
181.69
176.6
169.955
161.786
152.189
141.33
129.427
116.746
103.586
90.2658
77.1062
64.4161
52.4754
41.5193
31.7264
23.2096
16.0123
10.1096
5.41507
1.79278
-0.92739
-2.93156
-4.40333
-5.50662
-6.3717
-7.08594
-7.69056
-8.18352
-8.52859
-8.66921
-8.54527
-8.11042
-7.3472
-6.27761
-4.96732
-3.52283
-2.08161
-0.796874
0.181211
0.72494
0.746539
0.211131
-0.856607
-2.37304
-4.20336
-6.17555
-8.09876
-9.78366
-11.0624
-11.8056
-11.9348
-11.4286
-10.3226
-8.70328
-6.69719
-4.45761
-2.14988
0.0620941
2.02715
3.61518
4.72235
5.27348
5.22256
4.55186
3.27069
1.41411
-0.958163
-3.76285
-6.89456
-10.2282
-13.6231
-16.9279
-19.9886
-22.6568
-24.7989
-26.3049
-27.0965
-27.1325
-26.4113
-24.9704
-22.8824
-20.248
-17.1875
-13.8296
-10.3016
-6.71977
-3.18076
0.243786
3.51045
6.6042
9.53553
12.3348
15.0443
17.7092
20.3678
23.0431
25.7359
28.4209
31.0455
33.5324
35.7848
37.6948
39.1527
40.0578
40.3295
39.9156
38.8
37.0058
34.5957
31.6669
28.3427
24.7595
21.0524
17.3388
13.7043
10.1926
6.80114
3.4844
0.164908
-3.24919
-6.84223
-10.6683
-14.7315
-18.9723
-23.2634
-27.4156
-31.1927
-34.3346
-36.5817
-37.6969
-37.4781
-35.755
-32.3661
-27.1196
-19.7421
-9.83053
3.17652
19.988
41.397
68.1571
100.806
139.455
183.584
231.877
282.146
331.381
375.936
411.853
435.283
442.961
432.662
403.558
356.443
293.759
219.418
138.452
56.5073
-20.7267
-88.0994
-141.509
-178.28
-197.375
-199.411
-186.494
-161.905
-129.682
-94.1417
-59.4253
-29.0896
-5.80467
8.82669
14.3166
11.215
0.929345
-14.5288
-32.8331
-51.6326
-68.8089
-82.6779
-92.1183
-96.622
-96.2708
-91.6476
-83.7018
-73.5862
-62.4889
-51.4803
-41.392
-32.7415
-25.706
-20.1466
-15.6731
-11.7381
-7.7429
-3.14075
2.4795
9.33965
17.4551
26.6552
36.6351
47.0286
57.4889
67.7594
77.7237
87.4232
97.038
106.835
117.088
127.992
139.575
151.633
163.708
175.095
184.911
192.192
196.02
195.663
190.693
181.086
167.255
150.039
130.626
110.417
90.8602
73.2715
58.6603
47.5971
40.1379
35.8186
33.7236
32.6199
31.1393
27.9851
22.1326
12.9951
0.530755
-14.7271
-31.7223
-49.004
-64.9145
-77.8099
-86.2834
-89.3599
-86.6355
-78.3431
-65.3344
-48.9836
-31.0247
-13.3452
2.23519
14.1737
21.3741
23.2976
20.0026
12.1131
0.721167
-12.7596
-26.7698
-39.786
-50.4865
-57.8826
-61.4022
-60.9194
-56.7314
-49.49
-40.0997
-29.5974
-19.0299
-9.34271
-1.29236
4.61213
8.1343
9.30387
8.38324
5.8136
2.14874
-2.01497
-6.10489
-9.62822
-12.2133
-13.6338
-13.815
-12.8239
-10.8462
-8.15337
-5.06524
-1.91205
1.00016
3.41735
5.15644
6.11471
6.26993
5.67286
4.43437
2.71003
0.684506
-1.44233
-3.46668
-5.18973
-6.42481
-7.00418
-6.78657
-5.66627
-3.58378
-0.537227
3.40721
8.10835
13.3492
18.8443
24.257
29.2254
33.3964
36.4626
38.1982
38.4893
37.352
34.9369
31.5177
27.464
23.2025
19.1705
15.7672
13.3097
11.998
11.8935
12.9133
14.8383
17.3356
19.9891
22.3373
23.9118
24.2764
23.0628
20.002
14.9502
7.90807
-0.968306
-11.3654
-22.8214
-34.7465
-46.4559
-57.2148
-66.2916
-73.0184
-76.8502
-77.4185
-74.5694
-68.3807
-59.1493
-47.3465
-33.5391
-18.2822
-1.99732
15.146
33.3174
53.0531
75.2017
100.774
130.708
165.57
205.258
248.743
293.945
337.76
376.279
405.195
420.322
418.193
396.612
355.087
295.067
219.93
134.716
45.6323
-40.6083
-117.523
-179.581
-222.801
-245.167
-246.791
-229.823
-198.116
-156.712
-111.197
-67.0426
-28.9904
-0.568532
16.2125
20.9593
14.7919
0.0657767
-20.0325
-41.9549
-62.2632
-78.0435
-87.218
-88.725
-82.5581
-69.6737
-51.7895
-31.1099
-10.0169
9.2331
24.7716
35.3138
40.2712
39.7762
34.6237
26.1442
16.0261
6.11212
-1.81049
-6.20072
-5.9195
-0.33543
10.6276
26.5033
46.3515
68.8745
92.5646
115.868
137.345
155.808
170.429
180.797
186.926
189.216
188.373
185.288
180.918
176.146
171.679
167.96
165.127
163.012
161.184
159.022
155.813
150.862
143.599
133.66
120.951
105.672
88.3072
69.5762
50.3624
31.6211
14.2802
-0.853042
-13.1702
-22.3156
-28.2111
-31.0495
-31.2598
-29.449
-26.328
-22.6313
-19.0402
-16.1163
-14.2541
-13.655
-14.3254
-16.0956
-18.6572
-21.6125
-24.5291
-26.9939
-28.6593
-29.2784
-28.7243
-26.9948
-24.2009
-20.5444
-16.2863
-11.7129
-7.10274
-2.69948
1.3071
4.7904
7.6869
9.98812
11.7271
12.9622
13.7614
14.1884
14.2941
14.112
13.6591
12.9399
11.9542
10.7046
9.20417
7.48156
5.58435
3.57933
1.55062
-0.403781
-2.17697
-3.65909
-4.74455
-5.34049
-5.37651
-4.81525
-3.66294
-1.97829
0.121913
2.46249
4.81635
6.91848
8.48718
9.2511
8.97947
7.51246
4.78786
0.860639
-4.08788
-9.75345
-15.726
-21.52
-26.6154
-30.5056
-32.7476
-33.0073
-31.0962
-26.9929
-20.848
-12.9709
-3.79965
6.14113
16.2909
26.1048
35.1004
42.8952
49.2294
53.9738
57.1222
58.7698
59.0832
58.2659
56.5243
54.0403
50.9532
47.3538
43.2895
38.7794
33.8353
28.4842
22.7876
16.854
10.8418
4.95218
-0.587633
-5.54719
-9.71907
-12.9439
-15.1311
-16.2723
-16.4454
-15.8099
-14.5908
-13.0506
-11.4479
-9.98017
-8.71222
-7.49513
-5.88816
-3.10211
2.01277
10.9122
25.2216
46.5166
76.0386
114.38
161.193
214.977
273.004
331.408
385.475
430.085
460.283
471.891
462.085
429.84
376.184
304.207
218.817
126.266
33.5109
-52.5209
-125.658
-181.118
-215.971
-229.372
-222.556
-198.59
-161.939
-117.891
-71.9312
-29.1376
6.3329
31.6099
45.2974
47.4748
39.5266
23.8374
3.40018
-18.6054
-39.2126
-55.9969
-67.3041
-72.3586
-71.2527
-64.8292
-54.4845
-41.9243
-28.9059
-17.0002
-7.40148
-0.80123
2.66235
3.38122
2.18929
0.225461
-1.23171
-0.935341
2.17314
8.83951
19.4163
33.8323
51.6111
71.934
93.7354
115.819
136.983
156.133
172.38
185.114
194.038
199.171
200.817
199.515
195.956
190.902
185.101
179.206
173.717
168.939
164.962
161.67
158.767
155.826
152.344
147.808
141.767
133.879
123.966
112.035
98.2829
83.0845
66.9546
50.4988
34.3543
19.1284
5.34294
-6.61113
-16.5022
-24.2681
-30.0079
-33.9556
-36.4423
-37.8501
-38.5644
-38.9305
-39.2193
-39.6051
-40.1577
-40.8486
-41.5694
-42.1595
-42.4382
-42.2379
-41.4323
-39.9573
-37.822
-35.1078
-31.9583
-28.5596
-25.1157
-21.8224
-18.8431
-16.2889
-14.2078
-12.5809
-11.328
-10.3202
-9.39836
-8.39438
-7.1533
-5.55368
-3.5242
-1.0549
1.79807
4.91465
8.1202
11.2011
13.9262
16.0714
17.4471
17.9229
17.4492
16.0708
13.9294
11.2551
8.34396
5.52526
3.12082
1.40151
0.547289
0.616647
1.53078
3.07596
4.92512
6.67694
7.90823
8.23312
7.36128
5.14693
1.62142
-2.99615
-8.31259
-13.798
-18.8425
-22.8252
-25.1874
-25.4992
-23.5125
-19.192
-12.7226
-4.49069
4.95723
14.9724
24.8715
34.0057
41.8227
47.9152
52.0507
54.1807
54.4291
53.0632
50.4509
47.0107
43.1608
39.2715
35.628
32.4049
29.6553
27.315
25.2201
23.1368
20.7993
17.9524
14.3923
10.0021
4.77781
-1.16041
-7.57145
-14.1121
-20.3695
-25.9036
-30.2959
-33.1975
-34.3717
-33.7237
-31.3135
-27.3455
-22.133
-16.0376
-9.38664
-2.37618
5.02619
13.1622
22.7262
34.7508
50.5198
71.4043
98.6285
132.994
174.597
222.595
275.059
328.978
380.411
424.818
457.516
474.232
471.663
447.971
403.134
339.101
259.702
170.327
77.4089
-12.2439
-92.1561
-156.867
-202.489
-227.07
-230.739
-215.592
-185.377
-144.993
-99.8944
-55.4641
-16.4409
13.5408
32.2492
38.9673
34.4231
20.5592
0.183076
-23.4475
-47.052
-67.7121
-83.175
-92.0451
-93.8524
-89.0033
-78.6298
-64.3676
-48.0969
-31.6817
-16.7406
-4.47248
4.4451
9.88182
12.2089
12.1956
10.8682
9.35186
8.71913
9.8619
13.4006
19.6374
28.5535
39.8461
52.9937
67.3398
82.1804
96.8445
110.758
123.487
134.752
144.424
152.497
159.052
164.214
168.106
170.82
172.395
172.81
171.994
169.845
166.252
161.127
154.428
146.167
136.427
125.351
113.138
100.028
86.291
72.2168
58.1044
44.2579
30.9814
18.5712
7.30586
-2.57052
-10.8682
-17.4744
-22.3735
-25.6604
-27.5433
-28.3323
-28.4133
-28.2103
-28.1382
-28.5546
-29.715
-31.7388
-34.5919
-38.0876
-41.9081
-45.6427
-48.8397
-51.0644
-51.9563
-51.2772
-48.9454
-45.0493
-39.8414
-33.7099
-27.1348
-20.6316
-14.6912
-9.72244
-6.00627
-3.66634
-2.65995
-2.79049
-3.73927
-5.11206
-6.49399
-7.50541
-7.85107
-7.35659
-5.98746
-3.84861
-1.16494
1.7541
4.56065
6.91895
8.55281
9.28364
9.05349
7.93011
6.09319
3.80425
1.36482
-0.930393
-2.83783
-4.19974
-4.96376
-5.18459
-5.00797
-4.64031
-4.30949
-4.22355
-4.53421
-5.31058
-6.527
-8.06597
-9.73511
-11.2948
-12.4921
-13.0952
-12.9243
-11.8742
-9.92558
-7.14519
-3.67374
0.295116
4.54207
8.85145
13.0384
16.9697
20.5765
23.8555
26.8609
29.6869
32.4446
35.2358
38.1285
41.1367
44.2092
47.2276
50.0152
52.356
54.0202
54.7938
54.5078
53.0618
50.4406
46.7192
42.0571
36.6821
30.8655
24.8932
19.0362
13.5235
8.52303
4.1308
0.37092
-2.79467
-5.44819
-7.69223
-9.6232
-11.3048
-12.7434
-13.8677
-14.5118
-14.4041
-13.1616
-10.2899
-5.19281
2.80764
14.4357
30.4076
51.3551
77.7276
109.676
146.927
188.667
233.456
279.192
323.165
362.204
392.914
412.014
416.706
405.059
376.326
331.159
271.668
201.318
124.643
46.8325
-26.7822
-91.2653
-142.576
-177.965
-196.222
-197.742
-184.411
-159.328
-126.41
-89.9178
-53.9847
-22.191
2.76346
19.2555
26.7909
25.9199
18.0379
5.10954
-10.6421
-27.0375
-42.1956
-54.7147
-63.7648
-69.0898
-70.932
-69.8994
-66.8032
-62.4914
-57.7049
-52.973
-48.5573
-44.4484
-40.4046
-36.0239
-30.833
-24.3772
-16.2996
-6.39897
5.33923
18.7389
33.4546
49.0128
64.8658
80.4513
95.2503
108.836
120.911
131.324
140.074
147.289
153.201
158.097
162.273
165.981
169.385
172.528
175.312
177.5
178.737
178.594
176.623
172.426
165.719
156.389
144.53
130.456
114.686
97.8983
80.8641
64.3649
49.1067
35.6405
24.3017
15.1755
8.09564
2.6752
-1.63367
-5.45899
-9.41836
-14.0307
-19.6415
-26.3721
-34.0982
-42.46
-50.9042
-58.7504
-65.2762
-69.8102
-71.8218
-70.9984
-67.2982
-60.9735
-52.5585
-42.8239
-32.6999
-23.177
-15.1949
-9.53274
-6.71286
-6.93178
-10.0273
-15.4881
-22.5056
-30.0642
-37.0587
-42.4254
-45.2697
-44.9749
-41.2771
-34.2976
-24.528
-12.7714
-0.0466202
12.5305
23.8746
33.0499
39.3681
42.4524
42.2626
39.0805
33.4576
26.1363
17.9535
9.7401
2.22869
-4.01962
-8.66171
-11.5878
-12.9053
-12.8961
-11.9531
-10.5073
-8.95595
-7.60268
-6.61745
-6.02245
-5.7046
-5.45162
-5.00489
-4.11942
-2.62075
-0.448853
2.31815
5.46459
8.66196
11.5141
13.6158
14.6163
14.2785
12.5258
9.46903
5.41136
0.827832
-3.677
-7.4297
-9.7599
-10.076
-7.9362
-3.10828
4.38911
14.2674
25.9748
38.7296
51.5793
63.4814
73.3995
80.4051
83.7748
83.0717
78.1988
69.4195
57.3391
42.8496
27.0428
11.1018
-3.81724
-16.698
-26.7593
-33.5215
-36.8365
-36.8799
-34.106
-29.1747
-22.859
-15.9465
-9.14419
-2.99883
2.16346
6.2744
9.53853
12.4282
15.6613
20.1625
27.0079
37.3492
52.3128
72.8726
99.6956
132.973
172.257
216.323
263.111
309.754
352.733
388.152
412.122
421.208
412.879
385.907
340.635
279.082
204.84
122.787
38.6263
-41.6851
-112.549
-169.305
-208.702
-229.201
-231.09
-216.373
-188.481
-151.823
-111.255
-71.5171
-36.7251
-9.96561
6.95928
13.6141
10.8416
0.526686
-14.7462
-32.0914
-48.7196
-62.2853
-71.1436
-74.491
-72.3827
-65.6346
-55.6327
-44.0841
-32.7447
-23.1645
-16.4811
-13.2854
-13.5717
-16.7719
-21.8621
-27.523
-32.3265
-34.9247
-34.2149
-29.463
-20.3721
-7.09343
9.8166
29.4832
50.828
72.6951
93.9715
113.687
131.089
145.674
157.199
165.658
171.232
174.238
175.071
174.145
171.85
168.516
164.394
159.648
154.358
148.526
142.099
134.988
127.091
118.316
108.601
97.9381
86.3848
74.0717
61.2047
48.0568
34.9531
22.2476
10.2959
-0.574643
-10.0934
-18.0709
-24.4149
-29.1387
-32.3575
-34.2763
-35.1676
-35.3434
-35.1221
-34.7955
-34.5977
-34.6807
-35.1
-35.8103
-36.6749
-37.4858
-37.9938
-37.9439
-37.1127
-35.3429
-32.5692
-28.8346
-24.2921
-19.1937
-13.8656
-8.67448
-3.98648
-0.126431
2.65966
4.233
4.57801
3.80398
2.13205
-0.130721
-2.6269
-4.98953
-6.8831
-8.04004
-8.28816
-7.56641
-5.92723
-3.52582
-0.598154
2.56945
5.67507
8.43619
10.6209
12.0715
12.7188
12.585
11.7754
10.4616
8.85652
7.18624
5.66183
4.45398
3.67418
3.36401
3.49378
3.97005
4.6507
5.36534
5.93791
6.20897
6.05474
5.40137
4.23326
2.59552
0.59092
-1.62756
-3.86762
-5.91083
-7.52746
-8.49186
-8.5979
-7.67349
-5.59325
-2.28847
2.24671
7.95346
14.711
22.3433
30.6294
39.3142
48.119
56.7495
64.901
72.2602
78.5076
83.3211
86.3859
87.4113
86.1545
82.4511
76.2466
67.6234
56.8199
44.2331
30.4045
15.9881
1.70203
-11.7301
-23.642
-33.4833
-40.8677
-45.6032
-47.7029
-47.3728
-44.9811
-41.0098
-35.9968
-30.4717
-24.893
-19.5878
-14.7006
-10.1505
-5.60093
-0.445424
6.18404
15.3785
28.3738
46.4253
70.637
101.752
139.926
184.526
233.974
285.707
336.256
381.484
416.961
438.44
442.391
426.501
390.078
334.281
262.144
178.357
88.8399
0.152274
-81.1905
-149.403
-200.031
-230.397
-239.828
-229.654
-202.975
-164.244
-118.713
-71.8244
-28.6197
6.7658
31.4688
44.0922
44.718
34.7537
16.6422
-6.51557
-31.378
-54.7643
-73.9987
-87.1608
-93.2241
-92.0773
-84.4375
-71.6766
-55.5901
-38.1406
-21.2089
-6.38033
5.2121
12.9765
16.8798
17.4009
15.4303
12.1347
8.80273
6.6909
6.88442
10.1862
17.042
27.5077
41.2572
57.6305
75.7121
94.4336
112.686
129.433
143.807
155.193
163.266
168.011
169.695
168.814
166.016
162.009
157.469
152.954
148.847
145.316
142.313
139.598
136.792
133.44
129.088
123.348
115.955
106.801
95.9472
83.6155
70.1581
56.0161
41.6704
27.5929
14.2039
1.83954
-9.26602
-18.9848
-27.2851
-34.2108
-39.8542
-44.3264
-47.7312
-50.1454
-51.609
-52.1263
-51.6756
-50.2275
-47.7659
-44.3097
-39.9296
-34.7589
-28.9944
-22.8882
-16.731
-10.8282
-5.47386
-0.923539
2.6283
5.06472
6.35423
6.54948
5.77753
4.22328
2.10863
-0.329857
-2.86212
-5.28241
-7.42233
-9.15846
-10.4146
-11.1596
-11.4013
-11.1783
-10.5515
-9.59499
-8.3886
-7.01217
-5.54147
-4.04601
-2.58798
-1.22201
0.00492127
1.05387
1.89472
2.50758
2.8843
3.02995
2.96361
2.71806
2.33803
1.87692
1.39215
0.939673
0.568202
0.314236
0.198481
0.224428
0.379389
0.637966
0.967472
1.33457
1.71208
2.08494
2.45433
2.83921
3.2751
3.81004
4.49848
5.39396
6.54179
7.97276
9.6989
11.7118
13.9838
16.4708
19.1177
21.8633
24.6451
27.4027
30.0799
32.6235
34.9824
37.1044
38.9334
40.4085
41.4632
42.0273
42.031
41.4098
40.1111
38.1008
35.3693
31.9361
27.8528
23.2029
18.0993
12.6791
7.09505
1.50704
-3.9287
-9.06886
-13.791
-17.9985
-21.622
-24.6163
-26.9522
-28.6038
-29.5288
-29.6427
-28.7868
-26.6929
-22.9487
-16.9733
-8.01454
4.82139
22.4973
45.9259
75.8085
112.446
155.545
204.057
256.078
308.847
358.869
402.166
434.633
452.484
452.716
433.532
394.666
337.545
265.265
182.366
94.4303
7.5416
-72.3179
-139.87
-191.061
-223.442
-236.366
-230.972
-209.985
-177.341
-137.706
-95.9429
-56.5882
-23.4107
0.915165
14.9841
18.6774
13.0338
0.00175796
-17.8872
-37.8779
-57.3389
-74.056
-86.4434
-93.6536
-95.5824
-92.7792
-86.282
-77.4067
-67.5225
-57.8453
-49.2755
-42.2984
-36.9566
-32.8907
-29.4366
-25.7604
-21.0075
-14.4427
-5.56192
5.83891
19.6427
35.4373
52.5793
70.2844
87.728
104.141
118.891
131.534
141.844
149.807
155.591
159.5
161.917
163.246
163.854
164.033
163.969
163.727
163.251
162.379
160.859
158.39
154.649
149.338
142.221
133.16
122.148
109.324
94.9776
79.5375
63.5426
47.6001
32.3338
18.3289
6.07728
-4.06656
-11.9179
-17.476
-20.9193
-22.5827
-22.919
-22.4492
-21.7062
-21.1789
-21.2622
-22.217
-24.1461
-26.9867
-30.5221
-34.41
-38.2248
-41.5095
-43.8313
-44.8325
-44.2744
-42.0645
-38.2687
-33.1035
-26.9135
-20.1346
-13.2503
-6.74503
-1.06038
3.44204
6.50771
8.00534
7.93154
6.40508
3.65206
-0.0161559
-4.23008
-8.59249
-12.7097
-16.2218
-18.8291
-20.3142
-20.5561
-19.5367
-17.339
-14.1362
-10.1743
-5.74903
-1.17903
3.22077
7.16471
10.4179
12.8123
14.2568
14.7405
14.3297
13.1595
11.4195
9.33685
7.15493
5.11182
3.41841
2.23886
1.67493
1.75607
2.43628
3.59866
5.06728
6.62583
8.04129
9.09071
9.5885
9.41163
8.51993
6.96895
4.91308
2.59763
0.339265
-1.50398
-2.57075
-2.53846
-1.16469
1.67732
5.97379
11.5598
18.1249
25.2346
32.366
38.9532
44.438
48.3197
50.1988
49.8109
47.0478
41.9636
34.7683
25.8073
15.5321
4.46316
-6.85028
-17.8709
-28.1108
-37.1628
-44.7237
-50.6071
-54.7462
-57.1866
-58.0704
-57.6141
-56.0839
-53.7686
-50.9546
-47.9025
-44.8249
-41.8655
-39.0764
-36.3937
-33.6107
-30.3521
-26.055
-19.9637
-11.1505
1.42935
18.8406
42.0298
71.6532
107.889
150.261
197.506
247.516
297.39
343.603
382.291
409.636
422.299
417.85
395.136
354.524
297.977
228.949
152.092
72.8135
-3.25951
-70.8551
-125.586
-164.378
-185.738
-189.842
-178.432
-154.543
-122.1
-85.4465
-48.8559
-16.0905
9.94182
27.4049
35.6068
34.9357
26.6787
12.7584
-4.57199
-23.0336
-40.5897
-55.6477
-67.179
-74.75
-78.4732
-78.8919
-76.8234
-73.1836
-68.8213
-64.3827
-60.223
-56.3737
-52.5671
-48.3088
-42.985
-35.9866
-26.8274
-15.2414
-1.2421
14.8623
32.4991
50.8997
69.1972
86.5346
102.171
115.569
126.45
134.818
140.94
145.295
148.494
151.19
153.976
157.302
161.406
166.273
171.629
176.967
181.598
184.733
185.58
183.441
177.806
168.425
155.355
138.973
119.947
99.1781
77.7107
56.6258
36.9309
19.4585
4.78725
-6.80573
-15.3538
-21.1727
-24.7987
-26.903
-28.1943
-29.3224
-30.7969
-32.9298
-35.8094
-39.3071
-43.1142
-46.8022
-49.8969
-51.9548
-52.632
-51.7354
-49.2515
-45.3481
-40.3525
-34.709
-28.923
-23.5006
-18.8911
-15.4389
-13.3513
-12.6826
-13.3364
-15.0829
-17.5897
-20.4605
-23.2778
-25.6453
-27.2253
-27.769
-27.1353
-25.2986
-22.3446
-18.4553
-13.8851
-8.93171
-3.90393
0.908705
5.26152
8.97252
11.9307
14.0945
15.4815
16.1523
16.191
15.6863
14.7161
13.3384
11.5876
9.4781
7.01308
4.19649
1.04658
-2.3914
-6.03537
-9.76109
-13.4028
-16.7603
-19.6129
-21.7381
-22.9354
-23.0494
-21.9925
-19.7607
-16.4429
-12.219
-7.3481
-2.14695
3.0394
7.87112
12.0475
15.3372
17.6017
18.8088
19.0361
18.4639
17.3595
16.0544
14.9176
14.3261
14.6344
16.1451
19.0798
23.5532
29.5506
36.9114
45.3224
54.322
63.3203
71.6347
78.5415
83.3396
85.4204
84.3367
79.8612
72.0262
61.1395
47.7706
32.7091
16.8992
1.35601
-12.9249
-25.0559
-34.3327
-40.2887
-42.7236
-41.7041
-37.5387
-30.7296
-21.91
-11.7718
-0.989439
9.85422
20.3383
30.2679
39.7285
49.1253
59.1976
70.995
85.8009
104.993
129.84
161.245
199.476
243.911
292.877
343.609
392.38
434.806
466.295
482.607
480.424
457.867
414.853
353.255
276.809
190.783
101.451
15.4221
-61.064
-122.804
-166.161
-189.407
-192.825
-178.583
-150.397
-113.03
-71.7062
-31.5131
3.14268
28.9557
43.9825
47.7223
41.0232
25.8398
4.88515
-18.7719
-42.1094
-62.5064
-78.009
-87.4843
-90.6549
-88.0208
-80.6904
-70.1533
-58.0302
-45.8354
-34.7846
-25.6673
-18.7957
-14.0281
-10.8557
-8.53206
-6.22395
-3.15685
1.26384
7.37258
15.212
24.5503
34.9392
45.802
56.5318
66.5872
75.5675
83.2593
89.6483
94.8979
99.2993
103.204
106.95
110.794
114.859
119.108
123.344
127.234
130.36
132.277
132.581
130.962
127.259
121.478
113.795
104.54
94.1538
83.1342
71.9755
61.1109
50.864
41.4182
32.8065
24.9245
17.5629
10.4552
3.33357
-4.01705
-11.713
-19.7426
-27.9576
-36.0851
-43.7608
-50.5755
-56.13
-60.0897
-62.2312
-62.474
-60.8946
-57.7203
-53.3046
-48.0877
-42.5481
-37.1519
-32.3051
-28.3162
-25.3713
-23.5249
-22.7066
-22.7402
-23.3733
-24.3126
-25.2599
-25.9454
-26.1539
-25.7422
-24.647
-22.8828
-20.5318
-17.7284
-14.6396
-11.4455
-8.32087
-5.4203
-2.86733
-0.748621
0.88749
2.0288
2.69447
2.92906
2.79653
2.37512
1.7535
1.02802
0.300713
-0.323002
-0.737567
-0.842291
-0.54837
0.21232
1.47757
3.24571
5.46879
8.04969
10.8445
13.6708
16.3212
18.5818
20.2523
21.1666
21.2109
20.3372
18.5704
16.0084
12.8152
9.20766
5.43802
1.77354
-1.52352
-4.21385
-6.09478
-7.00874
-6.84626
-5.54454
-3.08324
0.520434
5.21524
10.9168
17.5051
24.8201
32.6552
40.7535
48.8063
56.4595
63.3272
69.0135
73.1427
75.3933
75.5332
73.4507
69.1763
62.8923
54.9262
45.7288
35.8381
25.8325
16.2792
7.68315
0.442621
-5.18325
-9.09185
-11.3376
-12.1163
-11.7345
-10.57
-9.02513
-7.48021
-6.25002
-5.54711
-5.45333
-5.89967
-6.65304
-7.30855
-7.28609
-5.83217
-2.03062
5.171
16.9101
34.3226
58.4157
89.8988
128.986
175.197
227.185
282.651
338.36
390.314
434.057
465.117
479.514
474.288
447.948
400.793
335.022
254.629
165.066
72.724
-15.718
-93.9841
-156.85
-200.669
-223.707
-226.257
-210.519
-180.268
-140.371
-96.1949
-53.0047
-15.4093
13.078
30.3211
35.6637
29.8558
14.8263
-6.65539
-31.3816
-56.1159
-77.963
-94.6589
-104.756
-107.69
-103.743
-93.9066
-79.6809
-62.8418
-45.2016
-28.3974
-13.7261
-2.04084
6.28722
11.3453
13.6049
13.8123
12.8624
11.6733
11.0767
11.735
14.0927
18.3611
24.5347
32.4305
41.7424
52.1005
63.1248
74.4685
85.844
97.032
107.874
118.251
128.062
137.186
145.472
152.71
158.642
162.962
165.34
165.459
163.04
157.89
149.931
139.226
125.998
110.634
93.6681
75.7601
57.6519
40.1179
23.9058
9.67599
-2.05595
-10.9671
-16.9597
-20.1731
-20.9725
-19.9126
-17.6815
-15.0276
-12.6798
-11.2695
-11.2628
-12.9134
-16.2397
-21.0298
-26.873
-33.2145
-39.4248
-44.8757
-49.0147
-51.4264
-51.877
-50.3349
-46.9675
-42.1149
-36.2452
-29.8969
-23.6167
-17.8992
-13.1367
-9.58354
-7.33893
-6.34851
-6.42412
-7.27747
-8.56298
-9.9239
-11.0358
-11.6422
-11.5788
-10.7839
-9.29521
-7.23393
-4.78056
-2.14488
0.464532
2.86745
4.93246
6.58855
7.82691
8.69364
9.27507
9.67854
10.0118
10.3641
10.7922
11.3124
11.9001
12.4958
13.0166
13.3709
13.474
13.2614
12.6992
11.7889
10.5675
9.10174
7.47994
5.80014
4.15884
2.64072
1.31103
0.211618
-0.639159
-1.24286
-1.61443
-1.77367
-1.73617
-1.50466
-1.06231
-0.368786
0.640083
2.04876
3.95453
6.45665
9.64303
13.5757
18.2762
23.7129
29.7904
36.3434
43.1351
49.8615
56.1614
61.6344
65.8649
68.453
69.0494
67.392
63.3395
56.898
48.2359
37.684
25.7196
12.9331
-0.0170547
-12.4596
-23.7681
-33.4144
-41.0121
-46.3451
-49.3767
-50.2408
-49.2147
-46.6794
-43.0698
-38.8229
-34.328
-29.8834
-25.6615
-21.6832
-17.7993
-13.6769
-8.79011
-2.41659
6.35212
18.5769
35.4014
57.9363
87.0964
123.399
166.745
216.228
269.994
325.223
378.233
424.746
460.283
480.659
482.507
463.769
424.062
364.869
289.514
202.905
111.073
20.5737
-62.1953
-131.656
-183.614
-215.662
-227.36
-220.198
-197.33
-163.146
-122.723
-81.2261
-43.357
-12.8801
7.6989
17.287
16.1825
5.8954
-11.155
-32.0193
-53.6211
-73.1345
-88.2925
-97.597
-100.413
-96.9506
-88.1406
-75.4414
-60.5962
-45.3825
-31.384
-19.8101
-11.3818
-6.29102
-4.23042
-4.48348
-6.05646
-7.83156
-8.7196
-7.79291
-4.38351
1.86194
10.9724
22.6835
36.4997
51.7759
67.8031
83.8885
99.4185
113.901
126.981
138.442
148.184
156.193
162.513
167.211
170.357
172.005
172.188
170.917
168.185
163.977
158.285
151.115
142.506
132.545
121.37
109.188
96.2657
82.9293
69.5448
56.4948
44.1485
32.8275
22.7744
14.127
6.90346
1.00064
-3.7921
-7.76592
-11.2548
-14.5928
-18.0708
-21.9002
-26.1863
-30.9165
-35.9627
-41.0988
-46.0295
-50.4268
-53.9706
-56.3859
-57.4749
-57.1381
-55.3842
-52.3267
-48.1684
-43.1776
-37.6578
-31.9167
-26.2367
-20.8533
-15.9404
-11.6057
-7.89413
-4.79742
-2.26678
-0.226369
1.41464
2.75204
3.87835
4.8756
5.8084
6.71689
7.61027
8.46199
9.20823
9.7512
9.96827
9.72719
8.90615
7.41659
5.22523
2.37167
-1.02228
-4.75429
-8.55543
-12.1156
-15.118
-17.2778
-18.3801
-18.3113
-17.0791
-14.8175
-11.7752
-8.28877
-4.74287
-1.52367
1.02912
2.66462
3.2518
2.79487
1.43118
-0.588116
-2.9315
-5.23005
-7.12396
-8.30629
-8.55854
-7.77362
-5.96382
-3.25358
0.141452
3.94558
7.86019
11.602
14.938
17.7129
19.8667
21.44
22.568
23.4624
24.3844
25.6111
27.3989
29.9478
33.3702
37.667
42.7142
48.2608
53.9392
59.2873
63.7821
66.8822
68.0773
66.9402
63.1767
56.6675
47.4968
35.9628
22.5667
7.97983
-7.00845
-21.5579
-34.8515
-46.1688
-54.9485
-60.8343
-63.6971
-63.6325
-60.933
-56.0401
-49.4792
-41.7847
-33.4206
-24.7015
-15.7215
-6.29722
4.06394
16.1612
31.0508
49.9434
74.046
104.356
141.428
185.141
234.506
287.553
341.335
392.076
435.465
467.073
482.862
479.707
455.869
411.339
347.997
269.54
181.199
89.2357
0.320336
-79.169
-143.811
-189.7
-214.818
-219.196
-204.821
-175.343
-135.592
-90.9947
-46.9565
-8.28328
21.2867
39.3952
45.194
39.2921
23.5396
0.689672
-26.012
-53.2529
-78.0428
-98.0227
-111.664
-118.343
-118.303
-112.505
-102.416
-89.7548
-76.2399
-63.369
-52.2544
-43.5295
-37.3307
-33.3476
-30.9263
-29.207
-27.2721
-24.2849
-19.6002
-12.8361
-3.90072
7.02397
19.5346
33.0839
47.0699
60.9221
74.1742
86.5119
97.7926
108.035
117.381
126.043
134.236
142.116
149.73
156.978
163.614
169.265
173.471
175.751
175.671
172.911
167.321
158.955
148.081
135.165
120.824
105.773
90.7441
76.4226
63.3772
52.0127
42.5422
34.9816
29.1675
24.7928
21.4559
18.716
16.1472
13.3857
10.1656
6.33903
1.88089
-3.12078
-8.4867
-13.9762
-19.321
-24.2577
-28.5567
-32.0429
-34.6083
-36.2145
-36.8878
-36.7065
-35.7851
-34.2558
-32.252
-29.8948
-27.2846
-24.4992
-21.5977
-18.6285
-15.6407
-12.6942
-9.86819
-7.26413
-5.00212
-3.21121
-2.01402
-1.50802
-1.7467
-2.72382
-4.36382
-6.5208
-8.98685
-11.5095
-13.8162
-15.6434
-16.7656
-17.0216
-16.3341
-14.7196
-12.2879
-9.23112
-5.80334
-2.29336
1.00575
3.82699
5.95605
7.25132
7.65519
7.19596
5.98047
4.17902
2.00459
-0.310909
-2.54045
-4.4834
-5.98237
-6.93414
-7.29397
-7.07335
-6.33218
-5.16651
-3.69389
-2.0378
-0.313154
1.38573
2.99388
4.48048
5.85009
7.14063
8.41913
9.77568
11.3165
13.1559
15.4079
18.1766
21.5462
25.571
30.2648
35.5929
41.4657
47.7354
54.1971
60.5946
66.6301
71.9789
76.3075
79.2955
80.6594
80.1774
77.7129
73.2338
66.8261
58.6982
49.1742
38.6771
27.7003
16.7716
6.41201
-2.90649
-10.7988
-16.9968
-21.3684
-23.9217
-24.7967
-24.2416
-22.579
-20.1633
-17.3327
-14.3598
-11.4022
-8.45838
-5.32951
-1.59277
3.40821
10.5488
20.8758
35.5195
55.5614
81.8592
114.844
154.31
199.242
247.704
296.845
343.039
382.171
410.042
422.867
417.779
393.284
349.582
288.698
214.394
131.853
47.1771
-33.2476
-103.431
-158.425
-194.839
-211.178
-207.945
-187.514
-153.788
-111.699
-66.6088
-23.7003
12.5803
38.9537
53.5741
56.1085
47.6344
30.3805
7.35538
-18.0824
-42.6572
-63.5585
-78.7333
-87.0599
-88.3929
-83.4871
-73.818
-61.3312
-48.1565
-36.3237
-27.5157
-22.8834
-22.9406
-27.5448
-35.9575
-46.9719
-59.0863
-70.6997
-80.3055
-86.66
-88.9094
-86.6627
-80.0069
-69.4673
-55.9217
-40.4827
-24.3644
-8.75044
5.32156
17.0483
25.9137
31.7058
34.4991
34.6097
32.5312
28.8619
24.232
19.2386
14.3943
10.0926
6.58979
4.00366
2.32483
1.43834
1.15144
1.22433
1.40083
1.43676
1.12437
0.311405
-1.08571
-3.07543
-5.59155
-8.50034
-11.614
-14.7093
-17.5493
-19.9066
-21.586
-22.4434
-22.4
-21.45
-19.6609
-17.1667
-14.1546
-10.8469
-7.47977
-4.28106
-1.4504
0.857758
2.54541
3.57621
3.9741
3.81604
3.21978
2.32849
1.29395
0.260394
-0.649454
-1.34462
-1.77175
-1.91616
-1.79867
-1.46861
-0.994574
-0.45389
0.0776589
0.534752
0.869187
1.05371
1.0829
0.971263
0.74918
0.457301
0.140354
-0.158878
-0.404656
-0.571956
-0.648394
-0.63437
-0.541611
-0.39045
-0.206335
-0.0160783
0.155655
0.289212
0.371877
0.398713
0.372348
0.301823
0.200767
0.0851899
-0.0287891
-0.126978
-0.198694
-0.237728
-0.242649
-0.216476
-0.165818
-0.0996621
-0.0279891
0.0395898
0.0950018
0.132565
0.149449
0.145727
0.124057
0.089074
0.0465953
0.0027631
-0.0367629
-0.0674663
-0.0864205
-0.0924876
-0.0862659
-0.0697985
-0.0460418
-0.0180388
0.0123087
0.0459718
0.0890057
0.154962
0.266911
0.458264
0.771536
1.25443
1.95313
2.90327
4.11979
5.58715
7.25197
9.01951
10.7554
12.2933
13.448
14.0335
13.8845
12.8783
10.956
8.13851
4.5364
0.350034
-4.13969
-8.59036
-12.6247
-15.8624
-17.9521
-18.6022
-17.6026
-14.8381
-10.2863
-4.00168
3.91628
13.3685
24.3094
36.8004
51.0523
67.4452
86.5139
108.89
135.2
165.918
201.205
240.734
283.556
328.025
371.809
412.012
445.4
468.716
479.056
474.24
453.149
415.959
364.236
300.88
229.907
156.091
84.5209
20.1065
-32.8968
-71.2917
-93.2275
-98.3413
-87.7414
-63.8388
-30.0518
9.57835
50.8157
89.6519
122.678
147.37
162.256
166.969
162.167
149.358
130.646
108.438
85.1494
62.9426
43.521
28.0056
16.893
10.0941
7.03633
6.81183
8.34546
10.56
12.5178
13.5242
13.1838
11.4097
8.38945
4.51827
0.312777
-3.68107
-6.97288
-9.19483
-10.1442
-9.79814
-8.30249
-5.93825
-3.07327
-0.106868
2.58453
4.69357
6.01477
6.46104
6.06335
4.95538
3.34652
1.48799
-0.363068
-1.97648
-3.17532
-3.85276
-3.97825
-3.59359
-2.80019
-1.74013
-0.574111
0.540662
1.46989
2.11662
2.42957
2.40471
2.08082
1.53009
0.8452
0.124823
-0.541396
-1.08729
-1.48373
-1.75111
-1.97033
-2.29143
-2.93812
-4.20585
-6.45095
-10.0688
-15.4605
-22.9902
-32.9356
-45.4405
-60.4728
-77.7997
-96.9814
-117.39
-138.254
-158.718
-177.921
-195.077
-209.552
-220.917
-228.996
-233.863
-235.834
-235.414
-233.237
-229.988
-226.324
-222.802
-219.827
-217.614
-216.182
-215.368
-214.864
-214.271
-213.154
-211.11
-207.815
-203.062
-196.786
-189.06
-180.082
-170.141
-159.578
-148.744
-137.955
-127.46
-117.419
-107.888
-98.8331
-90.1394
-81.646
-73.1796
-64.5917
-55.7922
-46.7736
-37.6232
-28.5204
-19.7204
-11.5254
-4.24804
1.82785
6.48424
9.59796
11.1585
11.2717
10.1504
8.09114
5.44319
2.57155
-0.18005
-2.52197
-4.24367
-5.22825
-5.45557
-4.99424
-3.98439
-2.61384
-1.09111
0.381309
1.63025
2.52931
3.00889
3.05838
2.72094
2.08237
1.25598
0.365599
-0.470729
-1.15474
-1.61791
-1.82675
-1.78313
-1.5202
-1.0949
-0.578279
-0.0450928
0.435932
0.81004
1.04179
1.11744
1.04428
0.847541
0.565226
0.242026
-0.0770254
-0.352242
-0.553694
-0.663926
-0.678814
-0.606661
-0.465781
-0.280924
-0.0786525
0.118693
0.301679
0.487162
0.738748
1.19587
2.11066
3.88778
7.118
12.5916
21.2759
34.2425
52.5352
76.9822
107.969
145.204
187.525
232.785
277.882
318.929
351.596
371.574
375.118
359.58
323.869
268.74
196.87
112.7
22.0312
-68.5491
-152.364
-223.363
-276.771
-309.581
-320.834
-311.659
-285.059
-245.496
-198.327
-149.157
-103.217
-64.8147
-36.9418
-21.0559
-17.0624
-23.4735
-37.7119
-56.5099
-76.348
-93.8789
-106.289
-111.564
-108.637
-97.417
-78.7078
-54.0334
-25.4072
4.92986
34.7681
62.1587
85.5924
104.117
117.383
125.632
129.618
130.489
129.637
128.536
128.578
130.931
136.423
145.468
158.037
173.67
191.543
210.558
229.464
246.99
261.977
273.487
280.891
283.917
282.657
277.537
269.248
258.656
246.695
234.267
222.142
210.892
200.841
192.057
184.367
177.397
170.637
163.511
155.455
145.991
134.787
121.711
106.846
90.4986
73.1757
55.5368
38.3335
22.3351
8.25295
-3.3312
-12.0217
-17.6462
-20.2685
-20.1767
-17.847
-13.8906
-8.98796
-3.8187
1.00311
4.98335
7.78524
9.24699
9.37904
8.3429
6.41529
3.9431
1.29506
-1.18394
-3.21083
-4.59094
-5.23128
-5.14009
-4.4144
-3.21817
-1.75468
-0.237184
1.13847
2.21609
2.89407
3.13196
2.94875
2.414
1.63357
0.732504
-0.16271
-0.940119
-1.51473
-1.83624
-1.89156
-1.70249
-1.31917
-0.81075
-0.254686
0.273905
0.711385
1.01224
1.15243
1.12896
0.955581
0.654636
0.245988
-0.26591
-0.904849
-1.73343
-2.85911
-4.43368
-6.64516
-9.70179
-13.8093
-19.1441
-25.8251
-33.8897
-43.2758
-53.8152
-65.2387
-77.1948
-89.2791
-101.073
-112.185
-122.297
-131.193
-138.79
-145.146
-150.45
-154.999
-159.159
-163.317
-167.827
-172.968
-178.904
-185.667
-193.154
-201.147
-209.346
-217.416
-225.036
-231.957
-238.034
-243.254
-247.743
-251.743
-255.579
-259.6
-264.118
-269.337
-275.297
-281.821
-288.492
-294.646
-299.408
-301.746
-300.571
-294.85
-283.741
-266.719
-243.689
-215.054
-181.732
-145.12
-106.99
-69.3349
-34.1854
-3.41066
21.4686
39.4332
50.0687
53.6109
50.9314
43.4696
33.1169
22.0625
12.6066
6.9493
6.96555
13.981
28.5711
50.4104
78.2006
109.703
141.891
171.218
193.983
206.76
206.828
192.547
163.634
121.277
68.0841
7.853
-54.8051
-114.944
-167.804
-209.314
-236.507
-247.805
-243.149
-223.94
-192.839
-153.426
-109.778
-66.0231
-25.9121
7.53777
32.2926
47.4265
53.1169
50.5232
41.5712
28.6766
14.4432
1.37071
-8.39875
-13.2708
-12.3143
-5.29576
7.36093
24.6794
45.2828
67.5721
89.9119
110.802
129.018
143.718
154.489
161.358
164.753
165.424
164.349
162.616
161.303
161.378
163.601
168.462
176.142
186.512
199.154
213.414
228.476
243.444
257.438
269.681
279.569
286.731
291.05
292.66
291.906
289.279
285.328
280.559
275.342
269.836
263.944
257.316
249.391
239.484
226.905
211.086
191.707
168.793
142.768
114.456
85.0235
55.8747
28.5092
4.36058
-15.3605
-29.7991
-38.5473
-41.683
-39.7521
-33.6973
-24.7453
-14.2656
-3.62186
5.96899
13.5508
18.5054
20.5859
19.9049
16.8831
12.1673
6.53034
0.765913
-4.40785
-8.42615
-10.9287
-11.781
-11.066
-9.04976
-6.12949
-2.76986
0.561429
3.45181
5.58893
6.78853
7.00341
6.31448
4.90679
3.03519
0.984969
-0.967098
-2.58645
-3.70557
-4.23774
-4.17926
-3.60098
-2.63143
-1.43451
-0.185125
0.953949
1.85122
2.41965
2.62284
2.47422
2.03
1.3776
0.621296
-0.132694
-0.789743
-1.2775
-1.55261
-1.60307
-1.44645
-1.12446
-0.695194
-0.224073
0.225185
0.59838
0.856641
0.979678
0.966322
0.832527
0.607218
0.326584
0.0274483
-0.259559
-0.516283
-0.742
-0.956294
-1.1992
-1.52814
-2.01171
-2.72061
-3.71688
-5.0428
-6.71121
-8.6992
-10.9469
-13.363
-15.8374
-18.2617
-20.5557
-22.6962
-24.744
-26.8617
-29.3171
-32.466
-36.7148
-42.4624
-50.0309
-59.5923
-71.1046
-84.2693
-98.5208
-113.053
-126.885
-138.958
-148.259
-153.942
-155.445
-152.574
-145.541
-134.961
-121.786
-107.202
-92.4901
-78.8759
-67.3838
-58.7137
-53.1555
-50.55
-50.2967
-51.4045
-52.577
-52.3216
-49.0738
-41.3308
-27.7886
-7.48145
20.084
54.8065
95.8958
141.823
190.334
238.547
283.133
320.583
347.529
361.105
359.282
341.146
307.074
258.774
199.179
132.197
62.351
-5.66217
-67.4283
-119.242
-158.448
-183.658
-194.827
-193.171
-180.959
-161.197
-137.254
-112.472
-89.8095
-71.5612
-59.1751
-53.1847
-53.255
-58.3252
-66.8245
-76.9264
-86.8079
-94.8807
-99.9696
-101.419
-99.1257
-93.4913
-85.3228
-75.6847
-65.7338
-56.558
-49.0369
-43.7421
-40.8846
-40.3123
-41.5515
-43.8852
-46.4527
-48.3568
-48.7656
-46.9964
-42.5746
-35.2658
-25.0792
-12.249
2.8032
19.5165
37.2449
55.3106
73.053
89.8714
105.257
118.815
130.277
139.502
146.468
151.257
154.032
155.012
154.441
152.567
149.609
145.744
141.091
135.703
129.572
122.637
114.808
105.985
96.0924
85.1066
73.081
60.1626
46.597
32.7198
18.9349
5.68196
-6.60366
-17.532
-26.7965
-34.2035
-39.6893
-43.3236
-45.2979
-45.9025
-45.4936
-44.4561
-43.1654
-41.9533
-41.0804
-40.7187
-40.9431
-41.7343
-42.9894
-44.5404
-46.176
-47.6661
-48.7864
-49.3396
-49.1734
-48.1935
-46.3697
-43.7376
-40.393
-36.482
-32.1861
-27.705
-23.238
-18.9661
-15.0371
-11.5556
-8.57794
-6.11426
-4.13494
-2.58153
-1.3796
-0.451652
0.271608
0.843082
1.29482
1.63748
1.86328
1.9518
1.87762
1.61881
1.16528
0.525701
-0.267812
-1.15844
-2.06735
-2.90058
-3.55961
-3.95449
-4.01771
-3.7166
-3.06205
-2.11152
-0.965208
0.244533
1.36956
2.26565
2.81266
2.93192
2.59815
1.84399
0.756644
-0.532643
-1.86413
-3.06746
-3.97903
-4.45644
-4.3888
-3.70252
-2.36309
-0.373901
2.22701
5.37133
8.96571
12.8974
17.0407
21.2629
25.4313
29.4186
33.1073
36.3933
39.1874
41.4162
43.0225
43.9663
44.2263
43.8023
42.7171
41.0187
38.7798
36.0956
33.0788
29.8512
26.5345
23.2395
20.0571
17.0513
14.2565
11.6791
9.30379
7.1032
5.04927
3.12517
1.33533
-0.287135
-1.67651
-2.73343
-3.32551
-3.28779
-2.4206
-0.483269
2.81705
7.83968
15.0234
24.8913
38.0373
55.0856
76.6171
103.058
134.543
170.761
210.819
253.144
295.466
334.9
368.137
391.741
402.521
397.933
376.453
337.862
283.406
215.773
138.907
57.6559
-22.6961
-96.9613
-160.572
-210.034
-243.251
-259.689
-260.356
-247.61
-224.823
-195.962
-165.11
-136.031
-111.784
-94.4676
-85.0854
-83.5594
-88.8649
-99.265
-112.605
-126.624
-139.245
-148.813
-154.243
-155.087
-151.51
-144.19
-134.154
-122.6
-110.71
-99.4818
-89.6105
-81.4229
-74.8665
-69.5532
-64.8456
-59.9688
-54.1327
-46.6466
-37.0105
-24.9756
-10.5659
5.93605
24.0343
43.0869
62.383
81.2193
98.965
115.11
129.29
141.294
151.051
158.606
164.095
167.707
169.664
170.194
169.516
167.827
165.293
162.042
158.155
153.668
148.563
142.783
136.235
128.819
120.444
111.062
100.696
89.4522
77.5357
65.2402
52.9279
40.9946
29.8267
19.7545
11.0105
3.69811
-2.22375
-6.93563
-10.7334
-13.9862
-17.0828
-20.3726
-24.111
-28.4161
-33.2449
-38.3925
-43.5162
-48.1804
-51.9195
-54.3065
-55.0208
-53.903
-50.9896
-46.5206
-40.9205
-34.752
-28.6505
-23.2473
-19.0909
-16.5785
-15.9047
-17.0371
-19.7183
-23.4986
-27.7917
-31.9475
-35.333
-37.4093
-37.7957
-36.3126
-32.9974
-28.0943
-22.0184
-15.3008
-8.52304
-2.24898
3.03651
6.97569
9.36783
10.1792
9.53359
7.68683
4.98936
1.84258
-1.34573
-4.20213
-6.42058
-7.78514
-8.18114
-7.59477
-6.10215
-3.85002
-1.03068
2.14536
5.47599
8.78995
11.9628
14.9249
17.6604
20.1991
22.6021
24.9441
27.2959
29.7095
32.208
34.7821
37.3928
39.98
42.4749
44.8143
46.9543
48.8823
50.6243
52.2485
53.8631
55.6074
57.6373
60.1034
63.1218
66.742
70.9144
75.4636
80.0738
84.2881
87.5239
89.0996
88.2672
84.2462
76.2534
63.5295
45.3623
21.1126
-9.75606
-47.6405
-92.755
-145.085
-204.346
-269.948
-340.98
-416.213
-494.134
-572.998
-650.912
-725.931
-796.17
-859.916
-915.727
-962.508
-999.566
-1026.61
-1043.73
-1051.3
-1049.9
-1040.18
-1022.71
-997.891
-965.85
-926.452
-879.33
-824.018
-760.134
-687.615
-606.955
-519.418
-427.176
-333.333
-241.819
-157.128
-83.9344
-26.6065
11.3138
27.5975
21.7078
-4.99122
-49.2394
-106.115
-169.483
-232.597
-288.805
-332.246
-358.462
-364.854
-350.91
-318.195
-270.102
-211.404
-147.671
-84.6193
-27.4894
19.4885
53.4753
73.2182
79.049
72.7013
56.9834
35.3557
11.4738
-11.2472
-29.9974
-42.827
-48.7741
-47.8608
-40.9727
-29.6474
-15.8079
-1.47889
11.4781
21.5795
27.8633
29.9528
28.0397
22.7982
15.2477
6.58815
-1.96981
-9.35714
-14.7632
-17.7062
-18.0531
-15.9917
-11.9632
-6.57014
-0.472617
5.70948
11.4773
16.5065
20.6695
24.026
26.7873
29.2614
31.7881
34.6754
38.1445
42.2915
47.0693
52.291
57.6524
62.7708
67.2314
70.638
72.6584
73.0605
71.7348
68.7014
64.1017
58.177
51.2388
43.6331
35.707
27.7779
20.1113
12.9084
6.30141
0.359123
-4.90282
-9.50748
-13.5017
-16.9424
-19.8868
-22.3852
-24.4794
-26.2024
-27.5818
-28.6425
-29.4095
-29.91
-30.1729
-30.2271
-30.0993
-29.81
-29.3704
-28.7795
-28.022
-27.0678
-25.8729
-24.3822
-22.5345
-20.2694
-17.5362
-14.3034
-10.5693
-6.3711
-1.79193
3.03636
7.93527
12.6879
17.0529
20.7843
23.6539
25.476
26.1295
25.5762
23.8721
21.1691
17.7076
13.7992
9.80125
6.08577
3.00493
0.857803
-0.139497
-0.139497
-0.139497
-0.139497
-0.139497
-0.139497
-0.139497
-0.139497
-0.139497
-0.139497
-0.139497
-0.139497
-0.139497
-0.139497
-0.139497
-0.139497
-0.139497
-0.139497
-0.139497
-0.139497
