-64.6568
-62.3926
-59.6917
-56.5592
-53.013
-49.0778
-44.7785
-40.1326
-35.144
-29.7967
-24.0523
-17.8483
-11.0994
-3.70149
4.46235
13.5123
23.5595
34.6909
46.9522
60.3308
74.7415
90.0166
105.904
122.075
138.138
153.666
168.228
181.414
192.874
202.331
209.6
214.584
217.265
217.681
215.903
212.01
206.071
198.136
188.238
176.409
162.705
147.239
130.206
111.909
92.7672
73.3074
54.1371
35.9014
19.2283
4.66961
-7.35356
-16.5934
-23
-26.7241
-28.0976
-27.5945
-25.778
-23.239
-20.5355
-18.139
-16.3936
-15.493
-15.4755
-16.2379
-17.5645
-19.1667
-20.729
-21.953
-22.5971
-22.5046
-21.6198
-19.9892
-17.7503
-15.1091
-12.3103
-9.60604
-7.22428
-5.34393
-4.07732
-3.4624
-3.4647
-3.98777
-4.89
-6.00509
-7.16315
-8.20969
-9.02057
-9.51146
-9.64142
-9.41107
-8.85629
-8.03894
-7.03627
-5.93051
-4.79995
-3.71222
-2.72012
-1.86
-1.15211
-0.602408
-0.20524
0.0536323
0.194138
0.239315
0.213184
0.139097
0.0385031
-0.0699352
-0.170942
-0.252995
-0.308476
-0.333615
-0.32819
-0.294987
-0.238985
-0.166317
-0.0830826
0.00580194
0.0975287
0.19187
0.291049
0.398968
0.519874
0.656671
0.809204
0.972854
1.1378
1.28918
1.40834
1.475
1.47019
1.37934
1.19522
0.919899
0.565565
0.153845
-0.286239
-0.721392
-1.11779
-1.44487
-1.67867
-1.8043
-1.81727
-1.72348
-1.53817
-1.28378
-0.987109
-0.676201
-0.376927
-0.109737
0.113415
0.29169
0.437266
0.576093
0.747107
0.999549
1.38829
1.96742
2.7827
3.86387
5.21799
6.82498
8.63644
10.5782
12.5567
14.4688
16.214
17.7071
18.8903
19.7436
20.2906
20.6014
20.79
21.0087
21.4375
22.2714
23.7048
25.9135
29.037
33.1602
38.2978
44.3808
51.2498
58.654
66.2585
73.6612
80.4174
86.072
90.1966
92.4276
92.5014
90.2827
85.7821
79.1616
70.7244
60.8927
50.1733
39.1148
28.262
18.1107
9.06751
1.41977
-4.68298
-9.23385
-12.3598
-14.3005
-15.3774
-15.9561
-16.4073
-17.0685
-18.2125
-20.0244
-22.5897
-25.8939
-29.8331
-34.2333
-38.8747
-43.5188
-47.9338
-51.9146
-55.2977
-57.9673
-59.8552
-60.9346
-61.2096
-60.7042
-59.4509
-57.4817
-54.8223
-51.487
-47.4732
-42.7498
-37.2316
-30.7323
-22.8925
-13.0843
-0.309153
16.8812
40.3989
72.5261
115.678
172.019
242.954
328.579
427.186
534.939
645.835
752.01
844.4
913.704
951.512
951.462
910.223
828.157
709.539
562.287
397.217
226.916
64.3889
-78.3514
-191.563
-268.762
-307.293
-308.441
-277.07
-220.872
-149.326
-72.5253
-0.00672168
60.2575
102.608
124.111
124.614
106.464
73.9602
32.6206
-11.6193
-53.1798
-87.4855
-111.421
-123.557
-124.139
-114.866
-98.5078
-78.4181
-58.0272
-40.3703
-27.7124
-21.3089
-21.3192
-26.8718
-36.2598
-47.2295
-57.3203
-64.2061
-65.9957
-61.458
-50.1474
-32.4228
-9.36465
17.3928
45.8858
74.0718
100.073
122.383
140.016
152.583
160.289
163.864
164.436
163.358
162.033
161.737
163.47
167.85
175.061
184.852
196.586
209.34
222.022
233.508
242.769
248.992
251.648
250.543
245.811
237.874
227.367
215.049
201.693
187.998
174.506
161.552
149.255
137.527
126.127
114.728
102.997
90.674
77.6365
63.9378
49.8192
35.6898
22.0786
9.56682
-1.29033
-10.0397
-16.3936
-20.2715
-21.8139
-21.3676
-19.4446
-16.6607
-13.6631
-11.0563
-9.33671
-8.8429
-9.72811
-11.9563
-15.321
-19.4839
-24.0253
-28.5016
-32.5003
-35.6869
-37.8388
-38.8621
-38.7918
-37.7762
-36.0494
-33.8962
-31.6146
-29.4809
-27.7216
-26.4943
-25.8791
-25.8791
-26.4292
-27.4104
-28.6662
-30.0205
-31.2938
-32.3174
-32.9448
-33.0608
-32.5866
-31.4834
-29.7531
-27.4361
-24.6079
-21.373
-17.8574
-14.1992
-10.5397
-7.01232
-3.73438
-0.798543
1.73254
3.82926
5.49499
6.76305
7.691
8.35294
8.83063
9.20436
9.54472
9.90592
10.3215
10.8028
11.3396
11.9036
12.4535
12.9403
13.3141
13.5295
13.5501
13.3525
12.9274
12.2808
11.4322
10.4135
9.26555
8.03507
6.77101
5.52078
4.32682
3.22356
2.23511
1.37398
0.640824
0.0254616
-0.491043
-0.933334
-1.32808
-1.70005
-2.06844
-2.44385
-2.82641
-3.2054
-3.56034
-3.86361
-4.0843
-4.19274
-4.16511
-3.98752
-3.65903
-3.19301
-2.61677
-1.96944
-1.29821
-0.653595
-0.0841727
0.368517
0.674209
0.816821
0.795702
0.625132
0.332222
-0.0464102
-0.468735
-0.891628
-1.2749
-1.58463
-1.79545
-1.89164
-1.86694
-1.72324
-1.46829
-1.11276
-0.667041
-0.138117
0.473072
1.17333
1.97761
2.90758
3.98833
5.24281
6.68451
8.30889
10.0845
11.9451
13.7841
15.4529
16.7639
17.4995
17.4273
16.3203
13.9822
10.2742
5.14142
-1.36541
-9.0764
-17.7003
-26.8363
-35.9993
-44.6583
-52.2834
-58.3962
-62.618
-64.7089
-64.593
-62.3662
-58.2855
-52.74
-46.2099
-39.215
-32.2626
-25.7985
-20.1672
-15.5851
-12.1296
-9.74291
-8.25107
-7.39421
-6.86574
-6.3553
-5.58999
-4.36692
-2.56865
-0.151903
2.89942
6.66262
11.4039
17.7318
26.7465
40.1443
60.2239
89.7484
131.634
188.471
261.918
352.073
456.927
572.047
690.587
803.691
901.284
973.177
1010.34
1006.12
957.35
864.92
733.998
573.623
395.827
214.359
43.1861
-105.03
-220.28
-296.212
-330.677
-325.76
-287.312
-224.07
-146.489
-65.4536
8.97861
68.6356
107.988
124.533
118.782
93.8957
55.0338
8.5259
-39.0198
-81.5543
-114.276
-134.099
-139.86
-132.272
-113.644
-87.4336
-57.6944
-28.5049
-3.44706
14.803
24.7321
26.077
19.7456
7.59841
-7.86915
-23.896
-37.8235
-47.4183
-51.1124
-48.1402
-38.5631
-23.1912
-3.41965
18.9919
42.1641
64.3355
84.0653
100.379
112.844
121.574
127.162
130.563
132.935
135.473
139.24
145.037
153.309
164.101
177.072
191.556
206.655
221.358
234.666
245.699
253.786
258.513
259.736
257.559
252.287
244.355
234.254
222.469
209.42
195.431
180.72
165.41
149.56
133.2
116.384
99.2177
81.896
64.7061
48.0207
32.2704
17.9034
5.33696
-5.08994
-13.1568
-18.7884
-22.0643
-23.21
-22.5722
-20.5798
-17.6989
-14.3854
-11.0426
-7.98771
-5.4317
-3.47314
-2.10598
-1.23913
-0.724204
-0.387322
-0.0603958
0.392066
1.0538
1.94716
3.03354
4.22284
5.39005
6.39589
7.10832
7.42164
7.27076
6.63883
5.5578
4.1027
2.38088
0.518617
-1.35301
-3.11087
-4.64996
-5.89027
-6.78025
-7.29747
-7.447
-7.25833
-6.78137
-6.08206
-5.23781
-4.33274
-3.45309
-2.68248
-2.09724
-1.76196
-1.72526
-2.01623
-2.64164
-3.58438
-4.80335
-6.23513
-7.79751
-9.39488
-10.9252
-12.288
-13.3929
-14.1671
-14.5624
-14.5588
-14.1663
-13.423
-12.3907
-11.148
-9.78167
-8.37806
-7.01487
-5.75471
-4.64088
-3.69598
-2.92295
-2.30845
-1.82763
-1.44964
-1.14301
-0.88019
-0.640764
-0.413013
-0.193924
0.0122097
0.196161
0.346659
0.453278
0.508891
0.511341
0.464134
0.376132
0.260371
0.132247
0.00743404
-0.100149
-0.179995
-0.226062
-0.2371
-0.216206
-0.169648
-0.105078
-0.0292709
0.0543462
0.148122
0.262209
0.415865
0.637737
0.965013
1.44148
2.11476
3.03306
4.2419
5.78096
7.68137
9.96334
12.6341
15.6862
19.0955
22.8202
26.7993
30.9522
35.179
39.3625
43.371
47.0641
50.3002
52.946
54.8878
56.0432
56.3726
55.8871
54.6536
52.7925
50.4707
47.8871
45.2526
42.7675
40.5968
38.8484
37.5556
36.6671
36.0454
35.4761
34.6851
33.3656
31.2096
27.9437
23.3639
17.3654
9.96532
1.31409
-8.30638
-18.4981
-28.7755
-38.6048
-47.4501
-54.8225
-60.3256
-63.6928
-64.8126
-63.737
-60.6742
-55.9647
-50.0436
-43.3954
-36.5039
-29.8057
-23.65
-18.2701
-13.7689
-10.1191
-7.17753
-4.71207
-2.43663
-0.0492984
2.73499
6.16744
10.4759
15.9127
22.8444
31.8748
43.9798
60.6124
83.7294
115.688
158.981
215.802
287.498
373.971
473.18
580.83
690.393
793.495
880.677
942.437
970.437
958.679
904.469
809.026
677.595
519.067
345.109
168.943
3.91051
-137.97
-247.275
-318.115
-348.636
-341.026
-301.064
-237.262
-159.755
-79.0669
-4.92268
54.763
94.603
112.103
107.656
84.2016
46.6125
0.916874
-46.543
-89.9028
-124.429
-146.965
-156.14
-152.336
-137.443
-114.451
-86.9586
-58.6544
-32.8449
-12.0858
2.05367
9.07487
9.49029
4.64361
-3.55465
-12.9333
-21.3657
-27.0356
-28.6362
-25.4834
-17.5397
-5.35514
10.0593
27.4033
45.2776
62.3691
77.6074
90.2769
100.075
107.114
111.872
115.1
117.71
120.644
124.757
130.711
138.907
149.448
162.132
176.488
191.823
207.299
222.008
235.047
245.586
252.928
256.552
256.134
251.566
242.948
230.57
214.888
196.485
176.031
154.239
131.833
109.502
87.8777
67.5056
48.8292
32.1781
17.7624
5.67355
-4.10951
-11.709
-17.3321
-21.251
-23.7805
-25.254
-26.0002
-26.3219
-26.4785
-26.6733
-27.0473
-27.6784
-28.5863
-29.7429
-31.0846
-32.5272
-33.9799
-35.358
-36.5926
-37.6365
-38.4674
-39.0863
-39.5144
-39.7873
-39.9486
-40.0433
-40.1122
-40.1878
-40.2912
-40.4313
-40.6053
-40.8002
-40.9948
-41.1625
-41.2728
-41.2934
-41.1907
-40.9309
-40.48
-39.804
-38.87
-37.6468
-36.1072
-34.231
-32.0077
-29.4412
-26.5529
-23.3849
-20.0015
-16.4885
-12.95
-9.50277
-6.26791
-3.36149
-0.884361
1.08723
2.50915
3.3741
3.71285
3.59191
3.10802
2.37993
1.53865
0.717174
0.0407179
-0.381656
-0.463481
-0.145322
0.602611
1.77922
3.35223
5.25868
7.40621
9.67548
11.9243
13.994
15.7181
16.9343
17.4973
17.294
16.2573
14.3794
11.719
8.40496
4.63139
0.646672
-3.26499
-6.80712
-9.69742
-11.6945
-12.6217
-12.3853
-10.9852
-8.51617
-5.16062
-1.17243
3.14543
7.46755
11.4739
14.8764
17.4409
19.0035
19.4798
18.8665
17.2364
14.7293
11.5381
7.89407
4.05208
0.275768
-3.17587
-6.061
-8.16653
-9.31882
-9.39324
-8.32224
-6.10105
-2.79017
1.48631
6.54705
12.1647
18.0813
24.0275
29.743
34.9963
39.603
43.4386
46.4448
48.6293
50.057
50.835
51.0924
50.9573
50.5346
49.8869
49.0229
47.8932
46.3965
44.3956
41.7404
38.296
33.9716
28.7452
22.6813
15.9369
8.75525
1.44767
-5.63535
-12.1395
-17.7437
-22.1947
-25.3335
-27.1105
-27.5883
-26.9299
-25.377
-23.2185
-20.756
-18.2693
-15.9874
-14.0669
-12.5812
-11.5207
-10.8026
-10.2884
-9.80707
-9.17961
-8.24296
-6.87045
-4.98716
-2.57859
0.308495
3.57502
7.09119
10.7346
14.4492
18.3282
22.7179
28.3327
36.3593
48.5152
67.0213
94.45
133.425
186.178
254.013
336.745
432.247
536.191
642.104
741.775
826
885.601
912.575
901.208
848.993
757.183
630.9
478.744
311.966
143.285
-14.4853
-149.819
-253.703
-320.536
-348.607
-340.103
-300.665
-238.557
-163.586
-85.9024
-14.8513
42.0092
79.5977
95.6549
90.7263
67.8152
31.7755
-11.4591
-55.7017
-95.2869
-125.706
-144.038
-149.139
-141.6
-123.489
-97.9427
-68.6619
-39.3955
-13.4663
6.59839
19.2993
24.2448
22.0832
14.312
2.99944
-9.53674
-21.0485
-29.6345
-33.9441
-33.2885
-27.6542
-17.6279
-4.24901
11.1814
27.3064
42.906
57.0508
69.202
79.2479
87.4786
94.5061
101.146
108.277
116.7
127.015
139.527
154.201
170.653
188.198
205.921
222.782
237.73
249.807
258.244
262.522
262.409
257.956
249.468
237.451
222.548
205.462
186.901
167.517
147.875
128.44
109.568
91.5279
74.5127
58.6616
44.0748
30.8209
18.9384
8.4306
-0.741777
-8.66606
-15.4784
-21.3569
-26.5068
-31.1385
-35.4415
-39.5579
-43.5607
-47.4405
-51.103
-54.3798
-57.0509
-58.8768
-59.6351
-59.1589
-57.3682
-54.2935
-50.0853
-45.0091
-39.4255
-33.7582
-28.453
-23.9319
-20.5486
-18.5504
-18.0503
-19.0137
-21.2609
-24.4859
-28.2889
-32.2192
-35.8225
-38.6891
-40.4944
-41.0301
-40.2203
-38.1232
-34.9168
-30.8734
-26.3236
-21.6178
-17.0868
-13.0089
-9.58495
-6.92435
-5.04295
-3.87148
-3.27293
-3.06569
-3.04923
-3.02917
-2.83881
-2.35509
-1.50802
-0.283114
1.28234
3.108
5.08243
7.07665
8.95739
10.599
11.8927
12.7534
13.1232
12.9725
12.2986
11.1234
9.48871
7.45279
5.08612
2.46914
-0.308812
-3.14916
-5.94305
-8.57068
-10.9023
-12.802
-14.1342
-14.7743
-14.6206
-13.6077
-11.7191
-8.99601
-5.54244
-1.5236
2.84188
7.29585
11.5595
15.3552
18.4295
20.5735
21.6407
21.5575
20.3283
18.0322
14.8142
10.8716
6.43701
1.76055
-2.90715
-7.33018
-11.3
-14.6453
-17.2385
-19.0005
-19.9013
-19.9595
-19.2382
-17.8386
-15.8918
-13.5484
-10.9665
-8.3003
-5.68855
-3.24462
-1.04926
0.853853
2.45953
3.79945
4.93816
5.9672
6.99777
8.15241
9.55594
11.3257
13.5615
16.3359
19.6852
23.6018
28.0295
32.8618
37.9436
43.0777
48.0348
52.5669
56.4232
59.3679
61.1978
61.758
60.9557
58.7695
55.2543
50.5399
44.8245
38.3625
31.4476
24.392
17.5042
11.0668
5.31683
0.42942
-3.49184
-6.41852
-8.3938
-9.5226
-9.95651
-9.87522
-9.46677
-8.90844
-8.35059
-7.90464
-7.63652
-7.56566
-7.66933
-7.89137
-8.15385
-8.37
-8.45663
-8.34445
-7.98522
-7.35495
-6.45317
-5.29879
-3.9232
-2.3619
-0.645102
1.21321
3.23022
5.4784
8.12557
11.4969
16.1595
23.0199
33.411
49.1333
72.4054
105.687
151.355
211.246
286.115
375.117
475.396
581.93
687.678
784.097
861.972
912.479
928.324
904.803
840.601
738.2
603.825
446.913
279.159
113.282
-38.3462
-165.027
-258.837
-315.378
-334.102
-318.163
-273.862
-209.753
-135.547
-60.9592
5.36339
56.7033
88.841
100.282
92.1451
67.752
31.9983
-9.40307
-50.6978
-86.7915
-113.797
-129.377
-132.856
-125.116
-108.311
-85.4534
-59.9345
-35.0563
-13.6229
2.35842
11.8414
14.7643
11.9461
4.88158
-4.52476
-14.247
-22.4072
-27.4936
-28.5064
-25.0207
-17.1685
-5.55234
8.88999
25.0458
41.7894
58.1245
73.2911
86.8266
98.5816
108.691
117.511
125.537
133.309
141.323
149.96
159.436
169.775
180.816
192.241
203.614
214.441
224.226
232.522
238.968
243.318
245.442
245.317
243
238.593
232.206
223.926
213.8
201.829
187.995
172.288
154.758
135.557
114.979
93.4817
71.6758
50.2979
30.1513
12.0315
-3.35556
-15.473
-24.016
-28.9504
-30.5219
-29.2319
-25.7846
-21.0125
-15.7874
-10.931
-7.13379
-4.89231
-4.47211
-5.89874
-8.97687
-13.3334
-18.4777
-23.8706
-28.9923
-33.4013
-36.7774
-38.9448
-39.875
-39.6701
-38.5331
-36.728
-34.5395
-32.2349
-30.0346
-28.0943
-26.498
-25.2634
-24.3547
-23.7019
-23.2218
-22.8364
-22.4884
-22.1488
-21.8187
-21.5237
-21.3036
-21.1986
-21.2352
-21.4138
-21.7009
-22.0267
-22.2894
-22.3647
-22.1216
-21.4388
-20.2223
-18.4199
-16.0311
-13.1112
-9.76867
-6.15568
-2.45447
1.1405
4.44123
7.28412
9.54473
11.1479
12.0724
12.3494
12.0557
11.3026
10.2223
8.95276
7.62329
6.34287
5.19134
4.21486
3.42577
2.80632
2.31582
1.89983
1.50029
1.06514
0.556133
-0.0458859
-0.739012
-1.5015
-2.29584
-3.07487
-3.78892
-4.39279
-4.8517
-5.14529
-5.26938
-5.23537
-5.06751
-4.79886
-4.4664
-4.10636
-3.75027
-3.42222
-3.13766
-2.90333
-2.71826
-2.57517
-2.46197
-2.36306
-2.26039
-2.13449
-1.96592
-1.73736
-1.43669
-1.06069
-0.618888
-0.136452
0.344985
0.769546
1.07284
1.1908
1.07067
0.682226
0.0275212
-0.85271
-1.87732
-2.92822
-3.85894
-4.50743
-4.71159
-4.32588
-3.23699
-1.37675
1.26932
4.65882
8.6952
13.2361
18.1062
23.1134
28.0655
32.7863
37.1281
40.9794
44.2677
46.9559
49.0354
50.5149
51.4098
51.7313
51.479
50.638
49.1801
47.0704
44.2772
40.7848
36.6064
31.7949
26.45
20.7194
14.7932
8.89203
3.25016
-1.90513
-6.37454
-10.0058
-12.7078
-14.4586
-15.3051
-15.3552
-14.7639
-13.7138
-12.3943
-10.981
-9.61876
-8.41003
-7.40941
-6.62525
-6.0269
-5.5562
-5.14127
-4.71002
-4.20166
-3.57426
-2.8078
-1.9022
-0.87092
0.269434
1.51378
2.88913
4.48484
6.49748
9.29453
13.4963
20.0666
30.3899
46.3026
70.0365
104.039
150.654
211.67
287.789
378.117
479.754
587.635
694.679
792.289
871.182
922.451
938.715
915.191
850.507
747.127
611.309
452.567
282.723
114.646
-39.1377
-167.786
-263.268
-321.131
-340.818
-325.529
-281.647
-217.827
-143.883
-69.6155
-3.72373
47.0625
78.5526
89.3161
80.5592
55.7002
19.7226
-21.595
-62.4677
-97.8126
-123.799
-138.187
-140.434
-131.579
-113.938
-90.6774
-65.3123
-41.2212
-21.2199
-7.25171
-0.217898
0.0417218
-5.36902
-14.6307
-25.5072
-35.672
-43.017
-45.9086
-43.3611
-35.1152
-21.6181
-3.91703
16.5149
37.9921
58.842
77.6122
93.2371
105.145
113.299
118.162
120.609
121.783
122.931
125.232
129.637
136.758
146.791
159.509
174.295
190.237
206.245
221.185
234.015
243.894
250.263
252.882
251.82
247.412
240.174
230.719
219.654
207.502
194.642
181.288
167.492
153.186
138.24
122.531
106.011
88.7576
71.0004
53.1225
35.6296
19.0972
4.103
-8.84537
-19.3751
-27.2962
-32.625
-35.5803
-36.5529
-36.0532
-34.6446
-32.8726
-31.1991
-29.9515
-29.2927
-29.2149
-29.5581
-30.0497
-30.3584
-30.1555
-29.1745
-27.2601
-24.4015
-20.7436
-16.577
-12.3064
-8.4025
-5.34367
-3.55556
-3.35538
-4.90862
-8.20308
-13.0436
-19.0679
-25.7817
-32.609
-38.9514
-44.2502
-48.0427
-50.0082
-49.9967
-48.0391
-44.3374
-39.2365
-33.1834
-26.6763
-20.2128
-14.2406
-9.11794
-5.08548
-2.25408
-0.606664
-0.0139264
-0.260585
-1.07838
-2.18154
-3.30036
-4.20942
-4.74755
-4.82818
-4.43981
-3.6377
-2.52857
-1.25108
0.0452672
1.22
2.15814
2.78177
3.05576
2.98792
2.62388
2.03815
1.3226
0.574077
-0.117382
-0.678502
-1.05982
-1.23939
-1.22286
-1.04031
-0.740371
-0.38246
-0.028252
0.266548
0.459117
0.524302
0.456798
0.270603
-0.00396174
-0.325093
-0.645408
-0.918028
-1.10205
-1.16681
-1.09445
-0.880758
-0.534309
-0.0740817
0.473966
1.08098
1.7194
2.36674
3.00843
3.63942
4.26431
4.89593
5.55275
6.25538
7.02278
7.86881
8.79966
9.81284
10.8979
12.0389
13.2183
14.4226
15.6467
16.8995
18.2066
19.6117
21.1745
22.9669
25.0654
27.5419
30.4545
33.8373
37.6923
41.9846
46.6395
51.5436
56.5493
61.4807
66.1428
70.3307
73.8392
76.4735
78.0578
78.4442
77.5206
75.2176
71.5144
66.4433
60.0923
52.6051
44.1772
35.0494
25.496
15.8102
6.28631
-2.79948
-11.2072
-18.7491
-25.3003
-30.8042
-35.2692
-38.7608
-41.3864
-43.2778
-44.5726
-45.3966
-45.8511
-46.0052
-45.8939
-45.5226
-44.8759
-43.9293
-42.6619
-41.0671
-39.161
-36.9859
-34.6092
-32.1174
-29.607
-27.1724
-24.8927
-22.8193
-20.9624
-19.2758
-17.6347
-15.8009
-13.3712
-9.70767
-3.8587
5.50998
20.1442
42.1538
73.854
117.479
174.771
246.499
331.964
428.612
531.842
635.104
730.319
808.622
861.334
881.051
862.691
804.323
707.662
578.116
424.379
257.592
90.1939
-65.3978
-198.108
-299.353
-363.871
-390.16
-380.452
-340.275
-277.654
-202.079
-123.366
-50.569
8.949
50.1726
70.768
71.0779
53.8062
23.4556
-14.3938
-53.8647
-89.5227
-116.992
-133.381
-137.489
-129.783
-112.171
-87.6193
-59.6774
-31.9706
-7.73388
10.5624
21.4566
24.5902
20.6564
11.221
-1.54927
-15.2077
-27.3557
-35.9335
-39.444
-37.0849
-28.7839
-15.1402
2.71134
23.2881
44.9726
66.2196
85.7333
102.594
116.325
126.894
134.664
140.29
144.6
148.46
152.653
157.781
164.2
171.997
180.996
190.806
200.877
210.58
219.282
226.407
231.493
234.219
234.423
232.087
227.323
220.335
211.388
200.763
188.734
175.542
161.386
146.422
130.78
114.58
97.9525
81.0628
64.122
47.3935
31.1876
15.8475
1.72699
-10.8366
-21.5499
-30.1885
-36.6176
-40.8049
-42.8261
-42.8632
-41.1951
-38.1831
-34.2496
-29.854
-25.4648
-21.5297
-18.447
-16.5385
-16.0264
-17.017
-19.4917
-23.3079
-28.2092
-33.8459
-39.8041
-45.6408
-50.9226
-55.2643
-58.3619
-60.0185
-60.1589
-58.8319
-56.2005
-52.5203
-48.1104
-43.3192
-38.489
-33.9241
-29.8648
-26.4701
-23.8099
-21.8676
-20.5509
-19.7098
-19.1587
-18.7012
-18.1531
-17.363
-16.2276
-14.7002
-12.7933
-10.5737
-8.15184
-5.66688
-3.26914
-1.10188
0.715463
2.10068
3.01757
3.47899
3.54415
3.31034
2.90037
2.44716
2.07742
1.89649
1.97618
2.3471
2.9963
3.87047
4.88412
5.93154
6.90085
7.68819
8.21005
8.41238
8.27508
7.81189
7.06581
6.10118
4.99375
3.82052
2.65057
1.53832
0.519732
-0.388316
-1.18583
-1.88545
-2.50714
-3.07282
-3.60202
-4.10887
-4.60076
-5.0783
-5.53617
-5.9641
-6.3477
-6.66886
-6.90574
-7.03264
-7.02013
-6.83578
-6.44569
-5.81695
-4.92095
-3.73719
-2.25724
-0.488308
1.5443
3.79621
6.20506
8.69367
11.1754
13.5608
15.7659
17.7199
19.3725
20.6993
21.7047
22.4216
22.9085
23.2432
23.5147
23.813
24.2202
24.8011
25.5969
26.6218
27.8625
29.2816
30.823
32.4204
34.0048
35.5128
36.8921
38.1051
39.1281
39.9494
40.563
40.9622
41.1316
41.0403
40.6363
39.8439
38.5645
36.6813
34.0697
30.6107
26.2087
20.8094
14.4182
7.11365
-0.94364
-9.5113
-18.2738
-26.8606
-34.8718
-41.9099
-47.6136
-51.6905
-53.9447
-54.2954
-52.7865
-49.5826
-44.9552
-39.2584
-32.8969
-26.2911
-19.8413
-13.8951
-8.7218
-4.49405
-1.28047
0.952769
2.33137
3.05569
3.38027
3.59512
4.01544
4.98787
6.92112
10.3458
16.0003
24.9288
38.5628
58.747
87.6665
127.64
180.767
248.456
330.894
426.554
531.858
641.098
746.689
839.769
911.101
952.167
956.296
919.668
842.017
726.928
581.65
416.448
243.56
75.9031
-74.3107
-196.867
-284.585
-333.975
-345.448
-323.063
-273.872
-206.955
-132.28
-59.5437
2.87843
48.7429
74.437
79.1277
64.5714
34.6367
-5.37732
-49.5262
-92.0038
-127.829
-153.36
-166.593
-167.226
-156.501
-136.882
-111.6
-84.166
-57.8932
-35.5016
-18.8409
-8.75649
-5.09791
-6.85331
-12.3787
-19.6815
-26.7163
-31.6543
-33.0951
-30.2017
-22.7505
-11.0993
3.91314
21.1157
39.1799
56.7972
72.836
86.4659
97.234
105.092
110.376
113.739
116.056
118.305
121.442
126.288
133.43
143.156
155.425
169.874
185.858
202.524
218.896
233.979
246.846
256.721
263.036
265.461
263.903
258.485
249.501
237.364
222.552
205.561
186.872
166.936
146.172
124.982
103.762
82.9233
62.8959
44.1227
27.0409
12.0506
-0.522806
-10.4668
-17.7121
-22.35
-24.6317
-24.9488
-23.7967
-21.7256
-19.2847
-16.9688
-15.1722
-14.1567
-14.0376
-14.7871
-16.2548
-18.201
-20.3381
-22.3736
-24.0494
-25.1728
-25.6354
-25.4196
-24.5914
-23.2835
-21.6707
-19.9419
-18.2737
-16.8071
-15.6321
-14.7807
-14.2283
-13.9028
-13.6991
-13.4975
-13.1812
-12.652
-11.8426
-10.7231
-9.30246
-7.62569
-5.7669
-3.82025
-1.88988
-0.0799452
1.51418
2.81294
3.75757
4.31283
4.46769
4.23414
3.64453
2.74783
1.60523
0.285724
-1.1381
-2.59363
-4.01099
-5.32521
-6.47776
-7.4179
-8.10413
-8.50573
-8.60467
-8.39739
-7.89633
-7.13062
-6.14559
-5.00079
-3.76634
-2.51806
-1.33146
-0.275515
0.593302
1.23578
1.63311
1.78793
1.72308
1.47846
1.10601
0.663896
0.210131
-0.203212
-0.534851
-0.757555
-0.859623
-0.844493
-0.728706
-0.538571
-0.306046
-0.0643725
0.155983
0.330644
0.44357
0.488059
0.466531
0.389222
0.272077
0.134165
-0.00500059
-0.127908
-0.220944
-0.275542
-0.288456
-0.261148
-0.198379
-0.106183
0.0105877
0.150978
0.320818
0.535738
0.824215
1.23031
1.81546
2.65848
3.85266
5.4994
7.69819
10.5335
14.0599
18.2884
23.1745
28.6123
34.4354
40.4243
46.3223
51.8556
56.7571
60.79
63.7689
65.5743
66.1615
65.5597
63.8647
61.2245
57.8213
53.8512
49.5053
44.9533
40.3319
35.7386
31.2308
26.8298
22.528
18.299
14.1083
9.92238
5.71768
1.4854
-2.76597
-7.01141
-11.2127
-15.3236
-19.2953
-23.0813
-26.6402
-29.9357
-32.934
-35.5985
-37.8844
-39.7335
-41.0725
-41.8137
-41.8622
-41.1252
-39.5262
-37.0187
-33.5997
-29.3198
-24.2869
-18.6654
-12.6665
-6.53442
-0.525517
5.11669
10.1932
14.5902
18.3343
21.6654
25.1274
29.6682
36.728
48.2818
66.7964
95.0606
135.866
191.547
263.419
351.21
452.589
562.919
675.324
781.131
870.663
934.31
963.731
953.018
899.634
804.969
674.43
517.014
344.423
169.83
6.46072
-133.83
-241.794
-311.7
-341.796
-334.302
-294.94
-232.094
-155.705
-76.075
-2.70223
56.6916
96.8551
115.354
112.56
91.3123
56.3232
13.4193
-31.2727
-72.0931
-104.481
-125.407
-133.575
-129.388
-114.714
-92.4909
-66.2417
-39.5693
-15.6925
2.92227
14.7953
19.5212
17.71
10.8066
0.820225
-9.99126
-19.4384
-25.6782
-27.4214
-24.0478
-15.6252
-2.83695
13.164
30.9471
49.0149
66.0025
80.8404
92.8653
101.867
108.074
112.086
114.76
117.083
120.032
124.446
130.931
139.793
151.009
164.24
178.871
194.085
208.943
222.475
233.765
242.029
246.664
247.286
243.744
236.109
224.653
209.811
192.148
172.31
150.989
128.891
106.708
85.0945
64.6481
45.8946
29.2703
15.107
3.61778
-5.1144
-11.1427
-14.6551
-15.9644
-15.4878
-13.7174
-11.1833
-8.41219
-5.88587
-4.00363
-3.05294
-3.19149
-4.44258
-6.70422
-9.77059
-13.3632
-17.1677
-20.8726
-24.2043
-26.9554
-29.0028
-30.3148
-30.9459
-31.0213
-30.7142
-30.218
-29.7191
-29.3714
-29.278
-29.4806
-29.9571
-30.629
-31.3749
-32.0493
-32.5035
-32.606
-32.2594
-31.4128
-30.0667
-28.2723
-26.1236
-23.7454
-21.2774
-18.8577
-16.6075
-14.6183
-12.9442
-11.5989
-10.5573
-9.76281
-9.13709
-8.59237
-8.04381
-7.4208
-6.67557
-5.78833
-4.76843
-3.65169
-2.49428
-1.36439
-0.332683
0.537187
1.19666
1.61817
1.79811
1.75677
1.53537
1.1909
0.789405
0.39886
0.0822737
-0.108173
-0.135538
0.0191342
0.355751
0.855624
1.48318
2.18864
2.91141
3.58413
4.13727
4.50437
4.6277
4.46416
3.99083
3.20948
2.14929
0.866967
-0.556083
-2.01967
-3.41353
-4.62787
-5.56472
-6.1485
-6.33462
-6.1147
-5.51785
-4.60765
-3.47522
-2.22914
-0.98356
0.154211
1.09526
1.77859
2.17786
2.30472
2.2088
1.97424
1.71322
1.55697
1.64478
2.11192
3.07738
4.63242
6.83108
9.68366
13.1539
17.1603
21.5821
26.2685
31.0513
35.7586
40.2291
44.3244
47.9381
51.0016
53.4843
55.3896
56.7475
57.6037
58.0082
58.0049
57.6226
56.8704
55.7373
54.1959
52.2093
49.7415
46.7677
43.2848
39.3183
34.9271
30.2026
25.2642
20.2503
15.3067
10.5738
6.17337
2.19816
-1.29576
-4.29214
-6.81312
-8.91358
-10.6721
-12.1796
-13.5281
-14.7998
-16.0585
-17.3441
-18.6706
-20.0264
-21.3773
-22.6714
-23.8441
-24.8234
-25.5347
-25.905
-25.8663
-25.3585
-24.3322
-22.7507
-20.5918
-17.8465
-14.5126
-10.5785
-5.99024
-0.597314
5.92729
14.1866
25.1632
40.2975
61.4996
91.054
131.383
184.665
252.329
334.512
429.56
533.707
641.03
743.749
832.876
899.17
934.265
931.815
888.486
804.616
684.452
535.884
369.708
198.514
35.3318
-107.782
-221.031
-297.875
-335.623
-335.553
-302.573
-244.465
-170.854
-92.0149
-17.6924
43.9384
87.0454
108.579
108.348
88.7546
54.249
10.5885
-35.9833
-79.5372
-115.141
-139.352
-150.481
-148.613
-135.405
-113.72
-87.134
-59.4208
-34.0515
-13.7892
-0.411837
5.41393
4.10562
-2.99555
-13.8855
-26.2153
-37.6204
-46.0189
-49.843
-48.1835
-40.8369
-28.2595
-11.4462
8.24594
29.2975
50.2265
69.7601
86.9621
101.305
112.684
121.375
127.953
133.185
137.905
142.899
148.807
156.058
164.826
175.037
186.39
198.413
210.528
222.12
232.606
241.486
248.378
253.035
255.339
255.279
252.926
248.391
241.801
233.273
222.903
210.765
196.932
181.491
164.569
146.361
127.144
107.284
87.2286
67.489
48.6053
31.1078
15.4732
2.08372
-8.80607
-17.0907
-22.8204
-26.1929
-27.5299
-27.2432
-25.7933
-23.6451
-21.2274
-18.8977
-16.919
-15.4475
-14.5335
-14.1332
-14.1298
-14.3595
-14.6407
-14.8005
-14.6971
-14.2361
-13.3785
-12.1414
-10.5921
-8.83667
-7.00596
-5.23996
-3.67312
-2.4216
-1.57338
-1.18152
-1.26051
-1.78547
-2.69389
-3.88994
-5.25094
-6.63625
-7.89797
-8.89327
-9.49738
-9.61618
-9.19728
-8.23792
-6.78892
-4.95339
-2.8801
-0.751476
1.23302
2.87663
4.00637
4.49294
4.26714
3.33037
1.75762
-0.307956
-2.66867
-5.0927
-7.33902
-9.18385
-10.4453
-11.003
-10.8111
-9.90102
-8.37705
-6.40197
-4.17724
-1.91927
0.165011
1.90024
3.15986
3.87665
4.04584
3.72068
3.00176
2.02158
0.926737
-0.139986
-1.05556
-1.72882
-2.10773
-2.18133
-1.97652
-1.55077
-0.981819
-0.355959
0.243533
0.746449
1.10314
1.28881
1.3044
1.17437
0.941979
0.662822
0.397533
0.204635
0.134307
0.223775
0.494784
0.953246
1.59079
2.38757
3.31537
4.34027
5.424
6.52383
7.59133
8.57065
9.39742
9.99944
10.3002
10.2253
9.71278
8.72503
7.26241
5.376
3.17748
0.843792
-1.38556
-3.22005
-4.33895
-4.42027
-3.17532
-0.384737
4.06875
10.1757
17.7873
26.6182
36.2631
46.2273
55.9672
64.9344
72.6202
78.5941
82.534
84.2458
83.6712
80.8853
76.0852
69.5715
61.7244
52.9769
43.786
34.6043
25.8521
17.8933
11.0143
5.4097
1.17355
-1.70073
-3.31337
-3.84371
-3.52977
-2.64376
-1.46595
-0.259594
0.75051
1.39382
1.56282
1.21447
0.364856
-0.921242
-2.54406
-4.38338
-6.31183
-8.20558
-9.95135
-11.4501
-12.6179
-13.3861
-13.7011
-13.5258
-12.8425
-11.6552
-9.98939
-7.88095
-5.35005
-2.35064
1.30816
6.0669
12.7351
22.5994
37.4837
59.7165
91.9641
136.907
196.768
272.74
364.399
469.233
582.385
696.736
803.364
892.366
953.963
979.742
963.845
903.927
801.725
663.121
497.688
317.755
137.103
-30.5079
-172.831
-280.41
-347.513
-372.605
-358.308
-310.901
-239.407
-154.441
-66.9317
13.0848
77.4886
120.79
140.48
137.012
113.432
74.7538
27.1624
-22.8335
-69.1999
-107.032
-133.004
-145.577
-144.971
-132.928
-112.316
-86.6406
-59.5349
-34.2957
-13.5125
1.16972
9.14144
10.7776
7.267
0.357741
-7.9401
-15.6502
-21.0863
-23.0401
-20.8831
-14.5795
-4.61828
8.11653
22.5142
37.4165
51.7831
64.8238
76.0811
85.4601
93.2033
99.8212
105.99
112.432
119.801
128.578
139.003
151.041
164.386
178.507
192.713
206.245
218.367
228.443
236.006
240.788
242.727
241.94
238.679
233.265
226.028
217.249
207.124
195.743
183.106
169.154
153.823
137.098
119.073
99.9864
80.2434
60.4035
41.144
23.1983
7.28073
-5.99403
-16.1832
-23.0704
-26.694
-27.3453
-25.5369
-21.9453
-17.3364
-12.4824
-8.08313
-4.69891
-2.70467
-2.26833
-3.35455
-5.75125
-9.11335
-13.0168
-17.0155
-20.6932
-23.7062
-25.8122
-26.8833
-26.9054
-25.9646
-24.2252
-21.9018
-19.2314
-16.4467
-13.7546
-11.3207
-9.26039
-7.63642
-6.46215
-5.70866
-5.31467
-5.19768
-5.26506
-5.42411
-5.59054
-5.69478
-5.68616
-5.53492
-5.23208
-4.78756
-4.22681
-3.58632
-2.90864
-2.23727
-1.61205
-1.06534
-0.619498
-0.285566
-0.0634157
0.0569588
0.0931928
0.0677246
0.00476826
-0.0725426
-0.144529
-0.196639
-0.220302
-0.212969
-0.17742
-0.120532
-0.0517006
0.0188241
0.0814896
0.128693
0.155621
0.160626
0.145171
0.113413
0.071552
0.0270425
-0.0122203
-0.0387026
-0.0459945
-0.0295299
0.0127497
0.0798373
0.167304
0.267273
0.368849
0.459069
0.524351
0.552288
0.533528
0.46344
0.343248
0.180406
-0.0119169
-0.216192
-0.41257
-0.581293
-0.705124
-0.771415
-0.773472
-0.710995
-0.589454
-0.418445
-0.20916
0.0287063
0.29024
0.578294
0.905744
1.29667
1.78627
2.41946
3.24823
4.32799
5.71297
7.45116
9.57896
12.1161
15.0612
18.3892
22.0496
25.9684
30.0508
34.1871
38.2604
42.155
45.7653
49.0043
51.8106
54.1528
56.032
57.4801
58.5564
59.3396
59.918
60.3768
60.7851
61.1829
61.5703
61.9013
62.0829
61.9801
61.4278
60.2482
58.2715
55.3587
51.4229
46.4459
40.4892
33.6957
26.2831
18.5272
10.74
3.24203
-3.66585
-9.72867
-14.758
-18.6449
-21.3643
-22.9697
-23.5805
-23.3629
-22.5081
-21.2102
-19.6466
-17.9635
-16.2672
-14.623
-13.0586
-11.5731
-10.1484
-8.76036
-7.38924
-6.02631
-4.67698
-3.35988
-2.10222
-0.932422
0.130132
1.08931
1.99361
2.97009
4.27675
6.37725
10.0346
16.4097
27.1365
44.3341
70.5115
108.331
160.217
227.842
311.552
409.838
518.98
632.966
743.775
842.025
917.944
962.536
968.781
932.684
854.002
736.526
587.863
418.726
241.824
70.5063
-82.681
-207.313
-296.134
-345.703
-356.571
-332.991
-282.217
-213.503
-136.938
-62.271
2.13658
50.1057
78.1161
85.4279
73.8646
47.3163
11.0463
-29.0945
-67.4424
-99.191
-120.886
-130.702
-128.487
-115.604
-94.5891
-68.7145
-41.499
-16.2435
4.35677
18.4833
25.3276
25.0847
18.8242
8.26614
-4.49779
-17.2998
-28.1683
-35.5463
-38.4341
-36.4468
-29.7872
-19.1472
-5.55637
9.79555
25.7381
41.2763
55.7048
68.6698
80.1739
90.5288
100.268
110.033
120.456
132.049
145.118
159.719
175.644
192.444
209.492
226.051
241.357
254.699
265.478
273.251
277.749
278.872
276.667
271.292
262.977
251.987
238.599
223.085
205.712
186.754
166.508
145.315
123.571
101.737
80.3278
59.8918
40.975
24.0788
9.61297
-2.14701
-11.0917
-17.2936
-21.0038
-22.6277
-22.6837
-21.7482
-20.3943
-19.1314
-18.3541
-18.3054
-19.0592
-20.5242
-22.4668
-24.551
-26.3897
-27.6
-27.857
-26.9391
-24.7608
-21.3883
-17.0392
-12.064
-6.91426
-2.09966
1.86165
4.49429
5.4137
4.3664
1.25865
-3.82932
-10.645
-18.7811
-27.7084
-36.8197
-45.4822
-53.0932
-59.1327
-63.2091
-65.0916
-64.7276
-62.242
-57.9191
-52.1694
-45.4852
-38.3898
-31.3869
-24.9147
-19.3106
-14.7893
-11.436
-9.21367
-7.98346
-7.53369
-7.61336
-7.96579
-8.35827
-8.60478
-8.57981
-8.22295
-7.53497
-6.5672
-5.40637
-4.15759
-2.92779
-1.81155
-0.880759
-0.178729
0.281211
0.513125
0.552846
0.450486
0.262287
0.0429314
-0.160797
-0.31441
-0.397915
-0.40585
-0.345478
-0.233638
-0.0928276
0.0528547
0.181378
0.275644
0.325281
0.327291
0.285609
0.20978
0.11304
0.010128
-0.0848487
-0.16023
-0.208085
-0.22487
-0.211434
-0.172452
-0.115427
-0.0494222
0.0162631
0.0733153
0.115369
0.138617
0.142037
0.127235
0.0980059
0.0597417
0.0188948
-0.0172764
-0.0404821
-0.0406237
-0.00459212
0.0850145
0.250742
0.520151
0.924275
1.49451
2.25817
3.2333
4.42363
5.81469
7.37196
9.04163
10.754
12.4294
13.9853
15.3446
16.443
17.2347
17.696
17.8261
17.6453
17.1907
16.5105
15.6578
14.6844
13.6363
12.5501
11.4515
10.3562
9.27143
8.19899
7.13829
6.0891
5.05347
4.03644
3.04567
2.09016
1.17839
0.316343
-0.494289
-1.25743
-1.98339
-2.68889
-3.39614
-4.13072
-4.91809
-5.77858
-6.72146
-7.73866
-8.79934
-9.84686
-10.7992
-11.5538
-11.9973
-12.0191
-11.528
-10.4692
-8.83889
-6.69509
-4.15948
-1.40914
1.34618
3.90479
6.13567
8.06525
9.98609
12.577
17.013
25.0314
38.9142
61.3466
95.1281
142.74
205.807
284.537
377.237
480.019
586.806
689.672
779.535
847.122
884.093
884.164
844.057
764.118
648.519
504.971
343.991
177.814
19.0768
-120.536
-231.521
-307.511
-345.828
-347.594
-317.402
-262.603
-192.319
-116.315
-43.886
17.1307
61.0845
84.9312
88.3116
73.3091
43.9445
5.49281
-36.2802
-75.8597
-108.616
-131.261
-142.097
-141.039
-129.439
-109.756
-85.1216
-58.8783
-34.1385
-13.4266
1.56544
10.0908
12.3294
9.25587
2.42466
-6.29233
-14.9759
-21.9033
-25.7387
-25.6518
-21.3601
-13.0977
-1.52405
12.4086
27.6076
42.9908
57.6175
70.7865
82.0924
91.4398
99.0177
105.243
110.68
115.954
121.661
128.291
136.165
145.401
155.898
167.351
179.279
191.076
202.069
211.572
218.956
223.685
225.366
223.761
218.805
210.59
199.354
185.454
169.334
151.5
132.491
112.852
93.1216
73.8042
55.3601
38.1881
22.6119
8.86873
-2.8991
-12.6477
-20.4299
-26.3868
-30.7335
-33.7391
-35.7039
-36.9332
-37.7139
-38.2924
-38.8583
-39.5342
-40.3726
-41.3603
-42.4281
-43.4662
-44.3422
-44.9199
-45.0775
-44.7221
-43.8013
-42.3084
-40.2833
-37.8081
-34.9984
-31.9921
-28.9358
-25.972
-23.2273
-20.8022
-18.7657
-17.152
-15.9614
-15.1639
-14.7055
-14.5153
-14.5133
-14.618
-14.7519
-14.8466
-14.8457
-14.7058
-14.3967
-13.9008
-13.2118
-12.3337
-11.2802
-10.0734
-8.74425
-7.33112
-5.87908
-4.43791
-3.05957
-1.79484
-0.689586
0.218985
0.905706
1.35985
1.58628
1.60508
1.44968
1.16359
0.796197
0.397991
0.0159068
-0.310815
-0.553725
-0.696945
-0.737493
-0.684195
-0.555427
-0.375993
-0.173602
0.0246446
0.19534
0.321105
0.391978
0.405774
0.367493
0.287941
0.181863
0.0659633
-0.0428099
-0.12833
-0.175526
-0.169827
-0.0961774
0.0617913
0.321746
0.701272
1.21493
1.87
2.66175
3.56906
4.55176
5.55046
6.48954
7.28328
7.84468
8.09596
7.97944
7.46728
6.56863
5.33309
3.84954
2.2404
0.651497
-0.761145
-1.8463
-2.47231
-2.53996
-1.99166
-0.815968
0.953162
3.24216
5.94774
8.9495
12.1234
15.3543
18.5463
21.629
24.5605
27.3257
29.9326
32.4054
34.7776
37.0842
39.355
41.6088
43.8483
46.0565
48.1939
50.1968
51.9777
53.4269
54.4175
54.812
54.4728
53.2748
51.1194
47.9499
43.764
38.6237
32.6598
26.0684
19.1013
12.0482
5.21335
-1.11064
-6.66943
-11.2704
-14.8
-17.2322
-18.6277
-19.123
-18.9112
-18.2174
-17.271
-16.2789
-15.4037
-14.7478
-14.3474
-14.1745
-14.1474
-14.1473
-14.0388
-13.6899
-12.9908
-11.8677
-10.2915
-8.28056
-5.89785
-3.24404
-0.44644
2.35535
5.02834
7.47223
9.6573
11.6793
13.8348
16.7148
21.3042
29.0629
41.9517
62.3643
92.929
136.167
194.026
267.337
355.298
455.075
561.644
667.95
765.409
844.731
896.975
914.685
892.953
830.232
728.776
594.612
437.047
267.742
99.4978
-55.1156
-185.095
-282.135
-341.43
-362.034
-346.775
-301.737
-235.398
-157.545
-78.1148
-6.09706
51.3674
89.6051
106.689
103.375
82.7296
49.5239
9.48359
-31.4983
-68.0887
-96.099
-112.87
-117.428
-110.424
-93.8688
-70.7387
-44.498
-18.6128
3.88403
20.7266
30.6195
33.297
29.4481
20.5277
8.49356
-4.49392
-16.3636
-25.3829
-30.3356
-30.6125
-26.213
-17.6652
-5.8858
7.99603
22.8208
37.5615
51.4459
64.0242
75.1805
85.0899
94.1373
102.811
111.595
120.867
130.833
141.487
152.616
163.829
174.621
184.446
192.792
199.247
203.548
205.606
205.494
203.429
199.717
194.695
188.672
181.875
174.414
166.27
157.306
147.31
136.047
123.32
109.039
93.2621
76.2249
58.3398
40.1666
22.3611
5.60594
-9.46363
-22.3307
-32.6529
-40.2972
-45.3481
-48.0904
-48.9669
-48.5204
-47.3255
-45.9205
-44.7484
-44.1124
-44.1528
-44.8449
-46.0179
-47.3913
-48.6225
-49.3589
-49.2887
-48.183
-45.9256
-42.5266
-38.1208
-32.9493
-27.3309
-21.6247
-16.1905
-11.3527
-7.37089
-4.42119
-2.58949
-1.87546
-2.20531
-3.44943
-5.44153
-7.99569
-10.9195
-14.0222
-17.1192
-20.0333
-22.5964
-24.6515
-26.0587
-26.7029
-26.5044
-25.4297
-23.5004
-20.7986
-17.4659
-13.6959
-9.72029
-5.78933
-2.14902
0.98204
3.43356
5.09929
5.94581
6.01325
5.40793
4.28812
2.84468
1.27921
-0.217684
-1.48546
-2.40797
-2.92165
-3.01714
-2.73457
-2.15364
-1.38006
-0.530308
0.283352
0.965789
1.44857
1.69529
1.7025
1.49652
1.12697
0.658146
0.159484
-0.303539
-0.677086
-0.924363
-1.02834
-0.991709
-0.834446
-0.589422
-0.29692
0.00119759
0.266892
0.470299
0.592592
0.627161
0.579143
0.463536
0.302269
0.120715
-0.0558796
-0.205578
-0.312196
-0.366758
-0.367892
-0.321213
-0.237873
-0.132556
-0.0212256
0.081056
0.161981
0.213335
0.23179
0.21926
0.183151
0.136905
0.101285
0.106545
0.195249
0.424982
0.869772
1.619
2.77275
4.43328
6.69299
9.62026
13.245
17.5466
22.4458
27.8028
33.4229
39.0676
44.4729
49.3704
53.5099
56.6807
58.7286
59.5677
59.1839
57.6326
55.0283
51.5303
47.3251
42.6094
37.5737
32.3908
27.2075
22.1417
17.2831
12.6972
8.43074
4.51807
0.986461
-2.13989
-4.83801
-7.08624
-8.86624
-10.166
-10.9836
-11.3302
-11.2328
-10.7346
-9.89507
-8.78662
-7.49122
-6.09514
-4.6833
-3.33359
-2.11161
-1.06633
-0.226987
0.398606
0.824267
1.08439
1.23215
1.33808
1.49124
1.80627
2.44109
3.63085
5.74259
9.35142
15.3312
24.9414
39.8797
62.2602
94.4769
138.927
197.592
271.516
360.266
461.465
570.54
680.766
783.663
869.761
929.622
955.032
940.148
882.453
783.34
648.229
486.176
309.008
130.095
-37.0879
-180.407
-290.357
-361.007
-390.513
-381.133
-338.766
-272.102
-191.486
-107.673
-30.6139
31.5737
73.345
92.1057
88.2152
64.6436
26.3548
-20.4867
-69.3722
-114.259
-150.244
-174.02
-184.102
-180.796
-165.956
-142.578
-114.292
-84.8404
-57.594
-35.1732
-19.2057
-10.2368
-7.78723
-10.5334
-16.5747
-23.7437
-29.9148
-33.2738
-32.5175
-26.9672
-16.5919
-1.94661
15.9552
35.8135
56.2317
75.8999
93.7493
109.062
121.524
131.23
138.624
144.412
149.44
154.568
160.55
167.935
177.004
187.738
199.833
212.745
225.758
238.075
248.903
257.535
263.418
266.188
265.691
261.963
255.208
245.742
233.946
220.209
204.889
188.285
170.627
152.084
132.789
112.866
92.4679
71.8042
51.1555
30.8772
11.3835
-6.88156
-23.4835
-38.0408
-50.2653
-59.9931
-67.2025
-72.0147
-74.6792
-75.5447
-75.021
-73.5358
-71.4935
-69.2394
-67.0339
-65.039
-63.3169
-61.8401
-60.5112
-59.187
-57.707
-55.9187
-53.7003
-50.9759
-47.7244
-43.9803
-39.8272
-35.3872
-30.8063
-26.2384
-21.8311
-17.7128
-13.9838
-10.7115
-7.92961
-5.64006
-3.81832
-2.4199
-1.3875
-0.657984
-0.168365
0.139547
0.316007
0.401716
0.427551
0.415357
0.379471
0.328615
0.267855
0.200336
0.128631
0.0555931
-0.0152923
-0.0799864
-0.134294
-0.174429
-0.197601
-0.202491
-0.189524
-0.160898
-0.120347
-0.0727031
-0.0233113
0.0226062
0.0605508
0.0872297
0.100864
0.101293
0.0898697
0.0691836
0.0426493
0.01403
-0.0130435
-0.0354943
-0.0511168
-0.0587577
-0.0583516
-0.0508195
-0.0378562
-0.0216432
-0.00453063
0.0112699
0.0239437
0.0322562
0.0356451
0.0342193
0.0286751
0.020147
0.0100205
-0.000267304
-0.00941263
-0.0163937
-0.0205684
-0.0217145
-0.0200126
-0.0159811
-0.0103747
-0.00406552
0.00207948
0.00730623
0.0110563
0.0130163
0.0131308
0.0115823
0.00874286
0.00510904
0.00123401
-0.00231941
-0.00496658
-0.00596796
-0.00408185
0.00312755
0.0204877
0.0570746
0.128787
0.261479
0.494172
0.881522
1.4945
2.41827
3.74642
5.57147
7.97203
10.9978
14.6548
18.8921
23.5943
28.5794
33.6063
38.3892
42.6205
45.9978
48.2542
49.1857
48.6746
46.7041
43.3637
38.8426
33.4137
27.4091
21.1897
15.1129
9.50103
4.61487
0.634171
-2.35271
-4.34917
-5.44113
-5.77942
-5.55638
-4.97948
-4.24539
-3.51752
-2.90981
-2.47825
-2.22077
-2.08517
-1.98334
-1.80973
-1.46141
-0.856971
0.0481407
1.25157
2.70045
4.29431
5.89392
7.3348
8.44421
9.06081
9.05762
8.3705
7.03663
5.24736
3.41846
2.27469
2.9365
6.98551
16.4755
33.8514
61.7464
102.643
158.416
229.813
315.955
413.96
518.805
623.486
719.527
797.796
849.534
867.481
846.904
786.389
688.253
558.501
406.314
243.132
81.4371
-66.5915
-190.382
-282.067
-337.24
-355.282
-339.238
-295.273
-231.803
-158.414
-84.7199
-19.2982
31.1726
62.4861
73.1442
64.2559
39.1392
2.6997
-39.3181
-81.1055
-117.492
-144.501
-159.698
-162.318
-153.174
-134.384
-108.963
-80.3569
-51.967
-26.7415
-6.86475
6.42071
12.855
13.0747
8.42489
0.705639
-8.10743
-16.1305
-21.7942
-23.9986
-22.1889
-16.3528
-6.94767
5.22202
19.1569
33.8195
48.275
61.8
73.9489
84.5747
93.8077
102
109.646
117.295
125.465
134.567
144.859
156.412
169.114
182.682
196.698
210.65
223.979
236.12
246.533
254.735
260.316
262.944
262.373
258.444
251.086
240.322
226.275
209.18
189.391
167.386
143.768
119.246
94.6094
70.6854
48.2894
28.1646
10.9245
-2.99827
-13.3892
-20.269
-23.8889
-24.7028
-23.3195
-20.4402
-16.7891
-13.0437
-9.7742
-7.39755
-6.15072
-6.08557
-7.08418
-8.89176
-11.1619
-13.5083
-15.5558
-16.9856
-17.5688
-17.1865
-15.834
-13.6113
-10.7017
-7.34283
-3.79524
-0.311825
2.88689
5.62951
7.80136
9.34323
10.2428
10.5213
10.2185
9.3786
8.0391
6.22501
3.9479
1.21004
-1.98806
-5.63827
-9.71575
-14.1716
-18.9286
-23.8805
-28.8945
-33.817
-38.4809
-42.7151
-46.3537
-49.2463
-51.2675
-52.3252
-52.3679
-51.3901
-49.4347
-46.5927
-42.9991
-38.8263
-34.2737
-29.5548
-24.8833
-20.4585
-16.4518
-12.995
-10.173
-8.01853
-6.51357
-5.59337
-5.15535
-5.07088
-5.19895
-5.4004
-5.55121
-5.5536
-5.34368
-4.89507
-4.21831
-3.35617
-2.37579
-1.35856
-0.389183
0.45485
1.11215
1.54373
1.73612
1.70129
1.47351
1.10376
0.652708
0.183048
-0.247753
-0.593427
-0.823007
-0.922653
-0.895081
-0.756769
-0.53335
-0.253911
0.05485
0.373513
0.692761
1.01331
1.34267
1.68924
2.05513
2.42958
2.78506
3.07795
3.2543
3.26076
3.05909
2.64171
2.04548
1.36046
0.731259
0.349552
0.437842
1.22619
2.92494
5.69745
9.63691
14.7509
20.9562
28.0842
35.8961
44.1065
52.4093
60.5055
68.126
75.049
81.1089
86.1963
90.2515
93.2515
95.1953
96.0893
95.9359
94.7278
92.4485
89.0795
84.613
79.0673
72.5021
65.0317
56.8313
48.1364
39.2331
30.4407
22.0879
14.4847
7.89506
2.51222
-1.55925
-4.3126
-5.83792
-6.31113
-5.97427
-5.10933
-4.00892
-2.94694
-2.15286
-1.79209
-1.95461
-2.65254
-3.82659
-5.36007
-7.09832
-8.87125
-10.5162
-11.8986
-12.9292
-13.5748
-13.8628
-13.8762
-13.7358
-13.5672
-13.4449
-13.3117
-12.8741
-11.4813
-8.00842
-0.776097
12.4547
34.3712
67.8528
115.565
179.433
260.067
356.233
464.492
579.104
692.282
794.804
876.94
929.579
945.417
920.011
852.539
746.15
607.817
447.708
278.146
112.293
-37.275
-159.908
-247.98
-297.598
-308.86
-285.635
-234.92
-165.871
-88.6471
-13.208
51.7682
99.7417
126.848
132.075
117.094
85.7853
43.5512
-3.48408
-49.2834
-88.6111
-117.578
-133.967
-137.319
-128.802
-110.885
-86.901
-60.5382
-35.3514
-14.3379
0.370691
7.67822
7.54882
0.89985
-10.6092
-24.8544
-39.5514
-52.5439
-62.0467
-66.8152
-66.233
-60.3138
-49.629
-35.1776
-18.2218
-0.111634
17.8785
34.6837
49.5402
62.0295
72.0751
79.8991
85.9491
90.8062
95.0905
99.3721
104.101
109.558
115.832
122.827
130.281
137.81
144.956
151.24
156.206
159.463
160.711
159.754
156.509
150.997
143.334
133.72
122.424
109.766
96.1034
81.8128
67.2703
52.831
38.8082
25.454
12.9463
1.38119
-9.22354
-18.917
-27.7951
-35.9744
-43.5653
-50.6466
-57.2471
-63.3359
-68.8239
-73.5756
-77.4293
-80.2238
-81.8249
-82.1511
-81.1915
-79.0155
-75.7726
-71.6819
-67.0134
-62.0635
-57.1281
-52.476
-48.3266
-44.8334
-42.0756
-40.0574
-38.715
-37.9302
-37.5478
-37.3954
-37.3028
-37.1184
-36.723
-36.0371
-35.0234
-33.6849
-32.0572
-30.1998
-28.1845
-26.0844
-23.9649
-21.8762
-19.8499
-17.8981
-16.0166
-14.1904
-12.3996
-10.6276
-8.86645
-7.1217
-5.4139
-3.77767
-2.25803
-0.904752
0.234382
1.12044
1.72921
2.05523
2.11356
1.9388
1.58188
1.10472
0.573841
0.053524
-0.400467
-0.745918
-0.95738
-1.0273
-0.965041
-0.794092
-0.547889
-0.264892
0.0164537
0.262258
0.446732
0.5544
0.580855
0.532088
0.422637
0.272881
0.105911
-0.0556022
-0.192161
-0.289502
-0.339799
-0.341936
-0.300919
-0.226599
-0.131913
-0.0309451
0.0629606
0.138785
0.188966
0.209982
0.202391
0.170418
0.121243
0.0642066
0.0101152
-0.0292187
-0.0411646
-0.0122712
0.0717782
0.226069
0.466073
0.8069
1.2622
1.84285
2.55555
3.40174
4.37683
5.47032
6.66663
7.94685
9.2912
10.682
12.1069
13.5619
15.0543
16.6046
18.2475
20.0323
22.0206
24.2835
26.8962
29.9315
33.4515
37.4992
42.0895
47.2015
52.7721
58.6927
64.8085
70.9222
76.8013
82.1888
86.8171
90.4239
92.7683
93.6476
92.9122
90.4788
86.3401
80.5705
73.3276
64.8466
55.4303
45.4321
35.2349
25.2258
15.77
7.18525
-0.279736
-6.46125
-11.2888
-14.7846
-17.0548
-18.273
-18.6573
-18.446
-17.871
-17.1364
-16.4008
-15.7677
-15.2843
-14.9468
-14.7127
-14.5163
-14.2854
-13.957
-13.4884
-12.8639
-12.0956
-11.2185
-10.2812
-9.33284
-8.40554
-7.49108
-6.50797
-5.25397
-3.34029
-0.108228
5.46215
14.83
29.9244
53.0883
86.8965
133.83
195.815
273.678
366.604
471.717
583.881
695.84
798.708
882.809
938.765
958.683
937.288
872.792
767.388
627.244
462.011
283.865
106.239
-57.6283
-196.097
-300.34
-365.197
-389.576
-376.37
-331.922
-265.116
-186.235
-105.735
-33.0751
24.2387
61.3135
76.1699
69.6763
45.1557
7.73902
-36.4341
-81.0575
-120.437
-150.119
-167.3
-171.002
-161.996
-142.522
-115.863
-85.8175
-56.1811
-30.2661
-10.5395
1.60037
5.89002
3.11922
-5.07294
-16.4864
-28.6886
-39.3375
-46.4603
-48.6587
-45.2214
-36.1425
-22.0511
-4.07293
16.3537
37.6786
58.4308
77.3795
93.6467
106.766
116.687
123.73
128.507
131.817
134.535
137.505
141.45
146.904
154.165
163.278
174.045
186.045
198.681
211.224
222.874
232.819
240.294
244.633
245.319
242.022
234.619
223.207
208.087
189.748
168.817
146.019
122.114
97.8489
73.9031
50.8529
29.1449
9.08521
-9.15711
-25.5341
-40.0946
-52.9549
-64.2682
-74.1977
-82.8938
-90.4798
-97.044
-102.64
-107.292
-111.005
-113.778
-115.616
-116.54
-116.596
-115.86
-114.434
-112.445
-110.034
-107.348
-104.529
-101.699
-98.9544
-96.358
-93.9317
-91.6578
-89.4808
-87.3135
-85.0473
-82.5641
-79.7508
-76.5135
-72.7905
-68.5619
-63.8541
-58.7392
-53.3282
-47.7592
-42.183
-36.7465
-31.5783
-26.7776
-22.4079
-18.496
-15.0362
-11.9983
-9.33814
-7.00722
-4.96174
-3.16748
-1.60077
-0.244962
0.91708
1.91301
2.79173
3.63244
4.54958
5.69175
7.23336
9.35894
12.2415
16.0175
20.761
26.4629
33.0162
40.2125
47.7504
55.2562
62.3145
68.5066
73.4503
76.8386
78.47
78.2688
76.2912
72.7176
67.8325
61.9937
55.596
49.0329
42.661
36.7718
31.572
27.1757
23.6062
20.8087
18.6688
17.0363
15.7484
14.652
13.6201
12.5624
11.4296
10.2109
8.92714
7.62166
6.34945
5.16777
4.12847
3.27277
2.62831
2.20796
2.0097
2.01723
2.20105
2.51991
2.92318
3.35388
3.75289
4.0638
4.23815
4.24042
4.05202
3.67369
3.12581
2.44653
1.68768
0.909133
0.172185
-0.467295
-0.965074
-1.29359
-1.44543
-1.43531
-1.30057
-1.10082
-0.916912
-0.849732
-1.01862
-1.55939
-2.62135
-4.36277
-6.94414
-10.5188
-15.2209
-21.1512
-28.3618
-36.8416
-46.5054
-57.1879
-68.646
-80.5696
-92.6015
-104.364
-115.49
-125.653
-134.598
-142.157
-148.264
-152.946
-156.316
-158.548
-159.843
-160.407
-160.415
-159.994
-159.207
-158.057
-156.488
-154.404
-151.683
-148.204
-143.856
-138.556
-132.262
-124.977
-116.755
-107.705
-97.9854
-87.7944
-77.3427
-66.806
-56.2516
-45.5366
-34.1884
-21.2851
-5.36642
15.5831
44.0409
82.7106
134.137
200.203
281.561
377.114
483.642
595.692
705.802
805.082
884.104
934.01
947.668
920.714
852.318
745.534
607.179
447.221
277.783
111.849
-38.1234
-161.523
-250.667
-301.516
-313.94
-291.537
-241.019
-171.292
-92.3373
-14.0498
54.8298
107.566
139.978
150.653
140.817
113.919
74.9905
29.8971
-15.4403
-55.7431
-86.925
-106.44
-113.411
-108.541
-93.8506
-72.279
-47.2232
-22.0703
0.215968
17.4104
28.2154
32.314
30.2948
23.4731
13.6397
2.77974
-7.20229
-14.7155
-18.6494
-18.4595
-14.171
-6.30738
4.23694
16.3589
28.9175
40.8906
51.4982
60.2794
67.1182
72.2206
76.0501
79.2364
82.4708
86.4035
91.5564
98.26
106.62
116.512
127.612
139.433
151.387
162.845
173.19
181.861
188.378
192.358
193.512
191.637
186.608
178.37
166.942
152.427
135.032
115.083
93.0549
69.5706
45.4011
21.4367
-1.35975
-22.0187
-39.6419
-53.4832
-63.0227
-68.0227
-68.5576
-65.0131
-58.053
-48.5567
-37.535
-26.0339
-15.037
-5.37817
2.32558
7.71573
10.7038
11.4536
10.3393
7.88292
4.68378
1.34443
-1.59545
-3.712
-4.73159
-4.54468
-3.19964
-0.879182
2.13599
5.51054
8.89891
11.9854
14.5153
16.3145
17.2966
17.458
16.8641
15.6286
13.8906
11.7929
9.46428
7.00723
4.49311
1.96308
-0.565713
-3.09089
-5.61459
-8.13426
-10.6359
-13.091
-15.4569
-17.6804
-19.7041
-21.4729
-22.9411
-24.0776
-24.8688
-25.3195
-25.4509
-25.2967
-24.8985
-24.3002
-23.5441
-22.6672
-21.6994
-20.6641
-19.5794
-18.46
-17.3208
-16.1784
-15.0527
-13.967
-12.9465
-12.0154
-11.1938
-10.493
-9.91256
-9.43745
-9.03719
-8.66682
-8.26996
-7.78354
-7.14362
-6.29172
-5.1807
-3.77979
-2.07847
-0.08907
2.15159
4.58149
7.11364
9.63754
12.0223
14.1222
15.7851
16.8641
17.2321
16.7982
15.5251
13.4432
10.6615
7.36974
3.83169
0.36779
-2.67281
-4.94797
-6.16247
-6.10672
-4.68885
-1.95466
1.90798
6.58226
11.6521
16.6449
21.0831
24.5363
26.6698
27.2813
26.3228
23.9044
20.2812
15.823
10.9733
6.20161
1.95449
-1.3882
-3.54747
-4.36648
-3.81726
-1.99318
0.910461
4.62437
8.83709
13.2264
17.486
21.3457
24.582
27.0217
28.5387
29.0474
28.4954
26.8586
24.1394
20.3697
15.6163
9.98663
3.63451
-3.23971
-10.3937
-17.554
-24.4331
-30.749
-36.2481
-40.7243
-44.036
-46.1155
-46.9713
-46.6829
-45.3885
-43.2682
-40.5237
-37.3587
-33.9602
-30.4854
-27.0526
-23.7383
-20.58
-17.5819
-14.7241
-11.972
-9.28523
-6.62497
-3.95922
-1.26743
1.45502
4.19197
6.90182
9.51654
11.9503
14.1266
16.0316
17.8017
19.8411
22.9562
28.4793
38.3385
55.0286
81.438
120.512
174.761
245.663
333.062
434.668
545.789
659.405
766.616
857.474
922.088
951.879
940.786
886.234
789.715
656.862
496.999
322.201
146.007
-18.068
-158.002
-264.539
-332.104
-359.244
-348.58
-306.272
-241.108
-163.339
-83.4265
-10.8543
46.8475
84.7708
100.928
96.178
73.8185
38.9275
-2.4461
-44.1278
-80.5915
-107.575
-122.476
-124.501
-114.576
-95.0485
-69.2448
-40.9484
-13.8733
8.80031
24.7775
32.8528
32.9569
26.0562
13.9315
-1.12293
-16.6346
-30.2767
-40.1397
-44.9237
-44.0324
-37.5698
-26.2474
-11.2239
6.09555
24.2706
42.0196
58.3706
72.7555
85.0375
95.475
104.632
113.252
122.114
131.895
143.057
155.772
169.894
184.976
200.335
215.143
228.534
239.713
248.052
253.15
254.87
253.331
248.869
241.969
233.192
223.089
212.128
200.646
188.823
176.685
164.137
151.012
137.136
122.391
106.767
90.3978
73.5711
56.7129
40.3472
25.0381
11.3222
-0.358717
-9.71403
-16.6425
-21.2457
-23.8156
-24.7972
-24.7317
-24.1875
-23.6884
-23.6481
-24.3191
-25.7632
-27.8459
-30.2573
-32.5551
-34.2257
-34.7551
-33.7011
-30.7586
-25.8079
-18.9423
-10.4696
-0.887262
9.16549
18.9731
27.8192
35.0623
40.2035
42.937
43.1789
41.0702
36.9552
31.3388
24.827
18.0603
11.6462
6.10011
1.79943
-1.04353
-2.38888
-2.35699
-1.19976
0.740025
3.07564
5.4239
7.44765
8.88893
9.58991
9.50043
8.6724
7.24316
5.41061
3.40381
1.45287
-0.238442
-1.51431
-2.28093
-2.51199
-2.24571
-1.57459
-0.629666
0.438353
1.47852
2.35726
2.97213
3.26027
3.20101
2.81278
2.14521
1.26791
0.25774
-0.813599
-1.88991
-2.93743
-3.94743
-4.93438
-5.92998
-6.97416
-8.10445
-9.34552
-10.7005
-12.1458
-13.6292
-15.0736
-16.384
-17.4572
-18.1943
-18.5124
-18.3548
-17.6987
-16.5595
-14.9904
-13.0783
-10.9369
-8.69647
-6.49303
-4.45666
-2.70108
-1.31492
-0.355475
0.154486
0.226824
-0.0948573
-0.740544
-1.62083
-2.63471
-3.67719
-4.64603
-5.44703
-5.99786
-6.23051
-6.09273
-5.54896
-4.58101
-3.18889
-1.39142
0.773136
3.24714
5.95444
8.80246
11.6856
14.4898
17.0983
19.3981
21.2859
22.6745
23.4973
23.712
23.3022
22.2772
20.6701
18.5337
15.9359
12.9535
9.66648
6.15238
2.48232
-1.28168
-5.08745
-8.89188
-12.6589
-16.3572
-19.9576
-23.4318
-26.7522
-29.8928
-32.8314
-35.5526
-38.0495
-40.3254
-42.393
-44.2721
-45.9854
-47.5532
-48.9877
-50.2891
-51.4422
-52.4166
-53.1687
-53.6472
-53.7993
-53.5778
-52.9483
-51.8933
-50.4148
-48.5325
-46.2809
-43.7023
-40.8411
-37.7367
-34.4152
-30.8758
-27.0655
-22.8321
-17.8509
-11.5249
-2.87198
9.57078
27.7853
54.2045
91.499
142.204
208.208
290.165
386.937
495.189
609.244
721.3
822.022
901.47
950.266
960.823
928.467
852.27
735.444
585.24
412.321
229.707
51.4056
-109.082
-240.194
-333.494
-384.471
-392.864
-362.496
-300.638
-217.034
-122.689
-28.6001
55.4184
121.693
165.324
184.45
180.139
155.957
117.283
70.4888
22.0837
-22.0688
-57.3706
-80.8914
-91.5252
-89.9096
-78.1388
-59.3313
-37.1176
-15.1214
3.50252
16.4206
22.3324
21.0291
13.3093
0.77491
-14.451
-30.0435
-43.7858
-53.8319
-58.8941
-58.3392
-52.1911
-41.0521
-25.96
-8.21027
10.8316
29.9009
47.9675
64.3206
78.599
90.7721
101.08
109.949
117.894
125.429
132.995
140.907
149.335
158.299
167.695
177.319
186.903
196.145
204.727
212.331
218.644
223.355
226.154
226.736
224.813
220.132
212.507
201.847
188.194
171.749
152.883
132.14
110.211
87.8995
66.0659
45.5621
27.1655
11.5151
-0.940392
-9.97728
-15.6101
-18.0824
-17.8354
-15.4599
-11.6345
-7.05977
-2.39392
1.80297
5.11038
7.27127
8.19707
7.95472
6.73862
4.83202
2.5629
0.260133
-1.78552
-3.35127
-4.30079
-4.59029
-4.2628
-3.43266
-2.26322
-0.941003
0.349962
1.45065
2.24394
2.66444
2.70084
2.39127
1.81308
1.06879
0.270512
-0.475172
-1.07995
-1.48286
-1.65499
-1.59961
-1.34837
-0.954369
-0.483546
-0.00564694
0.413857
0.719978
0.871987
0.844719
0.6278
0.223496
-0.356007
-1.09112
-1.95668
-2.92285
-3.95526
-5.01469
-6.0569
-7.03304
-7.89117
-8.57886
-9.04707
-9.25474
-9.17352
-8.79208
-8.11906
-7.18421
-6.03731
-4.74486
-3.38479
-2.03981
-0.790131
0.293523
1.15594
1.76169
2.09737
2.17145
2.01207
1.66289
1.17757
0.613604
0.025943
-0.538717
-1.04653
-1.47947
-1.83634
-2.13178
-2.39337
-2.6572
-2.96246
-3.3458
-3.83619
-4.45085
-5.19303
-6.05176
-7.00366
-8.01671
-9.05541
-10.0867
-11.0857
-12.0405
-12.9545
-13.8462
-14.7443
-15.6802
-16.6769
-17.7374
-18.8326
-19.8943
-20.8124
-21.4396
-21.6033
-21.1235
-19.836
-17.6153
-14.3966
-10.1915
-5.09577
0.712574
6.98571
13.4267
19.7166
25.5448
30.6384
34.7863
37.8571
39.806
40.6723
40.5664
39.6505
38.1127
36.1416
33.9023
31.5184
29.0611
26.5475
23.9474
21.197
18.218
14.9381
11.3114
7.33352
3.05236
-1.43025
-5.9638
-10.3618
-14.4198
-17.9367
-20.7354
-22.6823
-23.7004
-23.7767
-22.9625
-21.366
-19.1397
-16.4637
-13.5274
-10.5114
-7.57281
-4.83365
-2.37454
-0.232908
1.59445
3.1452
4.48241
5.68318
6.82591
7.97769
9.18472
10.4706
11.8489
13.3582
15.1252
17.457
20.9564
26.6381
36.0156
51.1153
74.3782
108.418
155.632
217.695
295.009
386.204
487.803
594.16
697.735
789.703
860.871
902.77
908.776
875.094
801.446
691.344
551.897
393.158
227.095
66.3137
-77.2933
-193.806
-276.278
-321.37
-329.541
-304.792
-254.022
-186.085
-110.688
-37.2629
26.0436
73.1484
100.51
107.267
95.0542
67.5367
29.7569
-12.6217
-54.0642
-89.8209
-116.416
-131.931
-136.054
-129.936
-115.866
-96.8414
-76.092
-56.6213
-40.8258
-30.2315
-25.3703
-25.7991
-30.2475
-36.8609
-43.4994
-48.0503
-48.7093
-44.2003
-33.9081
-17.9159
3.04891
27.746
54.6063
81.9423
108.154
131.906
152.259
168.736
181.33
190.456
196.848
201.436
205.203
209.059
213.726
219.664
227.038
235.721
245.335
255.319
265.007
273.715
280.812
285.777
288.228
287.936
284.807
278.86
270.196
258.966
245.35
229.551
211.791
192.326
171.463
149.573
127.102
104.567
82.545
61.6387
42.4428
25.4959
11.2356
-0.042328
-8.21282
-13.3352
-15.6493
-15.5532
-13.5665
-10.2817
-6.31007
-2.22774
1.47139
4.41204
6.35902
7.2228
7.04927
5.99627
4.30032
2.23817
0.0880734
-1.90485
-3.55541
-4.75491
-5.47647
-5.76949
-5.74514
-5.55538
-5.36882
-5.3467
-5.62198
-6.28394
-7.36965
-8.86289
-10.7
-12.7812
-14.9865
-17.1918
-19.2864
-21.186
-22.8431
-24.2516
-25.4454
-26.4923
-27.4831
-28.5174
-29.6882
-31.067
-32.6905
-34.5523
-36.5984
-38.729
-40.8054
-42.6628
-44.1258
-45.0267
-45.2238
-44.6172
-43.1614
-40.8718
-37.8256
-34.1554
-30.0381
-25.6778
-21.288
-17.0716
-13.2041
-9.81953
-7.00232
-4.7843
-3.14778
-2.03333
-1.3512
-0.994622
-0.853295
-0.825445
-0.827222
-0.798649
-0.705846
-0.539756
-0.311986
-0.0486905
0.216489
0.449375
0.621214
0.712983
0.717672
0.640484
0.497197
0.311172
0.109638
-0.0800693
-0.233708
-0.33232
-0.363169
-0.319417
-0.198772
-0.00146689
0.271928
0.622363
1.05342
1.57142
2.18444
2.9005
3.72519
4.65936
5.69736
6.82645
8.02752
9.27737
10.5522
11.8321
13.1047
14.3696
15.6391
16.9388
18.3042
19.7762
21.394
23.1877
25.1709
27.3341
29.6412
32.0281
34.405
36.6623
38.6787
40.3321
41.5099
42.1202
42.1001
41.4216
40.0934
38.1584
35.6883
32.7742
29.5161
26.0118
22.3472
18.5903
14.7874
10.9647
7.13257
3.29292
-0.552926
-4.39658
-8.21708
-11.9783
-15.6291
-19.1069
-22.3419
-25.2628
-27.8018
-29.8987
-31.5036
-32.5785
-33.0985
-33.052
-32.4419
-31.2856
-29.6158
-27.4806
-24.9429
-22.0786
-18.9738
-15.7205
-12.4116
-9.13521
-5.96831
-2.97088
-0.17904
2.40349
4.81864
7.17638
9.69187
12.7422
16.9429
23.237
32.9753
47.9559
70.3833
102.708
147.324
206.14
280.053
368.427
468.673
576.044
683.735
783.335
865.602
921.497
943.321
925.809
866.994
768.706
636.613
479.777
309.772
139.472
-18.3244
-152.272
-253.658
-317.26
-341.767
-329.737
-287.11
-222.354
-145.378
-66.3411
5.47923
62.6311
100.15
115.878
110.423
86.8097
49.8728
5.49794
-40.185
-81.5584
-114.134
-134.973
-142.872
-138.321
-123.26
-100.678
-74.1332
-47.2453
-23.2372
-4.57388
7.26611
11.8722
9.83993
2.58949
-7.9015
-19.4075
-29.764
-37.1369
-40.2217
-38.3535
-31.5234
-20.3071
-5.72366
10.9489
28.3743
45.3447
60.9307
74.5769
86.136
95.8418
104.232
112.032
120.029
128.94
139.302
151.401
165.231
180.5
196.671
213.031
228.774
243.097
255.273
264.724
271.055
274.076
273.79
270.367
264.101
255.361
244.546
232.04
218.183
203.257
187.474
170.995
153.944
136.437
118.609
100.642
82.7776
65.327
48.6597
33.1822
19.3057
7.40576
-2.2186
-9.3814
-14.0366
-16.2909
-16.4
-14.7495
-11.8202
-8.14473
-4.25817
-0.650212
2.27659
4.2375
5.08237
4.7974
3.49248
1.37669
-1.27459
-4.15646
-6.97084
-9.45836
-11.4226
-12.7446
-13.3875
-13.391
-12.8581
-11.9359
-10.7938
-9.6015
-8.5098
-7.63535
-7.05152
-6.78509
-6.81874
-7.09832
-7.54357
-8.06064
-8.55475
-8.94169
-9.15693
-9.16161
-8.94525
-8.52497
-7.94178
-7.25451
-6.53206
-5.84497
-5.25713
-4.81852
-4.55952
-4.48756
-4.58628
-4.8173
-5.12471
-5.44145
-5.69727
-5.82712
-5.77905
-5.52062
-5.04302
-4.36233
-3.51777
-2.56717
-1.58028
-0.630737
0.212259
0.891473
1.36754
1.62256
1.661
1.50798
1.20529
0.80571
0.36643
-0.0575373
-0.419213
-0.684103
-0.832828
-0.861772
-0.781834
-0.615591
-0.393372
-0.14879
0.0856822
0.282624
0.422709
0.496726
0.50656
0.46524
0.396196
0.331852
0.311639
0.379468
0.580664
0.958395
1.5497
2.38133
3.46569
4.79745
6.35126
8.08123
9.92249
11.7952
13.6108
15.2801
16.7224
17.8748
18.7
19.1925
19.3804
19.3252
19.1161
18.8616
18.6786
18.6799
18.9624
19.5968
20.6199
22.0321
23.7985
25.8536
28.1103
30.4697
32.8312
35.1012
37.1985
39.0564
40.6208
41.8445
42.6806
43.0754
42.9634
42.267
40.9011
38.7829
35.847
32.0613
27.4428
22.0691
16.083
9.68954
3.14338
-3.27041
-9.26109
-14.5587
-18.9388
-22.242
-24.3866
-25.3717
-25.2721
-24.2263
-22.4184
-20.0576
-17.3588
-14.5241
-11.7293
-9.11525
-6.78369
-4.79767
-3.18499
-1.94358
-1.04761
-0.453286
-0.103676
0.0680087
0.137529
0.19273
0.343886
0.746307
1.64108
3.41797
6.69864
12.4282
21.9504
37.0314
59.7924
92.5176
137.326
195.727
268.111
353.269
448.049
547.24
643.778
729.284
794.9
832.341
834.995
798.929
723.618
612.29
471.792
312.006
144.848
-16.9926
-161.425
-278.258
-360.257
-403.835
-409.301
-380.639
-324.879
-251.147
-169.526
-89.8834
-20.8075
31.2353
62.4243
71.7595
60.8908
33.6528
-4.61521
-47.8606
-90.116
-126.206
-152.286
-166.162
-167.375
-157.065
-137.648
-112.374
-84.8233
-58.4212
-36.0173
-19.5853
-10.0634
-7.34085
-10.378
-17.4318
-26.347
-34.8711
-40.9523
-42.9842
-39.973
-31.6135
-18.273
-0.893699
19.1685
40.3428
61.0541
79.9173
95.896
108.406
117.359
123.139
126.525
128.569
130.451
133.316
138.138
145.605
156.042
169.39
185.224
202.812
221.208
239.354
256.186
270.729
282.173
289.912
293.572
292.998
288.235
279.491
267.094
251.463
233.072
212.432
190.079
166.569
142.47
118.365
94.8375
72.4588
51.7673
33.2404
17.2651
4.11053
-6.0941
-13.3716
-17.8964
-19.981
-20.0488
-18.5981
-16.1585
-13.2462
-10.3227
-7.75977
-5.81683
-4.6292
-4.21044
-4.46629
-5.21844
-6.23478
-7.26253
-8.06053
-8.4272
-8.22176
-7.37689
-5.90234
-3.87997
-1.45154
1.19871
3.86441
6.33794
8.42974
9.98434
10.8917
11.0937
10.5848
9.40836
7.64871
5.42034
2.85574
0.0930116
-2.73534
-5.51143
-8.13816
-10.5423
-12.6748
-14.5077
-16.0309
-17.2461
-18.1622
-18.7903
-19.1408
-19.221
-19.0349
-18.585
-17.8751
-16.9151
-15.7266
-14.3486
-12.8423
-11.2919
-9.80228
-8.49046
-7.47158
-6.84068
-6.65239
-6.90207
-7.51216
-8.32742
-9.12147
-9.61531
-9.50648
-8.50547
-6.37459
-2.96353
1.76375
7.71514
14.6719
22.306
30.2111
37.9434
45.0666
51.1966
56.0381
59.4124
61.2699
61.6902
60.8682
59.0892
56.6973
54.0587
51.5247
49.3981
47.9032
47.1651
47.1966
47.8969
49.0599
50.3939
51.55
52.1582
51.8659
50.3771
47.4858
43.1011
37.26
30.1266
21.9773
13.1738
4.12677
-4.74485
-13.0544
-20.4837
-26.8094
-31.9193
-35.8135
-38.5944
-40.4446
-41.5973
-42.3021
-42.7916
-43.2529
-43.8072
-44.5001
-45.3033
-46.1266
-46.8379
-47.2888
-47.3399
-46.8844
-45.8655
-44.2861
-42.2095
-39.7525
-37.0716
-34.344
-31.7478
-29.4424
-27.5516
-26.1526
-25.2692
-24.8725
-24.8859
-25.1948
-25.6591
-26.1266
-26.4468
-26.4832
-26.1239
-25.2894
-23.9382
-22.0689
-19.7194
-16.9623
-13.8985
-10.6473
-7.33512
-4.08384
-1.00018
1.83322
4.36319
6.56753
8.45218
10.0444
11.3831
12.5075
13.4462
14.209
14.7831
15.1358
15.227
15.0322
14.5818
14.0183
13.6745
14.1685
16.5054
22.1606
33.1123
51.7818
80.845
122.899
179.993
253.082
341.486
442.47
551.055
660.158
761.086
844.366
900.823
922.752
905.02
845.919
747.626
616.19
461.022
293.943
127.923
-24.3355
-151.775
-246.148
-302.827
-321.152
-304.317
-258.794
-193.419
-118.249
-43.3466
22.3424
71.9116
101.099
108.538
95.6377
66.1553
25.5154
-20.0049
-64.1202
-101.306
-127.403
-140
-138.562
-124.326
-99.977
-69.1826
-36.0496
-4.57666
21.8266
40.702
50.7526
51.8886
45.1199
32.3246
15.933
-1.42257
-17.2473
-29.4693
-36.6423
-38.0486
-33.6987
-24.2404
-10.7964
5.23955
22.4182
39.4317
55.2675
69.304
81.3398
91.5592
100.447
108.665
116.921
125.837
135.845
147.119
159.555
172.788
186.249
199.253
211.084
221.094
228.765
233.762
235.942
235.339
232.129
226.577
218.979
209.616
198.722
186.467
172.966
158.299
142.545
125.826
108.335
90.3608
72.2956
54.6208
37.8766
22.6171
9.35688
-1.48318
-9.62281
-14.9559
-17.5656
-17.7186
-15.8396
-12.4685
-8.20653
-3.65733
0.629705
4.20737
6.76478
8.14446
8.34145
7.48575
5.8113
3.61601
1.21834
-1.08427
-3.0504
-4.51956
-5.42484
-5.79313
-5.73385
-5.41882
-5.05656
-4.86472
-5.04422
-5.75783
-7.11506
-9.16386
-11.8889
-15.2157
-19.0182
-23.1309
-27.361
-31.5033
-35.3545
-38.7274
-41.4639
-43.446
-44.6044
-44.9232
-44.4405
-43.245
-41.4682
-39.2728
-36.8385
-34.347
-31.966
-29.8359
-28.0581
-26.6885
-25.7342
-25.1551
-24.8707
-24.7688
-24.7187
-24.5838
-24.2356
-23.5649
-22.4916
-20.9694
-18.9883
-16.5723
-13.7742
-10.6683
-7.34229
-3.88947
-0.402295
3.03174
6.33181
9.42323
12.2354
14.6989
16.744
18.2994
19.2942
19.6618
19.3458
18.3083
16.5376
14.0567
10.9292
7.2626
3.20734
-1.04832
-5.28877
-9.28542
-12.8142
-15.6746
-17.7073
-18.8104
-18.9489
-18.1603
-16.5518
-14.2915
-11.5934
-8.69847
-5.85281
-3.28553
-1.18881
0.298366
1.1011
1.21318
0.694996
-0.334786
-1.71283
-3.24849
-4.74303
-6.00846
-6.88393
-7.24789
-7.02455
-6.1842
-4.73762
-2.7256
-0.205503
2.76312
6.13143
9.87093
13.9781
18.4735
23.3953
28.7884
34.6902
41.1156
48.0421
55.3992
63.0603
70.841
78.5033
85.7652
92.316
97.8355
102.017
104.591
105.35
104.166
101.01
95.9605
89.2026
81.0226
71.7898
61.9316
51.9021
42.1477
33.0716
25.0031
18.1725
12.6954
8.5687
5.67677
3.80905
2.68596
1.99072
1.40352
0.634426
-0.548685
-2.29975
-4.68376
-7.67612
-11.1715
-15.0004
-18.9511
-22.7934
-26.3028
-29.2801
-31.5681
-33.0607
-33.7072
-33.5097
-32.5147
-30.7984
-28.4425
-25.4984
-21.9356
-17.5711
-11.9825
-4.41339
6.30739
21.8043
44.1132
75.526
118.303
174.26
244.273
327.783
422.395
523.679
625.264
719.259
796.988
849.959
870.946
855.016
800.338
708.654
585.303
438.797
279.978
120.881
-26.5658
-151.812
-246.785
-306.664
-330.257
-319.932
-281.149
-221.66
-150.5
-76.8964
-9.25147
45.7025
83.4758
102.08
101.969
85.6992
57.3758
21.9793
-15.34
-49.9041
-78.0164
-97.2876
-106.76
-106.837
-99.0457
-85.6895
-69.4396
-52.931
-38.4113
-27.4851
-20.9729
-18.8931
-20.5525
-24.7228
-29.869
-34.3943
-36.8668
-36.2013
-31.7761
-23.4774
-11.6725
2.87732
19.1477
36.0043
52.3577
67.2996
80.206
90.7965
99.1464
105.652
110.956
115.849
121.15
127.592
135.723
145.833
157.915
171.666
186.526
201.744
216.466
229.832
241.062
249.529
254.809
256.698
255.202
250.505
242.918
232.824
220.627
206.706
191.396
174.973
157.672
139.701
121.273
102.634
84.0773
65.9526
48.657
32.6111
18.224
5.85239
-4.24046
-11.9187
-17.1952
-20.2371
-21.3539
-20.9684
-19.5758
-17.6939
-15.8118
-14.3424
-13.5845
-13.6979
-14.6941
-16.4437
-18.6972
-21.1174
-23.3191
-24.911
-25.5366
-24.9093
-22.8404
-19.2574
-14.213
-7.88502
-0.568571
7.33921
15.36
22.961
29.5859
34.6919
37.7882
38.4776
36.4946
31.7382
24.2938
14.4408
2.64208
-10.4834
-24.2055
-37.7404
-50.3143
-61.2285
-69.9171
-75.9921
-79.2707
-79.7828
-77.7576
-73.5921
-67.8051
-60.9823
-53.7184
-46.5638
-39.979
-34.3027
-29.7359
-26.3406
-24.0538
-22.713
-22.0879
-21.9156
-21.9341
-21.9101
-21.6585
-21.0539
-20.0317
-18.5826
-16.7409
-14.5703
-12.1489
-9.55672
-6.86519
-4.13222
-1.4005
1.30009
3.94737
6.52022
8.99164
11.3231
13.461
15.3362
16.867
17.9646
18.5418
18.5222
17.8498
16.4971
14.4712
11.8169
8.61573
4.98246
1.05816
-2.99881
-7.02304
-10.8528
-14.3401
-17.3595
-19.8149
-21.6437
-22.8185
-23.3458
-23.2617
-22.6266
-21.5172
-20.0194
-18.2197
-16.1992
-14.0275
-11.7585
-9.42882
-7.05704
-4.64564
-2.18413
0.346279
2.96739
5.69841
8.55068
11.5233
14.6003
17.7488
20.9202
24.0524
27.0743
29.9116
32.4937
34.7605
36.6684
38.194
39.3357
40.1103
40.5471
40.6781
40.5272
40.0993
39.3723
38.2939
36.7849
34.7484
32.085
28.7124
24.5846
19.709
14.1581
8.07253
1.65511
-4.84369
-11.1478
-16.9818
-22.0976
-26.2984
-29.4565
-31.5216
-32.5206
-32.5481
-31.7486
-30.2952
-28.3667
-26.1256
-23.7022
-21.1837
-18.6111
-15.9828
-13.2627
-10.3925
-7.30516
-3.93732
-0.240059
3.81435
8.23058
12.9955
18.0933
23.5354
29.4088
35.9459
43.6145
53.2158
65.9684
83.546
108.027
141.721
186.86
245.157
317.29
402.396
497.686
598.283
697.373
786.7
857.376
900.913
910.349
881.27
812.599
706.993
570.772
413.387
246.464
82.57
-66.1524
-189.297
-279.278
-332.057
-347.431
-328.855
-282.843
-218.055
-144.178
-70.771
-6.2161
43.1127
73.3671
83.396
74.5791
50.3753
15.6674
-23.9931
-63.1388
-97.042
-122.203
-136.628
-139.887
-132.965
-117.961
-97.6737
-75.1581
-53.2996
-34.4649
-20.2619
-11.4291
-7.8495
-8.67532
-12.5316
-17.764
-22.6923
-25.8369
-26.0913
-22.8254
-15.9145
-5.69818
7.11728
21.5934
36.7104
51.5132
65.2332
77.3726
87.745
96.4685
103.92
110.656
117.319
124.537
132.831
142.548
153.818
166.545
180.419
194.969
209.617
223.747
236.769
248.169
257.541
264.599
269.167
271.149
270.497
267.175
261.134
252.305
240.607
225.984
208.446
188.122
165.308
140.498
114.388
87.8556
61.9066
37.5957
15.9334
-2.21289
-16.2087
-25.7205
-30.7534
-31.6516
-29.062
-23.8638
-17.0747
-9.74344
-2.84337
2.82064
6.68157
8.44853
8.11138
5.91314
2.29598
-2.17098
-6.8718
-11.2217
-14.7339
-17.0678
-18.0561
-17.7074
-16.1886
-13.7896
-10.8776
-7.84585
-5.06538
-2.84338
-1.39357
-0.820286
-1.11682
-2.17671
-3.81538
-5.79843
-7.87271
-9.7963
-11.3641
-12.4264
-12.8996
-12.7681
-12.0791
-10.9299
-9.45284
-7.79697
-6.11075
-4.5269
-3.15089
-2.05381
-1.26985
-0.797874
-0.606491
-0.641496
-0.834633
-1.11262
-1.40547
-1.65342
-1.81189
-1.85423
-1.77226
-1.57475
-1.28432
-0.93314
-0.558079
-0.195933
0.120872
0.367586
0.529224
0.601318
0.589383
0.507293
0.374858
0.214972
0.0507173
-0.0972458
-0.212714
-0.285243
-0.310659
-0.290815
-0.23272
-0.147202
-0.0473037
0.0534002
0.142392
0.209551
0.248141
0.255406
0.23277
0.185712
0.123391
0.0580813
0.00447683
-0.0211551
-0.0019606
0.0783568
0.234279
0.477201
0.814315
1.24786
1.77497
2.38818
3.07675
3.82851
4.63201
5.47849
6.3633
7.28624
8.2509
9.26281
10.327
11.4451
12.6137
13.8224
15.0549
16.2906
17.508
18.6882
19.8192
20.8987
21.9346
22.9446
23.9515
24.9782
26.0403
27.1385
28.2523
29.3363
30.3195
31.1086
31.5954
31.6681
31.2235
30.1812
28.4952
26.1632
23.2314
19.793
15.9821
11.9629
7.91435
4.01414
0.422559
-2.73136
-5.35971
-7.4207
-8.91842
-9.89779
-10.4356
-10.6294
-10.5851
-10.4054
-10.1805
-9.98067
-9.85261
-9.81846
-9.87764
-10.0108
-10.1847
-10.3581
-10.4867
-10.528
-10.4438
-10.2028
-9.78007
-9.15667
-8.31701
-7.24491
-5.91619
-4.28433
-2.25376
0.365548
3.92628
9.03253
16.6359
28.1132
45.2876
70.3537
105.673
153.43
215.168
291.276
380.504
479.625
583.352
684.559
774.842
845.374
887.935
896.005
865.72
796.566
691.682
557.709
404.195
242.627
85.2095
-56.4428
-172.537
-256.099
-303.613
-315.245
-294.628
-248.261
-184.614
-113.064
-42.7948
18.1904
63.8521
90.5985
97.4454
85.8568
59.3123
22.6801
-18.5141
-58.8211
-93.5167
-119.095
-133.558
-136.495
-128.946
-113.113
-91.9497
-68.7
-46.4561
-27.7784
-14.4255
-7.21417
-6.01414
-9.86334
-17.1773
-26.0159
-34.3681
-40.4163
-42.7505
-40.5082
-33.432
-21.8448
-6.55424
11.2937
30.3889
49.4346
67.3051
83.1656
96.544
107.349
115.84
122.552
128.196
133.544
139.32
146.101
154.251
163.885
174.868
186.846
199.296
211.595
223.093
233.177
241.322
247.124
250.311
250.74
248.378
243.273
235.537
225.318
212.793
198.168
181.677
163.599
144.27
124.088
103.521
83.091
63.3571
44.8843
28.2039
13.7712
1.92519
-7.14396
-13.4148
-17.0391
-18.3286
-17.7262
-15.7637
-13.0112
-10.0246
-7.2956
-5.21177
-4.02922
-3.86108
-4.68212
-6.34769
-8.62405
-11.2257
-13.8544
-16.2365
-18.152
-19.456
-20.0877
-20.0691
-19.4939
-18.5088
-17.29
-16.019
-14.8592
-13.9373
-13.3307
-13.0625
-13.1033
-13.3793
-13.7853
-14.2007
-14.5052
-14.5938
-14.3886
-13.8465
-12.9619
-11.7656
-10.3189
-8.70611
-7.02375
-5.37032
-3.83633
-2.49596
-1.40125
-0.578966
-0.0304073
0.2661
0.350609
0.275474
0.0986254
-0.123023
-0.339305
-0.511136
-0.613104
-0.634218
-0.576932
-0.454747
-0.288835
-0.104193
0.0741561
0.224485
0.330835
0.384469
0.384216
0.335824
0.250498
0.142897
0.0289237
-0.0764157
-0.160804
-0.215875
-0.237846
-0.2275
-0.189601
-0.131869
-0.0636944
0.00522376
0.0661292
0.112209
0.139244
0.145861
0.133403
0.105471
0.0672285
0.024588
-0.016615
-0.051347
-0.0759245
-0.0883336
-0.088306
-0.0771671
-0.0574992
-0.0326838
-0.00639032
0.0179155
0.0373863
0.0500858
0.055135
0.0527111
0.0439127
0.0305234
0.0147154
-0.00126578
-0.0153912
-0.0260809
-0.0323547
-0.0338909
-0.0309893
-0.0244315
-0.0152111
-0.00406317
0.00931118
0.0274271
0.0566299
0.109014
0.204336
0.37145
0.64876
1.08322
1.72766
2.63636
3.85919
5.43475
7.38313
9.69907
12.3464
15.2547
18.3187
21.402
24.3437
26.9698
29.1069
30.5982
31.3184
31.1882
30.1842
28.3438
25.7646
22.5971
19.0322
15.2843
11.5719
8.09819
5.03334
2.50114
0.570713
-0.74554
-1.48799
-1.74052
-1.61743
-1.24825
-0.762461
-0.275946
0.11937
0.361662
0.420778
0.295518
0.00754562
-0.406695
-0.904369
-1.44336
-1.98683
-2.50457
-2.97129
-3.36248
-3.64923
-3.79337
-3.74421
-3.43755
-2.79607
-1.72864
-0.123568
2.1713
5.38867
9.90666
16.3357
25.6138
39.0828
58.5094
86.0076
123.833
174.036
238.001
315.93
406.369
505.884
608.987
708.386
795.573
861.692
898.601
899.966
862.22
785.239
672.617
531.479
371.835
205.572
45.188
-97.5461
-212.834
-293.852
-337.372
-343.952
-317.684
-265.543
-196.449
-120.159
-46.1428
17.4278
64.461
91.4215
97.4707
84.2803
55.5722
16.4633
-27.2861
-70.0211
-106.848
-134.125
-149.751
-153.235
-145.557
-128.877
-106.123
-80.5407
-55.255
-32.8982
-15.3443
-3.57005
2.35655
3.17064
0.216891
-4.79897
-10.0754
-13.9619
-15.1573
-12.8409
-6.72505
2.96749
15.5922
30.2181
45.7872
61.2753
75.8308
88.8761
100.16
109.755
118.015
125.482
132.782
140.513
149.135
158.903
169.816
181.62
193.838
205.831
216.888
226.306
233.482
237.97
239.527
238.116
233.893
227.153
218.274
207.645
195.612
182.436
168.28
153.219
137.28
120.49
102.932
84.7942
66.3959
48.195
30.7636
14.7407
0.765899
-10.5952
-18.9228
-24.0014
-25.8543
-24.7518
-21.1885
-15.8362
-9.47733
-2.9307
3.02067
7.68937
10.5237
11.1247
9.24134
4.74767
-2.38927
-12.1432
-24.4553
-39.2483
-56.4239
-75.8454
-97.3088
-120.509
-145.01
-170.227
-195.432
-219.774
-242.328
-262.165
-278.426
-290.403
-297.613
-299.848
-297.206
-290.082
-279.141
-265.253
-249.411
-232.643
-215.912
-200.04
-185.637
-173.062
-162.412
-153.533
-146.066
-139.497
-133.236
-126.688
-119.318
-110.712
-100.611
-100.611
-100.611
-100.611
-100.611
-100.611
-100.611
-100.611
-100.611
-100.611
-100.611
-100.611
-100.611
-100.611
-100.611
-100.611
-100.611
-100.611
-100.611
-100.611
