68.6455
65.136
60.7306
55.3982
49.1677
42.1347
34.4605
26.3638
18.1036
9.95754
2.19668
-4.93966
-11.2654
-16.6634
-21.0927
-24.5885
-27.2528
-29.2394
-30.7352
-31.9386
-33.0403
-34.2069
-35.5687
-37.2134
-39.185
-41.4866
-44.0873
-46.9299
-49.9394
-53.0306
-56.1136
-59.0971
-61.8909
-64.405
-66.5492
-68.2323
-69.3618
-69.8445
-69.5894
-68.5109
-66.5338
-63.5982
-59.6637
-54.7133
-48.755
-41.8225
-33.9742
-25.2921
-15.8795
-5.85979
4.62551
15.4177
26.343
37.2146
47.8378
58.0151
67.5548
76.2799
84.0378
90.7083
96.21
100.503
103.589
105.509
106.334
106.16
105.099
103.273
100.8
97.7963
94.3655
90.5977
86.5663
82.3258
77.9102
73.3316
68.5805
63.6263
58.4218
52.9086
47.0255
40.7195
33.9558
26.729
19.0709
11.0558
2.80169
-5.53417
-13.7634
-21.6797
-29.0748
-35.7558
-41.5626
-46.3828
-50.1624
-52.912
-54.7064
-55.6787
-56.0087
-55.9074
-55.5985
-55.2989
-55.2001
-55.4522
-56.1514
-57.3328
-58.9692
-60.975
-63.2153
-65.5181
-67.6878
-69.5181
-70.8014
-71.3344
-70.9208
-69.3706
-66.4997
-62.132
-56.1052
-48.2823
-38.5671
-26.9225
-13.3882
1.90465
18.7261
36.7484
55.5564
74.6673
93.5574
111.694
128.567
143.725
156.798
167.525
175.768
181.518
184.896
186.139
185.587
183.655
180.802
177.504
174.22
171.362
169.279
168.235
168.403
169.857
172.571
176.4
181.068
186.134
190.959
194.664
196.111
193.91
186.461
172.067
149.085
116.138
72.345
17.5534
-47.4708
-120.92
-199.925
-280.651
-358.514
-428.513
-485.637
-525.322
-543.909
-539.042
-509.97
-457.713
-385.058
-296.378
-197.295
-94.2011
6.29944
97.9784
175.534
235.046
274.285
292.844
292.091
274.938
245.471
208.482
168.955
131.567
100.25
77.867
66.0177
64.9916
73.862
90.6998
112.873
137.396
161.281
181.856
197.023
205.418
206.478
200.417
188.106
170.901
150.426
128.354
106.2
85.1581
65.9965
49.0104
34.0421
20.5551
7.74798
-5.30713
-19.5224
-35.6642
-54.2502
-75.4828
-99.2248
-125.016
-152.124
-179.629
-206.515
-231.777
-254.513
-274.008
-289.785
-301.633
-309.61
-314.008
-315.303
-314.095
-311.026
-306.711
-301.675
-296.297
-290.784
-285.155
-279.264
-272.823
-265.462
-256.785
-246.436
-234.158
-219.843
-203.56
-185.566
-166.287
-146.288
-126.217
-106.742
-88.4904
-71.9833
-57.5948
-45.5214
-35.7772
-28.208
-22.5245
-18.3482
-15.2622
-12.8622
-10.7985
-8.80641
-6.72143
-4.47911
-2.10147
0.326407
2.68542
4.85224
6.72608
8.24895
9.41789
10.2882
10.9685
11.6085
12.3825
13.4694
15.033
17.2039
20.0648
23.6401
27.892
32.7219
37.9767
43.4612
48.9526
54.2166
59.0236
63.1616
66.4474
68.7328
69.9082
69.9035
68.6865
66.2614
62.666
57.9687
52.2664
45.6807
38.3555
30.4524
22.1458
13.6177
5.05044
-3.38064
-11.515
-19.2147
-26.3701
-32.9045
-38.7751
-43.9695
-48.4994
-52.3898
-55.6658
-58.3375
-60.3868
-61.7555
-62.3403
-61.9934
-60.532
-57.7559
-53.4721
-47.5238
-39.8215
-30.3704
-19.2914
-6.83054
6.64457
20.6632
34.683
48.1328
60.4594
71.1761
79.9026
86.3949
90.5593
92.4509
92.258
90.276
86.8759
82.4723
77.495
72.3675
67.4915
63.2381
59.9409
57.8869
57.3028
58.3304
60.9925
65.1466
70.4325
76.2202
81.5684
85.2077
85.5607
80.8111
69.0269
48.3355
17.1402
-25.6418
-80.3479
-146.373
-222.039
-304.558
-390.103
-473.991
-550.984
-615.675
-662.926
-688.343
-688.707
-662.344
-609.373
-531.81
-433.495
-319.853
-197.489
-73.6663
44.2903
149.61
236.642
301.313
341.44
356.852
349.324
322.326
280.622
229.761
175.524
123.374
77.9821
42.8552
20.1152
10.4307
13.102
26.2768
47.261
72.8843
99.8734
125.193
146.322
161.436
169.499
170.258
164.151
152.162
135.634
116.079
94.9951
73.7178
53.313
34.5197
17.7382
3.05877
-9.68058
-20.818
-30.7862
-40.0352
-48.9675
-57.8908
-66.9895
-76.3168
-85.8028
-95.2764
-104.496
-113.187
-121.072
-127.909
-133.509
-137.755
-140.606
-142.094
-142.309
-141.387
-139.483
-136.753
-133.332
-129.314
-124.744
-119.604
-113.82
-107.262
-99.7631
-91.1396
-81.2202
-69.8768
-57.0555
-42.802
-27.2784
-10.7665
6.34152
23.5686
40.3886
56.2704
70.725
83.3484
93.8573
102.112
108.122
112.041
114.145
114.795
114.403
113.385
112.122
110.928
110.024
109.526
109.442
109.684
110.086
110.429
110.469
109.965
108.704
106.52
103.306
99.0216
93.6899
87.3887
80.2391
72.3904
64.0043
55.2411
46.2477
37.1502
28.0506
19.0272
10.1394
1.43429
-7.04537
-15.2537
-23.136
-30.6268
-37.65
-44.1244
-49.9712
-55.1239
-59.5385
-63.2027
-66.1421
-68.4222
-70.1451
-71.441
-72.4551
-73.3309
-74.1927
-75.1288
-76.1776
-77.3205
-78.4796
-79.5244
-80.2837
-80.5642
-80.1711
-78.9298
-76.7051
-73.4163
-69.0453
-63.6385
-57.3013
-50.1879
-42.4864
-34.4031
-26.1464
-17.9136
-9.8799
-2.19195
5.03567
11.7201
17.8074
23.2686
28.0939
32.2879
35.865
38.8457
41.255
43.1222
44.4824
45.3798
45.8708
46.028
45.943
45.7268
45.509
45.4342
45.6563
46.3297
47.598
49.5759
52.3236
55.8106
59.8691
64.1389
68.0127
70.5913
70.6645
66.7314
57.0706
39.8674
13.3934
-23.7727
-72.505
-132.899
-204.082
-284.097
-369.888
-457.401
-541.806
-617.827
-680.152
-723.888
-745.014
-740.782
-710.037
-653.397
-573.292
-473.839
-360.559
-239.967
-119.058
-4.73872
96.7284
180.236
242.226
280.941
296.497
290.784
267.197
230.236
185.024
136.784
90.3481
49.7407
17.8761
-3.60218
-14.3337
-15.1162
-7.66765
5.68574
22.3538
39.8146
55.8964
68.9809
78.112
83.0066
83.9786
81.7959
77.4974
72.1979
66.91
62.4029
59.1132
57.1134
56.1339
55.6317
54.8892
53.1271
49.6167
43.7747
35.2323
23.8704
9.82137
-6.55985
-24.7488
-44.1183
-64.0096
-83.7969
-102.939
-121.01
-137.714
-152.878
-166.433
-178.381
-188.771
-197.67
-205.138
-211.222
-215.947
-219.321
-221.337
-221.982
-221.24
-219.1
-215.552
-210.59
-204.216
-196.441
-187.291
-176.812
-165.081
-152.211
-138.356
-123.714
-108.526
-93.0703
-77.6545
-62.6013
-48.2342
-34.8603
-22.7522
-12.1318
-3.15579
4.0944
9.61772
13.4927
15.8704
16.9617
17.0198
16.3196
15.1356
13.7209
12.2897
11.0037
9.96509
9.21586
8.74328
8.49064
8.37156
8.28603
8.13604
7.83915
7.33859
6.60904
5.65809
4.52347
3.26718
1.96722
0.708298
-0.427364
-1.36831
-2.06033
-2.47076
-2.59049
-2.43364
-2.03527
-1.44752
-0.734682
0.0322489
0.780972
1.44272
1.95614
2.26995
2.34409
2.14944
1.66598
0.879774
-0.22069
-1.64822
-3.41962
-5.55655
-8.08391
-11.0255
-14.397
-18.1975
-22.4003
-26.944
-31.7265
-36.6015
-41.3803
-45.8375
-49.7218
-52.7713
-54.7312
-55.373
-54.5138
-52.0325
-47.8822
-42.0975
-34.7954
-26.1688
-16.4745
-6.01493
4.88396
15.8971
26.7244
37.1114
46.8642
55.8572
64.0311
71.3828
77.9483
83.7815
88.9332
93.4341
97.2859
100.463
102.924
104.632
105.584
105.829
105.487
104.75
103.855
103.048
102.51
102.284
102.184
101.72
100.052
95.9795
87.9914
74.3761
53.391
23.4799
-16.4811
-66.9375
-127.442
-196.503
-271.528
-348.877
-424.048
-491.974
-547.431
-585.506
-602.084
-594.308
-560.941
-502.603
-421.83
-322.946
-211.765
-95.1203
19.7037
125.602
216.267
286.732
333.781
356.192
354.772
332.205
292.713
241.586
184.62
127.541
75.4653
32.4524
1.20281
-17.086
-22.6935
-17.1961
-3.16444
16.2194
37.5753
57.72
73.9991
84.5257
88.3044
85.2393
76.0362
62.0216
44.909
26.5467
8.67958
-7.24782
-20.2278
-29.7559
-35.8272
-38.8724
-39.6477
-39.0987
-38.2188
-37.9197
-38.9295
-41.7275
-46.5193
-53.2496
-61.6456
-71.2816
-81.6525
-92.2452
-102.598
-112.344
-121.229
-129.112
-135.946
-141.749
-146.563
-150.418
-153.305
-155.153
-155.827
-155.14
-152.872
-148.807
-142.769
-134.656
-124.481
-112.382
-98.6439
-83.6805
-68.0181
-52.254
-37.0063
-22.8558
-10.2867
0.364206
8.94601
15.5099
20.3024
23.7337
26.3258
28.6455
31.2327
34.532
38.8379
44.2604
50.7147
57.9359
65.5169
72.9621
79.7507
85.4014
89.5284
91.8845
92.3855
91.1133
88.2999
84.2941
79.5167
74.4101
69.3883
64.7945
60.8694
57.7341
55.3892
53.7269
52.5561
51.6341
50.7025
49.52
47.8907
45.6832
42.8392
39.3722
35.3578
30.9166
26.1956
21.3475
16.5135
11.8099
7.32012
3.09134
-0.863327
-4.55972
-8.03538
-11.3418
-14.5373
-17.682
-20.8346
-24.051
-27.3837
-30.8823
-34.5921
-38.5513
-42.7866
-47.306
-52.0909
-57.0881
-62.2033
-67.2968
-72.1846
-76.6441
-80.425
-83.266
-84.9145
-85.1488
-83.8004
-80.7734
-76.0598
-69.7477
-62.0216
-53.1547
-43.4918
-33.4262
-23.3707
-13.7269
-4.85495
2.95301
9.49293
14.6608
18.4553
20.9705
22.381
22.9198
22.852
22.448
21.9579
21.5911
21.5036
21.7948
22.5145
23.6783
25.2899
27.3622
29.9322
33.0611
36.8136
41.2131
46.1737
51.4184
56.3958
60.2152
61.6205
59.02
50.5843
34.4136
8.76317
-27.6943
-75.6008
-134.676
-203.55
-279.689
-359.453
-438.276
-510.972
-572.144
-616.654
-640.111
-639.327
-612.687
-560.392
-484.538
-389.029
-279.307
-161.935
-44.067
67.1537
165.194
244.676
301.819
334.713
343.422
329.895
297.702
251.624
197.155
139.958
85.3395
37.7978
0.678458
-24.0266
-35.7306
-35.1603
-24.1408
-5.29194
18.326
43.5734
67.5615
87.9174
102.963
111.794
114.266
110.894
102.685
90.9425
77.056
62.3142
47.7564
34.0801
21.6081
10.3133
-0.109595
-10.1409
-20.3198
-31.1333
-42.9248
-55.8355
-69.782
-84.4718
-99.4494
-114.165
-128.055
-140.612
-151.457
-160.375
-167.334
-172.476
-176.086
-178.544
-180.264
-181.642
-183.001
-184.548
-186.356
-188.358
-190.352
-192.03
-193.013
-192.89
-191.263
-187.783
-182.19
-174.335
-164.199
-151.898
-137.676
-121.891
-104.99
-87.4815
-69.8984
-52.7638
-36.558
-21.6886
-8.46862
2.89781
12.3206
19.8198
25.513
29.5971
32.3246
33.9782
34.8456
35.1968
35.2652
35.2337
35.2267
35.3078
35.4821
35.7045
35.891
35.9328
35.7119
35.1174
34.0592
32.4799
30.3625
27.7342
24.6647
21.2614
17.6598
14.0124
10.4752
7.19525
4.29798
1.87815
-0.00705077
-1.34116
-2.14815
-2.48889
-2.45488
-2.16019
-1.73213
-1.30178
-0.994962
-0.924341
-1.18324
-1.84152
-2.94376
-4.50963
-6.5361
-9.00103
-11.8672
-15.0866
-18.6032
-22.356
-26.2798
-30.3064
-34.365
-38.3823
-42.2839
-45.9944
-49.4386
-52.5416
-55.2275
-57.4182
-59.0302
-59.9723
-60.1425
-59.4285
-57.7101
-54.8651
-50.78
-45.3623
-38.5556
-30.3543
-20.8162
-10.0703
1.67995
14.1619
27.0452
39.9603
52.5216
64.3532
75.1137
84.5175
92.3499
98.4751
102.836
105.449
106.392
105.791
103.813
100.65
96.5222
91.6694
86.3567
80.8733
75.5299
70.6485
66.5402
63.4696
61.6027
60.9418
61.2508
61.9834
62.2266
60.6783
55.675
45.283
27.4587
0.27109
-37.831
-87.7353
-149.404
-221.672
-302.141
-387.2
-472.186
-551.682
-619.939
-671.378
-701.127
-705.546
-682.651
-632.418
-556.899
-460.137
-347.884
-227.135
-105.536
9.28622
110.388
192.111
250.55
283.838
292.235
278.001
245.077
198.623
144.454
88.4526
36.0087
-8.44856
-41.7825
-62.3208
-69.8602
-65.5173
-51.4565
-30.5347
-5.91283
19.3208
42.4734
61.4864
75.0715
82.7411
84.7414
81.908
75.4699
66.8329
57.3691
48.2402
40.2694
33.8743
29.0598
25.4674
22.4661
19.2713
15.0722
9.15264
0.990737
-9.67307
-22.8044
-38.0805
-54.9294
-72.5955
-90.222
-106.94
-121.952
-134.609
-144.456
-151.267
-155.042
-155.99
-154.489
-151.023
-146.13
-140.337
-134.106
-127.796
-121.638
-115.732
-110.053
-104.478
-98.8134
-92.8376
-86.3325
-79.1166
-71.0681
-62.1385
-52.3567
-41.8238
-30.701
-19.1925
-7.52561
4.06876
15.3748
26.2067
36.42
45.9165
54.6454
62.5986
69.8008
76.2978
82.1416
87.3755
92.0201
96.0616
99.445
102.072
103.808
104.493
103.962
102.074
98.7296
93.9056
87.6665
80.1758
71.6922
62.5538
53.1519
43.8962
35.1774
27.3305
20.6047
15.1432
10.9747
8.0181
6.09861
4.97288
4.35957
3.97124
3.54382
2.86033
1.76674
0.179014
-1.91842
-4.48177
-7.42268
-10.6266
-13.973
-17.3545
-20.6942
-23.9592
-27.1689
-30.3991
-33.7807
-37.4941
-41.7594
-46.8218
-52.9326
-60.3246
-69.1831
-79.6136
-91.6081
-105.015
-119.516
-134.612
-149.634
-163.76
-176.073
-185.621
-191.508
-192.978
-189.509
-180.876
-167.204
-148.972
-126.985
-102.315
-76.2
-49.9358
-24.7522
-1.70387
18.4195
35.1504
48.3624
58.25
65.2741
70.0799
73.4004
75.9571
78.3703
81.0902
84.3551
88.1814
92.3845
96.626
100.481
103.515
105.362
105.793
104.763
102.439
99.1872
95.5293
92.066
89.3648
87.8274
87.5509
88.2026
88.9341
88.3572
84.603
75.4714
58.667
32.1019
-5.76973
-55.63
-117.035
-188.258
-266.268
-346.864
-424.955
-494.964
-551.325
-588.999
-603.982
-593.727
-557.443
-496.24
-413.103
-312.676
-200.908
-84.5567
29.3755
134.232
224.261
295.076
343.992
370.189
374.684
360.147
330.544
290.683
245.697
200.526
159.459
125.766
101.477
87.3046
82.7081
86.0963
95.1169
107.004
118.938
128.369
133.289
132.407
125.233
112.061
93.8673
72.1425
48.6804
25.3521
3.89093
-14.2904
-28.235
-37.5179
-42.2631
-43.1018
-41.0818
-37.5396
-33.9489
-31.7612
-32.2557
-36.4104
-44.8091
-57.5912
-74.4487
-94.6691
-117.22
-140.859
-164.271
-186.191
-205.525
-221.44
-233.417
-241.266
-245.098
-245.274
-242.325
-236.864
-229.505
-220.793
-211.151
-200.859
-190.052
-178.74
-166.85
-154.269
-140.892
-126.673
-111.653
-95.9785
-79.9097
-63.7986
-48.0592
-33.1236
-19.3927
-7.18965
3.2789
11.9458
18.8887
24.3159
28.5356
31.9136
34.8244
37.604
40.5108
43.6986
47.2063
50.963
54.8086
58.5239
61.8672
64.6095
66.5654
67.6143
67.7108
66.8841
65.2273
62.8807
60.0101
56.7865
53.3669
49.8812
46.4233
43.0495
39.7813
36.6125
33.5182
30.4653
27.4215
24.363
21.2784
18.171
15.0574
11.9636
8.91997
5.95538
3.09107
0.335752
-2.31794
-4.89486
-7.43658
-9.99814
-12.6428
-15.435
-18.4326
-21.6786
-25.1943
-28.9741
-32.9831
-37.1583
-41.413
-45.6448
-49.7455
-53.6116
-57.1533
-60.3015
-63.0098
-65.2525
-67.0171
-68.2949
-69.0695
-69.3063
-68.9462
-67.9046
-66.0774
-63.3533
-59.6315
-54.8422
-48.9665
-42.052
-34.2227
-25.6784
-16.6861
-7.56076
1.35972
9.74477
17.3014
23.8017
29.1035
33.1631
36.0369
37.8739
38.8985
39.3875
39.6425
39.9621
40.6164
41.8265
43.7509
46.4782
50.0283
54.3576
59.3669
64.9078
70.7816
76.7278
82.3995
87.3263
90.8704
92.1893
90.2167
83.6808
71.1713
51.2613
22.6814
-15.4718
-63.5161
-120.986
-186.49
-257.654
-331.17
-402.956
-468.426
-522.844
-561.733
-581.298
-578.817
-552.965
-504.014
-433.915
-346.208
-245.799
-138.588
-31.0119
70.4906
160.009
232.657
284.969
315.168
323.272
311.028
281.685
239.631
189.931
137.827
88.2402
45.3369
12.199
-9.3743
-18.9192
-17.2193
-6.09639
11.8856
33.7667
56.5419
77.4806
94.3814
105.74
110.825
109.653
102.891
91.6901
77.4896
61.8066
46.0451
31.341
18.4583
7.74453
-0.85618
-7.74022
-13.5442
-19.0243
-24.9338
-31.9135
-40.4094
-50.6257
-62.5151
-75.8033
-90.0421
-104.679
-119.132
-132.86
-145.422
-156.51
-165.966
-173.771
-180.026
-184.909
-188.634
-191.402
-193.37
-194.623
-195.16
-194.898
-193.689
-191.347
-187.676
-182.51
-175.735
-167.321
-157.33
-145.917
-133.326
-119.864
-105.885
-91.7568
-77.835
-64.4403
-51.8379
-40.2237
-29.7165
-20.3559
-12.1049
-4.85893
1.54255
7.29917
12.6305
17.7547
22.8662
28.1141
33.5841
39.2837
45.1356
50.9784
56.5773
61.6439
65.8642
68.9313
70.5806
70.6225
68.9682
65.6459
60.8041
54.7016
47.6861
40.1616
32.5517
25.2604
18.6365
12.9461
8.35441
4.92028
2.6018
1.27229
0.743621
0.793297
1.19193
1.72752
2.2241
2.55296
2.63619
2.44286
1.97951
1.27693
0.375633
-0.687637
-1.89047
-3.23103
-4.72954
-6.42492
-8.3679
-10.6114
-13.2004
-16.1617
-19.4962
-23.1729
-27.1254
-31.2519
-35.4163
-39.4515
-43.1653
-46.3471
-48.7773
-50.2398
-50.5362
-49.5033
-47.0306
-43.0775
-37.6866
-30.9916
-23.2178
-14.6726
-5.72884
3.20071
11.6933
19.3487
25.8199
30.8396
34.2391
35.9581
36.0444
34.6449
31.9872
28.3574
24.0727
19.4559
14.8115
10.4059
6.45581
3.12169
0.509791
-1.32025
-2.34302
-2.55311
-1.9527
-0.545437
1.65893
4.62487
8.25444
12.3348
16.4756
20.0463
22.1287
21.4999
16.6626
5.93196
-12.4174
-39.9524
-77.8475
-126.644
-186.033
-254.702
-330.263
-409.299
-487.518
-560.028
-621.696
-667.571
-693.322
-695.661
-672.694
-624.175
-551.624
-458.299
-349.003
-229.757
-107.338
11.2541
119.371
211.259
282.529
330.496
354.35
355.155
335.662
299.971
253.074
200.34
146.987
97.6158
55.8278
23.9885
3.13125
-6.98777
-7.70639
-1.17448
9.98563
23.0331
35.4353
45.1332
50.7209
51.5267
47.5986
39.6042
28.667
16.1662
3.52805
-7.96553
-17.328
-23.9658
-27.7154
-28.8223
-27.8715
-25.6825
-23.1869
-21.3054
-20.8391
-22.3862
-26.2916
-32.63
-41.2197
-51.6628
-63.4009
-75.7804
-88.1161
-99.7499
-110.097
-118.68
-125.15
-129.293
-131.028
-130.398
-127.553
-122.725
-116.214
-108.353
-99.4918
-89.9702
-80.1032
-70.1665
-60.3904
-50.9588
-42.0131
-33.6597
-25.9781
-19.0277
-12.8519
-7.47845
-2.91532
0.854884
3.88168
6.25152
8.08875
9.55147
10.8217
12.0905
13.5401
15.3244
17.5513
20.2688
23.4575
27.0299
30.8367
34.6808
38.3358
41.5678
44.1577
45.9222
46.7309
46.5171
45.2836
43.1001
40.0955
36.4442
32.3497
28.0259
23.6795
19.4942
15.619
12.1605
9.18031
6.69729
4.69322
3.12157
1.91755
1.00844
0.322682
-0.202926
-0.618791
-0.960909
-1.25198
-1.50472
-1.72667
-1.92554
-2.1142
-2.3145
-2.55929
-2.89245
-3.36677
-4.04047
-4.9727
-6.21922
-7.82891
-9.84145
-12.2862
-15.1818
-18.5352
-22.3405
-26.5751
-31.1958
-36.1325
-41.2833
-46.5098
-51.6351
-56.4459
-60.6979
-64.1262
-66.4595
-67.4381
-66.8335
-64.4692
-60.2399
-54.1275
-46.2117
-36.6734
-25.7904
-13.9237
-1.49503
11.0415
23.2331
34.6632
44.9827
53.9364
61.3776
67.2733
71.695
74.8004
76.8067
77.9606
78.5096
78.6781
78.6524
78.5748
78.5483
78.6503
78.9518
79.5392
80.5331
82.0982
84.439
87.7742
92.2886
98.0608
104.974
112.62
120.213
126.536
129.943
128.427
119.77
101.767
72.5113
30.6959
-24.0888
-91.1218
-168.415
-252.71
-339.612
-423.881
-499.827
-561.795
-604.688
-624.454
-618.513
-586.058
-528.201
-447.951
-350.015
-240.436
-126.11
-14.2134
88.3989
175.764
243.295
288.136
309.34
307.872
286.428
249.095
200.9
147.291
93.6112
44.6142
4.07862
-25.4546
-42.7995
-48.096
-42.6505
-28.6727
-8.94626
13.5256
35.8596
55.5814
70.8373
80.5127
84.2545
82.4026
75.8506
65.857
53.8367
41.1581
28.9724
18.09
8.91617
1.4468
-4.68268
-10.1059
-15.6086
-22.0017
-30.0029
-40.1372
-52.6689
-67.569
-84.5193
-102.95
-122.104
-141.12
-159.125
-175.316
-189.042
-199.855
-207.541
-212.122
-213.837
-213.091
-210.404
-206.333
-201.412
-196.089
-190.686
-185.37
-180.153
-174.905
-169.386
-163.288
-156.284
-148.068
-138.403
-127.146
-114.271
-99.8755
-84.1764
-67.4933
-50.2263
-32.8273
-15.7676
0.493335
15.5382
29.0176
40.6707
50.3387
57.9711
63.624
67.4507
69.6857
70.6234
70.5927
69.931
68.9586
67.9568
67.151
66.6996
66.6903
67.1418
68.0111
69.2037
70.5867
72.0012
73.275
74.2343
74.7135
74.5645
73.6642
71.9213
69.2814
65.7309
61.299
56.0568
50.115
43.6172
36.7319
29.6416
22.5306
15.5717
8.91518
2.6776
-3.06433
-8.27696
-12.9681
-17.1814
-20.9873
-24.4723
-27.7276
-30.8395
-33.8824
-36.9156
-39.9839
-43.1215
-46.3583
-49.7268
-53.2676
-57.0321
-61.0804
-65.475
-70.2686
-75.4897
-81.1262
-87.109
-93.3002
-99.4861
-105.377
-110.619
-114.809
-117.524
-118.354
-116.94
-113.011
-106.419
-97.1688
-85.4329
-71.5551
-56.0385
-39.5169
-22.7128
-6.38363
8.73769
22.0022
32.8988
41.0956
46.4648
49.088
49.2409
47.3589
43.988
39.7273
35.1692
30.8456
27.1869
24.496
22.9422
22.5697
23.319
25.0535
27.5826
30.6745
34.0528
37.3733
40.1836
41.8735
41.626
38.3874
30.8695
17.6024
-2.95708
-32.2561
-71.4294
-121.055
-180.913
-249.795
-325.388
-404.284
-482.121
-553.865
-614.211
-658.063
-681.039
-679.95
-653.188
-600.977
-525.45
-430.549
-321.734
-205.549
-89.0706
20.6962
117.418
195.968
252.834
286.376
296.89
286.489
258.806
218.576
171.115
121.786
75.4823
36.2032
6.74729
-11.4449
-18.2935
-14.9386
-3.48313
13.3436
32.5569
51.2777
67.0447
78.0455
83.249
82.4333
76.1161
65.4054
51.797
36.9478
22.4547
9.66538
-0.459917
-7.42392
-11.203
-12.199
-11.1446
-8.97907
-6.71321
-5.30013
-5.52684
-7.93643
-12.7861
-20.0411
-29.4018
-40.3554
-52.2461
-64.3517
-75.9603
-86.4374
-95.2791
-102.146
-106.879
-109.492
-110.152
-109.139
-106.806
-103.523
-99.6312
-95.4042
-91.015
-86.5228
-81.8739
-76.919
-71.4421
-65.1983
-57.9545
-49.5269
-39.8123
-28.8083
-16.6202
-3.45637
10.3889
24.5605
38.6739
52.3472
65.2321
77.0386
87.5535
96.6483
104.279
110.476
115.329
118.96
121.507
123.09
123.801
123.68
122.718
120.852
117.984
113.999
108.792
102.295
94.5045
85.5012
75.4596
64.6471
53.4097
42.1474
31.2811
21.2143
12.2957
4.78614
-1.16577
-5.53604
-8.42468
-10.0421
-10.684
-10.6985
-10.4487
-10.2752
-10.4632
-11.217
-12.6451
-14.7571
-17.4714
-20.634
-24.0433
-27.4802
-30.7379
-33.649
-36.1058
-38.0734
-39.5917
-40.7688
-41.7653
-42.7719
-43.9834
-45.5724
-47.6647
-50.3209
-53.5245
-57.1787
-61.1105
-65.0824
-68.8097
-71.9806
-74.278
-75.4018
-75.089
-73.132
-69.3932
-63.817
-56.4355
-47.3705
-36.8289
-25.092
-12.4998
0.569388
13.7228
26.5774
38.7828
50.0411
60.1201
68.8604
76.1741
82.0377
86.4783
89.5586
91.3598
91.9685
91.4669
89.9296
87.4255
84.0255
79.8136
74.8999
69.4323
63.6056
57.6628
51.8881
46.587
42.0525
38.5179
36.0949
34.7053
34.01
33.3497
31.7092
27.7207
19.7191
5.85888
-15.7084
-46.6024
-87.9498
-140.119
-202.489
-273.294
-349.58
-427.293
-501.514
-566.825
-617.776
-649.409
-657.777
-640.404
-596.628
-527.77
-437.123
-329.735
-212.022
-91.2228
25.2173
130.302
218.089
284.193
326.127
343.464
337.783
312.427
272.099
222.338
168.94
117.387
72.3418
37.2578
14.1483
3.51864
4.4657
14.9193
31.9886
52.3668
72.7436
90.1783
102.394
107.969
106.404
98.0864
84.142
66.2255
46.2641
26.1981
7.74522
-7.78271
-19.5955
-27.465
-31.6935
-33.0202
-32.485
-31.2687
-30.5338
-31.2825
-34.2498
-39.8383
-48.1009
-58.7655
-71.2958
-84.9772
-99.0135
-112.623
-125.121
-135.983
-144.879
-151.684
-156.458
-159.408
-160.834
-161.073
-160.439
-159.172
-157.412
-155.177
-152.371
-148.807
-144.241
-138.417
-131.117
-122.199
-111.633
-99.5168
-86.0753
-71.6434
-56.6306
-41.4765
-26.6009
-12.3576
1.00265
13.3537
24.6986
35.1551
44.9262
54.2592
63.3997
72.5471
81.8182
91.223
100.656
109.902
118.659
126.571
133.262
138.383
141.644
142.849
141.914
138.877
133.892
127.217
119.187
110.186
100.61
90.8413
81.2139
71.9984
63.3875
55.4934
48.3517
41.9333
36.1598
30.9211
26.0924
21.5493
17.1776
12.8789
8.57155
4.18761
-0.332153
-5.04296
-9.99919
-15.2545
-20.8589
-26.8528
-33.2597
-40.0792
-47.2809
-54.8024
-62.5494
-70.4005
-78.2145
-85.8391
-93.1199
-99.9083
-106.068
-111.475
-116.023
-119.615
-122.163
-123.584
-123.794
-122.71
-120.25
-116.344
-110.939
-104.019
-95.6163
-85.8267
-74.8219
-62.8522
-50.2438
-37.3848
-24.7032
-12.6374
-1.60205
8.04558
16.0358
22.2083
26.5223
29.0549
29.9862
29.5749
28.1284
25.9718
23.421
20.7642
18.2534
16.1058
14.5125
13.6515
13.6995
14.8399
17.2617
21.15
26.6647
33.9098
42.8939
53.4837
65.3552
77.9456
90.4156
101.628
110.158
114.338
112.357
102.408
82.8753
52.5674
10.9447
-41.6669
-103.922
-173.388
-246.594
-319.202
-386.293
-442.76
-483.752
-505.141
-503.952
-478.708
-429.654
-358.823
-269.942
-168.173
-59.7061
48.7444
150.506
239.515
310.826
361.018
388.443
393.312
377.591
344.738
299.303
246.444
191.406
139.03
93.3244
57.1653
32.1285
18.4727
15.2623
20.6038
31.9617
46.5108
61.4815
74.4616
83.6231
87.8559
86.8043
80.8103
70.7822
58.0115
43.9659
30.0855
17.6066
7.4311
0.0522315
-4.46122
-6.42694
-6.46812
-5.40417
-4.12944
-3.49563
-4.2114
-6.76932
-11.4058
-18.0955
-26.5775
-36.4072
-47.0251
-57.8329
-68.267
-77.8607
-86.2884
-93.3873
-99.1568
-103.735
-107.36
-110.318
-112.887
-115.289
-117.644
-119.948
-122.065
-123.738
-124.621
-124.32
-122.447
-118.666
-112.74
-104.566
-94.1852
-81.7918
-67.7145
-52.3902
-36.3274
-20.0644
-4.12763
11.0068
24.9444
37.3936
48.1776
57.2339
64.6055
70.423
74.8818
78.2155
80.6703
82.4808
83.8505
84.9379
85.849
86.6354
87.2985
87.797
88.0586
87.9918
87.4994
86.4896
84.8862
82.6351
79.7078
76.1013
71.8351
66.9453
61.4782
55.4844
49.0138
42.1141
34.8312
27.2126
19.3124
11.1965
2.94658
-5.33793
-13.5413
-21.5362
-29.1913
-36.3815
-42.9981
-48.959
-54.2162
-58.7596
-62.618
-65.8544
-68.559
-70.8397
-72.8111
-74.5846
-76.2597
-77.9184
-79.6228
-81.4145
-83.3165
-85.3355
-87.4629
-89.6744
-91.9256
-94.1454
-96.2263
-98.015
-99.3054
-99.8374
-99.3044
-97.3712
-93.7026
-88.0001
-80.0422
-69.7242
-57.0896
-42.3484
-25.878
-8.20512
10.0308
28.1287
45.3863
61.162
74.9308
86.3282
95.1772
101.494
105.475
107.467
107.923
107.352
106.267
105.141
104.367
104.236
104.932
106.541
109.069
112.471
116.683
121.633
127.254
133.452
140.067
146.801
153.135
158.257
161.007
159.876
153.062
138.605
114.592
79.4084
32.0227
-27.7448
-99.0058
-179.678
-266.481
-355.062
-440.262
-516.5
-578.231
-620.456
-639.207
-631.979
-598.036
-538.584
-456.754
-357.418
-246.829
-132.125
-20.7385
80.2385
164.657
227.832
266.925
281.143
271.737
241.807
195.924
139.631
78.8617
19.3553
-33.8773
-76.9773
-107.514
-124.592
-128.787
-121.929
-106.778
-86.6208
-64.8491
-44.5735
-28.2999
-17.7095
-13.5531
-15.6626
-23.0661
-34.1855
-47.0851
-59.739
-70.2844
-77.2333
-79.622
-77.0857
-69.8568
-58.6934
-44.7521
-29.4252
-14.1636
-0.308781
11.0485
19.1678
23.7095
24.7341
22.6554
18.1579
12.0913
5.35598
-1.20468
-6.8943
-11.2263
-13.9547
-15.0725
-14.7801
-13.4321
-11.4686
-9.3437
-7.45937
-6.11243
-5.46075
-5.51021
-6.12157
-7.03373
-7.89855
-8.32162
-7.9041
-6.28146
-3.15628
1.6765
8.31269
16.7305
26.7906
38.2442
50.7486
63.8888
77.2058
90.2262
102.495
113.606
123.226
131.116
137.143
141.275
143.579
144.201
143.343
141.239
138.132
134.245
129.773
124.872
119.656
114.204
108.572
102.803
96.9402
91.0385
85.1672
79.4109
73.8639
68.621
63.7657
59.3582
55.4251
51.9538
48.8905
46.1445
43.597
41.1142
38.5626
35.8247
32.8134
29.4834
25.8376
21.9287
17.8545
13.7485
9.76631
6.0693
2.8078
0.105426
-1.95356
-3.33251
-4.04543
-4.15484
-3.76484
-3.01084
-2.04723
-1.03457
-0.127628
0.534959
0.839104
0.70179
0.0760073
-1.04566
-2.62882
-4.59668
-6.8318
-9.18084
-11.4628
-13.4809
-15.0383
-15.956
-16.091
-15.355
-13.728
-11.2674
-8.10952
-4.46331
-0.594949
3.19411
6.59461
9.31904
11.1301
11.8647
11.4507
9.91422
7.3769
4.04354
0.181421
-3.906
-7.90794
-11.5345
-14.5411
-16.7468
-18.0449
-18.4054
-17.8694
-16.5375
-14.5552
-12.0988
-9.36735
-6.58491
-4.01901
-2.01485
-1.04333
-1.75421
-5.02029
-11.9554
-23.8883
-42.28
-68.5783
-104.019
-149.389
-204.786
-269.41
-341.419
-417.887
-494.89
-567.715
-631.193
-680.12
-709.742
-716.234
-697.134
-651.678
-580.987
-488.082
-377.725
-256.071
-130.183
-7.44871
105.049
201.14
276.082
326.944
352.802
354.745
335.678
299.955
252.888
200.182
147.366
99.2771
59.6512
30.8644
13.8344
8.08795
11.9715
22.9708
38.0931
54.2639
68.6906
79.1551
84.2066
83.244
76.4872
64.8534
49.762
32.8993
15.9759
0.506065
-12.365
-21.9712
-28.1645
-31.2873
-32.0853
-31.5803
-30.9196
-31.2227
-33.4438
-38.2642
-46.0247
-56.7023
-69.9301
-85.0553
-101.225
-117.487
-132.898
-146.618
-157.992
-166.596
-172.266
-175.082
-175.338
-173.484
-170.055
-165.598
-160.603
-155.442
-150.333
-145.322
-140.286
-134.966
-129.012
-122.051
-113.746
-103.87
-92.3542
-79.3196
-65.0888
-50.1648
-35.1876
-20.8704
-7.9246
3.01773
11.4728
17.1575
20.018
20.2326
18.1874
14.4298
9.60625
4.39079
-0.584179
-4.78865
-7.83935
-9.5236
-9.8012
-8.78598
-6.71121
-3.88508
-0.64308
2.69588
5.86442
8.66899
10.9985
12.8201
14.165
15.1075
15.7425
16.1633
16.445
16.6329
16.7373
16.7358
16.5789
16.1999
15.5261
14.4896
13.0373
11.1368
8.78069
5.98694
2.79799
-0.721289
-4.48486
-8.38566
-12.2944
-16.057
-19.4921
-22.3871
-24.4961
-25.5395
-25.2099
-23.1882
-19.171
-12.9113
-4.26701
6.74919
19.9291
34.8477
50.8691
67.1831
82.8725
97.0017
108.717
117.346
122.477
124.011
122.181
117.529
110.843
103.075
95.2308
88.2599
82.9551
79.8699
79.2667
81.0987
85.0284
90.4761
96.6944
102.857
108.149
111.853
113.42
112.507
109.002
103.016
94.853
84.9673
73.9098
62.273
50.642
39.5543
29.4718
20.7655
13.7091
8.47906
5.15413
3.71194
4.01684
5.7982
8.6197
11.8443
14.6027
15.7766
14.0091
7.75367
-4.63074
-24.737
-53.926
-93.117
-142.574
-201.716
-268.984
-341.784
-416.54
-488.857
-553.803
-606.283
-641.486
-655.35
-645.01
-609.162
-548.298
-464.789
-362.773
-247.879
-126.778
-6.63638
105.5
203.305
281.71
337.303
368.571
375.95
361.686
329.526
284.287
231.339
176.071
123.399
77.3482
40.7734
15.2171
0.918823
-3.04032
1.5148
12.1752
26.2965
41.3327
55.1177
66.0667
73.283
76.5668
76.3346
73.4698
69.1304
64.542
60.8052
58.7402
58.7858
60.9601
64.8834
69.8533
74.9594
79.2174
81.7055
81.6822
78.6747
72.5261
63.3991
51.7406
38.2121
23.6001
8.71725
-5.69133
-19.0262
-30.8874
-41.0982
-49.6992
-56.9141
-63.0934
-68.6457
-73.9635
-79.3564
-84.9974
-90.8896
-96.8578
-102.563
-107.542
-111.256
-113.16
-112.762
-109.687
-103.716
-94.8219
-83.1752
-69.1339
-53.2156
-36.0551
-18.3524
-0.816821
15.8875
31.1896
44.6492
55.9808
65.0624
71.9295
76.7544
79.8145
81.4528
82.035
81.9072
81.3613
80.6078
79.7637
78.8515
77.8131
76.5325
74.8656
72.6706
69.8362
66.3018
62.0678
57.195
51.7944
46.0092
39.9933
33.8907
27.8196
21.8639
16.0727
10.4686
5.06111
-0.138277
-5.1017
-9.77632
-14.0828
-17.9217
-21.1874
-23.786
-25.6548
-26.7784
-27.1991
-27.019
-26.3933
-25.517
-24.6072
-23.8833
-23.5502
-23.7833
-24.7202
-26.4557
-29.0414
-32.488
-36.7681
-41.8199
-47.549
-53.831
-60.513
-67.4162
-74.3402
-81.0682
-87.3756
-93.0377
-97.8387
-101.579
-104.079
-105.189
-104.783
-102.771
-99.0974
-93.75
-86.7654
-78.2369
-68.3196
-57.2308
-45.2438
-32.6747
-19.8626
-7.14439
5.17145
16.8287
27.6419
37.5063
46.3985
54.3686
61.5245
68.0124
73.9956
79.6352
85.075
90.4321
95.7946
101.224
106.764
112.444
118.285
124.297
130.46
136.697
142.824
148.501
153.17
156.004
155.883
151.402
140.929
122.715
95.0579
56.5102
6.10506
-56.413
-130.389
-214.12
-304.797
-398.563
-490.677
-575.798
-648.366
-703.044
-735.199
-741.357
-719.594
-669.818
-593.894
-495.599
-380.403
-255.072
-127.143
-4.31312
106.202
198.271
267.345
310.814
328.168
320.962
292.581
247.847
192.498
132.607
74.0006
21.7423
-20.2811
-49.6193
-65.3557
-68.0409
-59.4812
-42.4173
-20.1369
3.9326
26.6023
45.2348
57.9624
63.7957
62.623
55.111
42.5311
26.5373
8.92947
-8.57087
-24.5065
-37.8155
-47.8996
-54.6285
-58.2893
-59.4933
-59.0569
-57.8743
-56.7972
-56.5358
-57.5882
-60.205
-64.3856
-69.9055
-76.3645
-83.249
-89.998
-96.0658
-100.974
-104.347
-105.936
-105.623
-103.414
-99.4231
-93.8487
-86.949
-79.0173
-70.3607
-61.2828
-52.0713
-42.9899
-34.2738
-26.127
-18.721
-12.1928
-6.6431
-2.13369
1.31522
3.72682
5.16826
5.74921
5.61781
4.95412
3.96061
2.85019
1.83228
1.09754
0.802593
1.05613
1.90766
3.34065
5.27095
7.55157
9.98369
12.3335
14.3537
15.807
16.4908
16.2584
15.0365
12.8352
9.75054
5.9577
1.69687
-2.74817
-7.07584
-10.9944
-14.2483
-16.641
-18.0506
-18.439
-17.8511
-16.4072
-14.2874
-11.7117
-8.91722
-6.13514
-3.57014
-1.38386
0.316002
1.48058
2.11855
2.28958
2.09353
1.65701
1.11868
0.61484
0.266508
0.168995
0.384485
0.937934
1.81626
2.97057
4.32109
5.76423
7.18131
8.4483
9.44596
10.0698
10.2389
9.90438
9.05464
7.71989
5.97365
3.93197
1.75036
-0.381547
-2.24733
-3.61299
-4.23784
-3.88726
-2.34705
0.560522
4.95978
10.9047
18.3637
27.2085
37.2079
48.0313
59.259
70.4036
80.9377
90.329
98.0765
103.746
107.004
107.638
105.579
100.902
93.8293
84.717
74.0351
62.3427
50.2561
38.4144
27.4412
17.9063
10.2854
4.91887
1.9701
1.38161
2.83294
5.70322
9.04619
11.5873
11.7538
7.74863
-2.32736
-20.3044
-47.7347
-85.664
-134.409
-193.373
-260.924
-334.369
-410.034
-483.456
-549.683
-603.655
-640.65
-656.728
-649.151
-616.721
-559.995
-481.34
-384.82
-275.917
-161.091
-47.242
58.8876
151.3
225.255
277.661
307.288
314.797
302.577
274.418
235.055
189.651
143.262
100.352
64.4142
37.7149
21.1981
14.5367
16.3199
24.3411
35.9464
48.3993
59.2169
66.442
68.8247
65.9014
57.9707
45.9785
31.3369
15.7022
0.745477
-12.0575
-21.5923
-27.2123
-28.779
-26.6372
-21.5348
-14.5029
-6.71429
0.66153
6.58735
10.2598
11.1733
9.14378
4.29286
-2.99966
-12.1667
-22.5359
-33.4124
-44.1507
-54.2106
-63.1904
-70.8393
-77.0479
-81.8242
-85.2586
-87.485
-88.6446
-88.8558
-88.1957
-86.693
-84.3323
-81.068
-76.8449
-71.6198
-65.3828
-58.1733
-50.0892
-41.2862
-31.97
-22.3787
-12.7607
-3.3488
5.6639
14.1436
22.0274
29.3245
36.1063
42.4867
48.5938
54.5391
60.387
66.1317
71.6847
76.877
81.4755
85.2124
87.8236
89.0894
88.8722
87.1442
84.001
79.6589
74.4356
68.7163
62.9117
57.4096
52.5311
48.4926
45.3817
43.1474
41.6076
40.4708
39.3713
37.9123
35.7119
32.4479
27.895
21.9515
14.6512
6.16197
-3.23126
-13.1544
-23.1802
-32.8686
-41.805
-49.6347
-56.0893
-61.0039
-64.3243
-66.1063
-66.5072
-65.7715
-64.2126
-62.1913
-60.091
-58.2912
-57.1399
-56.9254
-57.851
-60.0133
-63.3881
-67.8251
-73.0534
-78.6982
-84.3071
-89.3847
-93.431
-95.9816
-96.6439
-95.1288
-91.2717
-85.045
-76.5578
-66.0461
-53.8522
-40.397
-26.1474
-11.5817
2.84334
16.7205
29.7128
41.565
52.1061
61.2427
68.9464
75.2369
80.1654
83.7998
86.2147
87.4876
87.7001
86.9457
85.3387
83.0261
80.197
77.0891
73.9907
71.235
69.1853
68.2088
68.6356
70.7022
74.4803
79.7956
86.1457
92.6328
97.9281
100.288
97.6351
87.7171
68.3331
37.6162
-5.65991
-61.7902
-129.907
-207.85
-292.168
-378.273
-460.74
-533.731
-591.504
-628.954
-642.13
-628.666
-588.077
-521.901
-433.635
-328.507
-213.061
-94.6286
19.2928
121.678
206.572
269.588
308.25
322.151
312.912
283.935
240.004
186.754
130.085
75.5834
28.0022
-9.13187
-33.7606
-45.3625
-44.8535
-34.3411
-16.7722
4.47888
26.03
44.8704
58.6594
65.917
66.0957
59.5347
47.3159
31.0462
12.6021
-6.13116
-23.4909
-38.2163
-49.5577
-57.3091
-61.7697
-63.6447
-63.9053
-63.6291
-63.8429
-65.3885
-68.8255
-74.3798
-81.9411
-91.1031
-101.238
-111.593
-121.389
-129.919
-136.618
-141.112
-143.237
-143.025
-140.67
-136.479
-130.812
-124.031
-116.453
-108.32
-99.793
-90.9529
-81.8266
-72.4161
-62.7335
-52.8317
-42.826
-32.9026
-23.3122
-14.3489
-6.31786
0.503927
5.90763
9.78744
12.1643
13.1946
13.1619
12.4516
11.5124
10.8083
10.7684
11.7398
13.9513
17.4902
22.2974
28.1783
34.8307
41.8822
48.9352
55.6114
61.5912
66.6428
70.6384
73.5569
75.4718
76.5304
76.9244
76.8599
76.5283
76.0835
75.6277
75.2058
74.8087
74.3841
73.8511
73.1171
72.0939
70.7108
68.9237
66.7194
64.1155
61.1566
57.9075
54.4454
50.8509
47.2002
43.5578
39.9717
36.47
33.0596
29.7275
26.444
23.1678
19.8528
16.4552
12.9403
9.28817
5.49558
1.57501
-2.45097
-6.55901
-10.7373
-14.9989
-19.3939
-24.0175
-29.0113
-34.5549
-40.8489
-48.0863
-56.4187
-65.9178
-76.5406
-88.1021
-100.262
-112.53
-124.289
-134.84
-143.461
-149.474
-152.314
-151.59
-147.132
-139.016
-127.563
-113.318
-97.0041
-79.4604
-61.5705
-44.1887
-28.0717
-13.8217
-1.84673
7.65876
14.714
19.5338
22.4959
24.1009
24.9279
25.5901
26.6932
28.7941
32.3591
37.717
45.0053
54.111
64.6102
75.7178
86.26
94.6875
99.1404
97.5746
87.9465
68.4432
37.7366
-4.7697
-58.7348
-122.748
-194.293
-269.831
-344.993
-414.88
-474.446
-518.922
-544.246
-547.462
-527.038
-483.071
-417.361
-333.34
-235.848
-130.785
-24.6584
75.9399
164.867
236.941
288.365
317.039
322.708
306.948
272.976
225.312
169.325
110.71
54.9536
6.8393
-29.9515
-53.1112
-61.8244
-56.7291
-39.7339
-13.7198
17.8344
51.257
83.0715
110.328
130.846
143.346
147.475
143.717
133.235
117.638
98.7465
78.3471
57.9994
38.8916
21.7667
6.91738
-5.75818
-16.6554
-26.3364
-35.3984
-44.3555
-53.5503
-63.1036
-72.9049
-82.6408
-91.8538
-100.019
-106.624
-111.249
-113.618
-113.64
-111.412
-107.207
-101.432
-94.5771
-87.1592
-79.6636
-72.4962
-65.948
-60.1764
-55.2021
-50.9214
-47.1301
-43.5557
-39.8936
-35.8427
-31.1384
-25.5789
-19.0445
-11.5079
-3.03553
6.21923
16.0298
26.116
36.1674
45.8674
54.9175
63.0579
70.0837
75.8548
80.2995
83.4104
85.2355
85.8632
85.4058
83.983
81.7071
78.6742
74.9602
70.6233
65.7122
60.2769
54.3805
48.109
41.5769
34.927
28.323
21.9379
15.9376
10.4625
5.61218
1.4323
-2.09079
-5.02834
-7.49939
-9.65428
-11.6537
-13.6464
-15.749
-18.0306
-20.5055
-23.1334
-25.8284
-28.4745
-30.9446
-33.1204
-34.9107
-36.2639
-37.1746
-37.683
-37.8676
-37.8323
-37.6909
-37.5502
-37.494
-37.5716
-37.7886
-38.1054
-38.4389
-38.6711
-38.6605
-38.2564
-37.3142
-35.7089
-33.3467
-30.1721
-26.1711
-21.3703
-15.8325
-9.65035
-2.93861
4.17367
11.5504
19.0544
26.5525
33.9189
41.0377
47.805
54.1299
59.936
65.1625
69.7652
73.7182
77.0146
79.6686
81.7152
83.2111
84.2333
84.8762
85.2482
85.4658
85.6476
85.9079
86.351
87.0683
88.1379
89.6275
91.6002
94.1181
97.2422
101.022
105.468
110.513
115.95
121.367
126.08
129.087
129.058
124.37
113.218
93.7775
64.4233
23.9875
-27.9854
-91.0129
-163.518
-242.775
-324.969
-405.395
-478.772
-539.649
-582.884
-604.127
-600.275
-569.836
-513.17
-432.569
-332.159
-217.624
-95.7774
25.9883
140.322
240.537
321.183
378.497
410.695
418.066
402.868
369.031
321.706
266.715
209.961
156.857
111.842
78.0304
57.021
48.8785
52.2794
64.7929
83.2562
104.196
124.244
140.501
150.812
153.93
149.557
138.272
121.363
100.595
77.9421
55.3283
34.3982
16.3481
1.82983
-9.06784
-16.7663
-22.0853
-26.0922
-29.9348
-34.6792
-41.1731
-49.9485
-61.1725
-74.6477
-89.8592
-106.057
-122.361
-137.876
-151.798
-163.503
-172.601
-178.965
-182.713
-184.169
-183.793
-182.101
-179.581
-176.618
-173.443
-170.105
-166.467
-162.242
-157.039
-150.434
-142.033
-131.543
-118.815
-103.879
-86.944
-68.382
-48.6937
-28.4568
-8.27166
11.2929
29.7459
46.7086
61.9336
75.3087
86.8475
96.6671
104.96
111.961
117.913
123.042
127.527
131.489
134.983
137.993
140.441
142.201
143.113
143.001
141.694
139.043
134.935
129.306
122.144
113.49
103.431
92.0928
79.6239
66.1826
51.9235
36.9867
21.4913
5.53501
-10.8014
-27.4435
-44.3103
-61.2995
-78.2747
-95.0567
-111.421
-127.099
-141.796
-155.196
-166.994
-176.906
-184.693
-190.178
-193.252
-193.886
-192.127
-188.101
-182.005
-174.101
-164.705
-154.175
-142.896
-131.257
-119.631
-108.35
-97.6776
-87.79
-78.7585
-70.5418
-62.9901
-55.8602
-48.8428
-41.5978
-33.7944
-25.1503
-15.4661
-4.64815
7.27919
20.1749
33.7934
47.8053
61.8227
75.4275
88.1974
99.7317
109.672
117.72
123.654
127.334
128.713
127.836
124.833
119.916
113.362
105.502
96.6957
87.3232
77.7632
68.3844
59.5364
51.5443
44.7031
39.2679
35.4367
33.3208
32.9027
33.9817
36.1124
38.5475
40.1975
39.6244
35.0862
24.6424
6.32563
-21.6279
-60.5101
-110.865
-172.246
-243.044
-320.431
-400.438
-478.177
-548.198
-604.957
-643.327
-659.131
-649.6
-613.728
-552.47
-468.758
-367.313
-254.296
-136.796
-22.2326
82.2917
170.598
237.954
281.452
300.206
295.344
269.817
228.025
175.333
117.506
60.1437
8.16792
-34.5887
-65.6479
-83.992
-90.0083
-85.2904
-72.329
-54.1364
-33.8505
-14.3663
1.96695
13.5534
19.6482
20.3442
16.4596
9.34995
0.675095
-7.84657
-14.6646
-18.5782
-18.854
-15.274
-8.11236
1.94571
13.928
26.7207
39.2134
50.4262
59.6029
66.2635
70.2128
71.5116
70.4175
67.3108
62.6161
56.7349
49.9965
42.6345
34.788
26.5241
17.8749
8.87943
-0.378373
-9.74333
-18.979
-27.7759
-35.7756
-42.6073
-47.9295
-51.4702
-53.0612
-52.6592
-50.3537
-46.3598
-40.9985
-34.6655
-27.7958
-20.8249
-14.1527
-8.11337
-2.9532
1.18176
4.24799
6.29754
7.46375
7.94202
7.96883
7.80199
7.70443
7.9331
8.73264
10.3326
12.9456
16.7636
21.95
28.626
36.8516
46.6029
57.749
70.0329
83.0614
96.3074
109.129
120.802
130.576
137.731
141.645
141.86
138.136
130.487
119.2
104.818
88.1135
70.022
51.5702
33.7887
17.6251
3.86549
-6.92832
-14.4578
-18.7006
-19.896
-18.5058
-15.1555
-10.5643
-5.47253
-0.573938
3.53824
6.40812
7.73458
7.37021
5.30555
1.64337
-3.43131
-9.68032
-16.8366
-24.6216
-32.7551
-40.959
-48.9566
-56.4702
-63.218
-68.9143
-73.2718
-76.0082
-76.8578
-75.587
-72.0145
-66.0349
-57.6432
-46.9589
-34.2448
-19.9178
-4.54741
11.1608
26.3981
40.301
52.0134
60.7564
65.8996
67.0263
63.9842
56.9147
46.256
32.7177
17.2278
0.856777
-15.2732
-30.0855
-42.6405
-52.2123
-58.3411
-60.8564
-59.8678
-55.7279
-48.973
-40.2529
-30.2632
-19.6931
-9.19948
0.586599
9.02276
15.3964
18.8608
18.3868
12.7523
0.587199
-19.5171
-48.8364
-88.2954
-138.23
-198.166
-266.655
-341.194
-418.266
-493.503
-561.971
-618.547
-658.367
-677.29
-672.332
-642.02
-586.63
-508.269
-410.791
-299.54
-180.941
-61.983
50.3732
149.784
231.063
290.605
326.658
339.407
330.871
304.621
265.362
218.422
169.198
122.644
82.8234
52.592
33.429
25.4253
27.4214
37.2676
52.1697
69.0737
85.0439
97.5905
104.915
106.052
100.894
90.1194
75.0267
57.3121
38.8202
21.2997
6.19398
-5.51092
-13.3677
-17.4747
-18.4149
-17.1396
-14.8172
-12.6689
-11.8114
-13.1274
-17.1746
-24.1411
-33.8495
-45.8026
-59.2617
-73.3476
-87.147
-99.8145
-110.657
-119.196
-125.194
-128.659
-129.815
-129.053
-126.866
-123.782
-120.289
-116.786
-113.532
-110.633
-108.036
-105.556
-102.914
-99.7856
-95.8631
-90.9014
-84.762
-77.4385
-69.0626
-59.892
-50.2818
-40.6436
-31.3999
-22.9386
-15.5742
-9.51981
-4.87315
-1.61582
0.373839
1.29798
1.41003
0.983062
0.279884
-0.472077
-1.09856
-1.48787
-1.59178
-1.41901
-1.02295
-0.486022
0.0971875
0.63555
1.05423
1.30349
1.3631
1.24276
0.979642
0.634489
0.287886
0.0376196
-0.00259968
0.296105
1.07596
2.48779
4.68179
7.79326
11.9241
17.1222
23.3615
30.5275
38.4097
46.7052
55.033
62.9592
70.0298
75.8086
79.9146
82.0553
82.0509
79.8475
75.5165
69.2415
61.2937
52.0005
41.7111
30.7645
19.4644
8.06311
-3.24249
-14.3046
-25.0094
-35.2556
-44.9326
-53.9006
-61.9774
-68.9347
-74.505
-78.3976
-80.3239
-80.0249
-77.3002
-72.0305
-64.1927
-53.8627
-41.2073
-26.4661
-9.92567
8.1075
27.3326
47.4727
68.2831
89.5487
111.071
132.648
154.053
175.012
195.199
214.23
231.687
247.145
260.214
270.579
278.05
282.588
284.323
283.555
280.721
276.362
271.054
265.338
259.635
254.165
248.864
243.32
236.733
227.915
215.337
197.237
171.782
137.289
92.4678
36.677
-29.8464
-105.823
-188.86
-275.49
-361.339
-441.415
-510.485
-563.523
-596.181
-605.228
-588.917
-547.233
-481.988
-396.747
-296.589
-187.705
-76.8962
29.0005
123.689
201.933
259.971
295.775
309.144
301.611
276.2
237.042
188.919
136.768
85.2135
38.1647
-1.47781
-31.9882
-52.8436
-64.6247
-68.8099
-67.4957
-63.08
-57.9492
-54.2012
-53.4348
-56.621
-64.0637
-75.4453
-89.9424
-106.392
-123.479
-139.928
-154.66
-166.918
-176.325
-182.894
-186.978
-189.177
-190.22
-190.83
-191.606
-192.916
-194.833
-197.118
-199.238
-200.434
-199.824
-196.518
-189.746
-178.97
-163.971
-144.901
-122.281
-96.9677
-70.0645
-42.8161
-16.4797
7.80177
29.1101
46.835
60.7188
70.8605
77.6797
81.8471
84.1912
85.5953
86.8951
88.791
91.784
96.1391
101.88
108.814
116.574
124.683
132.622
139.891
146.07
150.853
154.077
155.715
155.869
154.738
152.578
149.665
146.256
142.554
138.69
134.71
130.581
126.204
121.436
116.115
110.093
103.256
95.5509
86.9955
77.6845
67.7877
57.5386
47.2184
37.1349
27.5982
18.8976
11.279
4.92634
-0.051128
-3.626
-5.85231
-6.85858
-6.83457
-6.01346
-4.65092
-3.00345
-1.30804
0.234713
1.47216
2.30449
2.68234
2.59738
2.06725
1.11701
-0.239594
-2.01584
-4.26162
-7.06477
-10.5434
-14.8304
-20.0517
-26.3024
-33.6245
-41.988
-51.28
-61.3018
-71.7741
-82.3498
-92.6325
-102.2
-110.628
-117.518
-122.523
-125.37
-125.881
-123.991
-119.755
-113.353
-105.081
-95.3394
-84.6022
-73.391
-62.2353
-51.6351
-42.0241
-33.7393
-26.9984
-21.889
-18.3696
-16.2812
-15.3702
-15.3172
-15.7695
-16.3734
-16.8021
-16.7766
-16.0763
-14.5408
-12.0616
-8.5687
-4.01487
1.6368
8.41661
16.3391
25.3778
35.4233
46.2268
57.3355
68.0292
77.2718
83.6935
85.619
81.1544
68.3394
45.3591
10.8027
-36.0601
-95.0215
-164.738
-242.632
-324.929
-406.84
-482.884
-547.34
-594.759
-620.508
-621.266
-595.416
-543.29
-467.227
-371.436
-261.676
-144.784
-28.0871
81.2219
176.695
253.163
307.133
337.025
343.212
327.886
294.747
248.574
194.717
138.561
85.0363
38.1966
0.929662
-25.1965
-39.9378
-44.242
-40.0059
-29.7574
-16.3038
-2.38878
9.60612
17.8848
21.3685
19.7309
13.3417
3.13717
-9.56074
-23.2489
-36.4444
-47.8592
-56.5305
-61.8966
-63.8157
-62.5308
-58.5945
-52.7642
-45.8872
-38.7889
-32.1791
-26.5841
-22.3113
-19.4456
-17.8742
-17.3327
-17.4651
-17.8864
-18.2414
-18.251
-17.7425
-16.6622
-15.0695
-13.1164
-11.0165
-9.00783
-7.31563
-6.11892
-5.52556
-5.55822
-6.15249
-7.16678
-8.40171
-9.62509
-10.5976
-11.094
-10.9154
-9.8916
-7.87303
-4.71732
-0.275344
5.6166
13.134
22.4482
33.6996
46.964
62.2212
79.3332
98.0404
117.98
138.725
159.846
180.971
201.86
222.452
242.9
263.563
284.983
307.809
332.71
360.265
390.855
424.563
461.105
499.792
539.543
578.934
616.296
649.845
677.82
698.644
711.063
714.258
707.931
692.333
668.246
636.917
599.946
559.146
516.38
473.402
431.714
392.452
356.312
323.535
293.931
266.963
241.86
217.755
193.838
169.481
144.346
118.444
92.1392
66.1124
41.2681
18.6167
-0.860502
-16.3428
-27.2803
-33.4688
-35.0803
-32.6476
-27.0042
-19.1911
-10.3425
-1.56545
6.17155
12.1273
15.8455
17.176
16.2594
13.4808
9.39847
4.66075
-0.0805211
-4.24754
-7.39768
-9.26212
-9.75981
-8.98777
-7.19155
-4.72175
-1.98374
0.612625
2.69679
3.97028
4.22576
3.35216
1.32806
-1.79291
-5.89963
-10.8392
-16.4277
-22.4541
-28.6786
-34.829
-40.6001
-45.6623
-49.6853
-52.3822
-53.5728
-53.2644
-51.7385
-49.6296
-47.9771
-48.2316
-52.1991
-61.9147
-79.4474
-106.648
-144.869
-194.68
-255.636
-326.108
-403.24
-483.019
-560.49
-630.095
-686.099
-723.097
-736.524
-723.131
-681.384
-611.727
-516.682
-400.76
-270.188
-132.456
4.2737
131.836
242.76
330.907
391.991
423.921
426.937
403.506
358.017
296.29
224.97
150.862
80.2897
18.543
-30.5362
-64.7878
-83.7763
-88.6501
-81.8474
-66.6924
-46.935
-26.2907
-8.03187
5.32938
12.2385
12.1653
5.54548
-6.38442
-21.8289
-38.7161
-54.9843
-68.8371
-78.9418
-84.551
-85.5419
-82.3773
-75.9988
-67.6737
-58.817
-50.8121
-44.8509
-41.8098
-42.1712
-45.9959
-52.9438
-62.3354
-73.2446
-84.6081
-95.3394
-104.434
-111.056
-114.601
-114.731
-111.383
-104.753
-95.2602
-83.5019
-70.1925
-56.1057
-42.014
-28.6352
-16.585
-6.34186
1.77734
7.62719
11.2307
12.7634
12.5263
10.9107
8.35804
5.31813
2.21041
-0.609113
-2.87209
-4.41161
-5.16485
-5.16534
-4.52631
-3.41765
-2.03937
-0.594318
0.73728
1.81971
2.57882
3.01368
3.20221
3.30075
3.53701
4.19673
5.60438
8.09954
12.0106
17.6283
25.1811
34.8143
46.573
60.392
76.0894
93.3679
111.823
130.955
150.196
168.935
186.555
202.47
216.166
227.236
235.408
240.566
242.752
242.157
239.103
234.004
227.326
219.54
211.076
202.286
193.413
184.579
175.78
166.905
157.755
148.088
137.649
126.214
113.625
99.8109
84.8066
68.7547
51.8973
34.5601
17.1281
0.01945
-16.342
-31.5515
-45.2446
-57.1139
-66.9206
-74.502
-79.7747
-82.7356
-83.4593
-82.0939
-78.8539
-74.0112
-67.883
-60.8184
-53.1815
-45.3347
-37.6196
-30.3402
-23.7461
-18.0202
-13.2695
-9.52281
-6.7328
-4.78551
-3.51429
-2.71781
-2.17953
-1.68624
-1.04305
-0.0825405
1.33317
3.31765
5.97083
9.39145
13.6858
18.9663
25.3336
32.8364
41.4104
50.7975
60.4589
69.4987
76.6184
80.1248
78.0087
68.1006
48.3003
16.8599
-27.3112
-84.3605
-153.269
-231.732
-316.176
-401.915
-483.464
-554.958
-610.656
-645.477
-655.498
-638.374
-593.634
-522.796
-429.318
-318.359
-196.376
-70.6025
51.546
163.089
258.05
331.923
381.998
407.517
409.636
391.221
356.498
310.583
258.977
207.041
159.533
120.228
91.6755
75.0818
70.3486
76.231
90.5981
110.759
133.809
156.967
177.851
194.681
206.389
212.632
213.714
210.444
203.953
195.486
186.213
177.074
168.673
161.232
154.603
148.341
141.809
134.308
125.21
114.077
100.743
85.3624
68.401
50.592
32.8494
16.1586
1.45735
-10.4775
-19.1214
-24.262
-26.0198
-24.8269
-21.3698
-16.502
-11.1402
-6.15613
-2.27782
-0.0122382
0.402732
-0.987769
-3.87592
-7.74196
-11.9281
-15.7265
-18.4699
-19.6153
-18.8115
-15.9418
-11.1391
-4.77078
2.60395
10.2991
17.5816
23.7554
28.2407
30.6378
30.7688
28.692
24.6887
19.2244
12.89
6.33113
0.174684
-5.03871
-8.90822
-11.2069
-11.8935
-11.1019
-9.11142
-6.30227
-3.10332
0.0613154
2.82041
4.89303
6.11175
6.43019
5.91544
4.72767
3.09071
1.25797
-0.521599
-2.03343
-3.1199
-3.69348
-3.73989
-3.31196
-2.51589
-1.49268
-0.39763
0.619026
1.42782
1.93038
2.06354
1.79736
1.12805
0.067017
-1.37206
-3.18627
-5.39471
-8.04606
-11.2208
-15.027
-19.5896
-25.0337
-31.4638
-38.9418
-47.4668
-56.9603
-67.2589
-78.1174
-89.2213
-100.209
-110.698
-120.32
-128.746
-135.715
-141.048
-144.655
-146.527
-146.724
-145.348
-142.519
-138.354
-132.947
-126.367
-118.661
-109.871
-100.056
-89.3169
-77.8181
-65.796
-53.5604
-41.479
-29.9515
-19.3737
-10.0989
-2.39903
3.56693
7.77497
10.3459
11.5425
11.7545
11.4733
11.2582
11.6961
13.3553
16.7349
22.2108
29.9781
39.9949
51.9279
65.1095
78.5124
90.7517
100.124
104.692
102.415
91.3227
69.7273
36.4411
-9.01056
-66.216
-133.769
-209.247
-289.284
-369.755
-446.039
-513.369
-567.213
-603.677
-619.864
-614.168
-586.474
-538.211
-472.285
-392.861
-305.023
-214.361
-126.49
-46.5856
21.0394
73.2629
108.363
126.088
127.584
115.196
92.1729
62.3018
29.5192
-2.46247
-30.4782
-52.1535
-66.0498
-71.7028
-69.5607
-60.835
-47.2867
-30.9779
-14.0151
1.68417
14.583
23.658
28.4721
29.1893
26.5464
21.793
16.6137
13.0385
13.3429
19.9355
35.2278
61.4853
100.662
154.233
223.028
307.112
405.699
517.149
639.03
768.268
901.354
1034.61
1164.47
1287.75
1401.89
1505.13
1596.61
1676.35
1745.2
1804.65
1856.64
1903.28
1946.61
1988.4
2029.91
2071.81
2114.13
2156.3
2197.21
2235.41
2269.23
2296.96
2317
2327.98
2328.78
2318.58
2296.79
2263.03
2217.01
2158.47
2087.17
2002.8
1905.09
1793.84
1669.09
1531.23
1381.19
1220.63
1052.03
878.732
704.872
535.214
374.856
228.853
101.795
-2.61947
-81.9479
-135.27
-163.307
-168.377
-154.191
-125.503
-87.6607
-46.1053
-5.87959
28.8016
54.873
70.6003
75.611
70.7778
57.9801
39.7782
19.0448
-1.40143
-19.1168
-32.277
-39.8223
-41.4974
-37.7908
-29.7918
-18.991
-7.05353
4.40445
14.0086
20.7688
24.1591
24.1315
21.0694
15.6926
8.93091
1.78523
-4.80485
-10.0719
-13.4979
-14.852
-14.1883
-11.8085
-8.19712
-3.94132
0.354083
4.14427
7.00645
8.67983
9.08107
8.29575
6.54952
4.1648
1.50987
-1.05229
-3.20909
-4.73229
-5.49766
-5.48957
-4.79136
-3.56432
-2.01913
-0.384061
1.12558
2.33317
3.11886
3.42863
3.27407
2.72397
1.88955
0.906001
-0.0870888
-0.963767
-1.6261
-2.01353
-2.10651
-1.92461
-1.51989
-0.966946
-0.351072
0.243484
0.743627
1.09378
1.25585
1.19911
0.875586
0.17779
-1.12087
-3.43585
-7.43675
-14.0867
-24.6324
-40.5256
-63.2668
-94.1783
-134.13
-183.26
-240.727
-304.562
-371.638
-437.797
-498.124
-547.361
-580.414
-592.9
-581.663
-545.204
-483.964
-400.41
-298.92
-185.452
-67.0448
48.8083
154.838
244.663
313.352
357.843
377.154
372.388
346.517
303.998
250.258
191.101
132.136
78.2474
33.1952
-0.637503
-22.3293
-32.3416
-32.2984
-24.6641
-12.3629
1.60898
14.5346
24.2542
29.3442
29.1879
23.939
14.3946
1.80097
-12.3778
-26.6966
-39.9408
-51.2881
-60.4035
-67.4589
-73.0799
-78.2305
-84.0549
-91.6983
-102.132
-116.004
-133.538
-154.478
-178.109
-203.315
-228.698
-252.718
-273.845
-290.713
-302.24
-307.714
-306.841
-299.738
-286.894
-269.086
-247.293
-222.595
-196.077
-168.767
-141.574
-115.272
-90.4891
-67.7149
-47.3182
-29.5623
-14.618
-2.57067
6.57916
12.9185
16.6252
17.9686
17.3029
15.0533
11.693
7.71382
3.59174
-0.246983
-3.45653
-5.79455
-7.13499
-7.46903
-6.89447
-5.59483
-3.81116
-1.80987
0.14932
1.84183
3.10001
3.82636
3.99729
3.65791
2.90924
1.89013
0.756441
-0.339548
-1.26722
-1.93117
-2.27898
-2.30302
-2.03649
-1.54489
-0.914443
-0.239152
0.391676
0.904032
1.24675
1.39541
1.3525
1.14422
0.81463
0.418221
0.011993
-0.351964
-0.632469
-0.803241
-0.854582
-0.792735
-0.636987
-0.414465
-0.152184
0.134522
0.45807
0.879344
1.53161
2.64411
4.55987
7.74127
12.7575
20.2504
30.8786
45.2451
63.8163
86.8456
114.313
145.892
180.954
218.606
257.767
297.264
335.943
372.769
406.915
437.812
465.177
488.986
509.433
526.856
541.658
554.223
564.854
573.72
580.836
586.062
589.133
589.697
587.372
581.805
572.722
559.973
543.564
523.669
500.634
474.973
447.342
418.517
389.362
360.782
333.673
308.861
287.032
268.651
253.888
242.554
234.048
227.35
221.039
213.369
202.386
186.099
162.687
130.738
89.4831
39.0177
-19.5406
-83.9754
-151.006
-216.449
-275.499
-323.13
-354.564
-365.777
-353.982
-318.039
-258.72
-178.814
-83.0223
22.3487
129.885
231.705
320.189
388.706
432.265
448.001
435.434
396.457
335.057
256.799
168.146
75.7052
-14.5006
-97.6325
-170.441
-231.433
-280.792
-320.093
-351.856
-379.024
-404.448
-430.441
-458.466
-488.987
-521.481
-554.604
-586.457
-614.916
-637.966
-653.988
-661.97
-661.622
-653.37
-638.275
-617.86
-593.91
-568.248
-542.538
-518.127
-495.941
-476.45
-459.684
-445.311
-432.731
-421.207
-409.979
-398.373
-385.875
-372.183
-357.205
-341.044
-323.941
-306.21
-288.162
-270.042
-251.98
-233.969
-215.874
-197.468
-178.492
-158.726
-138.061
-116.558
-94.4824
-72.3051
-50.6734
-30.3494
-12.1274
3.25964
15.2303
23.4297
27.7782
28.487
26.0397
21.1414
14.644
7.45547
0.447089
-5.63141
-10.2186
-12.9828
-13.8352
-12.9146
-10.5479
-7.1924
-3.36928
0.404707
3.67762
6.10916
7.49931
7.79715
7.09082
5.58163
3.54715
1.29889
-0.8597
-2.66977
-3.9442
-4.58298
-4.57621
-3.99553
-2.97642
-1.69441
-0.338852
0.912203
1.91305
2.56508
2.82404
2.69975
2.24908
1.56377
0.755206
-0.0615162
-0.782159
-1.32459
-1.63548
-1.69203
-1.4989
-1.08164
-0.478331
0.268726
1.11938
2.03889
2.99767
3.96782
4.91764
5.80578
6.57679
7.1601
7.47349
7.43157
6.95856
6.00336
4.55417
2.64969
0.384023
-2.09643
-4.6045
-6.93107
-8.86881
-10.2368
-10.9023
-10.793
-9.89679
-8.24186
-5.85619
-2.70667
1.37567
6.77238
14.1392
24.433
38.8861
58.9157
85.9657
121.295
165.732
219.442
281.737
350.978
424.596
499.252
571.112
636.233
690.99
732.497
758.963
769.93
766.342
750.446
725.525
695.483
664.342
635.707
612.266
595.39
584.895
578.986
574.43
566.915
551.588
523.696
479.253
415.664
332.205
230.308
113.594
-12.34
-140.388
-262.575
-370.832
-457.785
-517.505
-546.103
-542.135
-506.754
-443.603
-358.466
-258.711
-152.59
-48.4659
45.9399
124.223
181.809
216.268
227.405
217.117
189.056
148.129
99.9078
50.0006
3.47044
-35.6485
-64.6851
-82.4882
-89.3996
-87.0586
-78.0734
-65.6081
-52.943
-43.0637
-38.3291
-40.2526
-49.4136
-65.4987
-87.4544
-113.72
-142.5
-172.041
-200.869
-227.957
-252.818
-275.49
-296.442
-316.396
-336.086
-355.997
-376.105
-395.663
-413.074
-425.883
-430.908
-424.525
-403.07
-363.334
-303.076
-221.492
-119.556
-0.174361
131.891
270.328
407.795
536.589
649.383
739.931
803.662
838.086
842.963
820.231
773.711
708.638
631.084
547.351
463.398
384.364
314.229
255.624
209.796
176.712
155.258
143.514
139.058
139.263
141.57
143.708
143.858
140.754
133.72
122.667
108.038
90.7216
71.9498
53.1691
35.9063
21.6284
11.6037
6.77507
7.65376
14.2456
26.0201
41.9306
60.4888
79.8909
98.1858
113.469
124.082
128.789
126.917
118.428
103.929
84.6015
62.0704
38.2256
15.0172
-5.74904
-22.5917
-34.4904
-40.9643
-42.0881
-38.4451
-31.0296
-21.1096
-10.0715
0.737667
10.1491
17.2802
21.6001
22.9468
21.4996
17.7105
12.2072
5.68206
-1.21764
-7.98368
-14.313
-20.1391
-25.6276
-31.1376
-37.158
-44.2273
-52.8481
-63.4074
-76.1107
-90.9373
-107.621
-125.656
-144.335
-162.8
-180.117
-195.362
-207.704
-216.481
-221.261
-221.89
-218.496
-211.489
-201.515
-189.4
-176.076
-162.501
-149.574
-138.067
-128.563
-121.416
-116.734
-114.38
-113.993
-115.023
-116.791
-118.541
-119.518
-119.028
-116.499
-111.534
-103.926
-93.6657
-80.9125
-65.949
-49.1248
-30.8043
-11.3341
8.95834
29.7259
50.5282
70.7348
89.4272
105.327
116.778
121.799
118.219
103.893
76.9703
36.1945
-18.8029
-87.2628
-167.144
-255.092
-346.542
-435.971
-517.28
-584.278
-631.226
-653.383
-647.508
-612.246
-548.361
-458.788
-348.473
-224.021
-93.1838
35.7873
154.837
256.798
336
388.737
413.543
411.245
384.797
338.91
279.52
213.166
146.328
84.817
33.2679
-5.21316
-29.2157
-39.0019
-36.3084
-24.0084
-5.68161
14.8519
33.978
48.6671
56.7476
57.0528
49.4378
34.6777
14.2707
-9.81875
-35.4412
-60.5318
-83.3377
-102.582
-117.553
-128.114
-134.646
-137.936
-139.022
-139.032
-139.022
-139.838
-142.018
-145.741
-150.815
-156.721
-162.68
-167.761
-170.987
-171.455
-168.437
-161.466
-150.394
-135.413
-117.045
-96.0961
-73.5828
-50.6396
-28.4141
-7.96488
9.83107
24.35
35.2686
42.582
46.5958
47.892
47.2752
45.7044
44.213
43.8246
45.4686
49.9
57.6319
68.8847
83.559
101.236
121.209
142.54
164.143
184.885
203.689
219.638
232.056
240.573
245.155
246.092
243.966
239.574
233.831
227.667
221.909
217.183
213.834
211.883
211.011
210.599
209.798
207.631
203.117
195.406
183.898
168.346
148.909
126.176
101.122
75.0287
49.3567
25.595
5.10304
-11.0361
-22.1311
-27.9529
-28.7505
-25.2116
-18.3736
-9.4976
0.0789769
9.09019
16.4735
21.4698
23.6806
23.0776
19.9652
14.8992
8.57351
1.68619
-5.19708
-11.7645
-18.0455
-24.4483
-31.7378
-40.9519
-53.2625
-69.8003
-91.4653
-118.753
-151.62
-189.423
-230.924
-274.389
-317.748
-358.812
-395.508
-426.1
-449.381
-464.785
-472.43
-473.075
-468.002
-458.841
-447.367
-435.283
-424.028
-414.626
-407.587
-402.883
-399.978
-397.922
-395.491
-391.342
-384.189
-372.956
-356.903
-335.708
-309.495
-278.81
-244.539
-207.797
-169.779
-131.625
-94.2975
-58.5004
-24.6569
7.05372
36.6
63.959
88.9553
111.11
129.531
142.877
149.417
147.195
134.284
109.117
70.839
19.631
-43.0392
-114.301
-189.926
-264.547
-332.042
-386.059
-420.615
-430.723
-412.954
-365.898
-290.439
-189.815
-69.4544
63.4167
200.356
332.417
450.929
548.247
618.414
657.649
664.621
640.484
588.67
514.48
424.516
326.017
226.183
131.547
47.4584
-22.2685
-75.5336
-111.94
-132.615
-139.906
-136.977
-127.378
-114.631
-101.862
-91.5353
-85.2926
-83.9057
-87.3369
-94.8829
-105.377
-117.417
-129.59
-140.661
-149.716
-156.239
-160.129
-161.654
-161.369
-159.996
-158.304
-156.989
-156.587
-157.403
-159.488
-162.646
-166.466
-170.386
-173.755
-175.911
-176.244
-174.253
-169.586
-162.063
-151.691
-138.659
-123.322
-106.168
-87.778
-68.7668
-49.7197
-31.1254
-13.3166
3.57281
19.6249
35.1242
50.5132
66.3224
83.0868
101.261
121.153
142.881
166.375
191.415
217.698
244.937
272.943
301.711
331.444
362.55
395.566
431.047
469.422
510.839
555.035
601.244
648.18
694.082
736.844
774.206
803.981
824.295
833.806
831.869
818.63
795.021
762.677
723.765
680.749
636.135
592.207
550.803
513.151
479.785
450.545
424.669
400.942
377.898
354.044
328.072
299.046
266.529
230.651
192.104
152.069
112.08
73.8582
39.1142
9.36318
-14.2403
-31.0221
-40.8531
-44.1535
-41.8369
-35.2043
-25.8012
-15.255
-5.11311
3.30058
8.99589
11.3816
10.2817
5.90436
-1.23019
-10.3914
-20.756
-31.5261
-42.0354
-51.8294
-60.7118
-68.7529
-76.2606
-83.7176
-91.6958
-100.759
-111.366
-123.79
-138.06
-153.938
-170.924
-188.306
-205.223
-220.76
-234.041
-244.319
-251.054
-253.963
-253.044
-248.562
-241.017
-231.078
-219.503
-207.061
-194.449
-182.223
-170.753
-160.19
-150.472
-141.332
-132.343
-122.97
-112.637
-100.805
-87.0607
-71.196
-53.2959
-33.8067
-13.5837
6.09515
23.5614
36.8448
43.8196
42.4062
30.8111
7.78273
-27.1476
-73.4735
-129.601
-192.842
-259.524
-325.227
-385.113
-434.343
-468.519
-484.115
-478.842
-451.914
-404.169
-338.044
-257.399
-167.207
-73.1455
18.876
103.202
174.886
230.08
266.314
282.657
279.748
259.688
225.827
182.455
134.42
86.7285
44.1244
10.7133
-10.3618
-17.1576
-9.06475
13.1716
47.5461
90.9948
139.685
189.366
235.758
274.921
303.6
319.489
321.397
309.316
284.362
248.631
204.955
156.621
107.053
59.5151
16.8525
-18.7032
-45.6513
-63.2579
-71.5191
-71.0641
-63.0187
-48.8507
-30.2145
-8.81148
13.7231
35.9036
56.4467
74.2969
88.6309
98.8479
104.551
105.525
101.713
93.1957
80.1749
62.9565
41.9427
17.6267
-9.40791
-38.483
-68.8205
-99.5353
-129.632
-158.01
-183.48
-204.802
-220.744
-230.168
-232.13
-225.99
-211.52
-188.987
-159.191
-123.467
-83.6079
-41.7449
-0.17313
38.853
73.3302
101.699
122.993
136.923
143.884
144.89
141.435
135.294
128.31
122.161
118.166
117.13
119.264
124.178
130.955
138.284
144.649
148.541
148.659
144.089
134.429
119.846
101.06
79.2678
55.9985
32.9398
11.746
-6.14459
-19.6603
-28.1991
-31.672
-30.4855
-25.4667
-17.7452
-8.60661
0.661668
8.91338
15.2585
19.1384
20.3551
19.0539
15.6665
10.8239
5.25236
-0.331289
-5.31373
-9.25572
-11.9326
-13.3421
-13.6804
-13.2936
-12.6108
-12.0717
-12.0558
-12.8246
-14.4824
-16.9603
-20.0244
-23.3056
-26.347
-28.6615
-29.7924
-29.3701
-27.1573
-23.0799
-17.2386
-9.90378
-1.49223
7.46847
16.3853
24.6489
31.6815
36.9789
40.1423
40.8994
39.1126
34.7774
28.013
19.0475
8.20275
-4.12235
-17.4664
-31.3204
-45.1423
-58.375
-70.4661
-80.893
-89.1895
-94.9755
-97.9844
-98.0871
-95.3092
-89.8397
-82.0299
-72.3864
-61.5579
-50.3248
-39.5932
-30.3961
-23.8981
-21.3948
-24.293
-34.0577
-52.1152
-79.7101
-117.725
-166.483
-225.557
-293.622
-368.383
-446.593
-524.186
-596.508
-658.653
-705.856
-733.924
-739.647
-721.16
-678.195
-612.211
-526.365
-425.316
-314.89
-201.617
-92.1941
7.08105
90.8377
155.076
197.478
217.548
216.582
197.464
164.317
122.053
75.8685
30.7493
-8.97604
-39.9791
-60.1482
-68.6631
-65.9298
-53.397
-33.2818
-8.24597
18.939
45.6979
69.8982
90.0156
105.208
115.301
120.695
122.216
120.933
117.977
114.362
110.867
107.95
105.724
103.988
102.296
100.051
96.6135
91.4044
83.9865
74.1204
61.7887
47.1893
30.7021
12.8388
-5.81736
-24.6732
-43.1788
-60.8701
-77.3945
-92.5217
-106.139
-118.236
-128.878
-138.18
-146.28
-153.306
-159.362
-164.511
-168.765
-172.092
-174.419
-175.647
-175.671
-174.398
-171.77
-167.781
-162.489
-156.022
-148.575
-140.398
-131.778
-123.011
-114.379
-106.121
-98.4059
-91.3234
-84.8718
-78.9636
-73.4406
-68.0973
-62.7115
-57.0781
-51.0392
-44.5092
-37.4888
-30.0662
-22.4066
-14.7304
-7.28532
-0.31618
5.96152
11.3811
15.834
19.269
21.6823
23.1019
23.5712
23.1346
21.829
19.6835
16.7276
13.0049
8.59103
3.61009
-1.75401
-7.25478
-12.591
-17.4247
-21.4072
-24.2084
-25.5458
-25.2079
-23.0676
-19.0864
-13.3061
-5.8334
3.18263
13.573
25.1687
37.8147
51.3739
65.723
80.7392
96.2812
112.168
128.16
143.945
159.132
173.257
185.801
196.214
203.949
208.503
209.456
206.515
199.552
188.625
174.003
156.161
135.765
113.638
90.7142
67.9718
46.3686
26.7709
9.88985
-3.76973
-13.9434
-20.62
-24.0321
-24.625
-23.0078
-19.8916
-16.0215
-12.1097
-8.77561
-6.50029
-5.59697
-6.2009
-8.27717
-11.6441
-16.0078
-21.0022
-26.2294
-31.2944
-35.8305
-39.5152
-42.0765
-43.2952
-43.0095
-41.1282
-37.6605
-32.7623
-26.7982
-20.4084
-14.5641
-10.5943
-10.1615
-15.1727
-27.6202
-49.3558
-81.8184
-125.745
-180.905
-245.899
-318.062
-393.507
-467.314
-533.869
-587.327
-622.156
-633.701
-618.719
-575.795
-505.615
-411.032
-296.917
-169.802
-37.3461
92.3283
211.351
312.804
391.324
443.549
468.36
466.891
442.321
399.467
344.236
282.987
221.9
166.394
120.669
87.4126
67.6857
60.9952
65.5219
78.4708
96.4913
116.114
134.153
148.029
155.992
157.213
151.768
140.515
124.891
106.671
87.712
69.7211
54.0692
41.6692
32.9247
27.7474
25.6342
25.7848
27.2432
29.0405
30.3228
30.4478
29.0443
26.0284
21.5819
16.0981
10.1066
4.18832
-1.10688
-5.33021
-8.184
-9.5476
-9.47859
-8.1919
-6.02197
-3.37435
-0.673799
1.68459
3.37583
4.17339
3.96341
2.74467
0.615875
-2.24713
-5.62037
-9.26311
-12.9474
-16.4829
-19.7338
-22.6268
-25.1513
-27.3499
-29.3037
-31.1138
-32.881
-34.6866
-36.5765
-38.5502
-40.555
-42.4878
-44.2024
-45.5231
-46.2623
-46.2417
-45.3125
-43.3748
-40.3922
-36.4001
-31.5069
-25.8878
-19.7709
-13.4195
-7.10938
-1.10697
4.35185
9.07878
12.945
15.8871
17.9068
19.0648
19.4703
19.2672
18.6185
17.6903
16.6376
15.5922
14.6536
13.8843
13.3078
12.9114
12.6517
12.4622
12.2628
11.9701
11.5058
10.8049
9.8198
8.52308
6.90592
4.97504
2.74775
0.246657
-2.50506
-5.48692
-8.68246
-12.0788
-15.6647
-19.4283
-23.3542
-27.422
-31.6054
-35.8708
-40.1778
-44.4781
-48.7133
-52.8129
-56.6904
-60.2403
-63.3353
-65.8265
-67.5457
-68.3125
-67.9453
-66.2753
-63.1644
-58.5237
-52.3311
-44.6457
-35.6161
-25.4814
-14.5628
-3.24715
8.03918
18.8609
28.8084
37.5311
44.7671
50.3637
54.2881
56.6252
57.563
57.3675
56.35
54.8319
53.1114
51.437
49.9909
48.8825
48.1527
47.7822
47.7019
47.7957
47.8932
47.7472
46.9978
45.129
41.4257
34.9477
24.5351
8.85861
-13.4739
-43.7565
-82.9793
-131.6
-189.323
-254.929
-326.183
-399.852
-471.854
-537.528
-592.002
-630.637
-649.481
-645.691
-617.874
-566.301
-492.961
-401.46
-296.756
-184.77
-71.895
35.5297
131.733
211.966
272.852
312.586
331
329.46
310.636
278.173
236.297
189.396
141.638
96.6343
57.1966
25.1968
1.52845
-13.8313
-21.6799
-23.3896
-20.6784
-15.3779
-9.22418
-3.6905
0.123936
1.54446
0.312275
-3.47447
-9.4556
-17.1226
-25.9329
-35.4086
-45.206
-55.1504
-65.2309
-75.5629
-86.3224
-97.6673
-109.655
-122.172
-134.887
-147.232
-158.422
-167.513
-173.489
-175.377
-172.367
-163.932
-149.927
-130.649
-106.851
-79.7077
-50.7247
-21.6091
5.88998
30.1505
49.8356
64.0225
72.2859
74.7278
71.9482
64.9649
55.0899
43.7804
32.4814
22.4785
14.7782
10.0255
8.46747
9.96376
14.0375
19.9591
26.8504
33.7947
39.9406
44.5884
47.2516
47.6898
45.9122
42.1556
36.8426
30.5251
23.8217
17.3558
11.6973
7.31604
4.54636
3.56561
4.38676
6.86407
10.7106
15.5256
20.8303
26.1086
30.8508
34.597
36.9768
37.741
36.7838
34.1515
30.0367
24.7584
18.7304
12.4191
6.29807
0.801689
-3.71521
-7.00829
-8.96169
-9.59168
-9.03603
-7.53134
-5.38179
-2.92406
-0.493657
1.60278
3.10575
3.8106
3.56564
2.26341
-0.170671
-3.78831
-8.62365
-14.6921
-21.9827
-30.4463
-39.9816
-50.4244
-61.5418
-73.0351
-84.5519
-95.7074
-106.112
-115.4
-123.263
-129.468
-133.876
-136.447
-137.228
-136.342
-133.96
-130.276
-125.481
-119.747
-113.206
-105.956
-98.055
-89.5397
-80.4373
-70.7845
-60.6432
-50.1141
-39.3427
-28.5192
-17.8707
-7.64676
1.90013
10.5362
18.0679
24.3597
29.3466
33.0389
35.5191
36.9309
37.4614
37.3195
36.7116
35.8172
34.7673
33.6256
32.3715
30.8855
28.933
26.146
22.0025
15.8065
6.67538
-6.45524
-24.798
-49.6403
-82.2242
-123.583
-174.341
-234.508
-303.285
-378.926
-458.687
-538.881
-615.053
-682.278
-735.548
-770.217
-782.457
-769.687
-730.897
-666.859
-580.165
-475.108
-357.379
-233.641
-110.982
3.67011
104.125
185.442
244.319
279.316
290.902
281.312
254.25
214.454
167.188
117.719
70.8214
30.3741
-0.925091
-21.6967
-31.8712
-32.5447
-25.726
-14.0123
-0.235336
12.8806
23.0116
28.4508
28.2311
22.1509
10.7081
-5.0396
-23.664
-43.5792
-63.2489
-81.3644
-96.9738
-109.552
-119.007
-125.624
-129.972
-132.766
-134.729
-136.46
-138.332
-140.427
-142.522
-144.134
-144.594
-143.163
-139.158
-132.073
-121.677
-108.071
-91.7096
-73.3629
-54.0436
-34.899
-17.0864
-1.64817
10.5987
19.1435
23.8253
24.8346
22.6756
18.0953
11.9905
5.30658
-1.06048
-6.3454
-9.97106
-11.5775
-11.0229
-8.36008
-3.79574
2.35945
9.7423
17.9828
26.739
35.7193
44.691
53.4771
61.9455
69.9921
77.5236
84.4423
90.6348
95.9662
100.281
103.409
105.177
105.424
104.019
100.885
96.0121
89.477
81.4514
72.203
62.0868
51.5261
40.9848
30.9326
21.8079
13.9814
7.72584
3.19426
0.410321
-0.728785
-0.437245
0.9847
3.18312
5.78596
8.43784
10.8303
12.7249
13.9663
14.4869
14.3003
13.4883
12.1819
10.5382
8.71677
6.85641
5.05358
3.34475
1.69396
-0.0124796
-1.96238
-4.40398
-7.62189
-11.904
-17.5021
-24.5909
-33.23
-43.336
-54.6672
-66.8264
-79.2803
-91.396
-102.489
-111.877
-118.938
-123.164
-124.199
-121.871
-116.211
-107.447
-95.9885
-82.4008
-67.3612
-51.6126
-35.9124
-20.9818
-7.45964
4.13575
13.4344
20.2303
24.4836
26.3108
25.9643
23.8028
20.2581
15.7987
10.8967
5.99902
1.50585
-2.24123
-4.96221
-6.43346
-6.47747
-4.95197
-1.74392
3.22614
9.98484
18.4695
28.4756
39.5935
51.1442
62.129
71.2073
76.7195
76.7655
69.3443
52.5484
24.7993
-14.9009
-66.7328
-129.872
-202.378
-281.191
-362.24
-440.673
-511.188
-568.448
-607.54
-624.439
-616.428
-582.424
-523.177
-441.305
-341.155
-228.49
-110.031
7.10872
116.035
210.663
286.235
339.694
369.885
377.561
365.201
336.662
296.713
250.503
203.035
158.688
120.842
91.6468
71.934
61.2805
58.1986
60.42
65.2356
69.8454
71.6833
68.6827
59.4621
43.4193
20.7349
-7.70713
-40.465
-75.7286
-111.531
-145.959
-177.336
-204.367
-226.234
-242.63
-253.733
-260.141
-262.758
-262.66
-260.956
-258.656
-256.565
-255.204
-254.779
-255.189
-256.07
-256.872
-256.953
-255.68
-252.527
-247.145
-239.41
-229.44
-217.569
-204.303
-190.243
-176.005
-162.138
-149.056
-136.99
-125.973
-115.853
-106.331
-97.0291
-87.561
-77.607
-66.9763
-55.6493
-43.7917
-31.7399
-19.9594
-8.98105
0.674979
8.57748
14.4542
18.2433
20.1181
20.4815
19.9282
19.1796
18.9977
20.09
23.0171
28.1157
35.4478
44.783
55.6179
67.229
78.7531
89.2848
97.9781
104.14
107.301
107.265
104.114
98.19
90.0449
80.368
69.9041
59.3713
49.3878
40.4183
32.7426
26.4501
21.4572
17.5435
14.4003
11.6843
9.06804
6.2832
3.15096
-0.402066
-4.34242
-8.54144
-12.7972
-16.8634
-20.481
-23.4112
-25.4642
-26.5246
-26.5702
-25.6836
-24.0559
-21.9799
-19.8344
-18.056
-17.102
-17.4053
-19.3246
-23.0971
-28.7976
-36.3119
-45.3266
-55.3411
-65.6991
-75.6396
-84.3615
-91.0963
-95.1803
-96.1196
-93.639
-87.7112
-78.5606
-66.6435
-52.6054
-37.2197
-21.3172
-5.71078
8.8737
21.8557
32.8408
41.6423
48.2821
52.9736
56.0893
58.1178
59.6147
61.1521
63.2704
66.4368
71.0122
77.229
85.1804
94.8222
105.984
118.389
131.679
145.434
159.19
172.442
184.634
195.135
203.208
207.982
208.436
203.419
191.711
172.127
143.678
105.752
58.3107
2.06986
-61.3779
-129.516
-198.957
-265.616
-324.979
-372.465
-403.841
-415.644
-405.56
-372.724
-317.891
-243.457
-153.335
-52.6733
52.5369
155.936
251.309
333.076
396.733
439.187
458.96
456.252
432.86
391.95
337.723
275.008
208.804
143.84
84.1801
32.9126
-8.04534
-38.0165
-57.5027
-68.0073
-71.7669
-71.4253
-69.6906
-69.0137
-71.3247
-77.8533
-89.0479
-104.598
-123.546
-144.471
-165.718
-185.633
-202.784
-216.131
-225.138
-229.811
-230.657
-228.591
-224.791
-220.532
-217.012
-215.205
-215.736
-218.818
-224.225
-231.328
-239.169
-246.574
-252.285
-255.1
-254.003
-248.277
-237.581
-221.982
-201.955
-178.333
-152.226
-124.915
-97.7328
-71.9501
-48.6662
-28.7288
-12.681
-0.740254
7.18954
11.4786
12.7094
11.6018
8.933
5.462
1.86488
-1.3127
-3.68341
-5.02574
-5.27296
-4.48722
-2.8235
-0.489074
2.29655
5.33653
8.48332
11.655
14.8412
18.0987
21.5389
25.3098
29.5732
34.4818
40.1566
46.6679
54.0217
62.1514
70.918
80.1169
89.4916
98.7531
107.603
115.756
122.966
129.041
133.86
137.38
139.629
140.708
140.766
139.989
138.573
136.706
134.547
132.213
129.764
127.201
124.468
121.458
118.024
113.997
109.205
103.492
96.7367
88.87
79.8856
69.8467
58.8876
47.2074
35.0596
22.7374
10.5549
-1.17136
-12.1423
-22.0929
-30.8068
-38.1259
-43.9565
-48.2695
-51.0963
-52.5196
-52.6611
-51.6665
-49.6895
-46.8772
-43.3579
-39.2338
-34.5794
-29.4453
-23.8676
-17.882
-11.5382
-4.91594
1.8646
8.63619
15.1862
21.2657
26.6064
30.9423
34.0355
35.7016
35.8324
34.4133
31.5331
27.3852
22.2596
16.5274
10.6184
4.99338
0.11422
-3.58868
-5.75028
-6.1072
-4.53741
-1.10387
3.89919
9.90168
16.0231
21.0595
23.5047
21.618
13.5458
-2.50449
-28.0472
-64.0783
-110.842
-167.636
-232.69
-303.153
-375.191
-444.222
-505.258
-553.323
-583.917
-593.463
-579.688
-541.902
-481.134
-400.107
-303.07
-195.477
-83.5675
26.1351
127.338
214.483
283.176
330.515
355.288
358.01
340.817
307.208
261.678
209.274
155.113
103.921
59.6352
25.1023
1.90595
-9.66829
-10.5344
-2.59246
11.5693
29.0188
46.8295
62.3959
73.6841
79.393
79.017
72.8128
61.6806
46.9838
30.3327
13.3619
-2.47218
-16.0522
-26.7032
-34.2328
-38.9092
-41.3857
-42.5852
-43.562
-45.3591
-48.8768
-54.7684
-63.3717
-74.682
-88.3654
-103.81
-120.203
-136.63
-152.171
-165.997
-177.445
-186.075
-191.687
-194.322
-194.229
-191.81
-187.561
-181.995
-175.583
-168.696
-161.571
-154.295
-146.814
-138.955
-130.479
-121.13
-110.696
-99.0622
-86.2508
-72.4459
-57.9922
-43.3727
-29.1652
-15.984
-4.4148
5.05055
12.0686
16.4829
18.3415
17.8907
15.548
11.8564
7.42645
2.87428
-1.23855
-4.4557
-6.46219
-7.10277
-6.38157
-4.44443
-1.54704
1.98622
5.80765
9.59023
13.0658
16.0535
18.4757
20.3611
21.8341
23.0923
24.3764
25.9342
27.9843
30.6844
34.107
38.226
42.9159
47.9623
53.0833
57.9584
62.26
65.6848
67.9811
68.9684
68.5478
66.7036
63.4953
59.0436
53.5122
47.0878
39.9623
32.3183
24.3198
16.1078
7.80077
-0.501015
-8.70955
-16.7419
-24.5137
-31.9343
-38.9036
-45.311
-51.0368
-55.9549
-59.9363
-62.8542
-64.5893
-65.0354
-64.1065
-61.744
-57.9251
-52.6702
-46.051
-38.1958
-29.2927
-19.5895
-9.38901
0.959923
11.0764
20.5662
29.0448
36.163
41.6337
45.2568
46.9405
46.7147
44.736
41.2821
36.735
31.5557
26.2518
21.3414
17.3172
14.6146
13.5833
14.464
17.3656
22.2406
28.8544
36.7465
45.1889
53.1479
59.2646
61.8703
59.0523
48.7814
29.1007
-1.63643
-44.5041
-99.7523
-166.605
-243.144
-326.307
-412.009
-495.389
-571.154
-633.999
-679.048
-702.292
-700.958
-673.803
-621.272
-545.537
-450.38
-340.942
-223.35
-104.26
9.66751
112.289
198.46
264.439
308.147
329.292
329.313
311.172
279.005
237.681
192.304
147.724
108.103
76.579
55.0547
44.139
43.2231
50.6839
64.1785
80.9896
98.3808
113.917
125.715
132.608
134.195
130.804
123.354
113.167
101.741
90.5288
80.7356
73.1797
68.2113
65.7033
65.1079
65.5636
66.0376
65.4781
62.9585
57.793
49.6117
38.3874
24.4144
8.24723
-9.39098
-27.7141
-45.9771
-63.5642
-80.05
-95.226
-109.094
-121.823
-133.694
-145.017
-156.057
-166.973
-177.763
-188.251
-198.092
-206.801
-213.818
-218.572
-220.557
-219.403
-214.926
-207.166
-196.388
-183.065
-167.831
-151.419
-134.593
-118.072
-102.467
-88.2341
-75.6444
-64.7781
-55.54
-47.693
-40.9047
-34.8006
-29.0177
-23.2507
-17.2873
-11.0283
-4.49194
2.1981
8.83663
15.1701
20.9336
25.8866
29.8439
32.6962
34.4211
35.0819
34.8154
33.8131
32.2961
30.4896
28.5992
26.7923
25.1869
23.8475
22.7893
21.9882
21.3937
20.9442
20.5787
20.245
19.9027
19.5195
19.0644
18.4977
17.7626
16.7797
15.4476
13.6495
11.2666
8.19596
4.36917
-0.229461
-5.55033
-11.4733
-17.8112
-24.3225
-30.7305
-36.7477
-42.1004
-46.5499
-49.9072
-52.0388
-52.8623
-52.3338
-50.4294
-47.1246
-42.3778
-36.1205
-28.2595
-18.6911
-7.32598
5.87789
20.8816
37.5358
55.5622
74.5497
93.9672
113.193
131.554
148.38
163.044
175.017
183.898
189.439
191.555
190.314
185.926
178.712
169.078
157.478
144.391
130.297
115.662
100.934
86.5431
72.9089
60.4391
49.5226
40.5047
33.642
29.0364
26.5541
25.7417
25.7581
25.3423
22.8373
16.2854
3.59788
-17.2086
-47.731
-88.8874
-140.653
-201.866
-270.143
-341.924
-412.667
-477.173
-530.027
-566.106
-581.101
-571.996
-537.444
-478.001
-396.173
-296.282
-184.14
-66.5784
49.1288
155.891
247.408
318.701
366.505
389.509
388.389
365.663
325.385
272.697
213.311
152.967
96.9202
49.5117
13.8642
-8.28322
-16.588
-11.9773
3.59349
27.4609
56.611
88.0318
119.019
147.41
171.714
191.153
205.595
215.421
221.336
224.165
224.663
223.356
220.45
215.801
208.949
199.218
185.846
168.136
145.606
118.106
85.8934
49.6576
10.4837
-30.2361
-70.9317
-110.011
-146.021
-177.796
-204.571
-226.051
-242.422
-254.309
-262.678
-268.703
-273.613
-278.528
-284.324
-291.524
-300.243
-310.177
-320.653
-330.722
-339.281
-345.216
-347.542
-345.528
-338.782
-327.302
-311.471
-292.013
-269.904
-246.26
-222.21
-198.78
-176.783
-156.753
-138.908
-123.157
-109.139
-96.299
-83.9779
-71.5078
-58.3047
-43.9436
-28.2093
-11.1201
7.07718
25.9387
44.8737
63.209
80.2583
95.3888
108.079
117.962
124.851
128.748
129.83
128.429
124.99
120.031
114.096
107.716
101.367
95.446
90.2493
85.9677
82.6862
80.3962
79.0115
78.3899
78.355
78.7155
79.2793
79.8602
80.2763
80.3415
79.8526
78.5763
76.243
72.5497
67.1764
59.8166
50.2183
38.2304
23.8472
7.24157
-11.2185
-30.9765
-51.3184
-71.424
-90.4348
-107.529
-121.994
-133.287
-141.076
-145.261
-145.97
-143.53
-138.429
-131.259
-122.664
-113.285
-103.713
-94.4542
-85.9092
-78.3579
-71.9609
-66.7662
-62.7231
-59.6983
-57.4933
-55.8598
-54.5134
-53.1443
-51.4267
-49.0284
-45.6219
-40.8985
-34.5863
-26.4685
-16.4024
-4.33345
9.69688
25.5517
43.0063
61.7596
81.4441
101.628
121.806
141.371
159.587
175.539
188.119
196.014
197.756
191.81
176.72
151.303
114.867
67.4262
9.88982
-55.8238
-126.764
-199.045
-268.054
-328.781
-376.225
-405.846
-414.023
-398.456
-358.479
-295.235
-211.689
-112.473
-3.55669
108.214
215.685
312.004
391.215
448.776
481.94
489.961
474.102
437.453
384.565
320.953
252.533
185.029
123.442
71.6202
31.972
5.34716
-8.91027
-12.7571
-9.12457
-1.51552
6.42668
11.328
10.4305
1.84459
-15.314
-40.9053
-73.8584
-112.356
-154.085
-196.516
-237.184
-273.94
-305.144
-329.788
-347.54
-358.717
-364.181
-365.2
-363.263
-359.894
-356.474
-354.088
-353.413
-354.647
-357.496
-361.205
-364.637
-366.395
-364.971
-358.916
-347.01
-328.426
-302.858
-270.598
-232.565
-190.246
-145.594
-100.848
-58.3237
-20.1882
11.7589
36.2625
52.7305
61.2756
62.6795
58.2805
49.8043
39.1568
28.2083
18.5931
11.5494
7.81681
7.5984
10.5898
16.0654
23.008
30.2621
36.6902
41.3134
43.4193
42.628
38.9113
32.5666
24.1554
14.4155
4.16347
-5.80009
-14.7688
-22.1835
-27.655
-30.9573
-31.995
-30.755
-27.2519
-21.4794
-13.3764
-2.81624
10.3801
26.4069
45.4191
67.4699
92.4502
120.043
149.697
180.638
211.9
242.394
270.993
296.628
318.388
335.591
347.845
355.067
357.47
355.515
349.843
341.183
330.267
317.739
304.096
289.648
274.504
258.597
241.73
223.647
204.106
182.964
160.243
136.173
111.21
86.0209
61.4322
38.3562
17.6987
0.262257
-13.3431
-22.7693
-27.9709
-29.212
-27.039
-22.2216
-15.6716
-8.3491
-1.16652
5.09615
9.85739
12.774
13.7519
12.9291
10.6341
7.3273
3.5329
-0.229354
-3.50491
-5.9511
-7.36562
-7.69521
-7.02549
-5.55506
-3.55867
-1.34505
0.784925
2.57448
3.83791
4.47577
4.47735
3.91103
2.9032
1.60696
0.161096
-1.3596
-3.00064
-4.98625
-7.77232
-12.0831
-18.9189
-29.5243
-45.3056
-67.6996
-97.9947
-137.123
-185.446
-242.553
-307.122
-376.85
-448.48
-517.944
-580.606
-631.599
-666.222
-680.372
-670.956
-636.259
-576.201
-492.484
-388.569
-269.507
-141.606
-11.9704
112.051
223.462
316.199
385.641
428.993
445.5
436.478
405.14
356.251
295.641
229.625
164.399
105.477
57.2165
22.489
2.52359
-3.07409
3.86527
20.3979
42.8818
67.4321
90.3625
108.567
119.802
122.848
117.539
104.676
85.8285
63.0776
38.7171
14.9613
-6.31096
-23.7476
-36.6344
-44.9188
-49.1527
-50.3666
-49.8974
-49.1937
-49.6236
-52.3076
-57.9946
-66.9922
-79.1553
-93.9295
-110.441
-127.617
-144.322
-159.489
-172.231
-181.926
-188.259
-191.225
-191.093
-188.346
-183.599
-177.51
-170.698
-163.679
-156.815
-150.299
-144.152
-138.252
-132.372
-126.226
-119.521
-112.004
-103.5
-93.941
-83.3765
-71.9789
-60.0292
-47.8943
-35.9948
-24.7678
-14.6269
-5.92541
1.07532
6.22855
9.51347
11.0342
11.0071
9.73718
7.58722
4.94257
2.17555
-0.38669
-2.48765
-3.95792
-4.7215
-4.79195
-4.25938
-3.27051
-2.00418
-0.645267
0.640111
1.72545
2.53867
3.06936
3.36788
3.53663
3.71477
4.05844
4.71896
5.82192
7.44949
9.62824
12.3235
15.4411
18.8352
22.3221
25.6972
28.7537
31.3008
33.1793
34.2733
34.5171
33.8974
32.4496
30.2513
27.4114
24.0586
20.3293
16.3565
12.261
8.1463
4.09571
0.173812
-3.56984
-7.09507
-10.3648
-13.3393
-15.9724
-18.2102
-19.9928
-21.2591
-21.9541
-22.037
-21.4902
-20.3264
-18.5931
-16.3733
-13.7822
-10.9603
-8.06213
-5.24388
-2.64976
-0.399641
1.42089
2.76694
3.63642
4.06796
4.13521
3.93836
3.59451
3.22798
2.96218
2.91367
3.18908
3.88467
5.08797
6.88064
9.34147
12.5483
16.5773
21.4987
27.3651
34.192
41.9271
50.4072
59.306
68.0765
75.8983
81.6431
83.8737
80.8912
70.8396
51.8723
22.3709
-18.8015
-72.0405
-136.77
-211.279
-292.661
-376.879
-458.971
-533.384
-594.425
-636.768
-655.984
-649.031
-614.637
-553.539
-468.543
-364.377
-247.354
-124.874
-4.80202
105.212
198.401
269.467
315.027
333.871
327.001
297.46
249.957
190.347
125.021
60.2669
1.68562
-46.2907
-80.7249
-100.322
-105.395
-97.6607
-79.9117
-55.5999
-28.3941
-1.75878
21.398
38.9755
49.8118
53.6927
51.2498
43.772
32.9618
20.6717
8.65374
-1.64703
-9.2367
-13.6421
-14.906
-13.5168
-10.2888
-6.21388
-2.30624
0.538332
1.65297
0.668442
-2.46428
-7.4959
-13.9376
-21.1455
-28.4172
-35.0865
-40.6041
-44.5949
-46.8862
-47.5072
-46.6602
-44.6727
-41.9369
-38.8473
-35.7447
-32.8753
-30.3675
-28.2311
-26.374
-24.6346
-22.8224
-20.76
-18.3196
-15.4489
-12.1837
-8.644
-5.0178
-1.53376
1.57207
4.09062
5.87075
6.84302
7.03351
6.56658
5.65624
4.58733
3.6883
3.29836
3.73222
5.2459
8.00736
12.0751
17.3876
23.7643
30.9195
38.4867
46.0513
53.1869
59.4921
64.6223
68.3143
70.3999
70.8098
69.5669
66.7726
62.5873
57.21
50.8583
43.7518
36.0995
28.0925
19.9012
11.6761
3.55033
-4.35616
-11.9335
-19.0801
-25.7025
-31.7176
-37.0558
-41.6649
-45.5126
-48.5875
-50.8978
-52.467
-53.3281
-53.5179
-53.0714
-52.0197
-50.3903
-48.2106
-45.5137
-42.3453
-38.7693
-34.8713
-30.7587
-26.5563
-22.3987
-18.4186
-14.7339
-11.4324
-8.55815
-6.09747
-3.96915
-2.01811
-0.0150341
2.33713
5.38891
9.52257
15.1236
22.5476
32.0845
43.9238
58.1238
74.5876
93.0492
113.073
134.064
155.298
175.96
195.194
212.166
226.126
236.468
242.784
244.906
242.927
237.201
228.324
217.088
204.417
191.297
178.688
167.451
158.281
151.644
147.752
146.532
147.625
150.379
153.857
156.843
157.862
155.21
147.026
131.387
106.463
70.7061
23.0697
-36.7568
-108.143
-189.368
-277.561
-368.761
-458.103
-540.134
-609.228
-660.069
-688.149
-690.233
-664.734
-611.949
-534.138
-435.416
-321.465
-199.098
-75.7106
41.3381
145.331
230.743
293.678
332.139
346.119
337.509
309.818
267.769
216.789
162.471
110.044
63.9252
27.3824
2.3355
-10.6863
-12.4435
-4.76218
9.77916
28.2096
47.5306
65.0438
78.6108
86.8216
89.0624
85.4861
76.8977
64.5777
50.0705
34.9653
20.6971
8.38817
-1.25531
-7.98502
-11.9924
-13.839
-14.3489
-14.4801
-15.1909
-17.3192
-21.4852
-28.0287
-36.9831
-48.0868
-60.8273
-74.5106
-88.3453
-101.532
-113.347
-123.211
-130.735
-135.746
-138.276
-138.54
-136.883
-133.721
-129.482
-124.545
-119.197
-113.609
-107.824
-101.779
-95.3267
-88.2856
-80.4783
-71.7762
-62.1304
-51.5901
-40.3047
-28.5105
-16.5045
-4.61034
6.85809
17.631
27.5087
36.3776
44.2136
51.0738
57.0794
62.3906
67.1806
71.6085
75.7978
79.8199
83.6863
87.3482
90.7034
93.6094
95.9002
97.4053
97.9681
97.4621
95.804
92.9614
88.9565
83.864
77.8056
70.9414
63.4588
55.5606
47.4541
39.3401
31.4044
23.8109
16.6966
10.1691
4.30552
-0.846949
-5.26868
-8.96468
-11.9607
-14.2991
-16.0344
-17.2291
-17.9506
-18.2683
-18.2527
-17.976
-17.5139
-16.9479
-16.3681
-15.8745
-15.5759
-15.5858
-16.0153
-16.9623
-18.5003
-20.6662
-23.4509
-26.793
-30.5777
-34.6415
-38.7823
-42.7729
-46.3791
-49.377
-51.5708
-52.807
-52.9851
-52.063
-50.0573
-47.0383
-43.1209
-38.4527
-33.2003
-27.5357
-21.6245
-15.6165
-9.63975
-3.79825
1.82729
7.17608
12.2024
16.8707
21.1512
25.0175
28.4461
31.418
33.9222
35.9601
37.55
38.7314
39.5681
40.1497
40.5926
41.0379
41.6491
42.6057
44.0924
46.2816
49.3068
53.2241
57.963
63.2682
68.6398
73.2818
76.0726
75.5727
70.0811
57.7477
36.741
5.46033
-37.2268
-91.7488
-157.626
-233.327
-316.215
-402.6
-487.9
-566.921
-634.226
-684.578
-713.403
-717.253
-694.199
-644.109
-568.785
-471.923
-358.875
-236.255
-111.394
8.28824
115.931
205.83
273.922
318.095
338.302
336.457
316.144
282.163
239.976
195.125
152.676
116.752
90.2114
74.4838
69.5758
74.2357
86.2402
102.763
120.772
137.414
150.326
157.865
159.216
154.389
144.114
129.657
112.584
94.5281
76.9575
61.009
47.3793
36.2919
27.5338
20.5495
14.5727
8.77284
2.39509
-5.126
-14.0921
-24.5126
-36.1203
-48.4264
-60.8011
-72.5669
-83.0914
-91.8645
-98.5538
-103.03
-105.365
-105.798
-104.692
-102.468
-99.5414
-96.27
-92.9073
-89.5795
-86.2812
-82.8903
-79.1979
-74.9482
-69.8813
-63.774
-56.472
-47.9103
-38.1209
-27.228
-15.4312
-2.98327
9.83714
22.7515
35.5042
47.8786
59.7065
70.8691
81.292
90.9341
99.7732
107.791
114.957
121.221
126.501
130.684
133.629
135.176
135.162
133.435
129.877
124.416
117.053
107.864
97.0118
84.7414
71.3715
57.2749
42.8516
28.4959
14.5578
1.30177
-11.134
-22.7748
-33.8383
-44.7491
-56.1364
-68.809
-83.7063
-101.827
-124.14
-151.477
-184.43
-223.253
-267.777
-317.369
-370.913
-426.853
-483.262
-537.966
-588.691
-633.233
-669.63
-696.319
-712.272
-717.078
-710.987
-694.885
-670.228
-638.915
-603.128
-565.153
-527.185
-491.153
-458.571
-430.426
-407.125
-388.495
-373.836
-362.022
-351.634
-341.117
-328.934
-313.716
-294.381
-270.22
-240.955
-206.74
-168.147
-126.101
-81.8079
-36.6564
7.89023
50.4003
89.5786
124.362
153.995
178.094
196.67
210.134
219.265
225.142
229.05
232.363
236.412
242.354
251.052
262.987
278.197
296.281
316.434
337.538
358.288
377.33
393.399
405.426
412.607
414.408
410.525
400.788
385.06
363.133
334.668
299.196
256.201
205.266
146.278
79.6539
6.53671
-71.0693
-150.268
-227.364
-298.08
-357.885
-402.397
-427.815
-431.33
-411.461
-368.273
-303.458
-220.243
-123.155
-17.6555
90.315
194.832
290.47
372.718
438.307
485.393
513.621
524.033
518.875
501.305
475.04
443.99
411.894
382.015
356.884
338.154
326.525
321.779
322.896
328.227
335.721
343.162
348.398
349.542
345.122
334.173
316.271
291.509
260.426
223.906
183.051
139.065
93.1335
46.3425
-0.38874
-46.3342
-90.9603
-133.9
-174.908
-213.811
-250.456
-284.674
-316.253
-344.936
-370.437
-392.47
-410.792
-425.241
-435.774
-442.485
-445.611
-445.52
-442.672
-437.583
-430.764
-422.676
-413.679
-404.004
-393.735
-382.812
-371.049
-358.173
-343.864
-327.804
-309.728
-289.462
-266.952
-242.277
-215.653
-187.419
-158.009
-127.929
-97.7186
-67.9212
-39.0525
-11.5779
14.1065
37.6855
58.9308
77.7024
93.9463
107.689
119.028
128.126
135.197
140.493
144.297
146.901
148.598
149.666
150.358
150.884
151.406
152.025
152.777
153.621
154.441
155.045
155.175
154.516
152.726
149.463
144.422
137.377
128.212
116.953
103.781
89.0274
73.1591
56.7394
40.3793
24.6813
10.1816
-2.70049
-13.7011
-22.7327
-29.8854
-35.4084
-39.6747
-43.133
-46.2541
-49.4775
-53.1643
-57.564
-62.7952
-68.8439
-75.5779
-82.7725
-90.1446
-97.3895
-104.215
-110.368
-115.655
-119.951
-123.192
-125.372
-126.526
-126.704
-125.959
-124.326
-121.806
-118.359
-113.903
-108.32
-101.467
-93.1963
-83.3809
-71.9408
-58.8692
-44.254
-28.291
-11.286
6.35725
24.1617
41.6134
58.2063
73.4896
87.1125
98.8608
108.679
116.678
123.119
128.391
132.959
137.319
141.935
147.189
153.337
160.479
168.54
177.28
186.308
195.109
203.08
209.57
213.914
215.473
213.672
208.032
198.201
183.977
165.331
142.414
115.573
85.3571
52.5281
18.0665
-16.833
-50.7843
-82.2594
-109.673
-131.5
-146.423
-153.497
-152.313
-143.144
-127.046
-105.904
-82.3872
-59.8248
-41.9781
-32.7312
-35.7186
-53.9258
-89.3114
-142.5
-212.594
-297.138
-392.258
-492.958
-593.56
-688.225
-771.503
-838.843
-887
-914.296
-920.708
-907.777
-878.359
-836.243
-785.711
-731.068
-676.215
-624.297
-577.476
-536.823
-502.35
-473.154
-447.652
-423.87
-399.76
-373.489
-343.684
-309.608
-271.245
-229.29
-185.059
-140.322
-97.095
-57.4007
-23.0467
4.57173
24.6108
36.852
41.7019
40.1251
33.518
23.5452
11.9553
0.402669
-9.70899
-17.342
-21.8912
-23.1962
-21.5046
-17.3927
-11.6581
-5.19834
1.10756
6.50326
10.4321
12.582
12.8955
11.5479
8.89999
5.43228
1.67299
-1.87211
-4.77855
-6.74465
-7.61193
-7.36444
-6.1094
-4.04404
-1.41507
1.52275
4.54301
7.47443
10.2154
12.7359
15.068
17.2876
19.4924
21.7784
24.2196
26.8539
29.6767
32.6415
35.668
38.6555
41.497
44.0948
46.3721
48.28
49.7998
50.9397
51.7277
52.2015
52.3971
52.339
52.0325
51.4592
50.5777
49.3279
47.6405
45.4486
42.701
39.3751
35.4871
31.0979
26.314
21.2814
16.1747
11.1815
6.48351
2.23824
-1.43806
-4.48309
-6.89576
-8.73731
-10.1264
-11.2288
-12.2433
-13.3847
-14.8657
-16.8799
-19.5847
-23.089
-27.4426
-32.6307
-38.5735
-45.1295
-52.1037
-59.2594
-66.3325
-73.0477
-79.1344
-84.3427
-88.4561
-91.3011
-92.7528
-92.7354
-91.2182
-88.2084
-83.7422
-77.8763
-70.6813
-62.239
-52.6433
-42.0043
-30.4543
-18.1535
-5.29346
7.90352
21.1901
34.3042
46.984
58.9843
70.094
80.1512
89.0543
96.7671
103.317
108.789
113.308
117.024
120.09
122.647
124.804
126.63
128.149
129.326
130.074
130.237
129.582
127.782
124.399
118.863
110.465
98.3593
81.5955
59.1722
30.1275
-6.34252
-50.7459
-103.15
-163.049
-229.265
-299.898
-372.345
-443.393
-509.385
-566.464
-610.86
-639.211
-648.89
-638.294
-607.074
-556.274
-488.351
-407.081
-317.333
-224.727
-135.212
-54.5768
12.0552
60.6987
88.904
96.0254
83.3276
53.9062
12.4231
-35.3242
-82.9571
-124.14
-153.205
-165.713
-158.879
-131.82
-85.5901
-23.007
51.7213
133.504
216.957
296.989
369.323
430.88
480.008
516.509
541.516
557.212
566.475
572.472
578.278
586.548
599.271
617.629
641.957
671.776
705.909
742.626
779.821
815.183
846.368
871.148
887.546
893.951
889.215
872.728
844.468
805.027
755.59
697.886
634.081
566.647
498.187
431.248
368.13
310.713
260.327
217.672
182.796
155.154
133.709
117.096
103.802
92.3524
81.4839
70.2691
58.1946
45.1773
31.5236
17.8397
4.91016
-6.43946
-15.4741
-21.6596
-24.7376
-24.7584
-22.0703
-17.27
-11.1232
-4.46816
1.88345
7.23693
11.0838
13.1434
13.3745
11.9562
9.24504
5.71433
1.88515
-1.7415
-4.74349
-6.82078
-7.81925
-7.73424
-6.6953
-4.93592
-2.75366
-0.466417
1.62915
3.29223
4.3619
4.76858
4.53303
3.75405
2.58782
1.22226
-0.149896
-1.35575
-2.26177
-2.78632
-2.90436
-2.64457
-2.07999
-1.31416
-0.464831
0.352315
1.03797
1.51995
1.75935
1.75192
1.52487
1.13016
0.635257
0.112982
-0.36842
-0.753901
-1.00827
-1.12061
-1.10634
-1.00708
-0.888252
-0.834429
-0.942326
-1.31159
-2.03368
-3.17965
-4.78798
-6.85385
-9.32164
-12.0819
-14.974
-17.7945
-20.3112
-22.2816
-23.4736
-23.6873
-22.7748
-20.6564
-17.3329
-12.8913
-7.50465
-1.42601
5.0242
11.4762
17.5338
22.8008
26.9097
29.5505
30.4967
29.6271
26.94
22.5591
16.7286
9.79941
2.20597
-5.56263
-12.9955
-19.5936
-24.9012
-28.5356
-30.2123
-29.7689
-27.1875
-22.619
-16.4085
-9.124
-1.58227
5.13403
9.67918
10.4794
5.81116
-6.07175
-26.7629
-57.4923
-98.9
-150.824
-212.135
-280.647
-353.135
-425.464
-492.839
-550.155
-592.42
-615.212
-615.13
-590.18
-540.065
-466.327
-372.335
-263.092
-144.877
-24.7514
90.0222
192.605
277.17
339.403
376.851
389.091
377.697
346.009
298.739
241.456
180.011
119.967
66.0973
21.9953
-10.1606
-29.6776
-37.2564
-34.7592
-24.8754
-10.7295
4.51785
18.0319
27.5895
31.7644
29.9992
22.568
10.444
-4.90123
-21.7375
-38.3205
-53.1116
-64.9494
-73.1552
-77.5686
-78.5146
-76.7132
-73.1499
-68.9265
-65.1116
-62.6113
-62.0715
-63.8208
-67.8571
-73.8743
-81.3214
-89.4847
-97.5805
-104.847
-110.625
-114.418
-115.932
-115.082
-111.977
-106.89
-100.201
-92.3464
-83.7638
-74.8463
-65.9128
-57.1945
-48.8364
-40.9132
-33.4525
-26.4612
-19.9488
-13.9449
-8.50589
-3.71306
0.338765
3.55803
5.87558
7.26232
7.74199
7.39682
6.36492
4.82982
3.0036
1.10608
-0.657059
-2.11415
-3.14304
-3.68021
-3.72281
-3.32363
-2.58001
-1.61851
-0.577443
0.410411
1.23291
1.80975
2.09879
2.09716
1.83754
1.38046
0.803992
0.192389
-0.374923
-0.832582
-1.13585
-1.26396
-1.2201
-1.02847
-0.729041
-0.370828
-0.00472121
0.323277
0.577601
0.736858
0.795346
0.762244
0.658665
0.513103
0.356063
0.214821
0.109172
0.0488546
0.032977
0.0514173
0.0878525
0.123822
0.143098
0.135595
0.100088
0.0451868
-0.0117159
-0.0474173
-0.037263
0.0399951
0.197918
0.439726
0.758121
1.13813
1.56318
2.02419
2.53107
3.12529
3.89151
4.96585
6.53823
8.84683
12.1639
16.774
22.9459
30.9028
40.7917
52.657
66.4186
81.8578
98.6106
116.172
133.914
151.109
166.979
180.739
191.664
199.14
202.722
202.177
197.501
188.932
176.929
162.145
145.374
127.505
109.457
92.1282
76.3418
62.807
52.0837
44.556
40.4091
39.6075
41.8699
46.6427
53.0719
59.9835
65.8811
68.9763
67.2645
58.6549
41.1556
13.1044
-26.5757
-78.1284
-140.758
-212.504
-290.224
-369.71
-445.934
-513.414
-566.668
-600.716
-611.571
-596.675
-555.221
-488.324
-399.021
-292.08
-173.65
-50.7624
69.2496
179.373
273.502
346.941
396.766
422.013
423.673
404.5
368.655
321.227
267.688
213.339
162.809
119.658
86.1247
63.0402
49.9002
45.0876
46.2023
50.4522
55.0553
57.6007
56.329
50.3027
39.4554
24.5231
6.87675
-11.7138
-29.3482
-44.2602
-55.0432
-60.8125
-61.288
-56.7937
-48.1822
-36.6988
-23.809
-11.0157
0.312036
9.07602
14.5404
16.3703
14.6195
9.67503
2.17118
-7.11385
-17.3628
-27.8141
-37.8358
-46.9734
-54.9698
-61.7572
-67.4272
-72.1841
-76.2893
-80.005
-83.5434
-87.0275
-90.4672
-93.7522
-96.6609
-98.8848
-100.064
-99.8316
-97.8608
-93.9122
-87.874
-79.7901
-69.8742
-58.5044
-46.1993
-33.5776
-21.3042
-10.0289
-0.325581
7.36211
12.7614
15.7929
16.572
15.3902
12.6785
8.95671
4.77742
0.668333
-2.9181
-5.64372
-7.3083
-7.85613
-7.36629
-6.02868
-4.10997
-1.91406
0.258027
2.1441
3.54916
4.36369
4.57073
4.24175
3.52244
2.61007
1.72528
1.08142
0.855129
1.16214
2.04136
3.44962
5.26794
7.31833
9.38899
11.2643
12.7559
13.7298
14.1284
13.9815
13.4098
12.6164
11.8731
11.5
11.8442
13.2575
16.0759
20.6003
27.0772
35.679
46.484
59.4551
74.4206
91.0597
108.896
127.306
145.542
162.77
178.135
190.824
200.143
205.592
206.92
204.163
197.649
187.969
175.923
162.425
148.4
134.682
121.918
110.5
100.543
91.8958
84.1947
76.9476
69.6332
61.8
53.1506
43.5978
33.2846
22.5675
11.9666
2.09016
-6.45169
-13.1336
-17.5879
-19.6539
-19.3993
-17.1099
-13.2522
-8.41422
-3.23397
1.67435
5.78718
8.72261
10.2693
10.3881
9.18469
6.8499
3.57276
-0.568714
-5.72446
-12.3773
-21.4113
-34.1185
-52.1252
-77.2274
-111.144
-155.209
-210.042
-275.253
-349.214
-428.972
-510.315
-588.009
-656.204
-708.956
-740.823
-747.465
-726.167
-676.225
-599.143
-498.6
-380.202
-251.022
-118.988
7.82285
121.906
216.99
288.565
334.232
353.828
349.336
324.577
284.74
235.803
183.903
134.737
93.0471
62.2426
44.1887
39.172
46.0329
62.4385
85.2519
110.954
136.061
157.504
172.915
180.81
180.659
172.836
158.467
139.216
117.023
93.8408
71.3883
50.9669
33.34
18.6925
6.66717
-3.53322
-12.9975
-22.9329
-34.491
-48.6145
-65.9214
-86.6369
-110.578
-137.185
-165.599
-194.759
-223.522
-250.778
-275.553
-297.089
-314.89
-328.74
-338.687
-344.997
-348.094
-348.482
-346.676
-343.129
-338.187
-332.056
-324.802
-316.364
-306.592
-295.294
-282.292
-267.464
-250.793
-232.387
-212.491
-191.476
-169.812
-148.031
-126.682
-106.283
-87.2838
-70.0327
-54.7597
-41.573
-30.4679
-21.3451
-14.0362
-8.33028
-3.99924
-0.819109
1.41525
2.88188
3.72965
4.08088
4.03699
3.68523
3.1048
2.37116
1.55799
0.736482
-0.0272713
-0.676229
-1.16658
-1.47117
-1.58123
-1.50562
-1.26722
-0.896275
-0.421549
0.139447
0.789092
1.55493
2.4897
3.66501
5.159
7.03944
9.34525
12.0697
15.1489
18.4585
21.8203
25.0178
27.8204
30.0115
31.4167
31.928
31.5194
30.2501
28.2559
25.7271
22.8782
19.9114
16.9822
14.1721
11.4733
8.79056
5.96015
2.78429
-0.922859
-5.28477
-10.3152
-15.8824
-21.691
-27.2883
-32.0949
-35.4598
-36.7315
-35.3385
-30.8657
-23.1159
-12.1461
1.72661
17.951
35.7959
54.4222
72.9634
90.6024
106.635
120.512
131.866
140.505
146.404
149.676
150.538
149.283
146.247
141.785
136.254
129.998
123.34
116.579
109.988
103.818
98.3003
93.6489
90.0592
87.6982
86.6864
87.0658
88.7558
91.4992
94.8033
97.8867
99.6441
98.6437
93.1704
81.3251
61.1838
31.0105
-10.4912
-63.915
-128.911
-204.002
-286.506
-372.568
-457.348
-535.338
-600.795
-648.254
-673.065
-671.89
-643.112
-587.089
-506.234
-404.889
-289.008
-165.678
-42.5185
72.9692
174.045
255.294
313.057
345.686
353.596
339.133
306.248
260.048
206.254
150.637
98.4849
54.1535
20.7461
-0.0586212
-8.02041
-4.20426
9.27327
29.5815
53.5521
78.0507
100.302
118.138
130.151
135.739
135.064
128.919
118.547
105.435
91.1054
76.9334
64.0097
53.0562
44.3979
37.9866
33.4653
30.2608
27.6896
25.0624
21.7765
17.3852
11.6422
4.51668
-3.81756
-13.0154
-22.6097
-32.07
-40.8641
-48.5144
-54.6459
-59.0185
-61.5443
-62.2863
-61.4411
-59.3082
-56.2493
-52.6432
-48.8417
-45.1313
-41.706
-38.6544
-35.9611
-33.5233
-31.1784
-28.738
-26.0232
-22.8948
-19.275
-15.1572
-10.6047
-5.73874
-0.720441
4.27087
9.05773
13.4806
17.4072
20.7348
23.3844
25.2905
26.3864
26.5905
25.7974
23.8749
20.672
16.0359
9.83825
2.0045
-7.45579
-18.4252
-30.6653
-43.817
-57.417
-70.9284
-83.7833
-95.4315
-105.391
-113.289
-118.9
-122.153
-123.133
-122.058
-119.244
-115.053
-109.849
-103.948
-97.5836
-90.8857
-83.8803
-76.5041
-68.6362
-60.1386
-50.9008
-40.8793
-30.1276
-18.8107
-7.20335
4.32823
15.3572
25.4353
34.135
41.0884
46.0193
48.7646
49.283
47.6524
44.0565
38.7638
32.1025
24.4351
16.1344
7.56541
-0.927963
-9.03067
-16.4596
-22.9644
-28.3272
-32.3637
-34.9258
-35.907
-35.2486
-32.9476
-29.0623
-23.7164
-17.0979
-9.45401
-1.07885
7.70303
16.5584
25.1696
33.2596
40.615
47.1032
52.6842
57.4111
61.4229
64.927
68.175
71.4337
74.955
78.9479
83.5569
88.8473
94.8022
101.329
108.28
115.475
122.743
129.952
137.041
144.041
151.072
158.318
165.971
174.149
182.792
191.544
199.656
205.913
208.629
205.711
194.828
173.648
140.162
93.0285
31.9084
-42.2595
-127.1
-218.793
-312.234
-401.373
-479.699
-540.831
-579.159
-590.446
-572.343
-524.724
-449.816
-352.091
-237.92
-115.024
8.21327
123.509
223.436
302.077
355.526
382.167
382.723
360.066
318.82
264.814
204.443
144.019
89.1672
44.3465
12.5223
-4.98098
-8.44442
0.441995
18.9043
43.4901
70.5046
96.4257
118.254
133.77
141.67
141.588
134.008
120.087
101.42
79.7841
56.8818
34.1318
12.5147
-7.50584
-25.9836
-43.4196
-60.6344
-78.6047
-98.2873
-120.455
-145.561
-173.66
-204.371
-236.912
-270.175
-302.847
-333.548
-360.98
-384.055
-402.001
-414.422
-421.319
-423.061
-420.315
-413.955
-404.945
-394.224
-382.604
-370.688
-358.823
-347.086
-335.303
-323.108
-310.01
-295.483
-279.052
-260.374
-239.295
-215.89
-190.473
-163.576
-135.907
-108.285
-81.5628
-56.5469
-33.9183
-14.1715
2.4273
15.8557
26.3234
34.2355
40.1345
44.6314
48.3317
51.7682
55.3469
59.3124
63.7361
68.5255
73.4541
78.2045
82.4194
85.753
87.9163
88.7119
88.0533
85.9692
82.5935
78.143
72.8882
67.1207
61.1231
55.1429
49.3754
43.9546
38.9537
34.3916
30.2459
26.4675
22.9972
19.7789
16.7711
13.9532
11.3283
8.92049
6.76928
4.92107
3.41928
2.29469
1.55722
1.19044
1.14932
1.36135
1.73069
2.14453
2.48085
2.61666
2.43657
1.84108
0.754868
-0.865164
-3.02245
-5.67467
-8.73018
-12.0483
-15.4449
-18.7033
-21.5913
-23.8834
-25.3848
-25.9565
-25.5367
-24.1562
-21.9442
-19.1245
-15.9992
-12.9238
-10.2741
-8.41115
-7.64511
-8.20575
-10.2201
-13.7007
-18.5449
-24.5443
-31.403
-38.7621
-46.2267
-53.395
-59.8834
-65.3497
-69.5092
-72.1455
-73.1143
-72.341
-69.8123
-65.5652
-59.6735
-52.236
-43.3688
-33.2053
-21.9052
-9.67559
3.1966
16.3019
29.0605
40.677
50.1077
56.0548
56.9983
51.2778
37.2265
13.3544
-21.4328
-67.6028
-124.783
-191.6
-265.592
-343.244
-420.121
-491.138
-550.916
-594.22
-616.414
-613.912
-584.562
-527.919
-445.395
-340.243
-217.387
-83.0938
55.4663
190.761
315.467
423.034
508.185
567.301
598.666
602.535
581.027
537.864
477.967
406.972
330.708
254.691
183.685
121.372
70.1498
31.0762
3.94047
-12.5469
-20.486
-22.4738
-21.2851
-19.5796
-19.664
-23.3244
-31.7377
-45.4584
-64.4735
-88.3091
-116.171
-147.1
-180.122
-214.379
-249.221
-284.259
-319.372
-354.678
-390.463
-427.098
-464.948
-504.276
-545.178
-587.525
-630.937
-674.769
-718.111
-759.798
-798.417
-832.319
-859.643
-878.358
-886.341
-881.494
-861.912
-826.092
-773.165
-703.128
-617.04
-517.141
-406.867
-290.733
-174.082
-62.7
37.6518
121.748
185.393
225.833
242.03
234.775
206.609
161.584
104.892
42.4174
-19.7248
-75.606
-119.824
-147.747
-155.658
-140.845
-101.636
-37.4364
51.2311
162.687
294.057
441.282
599.188
761.654
921.886
1072.8
1207.46
1319.61
1404.15
1457.53
1478.1
1466.2
1424.19
1356.19
1267.72
1165.19
1055.37
944.811
839.314
743.542
660.728
592.565
539.24
499.618
471.526
452.116
438.248
426.854
415.252
401.372
383.888
362.252
336.627
307.755
276.769
244.981
213.676
183.932
156.49
131.683
109.428
89.2816
70.5395
52.3735
33.979
14.7151
-5.78154
-27.5257
-50.1623
-72.9996
-95.0886
-115.341
-132.663
-146.095
-154.933
-158.807
-157.733
-152.102
-142.63
-130.272
-116.111
-101.237
-86.6379
-73.1089
-61.193
-51.1576
-43.0072
-36.5266
-31.3468
-27.0232
-23.1135
-19.2464
-15.1722
-10.7898
-6.14944
-1.43208
3.08898
7.09871
10.2958
12.4464
13.4313
13.2812
12.1983
10.5608
8.90962
7.9149
8.32357
10.8877
16.2764
24.976
37.1854
52.7154
70.9066
90.5785
110.026
127.077
139.217
143.783
138.213
120.34
88.6892
42.7449
-16.8393
-88.1333
-167.94
-251.938
-334.941
-411.272
-475.208
-521.452
-545.613
-544.621
-517.058
-463.366
-385.9
-288.822
-177.827
-59.7295
58.0732
168.2
263.9
339.618
391.456
417.471
417.8
394.571
351.634
294.134
227.973
159.225
93.5678
35.7891
-10.5834
-43.4957
-62.4138
-68.2077
-62.8998
-49.3165
-30.6889
-10.254
9.10128
25.1147
36.3201
42.1055
42.6633
38.8495
31.9791
23.589
15.2005
8.11156
3.24091
1.0381
1.4643
4.03898
7.93991
12.1388
15.5516
17.1838
16.2522
12.2697
5.08755
-5.10799
-17.8388
-32.4085
-47.9952
-63.7487
-78.8822
-92.7457
-104.877
-115.024
-123.143
-129.369
-133.975
-137.312
-139.751
-141.627
-143.188
-144.566
-145.755
-146.615
-146.897
-146.269
-144.37
-140.854
-135.443
-127.968
-118.396
-106.852
-93.6073
-79.0695
-63.7445
-48.1934
-32.9829
-18.635
-5.5817
5.86888
15.5539
23.4604
29.7153
34.5605
38.3179
41.3483
44.0084
46.6104
49.3885
52.4761
55.8937
59.5503
63.2568
66.7503
69.726
71.8737
72.915
72.6365
70.9158
67.7384
63.2012
57.5059
50.939
43.8448
36.5908
29.5313
22.9735
17.1481
12.1893
8.12479
4.87754
2.27755
0.0824004
-1.99654
-4.2651
-7.01752
-10.5101
-14.9395
-20.4262
-27.0052
-34.6223
-43.1384
-52.3389
-61.9501
-71.6589
-81.1365
-90.0621
-98.1465
-105.151
-110.901
-115.294
-118.297
-119.938
-120.289
-119.45
-117.519
-114.578
-110.674
-105.813
-99.9532
-93.0185
-84.9123
-75.5395
-64.8318
-52.7718
-39.4145
-24.9008
-9.46166
6.58877
22.8706
38.9644
54.443
68.9043
82.0001
93.4574
103.09
110.797
116.557
120.404
122.413
122.678
121.292
118.342
113.905
108.053
100.87
92.4713
83.0272
72.7863
62.0914
51.3847
41.1956
32.1053
24.6877
19.4239
16.5987
16.1882
17.7558
20.3771
22.6148
22.5629
17.97
6.44276
-14.2844
-46.0401
-89.9026
-145.927
-212.949
-288.513
-368.925
-449.465
-524.729
-589.081
-637.175
-664.486
-667.801
-645.604
-598.308
-528.305
-439.814
-338.547
-231.212
-124.917
-26.5234
57.9646
123.926
168.498
190.763
191.741
174.18
142.186
100.731
55.1089
10.3863
-29.0794
-60.0091
-80.4277
-89.7279
-88.5793
-78.7038
-62.5539
-42.9403
-22.6544
-4.13383
10.7949
21.0705
26.4389
27.388
24.9942
20.7069
16.1073
12.6721
11.5748
13.5459
18.8046
27.0653
37.6094
49.4092
61.2797
72.0389
80.652
86.3435
88.6657
87.5186
83.125
75.9695
66.7135
56.1015
44.8714
33.6815
23.0609
13.3857
4.88287
-2.34695
-8.2912
-12.983
-16.4614
-18.741
-19.7956
-19.5549
-17.9145
-14.7546
-9.96222
-3.45527
4.79703
14.7568
26.3038
39.2234
53.1959
67.7848
82.4263
96.4236
108.95
119.065
125.757
127.997
124.825
115.434
99.2624
76.0707
45.9859
9.51453
-32.4816
-78.8407
-128.173
-178.931
-229.475
-278.099
-323.049
-362.51
-394.601
-417.385
-428.914
-428.914
-428.914
-428.914
-428.914
-428.914
-428.914
-428.914
-428.914
-428.914
-428.914
-428.914
-428.914
-428.914
-428.914
-428.914
-428.914
-428.914
-428.914
-428.914
