2.526
3.71895
5.15442
6.85069
8.8253
11.0924
13.6585
16.5166
19.6395
22.973
26.4295
29.8845
33.1755
36.106
38.4536
39.9839
40.4692
39.7097
37.5567
33.9339
28.8537
22.4265
14.8603
6.44929
-2.44711
-11.4341
-20.1163
-28.1339
-35.1961
-41.1069
-45.7816
-49.2498
-51.6453
-53.1822
-54.1176
-54.7029
-55.1218
-55.4201
-55.4293
-54.6956
-52.4309
-47.5088
-38.5314
-23.9845
-2.48525
26.8958
64.2856
108.696
157.825
208.033
254.547
291.88
314.437
317.235
296.606
250.81
180.425
88.465
-19.8042
-137.337
-256.002
-367.405
-463.743
-538.573
-587.415
-608.114
-600.947
-568.461
-515.088
-446.598
-369.449
-290.13
-214.552
-147.554
-92.5754
-51.4855
-24.6044
-10.8696
-8.1272
-13.5004
-23.788
-35.8489
-46.9306
-54.9148
-58.4614
-57.0471
-50.9059
-40.8903
-28.2772
-14.548
-1.1705
10.592
19.8251
26.0496
29.2469
29.8244
28.5331
26.35
24.3414
23.5259
24.7518
28.602
35.3365
44.8763
56.8271
70.539
85.1916
99.8934
113.783
126.123
136.366
144.206
149.587
152.692
153.899
153.718
152.717
151.45
150.38
149.832
149.951
150.692
151.83
152.987
153.677
153.359
151.497
147.619
141.37
132.557
121.181
107.45
91.773
74.7341
57.0442
39.4814
22.82
7.75919
-5.14133
-15.5109
-23.1971
-28.2705
-31.0056
-31.8401
-31.3183
-30.0258
-28.5242
-27.2925
-26.6835
-26.8985
-27.9822
-29.8382
-32.2591
-34.9688
-37.6689
-40.0822
-41.99
-43.2552
-43.8328
-43.7647
-43.1625
-42.1819
-40.9918
-39.746
-38.5586
-37.489
-36.5372
-35.6492
-34.7318
-33.6722
-32.3615
-30.7148
-28.688
-26.2863
-23.5648
-20.6217
-17.5836
-14.5882
-11.7649
-9.21768
-7.01197
-5.16797
-3.66036
-2.42473
-1.36931
-0.389968
0.613684
1.72366
2.99238
4.43649
6.03626
7.74055
9.47636
11.1613
12.717
14.0824
15.2228
16.1368
16.8573
17.449
18.0022
18.6238
19.4275
20.5232
22.0067
23.951
26.3982
29.3542
32.7851
36.6166
40.7355
44.994
49.2163
53.2066
56.7589
59.668
61.7407
62.808
62.7358
61.4361
58.8754
55.0808
50.1427
44.2133
37.4995
30.2516
22.747
15.271
8.09556
1.45854
-4.45393
-9.52119
-13.6959
-17.0059
-19.5508
-21.4934
-23.0473
-24.4606
-25.9947
-27.896
-30.3574
-33.468
-37.1508
-41.0928
-44.6796
-46.954
-46.6216
-42.1295
-31.834
-14.2582
11.5823
45.8341
87.5046
134.278
182.513
227.452
263.651
285.581
288.332
268.301
223.788
155.368
66.0064
-39.1284
-153.125
-268.01
-375.557
-468.12
-539.394
-585
-602.85
-593.245
-558.72
-503.674
-433.821
-355.567
-275.355
-199.077
-131.582
-76.3512
-35.3335
-8.95011
3.7482
4.80886
-2.96958
-16.4153
-32.3491
-47.9018
-60.7575
-69.3061
-72.7016
-70.8316
-64.2141
-53.8402
-40.9882
-27.0318
-13.2643
-0.75464
9.75134
17.8809
23.6354
27.3482
29.6095
31.1692
32.8324
35.3596
39.3821
45.3412
53.456
63.7193
75.9199
89.6849
104.534
119.941
135.384
150.397
164.6
177.714
189.565
200.073
209.23
217.077
223.678
229.101
233.392
236.57
238.616
239.47
239.037
237.186
233.756
228.571
221.45
212.225
200.766
187.014
171.005
152.901
133.013
111.804
89.8808
67.9606
46.8256
27.2582
9.97159
-4.45842
-15.6512
-23.4601
-27.9871
-29.5709
-28.7496
-26.202
-22.6762
-18.9121
-15.5687
-13.1645
-12.036
-12.3199
-13.9584
-16.7261
-20.2741
-24.1835
-28.0232
-31.4031
-34.017
-35.6717
-36.2979
-35.9449
-34.76
-32.9567
-30.7775
-28.456
-26.1844
-24.0899
-22.223
-20.5581
-19.0065
-17.4378
-15.7075
-13.6861
-11.2842
-8.47284
-5.29296
-1.85566
1.66839
5.06786
8.11574
10.5967
12.3334
13.2091
13.1822
12.2942
10.6673
8.49452
6.02239
3.52868
1.29742
-0.406317
-1.35925
-1.39843
-0.433719
1.54688
4.47919
8.23199
12.6223
17.4355
22.4477
27.4498
32.2679
36.7808
40.929
44.7155
48.1962
51.4604
54.6031
57.6926
60.7382
63.6641
66.2953
68.3607
69.5141
69.3741
67.5765
63.8337
57.9892
50.0618
40.2673
29.0157
16.8825
4.55483
-7.23793
-17.8021
-26.5549
-33.0871
-37.2056
-38.9503
-38.5843
-36.5586
-33.456
-29.9175
-26.5591
-23.8808
-22.1753
-21.4425
-21.3206
-21.049
-19.4826
-15.176
-6.55018
7.85936
29.096
57.4588
92.222
131.463
172.054
209.848
240.062
257.813
258.745
239.647
198.976
137.198
56.8866
-37.4344
-139.696
-242.884
-339.752
-423.565
-488.772
-531.537
-550.058
-544.658
-517.633
-472.904
-415.514
-351.042
-285.006
-222.334
-166.938
-121.456
-87.1505
-63.9819
-50.808
-45.6875
-46.2289
-49.9422
-54.5474
-58.2092
-59.6789
-58.3399
-54.1645
-47.6025
-39.4258
-30.5563
-21.9021
-14.2218
-8.02982
-3.5483
-0.704657
0.833058
1.59283
2.21977
3.3931
5.7489
9.81558
15.9666
24.3922
35.0899
47.8734
62.396
78.1876
94.7002
111.359
127.614
142.99
157.123
169.788
180.914
190.575
198.971
206.389
213.163
219.617
226.021
232.542
239.215
245.925
252.4
258.228
262.886
265.779
266.296
263.865
258.008
248.399
234.905
217.617
196.866
173.214
147.433
120.457
93.3222
67.0916
42.7756
21.2541
3.20685
-10.9375
-21.0315
-27.2127
-29.8818
-29.6571
-27.3106
-23.6925
-19.6521
-15.9609
-13.2488
-11.9546
-12.2996
-14.2818
-17.6945
-22.1639
-27.2018
-32.2688
-36.8388
-40.4586
-42.7967
-43.6745
-43.0791
-41.1549
-38.1775
-34.5126
-30.5667
-26.7345
-23.3517
-20.6579
-18.7742
-17.6978
-17.3131
-17.4159
-17.7474
-18.0304
-18.0046
-17.4557
-16.2349
-14.27
-11.5659
-8.19811
-4.30116
-0.0533159
4.33935
8.65864
12.6886
16.2288
19.1054
21.1828
22.3724
22.6424
22.0242
20.617
18.5874
16.1637
13.6233
11.2741
9.42916
8.37881
8.36145
9.53729
11.9681
15.6058
20.292
25.7681
31.6959
37.6861
43.3306
48.2353
52.0498
54.49
55.3526
54.5207
51.9627
47.7249
41.9227
34.731
26.3762
17.1303
7.30615
-2.74829
-12.6581
-22.0346
-30.4949
-37.6869
-43.319
-47.1903
-49.2164
-49.4453
-48.0566
-45.3404
-41.6517
-37.3431
-32.6811
-27.7584
-22.4198
-16.219
-8.42979
1.87857
15.6934
33.8498
56.7851
84.297
115.352
147.997
179.403
206.068
224.157
229.953
220.347
193.299
148.2
86.0706
9.56978
-77.2005
-169.063
-260.26
-345.011
-418.06
-475.147
-513.366
-531.349
-529.298
-508.854
-472.84
-424.909
-369.16
-309.74
-250.501
-194.715
-144.891
-102.675
-68.861
-43.4597
-25.8446
-14.924
-9.33012
-7.59804
-8.32073
-10.2672
-12.4584
-14.2015
-15.085
-14.9438
-13.8032
-11.8115
-9.17207
-6.08281
-2.68975
0.940923
4.83109
9.08065
13.8427
19.2894
25.5746
32.8004
40.9914
50.0823
59.9191
70.2732
80.8674
91.4072
101.614
111.257
120.172
128.28
135.585
142.172
148.186
153.816
159.266
164.735
170.386
176.326
182.581
189.078
195.633
201.946
207.608
212.12
214.925
215.45
213.162
207.625
198.554
185.865
169.709
150.483
128.821
105.558
81.6756
58.2162
36.202
16.5431
-0.0426522
-13.0909
-22.4265
-28.1693
-30.7091
-30.6539
-28.7577
-25.8368
-22.6847
-19.9953
-18.3019
-17.9388
-19.0269
-21.4837
-25.0537
-29.3551
-33.9344
-38.3238
-42.0934
-44.8942
-46.4874
-46.759
-45.7193
-43.4896
-40.2792
-36.3559
-32.0139
-27.5433
-23.2032
-19.2022
-15.685
-12.7284
-10.344
-8.48702
-7.06997
-5.97861
-5.08837
-4.27946
-3.44912
-2.52006
-1.44452
-0.204094
1.19411
2.72416
4.34949
6.03148
7.73722
9.4456
11.1512
12.8656
14.6166
16.445
18.4004
20.5352
22.8981
25.5273
28.4436
31.6437
35.0948
38.7297
42.4448
46.1007
49.5249
52.5187
54.8679
56.3561
56.7818
55.9769
53.8254
50.2802
45.3758
39.2338
32.061
24.1371
15.7957
7.39646
-0.705197
-8.18959
-14.8008
-20.3682
-24.8186
-28.1794
-30.5703
-32.1879
-33.2822
-34.1293
-34.9982
-36.1151
-37.6207
-39.5218
-41.6375
-43.5457
-44.5409
-43.6218
-39.5288
-30.8519
-16.217
5.45443
34.6436
70.9375
112.802
157.484
201.1
238.915
265.816
276.903
268.141
236.956
182.702
106.902
13.2434
-92.6992
-203.967
-312.89
-411.849
-494.024
-554.051
-588.502
-596.158
-578.03
-537.158
-478.21
-406.943
-329.59
-252.24
-180.288
-117.998
-68.226
-32.3044
-10.1045
-0.237503
-0.365535
-7.57578
-18.7692
-31.0192
-41.8632
-49.502
-52.8948
-51.7515
-46.4367
-37.808
-27.0171
-15.3033
-3.80662
6.57847
15.2958
22.1613
27.3413
31.286
34.6316
38.0885
42.3311
47.9039
55.1543
64.1977
74.9156
86.9847
99.9305
113.195
126.212
138.476
149.602
159.365
167.72
174.794
180.861
186.301
191.535
196.969
202.931
209.618
217.054
225.078
233.334
241.299
248.318
253.662
256.592
256.426
252.611
244.779
232.792
216.769
197.086
174.366
149.434
123.264
96.9089
71.4231
47.7844
26.8237
9.16713
-4.80296
-14.9648
-21.4506
-24.6184
-25.005
-23.2665
-20.1122
-16.2398
-12.2769
-8.73638
-5.9861
-4.23765
-3.55128
-3.8558
-4.97942
-6.68716
-8.71989
-10.8306
-12.8139
-14.5266
-15.8967
-16.9223
-17.6592
-18.2017
-18.6587
-19.1281
-19.6742
-20.3113
-20.9951
-21.6245
-22.0525
-22.1055
-21.608
-20.4096
-18.41
-15.5795
-11.9711
-7.72255
-3.04829
1.7783
6.45035
10.6576
14.1172
16.6023
17.9642
18.1456
17.1847
15.2086
12.4177
9.06354
5.42269
1.77047
-1.64321
-4.61238
-6.98675
-8.67552
-9.6437
-9.902
-9.49216
-8.47015
-6.88976
-4.78921
-2.18287
0.940545
4.6127
8.87404
13.7573
19.2689
25.3705
31.9639
38.8829
45.8912
52.6906
58.9373
64.2652
68.3155
70.7679
71.3719
69.9736
66.5358
61.1477
54.0244
45.4938
35.9733
25.9374
15.8791
6.26979
-2.47913
-10.0487
-16.2355
-20.964
-24.2858
-26.3677
-27.4693
-27.9116
-28.0394
-28.1784
-28.5862
-29.3986
-30.5707
-31.8164
-32.5554
-31.8829
-28.5807
-21.1939
-8.18599
11.8227
39.7519
75.7349
118.827
166.818
216.21
262.399
300.066
323.742
328.476
310.513
267.88
200.782
111.755
5.53577
-111.328
-231.095
-345.581
-446.963
-528.531
-585.318
-614.517
-615.673
-590.615
-543.169
-478.674
-403.385
-323.816
-246.116
-175.522
-115.961
-69.823
-37.9098
-19.5603
-12.913
-15.2655
-23.4811
-34.3913
-45.1493
-53.5005
-57.9485
-57.8097
-53.1649
-44.725
-33.6376
-21.2656
-8.96751
2.09464
11.0977
17.64
21.7586
23.8872
24.7646
25.3099
26.483
29.1492
33.9644
41.2947
51.1785
63.3329
77.2018
92.0369
106.999
121.269
134.144
145.126
153.964
160.68
165.544
169.028
171.728
174.283
177.283
181.185
186.255
192.526
199.785
207.586
215.292
222.137
227.296
229.967
229.448
225.209
216.938
204.585
188.367
168.763
146.476
122.388
97.4868
72.7901
49.266
27.7563
8.91371
-6.84199
-19.3443
-28.6753
-35.1362
-39.1982
-41.4396
-42.4765
-42.8958
-43.1978
-43.7545
-44.7861
-46.3592
-48.4027
-50.7386
-53.1235
-55.2931
-57.0044
-58.0712
-58.3868
-57.9346
-56.7847
-55.0779
-53.0023
-50.7643
-48.5587
-46.5441
-44.8235
-43.4348
-42.3511
-41.4897
-40.7284
-39.9263
-38.9455
-37.6709
-36.0256
-33.9791
-31.5493
-28.7961
-25.8101
-22.6981
-19.5665
-16.5066
-13.5836
-10.8302
-8.24559
-5.79957
-3.44086
-1.1075
1.26176
3.71705
6.28904
8.98353
11.7794
14.6295
17.4645
20.1987
22.7362
24.9787
26.8327
28.2162
29.0656
29.3418
29.0357
28.1716
26.8101
25.0471
23.0107
20.8548
18.7493
16.8691
15.3812
14.4317
14.1353
14.5668
15.756
17.6882
20.3066
23.5188
27.2038
31.2179
35.398
39.5623
43.5076
47.007
49.8091
51.644
52.2354
51.3228
48.6894
44.1938
37.8
29.6003
19.8258
8.84098
-2.87855
-14.7839
-26.3026
-36.8939
-46.1037
-53.6098
-59.2551
-63.0596
-65.2122
-66.0377
-65.9429
-65.3412
-64.5629
-63.7574
-62.8003
-61.2216
-58.1757
-52.475
-42.7039
-27.4216
-5.44132
23.8449
60.1485
102.039
146.835
190.687
228.858
256.202
267.774
259.489
228.728
174.807
99.2142
5.59086
-100.553
-212.353
-322.264
-422.804
-507.282
-570.413
-608.769
-621.008
-607.891
-572.072
-517.732
-450.084
-374.83
-297.616
-223.552
-156.835
-100.499
-56.3006
-24.748
-5.23304
3.7437
4.29727
-1.13552
-10.0764
-20.2465
-29.7489
-37.1838
-41.694
-42.9476
-41.0671
-36.5235
-30.0086
-22.3041
-14.1616
-6.20453
1.13904
7.67013
13.418
18.6091
23.6122
28.8694
34.8214
41.8401
50.1739
59.9152
70.9915
83.1806
96.1472
109.492
122.81
135.741
148.013
159.47
170.077
179.903
189.096
197.838
206.3
214.601
222.772
230.736
238.302
245.175
250.977
255.279
257.637
257.63
254.9
249.183
240.335
228.351
213.372
195.687
175.722
154.023
131.235
108.066
85.2503
63.5097
43.5072
25.8056
10.8289
-1.16613
-10.1068
-16.1057
-19.4463
-20.5535
-19.9515
-18.2139
-15.9117
-13.5636
-11.5956
-10.3118
-9.88091
-10.3372
-11.5958
-13.4787
-15.7483
-18.1427
-20.4104
-22.3386
-23.7736
-24.6318
-24.9007
-24.6314
-23.9243
-22.9106
-21.7324
-20.5242
-19.3975
-18.4303
-17.6619
-17.0929
-16.6905
-16.3966
-16.138
-15.8378
-15.4252
-14.844
-14.0581
-13.0548
-11.8442
-10.4572
-8.94071
-7.35193
-5.75169
-4.19807
-2.74051
-1.4152
-0.242067
0.776446
1.65452
2.42037
3.11206
3.7724
4.4435
5.16189
5.95482
6.83849
7.81838
8.89185
10.0526
11.2964
12.6272
14.0628
15.6383
17.4078
19.442
21.8235
24.6375
27.9614
31.8528
36.3366
41.3941
46.954
52.8869
59.0041
65.0619
70.7706
75.8101
79.8493
82.5703
83.6946
83.0087
80.3877
75.8126
69.3803
61.3029
51.8968
41.5615
30.7491
19.929
9.54963
0.00333262
-8.40404
-15.4739
-21.1247
-25.3901
-28.4046
-30.3773
-31.5534
-32.1636
-32.3605
-32.1459
-31.2969
-29.3036
-25.3417
-18.3025
-6.90207
10.1213
33.7311
64.2732
101.168
142.686
185.866
226.635
260.138
281.249
285.211
268.297
228.403
165.468
81.6571
-18.738
-129.655
-243.841
-353.572
-451.425
-530.996
-587.497
-618.155
-622.379
-601.699
-559.489
-500.52
-430.412
-355.047
-280.002
-210.079
-148.957
-98.9975
-61.2098
-35.3591
-20.188
-13.715
-13.5663
-17.2969
-22.6686
-27.8566
-31.5724
-33.0992
-32.2501
-29.2642
-24.6645
-19.1009
-13.2026
-7.45793
-2.13669
2.74026
7.38463
12.1855
17.6279
24.1994
32.302
42.1803
53.8769
67.2205
81.8447
97.2339
112.789
127.9
142.02
154.725
165.757
175.047
182.71
189.022
194.378
199.244
204.093
209.354
215.356
222.292
230.189
238.897
248.09
257.285
265.871
273.152
278.394
280.882
279.978
275.174
266.144
252.777
235.206
213.816
189.23
162.284
133.976
105.407
77.7018
51.9303
29.0277
9.72222
-5.52019
-16.5292
-23.4368
-26.6558
-26.8324
-24.7768
-21.3804
-17.527
-14.0095
-11.4594
-10.2971
-10.7082
-12.6458
-15.8585
-19.9385
-24.3844
-28.6693
-32.3062
-34.9044
-36.2093
-36.1235
-34.7072
-32.1596
-28.7856
-24.9522
-21.0409
-17.4031
-14.3214
-11.9841
-10.4719
-9.75884
-9.72648
-10.1869
-10.9122
-11.6661
-12.233
-12.4418
-12.1824
-11.4123
-10.1548
-8.48962
-6.53708
-4.43926
-2.34035
-0.368568
1.37816
2.84166
4.00725
4.90204
5.58836
6.15363
6.69819
7.32282
8.11739
9.15225
10.4729
12.0989
14.0259
16.2312
18.6805
21.3358
24.1612
27.1275
30.2141
33.4068
36.6953
40.0673
43.5028
46.968
50.4105
53.7548
56.8994
59.7162
62.0518
63.7322
64.5714
64.3845
63.0041
60.2998
56.1982
50.7005
43.8952
35.9626
27.1699
17.8563
8.40864
-0.770085
-9.29526
-16.835
-23.1399
-28.064
-31.5759
-33.7572
-34.7894
-34.9301
-34.4798
-33.7407
-32.9683
-32.3164
-31.7796
-31.1356
-29.9003
-27.3079
-22.3347
-13.7852
-0.448641
18.6751
44.1043
75.6013
111.952
150.86
189.002
222.268
246.175
256.407
249.395
222.862
176.234
110.839
29.8867
-61.8123
-158.314
-253.151
-340.002
-413.317
-468.843
-503.977
-517.914
-511.598
-487.481
-449.145
-400.844
-347.02
-291.863
-238.954
-191.018
-149.817
-116.159
-90.0121
-70.6922
-57.091
-47.9044
-41.8355
-37.7484
-34.7643
-32.2949
-30.0234
-27.8463
-25.792
-23.9356
-22.3234
-20.9193
-19.5785
-18.0493
-16.0001
-13.0626
-8.88455
-3.18051
4.22576
13.3748
24.1637
36.3579
49.6201
63.5519
77.7409
91.8073
105.442
118.435
130.681
142.177
153.004
163.293
173.193
182.839
192.321
201.668
210.842
219.738
228.201
236.044
243.068
249.081
253.912
257.418
259.482
260.009
258.912
256.107
251.5
244.985
236.452
225.799
212.951
197.889
180.682
161.509
140.686
118.672
96.0588
73.5448
51.8901
31.8568
14.1413
-0.691464
-12.2659
-20.4357
-25.3005
-27.1966
-26.6621
-24.38
-21.1071
-17.5967
-14.5246
-12.4264
-11.6542
-12.3542
-14.469
-17.7606
-21.8515
-26.2774
-30.5451
-34.1892
-36.8212
-38.1662
-38.0848
-36.5789
-33.7815
-29.9343
-25.3546
-20.399
-15.4242
-10.7535
-6.64867
-3.29227
-0.779393
0.880341
1.75234
1.96026
1.66549
1.04564
0.274434
-0.495004
-1.14216
-1.58575
-1.78508
-1.73652
-1.46637
-1.02109
-0.456625
0.172146
0.820377
1.45987
2.08272
2.70188
3.34884
4.06906
4.91596
5.94443
7.20482
8.73824
10.5734
12.7253
15.1947
17.9688
21.0207
24.3085
27.7729
31.3339
34.8878
38.3047
41.4291
44.0838
46.0778
47.2187
47.3287
46.262
43.9231
40.2811
35.381
29.347
22.3786
14.739
6.73567
-1.30368
-9.05771
-16.2379
-22.6114
-28.0176
-32.3767
-35.69
-38.031
-39.5298
-40.3522
-40.6766
-40.6686
-40.4565
-40.1046
-39.5839
-38.7387
-37.2498
-34.6026
-30.0717
-22.7409
-11.5757
4.43733
26.0869
53.6886
86.8319
124.179
163.371
201.089
233.294
255.627
263.927
254.796
226.112
177.418
110.113
27.4185
-65.8913
-163.942
-260.348
-348.842
-423.882
-481.151
-517.894
-533.081
-527.376
-502.936
-463.088
-411.923
-353.86
-293.233
-233.939
-179.177
-131.288
-91.6988
-60.9611
-38.8603
-24.5784
-16.8803
-14.3012
-15.318
-18.4893
-22.557
-26.5083
-29.6005
-31.3553
-31.5306
-30.0781
-27.0947
-22.7744
-17.3637
-11.1246
-4.30514
2.88092
10.2678
17.7446
25.2566
32.8022
40.426
48.2082
56.2506
64.6602
73.5323
82.9329
92.8835
103.351
114.242
125.405
136.642
147.723
158.406
168.461
177.695
185.966
193.193
199.361
204.512
208.723
212.085
214.674
216.518
217.579
217.734
216.773
214.415
210.33
204.183
195.677
184.606
170.9
154.66
136.183
115.958
94.6419
73.02
51.9371
32.2232
14.6142
-0.32143
-12.2382
-21.046
-26.9124
-30.2359
-31.5923
-31.6627
-31.1512
-30.7048
-30.8432
-31.909
-34.042
-37.1792
-41.0798
-45.37
-49.6003
-53.3079
-56.0759
-57.5829
-57.6361
-56.1875
-53.3307
-49.2815
-44.3451
-38.8765
-33.238
-27.7605
-22.7125
-18.2799
-14.5588
-11.5591
-9.21983
-7.43031
-6.05544
-4.96022
-4.03018
-3.18534
-2.38614
-1.6314
-0.949655
-0.386011
0.0128857
0.212934
0.203541
0.00386628
-0.33636
-0.741239
-1.11739
-1.36536
-1.392
-1.12179
-0.505677
0.474068
1.80325
3.43962
5.32041
7.37241
9.52324
11.7121
13.8986
16.0686
18.2358
20.4389
22.7351
25.1896
27.8632
30.8
34.0157
37.4899
41.162
44.9315
48.6631
52.1938
55.3415
57.9148
59.721
60.5755
60.3111
58.7888
55.9108
51.6337
45.9817
39.0572
31.0447
22.2084
12.8801
3.43806
-5.72089
-14.2148
-21.7103
-27.9532
-32.7925
-36.1933
-38.2381
-39.1124
-39.0772
-38.4246
-37.4206
-36.2364
-34.8743
-33.0975
-30.3792
-25.8873
-18.5239
-7.03588
9.80013
32.9249
62.7066
98.6596
139.229
181.704
222.296
256.415
279.122
285.699
272.282
236.447
177.661
97.5304
-0.204189
-109.931
-224.663
-336.708
-438.424
-522.973
-584.975
-621.001
-629.834
-612.492
-572.016
-513.062
-441.349
-363.044
-284.148
-209.963
-144.669
-91.0755
-50.5302
-22.9975
-7.26659
-1.25734
-2.3752
-7.87094
-15.1634
-22.0942
-27.0945
-29.257
-28.3184
-24.5661
-18.6923
-11.619
-4.31949
2.34125
7.72985
11.5213
13.7242
14.6581
14.89
15.1426
16.1893
18.749
23.3951
30.4883
40.1391
52.2022
66.3015
81.8781
98.2561
114.715
130.561
145.189
158.13
169.078
177.9
184.625
189.417
192.543
194.322
195.091
195.158
194.772
194.098
193.202
192.049
190.509
188.365
185.342
181.128
175.409
167.906
158.408
146.812
133.151
117.616
100.559
82.4858
64.0261
45.8853
28.7859
13.3997
0.28129
-10.1889
-17.8443
-22.7489
-25.187
-25.6294
-24.6769
-22.9916
-21.2224
-19.9359
-19.56
-20.3469
-22.3596
-25.4812
-29.4449
-33.8791
-38.361
-42.4707
-45.8402
-48.1908
-49.3555
-49.2859
-48.0443
-45.7837
-42.72
-39.1006
-35.1747
-31.1677
-27.263
-23.5926
-20.2351
-17.2209
-14.5428
-12.1682
-10.0526
-8.15116
-6.42701
-4.85658
-3.43094
-2.15412
-1.0392
-0.102946
0.639789
1.18133
1.52532
1.68943
1.70651
1.62405
1.50218
1.41034
1.42283
1.61369
2.0512
2.79253
3.87916
5.33347
7.15691
9.33015
11.815
14.558
17.4952
20.5578
23.6772
26.7898
29.8406
32.7857
35.5925
38.2398
40.7162
43.0178
45.146
47.1036
48.8912
50.5019
51.9145
53.0867
53.9478
54.3944
54.2903
53.4717
51.7611
48.9874
45.0109
39.7503
33.2074
25.4838
16.7876
7.42602
-2.21575
-11.7076
-20.6166
-28.5519
-35.2078
-40.3985
-44.0801
-46.3558
-47.4615
-47.7311
-47.5405
-47.2333
-47.0303
-46.9337
-46.6381
-45.4696
-42.3764
-35.9951
-24.8078
-7.39191
17.26
49.3955
88.1969
131.587
176.207
217.607
250.651
270.085
271.216
250.575
206.482
139.409
52.0917
-50.6478
-162.329
-275.449
-382.228
-475.386
-548.833
-598.216
-621.249
-617.821
-589.866
-541.051
-476.318
-401.339
-321.967
-243.715
-171.331
-108.493
-57.6316
-19.8953
4.77098
17.446
19.9878
14.7547
4.32278
-8.77379
-22.2577
-34.2667
-43.4485
-48.9932
-50.6092
-48.4542
-43.0344
-35.0853
-25.4499
-14.9648
-4.36575
5.7809
15.1181
23.5079
31.0143
37.8642
44.3935
50.9861
58.013
65.78
74.4889
84.2156
94.9079
106.4
118.441
130.733
142.972
154.885
166.26
176.964
186.945
196.222
204.866
212.972
220.62
227.847
234.622
240.82
246.221
250.509
253.294
254.135
252.577
248.2
240.657
229.724
215.337
197.625
176.926
153.787
128.947
103.297
77.8225
53.5323
31.3787
12.1768
-3.46678
-15.2086
-22.9979
-27.078
-27.9573
-26.3536
-23.117
-19.1413
-15.2736
-12.2324
-10.5438
-10.5024
-12.1596
-15.3398
-19.6803
-24.6897
-29.815
-34.5106
-38.3007
-40.8278
-41.8836
-41.4204
-39.5432
-36.4852
-32.5714
-28.1757
-23.6766
-19.4173
-15.6732
-12.6315
-10.3817
-8.9187
-8.15516
-7.94231
-8.09449
-8.41498
-8.71985
-8.85737
-8.72119
-8.25676
-7.46067
-6.37412
-5.07169
-3.64734
-2.19962
-0.817788
0.429545
1.5021
2.39132
3.11911
3.73248
4.29443
4.87254
5.52648
6.29626
7.19284
8.19282
9.23865
10.2448
11.1102
11.735
12.0403
11.9878
11.5957
10.9492
10.2018
9.56801
9.30655
9.69542
11.0021
13.452
17.1978
22.2953
28.6857
36.1892
44.5085
53.2427
61.9111
69.9842
76.9204
82.2053
85.3915
86.1349
84.226
79.6122
72.4091
62.8989
51.5153
38.8156
25.4412
12.0708
-0.630828
-12.0623
-21.7303
-29.2846
-34.5408
-37.4893
-38.2902
-37.2537
-34.8087
-31.4592
-27.7296
-24.1014
-20.9403
-18.4196
-16.4449
-14.5925
-12.0793
-7.78277
-0.332389
11.7176
29.637
54.2149
85.4476
122.28
162.464
202.592
238.327
264.825
277.297
271.643
245.056
196.498
126.98
39.5891
-60.7381
-167.672
-274.109
-372.88
-457.449
-522.531
-564.55
-581.903
-575.012
-546.167
-499.193
-438.997
-371.035
-300.777
-233.211
-172.446
-121.434
-81.8347
-54.0245
-37.2323
-29.7751
-29.3602
-33.4141
-39.3999
-45.0898
-48.7679
-49.3482
-46.405
-40.1213
-31.1713
-20.5588
-9.43395
1.08571
10.0697
16.8887
21.2779
23.348
23.5453
22.5736
21.2862
20.5681
21.2204
23.8626
28.8633
36.3071
45.9997
57.5079
70.2305
83.4865
96.6115
109.046
120.407
130.529
139.477
147.519
155.072
162.626
170.653
179.519
189.408
200.262
211.762
223.328
234.169
243.345
249.862
252.771
251.269
244.796
233.096
216.273
194.794
169.477
141.43
111.972
82.5278
54.5085
29.1949
7.62645
-9.48568
-21.8138
-29.4309
-32.7861
-32.6429
-29.9846
-25.9011
-21.4685
-17.6368
-15.1388
-14.4291
-15.66
-18.6939
-23.1495
-28.4722
-34.0195
-39.1498
-43.302
-46.0589
-47.1869
-46.6493
-44.5949
-41.3248
-37.244
-32.8043
-28.4482
-24.5581
-21.4178
-19.1898
-17.9089
-17.4911
-17.7567
-18.461
-19.3308
-20.0997
-20.539
-20.4814
-19.8339
-18.5812
-16.7791
-14.54
-12.0132
-9.36289
-6.74679
-4.29807
-2.11242
-0.241506
1.30708
2.56397
3.58759
4.4509
5.22735
5.97797
6.74117
7.52659
8.31369
9.05528
9.68589
10.1342
10.3385
10.263
9.91273
9.34521
8.67477
8.06954
7.73927
7.91516
8.8237
10.6577
13.5483
17.5421
22.586
28.5231
35.0989
41.9792
48.7761
55.0797
60.4931
64.6643
67.3158
68.2647
67.4358
64.8645
60.691
55.1458
48.5303
41.1909
33.4931
25.7934
18.4143
11.6232
5.61617
0.508466
-3.66758
-6.95781
-9.47515
-11.3834
-12.8782
-14.166
-15.4445
-16.8838
-18.6099
-20.6896
-23.1133
-25.7758
-28.4494
-30.7527
-32.117
-31.7633
-28.7054
-21.7989
-9.85522
8.17491
32.9567
64.4982
101.899
143.182
185.264
224.113
255.083
273.415
274.834
256.15
215.782
154.101
73.5517
-21.4898
-125.094
-230.357
-330.091
-417.553
-487.103
-534.726
-558.361
-557.998
-535.56
-494.586
-439.768
-376.413
-309.889
-245.118
-186.175
-136.011
-96.3337
-67.6219
-49.2705
-39.8227
-37.2582
-39.2954
-43.6751
-48.3956
-51.8822
-53.0818
-51.4848
-47.0812
-40.2682
-31.7257
-22.279
-12.7669
-3.92748
3.68666
9.75905
14.2256
17.2592
19.2281
20.6375
22.0611
24.0727
27.1843
31.7974
38.1711
46.4085
56.4611
68.1491
81.1929
95.25
109.954
124.949
139.915
154.587
168.759
182.285
195.067
207.042
218.166
228.399
237.687
245.947
253.062
258.868
263.15
265.647
266.057
264.054
259.315
251.547
240.535
226.175
208.522
187.816
164.503
139.237
112.851
86.3095
60.6453
36.8699
15.8867
-1.59473
-15.1271
-24.5681
-30.0905
-32.1584
-31.4708
-28.8804
-25.2983
-21.5954
-18.5145
-16.6017
-16.1659
-17.2683
-19.7429
-23.2412
-27.2956
-31.3907
-35.0344
-37.8185
-39.4637
-39.8434
-38.9865
-37.0603
-34.3375
-31.1527
-27.8558
-24.7673
-22.1413
-20.1407
-18.8258
-18.1566
-18.0079
-18.1934
-18.4957
-18.6965
-18.6053
-18.0813
-17.0473
-15.4946
-13.4783
-11.1056
-8.51846
-5.87268
-3.31798
-0.979844
1.05374
2.73977
4.08129
5.12245
5.93872
6.62378
7.27528
7.98139
8.81008
9.80235
10.9703
12.2999
13.758
15.3026
16.894
18.5063
20.1362
21.8081
23.575
25.5132
27.7133
30.2662
33.2484
36.7061
40.6405
44.998
49.6635
54.4594
59.1512
63.4578
67.0671
69.6576
70.9215
70.5922
68.4706
64.4493
58.5327
50.8477
41.6456
31.2924
20.2476
9.03262
-1.80736
-11.7466
-20.3213
-27.168
-32.0541
-34.8959
-35.7651
-34.8784
-32.5737
-29.2697
-25.4107
-21.3962
-17.5
-13.7824
-10.0104
-5.60162
0.384539
9.18459
22.182
40.6695
65.5423
96.9665
134.085
174.83
215.909
252.992
281.117
295.258
290.994
265.173
216.464
145.712
56.028
-47.4161
-157.853
-267.6
-368.86
-454.531
-518.938
-558.376
-571.422
-558.971
-524.025
-471.248
-406.386
-335.598
-264.812
-199.159
-142.552
-97.4425
-64.7674
-44.0679
-33.7499
-31.4378
-34.3691
-39.7781
-45.2236
-48.8297
-49.4212
-46.5518
-40.435
-31.8002
-21.7022
-11.3121
-1.72122
6.2207
12.0148
15.5621
17.1522
17.3984
17.1338
17.284
18.7366
22.2225
28.2256
36.9285
48.1997
61.6201
76.5444
92.1859
107.714
122.353
135.467
146.628
155.649
162.597
167.763
171.613
174.72
177.679
181.03
185.184
190.366
196.588
203.638
211.098
218.388
224.815
229.647
232.177
231.788
228.014
220.574
209.404
194.663
176.727
156.168
133.719
110.228
86.6087
63.7751
42.5857
23.7815
7.93476
-4.59217
-13.6707
-19.4114
-22.1474
-22.3988
-20.8197
-18.133
-15.0617
-12.2613
-10.2635
-9.43434
-9.95244
-11.8086
-14.8247
-18.6898
-23.0072
-27.3469
-31.2968
-34.5074
-36.7245
-37.8091
-37.7407
-36.6083
-34.5896
-31.9215
-28.8686
-25.6907
-22.6157
-19.8192
-17.4122
-15.4395
-13.8847
-12.6834
-11.7398
-10.9453
-10.1953
-9.40392
-8.51249
-7.49412
-6.35233
-5.11582
-3.83037
-2.54948
-1.32521
-0.200367
0.797024
1.65668
2.38648
3.01066
3.56644
4.09978
4.66086
5.29989
6.06373
6.9934
8.12264
9.47742
11.0761
12.9299
15.0438
17.4161
20.0388
22.8954
25.9598
29.1929
32.5402
35.9298
39.2708
42.4541
45.3553
47.8403
49.7721
51.0204
51.4709
51.0344
49.6544
47.3127
44.0313
39.8718
34.9316
29.3373
23.2367
16.789
10.1556
3.49035
-3.06736
-9.39917
-15.4113
-21.0363
-26.2328
-30.9831
-35.2907
-39.1755
-42.6689
-45.8062
-48.615
-51.096
-53.1937
-54.756
-55.4845
-54.8868
-52.2421
-46.6038
-36.8571
-21.8488
-0.590815
27.4781
62.21
102.498
146.12
189.735
229.063
259.256
275.422
273.249
249.626
203.171
134.581
46.7271
-55.5093
-165.668
-276.34
-379.915
-469.357
-538.896
-584.554
-604.464
-598.928
-570.252
-522.373
-460.354
-389.806
-316.316
-244.943
-179.82
-123.916
-78.9327
-45.3558
-22.6168
-9.33915
-3.62592
-3.35167
-6.42524
-10.9987
-15.6079
-19.241
-21.3388
-21.7409
-20.5928
-18.2342
-15.0845
-11.5428
-7.91145
-4.35056
-0.863375
2.68938
6.55317
11.0294
16.42
22.9762
30.8568
40.1026
50.6288
62.2335
74.6228
87.4453
100.333
112.94
124.98
136.247
146.631
156.117
164.773
172.723
180.125
187.139
193.898
200.486
206.924
213.162
219.08
224.496
229.169
232.82
235.137
235.793
234.458
230.821
224.609
215.616
203.734
188.979
171.518
151.689
130.004
107.133
83.875
61.1067
39.7159
20.5278
4.23071
-8.69071
-18.004
-23.7534
-26.2556
-26.0669
-23.9238
-20.6654
-17.1449
-14.1427
-12.2892
-12.0076
-13.4827
-16.6565
-21.2529
-26.8237
-32.8125
-38.6262
-43.7055
-47.5868
-49.9488
-50.639
-49.6787
-47.2488
-43.657
-39.2943
-34.5857
-29.9405
-25.7097
-22.1533
-19.4207
-17.5464
-16.4579
-15.9968
-15.9461
-16.0631
-16.1111
-15.8881
-15.247
-14.1091
-12.4655
-10.3717
-7.93352
-5.28869
-2.58649
0.0317111
2.44868
4.58241
6.39132
7.87361
9.0616
10.0126
10.7978
11.4919
12.1636
12.8701
13.6539
14.5447
15.5631
16.7272
18.0596
19.594
21.3794
23.4805
25.9734
28.9364
32.4358
36.5077
41.1385
46.2463
51.6668
57.1477
62.3538
66.886
70.3125
72.2104
72.2136
70.0597
65.6305
58.9783
50.3348
40.0982
28.8014
17.0618
5.52158
-5.21701
-14.6516
-22.4281
-28.3711
-32.4938
-34.9851
-36.177
-36.4958
-36.4039
-36.3387
-36.6544
-37.5721
-39.1387
-41.1957
-43.3552
-44.9859
-45.2123
-42.9383
-36.9097
-25.8287
-8.52843
15.7992
47.3466
85.4452
128.386
173.361
216.555
253.43
279.151
289.137
279.653
248.349
194.68
120.13
28.1931
-75.8726
-185.511
-293.487
-392.575
-476.254
-539.307
-578.275
-591.711
-580.227
-546.331
-494.089
-428.649
-355.709
-280.953
-209.556
-145.761
-92.6093
-51.7991
-23.7007
-7.49959
-1.4427
-3.14856
-9.94277
-19.1786
-28.5104
-36.095
-40.7084
-41.7753
-39.3183
-33.8445
-26.1887
-17.339
-8.26761
0.21324
7.55326
13.5168
18.1836
21.904
25.2175
28.7513
33.1141
38.8011
46.1221
55.1634
65.785
77.6517
90.2915
103.17
115.771
127.662
138.55
148.308
156.97
164.708
171.784
178.49
185.091
191.774
198.605
205.515
212.3
218.641
224.136
228.346
230.835
231.213
229.166
224.479
217.05
206.89
194.122
178.974
161.771
142.927
122.929
102.323
81.6933
61.6341
42.7144
25.4413
10.2231
-2.66158
-13.0843
-21.0722
-26.7982
-30.5552
-32.7187
-33.7022
-33.9116
-33.7053
-33.3632
-33.0705
-32.9147
-32.8971
-32.954
-32.9851
-32.8825
-32.5581
-31.9627
-31.0977
-30.0158
-28.8125
-27.6103
-26.5387
-25.7127
-25.2132
-25.0732
-25.2701
-25.7263
-26.3176
-26.8883
-27.2702
-27.3038
-26.8582
-25.8476
-24.2406
-22.0641
-19.3988
-16.3684
-13.1244
-9.82804
-6.6327
-3.66799
-1.02809
1.23515
3.11367
4.63998
5.87954
6.92036
7.8607
8.79647
9.80984
10.9601
12.278
13.7647
15.3942
17.1205
18.8872
20.6392
22.3339
23.9501
25.4942
27.0015
28.5325
30.1645
31.9808
34.0571
36.4488
39.1794
42.2327
45.5489
49.0245
52.5162
55.8475
58.8168
61.2067
62.7929
63.3547
62.6867
60.6116
56.996
51.7669
44.9274
36.571
26.889
16.172
4.8003
-6.77451
-18.0578
-28.5479
-37.7767
-45.3516
-50.9938
-54.5684
-56.1024
-55.7845
-53.9452
-51.0132
-47.4509
-43.6702
-39.9389
-36.2881
-32.4395
-27.7719
-21.3448
-11.9962
1.48499
20.119
44.4581
74.3153
108.552
144.979
180.41
210.895
232.099
239.814
230.51
201.855
153.123
85.42
1.69523
-93.4746
-194.299
-294.33
-387.092
-466.697
-528.385
-568.917
-586.797
-582.3
-557.326
-515.108
-459.816
-396.113
-328.714
-261.987
-199.635
-144.484
-98.3742
-62.1659
-35.8239
-18.5769
-9.1146
-5.80059
-6.87641
-10.6388
-15.5772
-20.4663
-24.4117
-26.855
-27.5448
-26.4836
-23.8613
-19.9836
-15.2044
-9.86796
-4.26475
1.39637
7.00043
12.5242
18.0225
23.6067
29.4194
35.6084
42.3048
49.6051
57.5617
66.1795
75.4198
85.2085
95.4473
106.025
116.824
127.732
138.638
149.433
160.012
170.265
180.077
189.328
197.887
205.62
212.382
218.026
222.398
225.339
226.686
226.268
223.913
219.452
212.726
203.61
192.033
178.004
161.645
143.21
123.101
101.868
80.1892
58.8305
38.5941
20.2512
4.47233
-8.23681
-17.5874
-23.539
-26.3059
-26.3386
-24.28
-20.9023
-17.0314
-13.4662
-10.9031
-9.87214
-10.6922
-13.4497
-18.0019
-24.0038
-30.9552
-38.2615
-45.3013
-51.493
-56.3524
-59.5366
-60.869
-60.3448
-58.1171
-54.4673
-49.7643
-44.4169
-38.8281
-33.3532
-28.2685
-23.7523
-19.8799
-16.6312
-13.909
-11.5655
-9.43126
-7.34454
-5.17536
-2.84302
-0.324753
2.3442
5.07809
7.75367
10.2263
12.3472
13.9797
15.0139
15.3792
15.0538
14.072
12.5291
10.5812
8.44196
6.37177
4.66159
3.60959
3.49313
4.53847
6.892
10.597
15.5794
21.6461
28.4954
35.7406
42.9428
49.6503
55.4384
59.9463
62.9051
64.1552
63.6501
61.4493
57.7003
52.615
46.4444
39.4543
31.9077
24.0517
16.1127
8.29545
0.784755
-6.2518
-12.6637
-18.32
-23.1152
-26.9776
-29.8775
-31.8349
-32.9232
-33.2683
-33.0426
-32.4533
-31.7267
-31.0881
-30.739
-30.8289
-31.4231
-32.4634
-33.7234
-34.7636
-34.897
-33.1813
-28.4561
-19.4458
-4.93314
16.0008
43.7003
77.6693
116.374
157.178
196.438
229.804
252.66
260.699
250.504
220.083
169.248
99.7741
15.3284
-78.8562
-176.496
-270.905
-355.679
-425.344
-475.863
-504.979
-512.327
-499.347
-468.999
-425.348
-373.067
-316.922
-261.312
-209.889
-165.314
-129.146
-101.855
-82.9661
-71.2665
-65.0729
-62.5028
-61.7247
-61.1601
-59.6218
-56.3821
-51.1736
-44.1339
-35.7091
-26.5354
-17.3146
-8.70259
-1.21923
4.81055
9.28276
12.309
14.1849
15.3399
16.277
17.5116
19.5167
22.6801
27.2783
33.4649
41.2752
50.641
61.4125
73.3827
86.3098
99.9361
114.001
128.25
142.438
156.33
169.705
182.356
194.091
204.737
214.146
222.194
228.782
233.834
237.287
239.086
239.171
237.465
233.874
228.283
220.569
210.616
198.344
183.744
166.905
148.05
127.55
105.928
83.8434
62.052
41.3519
22.5133
6.20446
-7.0775
-17.062
-23.7368
-27.3522
-28.3949
-27.5341
-25.5473
-23.2337
-21.3269
-20.4176
-20.8953
-22.916
-26.3988
-31.0505
-36.4143
-41.9344
-47.0299
-51.1664
-53.9178
-55.012
-54.3542
-52.0286
-48.2786
-43.4691
-38.0375
-32.4401
-27.1003
-22.3645
-18.4718
-15.5378
-13.5556
-12.4105
-11.9065
-11.7994
-11.833
-11.7714
-11.4268
-10.6768
-9.47175
-7.83258
-5.83873
-3.61042
-1.28745
0.992122
3.11054
4.98391
6.56967
7.8676
8.91521
9.77876
10.5421
11.2947
12.1215
13.0948
14.2693
15.6804
17.3454
19.2656
21.4306
23.8217
26.4146
29.182
32.0942
35.1177
38.214
41.335
44.4187
47.3832
50.1214
52.4972
54.3449
55.4739
55.6799
54.762
52.5464
48.911
43.8114
37.3002
29.538
20.7933
11.4287
1.8751
-7.40419
-15.9545
-23.3725
-29.3435
-33.6713
-36.2946
-37.2902
-36.8613
-35.3103
-32.9978
-30.2863
-27.472
-24.7073
-21.9229
-18.7637
-14.5563
-8.33025
1.08931
14.909
34.1228
59.2255
89.9311
124.958
161.941
197.509
227.556
247.675
253.701
242.293
211.451
160.897
92.2407
8.91363
-84.1259
-180.879
-274.914
-360.01
-430.764
-483.077
-514.489
-524.305
-513.545
-484.718
-441.464
-388.128
-329.298
-269.379
-212.225
-160.878
-117.411
-82.8916
-57.4407
-40.3825
-30.4459
-25.995
-25.2596
-26.5408
-28.3742
-29.6393
-29.611
-27.9571
-24.6899
-20.0844
-14.578
-8.66654
-2.809
2.64691
7.51235
11.7747
15.5855
19.2245
23.0459
27.4176
32.6612
39.0024
46.539
55.2281
64.8954
75.2619
85.9843
96.7015
107.08
116.851
125.84
133.974
141.277
147.86
153.885
159.537
164.989
170.374
175.757
181.124
186.371
191.312
195.685
199.168
201.402
202.014
200.648
196.989
190.797
181.935
170.392
156.3
139.947
121.765
102.322
82.2837
62.3713
43.3082
25.7614
10.2865
-2.71857
-13.0454
-20.6875
-25.832
-28.832
-30.1622
-30.3641
-29.987
-29.5315
-29.4029
-29.8783
-31.0906
-33.03
-35.5623
-38.459
-41.4364
-44.1966
-46.4669
-48.032
-48.7556
-48.5906
-47.5776
-45.8319
-43.5233
-40.8515
-38.0199
-35.2118
-32.5726
-30.1976
-28.1282
-26.3558
-24.8311
-23.4782
-22.2102
-20.9433
-19.6084
-18.1577
-16.5655
-14.825
-12.9417
-10.9248
-8.77981
-6.50293
-4.07879
-1.48189
1.31873
4.35257
7.63975
11.1836
14.9652
18.9408
23.0425
27.1832
31.2638
35.1835
38.8498
42.1894
45.1552
47.7315
49.9342
51.8064
53.4106
54.8169
56.0901
57.2773
58.3966
59.4299
60.3207
60.976
61.2741
61.0759
60.2391
58.6342
56.1595
52.7551
48.4124
43.18
37.1634
30.5192
23.444
16.1585
8.88982
1.8517
-4.77243
-10.8434
-16.275
-21.0355
-25.1447
-28.663
-31.679
-34.2927
-36.5986
-38.6681
-40.5299
-42.1451
-43.3764
-43.9487
-43.4059
-41.0761
-36.0624
-27.2825
-13.5764
6.10712
32.4568
65.5082
104.371
147.04
190.348
230.11
261.466
279.403
279.385
258.004
213.559
146.452
59.3467
-42.9565
-153.92
-265.891
-370.877
-461.362
-531.075
-575.607
-592.811
-582.943
-548.538
-494.044
-425.274
-348.748
-271.003
-197.957
-134.387
-83.5847
-47.189
-25.2234
-16.2954
-17.9273
-26.9648
-40.0094
-53.8223
-65.6586
-73.5012
-76.1815
-73.3866
-65.5662
-53.7643
-39.4031
-24.0515
-9.20626
3.8906
14.3806
21.8563
26.3665
28.3655
28.6204
28.0891
27.7899
28.6758
31.53
36.8893
45.004
55.8314
69.062
84.1715
100.489
117.276
133.799
149.403
163.562
175.92
186.298
194.7
201.282
206.321
210.161
213.166
215.662
217.896
219.998
221.961
223.63
224.719
224.83
223.492
220.21
214.515
206.022
194.482
179.829
162.207
141.991
119.772
96.3283
72.57
49.466
27.9607
8.8896
-7.09648
-19.5894
-28.4562
-33.8429
-36.1484
-35.9739
-34.0524
-31.1681
-28.076
-25.4293
-23.7243
-23.2656
-24.1559
-26.3087
-29.4793
-33.3113
-37.3895
-41.2936
-44.6462
-47.1509
-48.6162
-48.9649
-48.2299
-46.5369
-44.0805
-41.0936
-37.818
-34.4769
-31.2539
-28.2785
-25.6207
-23.2925
-21.2565
-19.4387
-17.7446
-16.0748
-14.3398
-12.4716
-10.4301
-8.20638
-5.82048
-3.31578
-0.750836
1.8102
4.30715
6.69213
8.93589
11.0313
12.9941
14.8611
16.6856
18.531
20.4633
22.5427
24.8152
27.3055
30.0123
32.9055
35.9279
38.9988
42.0215
44.8923
47.5101
49.7858
51.6491
53.0534
53.9764
54.4179
54.3934
53.926
53.0367
51.7355
50.0146
47.8457
45.1826
41.9688
38.149
33.6842
28.5659
22.8282
16.5549
9.88018
2.98178
-3.93242
-10.643
-16.9408
-22.6488
-27.6425
-31.8657
-35.3393
-38.1623
-40.5016
-42.5685
-44.5787
-46.6956
-48.9562
-51.1881
-52.9293
-53.3724
-51.3587
-45.4486
-34.0845
-15.8482
10.2097
44.218
85.1765
130.767
177.352
220.188
253.875
272.968
272.69
249.632
202.322
131.584
40.6164
-65.2362
-178.969
-292.617
-398.073
-487.907
-556.101
-598.608
-613.671
-601.893
-566.04
-510.644
-441.442
-364.74
-286.769
-213.111
-148.247
-95.2604
-55.7219
-29.7351
-16.1305
-12.7652
-16.8841
-25.4967
-35.7283
-45.109
-51.7782
-54.5936
-53.1444
-47.6794
-38.97
-28.1314
-16.4268
-5.08017
4.88417
12.758
18.2147
21.3218
22.5029
22.4593
22.0638
22.239
23.8386
27.542
33.7772
42.676
54.0688
67.515
82.3647
97.843
113.145
127.529
140.396
151.348
160.218
167.064
172.144
175.858
178.678
181.071
183.429
186
188.856
191.873
194.744
197.019
198.162
197.616
194.875
189.546
181.401
170.4
156.71
140.687
122.852
103.849
84.3903
65.204
46.9737
30.2898
15.6073
3.21868
-6.75815
-14.3747
-19.8316
-23.4457
-25.6082
-26.7399
-27.2476
-27.4863
-27.7321
-28.1659
-28.8702
-29.8375
-30.9879
-32.1928
-33.3018
-34.1682
-34.6707
-34.7289
-34.3115
-33.4363
-32.1637
-30.5841
-28.8028
-26.923
-25.032
-23.1899
-21.425
-19.7349
-18.0942
-16.4659
-14.816
-13.1267
-11.4071
-9.69693
-8.06441
-6.59619
-5.3824
-4.49882
-3.98936
-3.85245
-4.03375
-4.42693
-4.88259
-5.22444
-5.2703
-4.85498
-3.85199
-2.19075
0.132751
3.05359
6.44394
10.127
13.8968
17.5421
20.8704
23.7303
26.0295
27.7452
28.9279
29.6956
30.2214
30.7144
31.3965
32.477
34.1276
36.4599
39.5073
43.2134
47.4268
51.9051
56.3273
60.315
63.4627
65.373
65.6968
64.1709
60.6516
55.1379
47.7811
38.8785
28.8508
18.2061
7.49234
-2.75457
-12.0621
-20.0649
-26.537
-31.4083
-34.7639
-36.8277
-37.9319
-38.4765
-38.8816
-39.5362
-40.7433
-42.6641
-45.2598
-48.2355
-50.9941
-52.6123
-51.8588
-47.2739
-37.3255
-20.6442
3.68093
35.7858
74.7519
118.433
163.449
205.375
239.147
259.628
262.263
243.734
202.503
139.155
56.4825
-40.717
-146.088
-252.366
-352.13
-438.56
-506.104
-550.971
-571.418
-567.781
-542.302
-498.757
-441.97
-377.263
-309.914
-244.687
-185.462
-135.006
-94.8802
-65.48
-46.1849
-35.5867
-31.7615
-32.5514
-35.825
-39.6927
-42.6618
-43.7231
-42.3702
-38.5599
-32.6267
-25.1669
-16.9104
-8.59587
-0.863642
5.82429
11.2307
15.3553
18.4148
20.7983
23.0045
25.5726
29.0138
33.7538
40.0903
48.1697
57.9841
69.3848
82.1099
95.8188
110.13
124.658
139.038
152.951
166.137
178.394
189.583
199.618
208.462
216.109
222.581
227.911
232.133
235.266
237.305
238.202
237.862
236.135
232.82
227.679
220.46
210.928
198.907
184.319
167.228
147.862
126.636
104.137
81.0971
58.3445
36.7358
17.0811
0.0690758
-13.7976
-24.2489
-31.27
-35.0957
-36.1796
-35.1402
-32.6911
-29.5648
-26.4385
-23.8705
-22.2545
-21.7952
-22.5081
-24.24
-26.7079
-29.549
-32.3749
-34.8242
-36.6045
-37.5228
-37.4985
-36.5612
-34.8343
-32.5077
-29.806
-26.955
-24.1527
-21.5477
-19.2273
-17.2147
-15.4764
-13.9355
-12.4892
-11.0281
-9.45337
-7.69096
-5.70151
-3.48497
-1.08075
1.43639
3.96375
6.38094
8.56228
10.3908
11.7733
12.6547
13.0312
12.9589
12.5573
12.0044
11.5249
11.3694
11.789
13.006
15.1858
18.4136
22.6795
27.8741
33.7955
40.1679
46.6685
52.9581
58.7139
63.6569
67.5723
70.3197
71.8327
72.1096
71.1977
69.1744
66.1308
62.1592
57.3472
51.7789
45.5415
38.7349
31.481
23.9304
16.2632
8.68361
1.40729
-5.35591
-11.4228
-16.6582
-20.9932
-24.4388
-27.0911
-29.1261
-30.7845
-32.3425
-34.0724
-36.1902
-38.7953
-41.8046
-44.8905
-47.433
-48.5036
-46.8983
-41.2358
-30.1298
-12.4285
12.5014
44.4913
82.3438
123.72
165.191
202.474
230.845
245.683
243.064
220.329
176.524
112.646
31.65
-61.7786
-161.673
-261.376
-354.211
-434.128
-496.268
-537.373
-556.001
-552.549
-529.08
-489.004
-436.651
-376.797
-314.188
-253.122
-197.125
-148.732
-109.402
-79.5454
-58.6569
-45.5186
-38.4515
-35.5748
-35.047
-35.2632
-34.993
-33.4512
-30.3026
-25.6091
-19.734
-13.2206
-6.66395
-0.593152
4.62046
8.82073
12.0844
14.7005
17.1183
19.8724
23.499
28.4547
35.0499
43.4055
53.4374
64.8704
77.278
90.1413
102.918
115.111
126.329
136.329
145.033
152.527
159.035
164.871
170.391
175.934
181.768
188.052
194.812
201.93
209.154
216.118
222.373
227.423
230.761
231.906
230.433
226.003
218.39
207.503
193.403
176.318
156.647
134.951
111.936
88.4101
65.2359
43.2635
23.262
5.85462
-8.53539
-19.7173
-27.7405
-32.8751
-35.5682
-36.3816
-35.9214
-34.7669
-33.4114
-32.2195
-31.4074
-31.0455
-31.0818
-31.379
-31.76
-32.0517
-32.1216
-31.9014
-31.3946
-30.6688
-29.836
-29.025
-28.3515
-27.8924
-27.6685
-27.637
-27.697
-27.7041
-27.4936
-26.9063
-25.8139
-24.1398
-21.8726
-19.0692
-15.8497
-12.3822
-8.86291
-5.49202
-2.44998
0.122959
2.14161
3.5834
4.48802
4.9496
5.10273
5.10447
5.11456
5.27652
5.70181
6.4589
7.56834
9.00435
10.7022
12.5706
14.5064
16.4115
18.2069
19.8455
21.319
22.6607
23.9424
25.2658
26.7501
28.5154
30.6649
33.2661
36.3334
39.8131
43.5741
47.4054
51.0233
54.0886
56.2337
57.0982
56.3687
53.8182
49.3401
42.9711
34.8992
25.4552
15.0873
4.32125
-6.28827
-16.211
-24.9914
-32.2901
-37.9127
-41.8218
-44.1318
-45.0876
-45.03
-44.3493
-43.4321
-42.6009
-42.0512
-41.7867
-41.5608
-40.832
-38.7513
-34.197
-25.8758
-12.4977
6.98254
33.082
65.5127
102.967
143.026
182.236
216.368
240.853
251.33
244.238
217.359
170.223
104.301
22.9656
-68.8025
-164.904
-258.754
-343.962
-414.981
-467.63
-499.448
-509.832
-499.965
-472.555
-431.435
-381.081
-326.115
-270.843
-218.894
-172.964
-134.706
-104.741
-82.7796
-67.822
-58.4068
-52.8652
-49.5556
-47.053
-44.2767
-40.5531
-35.6145
-29.5463
-22.6966
-15.5665
-8.69736
-2.57102
2.46705
6.25427
8.82604
10.4017
11.3468
12.1202
13.2132
15.0905
18.1387
22.6284
28.6917
36.3177
45.3633
55.5773
66.6341
78.1725
89.8351
101.303
112.326
122.737
132.463
141.519
149.986
157.993
165.678
173.155
180.483
187.634
194.48
200.785
206.213
210.35
212.737
212.914
210.468
205.082
196.573
184.931
170.332
153.14
133.896
113.282
92.0778
71.1052
51.1675
32.9874
17.1509
4.06307
-6.08171
-13.309
-17.8536
-20.129
-20.6804
-20.1268
-19.0977
-18.173
-17.8296
-18.4033
-20.0664
-22.8237
-26.5273
-30.9047
-35.5996
-40.2172
-44.3708
-47.7234
-50.0203
-51.1099
-50.9515
-49.6104
-47.2414
-44.0652
-40.3394
-36.3292
-32.2808
-28.4
-24.8383
-21.6867
-18.9778
-16.6932
-14.7761
-13.1463
-11.7148
-10.3973
-9.12429
-7.8475
-6.54215
-5.20551
-3.85228
-2.50807
-1.20174
0.041944
1.2085
2.29789
3.32599
4.32344
5.33186
6.39824
7.56832
8.88012
10.3586
12.0124
13.8329
15.796
17.8661
20.0006
22.1557
24.2905
26.3699
28.3646
30.25
32.0023
33.5946
34.9928
36.1525
37.0189
37.5278
37.6104
37.1998
36.2383
34.686
32.5273
29.776
26.4773
22.706
18.5614
14.1587
9.61883
5.05684
0.571073
-3.76569
-7.91208
-11.8602
-15.6333
-19.2806
-22.868
-26.4686
-30.1506
-33.9663
-37.938
-42.0416
-46.1827
-50.1645
-53.6463
-56.0989
-56.7685
-54.6668
-48.6108
-37.3305
-19.6531
5.24388
37.544
76.5177
120.326
165.963
209.382
245.812
270.249
278.056
265.589
230.752
173.403
95.5247
1.15629
-103.94
-212.818
-318.03
-412.369
-489.577
-544.932
-575.654
-581.089
-562.658
-523.588
-468.48
-402.763
-332.111
-261.886
-196.673
-139.944
-93.8755
-59.326
-35.9512
-22.4347
-16.7868
-16.6725
-19.727
-23.8228
-27.2666
-28.9123
-28.1886
-25.0526
-19.8834
-13.3405
-6.20786
0.754771
6.93373
11.9462
15.6805
18.2924
20.1623
21.8241
23.8776
26.8975
31.3531
37.5477
45.5847
55.3641
66.6055
78.895
91.7449
104.659
117.195
129.007
139.879
149.729
158.597
166.615
173.964
180.832
187.367
193.65
199.662
205.287
210.31
214.432
217.301
218.533
217.754
214.625
208.879
200.347
188.984
174.885
158.3
139.628
119.412
98.3159
77.0829
56.4941
37.311
20.2181
5.76669
-5.67082
-13.933
-19.0817
-21.393
-21.3277
-19.4826
-16.5309
-13.1553
-9.98402
-7.53529
-6.17683
-6.10374
-7.33641
-9.73737
-13.0436
-16.91
-20.9572
-24.8192
-28.1842
-30.8255
-32.6187
-33.5464
-33.6883
-33.2009
-32.2899
-31.1774
-30.0694
-29.1278
-28.4484
-28.0495
-27.8703
-27.7814
-27.6026
-27.1296
-26.1627
-24.5356
-22.1411
-18.9491
-15.016
-10.483
-5.56608
-0.53528
4.31077
8.67462
12.2898
14.9482
16.5217
16.9774
16.3831
14.9043
12.7911
10.3571
7.95199
5.92958
4.61519
4.27524
5.09235
7.14868
10.4194
14.7769
20.006
25.8269
31.9245
37.9798
43.698
48.8316
53.1938
56.6616
59.1686
60.6906
61.2264
60.7787
59.3395
56.8831
53.3683
48.7501
42.9979
36.1177
28.1728
19.2994
9.71312
-0.295944
-10.3789
-20.1539
-29.2385
-37.2842
-44.0085
-49.2211
-52.839
-54.8907
-55.5074
-54.9031
-53.3439
-51.1087
-48.4415
-45.498
-42.2872
-38.6167
-34.0489
-27.8874
-19.2082
-6.95558
9.89206
32.0927
59.8749
92.6806
128.975
166.176
200.753
228.499
244.967
246.013
228.375
190.187
131.372
53.8114
-38.7056
-140.776
-245.877
-346.997
-437.331
-510.946
-563.341
-591.846
-595.803
-576.532
-537.095
-481.893
-416.149
-345.359
-274.752
-208.84
-151.082
-103.701
-67.6401
-42.671
-27.5992
-20.5479
-19.2718
-21.4617
-25.0083
-28.1996
-29.8386
-29.2808
-26.3973
-21.4807
-15.1128
-8.01735
-0.917056
5.58563
11.0935
15.4578
18.7799
21.376
23.7145
26.3362
29.7726
34.4705
40.7352
48.698
58.3106
69.3641
81.5301
94.4136
107.61
120.755
133.565
145.855
157.54
168.618
179.141
189.175
198.77
207.923
216.563
224.542
231.643
237.59
242.077
244.789
245.431
243.746
239.537
232.68
223.131
210.934
196.228
179.246
160.319
139.877
118.441
96.6065
75.023
54.3551
35.2404
18.2391
3.78444
-7.85999
-16.6299
-22.6707
-26.3261
-28.1045
-28.626
-28.5564
-28.5344
-29.103
-30.6506
-33.3716
-37.2494
-42.0639
-47.424
-52.8178
-57.6776
-61.4489
-63.6567
-63.9614
-62.1973
-58.3925
-52.7658
-45.7068
-37.7379
-29.4677
-21.5372
-14.5663
-9.10459
-5.58831
-4.30832
-5.3885
-8.77638
-14.2455
-21.4094
-29.7454
-38.6293
-47.3767
-55.2912
-61.7161
-66.0861
-67.9742
-67.1298
-63.5039
-57.2558
-48.7421
-38.4866
-27.1329
-15.387
-3.95252
6.53192
15.5472
22.7349
27.9203
31.1166
32.5098
32.4277
31.2973
29.5958
27.8015
26.3485
25.591
25.7786
27.0436
29.4003
32.7534
36.9132
41.6156
46.5442
51.3519
55.6845
59.2021
61.6018
62.6387
62.1451
60.0455
56.367
51.2398
44.8902
37.6235
29.7979
21.7939
13.9788
6.67412
0.126196
-5.51399
-10.2012
-13.9949
-17.0466
-19.5782
-21.8533
-24.1441
-26.6973
-29.6991
-33.2405
-37.2801
-41.605
-45.7905
-49.1637
-50.7856
-49.4672
-43.841
-32.5023
-14.2258
11.7602
45.4764
85.9281
130.937
177.128
220.106
254.83
276.154
279.454
261.272
219.861
155.551
70.8844
-29.5297
-139.397
-251.33
-357.573
-450.755
-524.604
-574.526
-597.994
-594.707
-566.528
-517.197
-451.879
-376.595
-297.614
-220.86
-151.397
-93.0552
-48.1973
-17.6668
-0.885532
3.91208
-0.648691
-11.4619
-25.3249
-39.2858
-50.9206
-58.5183
-61.1642
-58.7231
-51.7371
-41.2587
-28.6446
-15.3397
-2.67581
8.29208
16.8974
22.9128
26.5395
28.3434
29.1501
29.9152
31.5888
34.9925
40.7217
49.0844
60.0805
73.4205
88.5777
104.864
121.52
137.797
153.044
166.758
178.622
188.515
196.497
202.776
207.66
211.507
214.668
217.442
220.029
222.51
224.823
226.769
228.02
228.15
226.667
223.068
216.886
207.752
195.446
179.941
161.437
140.371
117.4
93.3679
69.2376
46.0097
24.6298
5.89738
-9.61344
-21.6085
-30.097
-35.3802
-38.0063
-38.6972
-38.2583
-37.4815
-37.0553
-37.4931
-39.087
-41.8928
-45.7458
-50.303
-55.1056
-59.6508
-63.4639
-66.161
-67.4949
-67.3795
-65.8914
-63.2501
-59.7806
-55.8661
-51.8952
-48.2135
-45.0825
-42.6536
-40.957
-39.9068
-39.3209
-38.9515
-38.5218
-37.7641
-36.4537
-34.4353
-31.6386
-28.0817
-23.8638
-19.1474
-14.1354
-9.0439
-4.07672
0.595782
4.85158
8.62373
11.8992
14.7108
17.1241
19.2226
21.0922
22.8095
24.433
26
27.528
29.0195
30.4691
31.8708
33.2236
34.5347
35.8191
37.0963
38.384
39.6911
41.0108
42.3155
43.5544
44.6555
45.53
46.0799
46.2075
45.8246
44.8603
43.2679
41.0276
38.1481
34.6647
30.6363
26.141
21.2705
16.1248
10.8073
5.41898
0.0549428
-5.20014
-10.275
-15.1141
-19.6795
-23.9502
-27.9189
-31.5833
-34.9284
-37.8986
-40.3569
-42.0342
-42.4779
-41.0127
-36.7352
-28.5636
-15.3589
3.87846
29.7529
62.1945
100.213
141.745
183.651
221.893
251.897
269.067
269.373
249.94
209.529
148.848
70.6172
-20.6175
-118.909
-217.512
-309.592
-388.936
-450.576
-491.259
-509.684
-506.519
-484.183
-446.458
-397.969
-343.632
-288.119
-235.417
-188.521
-149.275
-118.378
-95.5176
-79.601
-69.0466
-62.0822
-57.0147
-52.4405
-47.377
-41.3118
-34.1751
-26.2514
-18.054
-10.1843
-3.19907
2.49556
6.71284
9.51148
11.1809
12.1933
13.1321
14.611
17.1937
21.3252
27.2836
35.1543
44.8297
56.0311
68.3488
81.2943
94.357
107.06
119.005
129.911
139.629
148.149
155.583
162.143
168.107
173.775
179.43
185.303
191.538
198.171
205.123
212.198
219.091
225.408
230.689
234.436
236.144
235.331
231.577
224.554
214.065
200.073
182.734
162.409
139.67
115.284
90.1725
65.3558
41.8775
20.7195
2.71476
-11.5296
-21.6915
-27.7653
-30.062
-29.1752
-25.917
-21.2318
-16.0951
-11.4132
-7.93236
-6.1699
-6.37419
-8.51698
-12.3179
-17.2967
-22.8446
-28.3072
-33.0654
-36.6076
-38.583
-38.832
-37.3916
-34.4772
-30.4442
-25.7364
-20.828
-16.1673
-12.1273
-8.96985
-6.82648
-5.69563
-5.4565
-5.89573
-6.74292
-7.70971
-8.52754
-8.97949
-8.92266
-8.2992
-7.13535
-5.52971
-3.63295
-1.62238
0.324953
2.05697
3.4659
4.50021
5.16797
5.53209
5.69855
5.79988
5.9766
6.35907
7.05233
8.12547
9.60654
11.483
13.7069
16.204
18.8842
21.653
24.4216
27.1142
29.6735
32.0615
34.2571
36.2503
38.033
39.588
40.8784
41.8381
42.3683
42.339
41.5989
39.9917
37.3785
33.6616
28.8072
22.8616
15.9598
8.32209
0.239669
-7.9498
-15.8938
-23.26
-29.7695
-35.2254
-39.5316
-42.7002
-44.8447
-46.1609
-46.8912
-47.2766
-47.4941
-47.5835
-47.3699
-46.3965
-43.8852
-38.7513
-29.6925
-15.3656
5.35666
33.077
67.565
107.513
150.423
192.67
229.765
256.806
269.058
262.58
234.812
185.03
114.587
26.8971
-72.8231
-178.053
-281.617
-376.414
-456.125
-515.825
-552.408
-564.809
-553.987
-522.7
-475.098
-416.21
-351.385
-285.747
-223.741
-168.797
-123.139
-87.7529
-62.487
-46.2623
-37.3521
-33.6898
-33.1658
-33.8784
-34.3177
-33.4696
-30.8398
-26.4072
-20.5241
-13.7826
-6.87169
-0.442767
4.99906
9.16744
12.0267
13.784
14.8476
15.7609
17.1222
19.5038
23.379
29.0668
36.6998
46.2164
57.3778
69.8048
83.028
96.5443
109.872
122.599
134.412
145.119
154.647
163.026
170.365
176.818
182.547
187.692
192.344
196.528
200.197
203.239
205.481
206.715
206.71
205.236
202.079
197.056
190.03
180.921
169.717
156.488
141.398
124.709
106.784
88.079
69.1192
50.4721
32.7055
16.3442
1.82722
-10.5284
-20.5524
-28.2312
-33.7015
-37.2286
-39.1729
-39.9475
-39.9736
-39.6391
-39.2635
-39.0741
-39.1949
-39.6485
-40.37
-41.229
-42.058
-42.6825
-42.9476
-42.7406
-42.0052
-40.7461
-39.0261
-36.9545
-34.67
-32.3215
-30.0477
-27.9603
-26.1309
-24.5844
-23.2992
-22.2123
-21.2309
-20.2454
-19.1451
-17.832
-16.233
-14.3076
-12.0511
-9.49346
-6.69371
-3.73096
-0.693762
2.33102
5.26817
8.06173
10.6793
13.1125
15.3742
17.4929
19.5047
21.4453
23.3432
25.214
27.0581
28.8618
30.6007
32.2461
33.7722
35.1639
36.4224
37.5701
38.6506
39.7268
40.8745
42.1727
43.6915
45.4772
47.537
49.8248
52.23
54.5721
56.6046
58.0275
58.5118
57.7321
55.4055
51.3318
45.428
37.7535
28.5197
18.0821
6.91383
-4.43566
-15.3935
-25.4202
-34.0644
-41.0072
-46.0925
-49.3376
-50.9239
-51.1682
-50.4739
-49.2677
-47.923
-46.6752
-45.5373
-44.2247
-42.1081
-38.2103
-31.2692
-19.8794
-2.71543
21.1794
52.0764
89.2719
130.89
173.84
213.961
246.383
266.046
268.339
249.752
208.442
144.628
60.7329
-38.7385
-147.593
-258.55
-363.973
-456.64
-530.448
-580.973
-605.822
-604.757
-579.584
-533.841
-472.345
-400.65
-324.494
-249.277
-179.642
-119.165
-70.1921
-33.7995
-9.88152
2.67006
5.71953
1.60777
-7.13088
-18.0287
-28.9009
-38.0041
-44.1305
-46.6363
-45.4112
-40.7994
-33.4843
-24.3543
-14.3645
-4.40862
4.78575
12.7305
19.2134
24.2963
28.2802
31.6422
34.9553
38.8029
43.6977
50.0169
57.9604
67.5367
78.575
90.7614
103.69
116.923
130.042
142.699
154.638
165.707
175.845
185.058
193.379
200.832
207.396
212.98
217.413
220.452
221.807
221.174
218.281
212.925
205.015
194.59
181.834
167.062
150.703
133.264
115.293
97.3352
79.8927
63.3959
48.178
34.4625
22.3615
11.8831
2.94729
-4.5927
-10.9259
-16.2592
-20.7955
-24.7161
-28.1696
-31.2662
-34.0778
-36.6416
-38.9669
-41.042
-42.8406
-44.3282
-45.4658
-46.2147
-46.5398
-46.4137
-45.8205
-44.7601
-43.2516
-41.3349
-39.0715
-36.5411
-33.8371
-31.0594
-28.3051
-25.6605
-23.1925
-20.943
-18.9254
-17.1248
-15.5011
-13.9944
-12.5329
-11.0407
-9.44608
-7.68897
-5.72697
-3.53987
-1.13271
1.46303
4.1899
6.96675
9.69289
12.254
14.53
16.4034
17.7702
18.5493
18.693
18.1952
17.0977
15.4923
13.519
11.3591
9.22283
7.33387
5.91041
5.1458
5.19051
6.13774
8.01452
10.7795
14.3277
18.5019
23.1086
27.9357
32.7696
37.4091
41.6731
45.4037
48.4626
50.7266
52.0806
52.4147
51.6255
49.6223
46.3402
41.7545
35.8972
28.8701
20.8505
12.0903
2.90321
-6.3562
-15.3207
-23.6433
-31.0293
-37.2651
-42.239
-45.9513
-48.5124
-50.1257
-51.0579
-51.5936
-51.9777
-52.3463
-52.654
-52.605
-51.6032
-48.7402
-42.8404
-32.5784
-16.6749
5.83988
35.3283
71.261
112.008
154.768
195.671
230.087
253.099
260.099
247.426
212.926
156.373
79.6586
-13.2843
-116.806
-224.087
-327.825
-420.975
-497.445
-552.668
-583.978
-590.776
-574.449
-538.104
-486.137
-423.71
-356.201
-288.686
-225.515
-170.003
-124.264
-89.192
-64.5579
-49.2176
-41.3769
-38.8888
-39.5422
-41.3139
-42.5612
-42.1412
-39.4546
-34.4188
-27.3825
-19.0008
-10.0898
-1.48131
6.10514
12.1585
16.4336
18.9672
20.0548
20.1962
20.0202
20.1999
21.3709
24.0618
28.6448
35.3094
44.0606
54.736
67.0387
80.5785
94.915
109.599
124.205
138.363
151.769
164.199
175.512
185.636
194.563
202.325
208.974
214.553
219.071
222.483
224.675
225.458
224.579
221.742
216.639
208.999
198.627
185.454
169.568
151.245
130.945
109.301
87.0827
65.1412
44.3405
25.4839
9.24185
-3.90971
-13.732
-20.2428
-23.7082
-24.6093
-23.5862
-21.3667
-18.6879
-16.2208
-14.5054
-13.9052
-14.5832
-16.5034
-19.4547
-23.0934
-26.9983
-30.73
-33.8886
-36.1606
-37.3528
-37.4072
-36.3988
-34.5162
-32.0299
-29.2522
-26.4942
-24.0269
-22.0493
-20.6681
-19.8906
-19.6307
-19.7269
-19.9685
-20.1276
-19.9904
-19.3865
-18.2101
-16.4321
-14.1017
-11.3378
-8.31125
-5.22105
-2.26816
0.370383
2.56307
4.23875
5.39315
6.08635
6.4322
6.58119
6.69936
6.94623
7.4547
8.31555
9.56848
11.2005
13.1519
15.328
17.6157
19.901
22.0863
24.1044
25.9268
27.5666
29.0752
30.5338
32.0404
33.695
35.5833
37.7614
40.2421
42.9836
45.8831
48.7755
51.4384
53.6057
54.9882
55.3009
54.2951
51.7901
47.7021
42.0643
35.035
26.8923
18.0133
8.84137
-0.156484
-8.53599
-15.9209
-22.0412
-26.7608
-30.09
-32.1833
-33.3213
-33.8784
-34.2773
-34.9319
-36.1789
-38.2004
-40.9421
-44.0354
-46.7387
-47.9198
-46.1017
-39.5924
-26.7071
-6.07161
23.0292
60.3123
104.24
151.913
199.165
240.879
271.507
285.726
279.148
248.971
194.474
117.268
21.2659
-87.6336
-202.112
-314.172
-415.949
-500.508
-562.512
-598.692
-608.082
-591.982
-553.694
-498.053
-430.842
-358.145
-285.735
-218.551
-160.317
-113.34
-78.4743
-55.2545
-42.1559
-36.9328
-36.9922
-39.7508
-42.9363
-44.8047
-44.2581
-40.8634
-34.7831
-26.6397
-17.3395
-7.8853
0.797855
8.00214
13.3286
16.7253
18.4726
19.1253
19.4212
20.1732
22.1591
26.0228
32.1987
40.8658
51.9368
65.0784
79.7606
95.327
111.075
126.339
140.561
153.345
164.489
173.987
182.008
188.852
194.89
200.502
206.015
211.646
217.471
223.405
229.205
234.487
238.764
241.492
242.115
240.121
235.089
226.734
214.936
199.767
181.5
160.607
137.738
113.689
89.3563
65.6761
43.5588
23.8191
7.11059
-6.12858
-15.7139
-21.7293
-24.5174
-24.6437
-22.8391
-19.9255
-16.7331
-14.0192
-12.3964
-12.2791
-13.853
-17.0708
-21.6732
-27.2316
-33.2069
-39.0173
-44.1054
-48.0001
-50.3633
-51.0193
-49.9646
-47.3567
-43.4868
-38.7395
-33.5449
-28.3302
-23.4755
-19.2783
-15.9308
-13.5108
-11.9866
-11.2327
-11.0553
-11.2226
-11.4958
-11.6578
-11.5358
-11.0167
-10.0529
-8.65968
-6.90538
-4.89588
-2.75637
-0.612758
1.4247
3.27392
4.88838
6.25921
7.41223
8.40115
9.29825
10.1841
11.138
12.23
13.5155
15.0323
16.8002
18.8225
21.0886
23.5769
26.2585
29.0995
32.064
35.1152
38.2167
41.332
44.4222
47.4424
50.3348
53.0218
55.3979
57.3247
58.6308
59.1183
58.5775
56.8086
53.6491
49.0013
42.8577
35.3172
26.5905
16.9914
6.91453
-3.19877
-12.9019
-21.7874
-29.5274
-35.9059
-40.8372
-44.3674
-46.6594
-47.9605
-48.5547
-48.7045
-48.5852
-48.2175
-47.4075
-45.703
-42.381
-36.48
-26.891
-12.5131
7.5313
33.6451
65.5062
101.87
140.48
178.121
210.848
234.369
244.544
237.928
212.282
166.963
103.137
23.7653
-66.6241
-162.36
-257.188
-344.894
-419.905
-477.81
-515.728
-532.499
-528.681
-506.377
-468.906
-420.392
-365.3
-307.991
-252.339
-201.439
-157.435
-121.472
-93.7558
-73.7055
-60.1671
-51.6516
-46.5707
-43.4393
-41.0281
-38.4543
-35.2109
-31.1396
-26.362
-21.184
-15.9908
-11.1481
-6.92281
-3.43009
-0.611363
1.75759
4.03311
6.65168
10.0682
14.6933
20.8386
28.676
38.2162
49.3081
61.6579
74.8663
88.4767
102.03
115.116
127.422
138.762
149.094
158.514
167.231
175.534
183.735
192.119
200.889
210.126
219.756
229.544
239.098
247.902
255.355
260.823
263.7
263.464
259.723
252.258
241.038
226.233
208.2
187.462
164.68
140.607
116.049
91.818
68.6845
47.3377
28.3454
12.1244
-1.08065
-11.2063
-18.3664
-22.8356
-25.0203
-25.4206
-24.5853
-23.0653
-21.3683
-19.9208
-19.0387
-18.911
-19.5966
-21.0337
-23.0608
-25.4464
-27.9231
-30.2224
-32.1068
-33.395
-33.9782
-33.8262
-32.9838
-31.5578
-29.698
-27.5747
-25.355
-23.1826
-21.1621
-19.3499
-17.7529
-16.3336
-15.0213
-13.7266
-12.358
-10.837
-9.10965
-7.1542
-4.98278
-2.63841
-0.187903
2.28736
4.70118
6.97106
9.02465
10.8038
12.2671
13.3916
14.1756
14.6413
14.8397
14.8529
14.7954
14.8103
15.0592
15.7075
16.9034
18.7556
21.3113
24.5401
28.3265
32.4743
36.7229
40.7757
44.3344
47.1358
48.9834
49.7685
49.4775
48.1835
46.0242
43.172
39.8002
36.0535
32.0279
27.7623
23.2435
18.4225
13.2388
7.64619
1.63762
-4.73817
-11.3692
-18.0838
-24.6654
-30.8739
-36.4736
-41.2605
-45.0867
-47.879
-49.6465
-50.4764
-50.5146
-49.9299
-48.8599
-47.3428
-45.241
-42.1719
-37.4663
-30.1798
-19.1781
-3.30758
18.3553
46.2079
79.8293
117.759
157.409
195.161
226.657
247.269
252.683
239.516
205.858
151.661
78.9006
-8.52263
-105.126
-204.39
-299.434
-383.723
-451.727
-499.442
-524.722
-527.389
-509.128
-473.189
-423.94
-366.351
-305.455
-245.863
-191.371
-144.705
-107.402
-79.8456
-61.4079
-50.6916
-45.8153
-44.7114
-45.3966
-46.1885
-45.8509
-43.6595
-39.3934
-33.2634
-25.7976
-17.7021
-9.72154
-2.51463
3.43961
7.89811
10.87
12.5962
13.5005
14.1209
15.0349
16.787
19.8294
24.4807
30.9059
39.1179
48.9948
60.3102
72.7681
86.037
99.7791
113.67
127.411
140.733
153.394
165.177
175.889
185.358
193.441
200.028
205.047
208.474
210.325
210.658
209.557
207.12
203.44
198.591
192.617
185.524
177.286
167.852
157.168
145.196
131.946
117.497
102.019
85.7811
69.1461
52.5537
36.4866
21.4301
7.82693
-3.96528
-13.7083
-21.3048
-26.8034
-30.3885
-32.355
-33.0722
-32.9427
-32.3597
-31.6701
-31.1451
-30.963
-31.2036
-31.8542
-32.825
-33.9713
-35.118
-36.0854
-36.7113
-36.868
-36.4744
-35.5003
-33.9656
-31.9344
-29.5046
-26.7962
-23.9377
-21.0539
-18.2545
-15.6253
-13.2232
-11.0738
-9.17338
-7.4941
-5.99156
-4.6139
-3.31104
-2.04272
-0.784066
0.472211
1.71737
2.9318
4.09297
5.18461
6.20557
7.17641
8.1423
9.17142
10.3486
11.7652
13.5064
15.6375
18.1928
21.1662
24.508
28.1253
31.8891
35.6445
39.2239
42.4615
45.2065
47.3342
48.7541
49.4133
49.2959
48.4188
46.8243
44.5712
41.7252
38.3515
34.5089
30.249
25.6175
20.6587
15.4222
9.96833
4.37201
-1.27644
-6.87476
-12.3159
-17.4981
-22.3363
-26.7738
-30.7907
-34.4095
-37.6946
-40.7472
-43.6929
-46.664
-49.7765
-53.1012
-56.6289
-60.2301
-63.6102
-66.2644
-67.4433
-66.1413
-61.1309
-51.0586
-34.6169
-10.7884
20.8614
59.8881
104.732
152.607
199.566
240.775
270.983
285.13
279.025
249.976
197.284
122.503
29.4321
-76.1831
-187.194
-295.773
-394.216
-475.725
-535.075
-569.079
-576.815
-559.597
-520.703
-464.926
-397.99
-325.93
-254.488
-188.607
-132.054
-87.2083
-55.0161
-35.0959
-25.9683
-25.3682
-30.5972
-38.873
-47.6383
-54.8019
-58.8941
-59.1314
-55.3937
-48.1303
-38.2112
-26.7499
-14.9197
-3.78543
5.8311
13.4404
18.9237
22.5198
24.7675
26.4129
28.2963
31.2329
35.9032
42.765
51.998
63.4857
76.8352
91.4317
106.518
121.293
135.003
147.039
156.999
164.728
170.328
174.13
176.64
178.465
180.224
182.461
185.562
189.698
194.787
200.493
206.251
211.325
214.888
216.11
214.255
208.769
199.345
185.97
168.935
148.819
126.439
102.781
78.908
55.8678
34.5998
15.8586
0.157811
-12.2578
-21.4118
-27.568
-31.1806
-32.8282
-33.1427
-32.7391
-32.1551
-31.8073
-31.965
-32.7448
-34.1228
-35.9621
-38.049
-40.1346
-41.9745
-43.3625
-44.1554
-44.286
-43.7648
-42.671
-41.1345
-39.3136
-37.3704
-35.4482
-33.6531
-32.0432
-30.6246
-29.3559
-28.1592
-26.9348
-25.5792
-24.0021
-22.1402
-19.9677
-17.4996
-14.7899
-11.9244
-9.00871
-6.15475
-3.46561
-1.02264
1.12457
2.96381
4.52076
5.85449
7.0486
8.19942
9.40289
10.742
12.2768
14.0376
16.0239
18.2063
20.5341
22.9444
25.3731
27.7651
30.082
32.3067
34.4446
36.5204
38.5729
40.6469
42.7849
45.0182
47.359
49.792
52.268
54.6987
56.9538
58.864
60.2279
60.8262
60.4427
58.888
56.026
51.7971
46.2344
39.4716
31.7366
23.335
14.6216
5.96493
-2.29057
-9.86089
-16.5511
-22.2729
-27.0496
-31.0056
-34.3448
-37.3177
-40.1811
-43.1521
-46.3593
-49.7898
-53.237
-56.252
-58.1094
-57.8012
-54.0791
-45.5595
-30.9028
-9.06104
20.4343
57.1863
99.7105
145.335
190.269
229.869
259.073
272.972
267.437
239.702
188.838
116.015
24.5345
-80.3982
-192.122
-303.147
-405.872
-493.319
-559.787
-601.367
-616.251
-604.821
-569.517
-514.495
-445.149
-367.532
-287.758
-211.446
-143.258
-86.5758
-43.3388
-14.0398
2.13285
7.03834
3.25241
-6.29426
-18.6653
-31.2193
-41.8347
-49.0454
-52.0821
-50.8302
-45.7189
-37.5645
-27.394
-16.2705
-5.14303
5.26507
14.5204
22.4943
29.3337
35.3955
41.1599
47.1352
53.7694
61.3789
70.1044
79.8974
90.5371
101.672
112.882
123.745
133.902
143.109
151.271
158.447
164.835
170.736
176.494
182.442
188.839
195.817
203.353
211.244
219.122
226.471
232.676
237.078
239.031
237.968
233.456
225.242
213.286
197.771
179.104
157.89
134.898
111.005
87.1377
64.2015
43.0133
24.2385
8.34124
-4.44865
-14.1448
-20.9905
-25.4205
-28.0051
-29.3801
-30.1728
-30.9326
-32.0737
-33.8384
-36.283
-39.2879
-42.5904
-45.8333
-48.6229
-50.5892
-51.4383
-50.9927
-49.2136
-46.2038
-42.1922
-37.5027
-32.5122
-27.6049
-23.1273
-19.3518
-16.4501
-14.4821
-13.3974
-13.0516
-13.2307
-13.6833
-14.1537
-14.4124
-14.281
-13.6485
-12.4779
-10.8031
-8.71769
-6.35737
-3.87883
-1.43814
0.828939
2.82222
4.48667
5.81559
6.84759
7.65845
8.34927
9.03268
9.8188
10.8028
12.0551
13.6151
15.4899
17.6558
20.0644
22.6515
25.3465
28.0825
30.8051
33.4776
36.0833
38.6237
41.112
43.5645
45.9885
48.3712
50.6679
52.7937
54.6198
55.9749
56.6549
56.4383
55.1099
52.4872
48.4486
42.9584
36.0841
28.0035
18.9987
9.43767
-0.256464
-9.64304
-18.3056
-25.8917
-32.1462
-36.935
-40.2551
-42.2325
-43.1058
-43.1982
-42.8793
-42.5154
-42.4119
-42.7469
-43.5001
-44.3862
-44.8047
-43.8252
-40.2281
-32.6192
-19.6236
-0.150383
26.3035
59.3596
97.537
138.164
177.468
210.863
233.417
240.439
228.114
194.089
137.914
61.2643
-32.0898
-136.576
-245.338
-350.917
-446
-524.148
-580.409
-611.759
-617.311
-598.287
-557.778
-500.319
-431.353
-356.646
-281.729
-211.414
-149.441
-98.2795
-59.074
-31.7409
-15.1734
-7.52197
-6.51014
-9.74328
-14.9793
-20.3361
-24.4221
-26.3882
-25.9066
-23.0926
-18.386
-12.4156
-5.86306
0.653618
6.66842
11.9187
16.3592
20.1432
23.5759
27.0531
30.9919
35.7674
41.6598
48.8207
57.2589
66.8468
77.3434
88.4305
99.7547
110.971
121.778
131.952
141.357
149.95
157.774
164.934
171.573
177.844
183.877
189.754
195.489
201.014
206.169
210.708
214.308
216.587
217.131
215.524
211.384
204.406
194.395
181.304
165.265
146.6
125.822
103.619
80.8083
58.2864
36.954
17.6419
1.03821
-12.373
-22.3533
-28.9272
-32.3712
-33.1782
-31.9993
-29.5719
-26.6409
-23.8851
-21.8537
-20.9225
-21.2722
-22.8912
-25.5992
-29.0887
-32.9768
-36.8599
-40.3647
-43.1881
-45.1236
-46.0716
-46.0347
-45.1008
-43.4187
-41.169
-38.5371
-35.6903
-32.7616
-29.8424
-26.9826
-24.197
-21.4767
-18.8023
-16.1565
-13.5344
-10.9494
-8.43518
-6.04222
-3.83135
-1.86439
-0.194102
1.14511
2.14441
2.82453
3.23604
3.45578
3.57987
3.71428
3.96412
4.42309
5.1648
6.23713
7.66047
9.43027
11.5232
13.9055
16.5428
19.4074
22.484
25.7708
29.2765
33.014
36.9915
41.2027
45.6188
50.1822
54.8045
59.3677
63.7293
67.73
71.202
73.9782
75.8997
76.8222
76.6214
75.1986
72.4858
68.4534
63.1178
56.5498
48.88
40.302
31.0686
21.4817
11.8753
2.59223
-6.0422
-13.7478
-20.314
-25.6181
-29.6361
-32.4421
-34.1979
-35.1304
-35.4967
-35.5368
-35.4143
-35.1467
-34.5355
-33.1075
-30.0871
-24.4224
-14.8833
-0.241148
20.4791
47.704
81.0246
118.979
158.965
197.332
229.659
251.207
257.498
244.918
211.279
156.233
81.4741
-9.30227
-110.695
-216.101
-318.375
-410.541
-486.493
-541.569
-572.966
-579.92
-563.676
-527.234
-474.939
-411.957
-343.717
-275.371
-211.354
-155.058
-108.655
-73.0779
-48.1283
-32.6885
-25.0016
-22.9727
-24.4568
-27.5011
-30.52
-32.3943
-32.4939
-30.6364
-26.9952
-21.9799
-16.1082
-9.88828
-3.72517
2.1384
7.64493
12.91
18.1817
23.7817
30.0383
37.2229
45.4998
54.8955
65.2914
76.4396
87.9982
99.5807
110.811
121.375
131.066
139.809
147.672
154.85
161.64
168.394
175.469
183.17
191.709
201.162
211.454
222.345
233.447
244.248
254.137
262.452
268.521
271.704
271.439
267.284
258.958
246.367
229.635
209.111
185.37
159.192
131.527
103.438
76.0308
50.3781
27.433
7.95593
-7.54722
-18.8627
-26.0794
-29.5703
-29.9449
-27.9809
-24.5405
-20.4828
-16.5809
-13.4543
-11.5218
-10.9802
-11.8085
-13.7972
-16.5961
-19.7747
-22.8885
-25.5405
-27.4332
-28.4038
-28.4391
-27.6692
-26.3418
-24.7809
-23.3361
-22.3297
-22.0089
-22.5098
-23.8373
-25.8642
-28.3483
-30.9651
-33.3503
-35.1477
-36.0531
-35.8514
-34.4396
-31.8361
-28.1731
-23.6773
-18.6391
-13.3774
-8.20365
-3.38986
0.856142
4.40541
7.21221
9.30856
10.7907
11.8
12.502
13.0652
13.6432
14.3618
15.3108
16.5423
18.0734
19.893
21.9701
24.2634
26.7297
29.3288
32.0259
34.7894
37.5847
40.3663
43.0695
45.6034
47.8495
49.6647
50.8911
51.3709
50.9652
49.5726
47.145
43.6984
39.3146
34.1362
28.3526
22.1817
15.8494
9.57017
3.53185
-2.1142
-7.25677
-11.8239
-15.7793
-19.1193
-21.8711
-24.0939
-25.8804
-27.3538
-28.6567
-29.9234
-31.234
-32.5504
-33.643
-34.0226
-32.9009
-29.2042
-21.6621
-8.98143
9.90211
35.5259
67.6069
104.816
144.683
183.685
217.518
241.559
251.432
243.617
215.991
168.218
101.921
20.6014
-70.6812
-165.828
-258.34
-341.989
-411.436
-462.715
-493.538
-503.393
-493.442
-466.259
-425.446
-375.195
-319.841
-263.472
-209.619
-161.043
-119.635
-86.4104
-61.5837
-44.6959
-34.7774
-30.5195
-30.4403
-33.0317
-36.881
-40.763
-43.7021
-45.0063
-44.2745
-41.3808
-36.4394
-29.7538
-21.7557
-12.9395
-3.79786
5.23583
13.8316
21.7909
29.0552
35.6966
41.8914
47.8822
53.9337
60.2893
67.134
74.5685
82.5976
91.1341
100.015
109.029
117.949
126.566
134.715
142.3
149.301
155.767
161.809
167.57
173.191
178.782
184.383
189.938
195.274
200.098
204.006
206.51
207.08
205.199
200.417
192.413
181.049
166.403
148.792
128.762
107.065
84.6011
62.3517
41.2946
22.3183
6.14105
-6.75307
-16.1557
-22.146
-25.073
-25.5082
-24.1769
-21.8743
-19.3786
-17.3696
-16.364
-16.6721
-18.3824
-21.3714
-25.3384
-29.8574
-34.4396
-38.5987
-41.9095
-44.0543
-44.8526
-44.2715
-42.4171
-39.5107
-35.8528
-31.7823
-27.6338
-23.7013
-20.2095
-17.2967
-15.0102
-13.3119
-12.0944
-11.2027
-10.4591
-9.68816
-8.73882
-7.50114
-5.917
-3.98393
-1.75245
0.68212
3.19202
5.63183
7.85407
9.72389
11.1319
12.0041
12.3088
12.0605
11.3202
10.193
8.82276
7.38315
6.06671
5.07105
4.58355
4.76564
5.73777
7.56694
10.2581
13.7506
17.921
22.5918
27.5452
32.5411
37.3358
41.7006
45.4354
48.3782
50.4082
51.4444
51.4401
50.3773
48.2604
45.1135
40.9799
35.925
30.0401
23.4471
16.3006
8.78724
1.12041
-6.4694
-13.7481
-20.4936
-26.5123
-31.6537
-35.8207
-38.9763
-41.1424
-42.3936
-42.8439
-42.6276
-41.8735
-40.6715
-39.0332
-36.8455
-33.8255
-29.4848
-23.1203
-13.8483
-0.698226
17.2272
40.5347
69.2911
102.79
139.382
176.433
210.433
237.278
252.703
252.813
234.631
196.594
138.897
63.6443
-25.2439
-122.349
-221.267
-315.247
-397.876
-463.719
-508.841
-531.146
-530.51
-508.684
-469.015
-416.011
-354.815
-290.659
-228.355
-171.881
-124.097
-86.6074
-59.7821
-42.8968
-34.3813
-32.1246
-33.7978
-37.1561
-40.2853
-41.773
-40.7934
-37.1068
-30.9862
-23.0887
-14.2954
-5.54292
2.33125
8.71156
13.2839
16.0659
17.3887
17.8371
18.1583
19.1537
21.568
25.9899
32.7773
42.0132
53.4987
66.781
81.2115
96.0267
110.44
123.731
135.329
144.866
152.21
157.465
160.937
163.088
164.458
165.595
166.974
168.937
171.644
175.053
178.922
182.828
186.222
188.479
188.972
187.138
182.54
174.916
164.213
150.599
134.457
116.357
97.0174
77.2467
57.884
39.7332
23.5021
9.75039
-1.15094
-9.04283
-13.9843
-16.2401
-16.252
-14.5947
-11.9225
-8.90979
-6.19088
-4.30606
-3.65714
-4.47769
-6.81992
-10.5595
-15.4168
-20.9929
-26.8148
-32.3865
-37.2392
-40.9767
-43.3102
-44.0808
-43.2671
-40.979
-37.4387
-32.9513
-27.8704
-22.5619
-17.3693
-12.5851
-8.43062
-5.04427
-2.48013
-0.714499
0.340693
0.819909
0.884008
0.700361
0.425035
0.188443
0.0853718
0.16976
0.454165
0.913466
1.49208
2.11381
2.69339
3.14869
3.4127
3.44434
3.23716
2.82508
2.2844
1.73155
1.31615
1.20983
1.5913
2.62906
4.46343
7.18989
10.8456
15.4005
20.7544
26.7394
33.1277
39.6438
45.9791
51.8077
56.8025
60.6508
63.0694
63.819
62.7201
59.668
54.6486
47.7524
39.1839
29.2639
18.4223
7.17798
-3.8935
-14.2033
-23.2
-30.4227
-35.5492
-38.4332
-39.1252
-37.8723
-35.0975
-31.3582
-27.289
-23.5355
-20.683
-19.1869
-19.3087
-21.058
-24.1451
-27.9468
-31.495
-33.5001
-32.4274
-26.6397
-14.6116
4.79368
32.0169
66.5167
106.566
149.198
190.336
225.135
248.496
255.698
243.055
208.493
151.956
75.5751
-16.4446
-118.196
-222.66
-322.433
-410.497
-480.927
-529.46
-553.851
-553.995
-531.799
-490.85
-435.93
-372.439
-305.814
-240.999
-182.031
-131.773
-91.8083
-62.4855
-43.0927
-32.1206
-27.5714
-27.2715
-29.1492
-31.4506
-32.878
-32.6458
-30.4628
-26.4533
-21.0398
-14.8082
-8.37514
-2.27628
3.11438
7.62818
11.3084
14.3847
17.2231
20.2627
23.9477
28.6659
34.6988
42.1904
51.1346
61.3816
72.6601
84.6126
96.8371
108.932
120.539
131.379
141.28
150.187
158.166
165.379
172.063
178.482
184.883
191.445
198.244
205.213
212.134
218.639
224.233
228.336
230.339
229.667
225.842
218.539
207.632
193.217
175.617
155.372
133.205
109.971
86.5966
64.0176
43.1068
24.6123
9.10283
-3.07086
-11.7969
-17.2027
-19.634
-19.6157
-17.7973
-14.8886
-11.5934
-8.5462
-6.26006
-5.08954
-5.21237
-6.63047
-9.18922
-12.6114
-16.5411
-20.5919
-24.3936
-27.6326
-30.0813
-31.6146
-32.2136
-31.955
-30.9916
-29.5247
-27.7744
-25.9497
-24.2239
-22.7171
-21.4867
-20.5277
-19.7808
-19.1474
-18.5085
-17.7444
-16.7536
-15.4674
-13.8596
-11.9494
-9.79837
-7.50166
-5.17524
-2.94078
-0.910143
0.828556
2.2217
3.25662
3.96312
4.41007
4.69769
4.94656
5.28475
5.83463
6.70084
7.9607
9.65811
11.8012
14.3641
17.2916
20.507
23.9209
27.4403
30.977
34.4542
37.8105
41.002
44.0014
46.7949
49.3773
51.7447
53.8861
55.7728
57.3493
58.5248
59.17
59.1202
58.1864
56.1754
52.9155
48.2869
42.2492
34.8644
26.3079
16.866
6.91977
-3.08628
-12.684
-21.4274
-28.9369
-34.9381
-39.2883
-41.9898
-43.1862
-43.1449
-42.2249
-40.8333
-39.3719
-38.1767
-37.4504
-37.1937
-37.1403
-36.7071
-34.9768
-30.731
-22.5536
-9.01324
11.077
38.3509
72.5768
112.406
155.246
197.324
233.949
259.986
270.464
261.263
229.742
175.233
99.3044
5.74455
-99.7366
-210.052
-317.455
-414.339
-494.009
-551.332
-583.206
-588.772
-569.389
-528.364
-470.507
-401.555
-327.553
-254.257
-186.624
-128.445
-82.125
-48.6434
-27.6567
-17.7287
-16.6415
-21.7441
-30.2964
-39.7707
-48.0843
-53.7464
-55.9168
-54.3816
-49.4614
-41.8732
-32.5677
-22.5646
-12.8053
-4.03669
3.26526
8.92836
13.0765
16.0868
18.5211
21.0412
24.3204
28.959
35.415
43.9539
54.6236
67.2538
81.4799
96.7856
112.562
128.17
143.007
156.564
168.469
178.512
186.653
193.01
197.822
201.411
204.129
206.301
208.179
209.908
211.502
212.84
213.685
213.704
212.514
209.727
204.99
198.029
188.678
176.904
162.815
146.66
128.825
109.808
90.1937
70.6196
51.7319
34.1428
18.3856
4.87548
-6.12199
-14.5093
-20.3611
-23.9126
-25.5334
-25.6885
-24.8926
-23.6599
-22.4578
-21.6672
-21.5541
-22.2546
-23.7744
-26.0017
-28.7311
-31.6948
-34.5987
-37.1567
-39.1228
-40.315
-40.6311
-40.0538
-38.6478
-36.5465
-33.9336
-31.0201
-28.0205
-25.1298
-22.5049
-20.2514
-18.4169
-16.9918
-15.9158
-15.0907
-14.3957
-13.705
-12.9042
-11.9039
-10.6499
-9.12696
-7.35791
-5.39759
-3.3229
-1.22074
0.824607
2.74263
4.48503
6.03024
7.38366
8.57375
9.64478
10.6475
11.6293
12.6254
13.6526
14.7066
15.7632
16.7832
17.7202
18.531
19.1852
19.6742
20.018
20.2685
20.5078
20.8444
21.4036
22.3158
23.7024
25.6605
28.2474
31.4672
35.2578
39.4836
43.9313
48.3135
52.2811
55.4443
57.4038
57.7894
56.3021
52.7551
47.1066
39.4804
30.1684
19.6138
8.37502
-2.92595
-13.6648
-23.2793
-31.3281
-37.5376
-41.8304
-44.3313
-45.3501
-45.3396
-44.8338
-44.3663
-44.3769
-45.1122
-46.5298
-48.2206
-49.3665
-48.7527
-44.8539
-36.0046
-20.6519
2.33103
33.3114
71.6016
115.267
161.097
204.769
241.225
265.209
271.909
257.619
220.297
159.961
78.8379
-18.7544
-126.775
-238.039
-344.925
-440.129
-517.361
-571.923
-601.093
-604.285
-582.991
-540.511
-481.525
-411.559
-336.415
-261.623
-191.973
-131.172
-81.6418
-44.4685
-19.4904
-5.50103
-0.529216
-2.15813
-7.84442
-15.2026
-22.2287
-27.4472
-29.9748
-29.5068
-26.2373
-20.7323
-13.7772
-6.22133
1.16239
7.78552
13.3111
17.6758
21.07
23.8831
26.6267
29.8469
34.0416
39.5919
46.7168
55.4558
65.6785
77.1173
89.4169
102.192
115.08
127.792
140.135
152.031
163.498
174.63
185.557
196.399
207.226
218.021
228.662
238.906
248.401
256.707
263.327
267.747
269.479
268.105
263.314
254.931
242.938
227.485
208.887
187.617
164.284
139.612
114.403
89.4982
65.7291
43.8719
24.5959
8.41747
-4.33794
-13.5612
-19.3682
-22.0902
-22.2444
-20.4872
-17.5553
-14.1983
-11.1123
-8.8799
-7.9233
-8.47556
-10.572
-14.0624
-18.6407
-23.8895
-29.3328
-34.4904
-38.9296
-42.3075
-44.3999
-45.1161
-44.4973
-42.7021
-39.9791
-36.6335
-32.9899
-29.3559
-25.9919
-23.088
-20.7516
-19.0054
-17.795
-17.0054
-16.4824
-16.0572
-15.5696
-14.8888
-13.9277
-12.6507
-11.0738
-9.25782
-7.29659
-5.30089
-3.382
-1.63616
-0.132437
1.09469
2.04732
2.7608
3.29599
3.72861
4.13746
4.59355
5.15155
5.84505
6.68584
7.66735
8.77103
9.97455
11.26
12.6209
14.0657
15.6189
17.3178
19.2068
21.3296
23.7214
26.402
29.3702
32.6017
36.0487
39.6415
43.2911
46.8914
50.3218
53.4472
56.1196
58.1783
59.4528
59.7681
58.9532
56.8547
53.3518
48.374
41.9176
34.0588
24.9607
14.8718
4.11625
-6.92557
-17.8433
-28.2276
-37.7027
-45.9559
-52.7616
-57.9952
-61.636
-63.7555
-64.4906
-64.0019
-62.4172
-59.7658
-55.9117
-50.4993
-42.9294
-32.3852
-17.9254
1.35133
26.0771
56.3527
91.4968
129.865
168.794
204.705
233.389
250.443
251.805
234.322
196.247
137.608
60.3602
-31.6813
-133.143
-237.582
-338.102
-428.025
-501.522
-554.15
-583.225
-587.996
-569.628
-530.981
-476.251
-410.492
-339.105
-267.326
-199.784
-140.159
-90.9629
-53.4673
-27.7513
-12.8666
-7.07963
-8.16132
-13.6855
-21.3047
-28.9763
-35.1215
-38.7099
-39.2695
-36.8319
-31.8287
-24.9559
-17.0277
-8.83746
-1.04176
5.92155
11.8752
16.9036
21.3173
25.5897
30.2754
35.9242
43.0006
51.8186
62.5004
74.9605
88.9163
103.922
119.423
134.816
149.517
163.026
174.976
185.167
193.582
200.376
205.853
210.412
214.494
218.515
222.804
227.553
232.773
238.282
243.706
248.509
252.039
253.594
252.497
248.165
240.177
228.328
212.658
193.47
171.311
146.943
121.291
95.3747
70.2299
46.8318
26.0165
8.41739
-5.58161
-15.8699
-22.6081
-26.2004
-27.2446
-26.465
-24.6366
-22.5079
-20.732
-19.8118
-20.0657
-21.6148
-24.3922
-28.1704
-32.6035
-37.2763
-41.7557
-45.6376
-48.5856
-50.3583
-50.8234
-49.9597
-47.8486
-44.6571
-40.616
-35.9953
-31.0811
-26.1535
-21.4697
-17.2501
-13.6688
-10.8481
-8.85485
-7.69944
-7.33614
-7.66569
-8.54019
-9.77094
-11.1398
-12.4138
-13.363
-13.7795
-13.4965
-12.4057
-10.4693
-7.72748
-4.29714
-0.36438
3.83061
8.01406
11.903
15.2313
17.776
19.381
19.9763
19.5923
18.3651
16.5327
14.4213
12.4202
10.9488
10.4161
11.1783
13.4979
17.5102
23.2002
30.394
38.7661
47.8616
57.1313
65.9763
73.7971
80.043
84.2573
86.1134
85.441
82.238
76.6689
69.0493
59.8179
49.4982
38.654
27.8422
17.5673
8.24223
0.15918
-6.52695
-11.8006
-15.7733
-18.6592
-20.7408
-22.3288
-23.7223
-25.1715
-26.8484
-28.8262
-31.0684
-33.4238
-35.624
-37.2793
-37.872
-36.749
-33.1253
-26.1122
-14.7864
1.6874
23.8798
51.8842
85.1019
122.072
160.401
196.827
227.45
248.105
254.856
244.518
215.156
166.456
99.9142
18.8058
-72.0716
-166.852
-259.191
-342.912
-412.635
-464.291
-495.485
-505.646
-495.973
-469.187
-429.138
-380.314
-327.329
-274.447
-225.2
-182.13
-146.679
-119.218
-99.1984
-85.3869
-76.1507
-69.7419
-64.5503
-59.2957
-53.1427
-45.7347
-37.1551
-27.8313
-18.403
-9.5784
-1.99944
3.86683
7.79918
9.85123
10.3398
9.79897
8.90966
8.41541
9.03608
11.3892
15.927
22.8944
32.3117
43.9803
57.5116
72.3723
87.9435
103.584
118.693
132.768
145.443
156.518
165.966
173.915
180.625
186.441
191.74
196.879
202.144
207.711
213.616
219.747
225.843
231.518
236.29
239.625
240.979
239.847
235.805
228.554
217.944
204
186.931
167.134
145.178
121.782
97.7734
74.0408
51.4722
30.8908
12.9911
-1.71749
-12.9523
-20.6792
-25.1111
-26.6821
-25.9996
-23.7796
-20.7729
-17.6894
-15.1309
-13.5385
-13.1606
-14.0446
-16.0515
-18.8906
-22.1687
-25.4482
-28.3045
-30.3779
-31.4128
-31.2821
-29.9928
-27.6759
-24.562
-20.9466
-17.1512
-13.4844
-10.2082
-7.51299
-5.50399
-4.19898
-3.5372
-3.39678
-3.61778
-4.02719
-4.46254
-4.79111
-4.92279
-4.81544
-4.47308
-3.93778
-3.27721
-2.56992
-1.89074
-1.29829
-0.826131
-0.478397
-0.230097
-0.0316053
0.183691
0.489923
0.9589
1.65128
2.60985
3.85566
5.38729
7.18302
9.20561
11.4086
13.7432
16.1651
18.6399
21.1458
23.6746
26.2292
28.8188
31.4524
34.1309
36.8394
39.541
42.1729
44.6457
46.8464
48.645
49.9039
50.4904
50.2884
49.2109
47.2098
44.2826
40.4754
35.8817
30.6365
24.9068
18.8796
12.7472
6.6934
0.879637
-4.56603
-9.55673
-14.0508
-18.0515
-21.6028
-24.7814
-27.6849
-30.4149
-33.0558
-35.6457
-38.1381
-40.3575
-41.9483
-42.331
-40.6773
-35.9263
-26.8599
-12.2536
8.9004
37.1182
72.1387
112.686
156.344
199.594
238.041
266.833
281.213
277.144
251.907
204.577
136.302
50.3301
-48.2331
-152.893
-256.419
-351.583
-431.896
-492.243
-529.355
-542.048
-531.236
-499.705
-451.71
-392.444
-327.455
-262.07
-200.912
-147.535
-104.216
-71.9088
-50.349
-38.2728
-33.7186
-34.3609
-37.8348
-42.0148
-45.2195
-46.3292
-44.8138
-40.6805
-34.3597
-26.5525
-18.0667
-9.66401
-1.93847
4.76049
10.356
15.0245
19.1379
23.181
27.6584
33.0087
39.5365
47.373
56.4687
66.6162
77.4965
88.7387
99.9831
110.934
121.397
131.292
140.651
149.583
158.243
166.785
175.321
183.891
192.448
200.858
208.914
216.357
222.906
228.282
232.229
234.524
234.98
233.445
229.791
223.917
215.747
205.243
192.42
177.365
160.267
141.426
121.269
100.339
79.2797
58.7947
39.6016
22.372
7.6727
-4.08935
-12.7082
-18.2024
-20.8152
-20.9924
-19.3378
-16.553
-13.3675
-10.4669
-8.42947
-7.67597
-8.43922
-10.7555
-14.4772
-19.3029
-24.8213
-30.5615
-36.0443
-40.8294
-44.5535
-46.958
-47.9032
-47.3709
-45.4556
-42.3463
-38.3021
-33.6242
-28.6273
-23.6123
-18.8438
-14.5332
-10.8283
-7.80997
-5.49517
-3.84524
-2.77822
-2.18322
-1.9353
-1.90919
-1.99072
-2.08512
-2.12197
-2.05682
-1.86992
-1.56276
-1.15305
-0.668912
-0.142853
0.393758
0.915434
1.40605
1.86094
2.28743
2.70394
3.1379
3.62261
4.19368
4.88542
5.72768
6.74355
7.94827
9.34935
10.9479
12.7405
14.7214
16.8842
19.2219
21.726
24.3837
27.1732
30.0593
32.9885
35.8855
38.6522
41.1686
43.2974
44.8905
45.7987
45.8824
45.0234
43.1369
40.1827
36.1732
31.1789
25.3292
18.8072
11.8398
4.68283
-2.39774
-9.14668
-15.3401
-20.8038
-25.4279
-29.1748
-32.0814
-34.2524
-35.8458
-37.0477
-38.0371
-38.938
-39.762
-40.3443
-40.284
-38.9016
-35.2343
-28.0877
-16.1592
1.76326
26.5397
58.3867
96.608
139.406
183.83
225.907
260.956
284.068
290.696
277.262
241.706
183.869
105.665
11.0021
-94.5425
-204.246
-310.899
-407.512
-487.975
-547.608
-583.527
-594.809
-582.445
-549.108
-498.775
-436.268
-366.751
-295.263
-226.308
-163.555
-109.649
-66.1391
-33.5217
-11.3675
1.48518
6.70217
6.21732
2.01163
-4.07334
-10.4755
-16
-19.855
-21.6401
-21.2971
-19.0339
-15.2334
-10.3596
-4.87122
0.848767
6.54105
12.093
17.5366
23.0238
28.7855
35.0812
42.1474
50.1525
59.166
69.1433
79.9311
91.2879
102.917
114.507
125.765
136.455
146.41
155.541
163.831
171.314
178.05
184.098
189.491
194.215
198.199
201.321
203.414
204.286
203.747
201.629
197.807
192.217
184.853
175.775
165.096
152.971
139.596
125.192
110.012
94.3369
78.4785
62.7777
47.5964
33.3023
20.2455
8.73019
-1.01577
-8.86662
-14.8163
-18.983
-21.599
-22.9856
-23.5178
-23.5809
-23.5274
-23.6387
-24.0979
-24.9764
-26.2357
-27.7446
-29.3068
-30.6965
-31.6958
-32.1279
-31.8835
-30.9352
-29.3406
-27.2321
-24.7973
-22.2528
-19.8142
-17.6684
-15.9503
-14.728
-13.997
-13.6849
-13.6646
-13.7743
-13.8411
-13.7053
-13.2414
-12.3736
-11.0844
-9.41459
-7.45559
-5.33602
-3.20373
-1.20634
0.527117
1.90143
2.86551
3.41687
3.59999
3.49916
3.22682
2.90906
2.67
2.61711
2.8294
3.34978
4.18298
5.29898
6.64184
8.14262
9.7345
11.368
13.0235
14.7199
16.5165
18.5085
20.8156
23.5657
26.8742
30.8229
35.44
40.6838
46.4323
52.4805
58.5447
64.2761
69.2817
73.1523
75.4965
75.9767
74.345
70.4748
64.3836
56.2438
46.379
35.2442
23.392
11.4272
-0.0462961
-10.4785
-19.4229
-26.5746
-31.7946
-35.1157
-36.7316
-36.9698
-36.2523
-35.0468
-33.8149
-32.9568
-32.7564
-33.3246
-34.5436
-36.0146
-37.0185
-36.5061
-33.137
-25.3868
-11.7368
9.05995
37.6622
73.8215
116.128
161.888
207.19
247.185
276.562
290.173
283.718
254.383
201.335
125.992
32.0165
-74.9676
-187.905
-299.016
-400.585
-485.739
-549.107
-587.307
-599.182
-585.799
-550.21
-497.013
-431.792
-360.498
-288.845
-221.793
-163.16
-115.398
-79.5427
-55.3134
-41.3494
-35.5275
-35.3219
-38.1568
-41.7122
-44.1546
-44.2727
-41.5176
-35.9532
-28.1368
-18.9531
-9.42945
-0.557406
6.85655
12.2967
15.5919
16.9169
16.7487
15.7882
14.8612
14.8142
16.4165
20.2796
26.801
36.1341
48.1858
62.6384
78.9903
96.6112
114.804
132.869
150.158
166.128
180.368
192.624
202.796
210.924
217.164
221.752
224.96
227.06
228.285
228.802
228.689
227.933
226.425
223.98
220.352
215.266
208.446
199.648
188.696
175.514
160.149
142.796
123.8
103.656
82.9857
62.4962
42.9327
25.0124
9.3586
-3.5635
-13.4976
-20.4278
-24.5836
-26.4168
-26.5512
-25.7091
-24.6252
-23.9577
-24.2089
-25.6665
-28.374
-32.1344
-36.5465
-41.0685
-45.0996
-48.0682
-49.5133
-49.1494
-46.9048
-42.9313
-37.5825
-31.3669
-24.8825
-18.7425
-13.5013
-9.59194
-7.28048
-6.64321
-7.56754
-9.77511
-12.8629
-16.3562
-19.7659
-22.6437
-24.6283
-25.4784
-25.0892
-23.4925
-20.8412
-17.3815
-13.4172
-9.27081
-5.24585
-1.59504
1.50293
3.95594
5.75979
6.98919
7.78016
8.30678
8.75536
9.29951
10.079
11.1848
12.6519
14.4599
16.5417
18.797
21.1111
23.3735
25.4958
27.4257
29.1555
30.7237
32.2103
33.7259
35.3958
37.3412
39.659
42.4037
45.5713
49.0888
52.8092
56.5137
59.9216
62.7073
64.5257
65.0425
63.968
61.0925
56.3162
49.6731
41.3429
31.6493
21.0434
10.0716
-0.667469
-10.5764
-19.1143
-25.8516
-30.515
-33.0205
-33.4878
-32.2344
-29.7481
-26.6382
-23.5671
-21.1664
-19.94
-20.1631
-21.7851
-24.3512
-26.9602
-28.2806
-26.643
-20.2219
-7.3034
13.3838
42.3193
78.8845
121.165
165.927
208.789
244.617
268.077
274.303
259.559
221.825
161.185
79.9778
-17.3385
-124.583
-234.465
-339.328
-431.935
-506.189
-557.698
-584.136
-585.351
-563.238
-521.4
-464.656
-398.474
-328.388
-259.477
-195.956
-140.902
-96.1491
-62.3104
-38.9368
-24.7546
-17.9515
-16.4688
-18.2658
-21.5312
-24.8256
-27.1522
-27.9593
-27.0881
-24.683
-21.0822
-16.7078
-11.9681
-7.18375
-2.54189
1.92005
6.30481
10.8253
15.7612
21.4098
28.0377
35.8398
44.9088
55.2199
66.6295
78.8888
91.6699
104.601
117.307
129.45
140.768
151.102
160.416
168.799
176.456
183.674
190.79
198.137
205.996
214.539
223.796
233.623
243.695
253.513
262.44
269.745
274.666
276.477
274.556
268.448
257.916
242.97
223.884
201.19
175.651
148.214
119.954
91.9962
65.4465
41.3084
20.4149
3.37001
-9.49069
-18.1182
-22.7437
-23.8487
-22.1145
-18.3554
-13.4427
-8.22703
-3.46662
0.231512
2.45193
2.98936
1.84472
-0.799574
-4.62087
-9.20798
-14.1162
-18.9192
-23.2504
-26.8327
-29.4913
-31.1527
-31.8327
-31.6147
-30.6259
-29.0138
-26.9258
-24.4964
-21.8403
-19.0518
-16.2087
-13.3798
-10.6306
-8.02951
-5.64886
-3.56383
-1.84733
-0.562848
0.243505
0.550168
0.365232
-0.271525
-1.29002
-2.59449
-4.07065
-5.59432
-7.04032
-8.29043
-9.23928
-9.7978
-9.89385
-9.4709
-8.48542
-6.90459
-4.7054
-1.8762
1.57902
5.63404
10.2325
15.2807
20.6427
26.1398
31.5568
36.6547
41.1903
44.9418
47.7355
49.472
50.1455
49.8525
48.7872
47.2225
45.4769
43.8735
42.6948
42.141
42.2981
43.1215
44.4368
45.9586
47.3245
48.1384
48.018
46.6388
43.7702
39.299
33.2391
25.7283
17.0128
7.42439
-2.64781
-12.7867
-22.5756
-31.6235
-39.5859
-46.1802
-51.1939
-54.4853
-55.9706
-55.5976
-53.303
-48.9559
-42.298
-32.8966
-20.1332
-3.24997
18.5305
45.8133
78.7888
116.982
159.054
202.704
244.736
281.285
308.212
321.599
318.285
296.352
255.478
197.105
124.377
124.377
124.377
124.377
124.377
124.377
124.377
124.377
124.377
124.377
124.377
124.377
124.377
124.377
124.377
124.377
124.377
124.377
124.377
124.377
124.377
124.377
124.377
124.377
124.377
124.377
124.377
124.377
124.377
124.377
124.377
124.377
