70.8069
74.0861
77.9171
82.2264
86.8913
91.7426
96.5714
101.14
105.192
108.471
110.734
111.764
111.387
109.484
105.997
100.94
94.3959
86.5208
77.5351
67.7148
57.378
46.8673
36.5295
26.6933
17.6481
9.62322
2.77229
-2.83696
-7.22603
-10.5011
-12.8411
-14.4794
-15.6802
-16.7133
-17.8278
-19.2291
-21.0597
-23.3876
-26.2015
-29.4144
-32.8746
-36.3832
-39.715
-42.6425
-44.9584
-46.4954
-47.1416
-46.8486
-45.6335
-43.574
-40.7983
-37.4699
-33.7715
-29.888
-25.9911
-22.2276
-18.7108
-15.5173
-12.6873
-10.2288
-8.12501
-6.34188
-4.83714
-3.56778
-2.49599
-1.59288
-0.839859
-0.227719
0.245873
0.579965
0.774171
0.832077
0.763675
0.586486
0.325271
0.0104797
-0.324275
-0.645296
-0.921988
-1.12972
-1.25198
-1.28164
-1.22112
-1.08159
-0.8812
-0.642732
-0.3909
-0.149607
0.0604874
0.223865
0.331329
0.380388
0.374867
0.323858
0.240175
0.138554
0.0338262
-0.060674
-0.134259
-0.179393
-0.19143
-0.167527
-0.104823
0.00184241
0.162251
0.392568
0.715929
1.16136
1.76077
2.54422
3.53385
4.73756
6.14329
7.71532
9.39327
11.0948
12.7218
14.1707
15.3442
16.1658
16.5925
16.6264
16.3216
15.7862
15.1779
14.6938
14.5546
14.9847
16.1904
18.3387
21.5379
25.823
31.1464
37.3759
44.2982
51.63
59.0326
66.1325
72.5428
77.8868
81.8212
84.0584
84.3862
82.6849
78.9393
73.2451
65.8085
56.9376
47.0252
36.5245
25.9178
15.6819
6.25167
-2.01227
-8.85117
-14.1259
-17.8238
-20.0524
-21.0202
-21.0044
-20.3056
-19.1929
-17.8399
-16.259
-14.239
-11.2964
-6.65232
0.752571
12.1917
29.0272
52.5226
83.6045
122.596
168.958
221.092
276.253
330.611
379.503
417.853
440.738
444.024
424.981
382.783
318.806
236.661
141.935
41.6709
-56.3619
-144.508
-216.067
-266.024
-291.577
-292.396
-270.574
-230.312
-177.355
-118.279
-59.724
-7.65637
33.2373
59.9665
71.4243
68.3393
53.017
28.9177
0.136068
-29.1462
-55.1653
-74.9819
-86.7465
-89.8077
-84.6629
-72.7742
-56.2846
-37.6804
-19.4452
-3.75077
7.78235
14.2314
15.4161
11.8473
4.59465
-4.90077
-15.0414
-24.2854
-31.3298
-35.2468
-35.5589
-32.2508
-25.724
-16.7033
-6.11364
5.05528
15.8781
25.6009
33.7142
39.9871
44.4607
47.4068
49.2601
50.5367
51.7507
53.3394
55.6089
58.7025
62.5957
67.1155
71.9787
76.8416
81.3546
85.2124
88.1947
90.1919
91.2142
91.3844
90.9166
90.0842
89.1828
88.4916
88.2385
88.5728
89.5462
91.1054
93.094
95.265
97.301
98.8406
99.5106
98.9588
96.8879
93.0862
87.4525
80.0133
70.9289
60.4885
49.0922
37.2226
25.4068
14.1735
4.00916
-4.68307
-11.6157
-16.6382
-19.7446
-21.0664
-20.8527
-19.4388
-17.2089
-14.5553
-11.8407
-9.36575
-7.34688
-5.90451
-5.06322
-4.76225
-4.87446
-5.23069
-5.64607
-5.94513
-5.9827
-5.65869
-4.92561
-3.78893
-2.30114
-0.551028
1.3497
3.28073
5.12641
6.7868
8.18542
9.27361
10.0313
10.465
10.6033
10.4909
10.1823
9.73517
9.20462
8.63838
8.0736
7.53508
7.03495
6.5739
6.14334
5.7284
5.31127
4.87442
4.40334
3.88846
3.32601
2.71777
2.0698
1.39049
0.68824
-0.0306915
-0.763786
-1.51303
-2.28466
-3.08789
-3.93281
-4.8277
-5.77612
-6.77423
-7.80879
-8.85611
-9.88249
-10.846
-11.7
-12.397
-12.8946
-13.1598
-13.1736
-12.9343
-12.4582
-11.7789
-10.9441
-10.0107
-9.0388
-8.08559
-7.19888
-6.41255
-5.74347
-5.19057
-4.73617
-4.3493
-3.99047
-3.61727
-3.18989
-2.67595
-2.05379
-1.31392
-0.458401
0.501752
1.5511
2.67576
3.87043
5.14571
6.53471
8.09732
9.92101
12.1164
14.8071
18.1136
22.1323
26.912
32.43
38.5719
45.1185
51.743
58.0215
63.4587
67.5266
69.7145
69.5853
66.8305
61.3171
53.119
42.5274
30.0382
16.3153
2.13406
-11.6876
-24.3639
-35.2114
-43.7065
-49.5241
-52.5526
-52.8845
-50.7827
-46.6266
-40.841
-33.815
-25.8152
-16.9027
-6.86202
4.84362
19.0777
36.9781
59.8358
88.8984
125.109
168.808
219.445
275.352
333.655
390.347
440.573
479.099
500.922
501.944
479.611
433.406
365.118
278.826
180.579
77.812
-21.4401
-109.424
-179.524
-226.991
-249.431
-247.017
-222.378
-180.211
-126.657
-68.5378
-12.5569
35.4451
71.0805
91.7942
96.9991
87.9665
67.5058
39.4868
8.2768
-21.8314
-47.1306
-64.8917
-73.5997
-73.019
-64.0959
-48.7245
-29.4188
-8.94067
10.0669
25.3953
35.5011
39.631
37.8371
30.8915
20.1199
7.18587
-6.14455
-18.2253
-27.7142
-33.6996
-35.7609
-33.9616
-28.7847
-21.0237
-11.6482
-1.66234
8.023
16.6925
23.891
29.4464
33.4535
36.2228
38.207
39.9156
41.8311
44.3378
47.6718
51.897
56.9074
62.4537
68.1877
73.717
78.6613
82.7035
85.6277
87.3414
87.8804
87.3954
86.1258
84.3638
82.4136
80.5517
78.9922
77.8612
77.1814
76.8686
76.74
76.5327
75.9301
74.5953
72.2069
68.4951
63.2734
56.4644
48.1147
38.3988
27.6101
16.1393
4.44371
-6.99142
-17.6936
-27.2426
-35.3041
-41.6533
-46.1884
-48.9294
-50.0069
-49.6398
-48.1069
-45.7167
-42.7767
-39.5696
-36.3351
-33.2607
-30.4795
-28.0749
-26.0876
-24.5246
-23.3665
-22.572
-22.0802
-21.8103
-21.6619
-21.5164
-21.2417
-20.701
-19.7647
-18.3251
-16.3104
-13.6975
-10.5197
-6.86881
-2.89018
1.22883
5.27555
9.03207
12.2961
14.9
16.726
17.7149
17.8695
17.2496
15.9629
14.1508
11.9715
9.58387
7.13232
4.73582
2.48112
0.421196
-1.42175
-3.04965
-4.47974
-5.73522
-6.83697
-7.79758
-8.61852
-9.29052
-9.79685
-10.1185
-10.2403
-10.1563
-9.87384
-9.41519
-8.81714
-8.12789
-7.40248
-6.69735
-6.0647
-5.5476
-5.17625
-4.96578
-4.91546
-5.0094
-5.21832
-5.50222
-5.81366
-6.10159
-6.31542
-6.4092
-6.34571
-6.1001
-5.6628
-5.04122
-4.25997
-3.35941
-2.39218
-1.41828
-0.498718
0.311282
0.968978
1.44978
1.75132
1.89564
1.92936
1.92239
1.96546
2.16707
2.6498
3.546
4.99217
7.1217
10.0556
13.8917
18.6923
24.4726
31.1901
38.7376
46.9399
55.5564
64.2883
72.7916
80.6933
87.6122
93.1806
97.0679
99.0034
98.7975
96.36
91.713
84.9982
76.4748
66.5094
55.5556
44.1258
32.7559
21.9667
12.2264
3.91732
-2.6881
-7.44053
-10.3137
-11.3924
-10.8488
-8.91026
-5.81834
-1.78077
3.08391
8.80743
15.6338
24.0727
34.9286
49.2868
68.4371
93.7216
126.308
166.902
215.447
270.849
330.809
391.802
449.249
497.899
532.372
547.816
540.581
508.802
452.808
375.27
281.056
176.799
70.2364
-30.6154
-118.321
-186.825
-232.077
-252.41
-248.638
-223.851
-182.962
-132.07
-77.715
-26.1338
17.3982
49.0664
66.8074
70.3719
61.1715
41.9437
16.2936
-11.8235
-38.6098
-60.8629
-76.2972
-83.7217
-83.0656
-75.265
-62.0378
-45.5861
-28.2703
-12.2981
0.535184
9.02718
12.657
11.5796
6.53635
-1.29677
-10.5002
-19.6111
-27.3089
-32.5629
-34.729
-33.5879
-29.3261
-22.469
-13.7773
-4.12572
5.62087
14.7165
22.6163
29.024
33.9006
37.4377
40.0018
42.0596
44.0968
46.5414
49.7024
53.7316
58.6101
64.1624
70.0903
76.0241
81.5787
86.4101
90.2618
92.9962
94.6089
95.2227
95.066
94.4371
93.6611
93.045
92.8362
93.1899
94.1487
95.6346
97.4572
99.332
100.911
101.818
101.689
100.21
97.15
92.3875
85.9262
77.8988
68.5597
58.2656
47.4472
36.5737
26.113
16.4927
8.06465
1.07669
-4.34445
-8.19869
-10.6053
-11.7842
-12.0281
-11.6688
-11.0415
-10.4511
-10.1441
-10.288
-10.9612
-12.1531
-13.7729
-15.6666
-17.6396
-19.4807
-20.9868
-21.984
-22.3441
-21.995
-20.9247
-19.1783
-16.8499
-14.0696
-10.9886
-7.76242
-4.53634
-1.43251
1.45879
4.08339
6.42294
8.49024
10.3213
11.9649
13.4721
14.8857
16.2319
17.5155
18.7171
19.7951
20.6894
21.3279
21.6343
21.5362
20.9735
19.9065
18.3223
16.2399
13.7134
10.832
7.71713
4.51564
1.39039
-1.49234
-3.97681
-5.93206
-7.26491
-7.93006
-7.93617
-7.34695
-6.27694
-4.88233
-3.34753
-1.86886
-0.637042
0.179851
0.451271
0.0955351
-0.913316
-2.5436
-4.70902
-7.27623
-10.0761
-12.9177
-15.6039
-17.947
-19.7834
-20.9862
-21.4743
-21.2176
-20.2384
-18.608
-16.4403
-13.8814
-11.0984
-8.26618
-5.55471
-3.11807
-1.08502
0.447364
1.41706
1.79755
1.59593
0.849772
-0.376291
-1.99307
-3.88779
-5.92349
-7.93742
-9.73971
-11.114
-11.8219
-11.612
-10.235
-7.46384
-3.11766
2.91258
10.6398
19.9609
30.6449
42.3304
54.5351
66.6772
78.1083
88.1559
96.1716
101.583
103.943
102.972
98.5933
90.946
80.387
67.4705
52.9105
37.5276
22.1857
7.72436
-5.10602
-15.699
-23.6317
-28.6841
-30.8373
-30.2496
-27.2142
-22.1015
-15.2911
-7.09913
2.29457
12.912
25.0278
39.1948
56.2305
77.1523
103.049
134.891
173.285
218.206
268.753
322.975
377.826
429.286
472.669
503.093
516.067
508.115
477.341
423.846
349.911
259.916
159.984
57.3789
-40.2464
-125.677
-192.911
-237.8
-258.451
-255.369
-231.311
-190.887
-139.969
-84.9778
-32.1576
13.0885
46.7186
66.3782
71.5054
63.2222
44.0385
17.4228
-12.699
-42.4508
-68.4552
-88.1782
-100.136
-103.953
-100.277
-90.5822
-76.885
-61.4301
-46.3792
-33.5457
-24.2029
-18.9819
-17.8631
-20.2518
-25.12
-31.1891
-37.1257
-41.7252
-44.0599
-43.5762
-40.1342
-33.9897
-25.7259
-16.1488
-6.16262
3.35699
11.6753
18.283
22.9447
25.7069
26.8685
26.9206
26.4654
26.1271
26.4668
27.9127
30.7138
34.9213
40.3973
46.8491
53.8803
61.0522
67.9441
74.2061
79.5968
84.0014
87.4316
90.0072
91.9248
93.4192
94.7229
96.0307
97.4715
99.0921
100.852
102.632
104.243
105.455
106.016
105.68
104.225
101.481
97.3378
91.7605
84.7952
76.5694
67.2875
57.2212
46.6938
36.0607
25.6854
15.914
7.05065
-0.665589
-7.07755
-12.1206
-15.8246
-18.3079
-19.7622
-20.4323
-20.5908
-20.511
-20.4411
-20.5825
-21.0733
-21.9793
-23.2926
-24.9389
-26.7896
-28.6806
-30.4325
-31.8718
-32.8501
-33.2595
-33.0425
-32.1959
-30.7683
-28.8525
-26.5728
-24.0699
-21.4853
-18.9464
-16.5546
-14.3771
-12.4444
-10.7512
-9.26314
-7.92566
-6.67536
-5.45138
-4.20542
-2.90917
-1.55809
-0.17145
1.2115
2.53817
3.75125
4.79773
5.63689
6.2461
6.62326
6.78574
6.7659
6.60411
6.34051
6.00697
5.62072
5.18085
4.6685
4.05085
3.2886
2.34586
1.20096
-0.14345
-1.65296
-3.25783
-4.85436
-6.31146
-7.48217
-8.2189
-8.39103
-7.90285
-6.70941
-4.82833
-2.34538
0.587311
3.76084
6.92644
9.81804
12.1781
13.7836
14.4696
14.147
12.8123
10.5493
7.52118
3.95487
0.119776
-3.69704
-7.216
-10.1878
-12.4112
-13.7448
-14.1113
-13.4949
-11.933
-9.50369
-6.31191
-2.4753
1.88741
6.66473
11.7567
17.0752
22.5411
28.0797
33.6151
39.066
44.3431
49.3485
53.9779
58.1242
61.6812
64.5494
66.6393
67.8768
68.2066
67.596
66.0396
63.5621
60.2216
56.1115
51.3594
46.1241
40.5875
34.9445
29.3886
24.0961
19.2111
14.8323
11.0057
7.72531
4.94305
2.59191
0.620723
-0.958751
-2.01582
-2.24167
-1.0962
2.22607
8.79549
19.8957
36.9081
61.1276
93.518
134.432
183.336
238.6
297.396
355.767
408.879
451.46
478.376
485.284
469.251
429.27
366.554
284.578
188.83
86.2999
-15.2397
-108.058
-185.299
-241.713
-274.189
-282.028
-266.927
-232.691
-184.704
-129.256
-72.7981
-21.2253
20.7226
49.8849
64.8855
66.114
55.5011
36.1342
11.771
-13.6779
-36.6355
-54.2547
-64.6884
-67.2096
-62.1845
-50.9137
-35.3755
-17.9109
-0.894843
13.5658
23.8713
29.0833
28.9827
24.0322
15.2592
4.07975
-7.90783
-19.1305
-28.2239
-34.1711
-36.3844
-34.7271
-29.4793
-21.2582
-10.9091
0.616784
12.3814
23.5616
33.5242
41.8677
48.4325
53.2796
56.6478
58.8949
60.4341
61.6727
62.9612
64.5573
66.6061
69.1387
72.0847
75.2969
78.5816
81.7315
84.5555
86.9033
88.6814
89.8595
90.4692
90.5939
90.3528
89.8813
89.3097
88.7422
88.2387
87.8021
87.3707
86.8197
85.9702
84.6065
82.5004
79.4401
75.2604
69.8703
63.2748
55.5863
47.0249
37.9046
28.6075
19.5487
11.1339
3.71693
-2.43801
-7.18524
-10.5123
-12.5394
-13.5027
-13.7246
-13.5741
-13.4228
-13.6018
-14.3648
-15.8606
-18.1195
-21.0521
-24.4631
-28.0756
-31.5646
-34.5949
-36.8594
-38.113
-38.1999
-37.0691
-34.7787
-31.4879
-27.4388
-22.9286
-18.2787
-13.8012
-9.76894
-6.39106
-3.79682
-2.02909
-1.04744
-0.739957
-0.941757
-1.45773
-2.0865
-2.64283
-2.97609
-2.98294
-2.61341
-1.87026
-0.802335
0.506707
1.95261
3.42568
4.82489
6.06942
7.1061
7.91211
8.49296
8.87606
9.1013
9.2101
9.23471
9.18952
9.06581
8.83104
8.43275
7.80709
6.89049
5.63312
4.01192
2.04118
-0.221193
-2.67306
-5.17354
-7.55432
-9.6356
-11.2449
-12.2362
-12.5077
-12.0152
-10.7798
-8.88933
-6.49271
-3.78803
-1.00608
1.60937
3.82243
5.4251
6.25503
6.20939
5.25403
3.42703
0.836567
-2.34718
-5.90506
-9.58616
-13.1274
-16.2735
-18.7959
-20.5076
-21.2732
-21.0141
-19.7072
-17.379
-14.0971
-9.95932
-5.08315
0.403455
6.3693
12.6847
19.2241
25.8666
32.4958
38.998
45.2597
51.165
56.5911
61.4048
65.4585
68.5889
70.62
71.3702
70.6669
68.3658
64.3745
58.6765
51.3517
42.5896
32.6921
22.0633
11.1873
0.594212
-9.18047
-17.6393
-24.3636
-29.0445
-31.5013
-31.6797
-29.6289
-25.4548
-19.2529
-11.0246
-0.593622
12.4642
28.8515
49.5195
75.5612
108.022
147.638
194.541
247.971
306.062
365.766
422.951
472.695
509.772
529.257
527.195
501.206
450.962
378.419
287.782
185.171
78.0425
-25.5863
-117.99
-192.568
-244.539
-271.421
-273.23
-252.387
-213.351
-162.031
-105.068
-49.0666
0.113548
37.9377
61.5789
70.0766
64.2674
46.5153
20.2903
-10.3428
-41.2549
-68.7388
-89.8967
-102.894
-107.058
-102.832
-91.5974
-75.4048
-56.6515
-37.7538
-20.8517
-7.57993
1.07395
4.81716
4.00816
-0.462115
-7.3416
-15.2143
-22.6958
-28.6034
-32.0823
-32.6758
-30.3393
-25.3993
-18.4708
-10.3467
-1.87628
6.15108
13.1032
18.5734
22.4139
24.7336
25.8631
26.2941
26.6016
27.3609
29.0691
32.081
36.5668
42.4958
49.6467
57.6412
65.9969
74.1896
81.7185
88.1645
93.2357
96.7939
98.8601
99.6002
99.292
98.2802
96.9238
95.5459
94.3891
93.5843
93.1362
92.926
92.7316
92.2613
91.1959
89.2334
86.131
81.7374
76.013
69.0357
60.9929
52.161
42.8766
33.5029
24.3965
15.877
8.20458
1.56492
-3.93585
-8.26827
-11.4697
-13.6301
-14.875
-15.3493
-15.2025
-14.5768
-13.5997
-12.3795
-11.0051
-9.54734
-8.06298
-6.5985
-5.19402
-3.88608
-2.709
-1.69461
-0.870347
-0.255923
0.14071
0.327589
0.332138
0.202827
0.0081963
-0.167353
-0.231157
-0.0928218
0.323394
1.066
2.14548
3.52721
5.12972
6.82928
8.47056
9.88267
10.8986
11.3756
11.2139
10.3712
8.87082
6.80255
4.31552
1.6042
-1.1108
-3.60504
-5.67261
-7.14636
-7.91349
-7.92528
-7.20008
-5.81981
-3.92062
-1.67908
0.7044
3.02331
5.08212
6.71118
7.77828
8.19616
7.92557
6.97401
5.39079
3.25913
0.686453
-2.20599
-5.29283
-8.45275
-11.5743
-14.5587
-17.3211
-19.7883
-21.897
-23.591
-24.8197
-25.5381
-25.7093
-25.3076
-24.3244
-22.773
-20.6929
-18.1529
-15.2499
-12.1062
-8.86306
-5.67247
-2.6868
-0.0482167
2.12215
3.7343
4.73801
5.12936
4.95439
4.30912
3.33565
2.21391
1.14968
0.359691
0.0551245
0.425343
1.62347
3.75531
6.87254
10.9704
15.9895
21.8207
28.3116
35.2742
42.4912
49.722
56.7078
63.1764
68.8487
73.4475
76.7091
78.3984
78.3268
76.3698
72.4836
66.7172
59.2182
50.2311
40.0884
29.1932
17.9973
6.97458
-3.40589
-12.7072
-20.5479
-26.6204
-30.7004
-32.6448
-32.3748
-29.84
-24.9647
-17.5793
-7.34953
6.28106
24.1111
47.1413
76.4565
113.025
157.428
209.557
268.329
331.486
395.544
455.929
507.323
544.199
561.48
555.235
523.312
465.8
385.226
286.463
176.324
62.8962
-45.3018
-140.238
-215.23
-265.645
-289.356
-286.887
-261.25
-217.498
-162.065
-101.983
-44.0675
5.80273
43.259
65.7898
72.8462
65.707
47.1429
20.9345
-8.68284
-37.5733
-62.1871
-79.926
-89.3538
-90.2429
-83.4659
-70.7624
-54.4231
-36.938
-20.6579
-7.50932
1.20619
4.91263
3.7573
-1.48269
-9.56377
-18.9812
-28.1857
-35.7839
-40.6978
-42.2688
-40.2988
-35.0295
-27.0676
-17.2728
-6.623
3.922
13.5425
21.6511
27.9461
32.4218
35.3387
37.1597
38.464
39.8523
41.8568
44.868
49.0864
54.5047
60.9199
67.9712
75.1971
82.102
88.2229
93.1875
96.7564
98.8455
99.5272
99.0122
97.6155
95.7123
93.6897
91.9002
90.6227
90.0334
90.1903
91.0308
92.3813
93.9783
95.496
96.5795
96.8783
96.079
93.9336
90.2823
85.0684
78.3449
70.2732
61.1119
51.1987
40.9243
30.7028
20.9384
11.9935
4.1601
-2.36218
-7.47957
-11.2074
-13.6633
-15.0506
-15.6349
-15.7153
-15.5942
-15.5482
-15.8032
-16.5158
-17.762
-19.5341
-21.7455
-24.2429
-26.8238
-29.2587
-31.3152
-32.7814
-33.4878
-33.324
-32.2502
-30.3005
-27.58
-24.2544
-20.533
-16.6493
-12.8385
-9.31602
-6.25899
-3.79219
-1.98017
-0.825824
-0.275322
-0.228427
-0.552747
-1.10007
-1.72281
-2.28881
-2.69296
-2.86461
-2.77059
-2.41362
-1.82719
-1.06755
-0.204299
0.689285
1.54496
2.30635
2.93339
3.40399
3.71329
3.87085
3.89648
3.81548
3.65411
3.4358
3.1785
2.89333
2.58452
2.25034
1.8848
1.4798
1.02736
0.52171
-0.0390225
-0.651568
-1.30684
-1.98979
-2.67974
-3.35123
-3.97522
-4.52082
-4.95737
-5.25675
-5.39593
-5.35932
-5.14064
-4.74415
-4.18469
-3.48653
-2.6808
-1.80154
-0.880464
0.0591624
1.00897
1.98135
3.01362
4.16946
5.53649
7.2196
9.32996
11.9708
15.2213
19.1214
23.6589
28.762
34.2989
40.084
45.8908
51.4705
56.5725
60.965
64.4536
66.8947
68.2036
68.3564
67.3862
65.3757
62.4453
58.7417
54.4251
49.6589
44.6
39.3933
34.1661
29.0263
24.0605
19.3343
14.8938
10.7684
6.97668
3.53452
0.467582
-2.17224
-4.28498
-5.69517
-6.11885
-5.12732
-2.11308
3.73163
13.4088
28.0632
48.8712
76.8618
112.68
156.318
206.864
262.318
319.543
374.38
421.96
457.181
475.309
472.618
446.971
398.256
328.581
242.212
145.212
44.854
-51.1458
-135.461
-201.951
-246.311
-266.504
-262.913
-238.208
-196.954
-145.011
-88.8238
-34.6797
11.9697
47.0395
68.1472
74.7238
67.9044
50.2288
25.2036
-3.20941
-31.1105
-55.1212
-72.7356
-82.5304
-84.2213
-78.5744
-67.1964
-52.2424
-36.0847
-20.9889
-8.83604
-0.920781
2.15623
0.498484
-5.1655
-13.6316
-23.4142
-32.957
-40.8322
-45.9061
-47.4524
-45.2067
-39.3595
-30.496
-19.493
-7.39169
4.73846
15.9269
25.4067
32.6859
37.5824
40.2191
40.985
40.4688
39.374
38.4273
38.2901
39.4829
42.3305
46.9324
53.1605
60.6825
69.007
77.5447
85.6763
92.8216
98.4994
102.374
104.282
104.242
102.436
99.1862
94.9048
90.0488
85.0668
80.3535
76.213
72.8342
70.2811
68.4961
67.3155
66.4943
65.7376
64.7345
63.1916
60.8628
57.5735
53.2358
47.8548
41.5245
34.4148
26.7514
18.792
10.8006
3.02469
-4.32294
-11.0763
-17.1209
-22.3924
-26.869
-30.5611
-33.4988
-35.7203
-37.2626
-38.1551
-38.4189
-38.0682
-37.1169
-35.5854
-33.5084
-30.9417
-27.9654
-24.6847
-21.2254
-17.7274
-14.3345
-11.1828
-8.38994
-6.04455
-4.19981
-2.86984
-2.03036
-1.62324
-1.56412
-1.75227
-2.08125
-2.44927
-2.76801
-2.96916
-3.00818
-2.86513
-2.54288
-2.06316
-1.46128
-0.780107
-0.0643155
0.644691
1.31258
1.91444
2.43565
2.87139
3.22516
3.50648
3.72831
3.90417
4.04529
4.15763
4.23891
4.27575
4.24121
4.09327
3.77482
3.21603
2.33963
1.06943
-0.657971
-2.87932
-5.59034
-8.73331
-12.1893
-15.7776
-19.264
-22.3787
-24.8412
-26.3919
-26.8233
-26.0089
-23.9245
-20.6577
-16.405
-11.4563
-6.16704
-0.923904
3.89397
7.95192
10.9912
12.8511
13.4807
12.9388
11.3839
9.05744
6.26104
3.3323
0.620385
-1.53709
-2.83494
-3.01894
-1.90169
0.624402
4.57775
9.8827
16.3701
23.7841
31.7962
40.0253
48.0634
55.5047
61.9752
67.1597
70.8229
72.8226
73.1136
71.7408
68.8257
64.5458
59.113
52.7523
45.685
38.1178
30.2379
22.2142
14.2024
6.35217
-1.18635
-8.25808
-14.701
-20.3459
-25.016
-28.5215
-30.6473
-31.1292
-29.6203
-25.6516
-18.5954
-7.64658
8.16194
29.8935
58.58
95.033
139.606
191.942
250.746
313.642
377.155
436.865
487.732
524.581
542.695
538.435
509.803
456.854
381.89
289.384
185.631
78.161
-25.0206
-116.273
-189.127
-238.962
-263.467
-262.827
-239.622
-198.452
-145.354
-87.0687
-30.2795
19.1093
56.5528
79.2533
86.318
78.6848
58.8428
30.397
-2.45872
-35.4884
-64.9141
-87.812
-102.368
-107.973
-105.163
-95.4289
-80.9213
-64.1142
-47.4571
-33.0691
-22.5056
-16.6201
-15.5299
-18.6776
-24.9733
-32.99
-41.1825
-48.0999
-52.5649
-53.8005
-51.4934
-45.7924
-37.2479
-26.7063
-15.1773
-3.69301
6.82307
15.6611
22.394
26.9057
29.3775
30.24
30.097
29.6358
29.5331
30.3714
32.5723
36.3554
41.7248
48.4828
56.2666
64.6015
72.9638
80.8434
87.7995
93.5032
97.7625
100.529
101.887
102.025
101.201
99.7027
97.8005
95.7169
93.5981
91.5003
89.3897
87.1545
84.6281
81.6197
77.9471
73.4685
68.1088
61.8763
54.8685
47.2667
39.3195
31.3177
23.5644
16.3436
9.89095
4.3712
-0.136696
-3.64388
-6.2458
-8.10714
-9.43968
-10.4759
-11.4417
-12.5315
-13.8888
-15.593
-17.6555
-20.0222
-22.5839
-25.1905
-27.6688
-29.8406
-31.5399
-32.6277
-33.0035
-32.6133
-31.4531
-29.5683
-27.0501
-24.0273
-20.6563
-17.1087
-13.5579
-10.1661
-7.07243
-4.3837
-2.16834
-0.454019
0.770714
1.55131
1.95915
2.08169
2.01189
1.83824
1.63638
1.46324
1.354
1.32195
1.36111
1.45073
1.56113
1.6599
1.71763
1.71239
1.63263
1.47805
1.25872
0.99257
0.701939
0.409669
0.135411
-0.107293
-0.31282
-0.483948
-0.631081
-0.770454
-0.921708
-1.10527
-1.33997
-1.64107
-2.01887
-2.47768
-3.01503
-3.62077
-4.27615
-4.95294
-5.61289
-6.2081
-6.68262
-6.97557
-7.02587
-6.77795
-6.18809
-5.23022
-3.90048
-2.21962
-0.232921
1.99264
4.37352
6.81644
9.22613
11.513
13.6003
15.4296
16.9656
18.1982
19.1445
19.8488
20.3809
20.8341
21.3208
21.9663
22.9017
24.2542
26.1363
28.6359
31.806
35.6565
40.1493
45.196
50.6596
56.3599
62.0809
67.5823
72.6113
76.916
80.2592
82.4301
83.2564
82.6124
80.4262
76.683
71.4259
64.752
56.8068
47.774
37.8652
27.3074
16.3332
5.17225
-5.95299
-16.8276
-27.2398
-36.9714
-45.7846
-53.4039
-59.4939
-63.6331
-65.2856
-63.7732
-58.2565
-47.735
-31.0806
-7.12026
25.2236
66.7315
117.639
177.375
244.323
315.683
387.456
454.626
511.525
552.383
571.986
566.374
533.462
473.492
389.222
285.817
170.422
51.4789
-62.1521
-162.13
-241.528
-295.55
-322.003
-321.436
-296.972
-253.841
-198.685
-138.753
-81.0616
-31.6514
4.99145
26.2837
31.6408
22.3297
1.11829
-28.2167
-61.4489
-94.4539
-123.685
-146.522
-161.467
-168.174
-167.328
-160.413
-149.403
-136.427
-123.465
-112.096
-103.337
-97.5815
-94.6308
-93.8067
-94.1154
-94.4379
-93.7149
-91.1016
-86.0753
-78.4847
-68.5416
-56.7628
-43.8733
-30.6902
-18.0042
-6.47503
3.44512
11.5528
17.8964
22.7436
26.522
29.742
32.9154
36.4808
40.7452
45.8496
51.7599
58.2836
65.1067
71.8449
78.1008
83.5184
87.8288
90.8804
92.6526
93.2509
92.8872
91.8476
90.4545
89.0266
87.8431
87.1134
86.9575
87.3955
88.3472
89.6404
91.0275
92.2064
92.8471
92.6195
91.2225
88.4115
84.0225
77.9922
70.3702
61.3242
51.1348
40.1821
28.9219
17.8554
7.49291
-1.68492
-9.26498
-14.9353
-18.5111
-19.9513
-19.3629
-16.9933
-13.2114
-8.47861
-3.31339
1.74704
6.18431
9.53169
11.3992
11.4892
9.60299
5.63833
-0.418286
-8.50235
-18.4817
-30.1646
-43.3039
-57.5982
-72.6924
-88.1783
-103.601
-118.471
-132.284
-144.551
-154.83
-162.758
-168.088
-170.703
-170.632
-168.037
-163.196
-156.464
-148.233
-138.892
-128.78
-118.171
-107.251
-96.1302
-84.8519
-73.4213
-61.8317
-50.0904
-38.2364
-26.3487
-14.5429
-2.96025
8.2504
18.9506
29.0281
38.4064
47.0466
54.9422
62.1088
68.5706
74.3482
79.449
83.8641
87.5698
90.5355
92.7348
94.1581
94.8236
94.7838
94.1264
92.968
91.4412
89.6765
87.7823
85.826
83.8187
81.7087
79.3831
76.6791
73.4041
69.3605
64.374
58.3194
51.1423
42.8723
33.6271
23.606
13.0743
2.34081
-8.26959
-18.4433
-27.9031
-36.4268
-43.8577
-50.1069
-55.1452
-58.9887
-61.6798
-63.2656
-63.7797
-63.2286
-61.5872
-58.8035
-54.8144
-49.5699
-43.0628
-35.36
-26.6288
-17.1539
-7.34012
2.30254
11.1906
18.7146
24.2966
27.4514
27.8441
25.3351
20.0078
12.1745
2.35791
-8.74686
-20.3289
-31.528
-41.5056
-49.5117
-54.9422
-57.3804
-56.6173
-52.6461
-45.6297
-35.8396
-23.5719
-9.05153
7.65971
26.7274
48.5596
73.7525
102.959
136.684
175.04
217.49
262.652
308.202
350.927
386.949
412.111
422.478
414.889
387.478
340.072
274.399
194.061
104.258
11.3019
-78.0369
-157.247
-220.776
-264.618
-286.711
-287.104
-267.874
-232.813
-186.935
-135.861
-85.1842
-39.8653
-3.75094
20.7474
32.7837
33.0166
23.3799
6.72706
-13.599
-34.2104
-52.08
-64.8619
-71.0975
-70.2929
-62.8704
-50.0141
-33.4387
-15.1177
2.99111
19.1888
32.2196
41.3805
46.5498
48.1383
46.9801
44.179
40.9382
38.3939
37.4747
38.8008
42.6321
48.8657
57.0784
66.6031
76.6269
86.296
94.8144
101.524
105.963
107.889
107.284
104.327
99.3512
92.7881
85.112
76.7827
68.2002
59.6704
51.3866
43.4245
35.7518
28.249
20.7373
13.0126
4.87945
-3.81627
-13.161
-23.155
-33.7039
-44.6225
-55.6489
-66.4698
-76.7535
-86.1874
-94.516
-101.575
-107.319
-111.83
-115.318
-118.102
-120.573
-123.151
-126.231
-130.133
-135.059
-141.057
-148.013
-155.645
-163.531
-171.142
-177.892
-183.198
-186.533
-187.493
-185.835
-181.515
-174.702
-165.775
-155.292
-143.95
-132.516
-121.758
-112.365
-104.874
-99.6061
-96.6219
-95.7072
-96.3843
-97.9569
-99.5839
-100.374
-99.49
-96.2513
-90.2086
-81.1804
-69.233
-54.5949
-37.5145
-18.0792
3.96906
29.3765
59.4372
95.9346
140.95
196.547
264.37
345.204
438.582
542.491
653.262
765.662
873.222
968.754
1045.03
1095.55
1115.21
1100.99
1052.33
971.289
862.439
732.464
589.536
442.547
300.272
170.569
59.7098
-28.0904
-90.9045
-129.068
-144.923
-142.371
-126.308
-102.016
-74.5727
-48.3701
-26.7539
-11.8361
-4.46728
-4.35584
-10.2986
-20.4804
-32.7966
-45.1553
-55.7271
-63.1177
-66.4556
-65.3982
-60.0677
-50.9403
-38.7105
-24.1539
-8.01088
9.09711
26.711
44.5373
62.4176
80.2763
98.0589
115.674
132.951
149.62
165.312
179.594
192.01
202.136
209.636
214.309
216.106
215.14
211.652
205.967
198.431
189.336
178.864
167.035
153.697
138.535
121.123
101.003
77.781
51.23
21.3831
-11.3971
-46.3879
-82.5192
-118.433
-152.586
-183.377
-209.302
-229.093
-241.854
-247.147
-245.048
-236.131
-221.41
-202.207
-179.975
-156.086
-131.61
-107.111
-82.5185
-57.0993
-29.5559
1.73004
38.3375
81.3711
131.023
186.213
244.391
301.563
352.561
391.566
412.806
411.346
383.854
329.221
248.93
147.1
30.1874
-93.6232
-215.278
-325.832
-417.43
-484.152
-522.619
-532.285
-515.38
-476.538
-422.151
-359.554
-296.147
-238.565
-191.996
-159.713
-142.872
-140.57
-150.131
-167.578
-188.212
-207.216
-220.221
-223.769
-215.621
-194.913
-162.131
-118.951
-67.9578
-12.298
44.6887
99.8218
150.374
194.284
230.27
257.852
277.279
289.391
295.435
296.866
295.15
291.607
287.286
282.904
278.829
275.119
271.584
267.879
263.593
258.337
251.804
243.812
234.31
223.372
211.164
197.908
183.844
169.199
154.165
138.898
123.52
108.137
92.8576
77.8162
63.1843
49.1775
36.05
24.0784
13.5367
4.66743
-2.34921
-7.42113
-10.5628
-11.9036
-11.6846
-10.2451
-8.00007
-5.41069
-2.9513
-1.07491
-0.1802
-0.582592
-2.49164
-5.99685
-11.0637
-17.5403
-25.1752
-33.6443
-42.583
-51.6219
-60.4193
-68.6876
-76.2099
-82.8452
-88.5218
-93.221
-96.9539
-99.7351
-101.559
-102.382
-102.115
-100.624
-97.7498
-93.3287
-87.2224
-79.3493
-69.709
-58.4003
-45.6255
-31.6834
-16.9492
-1.84631
13.1881
27.7378
41.439
54.0047
65.2398
75.0447
83.4087
90.3928
96.1058
100.675
104.216
106.806
108.464
109.138
108.713
107.02
103.872
99.0978
92.5828
84.3125
74.4006
63.106
50.8303
38.0954
25.5031
13.6813
3.22334
-5.37221
-11.7522
-15.7446
-17.3742
-16.856
-14.5683
-11.0084
-6.73677
-2.31726
1.73977
5.02489
7.26222
8.32431
8.22855
7.11693
5.22294
2.83082
0.233311
-2.30667
-4.58543
-6.47617
-7.93369
-8.987
-9.72251
-10.2616
-10.7368
-11.2715
-11.9652
-12.8878
-14.0818
-15.5712
-17.3744
-19.5156
-22.0334
-24.9803
-28.4149
-32.385
-36.9051
-41.9321
-47.3446
-52.9293
-58.3799
-63.309
-67.2746
-69.8173
-70.5068
-68.9904
-65.0406
-58.5948
-49.7831
-38.941
-26.6041
-13.485
-0.432674
11.6237
21.7419
29.0412
32.7781
32.4159
27.6824
18.6067
5.5319
-10.902
-29.8036
-50.1025
-70.6403
-90.2728
-107.969
-122.9
-134.5
-142.496
-146.912
-148.021
-146.289
-142.283
-136.575
-129.651
-121.817
-113.131
-103.348
-91.8905
-77.8559
-60.0602
-37.1383
-7.70611
29.4137
74.916
128.718
189.69
255.48
322.479
385.974
440.515
480.462
500.651
497.108
467.677
412.485
334.131
237.583
129.748
18.7953
-86.7151
-178.755
-250.704
-298.048
-318.826
-313.761
-286.075
-241.022
-185.198
-125.743
-69.514
-22.3546
11.4768
29.6478
31.8447
19.6223
-3.94993
-34.7891
-68.372
-100.307
-126.836
-145.216
-153.937
-152.783
-142.729
-125.706
-104.281
-81.2908
-59.4764
-41.1673
-28.0398
-20.9748
-20.0221
-24.4645
-32.9675
-43.7897
-55.0241
-64.8406
-71.7011
-74.5246
-72.7851
-66.5378
-56.3734
-43.3132
-28.6602
-13.8278
-0.168504
11.1782
19.4008
24.0846
25.229
23.2178
18.7479
12.7312
6.18096
0.0973756
-4.63511
-7.32976
-7.55192
-5.14287
-0.213294
6.89047
15.6419
25.4042
35.5066
45.3179
54.3097
62.1025
68.4892
73.4358
77.0579
79.5791
81.2764
82.4215
83.2273
83.8061
84.1493
84.1275
83.5146
82.0296
79.3901
75.3679
69.8395
62.8208
54.4828
45.1444
35.2441
25.2941
15.8247
7.32422
0.186101
-5.33358
-9.14049
-11.3072
-12.0587
-11.7409
-10.7772
-9.61773
-8.68937
-8.35041
-8.8562
-10.3381
-12.797
-16.1114
-20.0574
-24.3378
-28.6167
-32.556
-35.8493
-38.2501
-39.5933
-39.8052
-38.9057
-36.9985
-34.2555
-30.8932
-27.1488
-23.254
-19.4134
-15.7878
-12.4833
-9.54785
-6.97459
-4.71029
-2.66801
-0.742005
1.17679
3.18628
5.36103
7.74335
10.3382
13.1123
15.9969
18.8949
21.6894
24.2555
26.4716
28.2307
29.4494
30.0742
30.0851
29.4948
28.3453
26.702
24.6461
22.2664
19.6514
16.8837
14.0352
11.165
8.31989
5.53545
2.83922
0.253572
-2.20163
-4.50732
-6.64456
-8.59493
-10.3416
-11.8704
-13.1712
-14.2379
-15.0684
-15.6638
-16.027
-16.1616
-16.0713
-15.7594
-15.2296
-14.4868
-13.5384
-12.396
-11.0755
-9.59831
-7.98967
-6.27748
-4.48945
-2.64975
-0.775415
1.12694
3.06362
5.05477
7.13352
9.34292
11.7308
14.3427
17.2138
20.3605
23.7717
27.4025
31.169
34.9479
38.5779
41.8667
44.6018
46.5648
47.5485
47.3751
45.9132
43.0921
38.9113
33.4448
26.838
19.2998
11.0881
2.49179
-6.18972
-14.6668
-22.6783
-30.0053
-36.4774
-41.9691
-46.3825
-49.6161
-51.5177
-51.826
-50.1075
-45.7022
-37.6932
-24.9217
-6.06349
20.2217
55.068
99.1267
152.269
213.32
279.88
348.293
413.804
470.906
513.874
537.424
537.397
511.393
459.233
383.181
287.869
179.925
67.3283
-41.4053
-138.134
-215.959
-269.939
-297.585
-299.042
-276.97
-236.141
-182.807
-123.933
-66.3914
-16.221
21.9699
45.3888
53.2061
46.4616
27.7627
0.827792
-30.0584
-60.6026
-87.007
-106.364
-116.903
-118.081
-110.511
-95.7664
-76.0859
-54.037
-32.1734
-12.7344
2.58544
12.7741
17.5427
17.2745
12.8993
5.71697
-2.80248
-11.2148
-18.2704
-23.0382
-24.9747
-23.937
-20.1431
-14.0932
-6.46519
1.99826
10.5956
18.7518
26.0752
32.3813
37.6845
42.1636
46.1089
49.8604
53.7461
58.0306
62.8777
68.3313
74.316
80.6528
87.0888
93.3329
99.0944
104.117
108.207
111.248
113.208
114.131
114.123
113.326
111.892
109.957
107.62
104.931
101.884
98.4305
94.4929
89.9897
84.8603
79.087
72.7105
65.8343
58.6183
51.2613
43.9758
36.9598
30.3691
24.298
18.7686
13.7341
9.09194
4.70826
0.44609
-3.8053
-8.10578
-12.4481
-16.7523
-20.872
-24.6111
-27.7488
-30.0687
-31.3896
-31.5922
-30.6388
-28.5847
-25.5773
-21.8455
-17.6786
-13.3989
-9.32957
-5.76334
-2.93457
-0.997952
-0.0159065
0.0445617
-0.693885
-2.03231
-3.7147
-5.45095
-6.94184
-7.90442
-8.09633
-7.33771
-5.52932
-2.66537
1.16057
5.75781
10.8497
16.0935
21.1081
25.5069
28.9337
31.0965
31.7973
30.9526
28.603
24.9108
20.145
14.6549
8.83666
3.09476
-2.19593
-6.72417
-10.2684
-12.7125
-14.049
-14.3718
-13.8571
-12.7382
-11.275
-9.72369
-8.30935
-7.20516
-6.51946
-6.29214
-6.49978
-7.06812
-7.88951
-8.84247
-9.81062
-10.6983
-11.4413
-12.0115
-12.4156
-12.6888
-12.8846
-13.0627
-13.2768
-13.5641
-13.9373
-14.3806
-14.8485
-15.2693
-15.5506
-15.5877
-15.2735
-14.5084
-13.2105
-11.3238
-8.82342
-5.71824
-2.04872
2.11834
6.69805
11.597
16.7223
21.9881
27.3178
32.6419
37.89
42.981
47.8116
52.2478
56.122
59.2378
61.3833
62.353
61.9735
60.1317
56.7987
52.0467
46.0546
39.101
31.5448
23.7956
16.2769
9.38736
3.46429
-1.24552
-4.60468
-6.59097
-7.28926
-6.86895
-5.54738
-3.54012
-0.999644
2.05387
5.80356
10.6988
17.4964
27.2624
41.3186
61.1169
88.0389
123.129
166.788
218.474
276.473
337.79
398.229
452.675
495.564
521.52
526.048
506.2
461.115
392.312
303.712
201.34
92.7558
-13.7337
-109.967
-188.814
-244.942
-275.36
-279.672
-260.032
-220.796
-167.931
-108.281
-48.7565
4.41589
46.3269
73.8116
85.6436
82.4875
66.6353
41.5763
11.4659
-19.433
-47.2665
-69.0061
-82.7228
-87.7011
-84.3926
-74.2329
-59.3554
-42.2497
-25.4103
-11.0208
-0.709677
4.60065
4.74076
0.242014
-7.79845
-17.9106
-28.4726
-37.9293
-44.9816
-48.7249
-48.7254
-45.0294
-38.1113
-28.7739
-18.0167
-6.89268
3.62699
12.7644
20.0109
25.1621
28.3109
29.805
30.1766
30.0572
30.0885
30.8407
32.7486
36.0687
40.8639
47.0109
54.2301
62.1302
70.2612
78.1689
85.4444
91.7625
96.9075
100.783
103.407
104.897
105.439
105.26
104.59
103.631
102.53
101.364
100.131
98.7601
97.1226
95.0616
92.4201
89.0716
84.9454
80.0443
74.4512
68.3234
61.8756
55.3541
49.0067
43.0515
37.6517
32.898
28.8031
25.3068
22.2928
19.6119
17.1094
14.6508
12.1432
9.54891
6.88864
4.23633
1.70513
-0.571907
-2.46366
-3.8618
-4.69775
-4.95352
-4.66517
-3.91879
-2.83999
-1.5786
-0.29086
0.878261
1.81055
2.42584
2.68794
2.605
2.22439
1.62337
0.896744
0.143329
-0.547144
-1.10521
-1.48972
-1.69202
-1.73601
-1.6742
-1.58042
-1.54015
-1.63961
-1.95497
-2.54299
-3.43416
-4.62917
-6.099
-7.78866
-9.62389
-11.5201
-13.3923
-15.1648
-16.7801
-18.2042
-19.4304
-20.4782
-21.3896
-22.2221
-23.0393
-23.9006
-24.8509
-25.9117
-27.0738
-28.2951
-29.5018
-30.5952
-31.4633
-31.9958
-32.102
-31.7267
-30.8638
-29.5623
-27.9257
-26.1019
-24.2656
-22.5951
-21.2468
-20.3307
-19.8913
-19.8964
-20.2354
-20.7295
-21.1505
-21.2477
-20.7787
-19.5406
-17.3964
-14.2942
-10.2761
-5.47515
-0.10087
5.58433
11.2959
16.761
21.7505
26.1063
29.7599
32.7381
35.1578
37.2079
39.1215
41.1424
43.4898
46.3261
49.7315
53.6889
58.0803
62.6942
67.243
71.3874
74.7648
77.0193
77.8299
76.9363
74.1602
69.422
62.7527
54.3003
44.3288
33.2117
21.4152
9.47468
-2.0386
-12.5561
-21.5544
-28.5972
-33.3699
-35.7031
-35.5776
-33.1049
-28.482
-21.9189
-13.5441
-3.30157
9.14333
24.464
43.6713
68.0282
98.8684
137.325
183.999
238.614
299.728
364.572
429.071
488.088
535.879
566.735
575.705
559.318
516.184
447.37
356.482
249.428
133.875
18.4661
-88.1009
-178.011
-245.17
-285.831
-298.931
-286.113
-251.426
-200.763
-141.118
-79.7507
-23.3784
22.5172
54.1903
69.8914
69.8763
56.1808
32.2072
2.18949
-29.3908
-58.3615
-81.3261
-95.9927
-101.337
-97.5972
-86.1162
-69.066
-49.0976
-28.9671
-11.1852
2.2694
10.145
12.0042
8.20427
-0.215898
-11.7211
-24.5066
-36.7355
-46.7574
-53.2843
-55.5073
-53.1452
-46.4282
-36.0235
-22.9187
-8.27951
6.69693
20.9179
33.5039
43.8613
51.714
57.0958
60.3066
61.8443
62.3203
62.3726
62.5863
63.4288
65.2086
68.057
71.9339
76.6538
81.9262
87.4039
92.7324
97.5936
101.739
105.013
107.354
108.793
109.432
109.419
108.918
108.081
107.022
105.797
104.4
102.758
100.743
98.1911
94.9264
90.7844
85.638
79.4178
72.127
63.8479
54.7413
45.0368
35.0175
24.9986
15.3037
6.24019
-1.92413
-8.97979
-14.7898
-19.2968
-22.5232
-24.5647
-25.5774
-25.76
-25.334
-24.5224
-23.5299
-22.527
-21.6378
-20.9342
-20.4361
-20.116
-19.9092
-19.7263
-19.4672
-19.0347
-18.346
-17.3416
-15.9907
-14.2937
-12.2813
-10.0119
-7.56603
-5.04108
-2.54373
-0.18284
1.93804
3.72786
5.11467
6.05127
6.51947
6.5326
6.13584
5.4041
4.43749
3.35429
2.28199
1.34692
0.663206
0.322082
0.382583
0.864584
1.74513
2.95865
4.4013
5.93928
7.42059
8.68914
9.59996
10.0341
9.91146
9.20057
7.92348
6.15561
4.02006
1.67687
-0.691798
-2.8991
-4.77168
-6.16672
-6.98598
-7.18546
-6.77946
-5.83894
-4.48419
-2.87274
-1.18392
0.398292
1.70234
2.58425
2.93958
2.71123
1.89265
0.526801
-1.2987
-3.45945
-5.80428
-8.16657
-10.3764
-12.2729
-13.7158
-14.597
-14.8492
-14.4531
-13.4406
-11.8942
-9.94107
-7.74258
-5.47858
-3.32791
-1.44642
0.0547594
1.12812
1.80249
2.18692
2.46399
2.87244
3.68038
5.15261
7.51614
10.9292
15.4578
21.0641
27.6067
34.8537
42.505
50.2191
57.6415
64.4287
70.2658
74.8769
78.03
79.5377
79.2588
77.1026
73.0375
67.1048
59.4329
50.2504
39.8924
28.7952
17.4792
6.5173
-3.5071
-12.0484
-18.6468
-22.9686
-24.8302
-24.201
-21.1775
-15.9287
-8.61369
0.719251
12.2369
26.4049
44.0227
66.1828
94.1346
129.048
171.701
222.128
279.302
340.917
403.346
461.816
510.807
544.651
558.25
547.813
511.492
449.818
365.846
264.979
154.472
42.6949
-61.7784
-151.106
-219.033
-261.548
-277.259
-267.456
-235.849
-188.043
-130.811
-71.2789
-16.1174
29.159
60.7053
76.6268
77.0078
63.7065
39.96
9.862
-22.2106
-52.1491
-76.5774
-93.1798
-100.867
-99.7736
-91.1081
-76.8822
-59.5715
-41.7531
-25.768
-13.4492
-5.94065
-3.62305
-6.14235
-12.5287
-21.381
-31.0869
-40.0476
-46.8786
-50.5624
-50.541
-46.7402
-39.5313
-29.6412
-18.0269
-5.73494
6.23531
17.0479
26.1131
33.1316
38.0968
41.2623
43.0811
44.127
45.0113
46.3028
48.4625
51.7973
56.4355
62.3255
69.2542
76.8803
84.7791
92.4906
99.5677
105.619
110.343
113.548
115.167
115.249
113.951
111.514
108.233
104.427
100.409
96.4579
92.7914
89.5539
86.8056
84.5212
82.5967
80.8632
79.1061
77.0888
74.5782
71.3704
67.3138
62.3282
56.4168
49.6712
42.2673
34.4528
26.5268
18.813
11.6294
5.25769
-0.0840106
-4.26246
-7.24059
-9.07825
-9.92171
-9.9835
-9.51509
-8.77616
-8.00449
-7.39012
-7.05705
-7.05429
-7.35685
-7.87603
-8.47711
-9.00166
-9.29146
-9.21092
-8.66522
-7.61234
-6.06776
-4.10192
-1.83098
0.597222
3.02026
5.27878
7.23273
8.77432
9.83646
10.3962
10.4731
10.1235
9.43128
8.49642
7.42353
6.31058
5.2396
4.27005
3.43526
2.74207
2.17341
1.69318
1.25286
0.798834
0.279621
-0.347749
-1.11283
-2.02869
-3.0908
-4.27789
-5.55441
-6.87442
-8.18633
-9.43813
-10.5827
-11.5828
-12.4145
-13.0706
-13.5604
-13.9083
-14.1491
-14.3214
-14.4592
-14.5839
-14.6979
-14.7816
-14.7958
-14.6884
-14.406
-13.9068
-13.1744
-12.2277
-11.126
-9.96575
-8.87118
-7.97749
-7.4104
-7.26496
-7.58714
-8.36147
-9.5072
-10.8836
-12.3044
-13.5586
-14.4357
-14.751
-14.3678
-13.2134
-11.2872
-8.65883
-5.45847
-1.85864
1.94871
5.77752
9.47196
12.9265
16.0987
19.0134
21.7569
24.4613
27.2823
30.371
33.8453
37.7628
42.1
46.7411
51.4768
56.0166
60.0113
63.0867
64.882
65.0909
63.4984
60.0104
54.6698
47.6597
39.2902
29.9732
20.1864
10.432
1.19538
-7.09237
-14.0838
-19.5334
-23.3052
-25.3664
-25.771
-24.6292
-22.0646
-18.1575
-12.878
-6.01406
2.89106
14.5741
30.0375
50.4643
77.0521
110.768
152.053
200.516
254.683
311.865
368.199
418.89
458.664
482.367
485.656
465.661
421.524
354.713
269.046
170.41
66.1943
-35.4923
-126.712
-200.581
-252.033
-278.344
-279.381
-257.525
-217.302
-164.774
-106.778
-50.1124
-0.776874
36.6414
59.3751
66.6367
59.5309
40.7477
14.0913
-16.0845
-45.4573
-70.2604
-87.6909
-96.1611
-95.3762
-86.2452
-70.6499
-51.1164
-30.4372
-11.2971
4.05129
14.0269
17.853
15.5777
7.9926
-3.53144
-17.2613
-31.3397
-44.0138
-53.828
-59.7624
-61.3063
-58.4658
-51.7114
-41.8784
-30.0366
-17.3477
-4.92656
6.27571
15.5595
22.5264
27.0907
29.455
30.0567
29.4938
28.4404
27.561
27.4351
28.4963
30.9947
34.9819
40.3198
46.7106
53.7415
60.9393
67.8273
73.9783
79.0568
82.8478
85.2683
86.3625
86.2816
85.2527
83.5415
81.4144
79.1051
76.7896
74.5725
72.4849
70.4929
68.5146
66.4407
64.156
61.5571
58.5646
55.1288
51.2289
46.8688
42.0704
36.8683
31.3064
25.4379
19.3283
13.059
6.73235
0.473942
-5.56759
-11.2246
-16.3182
-20.6697
-24.1145
-26.5168
-27.7842
-27.8809
-26.836
-24.7486
-21.7861
-18.1763
-14.1941
-10.1425
-6.3287
-3.03908
-0.512991
1.08073
1.6624
1.25288
-0.0243361
-1.95144
-4.23492
-6.53338
-8.49183
-9.77912
-10.1243
-9.34767
-7.38293
-4.28733
-0.238685
4.481
9.51343
14.4605
18.9252
22.5519
25.0626
26.2831
26.1583
24.7539
22.2445
18.8908
15.0078
10.9289
6.97028
3.39899
0.410413
-1.88445
-3.45998
-4.36643
-4.71216
-4.64081
-4.30714
-3.85507
-3.40057
-3.02133
-2.75368
-2.59634
-2.51945
-2.47676
-2.41887
-2.30494
-2.11146
-1.83665
-1.50037
-1.13994
-0.802816
-0.537685
-0.385566
-0.372364
-0.504083
-0.765355
-1.12141
-1.52307
-1.91385
-2.23809
-2.44879
-2.51413
-2.42184
-2.18104
-1.82156
-1.39109
-0.950596
-0.568909
-0.316661
-0.260235
-0.455783
-0.943477
-1.74208
-2.84407
-4.21176
-5.77487
-7.43025
-9.04421
-10.458
-11.4964
-11.979
-11.7341
-10.6131
-8.50446
-5.34653
-1.13606
4.06669
10.1374
16.8914
24.0904
31.4532
38.6674
45.4049
51.3386
56.1603
59.6004
61.4467
61.5606
59.8901
56.4769
51.4562
45.0497
37.5517
29.3082
20.6929
12.0809
3.82243
-3.77924
-10.4853
-16.1314
-20.6283
-23.9537
-26.1331
-27.2113
-27.2138
-26.1021
-23.7239
-19.765
-13.7094
-4.8175
7.86494
25.4546
49.1251
79.9443
118.66
165.453
219.697
279.761
342.91
405.348
462.427
509.027
540.075
551.148
539.079
502.479
442.086
360.874
263.897
157.862
50.4825
-50.311
-137.211
-204.306
-247.694
-265.859
-259.764
-232.652
-189.595
-136.846
-81.0904
-28.6832
15.0254
46.2042
62.8409
64.806
53.6906
32.4545
4.94245
-24.6607
-52.3655
-74.8382
-89.7377
-95.8987
-93.3523
-83.1991
-67.3624
-48.266
-28.4818
-10.3958
4.06914
13.6444
17.806
16.763
11.3563
2.88875
-7.08378
-16.9714
-25.3499
-31.1188
-33.6007
-32.5771
-28.2609
-21.2159
-12.2408
-2.23525
7.93168
17.532
26.0569
33.2537
39.1223
43.8757
47.873
51.5396
55.2851
59.4318
64.1631
69.4967
75.2857
81.2438
86.9911
92.1131
96.2235
99.0228
100.344
100.183
98.6988
96.2046
93.1253
89.9478
87.1605
85.1921
84.3589
84.8245
86.5793
89.4405
93.0716
97.0192
100.762
103.762
105.523
105.63
103.791
99.8532
93.8173
85.827
76.154
65.1715
53.3223
41.0844
28.9366
17.3273
6.64695
-2.7927
-10.7728
-17.1743
-21.9776
-25.2555
-27.1593
-27.9011
-27.7317
-26.9177
-25.7186
-24.3668
-23.0507
-21.905
-21.0051
-20.3692
-19.9655
-19.7235
-19.5485
-19.3368
-18.9909
-18.4309
-17.604
-16.4887
-15.0957
-13.464
-11.6546
-9.74165
-7.80324
-5.91176
-4.12634
-2.48727
-1.01335
0.297615
1.46552
2.52219
3.50417
4.44501
5.36826
6.2821
7.17649
8.0232
8.77879
9.38999
9.80079
9.96024
9.82966
9.38845
8.63746
7.59973
6.31835
4.85191
3.2684
1.63842
0.0287295
-1.5028
-2.91039
-4.16133
-5.23487
-6.11959
-6.80987
-7.30245
-7.59384
-7.6792
-7.55316
-7.21248
-6.66018
-5.91034
-4.99255
-3.95479
-2.86367
-1.80117
-0.857545
-0.120938
0.335136
0.464559
0.259285
-0.244385
-0.965807
-1.78726
-2.56824
-3.16523
-3.45412
-3.3516
-2.83173
-1.93426
-0.762677
0.528365
1.75461
2.72957
3.29339
3.33855
2.82829
1.80502
0.387221
-1.2444
-2.86936
-4.25512
-5.18577
-5.48784
-5.04947
-3.83072
-1.86378
0.756437
3.88985
7.37424
11.0507
14.7877
18.5006
22.1632
25.8097
29.5254
33.427
37.6353
42.2421
47.2769
52.6786
58.2765
63.787
68.8256
72.9391
75.6514
76.5206
75.1987
71.4858
65.3702
57.0483
46.9195
35.557
23.6557
11.9652
1.21558
-7.95507
-15.0617
-19.8146
-22.137
-22.1561
-20.1643
-16.5556
-11.7388
-6.03455
0.432324
7.83254
16.7061
27.9893
42.9755
63.1926
90.1941
125.272
169.122
221.515
281.022
344.879
409.023
468.348
517.158
549.788
561.31
548.236
509.086
444.766
358.651
256.367
145.278
33.7469
-69.7542
-157.55
-223.584
-264.044
-277.717
-266.035
-232.818
-183.746
-125.648
-65.6863
-10.5615
34.1945
64.7363
79.1941
77.7141
62.2608
36.2258
3.90255
-30.0987
-61.4197
-86.4418
-102.639
-108.77
-104.896
-92.2393
-72.9255
-49.6323
-25.2137
-2.33932
16.8079
30.7429
38.7844
41.0511
38.3625
32.0634
23.8031
15.3016
8.13006
3.53387
2.3133
4.77133
10.7276
19.5897
30.4676
42.3114
54.0545
64.7425
73.6351
80.2705
84.4881
86.4129
86.4058
84.9902
82.7665
80.3248
78.1669
76.6473
75.9354
76.0064
76.6554
77.5353
78.21
78.2171
77.1315
74.6224
70.4971
64.7269
57.4532
48.9732
39.7084
30.1595
20.8545
12.2948
4.90692
-0.996301
-5.24112
-7.80305
-8.80246
-8.48749
-7.20737
-5.37976
-3.45586
-1.8863
-1.09037
-1.43006
-3.1895
-6.56006
-11.6306
-18.3831
-26.6927
-36.3341
-46.9923
-58.2803
-69.7622
-80.9809
-91.4892
-100.881
-108.822
-115.07
-119.494
-122.077
-122.912
-122.184
-120.15
-117.109
-113.37
-109.226
-104.93
-100.674
-96.585
-92.7226
-89.0857
-85.6263
-82.2648
-78.9081
-75.4657
-71.8628
-68.0497
-64.0059
-59.7408
-55.2895
-50.707
-46.0607
-41.4228
-36.864
-32.4477
-28.2272
-24.2441
-20.5281
-17.0987
-13.967
-11.1381
-8.61351
-6.39216
-4.47175
-2.84859
-1.51704
-0.46836
0.310541
0.8382
1.13928
1.24453
1.19005
1.01569
0.762915
0.472267
0.180742
-0.0805841
-0.288421
-0.428377
-0.495225
-0.492282
-0.43003
-0.324131
-0.193109
-0.0559605
0.0700388
0.171098
0.238096
0.267095
0.259209
0.219879
0.157727
0.0831507
0.00686433
-0.0614449
-0.114184
-0.14655
-0.156811
-0.146177
-0.118323
-0.0786612
-0.0334788
0.0109425
0.0491077
0.0769097
0.0919987
0.0939097
0.0839862
0.0651734
0.0417785
0.0192919
0.00432334
0.00465087
0.0293149
0.0886479
0.194127
0.357983
0.592603
0.909907
1.32107
1.83711
2.47081
3.24026
4.17372
5.31479
6.72659
8.49297
10.7155
13.5052
16.9696
21.1959
26.233
32.0745
38.6464
45.8003
53.3153
60.9075
68.2462
74.9761
80.7412
85.2089
88.0919
89.1661
88.2848
85.3885
80.5107
73.7802
65.4197
55.7397
45.1272
34.0283
22.925
12.3063
2.6356
-5.68171
-12.3286
-17.0985
-19.906
-20.7803
-19.8395
-17.2423
-13.1213
-7.50004
-0.208936
9.18734
21.4279
37.5381
58.7381
86.268
121.136
163.815
213.935
270.027
329.388
388.113
441.337
483.675
509.828
515.273
496.939
453.764
387.035
300.436
199.793
92.5313
-13.1029
-108.93
-187.737
-244.063
-274.77
-279.324
-259.763
-220.369
-167.085
-106.765
-46.3695
7.81456
50.8129
79.4078
92.3408
90.2682
75.4952
51.5383
22.5841
-7.08006
-33.5925
-53.9391
-66.2303
-69.8117
-65.2124
-53.9519
-38.2435
-20.6416
-3.6815
10.4428
20.1263
24.5021
23.4842
17.7064
8.37816
-2.91964
-14.466
-24.627
-32.0516
-35.8136
-35.4878
-31.1565
-23.3527
-12.9518
-1.03195
11.278
22.941
33.1287
41.2988
47.2285
51.0028
52.9638
53.6333
53.6191
53.5217
53.8514
54.968
57.0469
60.074
63.8678
68.1204
72.4521
76.4692
79.817
82.2224
83.5205
83.6648
82.721
80.8474
78.2658
75.2289
71.9867
68.7579
65.7085
62.9384
60.4771
58.2874
56.2752
54.3042
52.2146
49.8429
47.0421
43.7011
39.7602
35.2228
30.1603
24.7099
19.0649
13.4584
8.14146
3.35874
-0.676428
-3.80373
-5.93215
-7.04881
-7.21921
-6.57912
-5.31902
-3.66329
-1.84672
-0.091123
1.41516
2.53272
3.18019
3.33639
3.03597
2.35953
1.41987
0.346096
-0.732425
-1.70075
-2.47017
-2.98629
-3.23256
-3.22939
-3.02887
-2.70595
-2.34705
-2.03762
-1.85005
-1.83343
-2.00656
-2.35489
-2.83207
-3.3657
-3.86671
-4.24102
-4.40214
-4.28283
-3.84448
-3.08279
-2.02919
-0.747678
0.672257
2.12571
3.50391
4.70578
5.64792
6.27198
6.54874
6.47854
6.08849
5.42707
4.55693
3.54714
2.4657
1.37345
0.319708
-0.659754
-1.54278
-2.31907
-2.98732
-3.55187
-4.01954
-4.39719
-4.69035
-4.90303
-5.03862
-5.10157
-5.09936
-5.04431
-4.95467
-4.85472
-4.77374
-4.74387
-4.7972
-4.96262
-5.26274
-5.71163
-6.31363
-7.06344
-7.94759
-8.94681
-10.039
-11.2021
-12.4163
-13.6651
-14.9347
-16.2125
-17.4836
-18.7269
-19.9117
-20.9942
-21.9163
-22.6058
-22.9788
-22.9451
-22.4141
-21.3027
-19.5437
-17.0941
-13.9415
-10.11
-5.66191
-0.69758
4.6492
10.2187
15.8353
21.3201
26.5029
31.2339
35.3935
38.8977
41.7001
43.7885
45.1778
45.8984
45.9845
45.4614
44.3375
42.6005
40.2209
37.1615
33.3929
28.9107
23.7529
18.0131
11.8465
5.46826
-0.858196
-6.84028
-12.1807
-16.6034
-19.8761
-21.8243
-22.3314
-21.3203
-18.7151
-14.3851
-8.07763
0.645816
12.4506
28.2261
49.0181
75.8853
109.682
150.789
198.828
252.422
309.055
365.083
415.94
456.531
481.784
487.293
469.968
428.578
364.107
279.848
181.204
75.2094
-30.1709
-126.887
-207.669
-266.817
-300.79
-308.551
-291.602
-253.729
-200.493
-138.542
-74.8278
-15.8433
33.0478
68.1009
87.4594
91.1854
81.0671
60.2435
32.7063
2.74988
-25.5616
-48.8461
-64.7296
-72.0176
-70.7071
-61.8539
-47.3248
-29.4773
-10.8136
6.34542
20.1287
29.2975
33.3282
32.3956
27.2693
19.1456
9.44346
-0.405302
-9.14317
-15.8299
-19.927
-21.3188
-20.2744
-17.3625
-13.3348
-8.99836
-5.09411
-2.19914
-0.662089
-0.577868
-1.80086
-3.99079
-6.68155
-9.36114
-11.5506
-12.8707
-13.0892
-12.1428
-10.134
-7.30483
-3.99345
-0.580929
2.56412
5.135
6.92426
7.84496
7.93403
7.33863
6.28863
5.05974
3.93273
3.15439
2.90496
3.27584
4.25973
5.75365
7.57362
9.47877
11.2011
12.4777
13.0804
12.8424
11.6754
9.58044
6.64807
3.05051
-0.974047
-5.14324
-9.15632
-12.7215
-15.5826
-17.5418
-18.4775
-18.3542
-17.2247
-15.2227
-12.5488
-9.44796
-6.18434
-3.01272
-0.151789
2.23877
4.07435
5.35284
6.15229
6.61918
6.94857
7.35886
8.06431
9.24895
11.0452
13.5197
16.6676
20.416
24.6344
29.1516
33.7753
38.3127
42.5886
46.4596
49.8239
52.624
54.8453
56.5094
57.6657
58.38
58.7246
58.7692
58.5737
58.1839
57.63
56.9264
56.0741
55.0631
53.8757
52.4896
50.8804
49.0239
46.8992
44.4904
41.7905
38.8037
35.5483
32.0588
28.3857
24.5949
20.7639
16.9765
13.316
9.85821
6.66453
3.77619
1.21085
-1.03835
-3.00116
-4.72597
-6.27366
-7.70997
-9.09727
-10.4864
-11.9095
-13.3741
-14.8601
-16.3193
-17.6783
-18.8454
-19.7206
-20.2084
-20.2315
-19.7439
-18.7417
-17.2691
-15.4187
-13.3264
-11.1591
-9.09839
-7.32133
-5.98058
-5.18661
-4.99408
-5.39445
-6.31555
-7.62843
-9.16073
-10.7149
-12.0893
-13.0991
-13.596
-13.4817
-12.7173
-11.3237
-9.37724
-6.99703
-4.32965
-1.53053
1.25427
3.90418
6.33594
8.51021
10.4322
12.147
13.7302
15.2754
16.8803
18.633
20.5991
22.8114
25.2628
27.9017
30.6316
33.313
35.7693
37.7958
39.1712
39.6728
39.0931
37.2585
34.0468
29.4036
23.3535
16.0063
7.55546
-1.73036
-11.5233
-21.4573
-31.1521
-40.2382
-48.3781
-55.2825
-60.7167
-64.4956
-66.4635
-66.4596
-64.2693
-59.5676
-51.8631
-40.4582
-24.4426
-2.73894
25.7831
62.1207
106.889
160.037
220.582
286.411
354.214
419.591
477.365
522.059
548.524
552.603
531.759
485.548
415.871
326.936
224.929
117.424
12.5991
-81.6309
-158.47
-212.955
-242.456
-246.886
-228.614
-192.098
-143.282
-88.8576
-35.4768
10.9878
46.039
66.9509
72.9264
65.0137
45.8114
19.0114
-11.149
-40.4525
-65.2147
-82.6831
-91.2866
-90.7152
-81.8368
-66.4768
-47.0992
-26.4389
-7.13535
8.58754
19.1601
23.8021
22.5473
16.1658
6.00304
-6.23732
-18.7337
-29.7786
-37.9759
-42.3801
-42.5698
-38.6491
-31.1866
-21.1036
-9.53083
2.34592
13.4325
22.8479
30.0082
34.6685
36.9201
37.1495
35.9665
34.1143
32.3713
31.4582
31.9581
34.2574
38.5122
44.6407
52.3415
61.1334
70.4125
79.5188
87.8056
94.7039
99.7757
102.751
103.544
102.253
99.135
94.572
89.0216
82.9653
76.8579
71.0823
65.9167
61.5139
57.8966
54.9664
52.525
50.305
48.0055
45.3302
42.0226
37.8955
32.8528
26.9
20.1442
12.7826
5.08269
-2.64583
-10.0822
-16.9262
-22.9272
-27.9064
-31.7714
-34.5209
-36.2398
-37.0858
-37.2689
-37.0269
-36.5988
-36.1997
-35.9992
-36.1058
-36.5585
-37.3258
-38.3127
-39.3745
-40.3343
-41.0051
-41.2109
-40.8067
-39.6943
-37.8329
-35.2429
-32.0035
-28.2441
-24.1308
-19.8505
-15.5925
-11.5326
-7.81858
-4.55984
-1.82214
0.373071
2.04443
3.24264
4.03981
4.51748
4.75508
4.82007
4.76122
4.60575
4.36054
4.01718
3.55965
2.97305
2.25175
1.40486
0.458148
-0.548539
-1.56761
-2.5527
-3.46817
-4.29678
-5.04343
-5.7335
-6.40565
-7.09996
-7.84374
-8.63789
-9.44696
-10.1955
-10.7724
-11.0423
-10.8647
-10.1151
-8.70762
-6.61374
-3.87402
-0.601594
3.02414
6.77291
10.386
13.6027
16.1878
17.9561
18.7907
18.654
17.5888
15.7108
13.1932
10.2461
7.09267
3.94693
0.993575
-1.62598
-3.82098
-5.55161
-6.82286
-7.6735
-8.16203
-8.35198
-8.29846
-8.03755
-7.57961
-6.90658
-5.97339
-4.71253
-3.04131
-0.870976
1.88297
5.29013
9.39498
14.2081
19.6996
25.7967
32.3846
39.3122
46.4018
53.4618
60.2997
66.7356
72.6107
77.7928
82.175
85.6701
88.2016
89.6943
90.0673
89.2335
87.105
83.6069
78.6966
72.3852
64.7574
55.9851
46.3321
36.1461
25.8392
15.8587
6.64993
-1.38199
-7.90712
-12.6967
-15.6346
-16.7096
-15.9857
-13.5492
-9.43606
-3.5484
4.42723
15.079
29.285
48.1634
72.9439
104.758
144.365
191.849
246.334
305.787
366.954
425.484
476.251
513.86
533.273
530.483
503.129
450.954
376.033
282.708
177.245
67.223
-39.2381
-134.342
-211.438
-265.715
-294.662
-298.264
-278.898
-240.971
-190.337
-133.59
-77.3093
-27.3592
11.6798
36.8954
47.2064
43.3061
27.4082
2.84394
-26.4312
-56.3537
-83.23
-104.122
-117.104
-121.378
-117.239
-105.923
-89.3502
-69.8286
-49.7332
-31.2191
-15.991
-5.15242
0.85624
2.23318
-0.282944
-5.56496
-12.2784
-19.0671
-24.7194
-28.2983
-29.222
-27.2925
-22.6731
-15.8244
-7.41099
1.80575
11.0742
19.7448
27.3377
33.5806
38.4152
41.9746
44.5387
46.475
48.1759
49.9985
52.2174
54.9926
58.3568
62.2206
66.3939
70.6181
74.6047
78.0747
80.7935
82.5971
83.409
83.2434
82.1992
80.4433
78.1882
75.6653
73.0991
70.6834
68.5636
66.8244
65.4857
64.5039
63.7794
63.1674
62.4915
61.5584
60.1724
58.1506
55.3363
51.6121
46.9116
41.2284
34.6226
27.2219
19.2177
10.8556
2.41889
-5.79179
-13.4829
-20.3927
-26.3144
-31.1138
-34.7399
-37.2264
-38.6841
-39.2849
-39.2394
-38.7716
-38.093
-37.3804
-36.759
-36.294
-35.9895
-35.796
-35.624
-35.3625
-34.8982
-34.1347
-33.0068
-31.491
-29.6076
-27.4185
-25.0172
-22.5168
-20.0349
-17.6799
-15.5393
-13.6723
-12.1068
-10.8416
-9.85131
-9.09455
-8.52198
-8.08363
-7.73402
-7.43478
-7.15463
-6.8678
-6.5515
-6.18377
-5.74248
-5.20583
-4.55461
-3.77559
-2.8654
-1.8339
-0.706248
0.477136
1.66294
2.78945
3.79267
4.61312
5.20227
5.52775
5.57645
5.35523
4.88916
4.21768
3.38931
2.4558
1.46669
0.464986
-0.515229
-1.44916
-2.31969
-3.11436
-3.82161
-4.42731
-4.91214
-5.25051
-5.41128
-5.3603
-5.06444
-4.49675
-3.64198
-2.5017
-1.09829
0.522997
2.29437
4.12845
5.92379
7.57262
8.97023
10.0252
10.6698
10.8694
10.6299
10.0027
9.08534
8.01833
6.97698
6.15958
5.77216
6.01161
7.0485
9.01139
11.974
15.9464
20.8709
26.6224
33.0138
39.8045
46.7126
53.4283
59.6297
64.9981
69.2354
72.0797
73.3223
72.8223
70.5196
66.4445
60.7227
53.5735
45.3013
36.2792
26.9259
17.6767
8.9523
1.1266
-5.50091
-10.7265
-14.454
-16.695
-17.5574
-17.2211
-15.9015
-13.8024
-11.0585
-7.6713
-3.44459
2.07252
9.62003
20.2234
35.1351
55.7086
83.2024
118.524
161.943
212.813
269.367
328.625
386.485
437.999
477.838
500.893
502.951
481.324
435.359
366.71
279.336
179.207
73.7258
-29.0354
-121.21
-195.994
-248.369
-275.622
-277.567
-256.474
-216.714
-164.17
-105.514
-47.4259
4.13337
44.5155
70.7814
81.8672
78.5191
63.0213
38.7703
9.75885
-19.9594
-46.7573
-67.8191
-81.3866
-86.849
-84.6826
-76.2609
-63.574
-48.9005
-34.4782
-22.2156
-13.4765
-8.95907
-8.67261
-12.0084
-17.8834
-24.9326
-31.7186
-36.9316
-39.5523
-38.9628
-34.9938
-27.9098
-18.3396
-7.16577
4.60802
15.9933
26.1389
34.4243
40.5155
44.3798
46.2609
46.6217
46.0655
45.246
44.7804
45.1755
46.7745
49.7305
54.0065
59.3999
65.5853
72.1675
78.7381
84.9242
90.4269
95.0421
98.6652
101.28
102.938
103.728
103.751
103.097
101.83
99.9832
97.56
94.5472
90.9264
86.6878
81.8404
76.4183
70.4822
64.1167
57.4256
50.5261
43.543
36.6044
29.838
23.368
17.3117
11.7751
6.8484
2.59975
-0.930107
-3.73265
-5.83417
-7.29552
-8.20858
-8.68931
-8.868
-8.87762
-8.84154
-8.86201
-9.0107
-9.32256
-9.7936
-10.3829
-11.019
-11.6086
-12.049
-12.2399
-12.0954
-11.5539
-10.5849
-9.19229
-7.41304
-5.31318
-2.98012
-0.513542
1.9842
4.41684
6.70101
8.77035
10.5768
12.0894
13.2904
14.1714
14.7286
14.9588
14.8574
14.4174
13.6311
12.4921
10.999
9.15878
6.9903
4.52617
1.81412
-1.08316
-4.08934
-7.11669
-10.0693
-12.847
-15.35
-17.4836
-19.1638
-20.3221
-20.911
-20.9073
-20.3155
-19.1691
-17.5298
-15.4851
-13.1436
-10.6293
-8.07336
-5.60666
-3.35099
-1.41154
0.129599
1.21809
1.8298
1.97084
1.67536
1.00139
0.0252762
-1.16472
-2.47506
-3.8133
-5.09378
-6.24258
-7.20158
-7.93179
-8.41576
-8.65902
-8.68998
-8.5578
-8.32757
-8.07242
-7.86246
-7.75109
-7.75986
-7.86386
-7.98037
-7.96372
-7.60892
-6.66586
-4.86394
-1.94539
2.2966
7.97997
15.1019
23.5185
32.9395
42.941
52.9946
62.5117
70.8954
77.5967
82.1658
84.2939
83.8402
80.8416
75.5054
68.1858
59.3482
49.5256
39.2725
29.1201
19.5385
10.907
3.49572
-2.54048
-7.15812
-10.4108
-12.4267
-13.3799
-13.4549
-12.8057
-11.508
-9.50589
-6.55639
-2.17911
4.37642
14.1292
28.3132
48.2566
75.1899
109.991
152.897
203.227
259.175
317.733
374.782
425.385
464.263
486.391
487.673
465.548
419.48
351.206
264.72
165.962
62.2494
-38.478
-128.51
-201.197
-251.659
-277.274
-277.906
-255.822
-215.353
-162.315
-103.301
-44.9198
6.9249
47.6173
74.2275
85.6818
82.706
67.5632
43.6365
14.9187
-14.5221
-41.0341
-61.7746
-74.9676
-80.0054
-77.3976
-68.5883
-55.6758
-41.0776
-27.1886
-16.0723
-9.22191
-7.41226
-10.654
-18.2451
-28.9071
-40.9799
-52.6503
-62.1819
-68.1201
-69.4497
-65.691
-56.9264
-43.76
-27.2211
-8.62454
10.5909
29.0259
45.468
59.0053
69.0978
75.6002
78.7387
79.0477
77.2777
74.2881
70.9381
67.9894
66.0305
65.4292
66.3165
68.5997
72.001
76.113
80.4642
84.5842
88.0617
90.5891
91.9896
92.2253
91.3879
89.6742
87.3519
84.7194
82.0662
79.6377
77.6073
76.0601
74.986
74.285
73.7798
73.2372
72.3936
70.983
68.7661
65.5566
61.2442
55.8108
49.3379
42.0048
34.0767
25.8827
17.7863
10.1515
3.30789
-2.48111
-7.04299
-10.3107
-12.3253
-13.2268
-13.2338
-12.6152
-11.6576
-10.6317
-9.76356
-9.21185
-9.05568
-9.29263
-9.84726
-10.5884
-11.3521
-11.9679
-12.2835
-12.1855
-11.6139
-10.5684
-9.10554
-7.32968
-5.37684
-3.39612
-1.5304
0.10083
1.41416
2.36919
2.96917
3.2557
3.29873
3.1836
2.99719
2.81499
2.69106
2.65171
2.69376
2.78709
2.88083
2.91208
2.81565
2.5334
2.02194
1.25765
0.239052
-1.01358
-2.4604
-4.04544
-5.70046
-7.34891
-8.90982
-10.3021
-11.4491
-12.2851
-12.7615
-12.8548
-12.5736
-11.9641
-11.1113
-10.1352
-9.18
-8.39689
-7.92237
-7.85486
-8.23377
-9.02519
-10.1175
-11.3289
-12.4265
-13.1553
-13.2728
-12.5841
-10.9731
-8.42387
-5.02973
-0.987887
3.41996
7.85872
11.979
15.4588
18.0436
19.5776
20.0251
19.4765
18.14
16.3196
14.3818
12.7154
11.6891
11.6116
12.6997
15.0564
18.6625
23.382
28.9795
35.1486
41.5459
47.8274
53.6825
58.8609
63.1902
66.5809
69.0192
70.5498
71.2502
71.2017
70.4625
69.047
66.9158
63.9792
60.1132
55.1863
49.0935
41.7904
33.3235
23.8498
13.6432
3.08618
-7.3534
-17.1567
-25.795
-32.7718
-37.6576
-40.1115
-39.8819
-36.7828
-30.6451
-21.2513
-8.26488
8.82139
30.697
58.1801
92.0863
133.021
181.118
235.763
295.361
357.205
417.506
471.604
514.367
540.749
546.43
528.445
485.715
419.382
332.874
231.697
122.936
14.5487
-85.4693
-169.942
-233.275
-272.028
-285.231
-274.394
-243.246
-197.214
-142.742
-86.5253
-34.7656
7.46833
36.7026
51.3006
51.4731
39.0729
17.2163
-10.2091
-39.08
-65.5498
-86.4773
-99.7285
-104.327
-100.449
-89.281
-72.7693
-53.3019
-33.3711
-15.2578
-0.774909
8.90615
13.3314
12.7449
7.98583
0.323211
-8.74516
-17.7004
-25.1909
-30.1804
-32.0401
-30.5802
-26.0227
-18.9236
-10.0616
-0.308671
9.49702
18.6601
26.7057
33.4183
38.8391
43.2282
46.9965
50.6237
54.5712
59.2067
64.7473
71.2295
78.5078
86.2804
94.135
101.609
108.254
113.689
117.653
120.026
120.84
120.263
118.574
116.118
113.263
110.355
107.675
105.415
103.655
102.364
101.404
100.553
99.5254
98.0109
95.7042
92.3411
87.7281
81.7666
74.4691
65.9641
56.4915
46.385
36.0461
25.9082
16.3978
7.89295
0.687309
-5.03898
-9.23596
-11.9865
-13.4939
-14.0561
-14.0285
-13.781
-13.6539
-13.9184
-14.747
-16.1969
-18.2086
-20.6193
-23.1894
-25.637
-27.677
-29.0586
-29.5971
-29.1958
-27.8555
-25.6723
-22.8229
-19.5421
-16.0937
-12.7411
-9.71884
-7.20998
-5.33103
-4.12524
-3.56452
-3.55903
-3.97259
-4.64164
-5.39545
-6.07514
-6.54965
-6.72723
-6.56149
-6.05195
-5.23957
-4.198
-3.02216
-1.81548
-0.67741
0.307381
1.07722
1.59823
1.8656
1.90132
1.7489
1.46581
1.11441
0.752516
0.424634
0.154921
-0.0571005
-0.237297
-0.433628
-0.708765
-1.12916
-1.75174
-2.61013
-3.70241
-4.98291
-6.35953
-7.69812
-8.83368
-9.58757
-9.78877
-9.29643
-8.02058
-5.93824
-3.10227
0.358286
4.24682
8.31587
12.2899
15.8918
18.8692
21.0195
22.2087
22.3848
21.5831
19.9245
17.6068
14.8909
12.0827
9.51329
7.51678
6.40931
6.46794
7.91109
10.8807
15.4269
21.4963
28.925
37.4374
46.6529
56.1012
65.2466
73.5213
80.3654
85.2716
87.8297
87.7652
84.9699
79.5167
71.659
61.8122
50.5192
38.403
26.1124
14.2648
3.39462
-6.08897
-13.9297
-20.0344
-24.4641
-27.4074
-29.1365
-29.948
-30.0922
-29.6936
-28.6682
-26.6462
-22.9134
-16.3867
-5.64633
10.9597
35.1259
68.3177
111.44
164.488
226.243
294.082
363.956
430.596
487.941
529.759
550.399
545.559
512.963
452.834
368.077
264.133
148.493
29.9503
-82.335
-179.831
-255.553
-304.796
-325.588
-318.809
-287.973
-238.72
-178.076
-113.605
-52.536
-1.00174
36.5537
57.719
62.1979
51.6359
29.2356
-0.77786
-33.7615
-65.2504
-91.4738
-109.734
-118.619
-118.033
-109.062
-93.7134
-74.5587
-54.3502
-35.6517
-20.5321
-10.3527
-5.66786
-6.2379
-11.1433
-18.9743
-28.0651
-36.7367
-43.5178
-47.3161
-47.5232
-44.0467
-37.2703
-27.9562
-17.1067
-5.80633
4.93037
14.2888
21.744
27.1032
30.4986
32.3369
33.215
33.8171
34.8091
36.7434
39.9885
44.6884
50.757
57.9034
65.684
73.5702
81.0229
87.5626
92.8257
96.6017
98.8465
99.6735
99.3246
98.1263
96.4396
94.6086
92.9163
91.5515
90.5908
89.9959
89.625
89.256
88.6178
87.425
85.4124
82.3654
78.1437
72.6963
66.0675
58.3923
49.885
40.8192
31.5046
22.2604
13.39
5.15795
-2.22835
-8.63019
-13.9825
-18.2918
-21.6272
-24.1071
-25.8821
-27.117
-27.9726
-28.5914
-29.0858
-29.5326
-29.9714
-30.4083
-30.8237
-31.1814
-31.4394
-31.5598
-31.5158
-31.2965
-30.9071
-30.3665
-29.7016
-28.9402
-28.103
-27.1971
-26.2122
-25.119
-23.8721
-22.4166
-20.6967
-18.6662
-16.2991
-13.5985
-10.6014
-7.38123
-4.04404
-0.721543
2.43987
5.29226
7.69997
9.55259
10.7755
11.3368
11.2503
10.5736
9.40307
7.86432
6.10179
4.26645
2.50377
0.942687
-0.313898
-1.19636
-1.673
-1.75165
-1.47812
-0.931212
-0.214589
0.554028
1.25535
1.78144
2.04751
2.00112
1.62742
0.949628
0.024604
-1.06607
-2.22813
-3.36792
-4.40496
-5.28141
-5.96697
-6.45831
-6.77312
-6.93995
-6.98595
-6.92475
-6.74701
-6.41564
-5.86661
-5.01563
-3.76952
-2.04055
0.238761
3.10294
6.54496
10.5135
14.9161
19.6291
24.5104
29.4154
34.2123
38.7937
43.0834
47.0369
50.6348
53.8709
56.7371
59.2075
61.2259
62.6999
63.5035
63.4883
62.5043
60.4247
57.1723
52.7429
47.2202
40.7798
33.6814
26.2477
18.835
11.7977
5.45267
0.0487642
-4.25327
-7.38688
-9.36828
-10.2663
-10.1537
-9.04169
-6.80513
-3.10585
2.66974
11.4414
24.4141
42.9876
68.5868
102.416
145.158
196.658
255.653
319.596
384.659
445.92
497.773
534.511
551.014
543.455
509.92
450.819
369.036
269.771
160.076
48.1488
-57.533
-149.124
-220.249
-266.656
-286.617
-281.021
-253.158
-208.241
-152.728
-93.5419
-37.2844
10.4598
45.6489
66.0912
71.5126
63.394
44.6182
18.9828
-9.34925
-36.3912
-58.7994
-74.2171
-81.4634
-80.5584
-72.5975
-59.5027
-43.6944
-27.7301
-13.9595
-4.23511
0.288699
-0.747392
-6.91904
-17.1269
-29.7818
-43.0368
-55.0345
-64.1386
-69.1207
-69.285
-64.5188
-55.2692
-42.453
-27.3178
-11.2725
4.28753
18.1409
29.3668
37.425
42.1847
43.9016
43.1512
40.7305
37.5418
34.476
32.3081
31.6166
32.7349
35.7361
40.4511
46.5133
53.4224
60.6175
67.5497
73.7455
78.8543
82.6757
85.1653
86.4211
86.6532
86.1433
85.1991
84.1108
83.1129
82.3574
81.8991
81.6938
81.6085
81.4408
80.945
79.8621
77.9489
75.0053
70.8971
65.5712
59.0645
51.5037
43.0975
34.122
24.899
15.7712
7.07536
-0.884513
-7.85983
-13.6752
-18.2388
-21.5442
-23.6648
-24.7396
-24.9545
-24.5196
-23.6463
-22.5268
-21.3171
-20.1275
-19.0181
-18.0026
-17.0558
-16.126
-15.1492
-14.0622
-12.815
-11.3782
-9.74789
-7.94534
-6.0133
-4.00966
-1.99947
-0.0467131
1.79307
3.47862
4.98656
6.3128
7.47141
8.49135
9.41083
10.2699
11.102
11.9247
12.7325
13.4917
14.1392
14.5865
14.7286
14.4567
13.6753
12.3185
10.3662
7.85569
4.887
1.62058
-1.73347
-4.93388
-7.73285
-9.90383
-11.2691
-11.7234
-11.25
-9.92747
-7.92433
-5.48377
-2.89865
-0.480388
1.47446
2.71598
3.06706
2.44086
0.847836
-1.60835
-4.74477
-8.32083
-12.0643
-15.6982
-18.9647
-21.6439
-23.5662
-24.6164
-24.7333
-23.904
-22.1563
-19.5513
-16.1764
-12.1406
-7.57049
-2.60781
2.59351
7.87121
13.0602
17.9995
22.5414
26.5599
29.9601
32.6844
34.7162
36.0784
36.8278
37.0442
36.8153
36.2204
35.3141
34.1122
32.5846
30.6537
28.2027
25.0906
21.1741
16.3324
10.4916
3.64645
-4.12657
-12.6638
-21.7194
-30.9797
-40.0834
-48.6473
-56.2912
-62.6593
-67.4346
-70.3426
-71.1413
-69.5987
-65.4577
-58.3958
-47.9861
-33.6758
-14.7948
9.38937
39.5602
76.1858
119.31
168.334
221.825
277.41
331.793
380.924
420.329
445.57
452.782
439.218
403.708
346.973
271.711
182.463
85.2251
-13.1214
-105.505
-185.401
-247.504
-288.271
-306.248
-302.163
-278.762
-240.434
-192.657
-141.36
-92.2623
-50.2787
-19.0583
-0.694386
4.36578
-2.7824
-19.7712
-43.353
-69.8585
-95.6614
-117.594
-133.271
-141.286
-141.275
-133.855
-120.442
-103.001
-83.7528
-64.8823
-48.2797
-35.3475
-26.8854
-23.0607
-23.4587
-27.1973
-33.0847
-39.7975
-46.0542
-50.7644
-53.1388
-52.7519
-49.5546
-43.8413
-36.1808
-27.3219
-18.0877
-9.27149
-1.54602
4.6048
8.92607
11.4017
12.2351
11.8058
10.6085
9.18375
8.0487
7.63662
8.25149
10.0424
12.9992
16.9682
21.6852
26.8191
32.0202
36.9669
41.4033
45.164
48.1845
50.4958
52.2063
53.4742
54.4755
55.3724
56.286
57.2765
58.3328
59.3722
60.2486
60.769
60.7151
59.8684
58.0361
55.0747
50.9096
45.5481
39.0849
31.6983
23.6386
15.209
6.74164
-1.43005
-8.99747
-15.7008
-21.347
-25.821
-29.0886
-31.192
-32.2378
-32.3814
-31.8068
-30.7077
-29.2688
-27.6516
-25.9843
-24.3572
-22.8232
-21.403
-20.0926
-18.8739
-17.7236
-16.6224
-15.5604
-14.5395
-13.573
-12.6804
-11.8809
-11.1852
-10.5876
-10.06
-9.54989
-8.98205
-8.26537
-7.30351
-6.00829
-4.31385
-2.18955
0.350542
3.24303
6.37652
9.59906
12.7309
15.5811
17.9669
19.7312
20.7593
20.9897
20.4201
19.1059
17.154
14.7102
11.9447
9.03466
6.14883
3.43335
1.00172
-1.07123
-2.75096
-4.04086
-4.97679
-5.61915
-6.04371
-6.33207
-6.56257
-6.8025
-7.10216
-7.4912
-7.97741
-8.54787
-9.17225
-9.80757
-10.404
-10.9108
-11.2821
-11.4812
-11.4841
-11.2813
-10.8775
-10.2905
-9.54831
-8.68557
-7.73906
-6.74313
-5.72516
-4.70151
-3.67434
-2.62939
-1.53514
-0.342977
1.01165
2.60713
4.53272
6.88418
9.75776
13.2419
17.4069
22.2923
27.8942
34.1529
40.9433
48.0703
55.2705
62.2217
68.5598
73.9041
77.8871
80.1883
80.5667
78.8899
75.1545
69.4951
62.1806
53.5967
44.216
34.5589
25.1487
16.4672
8.91453
2.77818
-1.78522
-4.75374
-6.22922
-6.41274
-5.56834
-3.97752
-1.88657
0.550994
3.3345
6.67466
11.0434
17.204
26.2051
39.3232
57.9373
83.3301
116.427
157.498
205.877
259.749
316.071
370.684
418.611
454.561
473.551
471.587
446.292
397.374
326.857
239.022
140.053
37.4137
-60.9419
-147.447
-215.752
-261.412
-282.328
-278.913
-253.945
-212.156
-159.61
-102.954
-48.6481
-2.26991
32.038
51.9067
56.848
48.1329
28.4736
1.5637
-28.4544
-57.5261
-82.1581
-99.7782
-108.949
-109.419
-102.033
-88.5048
-71.1156
-52.3714
-34.6649
-19.9865
-9.71466
-4.50243
-4.26584
-8.26528
-15.2607
-23.7142
-32.0102
-38.6644
-42.4951
-42.7414
-39.1164
-31.7962
-21.3531
-8.64628
5.30973
19.4815
32.9387
44.9481
55.0319
62.9859
68.8625
72.9224
75.5691
77.2733
78.5013
79.654
81.0243
82.7757
84.941
87.4402
90.1101
92.7431
95.126
97.0753
98.4639
99.2373
99.4172
99.0949
98.4144
97.5503
96.6821
95.9692
95.5292
95.4212
95.636
96.0923
96.6407
97.0719
97.1318
96.5404
95.0158
92.3013
88.1934
82.5705
75.4158
66.8334
57.0536
46.4244
35.39
24.4565
14.1482
4.95933
-2.69309
-8.50955
-12.3366
-14.1797
-14.1993
-12.6903
-10.0474
-6.72229
-3.17571
0.167792
2.95853
4.94929
6.00977
6.12705
5.39346
3.9842
2.12843
0.0778149
-1.92364
-3.66513
-4.98759
-5.79402
-6.05145
-5.78562
-5.06977
-4.01003
-2.72951
-1.35337
0.0034493
1.24479
2.29772
3.11322
3.66393
3.9401
3.94475
3.68932
3.19024
2.4671
1.54201
0.440202
-0.808964
-2.17098
-3.60576
-5.06806
-6.50901
-7.87848
-9.12821
-10.2152
-11.1047
-11.7732
-12.2095
-12.4157
-12.4056
-12.2034
-11.8405
-11.3524
-10.7757
-10.1452
-9.49195
-8.84146
-8.21304
-7.61929
-7.06596
-6.55223
-6.07147
-5.61289
-5.1643
-4.71602
-4.26569
-3.82311
-3.41414
-3.08239
-2.88762
-2.90021
-3.19177
-3.82263
-4.82777
-6.20337
-7.89621
-9.79819
-11.7476
-13.538
-14.934
-15.693
-15.59
-14.4424
-12.1316
-8.61841
-3.95009
1.74144
8.25048
15.3155
22.6422
29.9285
36.8881
43.271
48.8775
53.5646
57.2457
59.8831
61.4757
62.0455
61.6233
60.2396
57.9198
54.6863
50.5661
45.6027
39.8693
33.4804
26.5988
19.4354
12.2419
5.29475
-1.12535
-6.75793
-11.3864
-14.8576
-17.0943
-18.0973
-17.934
-16.7137
-14.5454
-11.482
-7.45142
-2.18531
4.84285
14.4509
27.7316
45.9682
70.4711
102.34
142.176
189.778
243.894
302.067
360.655
415.031
459.989
490.302
501.381
489.924
454.472
395.764
316.837
222.833
120.523
17.6229
-78.0396
-159.368
-220.763
-258.699
-272.051
-262.125
-232.415
-188.102
-135.4
-80.8015
-30.3542
10.9747
39.7562
54.3455
54.9002
43.187
22.2166
-4.23398
-32.1451
-57.7565
-77.9895
-90.747
-95.0651
-91.1142
-80.0636
-63.8377
-44.8071
-25.4547
-8.06282
5.54534
14.182
17.3771
15.3646
8.98566
-0.47232
-11.4738
-22.4417
-31.9465
-38.8557
-42.4304
-42.3634
-38.7608
-32.0778
-23.0223
-12.4432
-1.21845
9.84325
20.0775
29.0111
36.3803
42.1222
46.3464
49.2923
51.2801
52.6627
53.7819
54.9354
56.3538
58.1896
60.5164
63.3363
66.5931
70.1894
74.0037
77.9077
81.7795
85.5143
89.0299
92.2674
95.1883
97.7678
99.9852
101.814
103.214
104.121
104.452
104.099
102.943
100.863
97.7541
93.54
88.19
81.7299
74.2485
65.8974
56.8859
47.4686
37.9303
28.5683
19.6732
11.5134
4.31981
-1.72363
-6.48748
-9.90029
-11.9497
-12.6817
-12.1984
-10.6545
-8.25256
-5.23568
-1.87681
1.53588
4.71779
7.40969
9.40019
10.5459
10.7858
10.1467
8.73932
6.74286
4.38248
1.90126
-0.468517
-2.53044
-4.142
-5.22344
-5.75697
-5.77771
-5.35911
-4.59614
-3.58973
-2.43501
-1.21484
0.00136147
1.15454
2.19063
3.05506
3.68877
4.02714
4.00175
3.54455
2.59308
1.09558
-0.985222
-3.67004
-6.96258
-10.85
-15.3033
-20.2767
-25.7058
-31.5035
-37.556
-43.7187
-49.8148
-55.6384
-60.962
-65.5504
-69.1798
-71.6591
-72.8526
-72.699
-71.2258
-68.5543
-64.8962
-60.5397
-55.8269
-51.1251
-46.7934
-43.1499
-40.4419
-38.8217
-38.3329
-38.9057
-40.3645
-42.4456
-44.8236
-47.1434
-49.0551
-50.2473
-50.4758
-49.5847
-47.5178
-44.3201
-40.129
-35.1579
-29.6732
-23.9685
-18.3377
-13.0507
-8.33294
-4.34987
-1.1981
1.09852
2.58772
3.38417
3.66173
3.64349
3.58911
3.77945
4.49817
6.01046
8.54009
12.2463
17.2034
23.385
30.6568
38.7788
47.4175
56.1695
64.5913
72.2355
78.6859
83.5899
86.6835
87.8056
86.9036
84.027
79.3148
72.9778
65.2782
56.5122
46.9939
37.0446
26.986
17.1355
7.80329
-0.711691
-8.12696
-14.1826
-18.6464
-21.3144
-22.0028
-20.5289
-16.6777
-10.1587
-0.559213
12.6926
30.3394
53.2612
82.3829
118.515
162.134
213.126
270.539
332.383
395.558
455.935
508.624
548.427
570.421
570.605
546.517
497.712
426.025
335.555
232.365
123.901
18.2356
-76.7994
-154.459
-209.802
-240.188
-245.492
-228.023
-192.148
-143.707
-89.2758
-35.3914
12.1695
48.969
72.2867
81.2644
76.8172
61.3418
38.274
11.5621
-14.8701
-37.6052
-54.1033
-62.9279
-63.8108
-57.564
-45.8639
-30.9477
-15.2672
-1.1493
9.49563
15.3855
15.979
11.4843
2.77348
-8.77805
-21.5003
-33.655
-43.6512
-50.2238
-52.559
-50.3552
-43.8194
-33.6041
-20.699
-6.29261
8.37653
22.1612
34.1237
43.6203
50.343
54.3206
55.8802
55.5785
54.1136
52.2288
50.6217
49.8671
50.3638
52.3067
55.6881
60.3227
65.8923
72.0025
78.2423
84.2391
89.7009
94.4417
98.3881
101.567
104.08
106.065
107.659
108.966
110.025
110.799
111.174
110.975
109.989
107.994
104.797
100.265
94.3464
87.0875
78.636
69.2328
59.1938
48.8855
38.6948
28.9989
20.1356
12.3783
5.91676
0.844894
-2.84357
-5.25093
-6.56351
-7.03233
-6.94811
-6.61275
-6.30998
-6.27834
-6.68937
-7.63333
-9.11427
-11.0546
-13.3086
-15.683
-17.9618
-19.9323
-21.4091
-22.2534
-22.3853
-21.788
-20.5049
-18.6294
-16.2915
-13.6409
-10.8323
-8.01132
-5.30569
-2.81896
-0.628742
1.21266
2.67596
3.75212
4.45007
4.79528
4.82906
4.60843
4.20553
3.7061
3.20606
2.80615
2.60431
2.68643
3.11628
3.92576
5.10707
6.60792
8.33116
10.1393
11.8644
13.3217
14.3272
14.7159
14.3587
13.1774
11.153
8.32963
4.81092
0.751568
-3.65628
-8.19929
-12.6604
-16.8357
-20.549
-23.6631
-26.0868
-27.777
-28.7367
-29.0092
-28.669
-27.8121
-26.5449
-24.9745
-23.2011
-21.312
-19.3784
-17.4543
-15.5774
-13.7712
-12.0476
-10.4106
-8.85857
-7.38716
-5.99131
-4.66678
-3.41124
-2.2249
-1.11069
-0.0738647
0.878896
1.74102
2.50808
3.18042
3.76615
4.28479
4.77143
5.28132
5.89436
6.71818
7.88856
9.56527
11.9222
15.1312
19.3405
24.6495
31.0831
38.5698
46.9266
55.855
64.9508
73.7269
81.6493
88.181
92.8309
95.1996
95.0168
92.1674
86.7
78.8211
68.8735
57.3048
44.6287
31.3851
18.1022
5.26538
-6.70628
-17.4741
-26.7849
-34.4682
-40.4261
-44.6178
-47.0384
-47.6914
-46.5551
-43.5413
-38.4471
-30.9059
-20.346
-5.97136
13.2155
38.3337
70.4736
110.479
158.681
214.617
276.792
342.54
408.032
468.473
518.494
552.703
566.34
555.94
519.909
458.916
376.017
276.497
167.407
56.8656
-46.7916
-135.913
-204.354
-248.118
-265.742
-258.362
-229.487
-184.485
-129.893
-72.6138
-19.1263
25.2018
56.6189
73.2616
75.1787
64.124
43.1619
16.1529
-12.8068
-39.9171
-62.1128
-77.3638
-84.812
-84.7434
-78.4169
-67.7843
-55.1506
-42.8227
-32.7951
-26.5076
-24.7015
-27.3817
-33.8795
-42.9993
-53.22
-62.9224
-70.6097
-75.0943
-75.6303
-71.9803
-64.4133
-53.6406
-40.7019
-26.8207
-13.2482
-1.11527
8.69014
15.608
19.4467
20.3789
18.8946
15.7236
11.7352
7.83082
4.8408
3.43693
4.06944
6.93325
11.9651
18.8697
27.1687
36.2671
45.5259
54.3346
62.174
68.6636
73.5901
76.9139
78.7563
79.3689
79.0902
78.295
77.3433
76.5336
76.0664
76.0227
76.3579
76.9122
77.4363
77.6275
77.1727
75.7921
73.2781
69.526
64.55
58.4866
51.5818
44.166
36.6194
29.332
22.6631
16.9059
12.2596
8.81437
6.54781
5.33532
4.97076
5.19527
5.7302
6.30978
6.70987
6.76938
6.40235
5.59996
4.42301
2.98648
1.43894
-0.060436
-1.36389
-2.35371
-2.95526
-3.14342
-2.94206
-2.41742
-1.6667
-0.803752
0.0560638
0.809816
1.37817
1.71262
1.79821
1.65193
1.31722
0.85578
0.33766
-0.168914
-0.606984
-0.938543
-1.14976
-1.25336
-1.28785
-1.31391
-1.40806
-1.65434
-2.13478
-2.91966
-4.0588
-5.5747
-7.45876
-9.67081
-12.1425
-14.7835
-17.4913
-20.1605
-22.6941
-25.012
-27.0579
-28.8024
-30.2437
-31.4042
-32.3249
-33.0584
-33.6606
-34.1838
-34.6694
-35.1436
-35.6145
-36.0716
-36.4869
-36.818
-37.0128
-37.014
-36.7649
-36.2149
-35.3235
-34.0653
-32.4321
-30.4346
-28.1024
-25.4828
-22.6372
-19.6372
-16.5588
-13.4768
-10.4588
-7.55962
-4.81779
-2.25286
0.134852
2.36268
4.46217
6.47438
8.44452
10.4168
12.4302
14.5164
16.6992
18.9959
21.4201
23.9843
26.7017
29.5871
32.6547
35.9143
39.366
42.993
46.7558
50.5861
54.3832
58.0135
61.3127
64.0929
66.1531
67.2942
67.3363
66.1383
63.6158
59.7564
54.6291
48.3861
41.2558
33.5271
25.5262
17.588
10.0251
3.09883
-3.00477
-8.18927
-12.4493
-15.8559
-18.5239
-20.561
-22.0014
-22.7293
-22.4034
-20.3953
-15.7617
-7.26743
6.52433
27.0866
55.6917
93.1246
139.382
193.412
252.948
314.495
373.498
424.712
462.73
482.627
480.619
454.647
404.789
333.426
245.119
146.217
44.215
-53.0327
-138.162
-205.085
-249.619
-269.884
-266.421
-242.016
-201.288
-150.074
-94.7163
-41.3372
4.81113
39.8458
61.5536
69.4717
64.7571
49.8785
28.1826
3.39848
-20.8532
-41.4893
-56.2834
-64.0476
-64.6674
-58.9998
-48.6594
-35.7315
-22.4522
-10.9006
-2.73951
0.968303
-0.148387
-5.77263
-14.9885
-26.4382
-38.5208
-49.607
-58.2398
-63.301
-64.1229
-60.5397
-52.8736
-41.8658
-28.5618
-14.1712
0.0821994
13.0991
24.0179
32.2916
37.7206
40.4437
40.8899
39.7008
37.6362
35.4738
33.9166
33.5179
34.6312
37.388
41.7051
47.3155
53.8185
60.7403
67.5973
73.9524
79.4606
83.8971
87.1669
89.298
90.418
90.7217
90.4324
89.7638
88.8866
87.9047
86.8418
85.6419
84.1812
82.2895
79.7797
76.4785
72.2567
67.0535
60.8919
53.8838
46.2237
38.1716
30.0276
22.1023
14.6842
8.01176
2.25093
-2.51804
-6.30263
-9.1894
-11.3258
-12.8951
-14.0878
-15.0737
-15.9785
-16.8683
-17.7448
-18.5513
-19.1895
-19.5436
-19.5085
-19.0168
-18.0595
-16.6974
-15.0607
-13.3355
-11.7393
-10.4877
-9.75938
-9.66113
-10.2026
-11.2824
-12.6906
-14.127
-15.2346
-15.6436
-15.0211
-13.1193
-9.81648
-5.14406
0.703384
7.37796
14.4072
21.239
27.2979
32.0462
35.0436
35.997
34.7968
31.533
26.4902
20.1205
12.9973
5.7543
-0.98287
-6.66459
-10.8762
-13.3805
-14.1376
-13.3011
-11.1891
-8.23675
-4.93543
-1.76804
0.850373
2.619
3.37855
3.11689
1.95369
0.107792
-2.14644
-4.52654
-6.78567
-8.7465
-10.3207
-11.5127
-12.4074
-13.1464
-13.8956
-14.8112
-16.0081
-17.537
-19.3715
-21.4087
-23.4816
-25.3808
-26.8836
-27.7842
-27.922
-27.2027
-25.6114
-23.2142
-20.149
-16.609
-12.8183
-9.00608
-5.38072
-2.10772
0.706579
3.02441
4.87853
6.36742
7.64427
8.90146
10.3516
12.2069
14.6582
17.8553
21.8897
26.7806
32.4659
38.7979
45.546
52.4044
59.0077
64.9523
69.8236
73.2281
74.8277
74.3736
71.7352
66.9228
60.0964
51.563
41.757
31.2083
20.4976
10.2069
0.867111
-7.08647
-13.3487
-17.761
-20.3093
-21.0995
-20.315
-18.1566
-14.7714
-10.1747
-4.17644
3.67856
14.1406
28.2378
47.1954
72.2814
104.581
144.717
192.554
246.944
305.561
364.892
420.411
466.949
499.228
512.493
503.171
469.44
411.636
332.403
236.573
130.755
22.6992
-79.5117
-168.315
-237.474
-282.731
-302.217
-296.586
-268.856
-223.98
-168.224
-108.416
-51.1821
-2.24635
34.1229
55.458
61.2087
52.6297
32.4716
4.52571
-26.91
-57.5754
-83.7371
-102.569
-112.392
-112.752
-104.348
-88.8359
-68.5297
-46.0652
-24.0536
-4.77696
10.047
19.4076
23.045
21.4
15.4857
6.70461
-3.36042
-13.1529
-21.323
-26.8605
-29.1709
-28.0913
-23.8508
-16.9887
-8.24615
1.5525
11.6099
21.2465
29.9617
37.463
43.6632
48.6529
52.6543
55.9672
58.9147
61.7965
64.8544
68.252
72.0683
76.3038
80.8941
85.7299
90.6764
95.5929
100.347
104.826
108.942
112.631
115.853
118.581
120.795
122.468
123.561
124.011
123.737
122.635
120.596
117.52
113.332
108.002
101.559
94.1039
85.8015
76.8778
67.6003
58.2553
49.1222
40.449
32.4309
25.1972
18.8045
13.2403
8.43339
4.27046
0.616333
-2.66518
-5.69253
-8.552
-11.2892
-13.9069
-16.3699
-18.6137
-20.558
-22.1208
-23.2319
-23.8444
-23.9417
-23.5404
-22.6886
-21.4606
-19.9477
-18.249
-16.4604
-14.6664
-12.9325
-11.301
-9.78917
-8.39033
-7.07679
-5.80457
-4.51932
-3.16266
-1.67867
-0.0200051
1.84674
3.93671
6.24356
8.7376
11.3651
14.049
16.6915
19.1784
21.3855
23.1875
24.4684
25.1324
25.1152
24.3927
22.9867
20.9664
18.4445
15.5692
12.5111
9.44885
6.5525
3.96895
1.80963
0.142592
-1.0106
-1.67287
-1.90524
-1.79703
-1.45423
-0.987407
-0.500692
-0.0829161
0.198468
0.300378
0.2042
-0.0865235
-0.55011
-1.15172
-1.15172
-1.15172
-1.15172
-1.15172
-1.15172
-1.15172
-1.15172
-1.15172
-1.15172
-1.15172
-1.15172
-1.15172
-1.15172
-1.15172
-1.15172
-1.15172
-1.15172
-1.15172
-1.15172
