1.13868
-6.65466
-14.8978
-23.1958
-31.1146
-38.2284
-44.1678
-48.6644
-51.5818
-52.9315
-52.8692
-51.6727
-49.7047
-47.3648
-45.0374
-43.0419
-41.592
-40.7686
-40.511
-40.6265
-40.8195
-40.7347
-40.0113
-38.3383
-35.5051
-31.4401
-26.2296
-20.117
-13.4789
-6.78453
-0.54079
4.76756
8.73569
11.0868
11.7047
10.6463
8.13506
4.53372
0.303667
-4.04582
-8.01089
-11.1431
-13.0913
-13.6312
-12.6817
-10.308
-6.71091
-2.2067
2.80302
7.86689
12.5231
16.3396
18.9517
20.0948
19.629
17.5532
14.0075
9.26175
3.69237
-2.25243
-8.09485
-13.3732
-17.6864
-20.7315
-22.3311
-22.4466
-21.1763
-18.7387
-15.4443
-11.6576
-7.75664
-4.09292
-0.957078
1.44585
3.00984
3.72902
3.6875
3.04025
1.98795
0.749752
-0.462855
-1.4679
-2.1288
-2.36325
-2.14541
-1.50243
-0.506561
0.735288
2.09342
3.42746
4.59823
5.47902
5.96611
5.98814
5.51373
4.55636
3.17567
1.47413
-0.410967
-2.31994
-4.08657
-5.5554
-6.59863
-7.13015
-7.11507
-6.57325
-5.57642
-4.23932
-2.70592
-1.13262
0.329366
1.55033
2.4351
2.93132
3.03228
2.77423
2.22888
1.49231
0.671926
-0.126809
-0.812129
-1.31479
-1.5929
-1.63224
-1.44224
-1.0483
-0.481968
0.229603
1.07287
2.05443
3.20369
4.57121
6.22316
8.23261
10.6693
13.5899
17.0301
21.0008
25.49
30.4689
35.9037
41.7689
48.061
54.8064
62.0622
69.907
78.4205
87.6545
97.5986
108.147
119.072
130.011
140.472
149.861
157.525
162.816
165.161
164.127
159.481
151.23
139.634
125.194
108.612
90.7307
72.4597
54.6931
38.2346
23.7321
11.6331
2.16257
-4.67377
-9.06193
-11.33
-11.8796
-11.1015
-9.2768
-6.46948
-2.41551
3.57442
12.6752
26.5385
47.1808
76.7469
117.145
169.585
234.084
309.034
390.931
474.369
552.345
616.887
659.949
674.453
655.328
600.379
510.849
391.545
250.517
98.2929
-53.2178
-192.02
-307.354
-390.862
-437.465
-445.833
-418.403
-360.967
-281.88
-191.028
-98.6592
-14.2664
54.3838
101.946
125.865
126.392
106.283
70.237
24.1626
-25.6157
-73.122
-113.368
-142.811
-159.583
-163.508
-155.908
-139.259
-116.746
-91.7925
-67.615
-46.8553
-31.3322
-21.9219
-18.5709
-20.4214
-26.0227
-33.5896
-41.2718
-47.3996
-50.6754
-50.2969
-46.0018
-38.0378
-27.0728
-14.0605
-0.0865538
13.7846
26.6419
37.8263
46.9868
54.0934
59.4101
63.4376
66.8331
70.3212
74.6047
80.2861
87.8056
97.401
109.092
122.685
137.804
153.93
170.454
186.738
202.169
216.208
228.427
238.529
246.363
251.907
255.256
256.593
256.159
254.221
251.046
246.882
241.936
236.368
230.282
223.718
216.657
209.012
200.638
191.344
180.911
169.127
155.82
140.908
124.433
106.594
87.7578
68.4542
49.3421
31.1575
14.6453
0.482332
-10.7962
-18.859
-23.6202
-25.255
-24.1869
-21.0486
-16.6216
-11.7622
-7.32229
-4.07426
-2.6463
-3.47447
-6.77408
-12.5312
-20.5129
-30.2938
-41.2942
-52.827
-64.1486
-74.5118
-83.217
-89.6607
-93.3777
-94.0749
-91.6549
-86.2251
-78.0922
-67.7393
-55.7893
-42.9539
-29.975
-17.5629
-6.33778
3.21858
10.7962
16.2707
19.6961
21.2783
21.3326
20.2312
18.3492
16.0156
13.4765
10.8768
8.25974
5.58714
2.77429
-0.265584
-3.57507
-7.11221
-10.7232
-14.1335
-16.9607
-18.749
-19.0234
-17.3583
-13.4506
-7.1891
1.29251
11.5886
23.0284
34.7198
45.6281
54.6826
60.8981
63.4961
62.009
56.3524
46.8534
34.231
19.5271
3.99837
-11.0206
-24.2642
-34.676
-41.5236
-44.4754
-43.6295
-39.4921
-32.9092
-24.9612
-16.8325
-9.67401
-4.47369
-1.9498
-2.47912
-6.06638
-12.3571
-20.6906
-30.1849
-39.8436
-48.6696
-55.7747
-60.4709
-62.3346
-61.2384
-57.3473
-51.0836
-43.065
-34.0261
-24.7325
-15.8996
-8.12328
-1.83056
2.74584
5.56879
6.77568
6.63998
5.52166
3.81391
1.89298
0.0769134
-1.40261
-2.41354
-2.92202
-2.97817
-2.69242
-2.20675
-1.66483
-1.18538
-0.841829
-0.650443
-0.567751
-0.49691
-0.301476
0.175649
1.09068
2.57728
4.7269
7.5728
11.0788
15.1342
19.5544
24.0898
28.4405
32.2783
35.2738
37.1268
37.5968
36.5303
33.8823
29.7274
24.2593
17.7782
10.666
3.35259
-3.72319
-10.1523
-15.5891
-19.774
-22.5438
-23.8271
-23.629
-22.0073
-19.0473
-14.839
-9.4613
-2.97594
4.56953
13.1309
22.6517
33.047
44.1887
55.8975
67.94
80.0342
91.8605
103.077
113.338
122.311
129.695
135.231
138.713
139.998
139.004
135.721
130.21
122.605
113.116
102.028
89.6974
76.5373
63.0051
49.5769
36.7194
24.8577
14.3425
5.42048
-1.79006
-7.31376
-11.3208
-14.1126
-16.0859
-17.669
-19.2255
-20.9239
-22.5818
-23.5051
-22.3567
-17.103
-5.08437
16.7519
51.4461
101.475
168.123
250.878
346.981
451.231
556.155
652.56
730.445
780.169
793.72
765.91
695.287
584.633
440.93
274.789
99.3857
-70.9503
-222.317
-342.782
-423.685
-460.529
-453.367
-406.636
-328.481
-229.683
-122.317
-18.3517
71.6685
139.68
180.798
193.589
179.925
144.465
93.85
35.7526
-22.1189
-72.9192
-111.38
-134.268
-140.562
-131.349
-109.484
-79.0708
-44.8531
-11.5798
16.5647
36.4118
46.0985
45.177
34.5475
16.2395
-6.92197
-31.7135
-54.9247
-73.7329
-86.0024
-90.4777
-86.8593
-75.7605
-58.5627
-37.1928
-13.8566
9.23735
30.1291
47.3081
59.8433
67.4338
70.3818
69.4986
65.9606
61.1373
56.4152
53.0371
51.9754
53.8498
58.8943
66.9714
77.6272
90.1748
103.795
117.638
130.919
142.99
153.388
161.859
168.352
172.99
176.027
177.792
178.638
178.884
178.779
178.473
177.997
177.266
176.089
174.188
171.228
166.854
160.734
152.597
142.281
129.765
115.195
98.8973
81.3647
63.232
45.2286
28.1174
12.6273
-0.614506
-11.1426
-18.697
-23.2462
-24.987
-24.3205
-21.8076
-18.1097
-13.922
-9.90537
-6.62731
-4.51552
-3.83028
-4.65675
-6.91702
-10.399
-14.7973
-19.7606
-24.939
-30.0258
-34.7896
-39.0924
-42.8951
-46.2483
-49.2723
-52.1284
-54.9857
-57.9855
-61.2087
-64.6482
-68.1898
-71.6057
-74.5631
-76.6496
-77.417
-76.4395
-73.3814
-68.0644
-60.5248
-51.048
-40.1732
-28.6617
-17.4304
-7.45631
0.337099
5.19608
6.63958
4.53354
-0.875137
-8.97118
-18.83
-29.3163
-39.2106
-47.3463
-52.7419
-54.7101
-52.9317
-47.4852
-38.8304
-27.749
-15.2502
-2.45571
9.52455
19.7087
27.3399
31.9538
33.4098
31.8858
27.8373
21.9305
14.9555
7.73312
1.02533
-4.54085
-8.52837
-10.7198
-11.1201
-9.93494
-7.52862
-4.36832
-0.962002
2.20237
4.70992
6.25875
6.68353
5.96159
4.20227
1.62235
-1.48855
-4.80757
-8.01814
-10.8446
-13.0777
-14.5893
-15.3342
-15.3414
-14.6965
-13.5201
-11.9453
-10.0992
-8.08989
-6.00231
-3.89982
-1.83169
0.15714
2.01673
3.68585
5.09037
6.14707
6.77212
6.89298
6.46139
5.46526
3.93726
1.95839
-0.344278
-2.80577
-5.23664
-7.44014
-9.23101
-10.4539
-10.9986
-10.8113
-9.89858
-8.32614
-6.21062
-3.70682
-0.991699
1.75253
4.35426
6.66548
8.57062
9.99061
10.8823
11.2337
11.0571
10.3806
9.24106
7.67995
5.74252
3.48075
0.959187
-1.73856
-4.50445
-7.204
-9.67914
-11.7563
-13.2593
-14.0256
-13.9241
-12.8708
-10.8413
-7.87652
-4.08123
0.385768
5.32858
10.5368
15.8111
20.9887
25.9661
30.7157
35.2935
39.8375
44.5544
49.6962
55.5275
62.2872
70.1489
79.1829
89.3269
100.368
111.941
123.542
134.563
144.334
152.186
157.512
159.832
158.841
154.455
146.827
136.339
123.58
109.291
94.2982
79.4392
65.4815
53.0509
42.5728
34.2329
27.9637
23.4569
20.2064
17.5785
14.9107
11.6342
7.41715
2.31761
-3.06854
-7.48904
-8.97861
-4.90081
7.87761
32.6601
72.4468
129.353
203.998
294.96
398.432
508.161
615.77
711.445
784.964
826.923
830.009
790.116
707.13
585.249
432.754
261.249
84.4615
-83.2509
-228.489
-340.28
-411.247
-438.321
-422.935
-370.67
-290.444
-193.337
-91.2359
4.53017
84.4064
141.531
172.275
176.356
156.556
118.1
67.8019
13.1028
-38.8772
-82.1567
-112.494
-127.716
-127.769
-114.494
-91.2024
-62.1057
-31.694
-4.13916
17.2013
30.1316
33.7845
28.6064
16.1786
-1.08718
-20.3285
-38.6336
-53.413
-62.696
-65.3249
-61.0299
-50.3881
-34.6813
-15.6797
4.61449
24.2285
41.4526
55.0192
64.211
68.8915
69.4611
66.7525
61.8854
56.1016
50.6063
46.4342
44.3559
44.8305
48.0052
53.7527
61.7353
71.4816
82.4616
94.1504
106.073
117.829
129.094
139.617
149.19
157.639
164.796
170.495
174.568
176.851
177.197
175.491
171.667
165.716
157.697
147.742
136.049
122.881
108.562
93.4645
77.9993
62.6041
47.7248
33.7958
21.2167
10.3267
1.37913
-5.48173
-10.2398
-13.0187
-14.0836
-13.831
-12.7652
-11.462
-10.5212
-10.5107
-11.9088
-15.0492
-20.0771
-26.9216
-35.2902
-44.6876
-54.4591
-63.8541
-72.1041
-78.5059
-82.5008
-83.7387
-82.1209
-77.8155
-71.2422
-63.0301
-53.9526
-44.8466
-36.5269
-29.7035
-24.9129
-22.4682
-22.4347
-24.6304
-28.6531
-33.9279
-39.7708
-45.4606
-50.3121
-53.742
-55.3223
-54.8153
-52.1881
-47.6064
-41.4086
-34.0649
-26.1259
-18.1665
-10.7318
-4.28944
0.806572
4.33916
6.23664
6.56772
5.52462
3.39698
0.539437
-2.66399
-5.83552
-8.63625
-10.7933
-12.1192
-12.5216
-12.004
-10.6563
-8.63784
-6.15454
-3.43391
-0.699973
1.8483
4.05307
5.80687
7.0547
7.78969
8.04399
7.8767
7.36137
6.57478
5.58855
4.4644
3.25288
1.99517
0.72657
-0.519356
-1.70751
-2.79962
-3.75487
-4.53274
-5.09739
-5.42282
-5.49752
-5.3277
-4.93821
-4.37082
-3.68011
-2.92736
-2.17361
-1.47278
-0.866137
-0.378774
-0.0187498
0.221218
0.359913
0.422469
0.434931
0.419524
0.391441
0.357568
0.317194
0.26438
0.191359
0.0922653
-0.0335416
-0.179099
-0.32868
-0.457805
-0.534109
-0.518671
-0.367501
-0.033184
0.532957
1.37766
2.54094
4.04958
5.90926
8.0963
10.5505
13.1707
15.8147
18.3045
20.4374
22.0023
22.7997
22.6641
21.4846
19.2225
15.9222
11.7144
6.80984
1.48454
-3.94274
-9.13802
-13.782
-17.5989
-20.3811
-22.0062
-22.4459
-21.7638
-20.104
-17.6721
-14.7096
-11.4662
-8.17336
-5.02059
-2.13882
0.408739
2.62726
4.58294
6.38911
8.18796
10.1304
12.3568
14.9805
18.0765
21.6764
25.7689
30.3065
35.2167
40.4161
45.8241
51.3761
57.0327
62.7842
68.6503
74.6733
80.908
87.4071
94.204
101.297
108.63
116.084
123.463
130.49
136.809
141.995
145.574
147.051
145.951
141.871
134.525
123.8
109.794
92.8405
73.5118
52.5999
31.0693
9.98954
-9.55004
-26.534
-40.1141
-49.6885
-54.9552
-55.9236
-52.8731
-46.2508
-36.5132
-23.9295
-8.38244
10.7834
34.8106
65.428
104.574
153.961
214.526
285.882
365.864
450.314
533.176
606.952
663.485
694.98
695.11
660.046
589.215
485.681
356.037
209.835
58.5938
-85.4633
-210.783
-307.775
-369.864
-394.15
-381.614
-336.864
-267.447
-182.855
-93.3579
-8.81156
62.4076
114.217
143.312
149.289
134.41
103.08
61.1137
14.905
-29.3914
-66.5712
-92.9045
-106.429
-106.996
-96.095
-76.4908
-51.745
-25.6873
-1.90887
16.6641
28.0709
31.4682
27.1292
16.3054
0.983695
-16.4236
-33.4086
-47.6772
-57.4023
-61.397
-59.1939
-51.0331
-37.7685
-20.7121
-1.44244
18.398
37.2906
53.9943
67.6497
77.8296
84.5334
88.1354
89.2977
88.8617
87.7356
86.7912
86.7803
88.2785
91.6578
97.0857
104.545
113.87
124.782
136.936
149.944
163.411
176.937
190.134
202.621
214.025
223.981
232.134
238.148
241.72
242.592
240.576
235.565
227.555
216.652
203.075
187.155
169.323
150.09
130.023
109.718
89.7676
70.7323
53.1135
37.3284
23.6919
12.404
3.5435
-2.93044
-7.1706
-9.42769
-10.0312
-9.36642
-7.849
-5.89842
-3.91204
-2.24115
-1.17041
-0.902097
-1.54634
-3.11824
-5.54226
-8.66375
-12.2669
-16.0979
-19.8903
-23.3926
-26.392
-28.7353
-30.3421
-31.2109
-31.4153
-31.0934
-30.4289
-29.6283
-28.8954
-28.4076
-28.2952
-28.6265
-29.4017
-30.5542
-31.9597
-33.4523
-34.8446
-35.9501
-36.6039
-36.6811
-36.1087
-34.8717
-33.012
-30.6202
-27.822
-24.762
-21.5845
-18.4169
-15.3559
-12.459
-9.74217
-7.18499
-4.74078
-2.35178
0.0337246
2.44469
4.87369
7.26856
9.53088
11.5218
13.0751
14.0154
14.1803
13.4437
11.7366
9.06442
5.51603
1.26546
-3.4365
-8.27951
-12.9184
-17.0031
-20.2103
-22.2734
-23.0078
-22.3287
-20.259
-16.9271
-12.5561
-7.44327
-1.93442
3.60522
8.82092
13.3961
17.0752
19.6811
21.1241
21.4035
20.6019
18.8726
16.4215
13.486
10.3122
7.13322
4.14971
1.51507
-0.674088
-2.38112
-3.62639
-4.47847
-5.04068
-5.43444
-5.78148
-6.18688
-6.72496
-7.42959
-8.29007
-9.25265
-10.2274
-11.0989
-11.7401
-12.0256
-11.845
-11.1135
-9.78024
-7.83476
-5.31168
-2.29445
1.08225
4.63212
8.1208
11.2747
13.7973
15.392
15.7927
14.7971
12.2999
8.32029
3.01819
-3.30458
-10.2212
-17.2136
-23.7216
-29.1993
-33.1747
-35.3024
-35.4032
-33.4858
-29.7461
-24.5453
-18.3695
-11.7745
-5.32531
0.464865
5.1865
8.57157
10.5129
11.0638
10.4187
8.87898
6.80918
4.59001
2.57438
1.05213
0.227307
0.209924
1.02194
2.61538
4.89855
7.7656
11.1241
14.9161
19.1289
23.7951
28.9803
34.763
41.2087
48.3436
56.1317
64.4598
73.1319
81.8747
90.3534
98.1959
105.022
110.473
114.245
116.107
115.924
113.659
109.379
103.24
95.4813
86.4002
76.3396
65.6683
54.7644
44.0007
33.7296
24.2669
15.8739
8.73853
2.95885
-1.46628
-4.63046
-6.68861
-7.79303
-7.99292
-7.10205
-4.55193
0.738021
10.4298
26.7277
52.1927
89.3923
140.409
206.264
286.363
378.068
476.528
574.839
664.571
736.623
782.306
794.508
768.758
704.018
603.076
472.453
321.826
163.028
8.76527
-128.785
-239.31
-315.458
-353.553
-353.862
-320.378
-260.191
-182.517
-97.5483
-15.2538
55.7019
108.812
140.258
149.085
137.025
108.016
67.5131
21.6856
-23.3943
-62.4626
-91.6051
-108.577
-112.888
-105.655
-89.2867
-67.0321
-42.4784
-19.0626
0.345472
13.7439
20.1566
19.6454
13.1893
2.46103
-10.4611
-23.4013
-34.3748
-41.8211
-44.7591
-42.8519
-36.384
-26.1616
-13.3581
0.670745
14.5746
27.1759
37.5973
45.3389
50.2986
52.743
53.2347
52.5319
51.4756
50.8788
51.4318
53.6319
57.7441
63.7931
71.5835
80.7427
90.7796
101.149
111.313
120.798
129.236
136.386
142.143
146.533
149.687
151.815
153.168
154.002
154.547
154.973
155.376
155.758
156.02
155.968
155.317
153.711
150.758
146.066
139.295
130.21
118.731
104.966
89.2375
72.0673
54.1502
36.2943
19.3456
4.10239
-8.76812
-18.8013
-25.7842
-29.7755
-31.0949
-30.2819
-28.0307
-25.11
-22.2772
-20.1988
-19.3863
-20.1541
-22.6043
-26.6365
-31.9813
-38.2488
-44.9874
-51.7405
-58.0979
-63.732
-68.419
-72.0418
-74.5785
-76.0797
-76.6402
-76.37
-75.3707
-73.7187
-71.4589
-68.6072
-65.1604
-61.1109
-56.4629
-51.2466
-45.5286
-39.4161
-33.0559
-26.6266
-20.3278
-14.3648
-8.93381
-4.20713
-0.320839
2.63399
4.61605
5.63414
5.74348
5.03864
3.64414
1.70428
-0.626405
-3.19077
-5.83412
-8.40674
-10.7647
-12.7704
-14.2939
-15.217
-15.4397
-14.8893
-13.5307
-11.3761
-8.49224
-5.00264
-1.08473
3.03992
7.12086
10.8982
14.1241
16.5838
18.1139
18.6154
18.0616
16.4994
14.0451
10.8754
7.21426
3.31683
-0.547941
-4.11585
-7.14553
-9.43527
-10.8373
-11.2691
-10.7195
-9.25094
-6.99517
-4.14387
-0.934104
2.3704
5.50059
8.20429
10.2672
11.5303
11.9031
11.3688
9.98443
7.87193
5.20448
2.18757
-0.962044
-4.03727
-6.85895
-9.28947
-11.2402
-12.6727
-13.5933
-14.0431
-14.0857
-13.7935
-13.2363
-12.4732
-11.548
-10.4904
-9.31978
-8.05153
-6.70401
-5.30421
-3.89095
-2.51463
-1.23378
-0.108809
0.805764
1.46907
1.86023
1.98197
1.86099
1.54473
1.09544
0.582214
0.0725573
-0.375348
-0.718575
-0.932816
-1.01291
-0.970659
-0.830447
-0.623451
-0.381377
-0.130657
0.112105
0.342871
0.570855
0.817216
1.11211
1.49071
1.98881
2.63878
3.46644
4.48914
5.7152
7.14457
8.77028
10.5802
12.5585
14.6868
16.9441
19.3067
21.7473
24.235
26.7373
29.2233
31.6704
34.0729
36.4522
38.8651
41.4097
44.2232
47.474
51.343
55.9999
61.5743
68.127
75.6264
83.9332
92.7968
101.866
110.71
118.851
125.804
131.111
134.379
135.305
133.697
129.482
122.706
113.529
102.213
89.1116
74.6507
59.3134
43.6209
28.1118
13.3189
-0.254733
-12.1608
-22.0286
-29.5831
-34.6524
-37.1598
-37.093
-34.4442
-29.12
-20.828
-8.9574
7.51323
30.0397
60.425
100.59
152.198
216.175
292.183
378.172
470.115
562.025
646.321
714.532
758.275
770.368
745.919
683.204
584.19
454.591
303.435
142.184
-16.4933
-160.108
-277.737
-361.208
-405.942
-411.343
-380.715
-320.715
-240.444
-150.301
-60.7536
18.8213
81.086
121.383
138.013
132.141
107.376
69.1056
23.6714
-22.4772
-63.5652
-95.1123
-114.333
-120.29
-113.805
-97.1641
-73.6715
-47.1257
-21.2872
0.592939
16.133
24.0345
24.1379
17.3298
5.32743
-9.62111
-25.0732
-38.7203
-48.6676
-53.6345
-53.0589
-47.1027
-36.5672
-22.7402
-7.20013
8.39339
22.4972
33.8478
41.5764
45.27
44.9782
41.1732
34.6732
26.5416
17.9756
10.1936
4.33293
1.3621
2.01337
6.73657
15.6754
28.6653
45.2522
64.7285
86.1859
108.579
130.796
151.738
170.387
185.877
197.549
204.992
208.06
206.879
201.823
193.475
182.573
169.945
156.439
142.855
129.883
118.062
107.748
99.1045
92.1082
86.5749
82.1941
78.5718
75.2764
71.8822
68.0082
63.3474
57.6879
50.9231
43.0526
34.1755
24.4762
14.207
3.66721
-6.81774
-16.9164
-26.3101
-34.709
-41.866
-47.589
-51.7499
-54.2912
-55.2302
-54.6589
-52.7393
-49.6953
-45.7991
-41.3538
-36.674
-32.0641
-27.7979
-24.1
-21.1312
-18.9797
-17.6574
-17.1036
-17.1942
-17.7567
-18.5884
-19.4769
-20.2201
-20.6443
-20.6184
-20.0625
-18.9519
-17.3157
-15.2312
-12.8159
-10.2167
-7.59947
-5.13731
-2.99918
-1.33849
-0.281807
0.082016
-0.288196
-1.37791
-3.11184
-5.35313
-7.90773
-10.5346
-12.9617
-14.9063
-16.0994
-16.3103
-15.3695
-13.187
-9.76494
-5.20102
0.315469
6.51575
13.0701
19.6113
25.7605
31.1546
35.4714
38.4524
39.9199
39.7891
38.0719
34.8747
30.3876
24.8689
18.6244
11.985
5.28481
-1.15833
-7.05686
-12.163
-16.273
-19.2275
-20.9103
-21.2468
-20.2045
-17.7952
-14.0807
-9.17962
-3.27371
3.3874
10.4869
17.6479
24.4487
30.4458
35.2032
38.3272
39.5018
38.5227
35.326
30.0081
22.8354
14.2411
4.80784
-4.76314
-13.6979
-21.2083
-26.5602
-29.1479
-28.5672
-24.6784
-17.6512
-7.98115
3.52778
15.8187
27.6732
37.8306
45.1245
48.6183
47.7245
42.2887
32.6274
19.5109
4.09197
-12.2127
-27.8747
-41.4207
-51.593
-57.485
-58.6335
-55.0595
-47.2526
-36.1032
-22.794
-8.6638
4.93766
16.7868
25.901
31.6193
33.6427
32.0345
27.1825
19.7335
10.508
0.407566
-9.67552
-18.9363
-26.718
-32.551
-36.1693
-37.5065
-36.674
-33.9261
-29.6171
-24.1561
-17.9626
-11.4271
-4.88055
1.42878
7.34715
12.8182
17.8766
22.6344
27.2614
31.9624
36.9527
42.4344
48.5742
55.4837
63.2032
71.6882
80.7995
90.2978
99.845
109.013
117.304
124.179
129.1
131.58
131.232
127.821
121.305
111.853
99.8557
85.8963
70.712
55.1282
39.9839
26.0521
13.9661
4.15997
-3.17165
-8.08803
-10.8924
-12.0968
-12.3642
-12.4279
-12.9892
-14.5929
-17.485
-21.4619
-25.7332
-28.8268
-28.5762
-22.2271
-6.68821
21.0691
63.4916
121.867
195.778
282.702
377.847
474.307
563.578
636.387
683.76
698.191
674.733
611.857
511.92
381.159
229.191
68.062
-89.042
-229.24
-341.387
-417.294
-452.584
-447.087
-404.729
-332.937
-241.669
-142.182
-45.7117
37.7717
100.592
138.057
148.763
134.481
99.6954
50.8437
-4.59881
-59.0892
-105.911
-139.89
-157.871
-158.903
-144.155
-116.581
-80.4087
-40.5239
-1.83728
31.2934
55.5224
68.8154
70.5718
61.5743
43.7872
20.0404
-6.35456
-32.0114
-53.8503
-69.4164
-77.1069
-76.2884
-67.3026
-51.3673
-30.3894
-6.71783
17.137
38.7837
56.2027
67.9448
73.258
72.1321
65.2602
53.9268
39.8373
24.9138
11.0809
0.0673491
-6.75679
-8.49089
-4.75688
4.30601
18.0978
35.6542
55.7679
77.1196
98.4033
118.434
136.232
151.069
162.495
170.328
174.624
175.64
173.775
169.52
163.407
155.966
147.683
138.977
130.175
121.503
113.083
104.938
97.0071
89.1684
81.2687
73.1572
64.7171
55.8944
46.7168
37.2998
27.841
18.5996
9.86697
1.93089
-4.96134
-10.6346
-15.0089
-18.1091
-20.0621
-21.0797
-21.4329
-21.4181
-21.3233
-21.3968
-21.8227
-22.7066
-24.0719
-25.8664
-27.9779
-30.2553
-32.5325
-34.6511
-36.4791
-37.9241
-38.9389
-39.5201
-39.7013
-39.5417
-39.1131
-38.4871
-37.7239
-36.8652
-35.9302
-34.9165
-33.8041
-32.5616
-31.1538
-29.5496
-27.7279
-25.6822
-23.4218
-20.9708
-18.3647
-15.6445
-12.8507
-10.0173
-7.16732
-4.31167
-1.45084
1.41957
4.30063
7.18029
10.024
12.7672
15.3127
17.5318
19.2732
20.3762
20.6905
20.0978
18.5357
16.0188
12.6545
8.65108
4.31386
0.0289117
-3.76683
-6.6276
-8.14957
-8.02515
-6.09391
-2.38272
2.87206
9.22584
16.0536
22.6037
28.0743
31.7043
32.8686
31.1649
26.4803
19.0267
9.33727
-1.77672
-13.3059
-24.1509
-33.2444
-39.6734
-42.7838
-42.2564
-38.1422
-30.8553
-21.1231
-9.90097
1.73591
12.7119
22.0651
29.0431
33.1709
34.283
32.5188
28.2841
22.1855
14.9479
7.3261
0.0216266
-6.38578
-11.485
-15.0554
-17.0646
-17.6433
-17.0459
-15.6009
-13.66
-11.5527
-9.5496
-7.83941
-6.51984
-5.60108
-5.0201
-4.66215
-4.38591
-4.04877
-3.5295
-2.74586
-1.66622
-0.314491
1.23137
2.84641
4.37023
5.62165
6.41499
6.57638
5.9589
4.45534
2.00793
-1.38497
-5.6652
-10.7136
-16.3509
-22.3413
-28.3979
-34.1928
-39.3713
-43.5705
-46.4446
-47.6934
-47.0928
-44.5261
-40.0093
-33.7094
-25.9494
-17.1979
-8.04208
0.857224
8.8234
15.2312
19.5753
21.5323
21.0086
18.1662
13.423
7.42541
0.994761
-4.94696
-9.4651
-11.7044
-10.9756
-6.82664
0.906454
12.0764
26.2278
42.6278
60.3184
78.1891
95.0606
109.777
121.3
128.789
131.682
129.738
123.07
112.135
97.6995
80.7754
62.5278
44.1728
26.8686
11.6142
-0.833459
-10.0154
-15.7944
-18.3442
-18.1083
-15.7328
-11.9825
-7.64959
-3.4597
0.0188084
2.46474
3.89411
4.75031
5.98606
9.11776
16.2213
29.8329
52.7242
87.5395
136.314
199.931
277.605
366.501
461.604
555.898
640.911
707.569
747.271
753.054
720.646
649.264
542.006
405.756
250.597
88.7893
-66.5487
-202.893
-309.704
-379.572
-408.979
-398.582
-352.994
-280.109
-190.075
-94.0469
-2.88926
74.0092
129.678
160.161
164.718
145.632
107.683
57.3638
1.96056
-51.3776
-96.4743
-128.767
-145.696
-146.815
-133.633
-109.24
-77.766
-43.7738
-11.6546
14.8967
33.2669
42.1394
41.5263
32.633
17.5879
-0.915513
-20.0108
-37.0327
-49.8277
-56.9693
-57.8598
-52.7174
-42.4632
-28.5302
-12.6289
3.49825
18.2996
30.5904
39.6629
45.3253
47.8713
47.9916
46.6465
44.9167
43.8566
44.3638
47.0822
52.3441
60.1555
70.2212
82.0032
94.8017
107.848
120.395
131.797
141.574
149.44
155.317
159.314
161.695
162.82
163.091
162.896
162.559
162.303
162.236
162.35
162.528
162.575
162.243
161.263
159.369
156.321
151.92
146.017
138.522
129.411
118.737
106.633
93.321
79.1121
64.4021
49.6556
35.3806
22.0942
10.2819
0.354454
-7.39157
-12.8048
-15.8968
-16.8439
-15.9711
-13.7204
-10.6066
-7.16563
-3.90105
-1.23625
0.523593
1.21488
0.822128
-0.532335
-2.61359
-5.11057
-7.67884
-9.98411
-11.7413
-12.7448
-12.8865
-12.161
-10.6576
-8.54176
-6.02911
-3.35542
-0.747714
1.60069
3.54797
5.01297
5.97556
6.46918
6.5677
6.36911
5.97889
5.49543
4.99927
4.54706
4.17034
3.87836
3.66373
3.5093
3.39493
3.3027
3.22014
3.14106
3.06441
2.99177
2.92441
2.86082
2.79536
2.7186
2.61923
2.48714
2.31686
2.11052
1.8794
1.64347
1.42889
1.2637
1.17262
1.17171
1.26401
1.43686
1.66135
1.89383
2.07927
2.15577
2.05961
1.73017
1.11432
0.170212
-1.1292
-2.79266
-4.80681
-7.1322
-9.69977
-12.4088
-15.128
-17.7001
-19.952
-21.7095
-22.8155
-23.1504
-22.6514
-21.3277
-19.2687
-16.643
-13.6877
-10.6881
-7.94989
-5.76708
-4.3896
-3.99482
-4.6667
-6.38537
-9.02846
-12.384
-16.1735
-20.0813
-23.7881
-27.0025
-29.489
-31.0876
-31.7239
-31.4092
-30.2302
-28.3317
-25.8941
-23.1089
-20.1564
-17.1879
-14.314
-11.6005
-9.0719
-6.71962
-4.51457
-2.42039
-0.405369
1.54873
3.44229
5.25769
6.96301
8.51791
9.88038
11.0126
11.8847
12.4769
12.7777
12.7818
12.4861
11.8865
10.9755
9.74214
8.17384
6.26104
4.00344
1.4173
-1.45702
-4.54883
-7.75302
-10.9293
-13.9054
-16.485
-18.459
-19.6208
-19.7828
-18.7922
-16.5451
-12.9955
-8.15867
-2.10821
5.03197
13.0994
21.9056
31.2476
40.9153
50.6948
60.3669
69.7027
78.4587
86.3733
93.1677
98.554
102.25
103.998
103.597
100.922
95.9554
88.8002
79.6902
68.9824
57.1372
44.6848
32.181
20.1583
9.07544
-0.72594
-9.05387
-15.8825
-21.3497
-25.7358
-29.4243
-32.847
-36.4195
-40.4681
-45.152
-50.3808
-55.7293
-60.3554
-62.9337
-61.6277
-54.131
-37.8089
-9.96332
31.7776
88.973
161.848
248.83
346.246
448.275
547.232
634.188
699.883
735.844
735.52
695.309
615.264
499.388
355.431
194.192
28.4203
-128.555
-264.289
-368.575
-434.529
-459.256
-444.032
-393.992
-317.38
-224.477
-126.348
-33.5784
44.8547
102.439
135.635
143.999
129.934
98.1265
54.7738
6.69944
-39.5159
-78.2904
-105.601
-119.302
-119.179
-106.77
-84.9878
-57.6168
-28.7509
-2.25481
18.6931
31.9274
36.4647
32.5105
21.3194
4.94004
-14.1109
-33.2012
-49.9131
-62.3156
-69.1492
-69.9094
-64.83
-54.7773
-41.0776
-25.3074
-9.07557
6.17439
19.3187
29.6503
36.9128
41.2735
43.247
43.5843
43.1457
42.7773
43.2045
44.9582
48.3378
53.413
60.0596
68.0202
76.9764
86.6205
96.7131
107.118
117.813
128.866
140.403
152.548
165.366
178.814
192.696
206.654
220.165
232.574
243.143
251.113
255.776
256.546
253.025
245.055
232.748
216.49
196.93
174.933
151.514
127.762
104.747
83.4335
64.6033
48.7931
36.261
26.9794
20.6561
16.7816
14.6957
13.6651
12.9647
11.9521
10.1279
7.17572
2.97892
-2.3862
-8.67887
-15.5385
-22.5392
-29.2472
-35.274
-40.3188
-44.1975
-46.8542
-48.3568
-48.8783
-48.6671
-48.0116
-47.2029
-46.5008
-46.1068
-46.1456
-46.6575
-47.6009
-48.8633
-50.2801
-51.6569
-52.7936
-53.5074
-53.6516
-53.1293
-51.9003
-49.9813
-47.4386
-44.3765
-40.9213
-37.2045
-33.3471
-29.4477
-25.5748
-21.7663
-18.0335
-14.3708
-10.7681
-7.22429
-3.75885
-0.419184
2.71769
5.55031
7.96422
9.84812
11.1122
11.706
11.6317
10.9517
9.78778
8.3115
6.72681
5.24695
4.06845
3.34626
3.17365
3.57047
4.48201
5.78896
7.32735
8.91526
10.382
11.5951
12.4797
13.0283
13.2981
13.3963
13.4568
13.6115
13.961
14.5508
15.3576
16.2874
17.1888
17.8772
18.1686
17.9156
17.0398
15.5544
13.5719
11.2944
8.98685
6.9372
5.40792
4.58805
4.55291
5.23903
6.43959
7.82258
8.97062
9.43768
8.81511
6.79756
3.23873
-1.81177
-8.09666
-15.1672
-22.4258
-29.1904
-34.7719
-38.5553
-40.0736
-39.0662
-35.5133
-29.6436
-21.9143
-12.9665
-3.5623
5.4901
13.4125
19.5282
23.3205
24.4753
22.9033
18.7435
12.3461
4.24059
-4.91209
-14.3756
-23.4009
-31.2892
-37.4507
-41.4537
-43.0598
-42.241
-39.1779
-34.2384
-27.9374
-20.8839
-13.7181
-7.04663
-1.38108
2.91138
5.64149
6.81009
6.59761
5.33162
3.4364
1.37092
-0.43638
-1.64714
-2.05832
-1.6266
-0.468245
1.16598
2.93724
4.47986
5.46831
5.67992
5.04388
3.66872
1.84368
0.0130388
-1.27367
-1.42893
0.0970009
3.74208
9.77028
18.2295
28.9344
41.4773
55.2637
69.5685
83.6053
96.5998
107.857
116.816
123.085
126.452
126.882
124.484
119.487
112.191
102.944
92.1122
80.0685
67.1896
53.8603
40.4794
27.4624
15.2363
4.22275
-5.19143
-12.6941
-18.0935
-21.3616
-22.667
-22.385
-21.0761
-19.4236
-18.1243
-17.7346
-18.4816
-20.0632
-21.4744
-20.9081
-15.7805
-2.92063
21.059
59.2306
113.717
185.049
271.64
369.481
472.169
571.307
657.276
720.295
751.642
744.864
696.792
608.2
483.984
332.828
166.363
-2.05368
-158.802
-291.502
-390.358
-449.181
-465.965
-442.947
-386.173
-304.642
-209.146
-110.973
-20.6341
53.2359
104.673
130.814
131.923
111.058
73.435
25.6022
-25.4657
-73.2326
-112.325
-139.042
-151.609
-150.169
-136.548
-113.829
-85.8329
-56.5545
-29.6493
-8.01702
6.4732
13.0963
12.2291
5.17423
-6.11307
-19.3491
-32.2508
-42.8279
-49.6042
-51.7489
-49.1104
-42.1592
-31.8569
-19.4758
-6.39695
6.08564
16.9297
25.4607
31.4292
35.0062
36.7242
37.3749
37.8808
39.159
41.9967
46.9506
54.2852
63.9514
75.6078
88.6772
102.429
116.077
128.874
140.198
149.619
156.93
162.16
165.546
167.49
168.494
169.092
169.778
170.952
172.868
175.622
179.142
183.209
187.497
191.608
195.13
197.674
198.913
198.601
196.582
192.777
187.166
179.774
170.644
159.832
147.412
133.481
118.189
101.755
84.488
66.7937
49.1632
32.1487
16.3222
2.22458
-9.68885
-19.0975
-25.8522
-29.9943
-31.7523
-31.5185
-29.8057
-27.1922
-24.2604
-21.538
-19.4478
-18.2729
-18.1404
-19.0246
-20.7669
-23.1111
-25.7454
-28.3486
-30.6312
-32.3686
-33.423
-33.7504
-33.3957
-32.4756
-31.154
-29.6134
-28.0266
-26.5323
-25.218
-24.1114
-23.1822
-22.3509
-21.5057
-20.5222
-19.2848
-17.7052
-15.7369
-13.383
-10.6966
-7.77475
-4.74612
-1.75442
1.05989
3.57763
5.71617
7.4403
8.76705
9.76409
10.5417
11.2389
12.0066
12.9877
14.2996
16.0184
18.1704
20.7293
23.6217
26.7387
29.9522
33.1323
36.161
38.9399
41.3898
43.4408
45.0185
46.0284
46.3463
45.8199
44.2846
41.5945
37.6642
32.5138
26.3071
19.3736
12.2055
5.42569
-0.271628
-4.2028
-5.78769
-4.6411
-0.648177
5.98909
14.7442
24.8018
35.1343
44.613
52.1374
56.7684
57.845
55.0699
48.5511
38.7942
26.6464
13.2005
-0.329197
-12.7418
-22.9791
-30.2326
-34.0181
-34.2087
-31.0256
-24.9911
-16.8515
-7.48191
2.21388
11.397
19.3694
25.6264
29.8808
32.0622
32.2911
30.8381
28.0712
24.4014
20.2324
15.9182
11.7349
7.86559
4.39995
1.34582
-1.35006
-3.77606
-6.02846
-8.187
-10.2963
-12.3553
-14.3156
-16.0886
-17.5593
-18.6056
-19.1179
-19.0188
-18.2773
-16.918
-15.0216
-12.7185
-10.1759
-7.57936
-5.11362
-2.94353
-1.19968
0.0298726
0.70078
0.806597
0.367932
-0.580743
-2.00325
-3.86959
-6.15691
-8.84245
-11.8888
-15.224
-18.72
-22.1748
-25.3038
-27.7441
-29.0737
-28.8477
-26.6455
-22.1263
-15.0832
-5.49047
6.46476
20.3712
35.6055
51.367
66.7332
80.7301
92.4103
100.932
105.634
106.092
102.161
93.9964
82.0425
67.0032
49.7861
31.429
13.0142
-4.41973
-19.9626
-32.902
-42.7722
-49.3777
-52.789
-53.313
-51.4429
-47.794
-43.0335
-37.8095
-32.6831
-28.0625
-24.1338
-20.7856
-17.5274
-13.4144
-7.00157
3.63551
20.778
46.8111
83.8403
133.212
195.01
267.624
347.499
429.167
505.589
568.824
610.952
625.119
606.558
553.426
467.297
353.237
219.415
76.2922
-64.4995
-191.457
-294.495
-366.06
-401.924
-401.569
-368.111
-307.801
-229.179
-142.001
-56.079
19.8045
78.7987
116.591
131.67
125.241
100.827
63.6294
19.7531
-24.6102
-63.9263
-93.9117
-111.918
-117.075
-110.209
-93.5541
-70.3249
-44.2103
-18.8616
2.56266
17.7428
25.4046
25.3733
18.485
6.37997
-8.7841
-24.6547
-38.9992
-49.973
-56.3121
-57.4324
-53.4345
-45.02
-33.3409
-19.8062
-5.87547
7.13303
18.197
26.6904
32.4224
35.6154
36.832
36.8643
36.6051
36.9188
38.5296
41.9398
47.385
54.8304
64.0022
74.4485
85.6172
96.9394
107.906
118.13
127.377
135.584
142.836
149.333
155.341
161.133
166.943
172.92
179.105
185.424
191.695
197.651
202.969
207.304
210.317
211.707
211.216
208.648
203.865
196.788
187.399
175.742
161.93
146.158
128.708
109.956
90.3719
70.5032
50.9521
32.3378
15.2524
0.211509
-12.391
-22.3214
-29.5294
-34.1552
-36.5166
-37.0787
-36.4078
-35.1165
-33.8041
-32.9996
-33.1143
-34.4074
-36.9697
-40.7251
-45.4492
-50.8031
-56.3762
-61.7339
-66.4634
-70.213
-72.7209
-73.831
-73.4944
-71.7599
-68.7537
-64.6542
-59.6649
-53.9898
-47.8142
-41.2943
-34.554
-27.6918
-20.7937
-13.9505
-7.27556
-0.918733
4.92736
10.0316
14.1403
17.0045
18.4148
18.2388
16.4565
13.1843
8.68559
3.36159
-2.27577
-7.64828
-12.1676
-15.2961
-16.6054
-15.8242
-12.8703
-7.86208
-1.10915
6.91715
15.6291
24.3784
32.5159
39.4488
44.6895
47.8919
48.8717
47.6106
44.2438
39.0355
32.3447
24.5866
16.1955
7.59159
-0.84336
-8.7816
-15.956
-22.1597
-27.2409
-31.0964
-33.6651
-34.9249
-34.891
-33.6178
-31.2017
-27.7837
-23.5495
-18.7272
-13.5797
-8.39372
-3.46482
0.9206
4.50406
7.07325
8.4778
8.64093
7.5655
5.33364
2.09983
-1.92221
-6.47745
-11.2904
-16.0868
-20.6131
-24.6527
-28.0363
-30.6468
-32.4184
-33.3311
-33.4029
-32.6812
-31.2348
-29.1481
-26.5172
-23.4488
-20.0595
-16.4751
-12.8297
-9.26138
-5.90714
-2.89479
-0.334315
1.69107
3.13229
3.97939
4.26277
4.05069
3.4427
2.56004
1.53377
0.492257
-0.450617
-1.20527
-1.71305
-1.9492
-1.92197
-1.6681
-1.2456
-0.724723
-0.178198
0.327889
0.741737
1.03111
1.18582
1.21724
1.15528
1.04309
0.93053
0.867266
0.896295
1.04885
1.34125
1.77401
2.33337
2.99479
3.72811
4.50347
5.29729
6.09733
6.90618
7.74265
8.64088
9.6475
10.8179
12.2129
13.8963
15.9358
18.4049
21.3861
24.9719
29.2623
34.3543
40.3248
47.2044
54.9473
63.4007
72.2793
81.1543
89.4596
96.5222
101.615
104.028
103.153
98.5642
90.0905
77.8614
62.3217
44.2092
24.4972
4.30804
-15.1918
-32.9033
-47.8979
-59.5028
-67.357
-71.4359
-72.0416
-69.7646
-65.4195
-59.9652
-54.4109
-49.7133
-46.664
-45.7646
-47.0902
-50.1504
-53.7658
-55.9951
-54.1532
-44.9654
-24.8824
9.44053
60.5398
129.494
215.342
314.689
421.617
527.982
624.095
699.747
745.448
753.709
720.171
644.402
530.229
385.525
221.47
51.3764
-110.771
-251.872
-361.144
-431.27
-459.097
-445.83
-396.704
-320.199
-226.92
-128.294
-35.254
42.9313
99.5467
130.956
136.729
119.379
83.7894
36.4052
-15.6739
-65.5956
-107.536
-137.283
-152.563
-153.108
-140.47
-117.636
-88.5095
-57.3366
-28.1469
-4.28144
11.9467
19.4315
18.2859
9.70434
-4.29396
-21.1966
-38.3562
-53.3292
-64.1562
-69.5541
-69.0077
-62.7575
-51.6972
-37.2012
-20.9108
-4.50923
10.4869
22.8955
31.9802
37.497
39.6773
39.1545
36.8505
33.8365
31.1904
29.8664
30.5917
33.8013
39.6133
47.8456
58.0654
69.6638
81.942
94.1985
105.806
116.269
125.26
132.629
138.392
142.693
145.768
147.885
149.303
150.226
150.777
150.99
150.809
150.111
148.728
146.486
143.228
138.846
133.298
126.611
118.879
110.254
100.924
91.0954
80.9781
70.7687
60.6446
50.7612
41.253
32.2371
23.8156
16.0769
9.09389
2.91942
-2.42028
-6.93233
-10.6626
-13.6979
-16.1636
-18.2169
-20.0346
-21.7981
-23.6763
-25.8083
-28.289
-31.1578
-34.3931
-37.9127
-41.5795
-45.2134
-48.6061
-51.539
-53.803
-55.2166
-55.6443
-55.0124
-53.3219
-50.6574
-47.1905
-43.1745
-38.9302
-34.8203
-31.2136
-28.4417
-26.7538
-26.2758
-26.9813
-28.6819
-31.0379
-33.594
-35.8333
-37.244
-37.3905
-35.9758
-32.8892
-28.2284
-22.295
-15.5619
-8.6184
-2.09816
3.39773
7.3743
9.50236
9.65701
7.93034
4.61735
0.17752
-4.82259
-9.77788
-14.1156
-17.3599
-19.1819
-19.4302
-18.1386
-15.5105
-11.8838
-7.6817
-3.3554
0.672608
4.05791
6.57036
8.11349
8.72579
8.56529
7.88078
6.97462
6.16274
5.73716
5.9353
6.91877
8.76253
11.4537
14.8978
18.9312
23.3353
27.8534
32.2064
36.1094
39.2871
41.4892
42.5062
42.1844
40.4402
37.2708
32.7626
27.0924
20.5225
13.3878
6.07475
-1.00472
-7.44511
-12.8798
-17.0118
-19.639
-20.6712
-20.1364
-18.1757
-15.0271
-11.0013
-6.44987
-1.73252
2.81495
6.9076
10.3307
12.9501
14.7131
15.6411
15.8154
15.3592
14.4176
13.1398
11.6628
10.1008
8.53884
7.03097
5.60255
4.25524
2.97357
1.73217
0.502645
-0.740343
-2.01419
-3.32482
-4.66462
-6.01178
-7.33115
-8.57646
-9.69396
-10.6271
-11.3222
-11.7343
-11.833
-11.6072
-11.0682
-10.2507
-9.21143
-8.02463
-6.77553
-5.5519
-4.43452
-3.48798
-2.75263
-2.23911
-1.92603
-1.76136
-1.66742
-1.5488
-1.3022
-0.826805
-0.0333718
1.14963
2.77419
4.87587
7.48144
10.6193
14.3303
18.675
23.7364
29.6132
36.4057
44.1939
53.0098
62.8096
73.4477
84.6591
96.0524
107.117
117.244
125.767
132.01
135.345
135.262
131.425
123.721
112.297
97.5651
80.1864
61.0274
41.0916
21.4361
3.0792
-13.0884
-26.3805
-36.3717
-42.9266
-46.2008
-46.6137
-44.7975
-41.5265
-37.6322
-33.9061
-30.9926
-29.2694
-28.7194
-28.8009
-28.3387
-25.4674
-17.6708
-1.95568
24.8121
65.4186
121.706
193.958
280.391
376.866
476.932
572.25
653.387
710.901
736.557
724.524
672.321
581.404
457.239
308.868
147.991
-12.3031
-158.996
-280.591
-368.364
-417.255
-426.305
-398.581
-340.636
-261.586
-171.934
-82.3109
-2.27818
60.6513
101.682
119.031
113.844
89.7767
52.3145
7.93821
-36.7487
-75.8251
-104.698
-120.525
-122.386
-111.204
-89.4563
-60.7166
-29.1194
1.19841
26.6008
44.3485
52.8503
51.7553
41.889
25.0572
3.75337
-19.1879
-40.9442
-59.0253
-71.5253
-77.2843
-75.9495
-67.9396
-54.3239
-36.6407
-16.6793
3.74386
22.9888
39.7555
53.1899
62.9289
69.083
72.1671
72.9915
72.5311
71.7899
71.678
72.9133
75.9589
80.9989
87.953
96.5237
106.266
116.672
127.247
137.582
147.397
156.561
165.081
173.069
180.691
188.108
195.417
202.609
209.546
215.955
221.458
225.606
227.934
228.019
225.523
220.236
212.091
201.171
187.697
172.007
154.534
135.774
116.264
96.5583
77.2073
58.7377
41.6332
26.3138
13.1144
2.26488
-6.12708
-12.0862
-15.7715
-17.4666
-17.5595
-16.5117
-14.8191
-12.9703
-11.4048
-10.477
-10.4293
-11.3779
-13.3113
-16.1025
-19.5317
-23.3177
-27.1535
-30.7419
-33.828
-36.2241
-37.8258
-38.6177
-38.6683
-38.1152
-37.1434
-35.9577
-34.7545
-33.695
-32.8838
-32.3555
-32.0699
-31.9185
-31.7386
-31.3368
-30.515
-29.1
-26.9689
-24.07
-20.436
-16.1861
-11.5191
-6.69663
-2.01921
2.20267
5.67941
8.17237
9.52047
9.66121
8.64394
6.63386
3.90528
0.823962
-2.181
-4.65383
-6.15404
-6.29969
-4.80709
-1.5224
3.55869
10.2856
18.3625
27.3714
36.8065
46.1152
54.7424
62.173
67.9707
71.8073
73.4846
72.9439
70.2652
65.6559
59.4298
51.9792
43.7409
35.1614
26.6613
18.6056
11.2794
4.87335
-0.520985
-4.90579
-8.3628
-11.0325
-13.0891
-14.7155
-16.0793
-17.3153
-18.5135
-19.7151
-20.9162
-22.077
-23.1355
-24.0216
-24.6714
-25.0371
-25.0941
-24.8435
-24.311
-23.5449
-22.612
-21.5945
-20.585
-19.6825
-18.9851
-18.5819
-18.5427
-18.9066
-19.6719
-20.7893
-22.1597
-23.6387
-25.0472
-26.1891
-26.8713
-26.9269
-26.2355
-24.7399
-22.4553
-19.4712
-15.9433
-12.0793
-8.11729
-4.30162
-0.858522
2.02613
4.22391
5.67439
6.38827
6.44333
5.97399
5.15614
4.18931
3.27867
2.61948
2.38657
2.73036
3.7797
5.64984
8.45215
12.3013
17.3158
23.6086
31.2684
40.3317
50.7511
62.3664
74.8821
87.8603
100.731
112.821
123.403
131.757
137.238
139.35
137.799
132.539
123.793
112.043
97.9946
82.5182
66.5727
51.1158
37.0176
24.982
15.4869
8.75005
4.72165
3.10542
3.40284
4.97388
7.10567
9.08072
10.2396
10.0375
8.10047
4.29008
-1.21484
-7.81683
-14.3906
-19.1937
-19.839
-13.3776
3.4685
33.9084
80.5403
144.732
226.025
321.687
426.534
533.104
632.219
713.906
768.553
788.168
767.529
705.066
603.313
468.848
311.712
144.372
-19.6303
-167.182
-287.031
-370.992
-414.742
-418.153
-385.107
-322.856
-241.014
-150.346
-61.4839
16.2379
75.7206
112.699
125.958
117.177
90.4372
51.5008
6.94699
-36.7006
-73.7582
-99.9879
-112.969
-112.214
-99.0357
-76.2135
-47.512
-17.1284
10.8587
32.9742
46.7143
50.766
45.0689
30.7269
9.79516
-15.0218
-40.7187
-64.3422
-83.31
-95.6631
-100.231
-96.6999
-85.5827
-68.1049
-46.0227
-21.3998
3.62972
27.0867
47.3366
63.2256
74.1537
80.0816
81.4779
79.2162
74.4403
68.4147
62.3795
57.4252
54.3997
53.8546
56.0305
60.8798
68.1159
77.282
87.8255
99.17
110.775
122.18
133.028
143.072
152.165
160.239
167.28
173.296
178.296
182.272
185.184
186.957
187.486
186.643
184.287
180.283
174.514
166.9
157.412
146.091
133.059
118.529
102.811
86.3045
69.4901
52.9009
37.0906
22.5926
9.87552
-0.698136
-8.90707
-14.6931
-18.1677
-19.6005
-19.3917
-18.0307
-16.0451
-13.9482
-12.1891
-11.1127
-10.9333
-11.7254
-13.4297
-15.8757
-18.8141
-21.9558
-25.012
-27.73
-29.9206
-31.4747
-32.3684
-32.656
-32.4552
-31.9256
-31.244
-30.5814
-30.0821
-29.8492
-29.9358
-30.3424
-31.0211
-31.884
-32.8151
-33.6839
-34.3595
-34.7237
-34.6822
-34.1727
-33.1704
-31.6896
-29.782
-27.5309
-25.0433
-22.4389
-19.8372
-17.3453
-15.0464
-12.9903
-11.1883
-9.61233
-8.19882
-6.8577
-5.48514
-3.97891
-2.25444
-0.259471
2.01493
4.52866
7.19352
9.881
12.4363
14.6967
16.5129
17.7683
18.396
18.3895
17.8057
16.7596
15.4124
13.9527
12.5746
11.4558
10.7368
10.5062
10.7922
11.5615
12.7261
14.1561
15.6971
17.189
18.4845
19.464
20.0466
20.1948
19.913
19.2417
18.2472
17.0091
15.6082
14.1157
12.5852
11.0488
9.51643
7.97959
6.4163
4.79809
3.09687
1.29105
-0.629801
-2.66202
-4.7866
-6.96946
-9.16297
-11.3084
-13.3393
-15.1851
-16.7759
-18.0473
-18.9451
-19.4303
-19.4829
-19.1047
-18.3206
-17.1775
-15.7414
-14.0927
-12.3196
-10.5111
-8.75003
-7.10737
-5.63814
-4.37982
-3.35307
-2.56454
-2.01107
-1.68457
-1.57654
-1.68146
-1.9982
-2.52928
-3.27794
-4.24336
-5.41493
-6.76641
-8.25114
-9.79905
-11.3165
-12.689
-13.7873
-14.4756
-14.622
-14.1091
-12.8435
-10.7636
-7.84388
-4.0953
0.437569
5.68324
11.5521
17.9462
24.769
31.933
39.3649
47.007
54.814
62.746
70.7584
78.789
86.7451
94.4922
101.846
108.571
114.384
118.968
121.992
123.14
122.139
118.793
113.021
104.871
94.5477
82.4085
68.9552
54.8068
40.6584
27.228
15.1955
5.13852
-2.52837
-7.60378
-10.1327
-10.4163
-8.99282
-6.58781
-4.03048
-2.13808
-1.57036
-2.66152
-5.2437
-8.48642
-10.7874
-9.7589
-2.35289
14.8427
45.1339
91.1137
153.996
233.007
324.971
424.201
522.78
611.253
679.662
718.789
721.448
683.597
605.114
490.084
346.541
185.69
20.6937
-134.792
-268.157
-369.231
-431.366
-452.058
-433.069
-380.028
-301.602
-208.352
-111.436
-21.3322
53.2786
106.328
134.808
138.825
121.279
87.243
43.1457
-4.13515
-48.1404
-83.5648
-106.779
-116.1
-111.793
-95.847
-71.5482
-42.9503
-14.2931
10.5429
28.4879
37.5931
37.1772
27.8054
11.1207
-10.4397
-33.9978
-56.6102
-75.6192
-88.9397
-95.2559
-94.1103
-85.8872
-71.6991
-53.2002
-32.3539
-11.185
8.45097
25.0594
37.6379
45.7395
49.4661
49.4007
46.4913
41.9055
36.876
32.5555
29.8976
29.5765
31.9499
37.0661
44.7084
54.466
65.8176
78.2137
91.1458
104.194
117.047
129.502
141.441
152.792
163.496
173.466
182.569
190.615
197.363
202.546
205.899
207.193
206.269
203.057
197.591
190.009
180.534
169.457
157.104
143.811
129.897
115.644
101.292
87.0367
73.0414
59.448
46.3962
34.0375
22.5455
12.117
2.96371
-4.70509
-10.7086
-14.9242
-17.3173
-17.9655
-17.0723
-14.9667
-12.0875
-8.95082
-6.10627
-4.08388
-3.33973
-4.20609
-6.85273
-11.2644
-17.2376
-24.398
-32.2355
-40.1549
-47.5349
-53.789
-58.4221
-61.0762
-61.5609
-59.8651
-56.1511
-50.7311
-44.0306
-36.5421
-28.7772
-21.2186
-14.2804
-8.27751
-3.40818
0.251055
2.7378
4.18593
4.79975
4.82366
4.51041
4.09161
3.75348
3.62044
3.74852
4.12922
4.70303
5.38067
6.06831
6.69272
7.22177
7.6766
8.13294
8.71099
9.55524
10.8073
12.5763
14.9119
17.785
21.078
24.5899
28.0518
31.1548
33.5838
35.0543
35.3462
34.3312
31.9902
28.4182
23.8165
18.474
12.739
6.98543
1.57734
-3.16499
-6.99303
-9.74989
-11.3799
-11.9273
-11.5246
-10.3715
-8.70814
-6.78479
-4.83226
-3.03673
-1.52214
-0.342624
0.514175
1.11351
1.55214
1.93266
2.33801
2.81038
3.33805
3.85223
4.2345
4.33353
3.98852
3.05574
1.43418
-0.913437
-3.94738
-7.54733
-11.519
-15.6102
-19.5347
-23.0002
-25.7379
-27.5299
-28.2305
-27.7803
-26.2109
-23.6394
-20.2561
-16.3042
-12.0578
-7.79895
-3.79695
-0.292625
2.51243
4.46171
5.44628
5.40622
4.33291
2.27376
-0.660865
-4.28994
-8.35629
-12.5269
-16.4022
-19.5365
-21.4696
-21.7674
-20.0662
-16.1165
-9.81803
-1.24151
9.36795
21.6066
34.9462
48.7821
62.4886
75.4744
87.2299
97.3607
105.603
111.823
115.997
118.185
118.496
117.058
113.995
109.412
103.4
96.0407
87.4293
77.6927
67.0087
55.6171
43.8213
31.9776
20.474
9.69983
0.0106806
-8.30841
-15.0751
-20.233
-23.8606
-26.1597
-27.4157
-27.9255
-27.8899
-27.2742
-25.6572
-22.0958
-15.0492
-2.40833
18.3336
49.7519
94.0221
152.368
224.517
308.276
399.332
491.364
576.507
646.125
691.834
706.605
685.813
628.034
535.484
413.995
272.517
122.209
-24.7737
-156.624
-263.196
-337.098
-374.439
-375.141
-342.783
-284.029
-207.718
-123.749
-41.9159
29.1703
82.9442
115.442
125.509
114.669
86.6843
46.9034
1.4829
-43.4104
-82.3194
-111.062
-127.091
-129.624
-119.558
-99.1905
-71.8154
-41.2351
-11.2705
14.6853
34.0177
45.1188
47.4774
41.6352
29.0275
11.7371
-7.80177
-27.1118
-43.956
-56.5671
-63.8018
-65.2084
-61.0099
-52.0115
-39.4501
-24.8099
-9.62721
4.69129
17.0178
26.6057
33.1383
36.7235
37.8407
37.2508
35.8836
34.7171
34.6637
36.4732
40.663
47.4782
56.8834
68.5832
82.0676
96.6748
111.664
126.288
139.867
151.84
161.809
169.558
175.053
178.429
179.951
179.974
178.896
177.111
174.965
172.725
170.557
168.514
166.54
164.476
162.083
159.065
155.099
149.873
143.118
134.642
124.358
112.308
98.6691
83.7549
67.9969
51.9162
36.0843
21.0769
7.42567
-4.42578
-14.159
-21.605
-26.754
-29.7502
-30.8717
-30.4992
-29.0757
-27.0638
-24.9027
-22.9716
-21.5603
-20.852
-20.917
-21.7178
-23.1253
-24.9419
-26.9301
-28.8428
-30.4519
-31.573
-32.0821
-31.9258
-31.1211
-29.7477
-27.9335
-25.8351
-23.616
-21.4258
-19.3821
-17.5581
-15.9755
-14.6055
-13.3755
-12.1811
-10.9017
-9.41842
-7.6304
-5.46999
-2.91359
0.0118489
3.2273
6.605
9.97606
13.142
15.8893
18.0073
19.3076
19.6447
18.936
17.1778
14.4554
10.945
6.90526
2.6581
-1.43869
-5.02566
-7.77796
-9.43951
-9.85066
-8.96581
-6.8587
-3.71467
0.189156
4.51325
8.89108
12.9664
16.4277
19.0368
20.6478
21.215
20.7899
19.5079
17.5664
15.1989
12.6464
10.1308
7.83316
5.87803
4.32665
3.17797
2.37738
1.83115
1.42433
1.03936
0.572686
-0.0526222
-0.879778
-1.91688
-3.14054
-4.50304
-5.94108
-7.38436
-8.76272
-10.0111
-11.0723
-11.8987
-12.4521
-12.7043
-12.6381
-12.2478
-11.5414
-10.5417
-9.2876
-7.8333
-6.24654
-4.60446
-2.98786
-1.47438
-0.131212
0.99141
1.86506
2.48544
2.87175
3.06295
3.11157
3.07578
3.01105
2.96255
2.95953
3.01228
3.1121
3.23409
3.34206
3.39472
3.35199
3.1803
2.85614
2.36715
1.71098
0.89236
-0.0806105
-1.1997
-2.45825
-3.85059
-5.36886
-6.99771
-8.70767
-10.4485
-12.1436
-13.6867
-14.9417
-15.745
-15.9119
-15.2458
-13.5496
-10.6404
-6.36579
-0.621351
6.63211
15.3529
25.4067
36.559
48.4744
60.7216
72.7859
84.0887
94.0151
101.949
107.318
109.636
108.56
103.926
95.7907
84.442
70.399
54.3816
37.2596
19.9815
3.49267
-11.3503
-23.8568
-33.5639
-40.2724
-44.0562
-45.2417
-44.3623
-42.0921
-39.167
-36.2988
-34.0843
-32.9129
-32.8686
-33.6307
-34.3787
-33.722
-29.6825
-19.7676
-1.16522
28.921
72.8077
131.787
205.584
291.921
386.302
482.113
571.068
644.007
691.948
707.264
684.807
622.8
523.351
392.477
239.617
76.6889
-83.2067
-227.244
-344.315
-426.251
-468.678
-471.391
-438.222
-376.425
-295.678
-206.844
-120.662
-46.5256
8.49477
40.2823
47.9018
33.4244
1.40045
-41.926
-89.5435
-134.61
-171.287
-195.365
-204.632
-198.954
-180.088
-151.273
-116.679
-80.7894
-47.8079
-21.162
-3.15095
5.22875
4.27714
-4.57518
-19.0562
-36.4155
-53.8088
-68.6536
-78.9153
-83.2953
-81.3096
-73.2582
-60.1026
-43.2759
-24.4567
-5.33914
12.5723
28.1203
40.5909
49.743
55.7761
59.2479
60.9572
61.8122
62.7028
64.3913
67.435
72.1446
78.5804
86.5813
95.8175
105.859
116.249
126.565
136.479
145.782
154.404
162.396
169.91
177.15
184.326
191.607
199.068
206.666
214.209
221.364
227.668
232.567
235.47
235.81
233.117
227.071
217.561
204.704
188.854
170.574
150.589
129.728
108.84
88.731
70.0942
53.4626
39.1801
27.3934
18.0635
10.9925
5.86158
2.27444
-0.198049
-1.97693
-3.44037
-4.89721
-6.56982
-8.5864
-10.9821
-13.7075
-16.6437
-19.6206
-22.438
-24.8864
-26.7661
-27.9031
-28.1609
-27.4482
-25.7211
-22.9824
-19.2779
-14.693
-9.34828
-3.39896
2.9656
9.52101
16.0089
22.1419
27.6147
32.1226
35.3851
37.1751
37.3468
35.8599
32.7948
28.3556
22.8589
16.709
10.362
4.28206
-1.10333
-5.44531
-8.5061
-10.1789
-10.4928
-9.60221
-7.76358
-5.30111
-2.56766
0.0952678
2.39333
4.10705
5.10872
5.36737
4.94217
3.96593
2.62167
1.1156
-0.350029
-1.60065
-2.50747
-2.99808
-3.05916
-2.73164
-2.0998
-1.27621
-0.384765
0.455863
1.14632
1.61684
1.83268
1.79467
1.53526
1.11107
0.593213
0.0568272
-0.428732
-0.807963
-1.04468
-1.12451
-1.05437
-0.859521
-0.578793
-0.258953
0.0508047
0.303522
0.457761
0.479356
0.34179
0.0255969
-0.482698
-1.19159
-2.10521
-3.22322
-4.54012
-6.04395
-7.71471
-9.52294
-11.4288
-13.3825
-15.3256
-17.1955
-18.93
-20.4742
-21.7882
-22.8533
-23.6774
-24.2969
-24.7756
-25.1992
-25.6669
-26.2798
-27.1287
-28.2823
-29.7771
-31.6117
-33.7447
-36.0985
-38.5662
-41.0226
-43.337
-45.3856
-47.0627
-48.289
-49.0165
-49.2278
-48.9335
-48.1652
-46.9661
-45.3817
-43.4497
-41.19
-38.5977
-35.6364
-32.2358
-28.2926
-23.677
-18.2448
-11.8549
-4.39126
4.21234
13.9485
24.7159
36.3066
48.4018
60.5801
72.3358
83.1075
92.3147
99.3988
103.867
105.331
103.546
98.4375
90.1127
78.8666
65.1665
49.6237
32.9513
15.9135
-0.731427
-16.2866
-30.1664
-41.9344
-51.3262
-58.2547
-62.7986
-65.1752
-65.6999
-64.7362
-62.6358
-59.6697
-55.9486
-51.3351
-45.3567
-37.134
-25.3532
-8.30975
15.946
49.3491
93.4533
148.994
215.452
290.695
370.812
450.187
521.887
578.325
612.146
617.216
589.563
528.119
435.128
316.146
179.592
35.923
-103.491
-227.622
-327.014
-394.817
-427.498
-425.141
-391.309
-332.504
-257.302
-175.289
-95.9392
-27.5778
23.461
53.3791
61.1267
48.2781
18.6121
-22.5295
-69.0095
-114.688
-154.144
-183.243
-199.498
-202.206
-192.351
-172.317
-145.461
-115.606
-86.5274
-61.4969
-42.9241
-32.143
-29.3475
-33.6735
-43.4042
-56.2618
-69.7437
-81.4568
-89.4097
-92.2318
-89.2962
-80.7426
-67.4031
-50.65
-32.1892
-13.8309
2.73463
16.1275
25.416
30.1889
30.5585
27.1023
20.7534
12.6592
4.02769
-4.01813
-10.5623
-14.9798
-16.9777
-16.5894
-14.1294
-10.1147
-5.16628
0.095111
5.14528
9.6317
13.4183
16.5953
19.4535
22.4289
26.0255
30.7276
36.9145
44.7884
54.3263
65.2616
77.0989
89.1605
100.657
110.778
118.782
124.085
126.324
125.406
121.509
115.066
106.713
97.2139
87.3825
77.9927
69.7057
63.011
58.1917
55.3156
54.251
54.7025
56.2626
58.4693
60.864
63.0413
64.6871
65.6007
65.7005
65.014
63.6566
61.8001
59.6394
57.3579
55.0997
52.9484
50.917
48.9488
46.9297
44.7092
42.1276
39.0453
35.3706
31.0801
26.2317
20.9643
15.4875
10.0609
4.96557
0.472346
-3.18878
-5.85497
-7.44844
-7.98406
-7.56606
-6.37433
-4.64268
-2.63185
-0.600825
1.21988
2.65007
3.5744
3.9485
3.79649
3.20093
2.28696
1.20305
0.100928
-0.882835
-1.64152
-2.10786
-2.25786
-2.10902
-1.71362
-1.14853
-0.503064
0.133367
0.682341
1.08494
1.30692
1.34032
1.20161
0.926941
0.565579
0.172287
-0.200094
-0.507056
-0.717094
-0.814259
-0.798485
-0.683895
-0.495507
-0.264925
-0.0256723
0.191229
0.360884
0.466998
0.503006
0.47186
0.384641
0.258302
0.112906
-0.0312226
-0.156084
-0.248018
-0.298962
-0.306868
-0.275317
-0.212477
-0.129588
-0.0392537
0.0462
0.115999
0.161589
0.1765
0.155373
0.0922238
-0.0217512
-0.200456
-0.464782
-0.843653
-1.37388
-2.09858
-3.06423
-4.3163
-5.89407
-7.82486
-10.1186
-12.763
-15.721
-18.9294
-22.301
-25.7295
-29.0962
-32.279
-35.1629
-37.6497
-39.6666
-41.1737
-42.1676
-42.6832
-42.7917
-42.5962
-42.2239
-41.8155
-41.5126
-41.4436
-41.7083
-42.3653
-43.4205
-44.8218
-46.46
-48.1769
-49.7821
-51.0755
-51.8737
-52.0361
-51.4842
-50.2124
-48.2844
-45.8175
-42.9552
-39.8345
-36.5529
-33.1425
-29.5564
-25.6696
-21.2966
-16.2214
-10.2366
-3.18367
5.00957
14.3032
24.5324
35.4113
46.5511
57.4909
67.7368
76.8039
84.2561
89.741
93.0145
93.9551
92.567
88.9728
83.3978
76.1483
67.5856
58.1002
48.0847
37.9097
27.9033
18.3337
9.39758
1.21449
-6.17158
-12.7841
-18.6999
-24.0316
-28.9094
-33.4624
-37.7993
-41.9816
-45.9821
-49.6201
-52.4714
-53.7631
-52.2773
-46.2997
-33.6597
-11.8989
21.4118
68.2202
129.459
204.515
290.822
383.675
476.368
560.684
627.71
668.897
677.211
648.201
580.822
477.851
345.83
194.515
35.8778
-117.178
-252.254
-358.829
-429.397
-460.233
-451.682
-407.969
-336.553
-247.136
-150.469
-57.0985
23.7801
85.2301
123.154
136.498
127.083
99.1206
58.481
11.844
-34.1717
-73.7871
-102.664
-118.277
-120.025
-109.107
-88.1832
-60.9029
-31.3494
-3.49414
19.2848
34.5629
41.0783
38.7779
28.7113
12.8004
-6.47538
-26.4314
-44.5217
-58.6325
-67.2939
-69.7918
-66.1759
-57.1712
-44.0161
-28.2532
-11.505
4.73492
19.2695
31.3087
40.5137
46.9771
51.1495
53.7283
55.5279
57.352
59.8832
63.6042
68.7569
75.3404
83.1431
91.8011
100.87
109.902
118.508
126.411
133.471
139.687
145.182
150.165
154.89
159.602
164.499
169.695
175.201
180.913
186.629
192.061
196.867
200.679
203.143
203.94
202.813
199.581
194.148
186.504
176.718
164.931
151.349
136.232
119.883
102.646
84.8932
67.0221
49.443
32.568
16.7943
2.4848
-10.0529
-20.5875
-28.9821
-35.2062
-39.3397
-41.5675
-42.1635
-41.4667
-39.8503
-37.6884
-35.3228
-33.0356
-31.0294
-29.4174
-28.2254
-27.4032
-26.8447
-26.4123
-25.963
-25.3713
-24.5474
-23.4468
-22.0729
-20.4711
-18.7173
-16.9031
-15.1197
-13.4442
-11.9295
-10.5991
-9.44809
-8.44767
-7.55433
-6.71982
-5.90121
-5.06884
-4.21115
-3.33584
-2.46739
-1.64157
-0.898167
-0.273122
0.208608
0.538281
0.725906
0.79971
0.802603
0.786187
0.803163
0.899238
1.10567
1.43349
1.87023
2.37969
2.90485
3.37382
3.70821
3.83308
3.68751
3.2343
2.46777
1.41838
0.153158
-1.2283
-2.6025
-3.83454
-4.79318
-5.36672
-5.47757
-5.09358
-4.23413
-2.9701
-1.41722
0.276514
1.94795
3.43827
4.61226
5.3748
5.68228
5.54718
5.03523
4.25524
3.34306
2.44167
1.68043
1.15617
0.919146
0.965626
1.23851
1.63586
2.02621
2.26874
2.23519
1.83067
1.01006
-0.212336
-1.76149
-3.50908
-5.28863
-6.91635
-8.2148
-9.03597
-9.28051
-8.91045
-7.95353
-6.49877
-4.68388
-2.67663
-0.652992
1.2248
2.82704
4.06967
4.92022
5.39596
5.55513
5.48292
5.27483
5.02018
4.78863
4.62165
4.53022
4.49872
4.49394
4.47727
4.41768
4.30302
4.14745
3.99377
3.91019
3.98215
4.30095
4.95121
5.99953
7.48667
9.42447
11.7984
14.5749
17.7127
21.1748
24.9395
29.0067
33.3987
38.1544
43.3169
48.9174
54.9585
61.3985
68.1411
75.0315
81.8596
88.3704
94.2787
99.2885
103.113
105.494
106.223
105.152
102.207
97.3958
90.8084
82.6125
73.0462
62.4034
51.0167
39.236
27.4063
15.8448
4.81955
-5.46613
-14.8831
-23.3747
-30.9408
-37.6048
-43.3599
-48.0942
-51.4968
-52.9545
-51.4591
-45.5507
-33.3325
-12.5886
18.9715
63.3433
121.761
194.197
278.922
372.22
468.365
559.909
638.311
694.84
721.658
712.923
665.746
580.844
462.753
319.566
162.191
3.21672
-144.452
-269.03
-361.151
-414.872
-428.253
-403.446
-346.297
-265.536
-171.656
-75.6565
12.2094
83.5119
132.441
156.233
155.217
132.483
93.2668
44.1309
-7.93549
-56.3803
-95.8179
-122.547
-134.816
-132.822
-118.481
-95.0073
-66.3803
-36.774
-10.02
10.8306
23.8044
28.1392
24.2542
13.5775
-1.73373
-19.1347
-36.048
-50.1874
-59.8129
-63.8937
-62.1678
-55.1004
-43.7581
-29.6203
-14.3581
0.38932
13.2145
23.0949
29.4862
32.3504
32.1216
29.6177
25.9162
22.208
19.6492
19.2289
21.6633
27.3299
36.2424
48.069
62.1876
77.7687
93.8759
109.57
124.005
136.506
146.623
154.149
159.118
161.767
162.484
161.744
160.042
157.833
155.482
153.234
151.2
149.367
147.614
145.745
143.525
140.716
137.108
132.542
126.926
120.231
112.488
103.771
94.1733
83.7976
72.7373
61.0744
48.8841
36.2477
23.2717
10.1077
-3.0321
-15.8669
-28.052
-39.1958
-48.8899
-56.747
-62.444
-65.7621
-66.62
-65.0942
-61.4225
-55.9908
-49.3021
-41.9335
-34.4834
-27.5174
-21.517
-16.8393
-13.6894
-12.1108
-11.9927
-13.093
-15.0743
-17.5472
-20.116
-22.4216
-24.1755
-25.1833
-25.3541
-24.6967
-23.3041
-21.3284
-18.9511
-16.3519
-13.6806
-11.0351
-8.44822
-5.88517
-3.25146
-0.411052
2.78755
6.48019
10.7548
15.6222
20.9952
26.6785
32.3738
37.6994
42.2246
45.5144
47.1795
46.9271
44.6028
40.2209
33.9763
26.2371
17.5171
8.43167
-0.358637
-8.21057
-14.5589
-18.9693
-21.1763
-21.1037
-18.8646
-14.7417
-9.15172
-2.59801
4.38174
11.2669
17.5984
23.0114
27.2543
30.1924
31.7984
32.1315
31.3109
29.4863
26.8117
23.4256
19.4405
14.9439
10.0078
4.70588
-0.8666
-6.5751
-12.2345
-17.6079
-22.4169
-26.3638
-29.1622
-30.5731
-30.4403
-28.7202
-25.5014
-21.0089
-15.5942
-9.70852
-3.86388
1.41503
5.64206
8.41847
9.47378
8.69399
6.13414
2.0141
-3.30196
-9.33966
-15.5585
-21.4011
-26.3423
-29.9338
-31.8399
-31.8626
-29.9542
-26.2173
-20.8944
-14.3476
-7.03136
0.541277
7.8355
14.3339
19.5757
23.1928
24.9414
24.7244
22.6029
18.7943
13.6552
7.65146
1.31558
-4.80253
-10.1877
-14.4078
-17.154
-18.2671
-17.7486
-15.7546
-12.5746
-8.59811
-4.27226
-0.0564432
3.62242
6.41006
8.05773
8.44615
7.59907
5.68595
3.01322
0.00440571
-2.83047
-4.93443
-5.74999
-4.76913
-1.58284
4.07428
12.2891
22.949
35.7374
50.1475
65.5136
81.0569
95.9406
109.331
120.457
128.664
133.457
134.534
131.803
125.389
115.625
103.028
88.2742
72.1498
55.5085
39.2149
24.0898
10.8571
0.0959773
-7.79718
-12.6342
-14.446
-13.4773
-10.1679
-5.12057
0.939582
7.21327
12.881
17.1651
19.4038
19.1433
16.2485
11.0324
4.38422
-2.12695
-6.21547
-4.95044
5.02858
27.1362
64.3226
118.467
189.771
276.269
373.571
474.935
571.713
654.168
712.578
738.477
725.869
672.208
578.996
451.875
300.175
135.973
-27.2298
-176.021
-298.596
-386.055
-433.338
-439.657
-408.413
-346.604
-263.844
-171.113
-79.4307
1.39083
63.7603
102.981
117.528
108.917
81.2312
40.3747
-6.82195
-53.5229
-93.7205
-122.886
-138.374
-139.555
-127.684
-105.55
-76.9657
-46.1843
-17.3147
6.1854
21.8857
28.5938
26.3896
16.4957
1.01703
-17.4066
-35.9816
-52.1254
-63.7701
-69.5721
-69.0121
-62.382
-50.672
-35.3824
-18.2905
-1.20661
14.2493
26.8242
35.7456
40.7633
42.1235
40.485
36.7956
32.1484
27.6395
24.2445
22.7267
23.5839
27.0352
33.0413
41.3517
51.5667
63.2047
75.7637
88.7722
101.824
114.596
126.848
138.415
149.184
159.069
167.992
175.859
182.547
187.904
191.75
193.891
194.135
192.318
188.324
182.105
173.7
163.241
150.959
137.171
122.27
106.7
90.9302
75.4248
60.6146
46.869
34.473
23.609
14.3475
6.6449
0.351591
-4.77075
-9.02312
-12.7365
-16.2354
-19.8023
-23.6462
-27.88
-32.509
-37.432
-42.4553
-47.3172
-51.7197
-55.3654
-57.9925
-59.4067
-59.5036
-58.2817
-55.843
-52.3819
-48.165
-43.5026
-38.7178
-34.1147
-29.9511
-26.4168
-23.6206
-21.5869
-20.2604
-19.5186
-19.1904
-19.077
-18.9738
-18.6902
-18.0659
-16.9811
-15.3627
-13.1843
-10.4643
-7.26047
-3.66574
0.197249
4.18033
8.1145
11.8158
15.0929
17.7582
19.6407
20.6018
20.5508
19.4596
17.3736
14.4158
10.7856
6.74764
2.614
-1.27978
-4.60326
-7.06083
-8.41971
-8.53356
-7.35881
-4.96213
-1.51772
2.70543
7.36537
12.0762
16.4418
20.0903
22.7072
24.0625
24.0309
22.601
19.8753
16.0585
11.4381
6.35713
1.18414
-3.71818
-8.02164
-11.4563
-13.8279
-15.0275
-15.0354
-13.9178
-11.8194
-8.95182
-5.57869
-1.99831
1.47583
4.53606
6.90201
8.34135
8.68807
7.85683
5.85162
2.76781
-1.21325
-5.83668
-10.793
-15.7421
-20.3398
-24.2656
-27.2483
-29.0878
-29.6709
-28.9795
-27.091
-24.1698
-20.4525
-16.2261
-11.8026
-7.49264
-3.57938
-0.296099
2.19062
3.79096
4.49448
4.36534
3.53122
2.16715
0.476313
-1.3305
-3.05459
-4.52654
-5.61939
-6.2567
-6.41485
-6.11967
-5.43761
-4.46276
-3.30125
-2.05501
-0.807313
0.387896
1.5111
2.57595
3.62174
4.70094
5.86375
7.14258
8.53921
10.0174
11.5027
12.8911
14.0654
14.9181
15.3787
15.4401
15.1812
14.7791
14.5095
14.7304
15.8511
18.2867
22.405
28.4709
36.5955
46.6992
58.4936
71.4861
85.0103
98.2778
110.447
120.703
128.334
132.805
133.804
131.278
125.43
116.696
105.697
93.1763
79.9255
66.7087
54.1965
42.9133
33.2018
25.2102
18.8993
14.0674
10.3901
7.46779
4.8761
2.21396
-0.853525
-4.55802
-8.99381
-14.0813
-19.5222
-24.7433
-28.8334
-30.487
-27.9821
-19.2231
-1.88403
26.3301
67.3032
122.045
190.211
269.703
356.441
444.414
526.054
592.926
636.689
650.184
628.514
569.913
476.275
353.226
209.699
57.0602
-92.1161
-225.451
-332.163
-404.272
-437.456
-431.449
-389.942
-320.015
-231.192
-134.246
-39.9228
42.2529
104.958
143.72
157.182
146.982
117.282
74.0429
24.1428
-25.5295
-68.9009
-101.361
-120.169
-124.591
-115.779
-96.4259
-70.2678
-41.5045
-14.2213
8.11695
23.0433
29.3032
26.8959
16.9537
1.49106
-16.9323
-35.5837
-51.9143
-63.8588
-70.0438
-69.8909
-63.6099
-52.0952
-36.7489
-19.2583
-1.36185
15.3663
29.69
40.8234
48.4771
52.8375
54.4903
54.3039
53.2909
52.4676
52.7291
54.7532
58.9408
65.3977
73.9522
84.2054
95.6015
107.51
119.303
130.429
140.462
149.13
156.32
162.066
166.514
169.88
172.402
174.302
175.747
176.829
177.56
177.869
177.624
176.651
174.762
171.775
167.54
161.954
154.97
146.601
136.92
126.054
114.176
101.502
88.2763
74.77
61.2663
48.052
35.4058
23.5848
12.8119
3.26381
-4.93841
-11.7353
-17.1304
-21.1871
-24.0204
-25.7859
-26.666
-26.8547
-26.5442
-25.9121
-25.1127
-24.2709
-23.4801
-22.8031
-22.2756
-21.9117
-21.7098
-21.6593
-21.7465
-21.9594
-22.2908
-22.7395
-23.3084
-24.0003
-24.811
-25.7213
-26.6898
-27.6471
-28.4944
-29.1073
-29.3442
-29.0601
-28.1233
-26.433
-23.9348
-20.6332
-16.5965
-11.9555
-6.89428
-1.63507
3.58218
8.52179
12.9739
16.773
19.8104
22.0413
23.4829
24.2076
24.3291
23.9862
23.3247
22.4801
21.5645
20.6561
19.7955
18.9858
18.1972
17.3748
16.4484
15.3441
13.9959
12.3595
10.4242
8.22437
5.8462
3.42904
1.1574
-0.756937
-2.10264
-2.70372
-2.45677
-1.36431
0.442658
2.69905
5.02079
6.94159
7.96856
7.65025
5.64808
1.80051
-3.8304
-10.9386
-18.9851
-27.2421
-34.8654
-40.988
-44.8237
-45.7655
-43.4686
-37.9047
-29.3808
-18.5212
-6.21138
6.48663
18.4405
28.5616
35.9159
39.8174
39.8964
36.1341
28.8613
18.7214
6.60275
-6.45187
-19.3484
-31.0463
-40.6545
-47.5078
-51.2178
-51.6932
-49.13
-43.9728
-36.8547
-28.5219
-19.7525
-11.2795
-3.72421
2.45271
6.9783
9.77242
10.9318
10.6967
9.40649
7.44869
5.20959
3.03066
1.17552
-0.18989
-1.00317
-1.29817
-1.18674
-0.832867
-0.423048
-0.136946
-0.121918
-0.474332
-1.22948
-2.36065
-3.78664
-5.38573
-7.01343
-8.52064
-9.76911
-10.6412
-11.0424
-10.8954
-10.1275
-8.65346
-6.35832
-3.08537
1.3656
7.22626
14.7326
24.0843
35.3954
48.6433
63.6249
79.927
96.9211
113.784
129.547
143.174
153.654
160.105
161.875
158.624
150.381
137.557
120.926
101.56
80.7289
59.7839
40.0263
22.5857
8.31708
-2.26977
-9.04173
-12.2329
-12.3965
-10.325
-6.94849
-3.22261
-0.0152053
1.99959
2.43671
1.28427
-1.02354
-3.5477
-4.80998
-2.80236
4.9335
21.1295
48.4999
89.34
145.047
215.631
299.299
392.218
488.538
580.732
660.246
718.412
747.515
741.844
698.601
618.478
505.839
368.419
216.602
62.3298
-82.1877
-205.81
-299.67
-358.088
-379.094
-364.495
-319.499
-251.962
-171.363
-87.6594
-10.1464
53.513
98.0046
120.747
121.925
104.192
72.1154
31.4361
-11.7317
-51.6745
-83.7272
-104.729
-113.252
-109.593
-95.555
-74.0682
-48.7035
-23.1606
-0.788997
15.7997
24.9886
26.264
20.1751
8.16616
-7.68613
-24.9876
-41.3497
-54.6792
-63.404
-66.6119
-64.0958
-56.3085
-44.2429
-29.2598
-12.8892
3.36721
18.2093
30.6687
40.1855
46.6283
50.2609
51.6663
51.6426
51.084
50.8663
51.7465
54.2892
58.8241
65.4353
73.9809
84.1335
95.4356
107.36
119.366
130.948
141.674
151.208
159.321
165.898
170.935
174.526
176.855
178.172
178.772
178.968
179.052
179.267
179.77
180.606
181.683
182.775
183.528
183.485
182.135
178.959
173.493
165.383
154.433
140.643
124.227
105.609
85.4023
64.3645
43.3422
23.201
4.75415
-11.3053
-24.4619
-34.4182
-41.1136
-44.7202
-45.6162
-44.3403
-41.5314
-37.863
-33.9776
-30.4296
-27.6422
-25.8821
-25.2536
-25.7109
-27.0854
-29.1233
-31.5278
-34.0002
-36.2747
-38.144
-39.4727
-40.1998
-40.3311
-39.9229
-39.0635
-37.8524
-36.3828
-34.7285
-32.9367
-31.0271
-28.9957
-26.8228
-24.4835
-21.9569
-19.2352
-16.3299
-13.2747
-10.1255
-6.95847
-3.86522
-0.947486
1.68893
3.94005
5.70932
6.9128
7.48432
7.38091
6.58891
5.13085
3.07271
0.530509
-2.32556
-5.27168
-8.03814
-10.3257
-11.8314
-12.2809
-11.4658
-9.27778
-5.73668
-1.0041
4.61919
10.7146
16.7841
22.3008
26.7666
29.7681
31.024
30.4177
28.0111
24.0368
18.8718
12.995
6.93429
1.2101
-3.71763
-7.49363
-9.89753
-10.8578
-10.4488
-8.87228
-6.42647
-3.46733
-0.366334
2.52997
4.9343
6.64361
7.55245
7.65443
7.0323
5.83901
4.27251
2.54776
0.869468
-0.591439
-1.71499
-2.44164
-2.77348
-2.76765
-2.52353
-2.1655
-1.82392
-1.61653
-1.63278
-1.92267
-2.49129
-3.29952
-4.27038
-5.3
-6.27161
-7.07072
-7.59956
-7.78911
-7.60717
-7.06179
-6.19955
-5.09915
-3.8613
-2.59617
-1.41034
-0.394582
0.385746
0.896959
1.13921
1.14463
0.971922
0.698175
0.409174
0.189354
0.112642
0.235171
0.590526
1.18785
2.0128
3.03101
4.19367
5.44423
6.72571
7.9871
9.18822
10.3017
11.3117
12.2093
12.985
13.6198
14.077
14.2966
14.1948
13.6698
12.6163
10.9458
8.61242
5.6391
2.14099
-1.66008
-5.43354
-8.75331
-11.1269
-12.0381
-10.9998
-7.60977
-1.60293
7.10703
18.4024
31.9561
47.2483
63.6009
80.2291
96.3004
110.996
123.569
133.387
139.973
143.016
142.384
138.117
130.416
119.628
106.224
90.78
73.9465
56.4231
38.9265
22.1569
6.76393
-6.68688
-17.7442
-26.0972
-31.5952
-34.2612
-34.2974
-32.0811
-28.1464
-23.1465
-17.7869
-12.7204
-8.40245
-4.91119
-1.7597
2.2598
9.14399
21.6028
42.8
75.9021
123.474
186.801
265.269
355.922
453.332
549.865
636.347
703.078
741.069
743.314
705.907
628.808
516.131
375.877
219.154
58.9504
-91.3336
-219.43
-315.589
-373.637
-391.573
-371.629
-319.829
-245.098
-158.071
-69.7695
9.69085
72.1955
112.407
128.147
120.376
92.7814
51.0901
2.17847
-46.8689
-89.6429
-121.129
-138.188
-139.765
-126.82
-102.019
-69.25
-33.0286
2.10653
32.1479
54.052
66.0125
67.5572
59.4742
43.5961
22.4822
-0.950422
-23.7977
-43.4958
-58.071
-66.2919
-67.7169
-62.6457
-51.9911
-37.0981
-19.5383
-0.906021
17.3579
34.0999
48.5343
60.2692
69.2831
75.8622
80.5116
83.8562
86.5435
89.1603
92.1722
95.8877
100.45
105.851
111.963
118.58
125.462
132.379
139.138
145.604
151.71
157.448
162.856
168
172.954
177.782
182.52
187.17
191.692
196.003
199.978
203.446
206.197
207.982
208.52
207.51
204.645
199.639
192.254
182.332
169.828
154.836
137.603
118.533
98.1745
77.1889
56.3069
36.2742
17.7924
1.46132
-12.2703
-23.1398
-31.0874
-36.2537
-38.9564
-39.6518
-38.8828
-37.2224
-35.2167
-33.336
-31.9372
-31.2422
-31.3336
-32.1664
-33.5932
-35.3988
-37.3376
-39.1701
-40.6921
-41.7546
-42.2717
-42.2184
-41.6199
-40.536
-39.045
-37.2309
-35.1749
-32.9537
-30.6421
-28.3175
-26.0649
-23.9777
-22.1539
-20.6869
-19.6513
-19.0878
-18.9891
-19.2905
-19.8687
-20.5484
-21.1185
-21.3546
-21.0462
-20.0234
-18.1804
-15.4927
-12.0241
-7.92344
-3.41185
1.23935
5.73601
9.7912
13.1543
15.6359
17.1253
17.5996
17.1226
15.8346
13.9341
11.6535
9.23297
6.89429
4.81875
3.13144
1.89335
1.10204
0.700223
0.590589
0.654485
0.771553
0.8375
0.777542
0.553936
0.166967
-0.35017
-0.941234
-1.53955
-2.08113
-2.51606
-2.81652
-2.98037
-3.03016
-3.00828
-2.96934
-2.97142
-3.06748
-3.29818
-3.68646
-4.23447
-4.92244
-5.70954
-6.53638
-7.32875
-8.00267
-8.47012
-8.64554
-8.45265
-7.83139
-6.74455
-5.18366
-3.17351
-0.774665
1.91642
4.77041
7.63114
10.3247
12.6714
14.4988
15.6563
16.028
15.5437
14.1854
11.9903
9.04835
5.49601
1.50731
-2.71665
-6.95857
-10.9953
-14.6076
-17.5887
-19.7537
-20.9474
-21.0541
-20.0072
-17.798
-14.4846
-10.1971
-5.13881
0.418544
6.14736
11.6847
16.6603
20.7301
23.6119
25.1181
25.1814
23.8684
21.3779
18.0227
14.1964
10.3284
6.83282
4.05854
2.24806
1.51124
1.81932
3.02063
4.87686
7.11498
9.48718
11.8299
14.1119
16.4636
19.1797
22.694
27.5257
34.2032
43.1737
54.71
68.8273
85.2221
103.244
121.91
139.962
155.968
168.459
176.084
177.77
172.865
161.235
143.322
120.122
93.1135
64.1204
35.1387
8.13997
-15.12
-33.2675
-45.4318
-51.3085
-51.1632
-45.7766
-36.3443
-24.3437
-11.3821
0.964209
11.3125
18.6365
22.4273
22.8435
20.8359
18.2162
17.6326
22.4123
36.2433
62.6929
104.598
163.406
238.569
327.132
423.62
520.309
607.898
676.521
716.99
722.068
687.591
613.259
502.941
364.438
208.724
48.7551
-102.001
-231.098
-328.515
-387.745
-406.427
-386.471
-333.647
-256.753
-166.443
-73.9163
10.3877
77.9178
122.837
142.466
137.318
110.751
68.3117
16.8719
-36.3139
-84.514
-122.276
-145.959
-153.993
-146.866
-126.859
-97.5884
-63.4318
-28.9195
1.83471
25.5939
40.3047
45.2285
40.8995
28.931
11.711
-7.96583
-27.2769
-43.7139
-55.3518
-61.0176
-60.3518
-53.7645
-42.3045
-27.4658
-10.9628
5.49615
20.409
32.6332
41.4792
46.7391
48.6564
47.8453
45.1767
41.6488
38.2583
35.8894
35.2308
36.7265
40.5625
46.6834
54.8341
64.6148
75.5425
87.1082
98.8261
110.269
121.088
131.024
139.898
147.602
154.084
159.326
163.326
166.089
167.614
167.889
166.891
164.588
160.952
155.957
149.603
141.918
132.971
122.879
111.814
99.9942
87.6843
75.1792
62.791
50.8313
39.593
29.3334
20.2587
12.5132
6.17158
1.23668
-2.35807
-4.74177
-6.09519
-6.63693
-6.6076
-6.2531
-5.80807
-5.4807
-5.43971
-5.80453
-6.63916
-7.95034
-9.6901
-11.7627
-14.0352
-16.3518
-18.5487
-20.4712
-21.9877
-23.0029
-23.4658
-23.3735
-22.7699
-21.739
-20.3948
-18.8672
-17.2875
-15.7739
-14.4191
-13.2813
-12.3802
-11.6976
-11.183
-10.7636
-10.3565
-9.88237
-9.2786
-8.50923
-7.57154
-6.49747
-5.34989
-4.21407
-3.18539
-2.35505
-1.79554
-1.54812
-1.61394
-1.95022
-2.47205
-3.05963
-3.57013
-3.85243
-3.76286
-3.1799
-2.01577
-0.224075
2.19731
5.20744
8.7266
12.6425
16.8167
21.0912
25.2942
29.2452
32.7611
35.6628
37.783
38.9766
39.1313
38.1797
36.11
32.9741
28.8927
24.0536
18.7049
13.1407
7.68235
2.65427
-1.64108
-4.94803
-7.07877
-7.92851
-7.48296
-5.81742
-3.08791
0.484015
4.63039
9.05735
13.4645
17.5616
21.081
23.7876
25.4842
26.0172
25.2796
23.216
19.8278
15.1788
9.40012
2.69427
-4.66597
-12.343
-19.9469
-27.0539
-33.2316
-38.0678
-41.2013
-42.3529
-41.3527
-38.1623
-32.8893
-25.791
-17.2663
-7.8354
1.89378
11.269
19.6445
26.4346
31.1637
33.5091
33.3302
30.6814
25.8079
19.122
11.1657
2.56021
-6.04998
-14.0539
-20.9258
-26.2663
-29.8296
-31.5342
-31.4572
-29.8127
-26.9188
-23.1564
-18.925
-14.6015
-10.5053
-6.87441
-3.85292
-1.4924
0.236021
1.42048
2.1819
2.6464
2.92053
3.07283
3.12425
3.04875
2.78433
2.25318
1.389
0.168102
-1.35968
-3.04475
-4.62112
-5.7041
-5.80569
-4.3697
-0.825351
5.34456
14.5279
26.9089
42.4058
60.6294
80.8717
102.129
123.162
142.587
159
171.104
177.851
178.55
172.963
161.338
144.41
123.335
99.5858
74.8119
50.6796
28.7129
10.1522
-4.15204
-13.8007
-18.8566
-19.8057
-17.4756
-12.9248
-7.31442
-1.78015
2.6875
5.3457
5.7847
3.99979
0.453677
-3.87074
-7.43744
-8.16575
-3.51054
9.3547
33.2329
70.4815
122.512
189.281
268.871
357.264
448.391
534.51
606.916
656.902
676.865
661.404
608.229
518.731
398.116
255.038
100.767
-52.0025
-190.573
-303.68
-382.771
-422.946
-423.451
-387.651
-322.509
-237.646
-144.113
-53.0459
25.6264
84.2581
118.222
126.23
110.229
74.9051
26.885
-26.2334
-76.9003
-118.543
-146.298
-157.467
-151.672
-130.698
-98.0891
-58.5567
-17.2959
20.6985
51.2302
71.3482
79.6001
76.0785
62.2743
40.772
14.8407
-12.0198
-36.5179
-55.9409
-68.4182
-73.0565
-69.9406
-60.0154
-44.8744
-26.491
-6.9337
11.8994
28.4927
41.8519
51.5596
57.7492
61.0105
62.2464
62.5058
62.817
64.0445
66.7851
71.3142
77.5834
85.2653
93.8337
102.666
111.152
118.791
125.268
130.503
134.653
138.087
141.332
144.982
149.615
155.691
163.477
172.99
183.963
195.859
207.909
219.179
228.661
235.375
238.466
237.291
231.487
221.004
206.118
187.404
165.686
141.966
117.343
92.9247
69.7432
48.6836
30.4285
15.4228
3.8595
-4.31389
-9.37096
-11.7674
-12.0917
-11.01
-9.20914
-7.34245
-5.98089
-5.5739
-6.42184
-8.66206
-12.2694
-17.0706
-22.771
-28.9902
-35.3028
-41.2806
-46.5311
-50.7291
-53.6397
-55.1304
-55.1726
-53.8343
-51.2654
-47.6779
-43.3237
-38.4733
-33.395
-28.3388
-23.5227
-19.1244
-15.2757
-12.0614
-9.52008
-7.64759
-6.40196
-5.70968
-5.47291
-5.57741
-5.90081
-6.32104
-6.72419
-7.01154
-7.10522
-6.95202
-6.52511
-5.82349
-4.86922
-3.7026
-2.37584
-0.945575
0.534783
2.02233
3.49041
4.932
6.35969
7.80198
9.29559
10.875
12.5601
14.345
16.1892
18.0131
19.7007
21.1073
22.074
22.4453
22.0891
20.9158
18.8929
16.055
12.5061
8.41357
3.99612
-0.494938
-4.79748
-8.66165
-11.8715
-14.2627
-15.7354
-16.2595
-15.8739
-14.679
-12.8237
-10.4891
-7.87036
-5.15842
-2.52452
-0.107731
1.99258
3.71926
5.05489
6.01517
6.63928
6.97885
7.08726
7.01059
6.78137
6.41582
5.91451
5.26607
4.45309
3.45912
2.27568
0.908225
-0.619645
-2.26433
-3.96281
-5.63554
-7.19153
-8.53501
-9.57319
-10.2245
-10.4265
-10.1428
-9.36856
-8.13277
-6.49853
-4.55974
-2.4349
-0.258169
1.83149
3.70207
5.24004
6.3601
7.01214
7.18414
6.90071
6.21717
5.21006
3.96534
2.5664
1.08397
-0.430214
-1.94455
-3.44343
-4.91876
-6.3591
-7.73899
-9.01139
-10.1054
-10.9305
-11.3878
-11.3866
-10.8633
-9.80094
-8.24362
-6.30463
-4.16426
-2.05681
-0.247063
1.00186
1.46575
0.996946
-0.442661
-2.75821
-5.7122
-8.93126
-11.9302
-14.1521
-15.0214
-14.0041
-10.6697
-4.74606
3.83841
14.9313
28.155
42.928
58.5069
74.0444
88.6576
101.498
111.82
119.035
122.754
122.812
119.274
112.421
102.72
90.7857
77.3252
63.0873
48.8046
35.1437
22.6625
11.7787
2.75264
-4.31692
-9.48265
-12.9271
-14.9318
-15.8406
-16.0208
-15.8229
-15.5428
-15.3829
-15.4109
-15.5103
-15.3218
-14.1741
-11.0183
-4.38427
7.60731
27.1447
56.5074
97.7223
152.117
219.825
299.339
387.204
477.978
564.495
638.483
691.463
715.824
705.932
659.067
576.054
461.455
323.267
172.155
20.3106
-119.906
-237.368
-323.419
-372.81
-384.186
-360.106
-306.582
-232.224
-147.13
-61.6458
14.8137
74.7634
113.341
128.637
121.645
95.8703
56.6702
10.4319
-36.2998
-77.6305
-108.968
-127.452
-132.123
-123.849
-105.026
-79.1161
-50.1087
-21.96
1.90224
18.9587
27.826
28.3179
21.3487
8.70742
-7.25687
-23.9884
-39.0692
-50.5111
-56.9642
-57.8231
-53.2281
-43.9723
-31.3358
-16.8748
-2.19782
11.2432
22.3225
30.3542
35.142
36.965
36.5067
34.7408
32.7896
31.7738
32.6725
36.2076
42.7669
52.3711
64.6864
79.079
94.7033
110.609
125.855
139.619
151.278
160.474
167.129
171.442
173.843
174.924
175.361
175.821
176.88
178.948
182.22
186.648
191.943
197.6
202.947
207.217
209.618
209.418
206.018
199.015
188.251
173.832
156.13
135.758
113.525
90.3669
67.2735
45.2041
25.0109
7.37045
-7.26489
-18.6946
-26.9719
-32.3823
-35.4
-36.6298
-36.7393
-36.3909
-36.1786
-36.5781
-37.9125
-40.3366
-43.8397
-48.264
-53.3366
-58.7086
-63.9985
-68.8334
-72.8854
-75.899
-77.7086
-78.2448
-77.5308
-75.6699
-72.8266
-69.2052
-65.028
-60.5155
-55.8716
-51.2752
-46.8762
-42.7975
-39.1397
-35.9853
-33.401
-31.4355
-30.1122
-29.4183
-29.2933
-29.6195
-30.2198
-30.864
-31.2859
-31.2094
-30.3817
-28.6072
-25.7785
-21.899
-17.0917
-11.5937
-5.73594
0.0901946
5.4744
10.0322
13.4469
15.504
16.1125
15.3124
13.2662
10.238
6.56107
2.60048
-1.28587
-4.78221
-7.64234
-9.70688
-10.909
-11.2692
-10.8805
-9.88748
-8.46207
-6.77955
-4.99814
-3.24409
-1.60354
-0.121243
1.19485
2.36473
3.42536
4.41948
5.38618
6.35405
7.33766
8.33692
9.33864
10.3195
11.2492
12.0931
12.8148
13.3769
13.7421
13.8749
13.7429
13.3201
12.5909
11.5541
10.228
8.65246
6.89045
5.02537
3.15585
1.38744
-0.177512
-1.45057
-2.36676
-2.89152
-3.02399
-2.79593
-2.26673
-1.5152
-0.629552
0.302681
1.20328
2.00928
2.67553
3.17375
3.48876
3.6129
3.53995
3.25988
2.75559
2.00211
0.968343
-0.378898
-2.06941
-4.12303
-6.54248
-9.30559
-12.3575
-15.6027
-18.8997
-22.058
-24.8417
-26.9813
-28.1936
-28.2109
-26.8161
-23.8803
-19.3959
-13.5012
-6.48823
1.20729
9.03733
16.3903
22.6534
27.2799
29.8533
30.1398
28.1207
24.001
18.1921
11.2704
3.91797
-3.14966
-9.25689
-13.836
-16.4808
-16.9805
-15.3303
-11.7196
-6.49917
-0.133139
6.8578
13.9555
20.6985
26.7264
31.8102
35.8665
38.9563
41.268
43.0891
44.768
46.6712
49.1399
52.4503
56.7811
62.1916
68.6113
75.8415
83.5685
91.3857
98.8237
105.385
110.584
113.98
115.219
114.058
110.392
104.262
95.8594
85.5115
73.6591
60.8219
47.5573
34.4156
21.8967
10.4118
0.253882
-8.42018
-15.5955
-21.3918
-26.0416
-29.8531
-33.1527
-36.2037
-39.0992
-41.6322
-43.1563
-42.4642
-37.7211
-26.4987
-5.95003
26.8539
74.4345
138.314
218.414
312.555
416.195
522.49
622.746
707.237
766.315
791.645
777.413
721.285
624.975
494.314
338.785
170.574
3.26544
-149.656
-276.29
-367.599
-418.325
-427.437
-398.064
-336.945
-253.495
-158.606
-63.3555
22.215
90.1217
135.137
155.114
150.931
126.084
86.0162
37.2889
-13.3013
-59.5372
-96.4429
-120.727
-130.977
-127.608
-112.6
-89.0776
-60.8007
-31.6425
-5.11187
16.0221
29.9717
36.0255
34.5027
26.5905
14.0976
-0.835315
-16.0271
-29.5152
-39.7545
-45.7406
-47.0518
-43.8163
-36.6195
-26.3691
-14.1426
-1.03689
11.9616
24.0726
34.778
43.8361
51.2596
57.2657
62.2082
66.505
70.5691
74.7537
79.3158
84.4012
90.0487
96.2118
102.789
109.659
116.709
123.86
131.07
138.339
145.687
153.141
160.705
168.348
175.984
183.466
190.598
197.138
202.821
207.381
210.567
212.157
211.974
209.883
205.793
199.656
191.463
181.245
169.084
155.116
139.548
122.665
104.839
86.5248
68.2429
50.5574
34.0368
19.2098
6.51812
-3.72635
-11.3753
-16.4624
-19.2033
-19.977
-19.2901
-17.7279
-15.8988
-14.3787
-13.6602
-14.1129
-15.9573
-19.2534
-23.9045
-29.6734
-36.2099
-43.0853
-49.8326
-55.9869
-61.1247
-64.8982
-67.062
-67.491
-66.187
-63.275
-58.9888
-53.6483
-47.6295
-41.3313
-35.1418
-29.4067
-24.4032
-20.3216
-17.2551
-15.1999
-14.0633
-13.6799
-13.8333
-14.2818
-14.7835
-15.1211
-15.1213
-14.6692
-13.7154
-12.276
-10.4258
-8.28605
-6.00793
-3.75403
-1.68006
0.0816356
1.43478
2.32706
2.75263
2.74944
2.39183
1.77992
1.02707
0.24709
-0.457175
-1.00285
-1.33269
-1.41718
-1.25328
-0.860292
-0.273937
0.460525
1.29506
2.18472
3.09203
3.98959
4.86107
5.70053
6.5107
7.30035
8.08137
8.8656
9.66188
10.4735
11.2959
12.1155
12.9089
13.6431
14.2766
14.7622
15.05
15.0921
14.8473
14.287
13.4
12.1973
10.7147
9.01379
7.18009
5.31796
3.54251
1.96903
0.700912
-0.182562
-0.636761
-0.659055
-0.291546
0.381592
1.24218
2.15069
2.96189
3.54142
3.78105
3.6105
3.00443
1.98372
0.611004
-1.01856
-2.79013
-4.58364
-6.28793
-7.8127
-9.09692
-10.1126
-10.8639
-11.3816
-11.7151
-11.9215
-12.0561
-12.1627
-12.2682
-12.3796
-12.4847
-12.5565
-12.5591
-12.4545
-12.21
-11.803
-11.2248
-10.4814
-9.59251
-8.58801
-7.50333
-6.373
-5.22307
-4.06255
-2.87471
-1.60965
-0.179742
1.53982
3.70421
6.48514
10.0506
14.54
20.0381
26.5503
33.9844
42.1404
50.7127
59.3038
67.4505
74.6598
80.4516
84.4048
86.2013
85.6643
82.7872
77.7486
70.9125
62.8106
54.1084
45.5559
37.9262
31.9483
28.2395
27.2449
29.192
34.0643
41.5996
51.3122
62.5372
74.4932
86.3538
97.3222
106.698
113.932
118.659
120.708
120.097
116.998
111.696
104.537
95.8844
86.0744
75.3929
64.0646
52.2585
40.1059
27.7248
15.2461
2.83439
-9.2995
-20.8981
-31.6689
-41.3069
-49.5241
-56.0823
-60.8207
-63.673
-64.6619
-63.864
-61.3374
-57.0128
-50.5603
-41.2567
-27.8923
-8.7644
18.2015
55.1774
104.013
165.716
239.92
324.438
415.04
505.517
588.11
654.263
695.643
705.269
678.589
614.323
514.928
386.581
238.674
82.8614
-68.2143
-202.336
-309.09
-381.013
-414.364
-409.434
-370.355
-304.468
-221.327
-131.503
-45.33
28.238
82.5331
113.74
121.083
106.637
74.8186
31.6343
-16.1852
-62.0638
-100.356
-126.936
-139.546
-137.884
-123.438
-99.1283
-68.7993
-36.6534
-6.69665
17.7362
34.3254
41.9512
40.7105
31.7836
17.1796
-0.593265
-18.8855
-35.2439
-47.6895
-54.9089
-56.3417
-52.1679
-43.2036
-30.7312
-16.2889
-1.45218
12.3664
24.0753
33.0049
38.9448
42.119
43.1082
42.7356
41.9324
41.6044
42.515
45.1993
49.9169
56.6457
65.1145
74.8651
85.3346
95.943
106.175
115.647
124.143
131.63
138.243
144.242
149.955
155.715
161.792
168.338
175.348
182.633
189.833
196.435
201.821
205.331
206.339
204.321
198.928
190.032
177.758
162.486
144.82
125.538
105.521
85.6686
66.8191
49.6736
34.7397
22.2983
12.3962
4.86485
-0.638533
-4.57405
-7.45394
-9.77779
-11.976
-14.3678
-17.1376
-20.3309
-23.8685
-27.5752
-31.2181
-34.5485
-37.3416
-39.4294
-40.7224
-41.2192
-41.0028
-40.2259
-39.0888
-37.8119
-36.6086
-35.6612
-35.1022
-35.0016
-35.361
-36.1147
-37.1345
-38.2413
-39.2202
-39.8389
-39.8701
-39.1145
-37.424
-34.7224
-31.0208
-26.4265
-21.1425
-15.4569
-9.72155
-4.32177
0.361806
3.99512
6.33159
7.24687
6.7618
5.04929
2.42236
-0.69706
-3.82575
-6.47827
-8.23
-8.77563
-7.97479
-5.8775
-2.72475
1.07713
5.00609
8.49183
10.9925
12.0696
11.4516
9.07563
5.1029
-0.095604
-5.98096
-11.91
-17.2126
-21.2721
-23.5992
-23.8889
-22.055
-18.2378
-12.7849
-6.20818
0.876258
7.81881
14.0076
18.9323
22.2339
23.734
23.4427
21.5447
18.366
14.328
9.89367
5.51296
1.57498
-1.62905
-3.92783
-5.2755
-5.74142
-5.48664
-4.73116
-3.71683
-2.67109
-1.77613
-1.14699
-0.820971
-0.758689
-0.855952
-0.964085
-0.915536
-0.551118
0.254667
1.57329
3.40905
5.69441
8.29378
11.0152
13.6285
15.8873
17.5547
18.4278
18.3619
17.2895
15.2339
12.3146
8.74344
4.80982
0.856364
-2.75443
-5.67928
-7.63499
-8.43592
-8.02309
-6.48004
-4.03243
-1.02998
2.08797
4.84011
6.75869
7.44628
6.62708
4.18599
0.19052
-5.10763
-11.2921
-17.8204
-24.0781
-29.4417
-33.3446
-35.3391
-35.1477
-32.6977
-28.1367
-21.8255
-14.3097
-6.27151
1.53298
8.34576
13.48
16.3874
16.7125
14.3288
9.3528
2.13413
-6.77497
-16.6691
-26.7516
-36.2019
-44.2426
-50.1979
-53.5399
-53.9179
-51.1701
-45.3184
-36.548
-25.1779
-11.6245
3.63392
20.0908
37.2374
54.5822
71.6604
88.0375
103.306
117.078
128.976
138.633
145.682
149.775
150.592
147.873
141.451
131.291
117.522
100.47
80.667
58.8533
35.9529
13.0327
-8.75895
-28.2684
-44.4245
-56.3289
-63.3424
-65.1565
-61.8424
-53.8677
-42.0751
-27.6164
-11.8417
3.85628
18.2354
30.4206
40.1215
47.8183
54.8729
63.5206
76.7007
97.7067
129.668
174.918
234.341
306.825
388.942
474.957
557.224
626.947
675.224
694.234
678.384
625.238
536.075
415.981
273.435
119.45
-33.6238
-173.481
-289.229
-372.571
-418.657
-426.499
-398.913
-342.022
-264.388
-175.923
-86.7044
-5.86305
59.3348
104.11
126.449
127.034
108.865
76.6553
36.0861
-6.96406
-47.1252
-80.0968
-103.014
-114.596
-115.086
-106.015
-89.8448
-69.5357
-48.1199
-28.3179
-12.2461
-1.23859
4.20885
4.38202
0.200691
-6.98874
-15.6456
-24.2586
-31.5334
-36.5246
-38.7024
-37.9561
-34.5422
-28.9916
-21.9959
-14.2891
-6.54293
0.714231
7.14581
12.6224
17.2072
21.118
24.6752
28.245
32.1861
36.8053
42.3268
48.875
56.471
65.0404
74.429
84.4238
94.7755
105.221
115.499
125.37
134.618
143.063
150.56
156.999
162.307
166.443
169.399
171.199
171.895
171.562
170.294
168.2
165.39
161.973
158.043
153.674
148.914
143.782
138.269
132.341
125.951
119.042
111.564
103.476
94.7567
85.4051
75.4396
64.8977
53.8347
42.324
30.4596
18.3603
6.17375
-5.92022
-17.7098
-28.9561
-39.404
-48.7969
-56.8967
-63.5036
-68.4756
-71.743
-73.3168
-73.2889
-71.8251
-69.1513
-65.5356
-61.2697
-56.651
-51.9692
-47.4953
-43.4753
-40.1241
-37.6204
-36.0986
-35.6387
-36.2538
-37.8785
-40.3597
-43.4549
-46.8396
-50.1259
-52.8918
-54.7198
-55.2395
-54.1696
-51.3544
-46.7873
-40.6208
-33.1574
-24.8251
-16.137
-7.64253
0.126923
6.70915
11.7547
15.0576
16.57
16.4006
14.7968
12.1147
8.77925
5.24129
1.9342
-0.764115
-2.56119
-3.26948
-2.81439
-1.23125
1.34733
4.7117
8.60018
12.7259
16.8032
20.5702
23.8077
26.351
28.0962
29.0005
29.0779
28.3903
27.037
25.1431
22.8475
20.2925
17.615
14.9399
12.3756
10.0113
7.91656
6.14136
4.71713
3.65801
2.9619
2.61123
2.57346
2.80168
3.23567
3.80388
4.42655
5.02014
5.50288
5.80104
5.85532
5.62677
5.10135
4.29248
3.24091
2.01159
0.687546
-0.638927
-1.87685
-2.94779
-3.79614
-4.3967
-4.75823
-4.92176
-4.95374
-4.93474
-4.94538
-5.05182
-5.29313
-5.67282
-6.15602
-6.67297
-7.12856
-7.41662
-7.43719
-7.11417
-6.41094
-5.34161
-3.97613
-2.43825
-0.896336
0.452087
1.40032
1.75474
1.35656
0.100652
-2.05109
-5.06329
-8.82845
-13.1762
-17.889
-22.7231
-27.4316
-31.7876
-35.6038
-38.7473
-41.1473
-42.7946
-43.7346
-44.0532
-43.8599
-43.2683
-42.3795
-41.2677
-39.972
-38.4941
-36.8017
-34.8368
-32.5268
-29.7972
-26.5827
-22.8356
-18.5309
-13.6669
-8.26319
-2.35704
4.00039
10.7457
17.8023
25.0761
32.4496
39.7745
46.8668
53.505
59.4343
64.3779
68.0537
70.1975
70.5875
69.0699
65.5797
60.1552
52.9434
44.1948
34.2477
23.5035
12.3943
1.349
-9.24184
-19.0551
-27.8572
-35.5154
-41.9975
-47.3607
-51.7304
-55.27
-58.1448
-60.4774
-62.2929
-63.4488
-63.5501
-61.8546
-57.1866
-47.8919
-31.871
-6.73089
29.923
80.0594
144.702
223.396
313.777
411.34
509.524
600.145
674.183
722.826
738.644
716.713
655.506
557.385
428.616
278.852
120.162
-34.2862
-171.703
-281.119
-354.597
-388.061
-381.64
-339.5
-269.195
-180.652
-84.9226
7.12641
86.0155
144.613
178.751
187.438
172.686
138.994
92.5789
40.4711
-10.3997
-54.0269
-85.9561
-103.668
-106.69
-96.4462
-75.8938
-49.0058
-20.1796
6.35069
27.0266
39.3489
42.098
35.3793
20.5046
-0.261179
-24.047
-47.7662
-68.5007
-83.8342
-92.1003
-92.5215
-85.2348
-71.208
-52.0668
-29.8607
-6.79876
15.0094
33.7801
48.2248
57.6475
61.9669
61.6658
57.6828
51.2622
43.785
36.6021
30.8886
27.5339
27.0753
29.6791
35.1648
43.0649
52.7097
63.3239
74.1233
84.4004
93.5903
101.312
107.386
111.818
114.775
116.536
117.436
117.814
117.963
118.092
118.302
118.578
118.796
118.745
118.157
116.74
114.215
110.35
104.986
98.0634
89.6306
79.8492
68.9879
57.4076
45.5372
33.8434
22.7951
12.8255
4.29671
-2.53255
-7.52995
-10.7026
-12.1977
-12.2895
-11.3554
-9.84088
-8.2189
-6.94684
-6.42582
-6.96642
-8.76424
-11.8873
-16.2759
-21.7543
-28.0523
-34.8331
-41.725
-48.3535
-54.3697
-59.4742
-63.4342
-66.0933
-67.3743
-67.276
-65.8653
-63.2663
-59.6495
-55.2205
-50.2111
-44.8733
-39.4739
-34.2903
-29.6045
-25.6932
-22.8134
-21.1818
-20.9498
-22.1778
-24.8134
-28.6771
-33.4624
-38.7504
-44.0418
-48.801
-52.5104
-54.7254
-55.1244
-53.5468
-50.0124
-44.7212
-38.032
-30.4241
-22.4455
-14.6553
-7.56707
-1.59965
2.95924
5.97269
7.4568
7.56596
6.56435
4.78774
2.60096
0.356099
-1.64364
-3.17099
-4.09023
-4.3606
-4.02852
-3.21055
-2.07018
-0.791735
0.445041
1.48686
2.22291
2.59382
2.59317
2.26226
1.67955
0.946597
0.172746
-0.539527
-1.10674
-1.47285
-1.61326
-1.53457
-1.27028
-0.873715
-0.409119
0.0575788
0.467266
0.774358
0.951099
0.989181
0.898805
0.705599
0.446081
0.16241
-0.102815
-0.311082
-0.431394
-0.442389
-0.333123
-0.102652
0.241426
0.685228
1.21139
1.80212
2.44206
3.1207
3.83377
4.58341
5.37695
6.22428
7.13402
8.10905
9.14202
10.2117
11.2807
12.2957
13.1904
13.8899
14.3189
14.4092
14.1087
13.3878
12.2446
10.7056
8.82414
6.67528
4.34923
1.94484
-0.435522
-2.68874
-4.7116
-6.40014
-7.64956
-8.35656
-8.42534
-7.77801
-6.36838
-4.19712
-1.3254
2.11619
5.92637
9.84121
13.552
16.7318
19.0681
20.2978
20.2406
18.8256
16.1087
12.2768
7.6387
2.60325
-2.35364
-6.72891
-10.0354
-11.8435
-11.8174
-9.74261
-5.54272
0.71576
8.83028
18.4794
29.2479
40.6579
52.2013
63.3724
73.6971
82.7563
90.2032
95.773
99.2854
100.64
99.8079
96.8187
91.749
84.7118
75.8501
65.3361
53.3756
40.2158
26.1553
11.5523
-3.1725
-17.5413
-31.0366
-43.1309
-53.3282
-61.2137
-66.5049
-69.096
-69.0835
-66.7625
-62.5821
-57.0545
-50.6179
-43.4647
-35.3606
-25.4902
-12.3764
6.07961
32.4029
69.1839
118.575
181.71
258.147
345.445
438.996
532.178
616.874
684.303
726.069
735.29
707.617
642.001
541.065
411.018
261.111
102.693
-51.999
-191.164
-304.696
-385.22
-428.786
-435.136
-407.545
-352.263
-277.655
-193.164
-108.222
-31.2521
31.1366
74.6736
97.6412
100.777
86.9067
60.3727
26.352
-9.85038
-43.4442
-70.6613
-89.0836
-97.769
-97.1832
-88.9649
-75.5725
-59.8663
-44.6857
-32.4732
-24.9874
-23.1324
-26.9118
-35.5027
-47.4297
-60.8056
-73.6072
-83.9448
-90.2964
-91.6769
-87.7296
-78.7315
-65.5196
-49.3512
-31.7207
-14.1583
1.96401
15.5937
26.109
33.3691
37.7001
39.8241
40.7426
41.5937
43.5021
47.4408
54.1215
63.9239
76.8691
92.6369
110.62
130.008
149.883
169.322
187.489
203.711
217.524
228.698
237.229
243.31
247.282
249.578
250.657
250.947
250.804
250.473
250.077
249.623
249.016
248.092
246.651
244.493
241.452
237.416
232.346
226.274
219.292
211.538
203.168
194.327
185.118
175.584
165.697
155.356
144.412
132.695
120.062
106.438
91.8598
76.5022
60.6883
44.8756
29.6219
15.5322
3.19465
-6.88579
-14.3471
-19.0147
-20.9251
-20.3245
-17.6435
-13.451
-8.39333
-3.12712
1.74692
5.74021
8.51688
9.91485
9.94589
8.77624
6.69147
4.05095
1.23821
-1.38675
-3.52743
-4.97934
-5.64448
-5.53159
-4.74345
-3.45412
-1.87991
-0.248231
1.23156
2.39202
3.12378
3.38278
3.18864
2.61535
1.77617
0.805264
-0.161275
-1.00265
-1.62682
-1.97887
-2.04396
-1.84483
-1.43494
-0.888463
-0.288774
0.283015
0.757984
1.08675
1.24361
1.22718
1.05804
0.773774
0.422416
0.0553262
-0.279633
-0.543741
-0.711313
-0.77154
-0.72827
-0.597956
-0.406253
-0.183808
0.0381231
0.231674
0.375509
0.456815
0.472009
0.426203
0.33164
0.205397
0.0667203
-0.0656231
-0.175657
-0.251908
-0.288371
-0.284685
-0.245578
-0.179729
-0.0982623
-0.0130845
0.0646956
0.126079
0.165085
0.179184
0.169245
0.139072
0.0946081
0.0429641
-0.00860137
-0.0536102
-0.0870968
-0.106072
-0.10969
-0.0991276
-0.0772257
-0.0479839
-0.0160145
0.013899
0.0370151
0.048545
0.0432805
0.0150705
-0.0436432
-0.14199
-0.290334
-0.499326
-0.778362
-1.13361
-1.56584
-2.0685
-2.62625
-3.21455
-3.80033
-4.34404
-4.80308
-5.13635
-5.30978
-5.30218
-5.11102
-4.75702
-4.28697
-3.77387
-3.31364
-3.01857
-3.00757
-3.39422
-4.274
-5.71218
-7.7341
-10.3192
-13.4
-16.866
-20.5734
-24.3577
-28.0501
-31.4934
-34.5575
-37.1502
-39.2241
-40.777
-41.8466
-42.5004
-42.8213
-42.8929
-42.7846
-42.5405
-42.1726
-41.6588
-40.9474
-39.9642
-38.6245
-36.845
-34.5553
-31.7073
-28.2806
-24.2836
-19.75
-14.7315
-9.28869
-3.48146
2.63831
9.03046
15.6653
22.5171
29.5536
36.7228
43.9391
51.0734
57.9468
64.3321
69.9632
74.5512
77.8075
79.4692
79.3261
77.2447
73.1855
67.213
59.4954
50.2935
39.9419
28.8224
17.3351
5.87063
-5.21403
-15.6131
-25.0826
-33.4446
-40.5875
-46.4628
-51.0774
-54.4767
-56.7111
-57.7782
-57.5351
-55.5862
-51.1643
-43.0353
-29.4701
-8.32571
22.7318
65.8563
122.531
193.024
275.894
367.656
462.71
553.619
631.74
688.163
714.845
705.784
658.031
572.381
453.605
310.164
153.414
-3.5985
-147.594
-266.569
-351.152
-395.635
-398.531
-362.611
-294.417
-294.417
-294.417
-294.417
-294.417
-294.417
-294.417
-294.417
-294.417
-294.417
-294.417
-294.417
-294.417
-294.417
-294.417
-294.417
-294.417
-294.417
-294.417
-294.417
