291.613
342.027
396.835
452.51
504.526
547.74
576.932
587.426
575.732
540.088
480.823
400.486
303.692
196.718
86.8731
-18.2589
-111.618
-187.402
-241.646
-272.573
-280.691
-268.621
-240.687
-202.348
-159.523
-117.912
-82.3878
-56.5344
-42.3629
-40.2382
-49.0012
-66.2591
-88.7933
-113.026
-135.483
-153.202
-164.034
-166.818
-161.419
-148.638
-130.015
-107.565
-83.4864
-59.8731
-38.4743
-20.5211
-6.63658
3.17186
9.44287
13.1338
15.4569
17.7021
21.0709
26.5383
34.7555
46.0019
60.1834
76.8746
95.3925
114.892
134.466
153.248
170.489
185.623
198.296
208.38
215.948
221.24
224.605
226.44
227.127
226.976
226.183
224.8
222.735
219.766
215.576
209.806
202.109
192.215
179.979
165.419
148.735
130.306
110.665
90.4513
70.3551
51.0538
33.1494
17.1167
3.2668
-8.26958
-17.5387
-24.7408
-30.1934
-34.2834
-37.4185
-39.9797
-42.2836
-44.5557
-46.9186
-49.3932
-51.9124
-54.3441
-56.5192
-58.2618
-59.4159
-59.8675
-59.5597
-58.4982
-56.75
-54.4338
-51.706
-48.7428
-45.7219
-42.8054
-40.1258
-37.7764
-35.8069
-34.2234
-32.9934
-32.0536
-31.3204
-30.7001
-30.0997
-29.4347
-28.6358
-27.6527
-26.4551
-25.0325
-23.3914
-21.5526
-19.548
-17.417
-15.2046
-12.9587
-10.7289
-8.56514
-6.51635
-4.62871
-2.94385
-1.49658
-0.312563
0.593875
1.22131
1.58197
1.70143
1.61699
1.37499
1.02722
0.626747
0.223702
-0.138548
-0.426388
-0.617797
-0.7029
-0.683234
-0.569933
-0.381112
-0.138837
0.133932
0.416081
0.690517
0.945627
1.17599
1.38239
1.5712
1.75329
1.94257
2.1544
2.40393
2.70473
3.06772
3.50068
4.00832
4.59295
5.25582
5.99886
6.82667
7.7485
8.77983
9.9431
11.2674
12.7864
14.5354
16.5462
18.841
21.4267
24.2883
27.3841
30.6434
33.9658
37.2252
40.2755
42.9604
45.1245
46.6258
47.3474
47.2073
46.1657
44.2277
41.4431
37.9019
33.7293
29.0801
24.1365
19.1112
14.2604
9.9066
6.47293
4.52481
4.81118
8.29268
16.1405
29.6878
50.3195
79.2937
117.502
165.195
221.711
285.268
352.867
420.366
482.732
534.479
570.245
585.436
576.842
543.147
485.229
406.214
311.245
207.013
101.072
1.05899
-86.1057
-154.926
-201.858
-225.604
-227.14
-209.476
-177.214
-135.931
-91.512
-49.479
-14.4213
10.4248
23.4038
24.4653
14.9997
-2.48031
-24.7588
-48.378
-70.081
-87.1849
-97.8451
-101.19
-97.3192
-87.1882
-72.3912
-54.893
-36.7391
-19.7857
-5.47993
5.28881
12.2536
15.7517
16.632
16.1058
15.5638
16.3828
19.7471
26.5051
37.0747
51.4076
69.012
89.0267
110.337
131.71
151.944
169.993
185.079
196.754
204.923
209.83
211.992
212.121
211.014
209.451
208.093
207.408
207.616
208.672
210.275
211.907
212.901
212.519
210.035
204.818
196.411
184.577
169.342
150.994
130.071
107.32
83.6303
59.9669
37.2845
16.4512
-1.82052
-17.0256
-28.8973
-37.413
-42.7777
-45.3852
-45.7636
-44.5125
-42.2373
-39.4898
-36.7201
-34.2451
-32.2355
-30.7215
-29.6147
-28.743
-27.8926
-26.8514
-25.4484
-23.5834
-21.2455
-18.5162
-15.5594
-12.5999
-9.89254
-7.68833
-6.20016
-5.57404
-5.86845
-7.04482
-8.96969
-11.4284
-14.1479
-16.8265
-19.1656
-20.9008
-21.8277
-21.8208
-20.8422
-18.9411
-16.2441
-12.9372
-9.24342
-5.39774
-1.62269
1.89293
5.00976
7.64649
9.78071
11.4422
12.6997
13.6442
14.3692
14.954
15.4497
15.8706
16.1933
16.3613
16.2956
15.9086
15.1198
13.8695
12.1304
9.91405
7.27253
4.29501
1.10113
-2.16812
-5.36047
-8.32224
-10.9076
-12.987
-14.4551
-15.2376
-15.298
-14.6429
-13.3247
-11.4426
-9.13895
-6.59151
-4.00189
-1.57984
0.474602
1.98983
2.84006
2.95938
2.35067
1.08802
-0.687927
-2.78149
-4.95936
-6.97207
-8.57726
-9.56225
-9.7634
-9.08006
-7.48164
-5.00696
-1.75604
2.12441
6.46003
11.0696
15.7851
20.4674
25.0165
29.3737
33.5158
37.4421
41.1566
44.6478
47.871
50.7358
53.1022
54.7881
55.586
55.2892
53.7234
50.779
46.441
40.8123
34.1294
26.7724
19.2692
12.3016
6.71047
3.50232
3.84952
9.07334
20.5955
39.8437
68.1005
106.297
154.767
212.989
279.372
351.127
424.282
493.87
554.295
599.86
625.388
626.858
601.974
550.567
474.772
378.934
269.251
153.192
38.7541
-66.3424
-155.426
-223.516
-267.762
-287.635
-284.85
-263.049
-227.291
-183.417
-137.37
-94.5672
-59.3662
-34.7109
-21.9606
-20.9174
-30.0266
-46.7124
-67.7934
-89.9238
-110.002
-125.503
-134.709
-136.806
-131.876
-120.776
-104.937
-86.1299
-66.2129
-46.8994
-29.5749
-15.1727
-4.1169
3.66891
8.69714
11.8098
14.0469
16.5069
20.2147
26.0106
34.4686
45.8516
60.1028
76.872
95.5706
115.447
135.674
155.43
173.981
190.733
205.269
217.362
226.954
234.131
239.073
242.005
243.154
242.713
240.819
237.548
232.924
226.938
219.567
210.802
200.661
189.204
176.538
162.811
148.21
132.95
117.265
101.403
85.6196
70.1699
55.3072
41.276
28.3045
16.5954
6.31527
-2.41648
-9.53791
-15.0517
-19.0283
-21.6035
-22.9704
-23.3663
-23.0545
-22.3041
-21.3696
-20.4718
-19.7826
-19.4154
-19.4216
-19.794
-20.4748
-21.3695
-22.3625
-23.3337
-24.1734
-24.7949
-25.1418
-25.1913
-24.9521
-24.4587
-23.7628
-22.9239
-21.9994
-21.0373
-20.0713
-19.1187
-18.1824
-17.2538
-16.3191
-15.3645
-14.3812
-13.3693
-12.3387
-11.3079
-10.3013
-9.34464
-8.45972
-7.66035
-6.94924
-6.31707
-5.74374
-5.20167
-4.66043
-4.09193
-3.4752
-2.79992
-2.06813
-1.29389
-0.500924
0.281157
1.02157
1.6931
2.27624
2.76217
3.15427
3.46806
3.72964
3.97291
4.23565
4.555
4.96243
5.47893
6.11072
6.84617
7.65436
8.48587
9.27588
9.94976
10.4305
10.6477
10.5465
10.0956
9.29362
8.17168
6.79282
5.24724
3.64426
2.10154
0.732995
-0.363366
-1.11615
-1.48864
-1.48334
-1.14239
-0.543861
0.205705
0.982008
1.65602
2.10843
2.2445
2.00798
1.39294
0.451658
-0.702595
-1.89952
-2.923
-3.52945
-3.47219
-2.52943
-0.533051
2.60522
6.87366
12.1491
18.1961
24.6782
31.1798
37.2378
42.3797
46.1644
48.2219
48.287
46.2245
42.0418
35.8896
28.0501
18.915
8.95769
-1.29507
-11.2862
-20.4404
-28.1612
-33.8111
-36.6774
-35.9331
-30.6044
-19.5634
-1.56546
24.6537
60.2129
105.86
161.705
226.963
299.738
376.923
454.25
526.518
588.003
633.005
656.484
654.697
625.735
569.896
489.807
390.288
277.942
160.531
46.2027
-57.3293
-143.557
-207.802
-247.622
-262.955
-255.995
-230.821
-192.841
-148.122
-102.688
-61.888
-29.8775
-9.28982
-1.10484
-4.72042
-18.1973
-38.633
-62.6077
-86.6427
-107.617
-123.093
-131.533
-132.376
-125.996
-113.548
-96.7448
-77.5773
-58.0428
-39.8943
-24.4473
-12.46
-4.09404
1.04755
3.81652
5.36902
6.99106
9.92299
15.2042
23.5549
35.3048
50.374
68.303
88.3243
109.464
130.657
150.87
169.2
184.964
197.743
207.403
214.075
218.111
220.015
220.364
219.725
218.587
217.301
216.049
214.833
213.492
211.733
209.183
205.447
200.156
193.02
183.861
172.626
159.397
144.378
127.876
110.276
92.0169
73.5633
55.3819
37.9202
21.5868
6.73486
-6.3529
-17.4768
-26.5289
-33.4983
-38.4697
-41.6173
-43.191
-43.498
-42.8785
-41.6801
-40.2316
-38.8198
-37.6701
-36.9352
-36.69
-36.9346
-37.604
-38.5826
-39.7227
-40.863
-41.8472
-42.5384
-42.8313
-42.6582
-41.9912
-40.8398
-39.2461
-37.2763
-35.0131
-32.5461
-29.9648
-27.3517
-24.7785
-22.3022
-19.965
-17.7935
-15.8005
-13.9862
-12.3415
-10.8499
-9.49077
-8.24191
-7.08237
-5.99452
-4.96582
-3.98995
-3.06727
-2.20449
-1.41357
-0.710002
-0.110465
0.369777
0.71951
0.933872
1.01603
0.977999
0.840451
0.631487
0.384449
0.134975
-0.0824368
-0.237981
-0.309806
-0.28657
-0.168898
0.0305322
0.288407
0.57361
0.851171
1.08682
1.25155
1.32541
1.30011
1.17983
0.980227
0.725786
0.445946
0.170695
-0.0736042
-0.267482
-0.400193
-0.469858
-0.481948
-0.446416
-0.374003
-0.272356
-0.142587
0.023203
0.243143
0.545495
0.967428
1.55296
2.35042
3.40981
4.78004
6.50623
8.6269
11.1708
14.1531
17.5713
21.4002
25.5869
30.0461
34.6567
39.2598
43.6612
47.6365
50.942
53.3301
54.5696
54.4684
52.8971
49.8109
45.2659
39.4288
32.5782
25.0979
17.464
10.2305
4.01841
-0.486992
-2.52831
-1.259
4.27389
15.1327
32.4587
57.389
90.9098
133.646
185.607
245.932
312.681
382.738
451.869
514.975
566.522
601.118
614.166
602.5
564.901
502.414
418.403
318.313
209.179
98.9155
-4.50978
-93.9106
-163.628
-210.09
-232.11
-230.916
-209.888
-174.068
-129.507
-82.5238
-38.9939
-3.7249
19.9919
30.6199
28.3908
15.1069
-6.22694
-31.8839
-57.94
-80.7754
-97.493
-106.209
-106.191
-97.8423
-82.5401
-62.3741
-39.8135
-17.359
2.77874
18.934
30.1497
36.2367
37.7295
35.7546
31.8356
27.6633
24.8665
24.808
28.4329
36.1803
47.9665
63.2335
81.0513
100.257
119.611
137.944
154.289
167.968
178.639
186.298
191.235
193.959
195.107
195.33
195.204
195.148
195.362
195.817
196.252
196.226
195.173
192.489
187.606
180.08
169.65
156.283
140.192
121.833
101.865
81.0968
60.4166
40.7097
22.7791
7.27458
-5.36154
-14.9258
-21.4597
-25.2303
-26.6885
-26.4103
-25.0292
-23.1673
-21.3728
-20.0714
-19.5352
-19.8724
-21.036
-22.8501
-25.0483
-27.3189
-29.351
-30.8747
-31.6933
-31.7022
-30.8942
-29.3532
-27.2365
-24.7501
-22.1206
-19.5677
-17.2803
-15.3982
-14.0027
-13.1137
-12.695
-12.6654
-12.9128
-13.3105
-13.7332
-14.0696
-14.2332
-14.1674
-13.848
-13.2805
-12.4955
-11.5411
-10.4744
-9.35316
-8.22748
-7.13401
-6.09264
-5.10627
-4.1639
-3.24644
-2.33427
-1.41513
-0.491021
0.417572
1.271
2.01394
2.58286
2.91661
2.96867
2.71902
2.18335
1.41765
0.516516
-0.395336
-1.17771
-1.69386
-1.83084
-1.51794
-0.740117
0.456095
1.96539
3.63502
5.28315
6.72163
7.78005
8.32757
8.28977
7.65819
6.4916
4.90897
3.07544
1.18332
-0.569267
-1.99924
-2.95638
-3.33592
-3.08464
-2.20009
-0.723338
1.27307
3.70015
6.46792
9.49883
12.7371
16.1521
19.7358
23.4929
27.4281
31.5291
35.7514
40.0072
44.159
48.0239
51.3835
54.0035
55.6565
56.1472
55.3345
53.1484
49.599
44.7775
38.849
32.0437
24.6479
17.0023
9.50985
2.65634
-2.95987
-6.5954
-7.33852
-4.11013
4.29526
19.1158
41.4711
72.1593
111.425
158.729
212.573
270.411
328.707
383.144
428.987
461.575
476.866
471.982
445.647
398.471
333.006
253.567
165.834
76.2728
-8.54608
-82.6409
-141.24
-181.249
-201.516
-202.857
-187.861
-160.492
-125.566
-88.1569
-53.013
-24.0593
-4.03016
5.72914
5.28052
-4.0544
-19.9774
-39.5862
-59.7851
-77.679
-90.9077
-97.8826
-97.9088
-91.1859
-78.7005
-62.0325
-43.1064
-23.923
-6.30635
8.30672
19.0111
25.5022
28.0657
27.4994
24.9787
21.89
19.6524
19.5491
22.5876
29.4014
40.1997
54.7668
72.5079
92.5308
113.754
135.025
155.238
173.441
188.91
201.202
210.171
215.947
218.891
219.524
218.448
216.258
213.466
210.439
207.358
204.211
200.797
196.775
191.711
185.149
176.679
166.004
152.987
137.685
120.362
101.473
81.6349
61.5694
42.0444
23.8044
7.50535
-6.34118
-17.4084
-25.5757
-30.9291
-33.7414
-34.4358
-33.5355
-31.6076
-29.2059
-26.8188
-24.8283
-23.4832
-22.8879
-23.0088
-23.6942
-24.7061
-25.7595
-26.5628
-26.8564
-26.4449
-25.2183
-23.1631
-20.3599
-16.9715
-13.2214
-9.36704
-5.67054
-2.37082
0.340262
2.33511
3.55948
4.03306
3.84188
3.12413
2.05129
0.807203
-0.432529
-1.51823
-2.33929
-2.83136
-2.97747
-2.80312
-2.36676
-1.74713
-1.02941
-0.29225
0.402788
1.018
1.54202
1.98798
2.38815
2.78592
3.2267
3.74902
4.37714
5.11607
5.94967
6.84176
7.74001
8.58198
9.30219
9.83946
10.1435
10.1799
9.93308
9.40713
8.62416
7.62105
6.44476
5.14706
3.7792
2.38721
1.00814
-0.332225
-1.62006
-2.85249
-4.03476
-5.17591
-6.28297
-7.35434
-8.37269
-9.29842
-10.0646
-10.5748
-10.705
-10.3106
-9.23858
-7.34496
-4.51487
-0.683681
4.14399
9.88011
16.3464
23.2761
30.3261
37.0973
43.1635
48.1062
51.5515
53.2063
52.8889
50.5523
46.2942
40.3554
33.1044
25.0108
16.6127
8.48342
1.20382
-4.6511
-8.50895
-9.77978
-7.82524
-1.93009
8.70672
24.9425
47.6085
77.3682
114.527
158.817
209.194
263.7
319.434
372.662
419.088
454.26
474.075
475.309
456.105
416.32
357.693
283.781
199.664
111.453
25.6581
-51.4972
-114.734
-160.257
-186.114
-192.327
-180.8
-155.007
-119.52
-79.4349
-39.7826
-4.98016
21.6003
37.9093
43.3203
38.5564
25.4653
6.68546
-14.75
-35.8148
-53.8505
-66.8453
-73.6066
-73.8159
-67.9723
-57.2418
-43.2411
-27.7879
-12.652
0.662023
11.0791
18.0479
21.5625
22.1142
20.5883
18.1216
15.943
15.2172
16.9104
21.6907
29.8726
41.4066
55.9113
72.7384
91.0609
109.971
128.576
146.08
161.847
175.438
186.619
195.35
201.75
206.05
208.538
209.505
209.201
207.801
205.383
201.928
197.336
191.45
184.092
175.103
164.381
151.916
137.809
122.285
105.688
88.4594
71.1081
54.1705
38.1652
23.5498
10.6839
-0.197038
-8.994
-15.7431
-20.6005
-23.8166
-25.7038
-26.6007
-26.8388
-26.7134
-26.4628
-26.2565
-26.1915
-26.2983
-26.5526
-26.8905
-27.2269
-27.4724
-27.5477
-27.3952
-26.9848
-26.3165
-25.4175
-24.3369
-23.1384
-21.891
-20.6614
-19.5062
-18.4673
-17.569
-16.8169
-16.1999
-15.6932
-15.2623
-14.868
-14.4706
-14.0345
-13.5303
-12.9379
-12.2462
-11.4536
-10.5655
-9.59258
-8.54741
-7.44163
-6.28369
-5.07796
-3.82579
-2.52872
-1.19356
0.161599
1.50186
2.77206
3.89702
4.78654
5.3451
5.48547
5.14399
4.2952
2.96273
1.22436
-0.790424
-2.91052
-4.93998
-6.67939
-7.94895
-8.61008
-8.58249
-7.8545
-6.48503
-4.59719
-2.36429
0.00970119
2.3127
4.34711
5.94968
7.00641
7.46105
7.31667
6.63079
5.50523
4.07241
2.48007
0.87617
-0.604527
-1.85101
-2.78324
-3.35577
-3.5579
-3.41047
-2.95977
-2.26868
-1.40564
-0.432336
0.608825
1.70556
2.88303
4.20571
5.77263
7.70546
10.1304
13.1558
16.8483
21.2115
26.1693
31.5586
37.131
42.5656
47.4915
51.5176
54.2674
55.4141
54.7146
52.0359
47.3746
40.8653
32.7779
23.5055
13.5442
3.46795
-6.09605
-14.4876
-21.0251
-25.0064
-25.7004
-22.3362
-14.0985
-0.143299
20.3506
48.0861
83.504
126.602
176.739
232.467
291.427
350.351
405.215
451.53
484.768
500.879
496.818
471.018
423.727
357.135
275.284
183.726
88.9985
-2.04894
-82.9677
-148.386
-194.554
-219.694
-224.115
-210.081
-181.468
-143.241
-100.848
-59.5885
-24.0428
2.37156
17.6763
21.4182
14.5693
-0.730887
-21.548
-44.5833
-66.6063
-84.8361
-97.2305
-102.656
-100.93
-92.7398
-79.4687
-62.9463
-45.175
-28.06
-13.1802
-1.62151
6.11008
10.0959
10.9373
9.63121
7.40837
5.55885
5.26694
7.47459
12.7871
21.4285
33.2459
47.7594
64.2442
81.8337
99.6271
116.789
132.628
146.651
158.58
168.352
176.077
181.995
186.414
189.646
191.96
193.535
194.44
194.627
193.941
192.151
188.987
184.183
177.524
168.883
158.253
145.759
131.664
116.351
100.297
84.0365
68.1196
53.0681
39.3371
27.2843
17.1482
9.03882
2.93969
-1.27989
-3.84385
-5.04261
-5.20337
-4.66045
-3.7281
-2.67814
-1.7239
-1.01132
-0.617234
-0.554442
-0.782248
-1.22095
-1.76844
-2.31687
-2.76787
-3.0445
-3.09937
-2.91805
-2.51814
-1.94441
-1.26104
-0.542141
0.138128
0.714526
1.13783
1.37929
1.43206
1.30974
1.0424
0.670866
0.240083
-0.207361
-0.636779
-1.02526
-1.36341
-1.65494
-1.91414
-2.16189
-2.4207
-2.70972
-3.04038
-3.41338
-3.8175
-4.23024
-4.62044
-4.95229
-5.19017
-5.30369
-5.27202
-5.087
-4.75448
-4.29385
-3.73579
-3.11867
-2.48414
-1.87259
-1.31896
-0.849621
-0.480403
-0.216103
-0.0512803
0.0278552
0.0408003
0.00978877
-0.0431146
-0.0985058
-0.141463
-0.162549
-0.157973
-0.128978
-0.0806277
-0.0202405
0.0442677
0.105841
0.159317
0.201902
0.23304
0.253812
0.26602
0.271252
0.270144
0.262037
0.245094
0.216863
0.175172
0.119216
0.0507589
-0.0245872
-0.0959182
-0.145237
-0.145083
-0.0554829
0.179552
0.635285
1.40809
2.61444
4.38571
6.85813
10.158
14.3835
19.5847
25.7456
32.7687
40.4677
48.5676
56.715
64.4978
71.4742
77.207
81.3022
83.4462
83.4375
81.2113
76.8502
70.5836
62.7716
53.8787
44.4377
35.0108
26.1532
18.3848
12.1761
7.95173
6.11114
7.06523
11.2798
19.315
31.8455
49.6451
73.5212
104.193
142.113
187.261
238.92
295.511
354.502
412.449
465.192
508.198
537.023
547.842
537.965
506.271
453.477
382.205
296.819
203.033
107.366
16.469
-63.5514
-127.754
-172.843
-197.443
-202.162
-189.415
-163.063
-127.905
-89.0928
-51.5555
-19.4806
4.07379
17.4061
20.2235
13.5266
-0.646308
-19.5704
-40.2324
-59.7219
-75.5708
-86.0042
-90.0818
-87.7224
-79.6219
-67.0836
-51.7917
-35.5606
-20.0935
-6.77818
3.45837
10.2248
13.6676
14.4063
13.4167
11.8782
11.0092
11.909
15.426
22.0654
31.9455
44.8033
60.0459
76.8381
94.2118
111.184
126.866
140.553
151.786
160.377
166.399
170.152
172.097
172.784
172.769
172.545
172.479
172.77
173.431
174.292
175.022
175.168
174.211
171.624
166.935
159.786
149.979
137.515
122.608
105.684
87.3561
68.3799
49.5938
31.8487
15.9336
2.50646
-7.96329
-15.2335
-19.3054
-20.4156
-19.0046
-15.6659
-11.0826
-5.9575
-0.945815
3.40286
6.68745
8.67926
9.32558
8.73408
7.14128
4.86986
2.28057
-0.275274
-2.49738
-4.1678
-5.16928
-5.48958
-5.21248
-4.49787
-3.55423
-2.60774
-1.87218
-1.52341
-1.68129
-2.40048
-3.67054
-5.42402
-7.55075
-9.91536
-12.3755
-14.7978
-17.0703
-19.1095
-20.8617
-22.301
-23.4225
-24.2351
-24.7532
-24.9913
-24.9601
-24.6657
-24.1115
-23.3023
-22.2487
-20.9716
-19.5049
-17.8966
-16.2067
-14.5035
-12.857
-11.3321
-9.98217
-8.84341
-7.93141
-7.24052
-6.7458
-6.40715
-6.175
-5.99647
-5.821
-5.60482
-5.31378
-4.92457
-4.42496
-3.81338
-3.09855
-2.29936
-1.44473
-0.573107
0.269308
1.03217
1.66674
2.13349
2.41058
2.50156
2.44084
2.29497
2.15892
2.14703
2.37928
2.96469
3.98389
5.47363
7.41545
9.7306
12.2822
14.8846
17.3197
19.3577
20.7812
21.4089
21.1183
19.8638
17.6894
14.7341
11.2291
7.48736
3.88256
0.82137
-1.29165
-2.09273
-1.29782
1.26267
5.6176
11.6414
19.0554
27.4455
36.2945
45.0268
53.0595
59.8558
64.972
68.0952
69.0653
67.8806
64.686
59.7481
53.418
46.091
38.1668
30.0161
21.9602
14.2647
7.15285
0.836264
-4.43623
-8.31783
-10.2988
-9.64985
-5.39012
3.70255
19.0223
41.9965
73.8764
115.473
166.87
227.159
294.248
364.812
434.394
497.715
549.133
583.241
595.512
582.903
544.333
480.962
396.204
295.475
185.699
74.6148
-30.0091
-121.172
-193.341
-242.969
-268.778
-271.78
-255.033
-223.185
-181.873
-137.036
-94.2585
-58.1972
-32.1623
-17.8913
-15.5239
-23.7645
-40.1967
-61.6959
-84.8831
-106.558
-124.066
-135.552
-140.092
-137.695
-129.184
-115.994
-99.9095
-82.795
-66.3388
-51.8539
-40.1465
-31.4673
-25.5395
-21.6539
-18.8112
-15.8877
-11.8021
-5.65958
3.14079
14.8473
29.3471
46.2044
64.7349
84.1048
103.437
121.91
138.847
153.761
166.393
176.699
184.823
191.046
195.728
199.24
201.914
203.991
205.6
206.741
207.303
207.077
205.795
203.172
198.943
192.904
184.94
175.046
163.332
150.018
135.418
119.914
103.931
87.9028
72.247
57.3403
43.5003
30.9733
19.9279
10.4541
2.5661
-3.79083
-8.7315
-12.4196
-15.0545
-16.8567
-18.0516
-18.8512
-19.4373
-19.9448
-20.4498
-20.963
-21.4314
-21.7489
-21.7763
-21.3684
-20.4059
-18.8269
-16.6539
-14.0091
-11.1159
-8.28209
-5.86595
-4.22874
-3.67912
-4.41836
-6.49553
-9.78119
-13.9656
-18.5842
-23.0688
-26.8172
-29.2739
-30.0076
-28.7759
-25.5655
-20.6025
-14.3298
-7.35497
-0.37564
5.90715
10.8754
14.0687
15.2375
14.3673
11.6739
7.56883
2.60242
-2.60777
-7.4535
-11.4073
-14.0801
-15.2597
-14.9242
-13.2331
-10.496
-7.12439
-3.57504
-0.289878
2.35771
4.10499
4.82527
4.53448
3.37919
1.60875
-0.463944
-2.50729
-4.2154
-5.34656
-5.75123
-5.38673
-4.3178
-2.70375
-0.774857
1.19875
2.94132
4.20494
4.79848
4.60917
3.61488
1.88615
-0.421832
-3.08622
-5.84049
-8.40283
-10.506
-11.9253
-12.5023
-12.1611
-10.9166
-8.87264
-6.21174
-3.17687
-0.0472081
2.88971
5.36693
7.16589
8.14059
8.23617
7.49977
6.08215
4.22912
2.2626
0.552442
-0.518745
-0.594378
0.617856
3.31267
7.56277
13.3064
20.3487
28.3757
36.9814
45.7017
54.0531
61.5717
67.8465
72.5464
75.4377
76.393
75.3908
72.5098
67.9178
61.8586
54.6396
46.6197
38.2019
29.8302
21.9936
15.2362
10.1742
7.51509
8.07544
12.7877
22.6861
38.8599
62.3637
94.0794
134.534
183.688
240.722
303.869
370.323
436.286
497.166
547.927
583.583
599.758
593.258
562.559
508.129
432.542
340.331
237.606
131.464
29.2789
-62.0585
-136.837
-191.083
-222.905
-232.598
-222.494
-196.591
-160.015
-118.393
-77.2066
-41.218
-14.0192
2.24485
6.96282
0.959196
-13.759
-34.3671
-57.6441
-80.3966
-99.8315
-113.841
-121.175
-121.483
-115.255
-103.647
-88.2587
-70.8739
-53.2057
-36.6854
-22.3099
-10.5657
-1.42993
5.56006
11.1849
16.3915
22.1341
29.2322
38.2611
49.4865
62.8492
77.9937
94.3349
111.148
127.669
143.186
157.123
169.089
178.9
186.579
192.322
196.45
199.347
201.401
202.946
204.22
205.33
206.25
206.822
206.784
205.799
203.508
199.563
193.678
185.66
175.431
163.048
148.698
132.694
115.456
97.4857
79.3358
61.5722
44.7373
29.3127
15.6861
4.12465
-5.24164
-12.425
-17.5727
-20.9482
-22.9019
-23.8357
-24.1645
-24.2782
-24.5096
-25.1094
-26.2318
-27.9295
-30.1596
-32.7973
-35.6565
-38.514
-41.1349
-43.2976
-44.8149
-45.5513
-45.4344
-44.4595
-42.6894
-40.2471
-37.3041
-34.0652
-30.7509
-27.5783
-24.7432
-22.4044
-20.6702
-19.5902
-19.1514
-19.2804
-19.8504
-20.6941
-21.6203
-22.4328
-22.9501
-23.0235
-22.5513
-21.4883
-19.8489
-17.7035
-15.1697
-12.3986
-9.55765
-6.81405
-4.31789
-2.18893
-0.507306
0.690975
1.41347
1.70635
1.64585
1.32743
0.854123
0.325264
-0.172968
-0.574479
-0.837058
-0.942978
-0.896707
-0.720395
-0.448
-0.119011
0.227324
0.556573
0.842073
1.06617
1.21994
1.30188
1.31599
1.27
1.17394
1.03945
0.879757
0.710003
0.547778
0.413348
0.329464
0.320696
0.412473
0.630201
0.998821
1.54311
2.28877
3.26408
4.50157
6.03898
7.91878
10.1857
12.8823
16.0421
19.682
23.7944
28.3396
33.2416
38.3857
43.6211
48.7676
53.6251
57.988
61.6597
64.4683
66.2806
67.0129
66.637
65.1814
62.7263
59.3934
55.3314
50.7004
45.6568
40.3439
34.8928
29.4361
24.1403
19.2564
15.1845
12.545
12.239
15.4764
23.7468
38.7124
62.0118
94.9803
138.318
191.753
253.772
321.475
390.624
455.907
511.406
551.235
570.253
564.763
533.077
475.871
396.254
299.538
192.727
83.7948
-19.1662
-108.803
-179.264
-226.772
-249.939
-249.79
-229.517
-193.994
-149.128
-101.14
-55.8587
-18.1183
8.68422
22.8237
24.2681
14.5002
-3.8189
-27.2921
-52.269
-75.308
-93.5648
-105.067
-108.853
-104.976
-94.3794
-78.6832
-59.9043
-40.1629
-21.4056
-5.18067
7.51424
16.2989
21.3941
23.5313
23.8082
23.5132
23.9427
26.2362
31.2459
39.4537
50.941
65.4081
82.2379
100.59
119.51
138.047
155.349
170.746
183.799
194.317
202.344
208.114
211.998
214.422
215.803
216.478
216.659
216.403
215.612
214.055
211.408
207.31
201.422
193.482
183.352
171.037
156.703
140.657
123.327
105.221
86.8829
68.8516
51.6213
35.6117
21.1471
8.44682
-2.3753
-11.3036
-18.4077
-23.8264
-27.7503
-30.4039
-32.0299
-32.8744
-33.1743
-33.1475
-32.984
-32.8409
-32.8382
-33.0586
-33.5486
-34.3214
-35.3623
-36.6328
-38.075
-39.6148
-41.1633
-42.6175
-43.8619
-44.7706
-45.2131
-45.0625
-44.2076
-42.5665
-40.0997
-36.8223
-32.8099
-28.1999
-23.1844
-17.9969
-12.8928
-8.1264
-3.92756
-0.479919
2.09558
3.75054
4.511
4.47151
3.7822
2.63093
1.22254
-0.242096
-1.58498
-2.66595
-3.39237
-3.72288
-3.66546
-3.27046
-2.61984
-1.81419
-0.959256
-0.153337
0.522931
1.01366
1.29117
1.35578
1.23255
0.965553
0.610667
0.227987
-0.125426
-0.401636
-0.566317
-0.601352
-0.505495
-0.293219
0.00799139
0.361528
0.726262
1.06136
1.33086
1.50745
1.57527
1.5313
1.38544
1.15907
0.882617
0.592098
0.325366
0.118355
0.0018631
-0.000724364
0.125539
0.387653
0.786853
1.32253
1.9977
2.82529
3.83429
5.07407
6.61535
8.54652
10.9646
13.9609
17.6036
21.9184
26.8716
32.3573
38.1923
44.1212
49.8298
54.9683
59.181
62.1387
63.5711
63.2949
61.2341
57.4312
52.0477
45.3545
37.7143
29.56
21.3712
13.6554
6.93657
1.75449
-1.3235
-1.6812
1.37222
8.62212
20.9494
39.2973
64.5919
97.6091
138.793
188.041
244.493
306.362
370.85
434.203
491.916
539.09
570.919
583.25
573.134
539.291
482.418
405.268
312.492
210.241
105.574
5.74743
-82.5304
-153.776
-204.267
-232.361
-238.576
-225.42
-197.008
-158.516
-115.556
-73.5373
-37.1058
-9.70982
6.65904
11.5352
5.86614
-8.25293
-27.9525
-50.0144
-71.2932
-89.0834
-101.393
-107.099
-105.979
-98.6301
-86.2948
-70.6261
-53.4311
-36.4238
-21.0179
-8.1816
1.63575
8.50224
12.9368
15.7919
18.1055
20.9442
25.2578
31.7623
40.8634
52.6257
66.7874
82.8145
99.9823
117.474
134.478
150.281
164.327
176.268
185.967
193.481
199.027
202.921
205.514
207.136
208.039
208.36
208.108
207.16
205.285
202.177
197.503
190.954
182.293
171.396
158.287
143.151
126.333
108.322
89.7147
71.1758
53.3787
36.9521
22.4256
10.1842
0.43717
-6.79816
-11.6919
-14.5792
-15.9217
-16.2558
-16.1353
-16.0733
-16.4911
-17.6787
-19.7719
-22.7474
-26.4366
-30.5551
-34.7439
-38.6174
-41.8119
-44.0285
-45.0674
-44.8481
-43.4156
-40.932
-37.6551
-33.9082
-30.0437
-26.4059
-23.2958
-20.9434
-19.4869
-18.9639
-19.3122
-20.381
-21.9503
-23.7569
-25.5229
-26.9845
-27.9182
-28.161
-27.6241
-26.2975
-24.2466
-21.6017
-18.5404
-15.2675
-11.9928
-8.90986
-6.17888
-3.91373
-2.1755
-0.972058
-0.26341
0.0284211
0.00641984
-0.215618
-0.526791
-0.830778
-1.05437
-1.1522
-1.10762
-0.929956
-0.649064
-0.308041
0.0447555
0.363387
0.610898
0.764228
0.817198
0.781534
0.68601
0.573889
0.498818
0.519407
0.6928
1.06772
1.67763
2.53488
3.62674
4.91408
6.33325
7.80135
9.22422
10.5065
11.5617
12.3221
12.7448
12.8151
12.5454
11.9706
11.1406
10.1134
8.94851
7.70417
6.43823
5.21283
4.10114
3.19418
2.60499
2.46801
2.9323
4.14838
6.24998
9.33291
13.4341
18.5145
24.4482
31.0214
37.9411
44.8541
51.3745
57.1167
61.7291
64.9262
66.5127
66.3978
64.598
61.2268
56.4755
50.5867
43.8266
36.4612
28.7419
20.9058
13.1928
5.88142
-0.659578
-5.90957
-9.13523
-9.34526
-5.27889
4.55316
21.7601
47.8888
84.1733
131.242
188.818
255.473
328.48
403.83
476.426
540.481
590.063
619.754
625.313
604.265
556.324
483.569
390.351
282.925
168.845
56.2013
-47.2097
-134.674
-201.216
-244.043
-262.726
-259.109
-236.978
-201.515
-158.648
-114.349
-73.9917
-41.8177
-20.5844
-11.4099
-13.8215
-25.9833
-45.0604
-67.6641
-90.3174
-109.884
-123.91
-130.852
-130.167
-122.267
-108.368
-90.2432
-69.9427
-49.4985
-30.6692
-14.7446
-2.43376
6.15881
11.4753
14.3806
15.9955
17.5155
20.0396
24.4317
31.2303
40.6122
52.4112
66.18
81.2843
97.0096
112.665
127.67
141.608
154.255
165.566
175.636
184.649
192.808
200.274
207.115
213.274
218.557
222.651
225.159
225.649
223.716
219.034
211.414
200.834
187.455
171.623
153.843
134.742
115.018
95.3855
76.5204
59.0071
43.2989
29.6906
18.3069
9.10603
1.89861
-3.62123
-7.83637
-11.1629
-14.0066
-16.7239
-19.5916
-22.7864
-26.3775
-30.3303
-34.5208
-38.7585
-42.8141
-46.4493
-49.4447
-51.6237
-52.8705
-53.1393
-52.4571
-50.9179
-48.6722
-45.9114
-42.8505
-39.7097
-36.6968
-33.9917
-31.7325
-30.0055
-28.8381
-28.1964
-27.9883
-28.0715
-28.2676
-28.3814
-28.2221
-27.6271
-26.482
-24.7371
-22.416
-19.6156
-16.4968
-13.2663
-10.1519
-7.37462
-5.12103
-3.51941
-2.62407
-2.40911
-2.77305
-3.55332
-4.54854
-5.54517
-6.34504
-6.78958
-6.77796
-6.27678
-5.32053
-4.00319
-2.46275
-0.860914
0.638903
1.8924
2.79144
3.27547
3.3362
3.01556
2.39765
1.5961
0.738788
-0.0481694
-0.655076
-1.00048
-1.03896
-0.764304
-0.208006
0.566457
1.47269
2.41268
3.28891
4.01603
4.53068
4.79856
4.81788
4.61896
4.26019
3.82086
3.39197
3.06631
2.92901
3.05011
3.47984
4.2472
5.36181
6.81809
8.6011
10.6924
13.0751
15.7364
18.6682
21.8643
25.3156
29.003
32.8899
36.915
40.9854
44.9741
48.7186
52.026
54.6812
56.4612
57.1528
56.5737
54.5946
51.1603
46.3062
40.1709
33.0016
25.1555
17.0974
9.39825
2.7361
-2.09882
-4.19747
-2.53002
4.04062
16.7159
36.6759
64.9413
102.185
148.506
203.204
264.59
329.89
395.285
456.112
507.239
543.569
560.624
555.13
525.512
472.221
397.836
306.907
205.562
100.907
0.305525
-89.3751
-162.461
-215.021
-245.201
-253.32
-241.717
-214.373
-176.384
-133.33
-90.6421
-53.0347
-24.0605
-5.83881
1.03042
-2.62968
-14.8229
-32.7408
-53.1818
-72.9732
-89.3463
-100.226
-104.407
-101.606
-92.4039
-78.0807
-60.3888
-41.2875
-22.6788
-6.17546
7.07487
16.4915
22.0847
24.405
24.4325
23.4234
22.7379
23.6694
27.2961
34.368
45.2393
59.849
77.7465
98.1574
120.076
142.378
163.931
183.707
200.866
214.819
225.263
232.177
235.795
236.548
234.992
231.727
227.321
222.234
216.778
211.088
205.123
198.695
191.511
183.235
173.547
162.207
149.102
134.276
117.948
100.496
82.4315
64.3538
46.8903
30.6356
16.0928
3.62415
-6.58263
-14.5278
-20.3927
-24.5116
-27.3282
-29.3396
-31.0365
-32.8452
-35.0801
-37.9103
-41.3458
-45.2441
-49.335
-53.2624
-56.6346
-59.0787
-60.2914
-60.0791
-58.3844
-55.2936
-51.0272
-45.9142
-40.3533
-34.7681
-29.56
-25.0666
-21.5286
-19.0703
-17.6939
-17.2885
-17.6514
-18.5182
-19.5976
-20.606
-21.2986
-21.4925
-21.0803
-20.0334
-18.3952
-16.2666
-13.7861
-11.107
-8.37697
-5.7194
-3.22189
-0.930464
1.14912
3.04419
4.80349
6.48274
8.12965
9.77016
11.3979
12.9683
14.3977
15.5686
16.3405
16.5644
16.1018
14.8436
12.7296
9.76505
6.03223
1.69595
-2.99903
-7.73946
-12.1643
-15.8939
-18.565
-19.8703
-19.595
-17.65
-14.093
-9.13659
-3.13917
3.42097
9.98739
15.9792
20.8512
24.1547
25.5901
25.0472
22.6254
18.6323
13.5583
8.02987
2.74664
-1.59231
-4.36312
-5.08473
-3.47114
0.537789
6.77032
14.8416
24.1943
34.1552
44.0006
53.0233
60.5929
66.2049
69.5143
70.3516
68.7232
64.7961
58.8729
51.3582
42.7239
33.4761
24.1281
15.1834
7.13239
0.462357
-4.31828
-6.64559
-5.86249
-1.18883
8.28621
23.573
45.6974
75.5554
113.712
160.166
214.112
273.761
336.257
397.752
453.635
498.943
528.881
539.412
527.811
493.12
436.4
360.762
271.131
173.793
75.7567
-15.9759
-95.1377
-156.836
-198.019
-217.722
-217.06
-198.993
-167.882
-128.925
-87.5234
-48.6784
-16.4773
6.27328
18.2328
19.5246
11.5619
-3.26283
-21.9742
-41.4408
-58.7777
-71.6772
-78.6342
-79.0483
-73.2025
-62.1316
-47.4093
-30.8871
-14.4231
0.363255
12.283
20.6951
25.5425
27.3089
26.9084
25.53
24.4582
24.8972
27.819
33.8535
43.2303
55.7743
70.9519
87.956
105.816
123.519
140.122
154.848
167.151
176.751
183.635
188.021
190.307
190.997
190.629
189.693
188.578
187.516
186.563
185.592
184.313
182.315
179.111
174.21
167.175
157.693
145.622
131.034
114.222
95.6991
76.1564
56.4084
37.3168
19.7056
4.27781
-8.45627
-18.2299
-25.0425
-29.1509
-31.0312
-31.3153
-30.7118
-29.9207
-29.5535
-30.0679
-31.725
-34.5727
-38.4559
-43.0507
-47.9172
-52.5635
-56.5106
-59.3535
-60.8075
-60.7384
-59.1715
-56.2814
-52.364
-47.796
-42.9875
-38.3336
-34.1718
-30.7491
-28.2025
-26.5536
-25.7182
-25.5259
-25.7491
-26.1345
-26.4349
-26.4358
-25.9762
-24.9599
-23.3601
-21.215
-18.6189
-15.7085
-12.6479
-9.61267
-6.77488
-4.28976
-2.28437
-0.848553
-0.0285129
0.176785
-0.184106
-1.01847
-2.19665
-3.56292
-4.94937
-6.19155
-7.1444
-7.69648
-7.78088
-7.38141
-6.53311
-5.31709
-3.8503
-2.27149
-0.725111
0.654761
1.75863
2.51224
2.88261
2.87888
2.54835
1.96825
1.2347
0.450333
-0.287873
-0.899059
-1.32614
-1.53993
-1.53948
-1.34876
-1.01038
-0.577035
-0.101909
0.370768
0.813773
1.22242
1.61676
2.04002
2.55346
3.22852
4.13741
5.34406
6.89708
8.8261
11.1421
13.8415
16.9121
20.3394
24.1103
28.2124
32.6284
37.3248
42.2377
47.2591
52.2257
56.916
61.0571
64.3422
66.4583
67.1209
66.1111
63.3096
58.7238
52.501
44.9296
36.4256
27.5097
18.7796
10.8858
4.514
0.381265
-0.75813
1.89997
9.21778
22.1063
41.4844
68.1948
102.873
145.771
196.564
254.159
316.556
380.802
443.072
498.894
543.52
572.405
581.735
568.944
533.124
475.279
398.361
307.076
207.47
106.351
10.6057
-73.4989
-140.936
-188.394
-214.55
-220.106
-207.605
-181.043
-145.349
-105.791
-67.3864
-34.3907
-9.91007
4.31813
7.96988
2.01214
-11.5561
-30.0555
-50.5211
-70.0869
-86.317
-97.4477
-102.521
-101.402
-94.6977
-83.5862
-69.5974
-54.373
-39.4401
-26.0257
-14.9312
-6.47839
-0.523527
3.4671
6.29869
8.90628
12.2115
16.997
23.8141
32.9308
44.325
57.7159
72.6269
88.4662
104.613
120.494
135.644
149.739
162.607
174.206
184.592
193.866
202.127
209.424
215.725
220.899
224.724
226.908
227.127
225.071
220.489
213.237
203.306
190.838
176.125
159.591
141.754
123.187
104.47
86.1414
68.6641
52.3953
37.5743
24.3218
12.6521
2.49556
-6.27525
-13.8165
-20.2878
-25.8328
-30.5667
-34.5732
-37.9076
-40.6055
-42.6944
-44.2048
-45.1793
-45.6779
-45.7781
-45.5706
-45.153
-44.6194
-44.0524
-43.5149
-43.0461
-42.66
-42.3481
-42.0847
-41.834
-41.5579
-41.2222
-40.8019
-40.2826
-39.6603
-38.9382
-38.1222
-37.2162
-36.2168
-35.1106
-33.8727
-32.467
-30.8489
-28.9693
-26.7801
-24.2403
-21.3236
-18.0256
-14.3729
-10.4306
-6.30954
-2.16954
1.78122
5.29474
8.09986
9.92771
10.5441
9.7855
7.5924
4.03527
-0.673944
-6.18788
-12.0491
-17.7329
-22.7025
-26.4702
-28.6547
-29.0284
-27.546
-24.3518
-19.7631
-14.2334
-8.2992
-2.51809
2.59415
6.6191
9.27749
10.4526
10.1934
8.69735
6.2775
3.31764
0.22249
-2.63066
-4.93288
-6.47274
-7.15075
-6.97901
-6.06732
-4.59909
-2.80111
-0.911834
0.847771
2.29767
3.31453
3.83938
3.87797
3.49522
2.80564
1.96136
1.13919
0.527397
0.312745
0.668163
1.74118
3.64356
6.44267
10.1553
14.7444
20.1196
26.1409
32.6256
39.3566
46.0917
52.5719
58.5294
63.695
67.8074
70.6239
71.9351
71.5824
69.4767
65.6174
60.1056
53.1524
45.0758
36.2897
27.2846
18.6051
10.8314
4.57163
0.470121
-0.767291
1.66304
8.69635
21.4104
40.9905
68.629
105.348
151.757
207.765
272.309
343.145
416.77
488.534
552.934
604.116
636.502
645.477
628.042
583.313
512.804
420.424
312.182
195.623
79.0694
-29.2383
-121.998
-193.583
-240.576
-262.034
-259.468
-236.539
-198.537
-151.697
-102.459
-56.7533
-19.406
6.29096
18.79
18.2806
6.48164
-13.7245
-38.7577
-64.8404
-88.4694
-106.805
-117.938
-121.017
-116.233
-104.677
-88.1021
-68.6352
-48.4667
-29.5713
-13.4837
-1.15237
7.11686
11.6337
13.2221
13.0673
12.5333
12.9774
15.5824
21.2261
30.3972
43.1649
59.1984
77.8305
98.1525
119.128
139.709
158.946
176.067
190.544
202.107
210.739
216.642
220.17
221.764
221.877
220.905
219.141
216.744
213.726
209.974
205.276
199.364
191.971
182.872
171.932
159.131
144.582
128.526
111.312
93.3708
75.1691
57.1716
39.8003
23.4032
8.23455
-5.55068
-17.8889
-28.7879
-38.298
-46.481
-53.3801
-58.9987
-63.2905
-66.1651
-67.507
-67.2075
-65.2033
-61.5171
-56.2914
-49.8103
-42.503
-34.9254
-27.7197
-21.5548
-17.0538
-14.7171
-14.851
-17.5132
-22.4834
-29.2651
-37.1222
-45.1471
-52.3548
-57.7927
-60.6532
-60.3765
-56.7302
-49.8547
-40.2679
-28.8265
-16.6447
-4.97956
4.9075
11.8967
15.1468
14.2058
9.08074
0.254376
-11.3537
-24.4811
-37.6608
-49.3885
-58.2978
-63.3218
-63.8211
-59.6601
-51.2228
-39.3646
-25.3072
-10.4887
3.60885
15.636
24.5296
29.6278
30.7309
28.102
22.4111
14.6299
5.89518
-2.64135
-9.9567
-15.2749
-18.1469
-18.4834
-16.5402
-12.8591
-8.17677
-3.31377
0.94004
3.92856
5.2085
4.59578
2.17541
-1.72394
-6.58495
-11.777
-16.6409
-20.5714
-23.0873
-23.8812
-22.8433
-20.0598
-15.7859
-10.4004
-4.34777
1.92256
8.01287
13.6212
18.5689
22.808
26.4104
29.5411
32.4197
35.2774
38.3159
41.6716
45.3919
49.4249
53.6229
57.7589
61.5532
64.7073
66.9378
68.0099
67.7633
66.1284
63.1325
58.8943
53.6083
47.5251
40.9294
34.1247
27.4291
21.1874
15.8018
11.7775
9.77594
10.6613
15.5238
25.6598
42.4915
67.4183
101.598
145.681
199.523
261.932
330.503
401.591
470.46
531.622
579.344
608.274
614.095
594.139
547.835
476.943
385.517
279.581
166.567
54.5627
-48.516
-135.744
-201.882
-243.864
-261.031
-255.083
-229.763
-190.34
-142.934
-93.8081
-48.6787
-12.1501
12.6841
24.4318
23.3837
11.3024
-8.93647
-33.7974
-59.5679
-82.8134
-100.751
-111.509
-114.245
-109.137
-97.2446
-80.283
-60.3397
-39.5746
-19.9422
-2.9665
10.4068
19.872
25.7376
28.8238
30.3046
31.5174
33.7685
38.1584
45.4481
55.9805
69.6613
85.999
104.193
123.254
142.141
159.893
175.737
189.164
199.963
208.208
214.215
218.459
221.484
223.812
225.85
227.832
229.783
231.51
232.631
232.623
230.895
226.862
220.028
210.055
196.815
180.425
161.247
139.872
117.071
93.7358
70.7997
49.1595
29.5989
12.7249
-1.07635
-11.6622
-19.1301
-23.7921
-26.1286
-26.7298
-26.2295
-25.2403
-24.297
-23.8126
-24.052
-25.1239
-26.9905
-29.492
-32.3819
-35.3685
-38.1564
-40.484
-42.1527
-43.0458
-43.135
-42.476
-41.1941
-39.4629
-37.4794
-35.4382
-33.5092
-31.8196
-30.4431
-29.3969
-28.645
-28.108
-27.6777
-27.2331
-26.6573
-25.8522
-24.7501
-23.3209
-21.5743
-19.5575
-17.348
-15.0442
-12.7526
-10.5767
-8.60471
-6.90156
-5.50318
-4.41504
-3.61439
-3.05577
-2.6788
-2.41716
-2.20738
-1.99642
-1.74705
-1.44061
-1.07707
-0.672496
-0.254641
0.142637
0.485368
0.745035
0.903092
0.953935
0.906039
0.781138
0.611555
0.435987
0.294249
0.221657
0.243818
0.372613
0.604031
0.918312
1.28254
1.65543
1.99372
2.25924
2.42559
2.48343
2.44334
2.33598
2.20923
2.12282
2.14129
2.3264
2.73038
3.39129
4.3314
5.55909
7.07379
8.87286
10.959
13.3457
16.0604
19.1419
22.6342
26.5752
30.9831
35.8411
41.0845
46.5912
52.1792
57.6107
62.6053
66.8597
70.0732
71.9759
72.3568
71.0874
68.1385
63.5879
57.617
50.4975
42.5713
34.2252
25.8684
17.9165
10.7883
4.91918
0.791497
-1.02107
0.195195
5.33297
15.4738
31.848
55.7279
88.2452
130.143
181.488
241.391
307.795
377.397
445.737
507.501
556.999
588.787
598.345
582.713
540.991
474.606
387.316
284.912
174.671
64.6077
-37.36
-124.243
-190.69
-233.499
-251.862
-247.334
-223.525
-185.585
-139.542
-91.5779
-47.3492
-11.4122
13.1747
25.0426
24.4906
13.2727
-5.76607
-29.1447
-53.2317
-74.6976
-90.8843
-100.054
-101.499
-95.5172
-83.2588
-66.4918
-47.3098
-27.8313
-9.92741
4.9922
16.1123
23.257
26.8498
27.8016
27.3484
26.8649
27.6773
30.9
37.3132
47.2897
60.7778
77.3334
96.1936
116.381
136.818
156.449
174.338
189.756
202.225
211.542
217.764
221.168
222.196
221.382
219.277
216.386
213.106
209.689
206.217
202.608
198.628
193.93
188.103
180.727
171.434
159.969
146.232
130.315
112.514
93.3186
73.3819
53.4647
34.3697
16.8666
1.61891
-10.8794
-20.3488
-26.7469
-30.2648
-31.3
-30.407
-28.2346
-25.4556
-22.6981
-20.4861
-19.1964
-19.0336
-20.0282
-22.0526
-24.8556
-28.106
-31.4427
-34.523
-37.063
-38.8677
-39.8466
-40.0139
-39.4761
-38.4084
-37.0234
-35.5381
-34.1421
-32.972
-32.0934
-31.4952
-31.0928
-30.7436
-30.2691
-29.4834
-28.2228
-26.3736
-23.8933
-20.8233
-17.29
-13.4949
-9.69311
-6.16388
-3.17645
-0.955554
0.348405
0.68033
0.0894396
-1.27513
-3.18169
-5.34395
-7.45586
-9.22848
-10.424
-10.8826
-10.5387
-9.42475
-7.66294
-5.44623
-3.01151
-0.608913
1.52862
3.21182
4.3145
4.78392
4.6416
3.97513
2.92284
1.65383
0.346288
-0.833143
-1.74649
-2.29652
-2.43298
-2.15301
-1.49648
-0.537607
0.625784
1.88375
3.12517
4.24718
5.16232
5.80331
6.12538
6.10658
5.74655
5.06461
4.09791
2.90069
1.54518
0.124598
-1.24239
-2.40707
-3.18815
-3.37382
-2.73059
-1.02029
1.97528
6.42388
12.4105
19.9084
28.7576
38.6578
49.1767
59.7761
69.8536
78.7959
86.0375
91.1182
93.7307
93.7538
91.2655
86.5356
79.997
72.2006
63.7589
55.2841
47.3295
40.34
34.6187
30.3146
27.4355
25.888
25.5426
26.3206
28.294
31.782
37.428
46.2327
59.5225
78.8366
105.726
141.474
186.776
241.406
303.955
371.688
440.569
505.496
560.734
600.508
619.68
614.433
582.84
525.244
444.381
345.205
234.448
119.95
9.84484
-88.2802
-168.166
-225.49
-258.243
-266.827
-253.879
-223.848
-182.402
-135.723
-89.8107
-49.8435
-19.6984
-1.6527
3.70203
-2.65577
-18.463
-40.5777
-65.4457
-89.5651
-109.894
-124.155
-131.019
-130.143
-122.098
-108.18
-90.1679
-70.047
-49.743
-30.8976
-14.7074
-1.83836
7.58377
13.9155
17.8868
20.4617
22.6897
25.5674
29.9263
36.3559
45.1662
56.3883
69.8066
85.0139
101.478
118.613
135.839
152.631
168.556
183.279
196.566
208.266
218.285
226.558
233.027
237.619
240.242
240.786
239.141
235.211
228.941
220.341
209.499
196.594
181.894
165.749
148.57
130.806
112.919
95.3573
78.5272
62.7765
48.378
35.5201
24.3032
14.7414
6.76891
0.250494
-5.00403
-9.2227
-12.6525
-15.5398
-18.1116
-20.5592
-23.0247
-25.5921
-28.2832
-31.0587
-33.8244
-36.4428
-38.7488
-40.5688
-41.7421
-42.1407
-41.6889
-40.3759
-38.2638
-35.486
-32.2382
-28.7615
-25.3188
-22.168
-19.5346
-17.587
-16.4181
-16.0355
-16.3614
-17.2426
-18.4688
-19.7985
-20.9866
-21.8127
-22.1054
-21.76
-20.7478
-19.116
-16.979
-14.5021
-11.8799
-9.31253
-6.98236
-5.03419
-3.56104
-2.59704
-2.11793
-2.0486
-2.27641
-2.66814
-3.08818
-3.41566
-3.55826
-3.46132
-3.1114
-2.53421
-1.78771
-0.951674
-0.115291
0.635361
1.2284
1.61445
1.77135
1.70499
1.44654
1.04671
0.56807
0.0767193
-0.365727
-0.708674
-0.917004
-0.973075
-0.8763
-0.640627
-0.290488
0.144133
0.632829
1.14949
1.6761
2.20508
2.74004
3.29444
3.88833
4.54332
5.27621
6.09228
6.97928
7.90361
8.80999
9.62578
10.2705
10.6697
10.7724
10.5683
10.1024
9.48271
8.87945
8.51317
8.63299
9.48696
11.2885
14.1836
18.2238
23.3494
29.3855
36.0518
42.9861
49.7772
56.0045
61.2777
65.2724
67.7577
68.611
67.8206
65.4747
61.7413
56.8402
51.0151
44.5082
37.5465
30.3414
23.1088
16.1074
9.69601
4.40022
0.979063
0.47369
4.2193
13.8003
30.9333
57.2706
94.1334
142.198
201.182
269.578
344.509
421.745
495.923
560.963
610.666
639.397
642.793
618.375
565.977
487.92
388.892
275.547
155.857
38.3054
-68.9768
-159.031
-226.743
-269.29
-286.316
-279.833
-253.853
-213.838
-166.013
-116.646
-71.382
-34.6987
-9.53691
2.86067
2.90471
-7.56872
-25.6667
-47.8927
-70.6231
-90.5501
-105.042
-112.386
-111.898
-103.901
-89.5805
-70.7552
-49.5937
-28.314
-8.90706
7.08832
18.7363
25.7692
28.5678
28.0648
25.5906
22.6826
20.8843
21.558
25.731
33.9927
46.449
62.7351
82.0823
103.425
125.535
147.164
167.176
184.66
199.008
209.948
217.54
222.13
224.274
224.645
223.926
222.719
221.464
220.381
219.457
218.447
216.919
214.315
210.03
203.499
194.272
182.082
166.888
148.897
128.549
106.491
83.5132
60.4898
38.2957
17.7354
-0.523007
-15.9974
-28.4216
-37.7536
-44.1623
-47.9946
-49.7294
-49.9218
-49.1459
-47.94
-46.762
-45.9567
-45.7376
-46.1852
-47.2581
-48.8157
-50.6491
-52.5152
-54.1703
-55.4
-56.0419
-55.9995
-55.2469
-53.8249
-51.8294
-49.3949
-46.6749
-43.8229
-40.9752
-38.2378
-35.6794
-33.3286
-31.178
-29.192
-27.3167
-25.4924
-23.6642
-21.7909
-19.8511
-17.8448
-15.7925
-13.7305
-11.7053
-9.76629
-7.95954
-6.32256
-4.88087
-3.64668
-2.61935
-1.78745
-1.13173
-0.62838
-0.252285
0.0204408
0.210668
0.335394
0.407692
0.437306
0.431616
0.396734
0.338503
0.263244
0.178163
0.0914074
0.0117716
-0.0518781
-0.0913983
-0.100279
-0.0745388
-0.0134569
0.0800326
0.199414
0.33522
0.476189
0.610823
0.729088
0.823951
0.892442
0.936
0.959993
0.972461
0.982331
0.997516
1.02346
1.06272
1.11603
1.1851
1.27693
1.40907
1.61479
1.94707
2.48002
3.30701
4.53476
6.27374
8.62567
11.6695
15.4478
19.9559
25.1351
30.8712
36.9991
43.3119
49.5738
55.5348
60.9454
65.5697
69.1972
71.6516
72.7976
72.5465
70.8597
67.7528
63.2978
57.6255
50.9275
43.4586
35.5405
27.5683
20.0224
13.4846
8.6602
6.39804
7.70358
13.73
25.734
44.9819
72.5994
109.367
155.483
210.318
272.219
338.406
405.007
467.261
519.891
557.626
575.798
570.958
541.396
487.496
411.866
319.19
215.825
109.186
6.98266
-83.5861
-156.576
-207.894
-235.668
-240.354
-224.571
-192.697
-150.293
-103.41
-57.9067
-18.8163
10.1273
26.7852
30.6959
22.9572
5.93668
-17.1389
-42.6548
-67.0783
-87.371
-101.299
-107.613
-106.093
-97.4553
-83.1665
-65.1744
-45.6148
-26.524
-9.59514
3.99761
13.6913
19.541
22.1496
22.5363
21.9675
21.7737
23.1776
27.152
34.3233
44.9254
58.8056
75.4741
94.1871
114.048
134.112
153.484
171.396
187.258
200.681
211.48
219.643
225.297
228.659
229.987
229.541
227.543
224.16
219.494
213.584
206.418
197.952
188.136
176.938
164.364
150.478
135.418
119.395
102.691
85.6459
68.6364
52.0483
36.2467
21.5468
8.18946
-3.67561
-13.9962
-22.8132
-30.2457
-36.4676
-41.6797
-46.0803
-49.8382
-53.0724
-55.841
-58.1393
-59.9091
-61.0555
-61.4704
-61.0583
-59.761
-57.5779
-54.5788
-50.9073
-46.7748
-42.445
-38.211
-34.3669
-31.1788
-28.8559
-27.5272
-27.2255
-27.8806
-29.3237
-31.3021
-33.5035
-35.5871
-37.2179
-38.101
-38.0122
-36.8206
-34.5018
-31.139
-26.9136
-22.085
-16.9632
-11.8762
-7.1377
-3.01661
0.286583
2.65546
4.06336
4.5694
4.30558
3.45725
2.23935
0.871593
-0.444745
-1.54573
-2.31779
-2.70378
-2.70211
-2.35968
-1.76006
-1.00875
-0.217592
0.509861
1.09026
1.46863
1.62209
1.55924
1.31553
0.945768
0.514853
0.0881975
-0.276909
-0.537937
-0.671065
-0.672175
-0.555045
-0.347275
-0.0846993
0.194783
0.457118
0.677033
0.841547
0.951913
1.02415
1.08855
1.18869
1.3803
1.73029
2.31553
3.22094
4.53611
6.3497
8.74143
11.7717
15.4697
19.822
24.762
30.1641
35.8431
41.5597
47.0336
51.9625
56.0462
59.0123
60.6426
60.7946
59.4179
56.5616
52.3728
47.0845
40.9965
34.449
27.7945
21.3725
15.4918
10.427
6.43363
3.78156
2.80624
3.96654
7.89562
15.4259
27.5684
45.4303
70.0656
102.264
142.306
189.714
243.063
299.886
356.722
409.331
453.058
483.322
496.172
488.815
460.055
410.565
342.938
261.509
171.954
80.7256
-5.62089
-81.1049
-140.931
-181.951
-202.926
-204.56
-189.317
-161.045
-124.469
-84.6198
-46.2649
-13.4181
11.0276
25.5052
29.8086
24.966
12.982
-3.50993
-21.6337
-38.6455
-52.2539
-60.8504
-63.6327
-60.6146
-52.5321
-40.6694
-26.6307
-12.0956
1.4129
12.7162
21.1049
26.3888
28.8736
29.2723
28.5704
27.8658
28.2085
30.4607
35.1943
42.6367
52.6676
64.8619
78.5689
93.0134
107.402
121.019
133.306
143.901
152.66
159.633
165.028
169.151
172.344
174.92
177.114
179.044
180.694
181.915
182.439
181.913
179.935
176.106
170.078
161.598
150.555
137.009
121.208
103.589
84.7598
65.4587
46.5026
28.7189
12.8743
-0.394607
-10.6408
-17.6489
-21.456
-22.3479
-20.8324
-17.5926
-13.4238
-9.16317
-5.61611
-3.48726
-3.32138
-5.45866
-10.0074
-16.8357
-25.5838
-35.6934
-46.4558
-57.0724
-66.7242
-74.6455
-80.1933
-82.9075
-82.5544
-79.1494
-72.9549
-64.4547
-54.3053
-43.272
-32.1536
-21.7072
-12.579
-5.24992
-0.00031754
3.10166
4.18932
3.56606
1.65837
-1.04042
-4.02866
-6.85031
-9.13871
-10.6459
-11.2554
-10.9794
-9.94046
-8.34322
-6.43947
-4.49118
-2.73649
-1.36211
-0.484817
-0.143634
-0.302411
-0.861754
-1.67788
-2.58545
-3.42117
-4.04505
-4.35682
-4.30585
-3.89382
-3.17041
-2.22319
-1.16352
-0.110471
0.82475
1.55222
2.0128
2.18305
2.07514
1.73242
1.22146
0.62196
0.0160031
-0.521879
-0.932566
-1.17725
-1.23892
-1.12049
-0.840046
-0.424227
0.0991052
0.707643
1.38971
2.1469
2.99399
3.95646
5.06641
6.35796
7.86319
9.6094
11.6178
13.9036
16.4757
19.3371
22.4829
25.8979
29.5522
33.3974
37.3622
41.3506
45.2419
48.8936
52.1469
54.8336
56.7844
57.837
57.8442
56.6814
54.255
50.5122
45.453
39.1437
31.7323
23.4632
14.6894
5.88283
-2.35896
-9.3075
-14.1007
-15.7453
-13.1312
-5.06905
9.63695
32.0705
63.0364
102.857
151.155
206.664
267.112
329.22
388.854
441.319
481.807
505.921
510.22
492.709
453.193
393.425
317.039
229.241
136.312
44.9645
-38.348
-108.092
-160.2
-192.439
-204.56
-198.208
-176.64
-144.258
-106.058
-67.0462
-31.6906
-3.4912
15.3111
23.8513
22.5877
13.1008
-2.21849
-20.5447
-39.0049
-55.0313
-66.6389
-72.6028
-72.5243
-66.7882
-56.4275
-42.9218
-27.9605
-13.2025
-0.0630937
10.4487
17.8269
22.094
23.7568
23.705
23.0697
23.0621
24.8139
29.2389
36.9305
48.1049
62.5915
79.8691
99.138
119.417
139.654
158.829
176.051
190.626
202.1
210.27
215.173
217.047
216.279
213.342
208.742
202.955
196.392
189.361
182.061
174.577
166.894
158.919
150.506
141.494
131.73
121.104
109.573
97.172
84.0295
70.3585
56.4448
42.6225
29.2435
16.6423
5.10343
-5.16675
-14.0578
-21.5611
-27.7633
-32.8267
-36.9617
-40.3937
-43.3299
-45.9315
-48.2937
-50.438
-52.3152
-53.8202
-54.8145
-55.1538
-54.7158
-53.4247
-51.2692
-48.3113
-44.6857
-40.59
-36.266
-31.9774
-27.9833
-24.5137
-21.7477
-19.7977
-18.7004
-18.4165
-18.837
-19.7967
-21.0922
-22.5035
-23.815
-24.8361
-25.4175
-25.4627
-24.9336
-23.8495
-22.2806
-20.3364
-18.1506
-15.8652
-13.6144
-11.5108
-9.63587
-8.03467
-6.71537
-5.65365
-4.80041
-4.09204
-3.46138
-2.84813
-2.20736
-1.5151
-0.770506
0.00545264
0.774375
1.48713
2.09178
2.54168
2.80256
2.85782
2.71133
2.38755
1.92905
1.39174
0.83861
0.332677
-0.0699138
-0.325882
-0.409193
-0.31339
-0.0516256
0.345581
0.834634
1.36472
1.88458
2.34944
2.72713
3.0026
3.18008
3.2823
3.34661
3.4184
3.54244
3.75341
4.06729
4.47542
4.94299
5.41341
5.81898
6.09695
6.20901
6.16036
6.01451
5.89963
6.00349
6.55599
7.80018
9.95546
13.1779
17.5239
22.9237
29.1693
35.9197
42.7256
49.0689
54.4146
58.268
60.2295
60.0407
57.6153
53.0521
46.627
38.7669
30.0099
20.9562
12.2202
4.38923
-1.9996
-6.46166
-8.54192
-7.77129
-3.61192
4.5918
17.6356
36.4292
61.9059
94.8625
135.741
184.384
239.802
300.011
361.993
421.804
474.847
516.304
541.658
547.256
530.82
491.837
431.754
353.945
263.444
166.474
69.8168
-19.8732
-96.7517
-156.359
-196.029
-215.079
-214.777
-198.082
-169.222
-133.147
-94.9425
-59.2756
-29.9255
-9.45961
0.925673
1.39202
-6.70944
-21.1288
-39.0847
-57.6568
-74.1555
-86.4245
-93.048
-93.4451
-87.8515
-77.2023
-62.9382
-46.7693
-30.4283
-15.4457
-2.97361
6.32525
12.3154
15.3559
16.2084
15.9034
15.5871
16.3675
19.1811
24.693
33.2382
44.807
59.0701
75.4366
93.1336
111.297
129.063
145.646
160.404
172.883
182.832
190.203
195.127
197.877
198.822
198.371
196.926
194.828
192.326
189.543
186.465
182.943
178.715
173.435
166.725
158.233
147.69
134.967
120.117
103.398
85.267
66.3558
47.4123
29.2291
12.5605
-1.95944
-13.8853
-23.0063
-29.3639
-33.2368
-35.0977
-35.547
-35.2326
-34.7678
-34.6583
-35.2473
-36.6853
-38.9275
-41.7578
-44.834
-47.7467
-50.0841
-51.492
-51.7223
-50.6648
-48.3575
-44.9774
-40.8131
-36.2251
-31.5994
-27.3007
-23.6314
-20.8018
-18.9131
-17.9551
-17.8176
-18.3122
-19.2012
-20.2298
-21.1566
-21.779
-21.9516
-21.5953
-20.6982
-19.308
-17.5187
-15.4541
-13.2494
-11.0355
-8.92505
-7.00435
-5.32869
-3.92296
-2.78557
-1.89482
-1.2163
-0.710182
-0.337442
-0.0642781
0.135373
0.279244
0.377679
0.435603
0.454964
0.437115
0.38472
0.302912
0.199627
0.0851536
-0.0289119
-0.131049
-0.211257
-0.262304
-0.280575
-0.266406
-0.223875
-0.160107
-0.0842154
-0.00604031
0.0651338
0.121717
0.158664
0.173954
0.168655
0.146648
0.114098
0.0788674
0.0500223
0.0375889
0.0525697
0.1071
0.21447
0.388648
0.643008
0.988108
1.42868
1.96025
2.56617
3.2158
3.86481
4.45815
4.93596
5.24215
5.33465
5.19615
4.84341
4.33346
3.76506
3.27445
3.02511
3.19216
3.94308
5.41695
7.70509
10.8358
14.7658
19.3791
24.4947
29.8815
35.2782
40.4159
45.0408
48.9326
51.9184
53.8799
54.7541
54.5295
53.2375
50.9442
47.742
43.7438
39.082
33.9125
28.4257
22.8662
17.5599
12.9484
9.62681
8.37599
10.1797
16.2125
27.785
46.2377
72.7802
108.285
153.053
206.59
267.422
333.01
399.776
463.291
518.595
560.659
584.908
587.766
567.139
522.765
456.374
371.628
273.84
169.486
65.586
-30.9872
-114.184
-179.354
-223.652
-246.244
-248.279
-232.644
-203.555
-166.021
-125.263
-86.1622
-52.7851
-28.0473
-13.5342
-9.48709
-14.9386
-27.9675
-46.0281
-66.3109
-86.0855
-102.992
-115.25
-121.779
-122.221
-116.878
-106.593
-92.578
-76.2352
-58.977
-42.0742
-26.5404
-13.0611
-1.96923
6.73778
13.3474
18.3588
22.3985
26.1365
30.2124
35.1768
41.4528
49.3165
58.8948
70.1756
83.0274
97.2213
112.453
128.364
144.554
160.595
176.042
190.434
203.313
214.223
222.737
228.47
231.106
230.424
226.33
218.873
208.267
194.889
179.264
162.038
143.931
125.682
107.987
91.4453
76.504
63.4298
52.2946
42.9859
35.2381
28.6813
22.8998
17.4931
12.1314
6.59599
0.80222
-5.19948
-11.2425
-17.0796
-22.4289
-27.0229
-30.6526
-33.2014
-34.6611
-35.1317
-34.8025
-33.92
-32.7487
-31.5295
-30.4459
-29.6003
-29.0061
-28.5958
-28.2421
-27.7902
-27.0925
-26.0423
-24.599
-22.8012
-20.7664
-18.6754
-16.7457
-15.1972
-14.214
-13.9108
-14.3062
-15.3089
-16.7198
-18.2499
-19.5526
-20.2681
-20.073
-18.7298
-16.1282
-12.3124
-7.49003
-2.01858
3.62808
8.9113
13.2904
16.2896
17.5597
16.9274
14.4257
10.2991
4.98522
-0.92962
-6.77256
-11.8597
-15.5746
-17.441
-17.1808
-14.7497
-10.3475
-4.39973
2.48517
9.57968
16.1143
21.3592
24.7021
25.7127
24.1883
20.1757
13.9661
6.06608
-2.85428
-12.0291
-20.6737
-28.062
-33.5975
-36.8685
-37.6836
-36.0833
-32.327
-26.8582
-20.252
-13.152
-6.20324
0.0103609
5.0184
8.50104
10.3083
10.4609
9.13507
6.63276
3.34307
-0.301771
-3.87081
-6.97506
-9.30088
-10.6334
-10.8686
-10.0134
-8.17476
-5.53951
-2.34728
1.14028
4.67054
8.02803
11.0566
13.6736
15.8739
17.7251
19.354
20.9254
22.6192
24.6051
27.021
29.9557
33.4384
37.4348
41.8496
46.5329
51.2911
55.8982
60.1076
63.6652
66.3207
67.8416
68.0271
66.7243
63.8453
59.3848
53.4374
46.214
38.0573
29.4555
21.0566
13.6806
8.32735
6.17531
8.56115
16.9296
32.7425
57.3391
91.7487
136.466
191.217
254.749
324.693
397.545
468.793
533.212
585.309
619.876
632.592
620.587
582.88
520.642
437.204
337.823
229.204
118.853
14.3227
-77.5514
-151.323
-203.442
-232.542
-239.463
-227.039
-199.669
-162.736
-121.963
-82.7623
-49.6821
-25.9876
-13.427
-12.1929
-21.0665
-37.7126
-59.0773
-81.83
-102.793
-119.311
-129.51
-132.447
-128.111
-117.329
-101.562
-82.6542
-62.5609
-43.0934
-25.711
-11.3826
-0.525759
6.97652
11.693
14.5132
16.4918
18.6893
22.033
27.2111
34.6119
44.309
56.0903
69.5204
84.0247
98.9807
113.804
128.016
141.29
153.461
164.519
174.568
183.776
192.309
200.279
207.69
214.41
220.168
224.565
227.123
227.333
224.729
218.951
209.809
197.319
181.727
163.507
143.322
121.983
100.374
79.3789
59.8052
42.317
27.3808
15.2328
5.87015
-0.93474
-5.59635
-8.66073
-10.738
-12.4308
-14.2664
-16.6399
-19.7755
-23.709
-28.2934
-33.2266
-38.0974
-42.4439
-45.8174
-47.8445
-48.2798
-47.0428
-44.235
-40.1355
-35.1744
-29.8872
-24.8561
-20.6428
-17.7218
-16.422
-16.8823
-19.029
-22.5774
-27.0586
-31.8692
-36.3387
-39.807
-41.7025
-41.612
-39.3341
-34.9092
-28.6223
-20.9785
-12.6526
-4.41977
2.92753
8.66442
12.2127
13.2049
11.5259
7.32912
1.02345
-6.76551
-15.2574
-23.5956
-30.933
-36.5185
-39.7718
-40.3416
-38.1387
-33.3424
-26.3779
-17.8694
-8.57279
0.702914
9.17763
16.1761
21.1896
23.9178
24.2868
22.4424
18.722
13.6074
7.66711
1.49349
-4.35728
-9.41645
-13.3402
-15.9306
-17.1393
-17.0548
-15.877
-13.882
-11.3835
-8.69407
-6.09186
-3.79573
-1.95075
-0.624952
0.183868
0.533466
0.517981
0.248041
-0.166285
-0.627043
-1.05323
-1.37936
-1.54982
-1.51184
-1.21067
-0.589319
0.405477
1.81162
3.63648
5.84185
8.33344
10.959
13.5178
15.7828
17.5326
18.5903
18.8625
18.3707
17.2695
15.8458
14.4967
13.6882
13.8978
15.551
18.9585
24.264
31.4108
40.1311
49.9601
60.2735
70.3435
79.4068
86.7366
91.7114
93.8719
92.9628
88.9533
82.0374
72.6145
61.2531
48.6449
35.5552
22.7788
11.109
1.32651
-5.79002
-9.43438
-8.73484
-2.72359
9.66587
29.5532
58.0026
95.8466
143.454
200.472
265.585
336.346
409.142
479.312
541.468
589.97
619.532
625.865
606.284
560.164
489.185
397.31
290.48
176.066
62.1323
-43.3884
-133.511
-202.897
-248.352
-269.069
-266.596
-244.531
-208.009
-163.048
-115.83
-72.0212
-36.2052
-11.4784
0.742423
0.704797
-9.88613
-28.2244
-50.8536
-74.149
-94.7704
-110.035
-118.172
-118.445
-111.13
-97.3772
-78.9777
-58.0771
-36.8721
-17.3334
-0.983388
11.2481
19.0803
22.853
23.4236
22.0114
20.0113
18.8057
19.5948
23.2667
30.3185
40.8325
54.5045
70.7151
88.6296
107.31
125.827
143.352
159.228
173.008
184.466
193.581
200.492
205.454
208.782
210.79
211.754
211.874
211.257
209.91
207.746
204.603
200.27
194.512
187.108
177.883
166.738
153.674
138.816
122.417
104.858
86.6286
68.302
50.4914
33.8034
18.7873
5.88672
-4.59962
-12.5435
-17.9964
-21.1796
-22.4583
-22.3004
-21.2269
-19.7588
-18.3667
-17.429
-17.2031
-17.811
-19.2421
-21.3691
-23.9759
-26.7935
-29.537
-31.9422
-33.795
-34.953
-35.3558
-35.0239
-34.0482
-32.5704
-30.7591
-28.7826
-26.7849
-24.8663
-23.0727
-21.394
-19.7729
-18.1227
-16.3504
-14.3821
-12.1863
-9.79055
-7.28809
-4.83296
-2.62314
-0.874024
0.213915
0.488289
-0.126647
-1.61084
-3.84213
-6.60413
-9.60777
-12.5235
-15.0202
-16.8044
-17.6567
-17.4574
-16.2012
-13.9968
-11.0534
-7.6549
-4.12611
-0.795109
2.0436
4.16063
5.41434
5.76215
5.25978
4.04904
2.33618
0.364063
-1.61802
-3.38308
-4.75003
-5.59956
-5.88087
-5.60917
-4.85543
-3.7308
-2.36872
-0.907734
0.522611
1.81143
2.87148
3.64037
4.0793
4.17107
3.91825
3.34239
2.48366
1.4007
0.169399
-1.11987
-2.36693
-3.4683
-4.32466
-4.84851
-4.97075
-4.64549
-3.85233
-2.59605
-0.903871
1.17922
3.59644
6.28571
9.18599
12.2428
15.4121
18.6625
21.9745
25.3374
28.7437
32.1815
35.6259
39.0317
42.3265
45.4084
48.1478
50.3934
51.9833
52.7593
52.584
51.3578
49.0344
45.6331
41.2463
36.0412
30.2578
24.2028
18.2458
12.8201
8.43282
5.68719
5.31223
8.19223
15.3799
28.0736
47.5404
74.9712
111.27
156.795
211.088
272.644
338.78
405.655
468.472
521.862
560.431
579.388
575.187
546.065
492.411
416.881
324.237
220.924
114.419
12.458
-77.7821
-150.43
-201.501
-229.244
-234.228
-219.146
-188.402
-147.513
-102.432
-58.8672
-21.6753
5.59019
20.9475
24.0481
16.0437
-0.709704
-23.0578
-47.5078
-70.6802
-89.6988
-102.48
-107.895
-105.797
-96.9344
-82.75
-65.1305
-46.1197
-27.6452
-11.2875
1.88394
11.394
17.3625
20.43
21.6253
22.1956
23.4253
26.4652
32.1931
41.1203
53.3502
68.5907
86.2134
105.348
124.996
144.153
161.916
177.57
190.642
200.926
208.461
213.498
216.431
217.724
217.843
217.181
216.018
214.485
212.559
210.076
206.768
202.305
196.35
188.615
178.904
167.153
153.445
138.018
121.243
103.608
85.6695
68.0144
51.2129
35.7747
22.1121
10.5118
1.11868
-6.06878
-11.1897
-14.5009
-16.3484
-17.1316
-17.2655
-17.1441
-17.108
-17.4203
-18.252
-19.6779
-21.6826
-24.1744
-27.0051
-29.9911
-32.9344
-35.6399
-37.9283
-39.6448
-40.6633
-40.8899
-40.2652
-38.7682
-36.4218
-33.2983
-29.5246
-25.2832
-20.808
-16.372
-12.2674
-8.7792
-6.15429
-4.57172
-4.11742
-4.76843
-6.38965
-8.74456
-11.5191
-14.3558
-16.8944
-18.8125
-19.8618
-19.8942
-18.8764
-16.8888
-14.1119
-10.801
-7.25424
-3.77654
-0.646185
1.91362
3.75446
4.81218
5.10588
4.72749
3.82402
2.57555
1.17176
-0.209756
-1.42118
-2.35649
-2.95712
-3.21134
-3.14831
-2.8282
-2.33009
-1.73928
-1.13577
-0.584905
-0.131222
0.204382
0.424116
0.549935
0.618058
0.672231
0.756634
0.909237
1.15631
1.50857
1.95941
2.48514
3.04747
3.59772
4.08258
4.45053
4.65854
4.67794
4.4991
4.13409
3.61718
3.00299
2.3626
1.77818
1.33673
1.12392
1.21874
1.68959
2.5921
3.96845
5.84776
8.24682
11.1704
14.6107
18.5449
22.9324
27.7102
32.7891
38.0503
43.344
48.4908
53.2857
57.506
60.9218
63.3092
64.466
64.2277
62.4843
59.1941
54.396
48.2159
40.8689
32.6549
23.95
15.1967
6.8942
-0.403325
-6.07846
-9.42998
-9.64376
-5.76536
3.30908
18.8028
41.9701
73.9375
115.477
166.736
226.958
294.261
365.529
436.465
501.84
555.94
593.148
608.624
598.955
562.693
500.695
416.192
314.57
202.88
89.1404
-18.4956
-112.583
-187.146
-238.253
-264.354
-266.322
-247.233
-211.901
-166.25
-116.596
-68.9461
-28.3745
1.43326
18.4443
22.3278
14.3052
-3.16347
-26.8035
-52.9987
-78.2517
-99.5782
-114.793
-122.668
-122.952
-116.27
-103.929
-87.6609
-69.3461
-50.7579
-33.3511
-18.1236
-5.5555
4.37302
12.1001
18.354
24.0035
29.9087
36.7941
45.1582
55.2281
66.9595
80.0767
94.1413
108.636
123.052
136.956
150.046
162.174
173.334
183.639
193.265
202.393
211.152
219.566
227.521
234.76
240.894
245.442
247.887
247.741
244.611
238.258
228.641
215.93
200.506
182.926
163.874
144.098
124.341
105.275
87.4547
71.2775
56.9714
44.5994
34.0819
25.2307
17.7902
11.4783
6.02432
1.19731
-3.17544
-7.20136
-10.9259
-14.3441
-17.4174
-20.0923
-22.319
-24.0654
-25.3266
-26.1284
-26.5249
-26.5916
-26.4147
-26.0798
-25.6613
-25.2134
-24.7655
-24.3207
-23.8596
-23.3459
-22.7353
-21.9849
-21.0623
-19.9521
-18.6609
-17.2176
-15.6714
-14.0858
-12.5315
-11.0771
-9.78096
-8.68405
-7.80497
-7.13839
-6.65652
-6.31362
-6.05281
-5.81424
-5.54329
-5.19783
-4.75334
-4.2053
-3.5687
-2.87476
-2.16561
-1.4877
-0.88504
-0.393185
-0.0346808
0.183445
0.270034
0.24811
0.151557
0.0207646
-0.102079
-0.177334
-0.171315
-0.0583508
0.178613
0.548634
1.0541
1.69204
2.45472
3.32908
4.29479
5.32137
6.3651
7.36665
8.25055
8.92748
9.2998
9.27062
8.75564
7.69655
6.07427
3.91973
1.32018
-1.58081
-4.59049
-7.48139
-10.0118
-11.9502
-13.1012
-13.329
-12.5763
-10.8751
-8.34779
-5.19924
-1.6985
1.84621
5.11745
7.82002
9.71099
10.6255
10.4965
9.36624
7.38952
4.82668
2.02689
-0.598468
-2.61098
-3.58663
-3.16006
-1.06706
2.81964
8.46632
15.6698
24.0667
33.1614
42.3683
51.0672
58.6618
64.6375
68.6101
70.3597
69.8472
67.2104
62.7419
56.8524
50.0229
42.7546
35.5213
28.7299
22.6961
17.636
13.6785
10.8968
9.35949
9.19629
10.6726
14.2613
20.696
30.988
46.3872
68.2719
97.963
136.47
184.2
240.663
304.249
372.107
440.2
503.541
556.618
593.958
610.779
603.617
570.862
513.094
433.171
336.05
228.34
117.649
11.8025
-81.9648
-157.747
-211.538
-241.578
-248.427
-234.778
-205.035
-164.723
-119.81
-76.0184
-38.2238
-9.99581
6.66962
11.4093
5.35409
-9.17565
-29.087
-50.9843
-71.6273
-88.3227
-99.2044
-103.377
-100.919
-92.7509
-80.4058
-65.7384
-50.6149
-36.633
-24.9067
-15.9415
-9.61156
-5.23395
-1.72211
2.20949
7.82313
16.1515
27.8369
43.0353
61.3969
82.1195
104.064
125.913
146.343
164.193
178.603
189.102
195.646
198.593
198.634
196.685
193.756
190.818
188.688
187.935
188.828
191.32
195.068
199.485
203.822
207.246
208.938
208.172
204.385
197.229
186.598
172.64
155.74
136.493
115.652
94.0743
72.6492
52.2338
33.5866
17.3122
3.82153
-6.69138
-14.2509
-19.0822
-21.5753
-22.237
-21.6339
-20.3355
-18.8611
-17.6371
-16.9689
-17.0269
-17.8499
-19.3608
-21.3937
-23.7268
-26.1173
-28.3339
-30.1833
-31.5283
-32.2969
-32.4819
-32.1334
-31.3442
-30.2336
-28.9291
-27.5508
-26.1981
-24.9418
-23.82
-22.8389
-21.9767
-21.1905
-20.4243
-19.6171
-18.7111
-17.6581
-16.4247
-14.9962
-13.3782
-11.5967
-9.6971
-7.74077
-5.80129
-3.95908
-2.29551
-0.886455
0.2041
0.93032
1.2701
1.22959
0.84622
0.189562
-0.640553
-1.51935
-2.30624
-2.85762
-3.04262
-2.76016
-1.95507
-0.630595
1.14518
3.24104
5.47328
7.62488
9.47104
10.8081
11.4818
11.4101
10.5983
9.14203
7.21825
5.06476
2.9499
1.13702
-0.151918
-0.768388
-0.66027
0.117791
1.40869
2.97179
4.51435
5.73141
6.34866
6.1622
5.06942
3.0864
0.349237
-2.90107
-6.34793
-9.63857
-12.428
-14.4216
-15.4101
-15.2932
-14.0892
-11.9285
-9.03461
-5.69396
-2.21989
1.0849
3.96256
6.22719
7.78223
8.62694
8.85197
8.62543
8.17149
7.74412
7.59904
7.96654
9.028
10.8982
13.6145
17.135
21.3428
26.0586
31.0577
36.0898
40.9004
45.2495
48.9286
51.771
53.6582
54.52
54.3298
53.097
50.8578
47.666
43.5876
38.6998
33.0958
26.8981
20.2801
13.497
6.92362
1.09779
-3.2386
-5.10908
-3.29566
3.63044
17.2269
39.0378
70.3905
112.143
164.412
226.315
295.788
369.525
443.07
511.104
567.894
607.879
626.308
619.863
587.156
529.032
448.616
351.086
243.204
132.631
27.1496
-66.1458
-141.556
-195.32
-225.91
-234.074
-222.606
-195.899
-159.347
-118.672
-79.2633
-45.6098
-20.8925
-6.76345
-3.33047
-9.32833
-22.4378
-39.6996
-57.9622
-74.3048
-86.3844
-92.6717
-92.5577
-86.3303
-75.0382
-60.2695
-43.8836
-27.734
-13.4184
-2.08515
5.68406
9.90715
11.1533
10.4259
8.99662
8.21575
9.3251
13.2966
20.7162
31.7257
46.025
62.9329
81.4931
100.609
119.19
136.283
151.184
163.5
173.169
180.437
185.784
189.834
193.243
196.59
200.286
204.512
209.193
214.006
218.424
221.789
223.392
222.572
218.787
211.69
201.163
187.334
170.568
151.435
130.66
109.061
87.4871
66.7589
47.6087
30.6373
16.2796
4.78443
-3.79386
-9.58996
-12.9111
-14.2092
-14.0439
-13.0368
-11.821
-10.9884
-11.0392
-12.3379
-15.0805
-19.2774
-24.7528
-31.1639
-38.0366
-44.8165
-50.9279
-55.8363
-59.1066
-60.45
-59.7546
-57.0962
-52.7282
-47.052
-40.572
-33.8401
-27.398
-21.722
-17.1778
-13.9899
-12.2274
-11.8078
-12.5175
-14.0442
-16.0184
-18.0575
-19.8074
-20.9782
-21.3688
-20.8796
-19.5138
-17.3673
-14.61
-11.4627
-8.17102
-4.98128
-2.11907
0.227245
1.91815
2.87014
3.05931
2.52223
1.35453
-0.293067
-2.22197
-4.19708
-5.96274
-7.26311
-7.86579
-7.5865
-6.31211
-4.01913
-0.784627
3.21216
7.6989
12.3296
16.7129
20.447
23.1575
24.5342
24.3632
22.5508
19.1369
14.2964
8.32777
1.63072
-5.32548
-12.0406
-18.0253
-22.8428
-26.1467
-27.7111
-27.4508
-25.4284
-21.8483
-17.038
-11.4176
-5.46136
0.345487
5.5499
9.77047
12.7293
14.2736
14.3864
13.1846
10.9073
7.8947
4.56036
1.35828
-1.25236
-2.84326
-3.0515
-1.6102
1.6272
6.67139
13.3921
21.5246
30.6872
40.4082
50.1602
59.3977
67.5951
74.2812
79.0696
81.6803
81.9549
79.863
75.501
69.0846
60.9347
51.4604
41.1387
30.4958
20.0923
10.516
2.3853
-3.63491
-6.80911
-6.30393
-1.17054
9.64856
27.2722
52.7796
87.0512
130.558
183.124
243.693
310.16
379.308
446.888
507.885
556.933
588.874
599.367
585.478
546.161
482.545
397.972
297.769
188.776
78.6758
-24.7926
-114.625
-185.261
-233.121
-256.902
-257.61
-238.333
-203.786
-159.702
-112.147
-66.8404
-28.5689
-0.747881
14.8204
17.9845
10.0867
-6.35184
-28.0544
-51.4581
-73.1702
-90.3584
-101.033
-104.198
-99.8691
-88.9616
-73.0837
-54.2628
-34.6471
-16.2216
-0.56918
11.2953
19.0062
22.84
23.6279
22.6057
21.2238
20.9446
23.0521
28.4965
37.7914
50.9708
67.608
86.8895
107.731
128.916
149.244
167.665
183.382
195.918
205.142
211.245
214.684
216.09
216.173
215.613
214.97
214.606
214.651
214.984
215.26
214.959
213.462
210.128
204.388
195.816
184.197
169.558
152.18
132.586
111.493
89.7506
68.2663
47.9198
29.4828
13.5502
0.48859
-9.58907
-16.8221
-21.572
-24.3683
-25.8355
-26.612
-27.2699
-28.2468
-29.7989
-31.9811
-34.6566
-37.5335
-40.2246
-42.3183
-43.454
-43.3866
-42.0345
-39.5006
-36.065
-32.15
-28.262
-24.9193
-22.5775
-21.5622
-22.0198
-23.8939
-26.9301
-30.7081
-34.6965
-38.3221
-41.0432
-42.4177
-42.1563
-40.1544
-36.4999
-31.4563
-25.4259
-18.8973
-12.3865
-6.37834
-1.27507
2.64053
5.22604
6.48194
6.53768
5.62418
4.03757
2.09912
0.116915
-1.64674
-2.99855
-3.82667
-4.10189
-3.86902
-3.2305
-2.32538
-1.30662
-0.319923
0.513759
1.11017
1.42751
1.46607
1.26255
0.880509
0.398652
-0.10137
-0.545912
-0.877846
-1.0618
-1.08581
-0.959582
-0.709938
-0.37442
0.00595338
0.393622
0.760153
1.08986
1.381
1.64441
1.90009
2.17232
2.4843
2.8532
3.28664
3.78114
4.32299
4.89136
5.46337
6.02017
6.55311
7.06876
7.59185
8.16525
8.84682
9.70315
10.801
12.198
13.9328
16.0184
18.4373
21.1417
24.0568
27.089
30.1355
33.0958
35.8819
38.4266
40.6878
42.6488
44.3137
45.6997
46.8261
47.7024
48.3168
48.6267
48.5532
47.9818
46.7718
44.7765
41.8754
38.0202
33.2915
27.9631
22.565
17.9333
15.2324
15.9338
21.7347
34.4101
55.595
86.5139
127.685
178.647
237.748
302.073
367.524
429.089
481.285
518.73
536.781
532.139
503.348
451.086
378.219
289.577
191.498
91.1678
-4.13147
-87.7883
-154.535
-200.95
-225.73
-229.707
-215.625
-187.709
-151.096
-111.199
-73.1009
-41.0204
-17.937
-5.38779
-3.45176
-10.9055
-25.5154
-44.4184
-64.5358
-82.9683
-97.3258
-105.959
-108.074
-103.733
-93.7483
-79.4942
-62.6751
-45.0759
-28.3301
-13.7322
-2.111
6.22734
11.4876
14.3137
15.6716
16.7047
18.5805
22.3471
28.8121
38.4585
51.3992
67.3761
85.7975
105.81
126.397
146.487
165.072
181.31
194.61
204.686
211.577
215.628
217.425
217.719
217.309
216.932
217.149
218.266
220.272
222.829
225.309
226.862
226.53
223.375
216.611
205.718
190.535
171.298
148.638
123.527
97.1825
70.943
46.1294
23.911
5.19256
-9.46587
-19.8854
-26.2601
-29.1076
-29.1854
-27.3877
-24.6348
-21.77
-19.4759
-18.2188
-18.2244
-19.4858
-21.7985
-24.8154
-28.1134
-31.2606
-33.8762
-35.6773
-36.506
-36.3379
-35.2717
-33.504
-31.2944
-28.9265
-26.6701
-24.7491
-23.3189
-22.4544
-22.149
-22.3233
-22.8414
-23.532
-24.2109
-24.7036
-24.8639
-24.5886
-23.8261
-22.5797
-20.9054
-18.9044
-16.7112
-14.4781
-12.3573
-10.4816
-8.94601
-7.79312
-7.00457
-6.50066
-6.14952
-5.7855
-5.23481
-4.34504
-3.01405
-1.21332
0.998431
3.47445
5.99308
8.28362
10.0619
11.0705
11.1177
10.11
8.07219
5.15241
1.61126
-2.20455
-5.90017
-9.07756
-11.3816
-12.5415
-12.4027
-10.9451
-8.28559
-4.66534
-0.423057
4.04186
8.31198
11.9952
14.764
16.3863
16.7449
15.8442
13.8044
10.844
7.25445
3.36886
-0.469862
-3.93956
-6.76414
-8.73203
-9.70662
-9.62864
-8.51123
-6.42937
-3.50541
0.107035
4.23913
8.72126
13.3949
18.1214
22.7879
27.3098
31.6306
35.72
39.5686
43.1818
46.5708
49.7425
52.6881
55.3717
57.7202
59.6174
60.9045
61.3877
60.8552
59.1015
55.9566
51.3179
45.1792
37.6562
29.0053
19.6378
10.131
1.23852
-6.09987
-10.7517
-11.3973
-6.56004
5.32367
25.7804
56.1161
97.1794
149.094
211.001
280.861
355.373
430.052
499.492
557.817
599.265
618.852
613.024
580.191
521.071
438.773
338.591
227.538
113.646
5.1521
-90.3582
-166.726
-219.82
-247.894
-251.669
-234.124
-200.05
-155.423
-106.677
-59.9722
-20.553
7.75124
22.8183
24.3076
13.5228
-6.90342
-33.4499
-62.2102
-89.3928
-111.76
-126.956
-133.703
-131.84
-122.229
-106.543
-86.975
-65.9061
-45.5824
-27.8357
-13.8816
-4.21448
1.39464
3.80311
4.32426
4.50536
5.88887
9.79003
17.1201
28.2762
43.1097
60.9719
80.828
101.418
121.443
139.74
155.437
168.05
177.52
184.19
188.721
191.966
194.825
198.099
202.357
207.855
214.489
221.81
229.08
235.374
239.701
241.132
238.925
232.615
222.08
207.554
189.607
169.08
146.999
124.465
102.545
82.1731
64.0719
48.7017
36.2407
26.5983
19.4534
14.3142
10.5896
7.66347
4.96409
2.02145
-1.49219
-5.74087
-10.7229
-16.2864
-22.1582
-27.9833
-33.3682
-37.925
-41.3122
-43.2684
-43.6377
-42.3855
-39.6036
-35.5054
-30.4121
-24.7293
-18.9159
-13.4479
-8.77674
-5.28821
-3.26367
-2.849
-4.0351
-6.65342
-10.3882
-14.8057
-19.3968
-23.6307
-27.0112
-29.1303
-29.7124
-28.6436
-25.9815
-21.9462
-16.8932
-11.2711
-5.57102
-0.272866
4.20428
7.54269
9.55303
10.1857
9.52654
7.77795
5.22976
2.22293
-0.888499
-3.77306
-6.15122
-7.81545
-8.63966
-8.57748
-7.65089
-5.93199
-3.52185
-0.531262
2.93235
6.76852
10.8771
15.1431
19.4175
23.5006
27.1335
30.0038
31.7687
32.0932
30.6997
27.4214
22.2491
15.3625
7.13781
-1.87196
-10.9843
-19.4565
-26.5685
-31.7072
-34.4413
-34.5741
-32.1691
-27.5422
-21.224
-13.8962
-6.31111
0.794299
6.77949
11.1663
13.6826
14.2793
13.1208
10.5514
7.04447
3.14041
-0.615866
-3.73232
-5.81446
-6.59402
-5.93993
-3.85302
-0.44729
4.07773
9.46869
15.4495
21.7482
28.1165
34.3419
40.2515
45.7093
50.6086
54.8626
58.3943
61.1282
62.9857
63.8849
63.745
62.4953
60.0874
56.5093
51.7996
46.0597
39.4637
32.2642
24.7968
17.484
10.8414
5.48853
2.16423
1.74265
5.24329
13.8221
28.73
51.224
82.4236
123.113
173.506
233.003
299.991
371.721
444.329
513.015
572.396
617.006
641.888
643.211
618.81
568.579
494.647
401.285
294.568
181.803
70.8069
-30.8881
-116.789
-182.075
-224.029
-242.217
-238.412
-216.263
-180.792
-137.749
-92.9527
-51.6535
-18.0293
5.16074
16.7257
16.9977
7.61556
-8.82291
-29.1827
-50.2319
-69.0442
-83.3192
-91.5894
-93.3018
-88.7755
-79.0555
-65.6909
-50.4743
-35.1779
-21.3208
-9.99288
-1.75134
3.40422
5.98279
6.89184
7.28536
8.39235
11.3488
17.0533
26.063
38.5381
54.2394
72.574
92.6798
113.536
134.083
153.337
170.489
184.97
196.486
205.018
210.786
214.193
215.748
215.99
215.412
214.403
213.204
211.898
210.408
208.524
205.943
202.311
197.269
190.497
181.754
170.901
157.927
142.957
126.256
108.223
89.3688
70.2879
51.6219
34.0115
18.0483
4.22642
-7.09854
-15.74
-21.6953
-25.1431
-26.4242
-26.0057
-24.4343
-22.2827
-20.0958
-18.3418
-17.3735
-17.4044
-18.4997
-20.5843
-23.4648
-26.8621
-30.4511
-33.902
-36.9185
-39.2687
-40.8062
-41.4793
-41.3271
-40.4669
-39.0711
-37.3412
-35.4797
-33.6647
-32.0303
-30.655
-29.5578
-28.7041
-28.0175
-27.3967
-26.7347
-25.9364
-24.9333
-23.6926
-22.2196
-20.5546
-18.7641
-16.9282
-15.1276
-13.4313
-11.887
-10.5162
-9.31395
-8.25284
-7.29082
-6.38055
-5.47909
-4.55614
-3.59954
-2.61746
-1.63689
-0.699082
0.14724
0.853743
1.38015
1.70056
1.80756
1.7136
1.4497
1.06157
0.60407
0.13466
-0.293129
-0.635363
-0.861844
-0.958287
-0.926438
-0.782307
-0.552936
-0.272254
0.0233733
0.299369
0.526507
0.683558
0.758878
0.750943
0.667911
0.526324
0.349086
0.162887
-0.00478786
-0.128845
-0.189705
-0.176049
-0.0867855
0.0681133
0.268214
0.484792
0.684477
0.834058
0.905969
0.883813
0.767312
0.576026
0.351346
0.156403
0.0738123
0.201421
0.646444
1.51849
2.92196
4.94831
7.66849
11.1259
15.3304
20.253
25.8223
31.9226
38.3932
45.0302
51.5909
57.8006
63.3638
67.9788
71.3562
73.2404
73.4325
71.8123
68.3565
63.1512
56.3957
48.3972
39.5569
30.3503
21.3059
12.9892
5.99795
0.973473
-1.37061
-0.210007
5.42513
16.6604
34.7394
60.9181
96.2822
141.498
196.521
260.325
330.688
404.128
476.004
540.828
592.754
626.208
636.564
620.791
577.938
509.419
419.004
312.537
197.387
81.7098
-26.3853
-119.67
-192.518
-241.425
-265.284
-265.371
-245.072
-209.385
-164.277
-115.967
-70.2459
-31.8905
-4.24302
11.0067
13.8315
5.68464
-10.8357
-32.4207
-55.5229
-76.8056
-93.519
-103.764
-106.628
-102.178
-91.35
-75.7274
-57.2769
-38.0588
-19.958
-4.46436
7.47644
15.5289
19.9526
21.5142
21.3451
20.7673
21.1101
23.5431
28.9413
37.7981
50.1902
65.7948
83.9521
103.761
124.195
144.221
162.905
179.507
193.53
204.75
213.202
219.143
222.99
225.243
226.4
226.887
226.992
226.824
226.304
225.173
223.032
219.401
213.791
205.775
195.061
181.537
165.312
146.716
126.283
104.714
82.8125
61.4187
41.3329
23.2497
7.7019
-4.97772
-14.6728
-21.4784
-25.6766
-27.6944
-28.053
-27.3106
-26.0082
-24.6223
-23.5289
-22.9825
-23.1091
-23.9142
-25.3024
-27.1045
-29.1098
-31.0977
-32.8656
-34.2516
-35.1479
-35.5063
-35.336
-34.6945
-33.6744
-32.388
-30.9522
-29.475
-28.046
-26.7297
-25.5635
-24.5587
-23.7044
-22.9728
-22.3247
-21.7156
-21.1003
-20.4367
-19.6889
-18.8286
-17.8361
-16.7015
-15.4245
-14.0142
-12.4898
-10.8791
-9.21785
-7.5483
-5.91667
-4.37048
-2.95533
-1.71152
-0.670875
0.145889
0.730989
1.09025
1.24257
1.2182
1.05599
0.799802
0.494673
0.18293
-0.0991899
-0.32412
-0.474443
-0.543104
-0.532304
-0.451109
-0.31204
-0.127047
0.0964405
0.358549
0.668228
1.04209
1.50059
2.0619
2.73439
3.50921
4.35438
5.21235
6.0017
6.62379
6.97369
6.95418
6.49078
5.54552
4.1273
2.29695
0.166089
-2.11027
-4.34673
-6.34434
-7.90924
-8.8707
-9.09621
-8.5019
-7.057
-4.78225
-1.74286
1.96258
6.21526
10.8893
15.863
21.0265
26.2853
31.5589
36.7766
41.8693
46.7611
51.3609
55.557
59.2144
62.178
64.2812
65.3589
65.2656
63.895
61.1991
57.2037
52.0179
45.8364
38.9338
31.6547
24.401
17.625
11.83
7.58566
5.5541
6.52239
11.4282
21.3606
37.517
61.0985
93.1366
134.258
184.417
242.631
306.794
373.599
438.647
496.737
542.342
570.212
576.037
557.063
512.574
444.153
355.665
252.965
143.339
34.7643
-64.9246
-148.862
-211.855
-250.88
-265.324
-256.936
-229.514
-188.373
-139.674
-89.6931
-44.1374
-7.56795
16.995
28.2584
26.6276
13.985
-6.68201
-31.7444
-57.4242
-80.2548
-97.4579
-107.201
-108.717
-102.284
-89.0841
-70.9695
-50.1705
-28.9888
-9.51287
6.61433
18.3512
25.3281
27.8315
26.7134
23.2441
18.9301
15.3239
13.8467
15.6422
21.4759
31.6833
46.1683
64.4446
85.7128
108.958
133.061
156.902
179.456
199.87
217.505
231.967
243.095
250.936
255.701
257.71
257.331
254.925
250.804
245.195
238.235
229.97
220.38
209.413
197.019
183.19
167.991
151.577
134.203
116.215
98.0299
80.1104
62.927
46.9232
32.4803
19.8891
9.32805
0.853479
-5.60054
-10.2111
-13.2461
-15.0376
-15.9501
-16.3493
-16.5717
-16.9002
-17.5458
-18.6376
-20.2204
-22.2607
-24.6587
-27.2656
-29.9033
-32.3854
-34.5367
-36.2093
-37.2955
-37.7343
-37.5129
-36.6646
-35.2608
-33.402
-31.2069
-28.8006
-26.3053
-23.8315
-21.4717
-19.2961
-17.3508
-15.6578
-14.2157
-13.0036
-11.9842
-11.109
-10.324
-9.57484
-8.81298
-8.00005
-7.11186
-6.14047
-5.09436
-3.99674
-2.88184
-1.78992
-0.761326
0.169364
0.978588
1.65752
2.21383
2.67119
3.06658
3.44585
3.85806
4.34959
4.95865
5.71074
6.61545
7.66445
8.83058
10.0678
11.3121
12.4829
13.4863
14.2195
14.577
14.4585
13.7784
12.4754
10.5227
7.93574
4.77835
1.16463
-2.74285
-6.73938
-10.5886
-14.0364
-16.8277
-18.7243
-19.523
-19.0733
-17.2929
-14.1806
-9.82532
-4.41005
1.79
8.41749
15.0515
21.2354
26.5128
30.4692
32.7766
33.2339
31.7989
28.6063
23.9671
18.3479
12.3309
6.55755
1.664
-1.78646
-3.36335
-2.81483
-0.0929153
4.64479
11.0572
18.6622
26.8944
35.1688
42.9431
49.7706
55.3359
59.471
62.1504
63.4679
63.5987
62.7562
61.1469
58.9342
56.2128
53.0004
49.2446
44.847
39.7001
33.7356
26.9798
19.6129
12.0282
4.88519
-0.851137
-3.89544
-2.66467
4.64771
19.9344
44.969
81.1392
129.142
188.678
258.199
334.766
414.071
490.657
558.332
610.769
642.195
648.112
625.926
575.391
498.803
400.889
288.406
169.477
52.7669
-53.4198
-141.99
-207.765
-247.948
-262.305
-253.054
-224.473
-182.311
-133.058
-83.1887
-38.4619
-3.3613
19.2737
28.3919
24.6555
10.172
-11.9146
-37.9127
-64.0844
-87.0967
-104.375
-114.321
-116.391
-111.033
-99.5041
-83.6134
-65.4227
-46.9496
-29.9113
-15.5372
-4.4661
3.26773
8.16823
11.1487
13.3643
16.0313
20.2587
26.9097
36.5095
49.2014
64.7546
82.614
101.983
121.924
141.468
159.714
175.911
189.522
200.251
208.046
213.08
215.704
216.395
215.69
214.122
212.171
210.215
208.5
207.125
206.042
205.059
203.867
202.064
199.195
194.788
188.404
179.681
168.382
154.429
137.935
119.216
98.7785
77.2986
55.571
34.4486
14.7707
-2.7102
-17.3946
-28.8877
-37.0312
-41.9105
-43.8371
-43.3097
-40.9568
-37.4697
-33.5335
-29.7625
-26.649
-24.5281
-23.5632
-23.7507
-24.9421
-26.8798
-29.2407
-31.682
-33.8839
-35.584
-36.6016
-36.8485
-36.3285
-35.126
-33.3862
-31.2913
-29.0354
-26.8004
-24.738
-22.9559
-21.5123
-20.4156
-19.6308
-19.0896
-18.7023
-18.3715
-18.0038
-17.5201
-16.8625
-15.9979
-14.9186
-13.6403
-12.1972
-10.6375
-9.01702
-7.39409
-5.8246
-4.35834
-3.03629
-1.889
-0.935816
-0.184991
0.365723
0.727928
0.921082
0.970722
0.906495
0.76008
0.563115
0.345236
0.132362
-0.0546773
-0.201041
-0.298273
-0.344148
-0.342022
-0.299751
-0.228314
-0.140275
-0.0482682
0.0363686
0.104667
0.150726
0.172003
0.169189
0.145739
0.107137
0.0600107
0.0112067
-0.0330491
-0.067829
-0.0899486
-0.0981525
-0.0930463
-0.0768112
-0.0527569
-0.0247874
0.00314855
0.0275513
0.0457582
0.0561976
0.0585204
0.053666
0.0439634
0.0334117
0.028318
0.0385059
0.0793178
0.174553
0.360237
0.688717
1.23208
2.08353
3.35533
5.17223
7.65995
10.9295
15.0584
20.0722
25.9273
32.5
39.5826
46.8891
54.0709
60.7417
66.5091
71.0107
73.9492
75.1238
74.4525
71.984
67.8958
62.4797
56.1155
49.2354
42.2857
35.6883
29.8101
24.9458
21.3177
19.0961
18.4392
19.5489
22.735
28.4766
37.4666
50.6216
69.0428
93.9127
126.323
167.044
216.253
273.269
336.344
402.557
467.874
527.383
575.709
607.576
618.436
605.099
566.243
502.745
417.752
316.481
205.752
93.31
-12.9695
-105.905
-179.744
-230.731
-257.422
-260.731
-243.707
-211.072
-168.604
-122.434
-78.355
-41.2224
-14.5122
-0.0746287
1.90112
-7.27272
-25.1011
-48.3299
-73.414
-96.9692
-116.155
-128.947
-134.285
-132.082
-123.113
-108.814
-91.018
-71.6756
-52.5902
-35.206
-20.4672
-8.7598
0.0645617
6.59598
11.7233
16.4667
21.8097
28.5566
37.2294
48.0181
60.7843
75.114
90.4061
105.982
121.194
135.52
148.627
160.398
170.917
180.417
189.211
197.604
205.81
213.891
221.717
228.968
235.164
239.724
242.047
241.595
237.967
230.966
220.622
207.197
191.159
173.129
153.819
133.959
114.238
95.2534
77.4762
61.241
46.7486
34.0843
23.2426
14.156
6.72003
0.813354
-3.69081
-6.92154
-9.0143
-10.1197
-10.4136
-10.1044
-9.43563
-8.67914
-8.12057
-8.03606
-8.66372
-10.1736
-12.641
-16.0281
-20.1777
-24.8216
-29.6034
-34.1149
-37.9398
-40.7021
-42.1109
-41.9971
-40.3365
-37.2565
-33.026
-28.0277
-22.7181
-17.578
-13.0608
-9.5431
-7.28493
-6.40325
-6.86219
-8.48103
-10.9585
-13.9106
-16.9161
-19.5658
-21.5075
-22.4827
-22.3513
-21.1007
-18.8401
-15.7813
-12.2087
-8.44306
-4.80387
-1.57442
1.02623
2.86173
3.88593
4.1395
3.73689
2.84615
1.66457
0.393346
-0.785463
-1.72744
-2.33786
-2.57657
-2.45589
-2.03253
-1.39503
-0.648924
0.0985717
0.752253
1.23974
1.51845
1.57865
1.44268
1.16134
0.807904
0.470789
0.245297
0.225001
0.493086
1.11401
2.12593
3.53438
5.30794
7.37643
9.63227
11.9355
14.1219
16.0153
17.4407
18.2408
18.291
17.514
15.892
13.4735
10.3769
6.78623
2.94172
-0.875402
-4.36317
-7.22182
-9.17726
-10.0029
-9.53706
-7.69522
-4.47475
0.0468188
5.7202
12.338
19.6516
27.39
35.2778
43.0501
50.4648
57.3095
63.4037
68.5981
72.7707
75.8222
77.6722
78.2564
77.526
75.4492
72.0145
67.2347
61.154
53.8562
45.4773
36.2237
26.3967
16.4239
6.89518
-1.40125
-7.45086
-10.002
-7.5854
1.42309
18.6857
45.7254
83.6914
133.086
193.485
263.303
339.649
418.34
494.092
560.912
612.652
643.678
649.566
627.718
577.81
501.999
404.835
292.883
174.093
57.0006
-50.1599
-140.292
-208.144
-250.783
-267.799
-261.215
-235.123
-195.119
-147.59
-98.9707
-55.0377
-20.3428
2.17645
11.3647
7.79888
-6.45828
-28.253
-53.8257
-79.3192
-101.249
-116.884
-124.494
-123.464
-114.251
-98.2262
-77.4202
-54.2133
-31.016
-9.97646
7.25132
19.6591
26.9438
29.4787
28.2079
24.4843
19.877
15.9725
14.1936
15.6548
21.0659
30.6891
44.3487
61.4856
81.2465
102.595
124.426
145.684
165.448
183.009
197.903
209.922
219.093
225.631
229.878
232.233
233.082
232.735
231.38
229.062
225.681
221.013
214.759
206.599
196.258
183.564
168.502
151.246
132.164
111.81
90.8813
70.1629
50.4588
32.5159
16.9519
4.19438
-5.56148
-12.3719
-16.536
-18.5608
-19.1033
-18.8949
-18.6592
-19.0298
-20.4805
-23.2749
-27.4404
-32.7716
-38.86
-45.147
-50.9946
-55.7635
-58.8914
-59.9616
-58.755
-55.2796
-49.7755
-42.6935
-34.6519
-26.3741
-18.6157
-12.0867
-7.37881
-4.90449
-4.85435
-7.17746
-11.5868
-17.5893
-24.5377
-31.6978
-38.3254
-43.7424
-47.4052
-48.9572
-48.2593
-45.3971
-40.6625
-34.5144
-27.5231
-20.3056
-13.4586
-7.49822
-2.81161
0.374892
2.00755
2.1977
1.19649
-0.644057
-2.91825
-5.21641
-7.17101
-8.49425
-9.00341
-8.63215
-7.42749
-5.53425
-3.16971
-0.592415
1.93093
4.15651
5.8891
7.00025
7.4374
7.224
6.45137
5.26385
3.83941
2.36829
1.03177
-0.0164789
-0.664891
-0.853254
-0.576081
0.119683
1.142
2.36502
3.64286
4.8245
5.76816
6.35407
6.4948
6.14279
5.29499
3.99495
2.33245
0.440877
-1.50784
-3.31083
-4.74487
-5.57999
-5.596
-4.6012
-2.45184
0.929459
5.53896
11.2828
17.976
25.3501
33.0709
40.7625
48.0389
54.5363
59.9458
64.0394
66.6896
67.8774
67.6898
66.3064
63.9767
60.9914
57.6502
54.2302
50.958
47.9874
45.3861
43.1321
41.1203
39.1804
37.1047
34.6854
31.7606
28.2668
24.2964
20.1559
16.42
13.9719
14.0193
18.0688
27.8446
45.1387
71.5889
108.397
156.014
213.844
280.018
351.303
423.191
490.191
546.311
585.691
603.297
595.595
561.085
500.631
417.513
317.182
206.748
94.2633
-12.1173
-104.986
-178.436
-228.621
-254.074
-255.739
-236.723
-201.833
-156.933
-108.239
-61.6155
-21.9769
7.15931
23.9157
28.0879
20.98
5.08083
-16.3652
-39.8316
-61.9649
-79.9702
-91.8855
-96.7245
-94.4833
-86.0245
-72.8653
-56.9065
-40.1404
-24.3777
-11.0258
-0.93945
5.64064
9.06536
10.179
10.1655
10.3639
12.0781
16.4055
24.1052
35.5172
50.54
68.6638
89.0506
110.649
132.323
152.988
171.716
187.83
200.947
210.985
218.138
222.811
225.545
226.921
227.473
227.616
227.591
227.436
226.991
225.926
223.795
220.102
214.374
206.234
195.459
182.015
166.084
148.045
128.453
107.986
87.3852
67.3866
48.6589
31.7478
17.0379
4.73178
-5.1503
-12.7522
-18.3493
-22.3053
-25.026
-26.9136
-28.3287
-29.5615
-30.8157
-32.2051
-33.7615
-35.4507
-37.195
-38.8974
-40.4642
-41.8221
-42.9301
-43.781
-44.397
-44.8161
-45.0763
-45.1975
-45.1669
-44.9303
-44.3924
-43.427
-41.8951
-39.6708
-36.6698
-32.8755
-28.3592
-23.2904
-17.9325
-12.6246
-7.75046
-3.69577
-0.801615
0.681984
0.634625
-0.909263
-3.75306
-7.55048
-11.8373
-16.0792
-19.7297
-22.2922
-23.3776
-22.7511
-20.3633
-16.3602
-11.0722
-4.98187
1.3251
7.22141
12.1052
15.4651
16.9364
16.342
13.7125
9.28481
3.4778
-3.15186
-9.96816
-16.3224
-21.6203
-25.382
-27.2888
-27.211
-25.2149
-21.5489
-16.6107
-10.8992
-4.95933
0.677015
5.544
9.28544
11.6835
12.6706
12.3235
10.8426
8.51855
5.69146
2.70866
-0.114803
-2.52781
-4.36375
-5.54867
-6.09686
-6.0959
-5.68412
-5.02425
-4.27738
-3.58064
-3.03137
-2.67906
-2.52534
-2.5307
-2.62607
-2.72671
-2.74587
-2.60616
-2.24729
-1.62959
-0.733775
0.442323
1.88859
3.58784
5.5203
7.66655
10.0088
12.5303
15.2136
18.0381
20.9765
23.9921
27.0363
30.0463
32.9448
35.6399
38.0276
39.9958
41.4302
42.2218
42.2765
41.5245
39.9296
37.4985
34.2859
30.3985
25.9944
21.2802
16.5066
11.9648
7.9872
4.95519
3.31672
3.61297
6.50995
12.8256
23.5378
39.7563
62.6409
93.2578
132.374
180.212
236.196
298.74
365.138
431.593
493.415
545.4
582.343
599.641
593.894
563.418
508.596
431.99
338.2
233.465
125.061
20.5623
-72.9393
-149.556
-205.18
-237.844
-247.831
-237.527
-211.039
-173.648
-131.161
-89.2402
-52.8056
-25.5593
-9.68954
-5.77092
-12.8598
-28.7564
-50.3902
-74.2713
-96.9496
-115.425
-127.465
-131.801
-128.184
-117.317
-100.675
-80.2455
-58.2328
-36.7639
-17.6314
-2.1039
9.18037
16.2298
19.6329
20.4245
19.9096
19.469
20.3749
23.639
29.9068
39.4106
51.9776
67.0895
83.9782
101.743
119.472
136.349
151.734
165.214
176.618
185.989
193.54
199.589
204.482
208.529
211.941
214.799
217.032
218.435
218.688
217.414
214.222
208.774
200.832
190.296
177.231
161.87
144.6
125.94
106.493
86.9051
67.8137
49.8001
33.3505
18.8266
6.44927
-3.70473
-11.6925
-17.6844
-21.9351
-24.751
-26.456
-27.3618
-27.7423
-27.8164
-27.7397
-27.6035
-27.442
-27.2451
-26.9742
-26.5798
-26.0178
-25.263
-24.3187
-23.2205
-22.0352
-20.8546
-19.7857
-18.9377
-18.4096
-18.277
-18.5839
-19.3361
-20.5012
-22.0113
-23.771
-25.6665
-27.5762
-29.3796
-30.9655
-32.236
-33.1095
-33.5206
-33.42
-32.774
-31.5646
-29.7911
-27.4731
-24.6538
-21.4024
-17.8162
-14.019
-10.1574
-6.39305
-2.89236
0.185863
2.70354
4.55566
5.68043
6.06604
5.75309
4.83218
3.43672
1.73153
-0.101818
-1.88137
-3.44118
-4.64597
-5.40235
-5.66552
-5.44068
-4.77928
-3.77057
-2.52982
-1.18454
0.139358
1.33013
2.29998
2.99128
3.37893
3.46895
3.29391
2.90624
2.3703
1.75446
1.12391
0.534965
0.0312389
-0.3584
-0.620161
-0.754369
-0.773582
-0.700131
-0.563328
-0.396453
-0.23361
-0.106506
-0.0413104
-0.0558084
-0.15712
-0.340246
-0.587614
-0.869667
-1.14636
-1.3693
-1.48403
-1.43215
-1.15296
-0.584618
0.334687
1.66502
3.46177
5.77107
8.62369
12.028
15.9629
20.3722
25.1614
30.1984
35.3176
40.3287
45.028
49.2115
52.6895
55.2992
56.9157
57.4598
56.9019
55.2625
52.6098
49.0543
44.7418
39.8467
34.5643
29.1056
23.6949
18.5732
14.0107
10.3305
7.94628
7.40966
9.461
15.0676
25.4295
41.9308
66.018
98.997
141.76
194.474
256.275
325.05
397.342
468.461
532.801
584.351
617.358
627.043
610.278
566.105
496.026
403.996
296.117
180.049
64.2312
-43.0069
-134.316
-204.08
-248.946
-268.09
-263.177
-238.041
-198.132
-149.818
-99.6164
-53.4671
-16.1262
9.25661
21.3365
20.5418
8.8347
-10.6888
-34.2979
-58.1531
-78.7943
-93.5313
-100.701
-99.7665
-91.271
-76.6522
-57.967
-37.5636
-17.7473
-0.485238
12.818
21.4521
25.4328
25.4376
22.6663
18.647
15.0202
13.3282
14.8338
20.3894
30.3639
44.6316
62.618
83.3898
105.778
128.511
150.353
170.218
187.263
200.942
211.031
217.608
221.013
221.777
220.546
217.995
214.751
211.324
208.062
205.121
202.461
199.862
196.958
193.287
188.351
181.677
172.875
161.696
148.068
132.119
114.178
94.7562
74.5096
54.1824
34.5439
16.3216
0.139308
-13.5335
-24.416
-32.4298
-37.6943
-40.5016
-41.2781
-40.5352
-38.8166
-36.6467
-34.4859
-32.6966
-31.5226
-31.0823
-31.3758
-32.3036
-33.6939
-35.3348
-37.0072
-38.5147
-39.7074
-40.4958
-40.8564
-40.8256
-40.4872
-39.9526
-39.3392
-38.7493
-38.2518
-37.8708
-37.5803
-37.3076
-36.9425
-36.3533
-35.405
-33.9792
-31.9918
-29.407
-26.2459
-22.588
-18.5665
-14.3564
-10.1591
-6.18303
-2.62375
0.354326
2.63276
4.14882
4.89935
4.93864
4.37082
3.33828
2.00733
0.553169
-0.854549
-2.064
-2.95061
-3.42316
-3.42651
-2.94152
-1.98274
-0.594598
1.15322
3.17068
5.35227
7.58181
9.73724
11.6956
13.3384
14.5578
15.263
15.3882
14.8992
13.8002
12.1384
10.0051
7.53257
4.88647
2.25238
-0.18133
-2.24343
-3.79989
-4.77134
-5.1451
-4.97955
-4.39921
-3.58049
-2.72901
-2.05096
-1.72206
-1.85819
-2.49208
-3.55969
-4.89891
-6.2617
-7.33872
-7.79386
-7.3046
-5.60289
-2.51147
2.02948
7.94858
15.0444
23.0007
31.4149
39.8338
47.7946
54.865
60.6783
64.9604
67.5465
68.3872
67.5428
65.1696
61.4993
56.8132
51.4163
45.6109
39.674
33.8389
28.2829
23.1222
18.4151
14.176
10.3981
7.08915
4.3146
2.24871
1.22608
1.78695
4.7061
10.9942
21.8606
38.6267
62.5868
94.8162
135.941
185.893
243.693
307.296
373.554
438.335
496.792
543.798
574.483
584.814
572.146
535.64
476.502
397.981
305.121
204.294
102.564
6.96195
-76.2268
-142.089
-187.539
-211.549
-215.149
-201.187
-173.902
-138.371
-99.9001
-63.4319
-33.0504
-11.6216
-0.60805
-0.0615551
-8.7784
-24.5841
-44.7009
-66.1459
-86.1099
-102.273
-113.027
-117.583
-115.971
-108.931
-97.7293
-83.9264
-69.1291
-54.764
-41.8992
-31.133
-22.5604
-15.813
-10.1618
-4.66073
1.69129
9.79604
20.3288
33.6535
49.7874
68.4131
88.9327
110.549
132.364
153.474
173.058
190.444
205.149
216.903
225.639
231.471
234.659
235.567
234.614
232.235
228.842
224.795
220.378
215.786
211.119
206.383
201.492
196.291
190.566
184.07
176.552
167.781
157.576
145.833
132.55
117.839
101.934
85.187
68.0506
51.0472
34.7311
19.643
6.26364
-5.02959
-13.9958
-20.5514
-24.7754
-26.8976
-27.2726
-26.3421
-24.5893
-22.4926
-20.482
-18.904
-17.9976
-17.8836
-18.5672
-19.9512
-21.8592
-24.0635
-26.3145
-28.3698
-30.0171
-31.0929
-31.4925
-31.1743
-30.156
-28.5075
-26.3388
-23.7865
-21.0001
-18.1288
-15.3096
-12.6583
-10.2629
-8.17974
-6.43275
-5.01597
-3.89866
-3.03288
-2.36276
-1.83429
-1.40454
-1.04879
-0.764483
-0.57123
-0.506445
-0.617131
-0.948853
-1.53359
-2.3785
-3.45777
-4.7092
-6.03664
-7.31848
-8.42105
-9.21528
-9.59415
-9.48798
-8.87554
-7.78875
-6.31054
-4.56584
-2.70714
-0.896588
0.712863
1.99474
2.86249
3.27754
3.25116
2.84014
2.13738
1.25858
0.32728
-0.54
-1.24663
-1.72523
-1.94277
-1.90103
-1.63275
-1.19447
-0.656994
-0.095126
0.422112
0.839559
1.12145
1.25398
1.24486
1.12018
0.9193
0.688473
0.474261
0.317498
0.248584
0.284589
0.428355
0.669562
0.987459
1.35484
1.74276
2.12548
2.48524
2.81632
3.12835
3.44834
3.82152
4.31051
4.99289
5.95681
7.29484
9.09606
11.4372
14.3731
17.9283
22.0892
26.7994
31.9575
37.4185
42.9986
48.483
53.637
58.2189
61.9948
64.7533
66.3202
66.5707
65.4393
62.925
59.0925
54.068
48.0322
41.2136
33.8855
26.3733
19.0768
12.5082
7.34408
4.48029
5.07252
10.5401
22.5095
42.6795
72.6013
113.388
165.383
227.851
298.738
374.587
450.637
521.148
579.908
620.897
639.005
630.704
594.583
531.644
445.32
341.204
226.505
109.316
-2.21859
-100.735
-180.364
-237.265
-269.895
-279.019
-267.461
-239.643
-200.981
-157.224
-113.816
-75.3531
-45.1893
-25.2325
-15.9235
-16.3891
-24.7284
-38.3839
-54.5413
-70.5085
-84.0268
-93.488
-98.0395
-97.5808
-92.6644
-84.3258
-73.874
-62.6723
-51.939
-42.5906
-35.1418
-29.6696
-25.8365
-22.9664
-20.1555
-16.4029
-10.7424
-2.36065
9.30915
24.527
43.2203
64.993
89.1641
114.831
140.946
166.408
190.144
211.19
228.759
242.287
251.46
256.221
256.75
253.434
246.815
237.538
226.289
213.738
200.493
187.061
173.823
161.021
148.76
137.02
125.681
114.549
103.394
91.9897
80.1459
67.7487
54.7899
41.393
27.8358
14.5653
2.20664
-8.44184
-16.4329
-20.7237
-20.2641
-14.1213
-1.63279
17.4309
42.7207
73.2116
107.182
142.286
175.732
204.535
225.841
237.252
237.133
224.834
200.812
166.615
124.743
78.3911
31.1175
-13.5343
-52.3984
-82.9979
-103.766
-114.154
-114.623
-106.513
-91.8375
-73.001
-52.508
-32.679
-15.4145
-2.03071
6.82169
11.1524
11.5485
9.03012
4.86968
0.397693
-3.17835
-4.92181
-4.26611
-1.05765
4.45809
11.7002
19.8536
27.9923
35.2065
40.718
43.9704
44.6836
42.8711
38.8182
33.0298
26.1545
18.8983
11.9383
5.84641
1.03327
-2.28527
-4.09543
-4.56964
-4.0318
-2.911
-1.6923
-0.873249
-0.933776
-2.3245
-5.47424
-10.8128
-18.8006
-29.9527
-44.844
-64.0845
-88.257
-117.819
-152.975
-193.544
-238.831
-287.549
-337.791
-387.092
-432.569
-471.148
-499.842
-516.06
-517.904
-504.412
-475.713
-433.075
-378.821
-316.139
-248.789
-180.757
-115.883
-57.5101
-8.20749
30.43
57.8624
57.8624
57.8624
57.8624
57.8624
57.8624
57.8624
57.8624
57.8624
57.8624
57.8624
57.8624
57.8624
57.8624
57.8624
57.8624
57.8624
57.8624
57.8624
57.8624
