-148.323
-126.299
-102.353
-77.4492
-52.7241
-29.3869
-8.5979
8.65081
21.6398
29.9982
33.7411
33.2637
29.2952
22.8154
14.9494
6.84999
-0.415778
-5.96332
-9.16105
-9.66819
-7.43863
-2.69326
4.13275
12.4594
21.6381
31.0251
40.0437
48.2296
55.2554
60.9352
65.2112
68.127
69.7941
70.356
69.9577
68.7224
66.7396
64.0636
60.7226
56.7336
52.1217
46.9374
41.27
35.2539
29.0661
22.9159
17.0276
11.6196
6.88168
2.95447
-0.0861561
-2.23859
-3.57734
-4.24727
-4.45083
-4.42964
-4.44215
-4.73936
-5.5409
-7.01333
-9.25234
-12.2703
-15.9903
-20.2461
-24.7905
-29.309
-33.4412
-36.8062
-39.0327
-39.7908
-38.8218
-35.9657
-31.1808
-24.5558
-16.3122
-6.79625
3.53834
14.156
24.4731
33.8963
41.8661
47.8996
51.632
52.8503
51.517
47.779
41.9603
34.5374
26.0991
17.2942
8.77352
1.13015
-5.15274
-9.74251
-12.481
-13.3895
-12.6549
-10.5989
-7.6353
-4.2195
-0.79782
2.23865
4.59024
6.07159
6.61977
6.28775
5.22535
3.65096
1.81819
-0.0180896
-1.6323
-2.85195
-3.57255
-3.76269
-3.45972
-2.75759
-1.78902
-0.704891
0.346403
1.23702
1.87329
2.2036
2.22021
1.95547
1.47339
0.858229
0.201765
-0.409007
-0.902242
-1.22862
-1.36508
-1.31491
-1.10451
-0.777559
-0.387766
0.00884021
0.360864
0.626786
0.777835
0.798197
0.682719
0.432716
0.0507633
-0.464472
-1.12237
-1.94272
-2.95587
-4.20061
-5.72007
-7.55608
-9.74281
-12.3003
-15.229
-18.5055
-22.0812
-25.883
-29.8177
-33.7785
-37.6533
-41.3351
-44.7311
-47.7712
-50.4138
-52.6485
-54.495
-55.9984
-57.2221
-58.2382
-59.118
-59.9229
-60.6979
-61.4675
-62.2354
-62.9866
-63.6925
-64.3176
-64.8257
-65.1863
-65.3787
-65.3938
-65.2341
-64.9109
-64.4401
-63.8371
-63.1111
-62.2601
-61.2663
-60.094
-58.6879
-56.9757
-54.8735
-52.2942
-49.1602
-45.4174
-41.0495
-36.0901
-30.6302
-24.8196
-18.8593
-12.9885
-7.46354
-2.5335
1.58472
4.72945
6.81162
7.82438
7.84363
7.0194
5.55921
3.70554
1.71028
-0.190677
-1.79984
-2.97486
-3.63818
-3.77871
-3.44607
-2.7385
-1.78632
-0.733437
0.281011
1.13853
1.75307
2.0778
2.10643
1.86947
1.42658
0.856005
0.243004
-0.331407
-0.799974
-1.11601
-1.25693
-1.22444
-1.04168
-0.748015
-0.392377
-0.0261307
0.303607
0.559398
0.717121
0.767559
0.715945
0.579761
0.385225
0.163068
-0.0558066
-0.244221
-0.381735
-0.456496
-0.465805
-0.415484
-0.318229
-0.191285
-0.0537893
0.0758327
0.182113
0.254182
0.286691
0.280035
0.24002
0.177232
0.106362
0.0457206
0.0170135
0.0452984
0.158921
0.38915
0.769269
1.33302
2.11247
3.13562
4.42412
5.99168
7.84309
9.97398
12.3702
15.0065
17.8429
20.8202
23.8532
26.8254
29.5863
31.954
33.7246
34.689
34.6571
33.4849
31.1026
27.5386
22.9329
17.5398
11.7147
5.88727
0.52288
-3.9233
-7.05334
-8.56888
-8.30297
-6.23727
-2.50249
2.63801
8.81908
15.6151
22.5868
29.3277
35.5051
40.8908
45.3786
48.9865
51.8446
54.1684
56.2216
58.2729
60.5496
63.1962
66.2409
69.5763
72.9572
76.0168
78.3011
79.3178
78.5948
75.7409
70.5015
62.8014
52.7688
40.7375
27.2245
12.8876
-1.53376
-15.2848
-27.6581
-38.0408
-45.9339
-50.9346
-52.6797
-50.7581
-44.6135
-33.4684
-16.3076
8.04858
40.7625
82.6978
134.077
194.139
260.879
330.945
399.746
461.794
511.25
542.621
551.494
535.2
493.304
427.829
343.171
245.707
143.142
43.6744
-44.8951
-116.013
-165.055
-189.77
-190.429
-169.671
-132.087
-83.5976
-30.71
20.237
63.7608
95.7695
113.894
117.593
108.033
87.7855
60.3847
29.8129
-0.0136793
-25.7006
-44.7235
-55.6358
-58.1252
-52.9282
-41.6257
-26.3591
-9.50702
6.63123
20.1088
29.5317
34.1693
33.9713
29.4981
21.784
12.1561
2.03577
-7.24864
-14.6184
-19.3524
-21.1385
-20.0694
-16.5867
-11.3897
-5.32022
0.755671
6.05668
9.97175
12.1146
12.3445
10.7542
7.63146
3.40286
-1.43155
-6.36206
-10.9243
-14.7394
-17.5375
-19.1637
-19.5702
-18.799
-16.9596
-14.2074
-10.7263
-6.71646
-2.38781
2.04331
6.35634
10.3307
13.7535
16.4319
18.2081
18.9759
18.6955
17.4032
15.214
12.3153
8.95212
5.40478
1.96157
-1.10971
-3.58826
-5.32122
-6.23663
-6.34688
-5.74254
-4.5777
-3.04893
-1.37072
0.249439
1.63332
2.64915
3.222
3.33667
3.03333
2.39708
1.54317
0.600151
-0.306962
-1.07136
-1.61543
-1.89703
-1.91085
-1.6851
-1.27442
-0.750337
-0.190586
0.331151
0.753947
1.03582
1.15692
1.11959
0.945744
0.671963
0.343393
0.00713315
-0.29394
-0.526297
-0.669374
-0.717476
-0.679943
-0.579709
-0.450509
-0.333056
-0.270645
-0.304654
-0.470504
-0.794578
-1.29258
-1.96955
-2.82159
-3.83899
-5.01004
-6.32484
-7.77813
-9.37039
-11.1071
-12.9958
-15.0426
-17.2473
-19.6004
-22.0805
-24.654
-27.2774
-29.9
-32.4684
-34.9305
-37.2386
-39.3528
-41.2419
-42.8842
-44.2675
-45.3886
-46.2513
-46.8641
-47.2362
-47.3734
-47.2732
-46.9217
-46.2917
-45.3451
-44.0382
-42.3298
-40.1922
-37.6203
-34.6405
-31.3132
-27.7314
-24.0126
-20.2857
-16.6751
-13.2832
-10.1748
-7.36597
-4.81831
-2.44058
-0.0978581
2.37269
5.14085
8.35947
12.1407
16.535
21.5159
26.973
32.7143
38.478
43.954
48.8116
52.7311
55.4343
56.7114
56.4384
54.585
51.21
46.447
40.4806
33.5203
25.7734
17.4239
8.61958
-0.529795
-9.94291
-19.5476
-29.2552
-38.9324
-48.378
-57.3084
-65.3585
-72.0998
-77.0766
-79.8561
-80.0868
-77.5563
-72.239
-64.3253
-54.2261
-42.5498
-30.0535
-17.5738
-5.94453
4.08583
11.9292
17.2142
19.8171
19.865
17.7102
13.8813
9.01642
3.78845
-1.1689
-5.32551
-8.30258
-9.89936
-10.0973
-9.04301
-7.01336
-4.36926
-1.50382
1.20792
3.45198
5.00663
5.7592
5.70789
4.94994
3.65887
2.05487
0.372594
-1.16945
-2.39418
-3.1834
-3.48614
-3.31772
-2.75065
-1.89943
-0.901722
0.101361
0.983276
1.64632
2.03077
2.1183
1.92981
1.51864
0.960367
0.34097
-0.255106
-0.755376
-1.10715
-1.28202
-1.27689
-1.11158
-0.823981
-0.463292
-0.0826184
0.268269
0.549193
0.734372
0.815545
0.803381
0.727266
0.633572
0.582504
0.64368
0.890698
1.39504
2.21986
3.41413
5.00786
7.00881
9.4015
12.1489
15.1975
18.4856
21.9546
25.5619
29.2921
33.1657
37.2406
41.6061
46.3695
51.6363
57.4877
63.9608
71.0342
78.6235
86.5878
94.7466
102.904
110.878
118.521
125.748
132.534
138.919
144.989
150.85
156.594
162.268
167.84
173.184
178.067
182.161
185.066
186.343
185.56
182.336
176.384
167.546
155.813
141.339
124.434
105.55
85.2499
64.1718
42.9892
22.369
2.93605
-14.7508
-30.2036
-42.9874
-52.676
-58.7862
-60.7036
-57.617
-48.491
-32.1018
-7.15804
27.4874
72.5486
127.981
192.675
264.241
338.953
411.889
477.294
529.132
561.767
570.685
553.143
508.647
439.179
349.124
244.887
134.262
25.6076
-73.0434
-154.839
-214.813
-250.349
-261.363
-250.186
-221.163
-180.051
-133.286
-87.2132
-47.3895
-18.0265
-1.63594
1.09541
-8.79595
-28.8471
-55.6081
-85.1569
-113.621
-137.639
-154.716
-163.432
-163.5
-155.679
-141.567
-123.31
-103.284
-83.7681
-66.6808
-53.3767
-44.5422
-40.1842
-39.7054
-42.0493
-45.8876
-49.825
-52.5914
-53.2
-51.0534
-45.9912
-38.2763
-28.5301
-17.6275
-6.56978
3.64654
12.1506
18.2927
21.7066
22.335
20.4187
16.4548
11.1321
5.25304
-0.347061
-4.87614
-7.6496
-8.13905
-6.00379
-1.10518
6.49496
16.5502
28.6572
42.2935
56.8614
71.7376
86.3225
100.087
112.615
123.634
133.034
140.871
147.353
152.816
157.675
162.377
167.345
172.923
179.336
186.658
194.801
203.52
212.441
221.091
228.946
235.481
240.208
242.723
242.728
240.056
234.674
226.69
216.336
203.957
189.983
174.899
159.206
143.389
127.874
113.007
99.027
86.0648
74.1489
63.2262
53.1908
43.9181
35.297
27.2564
19.7812
12.9159
6.7559
1.42894
-2.93086
-6.21081
-8.34517
-9.33422
-9.25391
-8.25488
-6.55098
-4.3992
-2.07396
0.160568
2.07654
3.50338
4.34131
4.56604
4.22462
3.42336
2.30997
1.05237
-0.182954
-1.25036
-2.04023
-2.48829
-2.57858
-2.34031
-1.83953
-1.16718
-0.425313
0.286575
0.883539
1.30409
1.51527
1.5137
1.32282
0.987087
0.564227
0.116594
-0.297086
-0.62866
-0.845434
-0.932599
-0.893176
-0.745729
-0.520375
-0.253779
0.0161479
0.255131
0.436447
0.54347
0.570668
0.523061
0.41432
0.263762
0.092591
-0.0802541
-0.242197
-0.390572
-0.535015
-0.698074
-0.91346
-1.2216
-1.66255
-2.26682
-3.04529
-3.97981
-5.01657
-6.06419
-6.99845
-7.67421
-7.94434
-7.68339
-6.81301
-5.3245
-3.29452
-0.889757
1.64137
3.99066
5.82359
6.82057
6.72045
5.36
2.70355
-1.14224
-5.93104
-11.2977
-16.7944
-21.9386
-26.2657
-29.3799
-30.9974
-30.9754
-29.3252
-26.2068
-21.9081
-16.8103
-11.3463
-5.95554
-1.0421
3.06096
6.11653
7.99715
8.68672
8.27163
6.9232
4.87414
2.39181
-0.248879
-2.79045
-5.01346
-6.75122
-7.89772
-8.40839
-8.2944
-7.6116
-6.44595
-4.89749
-3.06515
-1.03448
1.13014
3.38776
5.71746
8.11013
10.5569
13.0362
15.5029
17.8801
20.058
21.8984
23.2466
23.9487
23.8721
22.9264
21.0808
18.3758
14.9266
10.9175
6.5867
2.20526
-1.94914
-5.61878
-8.59005
-10.7121
-11.908
-12.1771
-11.5902
-10.2769
-8.4093
-6.18324
-3.80003
-1.45052
0.697037
2.50486
3.86922
4.72048
5.02055
4.75859
3.94602
2.61135
0.795241
-1.45399
-4.0842
-7.04235
-10.2764
-13.7359
-17.3706
-21.1279
-24.9492
-28.7645
-32.4895
-36.0221
-39.2437
-42.023
-44.2245
-45.7194
-46.3997
-46.192
-45.0691
-43.0576
-40.2401
-36.7506
-32.7645
-28.4828
-24.1144
-19.8577
-15.8839
-12.3248
-9.26559
-6.74257
-4.74712
-3.23242
-2.12233
-1.31975
-0.712804
-0.17775
0.421377
1.23514
2.43102
4.19322
6.71749
10.1997
14.8179
20.7096
27.9472
36.5149
46.2925
57.0485
68.4461
80.0618
91.4162
102.014
111.386
119.137
124.976
128.747
130.439
130.184
128.239
124.954
120.735
116.006
111.16
106.53
102.364
98.8033
95.8898
93.5759
91.76
90.3399
89.2889
88.7497
89.1354
91.2172
96.1707
105.551
121.165
144.842
178.098
221.746
275.515
337.749
405.274
473.487
536.681
588.609
623.202
635.35
621.637
580.907
514.565
426.569
323.093
211.902
101.522
0.314235
-84.4302
-147.252
-185.053
-197.335
-186.12
-155.594
-111.509
-60.4476
-9.03729
36.7795
72.3443
94.6818
102.67
96.9764
79.7971
54.4325
24.7809
-5.19068
-31.9292
-52.678
-65.7231
-70.4872
-67.4749
-58.0927
-44.3777
-28.6777
-13.3291
-0.369848
8.67908
12.9448
12.2396
7.0094
-1.7905
-12.8692
-24.7965
-36.1955
-45.9072
-53.1111
-57.3898
-58.7371
-57.5132
-54.3593
-50.0852
-45.5471
-41.5323
-38.6633
-37.3317
-37.667
-39.5407
-42.6014
-46.3334
-50.1297
-53.3686
-55.4841
-56.0234
-54.6848
-51.3369
-46.0164
-38.9106
-30.327
-20.6552
-10.3267
0.224172
10.5943
20.4391
29.4907
37.568
44.5782
50.5112
55.4275
59.4431
62.7103
65.3996
67.6809
69.7077
71.6042
73.456
75.3043
77.1436
78.9213
80.5396
81.8594
82.7058
82.8772
82.1598
80.3461
77.2589
72.7776
66.8638
59.5823
51.1128
41.7491
31.8845
21.9828
12.5381
4.02718
-3.1395
-8.66268
-12.3882
-14.3262
-14.6514
-13.6859
-11.8641
-9.68571
-7.66173
-6.26038
-5.85929
-6.7099
-8.91756
-12.4393
-17.0983
-22.6126
-28.6337
-34.7894
-40.7258
-46.1436
-50.8249
-54.6481
-57.5902
-59.7172
-61.165
-62.1133
-62.7568
-63.2765
-63.8148
-64.457
-65.222
-66.0612
-66.8667
-67.4876
-67.751
-67.486
-66.5474
-64.8362
-62.3138
-59.0091
-55.0179
-50.4936
-45.6326
-40.6537
-35.7771
-31.2024
-27.0905
-23.5499
-20.629
-18.316
-16.5442
-15.2037
-14.1573
-13.2586
-12.3695
-11.3769
-10.2049
-8.82126
-7.23927
-5.51296
-3.72783
-1.98803
-0.40184
0.932616
1.9397
2.57513
2.83047
2.73303
2.34138
1.73735
1.01571
0.273002
-0.403057
-0.94242
-1.29877
-1.45232
-1.40932
-1.19854
-0.865425
-0.464954
-0.0539785
0.315802
0.60354
0.783019
0.844261
0.792976
0.648149
0.438258
0.196716
-0.0427975
-0.250549
-0.404017
-0.489914
-0.504842
-0.454653
-0.352716
-0.217436
-0.0694091
0.0713896
0.188045
0.26849
0.306503
0.301859
0.259714
0.189387
0.102738
0.0124146
-0.0698292
-0.134509
-0.175361
-0.189787
-0.17879
-0.146461
-0.0991408
-0.044379
0.010142
0.057588
0.0927421
0.112489
0.115981
0.10451
0.0811166
0.0500544
0.016218
-0.015293
-0.0393028
-0.0502375
-0.0413083
-0.00330909
0.0766897
0.216327
0.438152
0.768646
1.23588
1.86593
2.6784
3.6819
4.8701
6.21939
7.68875
9.22216
10.7534
12.2131
13.5361
14.67
15.5805
16.2561
16.7085
16.9704
17.0898
17.1231
17.1266
17.1488
17.2243
17.3704
17.5862
17.8548
18.1481
18.4328
18.6766
18.8539
18.9496
18.9604
18.8941
18.7665
18.5967
18.4019
18.1935
17.973
17.7316
17.4506
17.1044
16.6648
16.1058
15.408
14.5623
13.5716
12.4508
11.2258
9.93001
8.60149
7.27911
5.99942
4.79409
3.68824
2.6995
1.83767
1.10492
0.496206
-6.70182e-05
-0.401099
-0.728489
-1.0066
-1.26045
-1.51322
-1.78342
-2.08224
-2.41129
-2.7613
-3.11219
-3.43471
-3.69361
-3.85224
-3.87804
-3.74823
-3.45499
-3.00951
-2.44409
-1.81221
-1.18643
-0.654528
-0.314487
-0.269065
-0.620714
-1.46736
-2.8993
-4.99718
-7.83079
-11.4582
-15.9246
-21.2604
-27.4775
-34.5644
-42.4783
-51.1366
-60.4079
-70.1041
-79.9765
-89.7167
-98.9649
-107.326
-114.392
-119.769
-123.102
-124.095
-122.509
-118.142
-110.786
-100.16
-85.8472
-67.2389
-43.5398
-13.8383
22.7331
66.7556
118.233
176.301
239.017
303.271
364.906
419.019
460.47
484.494
487.366
466.987
423.315
358.546
277.013
184.81
89.1713
-2.30284
-82.4745
-145.443
-187.162
-205.832
-202.009
-178.441
-139.655
-91.3607
-39.749
9.21915
50.4487
80.2001
96.3843
98.6429
88.2202
67.661
40.3845
10.1966
-19.1947
-44.6037
-63.6857
-75.1215
-78.6599
-75.0266
-65.7244
-52.7611
-38.345
-24.5891
-13.2588
-5.59109
-2.19745
-3.0559
-7.58228
-14.7642
-23.3342
-31.9569
-39.4044
-44.7012
-47.2215
-46.7336
-43.3898
-37.6696
-30.2875
-22.0809
-13.8938
-6.47108
-0.376226
4.06055
6.75936
7.87476
7.75182
6.86252
5.73237
4.86762
4.69224
5.50209
7.44069
10.4982
14.5318
19.3038
24.5306
29.9358
35.2987
40.4924
45.5048
50.4408
55.5044
60.9652
67.1123
74.2051
82.4268
91.8467
102.4
113.883
125.968
138.236
150.218
161.442
171.478
179.981
186.712
191.553
194.497
195.632
195.104
193.083
189.725
185.145
179.394
172.464
164.296
154.808
143.933
131.653
118.037
103.263
87.6277
71.5442
55.5145
40.095
25.8477
13.2891
2.84054
-5.21382
-10.7547
-13.8395
-14.696
-13.6987
-11.3316
-8.14047
-4.6814
-1.47013
1.06192
2.60083
2.96983
2.13401
0.190859
-2.65166
-6.10606
-9.84166
-13.522
-16.8396
-19.545
-21.4672
-22.5245
-22.7261
-22.1628
-20.9913
-19.4115
-17.641
-15.8899
-14.3371
-13.1127
-12.2877
-11.8716
-11.8184
-12.0399
-12.4236
-12.8531
-13.2273
-13.476
-13.57
-13.523
-13.3875
-13.2435
-13.1823
-13.2894
-13.6271
-14.2203
-15.0486
-16.043
-17.0915
-18.0493
-18.7549
-19.0494
-18.7968
-17.9034
-16.3341
-14.123
-11.3769
-8.27059
-5.03248
-1.92282
0.794806
2.88455
4.16809
4.54868
4.02577
2.69758
0.750848
-1.56099
-3.9484
-6.12091
-7.82196
-8.85877
-9.12348
-8.60274
-7.37532
-5.59818
-3.48361
-1.27073
0.804617
2.53772
3.77716
4.43895
4.51134
4.05051
3.16828
2.01414
0.754129
-0.450376
-1.46145
-2.17881
-2.54811
-2.56276
-2.25985
-1.711
-1.01003
-0.259068
0.444829
1.0211
1.4139
1.59644
1.5715
1.36828
1.03652
0.638872
0.242384
-0.0897658
-0.305559
-0.369823
-0.267891
-0.00700638
0.38459
0.860764
1.36252
1.8245
2.18238
2.38041
2.37826
2.15647
1.71964
1.09689
0.339399
-0.48485
-1.29859
-2.02411
-2.59237
-2.95113
-3.07103
-2.94879
-2.60718
-2.09163
-1.46426
-0.795861
-0.157293
0.388837
0.79498
1.03322
1.09711
1.00081
0.775651
0.464964
0.117784
-0.217587
-0.499377
-0.696807
-0.792789
-0.784668
-0.683096
-0.509354
-0.291601
-0.0606341
0.154238
0.328706
0.445956
0.497955
0.4855
0.417173
0.307451
0.174312
0.0366807
-0.0879453
-0.185393
-0.24605
-0.265337
-0.243472
-0.184649
-0.0958744
0.0143028
0.136921
0.263412
0.386009
0.497755
0.592259
0.663392
0.70514
0.711809
0.678677
0.603032
0.485444
0.330971
0.149979
-0.0416887
-0.22339
-0.371214
-0.460245
-0.467288
-0.373681
-0.167777
0.153311
0.583016
1.10589
1.69944
2.3371
2.99201
3.64106
4.26886
4.87088
5.45551
6.04457
6.67222
7.38227
8.22416
9.24807
10.4997
12.0154
13.8184
15.9165
18.302
20.9528
23.8356
26.9095
30.1291
33.4468
36.8127
40.1725
43.4634
46.6093
49.5151
52.0639
54.1156
55.5109
56.0782
55.6452
54.0545
51.1797
46.942
41.3239
34.3783
26.2299
17.0708
7.14835
-3.25057
-13.8147
-24.2175
-34.1144
-43.123
-50.7842
-56.5087
-59.5184
-58.8
-53.0952
-40.9509
-20.8501
8.5705
48.2277
98.262
157.727
224.369
294.562
363.46
425.358
474.274
504.647
512.082
494.016
450.19
382.858
296.675
198.263
95.5315
-3.19666
-90.1008
-158.722
-204.647
-225.924
-223.188
-199.457
-159.671
-110.02
-57.1696
-7.47416
33.7146
62.5726
77.1073
77.2196
64.5356
42.0472
13.6202
-16.5568
-44.5122
-66.9537
-81.6032
-87.3762
-84.3965
-73.8614
-57.7874
-38.6793
-19.1717
-1.689
11.8355
20.1517
22.782
20.0058
12.7518
2.42025
-9.33536
-20.837
-30.5912
-37.4554
-40.744
-40.2688
-36.314
-29.5549
-20.9377
-11.5368
-2.41056
5.52651
11.6025
15.4467
17.0068
16.5246
14.4793
11.5072
8.30997
5.56465
3.84528
3.56528
4.9456
8.01025
12.6073
18.4503
25.1735
32.3908
39.7527
46.9909
53.9471
60.5827
66.9696
73.2648
79.6737
86.4079
93.6431
101.484
109.942
118.92
128.223
137.574
146.641
155.08
162.568
168.841
173.723
177.136
179.108
179.752
179.242
177.779
175.54
172.646
169.126
164.904
159.799
153.553
145.87
136.48
125.198
111.978
96.9629
80.4971
63.1223
45.5391
28.5461
12.9604
-0.467748
-11.1367
-18.6595
-22.9069
-24.02
-22.3924
-18.6249
-13.4565
-7.68339
-2.07454
2.70615
6.16131
7.99928
8.14761
6.74065
4.08465
0.605877
-3.21062
-6.88355
-9.99168
-12.2175
-13.3743
-13.4144
-12.4201
-10.5796
-8.15288
-5.43192
-2.70271
-0.211716
1.85823
3.40127
4.39041
4.86928
4.93612
4.72284
4.3727
4.01946
3.77063
3.69635
3.82465
4.14277
4.60373
5.13647
5.65794
6.08541
6.34746
6.39248
6.19404
5.75277
5.09491
4.26809
3.33493
2.36558
1.42992
0.590434
-0.103596
-0.620008
-0.945557
-1.08559
-1.06186
-0.908877
-0.669455
-0.389907
-0.115522
0.113319
0.264096
0.314006
0.250707
0.0719949
-0.215425
-0.597852
-1.05692
-1.57204
-2.12274
-2.69062
-3.26079
-3.82284
-4.37109
-4.90441
-5.4256
-5.94043
-6.45657
-6.98244
-7.52624
-8.09517
-8.69502
-9.32998
-10.0029
-10.7158
-11.4701
-12.2673
-13.1091
-13.9969
-14.9309
-15.9091
-16.9253
-17.9678
-19.0178
-20.0486
-21.0258
-21.9088
-22.6536
-23.2163
-23.5576
-23.6478
-23.4704
-23.0245
-22.3258
-21.4046
-20.3022
-19.0658
-17.7426
-16.3739
-14.9911
-13.6137
-12.2489
-10.8947
-9.54384
-8.18902
-6.82804
-5.4677
-4.12596
-2.83185
-1.62304
-0.541655
0.371193
1.0811
1.56552
1.81747
1.84735
1.68247
1.36453
0.945243
0.480903
0.0264722
-0.369942
-0.671596
-0.856074
-0.916442
-0.860548
-0.708698
-0.490077
-0.238463
0.0121972
0.231822
0.397368
0.49485
0.520065
0.478067
0.381563
0.248545
0.0995255
-0.0452543
-0.168287
-0.256668
-0.303194
-0.306647
-0.271303
-0.205806
-0.121631
-0.0313408
0.0530902
0.121713
0.167628
0.187522
0.181701
0.15366
0.109308
0.0559672
0.00130374
-0.0476662
-0.085374
-0.108194
-0.11456
-0.104665
-0.0797334
-0.0409435
0.0118471
0.0813454
0.173741
0.299008
0.470362
0.702775
1.01062
1.40474
1.88933
2.45926
3.09829
3.77877
4.46293
5.10581
5.65956
6.0786
6.32482
6.37228
6.21064
5.84697
5.30572
4.62689
3.86284
3.0739
2.32363
1.67402
1.18136
0.893007
0.845466
1.0639
1.56288
2.34828
3.41979
4.77378
6.40579
8.31237
10.4917
12.9428
15.6629
18.644
21.8672
25.2976
28.8784
32.5269
36.1319
39.5539
42.6283
45.1712
46.9887
47.8865
47.6828
46.2197
43.3756
39.0756
33.3015
26.0976
17.5745
7.90835
-2.66308
-13.8492
-25.3184
-36.7128
-47.6652
-57.8162
-66.8291
-74.3981
-80.2437
-84.091
-85.6278
-84.4451
-79.9713
-71.4193
-57.7738
-37.8432
-10.3978
25.6063
70.7346
124.761
186.392
253.104
321.141
385.728
441.469
482.925
505.272
504.953
480.232
431.536
361.56
275.07
178.454
79.0651
-15.5642
-98.5211
-164.231
-209.001
-231.336
-231.981
-213.707
-180.882
-138.88
-93.4223
-49.9181
-12.9049
14.3713
30.1855
34.367
28.1465
13.8552
-5.47655
-26.561
-46.2796
-62.0433
-72.0507
-75.4231
-72.2125
-63.2963
-50.1817
-34.7549
-19.0099
-4.79302
6.40856
13.6122
16.4093
14.9583
9.90972
2.2799
-6.70612
-15.7807
-23.7875
-29.8065
-33.2375
-33.8374
-31.7109
-27.2607
-21.1077
-13.9937
-6.67955
0.147005
5.94576
10.3721
13.2965
14.796
15.1215
14.6479
13.8141
13.0621
12.7821
13.2695
14.6983
17.1121
20.4324
24.4814
29.0161
33.7677
38.4826
42.9597
47.0788
50.8185
54.2599
57.5772
61.0152
64.8565
69.3829
74.8349
81.375
89.0584
97.8152
107.446
117.628
127.939
137.887
146.948
154.609
160.412
163.989
165.098
163.638
159.655
153.336
144.984
134.984
123.766
111.767
99.3888
86.9807
74.8207
63.1145
52.0028
41.5752
31.886
22.9689
14.8477
7.54127
1.06352
-4.58089
-9.40225
-13.4312
-16.7213
-19.3481
-21.404
-22.9895
-24.2033
-25.1316
-25.8392
-26.3649
-26.7197
-26.8904
-26.8466
-26.5494
-25.9625
-25.0609
-23.8383
-22.3108
-20.5167
-18.5129
-16.3682
-14.1554
-11.9427
-9.78603
-7.72457
-5.77788
-3.94678
-2.21654
-0.562064
1.0462
2.63626
4.22968
5.83809
7.46169
9.08946
10.7009
12.269
13.7634
15.1537
16.4119
17.5146
18.4437
19.1871
19.7381
20.0953
20.2624
20.2475
20.0628
19.7249
19.2534
18.6705
17.9988
17.2596
16.4703
15.642
14.7785
13.8756
12.9228
11.9055
10.8093
9.62461
8.35062
6.99884
5.59465
4.17681
2.79474
1.50395
0.360135
-0.587186
-1.30063
-1.75959
-1.96304
-1.92988
-1.6971
-1.31571
-0.845237
-0.347382
0.120337
0.510131
0.788107
0.936592
0.954478
0.855668
0.665943
0.418753
0.150489
-0.104178
-0.316415
-0.466466
-0.545838
-0.558357
-0.520123
-0.458369
-0.409271
-0.414763
-0.518501
-0.761222
-1.17593
-1.78346
-2.58896
-3.57993
-4.72615
-5.98162
-7.28835
-8.58143
-9.79492
-10.8674
-11.747
-12.3946
-12.7855
-12.9099
-12.7714
-12.3849
-11.7744
-10.9707
-10.0103
-8.93385
-7.78637
-6.61671
-5.47713
-4.42194
-3.50521
-2.77725
-2.28024
-2.04355
-2.0793
-2.37926
-2.91364
-3.63245
-4.46953
-5.34864
-6.19082
-6.92172
-7.47746
-7.80839
-7.88001
-7.67153
-7.17269
-6.37995
-5.29326
-3.91426
-2.24659
-0.298249
1.91422
4.36082
6.99337
9.74224
12.5156
15.2018
17.6751
19.8048
21.4656
22.5502
22.98
22.7147
21.7576
20.1576
18.0057
15.4271
12.5702
9.59296
6.6482
3.8706
1.36598
-0.795543
-2.58195
-3.99729
-5.07578
-5.87321
-6.45695
-6.89615
-7.2534
-7.57874
-7.90671
-8.2562
-8.63275
-9.03251
-9.44685
-9.86666
-10.2856
-10.7014
-11.1163
-11.5342
-11.9587
-12.3892
-12.8181
-13.2289
-13.5961
-13.8861
-14.0604
-14.0796
-13.9083
-13.519
-12.8966
-12.0398
-10.9613
-9.68602
-8.24679
-6.67882
-5.01316
-3.26999
-1.45277
0.45622
2.49793
4.73581
7.25196
10.1401
13.4959
17.4055
21.9331
27.1089
32.9187
39.2963
46.1194
53.2098
60.3386
67.2352
73.6012
79.1261
83.5063
86.4632
87.7611
87.2221
84.7385
80.2806
73.9012
65.7343
55.9907
44.9488
32.9415
20.3403
7.5372
-5.07489
-17.1204
-28.2563
-38.1809
-46.6308
-53.3639
-58.1231
-60.5849
-60.298
-56.6306
-48.7461
-35.6323
-16.2054
10.5064
45.1094
87.5571
136.883
191.021
246.766
299.93
345.69
379.111
395.764
392.361
367.302
321.034
256.162
177.278
90.5251
2.94758
-78.288
-146.69
-197.159
-226.521
-233.831
-220.388
-189.498
-146.006
-95.6699
-44.4697
2.06871
39.4504
64.6264
76.2087
74.4739
61.1736
39.1884
12.0817
-16.3845
-42.7109
-64.0456
-78.4525
-85.0434
-83.9695
-76.2896
-63.7404
-48.4489
-32.6277
-18.2909
-7.02505
0.162959
2.91022
1.47489
-3.36194
-10.45
-18.4543
-26.0446
-32.0646
-35.664
-36.3781
-34.1518
-29.3099
-22.4828
-14.5007
-6.27279
1.33237
7.59121
12.0031
14.3351
14.6327
13.1973
10.5377
7.30307
4.20635
1.94658
1.13847
2.25498
5.58749
11.2257
19.0583
28.7917
39.9867
52.1055
64.5682
76.8098
88.3357
98.7683
107.882
115.621
122.106
127.613
132.542
137.376
142.616
148.73
156.09
164.927
175.293
187.052
199.881
213.296
226.697
239.413
250.768
260.126
266.939
270.782
271.365
268.541
262.297
252.743
240.092
224.649
206.793
186.967
165.675
143.463
120.917
98.6422
77.24
57.2844
39.2897
23.6787
10.7541
0.675197
-6.55514
-11.0914
-13.2325
-13.3954
-12.0771
-9.80864
-7.10637
-4.42536
-2.12112
-0.424143
0.56951
0.890557
0.673171
0.119646
-0.541523
-1.09787
-1.38931
-1.33365
-0.937856
-0.294416
0.43604
1.05236
1.34604
1.13467
0.290653
-1.23886
-3.4232
-6.15139
-9.24615
-12.4864
-15.6346
-18.4651
-20.79
-22.4791
-23.4715
-23.7795
-23.4826
-22.7155
-21.6499
-20.4748
-19.3758
-18.5171
-18.0279
-17.9935
-18.4528
-19.4006
-20.7953
-22.569
-24.6387
-26.9164
-29.3167
-31.7603
-34.1737
-36.4861
-38.6243
-40.5084
-42.0489
-43.148
-43.7037
-43.619
-42.8119
-41.2282
-38.8524
-35.716
-31.9022
-27.5441
-22.8186
-17.9342
-13.1151
-8.58307
-4.53862
-1.14402
1.48994
3.31228
4.33399
4.62426
4.30103
3.51721
2.44424
1.25479
0.10662
-0.870733
-1.58511
-1.98587
-2.06282
-1.84041
-1.36823
-0.709199
0.0725416
0.922525
1.80398
2.70217
3.62475
4.59867
5.6645
6.86951
8.2606
9.87774
11.7483
13.8819
16.2659
18.8611
21.5983
24.3772
27.0675
29.5152
31.5536
33.0181
33.7661
33.6964
32.7684
31.0151
28.5493
25.559
22.2924
19.0326
16.0648
13.6402
11.9423
11.0598
10.9724
11.5515
12.5776
13.7716
14.8359
15.4992
15.5576
14.9046
13.5447
11.5894
9.23398
6.72117
4.29777
2.172
0.480035
-0.732276
-1.5091
-1.96624
-2.25863
-2.54065
-2.92756
-3.46603
-4.12019
-4.77602
-5.26346
-5.39192
-4.99218
-3.9563
-2.26758
-0.0145341
2.6144
5.3547
7.90443
9.97116
11.3193
11.8095
11.424
10.2732
8.58141
6.65531
4.83863
3.46031
2.78425
2.96799
4.03664
5.87577
8.24409
10.8041
13.1659
14.9386
15.7814
15.4481
13.8187
10.9152
6.89905
2.05102
-3.26203
-8.63022
-13.6469
-17.9525
-21.2709
-23.4336
-24.391
-24.2088
-23.0524
-21.1605
-18.8143
-16.3039
-13.8973
-11.8154
-10.2148
-9.17967
-8.72276
-8.79402
-9.295
-10.0965
-11.0568
-12.0385
-12.9215
-13.6118
-14.045
-14.1859
-14.0241
-13.5678
-12.8365
-11.8543
-10.6443
-9.22542
-7.60951
-5.80116
-3.79762
-1.58948
0.838253
3.50449
6.42939
9.63007
13.1142
16.8708
20.8594
24.997
29.1467
33.1091
36.6206
39.3608
40.9708
41.0828
39.358
35.5295
29.4446
21.0998
10.663
-1.52152
-14.9475
-28.9796
-42.8999
-55.9623
-67.4413
-76.6667
-83.0317
-85.9703
-84.9083
-79.2023
-68.094
-50.7105
-26.1398
6.40501
47.3436
96.442
152.543
213.384
275.557
334.675
385.721
423.583
443.673
442.571
418.564
372.01
305.447
223.433
132.111
38.5776
-49.8857
-126.602
-186.207
-225.2
-242.243
-238.215
-215.993
-180.017
-135.693
-88.7288
-44.4722
-7.34699
19.5617
34.7287
38.2051
31.4457
16.9833
-1.99642
-22.1196
-40.2669
-53.9426
-61.5318
-62.4238
-56.9979
-46.4874
-32.7473
-17.9631
-4.34133
6.1794
12.1628
12.8313
8.13038
-1.29948
-14.234
-29.0404
-43.8921
-56.9944
-66.7952
-72.156
-72.4669
-67.6945
-58.3627
-45.4702
-30.3583
-14.547
0.443413
13.2608
22.8654
28.631
30.3966
28.4628
23.5366
16.6342
8.95274
1.7304
-3.89182
-6.98841
-6.93654
-3.46389
3.34587
13.0874
25.1014
38.5649
52.5929
66.3386
79.082
90.2962
99.6886
107.212
113.048
117.565
121.262
124.697
128.415
132.884
138.441
145.253
153.301
162.388
172.157
182.134
191.779
200.533
207.877
213.373
216.695
217.642
216.144
212.249
206.096
197.892
187.883
176.331
163.494
149.618
134.93
119.648
103.983
88.1477
72.3701
56.8929
41.9748
27.8832
14.8818
3.21317
-6.9205
-15.3765
-22.0874
-27.0706
-30.4303
-32.3505
-33.0801
-32.9106
-32.1498
-31.0941
-30.0036
-29.0815
-28.4614
-28.2036
-28.2987
-28.6802
-29.2409
-29.8526
-30.3858
-30.7259
-30.7861
-30.5134
-29.8903
-28.9308
-27.6732
-26.171
-24.4835
-22.6678
-20.7723
-18.833
-16.8728
-14.9023
-12.9236
-10.9346
-8.93433
-6.9286
-4.93403
-2.98115
-1.11521
0.605362
2.11287
3.33643
4.20955
4.67861
4.71107
4.30242
3.48096
2.3093
0.882338
-0.678696
-2.23554
-3.64486
-4.77166
-5.50261
-5.75785
-5.49991
-4.73848
-3.5306
-1.97595
-0.20789
1.61908
3.34395
4.81472
5.90336
6.51906
6.61898
6.21549
5.37952
4.23926
2.97384
1.8013
0.96089
0.690022
1.19719
2.63314
5.06356
8.4474
12.6247
17.318
22.1485
26.668
30.4046
32.9155
33.8426
32.9622
30.2218
25.7568
19.8868
13.0866
5.93969
-0.924156
-6.89698
-11.4588
-14.2333
-15.0269
-13.8453
-10.8884
-6.52221
-1.23404
4.4241
9.89663
14.6825
18.3837
20.7398
21.6444
21.1438
19.4187
16.7529
13.4921
10.0006
6.61891
3.62876
1.22793
-0.482001
-1.49527
-1.88977
-1.80592
-1.41984
-0.914952
-0.455692
-0.166701
-0.119663
-0.328984
-0.75611
-1.32119
-1.91981
-2.44206
-2.79101
-2.89792
-2.73231
-2.30573
-1.66905
-0.904092
-0.11102
0.606444
1.15583
1.46865
1.50931
1.2791
0.81485
0.182681
-0.532181
-1.23785
-1.8487
-2.2968
-2.54049
-2.56874
-2.40097
-2.08261
-1.6769
-1.25453
-0.882442
-0.613566
-0.47878
-0.482322
-0.601181
-0.788547
-0.980808
-1.10715
-1.10044
-0.907894
-0.500071
0.123021
0.929644
1.85816
2.82285
3.72294
4.4539
4.91946
5.04297
4.77662
4.10742
3.05908
1.68964
0.0850043
-1.65064
-3.40636
-5.07646
-6.5713
-7.82569
-8.8036
-9.49885
-9.93164
-10.1417
-10.1788
-10.0927
-9.92356
-9.69433
-9.40648
-9.03954
-8.55444
-7.90029
-7.02357
-5.87853
-4.4375
-2.69941
-0.695691
1.5077
3.81242
6.09415
8.21309
10.0277
11.4108
12.2677
12.5529
12.2871
11.5685
10.58
9.58678
8.92439
8.97588
10.1381
12.7804
17.1986
23.5717
31.9244
42.1031
53.7688
66.408
79.3631
91.8793
103.164
112.451
119.07
122.504
122.44
118.794
111.727
101.627
89.0826
74.826
59.674
44.4581
29.9564
16.833
5.59052
-3.45946
-10.2059
-14.7247
-17.2419
-18.0731
-17.5397
-15.8666
-13.0693
-8.84658
-2.50024
7.0888
21.4021
42.1228
70.8705
108.853
156.484
213.036
276.402
343.045
408.171
466.133
511.044
537.497
541.314
520.187
474.117
405.58
319.37
222.138
121.691
26.1351
-57.0252
-121.701
-163.855
-181.878
-176.663
-151.387
-111.029
-61.7134
-9.9456
38.135
77.4142
104.291
116.949
115.397
101.289
77.5677
47.9846
16.5719
-12.87
-37.2059
-54.2752
-63.0515
-63.6475
-57.1792
-45.5215
-30.9949
-16.0303
-2.85506
6.76252
11.6843
11.4774
6.39246
-2.73999
-14.6751
-27.9524
-41.1002
-52.8175
-62.1155
-68.4026
-71.5104
-71.6634
-69.4017
-65.4733
-60.7111
-55.9135
-51.7427
-48.6511
-46.8445
-46.2801
-46.6984
-47.6803
-48.7201
-49.3025
-48.9753
-47.4054
-44.416
-39.999
-34.3044
-27.6098
-20.2756
-12.6928
-5.2313
1.80459
8.20882
13.8903
18.8737
23.2844
27.3235
31.2336
35.2645
39.6406
44.5352
50.0542
56.2287
63.0172
70.3139
77.9609
85.7629
93.4996
100.937
107.838
113.966
119.093
123.008
125.518
126.46
125.706
123.175
118.837
112.723
104.93
95.6217
85.032
73.4547
61.233
48.7402
36.3544
24.4301
13.2688
3.09283
-5.9727
-13.9087
-20.7979
-26.8093
-32.1717
-37.1411
-41.966
-46.8544
-51.9487
-57.3094
-62.9113
-68.6506
-74.3615
-79.8395
-84.8679
-89.2427
-92.7941
-95.4012
-96.9992
-97.5795
-97.1833
-95.8912
-93.8104
-91.0616
-87.7678
-84.0454
-79.9985
-75.7158
-71.27
-66.7188
-62.1063
-57.4644
-52.8144
-48.1675
-43.5262
-38.8852
-34.2342
-29.5604
-24.8534
-20.1093
-15.3354
-10.5537
-5.80279
-1.13714
3.37574
7.66089
11.6431
15.2552
18.4458
21.1857
23.4721
25.329
26.8041
27.9628
28.8784
29.6221
30.2516
30.8016
31.2779
31.6546
31.8763
31.8647
31.5297
30.7817
29.5457
27.7738
25.4543
22.6164
19.3298
15.698
11.8477
7.91464
4.02819
0.297326
-3.20067
-6.42657
-9.38012
-12.0953
-14.631
-17.0578
-19.4443
-21.8434
-24.2819
-26.7538
-29.2195
-31.6087
-33.8292
-35.7772
-37.3492
-38.453
-39.0158
-38.9897
-38.3534
-37.1106
-35.2881
-32.9317
-30.1037
-26.8811
-23.354
-19.6251
-15.8084
-12.0263
-8.4053
-5.06955
-2.13298
0.309491
2.19021
3.4755
4.16962
4.31519
3.98985
3.29924
2.36711
1.32365
0.293408
-0.615865
-1.32206
-1.77437
-1.95517
-1.87782
-1.58088
-1.11923
-0.553296
0.0623209
0.689196
1.31293
1.94714
2.63273
3.43222
4.41973
5.66785
7.23339
9.14415
11.389
13.9129
16.618
19.3707
22.0142
24.3847
26.3288
27.7209
28.4771
28.5644
28.0048
26.8731
25.2894
23.4069
21.3972
19.4335
17.6753
16.2538
15.2615
14.7451
14.7034
15.0895
15.8164
16.767
17.8054
18.7895
19.5841
20.0726
20.1661
19.8102
18.9888
17.7232
16.0696
14.1123
11.9556
9.71425
7.50316
5.42831
3.57847
2.01932
0.789873
-0.0983375
-0.659606
-0.930154
-0.962593
-0.819412
-0.566216
-0.265397
0.029151
0.275848
0.447526
0.53174
0.529429
0.452167
0.318389
0.149033
-0.0369284
-0.226554
-0.416121
-0.613003
-0.835927
-1.11346
-1.48074
-1.97486
-2.62914
-3.46731
-4.49803
-5.71072
-7.07336
-8.53256
-10.0163
-11.4388
-12.7079
-13.7328
-14.4325
-14.7433
-14.6245
-14.0622
-13.0695
-11.6852
-9.96981
-7.99955
-5.86049
-3.64209
-1.43173
0.689646
2.6503
4.38906
5.85535
7.00811
7.81386
8.24404
8.2715
7.86629
6.99092
5.59575
3.61579
0.970224
-2.43384
-6.69222
-11.8891
-18.0779
-25.2593
-33.3607
-42.2201
-51.5796
-61.09
-70.3313
-78.8436
-86.1685
-91.8922
-95.6811
-97.3019
-96.6171
-93.5505
-88.0244
-79.8782
-68.7853
-54.1946
-35.3242
-11.2298
19.0392
56.2061
100.483
151.293
207.048
265.066
321.642
372.325
412.349
437.2
443.214
428.136
391.534
335.012
262.159
178.257
89.7514
3.57701
-73.5951
-136.075
-179.753
-202.503
-204.341
-187.339
-155.29
-113.205
-66.6865
-21.2765
18.1489
47.864
65.6098
70.716
64.0277
47.6627
24.6411
-1.55679
-27.4454
-49.9464
-66.7126
-76.3326
-78.4034
-73.4743
-62.8816
-48.5048
-32.4816
-16.9204
-3.64553
5.99641
11.2526
11.995
8.67233
2.19549
-6.22101
-15.239
-23.5733
-30.1431
-34.1842
-35.3092
-33.5165
-29.1506
-22.8236
-15.312
-7.44407
0.00814342
6.41784
11.3655
14.6686
16.3783
16.7475
16.1768
15.1478
14.1525
13.6304
13.9179
15.2185
17.5927
20.9712
25.184
30.0036
35.1928
40.5508
45.9507
51.3604
56.848
62.5662
68.7227
75.5392
83.2062
91.8418
101.459
111.951
123.088
134.539
145.903
156.749
166.666
175.298
182.38
187.755
191.373
193.279
193.586
192.442
189.991
186.342
181.546
175.588
168.387
159.821
149.758
138.099
124.816
109.988
93.8232
76.6636
58.965
41.2644
24.131
8.1114
-6.32375
-18.8244
-29.1911
-37.3859
-43.5254
-47.8554
-50.7133
-52.4829
-53.5472
-54.2471
-54.8479
-55.5188
-56.3268
-57.2422
-58.1569
-58.9088
-59.312
-59.1857
-58.381
-56.8
-54.4083
-51.2374
-47.3789
-42.9715
-38.1832
-33.1915
-28.1634
-23.2396
-18.5228
-14.0728
-9.90692
-6.00761
-2.33281
1.17054
4.55317
7.85211
11.0829
14.2366
17.2814
20.1686
22.8419
25.2471
27.3424
29.1048
30.5337
31.6494
32.4865
33.0838
33.4723
33.6626
33.6342
33.3296
32.6523
31.4734
29.642
27.0033
23.4189
18.7887
13.0717
6.30128
-1.40581
-9.84858
-18.7502
-27.7746
-36.5492
-44.6929
-51.8451
-57.6944
-62.0028
-64.6247
-65.5177
-64.7449
-62.4683
-58.9338
-54.45
-49.3619
-44.0222
-38.7637
-33.8737
-29.5745
-26.0101
-23.2412
-21.248
-19.9402
-19.1734
-18.7692
-18.5369
-18.2952
-17.8903
-17.2102
-16.1926
-14.8273
-13.1521
-11.2442
-9.20769
-7.15926
-5.2139
-3.47214
-2.01028
-0.874241
-0.0775606
0.396762
0.591187
0.566263
0.392069
0.139611
-0.126829
-0.355608
-0.511421
-0.576625
-0.550316
-0.445574
-0.285421
-0.0981434
0.0873496
0.245598
0.357643
0.412825
0.409257
0.353084
0.256776
0.136796
0.0110044
-0.103818
-0.194032
-0.250575
-0.269642
-0.252621
-0.205363
-0.136966
-0.0582542
0.0198065
0.0875567
0.137785
0.166428
0.172774
0.159177
0.130351
0.0924138
0.051826
0.0144301
-0.0152553
-0.0343664
-0.0415978
-0.0367151
-0.0197964
0.00959477
0.0530732
0.113715
0.195824
0.304169
0.442816
0.613814
0.816065
1.04472
1.2914
1.54534
1.7954
2.03272
2.25341
2.46082
2.66684
2.89163
3.16187
3.50741
3.95686
4.5326
5.24617
6.09454
7.05809
8.10067
9.17197
10.2119
11.1569
11.9467
12.5321
12.8808
12.9826
12.8518
12.5266
12.0665
11.5465
11.0494
10.6569
10.44
10.4489
10.7056
11.198
11.877
12.6579
13.4255
14.0428
14.3639
14.2473
13.5715
12.2491
10.2387
7.55369
4.26628
0.506637
-3.54296
-7.65867
-11.5894
-15.074
-17.8592
-19.7178
-20.4645
-19.9694
-18.1666
-15.059
-10.7181
-5.27806
1.07313
8.10723
15.5712
23.2041
30.753
37.9869
44.7077
50.7558
56.0109
60.388
63.8293
66.2929
67.7426
68.1385
67.4329
65.573
62.5096
58.2118
52.6858
45.9929
38.2638
29.7055
20.5982
11.28
2.12279
-6.50075
-14.253
-20.8637
-26.1526
-30.033
-32.4917
-33.5404
-33.1409
-31.1129
-27.0398
-20.1989
-9.54124
6.25041
28.6108
58.8478
97.8276
145.635
201.274
262.471
325.661
386.169
438.615
477.491
497.846
495.972
469.993
420.255
349.444
262.409
165.7
66.8816
-26.2974
-106.75
-168.82
-208.864
-225.581
-220.054
-195.512
-156.85
-109.98
-61.1026
-15.9956
20.6028
45.439
56.9803
55.4286
42.5272
21.2013
-4.91008
-31.964
-56.3999
-75.3448
-86.8953
-90.2536
-85.714
-74.5173
-58.6015
-40.2929
-21.9782
-5.80315
6.56939
14.1175
16.5223
14.137
7.87578
-0.95651
-10.8651
-20.3699
-28.1876
-33.3711
-35.3929
-34.1685
-30.0221
-23.6046
-15.7788
-7.48965
0.363988
7.03919
12.029
15.1054
16.3228
15.9862
14.5903
12.7401
11.0656
10.1408
10.4178
12.1823
15.5347
20.3969
26.5404
33.6314
41.2846
49.1176
56.8
64.0907
70.8593
77.0915
82.8784
88.3932
93.8589
99.5123
105.569
112.193
119.479
127.434
135.986
144.984
154.222
163.456
172.43
180.894
188.627
195.439
201.18
205.732
208.995
210.877
211.274
210.059
207.075
202.141
195.062
185.656
173.784
159.392
142.539
123.434
102.449
80.1157
57.1084
34.2016
12.2145
-8.05515
-25.9002
-40.7672
-52.3069
-60.4041
-65.1853
-67.0011
-66.3871
-64.0069
-60.5838
-56.8297
-53.3782
-50.7298
-49.2136
-48.9694
-49.9507
-51.9477
-54.6257
-57.5736
-60.3576
-62.5727
-63.8862
-64.0701
-63.0184
-60.7495
-57.3939
-53.1707
-48.3555
-43.2451
-38.1234
-33.2316
-28.7458
-24.7656
-21.3114
-18.3333
-15.7266
-13.354
-11.0702
-8.74582
-6.28719
-3.65091
-0.850133
2.04709
4.92708
7.64593
10.0489
11.9909
13.3564
14.0741
14.1279
13.5592
12.4632
10.9793
9.27511
7.5292
5.91186
4.56804
3.60353
3.07608
2.99217
3.30968
3.94584
4.78917
5.71412
6.59624
7.32628
7.8215
8.03296
7.94814
7.58887
7.00506
6.26538
5.44626
4.62088
3.84962
3.17328
2.60984
2.15509
1.78669
1.47095
1.17096
0.854909
0.503042
0.112206
-0.302717
-0.710746
-1.06973
-1.33346
-1.45972
-1.418
-1.19559
-0.801032
-0.264384
0.365723
1.02787
1.65558
2.18588
2.56732
2.76642
2.77147
2.59327
2.26283
1.8264
1.33878
0.85591
0.427724
0.0924411
-0.127213
-0.225413
-0.212292
-0.11099
0.0467275
0.225552
0.391683
0.517159
0.582979
0.580714
0.512548
0.389903
0.230975
0.0576027
-0.108078
-0.246798
-0.344834
-0.39602
-0.402975
-0.377442
-0.33963
-0.316428
-0.338437
-0.435901
-0.633828
-0.946848
-1.37453
-1.89795
-2.47842
-3.05877
-3.56784
-3.92773
-4.06354
-3.91414
-3.44282
-2.64586
-1.55774
-0.251771
1.16424
2.55717
3.78146
4.69438
5.17162
5.12123
4.49413
3.28977
1.55621
-0.615226
-3.10012
-5.75445
-8.4297
-10.9877
-13.3136
-15.325
-16.977
-18.2628
-19.2096
-19.8708
-20.3168
-20.624
-20.8649
-21.0999
-21.3712
-21.7007
-22.0898
-22.5232
-22.9735
-23.4077
-23.793
-24.1023
-24.3176
-24.4312
-24.4454
-24.369
-24.2139
-23.9899
-23.7007
-23.3403
-22.8914
-22.3266
-21.6109
-20.7068
-19.5802
-18.2064
-16.5751
-14.6937
-12.5881
-10.3
-7.88281
-5.39502
-2.89253
-0.421854
1.98556
4.31651
6.5762
8.78546
10.9753
13.1798
15.429
17.7421
20.1234
22.5614
25.0312
27.5
29.9353
32.3135
34.6286
36.8979
39.1649
41.4982
43.9853
46.7237
49.8079
53.3166
57.2976
61.756
66.6438
71.8542
77.22
82.5187
87.4809
91.8055
95.1776
97.2896
97.8645
96.6776
93.5779
88.5044
81.4974
72.7032
62.3699
50.836
38.5107
25.8493
13.3241
1.39535
-9.51519
-19.0425
-26.8842
-32.7883
-36.5191
-37.8007
-36.2463
-31.2881
-22.1312
-7.76029
12.9764
41.1931
77.708
122.733
175.564
234.346
295.979
356.214
409.972
451.859
476.81
480.785
461.397
418.366
353.733
271.765
178.569
81.4659
-11.818
-94.0026
-159.057
-202.84
-223.496
-221.577
-199.86
-162.923
-116.526
-66.8853
-19.9484
19.2569
47.1128
61.6984
62.852
52.0186
31.9195
6.09795
-21.5908
-47.4792
-68.515
-82.5724
-88.618
-86.7247
-77.9488
-64.0953
-47.4151
-30.2758
-14.851
-2.86534
4.57878
7.07926
4.91594
-1.05179
-9.55052
-19.0943
-28.1932
-35.5423
-40.1677
-41.5179
-39.4909
-34.4038
-26.9107
-17.8877
-8.30082
0.924043
9.01223
15.4213
19.8844
22.4139
23.2699
22.9009
21.8666
20.7558
20.1087
20.3548
21.7706
24.4625
28.3727
33.3076
38.9802
45.0633
51.2437
57.2712
62.9963
68.3904
73.5479
78.6685
84.0229
89.9068
96.59
104.267
113.019
122.785
133.36
144.404
155.471
166.053
175.625
183.701
189.872
193.845
195.462
194.707
191.693
186.638
179.83
171.587
162.218
151.982
141.075
129.62
117.676
105.266
92.4086
79.1588
65.6357
52.0448
38.6809
25.9128
14.1502
3.79794
-4.79669
-11.3947
-15.9055
-18.4096
-19.1595
-18.5573
-17.1118
-15.3807
-13.9064
-13.1538
-13.4583
-14.9918
-17.7496
-21.5595
-26.1119
-31.0038
-35.793
-40.0528
-43.4217
-45.642
-46.5827
-46.2456
-44.7554
-42.3358
-39.2754
-35.8895
-32.4822
-29.3129
-26.5723
-24.3682
-22.723
-21.5825
-20.8318
-20.3184
-19.8768
-19.3521
-18.6207
-17.6038
-16.2742
-14.6562
-12.8176
-10.8575
-8.89052
-7.03035
-5.37461
-3.99314
-2.92092
-2.15642
-1.66501
-1.38689
-1.248
-1.17216
-1.09268
-0.961787
-0.756445
-0.479939
-0.15912
0.16209
0.431763
0.60005
0.628626
0.498008
0.211628
-0.203869
-0.702034
-1.22307
-1.70224
-2.0789
-2.30478
-2.35024
-2.20781
-1.89235
-1.43795
-0.892014
-0.307303
0.266789
0.792552
1.25051
1.64317
1.99523
2.35024
2.76393
3.29519
3.99597
4.90147
6.0219
7.33729
8.79578
10.316
11.793
13.1077
14.138
14.7704
14.912
14.4993
13.5052
11.9414
9.85777
7.33829
4.49383
1.45355
-1.64442
-4.66202
-7.46903
-9.94943
-12.0058
-13.5623
-14.566
-14.9877
-14.8221
-14.0869
-12.8235
-11.0955
-8.98831
-6.60707
-4.07336
-1.52054
0.912691
3.09012
4.88672
6.19746
6.94555
7.089
6.62511
5.59194
4.06676
2.16123
0.0136414
-2.2213
-4.38417
-6.32325
-7.90631
-9.03098
-9.63244
-9.68806
-9.21818
-8.28326
-6.9775
-5.41957
-3.74154
-2.07685
-0.548751
0.739903
1.71452
2.33363
2.59046
2.51106
2.14951
1.58061
0.890996
0.169693
-0.500995
-1.05321
-1.43917
-1.63431
-1.63759
-1.46929
-1.16665
-0.777992
-0.356194
0.047806
0.39062
0.640629
0.780426
0.807389
0.732505
0.577796
0.372821
0.150769
-0.0553439
-0.215967
-0.307525
-0.313998
-0.227579
-0.0484977
0.215801
0.551963
0.94235
1.36685
1.80478
2.23676
2.64646
3.02195
3.35669
3.64977
3.90554
4.13259
4.34225
4.54683
4.758
4.98557
5.23698
5.51778
5.83307
6.18967
6.59879
7.07864
7.65634
8.36875
9.26192
10.3888
11.8054
13.5661
15.718
18.2954
21.3148
24.7715
28.6368
32.8564
37.3506
42.0141
46.717
51.3061
55.6069
59.4274
62.5635
64.807
65.9561
65.8268
64.2673
61.1714
56.4906
50.2454
42.5312
33.5207
23.4608
12.6633
1.49085
-9.66217
-20.3915
-30.306
-39.0501
-46.3211
-51.8799
-55.5489
-57.1941
-56.6888
-53.8596
-48.4228
-39.9257
-27.7155
-10.9572
11.2765
39.8394
75.2771
117.559
165.823
218.204
271.785
322.729
366.588
398.773
415.12
412.478
389.22
345.594
283.851
208.118
124.015
38.0834
-42.9281
-112.8
-166.518
-200.8
-214.397
-208.158
-184.838
-148.691
-104.918
-59.0246
-16.1952
19.2593
44.3085
57.4286
58.634
49.3254
31.9885
9.79192
-13.8587
-35.751
-53.2327
-64.4734
-68.6026
-65.7171
-56.7715
-43.3753
-27.5327
-11.3602
3.17985
14.5008
21.5462
23.8652
21.6104
15.4632
6.50554
-3.94362
-14.5035
-23.8977
-31.0925
-35.3946
-36.4995
-34.4912
-29.7955
-23.0986
-15.2424
-7.11066
0.478231
6.86141
11.5942
14.481
15.5731
15.1374
13.6029
11.4922
9.35094
7.68138
6.89034
7.25547
8.91251
11.8627
15.9966
21.1298
27.043
33.5208
40.3849
47.5143
54.8545
62.4116
70.2361
78.3978
86.9574
95.9398
105.313
114.974
124.753
134.414
143.685
152.275
159.906
166.34
171.398
174.978
177.054
177.673
176.939
174.991
171.978
168.029
163.237
157.639
151.211
143.875
135.52
126.026
115.308
103.347
90.226
76.1518
61.4588
46.5964
32.0957
18.5222
6.41766
-3.75875
-11.6836
-17.2078
-20.3758
-21.4224
-20.7461
-18.8654
-16.3601
-13.8088
-11.7274
-10.519
-10.4379
-11.5744
-13.8583
-17.0814
-20.9337
-25.0487
-29.0509
-32.5998
-35.4256
-37.352
-38.3063
-38.3149
-37.4887
-35.9986
-34.0476
-31.8421
-29.5665
-27.3641
-25.3266
-23.4914
-21.8482
-20.352
-18.9402
-17.5509
-16.1396
-14.6914
-13.2276
-11.8046
-10.5059
-9.42879
-8.66685
-8.291
-8.33268
-8.77112
-9.52727
-10.4658
-11.405
-12.1349
-12.4403
-12.1268
-11.0471
-9.1235
-6.36378
-2.86813
1.17392
5.49702
9.78272
13.6891
16.8837
19.0774
20.0531
19.6893
17.9731
15.0033
10.9826
6.19982
1.00416
-4.22622
-9.11782
-13.3346
-16.6068
-18.7528
-19.6922
-19.4493
-18.1451
-15.9819
-13.2191
-10.1447
-7.04613
-4.18222
-1.75996
0.0812217
1.27702
1.83698
1.83537
1.39564
0.671053
-0.176233
-0.994756
-1.66004
-2.0859
-2.22989
-2.09299
-1.714
-1.16012
-0.515017
0.133625
0.705754
1.13831
1.39145
1.45129
1.32903
1.05714
0.683236
0.262737
-0.148741
-0.502237
-0.76079
-0.902768
-0.922978
-0.831623
-0.651481
-0.413808
-0.153625
0.0949869
0.302981
0.449397
0.523096
0.523097
0.457621
0.342092
0.19646
0.0422375
-0.100337
-0.214684
-0.289549
-0.319839
-0.306592
-0.256188
-0.178974
-0.0875484
0.00506582
0.0870957
0.149362
0.186153
0.195571
0.179359
0.1423
0.0912825
0.0342164
-0.0210728
-0.0678178
-0.101048
-0.118021
-0.118334
-0.103721
-0.077609
-0.0445071
-0.00932382
0.0232927
0.0495115
0.066714
0.0736943
0.0706604
0.0590583
0.041258
0.0201575
-0.00123797
-0.0202055
-0.0346166
-0.0431424
-0.0453352
-0.0415919
-0.0330137
-0.0211932
-0.00796172
0.00486649
0.0157205
0.0234445
0.0273992
0.0274879
0.0241143
0.0180944
0.0105654
0.00295807
-0.00288377
-0.00435538
0.00252034
0.0239275
0.0691716
0.151437
0.288099
0.500307
0.811669
1.246
1.82434
2.56159
3.46326
4.52299
5.72113
7.02483
8.38958
9.7622
11.0846
12.2984
13.3491
14.1907
14.7887
15.1236
15.1928
15.0115
14.614
14.0528
13.3979
12.7354
12.164
11.792
11.7332
12.1008
13.0021
14.5322
16.7669
19.7571
23.5235
28.0517
33.2904
39.1492
45.4996
52.1768
58.9832
65.694
72.0636
77.8339
82.742
86.5297
88.9518
89.7846
88.8356
85.9531
81.0378
74.0557
65.0513
54.1593
41.6129
27.7454
12.9847
-2.16256
-17.1341
-31.3428
-44.2102
-55.1984
-63.8322
-69.7057
-72.4652
-71.7669
-67.2151
-58.2947
-44.3222
-24.4435
2.29425
36.7829
79.61
130.764
189.34
253.318
319.476
383.492
440.257
484.37
510.764
515.38
495.776
451.57
384.662
299.157
201.02
97.4806
-3.72449
-95.1791
-170.57
-225.332
-257.071
-265.726
-253.451
-224.254
-183.439
-136.935
-90.6072
-49.6123
-17.9004
2.11092
9.65232
5.51724
-8.19885
-28.4869
-51.8818
-74.9282
-94.5961
-108.603
-115.612
-115.293
-108.256
-95.8762
-80.0426
-62.8707
-46.4157
-32.4224
-22.1389
-16.2103
-14.6574
-16.9351
-22.0551
-28.7531
-35.6738
-41.5506
-45.3583
-46.4221
-44.473
-39.6486
-32.4432
-23.6179
-14.0855
-4.78626
3.42976
9.899
14.2105
16.2358
16.1218
14.2519
11.1819
7.56133
4.05149
1.25072
-0.36486
-0.47903
1.05071
4.20219
8.81673
14.6403
21.3709
28.7047
36.3758
44.1828
52.0028
59.79
67.5621
75.3775
83.3085
91.4136
99.7155
108.185
116.737
125.231
133.486
141.297
148.456
154.774
160.098
164.323
167.403
169.344
170.199
170.053
169.007
167.151
164.55
161.222
157.129
152.176
146.222
139.098
130.641
120.732
109.33
96.5057
82.4602
67.5286
52.1642
36.904
22.3211
8.9683
-2.67941
-12.2743
-19.6315
-24.7458
-27.7866
-29.073
-29.0324
-28.1478
-26.9023
-25.7259
-24.9536
-24.7968
-25.3335
-26.5138
-28.1823
-30.1108
-32.0359
-33.6985
-34.8767
-35.4113
-35.2192
-34.2962
-32.709
-30.5791
-28.0625
-25.3279
-22.5357
-19.8224
-17.2898
-15.0004
-12.9785
-11.2164
-9.68311
-8.33523
-7.12663
-6.01723
-4.97875
-3.99754
-3.07419
-2.22061
-1.45522
-0.79725
-0.261176
0.147789
0.436424
0.624038
0.74072
0.823583
0.911582
1.03972
1.23355
1.50485
1.84921
2.24598
2.66064
3.04942
3.36538
3.56529
3.61622
3.50077
3.22026
2.79517
2.26283
1.67238
1.07787
0.530436
0.0706193
-0.277762
-0.511326
-0.647662
-0.722483
-0.783707
-0.883273
-1.06792
-1.37036
-1.80233
-2.35069
-2.97741
-3.62357
-4.21684
-4.68153
-4.94957
-4.97081
-4.72095
-4.20593
-3.46183
-2.55033
-1.55029
-0.546768
0.380954
1.17041
1.78437
2.21542
2.48591
2.64348
2.75284
2.8851
3.10646
3.46801
3.99801
4.69799
5.54285
6.48483
7.46059
8.40011
9.23612
9.91279
10.3925
10.6601
10.7241
10.6154
10.3832
10.0893
9.80166
9.58664
9.50224
9.59154
9.87745
10.359
11.0099
11.7786
12.592
13.3609
13.9876
14.3761
14.4416
14.1208
13.3804
12.2219
10.6835
8.83744
6.78349
4.63869
2.52567
0.560358
-1.15907
-2.56047
-3.60243
-4.27489
-4.59591
-4.60547
-4.35746
-3.91134
-3.32483
-2.6488
-1.92493
-1.18628
-0.460075
0.228003
0.849474
1.36972
1.74677
1.93269
1.87784
1.53724
0.878329
-0.111432
-1.41838
-2.99934
-4.78196
-6.66911
-8.54701
-10.2962
-11.8036
-12.975
-13.7449
-14.0834
-13.9995
-13.5389
-12.7789
-11.8186
-10.7684
-9.73773
-8.82411
-8.1038
-7.6255
-7.4074
-7.4376
-7.67776
-8.06929
-8.54121
-9.01875
-9.43168
-9.72148
-9.84664
-9.78561
-9.53705
-9.11764
-8.55747
-7.8939
-7.16432
-6.39898
-5.61465
-4.80989
-3.96283
-3.03166
-1.95801
-0.673002
0.89467
2.8096
5.12054
7.8526
11.0019
14.5336
18.3836
22.4646
26.6741
30.9054
35.0584
39.0491
42.8165
46.3255
49.5657
52.5454
55.2838
57.7995
60.1012
62.1781
63.9955
65.4932
66.5898
67.1899
67.1951
66.5161
65.0835
62.8575
59.8336
56.0441
51.5554
46.4624
40.8788
34.9268
28.7257
22.3816
15.9798
9.58294
3.23712
-3.00812
-9.06429
-14.7511
-19.7304
-23.4361
-25.0195
-23.3301
-16.9588
-4.36077
15.9366
45.0534
83.4411
130.586
184.794
243.12
301.484
354.984
398.384
426.722
435.953
423.528
388.829
333.371
260.749
176.318
86.6495
-1.1745
-80.3272
-144.97
-190.856
-215.739
-219.526
-204.186
-173.417
-132.137
-85.8643
-40.0705
0.415709
31.8835
52.0476
60.1644
56.9589
44.3863
25.2726
2.88736
-19.4934
-38.9804
-53.3777
-61.3736
-62.6054
-57.6008
-47.6186
-34.4149
-19.9736
-6.23628
5.13561
12.9396
16.537
15.878
11.4514
4.17369
-4.76397
-14.0676
-22.5078
-29.0641
-33.0288
-34.0635
-32.2049
-27.8238
-21.5469
-14.1544
-6.46854
0.753967
6.91044
11.6144
14.7255
16.3455
16.7865
16.514
16.0778
16.0379
16.8961
19.0404
22.7081
27.9696
34.733
42.7668
51.736
61.2463
70.8894
80.2863
89.1216
97.1676
104.296
110.476
115.769
120.309
124.28
127.904
131.414
135.043
139.009
143.5
148.664
154.596
161.322
168.793
176.87
185.323
193.831
201.988
209.325
215.331
219.488
221.306
220.359
216.323
209.006
198.37
184.543
167.824
148.67
127.677
105.543
83.0276
60.9059
39.9141
20.7043
3.80308
-10.4177
-21.757
-30.1859
-35.8343
-38.9662
-39.9476
-39.2104
-37.2177
-34.4324
-31.2929
-28.1941
-25.4745
-23.4068
-22.191
-21.9483
-22.7163
-24.4458
-27.0021
-30.171
-33.6722
-37.1808
-40.3537
-42.8621
-44.4229
-44.8283
-43.967
-41.8365
-38.5418
-34.2839
-29.3358
-24.0125
-18.6366
-13.5052
-8.86142
-4.87356
-1.62515
0.885336
2.73478
4.05843
5.02815
5.82908
6.63762
7.60294
8.83357
10.3897
12.2814
14.4707
16.8789
19.3949
21.8858
24.2075
26.2152
27.7747
28.7721
29.1247
28.7906
27.7764
26.1432
24.0064
21.5311
18.9198
16.3941
14.1721
12.4425
11.3415
10.9338
11.2023
12.0481
13.3002
14.736
16.1078
17.1732
17.7243
17.6126
16.766
15.1954
12.992
10.3137
7.36486
4.37117
1.55313
-0.898152
-2.84037
-4.19223
-4.9377
-5.12209
-4.84117
-4.2252
-3.42023
-2.56937
-1.79636
-1.19352
-0.815142
-0.676697
-0.759426
-1.01897
-1.39637
-1.82954
-2.26336
-2.65693
-2.98721
-3.24878
-3.45033
-3.60866
-3.74191
-3.86306
-3.97527
-4.06966
-4.12604
-4.11627
-4.00961
-3.77889
-3.40657
-2.88933
-2.24065
-1.49067
-0.683462
0.127891
0.887764
1.54497
2.05925
2.40634
2.58083
2.59636
2.48313
2.28303
2.04291
1.80722
1.61078
1.473
1.39424
1.35507
1.31844
1.23463
1.04823
0.706096
0.165228
-0.600687
-1.59703
-2.80692
-4.1929
-5.70128
-7.26824
-8.82664
-10.3123
-11.669
-12.8516
-13.8268
-14.5731
-15.0788
-15.3397
-15.3577
-15.1389
-14.6931
-14.034
-13.1796
-12.1526
-10.9812
-9.69907
-8.34476
-6.96043
-5.59012
-4.27742
-3.06296
-1.98186
-1.06135
-0.318892
0.239265
0.618969
0.838468
0.92814
0.929524
0.893491
0.877404
0.941134
1.14202
1.52902
2.13671
2.97962
4.04797
5.30542
6.68947
8.11488
9.47991
10.6752
11.5942
12.1444
12.2578
11.8997
11.0744
9.82795
8.24573
6.44705
4.57559
2.78741
1.23746
0.0660841
-0.612966
-0.721684
-0.223015
0.878526
2.54092
4.69288
7.24517
10.1035
13.1815
16.4109
19.7495
23.1834
26.7247
30.4041
34.2605
38.3266
42.6154
47.1072
51.7404
56.4063
60.9501
65.1763
68.8591
71.757
73.6281
74.248
73.4265
71.024
66.9661
61.2557
53.9808
45.3182
35.5304
24.9549
13.9866
3.0538
-7.41084
-16.9976
-25.3411
-32.1276
-37.0816
-39.9295
-40.3424
-37.8681
-31.8718
-21.5073
-5.74435
16.5305
46.3344
84.3425
130.608
184.297
243.502
305.173
365.239
418.892
461.057
486.966
492.777
476.135
436.601
375.856
297.657
207.529
112.224
19.0205
-65.0511
-133.956
-183.279
-210.653
-215.937
-201.129
-170.046
-127.803
-80.1745
-32.9252
8.82058
41.0838
61.3674
68.7931
64.0395
49.1045
26.937
0.992028
-25.2287
-48.5944
-66.6754
-77.9539
-81.9027
-78.935
-70.2464
-57.5776
-42.9378
-28.3257
-15.4826
-5.70629
0.25989
2.25506
0.653176
-3.74675
-9.8716
-16.5427
-22.639
-27.2342
-29.695
-29.7304
-27.3929
-23.0354
-17.2356
-10.6982
-4.15272
1.74318
6.48108
9.75377
11.4776
11.7855
10.9945
9.55421
7.98436
6.80944
6.49905
7.41991
9.8039
13.7342
19.1492
25.8616
33.5895
41.9944
50.7212
59.4369
67.8621
75.7944
83.1204
89.8167
95.9402
101.61
106.984
112.228
117.494
122.897
128.492
134.275
140.175
146.067
151.781
157.126
161.906
165.94
169.074
171.196
172.229
172.131
170.882
168.471
164.881
160.078
154.009
146.606
137.801
127.543
115.828
102.718
88.3647
73.0137
57.0054
40.7588
24.745
9.45187
-4.65542
-17.1736
-27.7956
-36.3352
-42.7403
-47.0924
-49.5935
-50.5419
-50.2997
-49.2569
-47.7943
-46.2516
-44.9016
-43.9333
-43.4456
-43.45
-43.882
-44.6182
-45.4969
-46.3406
-46.9762
-47.2524
-47.0536
-46.3072
-44.9881
-43.1167
-40.7541
-37.9943
-34.9534
-31.7597
-28.5417
-25.4184
-22.4908
-19.8352
-17.4993
-15.5009
-13.8288
-12.4469
-11.299
-10.3163
-9.42461
-8.55215
-7.63682
-6.63192
-5.51032
-4.26641
-2.91587
-1.4932
-0.04752
1.36303
2.67758
3.83889
4.79911
5.52442
5.99811
6.22196
6.21572
6.01491
5.6671
5.22697
4.75062
4.28972
3.88595
3.5665
3.34112
3.20115
3.12068
3.05999
2.97067
2.80213
2.50856
2.05553
1.42527
0.619968
-0.337616
-1.40623
-2.53078
-3.6488
-4.69777
-5.62203
-6.37827
-6.93877
-7.29206
-7.44129
-7.40093
-7.19261
-6.84113
-6.37127
-5.80587
-5.16535
-4.46826
-3.73267
-2.97758
-2.224
-1.49529
-0.816457
-0.212653
0.293072
0.682262
0.943383
1.07356
1.07937
0.976603
0.788811
0.545024
0.27677
0.0148619
-0.213658
-0.388035
-0.495493
-0.531933
-0.501598
-0.415814
-0.290998
-0.146212
-0.000558092
0.129283
0.231094
0.298513
0.331603
0.336515
0.324257
0.308743
0.304395
0.32368
0.374984
0.4612
0.579257
0.720664
0.872955
1.02178
1.15326
1.2563
1.32438
1.35671
1.35854
1.34055
1.31757
1.30673
1.32551
1.38976
1.51214
1.70105
1.96015
2.28844
2.68064
3.12796
3.61874
4.1391
4.6733
5.2039
5.71179
6.17618
6.57484
6.88452
7.08192
7.14499
7.05471
6.79699
6.36472
5.7594
4.99232
4.0849
3.06796
1.98005
0.864635
-0.233597
-1.27297
-2.21921
-3.04927
-3.75382
-4.33765
-4.8175
-5.21707
-5.55978
-5.86041
-6.11712
-6.30598
-6.37975
-6.27212
-5.90777
-5.21712
-4.15374
-2.71136
-0.937049
1.06223
3.12224
5.03402
6.56596
7.49328
7.63117
6.86675
5.18481
2.68232
-0.431506
-3.85112
-7.20517
-10.0981
-12.1576
-13.0801
-12.6697
-10.8624
-7.73377
-3.48755
1.57251
7.08427
12.6759
18.0148
22.8498
27.0399
30.5671
33.5295
36.1189
38.5844
41.1889
44.165
47.6754
51.785
56.4455
61.4964
66.6788
71.6617
76.0754
79.549
81.7465
82.3991
81.3301
78.4712
73.8692
67.6822
60.167
51.6583
42.5409
33.2178
24.0765
15.4557
7.61712
0.725205
-5.1609
-10.0799
-14.142
-17.4821
-20.1938
-22.2472
-23.4005
-23.1203
-20.5283
-14.4001
-3.23645
14.5786
40.5308
75.6619
120.229
173.4
233.047
295.712
356.771
410.821
452.244
475.884
477.749
455.619
409.469
341.629
256.651
160.886
61.8241
-32.7188
-115.453
-180.404
-223.531
-243.104
-239.797
-216.496
-177.862
-129.709
-78.2838
-29.5484
11.4598
41.109
57.4523
60.2865
51.0003
32.2478
7.5031
-19.4412
-44.9636
-66.0336
-80.5163
-87.3354
-86.4891
-78.9302
-66.3403
-50.8364
-34.6537
-19.8476
-8.04971
-0.304731
3.00106
2.11857
-2.1653
-8.68762
-16.1019
-23.075
-28.462
-31.4401
-31.5865
-28.8969
-23.7478
-16.8121
-8.94466
-1.05367
6.02195
11.6159
15.3059
16.9472
16.668
14.8308
11.9678
8.70319
5.67209
3.44897
2.49244
3.11209
5.4579
9.53004
15.204
22.2651
30.445
39.4561
49.019
58.8799
68.821
78.6613
88.254
97.4803
106.245
114.471
122.103
129.105
135.468
141.213
146.393
151.092
155.421
159.505
163.475
167.443
171.495
175.665
179.925
184.171
188.218
191.794
194.553
196.079
195.919
193.612
188.73
180.935
170.023
155.977
139.001
119.535
98.2495
76.0072
53.8039
32.6855
13.6542
-2.42703
-14.9188
-23.4696
-28.0498
-28.9517
-26.7554
-22.2627
-16.4101
-10.168
-4.44079
0.0217252
2.69166
3.30152
1.8514
-1.41449
-6.05725
-11.5111
-17.1606
-22.4166
-26.7834
-29.9088
-31.6119
-31.8896
-30.8998
-28.9271
-26.337
-23.523
-20.8566
-18.6429
-17.0895
-16.2892
-16.2189
-16.7525
-17.6863
-18.7714
-19.7498
-20.3881
-20.5065
-19.9982
-18.838
-17.08
-14.8453
-12.3015
-9.63826
-7.04215
-4.67398
-2.65208
-1.04296
0.13999
0.930367
1.3969
1.62818
1.7166
1.74385
1.77009
1.8279
1.92151
2.03085
2.11938
2.14395
2.06519
1.8565
1.51042
1.04156
0.485807
-0.104054
-0.66528
-1.13384
-1.45341
-1.58335
-1.50467
-1.22301
-0.768326
-0.191371
0.44254
1.06154
1.59589
1.98622
2.19024
2.18713
1.97923
1.59091
1.06503
0.457539
-0.168959
-0.75175
-1.23397
-1.56924
-1.72469
-1.68201
-1.43688
-0.996978
-0.379052
0.394152
1.29677
2.30196
3.38314
4.5143
5.66975
6.8234
7.94831
9.01651
9.99965
10.8702
11.603
12.1773
12.5781
12.7969
12.8315
12.6847
12.3618
11.8683
11.2072
10.3766
9.37028
8.17849
6.79211
5.20807
3.43596
1.50445
-0.533842
-2.60045
-4.59322
-6.39313
-7.87542
-8.92412
-9.44805
-9.3959
-8.76806
-7.62299
-6.07665
-4.2946
-2.47734
-0.840422
0.408266
1.09123
1.0814
0.316865
-1.19153
-3.36061
-6.0434
-9.04456
-12.1409
-15.1048
-17.7265
-19.8351
-21.3132
-22.1057
-22.2208
-21.7248
-20.7297
-19.3779
-17.8237
-16.2155
-14.6807
-13.3138
-12.1701
-11.2644
-10.5756
-10.0538
-9.63192
-9.2368
-8.80089
-8.27127
-7.61605
-6.82709
-5.9194
-4.92745
-3.89924
-2.88929
-1.9513
-1.13162
-0.46421
0.0326774
0.357713
0.525955
0.566769
0.520672
0.435552
0.362708
0.353073
0.453871
0.705826
1.14096
1.78094
2.63585
3.70359
4.96975
6.40834
7.98328
9.65107
11.3643
13.0759
14.7449
16.3405
17.8484
19.2738
20.6443
22.0101
23.4421
25.0265
26.8586
29.0337
31.6376
34.7372
38.3721
42.5476
47.2295
52.3419
57.7667
63.3454
68.8837
74.1573
78.9204
82.9161
85.8888
87.5994
87.8414
86.459
83.3635
78.5478
72.0966
64.1892
55.0942
45.1558
34.7714
24.3624
14.3411
5.07806
-3.12552
-10.0552
-15.584
-19.6525
-22.2249
-23.2219
-22.4388
-19.4622
-13.6083
-3.90756
10.8389
31.9159
60.4642
97.1856
142.027
193.902
250.525
308.402
363.029
409.287
442.01
456.635
449.866
420.212
368.344
297.178
211.672
118.35
24.6111
-62.0786
-135.015
-188.985
-220.811
-229.638
-216.94
-186.249
-142.658
-92.1655
-40.9515
5.32165
42.1003
66.3574
76.8004
73.8569
59.4601
36.6735
9.21592
-19.0477
-44.5844
-64.5843
-77.2249
-81.7886
-78.632
-69.0269
-54.9033
-38.5378
-22.2307
-8.01341
2.5802
8.65625
10.0077
7.06973
0.797678
-7.50828
-16.4051
-24.5068
-30.6575
-34.0581
-34.3358
-31.5515
-26.1528
-18.8811
-10.6505
-2.41579
4.95307
10.7737
14.6219
16.3624
16.1415
14.3442
11.5254
8.32646
5.38906
3.27733
2.41841
3.06698
5.2962
9.01365
13.9973
19.9441
26.5232
33.4254
40.4012
47.285
54.0018
60.5579
67.0201
73.4865
80.0567
86.8046
93.7594
100.897
108.141
115.376
122.463
129.263
135.656
141.555
146.918
151.742
156.06
159.92
163.367
166.417
169.041
171.145
172.568
173.08
172.395
170.194
166.157
159.998
151.511
140.606
127.348
111.972
94.89
76.6786
58.039
39.7465
22.5849
7.27667
-5.5838
-15.5848
-22.534
-26.4719
-27.6609
-26.5513
-23.7292
-19.852
-15.5803
-11.5138
-8.13868
-5.79113
-4.64128
-4.6965
-5.8224
-7.77688
-10.2513
-12.9127
-15.442
-17.5634
-19.0628
-19.7971
-19.6926
-18.7386
-16.9774
-14.4948
-11.4115
-7.87819
-4.07106
-0.188737
3.5531
6.93034
9.72334
11.734
12.8053
12.8411
11.8229
9.81948
6.98865
3.56703
-0.150588
-3.84157
-7.19206
-9.93552
-11.8878
-12.9738
-13.2411
-12.858
-12.0953
-11.2925
-10.8142
-10.9994
-12.1132
-14.3061
-17.5867
-21.8127
-26.702
-31.8613
-36.8304
-41.1349
-44.3415
-46.108
-46.2219
-44.6233
-41.4098
-36.8228
-31.2191
-25.0299
-18.7147
-12.7145
-7.40936
-3.08592
0.0833746
2.04746
2.87061
2.71489
1.81394
0.441643
-1.12054
-2.61381
-3.82687
-4.61308
-4.89868
-4.68212
-4.02534
-3.03879
-1.86255
-0.646016
0.471142
1.37492
1.98804
2.27544
2.2441
1.93776
1.42784
0.801889
0.151334
-0.439969
-0.905061
-1.2002
-1.30766
-1.23512
-1.01189
-0.683014
-0.30188
0.0772873
0.406342
0.648609
0.782286
0.801621
0.715955
0.546956
0.324615
0.0826332
-0.146089
-0.333205
-0.457414
-0.505374
-0.471043
-0.35373
-0.155453
0.121661
0.477169
0.912706
1.43073
2.03173
2.71057
3.45259
4.23073
5.00424
5.71977
6.31468
6.72256
6.87994
6.7335
6.247
5.40713
4.22774
2.75212
1.05292
-0.770558
-2.59785
-4.2954
-5.72706
-6.76599
-7.30718
-7.27917
-6.65351
-5.45086
-3.74272
-1.64812
0.67434
3.03894
5.2483
7.11061
8.45692
9.15669
9.13013
8.35623
6.87555
4.78764
2.24334
-0.567514
-3.43177
-6.13076
-8.45871
-10.24
-11.3438
-11.6946
-11.2783
-10.1414
-8.38671
-6.162
-3.64641
-1.03348
1.48613
3.74111
5.5932
6.94704
7.75529
8.01873
7.78168
7.12364
6.14814
4.97055
3.70599
2.45884
1.31474
0.33574
-0.441329
-1.00357
-1.35841
-1.52857
-1.54638
-1.44824
-1.2698
-1.04213
-0.789081
-0.525782
-0.258202
0.0164725
0.308853
0.63599
1.01987
1.48598
2.06211
2.77758
3.66312
4.75139
6.07809
7.68337
9.61296
11.9185
14.6562
17.8836
21.6539
26.0087
30.9686
36.5236
42.6237
49.1716
56.0176
62.959
69.7439
76.0797
81.6459
86.1113
89.1535
90.4806
89.8534
87.1055
82.1609
75.0471
65.9009
54.9677
42.5914
29.1983
15.2723
1.32788
-12.12
-24.5824
-35.6161
-44.8321
-51.8866
-56.452
-58.1669
-56.5705
-51.0346
-40.7129
-24.5357
-1.2744
30.3041
71.1935
121.836
181.788
249.437
321.833
394.714
462.746
519.991
560.552
579.307
572.639
539.024
479.399
397.225
298.233
189.873
80.5282
-21.3868
-108.338
-174.469
-216.183
-232.444
-224.765
-196.903
-154.31
-103.417
-50.8548
-2.70365
36.1313
62.361
74.5259
72.975
59.635
37.6144
10.7053
-17.1453
-42.3299
-61.9814
-74.2427
-78.3839
-74.768
-64.6862
-50.0954
-33.301
-16.6301
-2.13733
8.62473
14.7471
16.011
12.8425
6.19145
-2.64264
-12.2106
-21.1111
-28.1627
-32.5293
-33.7907
-31.9534
-27.4065
-20.8339
-13.0984
-5.11408
2.27549
8.39787
12.8215
15.3876
16.2047
15.6091
14.0995
12.2577
10.6649
9.82698
10.1159
11.7344
14.7063
18.8911
24.0195
29.7423
35.6864
41.5086
46.9413
51.825
56.1237
59.9231
63.4131
66.8557
70.5457
74.7664
79.7477
85.6312
92.4466
100.103
108.393
117.016
125.604
133.767
141.125
147.352
152.201
155.525
157.276
157.502
156.322
153.896
150.391
145.947
140.652
134.531
127.543
119.601
110.605
100.478
89.2104
76.8884
63.7172
50.0197
36.2171
22.7915
10.2353
-1.00315
-10.5711
-18.2511
-23.9836
-27.8696
-30.1532
-31.1876
-31.3893
-31.1875
-30.9751
-31.0679
-31.6754
-32.8873
-34.6747
-36.9054
-39.3695
-41.8128
-43.971
-45.6033
-46.5197
-46.6002
-45.8048
-44.1733
-41.8168
-38.9021
-35.6312
-32.2192
-28.8726
-25.7704
-23.0499
-20.797
-19.0442
-17.7726
-16.9194
-16.3898
-16.0695
-15.8398
-15.5896
-15.2272
-14.6875
-13.9359
-12.9692
-11.8113
-10.508
-9.11891
-7.70925
-6.34183
-5.07056
-3.93596
-2.96275
-2.15987
-1.52217
-1.03361
-0.671107
-0.408529
-0.220225
-0.0837589
0.0183884
0.0981641
0.162217
0.212878
0.249596
0.270546
0.274181
0.260514
0.231981
0.193788
0.15371
0.12138
0.107129
0.120528
0.168804
0.255331
0.378441
0.530744
0.699133
0.86556
1.00861
1.10575
1.13612
1.0834
0.938597
0.70205
0.384478
0.00670942
-0.401949
-0.806569
-1.17035
-1.45878
-1.64366
-1.70638
-1.6401
-1.45036
-1.15417
-0.777638
-0.35257
0.0874905
0.511095
0.89207
1.21157
1.45875
1.63012
1.72771
1.75671
1.723
1.63118
1.48358
1.28038
1.02091
0.705643
0.338562
-0.0708436
-0.506383
-0.945221
-1.35929
-1.71798
-1.99164
-2.1554
-2.19274
-2.09796
-1.87738
-1.54886
-1.13972
-0.683418
-0.215534
0.230338
0.626048
0.951204
1.19405
1.35091
1.42457
1.42194
1.35186
1.22323
1.0441
0.821634
0.562798
0.275547
-0.0300257
-0.340939
-0.641283
-0.913018
-1.13754
-1.29778
-1.38046
-1.37815
-1.29069
-1.12572
-0.898254
-0.629225
-0.343276
-0.0660548
0.178614
0.371284
0.498867
0.555775
0.54414
0.473095
0.357281
0.214795
0.0648706
-0.0744035
-0.188053
-0.265659
-0.302129
-0.297775
-0.25773
-0.190847
-0.108252
-0.0217655
0.0576095
0.120965
0.162426
0.179697
0.174261
0.151274
0.119256
0.0896327
0.0761602
0.0942335
0.160051
0.289629
0.497719
0.796707
1.19568
1.69979
2.31008
3.02383
3.83538
4.73733
5.72192
6.78242
7.91428
9.11602
10.3898
11.7417
13.1817
14.7238
16.3854
18.1871
20.1517
22.303
24.6637
27.2531
30.084
33.16
36.4728
40.0011
43.71
47.5534
51.4765
55.4201
59.3248
63.1341
66.7952
70.2574
73.4674
76.3622
78.8612
80.858
82.2162
82.7693
82.3273
80.6911
77.6732
73.1232
66.955
59.1717
49.8839
39.318
27.8126
15.8018
3.78753
-7.69656
-18.1227
-27.0014
-33.8997
-38.4372
-40.2574
-38.9756
-34.1174
-25.0686
-11.0644
8.75612
35.2146
68.8785
109.795
157.22
209.41
263.532
315.749
361.505
395.971
414.635
413.922
391.765
348.027
284.696
205.811
117.116
25.4834
-61.8291
-137.973
-197.265
-235.797
-251.825
-245.889
-220.671
-180.589
-131.224
-78.6353
-28.6571
13.7257
44.8616
62.7248
66.9929
58.9192
41.0316
16.7088
-10.304
-36.3743
-58.4016
-74.1277
-82.3143
-82.7777
-76.2909
-64.3796
-49.048
-32.4753
-16.725
-3.5006
6.02612
11.3001
12.3804
9.85995
4.72548
-1.81708
-8.52619
-14.2924
-18.2706
-19.9623
-19.2448
-16.3457
-11.7749
-6.22568
-0.460213
4.80175
8.97882
11.6965
12.822
12.4646
10.9436
8.7324
6.38734
4.47201
3.48743
3.81625
5.68653
9.15769
14.128
20.3605
27.5224
35.2323
43.1082
50.8119
58.0847
64.7715
70.8313
76.335
81.4518
86.4251
91.5424
97.101
103.373
110.575
118.835
128.18
138.522
149.654
161.271
172.98
184.333
194.862
204.11
211.666
217.194
220.455
221.312
219.736
215.788
209.604
201.368
191.291
179.584
166.452
152.087
136.682
120.439
103.59
86.4154
69.2455
52.4598
36.4677
21.68
8.47193
-2.85524
-12.1072
-19.2193
-24.2635
-27.4392
-29.0472
-29.4524
-29.04
-28.1716
-27.1493
-26.1917
-25.4245
-24.8873
-24.552
-24.3498
-24.1999
-24.0358
-23.8225
-23.5634
-23.2963
-23.0796
-22.9726
-23.0145
-23.2069
-23.5029
-23.8058
-23.9776
-23.8555
-23.2751
-22.0942
-20.2157
-17.6047
-14.2978
-10.4025
-6.08905
-1.57318
2.90542
7.10702
10.8149
13.8547
16.1079
17.5191
18.0952
17.8992
17.0387
15.6511
13.8881
11.9001
9.82297
7.76831
5.8165
4.01421
2.37549
0.886256
-0.488134
-1.79314
-3.07392
-4.36416
-5.67619
-6.99396
-8.27029
-9.4294
-10.3752
-11.005
-11.2267
-10.9777
-10.242
-9.06227
-7.54461
-5.85359
-4.19744
-2.80479
-1.89563
-1.65059
-2.18317
-3.51929
-5.58763
-8.22254
-11.1796
-14.1621
-16.8543
-18.9587
-20.2299
-20.5033
-19.7136
-17.9015
-15.2074
-11.8552
-8.12547
-4.32479
-0.752165
2.3315
4.72863
6.3219
7.08167
7.0635
6.39674
5.26597
3.88772
2.48543
1.26532
0.395873
-0.00713564
0.111282
0.74456
1.83085
3.26519
4.91593
6.64315
8.31688
9.83262
11.1223
12.1593
12.9569
13.5609
14.0372
14.4571
14.8818
15.3496
15.8673
16.4065
16.9064
17.2822
17.437
17.2766
16.7245
15.7342
14.2987
12.454
10.2777
7.88145
5.40003
2.97658
0.747457
-1.17213
-2.69967
-3.79287
-4.4521
-4.71794
-4.66414
-4.38729
-3.9945
-3.591
-3.26897
-3.09912
-3.12559
-3.36466
-3.8069
-4.4221
-5.16599
-5.98761
-6.83618
-7.66671
-8.44376
-9.14324
-9.75245
-10.2688
-10.6978
-11.0505
-11.3418
-11.5883
-11.8072
-12.0151
-12.2271
-12.4548
-12.7049
-12.9759
-13.2561
-13.5214
-13.7345
-13.847
-13.8033
-13.5467
-13.0274
-12.2111
-11.0864
-9.67001
-8.0087
-6.17725
-4.27251
-2.40412
-0.683039
0.790643
1.93906
2.71552
3.10988
3.14979
2.89765
2.44403
1.89862
1.38041
1.0087
0.895963
1.14349
1.83931
3.05783
4.85975
7.29126
10.3818
14.1399
18.5482
23.5587
29.0888
35.0208
41.2058
47.4706
53.6302
59.5018
64.921
69.7558
73.9176
77.3658
80.1064
82.183
83.6623
84.6163
85.1034
85.153
84.7546
83.8552
82.3644
80.1675
77.1447
73.1925
68.2463
62.2986
55.4123
47.726
39.4513
30.8635
22.2872
14.0823
6.6339
0.35283
-4.30896
-6.82912
-6.57709
-2.78169
5.47629
19.2244
39.4941
67.1453
102.633
145.748
195.382
249.381
304.53
356.718
401.278
433.482
449.111
445.047
419.767
373.669
309.173
230.559
143.573
54.8267
-28.9104
-101.446
-157.825
-194.838
-211.308
-208.129
-188.069
-155.354
-115.114
-72.7504
-33.3133
-0.96344
21.4241
32.4745
32.3331
22.5032
5.53371
-15.3929
-36.9145
-55.9269
-69.9513
-77.3936
-77.6697
-71.1945
-59.2452
-43.7265
-26.8751
-10.9463
2.07838
10.7247
14.1779
12.3395
5.7893
-4.33496
-16.5182
-29.0822
-40.4033
-49.1064
-54.2138
-55.233
-52.1791
-45.5333
-36.1485
-25.118
-13.6262
-2.80069
6.41495
13.3558
17.6874
19.4133
18.8408
16.5138
13.1235
9.41081
6.07278
3.68524
2.64903
3.16451
5.23477
8.69415
13.2561
18.572
24.2929
30.1242
35.8677
41.4442
46.8966
52.3715
58.0851
64.278
71.1666
78.898
87.5156
96.94
106.968
117.29
127.52
137.24
146.043
153.578
159.583
163.905
166.509
167.464
166.924
165.092
162.187
158.404
153.888
148.715
142.881
136.318
128.906
120.512
111.02
100.378
88.6221
75.9022
62.4881
48.7578
35.1688
22.2162
10.3819
0.0830813
-8.3742
-14.8283
-19.2785
-21.8824
-22.9347
-22.8299
-22.0159
-20.9422
-20.0119
-19.5417
-19.7345
-20.6675
-22.296
-24.4702
-26.9639
-29.5079
-31.8263
-33.6696
-34.8407
-35.2135
-34.7403
-33.45
-31.4378
-28.8491
-25.8592
-22.6533
-19.4067
-16.2702
-13.3595
-10.75
-8.47661
-6.53799
-4.90345
-3.52195
-2.33143
-1.26754
-0.270979
0.707094
1.70187
2.73371
3.80882
4.9213
6.05603
7.19198
8.30536
9.37227
10.3706
11.2811
12.0876
12.7764
13.3362
13.7568
14.0291
14.1453
14.0999
13.8906
13.5205
12.9991
12.3443
11.5821
10.7464
9.87669
9.01526
8.20287
7.47453
6.85521
6.35657
5.97513
5.69247
5.47734
5.28988
5.08697
4.82837
4.4825
4.03106
3.47185
2.81927
2.10241
1.36111
0.640344
-0.016089
-0.571771
-1.00285
-1.30146
-1.47684
-1.55406
-1.57047
-1.57036
-1.59872
-1.69476
-1.88638
-2.18596
-2.5883
-3.07077
-3.59549
-4.11343
-4.5697
-4.90943
-5.08366
-5.05441
-4.79869
-4.3108
-3.60301
-2.70447
-1.65868
-0.519778
0.651848
1.79429
2.84862
3.7629
4.49523
5.01579
5.30766
5.3665
5.19924
4.82207
4.25812
3.53507
2.68312
1.73344
0.717258
-0.334546
-1.3915
-2.42355
-3.40126
-4.29646
-5.08331
-5.73986
-6.24966
-6.60342
-6.80022
-6.84801
-6.76345
-6.57073
-6.29973
-5.98353
-5.65567
-5.34753
-5.0861
-4.89236
-4.78056
-4.75815
-4.8264
-4.9815
-5.21575
-5.5188
-5.87855
-6.28179
-6.71425
-7.16047
-7.60331
-8.02366
-8.40025
-8.70994
-8.92864
-9.03254
-9.00002
-8.81365
-8.46245
-7.94378
-7.2649
-6.44373
-5.50864
-4.49722
-3.45397
-2.42706
-1.46458
-0.610428
0.0994149
0.640065
0.99982
1.18102
1.19961
1.08355
0.870427
0.60449
0.333688
0.106866
-0.0286423
-0.028982
0.144643
0.524669
1.13606
1.99527
3.10942
4.47553
6.08025
7.89989
9.90115
12.0424
14.2758
16.5493
18.8098
21.006
23.0905
25.0229
26.771
28.3122
29.6342
30.7353
31.6242
32.3199
32.8513
33.2572
33.5861
33.8962
34.2549
34.7378
35.4261
36.4027
37.7463
39.5244
41.7838
44.5424
47.7798
51.4296
55.374
59.4417
63.4107
67.0157
69.9622
71.9447
72.6688
71.8744
69.3588
64.9953
58.748
50.6793
40.9509
29.8181
17.6175
4.74959
-8.34214
-21.1935
-33.3412
-44.3411
-53.7789
-61.2685
-66.4354
-68.8791
-68.1205
-63.5416
-54.3367
-39.5022
-17.8893
11.6588
50.0822
97.8127
154.46
218.538
287.309
356.792
421.996
477.349
517.304
537.026
533.069
503.932
450.399
375.602
284.786
184.796
83.3577
-11.7604
-93.5863
-156.681
-197.676
-215.552
-211.631
-189.298
-153.495
-110.065
-65.0378
-23.936
8.79899
30.2154
39.0486
35.7032
22.0377
0.995987
-23.8586
-48.8398
-70.6024
-86.5214
-94.9452
-95.3058
-88.084
-74.6495
-57.0067
-37.4865
-18.4283
-1.89256
10.5651
18.0341
20.2965
17.7843
11.4612
2.65079
-7.16165
-16.5278
-24.2096
-29.3093
-31.3443
-30.2635
-26.409
-20.4335
-13.1882
-5.59754
1.4622
7.26606
11.3152
13.377
13.4889
11.9305
9.16912
5.78962
2.41817
-0.350182
-2.01177
-2.19663
-0.690125
2.5662
7.49173
13.8976
21.5251
30.0867
39.3025
48.93
58.7815
68.7313
78.71
88.6913
98.6717
108.65
118.607
128.494
138.225
147.679
156.713
165.175
172.922
179.843
185.864
190.964
195.165
198.528
201.127
203.033
204.282
204.859
204.676
203.578
201.344
197.711
192.409
185.201
175.916
164.495
151.008
135.674
118.855
101.04
82.8119
64.8082
47.6683
31.9836
18.2477
6.8161
-2.12245
-8.55914
-12.6607
-14.748
-15.2598
-14.7055
-13.6125
-12.4735
-11.7009
-11.5918
-12.3087
-13.8761
-16.1931
-19.0591
-22.2087
-25.3508
-28.2064
-30.5411
-32.1887
-33.0631
-33.1598
-32.5462
-31.3447
-29.7112
-27.8124
-25.8052
-23.8209
-21.9557
-20.2666
-18.7746
-17.4716
-16.3296
-15.3119
-14.3817
-13.5095
-12.6766
-11.8764
-11.1115
-10.3911
-9.7254
-9.12163
-8.5808
-8.09571
-7.65104
-7.22493
-6.79181
-6.32592
-5.80475
-5.21195
-4.5392
-3.78686
-2.96339
-2.08388
-1.16789
-0.237065
0.686947
1.5842
2.43735
3.23183
3.95533
4.59693
5.1461
5.59197
5.92322
6.12851
6.19776
6.1238
5.90445
5.54437
5.05653
4.46269
3.79274
3.08279
2.37195
1.69837
1.09501
0.585855
0.183282
-0.112942
-0.314729
-0.442977
-0.523592
-0.583028
-0.644254
-0.724003
-0.831848
-0.971201
-1.14184
-1.34318
-1.5772
-1.85021
-2.17263
-2.5567
-3.01245
-3.54279
-4.13888
-4.77696
-5.41759
-6.0079
-6.48676
-6.79224
-6.87019
-6.68276
-6.21518
-5.47981
-4.51674
-3.39054
-2.18378
-0.987901
0.107081
1.02289
1.70186
2.11323
2.25615
2.1589
1.87459
1.4739
1.03576
0.637308
0.344465
0.204231
0.239792
0.448911
0.805723
1.26555
1.77195
2.26497
2.68942
3.00209
3.17706
3.20844
3.1103
2.91391
2.66263
2.40503
2.18721
2.04527
1.99907
2.04809
2.17019
2.32344
2.45099
2.48836
2.37217
2.04936
1.48563
0.671951
-0.371568
-1.59524
-2.92292
-4.25861
-5.49581
-6.52873
-7.26404
-7.63166
-7.59324
-7.14722
-6.3297
-5.21106
-3.88853
-2.47584
-1.09104
0.155869
1.17414
1.90096
2.30681
2.39698
2.20935
1.80896
1.28001
0.716502
0.212358
-0.147834
-0.29669
-0.189815
0.190898
0.836647
1.71371
2.76775
3.92999
5.12445
6.27569
7.31605
8.19186
8.86792
9.33004
9.58555
9.66199
9.6045
9.47227
9.33483
9.26859
9.35402
9.67337
10.3087
11.3397
12.8407
14.8762
17.4952
20.7248
24.563
28.9724
33.8756
39.1532
44.6445
50.1516
55.4471
60.2837
64.407
67.57
69.5479
70.1549
69.2592
66.7967
62.7816
57.3116
50.5673
42.8038
34.3352
25.5114
16.6899
8.20319
0.327746
-6.74328
-12.9159
-18.1942
-22.6571
-26.408
-29.5008
-31.8465
-33.1167
-32.6634
-29.4806
-22.2338
-9.37421
10.6541
39.1286
76.7177
123.16
177.014
235.554
294.844
350.022
395.781
426.981
439.319
429.95
397.973
344.676
273.52
189.836
100.275
12.0815
-67.7069
-133.036
-179.48
-204.675
-208.499
-192.97
-161.908
-120.39
-74.104
-28.6615
11.0227
41.2259
59.7303
65.9318
60.7462
46.3434
25.7563
2.42335
-20.2727
-39.4123
-52.8487
-59.391
-58.8494
-51.9531
-40.1611
-25.4029
-9.78667
4.68393
16.3512
24.0758
27.3271
26.1874
21.2791
13.6319
4.51239
-4.75806
-12.9741
-19.1849
-22.7864
-23.5611
-21.665
-17.5698
-11.9704
-5.67432
0.511676
5.88391
9.92048
12.3293
13.0624
12.2987
10.4004
7.85209
5.19241
2.94677
1.57016
1.4048
2.65576
5.38474
9.52012
14.8799
21.2032
28.1866
35.5213
42.9268
50.1805
57.1394
63.751
70.055
76.1719
82.2814
88.5925
95.3079
102.589
110.525
119.112
128.243
137.713
147.241
156.497
165.14
172.861
179.411
184.628
188.445
190.881
192.014
191.952
190.782
188.542
185.188
180.586
174.526
166.752
157.013
145.121
131.008
114.774
96.711
77.3068
57.2176
37.2166
18.1243
0.729512
-14.2896
-26.4327
-35.4252
-41.2404
-44.0939
-44.4121
-42.7779
-39.8628
-36.3527
-32.876
-29.9439
-27.907
-26.9343
-27.0134
-27.9721
-29.5168
-31.2817
-32.8819
-33.9645
-34.2511
-33.5675
-31.8575
-29.1812
-25.6983
-21.6412
-17.28
-12.8877
-8.70649
-4.92296
-1.65188
1.06814
3.26852
5.03546
6.48854
7.75668
8.95504
10.1661
11.4273
12.7265
14.0057
15.1715
16.1111
16.7108
16.8745
16.5401
15.6898
14.3558
12.6178
10.5946
8.43134
6.28171
4.29102
2.57949
1.22948
0.27754
-0.287602
-0.521179
-0.513315
-0.376092
-0.22857
-0.181761
-0.325503
-0.718858
-1.38513
-2.31192
-3.45592
-4.75151
-6.12158
-7.48899
-8.78655
-9.96433
-10.9931
-11.8633
-12.5812
-13.1613
-13.6184
-13.9606
-14.1837
-14.2699
-14.1891
-13.9043
-13.3795
-12.5884
-11.5227
-10.1981
-8.65689
-6.9671
-5.21664
-3.50472
-1.93087
-0.583403
0.471125
1.19585
1.58796
1.67885
1.53009
1.22585
0.862776
0.538721
0.341771
0.340889
0.579256
1.07093
1.80104
2.72916
3.79529
4.92748
6.05008
7.09166
7.99183
8.70628
9.20982
9.49731
9.58248
9.49498
9.27598
8.97271
8.63258
8.29745
7.99872
7.75371
7.56391
7.41529
7.28062
7.12362
6.90444
6.58581
6.13899
5.54888
4.81734
3.96444
3.02716
2.05574
1.10795
0.242152
-0.490013
-1.05035
-1.41926
-1.59869
-1.61248
-1.50406
-1.33181
-1.1628
-1.06545
-1.10231
-1.32359
-1.76229
-2.43139
-3.32338
-4.41194
-5.65555
-7.00245
-8.39618
-9.78125
-11.1081
-12.3374
-13.4422
-14.4099
-15.2412
-15.9491
-16.5555
-17.0869
-17.569
-18.0213
-18.4514
-18.8499
-19.1886
-19.4201
-19.4814
-19.3008
-18.8076
-17.9431
-16.6718
-14.9905
-12.934
-10.5766
-8.0275
-5.42225
-2.90954
-0.636026
1.26929
2.70896
3.62748
4.01691
3.91699
3.40984
2.61005
1.65135
0.671863
-0.200314
-0.859345
-1.23017
-1.27243
-0.979521
-0.373317
0.504514
1.60294
2.8722
4.2729
5.78249
7.39821
9.13642
11.0286
13.1153
15.4381
18.0329
20.9231
24.1161
27.6012
31.351
35.3242
39.4693
43.7288
48.0421
52.3474
56.5805
60.6731
64.5494
68.1229
71.294
73.9508
75.9719
77.2322
77.6117
77.0055
75.3347
72.5554
68.6672
63.7169
57.7999
51.0571
43.6685
35.8439
27.811
19.8038
12.0497
4.76034
-1.87523
-7.68852
-12.5186
-16.1828
-18.4286
-18.8702
-16.9198
-11.7336
-2.1992
13.0095
35.2879
65.8658
105.501
154.145
210.655
272.607
336.292
396.926
449.066
487.205
506.461
503.26
475.906
424.944
353.251
265.829
169.318
71.2953
-20.549
-99.2519
-159.323
-197.302
-212.057
-204.807
-178.867
-139.153
-91.5471
-42.1734
3.2938
40.2237
65.4534
77.5062
76.5939
64.4202
43.8258
18.3327
-8.3482
-32.7842
-52.2057
-64.773
-69.701
-67.2429
-58.5482
-45.4243
-30.0425
-14.6283
-1.17767
8.77016
14.2794
15.0753
11.5135
4.47424
-4.7973
-14.8811
-24.3747
-32.0648
-37.0596
-38.868
-37.4231
-33.0506
-26.3924
-18.2986
-9.70343
-1.50314
5.55118
10.9326
14.3826
15.9184
15.8053
14.5008
12.5798
10.6517
9.28042
8.91739
9.85441
12.2017
15.8922
20.709
26.3327
32.3989
38.5584
44.531
50.1449
55.3574
60.2538
65.0265
69.9386
75.2771
81.3036
88.2109
96.0882
104.904
114.502
124.62
134.912
144.99
154.463
162.975
170.239
176.058
180.333
183.061
184.316
184.221
182.919
180.529
177.123
172.701
167.189
160.442
152.281
142.528
131.058
117.849
103.019
86.8538
69.804
52.465
35.5275
19.7131
5.69761
-5.96324
-14.8987
-20.9665
-24.2704
-25.1466
-24.1236
-21.8577
-19.0546
-16.3874
-14.4209
-13.552
-13.9741
-15.6679
-18.4198
-21.863
-25.5362
-28.9499
-31.653
-33.2894
-33.6398
-32.6427
-30.394
-27.1276
-23.1784
-18.9364
-14.7964
-11.1102
-8.14836
-6.07396
-4.9316
-4.65183
-5.0691
-5.95006
-7.02774
-8.03705
-8.74681
-8.98466
-8.65228
-7.72981
-6.26989
-4.38313
-2.2178
0.0630898
2.30372
4.37371
6.18032
7.67367
8.8449
9.71852
10.3406
10.7655
11.0434
11.21
11.2815
11.2533
11.1038
10.8009
10.3117
9.61096
8.68924
7.55783
6.25028
4.82025
3.33616
1.87363
0.506955
-0.699076
-1.69577
-2.4547
-2.96906
-3.25222
-3.33384
-3.25451
-3.05957
-2.79316
-2.49317
-2.1876
-1.89261
-1.61235
-1.34027
-1.0617
-0.75722
-0.406495
0.00808952
0.498216
1.06731
1.70938
2.40906
3.14313
3.88312
4.59881
5.26219
5.85113
6.35231
6.76263
7.08902
7.34635
7.5538
7.73029
7.88967
8.03658
8.16389
8.25217
8.27171
8.18654
7.96033
7.56284
6.97621
6.19979
5.25278
4.17418
3.01987
1.85724
0.758054
-0.209392
-0.987915
-1.53769
-1.84041
-1.90079
-1.74536
-1.41877
-0.978055
-0.485898
-0.00351759
0.415777
0.731691
0.920157
0.974409
0.903918
0.731434
0.488585
0.210587
-0.069335
-0.325224
-0.542834
-0.722754
-0.881769
-1.0521
-1.27832
-1.61192
-2.10405
-2.79708
-3.71615
-4.86198
-6.20632
-7.69087
-9.23044
-10.7201
-12.046
-13.0979
-13.7831
-14.0386
-13.8403
-13.2086
-12.2078
-10.9411
-9.54034
-8.15199
-6.92204
-5.98059
-5.42866
-5.32849
-5.69807
-6.51024
-7.69604
-9.15157
-10.7477
-12.3417
-13.7892
-14.9566
-15.7323
-16.0357
-15.8239
-15.0946
-13.8864
-12.2745
-10.3634
-8.27734
-6.14846
-4.10452
-2.25718
-0.692012
0.538836
1.42036
1.97453
2.25627
2.346
2.33964
2.33736
2.43212
2.69957
3.19028
3.92531
4.89549
6.06459
7.3758
8.76084
10.1503
11.4842
12.7208
13.8432
14.8627
15.8186
16.775
17.8161
19.0395
20.55
22.4547
24.8569
27.8518
31.5206
35.9238
41.0931
47.0216
53.6543
60.8795
68.5233
76.349
84.0638
91.3318
97.7952
103.1
106.927
109.015
109.191
107.381
103.62
98.0452
90.8805
82.4168
72.9839
62.9237
52.5646
42.2018
32.0826
22.398
13.281
4.80862
-2.98989
-10.1179
-16.5866
-22.3756
-27.377
-31.3238
-33.71
-33.7194
-30.1867
-21.6171
-6.29124
17.5324
51.322
95.9141
151.148
215.56
286.223
358.78
427.72
486.876
530.112
552.082
548.978
519.13
463.366
385.067
289.89
185.198
79.2703
-19.612
-104.069
-168.405
-209.175
-225.46
-218.835
-193.049
-153.46
-106.329
-58.0407
-14.3784
20.0783
42.3635
51.308
47.4908
32.9852
10.9489
-14.8785
-40.6989
-63.1337
-79.6014
-88.5574
-89.5796
-83.3041
-71.2342
-55.4597
-38.33
-22.1277
-8.78364
0.33556
4.54657
3.8705
-1.03759
-9.03242
-18.6703
-28.4199
-36.8638
-42.8664
-45.6905
-45.0531
-41.1195
-34.4427
-25.8605
-16.3675
-6.97953
1.39099
8.03647
12.5205
14.7055
14.7418
13.0233
10.1187
6.68918
3.40412
0.866251
-0.445721
-0.211339
1.72193
5.35144
10.5491
17.1012
24.7494
33.2283
42.2913
51.7258
61.3558
71.0357
80.64
90.0523
99.1594
107.852
116.032
123.626
130.599
136.967
142.801
148.223
153.394
158.489
163.669
169.055
174.701
180.575
186.555
192.427
197.9
202.626
206.224
208.307
208.511
206.516
202.076
195.034
185.341
173.072
158.426
141.73
123.43
104.072
84.2744
64.6913
45.9728
28.719
13.4377
0.508353
-9.8452
-17.5675
-22.7701
-25.7156
-26.7879
-26.4534
-25.2162
-23.5725
-21.9688
-20.7681
-20.2273
-20.4863
-21.5709
-23.4064
-25.8409
-28.6732
-31.6826
-34.6555
-37.4063
-39.79
-41.7061
-43.096
-43.9339
-44.2164
-43.953
-43.1585
-41.85
-40.0484
-37.7824
-35.0949
-32.0487
-28.7296
-25.2467
-21.7278
-18.3108
-15.1327
-12.3158
-9.95539
-8.10964
-6.79287
-5.97435
-5.58212
-5.51167
-5.63834
-5.83175
-5.97057
-5.95556
-5.71953
-5.23296
-4.50484
-3.57882
-2.52539
-1.43137
-0.387962
0.520941
1.22881
1.6938
1.90254
1.87012
1.63639
1.2594
0.806748
0.346389
-0.0620242
-0.373928
-0.56402
-0.627365
-0.57751
-0.442056
-0.256461
-0.0570321
0.125857
0.273377
0.381899
0.464256
0.548475
0.67425
0.887671
1.23489
1.7554
2.4757
3.40367
4.52442
5.79779
7.15804
8.51639
9.76664
10.7943
11.4892
11.7596
11.5479
10.8435
9.69151
8.19565
6.51201
4.83546
3.3789
2.34809
1.91547
2.19664
3.23307
4.98365
7.32642
10.0704
12.976
15.7813
18.2304
20.1014
21.2283
21.5176
20.9548
19.603
17.5925
15.105
12.3528
9.55643
6.92334
4.62935
2.80463
1.52524
0.810531
0.626118
0.891702
1.4925
2.29295
3.15122
3.93307
4.52384
4.83758
4.82259
4.46323
3.77786
2.81349
1.63798
0.330547
-1.02798
-2.3642
-3.61949
-4.75474
-5.75234
-6.61526
-7.36367
-8.02976
-8.65166
-9.26726
-9.90885
-10.5991
-11.3485
-12.1552
-13.0055
-13.8763
-14.7375
-15.5556
-16.2967
-16.9285
-17.4229
-17.7574
-17.916
-17.89
-17.6777
-17.2851
-16.7248
-16.0159
-15.1823
-14.2521
-13.2557
-12.2236
-11.1849
-10.1652
-9.18501
-8.2586
-7.39318
-6.58907
-5.84024
-5.13552
-4.45999
-3.7966
-3.12771
-2.43642
-1.70769
-0.929081
-0.0913435
0.811326
1.78116
2.81691
3.91417
5.06612
6.26464
7.50202
8.77306
10.0774
11.422
12.8228
14.3058
15.9079
17.6752
19.6617
21.9258
24.5264
27.5182
30.946
34.839
39.2045
44.0223
49.2401
54.771
60.493
66.2531
71.8739
77.1639
81.9293
85.9867
89.1746
91.3615
92.4511
92.3829
91.1303
88.6969
85.113
80.4323
74.7321
68.1138
60.7041
52.6556
44.1433
35.3574
26.4903
17.7227
9.20886
1.07052
-6.59706
-13.6989
-20.092
-25.5151
-29.5082
-31.3352
-29.9382
-23.9486
-11.7809
8.17682
37.2816
76.2941
125.03
182.073
244.628
308.568
368.703
419.277
454.623
469.893
461.764
428.994
372.739
296.569
206.176
108.792
12.4005
-75.148
-147.012
-198.099
-225.58
-229.127
-210.833
-174.862
-126.863
-73.2526
-20.4413
25.8781
61.3114
83.146
90.505
84.2725
66.8173
41.5661
12.4906
-16.4209
-41.6421
-60.4841
-71.3316
-73.7242
-68.2899
-56.5511
-40.6422
-22.9815
-5.94182
8.43815
18.6711
23.9474
24.1643
19.8643
12.1004
2.25188
-8.18071
-17.7744
-25.3518
-30.1021
-31.6427
-30.023
-25.6733
-19.3127
-11.8304
-4.15834
2.84782
8.50677
12.3779
14.2914
14.3427
12.8557
10.322
7.32762
4.47624
2.31949
1.30122
1.72117
3.71985
7.28358
12.2665
18.4243
25.4542
33.0351
40.8629
48.6785
56.2846
63.5543
70.4286
76.9082
83.0405
88.9032
94.5893
100.192
105.793
111.452
117.203
123.047
128.955
134.865
140.688
146.31
151.595
156.392
160.539
163.865
166.194
167.345
167.132
165.373
161.89
156.521
149.145
139.699
128.207
114.803
99.754
83.4573
66.4344
49.2981
32.7048
17.2942
3.62484
-7.88601
-17.0079
-23.7211
-28.2148
-30.8591
-32.1542
-32.6655
-32.952
-33.4991
-34.6645
-36.6435
-39.4581
-42.969
-46.9076
-50.9231
-54.6358
-57.6905
-59.8021
-60.7881
-60.5857
-59.2512
-56.9454
-53.9061
-50.4139
-46.7561
-43.1927
-39.9298
-37.1025
-34.768
-32.9098
-31.4508
-30.2723
-29.2362
-28.2077
-27.074
-25.7576
-24.2238
-22.4801
-20.5704
-18.5638
-16.542
-14.5852
-12.7607
-11.1143
-9.6664
-8.41216
-7.3259
-6.36821
-5.49461
-4.66404
-3.84594
-3.02489
-2.20219
-1.39428
-0.628662
0.0621291
0.647033
1.10249
1.4168
1.59221
1.64436
1.59946
1.48977
1.34815
1.20293
1.07366
0.968737
0.884986
0.809451
0.722855
0.604181
0.435528
0.206409
-0.0832568
-0.421938
-0.787289
-1.1488
-1.47184
-1.72252
-1.8724
-1.90258
-1.8063
-1.58983
-1.27162
-0.879836
-0.448876
-0.0153202
0.385997
0.725392
0.980845
1.13945
1.19779
1.16134
1.04301
0.861195
0.637353
0.393678
0.150901
-0.0734507
-0.266215
-0.419103
-0.5286
-0.595358
-0.623249
-0.618265
-0.587427
-0.537856
-0.476079
-0.407619
-0.336835
-0.26698
-0.200381
-0.138693
-0.0831296
-0.034643
0.00598024
0.0381081
0.0613182
0.0754895
0.0808958
0.0782698
0.0688142
0.0541482
0.0361924
0.0170049
-0.00140905
-0.0172872
-0.029274
-0.0365369
-0.038819
-0.0364254
-0.0301454
-0.0211241
-0.0107021
-0.00024387
0.00902231
0.0161351
0.0204875
0.0218643
0.0204288
0.0166649
0.0112862
0.00512632
-0.000975207
-0.00627584
-0.0102108
-0.0124439
-0.0128847
-0.0116739
-0.00914157
-0.00574614
-0.00200396
0.00158092
0.00457818
0.00667693
0.00771179
0.00766797
0.00666714
0.00493762
0.00277452
0.000495628
-0.00160073
-0.00327103
-0.00435123
-0.00476884
-0.00454226
-0.00376857
-0.00260136
-0.00121808
0.000230421
0.00170614
0.00343713
0.00617744
0.0116101
0.0229081
0.0454214
0.0873974
0.160567
0.280384
0.465669
0.7375
1.11725
1.62387
2.27081
3.06283
3.99361
5.04441
6.18456
7.37409
8.56839
9.72505
10.8118
11.8153
12.7484
13.6566
14.6192
15.7482
17.1805
19.0663
21.554
24.7721
28.812
33.7121
39.4472
45.9235
52.9813
60.4045
67.9379
75.3081
82.2483
88.5214
93.9399
98.3786
101.777
104.134
105.487
105.891
105.393
104.007
101.702
98.3984
93.9838
88.3343
81.3494
72.9873
63.2967
52.4375
40.687
28.4294
16.1316
4.31035
-6.5005
-15.7732
-22.9918
-27.6353
-29.141
-26.8583
-20.0103
-7.68791
11.0987
37.2954
71.6022
114.215
164.549
221.01
280.868
340.303
394.64
438.777
467.771
477.477
465.17
430.034
373.424
298.863
211.75
118.813
27.3844
-55.4152
-123.461
-172.28
-199.493
-204.997
-190.857
-160.961
-120.464
-75.1242
-30.6108
8.13019
37.3729
54.9234
60.2225
54.2436
39.215
18.2183
-5.27902
-27.8906
-46.7218
-59.6781
-65.642
-64.511
-57.1046
-44.9652
-30.0889
-14.6257
-0.591617
10.3748
17.1834
19.3776
17.1318
11.1693
2.62002
-7.15955
-16.777
-24.9809
-30.803
-33.6521
-33.3517
-30.1234
-24.5224
-17.3379
-9.47427
-1.82829
4.82051
9.89576
13.0771
14.3169
13.8216
12.0036
9.41272
6.65648
4.3216
2.90573
2.76744
4.09892
6.92261
11.1096
16.4149
22.5231
29.0969
35.8216
42.4409
48.7791
54.7499
60.3526
65.6579
70.7863
75.886
81.1098
86.5967
92.4586
98.7712
105.57
112.85
120.563
128.624
136.906
145.24
153.416
161.183
168.25
174.302
179.004
182.033
183.092
181.943
178.429
172.492
164.187
153.683
141.26
127.288
112.206
96.498
80.6575
65.1614
50.442
36.8643
24.7091
14.1627
5.31322
-1.8461
-7.40776
-11.5356
-14.4466
-16.3906
-17.6292
-18.4159
-18.9783
-19.505
-20.1354
-20.9561
-22.0006
-23.2548
-24.6645
-26.147
-27.6034
-28.9309
-30.0346
-30.8374
-31.2875
-31.3619
-31.0682
-30.442
-29.5426
-28.4462
-27.2379
-26.0027
-24.8175
-23.7433
-22.8196
-22.0609
-21.4558
-20.9694
-20.5474
-20.1233
-19.627
-18.9932
-18.1701
-17.1262
-15.8541
-14.3723
-12.7225
-10.9654
-9.17276
-7.41885
-5.77154
-4.2843
-2.9903
-1.89939
-0.998221
-0.253527
0.382132
0.96289
1.54153
2.16193
2.85298
3.62474
4.46711
5.35127
6.23334
7.05996
7.77487
8.32574
8.6705
8.78232
8.65288
8.29344
7.73383
7.01931
6.2059
5.35451
4.52468
3.76842
3.1249
2.61643
2.24627
1.99842
1.83948
1.72247
1.59206
1.3908
1.06548
0.573086
-0.114317
-1.00632
-2.09269
-3.34372
-4.7124
-6.13789
-7.55004
-8.87438
-10.0373
-10.971
-11.618
-11.9354
-11.8976
-11.4989
-10.7551
-9.70253
-8.39719
-6.91111
-5.32777
-3.73611
-2.22376
-0.870184
0.259663
1.12045
1.68975
1.96913
1.98296
1.77499
1.40327
0.933848
0.433999
-0.034225
-0.419495
-0.685181
-0.811427
-0.795226
-0.648604
-0.395274
-0.0663001
0.304624
0.685639
1.05035
1.38022
1.66542
1.90428
2.10131
2.26446
2.402
2.51962
2.61834
2.69353
2.73522
2.72979
2.66246
2.52036
2.29552
1.98716
1.60287
1.15846
0.676434
0.18332
-0.29363
-0.729807
-1.10604
-1.41027
-1.63777
-1.78998
-1.87217
-1.89067
-1.85032
-1.75294
-1.59717
-1.37993
-1.0992
-0.757599
-0.365823
0.0547959
0.471591
0.842182
1.11861
1.25354
1.20781
0.95778
0.50145
-0.13821
-0.913392
-1.75538
-2.58188
-3.30674
-3.85068
-4.15136
-4.17131
-3.90242
-3.36631
-2.61073
-1.70245
-0.717929
0.266658
1.18463
1.98592
2.64119
3.14288
3.50306
3.7492
3.91841
4.05137
4.18698
4.35821
4.58989
4.89817
5.29162
5.77331
6.34328
7.00087
7.7463
8.58139
9.50931
10.5336
11.6571
12.8804
14.2018
15.6174
17.123
18.7171
20.4047
22.2021
24.1404
26.268
28.6491
31.3597
34.478
38.0721
42.1857
46.8226
51.9341
57.4102
63.0767
68.6991
73.9934
78.6428
82.319
84.7058
85.5226
84.5457
81.626
76.7015
69.8035
61.0579
50.6794
38.9617
26.2642
12.9976
-0.387088
-13.403
-25.5188
-36.1349
-44.544
-49.8832
-51.0908
-46.8898
-35.8224
-16.357
12.919
53.0284
104.282
165.959
236.051
311.152
386.533
456.448
514.652
555.081
572.61
563.768
527.318
464.573
379.425
278.026
168.192
58.5796
-42.2522
-126.765
-189.239
-226.338
-237.383
-224.306
-191.301
-144.23
-89.8719
-35.1099
13.8382
52.0555
76.3617
85.5111
80.1473
62.5398
36.1536
5.11759
-26.3345
-54.3801
-76.0221
-89.362
-93.7113
-89.5441
-78.3135
-62.1671
-43.6079
-25.1474
-8.99418
3.1862
10.4191
12.4671
9.77888
3.35953
-5.41626
-15.0165
-23.9619
-31.0068
-35.2721
-36.3187
-34.1575
-29.2025
-22.1778
-13.9946
-5.61719
2.06492
8.34345
12.7648
15.1651
15.666
14.6356
12.6234
10.2792
8.26751
7.18942
7.51881
9.56022
13.4302
19.062
26.2301
34.5894
43.7245
53.1993
62.6057
71.6023
79.9429
87.4916
94.2247
100.22
105.639
110.695
115.629
120.674
126.032
131.849
138.198
145.078
152.41
160.048
167.793
175.408
182.637
189.222
194.916
199.487
202.728
204.454
204.502
202.729
199.013
193.257
185.396
175.411
163.343
149.313
133.533
116.322
98.1026
79.3943
60.7855
42.8984
26.3408
11.6551
-0.732444
-10.553
-17.7225
-22.3498
-24.7241
-25.2834
-24.5658
-23.1512
-21.6001
-20.3962
-19.9006
-20.3217
-21.7053
-23.9431
-26.7998
-29.9524
-33.0377
-35.7014
-37.6416
-38.6437
-38.6012
-37.5225
-35.5225
-32.8023
-29.6197
-26.2554
-22.9787
-20.0178
-17.5371
-15.6244
-14.2883
-13.4654
-13.0352
-12.8406
-12.7104
-12.4813
-12.017
-11.2213
-10.0456
-8.49015
-6.59877
-4.45029
-2.14674
0.199132
2.47561
4.58188
6.43516
7.97486
9.1638
9.98713
10.4495
10.5709
10.383
9.92453
9.23799
8.36679
7.3531
6.23626
5.05195
3.83172
2.6031
1.39001
0.213548
-0.906984
-1.95305
-2.90589
-3.74588
-4.4524
-5.00441
-5.38179
-5.56733
-5.54921
-5.32355
-4.89662
-4.28608
-3.52105
-2.64067
-1.69111
-0.721492
0.22099
1.09592
1.87378
2.53857
3.08837
3.53365
3.89325
4.18882
4.43823
4.64925
4.81458
4.9092
4.89103
4.70517
4.2917
3.59637
2.58265
1.24362
-0.388653
-2.23797
-4.18461
-6.07238
-7.72184
-8.9485
-9.58384
-9.49663
-8.61169
-6.92344
-4.50215
-1.49178
1.90077
5.4239
8.80505
11.7772
14.105
15.6073
16.174
15.7747
14.4595
12.3505
9.6274
6.50699
3.22115
-0.00535658
-2.97415
-5.52784
-7.55855
-9.01014
-9.01014
-9.01014
-9.01014
-9.01014
-9.01014
-9.01014
-9.01014
-9.01014
-9.01014
-9.01014
-9.01014
-9.01014
-9.01014
-9.01014
-9.01014
-9.01014
-9.01014
-9.01014
-9.01014
