-64.2324
-57.7633
-47.0737
-32.9732
-16.5506
0.975152
18.4184
34.7814
49.3769
61.9003
72.4393
81.4177
89.4829
97.3512
105.638
114.697
124.501
134.575
144.018
151.586
155.858
155.444
149.209
136.485
117.234
92.1242
62.5227
30.3815
-1.95912
-32.0301
-57.5195
-76.5484
-87.8972
-91.1538
-86.7636
-75.9746
-60.687
-43.2265
-26.0731
-11.5767
-1.69898
2.193
-0.544279
-9.78842
-24.6961
-43.8249
-65.3125
-87.0906
-107.107
-123.532
-134.927
-140.364
-139.48
-132.48
-120.072
-103.372
-83.7653
-62.7642
-41.8623
-22.406
-5.49056
8.10975
17.977
24.0502
26.5948
26.1476
23.4447
19.3398
14.722
10.4389
7.23225
5.68913
6.21287
9.01339
14.1169
21.3917
30.5865
41.3749
53.4008
66.3185
79.8239
93.673
107.686
121.74
135.75
149.647
163.352
176.752
189.684
201.932
213.222
223.238
231.634
238.057
242.167
243.665
242.313
237.951
230.515
220.04
206.669
190.644
172.303
152.065
130.414
107.884
85.0347
62.4308
40.618
20.0986
1.30833
-15.4049
-29.7982
-41.7457
-51.2435
-58.4072
-63.4609
-66.7186
-68.5581
-69.3896
-69.6224
-69.6302
-69.721
-70.113
-70.9199
-72.1468
-73.6982
-75.3959
-77.007
-78.2763
-78.9615
-78.8656
-77.8639
-75.9215
-73.0997
-69.5506
-65.5012
-61.2279
-57.0253
-53.173
-49.9037
-47.3769
-45.6611
-44.7262
-44.447
-44.6168
-44.9704
-45.2118
-45.0458
-44.2071
-42.4873
-39.7551
-35.9693
-31.1838
-25.5448
-19.2811
-12.687
-6.10089
0.119562
5.62487
10.1009
13.2945
15.0363
15.2575
14.0005
11.4204
7.77703
3.41748
-1.25085
-5.79378
-9.78801
-12.8591
-14.7162
-15.1791
-14.1965
-11.8513
-8.35452
-4.0267
0.73028
5.46967
9.74074
13.1309
15.3054
16.0405
15.2476
12.984
9.44977
4.96963
-0.0389086
-5.10802
-9.76806
-13.5967
-16.2626
-17.5587
-17.4201
-15.9261
-13.2842
-9.80103
-5.84206
-1.78751
2.01069
5.265
7.77728
9.45022
10.2847
10.3649
9.83332
8.86167
7.6211
6.25722
4.87351
3.52516
2.22334
0.948169
-0.333189
-1.64735
-2.99851
-4.35826
-5.66314
-6.81983
-7.71655
-8.23822
-8.28264
-7.77476
-6.67706
-4.99456
-2.77444
-0.100966
2.9126
6.13324
9.41701
12.6165
15.5868
18.1918
20.3094
21.8396
22.7131
22.9002
22.4194
21.3429
19.797
17.9574
16.0384
14.2769
12.9143
12.1775
12.2638
13.3299
15.4877
18.8052
23.312
29.0075
35.8706
43.8695
52.9697
63.1409
74.3595
86.6052
99.8501
114.04
129.064
144.724
160.695
176.497
191.474
204.797
215.5
222.537
224.883
221.649
212.216
196.351
174.305
146.85
115.268
81.2625
46.8185
14.0101
-15.2082
-39.2049
-56.842
-67.5873
-71.555
-69.4691
-62.5566
-52.3848
-40.667
-29.0605
-18.9852
-11.4819
-7.12694
-6.00992
-7.7723
-11.6978
-16.8394
-22.1638
-26.6947
-29.6357
-30.4613
-28.9645
-25.2613
-19.7531
-13.0554
-5.90609
0.93635
6.78856
11.122
13.6169
14.1871
12.9724
10.3058
6.65764
2.56924
-1.41738
-4.82303
-7.28122
-8.56907
-8.61687
-7.49688
-5.39418
-2.56467
0.71378
4.19007
7.68206
11.1062
14.4909
17.9708
21.7638
26.1328
31.3384
37.5895
44.998
53.5457
63.0672
73.2512
83.6604
93.7656
102.99
110.758
116.539
119.894
120.501
118.189
112.945
104.923
94.4416
81.9636
68.0761
53.4527
38.8103
24.8596
12.2531
1.5364
-6.89383
-12.8184
-16.2093
-17.2252
-16.1897
-13.555
-9.85304
-5.64237
-1.45426
2.25492
5.14058
6.99248
7.74142
7.45047
6.29274
4.51929
2.42164
0.293611
-1.60309
-3.06589
-3.96854
-4.26747
-3.99764
-3.25944
-2.1993
-0.987033
0.206631
1.22935
1.96084
2.31961
2.2623
1.77685
0.871048
-0.44072
-2.14991
-4.26269
-6.80319
-9.80995
-13.3257
-17.3819
-21.9803
-27.0757
-32.5628
-38.2704
-43.9656
-49.3681
-54.173
-58.0812
-60.831
-62.2291
-62.1753
-60.6775
-57.8559
-53.934
-49.219
-44.0733
-38.88
-34.0078
-29.7783
-26.4398
-24.1497
-22.9679
-22.8595
-23.7074
-25.3321
-27.5153
-30.0251
-32.6404
-35.1702
-37.4685
-39.4418
-41.0495
-42.2974
-43.2247
-43.8866
-44.3354
-44.6016
-44.6797
-44.5211
-44.0352
-43.1006
-41.5843
-39.3663
-36.3652
-32.5615
-28.0133
-22.8618
-17.3251
-11.68
-6.23416
-1.29183
2.8823
6.09668
8.25905
9.39138
9.6313
9.21882
8.46938
7.73574
7.36301
7.64234
8.76926
10.8127
13.6991
17.2149
21.0273
24.7211
27.8477
29.9785
30.7579
29.9466
27.4521
23.341
17.8326
11.2758
4.11079
-3.17675
-10.1056
-16.2455
-21.2556
-24.9111
-27.1156
-27.8988
-27.4019
-25.8525
-23.5335
-20.7496
-17.7954
-14.9283
-12.3488
-10.1884
-8.50722
-7.29838
-6.50018
-6.0123
-5.71438
-5.48476
-5.21685
-4.83173
-4.28564
-3.572
-2.71801
-1.7764
-0.812986
0.109016
0.946949
1.69797
2.41818
3.23998
4.38478
6.16774
8.98988
13.3136
19.6185
28.3384
39.783
54.0534
70.9635
89.9817
110.206
130.388
149.003
164.387
174.903
179.16
176.228
165.852
148.613
126.033
100.576
75.5472
54.8741
42.7745
43.3365
60.0376
95.252
149.801
222.605
310.504
408.285
508.962
604.298
685.547
744.338
773.608
768.466
726.87
650.005
542.318
411.162
266.112
117.997
-22.207
-144.503
-240.875
-306.05
-337.929
-337.654
-309.3
-259.272
-195.458
-126.284
-59.7675
-2.68801
40.0381
65.7171
73.9531
66.4524
46.6025
18.8953
-11.7226
-40.4888
-63.3756
-77.4965
-81.329
-74.7471
-58.8765
-35.8091
-8.22672
21.0069
49.2316
74.305
94.8127
110.159
120.536
126.798
130.253
132.426
134.815
138.673
144.858
153.737
165.173
178.57
192.981
207.235
220.092
230.378
237.103
239.543
237.288
230.256
218.664
202.993
183.929
162.303
139.027
115.039
91.2524
68.5147
47.5692
29.0259
13.3365
0.776233
-8.56736
-14.7958
-18.1904
-19.1907
-18.3597
-16.3388
-13.7944
-11.3615
-9.58964
-8.8974
-9.54038
-11.596
-14.967
-19.4031
-24.5371
-29.9317
-35.1302
-39.7061
-43.3055
-45.6782
-46.6944
-46.3476
-44.7424
-42.0726
-38.5911
-34.5778
-30.3088
-26.0327
-21.9553
-18.2339
-14.9807
-12.2726
-10.1632
-8.69359
-7.89853
-7.80595
-8.42985
-9.75799
-11.7377
-14.2633
-17.1695
-20.2326
-23.182
-25.7199
-27.5496
-28.4054
-28.0828
-26.4636
-23.5321
-19.3802
-14.2015
-8.27367
-1.93315
4.45647
10.5369
15.9859
20.5424
24.0243
26.3366
27.471
27.4971
26.5466
24.7944
22.4376
19.6766
16.7002
13.6767
10.7513
8.04981
5.68602
3.77046
2.41695
1.74475
1.87454
2.91815
4.96357
8.05783
12.191
17.2847
23.1877
29.6799
36.4852
43.2911
49.7737
55.6234
60.5697
64.4003
66.9733
68.2201
68.1397
66.785
64.2421
60.6067
55.9591
50.3405
43.7344
36.0556
27.1485
16.7986
4.75685
-9.22335
-25.3389
-43.6851
-64.2045
-86.6456
-110.537
-135.188
-159.712
-183.083
-204.218
-222.069
-235.736
-244.557
-248.193
-246.669
-240.39
-230.102
-216.827
-201.76
-186.156
-171.202
-157.913
-147.039
-139.015
-133.939
-131.593
-131.497
-132.982
-135.286
-137.64
-139.352
-139.872
-138.826
-136.03
-131.475
-125.286
-117.676
-108.884
-99.1234
-88.5357
-77.1615
-64.9356
-51.7057
-37.2759
-21.4728
-4.22481
14.3531
33.884
53.6776
72.7176
89.7003
103.129
111.461
113.298
107.587
93.8159
72.1592
43.5565
9.69972
-27.076
-63.9899
-98.0829
-126.521
-146.903
-157.523
-157.572
-147.235
-127.676
-100.92
-69.6326
-36.8348
-5.58082
21.361
41.7858
54.259
58.2297
54.0414
42.8435
26.4178
6.94511
-13.2577
-31.9994
-47.4429
-58.2774
-63.8176
-64.0234
-59.4431
-51.0936
-40.2938
-28.4777
-17.0071
-7.00987
0.742558
5.90382
8.56488
9.21133
8.63471
7.81112
7.76367
9.42624
13.5251
20.4919
30.4175
43.0507
57.8409
74.0173
90.6939
106.987
122.127
135.55
146.962
156.356
163.995
170.357
176.046
181.697
187.877
195.002
203.272
212.65
222.865
233.452
243.812
253.292
261.262
267.187
270.674
271.504
269.629
265.147
258.261
249.225
238.295
225.692
211.58
196.064
179.215
161.102
141.833
121.596
100.683
79.5032
58.5654
38.4509
19.7621
3.06553
-11.1678
-22.6139
-31.1327
-36.7846
-39.8252
-40.6779
-39.8891
-38.07
-35.8352
-33.7414
-32.2371
-31.6252
-32.0446
-33.4701
-35.7305
-38.5417
-41.55
-44.3797
-46.6803
-48.167
-48.6506
-48.0539
-46.4137
-43.8689
-40.6375
-36.9857
-33.1948
-29.5285
-26.2074
-23.3908
-21.1688
-19.5641
-18.5419
-18.024
-17.9061
-18.0727
-18.4096
-18.8113
-19.1835
-19.4428
-19.5135
-19.3251
-18.8108
-17.9082
-16.5639
-14.7394
-12.4186
-9.61498
-6.37678
-2.78846
1.03193
4.93999
8.77628
12.3803
15.6057
18.3345
20.4886
22.0373
22.9991
23.4386
23.4578
23.1841
22.7564
22.3108
21.9676
21.822
21.938
22.3469
23.0493
24.0214
25.2239
26.6142
28.1631
29.8776
31.8304
34.1964
37.2924
41.6116
47.8409
56.8485
69.6291
87.2
110.45
139.955
175.775
217.272
262.976
310.533
356.775
397.902
429.808
448.495
450.548
433.612
396.791
340.905
268.565
184.023
92.8193
1.24338
-84.3084
-158.01
-215.223
-252.974
-270.236
-267.973
-248.953
-217.351
-178.217
-136.854
-98.2101
-66.3505
-44.0624
-32.6437
-31.8819
-40.2137
-55.0322
-73.0936
-90.9653
-105.458
-113.993
-114.865
-107.383
-91.8798
-69.6106
-42.557
-13.1736
15.8916
42.0706
63.1163
77.2918
83.4972
81.331
71.0876
53.699
30.6304
3.74145
-24.8754
-53.0668
-78.7893
-100.267
-116.124
-125.484
-128.025
-123.988
-114.133
-99.6543
-82.0524
-62.9866
-44.1106
-26.9158
-12.5906
-1.91016
4.83741
7.8844
7.97493
6.31581
4.48772
4.31884
7.72407
16.5167
32.2037
55.7819
87.5559
127.001
172.697
222.344
272.878
320.683
361.894
392.75
409.99
411.228
395.265
362.305
314.02
253.468
184.849
113.12
43.5261
-18.9196
-69.9303
-106.359
-126.486
-130.138
-118.641
-94.6082
-61.5944
-23.6686
15.0477
50.816
80.6438
102.536
115.615
120.1
117.172
108.73
97.0921
84.6768
73.6986
65.9184
62.4702
63.7789
69.5693
78.9595
90.6176
102.96
114.365
123.369
128.83
130.044
126.785
119.298
108.221
94.4774
79.1296
63.2392
47.7356
33.3184
20.401
9.102
-0.721436
-9.40455
-17.3853
-25.1087
-32.9404
-41.1014
-49.6324
-58.391
-67.079
-75.2934
-82.5927
-88.5663
-92.8968
-95.4076
-96.0886
-95.0981
-92.7425
-89.4376
-85.657
-81.8765
-78.5191
-75.9095
-74.2415
-73.5616
-73.7707
-74.6421
-75.854
-77.0307
-77.7892
-77.7834
-76.7413
-74.4921
-70.978
-66.2535
-60.4714
-53.8598
-46.6948
-39.2719
-31.8816
-24.7907
-18.2308
-12.3926
-7.42505
-3.43678
-0.495968
1.37111
2.18426
2.01476
0.98994
-0.705868
-2.83648
-5.12674
-7.28348
-9.02311
-10.1029
-10.3519
-9.69575
-8.17193
-5.93083
-3.22144
-0.362626
2.29691
4.42446
5.74864
6.09738
5.42328
3.8122
1.47417
-1.28228
-4.08859
-6.56196
-8.35218
-9.18328
-8.88451
-7.40713
-4.82525
-1.32115
2.84217
7.35744
11.9134
16.2337
20.1091
23.4193
26.1408
28.3399
30.1517
31.7482
33.2999
34.9372
36.718
38.6073
40.4713
42.0893
43.1808
43.445
42.6058
40.4576
36.9032
31.9803
25.8692
18.8844
11.4465
4.04122
-2.83134
-8.71009
-13.2221
-16.1218
-17.3153
-16.8675
-14.9919
-12.0238
-8.38249
-4.52608
-0.904609
2.08268
4.12185
5.00751
4.65328
3.09001
0.45351
-3.03547
-7.09565
-11.411
-15.6555
-19.5146
-22.7032
-24.9792
-26.1532
-26.0939
-24.7301
-22.048
-18.0856
-12.9207
-6.65654
0.596426
8.73983
17.7045
27.462
38.0271
49.4465
61.7744
75.0313
89.1525
103.929
118.955
133.581
146.91
157.822
165.053
167.323
163.498
152.783
134.897
110.205
79.7901
45.4158
9.39971
-25.611
-56.9267
-82.1279
-99.3576
-107.551
-106.567
-97.2028
-81.0923
-60.4984
-38.036
-16.3605
2.13407
15.5703
22.7639
23.3057
17.5452
6.48405
-8.39772
-25.3563
-42.6081
-58.535
-71.8453
-81.6771
-87.6357
-89.7687
-88.4896
-84.466
-78.4918
-71.363
-63.7722
-56.2363
-49.0601
-42.3396
-35.9966
-29.8369
-23.6198
-17.1255
-10.2109
-2.84359
4.88883
12.7939
20.6103
28.0574
34.8891
40.944
46.1833
50.711
54.773
58.7344
63.038
68.1492
74.4938
82.3974
92.0346
103.393
116.262
130.237
144.757
159.154
172.713
184.745
194.653
201.981
206.454
207.993
206.699
202.829
196.744
188.855
179.563
169.213
158.062
146.262
133.875
120.901
107.319
93.141
78.4495
63.4323
48.3921
33.7344
19.9354
7.49231
-3.13511
-11.5829
-17.6325
-21.2439
-22.5671
-21.9312
-19.8108
-16.776
-13.4322
-10.3569
-8.04275
-6.85215
-6.98947
-8.49247
-11.2426
-14.9917
-19.3993
-24.0772
-28.6324
-32.7064
-36.0055
-38.3202
-39.5339
-39.6209
-38.6364
-36.7006
-33.9802
-30.6686
-26.9685
-23.0762
-19.1703
-15.4033
-11.8973
-8.7427
-6.00012
-3.70511
-1.87427
-0.51243
0.381058
0.80803
0.770653
0.274364
-0.665834
-2.01715
-3.72091
-5.68705
-7.79295
-9.88812
-11.8046
-13.3721
-14.4361
-14.8758
-14.6195
-13.6553
-12.0347
-9.86891
-7.31838
-4.57658
-1.85044
0.66023
2.78185
4.38242
5.38177
5.7558
5.53486
4.79682
3.65621
2.25083
0.72746
-0.771805
-2.12149
-3.22196
-4.00541
-4.43849
-4.52159
-4.28501
-3.78235
-3.08081
-2.24845
-1.33789
-0.366792
0.70328
1.98658
3.68684
6.09962
9.59898
14.6062
21.5417
30.7651
42.5116
56.8346
73.5654
92.2976
112.403
133.075
153.406
172.47
189.428
203.61
214.589
222.22
226.644
228.255
227.635
225.467
222.432
219.118
215.941
213.088
210.504
207.911
204.854
200.779
195.124
187.403
177.289
164.666
149.657
132.622
114.125
94.8764
75.6624
57.2673
40.3978
25.6191
13.3092
3.63384
-3.45448
-8.19656
-10.9882
-12.329
-12.7647
-12.8294
-12.9936
-13.6235
-14.9553
-17.0843
-19.972
-23.4653
-27.3274
-31.2746
-35.015
-38.2838
-40.8719
-42.6446
-43.549
-43.61
-42.9163
-41.5994
-39.8067
-37.6753
-35.3058
-32.7409
-29.949
-26.8151
-23.1375
-18.6338
-12.9545
-5.70849
3.49837
15.0093
29.0474
45.6349
64.5099
85.0555
106.26
126.726
144.744
158.436
165.954
165.727
156.704
138.563
111.855
78.0298
39.3603
-1.26308
-40.623
-75.5247
-103.155
-121.404
-129.097
-126.126
-113.438
-92.9065
-67.0921
-38.9338
-11.4062
12.8084
31.5959
43.6022
48.3225
46.0853
37.9393
25.4656
10.5442
-4.89277
-19.0894
-30.649
-38.6538
-42.7111
-42.93
-39.836
-34.244
-27.1096
-19.3809
-11.8728
-5.17563
0.389434
4.76967
8.13811
10.8204
13.205
15.6535
18.4241
21.6213
25.1789
28.8757
32.3822
35.3284
37.3798
38.3108
38.0617
36.7716
34.7804
32.6019
30.8688
30.2603
31.4191
34.8709
40.9557
49.7785
61.1872
74.7776
89.9249
105.838
121.629
136.39
149.268
159.533
166.629
170.206
170.137
166.505
159.581
149.787
137.648
123.751
108.7
93.0799
77.4344
62.2448
47.9213
34.7978
23.1284
13.0858
4.75933
-1.84665
-6.81169
-10.2949
-12.5251
-13.7852
-14.3909
-14.6648
-14.9102
-15.385
-16.281
-17.71
-19.6989
-22.1937
-25.0721
-28.1628
-31.2681
-34.1886
-36.7441
-38.7921
-40.2382
-41.0413
-41.211
-40.8003
-39.8946
-38.5986
-37.0239
-35.2776
-33.4546
-31.6323
-29.8684
-28.2018
-26.6543
-25.2343
-23.9396
-22.7601
-21.6807
-20.6818
-19.7416
-18.836
-17.9398
-17.0282
-16.0776
-15.0678
-13.9827
-12.8121
-11.5525
-10.2071
-8.7857
-7.30382
-5.78145
-4.24185
-2.71009
-1.21165
0.228955
1.58951
2.8513
4.00014
5.027
5.9281
6.70442
7.36049
7.90258
8.3365
8.66521
8.8867
8.99243
8.9666
8.78641
8.42338
7.84571
7.02144
5.92257
4.52997
2.83876
0.863846
-1.35529
-3.75148
-6.2294
-8.66865
-10.9306
-12.869
-14.3428
-15.2307
-15.4442
-14.9388
-13.7207
-11.8474
-9.42356
-6.59086
-3.5139
-0.363298
2.70179
5.54989
8.09039
10.2824
12.1384
13.7227
15.1447
16.5468
18.09
19.9357
22.2276
25.0742
28.5345
32.6079
37.2303
42.2762
47.5663
52.881
57.9763
62.6021
66.5194
69.5164
71.4213
72.1122
71.5228
69.6444
66.525
62.2648
57.0096
50.9417
44.2696
37.2168
30.0094
22.8648
15.9807
9.52496
3.6287
-1.6194
-6.17515
-10.0382
-13.2483
-15.8796
-18.0319
-19.8218
-21.3726
-22.8046
-24.2267
-25.7295
-27.38
-29.2194
-31.2616
-33.495
-35.8847
-38.3761
-40.8987
-43.3706
-45.7017
-47.7971
-49.559
-50.8868
-51.6777
-51.8252
-51.2186
-49.743
-47.2804
-43.7122
-38.924
-32.8103
-25.2817
-16.2729
-5.75237
6.26401
19.696
34.3771
50.0282
66.2297
82.3971
97.7675
111.408
122.252
129.175
131.102
127.141
116.73
99.7694
76.7137
48.6089
17.0543
-15.9117
-47.9934
-76.8658
-100.421
-117.001
-125.579
-125.878
-118.393
-104.328
-85.4555
-63.9032
-41.9192
-21.6264
-4.80515
7.27281
13.9427
15.1694
11.4974
3.93864
-6.18209
-17.4038
-28.3038
-37.6503
-44.5172
-48.3508
-48.9872
-46.6234
-41.7509
-35.0647
-27.361
-19.4361
-11.9986
-5.60013
-0.591642
2.89719
4.95475
5.86504
6.06928
6.11578
6.60209
8.11361
11.1634
16.1381
23.255
32.5351
43.7955
56.663
70.6084
84.9999
99.168
112.477
124.393
134.542
142.745
149.033
153.637
156.947
159.456
161.695
164.156
167.231
171.158
175.995
181.606
187.675
193.742
199.242
203.561
206.086
206.255
203.603
197.796
188.664
176.219
160.669
142.412
122.029
100.251
77.9159
55.9119
35.1092
16.292
0.0933033
-13.0574
-22.9676
-29.6921
-33.5179
-34.9257
-34.5321
-33.0198
-31.0638
-29.2628
-28.082
-27.8153
-28.5695
-30.2697
-32.6873
-35.482
-38.2548
-40.6042
-42.178
-42.716
-42.078
-40.256
-37.3695
-33.6455
-29.3874
-24.9366
-20.6317
-16.7716
-13.5846
-11.2081
-9.68066
-8.94496
-8.86242
-9.23571
-9.83637
-10.4341
-10.8238
-10.8476
-10.4098
-9.48275
-8.10445
-6.36832
-4.40686
-2.3717
-0.412746
1.34111
2.79715
3.90831
4.67591
5.14562
5.3975
5.53168
5.65182
5.8486
6.18558
6.68922
7.34436
8.09557
8.85421
9.51005
9.94587
10.0531
9.74617
8.9743
7.72825
6.04233
3.99086
1.68005
-0.763451
-3.20574
-5.51876
-7.59155
-9.33845
-10.7035
-11.6607
-12.2115
-12.3786
-12.2002
-11.7228
-10.9959
-10.0683
-8.98602
-7.79151
-6.52459
-5.22291
-3.92226
-2.65605
-1.45375
-0.338715
0.674403
1.582
2.39336
3.13171
3.83466
4.55414
5.35585
6.31824
7.5306
9.08962
11.0939
13.636
16.7917
20.6073
25.086
30.1745
35.753
41.6298
47.5424
53.1679
58.1411
62.0812
64.6233
65.4536
64.3424
61.1723
55.9568
48.8488
40.1348
30.2179
19.59
8.79488
-1.6123
-11.1076
-19.2377
-25.6535
-30.1343
-32.6014
-33.1186
-31.8813
-29.1947
-25.4433
-21.0556
-16.4663
-12.0808
-8.24486
-5.22142
-3.17689
-2.17723
-2.19331
-3.11424
-4.76665
-6.93748
-9.39775
-11.9248
-14.3212
-16.428
-18.1319
-19.3658
-20.1012
-20.3353
-20.0711
-19.295
-17.9523
-15.9251
-13.0156
-8.93898
-3.33143
4.22417
14.1502
26.8042
42.3907
60.8634
81.8337
104.505
127.65
149.659
168.641
182.614
189.72
188.477
178
158.185
129.787
94.416
54.408
12.6081
-27.9186
-64.21
-93.7201
-114.585
-125.803
-127.318
-119.983
-105.43
-85.8486
-63.7183
-41.5222
-21.4792
-5.32667
5.82449
11.5504
12.0901
8.24606
1.22946
-7.52779
-16.567
-24.5793
-30.545
-33.8228
-34.183
-31.7874
-27.1228
-20.9026
-13.9521
-7.09144
-1.03374
3.69311
6.79303
8.21496
8.13522
6.91501
5.04141
3.0611
1.51552
0.884754
1.545
3.74271
7.58572
13.0503
20.0008
28.219
37.4376
47.3742
57.7622
68.3736
79.0343
89.6284
100.093
110.406
120.566
130.569
140.392
149.973
159.201
167.911
175.897
182.917
188.716
193.046
195.686
196.456
195.228
191.927
186.527
179.046
169.542
158.111
144.896
130.094
113.969
96.8623
79.1991
61.4744
44.2325
28.0294
13.3851
0.732434
-9.63108
-17.579
-23.1736
-26.6617
-28.447
-29.0438
-29.0164
-28.9134
-29.2056
-30.2348
-32.1818
-35.0546
-38.7006
-42.8367
-47.0958
-51.0803
-54.4166
-56.8033
-58.0472
-58.0835
-56.9777
-54.9124
-52.1588
-49.0399
-45.8893
-43.0115
-40.6478
-38.9527
-37.9814
-37.6906
-37.95
-38.564
-39.2988
-39.9124
-40.1833
-39.9349
-39.0533
-37.4964
-35.2948
-32.5437
-29.3889
-26.0075
-22.5863
-19.3017
-16.301
-13.6892
-11.5218
-9.80383
-8.49503
-7.51994
-6.78154
-6.17624
-5.60819
-5.00113
-4.30652
-3.507
-2.61516
-1.66815
-0.719157
0.172823
0.953483
1.58234
2.03944
2.32873
2.47791
2.53488
2.56161
2.62636
2.79554
3.12648
3.66225
4.42943
5.43903
6.69051
8.17775
9.8957
11.8459
14.0397
16.497
19.2424
22.2971
25.6692
29.3441
33.2761
37.3842
41.5513
45.6287
49.4449
52.8168
55.563
57.5177
58.5426
58.5378
57.4492
55.273
52.057
47.899
42.9411
37.3624
31.3678
25.1765
19.0071
13.0648
7.52705
2.53342
-1.82275
-5.49794
-8.49774
-10.8717
-12.7042
-14.103
-15.1856
-16.0673
-16.8492
-17.6105
-18.404
-19.2553
-20.1661
-21.1199
-22.0892
-23.0434
-23.9552
-24.806
-25.5874
-26.3016
-26.9582
-27.5691
-28.1421
-28.6737
-29.1417
-29.4999
-29.6742
-29.5636
-29.0436
-27.974
-26.2089
-23.6055
-20.0314
-15.3653
-9.49436
-2.30799
6.30318
16.4377
28.1547
41.4248
56.0631
71.6575
87.5119
102.625
115.724
125.365
130.09
128.63
120.122
104.29
81.5778
53.1765
20.9574
-12.7014
-45.1672
-73.85
-96.5031
-111.484
-117.938
-115.884
-106.187
-90.4313
-70.7074
-49.3527
-28.6725
-10.6836
3.08969
11.7463
15.0539
13.41
7.73135
-0.708868
-10.4713
-20.1406
-28.4925
-34.6184
-37.9968
-38.5077
-36.3951
-32.1872
-26.5914
-20.3783
-14.2724
-8.86158
-4.53601
-1.45866
0.431157
1.38668
1.80211
2.14937
2.91247
4.52764
7.3359
11.5523
17.254
24.3859
32.782
42.197
52.3435
62.928
73.6824
84.386
94.8771
105.053
114.864
124.294
133.347
142.027
150.326
158.215
165.643
172.539
178.821
184.403
189.205
193.153
196.183
198.232
199.231
199.095
197.714
194.951
190.643
184.618
176.711
166.795
154.813
140.81
124.961
107.585
89.149
70.2466
51.5667
33.8404
17.7807
4.01728
-6.96335
-14.8656
-19.6143
-21.3609
-20.467
-17.4654
-13.0044
-7.78201
-2.47697
2.31382
6.12629
8.66236
9.80312
9.60151
8.25697
6.07621
3.42576
0.682351
-1.81279
-3.79087
-5.08
-5.61556
-5.43647
-4.66924
-3.50291
-2.15893
-0.86006
0.197591
0.86639
1.0606
0.760656
0.00870851
-1.10311
-2.44934
-3.89
-5.28905
-6.52987
-7.52632
-8.22846
-8.62277
-8.72779
-8.58624
-8.25542
-7.79727
-7.26981
-6.72078
-6.18419
-5.67981
-5.21512
-4.78909
-4.39677
-4.0338
-3.69993
-3.40113
-3.14975
-2.96308
-2.86048
-2.85972
-2.97323
-3.20472
-3.547
-3.98097
-4.47618
-4.9927
-5.48429
-5.90241
-6.20074
-6.33975
-6.29089
-6.03975
-5.58796
-4.95314
-4.1669
-3.27051
-2.3087
-1.32203
-0.338756
0.632562
1.6083
2.63178
3.77106
5.11237
6.74966
8.77143
11.2465
14.2113
17.6595
21.5374
25.7448
30.1419
34.5619
38.8272
42.767
46.2351
49.1235
51.3711
52.9669
53.9454
54.3768
54.3527
53.969
53.3097
52.4327
51.3613
50.0806
48.5411
46.6679
44.3743
41.5779
38.2165
34.2623
29.7323
24.692
19.2547
13.5732
7.82754
2.20897
-3.09807
-7.93276
-12.1725
-15.743
-18.6236
-20.8459
-22.4883
-23.6643
-24.5093
-25.165
-25.7638
-26.416
-27.1993
-28.1522
-29.2724
-30.5191
-31.8179
-33.0699
-34.1604
-34.9684
-35.3736
-35.2616
-34.5249
-33.0608
-30.7652
-27.5243
-23.2055
-17.6504
-10.673
-2.06968
8.35679
20.7538
35.1577
51.4186
69.1249
87.5433
105.595
121.884
134.793
142.639
143.877
137.327
122.386
99.1888
68.6911
32.643
-6.53826
-45.9943
-82.7194
-113.885
-137.153
-150.931
-154.543
-148.292
-133.4
-111.853
-86.1533
-59.0264
-33.118
-10.7143
6.47808
17.4702
22.036
20.665
14.4345
4.82288
-6.5085
-17.9357
-28.0669
-35.8886
-40.8487
-42.8707
-42.301
-39.8034
-36.2173
-32.4026
-29.0938
-26.7835
-25.6502
-25.5371
-25.9843
-26.304
-25.689
-23.3345
-18.5583
-10.901
-0.193779
13.4144
29.4736
47.2887
66.0087
84.7336
102.626
119.014
133.464
145.825
156.23
165.057
172.861
180.278
187.925
196.303
205.719
216.233
227.647
239.516
251.204
261.952
270.965
277.5
280.942
280.868
277.086
269.642
258.811
245.06
228.998
211.316
192.725
173.898
155.421
137.755
121.218
105.978
92.0664
79.4017
67.8263
57.1449
47.164
37.7257
28.7326
20.1604
12.0585
4.53865
-2.24514
-8.1226
-12.9348
-16.5597
-18.932
-20.0554
-20.0057
-18.9257
-17.0122
-14.4985
-11.6337
-8.66323
-5.81051
-3.26368
-1.16648
0.385724
1.34541
1.70881
1.50914
0.808307
-0.312004
-1.75904
-3.4368
-5.25257
-7.12183
-8.97148
-10.7413
-12.384
-13.864
-15.1548
-16.2375
-17.0974
-17.7226
-18.1028
-18.2291
-18.095
-17.6979
-17.0409
-16.135
-15.0003
-13.6663
-12.1709
-10.5582
-8.87566
-7.17058
-5.4875
-3.86614
-2.34096
-0.941882
0.303744
1.36874
2.22385
2.83668
3.17246
3.19749
2.88502
2.22333
1.2247
-0.0664368
-1.56794
-3.15889
-4.68421
-5.96547
-6.81739
-7.06864
-6.58428
-5.28706
-3.17437
-0.327813
3.08654
6.82836
10.6036
14.0937
16.9907
19.0344
20.0475
19.9634
18.8436
16.8811
14.3892
11.7748
9.50033
8.03628
7.81097
9.162
12.2954
17.2573
23.9206
31.99
41.0235
50.4693
59.7136
68.1361
75.1644
80.3256
83.2861
83.8781
82.1093
78.1555
72.3372
65.0833
56.8865
48.2543
39.6634
31.5189
24.1256
17.6713
12.2253
7.7492
4.12001
1.16045
-1.32688
-3.52648
-5.58232
-7.57922
-9.53556
-11.4081
-13.1076
-14.5229
-15.5492
-16.1153
-16.2065
-15.8779
-15.2568
-14.5331
-13.9391
-13.7208
-14.106
-15.272
-17.3181
-20.2469
-23.9553
-28.2379
-32.8
-37.28
-41.2761
-44.3741
-46.1729
-46.3022
-44.4334
-40.283
-33.6117
-24.2265
-11.9926
3.13833
21.0808
41.5502
63.9915
87.5173
110.878
132.484
150.498
162.992
168.171
164.62
151.55
128.996
97.9154
60.1875
18.474
-24.0262
-63.9113
-97.9505
-123.45
-138.557
-142.471
-135.514
-119.081
-95.4497
-67.501
-38.3723
-11.0992
11.7145
28.1578
37.1761
38.6246
33.2107
22.3404
7.89501
-8.03032
-23.3912
-36.4288
-45.8487
-50.9268
-51.5363
-48.0982
-41.47
-32.7912
-23.3092
-14.2089
-6.46682
-0.745884
2.66104
3.83555
3.19117
1.39344
-0.744175
-2.37381
-2.72162
-1.17872
2.6346
8.8368
17.2864
27.6138
39.2788
51.6439
64.0557
75.9241
86.789
96.369
104.585
111.559
117.583
123.074
128.508
134.351
140.99
148.681
157.51
167.376
178
188.95
199.687
209.613
218.127
224.675
228.787
230.109
228.415
223.609
215.726
204.913
191.416
175.571
157.784
138.525
118.319
97.7298
77.3517
57.7842
39.6071
23.3473
9.44366
-1.78888
-10.1881
-15.7641
-18.7038
-19.3588
-18.2164
-15.8555
-12.8927
-9.92319
-7.4659
-5.91623
-5.51439
-6.33136
-8.27404
-11.108
-14.4943
-18.0355
-21.3249
-23.993
-25.7467
-26.3967
-25.8717
-24.2187
-21.5904
-18.2223
-14.4032
-10.4419
-6.63545
-3.24073
-0.453019
1.60711
2.89796
3.45224
3.36547
2.77898
1.86008
0.781694
-0.296273
-1.24201
-1.96217
-2.40685
-2.56932
-2.48108
-2.20319
-1.81538
-1.40409
-1.05092
-0.822654
-0.763668
-0.891482
-1.19563
-1.63983
-2.16715
-2.70738
-3.1859
-3.53294
-3.69228
-3.62829
-3.33062
-2.81582
-2.12571
-1.32259
-0.481768
0.31773
1.00313
1.51733
1.82648
1.92472
1.83526
1.60765
1.31149
1.02737
0.836416
0.809841
1.00013
1.43527
2.11694
3.02318
4.11519
5.34743
6.6793
8.08667
9.57104
11.1647
12.9307
14.9567
17.3443
20.1941
23.5883
27.5741
32.1494
37.2533
42.7619
48.4921
54.211
59.6527
64.5383
68.5994
71.6006
73.3601
73.7658
72.7842
70.4631
66.9268
62.3634
57.008
51.1205
44.962
38.7718
32.7469
27.0263
21.6836
16.7262
12.1043
7.72705
3.48356
-0.732848
-5.00213
-9.35927
-13.7836
-18.1972
-22.4731
-26.4515
-29.9628
-32.8529
-35.0079
-36.3736
-36.9684
-36.8849
-36.2828
-35.3715
-34.3865
-33.561
-33.0985
-33.148
-33.7849
-35.0008
-36.6997
-38.7019
-40.7522
-42.5309
-43.6655
-43.7435
-42.3253
-38.9606
-33.2094
-24.671
-13.0238
1.92199
20.1605
41.4193
65.0924
90.1931
115.346
138.832
158.703
172.963
179.786
177.775
166.182
145.09
115.489
79.2503
38.9757
-2.24994
-41.1828
-74.7737
-100.504
-116.66
-122.513
-118.373
-105.526
-86.0518
-62.5627
-37.8854
-14.7378
4.56297
18.3289
25.6395
26.3816
21.1913
11.3137
-1.59686
-15.7073
-29.2351
-40.6504
-48.828
-53.1353
-53.4534
-50.1328
-43.8987
-35.7201
-26.664
-17.7535
-9.84633
-3.54687
0.841987
3.32513
4.18388
3.91469
3.14841
2.56194
2.79335
4.37039
7.65934
12.8381
19.894
28.6439
38.771
49.8729
61.5126
73.267
84.7665
95.7237
105.948
115.347
123.917
131.723
138.876
145.508
151.746
157.692
163.408
168.908
174.152
179.051
183.473
187.252
190.202
192.127
192.83
192.126
189.847
185.847
180.006
172.244
162.523
150.868
137.38
122.251
105.78
88.3702
70.5228
52.8124
35.8474
20.2213
6.45682
-5.04684
-14.0582
-20.5408
-24.6589
-26.7601
-27.3352
-26.9606
-26.23
-25.6848
-25.7508
-26.6926
-28.588
-31.3281
-34.6411
-38.1367
-41.3641
-43.8762
-45.2907
-45.3412
-43.9106
-41.0459
-36.9507
-31.9588
-26.4936
-21.0181
-15.9825
-11.7766
-8.69142
-6.89443
-6.42048
-7.17747
-8.96524
-11.5038
-14.4671
-17.5172
-20.3367
-22.6551
-24.2673
-25.0448
-24.9384
-23.9739
-22.2417
-19.883
-17.0728
-14.0029
-10.8656
-7.83844
-5.07301
-2.68609
-0.75481
0.684617
1.63498
2.13325
2.24355
2.04883
1.64189
1.11676
0.561067
0.0501285
-0.35701
-0.619318
-0.713461
-0.631704
-0.378487
0.0337994
0.589302
1.27295
2.07406
2.98893
4.02227
5.18735
6.50491
8.00097
9.70378
11.6403
13.8327
16.295
19.0303
22.03
25.2728
28.7265
32.35
36.0964
39.916
43.7595
47.5785
51.3262
54.9551
58.4138
61.6422
64.5678
67.1006
69.1316
70.533
71.1619
70.8687
69.5104
66.9665
63.1586
58.068
51.7518
44.3517
36.0948
27.2839
18.2783
9.46594
1.23022
-6.08506
-12.2076
-16.9622
-20.2859
-22.2322
-22.9623
-22.7256
-21.8313
-20.6154
-19.406
-18.4915
-18.0953
-18.3591
-19.3359
-20.9928
-23.2236
-25.8666
-28.7277
-31.6044
-34.3074
-36.6792
-38.6043
-40.0139
-40.8799
-41.2031
-40.9939
-40.2499
-38.9334
-36.9524
-34.1496
-30.3018
-25.133
-18.3406
-9.63572
1.20434
14.2744
29.4736
46.4406
64.5007
82.6425
99.5369
113.614
123.199
126.703
122.845
110.876
90.7589
63.2824
30.0668
-6.54181
-43.6856
-78.2926
-107.419
-128.589
-140.088
-141.161
-132.099
-114.197
-89.5877
-60.9847
-31.3584
-3.59827
19.8014
36.9922
46.931
49.4324
45.1153
35.2579
21.5846
6.01877
-9.56529
-23.5583
-34.7757
-42.5442
-46.7133
-47.5947
-45.8491
-42.3375
-37.9642
-33.5325
-29.6321
-26.5709
-24.3561
-22.7236
-21.2051
-19.2221
-16.1902
-11.6183
-5.18882
3.19092
13.3723
24.9838
37.4811
50.2194
62.5392
73.8515
83.713
91.8801
98.3357
103.285
107.126
110.387
113.659
117.511
122.42
128.701
136.472
145.637
155.9
166.796
177.752
188.15
197.393
204.97
210.494
213.728
214.588
213.118
209.457
203.793
196.318
187.196
176.543
164.432
150.908
136.026
119.892
102.701
84.7657
66.5201
48.5091
31.3481
15.6666
2.04094
-9.07417
-17.4036
-22.8906
-25.7089
-26.2476
-25.0676
-22.8384
-20.2614
-17.9915
-16.5673
-16.3571
-17.5286
-20.0445
-23.6826
-28.076
-32.7691
-37.2784
-41.1527
-44.0243
-45.6452
-45.9068
-44.8406
-42.6023
-39.4429
-35.6713
-31.614
-27.5762
-23.8102
-20.4931
-17.7157
-15.4843
-13.7327
-12.3435
-11.1735
-10.0827
-8.95882
-7.73806
-6.41638
-5.05133
-3.7534
-2.66804
-1.95055
-1.73735
-2.11802
-3.11231
-4.65642
-6.60098
-8.722
-10.7438
-12.3716
-13.3285
-13.3934
-12.4331
-10.425
-7.4664
-3.76988
0.355949
4.53691
8.37191
11.475
13.5159
14.2553
13.5704
11.4685
8.08808
3.68665
-1.38348
-6.70818
-11.8506
-16.3919
-19.9705
-22.3138
-23.2614
-22.7754
-20.9383
-17.9384
-14.0448
-9.57545
-4.86297
-0.220366
4.0875
7.86523
10.9988
13.4575
15.2869
16.5936
17.5251
18.2463
18.9162
19.6662
20.5836
21.7007
22.9907
24.3712
25.7138
26.86
27.6399
27.8929
27.4874
26.3376
24.4147
21.7519
18.4426
14.6312
10.498
6.24078
2.05449
-1.88784
-5.45041
-8.54444
-11.1312
-13.2186
-14.851
-16.0965
-17.0309
-17.7236
-18.2259
-18.5651
-18.7428
-18.7401
-18.526
-18.0687
-17.3464
-16.3569
-15.1228
-13.6929
-12.1374
-10.5406
-8.98958
-7.56101
-6.30879
-5.25167
-4.36258
-3.5595
-2.69846
-1.56943
0.103279
2.65413
6.46061
11.9171
19.398
29.21
41.5386
56.3913
73.5444
92.5019
112.473
132.377
150.881
166.475
177.586
182.722
180.638
170.503
152.06
125.727
92.6501
54.6667
14.1814
-26.0372
-63.1242
-94.416
-117.742
-131.67
-135.666
-130.156
-116.465
-96.6519
-73.2594
-49.0114
-26.4987
-7.89447
5.2658
12.2151
12.9847
8.33595
-0.392856
-11.4968
-23.1436
-33.6078
-41.4729
-45.777
-46.091
-42.5231
-35.6579
-26.4427
-16.0391
-5.66198
3.57394
10.7825
15.3968
17.2144
16.3964
13.4247
9.02542
4.07135
-0.524067
-3.90802
-5.37363
-4.42101
-0.78954
5.53916
14.3647
25.3117
37.8862
51.536
65.7079
79.8943
93.6673
106.696
118.752
129.698
139.476
148.084
155.558
161.954
167.335
171.763
175.298
177.993
179.9
181.069
181.542
181.353
180.515
179.01
176.775
173.699
169.612
164.301
157.53
149.069
138.742
126.469
112.308
96.4858
79.4085
61.648
43.906
26.9564
11.573
-1.54866
-11.8644
-19.0411
-22.9933
-23.8927
-22.149
-18.3642
-13.2656
-7.62822
-2.19252
2.40882
5.70945
7.44569
7.56777
6.22613
3.73568
0.523864
-2.93033
-6.1584
-8.75782
-10.4348
-11.03
-10.526
-9.03604
-6.7785
-4.04031
-1.13563
1.63497
4.01949
5.83988
7.00537
7.51307
7.43715
6.90892
6.09157
5.15346
4.24369
3.47341
2.90452
2.54699
2.36401
2.28356
2.21418
2.062
1.74667
1.21397
0.443478
-0.549164
-1.71531
-2.98068
-4.25572
-5.44717
-6.46929
-7.25334
-7.75435
-7.95478
-7.86498
-7.52093
-6.97971
-6.31363
-5.60352
-4.9319
-4.37658
-4.00488
-3.86903
-4.00262
-4.41846
-5.10775
-6.04068
-7.16842
-8.42654
-9.73954
-11.0264
-12.2065
-13.2059
-13.9626
-14.4315
-14.5869
-14.4244
-13.9598
-13.2269
-12.2731
-11.1551
-9.93225
-8.66211
-7.39481
-6.16917
-5.00955
-3.92384
-2.90264
-1.91973
-0.93374
0.108806
1.26942
2.61279
4.20146
6.0907
8.32378
10.9282
13.913
17.2669
20.9575
24.9308
29.1106
33.3978
37.6696
41.7794
45.5584
48.8207
51.3711
53.0186
53.5924
52.9607
51.049
47.8555
43.4608
38.0294
31.8027
25.0826
18.2078
11.5246
5.35694
-0.022626
-4.41585
-7.71397
-9.90317
-11.0601
-11.3384
-10.9484
-10.1322
-9.13833
-8.19736
-7.50223
-7.19426
-7.35591
-8.01039
-9.12722
-10.6327
-12.4233
-14.3807
-16.3859
-18.3324
-20.1353
-21.7373
-23.1107
-24.2549
-25.1892
-25.9426
-26.5391
-26.9811
-27.2314
-27.1965
-26.7131
-25.5392
-23.3534
-19.7634
-14.325
-6.574
3.92687
17.526
34.4065
54.5002
77.4043
102.314
127.994
152.805
174.799
191.886
202.061
203.655
195.59
177.58
150.246
115.121
74.5421
31.4165
-11.0757
-49.8279
-82.1411
-106.004
-120.286
-124.814
-120.336
-108.385
-91.0504
-70.7144
-49.7682
-30.357
-14.175
-2.3336
4.69128
7.03179
5.33426
0.616364
-5.9022
-12.972
-19.4683
-24.5104
-27.5365
-28.3292
-26.9948
-23.9044
-19.609
-14.7412
-9.91892
-5.66142
-2.32774
-0.0827206
1.10814
1.45731
1.31279
1.10214
1.27158
2.22827
4.29308
7.66851
12.4247
18.5036
25.7383
33.8854
42.6619
51.7848
61.0048
70.1316
79.0482
87.7131
96.1508
104.434
112.661
120.93
129.315
137.849
146.51
155.219
163.842
172.199
180.076
187.242
193.461
198.503
202.148
204.189
204.429
202.68
198.762
192.515
183.811
172.584
158.857
142.775
124.626
104.848
84.0259
62.8558
42.1003
22.5249
4.83039
-10.4124
-22.816
-32.2108
-38.6565
-42.428
-43.9783
-43.8844
-42.7806
-41.2898
-39.9601
-39.2135
-39.3124
-40.3466
-42.2404
-44.7786
-47.6454
-50.472
-52.8859
-54.5563
-55.2301
-54.7564
-53.0956
-50.3163
-46.578
-42.1066
-37.1635
-32.0138
-26.8975
-22.0067
-17.4716
-13.3547
-9.6557
-6.32325
-3.273
-0.408199
2.35964
5.09325
7.81733
10.5132
13.1206
15.5462
17.6773
19.3982
20.6072
21.2314
21.2374
20.6363
19.4832
17.8707
15.918
13.7586
11.5259
9.34181
7.30712
5.49628
3.95585
2.70648
1.74739
1.06214
0.624231
0.401639
0.359366
0.460023
0.662717
0.921064
1.18133
1.38164
1.45304
1.32266
0.918932
0.178229
-0.947944
-2.48623
-4.43618
-6.76735
-9.41907
-12.3032
-15.3092
-18.3114
-21.1775
-23.7776
-25.9924
-27.7211
-28.8875
-29.4438
-29.3727
-28.6862
-27.4233
-25.6441
-23.4229
-20.8398
-17.9715
-14.8826
-11.6185
-8.19993
-4.62138
-0.852317
3.15701
7.46636
12.1332
17.1987
22.6735
28.5251
34.6691
40.9648
47.2168
53.1837
58.5922
63.1569
66.6039
68.6956
69.2552
68.1861
65.4861
61.2528
55.6793
49.0413
41.6752
33.9509
26.2403
18.8865
12.1758
6.31675
1.42689
-2.46934
-5.43283
-7.5926
-9.12174
-10.2097
-11.0352
-11.7425
-12.4268
-13.1268
-13.8296
-14.4829
-15.0144
-15.3539
-15.4544
-15.3082
-14.9563
-14.488
-14.0319
-13.74
-13.7654
-14.2386
-15.2447
-16.8041
-18.8589
-21.2663
-23.8007
-26.1618
-27.9917
-28.8965
-28.4736
-26.3401
-22.162
-15.6789
-6.72472
4.75891
18.715
34.9661
53.2088
73.0018
93.7484
114.675
134.818
153.024
167.99
178.337
182.735
180.051
169.523
150.913
124.626
91.7569
54.0656
13.8545
-26.2251
-63.4247
-95.1759
-119.357
-134.515
-140.013
-136.085
-123.794
-104.893
-81.6205
-56.4426
-31.7879
-9.79778
7.87385
20.1928
26.7972
27.9697
24.5389
17.7269
8.96608
-0.291385
-8.74675
-15.3925
-19.601
-21.1574
-20.2384
-17.3431
-13.189
-8.58763
-4.31777
-1.01115
0.934313
1.40444
0.576927
-1.11169
-3.03419
-4.46545
-4.68629
-3.08414
0.763076
7.03067
15.6249
26.1968
38.1884
50.9048
63.6011
75.5722
86.2344
95.188
102.255
107.486
111.141
113.648
115.535
117.365
119.665
122.865
127.252
132.944
139.884
147.855
156.511
165.41
174.063
181.971
188.657
193.693
196.704
197.382
195.482
190.827
183.311
172.918
159.736
143.982
126.018
106.358
85.6596
64.6987
44.3222
25.3855
8.68058
-5.13675
-15.6115
-22.5361
-25.9731
-26.2491
-23.9205
-19.7153
-14.4567
-8.97876
-4.04373
-0.270383
1.91823
2.32286
0.969812
-1.91243
-5.93729
-10.6186
-15.4356
-19.8964
-23.5925
-26.2386
-27.6945
-27.9673
-27.1964
-25.6233
-23.5528
-21.3099
-19.199
-17.4693
-16.2912
-15.7437
-15.8156
-16.4158
-17.3936
-18.5626
-19.7264
-20.7028
-21.3427
-21.5433
-21.2539
-20.4758
-19.2552
-17.6737
-15.8352
-13.853
-11.8376
-9.8868
-8.0776
-6.46162
-5.06271
-3.87701
-2.87524
-2.00676
-1.20531
-0.396121
0.496008
1.53807
2.78045
4.24956
5.94237
7.82379
9.82738
11.8598
13.8087
15.5534
16.9767
17.978
18.4832
18.4536
17.8901
16.8349
15.3696
13.6105
11.7028
9.81307
8.12009
6.80504
6.03962
5.97309
6.71838
8.33857
10.8353
14.1411
18.117
22.5577
27.2037
31.7602
35.9217
39.3989
41.9449
43.3781
43.5985
42.5952
40.4453
37.3035
33.3837
28.9366
24.2241
19.4941
14.9591
10.7793
7.05354
3.8159
1.04077
-1.34705
-3.45771
-5.4193
-7.36067
-9.39581
-11.6117
-14.0604
-16.7567
-19.6801
-22.781
-25.9897
-29.2267
-32.4112
-35.469
-38.3367
-40.9636
-43.3113
-45.3514
-47.0631
-48.4311
-49.4444
-50.0962
-50.3846
-50.3141
-49.8973
-49.1557
-48.1199
-46.828
-45.323
-43.6483
-41.8416
-39.927
-37.9063
-35.7497
-33.386
-30.6952
-27.503
-23.5801
-18.6502
-12.4085
-4.55605
5.1468
16.809
30.3249
45.2919
60.9488
76.1588
89.4571
99.1718
103.616
101.329
91.3259
73.319
47.8636
16.3937
-18.8657
-55.1075
-89.2455
-118.272
-139.618
-151.466
-152.968
-144.342
-126.835
-102.559
-74.2255
-44.8126
-17.2202
6.05394
23.1702
33.1096
35.728
31.702
22.3821
9.57575
-4.7044
-18.4963
-30.1147
-38.3228
-42.4336
-42.3341
-38.437
-31.5714
-22.8327
-13.4126
-4.4329
3.19727
8.88428
12.4034
13.8993
13.8385
12.922
11.9731
11.8175
13.17
16.5446
22.1956
30.0989
39.969
51.3112
63.4966
75.8499
87.7375
98.6438
108.227
116.35
123.079
128.664
133.489
138.018
142.726
148.04
154.287
161.657
170.185
179.744
190.069
200.773
211.393
221.418
230.333
237.645
242.914
245.761
245.887
243.071
237.176
228.149
216.027
200.943
183.138
162.967
140.9
117.522
93.5077
69.5969
46.5454
25.075
5.8165
-10.7424
-24.3002
-34.7685
-42.2795
-47.172
-49.9582
-51.272
-51.8078
-52.2521
-53.2185
-55.1895
-58.4727
-63.1744
-69.1941
-76.2378
-83.852
-91.4712
-98.4776
-104.264
-108.296
-110.167
-109.639
-106.667
-101.402
-94.1801
-85.4823
-75.8927
-66.0385
-56.5313
-47.911
-40.5991
-34.8672
-30.8211
-28.4042
-27.4165
-27.548
-28.42
-29.6303
-30.7972
-31.5958
-31.785
-31.2217
-29.8634
-27.7585
-25.0292
-21.8481
-18.4131
-14.9232
-11.5576
-8.46042
-5.73133
-3.42255
-1.54178
-0.0600892
1.07711
1.93746
2.58943
3.09223
3.48901
3.80425
4.04556
4.20934
4.28926
4.28601
4.2164
4.12011
4.06246
4.13244
4.4359
5.08447
6.18199
7.80995
10.0143
12.7955
16.1027
19.8342
23.8421
27.9432
31.9324
35.5991
38.7437
41.1929
42.8131
43.519
43.2792
42.1164
40.1041
37.3588
34.0302
30.2886
26.3124
22.2754
18.3349
14.6227
11.2378
8.24258
5.66249
3.48811
1.68056
0.1788
-1.09179
-2.21048
-3.25281
-4.28369
-5.3526
-6.49118
-7.71349
-9.01847
-10.3944
-11.8245
-13.2927
-14.7896
-16.3163
-17.8872
-19.5292
-21.2786
-23.1732
-25.2423
-27.4943
-29.9036
-32.3997
-34.8617
-37.1192
-38.9626
-40.1606
-40.4866
-39.7467
-37.8087
-34.6253
-30.2481
-24.8286
-18.6057
-11.8782
-4.96598
1.83741
8.3152
14.3747
20.0851
25.6986
31.6484
38.5163
46.9675
57.6499
71.0664
87.433
106.546
127.684
149.577
170.458
188.206
200.577
205.488
201.323
187.201
163.176
130.316
90.6538
47.0075
2.68854
-38.8604
-74.4504
-101.502
-118.326
-124.289
-119.855
-106.489
-86.4512
-62.5037
-37.5756
-14.428
4.64017
18.0119
24.8754
25.244
19.876
10.1147
-2.32753
-15.6092
-27.992
-38.0384
-44.753
-47.6552
-46.7817
-42.6244
-36.0168
-27.9904
-19.6182
-11.87
-5.49326
-0.934048
1.69581
2.60616
2.27563
1.36893
0.637402
0.816757
2.53483
6.24
12.1573
20.2755
30.3636
42.0139
54.7027
67.8605
80.9422
93.4889
105.172
115.818
125.41
134.07
142.02
149.541
156.92
164.402
172.159
180.259
188.657
197.2
205.638
213.643
220.836
226.806
231.135
233.413
233.262
230.354
224.431
215.334
203.028
187.621
169.389
148.779
126.407
103.032
79.518
56.7792
35.7125
17.1272
1.67799
-10.1918
-18.2885
-22.6832
-23.7025
-21.8948
-17.9768
-12.7659
-7.10544
-1.79205
2.48919
5.21467
6.05373
4.87981
1.76167
-3.06274
-9.22565
-16.277
-23.7343
-31.13
-38.0507
-44.1664
-49.2468
-53.1654
-55.8921
-57.4775
-58.0317
-57.7009
-56.646
-55.0235
-52.9728
-50.6087
-48.0193
-45.2685
-42.4021
-39.4541
-36.4544
-33.4339
-30.4281
-27.4777
-24.627
-21.9203
-19.3974
-17.0889
-15.0124
-13.1702
-11.5493
-10.1235
-8.8568
-7.70911
-6.64141
-5.62119
-4.62648
-3.64807
-2.6897
-1.76607
-0.8993
-0.114293
0.566018
1.12475
1.55374
1.8544
2.03669
2.11645
2.11182
2.03939
1.91108
1.7323
1.50188
1.2139
0.860964
0.438371
-0.0517031
-0.596969
-1.1734
-1.74571
-2.27
-2.69833
-2.98445
-3.09008
-2.99049
-2.67869
-2.16745
-1.48864
-0.690091
0.169913
1.02953
1.83091
2.52731
3.0888
3.50593
3.79088
3.97599
4.11
4.25257
4.46776
4.81744
5.35543
6.12294
7.14597
8.4348
9.98557
11.7837
13.8083
16.0373
18.4512
21.0353
23.7793
26.6736
29.703
32.8383
36.0284
39.1932
42.2201
44.9661
47.2638
48.9345
49.804
49.7215
48.578
46.3227
42.9731
38.6192
33.4193
27.5878
21.3775
15.0568
8.88638
3.09802
-2.12266
-6.6466
-10.4047
-13.3845
-15.6209
-17.184
-18.1645
-18.661
-18.7691
-18.5738
-18.1469
-17.547
-16.8226
-16.0175
-15.1748
-14.341
-13.5681
-12.9118
-12.4291
-12.1722
-12.1823
-12.4827
-13.0726
-13.9224
-14.9706
-16.1212
-17.2433
-18.1696
-18.6963
-18.5839
-17.5595
-15.3232
-11.5565
-5.93608
1.84998
12.08
24.9705
40.6373
59.0455
79.9458
102.806
126.751
150.527
172.521
190.845
203.497
208.592
204.629
190.759
166.998
134.335
94.7213
50.909
6.17116
-36.0634
-72.6057
-100.873
-119.174
-126.87
-124.401
-113.176
-95.3434
-73.5009
-50.3621
-28.4451
-9.81336
4.1031
12.5909
15.6417
13.8577
8.29607
0.278573
-8.80504
-17.6747
-25.299
-30.9827
-34.3991
-35.5701
-34.8041
-32.6055
-29.5707
-26.2872
-23.2479
-20.7897
-19.0618
-18.0247
-17.4749
-17.0894
-16.4824
-15.2632
-13.0885
-9.70362
-4.96707
1.14054
8.52279
16.9858
26.2645
36.0535
46.0374
55.919
65.4433
74.4142
82.7069
90.2729
97.1404
103.41
109.243
114.853
120.48
126.377
132.778
139.875
147.792
156.564
166.114
176.244
186.631
196.827
206.28
214.356
220.373
223.653
223.573
219.62
211.46
198.979
182.331
161.955
138.568
113.133
86.7988
60.8115
36.4157
14.7467
-3.26995
-17.0009
-26.1593
-30.8237
-31.42
-28.6673
-23.4959
-16.9454
-10.0572
-3.77191
1.15558
4.21548
5.17153
4.05757
1.14473
-3.11431
-8.15605
-13.382
-18.231
-22.2387
-25.0807
-26.5938
-26.7769
-25.7724
-23.8335
-21.2824
-18.4646
-15.7067
-13.2801
-11.3767
-10.0952
-9.44093
-9.33612
-9.63846
-10.1653
-10.7196
-11.1149
-11.1964
-10.8559
-10.0407
-8.75474
-7.05339
-5.03318
-2.81767
-0.541768
1.66377
3.68585
5.43925
6.87256
7.96971
8.7472
9.24794
9.53261
9.66992
9.72708
9.76158
9.81512
9.91026
10.0498
10.2188
10.388
10.5194
10.5708
10.5018
10.2773
9.87073
9.26657
8.46051
7.45956
6.28085
4.94998
3.49876
1.96258
0.377574
-1.22242
-2.80876
-4.36061
-5.86691
-7.32734
-8.75209
-10.16
-11.5755
-13.0237
-14.5252
-16.0903
-17.7138
-19.3706
-21.0143
-22.5767
-23.9711
-25.0979
-25.8525
-26.1355
-25.8638
-24.9813
-23.4685
-21.3497
-18.6952
-15.6198
-12.2757
-8.8405
-5.50288
-2.44514
0.173387
2.23109
3.65496
4.42636
4.58092
4.20277
3.41393
2.36
1.19428
0.0618199
-0.914421
-1.64413
-2.07577
-2.19787
-2.03582
-1.64465
-1.0991
-0.482279
0.125727
0.657756
1.067
1.33113
1.45276
1.4565
1.38318
1.28219
1.20309
1.18781
1.26437
1.44297
1.71493
2.05447
2.42306
2.77556
3.06719
3.26043
3.33062
3.26957
3.08686
2.80852
2.47376
2.13034
1.82951
1.62168
1.55334
1.66576
1.99546
2.57586
3.43956
4.62031
6.15422
8.07975
10.4365
13.2639
16.5998
20.4821
24.9533
30.0695
35.9134
42.6077
50.3238
59.2764
69.698
81.785
95.6192
111.072
127.71
144.73
160.943
174.829
184.672
188.76
185.627
174.301
154.517
126.848
92.7305
54.3712
14.5411
-23.7184
-57.4373
-84.0592
-101.737
-109.544
-107.564
-96.8679
-79.3589
-57.5337
-34.1755
-12.0295
6.50122
19.6021
26.2094
26.0739
19.7247
8.34608
-6.41278
-22.6655
-38.5238
-52.3107
-62.7299
-68.9727
-70.7579
-68.3056
-62.2555
-53.5439
-43.2607
-32.5027
-22.2443
-13.236
-5.94211
-0.519489
3.16455
5.48114
6.96592
8.23323
9.8901
12.4602
16.3256
21.6919
28.5775
36.8269
46.1439
56.1387
66.3835
76.4675
86.048
94.888
102.879
110.047
116.534
122.576
128.455
134.454
140.812
147.683
155.106
163
171.16
179.284
186.999
193.902
199.593
203.711
205.951
206.076
203.916
199.362
192.357
182.897
171.032
156.88
140.65
122.654
103.328
83.2279
63.0186
43.4365
25.2403
9.14725
-4.23357
-14.4635
-21.3226
-24.8362
-25.2765
-23.1356
-19.076
-13.8617
-8.28025
-3.06391
1.17913
4.01712
5.22454
4.7873
2.88414
-0.15172
-3.88502
-7.83759
-11.5468
-14.6169
-16.7572
-17.8052
-17.7322
-16.6334
-14.7047
-12.2102
-9.44552
-6.70051
-4.22571
-2.20593
-0.742969
0.15121
0.55059
0.601357
0.49994
0.465337
0.708783
1.40417
2.66267
4.51459
6.90095
9.67583
12.6197
15.4621
17.9113
19.6868
20.5513
20.3378
18.968
16.4617
12.9333
8.57957
3.65761
-1.54169
-6.7227
-11.6126
-15.9845
-19.674
-22.5876
-24.7037
-26.0657
-26.7695
-26.9474
-26.7498
-26.3283
-25.8198
-25.3356
-24.9533
-24.7143
-24.6251
-24.6618
-24.7785
-24.9154
-25.0087
-24.999
-24.8379
-24.4932
-23.9501
-23.2115
-22.2949
-21.2282
-20.045
-18.779
-17.4591
-16.1065
-14.732
-13.3359
-11.9094
-10.4365
-8.89758
-7.2723
-5.54199
-3.69123
-1.7078
0.418855
2.70052
5.15397
7.80489
10.6909
13.8626
17.3816
21.3152
25.7265
30.6618
36.1347
42.1102
48.49
55.1031
61.7029
67.9746
73.5528
78.0495
81.0902
82.3538
81.6125
78.7646
73.8558
67.086
58.7983
49.4514
39.5783
29.736
20.4521
12.175
5.23389
-0.187742
-4.06106
-6.50366
-7.75553
-8.14258
-8.03283
-7.7907
-7.73508
-8.10583
-9.04251
-10.5769
-12.6395
-15.0783
-17.6869
-20.2368
-22.5113
-24.3345
-25.5935
-26.2497
-26.3406
-25.9698
-25.2892
-24.4759
-23.7063
-23.1316
-22.858
-22.9317
-23.3315
-23.9663
-24.6787
-25.2503
-25.4106
-24.8471
-23.2174
-20.1641
-15.3324
-8.39029
0.947666
12.8932
27.5522
44.8864
64.669
86.4366
109.448
132.656
154.719
174.053
188.939
197.685
198.826
191.326
174.774
149.508
116.67
78.15
36.4434
-5.58371
-44.9785
-79.003
-105.415
-122.692
-130.171
-128.095
-117.554
-100.343
-78.7467
-55.2803
-32.4213
-12.3579
3.21754
13.2484
17.376
15.9205
9.7882
0.319465
-10.9009
-22.247
-32.2437
-39.7258
-43.9471
-44.6306
-41.9583
-36.5055
-29.1328
-20.8512
-12.6793
-5.51052
-0.00568828
3.47723
4.91043
4.58018
3.03209
0.987329
-0.75809
-1.43718
-0.405779
2.78502
8.34567
16.238
26.1972
37.7814
50.4402
63.5909
76.6935
89.3117
101.155
112.095
122.158
131.498
140.352
148.985
157.647
166.521
175.701
185.17
194.807
204.394
213.645
222.229
229.796
236.003
240.524
243.069
243.381
241.249
236.508
229.046
218.817
205.857
190.295
172.373
152.456
131.033
108.711
86.189
64.2268
43.5931
25.0117
9.10313
-3.66779
-13.0337
-18.9493
-21.5949
-21.3594
-18.8013
-14.5951
-9.46655
-4.12522
0.798576
4.80555
7.56283
8.91973
8.90319
7.69459
5.59177
2.96167
0.189765
-2.3676
-4.42246
-5.78222
-6.36227
-6.1839
-5.3594
-4.06731
-2.52201
-0.942092
0.478282
1.59162
2.31065
2.6124
2.53311
2.15583
1.59304
0.96727
0.392683
-0.0400757
-0.273896
-0.289351
-0.103079
0.238634
0.669507
1.1143
1.49939
1.76133
1.85244
1.74299
1.4203
0.885318
0.147914
-0.778314
-1.88063
-3.15059
-4.58607
-6.19166
-7.97785
-9.95884
-12.1494
-14.5605
-17.1948
-20.0406
-23.0668
-26.2178
-29.4106
-32.5343
-35.4528
-38.0117
-40.0486
-41.4068
-41.9505
-41.5806
-40.2486
-37.967
-34.8148
-30.9361
-26.5325
-21.8495
-17.1568
-12.7265
-8.80937
-5.61337
-3.28633
-1.90412
-1.46611
-1.89754
-3.05825
-4.75621
-6.76409
-8.83706
-10.7303
-12.2146
-13.0904
-13.1974
-12.4225
-10.7036
-8.03089
-4.44481
-0.0317672
5.08227
10.7399
16.7616
22.9554
29.1272
35.0898
40.6718
45.7244
50.1252
53.7813
56.6279
58.6264
59.7603
60.0308
59.4528
58.0524
55.8655
52.938
49.328
45.1085
40.3697
35.2218
29.7948
24.2375
18.7126
13.3901
8.43833
4.0128
0.245338
-2.76642
-4.96725
-6.34939
-6.95342
-6.86499
-6.20741
-5.13151
-3.80392
-2.3958
-1.07353
0.00737375
0.705026
0.891007
0.448929
-0.726491
-2.72806
-5.63126
-9.48565
-14.303
-20.0438
-26.6039
-33.8033
-41.38
-48.9902
-56.2163
-62.5849
-67.5921
-70.737
-71.5577
-69.6674
-64.7841
-56.7515
-45.5486
-31.2878
-14.2074
5.33723
26.8753
49.8132
73.4164
96.7884
118.859
138.394
154.046
164.44
168.309
164.651
152.898
133.053
105.793
72.4848
35.1258
-3.80586
-41.5725
-75.4453
-102.986
-122.309
-132.279
-132.632
-123.994
-107.797
-86.107
-61.3838
-36.2075
-13.0019
6.21032
19.9927
27.6027
29.0143
24.8578
16.2907
4.82014
-7.89923
-20.2646
-30.8991
-38.7826
-43.3269
-44.3925
-42.2514
-37.5046
-30.9701
-23.557
-16.1432
-9.46945
-4.06225
-0.190206
2.14361
3.17652
3.3346
3.16341
3.25088
4.15217
6.3252
10.0831
15.5677
22.7447
31.4202
41.2735
51.9021
62.8728
73.7724
84.2531
94.0676
103.09
111.322
118.884
125.988
132.908
139.931
147.318
155.26
163.845
173.033
182.649
192.39
201.839
210.502
217.84
223.314
226.426
226.752
223.976
217.91
208.505
195.863
180.236
162.022
141.75
120.068
97.7123
75.4725
54.1493
34.5039
17.206
2.78363
-8.41879
-16.2688
-20.857
-22.4884
-21.6531
-18.9798
-15.1765
-10.9647
-7.01365
-3.8831
-1.97917
-1.52828
-2.57102
-4.97554
-8.46794
-12.6752
-17.1755
-21.5491
-25.4251
-28.5185
-30.6544
-31.7775
-31.947
-31.3185
-30.1153
-28.5944
-27.0104
-25.5815
-24.4637
-23.7335
-23.3826
-23.3248
-23.4121
-23.4602
-23.2774
-22.6936
-21.5863
-19.8991
-17.6505
-14.9335
-11.9033
-8.75921
-5.71887
-2.9922
-0.756053
0.86598
1.8166
2.10911
1.82286
1.09078
0.0809623
-1.02504
-2.05425
-2.86186
-3.34596
-3.45598
-3.19404
-2.60968
-1.78911
-0.840686
0.12106
0.990846
1.6855
2.15295
2.37651
2.37451
2.19573
1.91168
1.60693
1.36902
1.279
1.4037
1.79033
2.46381
3.4267
4.66149
6.13477
7.80266
9.61679
11.5302
13.5023
15.503
17.5143
19.5303
21.5554
23.5992
25.671
27.7726
29.8908
31.9913
34.0141
35.8722
37.4543
38.6309
39.2647
39.2242
38.3981
36.7104
34.1328
30.6927
26.476
21.6241
16.3235
10.7909
5.25436
-0.067378
-4.98413
-9.35088
-13.0791
-16.1419
-18.5722
-20.4551
-21.9147
-23.0978
-24.1565
-25.2313
-26.437
-27.8527
-29.5167
-31.4262
-33.5414
-35.7939
-38.0965
-40.3544
-42.4753
-44.3787
-46.0018
-47.3029
-48.2612
-48.8747
-49.1538
-49.1147
-48.7692
-48.1137
-47.1156
-45.6989
-43.7282
-40.9929
-37.1958
-31.9495
-24.7875
-15.1963
-2.67338
13.1866
32.5824
55.3855
81.028
108.426
135.961
161.552
182.81
197.286
202.773
197.629
181.066
153.352
115.896
71.1758
22.5334
-26.1677
-70.9576
-108.203
-135.018
-149.58
-151.327
-140.988
-120.47
-92.6022
-60.7874
-28.5976
0.628231
24.136
40.0191
47.3647
46.2746
37.7664
23.5763
5.89505
-12.9252
-30.6558
-45.4351
-55.9429
-61.4942
-62.0466
-58.1301
-50.7153
-41.043
-30.4385
-20.1371
-11.1384
-4.1069
0.676084
3.3061
4.20266
4.02034
3.5387
3.54724
4.74057
7.63668
12.5269
19.4614
28.2685
38.6025
50.0094
61.9996
74.117
85.9937
97.3847
108.18
118.394
128.139
137.582
146.906
156.267
165.761
175.404
185.128
194.784
204.161
213.005
221.044
228.01
233.654
237.758
240.135
240.627
239.095
235.415
229.47
221.157
210.393
197.145
181.454
163.466
143.466
121.892
99.3372
76.5286
54.2872
33.4667
14.8806
-0.774654
-12.9893
-21.4945
-26.2924
-27.6569
-26.1061
-22.3476
-17.2049
-11.5334
-6.13572
-1.68726
1.32063
2.61385
2.14283
0.064652
-3.29615
-7.50202
-12.0648
-16.5079
-20.4221
-23.507
-25.5972
-26.668
-26.824
-26.271
-25.2774
-24.1301
-23.0905
-22.3577
-22.0432
-22.1589
-22.6208
-23.2664
-23.8824
-24.2387
-24.1235
-23.3751
-21.9047
-19.7096
-16.874
-13.5577
-9.9766
-6.37541
-2.99905
-0.0646542
2.26136
3.87884
4.7605
4.94952
4.54885
3.70439
2.58457
1.35925
0.180653
-0.831374
-1.59841
-2.08615
-2.30112
-2.28249
-2.09061
-1.7941
-1.45746
-1.13064
-0.841742
-0.593393
-0.362682
-0.104246
0.244429
0.756475
1.50882
2.57578
4.02342
5.90481
8.25602
11.0926
14.407
18.1657
22.3088
26.7495
31.3765
36.0575
40.6447
44.9823
48.9143
52.2928
54.9862
56.8864
57.9148
58.0267
57.2136
55.5036
52.9603
49.6786
45.7793
41.4027
36.7003
31.8268
26.9315
22.1507
17.601
13.3737
9.53077
6.10262
3.08732
0.451741
-1.86535
-3.94805
-5.89592
-7.81457
-9.80481
-11.9514
-14.3124
-16.9116
-19.7328
-22.7208
-25.7848
-28.8079
-31.6594
-34.2086
-36.3396
-37.9637
-39.0289
-39.5243
-39.4794
-38.9578
-38.0456
-36.8365
-35.4135
-33.8306
-32.0947
-30.1501
-27.8669
-25.0344
-21.3627
-16.4929
-10.021
-1.53712
9.31754
22.7756
38.8556
57.2714
77.3564
98.0225
117.777
134.809
147.154
152.92
150.548
139.072
118.331
89.0922
53.0552
12.7352
-28.7776
-68.144
-102.149
-128.069
-143.982
-148.985
-143.278
-128.121
-105.659
-78.6507
-50.1345
-23.0752
-0.0406118
17.057
27.1249
29.9456
26.1251
16.9486
4.16654
-10.2535
-24.3792
-36.5355
-45.4738
-50.471
-51.3543
-48.4552
-42.5067
-34.5025
-25.5393
-16.6649
-8.7487
-2.38924
2.13444
4.86646
6.13698
6.49291
6.60776
7.18335
8.85566
12.1155
17.2525
24.3263
33.1682
43.4091
54.5305
65.9299
76.9941
87.1708
96.0311
103.317
108.969
113.134
116.144
118.483
120.734
123.505
127.367
132.781
140.038
149.218
160.168
172.5
185.617
198.757
211.051
221.595
229.525
234.086
234.694
230.981
222.83
210.376
194.003
174.314
152.094
128.253
103.774
79.64
56.7783
35.9964
17.933
3.01994
-8.53838
-16.7674
-21.9054
-24.369
-24.7051
-23.5331
-21.4849
-19.1481
-17.0176
-15.4611
-14.7001
-14.8076
-15.7216
-17.2711
-19.2107
-21.2596
-23.1392
-24.607
-25.4819
-25.6596
-25.1174
-23.9092
-22.152
-20.0059
-17.652
-15.2695
-13.0168
-11.0175
-9.3529
-8.06189
-7.14666
-6.58286
-6.33155
-6.3508
-6.60442
-7.06632
-7.71987
-8.55262
-9.54784
-10.675
-11.8818
-13.0892
-14.1927
-15.0677
-15.5812
-15.6066
-15.0397
-13.8136
-11.9105
-9.36705
-6.27466
-2.77164
0.969486
4.75916
8.41
11.7556
14.6666
17.0631
18.9203
20.2693
21.1919
21.8099
22.2729
22.7426
23.3788
24.3255
25.7001
27.5858
30.0261
33.0233
36.5387
40.4938
44.7726
49.2233
53.6604
57.8682
61.6059
64.6174
66.6445
67.4457
66.817
64.6153
60.778
55.3393
48.4368
40.3087
31.2801
21.7394
12.1059
2.79558
-5.81524
-13.4197
-19.8031
-24.8544
-28.5665
-31.026
-32.3937
-32.8805
-32.7207
-32.1465
-31.3665
-30.5512
-29.824
-29.2602
-28.8908
-28.7115
-28.6927
-28.7915
-28.9611
-29.1588
-29.3514
-29.5167
-29.643
-29.7263
-29.7659
-29.7593
-29.6966
-29.554
-29.2882
-28.8299
-28.0776
-26.8933
-25.0992
-22.4797
-18.7883
-13.7624
-7.14763
1.26756
11.6063
23.849
37.7742
52.905
68.4722
83.4106
96.4016
105.971
110.641
109.121
100.51
84.4863
61.4391
32.5167
-0.421438
-34.9571
-68.3512
-97.8395
-120.945
-135.768
-141.206
-137.083
-124.166
-104.063
-79.0311
-51.7055
-24.7967
-0.792102
18.3031
31.1531
37.1898
36.6143
30.3089
19.6765
6.43258
-7.62055
-20.8078
-31.7588
-39.5301
-43.662
-44.1704
-41.4803
-36.3166
-29.5696
-22.1554
-14.89
-8.39121
-3.0181
1.1477
4.28093
6.75847
9.08232
11.792
15.379
20.2145
26.4993
34.2404
43.2567
53.2106
63.6599
74.122
84.1403
93.3456
101.501
108.531
114.521
119.703
124.42
129.069
134.053
139.719
146.314
153.948
162.581
172.021
181.941
191.906
201.411
209.923
216.918
221.913
224.499
224.351
221.244
215.055
205.766
193.467
178.359
160.758
141.101
119.941
97.9366
75.8293
54.4077
34.4588
16.7116
1.7788
-9.89808
-18.0915
-22.8132
-24.3182
-23.0849
-19.7746
-15.1715
-10.1126
-5.41228
-1.79073
0.186819
0.154194
-2.03248
-6.29393
-12.3486
-19.752
-27.9496
-36.3366
-44.3184
-51.3642
-57.0501
-61.0874
-63.3346
-63.7944
-62.5972
-59.9744
-56.2263
-51.6878
-46.6954
-41.5603
-36.5468
-31.8595
-27.6378
-23.9578
-20.8394
-18.2568
-16.1524
-14.4484
-13.0593
-11.9011
-10.8972
-9.98274
-9.10568
-8.22631
-7.31566
-6.35345
-5.3262
-4.22555
-3.04714
-1.78948
-0.453035
0.96112
2.45279
4.02438
5.68241
7.43858
9.30982
11.3172
13.4835
15.8296
18.3702
21.1098
24.0384
27.1299
30.3408
33.6116
36.8694
40.0306
43.0057
45.7018
48.0262
49.8893
51.207
51.9037
51.9158
51.196
49.7174
47.4784
44.506
40.8584
36.625
31.9237
26.8963
21.7005
16.5
11.4544
6.70787
2.37954
-1.44433
-4.71539
-7.42485
-9.60163
-11.3073
-12.6285
-13.6675
-14.5321
-15.3269
-16.1443
-17.0591
-18.1245
-19.3704
-20.804
-22.4117
-24.1624
-26.0107
-27.901
-29.7708
-31.5547
-33.1871
-34.6054
-35.7528
-36.5807
-37.0506
-37.1355
-36.8194
-36.0952
-34.9607
-33.4111
-31.4294
-28.975
-25.9715
-22.2964
-17.7762
-12.1913
-5.29356
3.15822
13.3466
25.3297
38.9695
53.8682
69.3276
84.3459
97.6654
107.873
113.55
113.452
106.701
92.9529
72.5184
46.4089
16.2923
-15.6413
-46.8927
-74.9202
-97.4254
-112.62
-119.436
-117.651
-107.912
-91.6544
-70.9227
-48.1276
-25.7608
-6.11109
8.98492
18.327
21.4509
18.6345
10.8153
-0.565986
-13.7725
-26.9989
-38.5917
-47.2342
-52.0765
-52.7984
-49.6012
-43.1373
-34.3883
-24.5134
-14.6881
-5.95397
0.902062
5.42759
7.53679
7.49558
5.86551
3.41684
1.02334
-0.447557
-0.236729
2.22331
7.25155
14.8925
24.9221
36.8834
50.1463
63.9846
77.6611
90.5112
102.017
111.865
119.975
126.508
131.844
136.53
141.213
146.558
153.16
161.467
171.713
183.877
197.67
212.548
227.756
242.395
255.499
266.126
273.438
276.774
275.699
270.032
259.851
245.47
227.409
206.344
183.057
158.388
133.182
108.258
84.3673
62.1701
42.2133
24.9126
10.5405
-0.781247
-9.08221
-14.5365
-17.4477
-18.2254
-17.3537
-15.3544
-12.7483
-10.0159
-7.56446
-5.70215
-4.62249
-4.40064
-5.00093
-6.2945
-8.08446
-10.1355
-12.2042
-14.0675
-15.5447
-16.5138
-16.9177
-16.7636
-16.114
-15.0727
-13.7666
-12.3273
-10.8744
-9.5024
-8.27286
-7.21343
-6.32205
-5.57568
-4.94135
-4.387
-3.88999
-3.44173
-3.04781
-2.72406
-2.48977
-2.3597
-2.33681
-2.40731
-2.53898
-2.68331
-2.78094
-2.76974
-2.59399
-2.21329
-1.60964
-0.791789
0.204158
1.31773
2.4705
3.57494
4.5447
5.30491
5.80115
6.00601
5.92222
5.58196
5.04241
4.37807
3.67085
2.99936
2.42883
2.00301
1.73917
1.62683
1.63036
1.69489
1.75482
1.7434
1.60236
1.28992
0.786465
0.0971549
-0.748501
-1.69978
-2.68981
-3.64179
-4.47536
-5.11257
-5.48296
-5.52754
-5.20173
-4.47741
-3.34428
-1.81056
0.096892
2.33322
4.83713
7.53338
10.3364
13.1545
15.8951
18.4694
20.7972
22.8106
24.4566
25.6979
26.5129
26.8933
26.8408
26.3638
25.4719
24.1723
22.4664
20.3483
17.8059
14.8246
11.3941
7.51597
3.21216
-1.4676
-6.44143
-11.5944
-16.7823
-21.8396
-26.591
-30.8655
-34.5112
-37.409
-39.4834
-40.7101
-41.118
-40.7869
-39.84
-38.4326
-36.7384
-34.9346
-33.1866
-31.6348
-30.3842
-29.497
-28.99
-28.8358
-28.968
-29.2897
-29.684
-30.0246
-30.1849
-30.0447
-29.4912
-28.417
-26.7135
-24.2637
-20.9372
-16.589
-11.0655
-4.21803
4.07671
13.8898
25.2081
37.899
51.6757
66.067
80.4013
93.8144
105.289
113.73
118.083
117.466
111.316
99.512
82.4585
61.1015
36.8743
11.5708
-12.8399
-34.4314
-51.5429
-62.9736
-68.1229
-67.0558
-60.4864
-49.6822
-36.3034
-22.2003
-9.19497
1.12416
7.57062
9.47238
6.71801
-0.264856
-10.5919
-23.0515
-36.262
-48.8372
-59.5387
-67.4
-71.8088
-72.5431
-69.7602
-63.9447
-55.8255
-46.2738
-36.1959
-26.4334
-17.6806
-10.4274
-4.93059
-1.21366
0.907379
1.77886
1.8518
1.61971
1.55948
2.08161
3.49451
5.98524
9.61711
14.3426
20.0282
26.4875
33.5167
40.9279
48.5765
56.3777
64.3118
72.4171
80.7728
89.4751
98.6099
108.226
118.316
128.801
139.525
150.264
160.734
170.615
179.566
187.252
193.359
197.613
199.789
199.715
197.275
192.411
185.116
175.439
163.479
149.384
133.354
115.637
96.5291
76.3679
55.5296
34.4193
13.4607
-6.91694
-26.2929
-44.2694
-60.4856
-74.6293
-86.4474
-95.7545
-102.439
-106.471
-107.904
-106.88
-103.63
-98.4737
-91.8073
-84.094
-75.8405
-67.5699
-59.7886
-52.9505
-47.4218
-43.4515
-41.1506
-40.4836
-41.2747
-43.2279
-45.9595
-49.0398
-52.0379
-54.566
-56.3163
-57.0883
-56.8017
-55.4958
-53.3147
-50.4798
-47.2534
-43.8943
-40.6089
-37.5016
-34.5266
-31.4484
-27.8162
-22.961
-16.0229
-6.01529
8.07104
27.1272
51.7586
82.1081
117.695
157.299
198.921
239.84
276.781
306.196
324.622
329.086
317.506
289.031
244.257
185.303
115.706
40.1484
-35.9592
-107
-167.709
-213.706
-241.937
-250.977
-241.148
-214.448
-174.298
-125.144
-71.9598
-19.715
27.1291
65.0394
91.7021
106.157
108.774
101.08
85.4731
64.8709
42.3319
20.7073
2.35475
-11.0568
-18.6417
-20.2933
-16.5946
-8.66545
2.02715
13.8704
25.2945
34.931
41.7297
45.028
44.5761
40.5204
33.3561
23.8549
12.9777
1.77942
-8.6871
-17.461
-23.7518
-26.9988
-26.9087
-23.4659
-16.917
-7.73022
3.46249
15.9326
28.9219
41.6986
53.597
64.0367
72.5245
78.6436
82.0396
82.4119
79.5179
73.1939
63.3913
50.2218
34.0015
15.2823
-5.14213
-26.2639
-46.9242
-65.9093
-82.0695
-94.4435
-102.374
-105.593
-104.267
-98.9906
-90.7319
-80.7285
-70.3564
-60.9804
-53.8086
-49.7674
-49.4108
-52.8735
-59.8708
-69.742
-81.5295
-94.0823
-106.17
-116.595
-124.286
-128.373
-128.23
-123.481
-113.99
-99.8314
-81.2469
-58.614
-32.4221
-3.26559
28.1463
60.9674
94.1879
126.616
156.878
183.451
204.731
219.14
225.27
222.031
208.807
185.577
152.989
112.37
65.6565
15.2636
-36.1119
-85.7221
-131.01
-169.833
-200.642
-222.596
-235.594
-240.232
-237.683
-229.518
-217.492
-203.319
-188.466
-173.988
-160.424
-147.77
-135.522
-122.8
-108.523
-91.6142
-71.2283
-46.9466
-18.9349
11.9694
44.2508
75.7989
104.077
126.362
140.032
142.872
133.357
110.892
75.9652
30.2029
-23.6798
-82.0417
-140.578
-194.666
-239.769
-271.857
-287.815
-285.775
-265.343
-227.688
-175.462
-112.579
-43.8481
25.4692
90.1528
145.495
187.706
214.217
223.846
216.825
194.69
160.061
116.331
67.3113
16.8656
-31.4244
-74.5372
-110.205
-137.008
-154.377
-162.497
-162.148
-154.503
-140.913
-122.704
-101.028
-76.7588
-50.473
-22.4851
7.05598
38.0355
70.2302
103.178
136.086
167.792
196.788
221.31
239.486
249.518
249.889
239.566
218.175
186.125
144.663
95.8547
42.4684
-12.209
-64.631
-111.292
-149.043
-175.396
-188.772
-188.677
-175.776
-151.85
-119.642
-82.6023
-44.5539
-9.32112
19.6478
39.6168
48.8225
46.6296
33.5669
11.2409
-17.8595
-50.643
-83.7479
-113.888
-138.174
-154.386
-161.161
-158.086
-145.703
-125.41
-99.2873
-69.8705
-39.8817
-11.9598
11.5929
29.0237
39.284
42.1131
38.0459
28.3437
14.8576
-0.165483
-14.311
-25.2393
-30.9145
-29.7986
-20.9897
-4.29393
19.7734
50.0515
84.8513
122.11
159.565
194.927
226.047
251.052
268.457
277.252
276.95
267.618
249.869
224.829
194.067
159.486
123.171
87.2176
53.5268
23.6165
-1.54493
-21.6454
-37.0551
-48.7577
-58.1884
-66.9964
-76.7659
-88.7368
-103.574
-121.22
-140.862
-161.016
-179.715
-194.768
-204.052
-205.783
-198.724
-182.309
-156.655
-122.486
-80.9689
-33.5056
18.4926
73.8056
131.546
191.208
252.607
315.701
380.33
445.902
511.102
573.694
630.476
677.442
710.145
724.237
716.122
683.616
626.502
546.888
449.277
340.319
228.237
122.01
30.3946
-39.079
-80.9937
-92.7048
-74.6719
-30.4216
33.8538
110.011
188.89
261.351
319.288
356.502
369.334
356.996
321.575
267.713
202.016
132.263
66.5024
12.1474
-24.8423
-40.5985
-33.7399
-5.48767
40.5081
98.6073
161.834
222.674
273.917
309.47
325.017
318.49
290.26
243.062
181.644
112.184
41.5632
-23.4345
-76.8947
-114.419
-133.581
-134.136
-117.966
-88.7851
-51.6315
-12.2244
23.7346
51.2309
66.4969
67.3959
53.5898
26.4742
-11.1019
-55.2886
-101.793
-146.468
-185.839
-217.514
-240.413
-254.795
-262.096
-264.603
-265.028
-266.043
-269.852
-277.861
-290.48
-307.089
-326.164
-345.525
-362.68
-375.197
-381.058
-378.942
-368.407
-349.931
-324.845
-295.137
-263.186
-231.45
-202.16
-177.062
-157.23
-142.988
-133.926
-129.023
-126.833
-125.718
-124.088
-120.614
-114.392
-105.022
-92.6321
-77.8082
-61.483
-44.7816
-28.8577
-14.7403
-3.20917
5.29155
10.6961
13.3217
13.8419
13.2385
12.7408
13.7557
17.7907
26.3668
40.9192
62.6857
92.5856
131.101
178.173
233.136
294.7
361.013
429.785
498.499
564.651
626.027
680.937
728.396
768.191
800.828
827.36
849.11
867.338
882.919
896.091
906.333
912.411
912.582
904.938
887.8
860.094
821.62
773.153
716.366
653.582
587.414
520.373
454.509
391.171
330.908
273.52
218.261
164.118
110.13
55.6817
0.715117
-54.1689
-107.734
-158.251
-203.723
-242.171
-271.908
-291.784
-301.353
-300.936
-291.593
-274.994
-253.212
-228.487
-202.969
-178.494
-156.417
-137.504
-121.925
-109.312
-98.8812
-89.6015
-80.3808
-70.2414
-58.4658
-44.6964
-28.9764
-11.7325
6.29535
24.164
40.8592
55.4285
67.0981
75.3555
79.992
81.1014
79.0398
74.357
67.7124
59.7889
51.217
42.519
34.078
26.1319
18.7899
12.0642
5.90972
0.262466
-4.92949
-9.68755
-13.9982
-17.8214
-21.1082
-23.8223
-25.9595
-27.5617
-28.7211
-29.5745
-30.2883
-31.0368
-31.9787
-33.2333
-34.8633
-36.8645
-39.165
-41.634
-44.0978
-46.3604
-48.2261
-49.5191
-50.0992
-49.8712
-48.7884
-46.8519
-44.1054
-40.63
-36.5369
-31.9625
-27.0618
-22.004
-16.9656
-12.1236
-7.64728
-3.68822
-0.370572
2.21825
4.03515
5.08646
5.43031
5.17698
4.48819
3.57641
2.70439
2.18407
2.37233
3.66046
6.45386
11.14
18.0445
27.3785
39.1833
53.2807
69.2407
86.3738
103.758
120.3
134.835
146.241
153.57
156.173
153.787
146.591
135.207
120.643
104.192
87.2858
71.3382
57.5819
46.9297
39.8753
36.4454
36.2109
38.3526
41.7746
45.2495
47.5772
47.738
45.0219
39.1184
30.1584
18.7007
5.66826
-7.76134
-20.2966
-30.6887
-37.8866
-41.1717
-40.2576
-35.3411
-27.1
-16.6338
-5.35402
5.16376
13.3521
17.8271
17.547
11.9372
0.964853
-14.8434
-34.4426
-56.3626
-78.8418
-99.9814
-117.904
-130.895
-137.522
-136.718
-127.831
-110.649
-85.3972
-52.727
-13.6829
30.334
77.6159
126.21
173.993
218.763
258.349
290.732
314.176
327.369
329.542
320.571
301.028
272.189
235.962
194.758
151.3
108.384
68.6284
34.227
6.75156
-12.9821
-24.9599
-29.9208
-29.2218
-24.6337
-18.0982
-11.4775
-6.33243
-3.75675
-4.28637
-7.8925
-14.0532
-21.8882
-30.3323
-38.3211
-44.9597
-49.6507
-52.1668
-52.659
-51.6048
-49.7065
-47.7601
-46.5139
-46.5413
-48.1466
-51.3153
-55.7177
-60.7605
-65.6793
-69.6549
-71.9361
-71.9497
-69.3821
-64.22
-56.7468
-47.4944
-37.1598
-26.4994
-16.2161
-6.85651
1.26787
8.12345
13.9572
19.2585
24.6868
30.9744
38.8202
48.7862
61.2126
76.1613
93.395
112.394
132.406
152.529
171.802
189.307
204.258
216.075
224.422
229.225
230.648
229.051
224.926
218.825
211.292
202.804
193.721
184.269
174.533
164.47
153.944
142.759
130.716
117.649
103.476
88.2283
72.0664
55.2865
38.304
21.623
5.79161
-8.65074
-21.2291
-31.5853
-39.5191
-45.0151
-48.2493
-49.5749
-49.4888
-48.5815
-47.4759
-46.7632
-46.9414
-48.3649
-51.2099
-55.4594
-60.9085
-67.1902
-73.8165
-80.231
-85.8669
-90.2035
-92.8158
-93.4122
-91.8561
-88.1719
-82.5334
-75.2385
-66.6733
-57.269
-47.4587
-37.637
-28.1276
-19.1618
-10.8694
-3.28312
3.64618
10.0235
15.9783
21.6296
27.0543
32.2616
37.1772
41.6418
45.4228
48.2396
49.799
49.8349
48.149
44.6439
39.346
32.413
24.1258
14.8659
5.08088
-4.75613
-14.1872
-22.805
-30.2792
-36.3705
-40.9348
-43.9172
-45.3417
-45.2972
-43.9257
-41.4114
-37.9725
-33.855
-29.3263
-24.6673
-20.1624
-16.0863
-12.6882
-10.1755
-8.69737
-8.33186
-9.07714
-10.8492
-13.4863
-16.7606
-20.3959
-24.0895
-27.5374
-30.4586
-32.617
-33.8397
-34.0273
-33.1587
-31.2872
-28.5299
-25.051
-21.0404
-16.6902
-12.1717
-7.6163
-3.10234
1.34891
5.76791
10.2223
14.7953
19.5597
24.5518
29.7492
35.0554
40.2956
45.2226
49.535
52.9047
55.0102
55.5734
54.3939
51.3769
46.5514
40.0759
32.2299
23.3942
14.0185
4.58477
-4.43297
-12.6053
-19.5766
-25.0841
-28.9646
-31.1488
-31.6472
-30.5287
-27.8999
-23.8865
-18.6236
-12.2548
-4.94078
3.12381
11.692
20.448
28.9992
36.881
43.5785
48.5631
51.3428
51.5197
48.8466
43.2751
34.9862
24.3969
12.1411
-0.97623
-14.0459
-26.1344
-36.3674
-44.0054
-48.502
-49.539
-47.033
-41.1174
-32.1013
-20.416
-6.55677
8.96925
25.681
43.1407
60.948
78.7133
96.0169
112.363
127.145
139.627
148.963
154.25
154.608
149.301
137.855
120.171
96.6164
68.0633
35.8706
1.80586
-32.0912
-63.6881
-90.9613
-112.195
-126.152
-132.189
-130.307
-121.123
-105.764
-85.7033
-62.5543
-37.8509
-12.8511
11.6151
35.2285
58.1837
81.1108
104.926
130.628
159.07
190.735
225.551
262.767
300.926
337.936
371.248
398.114
415.907
422.454
416.332
397.087
365.337
322.743
271.857
215.862
158.247
102.462
51.5919
8.09454
-26.3778
-51.0526
-66.0107
-72.0674
-70.5828
-63.2273
-51.735
-37.677
-22.2834
-6.33724
9.85052
26.3842
43.6601
62.2011
82.4796
104.76
128.99
154.752
181.287
207.576
232.465
254.805
273.591
288.062
297.77
302.584
302.653
298.333
290.092
278.423
263.765
246.471
226.805
204.975
181.19
155.719
128.955
101.437
73.8521
47.0002
21.7227
-1.18492
-21.069
-37.5031
-50.3484
-59.7783
-66.2605
-70.4997
-73.3478
-75.6941
-78.3526
-81.9618
-86.9097
-93.2951
-100.928
-109.363
-117.971
-126.016
-132.75
-137.49
-139.693
-138.994
-135.228
-128.43
-118.812
-106.733
-92.6523
-77.0931
-60.6009
-43.71
-26.9165
-10.6588
4.69422
18.8478
31.58
42.7346
52.2123
59.9594
65.9587
70.2217
72.7854
73.7112
73.0874
71.0323
67.697
63.2667
57.9577
52.0106
45.68
39.2196
32.8657
26.8207
21.2379
16.2114
11.7711
7.88499
4.46838
1.39871
-1.46516
-4.26209
-7.10877
-10.0832
-13.2139
-16.4755
-19.7922
-23.0475
-26.0991
-28.7972
-31.0023
-32.6021
-33.5233
-33.7382
-33.2649
-32.1621
-30.519
-28.4424
-26.0434
-23.4248
-20.6724
-17.8501
-15.0009
-12.1512
-9.31991
-6.52897
-3.81372
-1.23149
1.13372
3.17136
4.74962
5.72544
5.9582
5.32576
3.74105
1.16769
-2.36688
-6.76224
-11.8407
-17.3482
-22.9612
-28.297
-32.9286
-36.4016
-38.2531
-38.0321
-35.3221
-29.7656
-21.0905
-9.1378
6.11132
24.5108
45.7299
69.2404
94.3168
120.049
145.372
169.118
190.073
207.062
219.03
225.127
224.787
217.785
204.281
184.821
160.313
131.973
101.233
69.6292
38.6875
9.79693
-15.8946
-37.5618
-54.7475
-67.3647
-75.6562
-80.1137
-81.3674
-80.0607
-76.7257
-71.6765
-64.9362
-56.2067
-44.8892
-30.1563
-11.0723
13.2491
43.4651
79.821
121.989
168.951
218.945
269.494
317.52
359.549
391.997
411.496
415.263
401.43
369.334
319.691
254.648
177.695
93.4161
7.13548
-75.5417
-149.221
-209.202
-251.901
-275.163
-278.436
-262.796
-230.81
-186.264
-133.786
-78.3982
-25.0433
21.8618
58.81
83.4859
94.9217
93.5144
80.9058
59.7406
33.3299
5.25916
-21.0164
-42.5437
-57.1688
-63.7278
-62.1126
-53.2067
-38.7034
-20.8323
-2.02873
15.4111
29.646
39.5385
44.8082
46.0729
44.7777
43.0241
43.3222
48.2926
60.3505
81.3989
112.561
153.978
204.684
262.589
324.568
386.646
444.299
492.817
527.722
545.202
542.506
518.273
472.743
407.819
326.979
235.008
137.608
40.8897
-49.1718
-127.283
-189.299
-232.576
-256.151
-260.754
-248.624
-223.181
-188.566
-149.119
-108.853
-70.9854
-37.5843
-9.37405
14.2773
35.1878
56.0333
79.9047
109.814
148.221
196.646
255.433
323.693
399.434
479.859
561.765
641.993
717.838
787.364
849.564
904.362
952.43
994.872
1032.81
1066.92
1097.04
1121.83
1138.69
1143.82
1132.63
1100.28
1042.46
956.196
840.523
697.071
530.27
347.221
157.211
-29.1049
-200.734
-347.47
-460.968
-535.63
-569.178
-562.866
-521.281
-451.783
-363.651
-267.047
-171.923
-87.0082
-18.9723
28.1288
53.0936
57.4836
45.2298
21.9959
-5.618
-30.9338
-48.0196
-52.3875
-41.4952
-15.0022
25.2398
75.4516
130.413
184.11
230.463
264.054
280.77
278.276
256.284
216.568
162.749
99.8666
33.7978
-29.4013
-84.1545
-125.946
-151.758
-160.326
-152.175
-129.471
-95.6794
-55.1179
-12.4306
27.9304
62.1663
87.4835
102.304
106.322
100.412
86.4114
66.8181
44.4392
22.0449
2.06172
-13.6588
-23.9779
-28.5082
-27.5587
-22.0051
-13.1107
-2.32549
8.90651
19.31
27.8925
34.0024
37.3311
37.8668
35.8159
31.5075
25.3008
17.5105
8.36058
-2.02893
-13.6233
-26.4311
-40.4483
-55.6034
-71.7124
-88.4549
-105.375
-121.906
-137.419
-151.275
-162.893
-171.792
-177.628
-180.198
-179.414
-175.253
-167.684
-156.593
-141.719
-122.623
-98.7144
-69.3204
-33.8205
8.19323
56.7456
111.333
170.833
233.481
296.94
358.449
415.034
463.775
502.084
527.962
540.214
538.585
523.795
497.48
462.028
420.344
375.562
330.753
288.656
251.464
220.69
197.116
180.814
171.241
167.365
167.818
171.042
175.411
179.345
181.389
180.29
175.066
165.08
150.106
130.391
106.693
80.2701
52.8243
26.3854
3.13414
-14.8193
-25.6826
-28.2271
-21.9967
-7.44972
13.9961
40.0302
67.6317
93.3525
113.675
125.406
126.055
114.157
89.4943
53.1798
7.59622
-43.8186
-96.9127
-147.254
-190.605
-223.386
-243.064
-248.434
-239.743
-218.649
-188.029
-151.636
-113.671
-78.3066
-49.2245
-29.2151
-19.8919
-21.5473
-33.1658
-52.5879
-76.8043
-102.34
-125.68
-143.691
-153.976
-155.136
-146.9
-130.116
-106.611
-78.9342
-50.0328
-22.8838
-0.144069
16.148
24.7841
25.4897
18.9146
6.51637
-9.64094
-27.1438
-43.5081
-56.4459
-64.0899
-65.1544
-59.0211
-45.7486
-26.0127
-0.994602
27.7651
58.5233
89.483
118.918
145.263
167.169
183.52
193.44
196.281
191.621
179.27
159.299
132.074
98.2967
59.0413
15.7643
-29.7138
-75.2678
-118.572
-157.245
-189.025
-211.962
-224.603
-226.154
-216.581
-196.652
-167.898
-132.492
-93.062
-52.4589
-13.4926
21.3183
49.9643
71.1038
84.1453
89.2497
87.252
79.5175
67.7519
53.7873
39.3728
25.991
14.7221
6.16724
0.438263
-2.79094
-4.17961
-4.57899
-4.8745
-5.83278
-7.97406
-11.4864
-16.1924
-21.5714
-26.8316
-31.0187
-33.1431
-32.3043
-27.7954
-19.1729
-6.28892
10.7136
31.4305
55.2407
81.3497
108.826
136.623
163.598
188.525
210.125
227.12
238.316
242.718
239.67
228.994
211.102
187.06
158.573
127.877
97.5417
70.1921
48.191
33.3125
26.4598
27.4699
35.04
46.7997
59.5311
69.5217
73.0181
66.7287
48.316
16.8131
-27.0965
-80.9842
-140.794
-201.175
-255.998
-299.005
-324.519
-328.119
-307.202
-261.352
-192.457
-104.559
-3.43047
104.063
210.738
309.916
396.177
465.95
517.853
552.749
573.495
584.421
590.615
597.101
608.031
626.005
651.624
683.335
717.606
749.403
772.898
782.309
772.727
740.824
685.319
607.156
509.374
396.723
275.085
150.822
30.13
-81.5015
-179.677
-261.304
-324.622
-369.098
-395.217
-404.221
-397.848
-378.094
-347.036
-306.703
-259.018
-205.784
-148.707
-89.4425
-29.6417
29.0061
84.7516
135.79
180.299
216.504
242.781
257.776
260.539
250.658
228.367
194.623
151.128
100.274
45.0282
-11.2617
-65.1187
-113.222
-152.699
-181.393
-198.065
-202.512
-195.581
-179.063
-155.491
-127.86
-99.2946
-72.7141
-50.5379
-34.4599
-25.3241
-23.1128
-27.0433
-35.755
-47.5557
-60.6884
-73.5768
-85.0158
-94.2769
-101.12
-105.71
-108.465
-109.856
-110.207
-109.537
-107.468
-103.234
-95.7911
-84.0131
-66.9481
-44.0871
-15.5977
17.5239
53.4183
89.4634
122.507
149.212
166.473
171.853
163.98
142.848
109.957
68.2702
21.9448
-24.1154
-64.8609
-95.7567
-113.408
-116.047
-103.809
-78.7331
-44.4975
-5.92278
31.6838
63.241
84.5595
92.8687
87.1363
68.1481
38.3518
1.50366
-37.8223
-74.788
-104.836
-124.161
-130.068
-121.184
-97.5318
-60.4562
-12.4501
43.1113
102.286
160.905
214.904
260.625
295.077
316.123
322.597
314.344
292.185
257.808
213.6
162.436
107.443
51.753
-1.73232
-50.5407
-92.7915
-127.301
-153.626
-172.051
-183.495
-189.376
-191.404
-191.35
-190.8
-190.921
-192.28
-194.731
-197.384
-198.68
-196.549
-188.65
-172.659
-146.59
-109.096
-59.7342
0.853839
70.8636
147.364
226.457
303.55
373.722
432.159
474.618
497.875
500.118
481.219
442.875
388.554
323.275
253.195
185.072
125.639
80.9585
55.8481
53.4198
74.8062
119.089
183.437
263.418
353.454
447.336
538.759
621.801
691.321
743.232
774.663
784.008
770.877
735.992
681.028
608.438
521.261
422.928
317.067
207.327
97.2019
-10.1097
-111.821
-205.628
-289.74
-362.862
-424.139
-473.079
-509.47
-533.307
-544.755
-544.135
-531.955
-508.955
-476.153
-434.865
-386.69
-333.429
-276.945
-218.983
-160.964
-103.795
-47.7332
7.66263
63.4765
121.272
182.834
249.857
323.592
404.528
492.107
584.542
678.73
770.329
853.975
923.67
973.32
997.365
991.461
953.093
882.062
780.74
654.051
509.147
354.819
200.691
56.3012
-69.819
-170.953
-242.801
-283.805
-295.167
-280.558
-245.592
-197.1
-142.337
-88.1933
-40.5143
-3.59675
20.0921
29.9591
27.1063
13.9721
-6.14902
-29.6382
-53.0622
-73.6005
-89.3403
-99.4134
-103.971
-104.017
-101.134
-97.1533
-93.8241
-92.5255
-94.063
-98.5713
-105.528
-113.867
-122.162
-128.855
-132.482
-131.869
-126.269
-115.426
-99.5568
-79.2656
-55.4024
-28.891
-0.5593
29.0018
59.5231
91.0689
123.97
158.686
195.621
234.922
276.293
318.874
361.199
401.251
436.632
464.802
483.386
490.486
484.96
466.626
436.349
395.997
348.269
296.411
243.869
193.915
149.306
112.022
83.1058
62.6352
49.8061
43.1195
40.6331
40.2395
39.9331
38.0316
33.3297
25.174
13.459
-1.44285
-18.8007
-37.6704
-57.0449
-75.9873
-93.7349
-109.763
-123.806
-135.845
-146.056
-154.75
-162.292
-169.035
-175.258
-181.125
-186.666
-191.78
-196.249
-199.779
-202.031
-202.666
-201.382
-197.943
-192.195
-184.083
-173.643
-161.002
-146.361
-129.985
-112.186
-93.3091
-73.7228
-53.8011
-33.9115
-14.4013
4.41333
22.2531
38.8742
54.0574
67.5887
79.234
88.713
95.6803
99.7202
100.363
97.1249
89.5771
77.427
60.6122
39.3847
14.371
-13.4081
-42.5667
-71.4368
-98.1981
-121.043
-138.353
-148.873
-151.845
-147.105
-135.106
-116.887
-93.9699
-68.2136
-41.6344
-16.2127
6.2901
24.4859
37.4716
44.8864
46.9119
44.2173
37.8567
29.133
19.4428
10.1209
2.30136
-3.19132
-5.90944
-5.80216
-3.18851
1.31136
6.87633
12.6018
17.6191
21.201
22.8427
22.3075
19.6372
15.1274
9.27518
2.71004
-3.88259
-9.83233
-14.5416
-17.5241
-18.4225
-17.0068
-13.1587
-6.84819
1.89218
12.9878
26.335
41.8043
59.2342
78.4189
99.0929
120.918
143.474
166.262
188.717
210.228
230.171
247.943
263.005
274.917
283.365
288.179
289.342
286.977
281.328
272.726
261.547
248.178
232.974
216.235
198.193
179.014
158.82
137.716
115.834
93.3632
70.5903
47.9142
25.8567
5.05703
-13.7442
-29.7332
-42.0632
-49.9099
-52.5419
-49.4054
-40.2162
-25.0498
-4.41308
20.7158
48.8943
78.2787
106.744
132.056
152.073
164.964
169.403
164.718
150.978
128.995
100.238
66.6911
30.643
-5.5372
-39.6272
-69.7471
-94.5061
-113.087
-125.262
-131.351
-132.121
-128.661
-122.226
-114.096
-105.442
-105.442
-105.442
-105.442
-105.442
-105.442
-105.442
-105.442
-105.442
-105.442
-105.442
-105.442
-105.442
-105.442
-105.442
-105.442
-105.442
-105.442
-105.442
-105.442
-105.442
-105.442
-105.442
-105.442
-105.442
-105.442
-105.442
-105.442
-105.442
-105.442
-105.442
-105.442
-105.442
-105.442
-105.442
-105.442
-105.442
-105.442
-105.442
-105.442
-105.442
-105.442
-105.442
-105.442
-105.442
-105.442
-105.442
-105.442
-105.442
-105.442
-105.442
-105.442
-105.442
-105.442
-105.442
-105.442
-105.442
-105.442
-105.442
-105.442
-105.442
-105.442
-105.442
-105.442
-105.442
-105.442
-105.442
-105.442
-105.442
-105.442
-105.442
-105.442
-105.442
-105.442
-105.442
-105.442
-105.442
-105.442
-105.442
-105.442
-105.442
-105.442
-105.442
-105.442
-105.442
-105.442
-105.442
-105.442
-105.442
-105.442
-105.442
