-219.062
-201.188
-182.12
-162.483
-142.951
-124.194
-106.799
-91.2194
-77.7187
-66.3498
-56.9495
-49.161
-42.4771
-36.3025
-30.0243
-23.0855
-15.0516
-5.66411
5.12731
17.1543
30.0447
43.2593
56.1476
68.0158
78.1998
86.1346
91.4137
93.8312
93.4017
90.3581
85.1256
78.277
70.4734
62.3993
54.6968
47.9084
42.4338
38.5039
36.1739
35.3357
35.7452
37.0614
38.8908
40.8329
42.5202
43.6506
44.0091
43.4779
42.0359
39.7501
36.7596
33.2558
29.4603
25.6035
21.9031
18.5458
15.672
13.3657
11.6489
10.4832
9.7772
9.39878
9.19183
8.99427
8.65564
8.05199
7.09635
5.74402
3.99216
1.87451
-0.547886
-3.19805
-5.99475
-8.86254
-11.7386
-14.5757
-17.341
-20.0126
-22.5748
-25.0138
-27.3167
-29.4735
-31.4816
-33.3526
-35.1193
-36.8397
-38.5988
-40.5061
-42.6882
-45.2785
-48.4036
-52.1677
-56.6369
-61.8242
-67.6764
-74.0645
-80.7782
-87.5247
-93.9318
-99.5561
-103.895
-106.401
-106.504
-103.634
-97.2544
-86.9022
-72.2442
-53.1408
-29.7211
-2.46049
27.7504
59.5601
91.1509
120.288
144.436
160.938
167.261
161.272
141.53
107.549
59.9828
0.720232
-67.1603
-139.57
-211.724
-278.548
-335.16
-377.338
-401.947
-407.261
-393.138
-361.039
-313.868
-255.678
-191.252
-125.634
-63.6334
-9.38914
33.9831
64.6155
81.9693
86.7715
80.8244
66.7167
47.4768
26.2111
5.76963
-11.5266
-24.0693
-31.0474
-32.4307
-28.8663
-21.5083
-11.8088
-1.29984
8.60745
16.7835
22.4859
25.4035
25.6412
23.6543
20.1461
15.9465
11.8884
8.6974
6.90821
6.81329
8.44821
11.6107
15.9077
20.8212
25.7838
30.2518
33.7692
36.0138
36.8229
36.1962
34.2789
31.3288
27.6735
23.6638
19.6308
15.8509
12.5227
9.75702
7.57968
5.9451
4.75672
3.89101
3.22094
2.63587
2.05553
1.43695
0.774583
0.0943146
-0.556715
-1.1227
-1.5522
-1.81
-1.8867
-1.80522
-1.6237
-1.43479
-1.36105
-1.54694
-2.14752
-3.31498
-5.1836
-7.8547
-11.3828
-15.7642
-20.9294
-26.7401
-32.9918
-39.422
-45.7236
-51.565
-56.6128
-60.5602
-63.1546
-64.2269
-63.7153
-61.6834
-58.3286
-53.9767
-49.0644
-44.1064
-39.6519
-36.2316
-34.3028
-34.1963
-36.0737
-39.8989
-45.4299
-52.2323
-59.7146
-67.1816
-73.9018
-79.1799
-82.4279
-83.2258
-81.3645
-76.8676
-69.9876
-61.1788
-51.0488
-40.2958
-29.6376
-19.7417
-11.1634
-4.29934
0.639742
3.63492
4.84378
4.56753
3.20534
1.20204
-1.00416
-3.02811
-4.57335
-5.4538
-5.60045
-5.05365
-3.94337
-2.46122
-0.828198
0.7372
2.04693
2.96421
3.41561
3.39369
2.95108
2.18757
1.23261
0.22599
-0.700839
-1.44035
-1.91989
-2.10712
-2.00977
-1.67047
-1.15764
-0.554186
0.0544219
0.591181
0.996314
1.23294
1.28929
1.17748
0.929489
0.591001
0.214213
-0.149415
-0.455552
-0.671813
-0.780559
-0.779547
-0.680575
-0.506506
-0.28722
-0.055106
0.159276
0.330842
0.442561
0.486738
0.464991
0.387063
0.268754
0.129394
-0.0106386
-0.131766
-0.215872
-0.245398
-0.200802
-0.0567666
0.222095
0.684935
1.3965
2.43585
3.8908
5.84773
8.3768
11.5141
15.2433
19.4795
24.0596
28.7418
33.2155
37.1236
40.0929
41.7717
41.8679
40.1835
36.6408
31.2969
24.3448
16.1029
6.9942
-2.48177
-11.7807
-20.3471
-27.6475
-33.2025
-36.6157
-37.6008
-36.002
-31.8096
-25.167
-16.3684
-5.84605
5.85235
18.0965
30.2139
41.5356
51.4446
59.4221
65.0875
68.229
68.8202
67.0227
63.1724
57.7532
51.3614
44.6648
38.3617
33.1448
29.6722
28.549
30.3165
35.4486
44.348
57.3375
74.6376
96.3282
122.292
152.14
185.142
220.148
255.556
289.31
318.971
341.848
355.213
356.574
343.974
316.305
273.561
217.02
149.287
74.1924
-3.46036
-78.2925
-144.845
-198.121
-234.112
-250.236
-245.644
-221.33
-180.054
-126.062
-64.641
-1.57207
57.4728
107.502
144.689
166.703
172.876
164.161
142.932
112.627
77.3046
41.1623
8.0755
-18.7903
-37.2559
-46.2713
-45.9191
-37.2909
-22.2627
-3.20389
17.3398
36.9494
53.5891
65.7904
72.7511
74.3451
71.0538
63.8342
53.9477
42.7725
31.6265
21.6179
13.5397
7.81483
4.49257
3.28992
3.66751
4.92633
6.31131
7.10883
6.72818
4.76041
1.01178
-4.48768
-11.4975
-19.5972
-28.2292
-36.7482
-44.4743
-50.7451
-54.9657
-56.653
-55.474
-51.2753
-44.1024
-34.2063
-22.0354
-8.21331
6.5001
21.2603
35.2007
47.5
57.449
64.5095
68.3587
68.9142
66.3365
61.0087
53.4953
44.4847
34.7228
24.9423
15.7985
7.81399
1.34086
-3.45911
-6.6137
-8.32072
-8.91242
-8.80841
-8.46241
-8.3087
-8.71394
-9.9393
-12.1165
-15.2399
-19.1745
-23.6791
-28.4398
-33.111
-37.3573
-40.8925
-43.5099
-45.1019
-45.6666
-45.3015
-44.1866
-42.5585
-40.6804
-38.8106
-37.1733
-35.9349
-35.1876
-34.9416
-35.1265
-35.6015
-36.172
-36.6125
-36.6917
-36.1982
-34.9635
-32.8803
-29.914
-26.1061
-21.5697
-16.4777
-11.0442
-5.5025
-0.080904
5.02027
9.64917
13.7178
17.2111
20.1885
22.777
25.1575
27.5418
30.1455
33.1567
36.7035
40.8252
45.4504
50.3853
55.3172
59.8324
63.4505
65.671
66.0282
64.1479
59.7978
52.9257
43.678
32.3975
19.5972
5.91432
-7.95034
-21.3006
-33.5121
-44.0906
-52.7135
-59.2507
-63.7625
-66.4761
-67.7432
-67.9866
-67.6412
-67.0987
-66.661
-66.508
-66.6833
-67.0974
-67.5465
-67.7455
-67.3674
-66.0878
-63.6256
-59.7788
-54.449
-47.6552
-39.5331
-30.3232
-20.3474
-9.97762
0.398673
10.4147
19.7562
28.1869
35.5642
41.8445
47.077
51.3882
54.9585
57.9943
60.6995
63.2492
65.77
68.3274
70.923
73.4999
75.9555
78.1589
79.9699
81.2555
81.9033
81.8284
80.9754
79.314
76.8324
73.5274
69.3968
64.4323
58.6175
51.9295
44.3467
35.8604
26.4898
16.2989
5.41189
-5.9742
-17.5841
-29.0667
-40.0086
-49.9575
-58.4563
-65.0834
-69.4969
-71.4757
-70.9533
-68.0389
-63.0217
-56.3571
-48.6352
-40.5341
-32.7632
-26.0017
-20.8398
-17.7265
-16.9313
-18.519
-22.3418
-28.046
-35.0913
-42.7799
-50.2928
-56.7298
-61.1536
-62.6374
-60.3203
-53.4738
-41.5819
-24.4356
-2.23777
24.2972
53.8646
84.5384
113.812
138.727
156.103
162.85
156.337
134.78
97.5794
45.5665
-18.9042
-92.0342
-168.848
-243.621
-310.438
-363.797
-399.205
-413.688
-406.139
-377.47
-330.536
-269.847
-201.087
-130.512
-64.2788
-7.80523
34.7758
61.0025
70.2664
63.7766
44.3181
15.8407
-17.0636
-49.7258
-77.9376
-98.3981
-109.021
-109.074
-99.1476
-80.9632
-57.067
-30.4458
-4.1244
19.207
37.4901
49.4926
54.8822
54.1832
48.6318
39.9557
30.1146
21.0342
14.3703
11.3268
12.5468
18.0829
27.4432
39.7003
53.6446
67.9583
81.3871
92.8894
101.745
107.616
110.554
110.961
109.514
107.052
104.469
102.598
102.115
103.469
106.843
112.143
119.022
126.921
135.134
142.872
149.342
153.811
155.665
154.46
149.953
142.121
131.163
117.486
101.676
84.4578
66.6419
49.0661
32.5338
17.7557
5.29789
-4.45638
-11.33
-15.3568
-16.7675
-15.9593
-13.4518
-9.83516
-5.71511
-1.66158
1.83475
4.39408
5.76547
5.83088
4.59661
2.17462
-1.2429
-5.41211
-10.0658
-14.9381
-19.7846
-24.3946
-28.5981
-32.2658
-35.3056
-37.6561
-39.2796
-40.1558
-40.2776
-39.6494
-38.2879
-36.2243
-33.5092
-30.2169
-26.4502
-22.3439
-18.0662
-13.8173
-9.82389
-6.32943
-3.57906
-1.80047
-1.18135
-1.84554
-3.83061
-7.06982
-11.3818
-16.4711
-21.9407
-27.3181
-32.0935
-35.7652
-37.8901
-38.131
-36.2956
-32.3623
-26.4876
-18.9953
-10.3472
-1.09877
8.15479
16.8356
24.437
30.5678
34.9817
37.5902
38.4572
37.7777
35.844
33.0057
29.6287
26.0599
22.6023
19.5027
16.9529
15.1004
14.0655
13.9566
14.8796
16.9351
20.2021
24.7101
30.4042
37.112
44.5203
52.1714
59.4834
65.7958
70.4361
72.7998
72.4308
69.0907
62.8036
53.8692
42.8404
30.466
17.6084
5.14616
-6.12423
-15.5728
-22.7959
-27.6443
-30.2155
-30.8153
-29.8943
-27.9703
-25.549
-23.0539
-20.775
-18.8424
-17.227
-15.7671
-14.2141
-12.291
-9.7542
-6.44849
-2.34807
2.42218
7.58811
12.75
17.4249
21.1023
23.3047
23.6463
21.8809
17.9343
11.9154
4.10648
-5.06643
-15.08
-25.3696
-35.3892
-44.6668
-52.8486
-59.7276
-65.2508
-69.5064
-72.6929
-75.0743
-76.929
-78.5011
-79.9607
-81.3803
-82.7298
-83.8917
-84.6926
-84.9456
-84.4972
-83.2679
-81.2827
-78.683
-75.7174
-72.7132
-70.029
-67.996
-66.8537
-66.6889
-67.386
-68.5951
-69.7257
-69.9707
-68.3636
-63.8702
-55.5114
-42.5115
-24.4573
-1.45139
25.7658
55.7519
86.3811
114.962
138.457
153.796
158.236
149.74
127.314
91.2428
43.2025
-13.7918
-75.5977
-137.303
-193.691
-239.766
-271.272
-285.15
-279.87
-255.604
-214.211
-159.038
-94.5628
-25.9132
41.6679
103.356
155.212
194.532
220.042
231.926
231.685
221.867
205.69
186.623
167.97
152.506
142.201
138.067
140.119
147.467
158.497
171.131
183.12
192.341
197.053
196.096
189.009
176.058
158.168
136.789
113.702
90.7919
69.8281
52.2609
39.0726
30.6888
26.9604
27.2143
30.3624
35.0528
39.8427
43.3704
44.5059
42.4647
36.8711
27.7697
15.5865
1.04815
-14.9269
-31.3496
-47.2793
-61.9246
-74.7166
-85.3465
-93.766
-100.153
-104.85
-108.281
-110.87
-112.956
-114.734
-116.215
-117.228
-117.44
-116.416
-113.692
-108.862
-101.655
-92.0043
-80.0834
-66.3168
-51.3544
-36.016
-21.213
-7.85504
3.24554
11.4604
16.4133
18.0212
16.5049
12.3657
6.33364
-0.709191
-7.8215
-14.1014
-18.7808
-21.3053
-21.3912
-19.0536
-14.6025
-8.60757
-1.83561
4.83347
10.5025
14.3556
15.7489
14.2844
9.85999
2.6886
-6.71483
-17.5791
-28.9513
-39.7925
-49.0864
-55.9462
-59.7101
-60.0129
-56.8239
-50.4486
-41.4923
-30.7906
-19.3156
-8.06938
2.02189
10.2019
15.9543
19.0423
19.5147
17.6796
14.0504
9.2729
4.04248
-0.977038
-5.22429
-8.29314
-9.96257
-10.2023
-9.15533
-7.10184
-4.40995
-1.48038
1.30809
3.64612
5.3291
6.27687
6.53626
6.26711
5.71405
5.16839
4.92524
5.24175
6.30176
8.19139
10.8883
14.2654
18.108
22.1416
26.0662
29.5929
32.4774
34.5485
35.7256
36.0267
35.5644
34.5309
33.1749
31.7714
30.5884
29.8535
29.7238
30.2629
31.4277
33.0666
34.9308
36.6967
37.9996
38.4725
37.789
35.7028
32.0807
26.9251
20.3829
12.7395
4.39839
-4.15141
-12.3776
-19.7512
-25.7936
-30.1187
-32.4653
-32.718
-30.9133
-27.2313
-21.9745
-15.536
-8.36096
-0.906683
6.39624
13.176
19.1431
24.1031
27.9587
30.702
32.3988
33.1683
33.1596
32.5303
31.4266
29.9694
28.2453
26.3036
24.1586
21.7961
19.1834
16.2809
13.0538
9.48386
5.57835
1.37688
-3.04589
-7.58151
-12.0932
-16.4251
-20.4149
-23.9074
-26.7698
-28.9036
-30.2557
-30.8234
-30.6557
-29.8483
-28.5348
-26.8731
-25.0294
-23.1616
-21.4035
-19.8511
-18.5538
-17.5098
-16.6678
-15.9329
-15.1779
-14.2568
-13.019
-11.322
-9.03862
-6.05799
-2.27815
2.40859
8.13432
15.0727
23.4469
33.5202
45.5617
59.7836
76.2514
94.7765
114.806
135.334
154.86
171.419
182.694
186.224
179.687
161.226
129.782
85.3768
29.2909
-35.889
-106.391
-177.536
-244.157
-301.109
-343.81
-368.749
-373.887
-358.908
-325.276
-276.09
-215.756
-149.521
-82.9161
-21.1888
31.211
71.0339
96.4771
107.257
104.509
90.5371
68.4613
41.8002
14.0549
-11.664
-32.9261
-48.1605
-56.7163
-58.8099
-55.3768
-47.8575
-37.9489
-27.3578
-17.583
-9.75308
-4.52992
-2.08463
-2.13896
-4.05984
-6.98861
-9.98445
-12.162
-12.8062
-11.4513
-7.91901
-2.31333
5.02109
13.5687
22.7286
31.9022
40.5721
48.3609
55.0647
60.6595
65.2815
69.1864
72.6969
76.1438
79.8102
83.8849
88.4295
93.3613
98.4541
103.355
107.618
110.747
112.247
111.682
108.725
103.208
95.1463
84.7594
72.4599
58.828
44.5639
30.4261
17.1608
5.43101
-4.2483
-11.5585
-16.4057
-18.9241
-19.455
-18.5031
-16.6769
-14.6192
-12.9369
-12.1384
-12.5844
-14.4593
-17.7626
-22.3227
-27.8281
-33.8727
-40.0079
-45.7963
-50.8589
-54.9126
-57.7937
-59.4652
-60.0092
-59.6061
-58.5037
-56.9814
-55.3135
-53.7364
-52.4233
-51.4694
-50.8872
-50.6134
-50.5244
-50.4588
-50.2424
-49.7132
-48.7437
-47.2558
-45.2299
-42.7044
-39.7689
-36.551
-33.199
-29.8636
-26.6801
-23.7538
-21.1507
-18.8928
-16.9604
-15.2992
-13.8315
-12.4702
-11.1326
-9.75339
-8.2936
-6.74581
-5.13405
-3.50891
-1.9386
-0.497108
0.748865
1.75241
2.49641
2.99944
3.31631
3.53276
3.75448
4.0919
4.64256
5.47364
6.60725
8.01091
9.59476
11.2165
12.6939
13.8233
14.403
14.2574
13.2613
11.3582
8.57359
5.01909
0.887417
-3.56167
-8.02337
-12.1757
-15.7104
-18.3632
-19.9412
-20.3418
-19.5644
-17.7094
-14.9677
-11.6005
-7.91075
-4.21167
-0.794401
2.10098
4.30763
5.74524
6.42313
6.43328
5.93479
5.13185
4.2485
3.50309
3.08561
3.14015
3.75425
4.95545
6.71509
8.95793
11.576
14.4451
17.4406
20.4531
23.3996
26.2309
28.9348
31.5334
34.0763
36.6305
39.2671
42.0473
45.0087
48.1542
51.4441
54.793
58.0722
61.1172
63.7412
65.7504
66.9631
67.2276
66.438
64.5456
61.5644
57.5704
52.6933
47.1041
40.9974
34.5739
28.0232
21.5098
15.1642
9.07959
3.31323
-2.10777
-7.17803
-11.9048
-16.2999
-20.3736
-24.1309
-27.5714
-30.689
-33.4738
-35.9122
-37.9868
-39.6743
-40.9439
-41.7549
-42.0568
-41.7911
-40.896
-39.3125
-36.9922
-33.9039
-30.0353
-25.3894
-19.9726
-13.7748
-6.74677
1.22117
10.307
20.7436
32.7739
46.5724
62.1367
79.163
96.9307
114.225
129.33
140.11
144.192
139.247
123.318
95.1705
54.6072
2.67349
-58.2707
-124.653
-191.962
-255.17
-309.255
-349.757
-373.288
-377.942
-363.527
-331.605
-285.325
-229.069
-167.971
-107.352
-52.163
-6.48349
26.8492
46.4548
52.447
46.3003
30.5733
8.53277
-16.2712
-40.4244
-61.0136
-75.8991
-83.8707
-84.6801
-78.9564
-68.0272
-53.6745
-37.8629
-22.4747
-9.0826
1.21448
7.88008
10.9495
10.9665
8.86177
5.79431
2.97826
1.51808
2.2719
5.75746
12.1086
21.0837
32.1199
44.4238
57.0832
69.1852
79.9254
88.6956
95.1409
99.1816
101.001
100.999
99.7293
97.8171
95.8771
94.4399
93.8936
94.4476
96.1212
98.7557
102.047
105.594
108.952
111.692
113.447
113.95
113.055
110.745
107.116
102.35
96.6872
90.384
83.6798
76.7703
69.791
62.8132
55.8513
48.8789
41.8511
34.7278
27.4948
20.1791
12.8564
5.65017
-1.27671
-7.73721
-13.5389
-18.5042
-22.4888
-25.3972
-27.1926
-27.9016
-27.6116
-26.4647
-24.6454
-22.366
-19.8502
-17.3162
-14.9607
-12.9444
-11.3819
-10.3337
-9.80372
-9.74089
-10.0453
-10.5785
-11.1775
-11.6701
-11.8923
-11.7039
-11.002
-9.7301
-7.88274
-5.50374
-2.67969
0.471116
3.81238
7.20437
10.5173
13.6419
16.4953
19.0231
21.1967
23.0068
24.4558
25.5501
26.2929
26.6812
26.7049
26.3491
25.5997
24.4493
22.904
20.9883
18.7491
16.2555
13.5963
10.8753
8.20344
5.6902
3.43469
1.51749
-0.00581518
-1.10869
-1.79479
-2.09627
-2.06935
-1.7879
-1.33557
-0.797573
-0.252885
0.232323
0.609388
0.84966
0.944697
0.904356
0.753149
0.52545
0.260183
-0.00435225
-0.234958
-0.406875
-0.50572
-0.527967
-0.48005
-0.376389
-0.236656
-0.0827313
0.064264
0.186478
0.271057
0.310797
0.303436
0.249347
0.147592
-0.00933445
-0.241228
-0.585034
-1.09729
-1.85274
-2.93827
-4.44217
-6.4397
-8.97681
-12.0545
-15.6162
-19.5407
-23.6422
-27.6786
-31.3666
-34.4048
-36.4993
-37.3928
-36.8905
-34.8832
-31.3618
-26.4244
-20.2731
-13.2009
-5.57098
2.21041
9.72458
16.5708
22.3936
26.9039
29.8924
31.2347
30.8886
28.8861
25.3224
20.3449
14.1426
6.93796
-1.01876
-9.45569
-18.0855
-26.6139
-34.7518
-42.2292
-48.8122
-54.3196
-58.6366
-61.7254
-63.6283
-64.4644
-64.4181
-63.7218
-62.6342
-61.4164
-60.3091
-59.5125
-59.1711
-59.3651
-60.1071
-61.345
-62.9691
-64.8232
-66.7161
-68.4341
-69.7507
-70.4334
-70.2451
-68.941
-66.2623
-61.9279
-55.6308
-47.0418
-35.8278
-21.6884
-4.41435
16.035
39.4375
65.2111
92.3291
119.269
144.02
164.161
177.033
179.986
170.701
147.533
109.839
58.2331
-5.27172
-77.2854
-153.232
-227.711
-294.986
-349.57
-386.808
-403.409
-397.842
-370.544
-323.914
-262.082
-190.483
-115.286
-42.7533
21.401
72.5716
107.677
125.386
126.141
111.982
86.2024
52.8957
16.4425
-18.9863
-49.8592
-73.5989
-88.7562
-95.0346
-93.1783
-84.7503
-71.8392
-56.7374
-41.6337
-28.3549
-18.1845
-11.7714
-9.12894
-9.71623
-12.5799
-16.533
-20.3431
-22.9044
-23.372
-21.2468
-16.4019
-9.05735
0.290901
10.9695
22.2387
33.397
43.8674
53.253
61.3598
68.1875
73.8924
78.7339
83.012
87.0086
90.9387
94.9184
98.953
102.943
106.707
110.013
112.619
114.308
114.918
114.364
112.647
109.848
106.116
101.641
96.6274
91.263
85.6942
80.0059
74.2129
68.263
62.0503
55.4384
48.2884
40.4884
31.98
22.7765
12.9716
2.73642
-7.69466
-18.0475
-28.0373
-37.3996
-45.919
-53.4518
-59.9392
-65.4101
-69.9737
-73.802
-77.1064
-80.1096
-83.0185
-85.999
-89.1565
-92.5238
-96.0566
-99.6376
-103.088
-106.187
-108.692
-110.366
-111.001
-110.441
-108.595
-105.456
-101.093
-95.6517
-89.3371
-82.3951
-75.0873
-67.6663
-60.3533
-53.3205
-46.6821
-40.4937
-34.7597
-29.4476
-24.5063
-19.8846
-15.5473
-11.4864
-7.7251
-4.31536
-1.32882
1.15647
3.0713
4.36981
5.04105
5.11552
4.66597
3.80223
2.66103
1.39228
0.143706
-0.953883
-1.79903
-2.32807
-2.51887
-2.3895
-1.9925
-1.4055
-0.71982
-0.0283786
0.585407
1.05659
1.34453
1.43528
1.34036
1.09265
0.740068
0.338036
-0.0580103
-0.399188
-0.647884
-0.780089
-0.785167
-0.663285
-0.421113
-0.0666919
0.395508
0.968368
1.66402
2.50352
3.51436
4.72627
6.16615
7.8529
9.79315
11.9787
14.3859
16.9776
19.7071
22.5234
25.3777
28.2292
31.0498
33.8277
36.5676
39.2896
42.0248
44.8107
47.6848
50.6786
53.8132
57.0958
60.5188
64.0601
67.6851
71.3487
74.9976
78.5705
81.9978
85.1999
88.085
90.5478
92.4696
93.7215
94.1701
93.687
92.1599
89.5048
85.6771
80.6798
74.5667
67.441
59.4482
50.7648
41.5854
32.1098
22.5329
13.0377
3.79453
-5.03781
-13.3077
-20.8671
-27.5706
-33.2787
-37.8655
-41.2308
-43.3146
-44.1111
-43.6795
-42.1498
-39.7204
-36.6483
-33.2313
-29.7843
-26.6114
-23.9775
-22.0814
-21.0348
-20.8489
-21.4309
-22.5905
-24.0568
-25.5031
-26.5768
-26.9303
-26.2496
-24.2757
-20.8176
-15.757
-9.04549
-0.70183
9.18516
20.4409
32.7717
45.7145
58.5772
70.3859
79.8585
85.4284
85.3335
77.7785
61.162
34.344
-3.08292
-50.5659
-106.453
-167.983
-231.43
-292.394
-346.228
-388.536
-415.696
-425.319
-416.584
-390.396
-349.327
-297.353
-239.417
-180.866
-126.842
-81.7109
-48.599
-29.0943
-23.1478
-29.1787
-44.3616
-65.0484
-87.2654
-107.217
-121.734
-128.607
-126.785
-116.403
-98.6735
-75.6401
-49.8592
-24.0377
-0.68624
18.1743
31.2189
37.9204
38.5437
34.042
25.8785
15.8021
5.6097
-3.07449
-8.97627
-11.2881
-9.71644
-4.46152
3.86216
14.3475
25.9398
37.5843
48.3576
57.569
64.8207
70.0249
73.3792
75.3078
76.3779
77.2056
78.3618
80.2922
83.2587
87.3087
92.2741
97.7979
103.383
108.456
112.437
114.806
115.157
113.241
108.98
102.474
93.9796
83.8828
72.6583
60.8281
48.92
37.4299
26.7909
17.3506
9.35644
2.94926
-1.83562
-5.06174
-6.88014
-7.51495
-7.24685
-6.39538
-5.3002
-4.30196
-3.72282
-3.84732
-4.90464
-7.0534
-10.3706
-14.8461
-20.3834
-26.8074
-33.8788
-41.3125
-48.8003
-56.0327
-62.7202
-68.6099
-73.4977
-77.235
-79.73
-80.9448
-80.8896
-79.6149
-77.2032
-73.7616
-69.4152
-64.3021
-58.5697
-52.3715
-45.865
-39.2097
-32.5639
-26.0822
-19.9118
-14.1887
-9.03395
-4.55034
-0.819681
2.09904
4.17045
5.38288
5.74803
5.30085
4.10028
2.231
-0.193886
-3.0302
-6.10127
-9.19948
-12.0924
-14.5339
-16.2815
-17.1167
-16.8683
-15.4341
-12.7981
-9.04094
-4.34025
1.03928
6.76525
12.4649
17.7567
22.2833
25.7412
27.9039
28.6379
27.9073
25.7711
22.3712
17.9163
12.6621
6.89178
0.897814
-5.03321
-10.633
-15.6607
-19.9107
-23.2176
-25.4617
-26.5728
-26.5337
-25.382
-23.21
-20.162
-16.4279
-12.2335
-7.82758
-3.4663
0.60374
4.16218
7.02984
9.0804
10.2477
10.5279
9.97698
8.70321
6.85713
4.61907
2.1865
-0.238173
-2.4581
-4.29072
-5.57453
-6.17437
-5.98564
-4.93797
-2.99848
-0.174577
3.48425
7.8862
12.8994
18.3568
24.0648
29.8137
35.3909
40.5948
45.2476
49.2063
52.3702
54.6837
56.1342
56.7458
56.568
55.6627
54.0893
51.8917
49.0883
45.6681
41.5934
36.8108
31.2673
24.9314
17.8143
9.98752
1.59439
-7.14846
-15.96
-24.5135
-32.4638
-39.4782
-45.2682
-49.6179
-52.4042
-53.6082
-53.3147
-51.7019
-49.0215
-45.5733
-41.6751
-37.6344
-33.7221
-30.1522
-27.0687
-24.5402
-22.5621
-21.066
-19.9331
-19.0119
-18.1358
-17.1398
-15.8735
-14.2085
-12.0373
-9.26412
-5.78778
-1.47839
3.84515
10.4294
18.5822
28.64
40.9007
55.5216
72.3933
91.0083
110.356
128.873
144.486
154.751
157.107
149.2
129.258
96.4417
51.123
-4.9649
-68.749
-136.019
-201.8
-260.853
-308.246
-339.915
-353.149
-346.918
-322.016
-280.98
-227.816
-167.547
-105.659
-47.5
2.2735
40.1593
64.1122
73.6674
69.8784
55.0868
32.5645
6.079
-20.5624
-43.9337
-61.3333
-71.0155
-72.2959
-65.53
-51.9789
-33.5868
-12.7031
8.21622
26.8947
41.4779
50.7106
54.0345
51.6011
44.205
33.1479
20.055
6.66498
-5.37937
-14.7143
-20.3921
-21.9569
-19.4529
-13.37
-4.53734
6.01645
17.2139
28.0702
37.8059
45.9185
52.2074
56.7528
59.8576
61.9632
63.5555
65.0763
66.8509
69.0432
71.6409
74.4707
77.2372
79.5791
81.1315
81.5849
80.7322
78.4988
74.9511
70.2849
64.7964
58.8403
52.7835
46.9579
41.6229
36.9387
32.9562
29.6221
26.7986
24.2925
21.8906
19.3935
16.6452
13.5528
10.0963
6.32591
2.35018
-1.68338
-5.61162
-9.27927
-12.5597
-15.37
-17.6798
-19.5119
-20.9367
-22.0604
-23.009
-23.9098
-24.8732
-25.9748
-27.2425
-28.6486
-30.1079
-31.4849
-32.6061
-33.2797
-33.3182
-32.5621
-30.9014
-28.2933
-24.7718
-20.4496
-15.5112
-10.1981
-4.78752
0.432403
5.18838
9.24563
12.4268
14.6243
15.8048
16.0061
15.3275
13.9145
11.9416
9.59363
7.05022
4.47233
1.99401
-0.281592
-2.28228
-3.96378
-5.30503
-6.30274
-6.96645
-7.31443
-7.37091
-7.16438
-6.72669
-6.09254
-5.29906
-4.38537
-3.39243
-2.3638
-1.34785
-0.401866
0.402239
0.971634
1.18763
0.904414
-0.0462906
-1.84309
-4.6551
-8.61563
-13.7924
-20.158
-27.5658
-35.7361
-44.2565
-52.5998
-60.1598
-66.3032
-70.4327
-72.0539
-70.8381
-66.6715
-59.6846
-50.2548
-38.9812
-26.6345
-14.0849
-2.21847
8.14897
16.3508
21.9309
24.682
24.6559
22.1465
17.6477
11.7936
5.28677
-1.17545
-6.96904
-11.5988
-14.736
-16.2361
-16.1351
-14.6277
-12.0311
-8.73852
-5.16983
-1.72373
1.2627
3.54371
4.98159
5.54974
5.32327
4.45936
3.1706
1.69521
0.267808
-0.906021
-1.66854
-1.92065
-1.62401
-0.794893
0.508709
2.20459
4.2056
6.43754
8.85275
11.4369
14.2073
17.2028
20.4654
24.0173
27.8353
31.829
35.8265
39.5729
42.7427
44.9696
45.8883
45.1858
42.6528
38.229
32.0323
24.3672
15.7093
6.66523
-2.08589
-9.86372
-16.0605
-20.2084
-22.0306
-21.4709
-18.697
-14.0776
-8.13739
-1.49434
5.2104
11.3829
16.5379
20.344
22.6496
23.4874
23.0594
21.7091
19.8853
18.107
16.9336
16.9431
18.7162
22.8206
29.786
40.0598
53.9386
71.4733
92.3585
115.823
140.551
164.654
185.733
201.038
207.72
203.168
185.379
153.314
107.188
48.6225
-19.3568
-92.5124
-165.755
-233.638
-290.931
-333.194
-357.276
-361.673
-346.702
-314.452
-268.532
-213.652
-155.082
-98.0658
-47.2728
-6.33467
22.4649
38.3267
41.8926
35.0391
20.5464
1.69256
-18.1729
-36.0224
-49.4674
-56.9686
-57.9255
-52.6459
-42.2113
-28.2643
-12.75
2.35389
15.2863
24.7033
29.8122
30.4276
26.9504
20.2775
11.6593
2.52488
-5.70157
-11.7703
-14.7431
-14.0844
-9.69779
-1.90839
8.60348
20.9068
33.9464
46.6762
58.1798
67.7672
75.0351
79.8866
82.5118
83.3339
82.9308
81.9454
80.9954
80.5959
81.1016
82.6756
85.285
88.7213
92.641
96.6175
100.199
102.959
104.546
104.706
103.3
100.306
95.8015
89.943
82.9446
75.0521
66.5235
57.6156
48.5745
39.6329
31.008
22.9015
15.4971
8.95696
3.41437
-1.03431
-4.33844
-6.50014
-7.57802
-7.68626
-6.98818
-5.68478
-3.99893
-2.15702
-0.37017
1.18295
2.36958
3.11121
3.38597
3.22505
2.70375
1.92865
1.02242
0.108257
-0.704216
-1.33011
-1.71649
-1.84508
-1.73063
-1.41556
-0.961772
-0.44109
0.07458
0.52201
0.853434
1.04072
1.07669
0.973709
0.76005
0.474638
0.161073
-0.138301
-0.387529
-0.560841
-0.644761
-0.638474
-0.55258
-0.40657
-0.225495
-0.0363101
0.135617
0.269455
0.351017
0.373845
0.339257
0.255406
0.135589
-0.00391976
-0.146152
-0.275519
-0.379409
-0.449173
-0.480447
-0.472924
-0.429731
-0.356633
-0.261305
-0.15289
-0.0420472
0.0583605
0.131857
0.156262
0.101101
-0.0751009
-0.426991
-1.02323
-1.94509
-3.28204
-5.12378
-7.54871
-10.6094
-14.3165
-18.6234
-23.4138
-28.4972
-33.6125
-38.4436
-42.6457
-45.881
-47.8601
-48.3823
-47.3697
-44.8896
-41.158
-36.5253
-31.4422
-26.4107
-21.9267
-18.4208
-16.2074
-15.4473
-16.1309
-18.0824
-20.9866
-24.4319
-27.9656
-31.1525
-33.63
-35.1518
-35.6158
-35.0723
-33.7122
-31.8382
-29.8217
-28.0514
-26.8802
-26.5757
-27.28
-28.9824
-31.5094
-34.5311
-37.5874
-40.1294
-41.575
-41.3729
-39.0672
-34.3573
-27.1438
-17.5547
-5.94773
7.11205
20.899
34.5918
47.3497
58.3915
67.0675
72.9161
75.6992
75.4127
72.2719
66.676
59.1554
50.3115
40.7548
31.0495
21.6705
12.9761
5.19839
-1.55029
-7.25705
-11.98
-15.8161
-18.8716
-21.2379
-22.9778
-24.1214
-24.6712
-24.6152
-23.943
-22.6622
-20.8119
-18.4697
-15.7518
-12.8064
-9.79981
-6.89894
-4.25144
-1.96472
-0.0856069
1.41941
2.68274
3.95196
5.60088
8.13063
12.1542
18.3573
27.4301
39.9664
56.3349
76.5337
100.046
125.729
151.759
175.674
194.517
205.098
204.345
189.714
159.608
113.726
53.3023
-18.8279
-98.3578
-179.839
-257.184
-324.281
-375.652
-407.071
-416.05
-402.141
-367.001
-314.218
-248.909
-177.158
-105.353
-39.5007
15.3756
55.7133
79.6914
87.3011
80.2057
61.4215
34.8669
4.84437
-24.4799
-49.5353
-67.6953
-77.4831
-78.6217
-71.9346
-59.1245
-42.4663
-24.4603
-7.49225
6.46017
16.041
20.6327
20.3703
16.0602
9.02355
0.888912
-6.63641
-11.9863
-13.922
-11.6653
-4.96624
5.89714
20.1812
36.79
54.4222
71.7305
87.4759
100.657
110.602
117.015
119.981
119.913
117.487
113.532
108.93
104.511
100.968
98.7946
98.2571
99.3915
102.028
105.839
110.391
115.209
119.83
123.847
126.94
128.887
129.563
128.929
127.009
123.866
119.582
114.242
107.919
100.681
92.5898
83.7191
74.1671
64.0719
53.6217
43.0576
32.6677
22.7716
13.697
5.75134
-0.808465
-5.80297
-9.1509
-10.88
-11.1264
-10.1225
-8.1743
-5.6314
-2.8531
-0.174532
2.12314
3.83522
4.84645
5.13362
4.75797
3.84915
2.58296
1.15618
-0.238624
-1.4352
-2.31035
-2.79393
-2.87139
-2.57948
-1.99613
-1.2265
-0.3871
0.409765
1.06936
1.52433
1.7401
1.71562
1.47989
1.08513
0.597789
0.0887315
-0.376079
-0.743289
-0.977474
-1.06365
-1.00699
-0.830015
-0.568006
-0.263356
0.0402683
0.303156
0.493583
0.590293
0.583303
0.473186
0.269097
-0.0140783
-0.359032
-0.749418
-1.17294
-1.62386
-2.10459
-2.6264
-3.2089
-3.87853
-4.6661
-5.60358
-6.72037
-8.03963
-9.57469
-11.3261
-13.2796
-15.4046
-17.6542
-19.9659
-22.2626
-24.4555
-26.446
-28.1299
-29.4006
-30.1536
-30.2917
-29.7303
-28.4036
-26.2703
-23.3203
-19.5796
-15.115
-10.0368
-4.50051
1.29562
7.11453
12.6888
17.7323
21.9562
25.0868
26.8866
27.1742
25.8435
22.8786
18.363
12.4825
5.5187
-2.16441
-10.142
-17.9557
-25.1444
-31.2761
-35.9779
-38.9611
-40.0401
-39.1432
-36.3145
-31.7087
-25.5776
-18.2522
-10.1205
-1.60337
6.86957
14.8841
22.0632
28.0871
32.7089
35.767
37.1922
37.0087
35.3296
32.3466
28.314
23.5294
18.3109
12.975
7.81428
3.07917
-1.03626
-4.40321
-6.96111
-8.71516
-9.7289
-10.113
-10.0116
-9.58754
-9.00728
-8.4276
-7.98371
-7.78021
-7.88485
-8.32543
-9.08978
-10.1288
-11.362
-12.6857
-13.9827
-15.1329
-16.0242
-16.5626
-16.6803
-16.3412
-15.5434
-14.3186
-12.7287
-10.8601
-8.81776
-6.71834
-4.68274
-2.82689
-1.24887
-0.0106237
0.885954
1.52665
2.11108
2.96921
4.55818
7.42937
12.159
19.2414
28.9534
41.2084
55.427
70.4567
84.5701
95.5615
100.948
98.2601
85.3876
60.9368
24.5405
-22.9292
-79.2913
-141.151
-204.162
-263.44
-314.065
-351.63
-372.751
-375.475
-359.531
-326.387
-279.101
-221.993
-160.166
-98.9574
-43.3606
2.47966
35.6655
54.7815
59.9509
52.7141
35.7545
12.5133
-13.2539
-37.9223
-58.3928
-72.3923
-78.6536
-76.9616
-68.0738
-53.5338
-35.4112
-16.0042
2.45518
18.0587
29.4162
35.7693
37.0199
33.6797
26.7537
17.5794
7.64467
-1.59367
-8.86866
-13.225
-14.094
-11.3177
-5.12597
3.92651
15.0518
27.3359
39.8479
51.7393
62.3236
71.1293
77.9235
82.705
85.6723
87.1704
87.6257
87.4777
87.1161
86.8311
86.7828
86.9909
87.3462
87.6391
87.6006
86.9486
85.4331
82.8738
79.1849
74.3857
68.5966
62.0217
54.9224
47.5869
40.2993
33.3135
26.834
21.0049
15.9085
11.5704
7.96982
5.05342
2.7486
0.975526
-0.344266
-1.28324
-1.90717
-2.2776
-2.45589
-2.50725
-2.50298
-2.51982
-2.63583
-2.92322
-3.43882
-4.21395
-5.24505
-6.48713
-7.8514
-9.20817
-10.3959
-11.2357
-11.5513
-11.1909
-10.0505
-8.09358
-5.36504
-1.99649
1.79892
5.74213
9.51312
12.7824
15.245
16.653
16.8425
15.7505
13.4223
10.0051
5.73229
0.898005
-4.1732
-9.15863
-13.7676
-17.7665
-20.9957
-23.3783
-24.9186
-25.6935
-25.837
-25.5203
-24.9318
-24.2567
-23.6609
-23.2786
-23.205
-23.4945
-24.1625
-25.1911
-26.536
-28.1353
-29.917
-31.8054
-33.7268
-35.6122
-37.399
-39.0312
-40.4588
-41.6371
-42.5256
-43.0885
-43.2947
-43.1199
-42.5481
-41.5737
-40.2029
-38.4539
-36.3556
-33.9444
-31.2606
-28.3441
-25.2316
-21.9557
-18.5473
-15.0406
-11.4807
-7.93111
-4.48032
-1.24391
1.63879
4.01502
5.73525
6.6743
6.75351
5.96003
4.3592
2.09703
-0.608688
-3.48813
-6.24777
-8.60343
-10.3133
-11.2066
-11.2028
-10.3204
-8.67269
-6.45194
-3.90448
-1.30006
1.10046
3.07465
4.46188
5.17803
5.22026
4.66235
3.64197
2.34246
0.971922
-0.25759
-1.14853
-1.53251
-1.28045
-0.308453
1.42002
3.89477
7.06147
10.8255
15.0565
19.5934
24.2495
28.8186
33.0803
36.8085
39.7803
41.7881
42.6537
42.2437
40.4852
37.379
33.0083
27.5411
21.2245
14.3716
7.33999
0.506252
-5.76343
-11.1418
-15.3664
-18.2589
-19.7381
-19.8234
-18.6294
-16.3534
-13.2553
-9.63313
-5.79644
-2.03926
1.3837
4.27634
6.51385
8.04779
8.90368
9.17164
8.9918
8.537
7.99575
7.55902
7.41373
7.74544
8.75031
10.6541
13.733
18.3279
24.8432
33.7189
45.3704
60.0938
77.9423
98.5885
121.198
144.345
165.995
183.591
194.245
195.041
183.402
157.499
116.621
61.4532
-5.78696
-81.4087
-160.495
-237.331
-305.967
-360.843
-397.408
-412.641
-405.408
-376.617
-329.128
-267.45
-197.246
-124.728
-55.9883
3.61703
49.9884
80.6339
94.8238
93.5383
79.2276
55.4242
26.2617
-4.03505
-31.6272
-53.4537
-67.4964
-72.9004
-69.9455
-59.888
-44.7023
-26.7631
-8.51301
7.84466
20.5908
28.6518
31.6645
29.9471
24.3904
16.2885
7.13963
-1.55684
-8.4801
-12.6243
-13.3795
-10.5537
-4.34087
4.75314
16.0115
28.6164
41.7525
54.6912
66.8471
77.8048
87.3176
95.2841
101.711
106.671
110.263
112.586
113.715
113.705
112.594
110.418
107.228
103.108
98.1807
92.615
86.6156
80.4113
74.2344
68.2992
62.7799
57.7928
53.3839
49.5255
46.1213
43.0212
40.0421
36.9947
33.7105
30.0659
25.9999
21.5231
16.7162
11.7186
6.70982
1.88581
-2.56579
-6.48821
-9.77294
-12.3701
-14.2909
-15.6024
-16.4161
-16.8717
-17.1193
-17.3012
-17.5367
-17.9109
-18.4679
-19.2104
-20.1036
-21.0832
-22.0671
-22.9667
-23.6997
-24.1993
-24.4218
-24.3486
-23.9863
-23.3614
-22.5136
-21.4872
-20.3228
-19.0505
-17.6854
-16.2263
-14.6577
-12.955
-11.0915
-9.04657
-6.81236
-4.39991
-1.84148
0.810126
3.48572
6.10666
8.5936
10.8756
12.8983
14.6296
16.0616
17.2096
18.106
18.7926
19.3104
19.6903
19.9452
20.0645
20.0138
19.7368
19.162
18.2097
16.8021
14.8725
12.3747
9.2925
5.64786
1.50814
-3.00978
-7.73922
-12.4688
-16.9537
-20.9326
-24.15
-26.3809
-27.4549
-27.2779
-25.8465
-23.2537
-19.684
-15.3988
-10.7124
-5.96253
-1.47854
2.44734
5.58307
7.77084
8.93131
9.05869
8.20889
6.48372
4.01444
0.947545
-2.56536
-6.37294
-10.3252
-14.2718
-18.0592
-21.5299
-24.5231
-26.8814
-28.4601
-29.1406
-28.8461
-27.5555
-25.3156
-22.2465
-18.54
-14.4482
-10.2633
-6.28936
-2.80858
-0.0463581
1.85984
2.88311
3.11708
2.77068
2.14731
1.61052
1.53993
2.28339
4.1115
7.18076
11.5105
16.9767
23.3239
30.1923
37.1577
43.7772
49.6344
54.3793
57.757
59.6237
59.9489
58.8059
56.3528
52.8074
48.4215
43.4551
38.1561
32.7445
27.4035
22.2756
17.464
13.0365
9.03182
5.46587
2.33722
-0.368258
-2.67424
-4.61171
-6.21728
-7.53138
-8.59619
-9.45292
-10.1387
-10.6834
-11.107
-11.4176
-11.6114
-11.6735
-11.5811
-11.3067
-10.823
-10.1057
-9.13633
-7.90158
-6.39013
-4.58609
-2.45924
0.0473
3.0307
6.64137
11.0921
16.6599
23.6753
32.4951
43.4561
56.8055
72.6135
90.6732
110.402
130.763
150.231
166.826
178.227
181.973
175.741
157.671
126.691
82.8015
27.2602
-37.3671
-107.32
-177.921
-243.991
-300.367
-342.456
-366.748
-371.23
-355.646
-321.544
-272.135
-211.952
-146.362
-80.9921
-21.1459
28.7353
65.4858
87.4709
94.6572
88.4992
71.6688
47.6656
20.3653
-6.43966
-29.4507
-46.1828
-55.1621
-55.9898
-49.2761
-36.4642
-19.5751
-0.910691
17.2456
32.8953
44.5294
51.2544
52.8309
49.6314
42.5288
32.7382
21.6342
10.57
0.719168
-7.04199
-12.2026
-14.6314
-14.5415
-12.415
-8.90184
-4.70722
-0.484647
3.25284
6.19251
8.24734
9.54604
10.392
11.1987
12.4129
14.4362
17.5571
21.9015
27.4079
33.8289
40.7581
47.6771
54.0157
59.2175
62.8019
64.4161
63.8707
61.1568
56.4425
50.0525
42.4315
34.0991
25.5993
17.4508
10.1039
3.90533
-0.923598
-4.2971
-6.26209
-6.98457
-6.72708
-5.82013
-4.63014
-3.52666
-2.85142
-2.89144
-3.85785
-5.87205
-8.95983
-13.0535
-18.0018
-23.5853
-29.537
-35.5643
-41.3714
-46.6792
-51.2426
-54.8625
-57.3942
-58.7514
-58.9063
-57.8875
-55.775
-52.6948
-48.8102
-44.3141
-39.4178
-34.3401
-29.2947
-24.4775
-20.055
-16.1532
-12.8505
-10.1736
-8.09763
-6.55166
-5.42757
-4.59274
-3.9047
-3.22624
-2.43935
-1.45626
-0.226492
1.26094
2.98032
4.87647
6.87523
8.89582
10.8632
12.7189
14.4284
15.9847
17.4071
18.7358
20.0223
21.3186
22.6646
24.0774
25.5437
27.0159
28.4131
29.6283
30.5381
31.0168
30.9508
30.2521
28.8695
26.7942
24.0606
20.7418
16.9401
12.7748
8.36955
3.84063
-0.711236
-5.20477
-9.5774
-13.7807
-17.7733
-21.5131
-24.9507
-28.0259
-30.6675
-32.7985
-34.3438
-35.2414
-35.4546
-34.9823
-33.8675
-32.2003
-30.1151
-27.7829
-25.3971
-23.1562
-21.2441
-19.8108
-18.9563
-18.7193
-19.0718
-19.921
-21.1181
-22.4723
-23.7698
-24.7937
-25.3448
-25.2593
-24.4229
-22.7793
-20.332
-17.1409
-13.3126
-8.987
-4.32112
0.526897
5.41262
10.2167
14.8517
19.264
23.4312
27.3559
31.0574
34.5646
37.9093
41.1234
44.239
47.29
50.3152
53.3587
56.4678
59.6853
63.0374
66.5169
70.0655
73.5573
76.7898
79.4844
81.3015
81.8685
80.8213
77.8524
72.7615
65.4981
56.1918
45.1619
32.9049
20.0587
7.34806
-4.48314
-14.7447
-22.8685
-28.465
-31.3611
-31.6154
-29.5094
-25.5182
-20.2614
-14.4441
-8.79049
-3.97997
-0.589612
0.95163
0.394018
-2.31782
-7.04561
-13.4727
-21.1317
-29.4412
-37.7485
-45.3749
-51.6593
-55.9972
-57.872
-56.8765
-52.7231
-45.2454
-34.3919
-20.222
-2.90907
17.2386
39.7342
63.8476
88.5295
112.346
133.449
149.613
158.365
157.199
143.886
116.83
75.4183
20.3161
-46.3639
-121.062
-198.967
-274.402
-341.365
-394.174
-428.114
-440.018
-428.685
-395.084
-342.295
-275.195
-199.933
-123.248
-51.7255
8.91312
54.3998
82.316
92.2536
85.7307
65.8837
36.9862
3.86562
-28.7049
-56.5605
-76.5806
-86.9606
-87.2983
-78.4999
-62.5323
-42.0659
-20.0637
0.627503
17.6322
29.3066
34.8818
34.4811
29.0221
20.0261
9.36848
-0.993838
-9.27985
-14.0964
-14.5817
-10.4686
-2.06756
9.82171
24.0509
39.2943
54.2259
67.679
78.7709
86.98
92.1706
94.5668
94.6849
93.2358
91.0133
88.7831
87.1862
86.6682
87.4397
89.4696
92.5107
96.1489
99.8692
103.128
105.423
106.351
105.648
103.21
99.0951
93.5006
86.732
79.1596
71.1722
63.1345
55.3516
48.0461
41.3489
35.3025
29.8767
24.991
20.5396
16.4156
12.5287
8.81632
5.24576
1.80954
-1.48415
-4.62302
-7.6013
-10.4269
-13.1241
-15.7306
-18.2913
-20.8486
-23.4324
-26.0522
-28.6913
-31.3066
-33.8321
-36.1874
-38.288
-40.0581
-41.4418
-42.4118
-42.9746
-43.1698
-43.0648
-42.7451
-42.302
-41.8188
-41.3589
-40.957
-40.6141
-40.298
-39.9489
-39.4888
-38.8332
-37.9045
-36.6433
-35.0176
-33.0266
-30.7009
-28.0969
-25.2887
-22.3582
-19.3859
-16.4447
-13.5965
-10.8937
-8.3817
-6.10333
-4.10145
-2.41879
-1.09418
-0.155351
0.390312
0.565039
0.427497
0.0749403
-0.360951
-0.725124
-0.856448
-0.609274
0.123696
1.3908
3.16655
5.34545
7.74601
10.1255
12.2041
13.6955
14.3415
13.9444
12.3959
9.6957
5.95937
1.41358
-3.62166
-8.76124
-13.5911
-17.7078
-20.758
-22.4718
-22.6888
-21.3715
-18.6075
-14.5994
-9.64474
-4.10859
1.60843
7.10292
11.9996
15.978
18.7927
20.287
20.3985
19.1589
16.6868
13.1764
8.88251
4.10317
-0.839272
-5.61716
-9.91622
-13.4529
-15.9895
-17.3471
-17.4141
-16.1518
-13.5952
-9.84972
-5.08308
0.485834
6.60191
12.9906
19.376
25.498
31.1296
36.0896
40.2536
43.5599
46.0105
47.6672
48.6414
49.0803
49.1475
49.0017
48.7749
48.5531
48.3618
48.1588
47.8361
47.2311
46.146
44.3742
41.7293
38.0737
33.3438
27.5666
20.867
13.4641
5.65601
-2.2039
-9.73766
-16.5757
-22.3887
-26.9142
-29.9756
-31.4922
-31.48
-30.045
-27.3709
-23.7036
-19.3349
-14.5856
-9.78876
-5.27273
-1.34218
1.74221
3.7856
4.6806
4.42609
3.14024
1.06506
-1.43947
-3.91181
-5.81454
-6.56737
-5.58557
-2.32328
3.67711
12.7274
24.9265
40.0845
57.6457
76.6225
95.5591
112.545
125.296
131.321
128.159
113.686
86.4502
45.9873
-6.92566
-70.1434
-140.184
-212.441
-281.572
-342.02
-388.616
-417.173
-425.001
-411.262
-377.113
-325.616
-261.419
-190.253
-118.302
-51.5347
4.91873
47.2793
73.4483
83.1306
77.7425
60.1282
34.1312
4.07969
-25.7436
-51.5838
-70.5932
-81.0691
-82.5348
-75.6657
-62.0847
-44.063
-24.1722
-4.93533
11.4809
23.4982
30.2622
31.6749
28.3297
21.3682
12.2836
2.70169
-5.83115
-12.0283
-14.9915
-14.2783
-9.90668
-2.30327
7.79177
19.4467
31.6688
43.5266
54.25
63.2978
70.3894
75.5009
78.8298
80.737
81.6766
82.1225
82.5026
83.1467
84.2545
85.8836
87.9584
90.2948
92.6368
94.6979
96.2027
96.921
96.6928
95.4395
93.1628
89.9325
85.8653
81.1013
75.7809
70.0275
63.9377
57.5812
51.0087
44.2653
37.4069
30.5139
23.7007
17.1168
10.9404
5.36397
0.574176
-3.27031
-6.05991
-7.75068
-8.37373
-8.03581
-6.91109
-5.22504
-3.23259
-1.1933
0.653248
2.10912
3.03426
3.35576
3.06939
2.23374
0.958034
-0.614538
-2.32572
-4.02088
-5.56528
-6.85605
-7.82887
-8.45887
-8.75639
-8.75858
-8.5187
-8.09477
-7.53945
-6.8926
-6.17733
-5.39997
-4.55338
-3.62293
-2.59381
-1.45816
-0.220961
1.09639
2.45531
3.80198
5.0715
6.19363
7.09916
7.72603
8.02474
7.96257
7.52625
6.72324
5.58152
4.14792
2.48531
0.668659
-1.21973
-3.09551
-4.87779
-6.49439
-7.88647
-9.01202
-9.84789
-10.3903
-10.6534
-10.6668
-10.4716
-10.1158
-9.65015
-9.12384
-8.58155
-8.0615
-7.59468
-7.20509
-6.91063
-6.72423
-6.65479
-6.70762
-6.88428
-7.18175
-7.59122
-8.09682
-8.67461
-9.29237
-9.91027
-10.4825
-10.9598
-11.2924
-11.4323
-11.3365
-10.9679
-10.2981
-9.3085
-7.99438
-6.36851
-4.46621
-2.34959
-0.109822
2.13448
4.24394
6.0706
7.47503
8.3462
8.62137
8.30257
7.46658
6.26585
4.9194
3.69393
2.87728
2.74721
3.53978
5.4212
8.46723
12.6526
17.852
23.8525
30.3753
37.1052
43.722
49.9323
55.4956
60.2435
64.0887
67.0234
69.1087
70.4553
71.2001
71.4809
71.4139
71.0764
70.4965
69.6528
68.4812
66.8902
64.7791
62.0591
58.6723
54.6055
49.8986
44.6447
38.9831
33.086
27.1416
21.3344
15.8277
10.7485
6.1779
2.14722
-1.35964
-4.39854
-7.05329
-9.42171
-11.6012
-13.6762
-15.7085
-17.7317
-19.7508
-21.7448
-23.674
-25.4883
-27.1359
-28.5717
-29.7616
-30.6848
-31.3313
-31.6956
-31.7665
-31.5138
-30.8721
-29.7241
-27.8863
-25.1011
-21.0415
-15.3334
-7.59943
2.47294
15.0432
30.017
46.9481
64.9604
82.7145
98.436
110.02
115.214
111.867
98.2148
73.1724
36.5797
-10.6338
-66.4003
-127.599
-190.272
-249.959
-302.106
-342.513
-367.773
-375.639
-365.287
-337.437
-294.318
-239.474
-177.421
-113.215
-51.9507
1.73204
44.0913
72.6192
86.2386
85.3418
71.6708
48.0595
18.0729
-14.4111
-45.6269
-72.3043
-91.9701
-103.138
-105.377
-99.2522
-86.1678
-68.1249
-47.4387
-26.447
-7.24504
8.52515
19.8122
26.2111
27.938
25.7365
20.7318
14.2564
7.66986
2.19456
-1.21433
-1.95344
0.195266
5.0805
12.2398
20.9884
30.5238
40.0325
48.7845
56.2057
61.9224
65.7769
67.8166
68.2624
67.466
65.8613
63.9175
62.0978
60.8257
60.4579
61.2642
63.4122
66.954
71.8174
77.7985
84.5617
91.6459
98.4845
104.437
108.837
111.052
110.55
106.964
100.153
90.2336
77.5956
62.8816
46.9373
30.736
15.286
1.52947
-9.75107
-18.0111
-22.9948
-24.7537
-23.6306
-20.2118
-15.254
-9.59539
-4.062
0.619
3.88981
5.40849
5.06775
2.98575
-0.528015
-5.02577
-9.98569
-14.8789
-19.2313
-22.6733
-24.9726
-26.0491
-25.9695
-24.9269
-23.2068
-21.1462
-19.0902
-17.3508
-16.1739
-15.7153
-16.0286
-17.0656
-18.687
-20.6825
-22.7969
-24.7589
-26.3104
-27.2316
-27.3613
-26.6099
-24.9642
-22.4846
-19.2955
-15.5705
-11.5141
-7.34261
-3.26545
0.53035
3.89229
6.70995
8.9179
10.4944
11.4565
11.8525
11.7532
11.242
10.4056
9.3266
8.07664
6.71293
5.27643
3.79255
2.27389
0.724396
-0.855477
-2.46333
-4.08979
-5.71452
-7.30371
-8.80954
-10.1718
-11.3217
-12.1872
-12.6997
-12.8016
-12.4521
-11.6341
-10.3571
-8.66002
-6.61111
-4.30591
-1.86354
0.578979
2.87376
4.87056
6.42636
7.41602
7.74354
7.35365
6.24266
4.46734
2.14995
-0.522649
-3.30733
-5.92163
-8.0686
-9.46772
-9.88843
-9.18172
-7.30526
-4.33753
-0.478163
3.96651
8.61171
13.0328
16.8096
19.5703
21.0297
21.0173
19.4921
16.5436
12.3811
7.31216
1.71701
-3.98145
-9.34673
-13.9564
-17.4272
-19.4377
-19.7477
-18.2146
-14.8057
-9.60528
-2.81582
5.24883
14.1778
23.4857
32.6424
41.1076
48.3688
53.9788
57.5894
58.9797
58.0742
54.9508
49.8359
43.0877
35.1681
26.6054
17.9514
9.73647
2.4269
-3.61085
-8.1362
-11.0478
-12.3834
-12.3061
-11.0799
-9.03615
-6.53658
-3.93523
-1.54507
0.388367
1.70371
2.3299
2.28208
1.64864
0.571907
-0.774727
-2.20968
-3.56283
-4.68866
-5.47016
-5.81207
-5.62331
-4.79094
-3.14991
-0.455541
3.63284
9.54814
17.7834
28.8261
43.0595
60.6377
81.3499
104.498
128.815
152.448
173.037
187.885
194.219
189.515
171.848
140.213
94.7815
37.035
-30.2407
-103.117
-176.827
-246.191
-306.115
-352.096
-380.698
-389.915
-379.39
-350.461
-306.02
-250.21
-187.989
-124.623
-65.149
-13.8962
25.9053
52.3739
65.0683
64.9183
54.0119
35.2728
12.072
-12.1769
-34.3914
-52.1216
-63.7525
-68.5895
-66.8306
-59.4365
-47.9261
-34.1265
-19.9141
-6.97758
3.37069
10.3162
13.5893
13.4401
10.5513
5.90689
0.638064
-4.13142
-7.42145
-8.49778
-6.93158
-2.61421
4.26901
13.2973
23.8931
35.409
47.209
58.7365
69.5604
79.3976
88.1111
95.6893
102.209
107.796
112.576
116.646
120.045
122.746
124.659
125.654
125.584
124.325
121.81
118.054
113.174
107.393
101.027
94.4537
88.0717
82.2519
77.2868
73.3477
70.4553
68.4701
67.105
65.9592
64.5702
62.4776
59.2887
54.7368
48.7249
41.3465
32.8813
23.7664
14.5461
5.8081
-1.88598
-8.0662
-12.408
-14.7676
-15.1959
-13.9286
-11.3563
-7.97685
-4.33625
-0.965864
1.6779
3.26341
3.61756
2.7393
0.791285
-1.92897
-5.03468
-8.10583
-10.7482
-12.6475
-13.6106
-13.5896
-12.6847
-11.1253
-9.23335
-7.374
-5.89977
-5.09766
-5.14568
-6.08524
-7.81276
-10.0916
-12.5823
-14.8862
-16.5972
-17.3538
-16.885
-15.0447
-11.8299
-7.3832
-1.97759
4.01153
10.1446
15.961
21.0229
24.954
27.4718
28.4084
27.7208
25.4896
21.9072
17.2579
11.8907
6.18972
0.542689
-4.68882
-9.19517
-12.739
-15.1684
-16.4237
-16.5355
-15.6173
-13.8514
-11.4714
-8.74109
-5.93274
-3.30569
-1.08764
0.5407
1.45595
1.59718
0.965389
-0.381963
-2.3406
-4.77186
-7.51643
-10.4079
-13.2853
-16.0025
-18.4362
-20.4898
-22.0955
-23.2134
-23.8293
-23.9519
-23.6083
-22.8408
-21.7027
-20.255
-18.563
-16.6933
-14.7109
-12.676
-10.6418
-8.65169
-6.73818
-4.92182
-3.21161
-1.60635
-0.0968878
1.33098
2.69344
4.00574
5.28003
6.5242
7.74226
8.93633
10.1101
11.2736
12.4473
13.6658
14.9783
16.4457
18.1344
20.1057
22.4046
25.0468
28.0097
31.2256
34.5821
37.9278
41.0841
43.862
46.0803
47.585
48.2645
48.0606
46.9725
45.0528
42.3962
39.122
35.3533
31.1954
26.7176
21.9428
16.8458
11.3643
5.41994
-1.05248
-8.0713
-15.5767
-23.4076
-31.2916
-38.854
-45.6439
-51.178
-54.9957
-56.7184
-56.1041
-53.0894
-47.8121
-40.6098
-31.9959
-22.6128
-13.1718
-4.38438
3.10624
8.78542
12.3157
13.5702
12.6505
9.89
5.84302
1.2608
-2.9485
-5.77786
-6.20114
-3.27653
3.72842
15.1981
31.0314
50.5285
72.3269
94.4132
114.229
128.878
135.422
131.239
114.403
84.0291
40.5285
-14.2677
-77.1535
-143.77
-208.991
-267.433
-314.033
-344.621
-356.411
-348.347
-321.26
-277.794
-222.134
-159.541
-95.771
-36.446
13.5474
50.5555
72.4934
78.986
71.3024
52.105
25.0506
-5.69634
-35.9764
-62.1076
-81.2646
-91.7249
-92.9638
-85.5974
-71.1954
-51.9961
-30.5689
-9.46774
9.07839
23.4063
32.5661
36.3662
35.321
30.5161
23.4148
15.6381
8.7439
4.03687
2.42663
4.34921
9.75481
18.1577
28.7358
40.4636
52.258
63.1184
72.2428
79.1095
83.5148
85.5681
85.6478
84.3272
82.2828
80.198
78.675
78.1644
78.9202
80.9839
84.195
88.2248
92.6261
96.8916
100.511
103.022
104.05
103.337
100.751
96.2883
90.0641
82.2971
73.2878
63.3958
53.0152
42.5513
32.3971
22.9113
14.3984
7.09101
1.13729
-3.40762
-6.58287
-8.51632
-9.41173
-9.52957
-9.16292
-8.61089
-8.1519
-8.01988
-8.38573
-9.34592
-10.9196
-13.0541
-15.6379
-18.5192
-21.528
-24.4979
-27.2852
-29.7838
-31.9323
-33.715
-35.1556
-36.3056
-37.2302
-37.9925
-38.6409
-39.1986
-39.6595
-39.9884
-40.1263
-40
-39.5327
-38.656
-37.3197
-35.4999
-33.2028
-30.4655
-27.3532
-23.9526
-20.3651
-16.6968
-13.0502
-9.51582
-6.16675
-3.0553
-0.213801
2.34117
4.60132
6.55734
8.18936
9.4595
10.3084
10.657
10.4154
9.49601
7.83239
5.39806
2.22434
-1.58744
-5.86155
-10.3532
-14.764
-18.7658
-22.0316
-24.2683
-25.2484
-24.8362
-23.0042
-19.8392
-15.5361
-10.3794
-4.7179
1.06775
6.5983
11.5271
15.5659
18.5029
20.2122
20.6544
19.8698
17.9669
15.1072
11.4902
7.33843
2.88491
-1.63698
-6.00241
-10.0024
-13.4506
-16.19
-18.0988
-19.0972
-19.1514
-18.2773
-16.5406
-14.0543
-10.9725
-7.48109
-3.78455
-0.09184
3.39953
6.51839
9.13263
11.1582
12.563
13.3653
13.6267
13.4408
12.9195
12.1793
11.3302
10.4676
9.67106
9.00576
8.52846
8.29414
8.36155
8.79576
9.66623
11.0404
12.9731
15.4947
18.5979
22.2282
26.2782
30.5875
34.9491
39.1211
42.843
45.8531
47.906
48.788
48.3288
46.41
42.9716
38.0164
31.6153
23.912
15.128
5.56442
-4.40126
-14.3271
-23.7286
-32.1125
-39.0197
-44.0753
-47.0397
-47.8538
-46.6705
-43.8635
-40.0083
-35.832
-32.1344
-29.689
-29.1361
-30.8841
-35.0352
-41.349
-49.2515
-57.8924
-66.2426
-73.2207
-77.8277
-79.2697
-77.0497
-71.0116
-61.333
-48.4695
-33.066
-15.8534
2.44173
21.1573
39.7092
57.5576
74.1363
88.7661
100.582
108.498
111.245
107.461
95.8699
75.4837
45.8302
7.14786
-39.4791
-92.0789
-147.859
-203.389
-254.876
-298.521
-330.898
-349.326
-352.179
-339.091
-311.037
-270.267
-220.102
-164.622
-108.256
-55.357
-9.77618
25.4983
48.6039
58.942
57.178
45.1088
25.4144
1.32616
-23.7481
-46.5998
-64.5515
-75.7123
-79.1274
-74.8147
-63.687
-47.3779
-27.997
-7.84821
10.8537
26.2338
36.9491
42.3027
42.2729
37.4616
28.9734
18.2467
6.8612
-3.65334
-11.9841
-17.1604
-18.6256
-16.2547
-10.3185
-1.40814
9.66876
22.0022
34.6902
46.9314
58.0911
67.7377
75.6472
81.7823
86.253
89.267
91.0789
91.9453
92.0915
91.6902
90.8532
89.6326
88.0297
86.0072
83.5036
80.4465
76.7667
72.4097
67.347
61.5856
55.1759
48.2164
40.8548
33.2841
25.7339
18.4561
11.7065
5.72342
0.706622
-3.20274
-5.93761
-7.51449
-8.03559
-7.68279
-6.70399
-5.39247
-4.06137
-3.01552
-2.52358
-2.79342
-3.95337
-6.04165
-9.00502
-12.7069
-16.9438
-21.4682
-26.0152
-30.3289
-34.1866
-37.4174
-39.9134
-41.6327
-42.5948
-42.8694
-42.5604
-41.789
-40.6763
-39.3304
-37.8363
-36.253
-34.6139
-32.9329
-31.2117
-29.449
-27.6473
-25.8189
-23.9866
-22.1828
-20.4444
-18.8065
-17.2962
-15.9264
-14.6926
-13.5728
-12.5296
-11.5169
-10.4859
-9.3944
-8.21272
-6.92939
-5.55281
-4.10993
-2.64151
-1.1951
0.18325
1.4569
2.60463
3.62357
4.52834
5.34653
6.11109
6.85133
7.5841
8.30712
8.9964
9.60858
10.0886
10.382
10.4492
10.2807
9.90728
9.40536
8.89336
8.51962
8.44289
8.80824
9.72265
11.2345
13.3211
15.8878
18.7778
21.7939
24.7275
27.3902
29.6434
31.4201
32.7345
33.6767
34.3937
35.0588
35.8336
36.8313
38.0856
39.5328
41.0105
42.2727
43.022
42.9512
41.7898
39.3482
35.5514
30.4589
24.2659
17.2876
9.92804
2.63804
-4.13163
-9.97591
-14.5742
-17.718
-19.3244
-19.4352
-18.2029
-15.8659
-12.7177
-9.07346
-5.23915
-1.4863
1.96527
4.95548
7.38319
9.19826
10.3887
10.9658
10.95
10.36
9.20581
7.48791
5.20024
2.33754
-1.09549
-5.07487
-9.54963
-14.4372
-19.6229
-24.9637
-30.2962
-35.4475
-40.2486
-44.5476
-48.2221
-51.1889
-53.4107
-54.8985
-55.7097
-55.9438
-55.733
-55.233
-54.6106
-54.0316
-53.6489
-53.5902
-53.9474
-54.7669
-56.0423
-57.71
-59.6505
-61.6929
-63.6271
-65.2193
-66.2332
-66.451
-65.6954
-63.8461
-60.8503
-56.7222
-51.5314
-45.3774
-38.3554
-30.5159
-21.8288
-12.1628
-1.29138
11.0632
25.1449
41.0431
58.551
77.0299
95.3148
111.691
123.973
129.69
126.374
111.917
84.9421
45.1394
-6.50333
-67.6183
-134.555
-202.658
-266.703
-321.439
-362.165
-385.281
-388.711
-372.175
-337.237
-287.152
-226.51
-160.728
-95.4624
-36.008
13.2453
49.2269
70.434
76.9878
70.503
53.7951
30.4703
4.45395
-20.483
-41.1437
-55.2241
-61.5014
-59.8788
-51.2918
-37.4975
-20.7816
-3.6235
11.6359
23.0839
29.4507
30.2291
25.69
16.8001
5.05888
-7.72008
-19.6519
-29.0161
-34.4572
-35.1273
-30.7576
-21.6553
-8.63212
7.12293
24.206
41.1738
56.7099
69.7628
79.6408
86.0562
89.1179
89.2776
87.2394
83.8483
79.972
76.3908
73.7095
72.2986
72.2707
73.4906
75.6164
78.1617
80.5715
82.2999
82.8806
81.9819
79.4411
75.2767
69.6765
62.9673
55.5699
47.9452
40.5406
33.7403
27.8283
22.9651
19.1831
16.3966
14.4269
13.0366
11.9678
10.9796
9.87897
8.54213
6.92339
5.0518
3.01659
0.94444
-1.02765
-2.77939
-4.23004
-5.35385
-6.18574
-6.817
-7.38164
-8.03597
-8.93436
-10.2051
-11.9298
-14.129
-16.7569
-19.7045
-22.8123
-25.8889
-28.7347
-31.1654
-33.0346
-34.2495
-34.7802
-34.6599
-33.9769
-32.8586
-31.4518
-29.9005
-28.3252
-26.8076
-25.3811
-24.0307
-22.7001
-21.3058
-19.7559
-17.9698
-15.8953
-13.5225
-10.889
-8.079
-5.21419
-2.43929
0.0957483
2.25432
3.92955
5.05633
5.61752
5.6437
5.20683
4.40918
3.36917
2.20659
1.02898
-0.0787579
-1.06056
-1.89063
-2.57057
-3.1229
-3.5826
-3.98807
-4.37287
-4.75964
-5.15661
-5.55698
-5.94084
-6.27899
-6.53778
-6.68433
-6.69117
-6.54002
-6.22423
-5.74988
-5.13542
-4.41013
-3.61152
-2.78214
-1.96588
-1.20437
-0.533618
0.0187038
0.435167
0.709478
0.84634
0.860305
0.7738
0.614519
0.412507
0.197216
-0.00514261
-0.173717
-0.294402
-0.360421
-0.372094
-0.335882
-0.26289
-0.167026
-0.063057
0.0352037
0.116396
0.172656
0.200125
0.19894
0.172749
0.127908
0.0725644
0.0159362
-0.0318801
-0.0592253
-0.0511354
0.0133916
0.164708
0.445668
0.913666
1.64061
2.71013
4.21162
6.23137
8.84112
12.085
15.9657
20.4322
25.3691
30.5922
35.85
40.8348
45.2014
48.5962
50.69
51.2146
49.9952
46.9769
42.2385
35.9934
28.5746
20.4077
11.9731
3.76332
-3.76045
-10.2059
-15.2792
-18.8015
-20.7144
-21.0715
-20.022
-17.7869
-14.6329
-10.8468
-6.71379
-2.50046
1.55621
5.255
8.43278
10.9654
12.7693
13.8052
14.0859
13.6875
12.764
11.561
10.4282
9.8248
10.3135
12.5394
17.1871
24.9134
36.2533
51.5017
70.5838
92.929
117.375
142.132
164.825
182.645
192.59
191.795
177.91
149.467
106.205
49.2701
-18.7224
-93.8104
-170.977
-244.599
-308.992
-359.01
-390.598
-401.254
-390.316
-359.057
-310.552
-249.347
-180.972
-111.348
-46.1646
9.6866
52.5739
80.4203
92.8111
90.9084
77.1956
55.0929
28.4954
1.29667
-23.0476
-41.8671
-53.5013
-57.3858
-54.0007
-44.7001
-31.452
-16.5268
-2.17698
9.65443
17.5619
20.82
19.4299
14.0689
5.95873
-3.32727
-12.0891
-18.7269
-21.9414
-20.8841
-15.2422
-5.2512
8.36095
24.4869
41.7921
58.8851
74.4808
87.5397
97.3647
103.648
106.465
106.225
103.583
99.3344
94.2997
89.2276
84.7126
81.1466
78.7004
77.3376
76.8525
76.926
77.1888
77.2841
76.9207
75.9111
74.1906
71.8165
68.9493
65.8178
62.6749
59.7499
57.2052
55.104
53.3942
51.9131
50.4102
48.5874
46.1479
42.8469
38.5364
33.1954
26.9422
20.0251
12.795
5.66242
-0.953624
-6.67748
-11.2221
-14.4217
-16.2474
-16.8052
-16.3167
-15.0861
-13.4599
-11.7819
-10.3535
-9.39992
-9.04913
-9.32338
-10.144
-11.3478
-12.7113
-13.9806
-14.9015
-15.2471
-14.8401
-13.5691
-11.3972
-8.36539
-4.58952
-0.253615
4.40121
9.09123
13.5082
17.3405
20.2975
22.1338
22.6748
21.8363
19.6401
16.2188
11.8114
6.74644
1.41591
-3.75933
-8.36831
-12.0487
-14.5215
-15.6169
-15.2894
-13.6204
-10.8068
-7.13999
-2.97459
1.30664
5.32968
8.76323
11.3466
12.9094
13.3809
12.7892
11.2515
8.9558
6.13694
3.05069
-0.0527816
-2.95219
-5.47338
-7.50075
-8.98124
-9.92098
-10.3757
-10.4368
-10.2141
-9.82005
-9.35395
-8.89124
-8.47669
-8.12292
-7.8137
-7.51111
-7.16568
-6.72789
-6.16015
-5.44791
-4.60912
-3.701
-2.82312
-2.11568
-1.75212
-1.92537
-2.82806
-4.62777
-7.43976
-11.3006
-16.1466
-21.8015
-27.9753
-34.2788
-40.2497
-45.3923
-49.2241
-51.324
-51.378
-49.2148
-44.8276
-38.3783
-30.185
-20.6912
-10.4238
0.0580021
10.2157
19.5799
27.7899
34.6201
39.9899
43.958
46.7018
48.4844
49.6136
50.3979
51.1049
51.9264
52.9553
54.1753
55.4661
56.6221
57.3826
57.4692
56.6262
54.658
51.4596
47.036
41.5085
35.1067
28.1476
21.0055
14.0743
7.72872
2.28789
-2.01471
-5.05128
-6.8083
-7.3828
-6.96755
-5.82711
-4.26793
-2.60627
-1.13753
-0.110594
0.290413
-0.0448587
-1.1534
-3.00773
-5.53107
-8.61537
-12.1388
-15.979
-20.0201
-24.1526
-28.2668
-32.2424
-35.9377
-39.1814
-41.7683
-43.463
-44.0066
-43.1289
-40.5607
-36.0452
-29.3503
-20.2805
-8.69537
5.46234
22.1244
41.0399
61.7075
83.3068
104.646
124.148
139.89
149.714
151.415
142.986
122.899
90.3899
45.6884
-9.82964
-73.6167
-142.065
-210.757
-274.839
-329.479
-370.351
-394.103
-398.733
-383.834
-350.67
-302.075
-242.171
-175.953
-108.786
-45.8602
8.30934
50.2991
78.0574
91.0228
90.0746
77.3312
55.8278
29.1192
0.857537
-25.6027
-47.5302
-63.0416
-71.207
-72.0373
-66.3646
-55.6423
-41.6945
-26.4525
-11.7078
1.08789
10.9584
17.4649
20.694
21.1815
19.7882
17.548
15.5104
14.5968
15.4881
18.5545
23.8315
31.0428
39.6605
48.994
58.2927
66.8483
74.0847
79.6244
83.3255
85.2869
85.823
85.4142
84.6388
84.0969
84.3335
85.7711
88.6561
93.0278
98.7092
105.323
112.332
119.088
124.907
129.134
131.209
130.727
127.47
121.433
112.813
101.992
89.4978
75.9518
62.0168
48.341
35.5097
24.0044
14.175
6.22468
0.207383
-3.96159
-6.48523
-7.65626
-7.82382
-7.35827
-6.61765
-5.91843
-5.51308
-5.57609
-6.19881
-7.39294
-9.10125
-11.2136
-13.586
-16.0597
-18.4797
-20.7084
-22.6364
-24.1877
-25.3208
-26.0259
-26.3197
-26.2389
-25.8332
-25.1585
-24.2713
-23.2249
-22.0658
-20.8321
-19.5527
-18.2464
-16.923
-15.5834
-14.2217
-12.8263
-11.3828
-9.87573
-8.29155
-6.62012
-4.85617
-3.00008
-1.05831
0.956138
3.02294
5.1131
7.18725
9.19399
11.0691
12.7364
14.1115
15.1081
15.6476
15.6709
15.1498
14.0971
12.5735
10.6875
8.59021
6.46292
4.49967
2.8865
1.78011
1.28872
1.45789
2.26306
3.61012
5.34395
7.2638
9.14388
10.7564
11.8945
12.3929
12.1426
11.1011
9.29366
6.80944
3.79049
0.416936
-3.11076
-6.59026
-9.83474
-12.6875
-15.0331
-16.803
-17.9779
-18.5844
-18.688
-18.3834
-17.7827
-17.0026
-16.1527
-15.3244
-14.5826
-13.9609
-13.4598
-13.0483
-12.6695
-12.2484
-11.701
-10.9451
-9.90998
-8.54502
-6.8259
-4.75791
-2.37581
0.259596
3.06782
5.95733
8.83533
11.6176
14.2374
16.6517
18.8449
20.8296
22.6428
24.3407
25.9908
27.6633
29.4228
31.3213
33.3936
35.6544
38.0972
40.6945
43.3967
46.1312
48.7999
51.2768
53.4062
55.0049
55.8671
55.7763
54.5215
51.9185
47.8323
42.1998
35.0478
26.5031
16.7951
6.2465
-4.74461
-15.7308
-26.2468
-35.8431
-44.1182
-50.7474
-55.5049
-58.2781
-59.0721
-58.0062
-55.3005
-51.2563
-46.2296
-40.6022
-34.7513
-29.0219
-23.7022
-19.0068
-15.0667
-11.9281
-9.55762
-7.85439
-6.66273
-5.78467
-4.98778
-4.00772
-2.54691
-0.274533
3.16487
8.12562
14.9115
23.7009
34.4527
46.8059
59.9957
72.8095
83.6072
90.4206
91.1338
83.7348
66.6081
38.8312
0.428373
-47.4625
-102.548
-161.484
-220.129
-273.926
-318.372
-349.522
-364.444
-361.594
-341.025
-304.42
-254.932
-196.851
-135.144
-74.918
-20.8855
23.1167
54.4854
72.0553
76.1298
68.3434
51.3822
28.6043
3.61194
-20.1716
-39.8688
-53.4215
-59.7451
-58.7551
-51.2747
-38.8442
-23.4638
-7.30636
7.56364
19.4325
27.116
30.0595
28.3544
22.6774
14.1643
4.24042
-5.56932
-13.8276
-19.3463
-21.3065
-19.3253
-13.4672
-4.20237
7.67867
21.1792
35.2244
48.7871
60.9954
71.2134
79.0856
84.5455
87.789
89.22
89.3776
88.8543
88.2163
87.9358
88.3405
89.587
91.6565
94.3731
97.4402
100.488
103.124
104.988
105.79
105.343
103.578
100.542
96.3803
91.3126
85.5949
79.4834
73.2018
66.9172
60.7276
54.6633
48.6999
42.7794
36.8362
30.8216
24.7231
18.5755
12.4618
6.50505
0.852413
-4.3447
-8.95188
-12.8703
-16.0502
-18.4971
-20.2708
-21.4774
-22.2556
-22.7592
-23.1397
-23.5293
-24.0273
-24.6928
-25.5416
-26.5495
-27.6609
-28.8005
-29.8871
-30.8471
-31.6262
-32.1972
-32.5632
-32.7548
-32.8229
-32.8268
-32.8214
-32.8439
-32.9036
-32.9762
-33.0046
-32.9044
-32.576
-31.919
-30.8478
-29.3065
-27.2789
-24.7942
-21.9263
-18.7866
-15.5129
-12.2547
-9.15722
-6.34707
-3.92056
-1.93592
-0.410344
0.678645
1.38783
1.79995
2.0133
2.13016
2.24511
2.43413
2.74554
3.19365
3.75605
4.37502
4.96337
5.41436
5.61515
5.46222
4.8774
3.82198
2.30716
0.398746
-1.78503
-4.08284
-6.30602
-8.25892
-9.76124
-10.6695
-10.8946
-10.4129
-9.26976
-7.57464
-5.4884
-3.20499
-0.929626
1.14374
2.85273
4.08234
4.77448
4.93039
4.60613
3.90208
2.94817
1.88714
0.857881
-0.0188353
-0.650821
-0.980294
-0.985096
-0.676134
-0.0923552
0.70532
1.63995
2.62388
3.56359
4.36479
4.9387
5.21021
5.12788
4.67483
3.87903
2.82054
1.63359
0.501607
-0.355507
-0.701485
-0.309221
1.01123
3.38594
6.85549
11.3618
16.7458
22.7566
29.0719
35.326
41.1446
46.1785
50.1349
52.8008
54.0564
53.876
52.3198
49.516
45.6395
40.889
35.4689
29.5767
23.3974
17.1062
10.8737
4.87476
-0.707132
-5.67945
-9.84838
-13.0337
-15.0896
-15.9274
-15.5368
-14.0003
-11.4982
-8.30077
-4.74848
-1.22203
1.89514
4.25643
5.58902
5.72335
4.61156
2.3329
-0.914252
-4.83172
-9.0488
-13.1529
-16.7186
-19.3311
-20.6012
-20.172
-17.7188
-12.9467
-5.59271
4.56207
17.6639
33.7384
52.6232
73.8886
96.7573
120.041
142.116
160.954
174.226
179.489
174.434
157.186
126.624
82.656
26.4236
-39.6198
-111.785
-185.389
-255.144
-315.664
-362.029
-390.329
-398.124
-384.757
-351.464
-301.278
-238.722
-169.338
-99.0986
-33.7839
21.6056
63.3325
89.2461
98.913
93.55
75.7757
49.2208
18.0512
-13.5331
-41.7638
-63.6807
-77.383
-82.1342
-78.3224
-67.2921
-51.08
-32.0951
-12.7869
4.65709
18.5517
27.8678
32.2916
32.1887
28.4892
22.5138
15.7674
9.72991
5.6691
4.49639
6.68044
12.2234
20.6971
31.3305
43.131
55.0243
65.9913
75.1873
82.0299
86.2469
87.883
87.2683
84.9545
81.6308
78.0307
74.8404
72.6199
71.7449
72.373
74.4373
77.6654
81.6202
85.7559
89.4821
92.229
93.5051
92.9438
90.334
85.6339
78.9688
70.6135
60.9639
50.5
39.7446
29.2207
19.4121
10.7287
3.47993
-2.14275
-6.07302
-8.36694
-9.19104
-8.80282
-7.5256
-5.71971
-3.75229
-1.96781
-0.661376
-0.0569014
-0.291884
-1.41019
-3.36363
-6.02222
-9.19227
-12.6404
-16.1205
-19.4019
-22.2929
-24.6607
-26.4418
-27.6452
-28.3462
-28.6732
-28.7895
-28.8715
-29.0881
-29.5807
-30.4488
-31.7391
-33.4419
-35.4914
-37.7732
-40.1345
-42.3983
-44.3794
-45.9002
-46.8058
-46.9763
-46.336
-44.8575
-42.5623
-39.5174
-35.8268
-31.6223
-27.0509
-22.2638
-17.4049
-12.6034
-7.96935
-3.59363
0.447923
4.08716
7.2548
9.87256
11.8486
13.0783
13.4521
12.8699
11.2611
8.60764
4.96573
0.48282
-4.59532
-9.93008
-15.1097
-19.6824
-23.1997
-25.2649
-25.5809
-23.989
-20.4953
-15.2784
-8.67832
-1.16628
6.70025
14.3322
21.1667
26.7207
30.6345
32.701
32.8768
31.2757
28.1459
23.8343
18.7436
13.286
7.84123
2.721
-1.85437
-5.76667
-8.99697
-11.6108
-13.7342
-15.524
-17.1374
-18.7041
-20.305
-21.9591
-23.6208
-25.186
-26.5063
-27.409
-27.72
-27.2866
-25.9975
-23.7993
-20.705
-16.7969
-12.2214
-7.17819
-1.9031
3.35167
8.33951
12.8405
16.6795
19.7405
21.974
23.3988
24.0971
24.2035
23.8908
23.3521
22.7826
22.3629
22.2444
22.5374
23.3028
24.5468
26.2173
28.2037
30.3391
32.407
34.1527
35.3013
35.5815
34.7532
32.6386
29.1497
24.3108
18.2697
11.2966
3.76677
-3.86981
-11.1304
-17.5472
-22.7157
-26.3369
-28.2477
-28.4365
-27.0415
-24.3325
-20.6784
-16.5059
-12.2526
-8.32261
-5.04697
-2.65533
-1.25961
-0.851424
-1.31175
-2.43042
-3.93118
-5.49725
-6.79229
-7.47248
-7.18772
-5.57363
-2.23951
3.23815
11.3052
22.3908
36.8332
54.7687
75.9971
99.8429
125.043
149.7
171.319
186.971
193.556
188.175
168.54
133.398
82.8639
18.639
-55.968
-136.221
-216.341
-290.06
-351.277
-394.736
-416.638
-415.101
-390.405
-344.99
-283.2
-210.81
-134.394
-60.6123
4.48946
56.087
91.0213
108.033
107.771
92.5834
66.1315
32.8859
-2.43489
-35.4071
-62.3652
-80.7391
-89.234
-87.8467
-77.7296
-60.9342
-40.0725
-17.9477
2.80153
20.0005
32.1522
38.5479
39.2715
35.1072
27.373
17.7051
7.82697
-0.66978
-6.50568
-8.83762
-7.31745
-2.08427
6.30169
16.9698
28.8761
40.9478
52.2154
61.9197
69.5803
75.0227
78.364
79.963
80.3429
80.101
79.8149
79.9597
80.8445
82.5748
85.0449
87.9593
90.8783
93.2815
94.6397
94.4862
92.4772
88.4363
82.376
74.4962
65.1614
54.8596
44.1499
33.6055
23.7583
15.0524
7.80962
2.2105
-1.70877
-4.04467
-5.00267
-4.86526
-3.95599
-2.60403
-1.11327
0.260742
1.32372
1.94484
2.04917
1.60304
0.595884
-0.977055
-3.12737
-5.87863
-9.26278
-13.3084
-18.0235
-23.3758
-29.276
-35.5675
-42.0254
-48.367
-54.2724
-59.4131
-63.4859
-66.2443
-67.5274
-67.2774
-65.5476
-62.4974
-58.3753
-53.4942
-48.1994
-42.8359
-37.7174
-33.0999
-29.164
-26.0051
-23.6339
-21.9838
-20.9269
-20.2935
-19.8943
-19.5431
-19.0764
-18.3696
-17.3478
-15.9903
-14.3286
-12.4398
-10.4347
-8.44241
-6.59473
-5.00994
-3.77931
-2.95695
-2.55434
-2.53982
-2.8431
-3.36399
-3.98424
-4.58109
-5.04068
-5.26984
-5.20484
-4.81595
-4.10749
-3.1132
-1.88798
-0.49724
0.993878
2.52924
4.06642
5.57606
7.0359
8.42071
9.69072
10.7819
11.6016
12.0315
11.9403
11.2032
9.72763
7.4779
4.49663
0.916107
-3.04275
-7.08525
-10.8705
-14.0485
-16.3006
-17.3799
-17.1425
-15.5674
-12.7623
-8.95223
-4.45536
0.352008
5.07645
9.34881
12.8611
15.3948
16.8378
17.1885
16.5471
15.097
13.0767
10.7476
8.36101
6.12817
4.19755
2.64245
1.46073
0.587142
-0.0828749
-0.661356
-1.23261
-1.82085
-2.36715
-2.72113
-2.65108
-1.87276
-0.0937878
2.93255
7.35292
13.1682
20.2049
28.1101
36.372
44.3641
51.4087
56.8503
60.1286
60.8434
58.8001
54.0331
46.8026
37.5684
26.9435
15.6352
4.38088
-6.11393
-15.2301
-22.4773
-27.5218
-30.2008
-30.5213
-28.6484
-24.8823
-19.6292
-13.3666
-6.60696
0.13876
6.39473
11.7498
15.881
18.5699
19.7111
19.3123
17.4869
14.4387
10.4423
5.81861
0.910635
-3.93899
-8.40478
-12.1866
-15.0072
-16.6005
-16.6913
-14.9758
-11.1079
-4.70299
4.63302
17.2438
33.3317
52.8419
75.3375
99.8866
124.989
148.573
168.075
180.636
183.375
173.754
149.96
111.271
58.3297
-6.71869
-80.2637
-157.463
-232.651
-299.887
-353.573
-389.073
-403.242
-394.813
-364.564
-315.263
-251.388
-178.65
-103.387
-31.8951
30.2088
78.5386
110.324
124.603
122.198
105.505
78.1135
44.3248
8.62957
-24.7966
-52.5164
-72.1326
-82.4442
-83.4486
-76.2065
-62.5965
-44.9993
-25.9563
-7.8457
7.38717
18.4175
24.6331
26.1287
23.6138
18.2541
11.4727
4.74022
-0.619604
-3.58479
-3.53629
-0.297209
5.88848
14.429
24.495
35.1487
45.4728
54.6827
62.2076
67.7336
71.208
72.8072
72.8802
71.8768
70.2749
68.5163
66.9607
65.8597
65.3524
65.4763
66.1902
67.3998
68.981
70.7967
72.7059
74.5641
76.2203
77.5105
78.2557
78.2635
77.338
75.2968
71.9936
67.3439
61.3478
54.1076
45.835
36.8445
27.5347
18.3564
9.77248
2.21375
-3.96395
-8.51545
-11.3306
-12.4444
-12.0314
-10.3852
-7.88692
-4.96423
-2.04831
0.467976
2.26541
3.12393
2.9361
1.70795
-0.451974
-3.35323
-6.75057
-10.3742
-13.9591
-17.2712
-20.1272
-22.4066
-24.0562
-25.0867
-25.5635
-25.5928
-25.3058
-24.8422
-24.3356
-23.9022
-23.6325
-23.5875
-23.7984
-24.27
-24.9852
-25.9122
-27.0112
-28.242
-29.5694
-30.9692
-32.4305
-33.9571
-35.5651
-37.2767
-39.1119
-41.0762
-43.1482
-45.2679
-47.3291
-49.178
-50.6198
-51.4346
-51.4005
-50.322
-48.0596
-44.5565
-39.8573
-34.1155
-27.5884
-20.6176
-13.5992
-6.94528
-1.04252
3.78714
7.31867
9.44516
10.1855
9.6779
8.16101
5.94461
3.37496
0.798597
-1.47091
-3.17993
-4.15321
-4.30309
-3.62977
-2.21394
-0.203751
2.20188
4.77186
7.26169
9.43176
11.0645
11.9803
12.0526
11.221
9.50146
6.99293
3.87714
0.410624
-3.09253
-6.28659
-8.8271
-10.4071
-10.7922
-9.8493
-7.56462
-4.0481
0.477342
5.70034
11.2565
16.7698
21.8952
26.3561
29.9732
32.6811
34.5313
35.6822
36.3775
36.916
37.6165
38.7814
40.663
43.4357
47.1765
51.8554
57.336
63.3856
69.6934
75.8936
81.5916
86.3907
89.9174
91.8443
91.9097
89.9349
85.837
79.6381
71.4706
61.577
50.3044
38.0928
25.4567
12.9597
1.18387
-9.30775
-18.0101
-24.5158
-28.5514
-30.006
-28.9494
-25.6357
-20.492
-14.0911
-7.1084
-0.268003
5.72047
10.2268
12.7611
13.0243
10.9413
6.67235
0.601511
-6.69922
-14.5246
-22.1042
-28.6752
-33.5504
-36.1734
-36.1536
-33.2794
-27.5094
-18.9499
-7.82551
5.54307
20.7466
37.2711
54.4602
71.4611
87.1744
100.225
108.983
111.643
106.385
91.593
66.1184
29.5508
-17.5523
-73.5214
-135.557
-199.858
-261.912
-316.899
-360.203
-387.927
-397.374
-387.408
-358.64
-313.418
-255.607
-190.182
-122.7
-58.6998
-3.11931
40.2034
68.8843
82.1657
80.8932
67.3107
44.7075
16.9707
-11.8986
-38.2435
-59.1314
-72.6165
-77.8623
-75.1219
-65.5898
-51.1556
-34.0972
-16.7578
-1.24706
10.799
18.3753
21.1708
19.5394
14.3899
7.01822
-1.09296
-8.47848
-13.8734
-16.3533
-15.4195
-11.0227
-3.52975
6.35914
17.7254
29.564
40.9128
50.9649
59.1502
65.1805
69.0551
71.0299
71.5587
71.2155
70.6102
70.3078
70.762
72.2677
74.9376
78.7019
83.3291
88.4632
93.6712
98.4945
102.499
105.317
106.682
106.442
104.57
101.157
96.3854
90.5114
83.827
76.6288
69.1867
61.7184
54.3702
47.2078
40.2159
33.3083
26.3455
19.1601
11.5856
3.48511
-5.22192
-14.541
-24.3925
-34.6127
-44.9653
-55.1633
-64.8959
-73.8595
-81.7866
-88.469
-93.7738
-97.6492
-100.121
-101.282
-101.271
-100.261
-98.43
-95.9527
-92.9848
-89.6584
-86.0807
-82.3366
-78.495
-74.6142
-70.7483
-66.9501
-63.2732
-59.7706
-56.4912
-53.4759
-50.7525
-48.3318
-46.2052
-44.344
-42.7017
-41.217
-39.8202
-38.4383
-37.0017
-35.4495
-33.7335
-31.8209
-29.6953
-27.3566
-24.8205
-22.1166
-19.2873
-16.3858
-13.4739
-10.6192
-7.89081
-5.35472
-3.06765
-1.07114
0.614011
1.99157
3.09135
3.96752
4.69377
5.35549
6.03963
6.82348
7.76347
8.88541
10.1777
11.588
13.0254
14.3658
15.4631
16.1633
16.3208
15.8155
14.569
12.5581
9.82274
6.4698
2.66857
-1.35961
-5.35818
-9.05689
-12.196
-14.5504
-15.952
-16.306
-15.602
-13.9155
-11.4022
-8.28379
-4.82803
-1.3242
1.94279
4.71728
6.7941
8.03422
8.3733
7.8228
6.46402
4.43609
1.92017
-0.878154
-3.74591
-6.47697
-8.88217
-10.7944
-12.0687
-12.5789
-12.2124
-10.8653
-8.44193
-4.8594
-0.0591788
5.97452
13.1924
21.4572
30.5261
40.0425
49.5427
58.4793
66.2606
72.3035
76.0935
77.2437
75.5455
71.0023
63.8416
54.5019
43.5957
31.8529
20.0501
8.93644
-0.837596
-8.77768
-14.5844
-18.1688
-19.6444
-19.2972
-17.5392
-14.8516
-11.7252
-8.60542
-5.84815
-3.69064
-2.23996
-1.47854
-1.28458
-1.46313
-1.78285
-2.01312
-1.95652
-1.47301
-0.493362
0.9789
2.87663
5.08763
7.48048
9.93498
12.3741
14.7938
17.2867
20.054
23.4015
27.7135
33.4021
40.8305
50.2145
61.5114
74.3143
87.7711
100.554
110.9
116.737
115.888
106.355
86.6241
55.9724
14.7094
-35.6865
-92.5738
-152.311
-210.57
-262.762
-304.538
-332.276
-343.519
-337.272
-314.139
-276.271
-227.13
-171.108
-113.036
-57.6683
-9.18031
29.2332
55.6354
69.4615
71.4698
63.5441
48.3821
29.1149
8.9079
-9.40629
-23.6227
-32.3568
-35.1203
-32.2808
-24.9201
-14.6168
-3.186
7.58718
16.1868
21.5494
23.1721
21.138
16.0613
8.96605
1.11865
-6.15996
-11.6768
-14.5206
-14.1686
-10.5366
-3.96914
4.8238
14.8725
25.0783
34.3527
41.746
46.552
48.3784
47.1773
43.2351
37.1273
29.6441
21.6976
14.2209
8.06956
3.93602
2.28318
3.30382
6.90828
12.7406
20.2206
28.6069
37.0738
44.7948
51.0229
55.161
56.8153
55.8267
52.2785
46.4791
38.9237
30.2385
21.1145
12.2365
4.21641
-2.46343
-7.49136
-10.7478
-12.3058
-12.411
-11.445
-9.87571
-8.20207
-6.89843
-6.36564
-6.89343
-8.63768
-11.6143
-15.709
-20.701
-26.2968
-32.1692
-37.9969
-43.4996
-48.4647
-52.7623
-56.3488
-59.2578
-61.581
-63.443
-64.9726
-66.2765
-67.417
-68.3985
-69.1643
-69.6024
-69.5615
-68.8729
-67.3775
-64.9516
-61.5301
-57.1231
-51.8236
-45.8051
-39.3094
-32.6264
-26.0669
-19.9332
-14.4908
-9.94312
-6.41389
-3.93864
-2.46541
-1.86508
-1.94945
-2.49462
-3.26681
-4.04743
-4.65456
-4.95858
-4.89062
-4.44323
-3.664
-2.64332
-1.49829
-0.355118
0.667908
1.47468
2.00141
2.22182
2.14708
1.8212
1.31273
0.704268
0.0811874
-0.478862
-0.914487
-1.18626
-1.27918
-1.20187
-0.982974
-0.665494
-0.29992
0.0628181
0.377712
0.610624
0.741369
0.764746
0.689628
0.536448
0.333574
0.113141
-0.0931242
-0.25762
-0.359782
-0.387964
-0.340188
-0.223783
-0.0540493
0.147858
0.357521
0.550047
0.702738
0.797409
0.822136
0.772321
0.650995
0.468376
0.24074
-0.0111955
-0.264043
-0.493119
-0.672684
-0.774346
-0.763232
-0.5922
-0.195228
0.51809
1.66462
3.38423
5.82942
9.14822
13.4616
18.8386
25.2718
32.6588
40.7901
49.3495
57.9249
66.0317
73.1467
78.7499
82.37
83.6306
82.29
78.2725
71.685
62.8175
52.1262
40.2002
27.7152
15.3777
3.86642
-6.2231
-14.4257
-20.4395
-24.1427
-25.5917
-25.0031
-22.7212
-19.1759
-14.8378
-10.173
-5.60474
-1.48517
1.92295
4.45241
6.0285
6.65905
6.42076
5.44463
3.90258
1.9963
-0.0514254
-2.0032
-3.6116
-4.62211
-4.77483
-3.80576
-1.44925
2.55582
8.45284
16.444
26.6537
39.0785
53.5252
69.544
86.3687
102.878
117.594
128.742
134.363
132.503
121.44
99.9438
67.5193
24.602
-27.3364
-85.7966
-147.388
-208.085
-263.584
-309.715
-342.864
-360.362
-360.78
-344.095
-311.72
-266.371
-211.802
-152.431
-92.9028
-37.6416
9.56263
45.8807
69.6567
80.4869
79.165
67.5066
48.0846
23.9069
-1.91961
-26.5052
-47.4383
-62.9717
-72.119
-74.6629
-71.0813
-62.4093
-50.0584
-35.617
-20.6562
-6.5613
5.59453
15.1259
21.7571
25.5937
27.0543
26.7744
25.497
23.9654
22.8303
22.5808
23.5044
25.678
28.9861
33.1612
37.8377
42.6122
47.1008
50.9866
54.054
56.2056
57.4627
57.9513
57.8767
57.4915
57.0615
56.8334
57.0075
57.7183
59.0232
60.8994
63.249
65.9088
68.6646
71.2663
73.4447
74.9275
75.4564
74.8046
72.7953
69.3208
64.3593
57.9878
50.3882
41.8441
32.7264
23.4684
14.5323
6.36841
-0.624788
-6.13914
-9.98619
-12.1154
-12.6186
-11.7205
-9.75537
-7.13458
-4.30593
-1.71117
0.255071
1.28025
1.15973
-0.189173
-2.72557
-6.29555
-10.6527
-15.4856
-20.4493
-25.1958
-29.4015
-32.7894
-35.1435
-36.3177
-36.2373
-34.8985
-32.3639
-28.7582
-24.2628
-19.1099
-13.5755
-7.96849
-2.61719
2.14884
6.02007
8.73033
10.0798
9.9549
8.34294
5.3385
1.14086
-3.95835
-9.59627
-15.367
-20.8541
-25.6641
-29.4575
-31.9753
-33.0562
-32.6455
-30.7936
-27.6449
-23.4198
-18.3917
-12.8619
-7.1365
-1.50564
3.77124
8.47552
12.4341
15.5201
17.6509
18.7845
18.9153
18.0702
16.3053
13.703
10.3688
6.42926
2.02843
-2.67589
-7.51658
-12.3223
-16.9229
-21.1559
-24.8716
-27.9397
-30.2547
-31.7412
-32.3584
-32.1038
-31.0156
-29.1729
-26.6935
-23.7291
-20.4568
-17.0677
-13.7537
-10.6922
-8.03142
-5.87705
-4.2825
-3.24377
-2.69997
-2.53978
-2.61342
-2.74888
-2.77068
-2.5189
-1.86619
-0.730627
0.917239
3.0539
5.6091
8.47776
11.536
14.6586
17.7365
20.6899
23.4776
26.0984
28.5874
31.0048
33.4214
35.9013
38.4856
41.1785
43.9401
46.6846
49.2862
51.5917
53.4372
54.6677
55.1553
54.8151
53.6151
51.58
48.7868
45.3557
41.4354
37.1868
32.7664
28.3125
23.9355
19.7125
15.6873
11.874
8.26334
4.83117
1.54627
-1.62205
-4.69792
-7.69474
-10.6127
-13.4386
-16.1465
-18.701
-21.0606
-23.1822
-25.026
-26.5598
-27.7625
-28.626
-29.1561
-29.37
-29.2927
-28.9484
-28.3493
-27.4792
-26.2728
-24.594
-22.2149
-18.8052
-13.936
-7.10893
2.18563
14.3782
29.7031
48.0663
68.9198
91.1674
113.131
132.599
146.976
153.518
149.649
133.317
103.335
59.6734
3.63396
-62.114
-133.664
-206.165
-274.25
-332.558
-376.291
-401.727
-406.647
-390.598
-354.966
-302.857
-238.781
-168.19
-96.9178
-30.5937
25.9093
68.923
96.2865
107.472
103.526
86.8501
60.8441
29.4686
-3.21898
-33.502
-58.3651
-75.7445
-84.647
-85.1367
-78.2025
-65.5345
-49.2435
-31.5623
-14.5672
0.0513198
11.1454
18.1844
21.2452
20.9312
18.234
14.3631
10.5659
7.96197
7.40927
9.4168
14.109
21.2416
30.2623
40.4044
50.7995
60.5928
69.0478
75.6276
80.0459
82.2827
82.5653
81.3209
79.1053
76.5211
74.1334
72.3966
71.5987
71.8326
72.9944
74.8102
76.8863
78.7735
80.0379
80.327
79.4203
77.2589
73.9477
69.7316
64.9505
59.979
55.1643
50.7702
46.9388
43.6746
40.8537
38.2542
35.604
32.6341
29.1299
24.9711
20.1531
14.7878
9.08396
3.31204
-2.24095
-7.31728
-11.7281
-15.38
-18.2852
-20.5534
-22.3687
-23.9548
-25.5348
-27.2924
-29.3408
-31.703
-34.3069
-36.9947
-39.546
-41.7102
-43.2437
-43.9471
-43.698
-42.4738
-40.3633
-37.5641
-34.3668
-31.1279
-28.2337
-26.0604
-24.9341
-25.0958
-26.6754
-29.676
-33.9725
-39.3219
-45.3852
-51.7576
-58.0046
-63.6978
-68.4498
-71.9415
-73.9428
-74.3228
-73.0514
-70.1936
-65.8964
-60.3736
-53.8873
-46.7304
-39.2088
-31.6259
-24.2686
-17.3945
-11.2213
-5.91832
-1.59942
1.68029
3.92529
5.1966
5.60516
5.30177
4.46425
3.28281
1.94495
0.621173
-0.546914
-1.45513
-2.0408
-2.28227
-2.19381
-1.81714
-1.21078
-0.43893
0.438395
1.37269
2.33104
3.29661
4.26598
5.2439
6.23637
7.24304
8.24998
9.22379
10.1083
10.8247
11.2759
11.3558
10.9622
10.0129
8.46191
6.3146
3.63716
0.560078
-2.72692
-5.98801
-8.9615
-11.3846
-13.0198
-13.6791
-13.243
-11.6718
-9.00822
-5.37084
-0.939902
4.06217
9.39277
14.8106
20.0941
25.0543
29.5418
33.4484
36.7027
39.264
41.1139
42.2503
42.6818
42.4264
41.5125
39.9814
37.8908
35.3179
32.3595
29.1305
25.7577
22.3722
19.099
16.0465
13.2969
10.8988
8.86308
7.16314
5.73797
4.49909
3.33993
2.14718
0.813335
-0.750049
-2.59945
-4.74779
-7.15571
-9.7275
-12.3136
-14.7208
-16.7312
-18.1291
-18.7317
-18.4222
-17.1764
-15.0778
-12.3142
-9.15278
-5.89003
-2.78345
0.0278658
2.59806
5.22719
8.47307
13.1073
20.0083
29.9948
43.6185
60.9454
81.3677
103.488
125.116
143.401
155.095
156.945
146.133
120.74
80.1287
25.2006
-41.5266
-116.05
-193.21
-267.182
-332.07
-382.539
-414.391
-425.026
-413.728
-381.735
-332.099
-269.342
-198.97
-126.885
-58.7781
0.422907
47.0025
78.7473
95.0558
96.8671
86.4262
66.9262
42.0754
15.6465
-8.94097
-28.9572
-42.5883
-49.0344
-48.4805
-41.9565
-31.1119
-17.9412
-4.49662
7.37773
16.2599
21.2925
22.2435
19.4846
13.8971
6.72197
-0.622502
-6.73279
-10.3967
-10.7347
-7.29205
-0.0726387
10.4838
23.5754
38.1497
53.0371
67.0885
79.2994
88.9088
95.4606
98.8252
99.1822
96.9688
92.8044
87.4022
81.4796
75.6783
70.5019
66.2779
63.1442
61.06
59.8374
59.1861
58.7652
58.235
57.301
55.7471
53.4536
50.4004
46.6569
42.362
37.6977
32.8623
28.046
23.4119
19.0852
15.1488
11.6463
8.58842
5.96305
3.74403
1.89874
0.392473
-0.810566
-1.74912
-2.46846
-3.02426
-3.48513
-3.93263
-4.45806
-5.15601
-6.11534
-7.40882
-9.08291
-11.1493
-13.5793
-16.3022
-19.2076
-22.1521
-24.9681
-27.4766
-29.4994
-30.8726
-31.4584
-31.1552
-29.9047
-27.6964
-24.5697
-20.6123
-15.9578
-10.7798
-5.28615
0.289749
5.69832
10.6851
15.0031
18.4269
20.7664
21.8809
21.6919
20.1931
17.4571
13.6373
8.96322
3.73026
-1.71783
-7.01163
-11.783
-15.6936
-18.4627
-19.8906
-19.8766
-18.4276
-15.6585
-11.7823
-7.09249
-1.93917
3.29923
8.24465
12.5465
15.905
18.0886
18.9454
18.4097
16.5017
13.3246
9.05721
3.94382
-1.71909
-7.59918
-13.3478
-18.622
-23.1079
-26.544
-28.7416
-29.6009
-29.12
-27.3949
-24.6119
-21.0303
-16.9592
-12.7294
-8.66427
-5.05273
-2.127
-0.0478463
1.10184
1.31477
0.649624
-0.783769
-2.84158
-5.36257
-8.1815
-11.138
-14.0807
-16.867
-19.3621
-21.4361
-22.965
-23.8319
-23.9319
-23.1768
-21.5011
-18.8653
-15.2599
-10.7056
-5.25504
1.00821
7.96921
15.4823
23.3725
31.438
39.4548
47.184
54.3815
60.809
66.2466
70.5053
73.438
74.9481
74.9948
73.5951
70.8215
66.7967
61.6853
55.6837
49.009
41.8874
34.5435
27.1909
20.0247
13.2168
6.91295
1.23376
-3.72353
-7.8812
-11.1774
-13.5637
-15.0051
-15.4836
-15.004
-13.6039
-11.3629
-8.4117
-4.93717
-1.18124
2.56783
5.99244
8.77026
10.6042
11.2547
10.5706
8.51468
5.18125
0.802989
-4.25258
-9.49755
-14.3478
-18.1558
-20.2521
-19.9939
-16.822
-10.325
-0.309218
13.1292
29.5373
48.0533
67.3836
85.8218
101.324
111.647
114.545
108.023
90.6039
61.5963
21.3054
-28.8436
-86.3037
-147.543
-208.318
-264.059
-310.322
-343.264
-360.07
-359.274
-340.949
-306.713
-259.572
-203.608
-143.544
-84.2558
-30.278
14.6372
47.8544
68.0517
75.2631
70.7701
56.8647
36.5197
13.0099
-10.4665
-31.125
-46.853
-56.3665
-59.2565
-55.9299
-47.4611
-35.3815
-21.4382
-7.35347
5.38473
15.6796
22.9153
26.9763
28.2007
27.2812
25.1316
22.7399
21.0271
20.7309
22.3251
25.9811
31.5736
38.7228
46.8661
55.3449
63.4964
70.7361
76.6235
80.9032
83.5198
84.6069
84.4545
83.46
82.0711
80.7272
79.8072
79.5882
80.2193
81.7118
83.945
86.6855
89.6161
92.3695
94.5632
95.8321
95.8571
94.3879
91.2612
86.4129
79.8861
71.8321
62.5066
52.2574
41.505
30.7157
20.3692
10.9223
2.77213
-3.77615
-8.53512
-11.45
-12.6018
-12.1973
-10.5485
-8.04288
-5.1084
-2.17726
0.348523
2.12602
2.89296
2.48041
0.816531
-2.07797
-6.10126
-11.0866
-16.8206
-23.0622
-29.5586
-36.0586
-42.3214
-48.1231
-53.2599
-57.5512
-60.8439
-63.0173
-63.99
-63.7277
-62.2492
-59.6315
-56.0091
-51.5694
-46.5421
-41.1838
-35.7595
-30.5229
-25.6973
-21.4604
-17.9339
-15.1786
-13.1963
-11.9363
-11.3066
-11.1867
-11.4412
-11.9324
-12.5301
-13.1196
-13.6052
-13.9127
-13.9886
-13.7992
-13.3288
-12.5785
-11.5647
-10.3184
-8.88417
-7.31854
-5.68756
-4.06328
-2.51915
-1.12467
0.0601243
0.989871
1.63788
1.99852
2.08756
1.94032
1.60788
1.15168
0.637258
0.127725
-0.322125
-0.670529
-0.891764
-0.977216
-0.934504
-0.784891
-0.559409
-0.294256
-0.0260458
0.212513
0.396036
0.508676
0.544958
0.509305
0.414406
0.278775
0.123861
-0.0288518
-0.160348
-0.255825
-0.305392
-0.303569
-0.247648
-0.135128
0.0392823
0.286502
0.625065
1.08167
1.68994
2.48733
3.51064
4.79066
6.347
8.1838
10.2872
12.6248
15.1478
17.7946
20.4964
23.1834
25.7911
28.2654
30.5664
32.6697
34.5652
36.2541
37.7438
39.0415
40.148
41.0524
41.7285
42.1338
42.2122
41.8989
41.128
39.842
38.0002
35.5863
32.6139
29.1285
25.2058
20.9477
16.4757
11.9234
7.42771
3.12173
-0.871674
-4.44478
-7.50838
-9.99396
-11.8549
-13.0674
-13.6303
-13.5655
-12.9172
-11.7512
-10.1536
-8.22979
-6.10237
-3.90983
-1.80417
0.0522088
1.49133
2.34685
2.46461
1.71677
0.0198718
-2.64393
-6.20359
-10.4761
-15.1472
-19.7602
-23.72
-26.3168
-26.7772
-24.3443
-18.3872
-8.53142
5.20202
22.2718
41.5313
61.2102
78.9871
92.1632
97.934
93.7357
77.6241
48.6335
7.0554
-45.4163
-105.711
-169.589
-232.03
-287.737
-331.721
-359.874
-369.453
-359.421
-330.581
-285.502
-228.235
-163.855
-97.906
-35.7926
17.7787
59.2613
59.2613
59.2613
59.2613
59.2613
59.2613
59.2613
59.2613
59.2613
59.2613
59.2613
59.2613
59.2613
59.2613
59.2613
59.2613
59.2613
59.2613
59.2613
59.2613
59.2613
59.2613
