453.684
470.578
490.513
513.04
537.383
562.453
586.9
609.206
627.789
641.135
647.916
647.104
638.044
620.508
594.692
561.187
520.913
475.031
424.848
371.713
316.933
261.701
207.046
153.81
102.641
54.0032
8.20183
-34.5949
-74.326
-111.013
-144.74
-175.631
-203.838
-229.527
-252.863
-273.995
-293.041
-310.077
-325.114
-338.096
-348.891
-357.291
-363.036
-365.833
-365.397
-361.499
-354.012
-342.96
-328.554
-311.209
-291.542
-270.342
-248.52
-227.039
-206.831
-188.714
-173.312
-161
-151.859
-145.673
-141.948
-139.962
-138.834
-137.619
-135.4
-131.387
-124.996
-115.91
-104.12
-89.917
-73.8723
-56.7713
-39.5344
-23.1208
-8.42996
3.78851
13.0067
18.9647
21.6856
21.461
18.8068
14.3989
8.9938
3.34766
-1.86051
-6.09046
-8.98249
-10.3757
-10.3029
-8.96363
-6.68237
-3.85573
-0.897595
1.81204
3.9686
5.37104
5.93471
5.68924
4.76371
3.3627
1.73732
0.155143
-1.12741
-1.8884
-1.95807
-1.23095
0.32732
2.67777
5.71008
9.24852
13.0618
16.8769
20.3967
23.3214
25.3715
26.3119
25.9751
24.2798
21.2443
16.9927
11.7512
5.83646
-0.366132
-6.43028
-11.9223
-16.4363
-19.6287
-21.2473
-21.154
-19.3373
-15.9141
-11.1207
-5.29315
1.16056
7.79409
14.1607
19.8533
24.5464
28.0412
30.3148
31.5746
32.314
33.3631
35.9218
41.5579
52.1525
69.7792
96.5094
134.152
183.949
246.259
320.28
403.863
493.456
584.223
670.333
745.436
803.251
838.224
846.171
824.812
774.132
696.501
596.537
480.718
356.775
232.958
117.23
16.5248
-63.8889
-120.832
-153.409
-162.942
-152.684
-127.332
-92.4326
-53.7301
-16.558
14.6766
36.8548
48.3297
48.9238
39.7611
22.9659
1.28052
-22.3474
-45.1533
-64.8764
-79.9805
-89.7584
-94.3189
-94.4705
-91.5278
-87.0723
-82.7032
-79.8118
-79.4054
-81.9985
-87.5792
-95.6466
-105.308
-115.416
-124.729
-132.065
-136.438
-137.16
-133.902
-126.705
-115.954
-102.323
-86.6862
-70.0247
-53.3304
-37.5183
-23.3545
-11.4066
-2.01652
4.70296
8.85063
10.7026
10.666
9.22675
6.89651
4.16394
1.45461
-0.897973
-2.66864
-3.74408
-4.11495
-3.85856
-3.11539
-2.06231
-0.886016
0.240699
1.17758
1.82906
2.14951
2.1418
1.85042
1.3508
0.736782
0.108698
-0.436367
-0.810602
-0.937461
-0.750159
-0.188066
0.807121
2.29354
4.32825
6.96277
10.2353
14.1616
18.7251
23.8709
29.5027
35.4856
41.6552
47.8309
53.8323
59.4976
64.6992
69.3565
73.4425
76.9846
80.0589
82.779
85.2812
87.7079
90.1916
92.8403
95.7274
98.8852
102.302
105.925
109.662
113.395
116.984
120.278
123.13
125.407
126.998
127.825
127.847
127.061
125.501
123.228
120.316
116.832
112.809
108.224
102.961
96.7944
89.3639
80.1732
68.5978
53.9135
35.3414
12.1084
-16.483
-50.9816
-91.7206
-138.763
-191.868
-250.479
-313.743
-380.541
-449.55
-519.31
-588.289
-654.959
-717.847
-775.592
-826.973
-870.939
-906.624
-933.354
-950.648
-958.216
-955.935
-943.82
-921.978
-890.544
-849.616
-799.187
-739.115
-669.112
-588.813
-497.896
-396.264
-284.278
-162.994
-34.3788
98.5612
231.755
360.196
478.228
579.975
659.874
713.259
736.916
729.53
691.967
627.325
540.747
439.004
329.887
221.483
121.415
36.1403
-29.6169
-73.2282
-94.2908
-94.5129
-77.3807
-47.6558
-10.7705
27.8034
63.1381
91.3228
109.78
117.401
114.502
102.622
84.1998
62.1769
39.589
19.1861
3.12907
-7.21024
-11.3319
-9.57591
-2.99079
6.87059
18.1963
29.1674
38.1856
44.051
46.0731
44.1091
38.5297
30.1267
19.9761
9.28056
-0.78897
-9.23294
-15.3281
-18.689
-19.2818
-17.3945
-13.571
-8.51976
-3.01267
2.21414
6.5447
9.54408
10.9901
10.8742
9.37357
6.79918
3.52746
-0.0749697
-3.72356
-7.27524
-10.7668
-14.4267
-18.6588
-23.9991
-31.0509
-40.408
-52.5739
-67.8894
-86.4778
-108.214
-132.722
-159.404
-187.487
-216.097
-244.333
-271.347
-296.409
-318.96
-338.639
-355.29
-368.951
-379.813
-388.183
-394.426
-398.917
-401.994
-403.924
-404.88
-404.935
-404.068
-402.188
-399.157
-394.827
-389.074
-381.822
-373.064
-362.873
-351.388
-338.804
-325.337
-311.196
-296.541
-281.459
-265.944
-249.891
-233.116
-215.382
-196.448
-176.125
-154.335
-131.152
-106.844
-81.8755
-56.8948
-32.6903
-10.1261
9.93872
26.7354
39.6666
48.3714
52.7669
53.0607
49.7314
43.482
35.1694
25.72
16.0419
6.94287
-0.935867
-7.16412
-11.541
-14.0871
-15.0133
-14.6721
-13.4978
-11.9444
-10.4294
-9.28791
-8.74275
-8.89227
-9.71449
-11.0855
-12.8075
-14.6428
-16.3466
-17.6978
-18.5217
-18.7054
-18.2026
-17.0316
-15.2639
-13.0086
-10.3919
-7.5347
-4.52844
-1.40784
1.88092
5.51985
9.86855
15.5227
23.3755
34.6687
51.0137
74.3554
106.856
150.678
207.671
278.977
364.611
463.08
571.127
683.676
794.029
894.341
976.327
1032.14
1055.29
1041.52
989.434
900.828
780.694
636.8
478.964
318.075
165.001
29.4981
-80.718
-160.661
-208.425
-225.189
-214.87
-183.512
-138.467
-87.503
-37.9367
4.11133
34.255
50.1316
51.4295
39.6728
17.8144
-10.2987
-40.5072
-68.8949
-92.2507
-108.391
-116.317
-116.203
-109.238
-97.3553
-82.8938
-68.2491
-55.5512
-46.4131
-41.7736
-41.8432
-46.1504
-53.6704
-63.0105
-72.6238
-81.0188
-86.9405
-89.5021
-88.258
-83.2133
-74.7783
-63.6794
-50.8413
-37.2613
-23.8888
-11.5276
-0.766624
8.05346
14.8402
19.7193
22.9833
25.0268
26.2794
27.1435
27.9449
28.8995
30.0998
31.5183
33.0269
34.4276
35.49
35.9892
35.7404
34.6263
32.6133
29.7569
26.1946
22.1304
17.8106
13.497
9.43902
5.84924
2.88462
0.635485
-0.877213
-1.69647
-1.91723
-1.66971
-1.10065
-0.354932
0.440124
1.18625
1.82044
2.31577
2.67743
2.93502
3.13266
3.31846
3.53484
3.81092
4.1577
4.56634
5.00954
5.44549
5.82369
6.09192
6.20311
6.1216
5.82762
5.31969
4.61453
3.74472
2.75432
1.69327
0.611221
-0.448281
-1.45252
-2.38249
-3.2335
-4.01328
-4.73781
-5.4255
-6.09063
-6.73727
-7.35482
-7.91621
-8.37935
-8.69188
-8.79879
-8.65196
-8.22039
-7.49962
-6.51916
-5.34674
-4.08886
-2.88739
-1.91246
-1.35212
-1.39928
-2.2366
-4.02028
-6.86371
-10.8224
-15.8817
-21.9492
-28.8535
-36.3493
-44.1313
-51.8538
-59.156
-65.6888
-71.1418
-75.2654
-77.8877
-78.9228
-78.3727
-76.3209
-72.9217
-68.3844
-62.9549
-56.8922
-50.4393
-43.7837
-37.0036
-29.9992
-22.41
-13.5279
-2.22475
13.083
34.4001
64.0248
104.309
157.308
224.356
305.606
399.632
503.16
611.023
716.382
811.229
887.137
936.181
951.895
930.154
869.82
773.083
645.403
495.067
332.403
168.743
15.2653
-118.13
-223.791
-297.008
-336.346
-343.612
-323.455
-282.677
-229.349
-171.843
-117.907
-73.8811
-44.1345
-30.781
-33.6747
-50.6666
-78.0696
-111.258
-145.318
-175.669
-198.581
-211.542
-213.441
-204.565
-186.426
-161.467
-132.675
-103.177
-75.8587
-53.0476
-36.3024
-26.311
-22.906
-25.1797
-31.6743
-40.6175
-50.1679
-58.6404
-64.6858
-67.4077
-66.4112
-61.7835
-54.02
-43.9103
-32.4045
-20.4783
-9.01441
1.2873
9.96413
16.8068
21.8411
25.2816
27.4681
28.7932
29.6346
30.2977
30.9766
31.7355
32.5125
33.1401
33.3814
32.9728
31.6685
29.2805
25.7086
20.9581
15.1431
8.47626
1.24802
-6.20251
-13.5198
-20.364
-26.4384
-31.5109
-35.426
-38.1092
-39.5622
-39.852
-39.096
-37.4441
-35.0627
-32.1199
-28.7758
-25.1758
-21.449
-17.7088
-14.0554
-10.5789
-7.3607
-4.47407
-1.98183
0.0674452
1.64483
2.74694
3.40123
3.66962
3.64915
3.4689
3.28286
3.25898
3.5654
4.3555
5.75359
7.84335
10.6605
14.1913
18.3758
23.1174
28.2954
33.7792
39.443
45.1776
50.8993
56.553
62.1118
67.5708
72.9386
78.2264
83.4375
88.5578
93.5501
98.3507
102.87
106.997
110.6
113.537
115.652
116.783
116.763
115.424
112.604
108.162
101.991
94.0449
84.3533
73.0438
60.3529
46.6268
32.311
17.9256
4.03022
-8.81925
-20.1172
-29.4524
-36.5445
-41.2683
-43.6628
-43.9239
-42.3806
-39.4589
-35.6351
-31.3844
-27.1288
-23.1874
-19.7291
-16.7283
-13.9202
-10.7557
-6.35657
0.518393
11.4836
28.4898
53.7183
89.3869
137.462
199.293
275.208
364.136
463.327
568.255
672.759
769.441
850.316
907.636
934.797
927.195
882.917
803.145
692.218
557.309
407.768
254.2
107.382
-22.8262
-128.458
-204.186
-247.743
-259.993
-244.651
-207.695
-156.577
-99.308
-43.5591
4.13324
38.9681
58.2314
61.3771
49.8532
26.7134
-3.91894
-37.4579
-69.4536
-96.1125
-114.683
-123.675
-122.904
-113.366
-96.987
-76.2802
-53.9694
-32.6261
-14.3656
-0.633581
7.89999
11.3365
10.4471
6.49676
1.02417
-4.38937
-8.33179
-9.72766
-7.94454
-2.83135
5.30899
15.8021
27.7233
40.0386
51.7443
61.9889
70.1626
75.9478
79.3264
80.5487
80.0713
78.475
76.3746
74.3334
72.793
72.0247
72.1084
72.9379
74.2493
75.6685
76.7683
77.1278
76.3867
74.2877
70.7022
65.6394
59.2372
51.7398
43.4645
34.7647
25.9922
17.4654
9.44378
2.11374
-4.41682
-10.1142
-15.0073
-19.1717
-22.7108
-25.738
-28.3603
-30.6659
-32.7168
-34.5451
-36.1547
-37.5256
-38.622
-39.4008
-39.8205
-39.8493
-39.4711
-38.6885
-37.5241
-36.0187
-34.2278
-32.2172
-30.0579
-27.8217
-25.5771
-23.3867
-21.3043
-19.3734
-17.6248
-16.0747
-14.7219
-13.545
-12.4997
-11.5167
-10.5006
-9.33069
-7.86287
-5.93414
-3.36881
0.0126198
4.38204
9.8894
16.646
24.7063
34.0508
44.5706
56.059
68.2103
80.6284
92.8463
104.355
114.639
123.217
129.682
133.736
135.21
134.084
130.478
124.641
116.925
107.745
97.5462
86.7627
75.7898
64.9588
54.5258
44.669
35.4955
27.0546
19.3542
12.3775
6.09602
0.479482
-4.50121
-8.87556
-12.6788
-15.958
-18.775
-21.2009
-23.298
-25.0823
-26.4656
-27.1773
-26.6721
-24.0387
-17.9315
-6.55392
12.2766
40.9577
81.8159
136.718
206.623
291.137
388.156
493.691
601.92
705.54
796.37
866.177
907.619
915.165
885.882
819.945
720.812
594.995
451.475
300.806
154.037
21.5723
-87.8824
-168.157
-216.149
-231.995
-218.867
-182.454
-130.178
-70.2848
-10.8892
40.8822
79.575
101.844
106.615
94.9668
69.7857
35.2377
-3.85279
-42.6397
-76.8288
-103.126
-119.519
-125.377
-121.37
-109.242
-91.4757
-70.9076
-50.3372
-32.1876
-18.2489
-9.52929
-6.22122
-7.77297
-13.0467
-20.5331
-28.5896
-35.6694
-40.5134
-42.2847
-40.6337
-35.6946
-28.0191
-18.463
-8.04587
2.19641
11.3464
18.71
23.8822
26.7677
27.5582
26.6749
24.6844
22.2044
19.8111
17.9611
16.9379
16.8263
17.5188
18.7472
20.136
21.2667
21.7449
21.2593
19.6266
16.816
12.9521
8.29635
3.21142
-1.88618
-6.57841
-10.4958
-13.3593
-15.0085
-15.4142
-14.6748
-12.9968
-10.6648
-8.00441
-5.34266
-2.97265
-1.12485
0.0513405
0.494548
0.22732
-0.657475
-2.01697
-3.68209
-5.48142
-7.2621
-8.90552
-10.3364
-11.5248
-12.4824
-13.2525
-13.8982
-14.4882
-15.0831
-15.7236
-16.4221
-17.1583
-17.8785
-18.5017
-18.9279
-19.0515
-18.776
-18.0284
-16.7722
-15.0162
-12.8172
-10.2771
-7.53234
-4.73784
-2.04682
0.411416
2.55219
4.35149
5.8544
7.17365
8.47739
9.96683
11.8458
14.2862
17.3932
21.1769
25.5326
30.2355
34.9514
39.2618
42.7037
44.8184
45.2039
43.565
39.7546
33.8003
25.913
16.4758
6.01463
-4.84733
-15.4448
-25.1297
-33.3284
-39.5902
-43.6224
-45.31
-44.717
-42.072
-37.7397
-32.1825
-25.9164
-19.4664
-13.3232
-7.90505
-3.52268
-0.345821
1.63267
2.63898
3.16873
4.043
6.4606
12.0294
22.7525
40.943
69.0438
109.345
163.609
232.644
315.891
411.095
514.164
619.251
719.116
805.744
871.158
908.336
912.092
879.817
811.936
712.033
586.602
444.441
295.773
151.197
20.6058
-87.8061
-168.313
-218.127
-237.524
-229.616
-199.826
-155.132
-103.201
-51.4956
-6.48798
26.9554
45.9498
49.707
39.3972
17.7976
-11.2127
-43.2359
-73.9405
-99.5782
-117.377
-125.773
-124.477
-114.374
-97.2876
-75.6646
-52.2041
-29.5014
-9.73965
5.5346
15.5341
20.2454
20.3456
17.0396
11.8481
6.37618
2.09453
0.159429
1.29075
5.71805
13.1952
23.0751
34.4298
46.1957
57.3239
66.914
74.3174
79.1977
81.5444
81.6412
79.9974
77.2531
74.073
71.0442
68.5902
66.9131
65.9691
65.4811
64.9828
63.8896
61.5846
57.5084
51.2416
42.5678
31.5114
18.3453
3.56828
-12.1447
-28.0109
-43.2194
-57.0116
-68.753
-77.988
-84.4739
-88.1888
-89.3178
-88.2169
-85.3627
-81.294
-76.5513
-71.623
-66.9021
-62.6587
-59.0304
-56.0288
-53.5612
-51.4632
-49.5367
-47.587
-45.4562
-43.0464
-40.3316
-37.357
-34.2274
-31.0861
-28.0892
-25.3789
-23.0591
-21.1779
-19.7182
-18.5976
-17.6772
-16.7782
-15.7016
-14.2515
-12.2557
-9.58309
-6.15478
-1.94944
2.99821
8.60424
14.7464
21.2776
28.0396
34.8768
41.6471
48.2305
54.5343
60.4948
66.0755
71.2628
76.0589
80.4742
84.5185
88.1926
91.4805
94.3435
96.7162
98.5055
99.5931
99.8421
99.1071
97.2494
94.1537
89.7463
84.0128
77.0121
68.8839
59.8496
50.2034
40.2951
30.505
21.2136
12.7693
5.45723
-0.526079
-5.09051
-8.2594
-10.1653
-11.0342
-11.1602
-10.8714
-10.4901
-10.2884
-10.4406
-10.9712
-11.6995
-12.1821
-11.6567
-8.99723
-2.69581
9.10936
28.5377
57.7844
98.8477
153.177
221.281
302.347
393.955
491.955
590.566
682.736
760.754
817.041
845.044
840.107
800.172
726.226
622.385
495.61
355.061
211.176
74.5885
-44.9876
-139.751
-204.571
-237.424
-239.452
-214.667
-169.344
-111.189
-48.3973
11.2697
61.2982
97.0214
115.956
117.854
104.493
79.237
46.4663
10.9301
-22.8717
-51.2147
-71.5253
-82.5736
-84.4788
-78.5456
-66.9681
-52.4533
-37.8191
-25.6197
-17.8427
-15.709
-19.5886
-29.0317
-42.8979
-59.5583
-77.1356
-93.75
-107.737
-117.818
-123.201
-123.611
-119.261
-110.763
-98.9987
-84.9873
-69.7428
-54.1598
-38.9287
-24.4915
-11.0381
1.46112
13.1948
24.4344
35.4538
46.4575
57.5256
68.5824
79.3917
89.5752
98.6526
106.093
111.375
114.042
113.753
110.318
103.723
94.1356
81.8969
67.5025
51.5697
34.7993
17.9319
1.70257
-13.2033
-26.1897
-36.7848
-44.6657
-49.6754
-51.8268
-51.2967
-48.4074
-43.5995
-37.3955
-30.3587
-23.0504
-15.9879
-9.609
-4.24404
-0.099165
2.74851
4.34358
4.83431
4.44611
3.44985
2.12861
0.746546
-0.476837
-1.38477
-1.89221
-1.98563
-1.71458
-1.17678
-0.498974
0.183816
0.748487
1.10125
1.19065
1.01514
0.62444
0.114878
-0.380913
-0.708737
-0.710476
-0.242704
0.805835
2.49991
4.84837
7.80084
11.2509
15.0455
18.9991
22.9109
26.5833
29.8373
32.5251
34.5364
35.7988
36.2719
35.9372
34.7849
32.8022
29.9629
26.2239
21.5272
15.8101
9.02092
1.13867
-7.80597
-17.7131
-28.402
-39.6095
-50.9979
-62.174
-72.7172
-82.2123
-90.2851
-96.6353
-101.063
-103.489
-103.957
-102.637
-99.8037
-95.8124
-91.0672
-85.9803
-80.9257
-76.1895
-71.9117
-68.0224
-64.1718
-59.6597
-53.3767
-43.7735
-28.8851
-6.43158
25.9826
70.566
128.952
201.767
288.219
385.788
490.109
595.084
693.283
776.592
837.056
867.81
863.97
823.351
746.908
638.81
506.138
358.228
205.732
59.526
-70.3986
-175.936
-251.621
-295.069
-307.044
-291.182
-253.404
-201.111
-142.276
-84.5404
-34.4223
3.27878
25.8246
32.6131
24.9991
5.90634
-20.703
-50.4247
-78.9956
-102.796
-119.217
-126.867
-125.599
-116.389
-101.081
-82.052
-61.8539
-42.8628
-26.9964
-15.519
-8.95198
-7.09178
-9.11899
-13.7771
-19.5891
-25.08
-28.9759
-30.356
-28.7412
-24.1169
-16.8913
-7.80157
2.21321
12.1544
21.1
28.3184
33.3462
36.0237
36.4874
35.1243
32.4968
29.2514
26.0245
23.3562
21.6245
21.0042
21.4549
22.737
24.4506
26.0934
27.1275
27.0485
25.449
22.069
16.8288
9.84184
1.40608
-8.02425
-17.8826
-27.5452
-36.3907
-43.8588
-49.5005
-53.0163
-54.2786
-53.3353
-50.3972
-45.8099
-40.0145
-33.5024
-26.7682
-20.2665
-14.3766
-9.37725
-5.43386
-2.59728
-0.813936
0.0553388
0.21043
-0.115963
-0.686115
-1.28221
-1.72622
-1.89318
-1.71717
-1.19013
-0.354186
0.710909
1.90355
3.11714
4.25602
5.24876
6.05736
6.68172
7.159
7.55841
7.9722
8.50426
9.2578
10.3237
11.7711
13.6412
15.9452
18.6658
21.7631
25.1819
28.8608
32.7405
36.7703
40.9114
45.1366
49.4271
53.7648
58.124
62.4608
66.7049
70.7521
74.4616
77.6573
80.1343
81.6702
82.041
81.0401
78.4985
74.3062
68.4299
60.9276
51.9566
41.7726
30.7204
19.2154
7.71644
-3.30736
-13.4125
-22.2166
-29.4294
-34.8763
-38.5101
-40.412
-40.7798
-39.9041
-38.137
-35.8532
-33.4103
-31.1071
-29.1449
-27.5884
-26.3264
-25.0294
-23.1031
-19.6418
-13.3897
-2.72629
14.3021
39.8812
76.24
125.366
188.64
266.433
357.716
459.777
568.104
676.516
777.548
863.093
925.225
957.116
953.906
913.408
836.538
727.394
592.959
442.457
286.443
135.74
0.343962
-111.551
-194.307
-245.284
-264.932
-256.543
-225.697
-179.499
-125.699
-71.8094
-24.3244
11.8799
33.9054
40.9333
34.0751
16.0173
-9.48155
-38.165
-65.8501
-88.9268
-104.734
-111.779
-109.791
-99.621
-83.0173
-62.3124
-40.078
-18.7865
-0.521845
13.229
21.69
24.8104
23.1885
17.9251
10.4319
2.22327
-5.282
-10.9241
-13.9158
-13.8976
-10.9332
-5.45366
1.83803
10.085
18.4002
25.9788
32.1874
36.6207
39.1227
39.7731
38.8462
36.7489
33.95
30.9093
28.0164
25.5455
23.6296
22.2565
21.2842
20.4717
19.5213
18.1259
16.0147
12.9928
8.96944
3.97388
-1.84493
-8.23166
-14.8503
-21.3183
-27.2458
-32.2744
-36.1123
-38.5623
-39.5387
-39.0736
-37.3109
-34.4895
-30.9179
-26.9433
-22.9179
-19.1666
-15.9585
-13.4857
-11.8506
-11.0625
-11.044
-11.6451
-12.6638
-13.8704
-15.0333
-15.942
-16.4274
-16.3755
-15.7344
-14.5142
-12.7806
-10.6433
-8.24011
-5.72062
-3.22945
-0.891891
1.197
2.97914
4.43555
5.58431
6.47478
7.1793
7.78342
8.37581
9.03929
9.84384
10.8426
12.0708
13.5483
15.2839
17.2814
19.5452
22.0839
24.9123
28.0482
31.5073
35.2949
39.3968
43.7698
48.3356
52.9771
57.5392
61.8338
65.6498
68.7642
70.9571
72.0263
71.8016
70.1576
67.0254
62.4005
56.3495
49.0116
40.597
31.3803
21.6883
11.8826
2.33803
-6.58268
-14.5547
-21.3157
-26.6857
-30.5803
-33.0157
-34.1037
-34.0377
-33.0718
-31.4942
-29.5995
-27.6613
-25.9098
-24.5119
-23.5554
-23.0312
-22.8108
-22.612
-21.9513
-20.0845
-15.9452
-8.09909
5.26118
26.2519
57.1401
100.08
156.754
227.951
313.147
410.168
515.009
621.894
723.601
812.055
879.13
917.578
921.943
889.34
819.971
717.293
587.804
440.451
285.74
134.657
-2.46795
-117.001
-202.834
-256.891
-279.281
-273.078
-243.778
-198.527
-145.21
-91.5342
-44.2055
-8.29653
13.1408
19.1912
10.9331
-8.92192
-36.5419
-67.5622
-97.6713
-123.124
-141.127
-150.071
-149.585
-140.445
-124.346
-103.59
-80.7376
-58.2673
-38.2788
-22.2815
-11.0765
-4.74106
-2.70424
-3.89612
-6.9438
-10.385
-12.8709
-13.3334
-11.0999
-5.9453
1.91884
11.9105
23.1858
34.7717
45.7037
55.1506
62.5102
67.4676
70.0106
70.4042
69.1307
66.807
64.0909
61.5887
59.7782
58.9522
59.1924
60.3701
62.1761
64.1701
65.8448
66.6946
66.2801
64.2815
60.5353
55.0506
48.0048
39.7203
30.627
21.2141
11.9794
3.38069
-4.20531
-10.5118
-15.3976
-18.8477
-20.9618
-21.9318
-22.0121
-21.4882
-20.645
-19.7392
-18.9786
-18.508
-18.4037
-18.6746
-19.2704
-20.0933
-21.0142
-21.8888
-22.5746
-22.9462
-22.9071
-22.3993
-21.4071
-19.958
-18.1183
-15.9859
-13.6793
-11.3258
-9.04861
-6.95551
-5.12904
-3.62017
-2.44543
-1.58777
-1.00104
-0.617194
-0.355446
-0.132056
0.130311
0.49482
1.0051
1.68279
2.52825
3.52407
4.64124
5.84687
7.11281
8.42385
9.78455
11.2235
12.7946
14.5742
16.6556
19.1392
22.1218
25.6836
29.8755
34.7078
40.1405
46.0776
52.3641
58.7886
65.0893
70.965
76.0905
80.1352
82.7851
83.7662
82.8682
79.966
75.0378
68.1764
59.5929
49.6105
38.6486
27.1965
15.7799
4.92181
-4.8987
-13.2843
-19.9516
-24.7525
-27.6835
-28.8815
-28.606
-27.2103
-25.1042
-22.7118
-20.4268
-18.5684
-17.3376
-16.7725
-16.7025
-16.6978
-16.0176
-13.5637
-7.85177
2.97823
21.0901
48.7951
88.3007
141.37
208.92
290.619
384.547
487.012
592.572
694.327
784.463
855.012
898.739
910.03
885.672
825.38
732.008
611.392
471.833
323.279
176.319
41.102
-73.6838
-161.635
-219.182
-245.797
-243.859
-218.197
-175.394
-122.945
-68.3783
-18.4373
21.5687
48.1981
60.0539
57.7074
43.4015
20.5888
-6.62435
-34.0515
-57.9477
-75.4205
-84.6932
-85.2024
-77.5367
-63.2397
-44.5164
-23.8892
-3.85119
13.4408
26.3986
34.1403
36.5262
34.0988
27.9441
19.5006
10.3437
1.97566
-4.35385
-7.77727
-7.87835
-4.69826
1.31531
9.40396
18.6229
27.9753
36.5389
43.5708
48.5778
51.3495
51.9518
50.6865
48.0251
44.5282
40.7601
37.213
34.2466
32.0523
30.6438
29.8733
29.4707
29.0968
28.404
27.0937
24.964
21.9406
18.0869
13.5944
8.75456
3.91747
-0.555726
-4.34052
-7.18965
-8.96176
-9.63481
-9.30347
-8.1617
-6.4738
-4.53854
-2.65141
-1.07004
0.0129987
0.487088
0.328812
-0.404124
-1.58863
-3.05881
-4.63196
-6.13439
-7.42402
-8.40715
-9.04789
-9.37009
-9.45211
-9.4159
-9.41225
-9.60398
-10.149
-11.1846
-12.8142
-15.0972
-18.043
-21.6089
-25.7023
-30.1864
-34.8899
-39.6189
-44.1705
-48.3472
-51.9697
-54.889
-56.9942
-58.2169
-58.5316
-57.9511
-56.5185
-54.2955
-51.3503
-47.7439
-43.5204
-38.6999
-33.2777
-27.2291
-20.5194
-13.1187
-5.01831
3.75371
13.1193
22.9429
33.0301
43.1335
52.9649
62.2125
70.5608
77.7107
83.398
87.4091
89.5915
89.8615
88.2071
84.6884
79.4351
72.6417
64.5607
55.4924
45.7721
35.7536
25.791
16.2173
7.32309
-0.662259
-7.58677
-13.3854
-18.0821
-21.7842
-24.6681
-26.9583
-28.9021
-30.7416
-32.6856
-34.8845
-37.4051
-40.2073
-43.1152
-45.7828
-47.6488
-47.8859
-45.3521
-38.5636
-25.712
-4.75432
26.4049
69.6322
126.201
196.39
279.104
371.608
469.441
566.576
655.831
729.534
780.342
802.128
790.799
744.934
666.129
558.988
430.758
290.635
148.833
15.5283
-100.187
-191.209
-253.08
-284.329
-286.463
-263.621
-221.955
-168.826
-111.91
-58.3426
-13.9856
17.0979
32.9171
33.5629
20.9745
-1.48798
-29.5978
-58.8623
-85.0962
-104.899
-115.987
-117.359
-109.287
-93.1472
-71.143
-45.9466
-20.3248
3.20843
22.6719
36.8012
45.1244
47.9321
46.1544
41.1734
34.5979
28.0354
22.8879
20.1969
20.5496
24.0531
30.372
38.8177
48.4744
58.3404
67.4673
75.0788
80.6566
83.9855
85.155
84.522
82.6408
80.1737
77.7925
76.086
75.4825
76.1967
78.2069
81.2614
84.9143
88.5839
91.6255
93.4103
93.4004
91.2105
86.6507
79.7443
70.721
59.9859
48.0703
35.5693
23.0765
11.1225
0.124626
-9.64552
-18.0751
-25.2026
-31.1924
-36.2962
-40.8065
-45.0102
-49.1456
-53.3704
-57.7431
-62.2181
-66.6564
-70.8471
-74.5381
-77.4711
-79.4153
-80.1971
-79.722
-77.9857
-75.0742
-71.154
-66.4532
-61.237
-55.7803
-50.3409
-45.1371
-40.3298
-36.0131
-32.2119
-28.887
-25.9464
-23.2606
-20.6803
-18.0549
-15.2486
-12.1539
-8.70088
-4.86224
-0.653196
3.8723
8.62882
13.5091
18.3946
23.1666
27.7164
31.9531
35.8104
39.2502
42.2629
44.8666
47.103
49.0314
50.7212
52.2438
53.663
55.0249
56.3482
57.6159
58.7679
59.6986
60.2576
60.2582
59.4908
57.7435
54.8272
50.6025
45.0055
38.0685
29.9319
20.8444
11.1511
1.2687
-8.34873
-17.2502
-25.0296
-31.3637
-36.0414
-38.9813
-40.2347
-39.9743
-38.471
-36.0594
-33.0996
-29.9361
-26.8609
-24.0806
-21.6915
-19.6587
-17.798
-15.7542
-12.974
-8.67092
-1.78841
9.02738
25.4255
49.2945
82.6304
127.314
184.8
255.75
339.65
434.497
536.616
640.69
740.033
827.112
894.282
934.627
942.828
915.897
853.693
759.113
637.933
498.307
349.967
203.246
68.0321
-47.2205
-136.288
-195.703
-224.961
-226.376
-204.643
-166.165
-118.231
-68.1654
-22.5412
13.4577
36.4546
45.0544
39.7729
22.7523
-2.68439
-32.5691
-62.8447
-89.87
-110.819
-123.935
-128.629
-125.414
-115.719
-101.598
-85.4004
-69.4329
-55.6687
-45.5283
-39.7566
-38.4006
-40.8803
-46.1337
-52.8099
-59.4794
-64.8329
-67.8442
-67.8793
-64.7427
-58.6632
-50.2244
-40.2582
-29.7162
-19.5389
-10.5404
-3.32012
1.78888
4.73263
5.71283
5.13364
3.52866
1.47932
-0.464408
-1.85117
-2.37618
-1.90596
-0.478998
1.71539
4.37517
7.13448
9.61599
11.4803
12.4662
12.4182
11.2995
9.18931
6.26785
2.79135
-0.938981
-4.60957
-7.92479
-10.6319
-12.5388
-13.5227
-13.5321
-12.5808
-10.7377
-8.11386
-4.84853
-1.09634
2.98385
7.23765
11.5214
15.7061
19.6804
23.3515
26.6459
29.5095
31.9074
33.8228
35.2557
36.2209
36.7454
36.8647
36.619
36.0498
35.1956
34.089
32.7549
31.2095
29.4622
27.5174
25.3792
23.0555
20.5629
17.9302
15.2003
12.431
9.69188
7.06113
4.61926
2.44287
0.598102
-0.864903
-1.91607
-2.54734
-2.77251
-2.62485
-2.15311
-1.41633
-0.478253
0.597926
1.75371
2.93785
4.10686
5.22327
6.25182
7.15369
7.8793
8.36066
8.50424
8.18584
7.24909
5.50892
2.76094
-1.20296
-6.57367
-13.5002
-22.0639
-32.2553
-43.9556
-56.9269
-70.8132
-85.1527
-99.4014
-112.967
-125.252
-135.695
-143.815
-149.253
-151.794
-151.391
-148.159
-142.375
-134.444
-124.876
-114.241
-103.13
-92.1038
-81.6469
-72.1105
-63.653
-56.1723
-49.2335
-41.9999
-33.1799
-21.01
-3.29951
22.4408
58.7683
107.977
171.683
250.383
343.045
446.817
556.938
666.898
768.888
854.489
915.552
945.154
938.493
893.587
811.692
697.33
557.948
403.215
244.056
91.5425
-44.2277
-155.119
-235.699
-283.654
-299.84
-287.978
-254.057
-205.518
-150.343
-96.1545
-49.4279
-14.9081
4.7256
8.92579
-0.90835
-21.8218
-49.8342
-80.5334
-109.655
-133.583
-149.712
-156.657
-154.285
-143.596
-126.477
-105.377
-82.944
-61.6804
-43.6486
-30.2642
-22.1894
-19.3303
-20.9289
-25.7274
-32.1792
-38.674
-43.7486
-46.2592
-45.4953
-41.229
-33.6984
-23.5334
-11.6399
0.939238
13.1673
24.1407
33.1861
39.9183
44.2542
46.3868
46.7259
45.8155
44.2434
42.5538
41.1741
40.3658
40.2023
40.5747
41.2223
41.7823
41.8493
41.0378
39.0371
35.655
30.8428
24.7011
17.4674
9.48701
1.1737
-7.03578
-14.7267
-21.5456
-27.2307
-31.6292
-34.702
-36.5166
-37.2281
-37.0543
-36.2462
-35.0579
-33.7207
-32.4218
-31.2916
-30.3982
-29.7503
-29.3065
-28.9891
-28.7008
-28.3408
-27.82
-27.0719
-26.0589
-24.7736
-23.2367
-21.4897
-19.5877
-17.5901
-15.5541
-13.5288
-11.5533
-9.65592
-7.85689
-6.17073
-4.60958
-3.18541
-1.91091
-0.798675
0.141179
0.904431
1.49664
1.93678
2.25997
2.51907
2.78464
3.1434
3.69512
4.54793
5.81216
7.59291
9.98168
13.0476
16.8291
21.3269
26.4999
32.2637
38.4936
45.0311
51.6942
58.2887
64.6215
70.5112
75.7967
80.3421
84.0371
86.7949
88.5478
89.2429
88.8389
87.3064
84.6312
80.8214
75.9155
69.9915
63.1735
55.6341
47.5922
39.3031
31.0446
23.0972
15.7229
9.14355
3.52239
-1.04912
-4.55774
-7.06722
-8.70938
-9.66896
-10.1637
-10.4217
-10.6573
-11.0463
-11.6986
-12.6266
-13.7059
-14.6262
-14.8323
-13.4612
-9.28911
-0.70499
14.2614
37.8345
72.2915
119.662
181.345
257.692
347.617
448.315
555.164
661.875
760.909
844.131
903.659
932.772
926.775
883.684
804.629
693.901
558.628
408.12
252.94
103.841
-29.3166
-138.524
-218.36
-266.404
-283.315
-272.552
-239.815
-192.272
-137.676
-83.4882
-36.1099
-0.293136
21.2027
27.6968
20.4254
2.1754
-23.2244
-51.4814
-78.4098
-100.427
-114.925
-120.479
-116.898
-105.109
-86.9268
-64.7295
-41.1101
-18.5327
0.954777
15.9244
25.6732
30.2256
30.2456
26.8784
21.5506
15.7579
10.8686
7.96606
7.74496
10.4697
15.9915
23.8167
33.2106
43.3193
53.2931
62.3927
70.0685
76.0041
80.1226
82.5591
83.6062
83.6437
83.0627
82.1969
81.2687
80.3596
79.4047
78.2129
76.5065
73.9751
70.3332
65.3739
59.0107
51.3022
42.456
32.8123
22.81
12.9404
3.69439
-4.48885
-11.2663
-16.4228
-19.8864
-21.7274
-22.1404
-21.4145
-19.8944
-17.9383
-15.8781
-13.9864
-12.4537
-11.378
-10.766
-10.5467
-10.5922
-10.744
-10.8403
-10.7404
-10.344
-9.60191
-8.51992
-7.15347
-5.59667
-3.96683
-2.38742
-0.971713
0.190541
1.04204
1.56173
1.76347
1.69043
1.40638
0.985571
0.502596
0.02381
-0.398852
-0.731071
-0.956376
-1.07384
-1.09396
-1.03365
-0.911207
-0.741928
-0.53495
-0.291374
-0.00362463
0.34426
0.775793
1.32098
2.01529
2.89866
4.01444
5.40803
7.12478
9.20711
11.6905
14.5988
17.9388
21.6944
25.8221
30.2462
34.8558
39.5044
44.0107
48.1634
51.7292
54.4636
56.1265
56.4989
55.4023
52.717
48.3984
42.4893
35.1253
26.5325
17.0168
6.94476
-3.28204
-13.2574
-22.602
-30.9934
-38.1901
-44.0477
-48.5246
-51.6772
-53.6436
-54.6204
-54.8336
-54.5084
-53.8416
-52.9787
-51.996
-50.8857
-49.5397
-47.7263
-45.0549
-40.9273
-34.4802
-24.5326
-9.55972
12.2798
43.0351
84.7548
139.177
207.343
289.181
383.135
485.918
592.476
696.19
789.365
863.938
912.355
928.482
908.435
851.196
758.927
636.907
493.103
337.419
180.705
33.6588
-94.2463
-195.675
-266.085
-304.044
-311.196
-291.882
-252.495
-200.639
-144.231
-90.6201
-45.8609
-14.1848
2.26616
3.44272
-8.85028
-31.3831
-60.0518
-90.472
-118.54
-140.898
-155.256
-160.543
-156.901
-145.518
-128.362
-107.844
-86.4656
-66.4983
-49.73
-37.3011
-29.6422
-26.5085
-27.0955
-30.2107
-34.4743
-38.5189
-41.1638
-41.5441
-39.185
-34.0169
-26.3377
-16.7335
-5.97198
5.11352
15.7341
25.2361
33.163
39.2852
43.5959
46.2798
47.6605
48.1361
48.1128
47.9462
47.8951
48.0948
48.5496
49.1448
49.6739
49.8765
49.4817
48.2498
46.0085
42.6781
38.2849
32.9597
26.9248
20.47
13.9221
7.61111
1.83863
-3.14948
-7.18209
-10.1724
-12.1178
-13.09
-13.2191
-12.6723
-11.6314
-10.2725
-8.74896
-7.17976
-5.64455
-4.18413
-2.80596
-1.49319
-0.215441
1.06009
2.35858
3.6895
5.04125
6.37855
7.64258
8.75376
9.61685
10.1282
10.1848
9.69428
8.58601
6.82086
4.39971
1.36887
-2.17848
-6.10521
-10.2378
-14.3782
-18.318
-21.8553
-24.8103
-27.0402
-28.4497
-28.9974
-28.6967
-27.6111
-25.8438
-23.5242
-20.7908
-17.7747
-14.5849
-11.2969
-7.94777
-4.53651
-1.03079
2.62172
6.47894
10.5891
14.9769
19.6332
24.509
29.5154
34.528
39.3959
43.9535
48.0335
51.4791
54.1551
55.9563
56.8116
56.6866
55.5827
53.5343
50.6054
46.8863
42.4901
37.5496
32.2145
26.648
21.0224
15.5126
10.2888
5.50735
1.30072
-2.23115
-5.02844
-7.07587
-8.40331
-9.08213
-9.21748
-8.93689
-8.37624
-7.66376
-6.90205
-6.14697
-5.38089
-4.47696
-3.15173
-0.906511
3.03646
9.78948
20.8249
37.9439
63.163
98.5007
145.666
205.677
278.452
362.465
454.525
549.761
641.868
723.595
787.458
826.585
835.57
811.23
753.135
663.826
548.688
415.471
273.527
132.855
3.0727
-107.554
-192.9
-249.515
-276.822
-277.002
-254.56
-215.677
-167.407
-116.849
-70.3688
-32.9842
-7.95229
3.39911
1.59993
-11.2435
-31.8866
-56.4734
-81.0812
-102.214
-117.189
-124.383
-123.322
-114.611
-99.7427
-80.8145
-60.196
-40.1999
-22.7955
-9.3952
-0.735514
3.1428
2.82375
-0.627705
-5.85592
-11.4219
-15.9993
-18.5344
-18.3541
-15.2122
-9.27586
-1.05956
8.67826
19.0583
29.2052
38.3564
45.9445
51.6435
55.378
57.2987
57.7313
57.108
55.893
54.5123
53.2958
52.4375
51.9779
51.8076
51.6907
51.3041
50.2859
48.2889
45.0301
40.3327
34.1537
26.5967
17.9051
8.44041
-1.35417
-10.9987
-20.0254
-28.0249
-34.6846
-39.8151
-43.3615
-45.3997
-46.1176
-45.7861
-44.7226
-43.2528
-41.675
-40.2311
-39.0869
-38.3237
-37.9408
-37.8673
-37.9809
-38.1312
-38.1627
-37.936
-37.3442
-36.3226
-34.8525
-32.9582
-30.6997
-28.1619
-25.4432
-22.6438
-19.8565
-17.1599
-14.6148
-12.2627
-10.1278
-8.21914
-6.53408
-5.06179
-3.78607
-2.68754
-1.74512
-0.936789
-0.239968
0.368346
0.911586
1.41367
1.89914
2.39352
2.92392
3.51992
4.21485
5.04722
6.0621
7.31211
8.85732
10.7637
13.0993
15.9289
19.3056
23.2627
27.8039
32.8953
38.459
44.3696
50.4548
56.4995
62.2548
67.4497
71.8065
75.0577
76.9637
77.3299
76.0233
72.986
68.2451
61.9187
54.2152
45.4266
35.9148
26.0909
16.3891
7.23724
-0.973767
-7.91813
-13.3585
-17.1613
-19.3032
-19.8674
-19.031
-17.046
-14.2158
-10.8697
-7.33865
-3.93082
-0.907228
1.54667
3.35711
4.60999
5.61169
6.9597
9.61254
14.9415
24.7399
41.1628
66.5746
103.292
153.231
217.49
295.925
386.791
486.54
589.83
689.804
778.631
848.272
891.372
902.177
877.329
816.424
722.244
600.609
459.868
310.072
161.946
25.779
-89.6188
-177.77
-235.097
-261.131
-258.376
-231.832
-188.281
-135.409
-80.9029
-31.6135
7.1138
31.8758
41.384
36.3762
19.3002
-6.17035
-35.7144
-64.958
-90.0119
-107.892
-116.789
-116.16
-106.663
-89.9491
-68.3519
-44.5339
-21.1236
-0.399207
15.9518
26.9741
32.4799
32.9862
29.5707
23.6744
16.8806
10.6995
6.3872
4.81462
6.40041
11.1073
18.4965
27.8264
38.1788
48.593
58.1908
66.276
72.3998
76.387
78.323
78.5093
77.3952
75.498
73.323
71.2938
69.7017
68.6773
68.1883
68.059
68.009
67.7026
66.8032
65.0236
62.1666
58.1506
53.0188
46.9304
40.1373
32.9507
25.7016
18.703
12.2164
6.42887
1.44127
-2.73145
-6.1491
-8.92717
-11.2132
-13.1626
-14.9165
-16.5854
-18.2392
-19.9049
-21.5706
-23.1948
-24.7196
-26.083
-27.2315
-28.1282
-28.7564
-29.1191
-29.2338
-29.1245
-28.8134
-28.3126
-27.6188
-26.7126
-25.5614
-24.1266
-22.3737
-20.2837
-17.8632
-15.1515
-12.2236
-9.1877
-6.17758
-3.34038
-0.821714
1.25028
2.77969
3.71454
4.05381
3.84915
3.20099
2.24973
1.16324
0.122127
-0.695449
-1.12782
-1.04136
-0.338491
1.03824
3.10612
5.84556
9.20582
13.112
17.472
22.1827
27.1347
32.2147
37.3074
42.2955
47.0603
51.4818
55.4413
58.8231
61.5191
63.4326
64.4824
64.6063
63.7632
61.9344
59.1238
55.3578
50.6858
45.1803
38.9387
32.084
24.7661
17.1602
9.46357
1.88865
-5.34686
-12.0331
-17.9826
-23.0451
-27.1207
-30.1686
-32.2116
-33.3332
-33.6692
-33.3929
-32.6965
-31.7692
-30.7733
-29.8176
-28.9263
-28.0005
-26.7695
-24.7327
-21.0951
-14.7111
-4.05282
12.7706
37.9161
73.6145
121.875
184.106
260.696
350.611
451.108
557.62
663.894
762.389
844.936
903.575
931.478
923.838
878.572
796.753
682.686
543.595
388.967
229.618
76.5959
-59.9354
-171.7
-253.083
-301.58
-317.888
-305.633
-270.787
-220.864
-163.99
-107.973
-59.4843
-23.4259
-2.56374
2.56706
-6.5143
-26.6349
-53.5274
-82.4659
-108.898
-128.992
-140.05
-140.735
-131.114
-112.524
-87.2887
-58.3459
-28.8261
-1.6506
20.8091
36.9721
46.1688
48.6369
45.4057
38.0933
28.6491
19.0816
11.2035
6.42675
5.62672
9.08608
16.5171
27.1516
39.8811
53.4232
66.4933
77.9581
86.9543
92.9629
95.8331
95.7594
93.2193
88.8826
83.5079
77.8378
72.5075
67.9759
64.4847
62.049
60.4775
59.417
58.4148
56.9894
54.7006
51.21
46.3258
40.0263
32.4609
23.9303
14.8485
5.69284
-3.05055
-10.9403
-17.6245
-22.8735
-26.5952
-28.8352
-29.7603
-29.6296
-28.7586
-27.4783
-26.0978
-24.8721
-23.9795
-23.5112
-23.471
-23.787
-24.3308
-24.9416
-25.4524
-25.714
-25.6137
-25.0882
-24.1283
-22.7756
-21.1131
-19.2516
-17.3128
-15.413
-13.6492
-12.0888
-10.7637
-9.67084
-8.77564
-8.02054
-7.33495
-6.64598
-5.88832
-5.01201
-3.98715
-2.80521
-1.47703
-0.0277846
1.51015
3.10547
4.73608
6.39595
8.09955
9.88315
11.8026
13.9278
16.3344
19.0943
22.2647
25.8799
29.9433
34.4248
39.2601
44.355
49.5918
54.8389
59.9599
64.8233
69.3093
73.3144
76.7526
79.5538
81.6599
83.0197
83.5848
83.3057
82.1317
80.0117
76.8999
72.7625
67.5877
61.3958
54.2494
46.2611
37.5978
28.479
19.1696
9.96583
1.17565
-6.90422
-14.013
-19.9484
-24.5854
-27.8871
-29.9075
-30.7854
-30.7287
-29.9924
-28.8502
-27.5633
-26.3457
-25.3273
-24.5126
-23.7342
-22.5988
-20.4303
-16.2149
-8.564
4.28545
24.409
54.0494
95.3741
150.143
219.309
302.612
398.234
502.585
610.315
714.569
807.514
881.075
927.823
941.874
919.688
860.644
767.29
645.234
502.666
349.568
196.715
54.5769
-67.725
-163.296
-228.07
-261.078
-264.36
-242.552
-202.204
-150.943
-96.5607
-46.1696
-5.49092
21.6317
33.4628
30.3427
14.4177
-10.8136
-41.0679
-71.8798
-99.1648
-119.677
-131.319
-133.278
-125.991
-110.957
-90.4432
-67.1207
-43.6925
-22.555
-5.53522
6.27324
12.5643
13.7683
10.914
5.4294
-1.08521
-7.08178
-11.257
-12.6923
-10.929
-5.97575
1.74361
11.4908
22.3421
33.3262
43.5527
52.3149
59.1562
63.8961
66.6159
67.6105
67.3163
66.2279
64.8151
63.4523
62.3692
61.6269
61.1225
60.6171
59.7844
58.2688
55.7474
51.9842
46.8709
40.4493
32.912
24.5828
15.8801
7.2692
-0.791261
-7.8996
-13.7535
-18.1786
-21.1407
-22.741
-23.1958
-22.8035
-21.905
-20.8418
-19.9167
-19.3632
-19.325
-19.8484
-20.8871
-22.3174
-23.9624
-25.6191
-27.0873
-28.1948
-28.8163
-28.8855
-28.3976
-27.4044
-26.0024
-24.3167
-22.4825
-20.6272
-18.8557
-17.2392
-15.8099
-14.5607
-13.4504
-12.4124
-11.3661
-10.229
-8.92815
-7.40983
-5.64566
-3.63559
-1.40704
0.989122
3.4851
6.0043
8.4699
10.8128
12.9784
14.9306
16.6543
18.1545
19.4538
20.5884
21.6034
22.5479
23.4716
24.423
25.4489
26.5956
27.9098
29.4405
31.2375
33.3492
35.8167
38.6663
41.9001
45.487
49.3546
53.3848
57.4125
61.23
64.5968
67.2524
68.935
69.3999
68.4403
65.9057
61.7178
55.8829
48.4978
39.7504
29.9127
19.3268
8.3853
-2.49482
-12.9004
-22.4513
-30.8276
-37.7912
-43.2001
-47.0131
-49.285
-50.1526
-49.8124
-48.4953
-46.4389
-43.8627
-40.9468
-37.8147
-34.5152
-31.0011
-27.096
-22.4479
-16.4681
-8.26552
3.40732
20.1701
43.9639
76.906
121.038
177.975
248.49
332.092
426.694
528.422
631.675
729.443
813.889
877.141
912.201
913.837
879.337
809.007
706.322
577.708
431.956
279.356
130.647
-4.08891
-116.43
-200.419
-253.058
-274.46
-267.638
-237.987
-192.534
-139.056
-85.1739
-37.5475
-1.23651
20.6929
27.2982
19.6322
0.39519
-26.572
-56.8775
-86.1725
-110.678
-127.585
-135.3
-133.504
-123.063
-105.791
-84.1205
-60.739
-38.2234
-18.7312
-3.77625
5.8906
10.2917
10.1335
6.63963
1.33579
-4.18188
-8.46303
-10.3782
-9.23455
-4.82311
2.6011
12.3972
23.6587
35.3559
46.4807
56.1734
63.8184
69.0984
72.004
72.8019
71.9698
70.1082
67.8442
65.7392
64.2128
63.4919
63.5888
64.3107
65.2958
66.0714
66.1239
64.9714
62.2306
57.6687
51.2349
43.0692
33.4876
22.9477
11.9983
1.22113
-8.82909
-17.6783
-24.9753
-30.5183
-34.2632
-36.3144
-36.9005
-36.3386
-34.9922
-33.2281
-31.378
-29.7073
-28.396
-27.5308
-27.1094
-27.0546
-27.2351
-27.4907
-27.6575
-27.5901
-27.179
-26.3613
-25.124
-23.5006
-21.5626
-19.4068
-17.1413
-14.8722
-12.6921
-10.6719
-8.85672
-7.26547
-5.8937
-4.7188
-3.70634
-2.81647
-2.00942
-1.24958
-0.507771
0.23812
1.00379
1.80004
2.63455
3.51359
4.44335
5.43082
6.48429
7.61363
8.8306
10.149
11.585
13.1567
14.8838
16.7857
18.8801
21.1795
23.6886
26.4014
29.2992
32.3499
35.5085
38.7198
41.9211
45.0465
48.03
50.8074
53.3161
55.4928
57.2688
58.565
59.2876
59.3262
58.5564
56.8474
54.0755
50.1407
44.9864
38.6174
31.1149
22.644
13.4517
3.85569
-5.77701
-15.0589
-23.6151
-31.1176
-37.3147
-42.0534
-45.2908
-47.0932
-47.6236
-47.1185
-45.8585
-44.1356
-42.2205
-40.331
-38.6023
-37.0556
-35.5623
-33.8002
-31.2023
-26.9028
-19.6947
-8.01749
9.99841
36.4078
73.2319
122.147
184.107
258.951
345.064
439.173
536.345
630.226
713.538
778.78
819.063
828.965
805.277
747.544
658.293
542.911
409.189
266.56
125.149
-5.26477
-116.234
-201.456
-257.33
-283.185
-281.175
-255.865
-213.577
-161.575
-107.217
-57.1498
-16.6631
10.7543
23.6076
22.3424
9.07263
-12.859
-39.4181
-66.4418
-90.1559
-107.591
-116.857
-117.255
-109.238
-94.2259
-74.3327
-52.0292
-29.801
-9.84052
6.19243
17.3187
23.2876
24.5284
22.0226
17.1195
11.3254
6.09479
2.64946
1.84575
4.10154
9.38583
17.266
27.0003
37.66
48.2618
57.8927
65.8128
71.526
74.8105
75.7138
74.5127
71.6503
67.6595
63.084
58.4084
54.0039
50.0957
46.753
43.9011
41.3502
38.8365
36.0696
32.7782
28.7505
23.864
18.1022
11.5574
4.42045
-3.04113
-10.5132
-17.6688
-24.2025
-29.8604
-34.4629
-37.918
-40.224
-41.4617
-41.7772
-41.359
-40.4114
-39.1273
-37.6659
-36.1356
-34.5866
-33.012
-31.3579
-29.5407
-27.4682
-25.0619
-22.2756
-19.1098
-15.6175
-11.9021
-8.10748
-4.40214
-0.959599
2.06186
4.53723
6.38824
7.59066
8.17462
8.21829
7.83603
7.16288
6.33757
5.48622
4.70878
4.06957
3.59272
3.26269
3.02945
2.81749
2.53767
2.10057
1.43024
0.476813
-0.773181
-2.28999
-3.99832
-5.78003
-7.48174
-8.92699
-9.93161
-10.321
-9.94725
-8.70473
-6.54166
-3.46706
0.447995
5.07472
10.2357
15.7171
21.2833
26.6906
31.701
36.0929
39.6708
42.2726
43.7752
44.0997
43.2152
41.1415
37.951
33.7677
28.7632
23.1495
17.1676
11.0733
5.1198
-0.459644
-5.46842
-9.76038
-13.2491
-15.9114
-17.7857
-18.9639
-19.5799
-19.7956
-19.7864
-19.729
-19.7912
-20.1244
-20.8566
-22.0822
-23.8436
-26.1012
-28.6854
-31.2332
-33.1116
-33.3413
-30.5394
-22.9075
-8.29334
15.6514
51.2053
100.214
163.665
241.266
331.094
429.412
530.71
628.018
713.475
779.111
817.752
823.909
794.547
729.598
632.145
508.237
366.346
216.533
69.43
-64.8462
-177.703
-262.888
-317.022
-339.79
-333.789
-304.057
-257.376
-201.415
-143.849
-91.5455
-49.9038
-22.4235
-10.5205
-13.5984
-29.3416
-54.177
-83.8333
-113.926
-140.494
-160.431
-171.772
-173.807
-167.042
-153.007
-133.964
-112.552
-91.4209
-72.9048
-58.7586
-49.9964
-46.8334
-48.7333
-54.5415
-62.6838
-71.398
-78.9686
-83.9362
-85.2585
-82.408
-75.3993
-64.7498
-51.3826
-36.488
-21.3631
-7.25023
4.80644
14.0702
20.1762
23.1458
23.3531
21.4504
18.265
14.6813
11.5251
9.46272
8.92744
10.0804
12.8081
16.7548
21.3828
26.0523
30.1084
32.9651
34.1764
33.4855
30.8492
26.4349
20.5938
13.8143
6.66253
-0.280751
-6.48122
-11.5016
-15.0379
-16.9378
-17.2014
-15.9652
-13.4733
-10.0397
-6.00699
-1.70637
2.57762
6.63325
10.3372
13.6584
16.6511
19.4369
22.1808
25.0622
28.2449
31.85
35.9345
40.4782
45.3793
50.461
55.4862
60.1797
64.2555
67.4448
69.5227
70.3306
69.7916
67.9169
64.804
60.626
55.6136
50.0324
44.1576
38.2506
32.538
27.1972
22.3488
18.0563
14.332
11.1476
8.44719
6.16045
4.21422
2.54071
1.08193
-0.209574
-1.37294
-2.4431
-3.45528
-4.44879
-5.46907
-6.56771
-7.80034
-9.22321
-10.8895
-12.8459
-15.1317
-17.7785
-20.8129
-24.2601
-28.1472
-32.506
-37.3733
-42.7877
-48.7834
-55.3799
-62.5696
-70.3045
-78.4845
-86.9494
-95.4773
-103.79
-111.565
-118.458
-124.127
-128.26
-130.605
-130.989
-129.337
-125.678
-120.141
-112.945
-104.376
-94.7693
-84.4755
-73.8404
-63.1772
-52.7397
-42.6908
-33.0618
-23.6998
-14.2037
-3.8541
8.44951
24.2233
45.3798
74.1284
112.776
163.422
227.574
305.71
396.877
498.393
605.729
712.647
811.605
894.416
953.097
980.804
972.713
926.737
843.953
728.666
588.103
431.742
270.386
115.062
-24.0817
-138.772
-223.373
-275.327
-295.244
-286.631
-255.326
-208.708
-154.796
-101.339
-55.0217
-20.8422
-1.74781
1.47178
-9.96775
-33.2108
-64.279
-98.6648
-131.923
-160.193
-180.589
-191.441
-192.35
-184.093
-168.392
-147.597
-124.326
-101.117
-80.1312
-62.934
-50.3828
-42.6123
-39.1146
-38.8901
-40.6429
-42.9896
-44.6546
-44.6262
-42.2603
-37.3229
-29.974
-20.7014
-10.2198
0.647911
11.0894
20.4061
28.0893
33.8617
37.6838
39.7277
40.3264
39.9065
38.9165
37.7596
36.7396
36.0256
35.6385
35.4591
35.2558
34.7262
33.5468
31.4242
28.1403
23.5866
17.7838
10.8841
3.15779
-5.03423
-13.2779
-21.1479
-28.2495
-34.2544
-38.9284
-42.1464
-43.895
-44.2634
-43.424
-41.6066
-39.0693
-36.0704
-32.8439
-29.5823
-26.4263
-23.4625
-20.7287
-18.2236
-15.9204
-13.7804
-11.7656
-9.84812
-8.01615
-6.27491
-4.64429
-3.15338
-1.83317
-0.709022
0.205923
0.915199
1.44077
1.82179
2.11071
2.36728
2.65152
3.01661
3.50283
4.13333
4.91229
5.8257
6.84444
7.9293
9.03702
10.1267
11.1656
12.1338
13.0272
13.8583
14.6559
15.4627
16.3313
17.3205
18.4898
19.8955
21.5858
23.5984
25.958
28.6762
31.7516
35.1708
38.9099
42.9342
47.1977
51.6404
56.1841
60.7273
65.1398
69.2586
72.8873
75.7996
77.7485
78.4813
77.7593
75.3794
71.1975
65.1481
57.259
47.6598
36.5803
24.3411
11.3346
-2.00041
-15.2094
-27.8547
-39.5473
-49.9745
-58.921
-66.2814
-72.0632
-76.379
-79.4302
-81.4816
-82.8305
-83.7718
-84.5639
-85.3957
-86.3598
-87.4299
-88.4421
-89.0749
-88.822
-86.9562
-82.4831
-74.096
-60.1494
-38.6794
-7.49868
35.6087
92.5884
164.73
252.239
353.842
466.508
585.359
703.844
814.18
908.046
977.444
1015.63
1017.98
982.634
910.886
807.166
678.683
534.713
385.664
242.003
113.208
6.84795
-72.0792
-121.507
-142.313
-138.012
-114.181
-77.7007
-35.914
4.19916
36.7346
57.3953
63.7956
55.522
33.9683
1.98142
-36.621
-77.5956
-116.811
-150.716
-176.694
-193.266
-200.146
-198.147
-188.964
-174.883
-158.45
-142.138
-128.067
-117.792
-112.183
-111.399
-114.952
-121.836
-130.713
-140.109
-148.603
-154.998
-158.43
-158.432
-154.935
-148.226
-138.864
-127.571
-115.129
-102.275
-89.6269
-77.6346
-66.566
-56.5192
-47.4584
-39.2632
-31.7808
-24.8732
-18.4524
-12.4981
-7.05996
-2.24241
1.82009
4.99434
7.17925
8.33119
8.48009
7.73377
6.27061
4.3219
2.14702
0.00507373
-1.87266
-3.30607
-4.18225
-4.46267
-4.18111
-3.43309
-2.35898
-1.12305
0.108402
1.18714
1.99905
2.47449
2.59217
2.37678
1.8912
1.22479
0.479656
-0.243333
-0.856842
-1.29647
-1.52633
-1.54043
-1.36033
-1.02947
-0.605446
-0.151339
0.272773
0.616989
0.846747
0.945517
0.914948
0.772728
0.548657
0.279625
0.00422503
-0.242269
-0.431973
-0.547109
-0.581163
-0.538499
-0.432658
-0.283667
-0.114802
0.0508111
0.193425
0.299562
0.36453
0.394614
0.408943
0.440941
0.539068
0.766432
1.19883
1.92092
3.02047
4.58107
6.67414
9.35107
12.6367
16.5251
20.9778
25.9249
31.2688
36.8894
42.6493
48.4001
53.9861
59.2486
64.0279
68.1658
71.5079
73.9076
75.231
75.3635
74.2188
71.7484
67.9519
62.8855
56.6683
49.4848
41.5805
33.2527
24.8336
16.669
9.09328
2.40265
-3.16845
-7.46687
-10.4326
-12.1019
-12.6002
-12.1273
-10.9341
-9.29597
-7.48337
-5.73439
-4.229
-3.06575
-2.23831
-1.60804
-0.868566
0.500064
3.28539
8.59591
17.8967
33.0036
56.0081
89.111
134.354
193.259
266.415
353.073
450.826
555.461
661.048
760.292
845.154
907.667
940.854
939.625
901.52
827.171
720.43
588.097
439.305
284.606
134.901
0.316771
-110.799
-192.671
-242.571
-260.934
-251.116
-218.844
-171.426
-116.849
-62.8548
-16.125
18.3523
37.6655
41.0906
29.9377
7.1756
-23.1014
-56.2874
-87.8771
-114.003
-131.84
-139.841
-137.789
-126.685
-108.489
-85.7758
-61.3459
-37.8511
-17.4787
-1.72838
8.69887
13.8978
14.653
12.2557
8.27361
4.30947
1.78094
1.74763
4.80353
11.0418
20.089
31.1972
43.3757
55.5412
66.6654
75.9
82.6669
86.704
88.0664
87.0859
84.2999
80.3596
75.933
71.6151
67.8549
64.9093
62.8254
61.4523
60.4784
59.4869
58.0229
55.6606
52.0644
47.036
40.5419
32.7199
23.8638
14.3909
4.79426
-4.41106
-12.7429
-19.8011
-25.3048
-29.1156
-31.2426
-31.8324
-31.1437
-29.5119
-27.3082
-24.8976
-22.601
-20.6664
-19.2494
-18.408
-18.1073
-18.236
-18.6301
-19.0999
-19.4586
-19.5474
-19.2541
-18.5254
-17.3692
-15.8499
-14.076
-12.1836
-10.3171
-8.61089
-7.17321
-6.07513
-5.34478
-4.96754
-4.89162
-5.03764
-5.31077
-5.61352
-5.85747
-5.97266
-5.91349
-5.66089
-5.22059
-4.61804
-3.89039
-3.07673
-2.20732
-1.29309
-0.316607
0.774381
2.06984
3.69624
5.81116
8.59413
12.2343
16.9159
22.8024
30.0197
38.6398
48.6652
60.0166
72.5234
85.9204
99.8504
113.874
127.486
140.138
151.271
160.342
166.868
170.452
170.821
167.849
161.572
152.195
140.083
125.744
109.795
92.9269
75.8543
59.2716
43.8059
29.9774
18.1692
8.6086
1.36189
-3.65829
-6.67322
-8.00933
-8.06318
-7.26425
-6.03878
-4.77718
-3.80604
-3.3635
-3.57473
-4.42295
-5.71148
-7.01417
-7.61673
-6.45789
-2.08774
7.33248
23.962
50.1197
88.0199
139.414
205.173
284.873
376.459
476.077
578.126
675.588
760.608
825.291
862.599
867.244
836.443
770.406
672.494
549.002
408.586
261.392
118.018
-11.5814
-119.103
-198.69
-247.428
-265.487
-255.915
-224.11
-177.075
-122.527
-68.0078
-20.0751
16.3186
38.208
44.7316
36.9923
17.7026
-9.32173
-39.7444
-69.2895
-94.2499
-111.871
-120.577
-120.023
-111
-95.2057
-74.9311
-52.7127
-30.9917
-11.8255
3.3215
13.6893
19.2329
20.5423
18.6917
15.0442
11.0413
8.00613
6.9831
8.63066
13.1754
20.4267
29.8431
40.6375
51.9023
62.7371
72.3621
80.2029
85.9405
89.5212
91.1315
91.1427
90.0372
88.3273
86.478
84.8436
83.6266
82.8595
82.4128
82.0242
81.3442
79.9912
77.6077
73.9126
68.7405
62.0675
54.0176
44.8531
34.9483
24.7522
14.7431
5.38236
-2.92943
-9.88733
-15.3058
-19.129
-21.4265
-22.3773
-22.243
-21.3347
-19.9777
-18.4775
-17.0918
-16.0096
-15.3412
-15.1165
-15.2937
-15.7741
-16.4219
-17.0857
-17.6189
-17.8976
-17.8328
-17.3781
-16.5309
-15.3284
-13.8406
-12.1589
-10.3846
-8.61752
-6.94595
-5.43902
-4.14241
-3.07686
-2.2397
-1.60842
-1.14581
-0.805738
-0.538717
-0.296739
-0.0368363
0.276814
0.672267
1.17042
1.78652
2.532
3.41637
4.44864
5.6381
6.99441
8.52721
10.2451
12.1547
14.2592
16.5578
19.0442
21.7062
24.5253
27.4754
30.5222
33.6221
36.7203
39.7488
42.624
45.2456
47.4956
49.2404
50.3348
50.6296
49.9814
48.265
45.3876
41.3011
36.0144
29.6006
22.2005
14.0191
5.31697
-3.60516
-12.4264
-20.8287
-28.5211
-35.2619
-40.8765
-45.2694
-48.4271
-50.4142
-51.3602
-51.4409
-50.8552
-49.8004
-48.4459
-46.9074
-45.2179
-43.294
-40.8941
-37.5674
-32.5981
-24.9547
-13.2625
4.17755
29.2982
64.0859
110.305
169.144
240.831
324.265
416.766
513.992
610.088
698.091
770.555
820.341
841.469
829.91
784.202
705.798
599.075
470.995
330.458
187.419
51.8691
-67.1637
-162.507
-229.495
-266.325
-274.077
-256.416
-219.016
-168.813
-113.153
-58.9728
-12.0887
23.3221
45.0061
52.6676
47.7725
33.1642
12.5578
-10.0162
-30.7459
-46.4868
-55.0797
-55.5119
-47.9184
-33.4399
-13.9705
8.16162
30.5336
50.9412
67.6507
79.5627
86.2772
88.0618
85.7365
80.5001
73.7239
66.7454
60.6874
56.324
54.0076
53.6611
54.8306
56.7872
58.6595
59.5775
58.8063
55.8531
50.5338
42.9938
33.6816
23.2832
12.6279
2.579
-6.07405
-12.7086
-16.9362
-18.6362
-17.9556
-15.2752
-11.15
-6.23351
-1.19509
3.35709
6.94008
9.23939
10.1284
9.66344
8.0578
5.63911
2.79753
-0.0684385
-2.60144
-4.52461
-5.66694
-5.97286
-5.49664
-4.38386
-2.84341
-1.11477
0.565117
1.99111
3.01202
3.54368
3.5723
3.14859
2.37452
1.38503
0.327608
-0.657563
-1.4544
-1.98289
-2.20533
-2.12646
-1.78843
-1.26141
-0.631876
0.010051
0.582298
1.0203
1.28319
1.35634
1.25006
0.995028
0.635107
0.21869
-0.210277
-0.620271
-0.998049
-1.35151
-1.70916
-2.11615
-2.62742
-3.2989
-4.17775
-5.2932
-6.64904
-8.21898
-9.94565
-11.7434
-13.5051
-15.1114
-16.4424
-17.3896
-17.8669
-17.82
-17.2312
-16.1219
-14.5499
-12.6035
-10.3917
-8.03333
-5.64473
-3.32928
-1.16994
0.773318
2.46026
3.86146
4.94511
5.66199
5.93181
5.63443
4.60869
2.66088
-0.417101
-4.82124
-10.7039
-18.142
-27.1089
-37.4564
-48.9082
-61.0675
-73.4394
-85.4636
-96.5571
-106.16
-113.784
-119.047
-121.713
-121.703
-119.107
-114.171
-107.275
-98.8962
-89.5605
-79.7852
-70.0063
-60.4993
-51.2903
-42.0666
-32.096
-20.1722
-4.60887
16.6943
46.0921
85.931
138.192
204.067
283.533
374.983
475.009
578.398
678.386
767.184
836.717
879.513
889.615
863.391
800.124
702.281
575.423
427.741
269.277
110.929
-36.654
-164.129
-264.358
-333.038
-368.988
-374.093
-352.902
-311.967
-259
-201.974
-148.257
-103.905
-73.152
-58.1706
-59.0865
-74.2318
-100.582
-134.305
-171.347
-207.979
-241.236
-269.217
-291.205
-307.621
-319.827
-329.811
-339.805
-351.888
-367.619
-387.75
-412.049
-439.253
-467.162
-492.854
-513.01
-524.304
-523.81
-509.398
-480.038
-436.002
-378.913
-311.643
-238.066
-162.69
-90.2087
-25.04
29.1138
69.6164
95.1261
105.677
102.608
88.3541
66.1308
39.5524
12.2346
-12.5721
-32.2795
-45.1575
-50.4181
-48.1854
-39.3678
-25.4572
-8.28542
10.2279
28.3059
44.4993
57.8085
67.7362
74.2729
77.8255
79.1033
78.9831
78.3695
78.0717
78.7069
80.6419
83.9739
88.5492
94.0127
99.8777
105.605
110.681
114.68
117.315
118.458
118.142
116.54
113.927
110.638
107.017
103.375
99.9524
96.8973
94.2588
91.9914
89.972
88.0257
85.9544
83.5658
80.6985
77.24
73.1367
68.3957
63.0789
57.2923
51.1715
44.8679
38.5351
32.3195
26.3529
20.7493
15.6034
10.9912
6.97006
3.57936
0.839982
-1.24666
-2.69979
-3.56022
-3.89024
-3.77225
-3.30566
-2.60219
-1.77969
-0.954921
-0.235979
0.284757
0.536194
0.471516
0.0677651
-0.678312
-1.75777
-3.15913
-4.87828
-6.92662
-9.33544
-12.1551
-15.449
-19.2816
-23.7037
-28.7343
-34.3448
-40.4452
-46.8779
-53.4208
-59.8012
-65.7231
-70.9049
-75.1263
-78.2781
-80.4091
-81.7606
-82.7817
-84.12
-86.5831
-91.0724
-98.4962
-109.668
-125.204
-145.435
-170.337
-199.493
-232.083
-266.91
-302.436
-336.838
-368.061
-393.862
-411.855
-419.55
-414.421
-394.004
-356.068
-298.854
-221.389
-123.849
-7.90753
122.988
263.498
406.495
543.438
665.008
761.957
826.067
851.105
833.626
773.494
674.061
541.93
386.351
218.307
49.4056
-109.273
-248.245
-360.457
-441.82
-491.361
-511.016
-505.109
-479.584
-441.136
-396.326
-350.817
-308.814
-272.758
-243.289
-219.474
-199.219
-179.805
-158.464
-132.892
-101.652
-64.407
-21.9618
23.8646
70.5182
115.081
154.68
186.863
209.91
223.017
226.353
220.988
208.704
191.732
172.45
153.088
135.478
120.882
109.9
102.489
98.0493
95.5824
93.8872
91.7586
88.1688
82.4053
74.1518
63.5064
50.9405
37.2083
23.2248
9.93003
-1.84003
-11.4607
-18.5902
-23.1997
-25.5607
-26.1947
-25.794
-25.1255
-24.9316
-25.8393
-28.2889
-32.4901
-38.4072
-45.7747
-54.1377
-62.9124
-71.4551
-79.1348
-85.3974
-89.8177
-92.1335
-92.2602
-90.2866
-86.4547
-81.1256
-74.7391
-67.7689
-60.68
-53.8904
-47.7421
-42.4807
-38.2463
-35.0738
-32.9024
-31.5908
-30.9383
-30.7066
-30.6435
-30.5049
-30.0741
-29.1791
-27.7048
-25.6013
-22.8863
-19.6421
-16.0071
-12.1619
-8.31205
-4.66776
-1.42394
1.25843
3.26713
4.54812
5.10887
5.01508
4.38145
3.35783
2.11225
0.813109
-0.3876
-1.36807
-2.04622
-2.38406
-2.38697
-2.09812
-1.58934
-0.949529
-0.272434
0.354947
0.861889
1.20054
1.34909
1.31146
1.11396
0.79956
0.420765
0.0321294
-0.316704
-0.586589
-0.752563
-0.805386
-0.750958
-0.607933
-0.404001
-0.171446
0.0573865
0.254135
0.397545
0.475359
0.484879
0.432278
0.330868
0.198659
0.055599
-0.0791428
-0.189499
-0.264191
-0.297631
-0.290019
-0.246698
-0.17693
-0.0923187
-0.00509303
0.0734974
0.134505
0.172185
0.184407
0.172573
0.141152
0.0971127
0.0500345
0.0144258
0.016989
0.11273
0.414423
1.1391
2.67229
5.64516
11.0124
20.1099
34.6657
56.7343
88.5315
132.159
189.234
260.46
345.207
441.182
544.268
648.607
746.955
831.294
893.653
927.027
926.275
888.862
815.328
709.416
577.808
429.518
274.991
125.039
-10.2677
-122.595
-206.132
-258.064
-278.688
-271.179
-241.055
-195.404
-142.003
-88.4195
-41.2171
-5.33858
16.2652
22.7439
15.2005
-3.66938
-30.09
-59.7922
-88.5967
-112.923
-130.169
-138.925
-139.019
-131.397
-117.877
-100.818
-82.757
-66.0588
-52.6279
-43.709
-39.7922
-40.6262
-45.3248
-52.5449
-60.7053
-68.2143
-73.6766
-76.0539
-74.7659
-69.7225
-61.2917
-50.2136
-37.4761
-24.1731
-11.3635
0.0507383
9.41481
16.3709
20.866
23.1203
23.5645
22.7569
21.2921
19.7151
18.4502
17.754
17.6957
18.166
18.9097
19.5772
19.7855
19.18
17.4898
14.5677
10.4128
5.17285
-0.872742
-7.34517
-13.8095
-19.8222
-24.9777
-28.9473
-31.508
-32.5578
-32.1177
-30.3207
-27.3921
-23.6219
-19.3346
-14.8585
-10.4984
-6.51333
-3.10037
-0.386339
1.57384
2.79218
3.33748
3.32145
2.88291
2.17153
1.33285
0.495798
-0.2365
-0.791996
-1.13115
-1.24484
-1.14961
-0.88104
-0.48655
-0.0183661
0.472449
0.940532
1.34915
1.67169
1.89192
2.00367
2.01025
1.92455
1.77056
1.58703
1.434
1.402
1.62316
2.2825
3.62689
5.9692
9.68511
15.201
22.9725
33.4545
47.0639
64.1387
84.8958
109.392
137.492
168.848
202.892
238.847
275.751
312.504
347.924
380.81
410.013
434.5
453.412
466.11
472.208
471.582
464.372
450.964
431.957
408.124
380.359
349.619
316.867
283.008
248.829
214.951
181.78
149.482
117.976
86.9472
55.8896
24.1725
-8.87169
-43.8468
-81.1895
-121.077
-163.354
-207.496
-252.597
-297.402
-340.362
-379.708
-413.526
-439.838
-456.66
-462.052
-454.174
-431.35
-392.168
-335.632
-261.381
-169.944
-63.0097
56.3326
183.471
312.307
435.512
545.005
632.639
691.019
714.352
699.214
645.115
554.763
433.969
291.2
136.798
-18.0259
-162.3
-286.382
-382.879
-447.305
-478.381
-477.982
-450.727
-403.282
-343.488
-279.409
-218.43
-166.51
-127.665
-103.72
-94.3587
-97.4167
-109.375
-125.972
-142.845
-156.126
-162.902
-161.52
-151.693
-134.414
-111.713
-86.3027
-61.1534
-39.081
-22.3791
-12.5515
-10.165
-14.8336
-25.3242
-39.762
-55.8995
-71.4121
-84.1803
-92.5238
-95.3641
-92.301
-83.6017
-70.1127
-53.1117
-34.1247
-14.733
3.60519
19.6995
32.724
42.2609
48.2914
51.1421
51.3977
49.7967
47.1232
44.1098
41.3619
39.3103
38.1934
38.069
38.8468
40.3379
42.3091
44.5346
46.8387
49.1226
51.3744
53.6618
56.1105
58.8735
62.096
65.8826
70.2725
75.224
80.6129
86.2422
91.862
97.1962
101.971
105.942
108.918
110.768
111.435
110.919
109.271
106.569
102.897
98.3334
92.934
86.7352
79.7611
72.0401
63.6264
54.6197
45.181
35.5389
25.9835
16.8498
8.48917
1.23558
-4.63058
-8.91492
-11.5332
-12.5236
-12.0446
-10.3599
-7.81088
-4.78091
-1.6562
1.21251
3.54227
5.14099
5.91821
5.88256
5.12563
3.79338
2.04804
0.0248883
-2.21005
-4.69375
-7.58407
-11.1553
-15.7676
-21.8122
-29.6358
-39.4586
-51.2969
-64.9085
-79.7728
-95.1148
-109.973
-123.305
-134.116
-141.586
-145.186
-144.749
-140.5
-133.024
-123.188
-112.026
-100.597
-89.8519
-80.5178
-73.0228
-67.4681
-63.6499
-61.1262
-59.3152
-57.6094
-55.4899
-52.6237
-48.9336
-44.6324
-40.2178
-36.4318
-34.1873
-34.4711
-38.2319
-46.2643
-59.0978
-76.8991
-99.3943
-125.814
-154.865
-184.725
-213.076
-237.166
-253.933
-260.183
-252.844
-229.291
-187.724
-127.555
-49.7513
42.9292
145.887
252.85
356.288
448.043
520.124
565.562
579.218
558.44
503.45
417.426
306.243
177.897
41.699
-92.6792
-216.172
-321.193
-402.303
-456.606
-483.834
-486.135
-467.602
-433.626
-390.162
-343.008
-297.178
-256.456
-223.136
-197.999
-180.474
-168.951
-161.188
-154.749
-147.401
-137.428
-123.828
-106.382
-85.5934
-62.5283
-38.5911
-15.269
6.10905
24.5678
39.612
51.2705
60.0586
66.8709
72.8234
79.0717
86.6305
96.2208
108.163
122.327
138.15
154.699
170.795
185.153
196.538
203.911
206.543
204.098
196.664
184.732
169.138
150.963
131.415
111.701
92.9051
75.8915
61.2391
49.2132
39.7793
32.6505
27.3626
23.363
20.1011
17.1068
14.0476
10.7587
7.24388
3.65132
0.229163
-2.72951
-4.94466
-6.20216
-6.39558
-5.55324
-3.84866
-1.59481
0.776626
2.7481
3.75835
3.24996
0.718602
-4.2403
-11.8914
-22.3298
-35.4646
-51.0188
-68.5446
-87.4554
-107.071
-126.672
-145.558
-163.109
-178.833
-192.403
-203.678
-212.701
-219.671
-224.91
-228.799
-231.718
-233.988
-235.813
-237.25
-238.184
-238.342
-237.313
-234.597
-229.667
-222.03
-211.296
-197.242
-179.851
-159.345
-136.193
-111.087
-84.9073
-58.6619
-33.4105
-10.183
10.1023
26.7134
39.1633
47.2476
51.0566
50.9609
47.5713
41.6769
34.1683
25.9522
17.8673
10.6096
4.67631
0.331835
-2.39773
-3.70418
-3.9529
-3.6213
-3.22775
-3.25967
-4.1089
-6.02134
-9.06595
-13.1262
-17.9145
-23.0075
-27.8987
-32.0607
-35.0112
-36.373
-35.9219
-33.6151
-29.5986
-24.1911
-17.8471
-11.1059
-4.53015
1.35522
6.11859
9.46413
11.2584
11.5414
10.526
8.59418
6.30018
4.38493
3.80292
5.74929
11.6661
23.2
42.0861
69.9436
107.99
156.707
215.51
282.495
354.332
426.36
492.901
547.784
585.025
599.562
587.95
548.91
483.629
395.772
291.187
177.335
62.5083
-45.0406
-137.973
-210.613
-259.479
-283.556
-284.265
-265.154
-231.365
-188.954
-144.15
-102.654
-69.0516
-46.4099
-36.0892
-37.7723
-49.6918
-69.006
-92.2657
-115.902
-136.675
-152.032
-160.338
-160.97
-154.271
-141.391
-124.055
-104.272
-84.0599
-65.193
-49.0117
-36.3095
-27.3009
-21.6653
-18.6541
-17.239
-16.2818
-14.7004
-11.6111
-6.43206
1.06215
10.7382
22.1487
34.6152
47.333
59.4847
70.343
79.3521
86.1778
90.7239
93.1152
93.6549
92.7646
90.916
88.566
86.1013
83.7988
81.8047
80.1325
78.6776
77.2456
75.5896
73.4512
70.6005
66.8715
62.188
56.5792
50.1816
43.2291
36.0297
28.9335
22.2934
16.4236
11.5614
7.83684
5.25449
3.69142
2.91172
2.59686
2.38861
1.93906
0.961526
-0.725042
-3.16456
-6.25062
-9.73447
-13.2543
-16.3828
-18.6859
-19.7863
-19.42
-17.4799
-14.0374
-9.34005
-3.78452
2.13188
7.87348
12.9341
16.9005
19.5024
20.6421
20.3995
19.0125
16.8363
14.2883
11.7855
9.68499
8.2348
7.54185
7.56082
8.10491
8.87633
9.51202
9.63784
8.92386
7.13342
4.15938
0.0433625
-5.0242
-10.7225
-16.6343
-22.2907
-27.221
-31.0014
-33.298
-33.8991
-32.7352
-29.8841
-25.5644
-20.1169
-13.9785
-7.65184
-1.67222
3.42441
7.13265
9.00648
8.68576
5.91949
0.585171
-7.29694
-17.5562
-29.8718
-43.7829
-58.7086
-73.9804
-88.8843
-102.712
-114.814
-124.659
-131.876
-136.29
-137.94
-137.067
-134.092
-129.564
-124.1
-118.322
-112.793
-107.958
-104.112
-101.357
-99.5868
-98.4526
-97.3348
-95.304
-91.0882
-83.0611
-69.2788
-47.589
-15.8308
27.8713
84.742
154.963
237.321
328.977
425.417
520.65
607.649
679.017
727.793
748.304
736.926
692.651
617.363
515.779
395.036
263.994
132.327
9.52354
-96.0806
-178.118
-232.76
-258.978
-258.48
-235.35
-195.434
-145.578
-92.8028
-43.5294
-2.93246
25.5038
40.195
41.4254
31.1014
12.338
-11.0549
-35.1176
-56.2447
-71.5935
-79.3556
-78.8719
-70.5933
-55.9082
-36.8724
-15.8841
4.64804
22.6029
36.3773
45.0263
48.3085
46.6381
40.9631
32.5928
23.0012
13.6356
5.75233
0.295567
-2.17024
-1.4755
2.18686
8.33039
16.2673
25.2097
34.3677
43.0328
50.6395
56.8012
61.3201
64.173
65.4785
65.452
64.3556
62.451
59.9607
57.0424
53.7802
50.1905
46.2418
41.883
37.0745
31.8164
26.1692
20.2621
14.2895
8.49446
3.14268
-1.50925
-5.24604
-7.92173
-9.47899
-9.95707
-9.4875
-8.27851
-6.59108
-4.71009
-2.91484
-1.45258
-0.518003
-0.240755
-0.681331
-1.83476
-3.64013
-5.99356
-8.76209
-11.7967
-14.9433
-18.0525
-20.9871
-23.6298
-25.8903
-27.711
-29.072
-29.9924
-30.5285
-30.7665
-30.8111
-30.77
-30.7365
-30.7733
-30.9004
-31.0897
-31.2683
-31.3301
-31.1548
-30.6305
-29.6765
-28.2628
-26.4216
-24.2499
-21.901
-19.5669
-17.4523
-15.7448
-14.5845
-14.0379
-14.0803
-14.5899
-15.3544
-16.092
-16.4821
-16.2041
-14.9771
-12.596
-8.95854
-4.07841
1.91575
8.79638
16.2645
23.9843
31.6185
38.8604
45.4562
51.2159
56.0126
59.7715
62.4526
64.0317
64.4857
63.7842
61.8916
58.7785
54.4404
48.9215
42.336
34.8844
26.8583
18.6319
10.6383
3.33303
-2.85147
-7.55489
-10.5333
-11.6923
-11.1036
-9.00143
-5.75882
-1.84717
2.21609
5.92533
8.84483
10.6641
11.2505
10.7009
9.39607
8.05584
7.79102
10.1362
17.0424
30.8044
53.8974
88.7132
137.202
200.454
278.273
368.826
468.448
571.662
671.474
759.929
828.887
870.928
880.267
853.551
790.406
693.658
569.181
425.368
272.306
120.745
-19.0044
-138.108
-230.052
-291.198
-320.996
-321.834
-298.578
-257.854
-207.195
-154.139
-105.413
-66.2779
-40.099
-28.1841
-29.873
-42.8511
-63.6265
-88.0958
-112.123
-132.057
-145.139
-149.744
-145.469
-133.048
-114.138
-91.0187
-66.233
-42.2452
-21.1383
-4.39488
7.22419
13.6951
15.6516
14.2291
10.8608
7.05749
4.1995
3.36863
5.23671
10.02
17.4982
27.0898
37.9654
49.1828
59.8206
69.095
76.4441
81.5742
84.4637
85.3308
84.572
82.683
80.1744
77.4948
74.9704
72.7682
70.8864
69.1705
67.3506
65.0944
62.0651
57.9785
52.6488
46.0202
38.1789
29.3466
19.8562
10.115
0.559795
-8.38907
-16.3704
-23.1155
-28.4688
-32.3948
-34.9702
-36.3645
-36.8099
-36.5677
-35.8931
-35.0043
-34.0601
-33.1467
-32.2773
-31.4002
-30.4168
-29.2037
-27.6353
-25.6055
-23.0431
-19.9213
-16.2602
-12.1231
-7.60989
-2.84652
2.02478
6.85524
11.4978
15.8145
19.6825
22.9999
25.6912
27.7108
29.0451
29.7126
29.7599
29.2555
28.2813
26.9236
25.2645
23.3761
21.3171
19.1331
16.8592
14.5254
12.1613
9.80075
7.48543
5.26506
3.19608
1.33805
-0.251227
-1.52114
-2.43326
-2.9653
-3.11335
-2.89225
-2.33396
-1.48435
-0.398707
0.863245
2.24187
3.68087
5.12828
6.53473
7.84874
9.00968
9.9394
10.5343
10.6603
10.152
8.8196
6.46225
2.88971
-2.05144
-8.44923
-16.3001
-25.4892
-35.7814
-46.8243
-58.1654
-69.2811
-79.6141
-88.6164
-95.7927
-100.74
-103.179
-102.977
-100.16
-94.9119
-87.5593
-78.5524
-68.4302
-57.7793
-47.1829
-37.161
-28.1009
-20.1791
-13.2779
-6.90353
-0.118721
8.49229
20.8043
39.0554
65.6569
102.908
152.624
215.728
291.844
378.993
473.436
569.756
661.184
740.176
799.184
831.53
832.262
798.873
731.765
634.379
512.971
376.027
233.417
95.3667
-28.6068
-130.661
-205.386
-250.259
-265.752
-255.092
-223.729
-178.575
-127.136
-76.6347
-33.2433
-1.49658
16.0488
18.8927
8.41979
-12.4784
-39.9235
-69.6356
-97.5055
-120.086
-134.95
-140.884
-137.91
-127.152
-110.583
-90.6862
-70.0917
-51.235
-36.073
-25.8908
-21.2132
-21.8198
-26.8518
-34.9879
-44.6581
-54.2665
-62.3931
-67.9524
-70.2917
-69.2247
-65.0023
-58.2305
-49.7526
-40.5143
-31.4322
-23.2805
-16.6117
-11.7148
-8.61474
-7.10623
-6.81422
-7.26953
-7.98735
-8.53772
-8.59939
-7.99173
-6.68297
-4.77642
-2.47925
-0.0600478
2.19763
4.03899
5.27318
5.79613
5.59916
4.76361
3.44373
1.84124
0.175737
-1.34464
-2.54848
-3.31938
-3.60551
-3.42004
-2.8333
-1.95846
-0.933175
0.10009
1.01232
1.70275
2.1086
2.20907
2.02362
1.6054
1.0311
0.388909
-0.233719
-0.760963
-1.1369
-1.33038
-1.33621
-1.17267
-0.876021
-0.492666
-0.0700348
0.352587
0.752074
1.1271
1.50042
1.91724
2.43962
3.13749
4.0775
5.3112
6.86443
8.72958
10.8621
13.1818
15.5796
17.928
20.0946
21.9572
23.418
24.4148
24.9288
24.9878
24.6639
24.0673
23.3361
22.6245
22.0901
21.8812
22.1263
22.9259
24.3457
26.414
29.1205
32.4177
36.224
40.428
44.8951
49.473
53.9992
58.3073
62.2339
65.6234
68.3333
70.237
71.2266
71.214
70.1322
67.9366
64.6068
60.1493
54.601
48.0336
40.5571
32.3227
23.5226
14.3864
5.17346
-3.83907
-12.3726
-20.1658
-26.994
-32.6871
-37.1446
-40.3437
-42.3407
-43.2644
-43.3017
-42.6775
-41.6292
-40.3794
-39.1051
-37.9052
-36.7626
-35.4991
-33.7228
-30.7696
-25.6472
-16.9958
-3.08851
18.1051
48.7689
90.9932
146.437
215.931
299.073
393.9
496.695
602.021
703.006
791.884
860.748
902.428
911.38
884.448
821.404
725.151
601.569
459.006
307.464
157.589
19.5934
-97.7647
-188.018
-247.542
-275.773
-275.074
-250.286
-208.035
-155.886
-101.46
-51.6124
-11.7729
14.4964
25.6874
22.2795
6.4511
-18.3749
-48.0817
-78.4291
-105.575
-126.489
-139.224
-143.019
-138.257
-126.28
-109.114
-89.1372
-68.7502
-50.0754
-34.7281
-23.676
-17.194
-14.9114
-15.933
-19.0136
-22.7576
-25.8156
-27.0563
-25.6919
-21.3484
-14.0764
-4.3073
7.23456
19.6482
31.9831
43.361
53.076
60.6643
65.9363
68.9716
70.0801
69.7387
68.512
66.97
65.6124
64.8075
64.7542
65.4666
66.7844
68.4037
69.9244
70.9075
70.9344
69.662
66.8667
62.4734
56.5659
49.3788
41.2719
32.6921
24.1258
16.0489
8.88047
2.94346
-1.5613
-4.56743
-6.14019
-6.46021
-5.79632
-4.47132
-2.82487
-1.17773
0.198941
1.10636
1.43127
1.14879
0.315622
-0.944831
-2.46326
-4.04828
-5.51056
-6.68459
-7.44588
-7.72214
-7.49762
-6.81081
-5.7462
-4.42153
-2.97255
-1.53715
-0.241001
0.813635
1.55494
1.94386
1.9722
1.65727
1.03455
0.149837
-0.947713
-2.21055
-3.59509
-5.0614
-6.57065
-8.08134
-9.5453
-10.9047
-12.0914
-13.0279
-13.6326
-13.8253
-13.5357
-12.7113
-11.3235
-9.37215
-6.88584
-3.91859
-0.54294
3.15927
7.10698
11.2288
15.4687
19.7874
24.1583
28.5576
32.9513
37.2796
41.4428
45.2912
48.6217
51.1838
52.6949
52.8645
51.4258
48.1705
42.9828
35.8676
26.9687
16.5733
5.10054
-6.92543
-18.9163
-30.2694
-40.4219
-48.9021
-55.3728
-59.6598
-61.7644
-61.8553
-60.2437
-57.3424
-53.6145
-49.5191
-45.4581
-41.7312
-38.5026
-35.7781
-33.39
-30.985
-28.0075
-23.6758
-16.9526
-6.5205
9.21977
32.1024
64.0778
107.004
162.349
230.828
312.024
404.063
503.417
604.913
701.99
787.203
852.95
892.318
899.955
872.826
810.739
716.559
596.056
457.398
310.349
165.273
32.0644
-80.8487
-167.319
-224.005
-250.566
-249.498
-225.673
-185.633
-136.744
-86.3273
-40.8659
-5.37235
17.0115
25.1617
19.8689
3.51957
-20.3783
-47.7541
-74.5402
-97.1775
-113.002
-120.479
-119.275
-110.165
-94.8211
-75.5018
-54.7075
-34.8391
-17.9072
-5.3203
2.2268
4.76334
2.95914
-2.03135
-8.77014
-15.7517
-21.6048
-25.255
-26.0328
-23.7168
-18.5154
-10.9936
-1.96216
7.65449
16.951
25.1575
31.7261
36.3786
39.1137
40.1762
39.9952
39.1035
38.0489
37.311
37.2323
37.9738
39.4973
41.5769
43.8352
45.8003
46.9729
46.897
45.2233
41.7573
36.4879
29.5924
21.4176
12.4418
3.22149
-5.6691
-13.6988
-20.4327
-25.5721
-28.9777
-30.6732
-30.8319
-29.7465
-27.7898
-25.3681
-22.8757
-20.6547
-18.9634
-17.9576
-17.6844
-18.0889
-19.0317
-20.3143
-21.7081
-22.9848
-23.9435
-24.4319
-24.36
-23.7052
-22.5084
-20.8633
-18.9001
-16.766
-14.6059
-12.545
-10.6752
-9.04818
-7.67296
-6.5201
-5.53018
-4.62539
-3.72262
-2.74601
-1.63748
-0.364085
1.07859
2.66711
4.35448
6.07747
7.76559
9.35086
10.7771
12.0078
13.0318
13.8665
14.5579
15.1775
15.8168
16.5789
17.569
18.8843
20.604
22.7821
25.4413
28.5713
32.1287
36.0409
40.2109
44.5238
48.8528
53.0643
57.0215
60.5859
63.6169
65.9719
67.5065
68.077
67.5475
65.7996
62.7468
58.3508
52.6369
45.7073
37.7472
29.0231
19.8714
10.6772
1.84491
-6.23529
-13.2229
-18.8589
-22.9898
-25.5817
-26.722
-26.6077
-25.5231
-23.8089
-21.8264
-19.9206
-18.3853
-17.4317
-17.1595
-17.5278
-18.3215
-19.1098
-19.1963
-17.5667
-12.8467
-3.29095
13.1694
38.7973
75.8208
126.107
190.764
269.724
361.379
462.356
567.492
670.083
762.386
836.359
884.542
900.977
882.016
826.912
738.089
621.033
483.823
336.328
189.204
52.7846
-63.9749
-154.372
-214.556
-243.78
-244.293
-220.9
-180.261
-130.029
-77.9289
-30.9109
5.55165
27.9286
34.8371
26.9777
6.83246
-21.8172
-54.4805
-86.5743
-113.991
-133.551
-143.303
-142.639
-132.239
-113.861
-90.0194
-63.6047
-37.4929
-14.1974
4.39906
17.2068
23.9761
25.2345
22.1338
16.2348
9.2644
2.87645
-1.55125
-3.06385
-1.20659
3.97005
11.9703
21.9637
32.9269
43.7955
53.6048
61.6041
67.331
70.6413
71.6951
70.9047
68.8535
66.2012
63.5855
61.5343
60.3996
60.3174
61.2006
62.7604
64.5552
66.058
66.7334
66.1131
63.8623
59.826
54.0519
46.7867
38.4468
29.5692
20.748
12.5662
5.53052
0.0182339
-3.75886
-5.76929
-6.15501
-5.20473
-3.31204
-0.924221
1.51133
3.59648
5.02196
5.59317
5.24027
4.01281
2.06094
-0.393349
-3.09031
-5.76738
-8.19058
-10.1788
-11.6188
-12.4704
-12.7616
-12.576
-12.0349
-11.2772
-10.439
-9.63776
-8.95977
-8.45469
-8.13535
-7.98269
-7.95443
-7.99562
-8.04932
-8.06592
-8.00981
-7.86288
-7.62473
-7.3099
-6.94323
-6.5539
-6.16961
-5.8115
-5.49053
-5.2057
-4.94402
-4.68186
-4.38727
-4.02232
-3.54514
-2.91112
-2.07337
-0.982963
0.410366
2.15626
4.29977
6.87522
9.8981
13.3558
17.1985
21.3317
25.6116
29.8458
33.7992
37.206
39.7877
41.2754
41.4346
40.0909
37.1519
32.624
26.6215
19.3655
11.1724
2.43311
-6.41682
-14.9315
-22.6912
-29.3374
-34.601
-38.3228
-40.4628
-41.0969
-40.4024
-38.6342
-36.0929
-33.0906
-29.9183
-26.8167
-23.9548
-21.415
-19.1831
-17.1365
-15.0263
-12.4463
-8.78793
-3.1868
5.52586
18.8427
38.5432
66.5739
104.829
154.837
217.381
292.109
377.209
469.223
563.079
652.369
729.87
788.281
821.058
823.264
792.278
728.282
634.421
516.604
382.977
243.106
106.991
-15.9708
-117.941
-193.395
-239.596
-256.726
-247.692
-217.623
-173.163
-121.626
-70.1521
-24.9421
9.32907
29.8741
35.9025
28.4865
10.2234
-15.2468
-43.7971
-71.3666
-94.4463
-110.444
-117.9
-116.533
-107.149
-91.4146
-71.5546
-50.0166
-29.1418
-10.8887
3.36462
12.9224
17.7763
18.5228
16.2132
12.1638
7.75309
4.23513
2.58966
3.42511
6.94044
12.9444
20.9234
30.1429
39.7667
48.9752
57.0686
63.5417
68.1254
70.7918
71.727
71.2778
69.8826
67.9972
66.0246
64.2591
62.8501
61.7892
60.9195
59.9665
58.5825
56.4009
53.0908
48.4062
42.2242
34.5666
25.6047
15.6457
5.104
-5.53975
-15.7854
-25.1617
-33.2693
-39.8152
-44.6339
-47.6939
-49.0906
-49.0247
-47.7729
-45.6516
-42.9811
-40.053
-37.1054
-34.3072
-31.7534
-29.47
-27.427
-25.5558
-23.77
-21.9838
-20.1284
-18.1626
-16.0783
-13.8995
-11.6774
-9.48172
-7.38988
-5.47642
-3.80338
-2.41309
-1.32387
-0.528974
0.0016329
0.317057
0.479698
0.558734
0.623711
0.73894
0.959197
1.32701
1.87163
2.60952
3.54642
4.68039
6.0058
7.5175
9.21455
11.1028
13.1957
15.5127
18.0752
20.9004
23.9946
27.3457
30.9181
34.6491
38.4499
42.2096
45.8025
49.0971
51.9649
54.2879
55.9625
56.9004
57.0257
56.2701
54.5668
51.8468
48.0375
43.0647
36.8598
29.3693
20.5669
10.4658
-0.87031
-13.3204
-26.7034
-40.7812
-55.2682
-69.8462
-84.1859
-97.9712
-110.926
-122.843
-133.602
-143.191
-151.705
-159.338
-166.361
-173.083
-179.805
-186.763
-194.071
-201.663
-209.236
-216.197
-221.618
-224.208
-222.302
-213.902
-196.779
-168.642
-127.411
-71.5457
-0.433968
85.2406
183.204
289.45
398.314
502.789
595.089
667.402
712.752
725.856
703.842
646.739
557.636
442.496
309.613
168.802
30.3973
-95.7954
-201.48
-280.656
-330.118
-349.633
-341.769
-311.427
-265.138
-210.24
-154.011
-102.898
-61.8937
-34.1539
-20.8504
-21.2764
-33.1592
-53.1236
-77.2345
-101.547
-122.595
-137.762
-145.509
-145.441
-138.22
-125.358
-108.926
-91.224
-74.457
-60.4588
-50.4931
-45.1474
-44.324
-47.3184
-52.9688
-59.847
-66.4664
-71.4774
-73.8278
-72.8718
-68.419
-60.7225
-50.4142
-38.3986
-25.7225
-13.439
-2.48224
6.43262
12.8737
16.7169
18.1301
17.5243
15.4782
12.6507
9.69141
7.16057
5.4689
4.84142
5.30846
6.72216
8.79397
11.1465
13.3718
15.0881
15.9878
15.872
14.6678
12.4279
9.31598
5.5778
1.50686
-2.59308
-6.44237
-9.8129
-12.5461
-14.5602
-15.8468
-16.4594
-16.4959
-16.0778
-15.3308
-14.3686
-13.2808
-12.1285
-10.9445
-9.73901
-8.50861
-7.24585
-5.94848
-4.62607
-3.30327
-2.01938
-0.824392
0.227317
1.08472
1.70773
2.07348
2.18029
2.04888
1.72061
1.25322
0.714632
0.175861
-0.29621
-0.64517
-0.829925
-0.827554
-0.633984
-0.262503
0.259684
0.896511
1.60929
2.36359
3.13613
3.92086
4.73346
5.61347
6.62338
7.8445
9.36964
11.2934
13.7009
16.6564
20.1931
24.3057
28.9462
34.0241
39.4104
44.9457
50.4503
55.7368
60.6215
64.9356
68.5341
71.3007
73.1508
74.0302
73.9126
72.7957
70.6971
67.6521
63.7129
58.9502
53.456
47.3471
40.7679
33.8899
26.9083
20.0346
13.4849
7.46501
2.15516
-2.30566
-5.83184
-8.39888
-10.0452
-10.8678
-11.0117
-10.6553
-9.99217
-9.21138
-8.4776
-7.90973
-7.55702
-7.36949
-7.15961
-6.55365
-4.93429
-1.38202
5.37102
16.9538
35.3119
62.5824
100.874
151.955
216.873
295.553
386.448
486.314
590.179
691.565
782.954
856.491
904.827
921.997
904.219
850.49
762.875
646.453
508.899
359.757
209.487
68.4038
-54.3513
-151.7
-219.256
-255.636
-262.426
-243.821
-206.002
-156.325
-102.451
-51.494
-9.30708
20.0279
34.4677
34.0165
20.4978
-2.86056
-31.9644
-62.4371
-90.1772
-111.824
-125.088
-128.913
-123.475
-110.036
-90.6664
-67.9179
-44.4557
-22.7243
-4.67345
8.42516
16.059
18.453
16.4595
11.3823
4.76392
-1.83358
-7.02728
-9.76788
-9.43641
-5.87683
0.632607
9.45913
19.7311
30.4712
40.7289
49.695
56.7867
61.6946
64.3902
65.0971
64.2325
62.3303
59.9569
57.6308
55.7565
54.5789
54.1621
54.3944
55.0147
55.6584
55.9128
55.3774
53.7195
50.7203
46.3043
40.5516
33.69
26.0703
18.1273
10.3324
3.14313
-3.04436
-7.93378
-11.355
-13.2751
-13.7943
-13.1271
-11.573
-9.47944
-7.20267
-5.07015
-3.34932
-2.22517
-1.78861
-2.03596
-2.87879
-4.16204
-5.6879
-7.2422
-8.62037
-9.65009
-10.2084
-10.2322
-9.72061
-8.73121
-7.36922
-5.77276
-4.09549
-2.48883
-1.0858
0.0120048
0.743192
1.09042
1.07945
0.773671
0.265286
-0.336015
-0.915262
-1.36411
-1.59113
-1.5295
-1.14132
-0.418316
0.621239
1.93866
3.48333
5.20229
7.04939
8.99284
11.0198
13.1373
15.3696
17.7516
20.3203
23.1042
26.1138
29.332
32.7088
36.1587
39.5611
42.7655
45.5984
47.8724
49.3964
49.9857
49.472
47.7124
44.5996
40.071
34.1185
26.797
18.2315
8.6204
-1.76671
-12.5977
-23.4941
-34.0546
-43.8828
-52.6187
-59.9673
-65.7235
-69.7871
-72.167
-72.9736
-72.4001
-70.6956
-68.1344
-64.9849
-61.482
-57.8045
-54.0548
-50.2392
-46.241
-41.7828
-36.3752
-29.2561
-19.3334
-5.15186
15.0891
43.4381
81.9964
132.619
196.535
273.935
363.587
462.58
566.247
668.346
761.495
837.852
889.948
911.581
898.64
849.735
766.529
653.73
518.71
370.811
220.404
77.8451
-47.5754
-148.529
-220.312
-261.184
-272.371
-257.739
-223.193
-175.897
-123.408
-72.8346
-30.1219
0.477987
16.6893
18.2466
6.69523
-14.9961
-42.9481
-72.935
-100.929
-123.563
-138.463
-144.424
-141.428
-130.512
-113.528
-92.8207
-70.8902
-50.0655
-32.2397
-18.6877
-9.98227
-6.00643
-6.05206
-8.9813
-13.424
-17.9822
-21.4145
-22.7795
-21.5246
-17.5146
-11.0041
-2.56204
7.03396
16.9193
26.2607
34.3567
40.7104
45.0669
47.4157
47.9615
47.0702
45.2017
42.8373
40.4141
38.2729
36.6251
35.5408
34.9573
34.7045
34.5422
34.2028
33.4334
32.0328
29.8771
26.9341
23.2642
19.0094
14.3729
9.59258
4.91237
0.554885
-3.30104
-6.53591
-9.0968
-10.9961
-12.3025
-13.1266
-13.6019
-13.866
-14.0422
-14.225
-14.4706
-14.7935
-15.1688
-15.539
-15.8259
-15.9431
-15.8098
-15.3626
-14.5644
-13.41
-11.927
-10.1734
-8.23141
-6.19931
-4.18173
-2.28009
-0.583908
0.836011
1.93202
2.68132
3.08506
3.16529
2.96028
2.51921
1.89699
1.14998
0.333078
-0.501565
-1.30437
-2.02721
-2.6218
-3.03855
-3.2261
-3.13224
-2.7061
-1.9014
-0.680356
0.982508
3.09717
5.65616
8.63399
11.9882
15.6614
19.5846
23.6799
27.8641
32.0506
36.1509
40.0745
43.728
47.0136
49.827
52.057
53.5853
54.2898
54.0502
52.7571
50.3227
46.6942
41.8663
35.8917
28.8881
21.0393
12.5902
3.8344
-4.90397
-13.2932
-21.0197
-27.8129
-33.4675
-37.8604
-40.9591
-42.8227
-43.5924
-43.4754
-42.7216
-41.5958
-40.3468
-39.1756
-38.2002
-37.4184
-36.6652
-35.5639
-33.4737
-29.4387
-22.1512
-9.94796
9.1393
37.2557
76.5052
128.642
194.699
274.588
366.761
467.979
573.289
676.228
769.295
844.635
894.876
914.003
898.157
846.23
760.169
644.931
508.084
359.094
208.383
66.2847
-57.991
-157.245
-226.928
-265.47
-274.261
-257.313
-220.652
-171.532
-117.564
-65.8826
-22.4278
8.57225
24.8818
26.2851
14.3825
-7.79993
-36.3241
-66.9055
-95.459
-118.563
-133.796
-139.919
-136.896
-125.771
-108.428
-87.2744
-64.893
-43.7142
-25.7361
-12.3299
-4.1403
-1.08724
-2.45571
-7.05528
-13.4217
-20.0315
-25.5007
-28.7456
-29.0875
-26.2952
-20.5664
-12.4557
-2.76651
7.57753
17.661
26.6894
34.073
39.4747
42.8194
44.2689
44.1686
42.978
41.1929
39.2729
37.5818
36.3464
35.6385
35.3789
35.3618
35.2944
34.8457
33.6977
31.5926
28.3702
23.9902
18.5396
12.223
5.33824
-1.7576
-8.68883
-15.1016
-20.7
-25.2727
-28.7094
-31.003
-32.241
-32.5867
-32.2533
-31.4756
-30.4811
-29.4667
-28.58
-27.9094
-27.482
-27.2688
-27.1958
-27.1594
-27.0433
-26.7349
-26.1403
-25.1945
-23.8681
-22.1688
-20.138
-17.8445
-15.3748
-12.822
-10.2757
-7.81155
-5.48447
-3.32395
-1.33294
0.510221
2.24723
3.93318
5.62887
7.39293
9.27462
11.3081
13.509
15.8726
18.3756
20.9794
23.6353
26.291
28.8977
31.4162
33.8223
36.1095
38.2896
40.3906
42.4521
44.5193
46.6349
48.8324
51.129
53.5197
55.9742
58.4338
60.8108
62.9888
64.8248
66.1528
66.791
66.5506
65.25
62.7307
58.8764
53.6321
47.0205
39.1543
30.2399
20.572
10.5184
0.494357
-9.06959
-17.7642
-25.2377
-31.2279
-35.5848
-38.2832
-39.4202
-39.2021
-37.9183
-35.9098
-33.5332
-31.126
-28.9754
-27.2897
-26.1712
-25.5855
-25.3225
-24.9471
-23.7397
-20.6382
-14.1975
-2.59203
16.3106
44.7818
84.9589
138.48
206.067
287.11
379.359
478.768
579.592
674.749
756.433
816.922
849.482
849.232
813.851
744.012
643.471
518.793
378.728
233.335
92.9445
-32.9016
-136.395
-212.189
-257.828
-273.827
-263.424
-232.042
-186.539
-134.357
-82.6722
-37.6366
-3.81352
16.1616
21.6644
13.9249
-4.32964
-29.3698
-57.0261
-83.2437
-104.564
-118.485
-123.661
-119.95
-108.3
-90.5198
-68.9649
-46.1919
-24.6241
-6.26989
7.47793
15.9442
19.1739
17.8445
13.1092
6.39882
-0.790038
-7.09061
-11.4235
-13.0997
-11.8628
-7.86981
-1.62206
6.14168
14.5706
22.828
30.201
36.1819
40.5118
43.186
44.4227
44.6046
44.2011
43.686
43.4601
43.7904
44.7725
46.3202
48.1822
49.983
51.2811
51.6352
50.67
48.1324
43.9306
38.1506
31.0507
23.0327
14.5964
6.28266
-1.38728
-7.9679
-13.1349
-16.7146
-18.6943
-19.2138
-18.5392
-17.025
-15.0667
-13.0537
-11.3249
-10.1343
-9.62888
-9.84025
-10.6908
-10.6908
-10.6908
-10.6908
-10.6908
-10.6908
-10.6908
-10.6908
-10.6908
-10.6908
-10.6908
-10.6908
-10.6908
-10.6908
-10.6908
-10.6908
-10.6908
-10.6908
-10.6908
-10.6908
