91.4992
73.1996
52.3341
29.5517
5.74379
-18.0235
-40.6042
-60.8832
-77.8878
-90.8874
-99.466
-103.561
-103.459
-99.762
-93.3049
-85.066
-76.0569
-67.2183
-59.3299
-52.9457
-48.3582
-45.5965
-44.4533
-44.5372
-45.3407
-46.3153
-46.9442
-46.8037
-45.6078
-43.2328
-39.7195
-35.2561
-30.146
-24.7635
-19.5065
-14.7489
-10.8005
-7.8763
-6.07862
-5.39301
-5.69641
-6.77656
-8.35944
-10.1414
-11.8226
-13.1378
-13.8816
-13.9259
-13.2282
-11.8288
-9.84021
-7.42779
-4.78644
-2.11485
0.408571
2.6453
4.5096
5.97321
7.06178
7.84394
8.41502
8.87811
9.32553
9.82335
10.4013
11.0495
11.7217
12.345
12.8331
13.1027
13.0876
12.7516
12.0962
11.1626
10.0289
8.8022
7.60823
6.57915
5.84291
5.51547
5.69752
6.47683
7.93664
10.1694
13.2944
17.4756
22.9359
29.9624
38.8972
50.1097
63.9491
80.6778
100.392
122.934
147.822
174.186
200.755
225.884
247.633
263.907
272.642
272.015
260.671
237.927
203.924
159.712
107.243
49.2653
-10.8782
-69.5216
-123.001
-167.992
-201.823
-222.724
-229.993
-224.047
-206.355
-179.275
-145.789
-109.198
-72.7831
-39.498
-11.7041
9.00775
21.9042
27.095
25.4297
18.3216
7.52663
-5.09308
-17.7921
-29.1253
-38.0739
-44.1044
-47.1608
-47.5973
-46.0673
-43.3865
-40.3926
-37.8175
-36.1904
-35.7792
-36.5755
-38.3197
-40.56
-42.7332
-44.2552
-44.6066
-43.405
-40.4518
-35.7519
-29.5043
-22.0667
-13.9003
-5.50367
2.65432
10.1944
16.8705
22.5928
27.427
31.573
35.3249
39.021
42.9897
47.4999
52.7227
58.7077
65.3781
72.5426
79.9232
87.1925
94.0161
100.094
105.194
109.176
112.001
113.727
114.49
114.481
113.913
112.99
111.877
110.683
109.45
108.151
106.703
104.985
102.854
100.174
96.8335
92.7617
87.9368
82.3876
76.1866
69.4374
62.2584
54.765
47.054
39.1933
31.218
23.1342
14.9308
6.59567
-1.86408
-10.4037
-18.9265
-27.2767
-35.2425
-42.5694
-48.9821
-54.2135
-58.0362
-60.2926
-60.9181
-59.9564
-57.5611
-53.9859
-49.5635
-44.674
-39.7099
-35.0383
-30.9675
-27.7197
-25.4147
-24.0645
-23.5796
-23.7863
-24.4516
-25.3129
-26.1091
-26.6088
-26.633
-26.0705
-24.8832
-23.104
-20.8257
-18.185
-15.3427
-12.4634
-9.69754
-7.16634
-4.95264
-3.09696
-1.59909
-0.424156
0.488069
1.21213
1.8257
2.3995
2.98953
3.63202
4.34157
5.11211
5.9203
6.73072
7.5019
8.19264
8.7677
9.20229
9.48505
9.61899
9.62057
9.51697
9.3419
9.13064
8.9149
8.71829
8.55304
8.41838
8.3009
8.17674
8.0153
7.78397
7.45313
7.00064
6.41536
5.69884
4.86534
3.93992
2.95515
1.94685
0.949655
-0.00694347
-0.901501
-1.72204
-2.46594
-3.13831
-3.74944
-4.31162
-4.83598
-5.32979
-5.79472
-6.22618
-6.6138
-6.9431
-7.19789
-7.36303
-7.42719
-7.38501
-7.23842
-6.99683
-6.67624
-6.29741
-5.88329
-5.45629
-5.03562
-4.63518
-4.26222
-3.91694
-3.59305
-3.27896
-2.95968
-2.61877
-2.24028
-1.81009
-1.31676
-0.751521
-0.107793
0.619722
1.43591
2.34582
3.35476
4.4677
5.68819
7.01679
8.44934
9.97535
11.5767
13.2271
14.892
16.5297
18.093
19.5316
20.7947
21.8339
22.6057
23.0741
23.212
23.0024
22.4397
21.5293
20.2882
18.7442
16.9354
14.9091
12.7203
10.4298
8.10171
5.80051
3.58812
1.52062
-0.354695
-2.00189
-3.39824
-4.5352
-5.41844
-6.06686
-6.51064
-6.78854
-6.94452
-7.02405
-7.07013
-7.11951
-7.19909
-7.32305
-7.49081
-7.68623
-7.87804
-8.02168
-8.06224
-7.93776
-7.58184
-6.9241
-5.88681
-4.37698
-2.27409
0.584367
4.41559
9.49743
16.1618
24.7718
35.6787
49.1624
65.3576
84.1759
105.235
127.809
150.816
172.844
192.238
207.229
216.108
217.415
210.132
193.848
168.863
136.228
97.6968
55.5932
12.6086
-28.4511
-64.9391
-94.6286
-115.93
-128.036
-130.984
-125.62
-113.478
-96.5914
-77.2547
-57.7714
-40.2158
-26.2348
-16.9106
-12.6964
-13.4268
-18.3959
-26.4893
-36.3485
-46.5483
-55.7634
-62.9071
-67.2297
-68.3678
-66.3462
-61.5341
-54.5689
-46.2553
-37.4579
-28.9965
-21.5578
-15.6315
-11.4744
-9.10629
-8.332
-8.78684
-9.99664
-11.4444
-12.6352
-13.1515
-12.6942
-11.1052
-8.37038
-4.60565
-0.0280005
5.08256
10.4251
15.7179
20.7328
25.3183
29.4123
33.0407
36.3067
39.371
42.4261
45.6695
49.2776
53.3839
58.0631
63.3224
69.1006
75.2746
81.6724
88.0899
94.3116
100.13
105.364
109.874
113.568
116.408
118.405
119.604
120.08
119.912
119.167
117.889
116.08
113.697
110.655
106.831
102.088
96.2906
89.3352
81.1735
71.8337
61.4341
50.1871
38.3906
26.4096
14.6482
3.51508
-6.61252
-15.4224
-22.6946
-28.319
-32.3006
-34.754
-35.8859
-35.9701
-35.3165
-34.24
-33.0305
-31.929
-31.1109
-30.6776
-30.6575
-31.013
-31.6539
-32.454
-33.2683
-33.9491
-34.3598
-34.3856
-33.9394
-32.9659
-31.4414
-29.3724
-26.7926
-23.7588
-20.3462
-16.6437
-12.7484
-8.76078
-4.77894
-0.894022
2.81424
6.28085
9.4577
12.3143
14.8373
17.0282
18.9006
20.4764
21.7822
22.8453
23.6907
24.3386
24.8037
25.0941
25.2127
25.1583
24.9277
24.518
23.9289
23.1648
22.2362
21.1606
19.9623
18.6716
17.3229
15.9524
14.5952
13.2821
12.0367
10.874
9.79879
8.80634
7.88403
7.01405
6.1768
5.35451
4.53443
3.71117
2.88772
2.07517
1.29098
0.556327
-0.107202
-0.680916
-1.15172
-1.51382
-1.76907
-1.92614
-1.99861
-2.00255
-1.95413
-1.86765
-1.75439
-1.62227
-1.4763
-1.31953
-1.15424
-0.982944
-0.809104
-0.637392
-0.473428
-0.323157
-0.192029
-0.0841984
-0.00197003
0.0543773
0.0863586
0.0967451
0.0889262
0.0664106
0.0326588
-0.00869043
-0.0532946
-0.095525
-0.128142
-0.142523
-0.129619
-0.081633
0.00578511
0.131226
0.285592
0.451075
0.601509
0.704333
0.72418
0.627747
0.389313
-0.00396381
-0.547932
-1.2194
-1.97675
-2.76346
-3.51421
-4.16283
-4.65101
-4.93626
-4.998
-4.84056
-4.49249
-4.00213
-3.43006
-2.8394
-2.28544
-1.80624
-1.41554
-1.0992
-0.815726
-0.500831
-0.0754125
0.544226
1.43539
2.65878
4.25038
6.21649
8.5321
11.1429
13.9696
16.9147
19.8699
22.7228
25.364
27.6919
29.6167
31.0635
31.974
32.3081
32.0446
31.1819
29.737
27.7452
25.2578
22.3399
19.0672
15.5232
11.7963
7.97828
4.16301
0.446598
-3.07129
-6.28474
-9.07697
-11.3133
-12.8308
-13.4258
-12.8389
-10.7423
-6.733
-0.339207
8.9556
21.6651
38.2281
58.9158
83.725
112.272
143.705
176.65
209.221
239.095
263.664
280.268
286.473
280.376
260.896
227.999
182.828
127.703
65.9754
1.75514
-60.4734
-116.296
-161.818
-194.07
-211.304
-213.157
-200.657
-176.071
-142.62
-104.104
-64.4754
-27.423
3.9905
27.5952
42.2608
47.9153
45.4426
36.4805
23.1515
7.76452
-7.47476
-20.7116
-30.6211
-36.5041
-38.2957
-36.4949
-32.0296
-26.0817
-19.8969
-14.6045
-11.0699
-9.795
-10.8767
-14.0219
-18.6147
-23.8206
-28.7127
-32.4007
-34.1467
-33.4522
-30.1097
-24.2131
-16.1303
-6.44309
4.13397
14.8451
24.9829
33.9644
41.3872
47.0587
50.9991
53.4191
54.6778
55.2274
55.5526
56.1117
57.2868
59.3477
62.4317
66.5414
71.5586
77.2704
83.4036
89.6615
95.7584
101.447
106.534
110.89
114.438
117.145
119.005
120.013
120.158
119.406
117.698
114.962
111.119
106.104
99.8833
92.4759
83.9627
74.4947
64.2903
53.6242
42.8089
32.1707
22.023
12.6408
4.2382
-3.04649
-9.15857
-14.1257
-18.0484
-21.0844
-23.4277
-25.2863
-26.86
-28.3211
-29.7998
-31.3753
-33.0733
-34.8687
-36.6943
-38.4527
-40.031
-41.3152
-42.2047
-42.6236
-42.5286
-41.9124
-40.804
-39.2635
-37.375
-35.237
-32.9519
-30.6163
-28.3118
-26.098
-24.0088
-22.0501
-20.2011
-18.4184
-16.6419
-14.8028
-12.8327
-10.6732
-8.28475
-5.6537
-2.79716
0.2356
3.3655
6.48962
9.49047
12.2475
14.6495
16.6064
18.0582
18.9809
19.387
19.322
18.8555
18.0711
17.0535
15.8771
14.5983
13.2507
11.8462
10.3806
8.84277
7.22538
5.53515
3.80075
2.0766
0.441742
-1.00605
-2.16029
-2.91838
-3.19498
-2.93441
-2.12036
-0.781641
1.00665
3.12675
5.42623
7.72951
9.85177
11.6139
12.8572
13.4564
13.3296
12.4453
10.8239
8.53548
5.69253
2.43923
-1.06181
-4.64359
-8.14784
-11.4356
-14.3943
-16.9404
-19.0189
-20.5987
-21.6676
-22.2259
-22.2818
-21.8481
-20.9423
-19.5886
-17.8222
-15.6944
-13.2772
-10.667
-7.98429
-5.37115
-2.98414
-0.983955
0.477786
1.27345
1.31448
0.564994
-0.948131
-3.1303
-5.82088
-8.80218
-11.8155
-14.5832
-16.8343
-18.3314
-18.8949
-18.4223
-16.9001
-14.4056
-11.1
-7.21227
-3.016
1.19726
5.14618
8.58546
11.3268
13.253
14.3241
14.5753
14.1077
13.0731
11.6548
10.0473
8.4356
6.97845
5.79456
4.95475
4.47946
4.34201
4.4765
4.78956
5.17405
5.52324
5.74353
5.76443
5.54458
5.07323
4.36737
3.46505
2.41614
1.27209
0.0763633
-1.14299
-2.3772
-3.63669
-4.94679
-6.33994
-7.84566
-9.4796
-11.2334
-13.0669
-14.9034
-16.6286
-18.0927
-19.1147
-19.4876
-18.9836
-17.3575
-14.3489
-9.68395
-3.07872
5.75245
17.0796
31.1279
48.0357
67.8008
90.2207
114.835
140.88
167.264
192.58
215.16
233.165
244.736
248.165
242.096
225.723
198.959
162.545
118.084
67.9747
15.2444
-36.7039
-84.4105
-124.704
-155.029
-173.72
-180.171
-174.899
-159.465
-136.284
-108.342
-78.8446
-50.8596
-26.9918
-9.12465
1.73512
5.49877
2.92393
-4.55427
-15.0613
-26.5558
-37.0995
-45.0906
-49.4349
-49.6371
-45.8079
-38.5937
-29.0446
-18.4418
-8.11155
0.750366
7.22278
10.7554
11.21
8.8461
4.25802
-1.72492
-8.15846
-14.1075
-18.7582
-21.5051
-22.0047
-20.1924
-16.2634
-10.6237
-3.81998
3.54117
10.8731
17.6788
23.6021
28.4567
32.2307
35.0689
37.2378
39.0781
40.9532
43.1991
46.0833
49.7754
54.3333
59.7042
65.7391
72.2178
78.8805
85.46
91.7108
97.4319
102.48
106.77
110.272
112.993
114.961
116.202
116.725
116.511
115.511
113.645
110.823
106.955
101.972
95.8483
88.6119
80.3536
71.226
61.4351
51.2241
40.8526
30.5732
20.6099
11.1403
2.28456
-5.89809
-13.4046
-20.2771
-26.5867
-32.4163
-37.8432
-42.925
-47.6902
-52.1326
-56.2118
-59.8565
-62.9717
-65.4471
-67.1681
-68.026
-67.9292
-66.8134
-64.651
-61.4583
-57.301
-52.2959
-46.6088
-40.4483
-34.0556
-27.6895
-21.6096
-16.0572
-11.2369
-7.29985
-4.33103
-2.34123
-1.26516
-0.965705
-1.24453
-1.85836
-2.54031
-3.02488
-3.07429
-2.50268
-1.19335
0.896302
3.74646
7.30493
11.5328
16.4579
22.2233
29.1163
37.5633
48.0821
61.1925
77.2984
96.5629
118.808
143.463
169.585
195.942
221.15
243.826
262.731
276.871
285.544
288.341
285.113
275.925
261.018
240.788
215.78
186.703
154.434
120.019
84.6439
49.5872
16.147
-14.4476
-41.1282
-63.0699
-79.7533
-90.9988
-96.9678
-98.1313
-95.2121
-89.1073
-80.8009
-71.2776
-61.4448
-52.0723
-43.7511
-36.8753
-31.6435
-28.0784
-26.0579
-25.3536
-25.6717
-26.6911
-28.096
-29.6019
-30.9727
-32.0303
-32.6566
-32.7906
-32.4205
-31.5741
-30.3068
-28.6913
-26.8076
-24.7345
-22.5438
-20.2962
-18.0399
-15.8094
-13.6276
-11.5062
-9.44866
-7.45198
-5.50892
-3.61048
-1.74835
0.0823955
1.88067
3.63685
5.3309
6.93132
8.39546
9.67114
10.6999
11.4216
11.7802
11.7297
11.2411
10.3075
8.94896
7.21486
5.1846
2.9655
0.688409
-1.49888
-3.43999
-4.97942
-5.97247
-6.29493
-5.85211
-4.58659
-2.48454
0.419694
4.04097
8.24304
12.8408
17.6056
22.2747
26.5641
30.1858
32.8686
34.3801
34.5495
33.2864
30.5955
26.5831
21.4551
15.5058
9.09831
2.63732
-3.46214
-8.80833
-13.0647
-15.9767
-17.3909
-17.2618
-15.6464
-12.6827
-8.55487
-3.44593
2.51513
9.30479
17.0445
26.0178
36.6548
49.4797
65.0199
83.6837
105.622
130.596
157.873
186.173
213.694
238.214
257.271
268.415
269.492
258.929
235.994
200.973
155.245
101.244
42.2857
-17.7123
-74.5929
-124.367
-163.617
-189.841
-201.707
-199.18
-183.499
-157.025
-122.968
-85.0243
-46.981
-12.3266
16.0866
36.2905
47.3362
49.3072
43.2181
30.8177
14.3266
-3.85461
-21.4306
-36.4573
-47.5229
-53.8496
-55.3107
-52.3691
-45.9527
-37.2879
-27.7139
-18.5047
-10.7168
-5.08124
-1.94641
-1.27567
-2.69295
-5.56672
-9.1178
-12.5353
-15.0855
-16.2008
-15.5391
-13.0105
-8.76867
-3.17363
3.26902
9.98171
16.3922
22.0046
26.4569
29.5582
31.3042
31.8698
31.5816
30.8747
30.2401
30.1684
31.097
33.3647
37.1795
42.6006
49.5364
57.7572
66.9204
76.6051
86.3514
95.6998
104.227
111.576
117.472
121.735
124.276
125.087
124.228
121.807
117.958
112.823
106.544
99.2485
91.0504
82.0519
72.3499
62.0447
51.2487
40.094
28.7368
17.358
6.15969
-4.64264
-14.8315
-24.2008
-32.5703
-39.7992
-45.7976
-50.5341
-54.039
-56.4024
-57.7667
-58.3155
-58.2578
-57.8098
-57.1775
-56.539
-56.0305
-55.7371
-55.6887
-55.8613
-56.1841
-56.5505
-56.8319
-56.8931
-56.6067
-55.8669
-54.5992
-52.7679
-50.379
-47.4791
-44.151
-40.5056
-36.672
-32.7863
-28.9793
-25.3666
-22.0392
-19.0584
-16.452
-14.2158
-12.3163
-10.6971
-9.28644
-8.00563
-6.77777
-5.53535
-4.22644
-2.81884
-1.30193
0.313793
1.99931
3.71142
5.39826
7.00537
8.48161
9.78444
10.8838
11.7641
12.4251
12.8792
13.1491
13.2621
13.2453
13.1202
12.898
12.5772
12.1428
11.5679
10.8177
9.85424
8.64293
7.15834
5.38943
3.34331
1.04717
-1.45172
-4.08783
-6.78062
-9.4388
-11.965
-14.2606
-16.2296
-17.7829
-18.8417
-19.3413
-19.2351
-18.4998
-17.1404
-15.1953
-12.7396
-9.88615
-6.78201
-3.60057
-0.528765
2.24958
4.5725
6.31834
7.42123
7.88097
7.7653
7.20362
6.37228
5.47301
4.70715
4.24935
4.22447
4.69156
5.63742
6.98102
8.5881
10.2933
11.9262
13.3364
14.4147
15.105
15.4085
15.3776
15.1028
14.696
14.271
13.9277
13.7401
13.7495
13.964
14.3622
14.899
15.5122
16.1279
16.6642
17.0335
17.1436
16.8994
16.206
14.9727
13.1209
10.5931
7.36492
3.45694
-1.0533
-6.02308
-11.2417
-16.4353
-21.2804
-25.4266
-28.5261
-30.2685
-30.4165
-28.8383
-25.5328
-20.6431
-14.4549
-7.37965
0.0772847
7.36127
13.9203
19.2588
22.9865
24.8567
24.7894
22.8753
19.3622
14.6236
9.11517
3.32319
-2.28742
-7.32024
-11.4837
-14.6129
-16.6736
-17.75
-18.0153
-17.6905
-16.9936
-16.0866
-15.0241
-13.7131
-11.8865
-9.1005
-4.75758
1.84147
11.4167
24.6048
41.8411
63.241
88.4967
116.808
146.86
176.863
204.649
227.842
244.064
251.182
247.555
232.262
205.271
167.539
120.997
68.4389
13.3018
-40.6424
-89.6464
-130.361
-160.179
-177.499
-181.887
-174.102
-155.989
-130.25
-100.125
-69.0241
-40.1524
-16.179
1.01258
10.4694
12.1946
7.0612
-3.37032
-17.0984
-31.9578
-45.8898
-57.1744
-64.5979
-67.5431
-65.9968
-60.4844
-51.945
-41.5703
-30.6301
-20.3085
-11.5684
-5.05989
-1.07722
0.434838
-0.168236
-2.3116
-5.29984
-8.41927
-11.0303
-12.6394
-12.9438
-11.8461
-9.44015
-5.97378
-1.79398
2.71506
7.19331
11.3571
15.036
18.1907
20.91
23.3893
25.8939
28.7139
32.1169
36.3055
41.3852
47.3481
54.0719
61.3357
68.8482
76.2849
83.3272
89.6996
95.1992
99.7131
103.224
105.802
107.584
108.748
109.481
109.948
110.261
110.467
110.526
110.32
109.658
108.298
105.976
102.436
97.473
90.9583
82.8731
73.3236
62.544
50.8859
38.7917
26.7559
15.2794
4.82043
-4.25004
-11.6834
-17.375
-21.3691
-23.8471
-25.1012
-25.4958
-25.4232
-25.258
-25.3162
-25.8227
-26.8918
-28.5209
-30.5989
-32.9262
-35.2445
-37.2715
-38.7372
-39.4161
-39.1533
-37.8806
-35.6224
-32.4913
-28.6739
-24.41
-19.9684
-15.6209
-11.6184
-8.17076
-5.43337
-3.49879
-2.39536
-2.09102
-2.50105
-3.49866
-4.92668
-6.60977
-8.36606
-10.0182
-11.4032
-12.3811
-12.8424
-12.7134
-11.9596
-10.5872
-8.64159
-6.20351
-3.38284
-0.310341
2.87206
6.02177
9.00586
11.7106
14.049
15.9665
17.4425
18.4896
19.1488
19.4815
19.5594
19.4534
19.2226
18.9059
18.5163
18.0398
17.438
16.6556
15.6307
14.3062
12.6419
10.6247
8.27522
5.65087
2.84362
-0.0262195
-2.8201
-5.39376
-7.61063
-9.35467
-10.541
-11.1232
-11.0964
-10.4962
-9.39398
-7.88815
-6.09461
-4.136
-2.13179
-0.190252
1.59711
3.15826
4.44063
5.40895
6.04168
6.32686
6.25833
5.83287
5.04893
3.90699
2.41184
0.576356
-1.57368
-3.9944
-6.61942
-9.35714
-12.0908
-14.6819
-16.9772
-18.8193
-20.0592
-20.5705
-20.2633
-19.0954
-17.081
-14.2934
-10.8632
-6.97051
-2.83199
1.31546
5.23341
8.70067
11.5305
13.5846
14.7826
15.1068
14.6011
13.3653
11.5437
9.30989
6.84902
4.33834
1.92962
-0.265092
-2.18187
-3.806
-5.16527
-6.31609
-7.32443
-8.24443
-9.09861
-9.86327
-10.4623
-10.771
-10.6307
-9.87137
-8.34019
-5.93036
-2.60693
1.57558
6.46622
11.8229
17.3294
22.6225
27.3246
31.08
33.5876
34.6291
34.0877
31.9574
28.3417
23.4431
17.5453
10.9905
4.15399
-2.58226
-8.85446
-14.3396
-18.7741
-21.9677
-23.8103
-24.2719
-23.3917
-21.2576
-17.9741
-13.6216
-8.2129
-1.65239
6.28966
15.9796
27.8903
42.5342
60.3628
81.6402
106.309
133.868
163.289
192.993
220.905
244.589
261.466
269.094
265.467
249.312
220.327
179.324
128.25
70.0755
8.55058
-52.1402
-107.79
-154.596
-189.545
-210.713
-217.443
-210.379
-191.352
-163.143
-129.147
-92.9927
-58.1523
-27.596
-3.52841
12.7711
20.9907
21.7158
16.2636
6.45049
-5.67432
-18.0945
-29.059
-37.2579
-41.9246
-42.8611
-40.3903
-35.2489
-28.441
-21.0744
-14.2013
-8.68402
-5.09891
-3.68744
-4.35533
-6.71523
-10.1633
-13.9768
-17.4176
-19.8296
-20.7167
-19.7945
-17.0112
-12.5384
-6.73466
-0.0899087
6.84215
13.5134
19.4448
24.2767
27.8025
29.9823
30.9396
30.9409
30.364
29.6583
29.3015
29.7555
31.4268
34.6301
39.5622
46.283
54.7088
64.6168
75.6611
87.3987
99.3232
110.903
121.621
131.009
138.677
144.335
147.8
148.997
147.95
144.764
139.608
132.693
124.258
114.554
103.842
92.3823
80.4413
68.2906
56.2077
44.4743
33.3693
23.1568
14.0709
6.29678
-0.0469573
-4.9232
-8.38492
-10.5753
-11.7184
-12.1006
-12.0439
-11.8754
-11.8949
-12.3454
-13.3903
-15.0999
-17.448
-20.3203
-23.5317
-26.8513
-30.0311
-32.8352
-35.0655
-36.5811
-37.3105
-37.253
-36.4739
-35.0912
-33.2592
-31.1506
-28.9394
-26.787
-24.8325
-23.1864
-21.9278
-21.1038
-20.7292
-20.7867
-21.2267
-21.9679
-22.8977
-23.8766
-24.7442
-25.3291
-25.4629
-24.9951
-23.8106
-21.844
-19.0918
-15.6174
-11.5505
-7.07758
-2.42651
2.15482
6.42221
10.1589
13.1962
15.4285
16.8209
17.4089
17.2901
16.6097
15.5421
14.2704
12.9668
11.7764
10.8054
10.1157
9.72419
9.60844
9.71506
9.97096
10.295
10.6088
10.845
10.9529
10.9009
10.6758
10.2801
9.72699
9.03614
8.2287
7.3239
6.33693
5.27828
4.15432
2.96891
1.72527
0.427811
-0.916654
-2.29849
-3.70572
-5.12532
-6.54483
-7.95413
-9.34679
-10.7208
-12.0782
-13.4243
-14.7653
-16.1061
-17.448
-18.786
-20.1076
-21.3922
-22.6111
-23.7288
-24.7055
-25.499
-26.0679
-26.374
-26.3854
-26.0779
-25.437
-24.459
-23.1521
-21.5363
-19.644
-17.52
-15.2201
-12.8106
-10.3654
-7.96319
-5.68334
-3.6009
-1.7816
-0.276933
0.880059
1.67757
2.12604
2.25716
2.12081
1.78035
1.30663
0.771601
0.241977
-0.226079
-0.590868
-0.827204
-0.926516
-0.8951
-0.750905
-0.519352
-0.228806
0.0937309
0.426202
0.753987
1.07111
1.38011
1.69069
2.0173
2.37605
2.78124
3.24202
3.7595
4.32483
4.91843
5.51062
6.06368
6.53518
6.88226
7.06635
7.05787
6.84016
6.41216
5.78943
5.00329
4.09814
3.12748
2.14917
1.22135
0.400174
-0.258835
-0.694407
-0.827215
-0.541874
0.334866
2.0559
4.96981
9.52419
16.2492
25.7157
38.4664
54.9223
75.2733
99.3676
126.616
155.934
185.731
213.976
238.319
256.294
265.558
264.169
250.843
225.177
187.79
140.362
85.5492
26.7865
-32.0119
-86.8207
-133.896
-170.145
-193.433
-202.777
-198.429
-181.808
-155.322
-122.082
-85.5594
-49.2191
-16.1755
11.0913
30.9302
42.6084
46.2942
42.9407
34.0948
21.6574
7.62918
-6.1288
-18.092
-27.2076
-32.9584
-35.3539
-34.8567
-32.2603
-28.5364
-24.6756
-21.5405
-19.7508
-19.6119
-21.0915
-23.8464
-27.2883
-30.6806
-33.2481
-34.2862
-33.2548
-29.8456
-24.0155
-15.9857
-6.20659
4.70339
16.0356
27.0756
37.1831
45.8577
52.7835
57.8501
61.1472
62.9379
63.614
63.6411
63.5008
63.6357
64.4056
66.0564
68.7059
72.3446
76.8511
82.0177
87.5826
93.2636
98.7886
103.921
108.476
112.328
115.405
117.681
119.161
119.857
119.776
118.9
117.183
114.551
110.905
106.147
100.191
92.9961
84.5834
75.0567
64.6103
53.528
42.1687
30.9421
20.275
10.5734
2.18345
-4.64145
-9.76564
-13.1832
-15.0162
-15.4993
-14.9527
-13.7462
-12.2605
-10.8481
-9.80085
-9.32526
-9.53029
-10.4263
-11.9358
-13.9123
-16.1657
-18.4897
-20.687
-22.5913
-24.0819
-25.0909
-25.6029
-25.6482
-25.2912
-24.6163
-23.7136
-22.6659
-21.5394
-20.3782
-19.2028
-18.0127
-16.7909
-15.5113
-14.1447
-12.6652
-11.0548
-9.30587
-7.42154
-5.41541
-3.30951
-1.13244
1.08231
3.29733
5.47178
7.56145
9.51909
11.2954
12.841
14.1097
15.0626
15.6724
15.9278
15.8369
15.4279
14.7489
13.8643
12.8496
11.7837
10.7414
9.78549
8.96093
8.29048
7.77379
7.38922
7.09832
6.85216
6.59873
6.29011
5.88864
5.37108
4.7304
3.97501
3.12578
2.21148
1.26337
0.310034
-0.626866
-1.53515
-2.4128
-3.26674
-4.11018
-4.95909
-5.8283
-6.72766
-7.65847
-8.6103
-9.55845
-10.4623
-11.2653
-11.8971
-12.279
-12.3315
-11.9853
-11.193
-9.94141
-8.2609
-6.23083
-3.97919
-1.67521
0.484707
2.29677
3.57307
4.16515
3.98472
3.0181
1.33218
-0.929608
-3.56085
-6.31395
-8.92727
-11.1542
-12.7903
-13.6952
-13.807
-13.1459
-11.81
-9.96041
-7.80144
-5.55561
-3.4386
-1.63614
-0.285839
0.534484
0.810766
0.589154
-0.0341624
-0.928049
-1.94426
-2.93564
-3.77251
-4.3553
-4.62234
-4.55212
-4.1604
-3.49294
-2.61527
-1.60123
-0.521801
0.564161
1.61634
2.61605
3.56588
4.4866
5.41198
6.38271
7.44031
8.62187
9.95579
11.4586
13.1325
14.9632
16.9182
18.9444
20.9682
22.895
24.6129
25.9974
26.9207
27.2622
26.9213
25.8307
23.967
21.3603
18.0968
14.3181
10.2133
6.00645
1.94027
-1.74302
-4.82058
-7.10567
-8.45981
-8.79803
-8.08547
-6.32413
-3.53018
0.296218
5.20398
11.3206
18.87
28.1703
39.6054
53.5675
70.373
90.1607
112.785
137.724
164.019
190.26
214.643
235.078
249.379
255.485
251.713
237.004
211.12
174.775
129.655
78.332
24.0666
-29.4873
-78.6333
-120.004
-150.905
-169.588
-175.425
-168.947
-151.772
-126.396
-95.9117
-63.661
-32.8811
-6.37826
13.7331
26.1999
30.6938
27.7691
18.7258
5.39987
-10.0886
-25.5992
-39.214
-49.4349
-55.3149
-56.5141
-53.2805
-46.3638
-36.8782
-26.1341
-15.4627
-6.05283
1.1789
5.67489
7.27143
6.18311
2.94294
-1.69043
-6.84411
-11.6453
-15.3242
-17.2941
-17.2003
-14.9362
-10.6268
-4.58669
2.73972
10.8465
19.2328
27.4595
35.1908
42.2167
48.4567
53.9461
58.8096
63.2268
67.395
71.4958
75.6667
79.9842
84.4563
89.0273
93.59
98.0056
102.126
105.815
108.966
111.514
113.44
114.765
115.541
115.832
115.703
115.194
114.313
113.027
111.258
108.892
105.791
101.812
96.8271
90.7468
83.5412
75.2556
66.0197
56.0473
45.6259
35.0967
24.8255
15.1696
6.44272
-1.11617
-7.36629
-12.2778
-15.9315
-18.5059
-20.2525
-21.4641
-22.4374
-23.4387
-24.6727
-26.2611
-28.2323
-30.5223
-32.9873
-35.425
-37.6019
-39.2841
-40.2661
-40.3967
-39.5987
-37.8798
-35.3355
-32.1417
-28.5398
-24.8142
-21.2645
-18.1762
-15.7916
-14.2852
-13.7447
-14.1625
-15.4359
-17.3776
-19.7356
-22.2184
-24.5252
-26.3753
-27.5346
-27.8362
-27.1931
-25.6021
-23.138
-19.9414
-16.1995
-12.1243
-7.93023
-3.81373
0.0632709
3.58361
6.67896
9.3275
11.546
13.3782
14.8812
16.1118
17.1153
17.9181
18.5242
18.9168
19.0638
18.9262
18.4684
17.6673
16.5208
15.0524
13.3127
11.3769
9.33871
7.30239
5.37277
3.64571
2.19968
1.08944
0.342363
-0.0424432
-0.0925834
0.14121
0.590068
1.17283
1.80223
2.39108
2.85803
3.13271
3.16002
2.90325
2.34606
1.49297
0.36861
-0.984339
-2.50834
-4.13503
-5.78988
-7.3971
-8.88461
-10.1886
-11.2573
-12.0541
-12.5593
-12.7708
-12.7029
-12.385
-11.8581
-11.171
-10.3762
-9.52519
-8.66484
-7.83386
-7.06087
-6.36346
-5.74852
-5.21363
-4.74926
-4.3414
-3.97432
-3.63307
-3.30545
-2.98328
-2.66288
-2.34483
-2.0331
-1.73378
-1.45365
-1.19891
-0.974061
-0.78132
-0.620338
-0.488377
-0.380735
-0.291378
-0.213644
-0.140991
-0.0677016
0.010471
0.0957942
0.188235
0.285407
0.382836
0.474604
0.554344
0.616532
0.657934
0.678977
0.684783
0.685562
0.696159
0.734643
0.82004
0.969502
1.19538
1.50279
1.88818
2.33938
2.83719
3.35834
3.8794
4.38078
4.85022
5.28476
5.691
6.0833
6.48017
6.89952
7.35347
7.84361
8.3576
8.86766
9.33128
9.69418
9.89524
9.87319
9.57427
8.96044
8.01707
6.75946
5.23691
3.53331
1.7635
0.064665
-1.4168
-2.54176
-3.1955
-3.30195
-2.8308
-1.79348
-0.225845
1.84253
4.42882
7.64049
11.7121
17.0245
24.0962
33.5399
45.9826
61.9541
81.757
105.336
132.165
161.187
190.802
218.943
243.224
261.155
270.407
269.092
256.03
230.948
194.608
148.805
96.2605
40.3954
-14.987
-66.0703
-109.405
-142.252
-162.85
-170.57
-165.943
-150.565
-126.878
-97.8807
-66.7863
-36.6783
-10.2063
10.6501
24.7234
31.6979
32.0509
26.9089
17.8441
6.64008
-4.94351
-15.3785
-23.5257
-28.7288
-30.8372
-30.1631
-27.3834
-23.4033
-19.2022
-15.6845
-13.552
-13.2147
-14.7477
-17.897
-22.1283
-26.7122
-30.8283
-33.6778
-34.5858
-33.0838
-28.9626
-22.2902
-13.3962
-2.82556
8.7302
20.5146
31.7903
41.9161
50.4073
56.9749
61.5403
64.2268
65.3294
65.272
64.5545
63.6999
63.2058
63.5041
64.9314
67.7107
71.9432
77.6084
84.5718
92.5972
101.363
110.485
119.534
128.067
135.651
141.894
146.464
149.121
149.725
148.245
144.76
139.442
132.534
124.323
115.108
105.178
94.7853
84.1435
73.422
62.7577
52.2684
42.068
32.2793
23.0396
14.4988
6.80939
0.110044
-5.4941
-9.95059
-13.2743
-15.5543
-16.9505
-17.6806
-17.9967
-18.1575
-18.3971
-18.8972
-19.7663
-21.028
-22.6221
-24.4159
-26.2257
-27.8446
-29.0723
-29.7436
-29.7511
-29.06
-27.7125
-25.8229
-23.5626
-21.1391
-18.7705
-16.6599
-14.9716
-13.8133
-13.2252
-13.1776
-13.5761
-14.2747
-15.0942
-15.8429
-16.3384
-16.4267
-15.9974
-14.9925
-13.409
-11.2943
-8.73753
-5.85598
-2.78143
0.353363
3.42532
6.32796
8.97431
11.2962
13.241
14.7672
15.8404
16.4312
16.5152
16.0764
15.1133
13.6457
11.7215
9.42251
6.86566
4.20031
1.6004
-0.748125
-2.66351
-3.98639
-4.59759
-4.43347
-3.49625
-1.85791
0.343421
2.91449
5.62436
8.22638
10.4821
12.1844
13.1772
13.3692
12.7406
11.342
9.28574
6.73159
3.86819
0.893106
-2.00643
-4.66973
-6.97442
-8.84266
-10.2419
-11.1808
-11.7007
-11.8659
-11.7519
-11.4354
-10.9854
-10.4569
-9.88759
-9.29727
-8.68897
-8.05217
-7.36704
-6.60933
-5.75547
-4.7878
-3.69933
-2.49792
-1.20936
0.121226
1.4299
2.63686
3.6517
4.38093
4.73704
4.64838
4.06883
2.986
1.42703
-0.539188
-2.80386
-5.22452
-7.6353
-9.86058
-11.7305
-13.0971
-13.8485
-13.9205
-13.3031
-12.0418
-10.2333
-8.01599
-5.55637
-3.0331
-0.620311
1.52801
3.29089
4.58946
5.39149
5.71117
5.60448
5.16076
4.49164
3.7184
2.95917
2.31717
1.87113
1.66865
1.72302
2.01376
2.49047
3.0797
3.69387
4.24139
4.63682
4.81005
4.71359
4.32741
3.66106
2.75304
1.66786
0.491045
-0.677153
-1.72901
-2.55693
-3.06097
-3.15602
-2.77831
-1.89105
-0.489008
1.39819
3.70456
6.32816
9.13413
11.9604
14.6264
16.9447
18.7348
19.8395
20.1414
19.5797
18.1657
15.9952
13.2578
10.2419
7.33429
5.01441
3.84249
4.44005
7.46129
13.5536
23.3052
37.1799
55.4411
78.0693
104.682
134.471
166.163
198.032
227.956
253.548
272.337
282.002
280.632
266.983
240.696
202.439
153.949
97.944
37.9287
-22.1194
-78.1255
-126.322
-163.63
-187.963
-198.428
-195.382
-180.356
-155.848
-125.02
-91.3306
-58.1685
-28.5042
-4.62141
12.0573
21.0341
22.6902
18.1452
9.04692
-2.67818
-15.0801
-26.416
-35.3305
-40.9702
-43.0241
-41.6933
-37.6002
-31.6552
-24.9014
-18.3588
-12.8891
-9.09419
-7.25967
-7.34581
-9.02199
-11.7365
-14.8089
-17.5317
-19.2658
-19.5205
-18.0065
-14.6603
-9.63758
-3.28022
3.9368
11.4707
18.7788
25.3815
30.9127
35.1532
38.0456
39.6891
40.3196
40.2754
39.9562
39.7795
40.1386
41.3653
43.7029
47.2865
52.1363
58.1594
65.1624
72.8707
80.9541
89.0557
96.8203
103.922
110.085
115.1
118.831
121.214
122.245
121.969
120.457
117.787
114.026
109.223
103.401
96.5743
88.755
79.9816
70.3383
59.9744
49.1137
38.0514
27.1391
16.7565
7.27515
-0.980542
-7.77038
-12.9665
-16.5691
-18.7065
-19.62
-19.6356
-19.126
-18.4685
-18.004
-18.0025
-18.6387
-19.98
-21.9888
-24.5356
-27.4233
-30.4159
-33.2704
-35.7658
-37.7267
-39.0396
-39.6591
-39.6062
-38.9578
-37.8317
-36.3675
-34.7081
-32.9825
-31.2931
-29.708
-28.2589
-26.9442
-25.7353
-24.5869
-23.4471
-22.2668
-21.0078
-19.6474
-18.1808
-16.6194
-14.9883
-13.3211
-11.6548
-10.0249
-8.46149
-6.98676
-5.6136
-4.34601
-3.18035
-2.10734
-1.11449
-0.188502
0.682585
1.50769
2.29162
3.03469
3.73294
4.3791
4.96394
5.47809
5.91383
6.26685
6.53747
6.7312
6.8584
6.93316
6.97146
6.98884
6.99812
7.00744
7.01917
7.0298
7.03095
7.01138
6.9595
6.86602
6.72602
6.54019
6.31478
6.06026
5.78892
5.51166
5.23476
4.95713
4.66874
4.3507
3.97714
3.51878
2.94771
2.24267
1.39397
0.407178
-0.695221
-1.87449
-3.07887
-4.24897
-5.32457
-6.2519
-6.99023
-7.51673
-7.82897
-7.94445
-7.89757
-7.7343
-7.50554
-7.26014
-7.03866
-6.86872
-6.76259
-6.71718
-6.71631
-6.73477
-6.74341
-6.71443
-6.62595
-6.46526
-6.23025
-5.92896
-5.57726
-5.19552
-4.80456
-4.42201
-4.05942
-3.72086
-3.403
-3.09669
-2.78955
-2.46916
-2.12614
-1.75666
-1.36382
-0.957883
-0.555154
-0.175875
0.158581
0.428739
0.619787
0.723703
0.74042
0.677917
0.551253
0.380721
0.189406
0.000506293
-0.165216
-0.291496
-0.367887
-0.390133
-0.359565
-0.281559
-0.163279
-0.0109747
0.17279
0.391622
0.65714
0.989897
1.41915
1.9813
2.71691
3.66622
4.86349
6.33033
8.06891
10.0559
12.2383
14.5319
16.8236
18.9775
20.8453
22.2791
23.146
23.3431
22.8103
21.5393
19.578
17.0292
14.0436
10.8079
7.52907
4.41692
1.66684
-0.555545
-2.12582
-2.96708
-3.05015
-2.38723
-1.01857
1.00759
3.66099
6.95926
10.9981
15.9759
22.2065
30.1115
40.1869
52.9416
68.8092
88.0416
110.598
136.05
163.509
191.62
218.595
242.33
260.568
271.12
272.102
262.171
240.73
208.07
165.418
114.904
59.4106
2.34579
-52.659
-102.081
-142.838
-172.579
-189.902
-194.475
-187.04
-169.312
-143.775
-113.406
-81.3644
-50.6666
-23.9032
-3.01407
10.8521
17.3823
17.0509
10.9895
0.796043
-11.6898
-24.617
-36.332
-45.5438
-51.43
-53.6773
-52.4572
-48.3465
-42.2072
-35.044
-27.8594
-21.5235
-16.6743
-13.6573
-12.508
-12.9767
-14.5873
-16.7195
-18.7034
-19.9105
-19.8336
-18.1425
-14.7145
-9.63545
-3.17545
4.25629
12.1695
20.0557
27.448
33.97
39.3709
43.5414
46.5126
48.4386
49.5671
50.2016
50.6622
51.2488
52.2108
53.7276
55.9001
58.7533
62.249
66.3047
70.8144
75.6682
80.7664
86.0251
91.3727
96.7384
102.035
107.139
111.878
116.02
119.282
121.345
121.884
120.603
117.275
111.78
104.129
94.4811
83.1439
70.5558
57.2567
43.8455
30.9307
19.0794
8.76903
0.348709
-5.98731
-10.2106
-12.4535
-12.9886
-12.1958
-10.521
-8.43028
-6.36582
-4.70644
-3.73755
-3.63218
-4.44433
-6.11435
-8.48486
-11.3249
-14.359
-17.299
-19.8734
-21.854
-23.0754
-23.4475
-22.9596
-21.6765
-19.7272
-17.2893
-14.5684
-11.7773
-9.1149
-6.74886
-4.80178
-3.34331
-2.38826
-1.90074
-1.8035
-1.99118
-2.34559
-2.75096
-3.10736
-3.3405
-3.40695
-3.29444
-3.01771
-2.61092
-2.1184
-1.58525
-1.04948
-0.536912
-0.0592592
0.384559
0.804499
1.21391
1.62368
2.03725
2.44744
2.83574
3.1742
3.42968
3.56957
3.56812
3.41225
3.10568
2.67087
2.14806
1.59177
1.06485
0.631181
0.347797
0.25757
0.383521
0.725535
1.25994
1.94205
2.71135
3.49843
4.23279
4.85021
5.29852
5.541
5.55704
5.34029
4.89506
4.23225
3.36605
2.31247
1.09045
-0.274733
-1.74645
-3.27166
-4.77757
-6.17174
-7.34675
-8.1897
-8.59568
-8.48333
-7.80998
-6.58361
-4.86913
-2.78748
-0.506873
1.77286
3.84115
5.4999
6.58601
6.99002
6.66838
5.64767
4.02028
1.9323
-0.434359
-2.88303
-5.22354
-7.29079
-8.95863
-10.1477
-10.8269
-11.0094
-10.7439
-10.1035
-9.17363
-8.04029
-6.7808
-5.45699
-4.11167
-2.76838
-1.43402
-0.104196
1.22957
2.57173
3.9147
5.23259
6.47758
7.58018
8.45352
9.00155
9.13001
8.75884
7.83407
6.33755
4.29271
1.76557
-1.13961
-4.28927
-7.53302
-10.7173
-13.6985
-16.3526
-18.5815
-20.3144
-21.5052
-22.1282
-22.1727
-21.6396
-20.5391
-18.893
-16.7377
-14.1298
-11.1504
-7.90763
-4.53614
-1.1915
1.95915
4.7502
7.03295
8.69101
9.65399
9.90729
9.49657
8.52623
7.15164
5.56589
3.9823
2.61409
1.65319
1.25006
1.49641
2.4129
3.94331
5.95654
8.25695
10.6025
12.729
14.3789
15.3296
15.4201
14.571
12.7962
10.2055
6.99585
3.43434
-0.166296
-3.47675
-6.18144
-8.00638
-8.74134
-8.25267
-6.48426
-3.44485
0.818342
6.25689
12.864
20.7138
29.9875
40.9735
54.0354
69.5412
87.7612
108.743
132.189
157.351
182.983
207.361
228.381
243.752
251.238
248.952
235.635
210.9
175.379
130.761
79.6943
25.5687
-27.8114
-76.6133
-117.379
-147.389
-164.947
-169.537
-161.851
-143.675
-117.655
-86.9753
-54.9907
-24.865
0.750488
19.9554
31.7362
35.9894
33.4389
25.4644
13.871
0.631284
-12.3669
-23.5353
-31.7425
-36.3981
-37.462
-35.3834
-30.9862
-25.3172
-19.482
-14.4892
-11.1216
-9.84832
-10.7856
-13.7057
-18.0898
-23.213
-28.2488
-32.3788
-34.8922
-35.2662
-33.2175
-28.7215
-22.0011
-13.4866
-3.75598
6.53766
16.741
26.2702
34.667
41.6374
47.0683
51.0234
53.7201
55.4904
56.7332
57.8621
59.2567
61.2215
63.9573
67.5467
71.9549
77.0438
82.596
88.3453
94.0085
99.3148
104.029
107.967
111
113.057
114.11
114.17
113.266
111.435
108.714
105.132
100.71
95.462
89.4036
82.5599
74.9754
66.7218
57.9029
48.6548
39.1399
29.536
20.0215
10.7595
1.88369
-6.51129
-14.3718
-21.6798
-28.4396
-34.6604
-40.3369
-45.4315
-49.8604
-53.4827
-56.0899
-57.3926
-57.0021
-54.4104
-48.9785
-39.9502
-26.509
-7.89182
16.4429
46.6112
82.1013
121.623
163.057
203.535
239.667
267.9
284.952
288.274
276.451
249.484
208.898
157.65
99.8481
40.3055
-15.9979
-64.481
-101.475
-124.618
-133.076
-127.576
-110.245
-84.2891
-53.5541
-22.0443
6.55327
29.2703
44.1418
50.3471
48.2005
39.0051
24.7975
8.02798
-8.78298
-23.3632
-33.9472
-39.4475
-39.5251
-34.5597
-25.5347
-13.8563
-1.13901
11.0151
21.2139
28.4271
32.0789
32.0753
28.7687
22.8715
15.3331
7.20102
-0.517481
-6.97353
-11.564
-13.9793
-14.2103
-12.5174
-9.36922
-5.36204
-1.13155
2.73156
5.75204
7.61924
8.21115
7.59267
5.99068
3.75109
1.28469
-0.990924
-2.70585
-3.58295
-3.46903
-2.34983
-0.348668
2.28983
5.22839
8.07595
10.4354
11.9604
12.4216
11.781
10.2684
8.44555
7.23707
7.90315
11.9323
20.8477
35.9401
57.9664
86.8699
121.586
159.985
198.994
234.883
263.695
281.76
286.2
275.364
249.114
208.914
157.71
99.6164
39.4485
-17.8267
-67.6544
-106.39
-131.672
-142.626
-139.882
-125.414
-102.228
-73.9472
-44.3618
-16.9816
5.33524
20.6491
28.0724
27.7658
20.8092
8.97381
-5.56767
-20.5507
-33.9086
-44.008
-49.8062
-50.9176
-47.5916
-40.6129
-31.1447
-20.5417
-10.1577
-1.17519
5.52624
9.44883
10.499
8.95609
5.3979
0.595926
-4.6023
-9.3881
-13.0895
-15.2417
-15.6236
-14.2608
-11.3956
-7.43438
-2.87825
1.7507
5.97871
9.43676
11.8981
13.294
13.7068
13.3446
12.4997
11.5001
10.6588
10.2287
10.368
11.1216
12.4179
14.0824
15.8648
17.4755
18.6266
19.0717
18.6405
17.2637
14.9849
11.9603
8.4461
4.77723
1.34055
-1.45145
-3.18338
-3.45339
-1.88317
1.87641
8.13998
17.1778
29.1971
44.3103
62.492
83.5248
106.945
131.996
157.603
182.383
204.697
222.752
234.742
239.03
234.331
219.9
195.674
162.352
121.413
75.0348
25.9362
-22.8471
-68.2359
-107.393
-137.993
-158.44
-168.01
-166.902
-156.192
-137.695
-113.758
-87.0006
-60.0491
-35.2792
-14.6046
0.669655
9.91889
13.1917
11.1314
4.84185
-4.28404
-14.7482
-25.1229
-34.199
-41.0912
-45.2943
-46.6891
-45.5021
-42.2296
-37.5395
-32.1645
-26.8014
-22.0276
-18.2426
-15.6395
-14.2068
-13.7554
-13.9659
-14.4475
-14.7994
-14.6669
-13.786
-12.0108
-9.32321
-5.82419
-1.70958
2.76549
7.32831
11.7308
15.7866
19.3981
22.5709
25.4131
28.1205
30.9505
34.1876
38.1061
42.9337
48.821
55.8197
63.8711
72.8059
82.3541
92.1641
101.828
110.913
118.99
125.672
130.634
133.647
134.589
133.453
130.355
125.511
119.227
111.867
103.819
95.4664
87.1478
79.1364
71.6186
64.6867
58.3422
52.5097
47.059
41.8327
36.6743
31.454
26.088
20.5498
14.8722
9.1407
3.48111
-1.95851
-7.02672
-11.5869
-15.5322
-18.7962
-21.3579
-23.2415
-24.5116
-25.2639
-25.6136
-25.682
-25.5832
-25.4129
-25.239
-25.0973
-24.9909
-24.8949
-24.7648
-24.5477
-24.1951
-23.6745
-22.9788
-22.1313
-21.1854
-20.2201
-19.3284
-18.6046
-18.1284
-17.9501
-18.0793
-18.4782
-19.0611
-19.7003
-20.2383
-20.5041
-20.3322
-19.5817
-18.1528
-15.9997
-13.1377
-9.64369
-5.65057
-1.33635
3.09138
7.4133
11.4169
14.9135
17.7529
19.8329
21.1044
21.5713
21.286
20.3409
18.8582
16.9781
14.8486
12.6153
10.4141
8.36518
6.56957
5.10675
4.03363
3.3841
3.16905
3.3767
3.97338
4.90485
6.09839
7.46579
8.90706
10.3147
11.5784
12.589
13.2431
13.4468
13.1202
12.2023
10.6565
8.47695
5.69413
2.37939
-1.3537
-5.35191
-9.42979
-13.3818
-16.9983
-20.0837
-22.475
-24.0576
-24.7766
-24.6425
-23.7291
-22.1645
-20.117
-17.7764
-15.3339
-12.964
-10.8093
-8.97075
-7.504
-6.42102
-5.69672
-5.27855
-5.09717
-5.07673
-5.14333
-5.23104
-5.28563
-5.2665
-5.14757
-4.91787
-4.58197
-4.15983
-3.68549
-3.20383
-2.76492
-2.4161
-2.19273
-2.109
-2.15066
-2.2715
-2.39515
-2.4227
-2.246
-1.76489
-0.905873
0.360756
2.00864
3.95045
6.04183
8.09443
9.89648
11.2385
11.9405
11.8769
10.9956
9.32902
6.99466
4.1859
1.15388
-1.81729
-4.43901
-6.44719
-7.6287
-7.84276
-7.03534
-5.2454
-2.60243
0.684436
4.345
8.07262
11.5529
14.494
16.6549
17.87
18.0661
17.2704
15.6081
13.2899
10.5903
7.81961
5.29158
3.29146
2.04693
1.70501
2.31692
3.83203
6.10111
8.88858
11.8928
14.7728
17.1798
18.7898
19.337
18.6416
16.6322
13.3588
8.99501
3.82845
-1.76003
-7.32765
-12.4079
-16.5519
-19.3667
-20.5462
-19.8876
-17.2908
-12.7391
-6.26356
2.10161
12.3634
24.6009
38.9702
55.6753
74.9008
96.7133
120.944
147.076
174.158
200.771
225.063
244.867
257.895
261.982
255.376
237.01
206.73
165.439
115.123
58.7443
0.0104105
-56.9701
-108.096
-149.702
-178.953
-194.145
-194.89
-182.139
-158.061
-125.778
-89.0085
-51.6467
-17.344
10.8614
30.8269
41.4677
42.7887
35.7907
22.2695
4.54145
-14.8669
-33.5262
-49.3708
-60.8984
-67.2824
-68.3954
-64.745
-57.3417
-47.5193
-36.7339
-26.3696
-17.5724
-11.132
-7.41966
-6.38656
-7.61643
-10.4202
-13.9568
-17.3614
-19.8635
-20.8804
-20.0746
-17.3728
-12.9459
-7.15752
-0.490682
6.53487
13.4421
19.8615
25.574
30.5262
34.8188
38.673
42.3789
46.2388
50.5109
55.3647
60.8525
66.9012
73.3243
79.8519
86.1724
91.9798
97.0187
101.122
104.231
106.406
107.808
108.679
109.296
109.933
110.816
112.086
113.772
115.783
117.909
119.841
121.201
121.579
120.579
117.86
113.175
106.4
97.5548
86.8079
74.4691
60.9687
46.8254
32.6064
18.8828
6.18565
-5.03477
-14.441
-21.8298
-27.141
-30.4531
-31.9666
-31.9778
-30.8453
-28.9533
-26.6761
-24.3463
-22.2303
-20.5132
-19.2939
-18.589
-18.3462
-18.4625
-18.8071
-19.2432
-19.6485
-19.9309
-20.0375
-19.9578
-19.7195
-19.3793
-19.0101
-18.686
-18.4682
-18.3944
-18.471
-18.6713
-18.9385
-19.193
-19.3431
-19.2969
-18.9743
-18.3165
-17.2923
-15.9008
-14.1695
-12.1488
-9.90493
-7.51005
-5.03373
-2.53511
-0.0579081
2.37141
4.74186
7.05282
9.30658
11.4998
13.6156
15.6176
17.4484
19.0307
20.2748
21.0883
21.3893
21.1189
20.2541
18.8153
16.8705
14.5326
11.9518
9.30255
6.7672
4.51844
2.70236
1.42448
0.740257
0.651267
1.10721
2.01339
3.24254
4.64923
6.08523
7.41375
8.52122
9.32536
9.77893
9.86939
9.61482
9.05712
8.25376
7.26916
6.16694
5.00378
3.82529
2.66412
1.54004
0.461609
-0.571204
-1.56384
-2.52407
-3.45933
-4.37467
-5.27139
-6.14633
-6.9917
-7.79529
-8.54109
-9.21018
-9.78196
-10.2356
-10.552
-10.7152
-10.7149
-10.5479
-10.2195
-9.74444
-9.14638
-8.45704
-7.71381
-6.95671
-6.2248
-5.55246
-4.96615
-4.48205
-4.10481
-3.82782
-3.63465
-3.5017
-3.40151
-3.30631
-3.19134
-3.03764
-2.83378
-2.5767
-2.2714
-1.92984
-1.56914
-1.20934
-0.871041
-0.573141
-0.330838
-0.154115
-0.0468289
-0.00647397
-0.0246308
-0.0880459
-0.180208
-0.283235
-0.379846
-0.455183
-0.498257
-0.502853
-0.467765
-0.396353
-0.295485
-0.174055
-0.0412955
0.094826
0.22888
0.358724
0.485608
0.613622
0.748553
0.896327
1.06128
1.24455
1.44292
1.64845
1.84907
2.03025
2.17765
2.28036
2.33432
2.3452
2.33014
2.31791
2.34706
2.4622
2.70864
3.12603
3.74192
4.56599
5.58598
6.76583
8.04662
9.35004
10.5845
11.6527
12.4609
12.9273
12.9914
12.6205
11.8166
10.6212
9.11915
7.44385
5.78175
4.37846
3.5448
3.6612
5.17721
8.60201
14.4811
23.3555
35.7021
51.8564
71.9251
95.6978
122.573
151.51
181.027
209.249
234.008
253.003
264.005
265.085
254.849
232.65
198.749
154.392
101.795
44.0141
-15.2892
-72.165
-122.747
-163.632
-192.228
-207.015
-207.702
-195.238
-171.703
-140.059
-103.826
-66.6972
-32.1544
-3.12491
18.284
30.9425
34.7383
30.4995
19.8198
4.81058
-12.1832
-28.8686
-43.2579
-53.8611
-59.8023
-60.8519
-57.3785
-50.2358
-40.6026
-29.803
-19.1285
-9.68636
-2.28761
2.6135
4.92895
4.89948
3.02135
-0.0489673
-3.59668
-6.94348
-9.52381
-10.9356
-10.9625
-9.56985
-6.87794
-3.12099
1.40141
6.3726
11.5009
16.5511
21.3644
25.8646
30.0549
34.0054
37.8355
41.6941
45.7388
50.1174
54.9508
60.3191
66.2505
72.7139
79.6142
86.7932
94.0338
101.071
107.606
113.329
117.941
121.177
122.836
122.795
121.026
117.6
112.679
106.504
99.3658
91.5811
83.4568
75.264
67.2167
59.461
52.0742
45.0749
38.4408
32.1291
26.0978
20.3224
14.8048
9.57551
4.68759
0.204944
-3.81192
-7.31991
-10.3043
-12.7842
-14.8128
-16.4705
-17.855
-19.0673
-20.1987
-21.3184
-22.4653
-23.6452
-24.832
-25.9744
-27.006
-27.8577
-28.469
-28.7992
-28.8337
-28.5875
-28.1034
-27.446
-26.693
-25.9242
-25.2099
-24.601
-24.121
-23.7626
-23.4868
-23.2278
-22.9005
-22.4112
-21.6692
-20.5985
-19.1479
-17.2977
-15.0629
-12.4916
-9.66023
-6.66511
-3.61205
-0.605478
2.26162
4.91594
7.30922
9.42042
11.2546
12.8388
14.2156
15.4344
16.5419
17.5719
18.536
19.4166
20.1631
20.6927
20.8977
20.6585
19.8618
18.4229
16.3072
13.5488
10.261
6.63596
2.93168
-0.553069
-3.51385
-5.68075
-6.858
-6.95676
-6.01551
-4.20383
-1.80807
0.800208
3.20901
5.01818
5.89171
5.60278
4.06505
1.34594
-2.34014
-6.65738
-11.1893
-15.4893
-19.1335
-21.7698
-23.1566
-23.1864
-21.8923
-19.4381
-16.0923
-12.1929
-8.10601
-4.18508
-0.735368
2.0124
3.91704
4.9301
5.08838
4.49803
3.31357
1.71497
-0.113833
-2.00278
-3.80808
-5.4188
-6.75788
-7.77879
-8.45928
-8.79395
-8.78722
-8.44784
-7.78577
-6.81164
-5.53856
-3.98563
-2.18248
-0.17348
1.97891
4.19288
6.36844
8.39134
10.1394
11.4911
12.3345
12.5775
12.1558
11.0399
9.24031
6.80953
3.84232
0.47312
-3.12887
-6.76734
-10.2293
-13.2983
-15.7704
-17.4715
-18.2751
-18.1181
-17.0127
-15.0513
-12.4037
-9.30426
-6.03089
-2.87631
-0.115926
2.02435
3.39528
3.94262
3.71335
2.84856
1.56359
0.118067
-1.21991
-2.21033
-2.67331
-2.51219
-1.72451
-0.399638
1.29609
3.1444
4.90631
6.35511
7.3065
7.64207
7.32314
6.39378
4.97298
3.23758
1.39858
-0.325816
-1.73691
-2.6785
-3.05365
-2.83335
-2.05653
-0.821802
0.72754
2.42309
4.09275
5.58128
6.7675
7.57618
7.98367
8.01718
7.7485
7.28429
6.75533
6.30794
6.10039
6.306
7.12327
8.79062
11.6014
15.9129
22.1422
30.7441
42.1662
56.7838
74.8166
96.2392
120.695
147.426
175.243
202.534
227.338
247.475
260.733
265.099
259.001
241.545
212.691
173.361
125.44
71.6699
15.4293
-39.5599
-89.5865
-131.312
-162.101
-180.28
-185.295
-177.751
-159.322
-132.559
-100.604
-66.8531
-34.6041
-6.73349
14.5684
27.9728
33.0845
30.4072
21.2128
7.33536
-9.08178
-25.8532
-41.0006
-52.9572
-60.7049
-63.8359
-62.5352
-57.4949
-49.7747
-40.6313
-31.3403
-23.0323
-16.5635
-12.4322
-10.7493
-11.2596
-13.4087
-16.4406
-19.5134
-21.8152
-22.6667
-21.5981
-18.394
-13.1032
-6.01434
2.39516
11.5296
20.7546
29.4755
37.2054
43.6156
48.5636
52.0969
54.4341
55.9272
57.0099
58.141
59.7482
62.1805
65.6726
70.3257
76.1048
82.8504
90.3026
98.1328
105.978
113.474
120.285
126.121
130.753
134.018
135.813
136.095
134.862
132.154
128.037
122.603
115.96
108.237
99.5789
90.1504
80.1358
69.7399
59.1847
48.7058
38.5427
28.9272
20.0678
12.1328
5.23486
-0.58097
-5.34264
-9.14826
-12.1543
-14.5554
-16.5592
-18.3577
-20.1014
-21.8792
-23.7084
-25.5356
-27.2501
-28.7067
-29.755
-30.2703
-30.1806
-29.4855
-28.264
-26.6693
-24.9117
-23.2315
-21.8669
-21.0211
-20.8325
-21.3545
-22.5459
-24.2731
-26.325
-28.4372
-30.3223
-31.703
-32.3433
-32.0739
-30.8105
-28.561
-25.4234
-21.5734
-17.2448
-12.7035
-8.22044
-4.04468
-0.380008
2.63188
4.92084
6.4894
7.4059
7.791
7.79928
7.59854
7.34919
7.18619
7.20551
7.45643
7.94014
8.61453
9.40393
10.2124
10.9382
11.4882
11.7889
11.7951
11.4925
10.8969
10.0493
9.00773
7.83824
6.60568
5.3657
4.15914
3.00916
1.92116
0.885158
-0.120193
-1.12275
-2.15208
-3.23514
-4.39281
-5.63691
-6.9678
-8.37206
-9.82039
-11.266
-12.644
-13.8724
-14.8564
-15.4945
-15.6889
-15.3585
-14.4523
-12.9638
-10.9411
-8.4927
-5.78617
-3.03787
-0.494985
1.58978
2.98778
3.52459
3.1065
1.73901
-0.465815
-3.29503
-6.45357
-9.59411
-12.3545
-14.3978
-15.4509
-15.3351
-13.9863
-11.4622
-7.93543
-3.67364
0.98957
5.69049
10.0726
13.8215
16.6933
18.5339
19.2879
18.9959
17.7821
15.8343
13.3782
10.6506
7.87285
5.22975
2.85351
0.815866
-0.872111
-2.253
-3.41007
-4.45031
-5.48577
-6.61539
-7.90954
-9.3987
-11.0677
-12.8555
-14.661
-16.3528
-17.7836
-18.8055
-19.2865
-19.1252
-18.2625
-16.6894
-14.4499
-11.6382
-8.39183
-4.87922
-1.28569
2.20288
5.41564
8.21065
10.4854
12.1833
13.2953
13.8577
13.9451
13.6618
13.1291
12.4734
11.8129
11.2463
10.8428
10.6357
10.6199
10.7527
10.9598
11.1447
11.2008
11.0254
10.5337
9.67126
8.42368
6.82155
4.94077
2.89752
0.838551
-1.07208
-2.66836
-3.79759
-4.33338
-4.18392
-3.2934
-1.63482
0.806266
4.05585
8.1802
13.3134
19.6767
27.5814
37.4087
49.5635
64.4008
82.1341
102.734
125.836
150.67
176.038
200.336
221.645
237.876
246.969
247.117
237
215.996
184.333
143.167
94.5576
41.3433
-13.0852
-65.0867
-111.117
-148.08
-173.645
-186.487
-186.413
-174.376
-152.354
-123.123
-89.9496
-56.2318
-25.1487
0.65602
19.3119
29.8606
32.2839
27.4237
16.8113
2.43174
-13.5443
-29.0266
-42.238
-51.8886
-57.2751
-58.3006
-55.4184
-49.5142
-41.7458
-33.3656
-25.5476
-19.2415
-15.0693
-13.2722
-13.7119
-15.9187
-19.1783
-22.6421
-25.4456
-26.8207
-26.1883
-23.2208
-17.8709
-10.3646
-1.16168
9.10877
19.729
29.9787
39.2166
46.9475
52.8696
56.8966
59.1554
59.9609
59.7722
59.1365
58.6269
58.781
60.0471
62.741
67.0197
72.8705
80.119
88.4512
97.448
106.628
115.492
123.567
130.444
135.805
139.438
141.241
141.211
139.43
136.035
131.199
125.102
117.917
109.795
100.87
91.2643
81.0967
70.5028
59.6469
48.7315
37.9988
27.7236
18.1972
9.7041
2.49428
-3.24408
-7.40862
-9.99896
-11.1223
-10.9872
-9.8857
-8.16596
-6.19811
-4.33823
-2.89436
-2.09898
-2.09094
-2.90887
-4.49631
-6.71729
-9.37989
-12.2642
-15.151
-17.8474
-20.2058
-22.136
-23.6069
-24.6415
-25.3037
-25.6815
-25.869
-25.9488
-25.9788
-25.9839
-25.9541
-25.8488
-25.6056
-25.1531
-24.4244
-23.3697
-21.9664
-20.2245
-18.1871
-15.9258
-13.5324
-11.1078
-8.7498
-6.54165
-4.54373
-2.78824
-1.27839
0.00840962
1.11391
2.09013
2.98979
3.85741
4.72264
5.59659
6.4716
7.32429
8.12117
8.82565
9.40536
9.83834
10.1174
10.2514
10.2647
10.1928
10.0772
9.95917
9.8738
9.84482
9.8817
9.97883
10.1168
10.2657
10.3897
10.4518
10.4185
10.2637
9.97067
9.53295
8.95337
8.24244
7.4158
6.49172
5.4888
4.42422
3.31274
2.16645
0.99504
-0.193405
-1.39157
-2.59211
-3.78719
-4.96843
-6.12716
-7.25505
-8.34474
-9.39041
-10.388
-11.3353
-12.2311
-13.0747
-13.8651
-14.6
-15.2757
-15.8863
-16.4248
-16.8828
-17.252
-17.5244
-17.6932
-17.7529
-17.6996
-17.5307
-17.2446
-16.8407
-16.3196
-15.683
-14.9346
-14.0812
-13.133
-12.1045
-11.0147
-9.88596
-8.74346
-7.61304
-6.51935
-5.48381
-4.52293
-3.64722
-2.86075
-2.16159
-1.54299
-0.995211
-0.507677
-0.0712719
0.3197
0.666179
0.963941
1.20428
1.37573
1.46661
1.468
1.37653
1.1965
0.940894
0.630937
0.294355
-0.0375614
-0.333496
-0.565683
-0.712846
-0.761962
-0.708485
-0.555011
-0.308628
0.0224751
0.432445
0.92047
1.49215
2.15915
2.93705
3.84173
4.88497
6.06995
7.38762
8.81482
10.3144
11.8374
13.3278
14.7276
15.9825
17.0475
17.8907
18.4943
18.8551
18.9813
18.888
18.5926
18.1086
17.4416
16.5858
15.5237
14.2282
12.6678
10.816
8.66184
6.22406
3.5649
0.803258
-1.87531
-4.21325
-5.88205
-6.49018
-5.59805
-2.73932
2.55218
10.7105
22.1007
36.9757
55.4279
77.3345
102.3
129.605
158.166
186.524
212.881
235.186
251.279
259.1
256.923
243.602
218.792
183.097
138.12
86.3984
31.2142
-23.6956
-74.5029
-117.677
-150.348
-170.604
-177.675
-171.991
-155.097
-129.461
-98.169
-64.5827
-31.9737
-3.19668
19.5714
34.997
42.6485
42.9496
37.0409
26.573
13.4627
-0.356329
-13.1591
-23.6054
-30.8514
-34.5887
-35.0143
-32.7409
-28.6652
-23.8138
-19.1891
-15.6334
-13.7265
-13.7278
-15.5651
-18.867
-23.0321
-27.3223
-30.9655
-33.2556
-33.6361
-31.7596
-27.5169
-21.0362
-12.6543
-2.86645
7.73681
18.538
28.9568
38.504
46.8192
53.691
59.0587
62.998
65.6948
67.4106
68.4455
69.1028
69.6582
70.3378
71.3039
72.6511
74.4099
76.5573
79.0316
81.7495
84.6233
87.5754
90.5486
93.5105
96.4519
99.378
102.295
105.195
108.038
110.737
113.154
115.097
116.329
116.584
115.593
113.11
108.944
102.987
95.2385
85.8167
74.9641
63.0371
50.4835
37.8091
25.536
14.1586
4.10011
-4.3234
-10.9283
-15.6746
-18.6625
-20.1144
-20.3453
-19.7245
-18.635
-17.4338
-16.418
-15.8007
-15.6986
-16.1312
-17.032
-18.2675
-19.6628
-21.0291
-22.1891
-22.9991
-23.3637
-23.2428
-22.6515
-21.6525
-20.3444
-18.8462
-17.2812
-15.763
-14.3834
-13.2048
-12.2569
-11.5377
-11.0176
-10.6465
-10.3617
-10.0965
-9.78808
-9.3835
-8.84437
-8.14941
-7.29521
-6.29529
-5.17791
-3.98278
-2.75709
-1.55115
-0.413905
0.611406
1.49104
2.20376
2.74262
3.11542
3.34346
3.45878
3.50001
3.50721
3.51652
3.55517
3.63764
3.76373
3.91867
4.0756
4.19985
4.25468
4.20734
4.03473
3.72759
3.2927
2.75259
2.14283
1.50736
0.892494
0.34059
-0.115597
-0.457058
-0.680535
-0.798145
-0.834803
-0.823922
-0.802166
-0.804106
-0.857582
-0.980406
-1.17878
-1.44745
-1.77146
-2.12897
-2.49462
-2.84287
-3.15081
-3.40012
-3.57802
-3.67736
-3.69611
-3.63647
-3.50406
-3.30729
-3.0571
-2.76682
-2.45215
-2.13093
-1.82237
-1.54584
-1.31912
-1.15623
-1.06535
-1.04714
-1.09386
-1.18953
-1.31131
-1.43204
-1.52351
-1.56013
-1.52247
-1.40014
-1.1935
-0.914002
-0.583006
-0.229253
0.114676
0.416416
0.647817
0.78837
0.827604
0.766189
0.615639
0.396694
0.136656
-0.133944
-0.384889
-0.589544
-0.727463
-0.786004
-0.760829
-0.655304
-0.479001
-0.245609
0.0293564
0.330691
0.64523
0.963008
1.27784
1.58742
1.893
2.19887
2.5117
2.83982
3.19241
3.57874
4.00726
4.48471
5.01516
5.59911
6.23287
6.90821
7.61267
8.33025
9.04274
9.73124
10.3777
10.9663
11.4837
11.9196
12.2654
12.5137
12.6562
12.6833
12.5834
12.3431
11.9483
11.3861
10.6467
9.72614
8.62822
7.3661
5.96333
4.45389
2.88144
1.2976
-0.240372
-1.67255
-2.9395
-3.98533
-4.75994
-5.21959
-5.32459
-5.03262
-4.28633
-2.99507
-1.01176
1.89126
6.04157
11.8732
19.9119
30.7331
44.8882
62.8036
84.6605
110.272
138.975
169.568
200.303
228.957
252.987
269.762
276.844
272.297
254.978
224.762
182.667
130.852
72.4754
11.4238
-48.0585
-101.798
-146.121
-178.24
-196.528
-200.673
-191.673
-171.685
-143.753
-111.44
-78.42
-48.0837
-23.1902
-5.61845
3.76685
5.12375
-0.476772
-11.2574
-25.0066
-39.3787
-52.185
-61.6403
-66.5419
-66.3612
-61.2487
-51.9551
-39.6884
-25.9273
-12.2192
0.0130868
9.63188
15.8969
18.5197
17.6584
13.8603
7.96188
0.964518
-6.09815
-12.2837
-16.8412
-19.2775
-19.3849
-17.2307
-13.1117
-7.48563
-0.888512
6.14758
13.1662
19.8381
25.988
31.5947
36.7687
41.7123
46.6707
51.8826
57.5377
63.7476
70.5313
77.8175
85.4602
93.2628
101.008
108.485
115.514
121.959
127.735
132.805
137.164
140.827
143.812
146.115
147.708
148.523
148.459
147.388
145.173
141.682
136.815
130.516
122.795
113.731
103.48
92.2674
80.3792
68.1462
55.924
44.0708
32.9229
22.7712
13.8389
6.26328
0.0842744
-4.75888
-8.42116
-11.1353
-13.1863
-14.8796
-16.5063
-18.3092
-20.4543
-23.0119
-25.9486
-29.1332
-32.3545
-35.3496
-37.8388
-39.5622
-40.3148
-39.9731
-38.5124
-36.0114
-32.6441
-28.6601
-24.3571
-20.0473
-16.0241
-12.5318
-9.7422
-7.74068
-6.52323
-6.00361
-6.02976
-6.40673
-6.92298
-7.37668
-7.59869
-7.46964
-6.92941
-5.97832
-4.67044
-3.10064
-1.38733
0.346293
1.9899
3.46028
4.71041
5.73253
6.55522
7.23534
7.84647
8.46576
9.16116
9.98103
10.9472
12.0525
13.2618
14.5177
15.7478
16.8739
17.8211
18.5262
18.9446
19.0541
18.857
18.3784
17.6626
16.7669
15.7538
14.6836
13.6067
12.5575
11.5514
10.5841
9.63353
8.66448
7.63509
6.5038
5.23622
3.81065
2.22142
0.479831
-1.38742
-3.34159
-5.33614
-7.32081
-9.24466
-11.0574
-12.7097
-14.1517
-15.3328
-16.2014
-16.7065
-16.802
-16.452
-15.6373
-14.3624
-12.6602
-10.5946
-8.25958
-5.77416
-3.27411
-0.900617
1.21229
2.95031
4.22964
5.00475
5.27223
5.07025
4.47378
3.58626
2.52868
1.42726
0.401253
-0.448028
-1.04586
-1.34962
-1.35074
-1.07311
-0.568093
0.0931988
0.829645
1.56071
2.21676
2.74793
3.13024
3.3682
3.49331
3.55839
3.62847
3.76929
4.03516
4.45788
5.03849
5.74312
6.50373
7.22365
7.78731
8.07308
7.96734
7.37826
6.24735
4.55739
2.33558
-0.348441
-3.38949
-6.65787
-10.0131
-13.3184
-16.4545
-19.3311
-21.8941
-24.1288
-26.0584
-27.7389
-29.2493
-30.681
-32.1253
-33.6619
-35.3488
-37.2156
-39.2602
-41.4493
-43.7224
-45.9987
-48.1858
-50.1884
-51.9167
-53.2934
-54.2579
-54.7682
-54.8004
-54.3452
-53.4025
-51.9737
-50.0521
-47.6112
-44.5907
-40.8812
-36.3083
-30.6194
-23.475
-14.4529
-3.06795
11.1858
28.7676
49.9999
74.9607
103.373
134.507
167.12
199.45
229.284
254.104
271.306
278.477
273.696
255.817
224.703
181.356
127.926
67.5879
4.28104
-57.6518
-113.889
-160.568
-194.677
-214.354
-219.06
-209.601
-187.997
-157.227
-120.876
-82.7372
-46.4074
-14.9364
9.44253
25.47
32.8976
32.4087
25.4425
13.9492
0.11117
-13.9339
-26.3367
-35.7197
-41.2866
-42.8497
-40.7812
-35.9004
-29.317
-22.2527
-15.8649
-11.0946
-8.55468
-8.46854
-10.6644
-14.6203
-19.5514
-24.526
-28.5935
-30.9088
-30.8371
-28.0279
-22.45
-14.3865
-4.39078
6.78806
18.3001
29.2974
39.0318
46.9369
52.6844
56.2105
57.7117
57.6096
56.4932
55.045
53.9602
53.8688
55.2689
58.4783
63.6077
70.5593
79.0463
88.6328
98.7857
108.933
118.523
127.073
134.208
139.686
143.4
145.368
145.713
144.625
142.329
139.046
134.962
130.203
124.831
118.836
112.157
104.7
96.3723
87.1129
76.9254
65.8995
54.2225
42.1777
30.1271
18.4828
7.66931
-1.91847
-9.9552
-16.2186
-20.6119
-23.1727
-24.0672
-23.5706
-22.0379
-19.8661
-17.4557
-15.1731
-13.321
-12.1162
-11.6801
-12.0396
-13.1382
-14.8548
-17.0279
-19.4803
-22.0419
-24.5669
-26.9445
-29.101
-30.9946
-32.6051
-33.9199
-34.9209
-35.574
-35.8238
-35.595
-34.8001
-33.3527
-31.1839
-28.2588
-24.591
-20.2504
-15.3655
-10.1164
-4.72151
0.581823
5.55924
10.0016
13.7441
16.6803
18.7692
20.0348
20.5583
20.4653
19.908
19.0474
18.0345
16.9956
16.0213
15.1607
14.4205
13.7696
13.1474
12.4744
11.6645
10.6371
9.32786
7.69701
5.73559
3.46833
0.953632
-1.71947
-4.43719
-7.06929
-9.47925
-11.5356
-13.1231
-14.1536
-14.5744
-14.3739
-13.5844
-12.28
-10.5722
-8.60047
-6.52189
-4.49821
-2.68299
-1.2097
-0.181753
0.334469
0.313115
-0.23128
-1.24726
-2.65253
-4.34173
-6.19473
-8.08474
-9.88537
-11.4767
-12.7505
-13.6146
-13.9981
-13.8559
-13.1739
-11.9736
-10.3147
-8.29576
-6.05059
-3.74062
-1.54279
0.366025
1.82672
2.71554
2.95923
2.54534
1.52603
0.0144535
-1.82626
-3.80007
-5.69928
-7.32713
-8.51911
-9.16017
-9.19584
-8.63608
-7.55142
-6.06234
-4.32332
-2.50374
-0.768239
0.741117
1.91883
2.70457
3.08582
3.09467
2.79965
2.29407
1.68262
1.06801
0.539394
0.163696
-0.0193281
0.00190145
0.213349
0.580748
1.05673
1.58854
2.12512
2.62283
3.04897
3.38309
3.6162
3.74839
3.78547
3.73559
3.60636
3.40311
3.12849
2.7834
2.36891
1.88868
1.35123
0.771655
0.172264
-0.418081
-0.965787
-1.43533
-1.79261
-2.00829
-2.06062
-1.93709
-1.63437
-1.15568
-0.504834
0.324159
1.36256
2.68737
4.4452
6.8755
10.3272
15.2602
22.2247
31.8102
44.5649
60.8883
80.9115
104.382
130.575
158.256
185.705
210.817
231.265
244.732
249.163
243.032
225.563
196.903
158.191
111.525
59.8136
6.52683
-44.6277
-90.0695
-126.706
-152.247
-165.43
-166.137
-155.378
-135.16
-108.238
-77.8044
-47.132
-19.2349
3.42949
19.1772
27.2138
27.6442
21.3804
9.96709
-4.65012
-20.3802
-35.2358
-47.5461
-56.1128
-60.2954
-60.0233
-55.7399
-48.2929
-38.7888
-28.433
-18.3762
-9.58518
-2.75007
1.76327
3.9165
3.96149
2.37229
-0.24182
-3.22894
-5.98059
-8.00122
-8.95436
-8.68252
-7.20141
-4.67241
-1.35945
2.42235
6.35856
10.181
13.702
16.8328
19.5875
22.0701
24.4513
26.9362
29.7293
33.0018
36.8647
41.3512
46.4102
51.9115
57.6604
63.4204
68.9396
73.9789
78.3363
81.8661
84.4903
86.202
87.0588
87.171
86.6822
85.7488
84.5165
83.0999
81.5648
79.9169
78.0976
75.9894
73.4309
70.2389
66.2372
61.2874
55.3153
48.332
40.4431
31.846
22.8152
13.6772
4.77938
-3.54456
-11.006
-17.3875
-22.5601
-26.4899
-29.2343
-30.9287
-31.7664
-31.9728
-31.7804
-31.4038
-31.0203
-30.7565
-30.6823
-30.812
-31.1121
-31.5138
-31.9283
-32.2632
-32.4372
-32.392
-32.1
-31.5669
-30.83
-29.9523
-29.0129
-28.0967
-27.2826
-26.6341
-26.191
-25.9648
-25.937
-26.0603
-26.2622
-26.4506
-26.5205
-26.3617
-25.8671
-24.9416
-23.5105
-21.5274
-18.9806
-15.8972
-12.3448
-8.42884
-4.28726
-0.0816694
4.01418
7.82735
11.1991
13.9969
16.1248
17.5297
18.2036
18.1823
17.5395
16.3776
14.8168
12.9839
11.001
8.97786
7.00655
5.16014
3.4945
2.0524
0.86859
-0.0256624
-0.599739
-0.823591
-0.670686
-0.123677
0.81817
2.13127
3.76144
5.62076
7.58862
9.51786
11.2454
12.6068
13.4527
13.6649
13.171
11.9544
10.0578
7.58168
4.67526
1.52253
-1.6756
-4.72081
-7.43613
-9.68185
-11.3668
-12.4536
-12.9583
-12.9435
-12.5074
-11.7699
-10.8575
-9.88915
-8.96459
-8.15662
-7.50742
-7.02913
-6.7079
-6.51039
-6.39139
-6.30128
-6.19233
-6.0232
-5.76131
-5.38338
-4.87469
-4.22782
-3.4418
-2.52225
-1.48274
-0.347089
0.847889
2.05037
3.19304
4.19492
4.96609
5.415
5.45801
5.03001
4.09492
2.65451
0.754099
-1.51596
-4.02369
-6.60392
-9.07117
-11.2357
-12.9214
-13.9832
-14.3223
-13.8977
-12.7318
-10.9098
-8.57339
-5.90738
-3.12303
-0.437702
1.94606
3.86024
5.18772
5.87373
5.93082
5.43706
4.52707
3.37708
2.18508
1.1486
0.442153
0.197321
0.487638
1.32021
2.63508
4.31247
6.18694
8.06674
9.756
11.0769
11.8895
12.1064
11.7019
10.7127
9.23326
7.40384
5.3948
3.38835
1.56036
0.0644356
-0.979517
-1.49019
-1.42191
-0.752911
0.534791
2.48233
5.18415
8.81599
13.6541
20.0779
28.5495
39.5663
53.585
70.9238
91.6508
115.477
141.669
169.007
195.801
219.974
239.227
251.259
254.029
246.027
226.518
195.711
154.836
106.101
52.5319
-2.29666
-54.6007
-100.764
-137.702
-163.17
-175.975
-176.072
-164.538
-143.411
-115.449
-83.8114
-51.7184
-22.1236
2.56174
20.6666
31.3616
34.6613
31.3328
22.7312
10.5851
-3.23705
-16.952
-29.0523
-38.4441
-44.5209
-47.1707
-46.7234
-43.8499
-39.4301
-34.4099
-29.6641
-25.884
-23.4996
-22.644
-23.1609
-24.6498
-26.541
-28.1866
-28.9565
-28.3248
-25.9375
-21.6535
-15.5561
-7.93466
0.757208
9.96299
19.0929
27.5941
35.0126
41.0401
45.5413
48.56
50.304
51.1127
51.4127
51.6653
52.3141
53.7376
56.2113
59.8826
64.7612
70.724
77.533
84.8653
92.3488
99.6012
106.268
112.051
116.735
120.196
122.4
123.392
123.277
122.191
120.275
117.65
114.397
110.545
106.073
100.919
94.9958
88.2207
80.5395
71.9538
62.5401
52.4598
41.9565
31.3411
20.9665
11.1941
2.35826
-5.2684
-11.5025
-16.2676
-19.5997
-21.6398
-22.6152
-22.8119
-22.5414
-22.1076
-21.7753
-21.7463
-22.1439
-23.0077
-24.2979
-25.9092
-27.6899
-29.4654
-31.062
-32.328
-33.1509
-33.4672
-33.2663
-32.5869
-31.5078
-30.1348
-28.5851
-26.9725
-25.3936
-23.9186
-22.5856
-21.4001
-20.3381
-19.3527
-18.3832
-17.3642
-16.235
-14.9476
-13.473
-11.8047
-9.96048
-7.9818
-5.93071
-3.8853
-1.93338
-0.164987
1.3359
2.49969
3.27889
3.65402
3.63721
3.27247
2.63264
1.813
0.922277
0.0719331
-0.634836
-1.11323
-1.30481
-1.18252
-0.752192
-0.0506121
0.859546
1.89711
2.97123
3.99061
4.87211
5.54795
5.97095
6.11728
5.98695
5.6019
5.00231
4.24152
3.38019
2.48028
1.59937
0.785695
0.0743299
-0.515316
-0.980385
-1.33376
-1.60149
-1.81874
-2.02444
-2.25557
-2.54144
-2.89898
-3.32966
-3.81838
-4.33464
-4.83596
-5.27291
-5.59543
-5.75945
-5.73311
-5.50167
-5.07042
-4.46523
-3.73045
-2.92447
-2.11345
-1.36404
-0.735923
-0.275259
-0.00970543
0.0542953
-0.06827
-0.343265
-0.721837
-1.14642
-1.55751
-1.90047
-2.13142
-2.22167
-2.16016
-1.95373
-1.62529
-1.21028
-0.75178
-0.295129
0.117385
0.451128
0.682482
0.800672
0.807949
0.718241
0.554538
0.345449
0.121403
-0.0890191
-0.262195
-0.381681
-0.439369
-0.435531
-0.377855
-0.279657
-0.157537
-0.0287301
0.0915873
0.192806
0.270981
0.330282
0.383569
0.451895
0.562852
0.747765
1.03797
1.46058
2.03422
2.76542
3.64628
4.65375
5.75099
6.89055
8.01925
9.08399
10.0377
10.845
11.4857
11.9569
12.2728
12.4611
12.5586
12.6047
12.6345
12.6723
12.7271
12.7898
12.8328
12.8134
12.6787
12.3724
11.8431
11.0514
9.97676
8.62206
7.0155
5.21037
3.28263
1.32737
-0.544416
-2.20683
-3.5163
-4.3038
-4.36229
-3.4314
-1.18326
2.78459
8.94268
17.8032
29.8698
45.5629
65.1263
88.5241
115.344
144.722
175.316
205.325
232.588
254.738
269.425
274.562
268.592
250.715
221.059
180.761
131.939
77.5443
21.1204
-33.5214
-82.6653
-123.054
-152.21
-168.667
-172.106
-163.359
-144.287
-117.569
-86.3906
-54.1062
-23.8929
1.55859
20.2839
31.192
34.1081
29.7149
19.4039
5.06013
-11.19
-27.2368
-41.2207
-51.7168
-57.8518
-59.3465
-56.4847
-50.0184
-41.0279
-30.7555
-20.4377
-11.1546
-3.71491
1.41488
4.13074
4.66496
3.52103
1.38166
-0.995776
-2.88221
-3.66586
-2.91773
-0.428028
3.78774
9.51086
16.3641
23.871
31.5217
38.8354
45.4128
50.9727
55.3704
58.5995
60.783
62.1612
63.09
64.0597
65.7397
69.0479
75.2251
85.8819
102.976
128.68
165.109
213.925
275.851
350.191
434.456
524.21
613.216
693.907
758.16
798.273
808.003
783.516
724.068
632.331
514.273
378.603
235.863
97.2645
-26.5554
-126.697
-196.934
-234.31
-239.315
-215.663
-169.684
-109.46
-43.7928
18.832
71.1777
107.966
126.302
125.779
108.282
77.5326
38.4625
-3.50532
-43.1588
-76.1065
-99.2247
-110.906
-111.094
-101.128
-83.427
-61.0788
-37.3857
-15.4341
2.26433
14.0219
19.0947
17.6726
10.7535
-0.0688094
-12.8692
-25.6677
-36.6838
-44.5383
-48.3837
-47.9544
-43.5403
-35.893
-26.0873
-15.3557
-4.9236
4.13795
11.0237
15.2609
16.7277
15.6268
12.4222
7.75218
2.33099
-3.14567
-8.08017
-12.0288
-14.7293
-16.1007
-16.2189
-15.2744
-13.5226
-11.2337
-8.64963
-5.95577
-3.26671
-0.628348
1.96758
4.56072
7.19623
9.90116
12.667
15.4416
18.1303
20.6069
22.7305
24.3653
25.4002
25.7639
25.4337
24.437
22.8457
20.7652
18.3193
15.6354
12.8299
9.99791
7.20705
4.4954
1.87415
-0.666923
-3.15201
-5.61136
-8.07366
-10.5593
-13.0744
-15.606
-18.117
-20.5437
-22.7932
-24.7459
-26.2599
-27.1818
-27.3613
-26.6695
-25.0192
-22.3848
-18.817
-14.4526
-9.51408
-4.29912
0.840383
5.52833
9.40058
12.1433
13.5285
13.4429
11.9045
9.06542
5.20002
0.677936
-4.07341
-8.61335
-12.5337
-15.5005
-17.2862
-17.7896
-17.0405
-15.1897
-12.4863
-9.24478
-5.8076
-2.50629
0.372799
2.61533
4.0954
4.78063
4.72614
4.05917
2.95701
1.62143
0.252982
-0.971762
-1.91771
-2.50187
-2.69673
-2.52652
-2.05783
-1.38612
-0.62007
0.13414
0.787098
1.27756
1.58015
1.7088
1.71592
1.68741
1.73413
1.9807
2.55279
3.56412
5.10462
7.23089
9.95982
13.2659
17.082
21.3038
25.7958
30.3996
34.9418
39.2418
43.1193
46.4014
48.9288
50.564
51.199
50.764
49.2362
46.6463
43.0827
38.6906
33.666
28.244
22.6817
17.2378
12.1511
7.62057
3.79044
0.742305
-1.5035
-2.97688
-3.73771
-3.84829
-3.34117
-2.18594
-0.259019
2.67909
6.99422
13.1718
21.7884
33.4577
48.7512
68.0953
91.655
119.216
150.088
183.04
216.305
247.643
274.498
294.206
304.274
302.667
288.09
260.208
219.785
168.704
109.866
46.9567
-15.872
-74.3988
-124.741
-163.737
-189.25
-200.362
-197.436
-182.037
-156.723
-124.746
-89.6818
-55.0532
-23.9751
1.12941
18.7182
28.2075
29.9363
25.0312
15.1945
2.44631
-11.1442
-23.7069
-33.7697
-40.3905
-43.2108
-42.4334
-38.7329
-33.1157
-26.7519
-20.8011
-16.2535
-13.8062
-13.7847
-16.1186
-20.3686
-25.8002
-31.4916
-36.4602
-39.7915
-40.7548
-38.89
-34.0586
-26.4516
-16.557
-5.09094
7.09535
19.1214
30.1813
39.6322
47.0579
52.2998
55.4544
56.8395
56.9366
56.3176
55.5688
55.22
55.69
57.2518
60.0208
63.9641
68.9262
74.666
80.8972
87.327
93.6869
99.7545
105.362
110.399
114.796
118.519
121.546
123.85
125.392
126.104
125.896
124.657
122.265
118.606
113.588
107.164
99.3446
90.2134
79.9328
68.7436
56.9551
44.9289
33.0547
21.7227
11.2944
2.07531
-5.70772
-11.9217
-16.5342
-19.611
-21.3049
-21.8372
-21.4745
-20.5028
-19.2022
-17.8247
-16.5759
-15.605
-14.9995
-14.7884
-14.9501
-15.4247
-16.1288
-16.9705
-17.8628
-18.7345
-19.5369
-20.2461
-20.861
-21.3977
-21.8812
-22.3356
-22.7747
-23.1939
-23.5648
-23.8334
-23.9227
-23.7379
-23.1764
-22.1384
-20.5402
-18.3252
-15.4752
-12.017
-8.02668
-3.629
1.00785
5.68168
10.1699
14.2459
17.6975
20.3453
22.0591
22.7715
22.4865
21.2818
19.3047
16.7612
13.8987
10.9838
8.27721
6.00874
4.3545
3.41986
3.22987
3.72856
4.78724
6.22085
7.81025
9.3277
10.5626
11.3439
11.5577
11.1566
10.1615
8.65524
6.76949
4.6669
2.52073
0.494734
-1.27448
-2.69059
-3.70494
-4.3177
-4.57298
-4.54902
-4.34492
-4.0658
-3.80846
-3.64925
-3.6355
-3.78163
-4.0698
-4.45496
-4.87321
-5.25216
-5.5217
-5.62374
-5.51976
-5.19519
-4.66061
-3.94974
-3.11497
-2.22115
-1.33856
-0.535955
0.125699
0.598064
0.848689
0.862457
0.641327
0.202609
-0.423847
-1.1991
-2.07876
-3.01633
-3.96602
-4.88472
-5.73306
-6.47566
-7.08078
-7.51963
-7.76563
-7.79403
-7.58215
-7.11011
-6.36236
-5.32946
-4.00988
-2.41156
-0.552672
1.53813
3.82212
6.25115
8.76818
11.3077
13.7958
16.151
18.2847
20.1045
21.5175
22.4374
22.7921
22.533
21.645
20.1544
18.1341
15.7046
13.0298
10.3064
7.74942
5.57287
3.96953
3.09093
3.03063
3.81255
5.38605
7.62816
10.3528
13.3257
16.2828
18.9511
21.0684
22.4016
22.7625
22.0195
20.1068
17.0297
12.8674
7.77173
1.96384
-4.27366
-10.608
-16.6718
-22.0824
-26.4637
-29.468
-30.7956
-30.2068
-27.5254
-22.6304
-15.4383
-5.88059
6.11578
20.6359
37.7626
57.5359
79.885
104.542
130.955
158.21
185.003
209.658
230.218
244.6
250.804
247.16
232.562
206.688
170.129
124.444
72.0905
16.2529
-39.4304
-91.2051
-135.568
-169.62
-191.356
-199.864
-195.403
-179.351
-154.036
-122.466
-87.9968
-53.9766
-23.4064
1.33855
18.7036
28.046
29.619
24.4588
14.1936
0.804211
-13.6334
-27.1915
-38.2921
-45.8484
-49.3332
-48.7746
-44.6857
-37.9434
-29.6369
-20.9061
-12.7929
-6.12116
-1.41829
1.11549
1.59203
0.380738
-1.97342
-4.84534
-7.62395
-9.79203
-10.9824
-11.005
-9.84492
-7.63532
-4.61236
-1.06157
2.73544
6.5462
10.2188
13.6975
17.0212
20.309
23.7348
27.496
31.7818
36.7437
42.4728
48.9857
56.2192
64.0363
72.2384
80.5865
88.8244
96.705
104.014
110.586
116.324
121.193
125.222
128.484
131.081
133.112
134.654
135.736
136.329
136.336
135.599
133.917
131.066
126.834
121.052
113.626
104.562
93.9842
82.1311
69.3493
56.0663
42.7553
29.8921
17.9105
7.16045
-2.12403
-9.84502
-16.0442
-20.8902
-24.6501
-27.6505
-30.2309
-32.6983
-35.2871
-38.1306
-41.2483
-44.5481
-47.8457
-50.8946
-53.4243
-55.1803
-55.9603
-55.6421
-54.2002
-51.7085
-48.3304
-44.2971
-39.8785
-35.3493
-30.9561
-26.8895
-23.2644
-20.1118
-17.3828
-14.964
-12.7028
-10.4387
-8.03608
-5.41316
-2.56365
0.433701
3.4187
6.16687
8.41804
9.91278
10.4318
9.83268
8.07906
5.25717
1.57746
-2.63995
-6.99469
-11.0473
-14.3669
-16.5803
-17.4156
-16.7354
-14.5548
-11.0435
-6.50979
-1.36996
3.89337
8.77919
12.8167
15.6094
16.8709
16.4483
14.3334
10.6598
5.68864
-0.217177
-6.62554
-13.073
-19.1042
-24.3091
-28.3559
-31.0156
-32.1776
-31.8536
-30.1706
-27.3544
-23.7033
-19.5581
-15.2678
-11.1583
-7.5037
-4.50574
-2.28136
-0.859997
-0.189983
-0.152808
-0.583116
-1.29173
-2.08889
-2.80492
-3.30638
-3.50611
-3.3668
-2.89848
-2.15116
-1.20398
-0.15296
0.901301
1.86447
2.65713
3.22098
3.52243
3.5542
3.33499
2.9076
2.33569
1.69923
1.08869
0.59825
0.31832
0.327968
0.687891
1.43468
2.57697
4.09405
5.93699
8.03239
10.2883
12.602
14.8688
16.9909
18.8865
20.4969
21.7913
22.7692
23.4591
23.9133
24.2004
24.395
24.5669
24.771
25.0388
25.3739
25.7507
26.1173
26.4022
26.5228
26.3958
25.9474
25.1221
23.889
22.2457
20.2191
17.8627
15.252
12.4771
9.63474
6.81928
4.11452
1.58647
-0.72188
-2.79315
-4.63544
-6.27919
-7.77151
-9.16847
-10.5265
-11.8937
-13.3027
-14.766
-16.2736
-17.7938
-19.2756
-20.6513
-21.8365
-22.7278
-23.1952
-23.0709
-22.1366
-20.1117
-16.6479
-11.334
-3.717
6.65868
20.1915
37.1457
57.5637
81.1775
107.335
134.955
162.528
188.172
209.752
225.054
232.009
228.932
214.759
189.247
153.093
107.966
56.4238
1.72746
-52.4432
-102.332
-144.478
-176.058
-195.184
-201.084
-194.182
-176.037
-149.165
-116.757
-82.3392
-49.3921
-21.0011
0.445519
13.4657
17.5832
13.3111
2.02597
-14.2473
-33.1088
-52.0805
-68.8905
-81.7104
-89.3235
-91.2073
-87.5274
-79.0532
-67.0093
-52.8886
-38.2515
-24.5382
-12.9135
-4.16088
1.36622
3.7374
3.38758
1.02191
-2.5015
-6.29426
-9.55014
-11.6346
-12.1424
-10.9207
-8.05635
-3.83527
1.31968
6.92129
12.4907
17.6205
22.0218
25.549
28.2045
30.1216
31.5337
32.7336
34.0308
35.7125
38.013
41.0942
45.0368
49.843
55.4451
61.7197
68.503
75.6049
82.8212
89.943
96.7623
103.077
108.694
113.429
117.114
119.594
120.733
120.42
118.569
115.129
110.086
103.477
95.3944
85.9938
75.4986
64.1989
52.4429
40.6211
29.1413
18.3989
8.74274
0.444091
-6.32976
-11.5312
-15.2354
-17.6302
-18.9929
-19.6575
-19.9765
-20.2815
-20.8488
-21.872
-23.447
-25.5684
-28.1386
-30.9868
-33.8951
-36.6281
-38.9619
-40.7093
-41.7389
-41.9856
-41.4531
-40.2085
-38.3709
-36.0955
-33.5553
-30.9239
-28.3594
-25.992
-23.9157
-22.1847
-20.8137
-19.7816
-19.039
-18.5162
-18.1324
-17.805
-17.4568
-17.0219
-16.45
-15.707
-14.7748
-13.6484
-12.3321
-10.8362
-9.17308
-7.35593
-5.39815
-3.31488
-1.12557
1.143
3.45408
5.75947
7.99985
10.107
12.0082
13.6315
14.9123
15.7992
16.2593
16.281
15.8757
15.0761
13.933
12.5101
10.8779
9.10742
7.26452
5.40521
3.57315
1.79889
0.101218
-1.50983
-3.0288
-4.45002
-5.76317
-6.94965
-7.98065
-8.81721
-9.41244
-9.71582
-9.67911
-9.26322
-8.44539
-7.2256
-5.63152
-3.72125
-1.58316
0.66727
2.89375
4.94811
6.68115
7.95458
8.65285
8.69395
8.03817
6.69397
4.72052
2.2262
-0.636843
-3.68214
-6.70169
-9.48148
-11.8183
-13.5364
-14.503
-14.64
-13.932
-12.4282
-10.2398
-7.53042
-4.50348
-1.38482
1.59575
4.22322
6.31443
7.7318
8.39264
8.27312
7.40707
5.87979
3.81818
1.37839
-1.26718
-3.94224
-6.47703
-8.71622
-10.5243
-11.7887
-12.4217
-12.3621
-11.5769
-10.0646
-7.85853
-5.0306
-1.69368
1.9986
5.8559
9.65977
13.1769
16.1766
18.4504
19.8325
20.2179
19.5769
17.9618
15.5075
12.4219
8.97004
5.45068
2.16935
-0.589994
-2.59149
-3.66918
-3.74174
-2.81879
-0.998434
1.54326
4.56917
7.80225
10.9487
13.7214
15.8611
17.1561
17.4582
16.6944
14.8751
12.0965
8.53744
4.44952
0.141273
-4.04335
-7.74981
-10.6381
-12.4041
-12.7934
-11.6043
-8.67877
-3.88412
2.91003
11.8512
23.1107
36.8709
53.2866
72.4237
94.1807
118.205
143.822
169.99
195.298
218.025
236.247
248.003
251.503
245.347
228.742
201.67
164.991
120.453
70.5981
18.5702
-32.1608
-78.1284
-116.212
-143.953
-159.809
-163.307
-155.085
-136.817
-111.023
-80.7978
-49.4757
-20.2865
3.9722
21.2044
30.1984
30.7057
23.4112
9.80048
-8.05335
-27.7577
-46.8875
-63.2583
-75.1523
-81.4771
-81.8386
-76.5303
-66.4421
-52.909
-37.5206
-21.9183
-7.60457
4.21334
12.73
17.5914
18.8858
17.0848
12.9443
7.38417
1.36114
-4.24739
-8.73618
-11.6326
-12.7213
-12.0326
-9.80243
-6.40939
-2.30105
2.0803
6.36284
10.2933
13.7631
16.8111
19.6037
22.3978
25.4916
29.1726
33.6684
39.1084
45.5007
52.7259
60.5486
68.6432
76.6306
84.1196
90.7482
96.219
100.326
102.968
104.152
103.983
102.645
100.376
97.4351
94.0789
90.5301
86.9582
83.4634
80.0696
76.7264
73.319
69.688
65.6539
61.0473
55.737
49.6559
42.8171
35.3205
27.347
19.1418
10.9886
3.17942
-4.01685
-10.3816
-15.7663
-20.103
-23.4035
-25.7489
-27.2719
-28.1339
-28.5013
-28.5247
-28.3236
-27.9786
-27.5313
-26.9916
-26.3501
-25.5932
-24.7169
-23.7384
-22.7017
-21.6778
-20.7579
-20.0424
-19.6259
-19.5819
-19.9486
-20.719
-21.8364
-23.196
-24.6539
-26.04
-27.1765
-27.8965
-28.0619
-27.5788
-26.4063
-24.5604
-22.1106
-19.171
-15.8872
-12.4213
-8.9363
-5.58286
-2.48874
0.247435
2.55862
4.40815
5.78607
6.70397
7.18955
7.28185
7.02765
6.47943
5.69452
4.73506
3.66812
2.56541
1.50193
0.553377
-0.207815
-0.717407
-0.924792
-0.798135
-0.32841
0.468396
1.55142
2.85759
4.30667
5.80803
7.26849
8.60018
9.72747
10.5922
11.1569
11.405
11.3397
10.9803
10.3577
9.50969
8.4762
7.29585
6.00345
4.62891
3.19718
1.72909
0.242643
-1.2455
-2.71875
-4.15959
-5.54904
-6.86657
-8.09044
-9.19829
-10.168
-10.9788
-11.6121
-12.0527
-12.2897
-12.3174
-12.136
-11.7518
-11.1772
-10.4303
-9.53398
-8.51524
-7.40352
-6.22952
-5.02386
-3.81599
-2.63344
-1.50132
-0.442397
0.522678
1.37483
2.096
2.6687
3.07591
3.30152
3.33141
3.15533
2.76924
2.17805
1.39813
0.459204
-0.594924
-1.70732
-2.81069
-3.83197
-4.69847
-5.34476
-5.71961
-5.79184
-5.55416
-5.0243
-4.24298
-3.26899
-2.17193
-1.02377
0.109563
1.17516
2.13767
2.98084
3.7058
4.32685
4.86533
5.34301
5.77591
6.16981
6.51791
6.80112
6.9907
7.05301
6.95528
6.67194
6.19014
5.51408
4.66716
3.69182
2.64692
1.60277
0.634586
-0.185225
-0.794785
-1.14977
-1.22881
-1.03659
-0.604264
0.0130593
0.741603
1.49653
2.19119
2.7469
3.10244
3.22173
3.09916
2.7616
2.26708
1.70065
1.16889
0.795494
0.720855
1.10864
2.16049
4.13729
7.38193
12.3345
19.5299
29.5667
43.043
60.4574
82.084
107.839
137.156
168.907
201.369
232.288
259.02
278.755
288.816
286.984
271.816
242.917
201.104
148.442
88.1335
24.2569
-38.6152
-95.8748
-143.36
-177.798
-197.148
-200.807
-189.652
-165.905
-132.857
-94.4741
-54.9472
-18.2336
12.3475
34.4239
46.7512
49.2529
42.9237
29.6193
11.7634
-7.98294
-27.0506
-43.2488
-54.9798
-61.3619
-62.2553
-58.1964
-50.2579
-39.8573
-28.5446
-17.795
-8.83202
-2.50083
0.798674
1.11635
-1.10065
-5.10491
-9.97372
-14.7438
-18.5375
-20.6664
-20.7005
-18.4983
-14.1988
-8.17771
-0.979946
6.76403
14.4242
21.4495
27.4299
32.1361
35.5341
37.7741
39.1593
40.097
41.0417
42.4356
44.6552
47.9678
52.5049
58.2517
65.0545
72.6431
80.6647
88.7247
96.4282
103.419
109.412
114.21
117.717
119.931
120.93
120.851
119.856
118.109
115.742
112.837
109.415
105.432
100.792
95.369
89.0381
81.7063
73.3468
64.0245
53.9098
43.2798
32.5021
22.0056
12.2389
3.62225
-3.5009
-8.90622
-12.519
-14.4275
-14.8773
-14.2455
-12.9987
-11.6398
-10.6493
-10.4308
-11.2647
-13.2792
-16.4387
-20.5524
-25.3006
-30.2749
-35.0262
-39.116
-42.1629
-43.8815
-44.1081
-42.8123
-40.0947
-36.1704
-31.3425
-25.969
-20.4254
-15.0694
-10.2092
-6.07951
-2.82621
-0.501673
0.930746
1.58346
1.62491
1.25591
0.684767
0.104099
-0.328514
-0.50407
-0.368954
0.0752334
0.778225
1.65279
2.58982
3.47476
4.20343
4.69527
4.90269
4.81563
4.46111
3.89808
3.20859
2.48644
1.825
1.30544
0.987089
0.900594
1.04483
1.38761
1.86999
2.41369
2.9305
3.33279
3.54363
3.50567
3.18752
2.58708
1.73158
0.67419
-0.512008
-1.74222
-2.92909
-3.99197
-4.86502
-5.50357
-5.88789
-6.02406
-5.94196
-5.69065
-5.33167
-4.93129
-4.55232
-4.24673
-4.04985
-3.97666
-4.02079
-4.15626
-4.34162
-4.5261
-4.65687
-4.68647
-4.57935
-4.31672
-3.89906
-3.34593
-2.69333
-1.98888
-1.28579
-0.63624
-0.0852819
0.334111
0.604193
0.723535
0.706055
0.578256
0.37516
0.135549
-0.102832
-0.307523
-0.45456
-0.530346
-0.532092
-0.466898
-0.349713
-0.200557
-0.0413822
0.106977
0.227408
0.308362
0.344767
0.33795
0.294682
0.225574
0.143134
0.0598281
-0.0135422
-0.0689315
-0.101482
-0.109299
-0.0926913
-0.0530695
0.00822747
0.0909065
0.19627
0.327203
0.487589
0.681254
0.910671
1.17568
1.47252
1.79339
2.12674
2.45818
2.77211
3.05358
3.29028
3.47404
3.60173
3.67521
3.70034
3.68521
3.63786
3.56398
3.46505
3.33728
3.17172
2.95567
2.67517
2.31846
1.87971
1.36264
0.783278
0.171472
-0.428997
-0.961518
-1.35816
-1.54035
-1.41729
-0.880753
0.204163
2.01164
4.76865
8.76541
14.3573
21.9527
31.9809
44.8387
60.8154
80.0021
102.198
126.824
152.873
178.898
203.064
223.266
237.309
243.13
239.043
223.979
197.68
160.817
115.024
62.8117
7.38598
-47.6272
-98.5162
-141.841
-174.772
-195.368
-202.765
-197.245
-180.183
-153.886
-121.322
-85.8046
-50.6417
-18.8084
7.32745
26.198
37.1274
40.3207
36.7566
28.003
15.9836
2.72339
-9.8934
-20.3273
-27.5282
-31.0096
-30.8474
-27.6115
-22.243
-15.8952
-9.76145
-4.91074
-2.15133
-1.93661
-4.32232
-8.97677
-15.2396
-22.2186
-28.9103
-34.3286
-37.624
-38.1813
-35.6837
-30.1389
-21.8653
-11.4433
0.360918
12.6885
24.6857
35.5952
44.8307
52.0269
57.0621
60.0517
61.316
61.3282
60.6494
59.8592
59.49
59.9715
61.5915
64.4758
68.5867
73.7409
79.6397
85.91
92.1466
97.9537
102.979
106.936
109.621
110.916
110.781
109.249
106.413
102.412
97.4231
91.6465
85.2984
78.5992
71.7615
64.9784
58.41
52.1735
46.3357
40.9108
35.8639
31.1206
26.5811
22.1372
17.6906
13.1687
8.5381
3.81082
-0.954189
-5.6568
-10.1667
-14.3383
-18.028
-21.1114
-23.4977
-25.1409
-26.0458
-26.2678
-25.9081
-25.1031
-24.0111
-22.797
-21.6166
-20.6024
-19.8532
-19.4262
-19.3347
-19.5501
-20.0074
-20.6147
-21.2643
-21.8442
-22.2504
-22.396
-22.2192
-21.6876
-20.799
-19.5789
-18.0754
-16.3517
-14.4767
-12.5171
-10.5292
-8.55428
-6.61574
-4.72049
-2.86287
-1.03097
0.785691
2.58854
4.36362
6.07772
7.67759
9.0926
10.2405
11.0356
11.3987
11.2672
10.605
9.40961
7.71764
5.60587
3.18843
0.609838
-1.96567
-4.36773
-6.43483
-8.02925
-9.05004
-9.44253
-9.20307
-8.37839
-7.05957
-5.37154
-3.45941
-1.47355
0.444751
2.17538
3.62793
4.74594
5.50699
5.91883
6.01288
5.83604
5.44218
4.88448
4.20933
3.45242
2.63689
1.77363
0.863243
-0.100629
-1.12695
-2.22235
-3.38608
-4.60564
-5.8536
-7.08659
-8.24681
-9.26609
-10.0725
-10.5986
-10.7896
-10.612
-10.0586
-9.15233
-7.9452
-6.51445
-4.95546
-3.37233
-1.8676
-0.532099
0.563694
1.37578
1.88977
2.12064
2.10947
1.91759
1.61906
1.29242
1.01274
0.844847
0.838518
1.0257
1.4198
2.01648
2.79504
3.71988
4.74132
5.79605
6.80739
7.68655
8.33581
8.6546
8.54899
7.94442
6.80053
5.12611
2.99159
0.53584
-2.03535
-4.46116
-6.4484
-7.70366
-7.97133
-7.07258
-4.9392
-1.63618
2.63153
7.53096
12.6313
17.4493
21.5041
24.3741
25.7483
25.4642
23.5289
20.1179
15.5554
10.2755
4.77297
-0.452719
-4.95076
-8.36477
-10.4651
-11.1643
-10.5157
-8.69313
-5.95781
-2.61153
1.05707
4.82953
8.61175
12.478
16.6971
21.7319
28.2064
36.838
48.3354
63.2723
81.9502
104.269
129.626
156.862
184.279
209.722
230.747
244.854
249.759
243.691
225.666
195.69
154.878
105.439
50.5283
-6.02173
-60.0727
-107.604
-145.14
-170.122
-181.181
-178.271
-162.652
-136.724
-103.728
-67.3736
-31.4131
0.754625
26.427
43.8371
52.2699
52.0503
44.4122
31.2726
14.9474
-2.15535
-17.8232
-30.2764
-38.3308
-41.4721
-39.8424
-34.1489
-25.5128
-15.2842
-4.84771
4.55494
11.9659
16.8023
18.8908
18.448
16.0142
12.3538
8.33839
4.82781
2.56473
2.09308
2.09308
2.09308
2.09308
2.09308
2.09308
2.09308
2.09308
2.09308
2.09308
2.09308
2.09308
2.09308
2.09308
2.09308
2.09308
2.09308
2.09308
2.09308
