-124.224
-123.461
-121.907
-119.38
-115.766
-111.056
-105.373
-98.9884
-92.31
-85.8599
-80.2256
-75.9978
-73.6996
-73.716
-76.2328
-81.1948
-88.2893
-96.9599
-106.451
-115.877
-124.315
-130.896
-134.907
-135.857
-133.537
-128.032
-119.708
-109.16
-97.1381
-84.4588
-71.9114
-60.1732
-49.7436
-40.9038
-33.7059
-27.9906
-23.4298
-19.5863
-15.9828
-12.1696
-7.78336
-2.58999
3.49218
10.3906
17.8963
25.6968
33.4201
40.6817
47.1306
52.4865
56.5672
59.3015
60.7294
60.9888
60.2931
58.9025
57.0922
55.1229
53.2145
51.528
50.1548
49.1148
48.3636
47.8046
47.3076
46.728
45.9271
44.7892
43.2341
41.2255
38.7718
35.9229
32.7614
29.391
25.9237
22.4666
19.1114
15.926
12.9495
10.19
7.62434
5.19895
2.82991
0.402945
-2.22665
-5.23218
-8.80969
-13.1656
-18.4961
-24.9568
-32.6229
-41.443
-51.19
-61.419
-71.4418
-80.3309
-86.9647
-90.1193
-88.6079
-81.4582
-68.1076
-48.5895
-23.6773
5.0463
35.2217
63.8592
87.6
103.068
107.275
98.0293
74.2835
36.3762
-13.8837
-73.3096
-137.605
-201.784
-260.688
-309.542
-344.478
-362.956
-364.024
-348.408
-318.388
-277.516
-230.188
-181.14
-134.927
-95.4459
-65.5602
-46.8557
-39.5577
-42.6025
-53.848
-70.3901
-88.9427
-106.233
-119.369
-126.139
-125.211
-116.223
-99.7596
-77.2174
-50.5951
-22.2262
5.50551
30.4378
50.8574
65.6604
74.4328
77.446
75.5745
70.1505
62.7766
55.1204
48.7178
44.8054
44.2013
47.2434
53.7896
63.2737
74.8079
87.3154
99.6735
110.852
120.026
126.659
130.535
131.76
130.709
127.957
124.183
120.073
116.226
113.084
110.882
109.635
109.146
109.047
108.851
108.026
106.06
102.53
97.1521
89.8185
80.6138
69.8096
57.8401
45.2609
32.6959
20.7777
10.0886
1.10722
-5.83271
-10.568
-13.1136
-13.6524
-12.5082
-10.106
-6.92527
-3.44947
-0.120024
2.7024
4.76471
5.93445
6.19863
5.64961
4.46064
2.85464
1.07055
-0.668673
-2.18267
-3.3521
-4.12743
-4.5277
-4.63051
-4.55528
-4.44255
-4.43247
-4.64521
-5.16581
-6.03477
-7.2451
-8.74543
-10.4482
-12.2414
-14.0021
-15.6095
-16.9576
-17.9641
-18.5763
-18.7743
-18.5696
-18.0017
-17.1327
-16.0394
-14.806
-13.5157
-12.2442
-11.0528
-9.98447
-9.06083
-8.28156
-7.62561
-7.05433
-6.5162
-5.95262
-5.30427
-4.51739
-3.54922
-2.37219
-0.976305
0.630346
2.42301
4.36331
6.40336
8.49046
10.5715
12.5966
14.5214
16.3081
17.9245
19.3424
20.5351
21.4746
22.1301
22.4664
22.4448
22.0241
21.1625
19.8204
17.9621
15.5576
12.5832
9.02301
4.86885
0.12211
-5.2042
-11.082
-17.4632
-24.274
-31.4081
-38.7211
-46.027
-53.0985
-59.6731
-65.4662
-70.1897
-73.5777
-75.4137
-75.5582
-73.9713
-70.7271
-66.0171
-60.1392
-53.4741
-46.4487
-39.4904
-32.974
-27.1658
-22.1692
-17.8763
-13.9332
-9.72639
-4.39923
3.09258
13.8828
29.0539
49.4625
75.5493
107.158
143.395
182.56
222.175
259.126
289.921
311.033
319.315
312.411
289.124
249.672
195.795
130.685
58.7301
-14.8915
-84.7334
-145.646
-193.319
-224.728
-238.441
-234.733
-215.511
-184.054
-144.616
-101.932
-60.6968
-25.0759
1.68898
17.549
21.762
14.8508
-1.5769
-25.1128
-52.894
-81.962
-109.589
-133.536
-152.218
-164.766
-170.995
-171.287
-166.423
-157.392
-145.208
-130.752
-114.675
-97.3489
-78.8847
-59.1932
-38.0814
-15.3632
9.03587
34.9954
62.1523
89.8941
117.394
143.683
167.746
188.63
205.549
217.973
225.686
228.809
227.789
223.348
216.409
207.998
199.144
190.786
183.686
178.378
175.137
173.976
174.68
176.849
179.962
183.448
186.75
189.381
190.965
191.252
190.121
187.562
183.64
178.461
172.134
164.739
156.318
146.867
136.358
124.762
112.088
98.4131
83.9134
68.8746
53.6909
38.8422
24.8563
12.2585
1.51497
-7.02024
-13.1501
-16.8631
-18.3416
-17.9502
-16.2035
-13.7184
-11.1568
-9.1631
-8.30501
-9.02277
-11.5913
-16.0994
-22.447
-30.3609
-39.427
-49.1338
-58.9253
-68.2539
-76.6315
-83.6697
-89.1094
-92.833
-94.8631
-95.3455
-94.5218
-92.6946
-90.1898
-87.3218
-84.3636
-81.5266
-78.9488
-76.6948
-74.762
-73.0955
-71.605
-70.1828
-68.7212
-67.1255
-65.3234
-63.2689
-60.9422
-58.3466
-55.5019
-52.4375
-49.1861
-45.7776
-42.2366
-38.5814
-34.8258
-30.9839
-27.0744
-23.1265
-19.1836
-15.3047
-11.5621
-8.03467
-4.79811
-1.91157
0.595747
2.73602
4.56939
6.20333
7.78392
9.47909
11.4561
13.8564
16.7714
20.2236
24.156
28.4312
32.8415
37.1273
41.0033
44.1871
46.4288
47.5361
47.3939
45.9749
43.342
39.641
35.0861
29.9397
24.489
19.022
13.8054
9.06645
4.98008
1.66223
-0.831025
-2.4989
-3.38695
-3.57523
-3.16495
-2.26499
-0.979316
0.603847
2.42106
4.44092
6.67026
9.16049
12.0154
15.4024
19.5674
24.8535
31.7203
40.7562
52.675
68.2819
88.4
113.746
144.763
181.418
223.001
267.975
313.897
357.492
394.864
421.863
434.572
429.842
405.798
362.237
300.839
225.141
140.266
52.4329
-31.6956
-105.739
-164.307
-203.584
-221.734
-219.05
-197.862
-162.202
-117.279
-68.8537
-22.5706
16.6529
45.1148
60.6433
62.7126
52.3586
31.9217
4.65921
-25.714
-55.496
-81.4228
-101
-112.708
-116.071
-111.593
-100.577
-84.8673
-66.5584
-47.6985
-30.04
-14.8566
-2.84558
5.8801
11.7214
15.4606
18.0929
20.6486
24.0309
28.8904
35.5495
43.9811
53.8392
64.5327
75.3268
85.4559
94.2322
101.135
105.872
108.404
108.933
107.867
105.752
103.196
100.79
99.033
98.2777
98.6937
100.256
102.759
105.844
109.053
111.874
113.808
114.41
113.334
110.359
105.402
98.5207
89.9014
79.8421
68.7273
57.0006
45.1347
33.6008
22.8399
13.2352
5.08904
-1.39479
-6.12248
-9.11357
-10.496
-10.4927
-9.40109
-7.56592
-5.34942
-3.10022
-1.12467
0.336733
1.12541
1.17192
0.493599
-0.816627
-2.60874
-4.69905
-6.89568
-9.023
-10.9423
-12.5664
-13.8668
-14.8732
-15.665
-16.3579
-17.086
-17.9834
-19.1663
-20.7193
-22.6871
-25.0711
-27.8326
-30.8999
-34.1782
-37.5613
-40.941
-44.215
-47.2907
-50.0861
-52.5278
-54.5471
-56.0765
-57.0473
-57.3902
-57.0385
-55.9344
-54.0374
-51.3336
-47.8429
-43.6246
-38.7787
-33.4418
-27.7798
-21.9755
-16.2144
-10.669
-5.48542
-0.771031
3.41255
7.05258
10.1833
12.8797
15.2478
17.4124
19.504
21.6445
23.9355
26.4476
29.2131
32.2228
35.4265
38.7382
42.0443
45.2152
48.1171
50.6238
52.6262
54.0388
54.8023
54.8839
54.2745
52.9846
51.0407
48.482
45.3579
41.7278
37.6605
33.235
28.5404
23.6742
18.7404
13.8445
9.08856
4.56504
0.350758
-3.49802
-6.94896
-9.99502
-12.6537
-14.9643
-16.9836
-18.7807
-20.4307
-22.0087
-23.5826
-25.2053
-26.9042
-28.6683
-30.4304
-32.0439
-33.2564
-33.6805
-32.769
-29.8038
-23.9089
-14.1028
0.601493
21.0422
47.7106
80.5301
118.65
160.306
202.783
242.539
275.48
297.395
304.478
293.894
264.272
216.058
151.655
75.3072
-7.26755
-89.4582
-164.48
-226.139
-269.537
-291.622
-291.521
-270.595
-232.239
-181.436
-124.147
-66.6093
-14.6357
26.9961
54.9961
67.8117
65.657
50.3354
24.8923
-6.84534
-40.777
-73.0178
-100.312
-120.326
-131.799
-134.549
-129.342
-117.673
-101.472
-82.8093
-63.612
-45.4475
-29.3794
-15.9118
-5.01594
3.77564
11.2282
18.2428
25.6969
34.3089
44.5407
56.5484
70.1802
85.0187
100.456
115.79
130.325
143.465
154.785
164.079
171.365
176.871
180.986
184.195
187.005
189.875
193.151
197.028
201.528
206.501
211.654
216.587
220.848
223.986
225.601
225.385
223.146
218.82
212.467
204.25
194.405
183.209
170.944
157.863
144.172
130.018
115.492
100.646
85.5156
70.1485
54.6314
39.1102
23.7995
8.97836
-5.02649
-17.8693
-29.2208
-38.8058
-46.437
-52.0403
-55.6669
-57.492
-57.7987
-56.9496
-55.3507
-53.4118
-51.5075
-49.946
-48.9453
-48.6231
-48.9969
-49.996
-51.4808
-53.268
-55.1562
-56.9505
-58.4817
-59.6195
-60.2781
-60.4159
-60.0287
-59.1399
-57.7883
-56.0173
-53.8654
-51.3616
-48.5242
-45.364
-41.8913
-38.1235
-34.0936
-29.8561
-25.4896
-21.0952
-16.7905
-12.7
-8.94318
-5.62209
-2.81027
-0.545002
1.17636
2.39513
3.18554
3.64526
3.88363
4.00934
4.1192
4.28939
4.57002
4.98352
5.52635
6.17361
6.8854
7.61398
8.31084
8.93272
9.44625
9.83086
10.08
10.2008
10.2129
10.1461
10.0377
9.93062
9.8702
9.9028
10.0741
10.4286
11.0094
11.8595
13.0227
14.5453
16.4756
18.8621
21.748
25.1622
29.1064
33.5408
38.37
43.4315
48.4917
53.2496
57.3509
60.4121
62.0525
61.9316
59.7868
55.4683
48.9651
40.4194
30.1262
18.5175
6.13246
-6.42412
-18.5288
-29.5868
-39.0728
-46.559
-51.7252
-54.3493
-54.2768
-51.3743
-45.4745
-36.3232
-23.5461
-6.65038
14.9231
41.6873
73.9407
111.561
153.799
199.108
245.08
288.504
325.587
352.322
364.964
360.556
337.413
295.494
236.585
164.248
83.5415
0.522203
-78.3908
-147.119
-200.596
-235.314
-249.688
-244.179
-221.173
-184.641
-139.626
-91.6317
-45.9896
-7.28428
21.0949
37.2322
40.7708
32.8101
15.6408
-7.6359
-33.5499
-58.7055
-80.1731
-95.7848
-104.309
-105.494
-99.9847
-89.1451
-74.8046
-58.9798
-43.6022
-30.2862
-20.1638
-13.7961
-11.1667
-11.7479
-14.6214
-18.6346
-22.5655
-25.2764
-25.8376
-23.6103
-18.2835
-9.86974
1.33422
14.8088
29.8828
45.8044
61.8016
77.131
91.112
103.152
112.762
119.576
123.365
124.054
121.738
116.696
109.386
100.429
90.5767
80.6569
71.5026
63.876
58.3908
55.4451
55.1738
57.4278
61.7834
67.5819
73.9954
80.1123
85.0309
87.9522
88.261
85.5856
79.8313
71.1842
60.0849
47.1777
33.2397
19.0998
5.5559
-6.70049
-17.1441
-25.455
-31.5336
-35.4916
-37.6204
-38.3433
-38.1571
-37.5698
-37.0432
-36.945
-37.5166
-38.8578
-40.9297
-43.574
-46.544
-49.5439
-52.2701
-54.4504
-55.8745
-56.4158
-56.0402
-54.8033
-52.8372
-50.3291
-47.4953
-44.5546
-41.703
-39.0945
-36.8275
-34.9399
-33.4109
-32.1698
-31.1096
-30.1032
-29.0206
-27.745
-26.1859
-24.2888
-22.0404
-19.4688
-16.6405
-13.6523
-10.6219
-7.6752
-4.93385
-2.50286
-0.459916
1.1525
2.33141
3.11338
3.57034
3.80158
3.92281
4.05379
4.30623
4.7735
5.52373
6.59717
8.00811
9.75083
11.8083
14.1623
16.8021
19.7311
22.9691
26.5493
30.5113
34.89
39.7028
44.9372
50.5414
56.4191
62.4309
68.4016
74.1335
79.4228
84.0776
87.9343
90.8703
92.8102
93.7267
93.6345
92.5791
90.6234
87.8338
84.2679
79.967
74.9552
69.243
62.8382
55.7586
48.0467
39.7817
31.0876
22.1348
13.1343
4.32616
-4.0386
-11.7179
-18.4995
-24.2198
-28.777
-32.139
-34.3428
-35.4879
-35.7229
-35.2272
-34.1911
-32.7952
-31.1897
-29.4772
-27.6945
-25.7958
-23.6328
-20.9335
-17.2772
-12.0748
-4.55839
6.20396
21.2548
41.6428
68.2608
101.634
141.683
187.497
237.173
287.776
335.447
375.697
403.861
415.664
407.833
378.651
328.367
259.379
176.14
84.7978
-7.41883
-92.9759
-164.874
-217.444
-246.982
-252.156
-234.111
-196.287
-143.96
-83.5826
-22.017
34.2526
79.8157
110.867
125.515
123.846
107.752
80.5561
46.503
10.1836
-24.033
-52.4885
-72.5943
-83.028
-83.7584
-75.9123
-61.5136
-43.1402
-23.5479
-5.312
9.47179
19.395
23.8373
22.9578
17.5911
9.06944
-0.997587
-10.9537
-19.3063
-24.8931
-26.9865
-25.3323
-20.1224
-11.9156
-1.52108
10.1347
22.1378
33.6965
44.2201
53.3588
61.005
67.2625
72.39
76.7328
80.6518
84.4618
88.3848
92.5249
96.8637
101.275
105.554
109.455
112.731
115.167
116.608
116.972
116.249
114.493
111.799
108.28
104.041
99.1623
93.6871
87.6222
80.9497
73.6463
65.7087
57.178
48.1597
38.8341
29.4544
20.3324
11.8122
4.23625
-2.09206
-6.94433
-10.1956
-11.8422
-12.0054
-10.9214
-8.91784
-6.37998
-3.71128
-1.29234
0.556429
1.60431
1.72891
0.92212
-0.716572
-2.99812
-5.67054
-8.45056
-11.0566
-13.2388
-14.8038
-15.6306
-15.6778
-14.9811
-13.6431
-11.8175
-9.68869
-7.45187
-5.29391
-3.37793
-1.83234
-0.74495
-0.16188
-0.0904947
-0.505317
-1.35566
-2.57375
-4.08237
-5.80122
-7.65161
-9.55954
-11.4571
-13.2828
-14.9813
-16.5027
-17.8022
-18.8402
-19.5819
-19.998
-20.065
-19.7639
-19.0801
-18.0012
-16.5158
-14.6133
-12.2842
-9.52377
-6.33693
-2.74558
1.20344
5.43065
9.81852
14.2097
18.4104
22.2004
25.348
27.6321
28.8669
28.9283
27.7791
25.489
22.2462
18.3573
14.2349
10.3695
7.28947
5.50961
5.47486
7.50421
11.7423
18.125
26.3656
35.9634
46.2377
56.384
65.5463
72.901
77.7389
79.5402
78.0297
73.2076
65.351
54.9866
42.8359
29.7415
16.582
4.18609
-6.74484
-15.6966
-22.3785
-26.7344
-28.9262
-29.2969
-28.3153
-26.5132
-24.4201
-22.5056
-21.1334
-20.5315
-20.7798
-21.8137
-23.4385
-25.351
-27.1588
-28.3939
-28.5153
-26.8997
-22.8271
-15.4677
-3.88923
12.9031
35.8754
65.8183
103.147
147.675
198.392
253.302
309.382
362.677
408.59
442.325
459.449
456.501
431.554
384.625
317.871
235.515
143.493
48.8653
-40.9299
-118.898
-179.256
-218.058
-233.589
-226.488
-199.587
-157.494
-105.988
-51.3113
0.557096
44.5427
76.9684
95.843
100.928
93.5899
76.4755
53.064
27.1623
2.4103
-18.1436
-32.3518
-39.1343
-38.4967
-31.4117
-19.5929
-5.20013
9.48137
22.344
31.708
36.4934
36.2987
31.3885
22.5983
11.1778
-1.40145
-13.6476
-24.2329
-32.1401
-36.7555
-37.9037
-35.824
-31.0973
-24.5374
-17.064
-9.57358
-2.82652
2.63848
6.55293
8.92775
10.0251
10.2997
10.3197
10.6786
11.9119
14.427
18.4561
24.0353
31.0121
39.0755
47.8047
56.7272
65.3777
73.349
80.3291
86.1197
90.6357
93.886
95.9429
96.9039
96.8549
95.8416
93.8548
90.8318
86.6752
81.284
74.5926
66.6092
57.447
47.3398
36.6408
25.8004
15.3283
5.74252
-2.48604
-8.98606
-13.5278
-16.0488
-16.659
-15.6266
-13.3441
-10.2813
-6.93124
-3.75527
-1.13456
0.666046
1.51854
1.4347
0.552363
-0.892294
-2.60218
-4.2612
-5.57539
-6.30864
-6.30919
-5.52496
-4.00668
-1.89958
0.574683
3.1433
5.51185
7.39482
8.54417
8.77323
7.97398
6.12632
3.29873
-0.359288
-4.63212
-9.25858
-13.956
-18.4455
-22.4758
-25.8442
-28.4111
-30.1092
-30.9443
-30.99
-30.3757
-29.2697
-27.8597
-26.3324
-24.8539
-23.5544
-22.5166
-21.7701
-21.2921
-21.0136
-20.8299
-20.6151
-20.2378
-19.5765
-18.5336
-17.0457
-15.0894
-12.6825
-9.88056
-6.76932
-3.45383
-0.0465801
3.34461
6.627
9.73063
12.6124
15.2567
17.6724
19.888
21.9454
23.8933
25.7825
27.6617
29.5746
31.5582
33.6401
35.8355
38.1427
40.5364
42.9603
45.32
47.4774
49.2503
50.4176
50.733
49.9463
47.8316
44.2184
39.0219
32.2684
24.1092
14.8228
4.80108
-5.47764
-15.4872
-24.6991
-32.6303
-38.8867
-43.1993
-45.4472
-45.6664
-44.0432
-40.8922
-36.6231
-31.6972
-26.5798
-21.6912
-17.3596
-13.7779
-10.9671
-8.74516
-6.70505
-4.20421
-0.372022
5.85564
15.6641
30.2405
50.6024
77.3839
110.598
149.418
192.016
235.529
276.173
309.532
331.023
336.456
322.653
287.992
232.815
159.598
72.8516
-21.2478
-115.475
-202.327
-274.85
-327.425
-356.39
-360.432
-340.692
-300.586
-245.358
-181.441
-115.71
-54.7232
-4.035
32.322
52.1525
55.1805
42.9073
18.283
-14.756
-51.8125
-88.5522
-121.162
-146.698
-163.29
-170.208
-167.785
-157.233
-140.392
-119.437
-96.5964
-73.904
-53.0142
-35.0864
-20.7447
-10.1043
-2.8516
1.64095
4.18232
5.63207
6.78519
8.28355
10.56
13.8167
18.0351
23.0119
28.4134
33.8382
38.8816
43.1916
46.5116
48.7067
49.7702
49.8138
49.0429
47.7222
46.1372
44.5561
43.1983
42.2117
41.6611
41.5289
41.7256
42.1084
42.5047
42.736
42.6397
42.0857
40.9858
39.2959
37.0114
34.1569
30.7737
26.9065
22.5926
17.8556
12.7042
7.13584
1.14588
-5.26192
-12.0636
-19.205
-26.596
-34.108
-41.5783
-48.8184
-55.6265
-61.8029
-67.1658
-71.5669
-74.9039
-77.1291
-78.2534
-78.3453
-77.5241
-75.9484
-73.8008
-71.2705
-68.5336
-65.7364
-62.98
-60.3113
-57.7203
-55.1443
-52.4794
-49.598
-46.3694
-42.6816
-38.4606
-33.6842
-28.389
-22.6693
-16.6677
-10.5603
-4.53723
1.21789
6.54687
11.332
15.5055
19.0528
22.0099
24.4547
26.4956
28.2577
29.8686
31.4461
33.0878
34.8641
36.8148
38.9489
41.2476
43.6693
46.1567
48.6445
51.0668
53.3645
55.4907
57.4147
59.1243
60.6254
61.9405
63.1055
64.1657
65.1708
66.1708
67.2104
68.3257
69.5399
70.8592
72.27
73.7343
75.187
76.5326
77.6434
78.36
78.495
77.8403
76.1797
73.3047
69.034
63.2337
55.8368
46.8577
36.4019
24.6665
11.9322
-1.45384
-15.1024
-28.6117
-41.5983
-53.7261
-64.7297
-74.4287
-82.7318
-89.63
-95.1807
-99.4842
-102.658
-104.812
-106.027
-106.345
-105.767
-104.259
-101.769
-98.25
-93.6819
-88.0911
-81.5665
-74.2647
-66.4065
-58.2638
-50.138
-42.334
-35.131
-28.7549
-23.353
-18.9738
-15.5514
-12.8938
-10.6748
-8.42895
-5.54925
-1.29284
5.2015
14.8751
28.6813
47.4813
71.9008
102.156
137.872
177.916
220.3
262.186
300.02
329.818
347.587
349.823
334.039
299.22
246.144
177.483
97.6739
12.5345
-71.3139
-147.157
-208.936
-251.929
-273.282
-272.31
-250.541
-211.496
-160.234
-102.743
-45.2366
6.53366
47.8797
75.6165
88.2992
86.2419
71.3307
46.6693
16.1133
-16.2429
-46.5585
-71.662
-89.3467
-98.5209
-99.2095
-92.4207
-79.9091
-63.8732
-46.6333
-30.3304
-16.6812
-6.81513
-1.20315
0.321659
-1.53538
-5.68751
-10.8548
-15.756
-19.2795
-20.6133
-19.321
-15.3611
-9.05176
-0.991361
8.04973
17.2499
25.8522
33.2612
39.109
43.2859
45.9338
47.406
48.2018
48.8858
50.0038
52.0044
55.179
59.6238
65.2288
71.6931
78.5638
85.2908
91.2921
96.0193
99.0164
99.9649
98.7104
95.2685
89.8109
82.6338
74.1138
64.6579
54.6544
44.4308
34.2245
24.1694
14.3001
4.57029
-5.11565
-14.8661
-24.7653
-34.8421
-45.0501
-55.261
-65.2725
-74.828
-83.6464
-91.4546
-98.0203
-103.177
-106.844
-109.024
-109.808
-109.351
-107.851
-105.528
-102.598
-99.2511
-95.6421
-91.88
-88.0296
-84.1167
-80.1369
-76.0667
-71.874
-67.5278
-63.0055
-58.2971
-53.4081
-48.3591
-43.186
-37.9378
-32.676
-27.4725
-22.4083
-17.5707
-13.0504
-8.93659
-5.31173
-2.24485
0.21467
2.04281
3.24488
3.8572
3.94587
3.60258
2.93783
2.07209
1.12596
0.210408
-0.581796
-1.18246
-1.55153
-1.6775
-1.57481
-1.27866
-0.837995
-0.307703
0.259169
0.81812
1.33816
1.80456
2.21923
2.5988
2.97096
3.36964
3.82978
4.38286
5.05362
5.85893
6.80872
7.90888
9.16551
10.5893
12.1988
14.0221
16.0952
18.4575
21.1447
24.1802
27.5655
31.2732
35.2421
39.3768
43.5514
47.618
51.4176
54.7923
57.5973
59.71
61.0364
61.513
61.1062
59.8097
57.6405
54.637
50.8568
46.3773
41.2972
35.7373
29.8409
23.7719
17.7089
11.8371
6.33696
1.37194
-2.92452
-6.45958
-9.18853
-11.1177
-12.3022
-12.8388
-12.8541
-12.4902
-11.8888
-11.1758
-10.4487
-9.7667
-9.14487
-8.55074
-7.90173
-7.06018
-5.82317
-3.90555
-0.917162
3.66079
10.4907
20.3721
34.1984
52.8649
77.1239
107.392
143.534
184.661
228.985
273.788
315.534
350.144
373.416
381.555
371.721
342.53
294.402
229.706
152.639
68.8722
-15.0299
-92.3197
-156.823
-203.633
-229.655
-233.928
-217.679
-184.12
-138.017
-85.0854
-31.3106
17.7336
57.4731
84.768
98.148
97.834
85.5584
64.2236
37.4502
9.08211
-17.289
-38.724
-53.2178
-59.8408
-58.7349
-50.9795
-38.3566
-23.0541
-7.3502
6.6807
17.4053
23.7893
25.4642
22.7043
16.3248
7.52474
-2.30309
-11.7657
-19.6436
-25.0238
-27.3813
-26.6016
-22.9495
-16.9927
-9.49388
-1.2898
6.82666
14.206
20.4118
25.2544
28.7876
31.2724
33.1157
34.7947
36.7785
39.4569
43.0864
47.7584
53.3914
59.7468
66.464
73.1079
79.221
84.3744
88.2085
90.4617
90.9839
89.7352
86.7745
82.2396
76.3242
69.2561
61.2772
52.6286
43.54
34.223
24.8681
15.6441
6.69818
-1.84265
-9.87065
-17.2964
-24.0486
-30.0737
-35.3366
-39.8208
-43.5278
-46.4773
-48.7049
-50.2606
-51.2053
-51.6072
-51.5383
-51.0702
-50.2711
-49.2033
-47.9212
-46.4712
-44.8917
-43.2146
-41.4669
-39.6728
-37.8554
-36.0384
-34.2464
-32.5052
-30.8409
-29.2779
-27.837
-26.5334
-25.3737
-24.3547
-23.4622
-22.6711
-21.9462
-21.2454
-20.5219
-19.7294
-18.8253
-17.7757
-16.5588
-15.1675
-13.6108
-11.9143
-10.1185
-8.27601
-6.44774
-4.6978
-3.08832
-1.67416
-0.498226
0.412243
1.04805
1.41887
1.55247
1.4924
1.29442
1.02182
0.740294
0.512572
0.393523
0.426034
0.638133
1.04157
1.63195
2.39031
3.28596
4.28019
5.33039
6.39426
7.43368
8.41783
9.32543
10.1458
10.879
11.5346
12.1296
12.6866
13.2304
13.7857
14.3754
15.0191
15.7329
16.529
17.4167
18.4018
19.4867
20.6684
21.9364
23.2688
24.6299
25.9668
27.2086
28.2675
29.0428
29.4278
29.319
28.6271
27.2885
25.2755
22.6035
19.3351
15.5778
11.4778
7.20856
2.95569
-1.09924
-4.79502
-8.00482
-10.6461
-12.6858
-14.1393
-15.0649
-15.5535
-15.7152
-15.6655
-15.5112
-15.3394
-15.21
-15.1517
-15.1628
-15.2145
-15.2565
-15.2215
-15.0264
-14.5671
-13.7035
-12.2348
-9.86538
-6.16732
-0.549102
7.75616
19.6664
36.1757
58.2184
86.4763
121.144
161.688
206.647
253.524
298.831
338.293
367.237
381.117
376.12
349.755
301.342
232.297
146.178
48.4443
-54.0314
-153.652
-242.887
-315.068
-365.088
-389.91
-388.834
-363.499
-317.62
-256.514
-186.478
-114.092
-45.5407
13.9711
60.6581
92.4027
108.802
111.027
101.521
83.5959
60.9671
37.302
15.8185
-1.01749
-11.6745
-15.6092
-13.1988
-5.57358
5.61897
18.4837
31.1439
41.9734
49.7697
53.8541
54.0955
50.863
44.9212
37.2889
29.0807
21.3554
14.9876
10.5768
8.40062
8.41432
10.29
13.4882
17.3477
21.1827
24.3718
26.4309
27.0612
26.1689
23.8582
20.399
16.1781
11.6405
7.22905
3.33119
0.237563
-1.88281
-2.98969
-3.16215
-2.57537
-1.46816
-0.106269
1.25342
2.39352
3.1582
3.46499
3.30589
2.73883
1.87151
0.840185
-0.21344
-1.1646
-1.92428
-2.45259
-2.76514
-2.93205
-3.06974
-3.32679
-3.86566
-4.84257
-6.38798
-8.59011
-11.4831
-15.0415
-19.1808
-23.7652
-28.6193
-33.5451
-38.3393
-42.8109
-46.7968
-50.1725
-52.8588
-54.8235
-56.0773
-56.6668
-56.6647
-56.1586
-55.2403
-53.9968
-52.5029
-50.8176
-48.9811
-47.0165
-44.9308
-42.7184
-40.3657
-37.8545
-35.1681
-32.2952
-29.2348
-26.0002
-22.6218
-19.1482
-15.6453
-12.1936
-8.88321
-5.80691
-3.0527
-0.695792
1.20835
2.62945
3.56544
4.04287
4.11458
3.85503
3.35378
2.70782
2.01346
1.35845
0.814905
0.433455
0.239066
0.228818
0.371882
0.611893
0.871755
1.06081
1.084
0.852599
0.295441
-0.630157
-1.92933
-3.56377
-5.45016
-7.46382
-9.44727
-11.2225
-12.6052
-13.4175
-13.4974
-12.7026
-10.9087
-8.00186
-3.87
1.60577
8.55462
17.1119
27.4055
39.5332
53.5329
69.35
86.8075
105.585
125.209
145.068
164.434
182.513
198.499
211.642
221.308
227.028
228.542
225.813
219.022
208.556
194.961
178.906
161.124
142.366
123.354
104.743
87.0918
70.8438
56.319
43.7121
33.0989
24.4472
17.6328
12.4569
8.66722
5.97893
4.09608
2.73226
1.62921
0.572398
-0.597499
-1.9778
-3.60219
-5.44383
-7.42232
-9.41243
-11.2519
-12.7446
-13.6559
-13.696
-12.4925
-9.55293
-4.22749
4.31642
17.0887
35.2218
59.8504
91.9226
131.951
179.734
234.106
292.76
352.218
407.986
454.915
487.735
501.71
493.318
460.848
404.812
328.096
235.799
134.774
32.9266
-61.6484
-141.569
-200.985
-236.215
-246.105
-232.08
-197.892
-149.093
-92.3237
-34.513
17.9171
59.7311
87.3778
99.2524
95.7109
78.8515
52.1093
19.7269
-13.8224
-44.3866
-68.5965
-84.1891
-90.1661
-86.7841
-75.3938
-58.1624
-37.7251
-16.8143
2.08375
17.0078
26.7063
30.7162
29.3362
23.5096
14.6396
4.36805
-5.6521
-13.9616
-19.4537
-21.4728
-19.8466
-14.8553
-7.14757
2.37948
12.7184
22.888
32.0518
39.605
45.2224
48.8663
50.7556
51.3057
51.0485
50.5456
50.3051
50.7136
51.9888
54.1594
57.0697
60.4081
63.7532
66.6309
68.5741
69.1793
68.153
65.3436
60.7575
54.5578
47.0467
38.6352
29.8033
21.0538
12.8674
5.66047
-0.248481
-4.6617
-7.51218
-8.86065
-8.88039
-7.83227
-6.03299
-3.82032
-1.51912
0.588311
2.28489
3.43241
3.97566
3.93732
3.40505
2.51299
1.42028
0.289205
-0.734295
-1.53603
-2.04336
-2.22889
-2.10837
-1.73365
-1.182
-0.543698
0.0907078
0.641601
1.04895
1.27755
1.3186
1.18786
0.92092
0.566534
0.179079
-0.188896
-0.493056
-0.70195
-0.799549
-0.785582
-0.673863
-0.489021
-0.262241
-0.0266277
0.187157
0.354478
0.4591
0.494079
0.460952
0.367144
0.221622
0.0291385
-0.216232
-0.537121
-0.97706
-1.60141
-2.494
-3.74901
-5.45889
-7.69951
-10.515
-13.9045
-17.8139
-22.1333
-26.7025
-31.3223
-35.7734
-39.8365
-43.3152
-46.055
-47.9587
-48.994
-49.194
-48.6504
-47.4996
-45.9048
-44.0365
-42.053
-40.0838
-38.2177
-36.4963
-34.9131
-33.4174
-31.9225
-30.316
-28.4719
-26.2626
-23.5709
-20.3003
-16.3848
-11.7956
-6.54705
-0.698515
5.64619
12.3436
19.2192
26.0789
32.7235
38.9635
44.6324
49.5969
53.7627
57.073
59.5029
61.0477
61.7094
61.4841
60.3518
58.2732
55.1937
51.0551
45.814
39.4624
32.049
23.6943
14.598
5.03509
-4.65957
-14.1179
-22.9733
-30.8998
-37.6522
-43.1
-47.2545
-50.2812
-52.4989
-54.3615
-56.4255
-59.3038
-63.61
-69.899
-78.6077
-90.0021
-104.135
-120.815
-139.593
-159.759
-180.347
-200.163
-217.811
-231.744
-240.338
-242.002
-235.323
-219.264
-193.385
-158.074
-114.738
-65.9116
-15.223
32.8038
73.1326
100.754
111.321
101.795
71.0018
19.9912
-47.8641
-127.08
-210.572
-290.406
-358.706
-408.584
-434.973
-435.244
-409.521
-360.662
-293.895
-216.173
-135.343
-59.2308
5.23883
52.7693
80.1953
86.7096
73.804
44.9504
5.07888
-40.0744
-84.6619
-123.382
-152.021
-167.84
-169.75
-158.303
-135.486
-104.378
-68.7087
-32.3803
0.983806
28.4218
47.9043
58.4731
60.2432
54.2814
42.3859
26.8034
9.92253
-6.01814
-19.1731
-28.2603
-32.6455
-32.3374
-27.9046
-20.3312
-10.837
-0.689096
8.96834
17.2442
23.5774
27.7561
29.8856
30.3193
29.573
28.2444
26.956
26.3332
27.0179
29.7108
35.2234
44.5181
58.7134
79.0388
106.73
142.869
188.198
242.914
306.509
377.665
454.244
533.378
611.668
685.452
751.122
805.445
845.841
870.593
878.963
871.209
848.527
812.936
767.131
714.34
658.201
602.649
551.812
509.893
480.996
468.889
476.679
506.416
558.636
631.907
722.433
823.777
926.786
1019.76
1088.93
1119.17
1095.09
1002.28
828.659
565.967
211.016
-233.26
-757.194
-1344.32
-1971.9
-2612.16
-3233.97
-3805.04
-4294.3
-4674.15
-4922.56
-5024.61
-4973.52
-4770.94
-4426.79
-3958.49
-3389.77
-2749.19
-2068.44
-1380.42
-717.319
-108.651
420.558
851.342
1171.97
1378.58
1475.22
1473.16
1389.6
1245.8
1064.95
869.756
680.355
512.47
376.223
275.625
208.816
168.972
145.758
127.102
101.079
57.6482
-9.94958
-104.291
-223.452
-361.279
-508.179
-652.33
-781.119
-882.651
-947.137
-968.008
-942.629
-872.547
-763.247
-623.462
-464.117
-297.041
-133.593
16.6305
146.861
253.868
338.232
404.158
458.849
511.517
572.162
650.26
753.524
886.887
1051.82
1246.04
1463.67
1695.77
1931.13
2157.29
2361.65
2532.41
2659.45
2734.97
2753.84
2713.78
2615.39
2461.97
2259.31
2015.37
1739.95
1444.23
1140.22
840.208
556.022
298.375
76.1798
-104.004
-238.378
-326.088
-369.166
-372.235
-341.996
-286.565
-214.723
-135.171
-55.853
16.5852
77.1563
122.705
151.895
165.035
163.783
150.776
129.23
102.549
73.9862
46.369
21.914
2.12826
-12.2064
-20.9776
-24.632
-24.0304
-20.2865
-14.6088
-8.15892
-1.94009
3.27953
7.0037
9.00681
9.29819
8.05904
5.56179
2.08376
-2.17156
-7.1322
-12.8829
-19.6504
-27.7483
-37.4872
-49.065
-62.4581
-77.3355
-93.0185
-108.501
-122.538
-133.792
-141.027
-143.318
-140.245
-132.04
-119.662
-104.777
-89.6503
-76.9424
-69.4523
-69.8225
-80.2502
-102.239
-136.417
-182.452
-239.06
-304.108
-374.802
-447.925
-520.107
-588.085
-648.939
-700.277
-740.356
-768.132
-783.253
-785.991
-777.139
-757.883
-729.668
-694.069
-652.68
-607.024
-558.49
-508.297
-457.472
-406.863
-357.148
-308.868
-262.451
-218.24
-176.507
-137.453
-101.205
-67.8001
-37.1676
-9.12102
16.6383
40.5002
62.9081
84.3074
105.089
125.533
145.771
165.763
185.302
204.043
221.556
237.382
251.104
262.401
271.08
277.098
280.546
281.623
280.588
277.716
273.255
267.397
260.271
251.956
242.515
232.044
220.728
208.9
197.082
186.016
176.654
170.121
167.631
170.367
179.322
195.133
217.902
247.053
281.23
318.276
355.29
388.79
414.953
429.938
430.232
413.007
376.427
319.873
244.053
150.984
43.8434
-73.2891
-195.776
-318.8
-437.746
-548.527
-647.848
-733.352
-803.672
-858.37
-897.794
-922.878
-934.907
-935.294
-925.389
-906.335
-878.99
-843.91
-801.382
-751.486
-694.184
-629.402
-557.11
-477.389
-390.488
-296.886
-197.355
-93.0433
14.4517
123.007
229.932
331.986
425.456
506.338
570.589
614.448
634.796
629.503
597.725
540.111
458.877
357.737
241.686
116.658
-10.9211
-134.625
-248.514
-347.571
-428.042
-487.634
-525.58
-542.556
-540.47
-522.164
-491.07
-450.841
-405.033
-356.835
-308.889
-263.199
-221.124
-183.44
-150.455
-122.137
-98.2464
-78.4497
-62.3949
-49.7538
-40.2284
-33.5337
-29.3664
-27.3748
-27.1382
-28.1659
-29.915
-31.8273
-33.3765
-34.119
-33.7386
-32.0766
-29.1436
-25.1103
-20.278
-15.0357
-9.80756
-4.99998
-0.953971
2.09072
4.01627
4.83092
4.6572
3.70739
2.25025
0.574093
-1.04878
-2.3919
-3.2952
-3.6745
-3.51937
-2.8808
-1.85099
-0.538676
0.956647
2.56923
4.28865
6.17838
8.39192
11.1868
14.9354
20.13
27.3748
37.3593
50.8045
68.3765
90.5703
117.569
149.098
184.293
221.62
258.861
293.198
321.403
340.125
346.248
337.297
311.805
269.624
212.096
142.063
63.6882
-17.8901
-97.0514
-168.263
-226.658
-268.551
-291.815
-296.08
-282.72
-254.641
-215.901
-171.202
-125.345
-82.697
-46.7488
-19.8065
-2.85062
4.4329
3.46681
-3.52382
-13.889
-24.9483
-34.3505
-40.3547
-42.0024
-39.169
-32.4961
-23.2243
-12.9563
-3.38748
3.95958
7.95931
8.04076
4.26098
-2.71082
-11.6915
-21.1477
-29.402
-34.8519
-36.1746
-32.4917
-23.4752
-9.38282
8.97813
30.3517
53.1847
75.8074
96.6213
114.272
127.783
136.647
140.847
140.832
137.432
131.738
124.954
118.256
112.651
108.874
107.319
108.019
110.667
114.675
119.268
123.589
126.804
128.21
127.303
123.828
117.791
109.431
99.1726
87.5503
75.1243
62.401
49.7666
37.4448
25.4831
13.7688
2.0716
-9.89675
-22.4142
-35.684
-49.7833
-64.633
-79.9927
-95.4802
-110.613
-124.862
-137.717
-148.74
-157.615
-164.176
-168.413
-170.463
-170.573
-169.056
-166.246
-162.437
-157.854
-152.614
-146.722
-140.07
-132.463
-123.646
-113.35
-101.331
-87.4097
-71.5004
-53.6291
-33.9379
-12.6774
9.81124
33.1197
56.7994
80.3867
103.426
125.487
146.18
165.166
182.16
196.938
209.337
219.256
226.65
231.524
233.926
233.934
231.644
227.156
220.569
211.975
201.458
189.107
175.03
159.37
142.325
124.171
105.262
86.0352
66.9967
48.6907
31.6626
16.4121
3.34589
-7.26677
-15.3263
-20.9202
-24.3211
-25.9649
-26.4099
-26.2822
-26.211
-26.7637
-28.3865
-31.3581
-35.7617
-41.4777
-48.1979
-55.4582
-62.6848
-69.2498
-74.5293
-77.9586
-79.0815
-77.5882
-73.3426
-66.395
-56.9815
-45.5109
-32.539
-18.7333
-4.82901
8.41891
20.2872
30.134
37.4436
41.8636
43.23
41.5788
37.1415
30.3259
21.6823
11.8591
1.55023
-8.55819
-17.8398
-25.772
-31.9688
-36.2007
-38.3996
-38.6502
-37.1691
-34.2752
-30.3543
-25.8216
-21.0861
-16.5187
-12.4268
-9.03613
-6.48063
-4.79956
-3.94201
-3.77739
-4.11063
-4.70013
-5.27586
-5.55434
-5.24693
-4.05795
-1.67083
2.27745
8.22924
16.7375
28.4825
44.2563
64.9011
91.1874
123.634
162.285
206.476
254.635
304.185
351.579
392.524
422.365
436.635
431.659
405.159
356.733
288.13
203.259
107.906
9.18564
-85.2048
-167.835
-232.378
-274.312
-291.416
-283.966
-254.634
-208.108
-150.48
-88.4971
-28.7795
22.9047
62.2135
86.5969
95.4209
89.8558
72.5585
47.2058
17.9501
-11.1295
-36.5117
-55.5977
-66.9234
-70.2069
-66.2408
-56.6603
-43.628
-29.4847
-16.4154
-6.17225
0.116185
2.0315
-0.151634
-5.57379
-12.9666
-20.8662
-27.8313
-32.6379
-34.4261
-32.7842
-27.7648
-19.8363
-9.78154
1.43891
12.8378
23.5449
32.9241
40.6493
46.7305
51.4895
55.4913
59.4425
64.0733
70.0211
77.7307
87.3863
98.8815
111.831
125.621
139.486
152.605
164.201
173.63
180.442
184.427
185.61
184.231
180.688
175.469
169.079
161.966
154.47
146.793
138.988
130.977
122.594
113.629
103.891
93.2502
81.6838
69.294
56.3112
43.078
30.0165
17.5865
6.23806
-3.63369
-11.7266
-17.8585
-21.9798
-24.1722
-24.6327
-23.6477
-21.5589
-18.7262
-15.4929
-12.1548
-8.93889
-5.99148
-3.37726
-1.08842
0.938154
2.79812
4.59446
6.41313
8.30278
10.2613
12.2308
14.1022
15.7287
16.9458
17.5965
17.556
16.7547
15.193
12.948
10.1695
7.06577
3.88043
0.864196
-1.75567
-3.80385
-5.17949
-5.86927
-5.94859
-5.57
-4.93982
-4.28585
-3.8208
-3.70694
-4.02773
-4.77113
-5.8278
-7.00495
-8.05427
-8.71007
-8.73194
-7.94536
-6.27402
-3.75852
-0.55824
3.06396
6.7724
10.2
12.9943
14.8625
15.607
15.1503
13.542
10.9509
7.64226
3.94308
0.202581
-3.24868
-6.13445
-8.25939
-9.52363
-9.92444
-9.546
-8.53957
-7.09789
-5.4276
-3.72384
-2.15032
-0.827217
0.17183
0.813754
1.09244
1.00994
0.55599
-0.310142
-1.67139
-3.65482
-6.42191
-10.1469
-14.9855
-21.0382
-28.3134
-36.6966
-45.9314
-55.6173
-65.2265
-74.1396
-81.6985
-87.2699
-90.3141
-90.4487
-87.501
-81.5399
-72.883
-62.0773
-49.8534
-37.0587
-24.577
-13.2424
-3.75937
3.36426
7.86275
9.73217
9.22322
6.80964
3.13788
-1.0332
-4.89261
-7.62779
-8.45859
-6.65263
-1.52631
7.55766
21.1805
39.8293
63.8182
93.1677
127.454
165.659
206.057
246.181
282.915
312.71
331.94
337.34
326.484
298.219
252.978
192.922
121.856
44.9261
-31.8721
-102.323
-160.671
-202.258
-224.045
-224.939
-205.892
-169.759
-120.943
-64.8702
-7.3724
45.9521
90.3184
122.211
139.673
142.398
131.635
109.929
80.7347
47.9627
15.5161
-13.1308
-35.2656
-49.1541
-54.1273
-50.5428
-39.6401
-23.3195
-3.87781
16.2609
34.7901
49.7154
59.4851
63.0516
59.8691
49.8407
33.2316
10.5682
-17.4605
-50.0832
-86.5013
-125.916
-167.529
-210.528
-254.062
-297.219
-339.021
-378.432
-414.386
-445.834
-471.807
-491.481
-504.238
-509.722
-507.873
-498.936
-483.448
-462.203
-436.19
-406.52
-374.346
-340.785
-306.85
-273.394
-241.082
-210.379
-181.562
-154.75
-129.948
-107.095
-86.1146
-66.9534
-49.6117
-34.1553
-20.7108
-9.44538
-0.535008
5.87592
9.71549
11.0208
9.96342
6.86018
2.16502
-3.55717
-9.67324
-15.5363
-20.5454
-24.2033
-26.1641
-26.2655
-24.5402
-21.2067
-16.638
-11.316
-5.77317
-0.532826
3.9477
7.32275
9.38869
10.0959
9.54261
7.95135
5.63388
2.94783
0.252017
-2.1345
-3.96488
-5.08513
-5.44133
-5.0734
-4.09738
-2.6795
-1.00612
0.745614
2.43226
3.96036
5.29261
6.44387
7.46832
8.4407
9.43513
10.5054
11.6699
12.9043
14.1418
15.2818
16.2056
16.7937
16.9457
16.5961
15.7248
14.3615
12.5825
10.5011
8.25268
5.97821
3.80713
1.84341
0.156368
-1.22225
-2.29493
-3.08948
-3.64641
-4.00466
-4.18824
-4.19578
-3.99485
-3.52198
-2.68869
-1.39281
0.466362
2.9712
6.16968
10.0624
14.595
19.6566
25.0848
30.6776
36.2087
41.4456
46.1685
50.1861
53.3479
55.5511
56.7418
56.9118
56.0913
54.3412
51.7443
48.3991
44.4136
39.9008
34.9734
29.7377
24.2862
18.6908
12.9958
7.21494
1.33176
-4.69469
-10.9186
-17.3913
-24.1409
-31.1513
-38.3424
-45.5557
-52.5495
-59.0053
-64.5486
-68.7811
-71.324
-71.8653
-70.207
-66.3033
-60.2856
-52.4677
-43.3301
-33.4825
-23.6095
-14.4041
-6.49753
-0.39427
3.58094
5.31729
4.93196
2.7652
-0.638628
-4.55767
-8.1212
-10.3377
-10.1253
-6.35244
2.09792
16.2295
36.7903
64.0913
97.804
136.771
178.878
221.027
259.269
289.092
305.881
305.478
284.798
242.385
178.834
96.9741
1.79381
-99.9373
-200.293
-290.999
-364.334
-413.983
-435.764
-428.106
-392.229
-332.005
-253.515
-164.365
-72.841
12.9753
86.0442
141.046
174.837
186.632
177.92
152.128
114.093
69.4148
23.7784
-17.6784
-50.8804
-73.1617
-83.4203
-82.0782
-70.8706
-52.5061
-30.2491
-7.48183
12.7004
27.8168
36.2222
37.2054
30.9674
18.4937
1.34801
-18.5819
-39.3485
-59.1881
-76.7161
-91.0544
-101.884
-109.421
-114.325
-117.561
-120.224
-123.357
-127.789
-133.992
-141.996
-151.361
-161.204
-170.287
-177.153
-180.288
-178.302
-170.098
-155.012
-132.913
-104.244
-70.0053
-31.6739
8.92259
49.7701
88.8496
124.316
154.652
178.789
196.17
206.757
210.991
209.695
203.953
194.964
183.913
171.844
159.581
147.68
136.428
125.875
115.898
106.279
96.7787
87.2145
77.5044
67.694
57.9546
48.5579
39.8322
32.1094
25.6707
20.7
17.252
15.2388
14.437
14.5124
15.0596
15.6487
15.8729
15.3907
13.9561
11.4337
7.79713
3.11223
-2.49141
-8.85528
-15.8262
-23.2836
-31.1548
-39.415
-48.0719
-57.1382
-66.5961
-76.3614
-86.2532
-95.9757
-105.116
-113.162
-119.531
-123.627
-124.891
-122.865
-117.243
-107.918
-95.0039
-78.8386
-59.9664
-39.101
-17.0734
5.22794
26.9181
47.1718
65.2686
80.6238
92.8044
101.532
106.676
108.238
106.341
101.216
93.1911
82.6854
70.2022
56.3191
41.6719
26.9304
12.767
-0.182169
-11.3593
-20.325
-26.7926
-30.6507
-31.9714
-31.0018
-28.1388
-23.8909
-18.829
-13.5329
-8.5392
-4.29523
-1.12424
0.794969
1.43265
0.89726
-0.588752
-2.7232
-5.16392
-7.56945
-9.63599
-11.127
-11.8927
-11.8782
-11.1206
-9.73623
-7.90096
-5.82563
-3.73098
-1.82418
-0.279697
0.773965
1.26086
1.15787
0.489874
-0.678336
-2.25103
-4.10928
-6.11593
-8.11712
-9.94112
-11.3959
-12.2683
-12.3273
-11.3343
-9.06139
-5.31677
0.0238541
6.98551
15.4668
25.2238
35.8692
46.8917
57.6941
67.6485
76.1627
82.7497
87.0919
89.0927
88.9099
86.9686
83.9541
80.7881
78.5916
78.6365
82.2851
90.913
105.808
128.036
158.277
196.631
242.415
293.998
348.699
402.814
451.794
490.599
514.201
518.195
499.424
456.543
390.396
304.159
203.185
94.5573
-13.6017
-112.983
-195.994
-256.599
-290.972
-297.889
-278.816
-237.668
-180.298
-113.781
-45.581
17.2705
68.9092
105.183
123.962
125.193
110.706
83.8201
48.814
10.3313
-27.1961
-60.0405
-85.535
-102.264
-110.08
-109.962
-103.752
-93.8096
-82.643
-72.5553
-65.3597
-62.1839
-63.3829
-68.5597
-76.6805
-86.2619
-95.5999
-103.008
-107.034
-106.633
-101.279
-90.9977
-76.3383
-58.2814
-38.1015
-17.207
3.02581
21.4011
37.0216
49.3632
58.302
64.0937
67.3121
68.756
69.3383
69.9709
71.4579
74.4112
79.1921
85.8879
94.3194
104.078
114.586
125.168
135.128
143.821
150.712
155.416
157.715
157.561
155.051
150.403
143.909
135.901
126.717
116.67
106.032
95.0326
83.8567
72.6551
61.5567
50.6803
40.1444
30.072
20.5918
11.8327
3.91675
-3.05172
-8.99586
-13.875
-17.6901
-20.4848
-22.3424
-23.3782
-23.729
-23.5401
-22.9523
-22.0906
-21.0544
-19.913
-18.7043
-17.438
-16.1021
-14.6716
-13.1175
-11.4155
-9.55176
-7.5268
-5.35562
-3.06543
-0.691482
1.72809
4.15735
6.5665
8.93432
11.2484
13.5037
15.6986
17.8302
19.8884
21.8506
23.6766
25.3061
26.6588
27.6377
28.1352
28.0411
27.2514
25.6749
23.2386
19.8878
15.5851
10.3064
4.03807
-3.22409
-11.4714
-20.6748
-30.7734
-41.6616
-53.1764
-65.0893
-77.1047
-88.8667
-99.9753
-110.012
-118.568
-125.283
-129.874
-132.163
-132.099
-129.761
-125.357
-119.205
-111.706
-103.305
-94.4573
-85.5861
-77.0504
-69.1194
-61.9583
-55.626
-50.0843
-45.2171
-40.8562
-36.8116
-32.9005
-28.9731
-24.9323
-20.7436
-16.4377
-12.1024
-7.86869
-3.89062
-0.323699
2.6964
5.07136
6.75212
7.74361
8.10218
7.92649
7.34343
6.49153
5.50452
4.49725
3.55622
2.73562
2.05929
1.5277
1.12851
0.848627
0.685498
0.655708
0.79932
1.17921
1.87533
2.9746
4.55758
6.68356
9.37597
12.61
16.3043
20.3192
24.4613
28.4989
32.1859
35.2976
37.6759
39.2831
40.2595
40.9783
42.0867
44.5203
49.4751
58.324
72.4679
93.1239
121.066
156.354
198.091
244.276
291.789
336.556
373.887
398.981
407.517
396.271
363.648
310.046
237.991
151.998
58.1736
-36.4044
-124.442
-199.227
-255.36
-289.33
-299.856
-287.958
-256.768
-211.086
-156.779
-100.077
-46.8725
-2.10519
30.7075
49.7358
54.8891
47.6602
30.7992
7.86747
-17.2618
-40.8937
-59.9336
-72.1962
-76.5745
-73.0626
-62.6433
-47.0667
-28.5588
-9.50212
7.8696
21.7272
30.8261
34.596
33.1407
27.156
17.7868
6.44689
-5.37214
-16.2773
-25.1171
-31.0766
-33.7204
-32.9848
-29.1271
-22.6449
-14.1796
-4.41899
5.98983
16.506
26.7355
36.4437
45.5445
54.069
62.1232
69.8415
77.343
84.6977
91.9058
98.8919
105.512
111.573
116.856
121.145
124.253
126.036
126.409
125.348
122.885
119.096
114.091
108
100.954
93.0845
84.507
75.3232
65.6186
55.4662
44.9318
34.0807
22.9857
11.7336
0.430067
-10.7975
-21.8013
-32.4166
-42.4694
-51.7847
-60.1966
-67.5578
-73.7471
-78.676
-82.2915
-84.5776
-85.5541
-85.2734
-83.8169
-81.29
-77.8161
-73.5312
-68.5782
-63.1009
-57.2392
-51.1241
-44.8737
-38.5901
-32.3566
-26.2357
-20.2681
-14.4717
-8.84121
-3.34897
2.05335
7.43143
12.8631
18.431
24.2142
30.2776
36.6627
43.3782
50.3944
57.6395
65.0014
72.3319
79.455
86.1774
92.3005
97.6321
101.998
105.252
107.284
108.022
107.436
105.531
102.34
97.9055
92.2657
85.4291
77.3545
67.9323
56.9729
44.2058
29.292
11.8506
-8.49875
-32.0833
-59.1161
-89.6355
-123.451
-160.107
-198.865
-238.718
-278.433
-316.617
-351.815
-382.614
-407.755
-426.237
-437.405
-440.995
-437.163
-426.456
-409.756
-388.195
-363.042
-335.594
-307.065
-278.498
-250.704
-224.24
-199.406
-176.288
-154.813
-134.814
-116.104
-98.5259
-82.0016
-66.5461
-52.2661
-39.3363
-27.9621
-18.3348
-10.5874
-4.75823
-0.767013
1.59177
2.6387
2.78339
2.48656
2.21525
2.39703
3.37853
5.39302
8.54018
12.7797
17.9391
23.7341
29.7998
35.7293
41.1149
45.5901
48.8669
50.7682
51.2509
50.4241
48.5599
46.1009
43.663
42.0338
42.1593
45.1127
52.0347
64.0366
82.0596
106.697
137.992
175.246
216.87
260.33
302.227
338.522
364.924
377.385
372.65
348.785
305.586
244.794
170.067
86.7033
1.12089
-79.823
-149.595
-202.725
-235.419
-245.974
-234.929
-204.948
-160.455
-107.072
-50.9366
2.00289
46.632
79.1802
97.5377
101.357
91.937
71.9295
44.9025
14.839
-14.37
-39.3745
-57.7065
-67.981
-69.9463
-64.39
-52.9281
-37.7129
-21.1054
-5.35579
7.66905
16.6809
21.0725
20.9229
16.9153
10.1872
2.1378
-5.77777
-12.2403
-16.2217
-17.0871
-14.6376
-9.09235
-1.02108
8.76152
19.3207
29.7289
39.178
47.0659
53.0467
57.0441
59.2298
59.9729
59.77
59.168
58.6879
58.7617
59.6862
61.5995
64.4794
68.1621
72.3756
76.7829
81.0278
84.7775
87.7565
89.7688
90.7066
90.5451
89.3264
87.1363
84.0783
80.2508
75.7313
70.571
64.8002
58.4418
51.5314
44.1372
36.3755
28.4189
20.4922
12.8589
5.79702
-0.430013
-5.60394
-9.57874
-12.2998
-13.812
-14.2562
-13.8531
-12.8783
-11.6309
-10.4
-9.43351
-8.91307
-8.93829
-9.52125
-10.5919
-12.0128
-13.6014
-15.1555
-16.4802
-17.411
-17.832
-17.6872
-16.9826
-15.7818
-14.1941
-12.3591
-10.4279
-8.54567
-6.83601
-5.38938
-4.25674
-3.44855
-2.93868
-2.67249
-2.57737
-2.57448
-2.58976
-2.56316
-2.45485
-2.24806
-1.94844
-1.58038
-1.181
-0.792971
-0.457076
-0.205668
-0.0578123
-0.0166453
-0.0691519
-0.188231
-0.336606
-0.471942
-0.552387
-0.54177
-0.413766
-0.154525
0.236485
0.747429
1.3566
2.03604
2.75575
3.4879
4.21052
4.91024
5.58391
6.23898
6.89278
7.57094
8.30509
9.13002
10.0803
11.1868
12.4725
13.9491
15.6136
17.4466
19.4109
21.4536
23.5086
25.5015
27.356
28.9998
30.3712
31.4235
32.128
32.4743
32.4683
32.1284
31.4796
30.5472
29.3512
27.9006
26.1905
24.2001
21.8941
19.2264
16.146
12.6057
8.57092
4.03025
-0.99605
-6.44874
-12.2256
-18.1815
-24.1324
-29.8648
-35.1485
-39.7541
-43.4712
-46.1277
-47.607
-47.8622
-46.9244
-44.9055
-41.9925
-38.4359
-34.5298
-30.5863
-26.9039
-23.7311
-21.2275
-19.4214
-18.1675
-17.1092
-15.649
-12.9401
-7.90763
0.684155
14.1115
33.5123
59.6596
92.7115
131.977
175.75
221.262
264.789
301.948
328.14
339.122
331.611
303.834
255.926
190.113
110.613
23.2762
-65.0143
-147.092
-216.313
-267.312
-296.591
-302.888
-287.261
-252.896
-204.661
-148.491
-90.6646
-37.0877
7.33822
39.1866
56.7698
60.178
51.1044
32.4959
8.08506
-18.1297
-42.3873
-61.5911
-73.6137
-77.4556
-73.2488
-62.123
-45.9625
-27.0945
-7.95551
9.22205
22.6656
31.2346
34.4963
32.7062
26.7045
17.752
7.33024
-3.06326
-12.1002
-18.765
-22.4438
-22.9535
-20.5141
-15.6739
-9.20229
-1.967
5.18695
11.542
16.5851
20.0509
21.9292
22.4406
21.9858
21.0781
20.2695
20.0788
20.9312
23.114
26.7533
31.8111
38.1024
45.3261
53.1065
61.0381
68.7271
75.8258
82.0555
87.2161
91.1844
93.902
95.3569
95.5645
94.5503
92.3385
88.9487
84.4002
78.7216
71.9645
64.217
55.6128
46.3356
36.6149
26.7149
16.9167
7.49639
-1.29787
-9.26678
-16.2761
-22.2661
-27.2522
-31.3185
-34.6026
-37.2761
-39.5213
-41.5078
-43.3728
-45.205
-47.0367
-48.8433
-50.5501
-52.046
-53.2011
-53.8867
-53.9938
-53.4483
-52.2219
-50.3351
-47.8552
-44.8877
-41.564
-38.0266
-34.4139
-30.8473
-27.4211
-24.197
-21.2031
-18.4374
-15.8735
-13.4695
-11.177
-8.94862
-6.74515
-4.53947
-2.3188
-0.0847945
2.14759
4.35215
6.49365
8.52992
10.4138
12.0949
13.5211
14.6415
15.4079
15.779
15.7239
15.225
14.2818
12.912
11.1519
9.05385
6.68186
4.10613
1.39655
-1.38258
-4.17584
-6.93671
-9.62418
-12.1963
-14.6022
-16.7738
-18.6201
-20.0255
-20.8532
-20.9541
-20.1812
-18.4071
-15.5417
-11.5491
-6.45904
-0.372479
6.5408
14.0523
21.8915
29.7673
37.3917
44.502
50.8804
56.3669
60.8667
64.3494
66.8419
68.4165
69.1756
69.2354
68.71
67.6983
66.2751
64.4864
62.3498
59.8596
56.9963
53.7374
50.0709
46.0057
41.5814
36.8718
31.9846
27.0553
22.2362
17.6823
13.5354
9.90845
6.87284
4.44918
2.60392
1.25144
0.261709
-0.527541
-1.29527
-2.21986
-3.46173
-5.14722
-7.35477
-10.1035
-13.3435
-16.9457
-20.6898
-24.2469
-27.159
-28.8165
-28.4414
-25.0886
-17.6781
-5.0736
13.7829
39.682
72.917
113.046
158.69
207.423
255.804
299.572
334.024
354.541
357.186
339.306
300.03
240.574
164.295
76.4644
-16.2231
-106.347
-186.571
-250.466
-293.221
-312.171
-307.047
-279.95
-235.032
-177.961
-115.217
-53.3371
1.80355
45.5934
75.0942
89.2272
88.7258
75.8805
54.1214
27.5028
0.160779
-24.1877
-42.6481
-53.4119
-55.8629
-50.527
-38.887
-23.0976
-5.64667
10.9912
24.6649
33.7854
37.4707
35.5885
28.7016
17.9319
4.76992
-9.1432
-22.2293
-33.1575
-40.9789
-45.2004
-45.7941
-43.1486
-37.9736
-31.1744
-23.7161
-16.4933
-10.2224
-5.36793
-2.10786
-0.339539
0.278026
0.254123
0.179578
0.635673
2.11075
4.93466
9.23825
14.9414
21.769
29.2919
36.9838
44.2888
50.6873
55.7539
59.1998
60.8952
60.8706
59.2981
56.4567
52.6867
48.3409
43.7379
39.1243
34.6503
30.3598
26.1966
22.0236
17.6526
12.8799
7.52289
1.45215
-5.3839
-12.9456
-21.1006
-29.6342
-38.2698
-46.6954
-54.5934
-61.67
-67.6796
-72.4431
-75.8581
-77.901
-78.6218
-78.1327
-76.593
-74.1922
-71.1333
-67.617
-63.829
-59.9311
-56.0544
-52.297
-48.7237
-45.3688
-42.2398
-39.3229
-36.5891
-33.9996
-31.5125
-29.0867
-26.6868
-24.2859
-21.8677
-19.4273
-16.9719
-14.5202
-12.101
-9.7517
-7.51567
-5.43901
-3.56708
-1.94056
-0.591706
0.458986
1.20526
1.65639
1.83704
1.78573
1.55183
1.19156
0.763346
0.322963
-0.0808791
-0.410125
-0.639746
-0.758681
-0.769318
-0.685661
-0.530446
-0.33162
-0.118603
0.0812198
0.245406
0.358489
0.412989
0.409372
0.355087
0.26287
0.14861
0.0290655
-0.0802449
-0.166706
-0.221549
-0.23987
-0.219587
-0.159348
-0.0556162
0.100623
0.326916
0.651431
1.11344
1.76179
2.65115
3.83655
5.36651
7.27598
9.57975
12.2673
15.2995
18.6076
22.0942
25.6364
29.0899
32.2953
35.0853
37.2939
38.7667
39.3733
39.0197
37.6605
35.3085
32.0404
27.9971
23.3768
18.4228
13.4037
8.59141
4.23706
0.548198
-2.32915
-4.32209
-5.4344
-5.74159
-5.37831
-4.51983
-3.35992
-2.08811
-0.868791
0.175361
0.974433
1.5165
1.84807
2.07205
2.34644
2.88716
3.97794
5.98825
9.3972
14.8172
23.0067
34.8567
51.3367
73.3855
101.745
136.744
178.07
224.551
274.031
323.36
368.558
405.146
428.634
435.101
421.774
387.543
333.277
261.928
178.34
88.8163
0.464969
-79.5728
-144.924
-190.7
-214.036
-214.383
-193.521
-155.297
-105.124
-49.3204
5.63481
53.8218
90.5012
112.559
118.737
109.632
87.4818
55.7781
18.767
-19.0978
-53.6777
-81.5893
-100.516
-109.368
-108.279
-98.4688
-81.9816
-61.3617
-39.2993
-18.2968
-0.392274
13.0317
21.3403
24.6368
23.6635
19.6337
14.0208
8.33637
3.92395
1.79387
2.5158
6.17763
12.4104
20.4707
29.3657
38.001
45.3314
50.4946
52.9115
52.3428
48.8974
42.994
35.2838
26.5464
17.5736
9.05748
1.49691
-4.86651
-10.0749
-14.4417
-18.5028
-22.9394
-28.483
-35.8145
-45.4706
-57.7675
-72.7503
-90.1715
-109.5
-129.955
-150.567
-170.244
-187.858
-202.317
-212.642
-218.033
-217.914
-211.977
-200.198
-182.848
-160.482
-133.919
-104.202
-72.546
-40.2692
-8.71931
20.8111
47.1652
69.3945
86.8149
99.0393
105.983
107.843
105.044
98.1761
87.9144
74.9426
59.8879
43.2768
25.5158
6.89913
-12.3611
-32.0903
-52.1018
-72.1522
-91.912
-110.956
-128.777
-144.817
-158.515
-169.36
-176.943
-180.997
-181.421
-178.288
-171.836
-162.44
-150.58
-136.805
-121.697
-105.836
-89.7754
-74.0268
-59.0417
-45.2042
-32.823
-22.1253
-13.2518
-6.2532
-1.089
2.37026
4.33612
5.09038
4.96833
4.3377
3.57467
3.03864
3.04773
3.85744
5.64422
8.49602
12.4105
17.3015
23.0125
29.3362
36.0367
42.8729
49.619
56.0815
62.1086
67.5944
72.4752
76.7208
80.3224
83.2783
85.5813
87.2086
88.1165
88.2403
87.4991
85.8053
83.0765
79.2482
74.2853
68.1895
61.0016
52.7976
43.678
33.7524
23.1208
11.8564
-0.00786751
-12.4835
-25.6202
-39.4881
-54.1488
-69.6209
-85.8431
-102.642
-119.714
-136.618
-152.791
-167.584
-180.313
-190.318
-197.033
-200.044
-199.137
-194.329
-185.87
-174.225
-160.032
-144.043
-127.052
-109.825
-93.032
-77.1968
-62.6572
-49.5508
-37.8161
-27.2064
-17.312
-7.58144
2.66176
14.2086
27.9555
44.8853
66.0229
92.348
124.654
163.354
208.254
258.326
311.546
364.832
414.156
454.833
481.992
491.168
478.954
443.593
385.416
307.047
213.311
110.842
7.43362
-88.7914
-170.279
-230.892
-266.593
-275.87
-259.858
-222.139
-168.26
-105.04
-39.7546
20.6845
70.4645
105.429
123.402
124.258
109.745
83.1033
48.5395
10.6358
-26.2301
-58.3843
-83.2208
-99.3981
-106.861
-106.697
-100.868
-91.851
-82.2479
-74.4171
-70.1637
-70.5288
-75.6936
-85.0014
-97.0863
-110.083
-121.885
-130.421
-133.905
-131.039
-121.154
-104.259
-81.0212
-52.6738
-20.8654
12.519
45.552
76.4456
103.707
126.249
143.454
155.186
161.748
163.804
162.278
158.225
152.721
146.745
141.1
136.36
132.839
130.602
129.498
129.21
129.313
129.343
128.853
127.459
124.873
120.921
115.541
108.769
100.719
91.556
81.4628
70.6197
59.1835
47.2776
34.9892
22.3728
9.45975
-3.7316
-17.1855
-30.8815
-44.7905
-58.8745
-73.0882
-87.3802
-101.692
-115.951
-130.064
-143.901
-157.28
-169.958
-181.623
-191.897
-200.358
-206.561
-210.084
-210.574
-207.792
-201.655
-192.263
-179.906
-165.05
-148.296
-130.328
-111.838
-93.4564
-75.6791
-58.8142
-42.9483
-27.9396
-13.4398
1.05754
16.1481
32.4349
50.4439
70.5474
92.905
117.43
143.786
171.413
199.578
227.456
254.208
279.07
301.426
320.866
337.21
350.513
361.032
369.18
375.451
380.347
384.301
387.614
390.407
392.604
393.935
393.974
392.185
387.995
380.868
370.375
356.256
338.454
317.143
292.71
265.733
236.926
207.087
177.028
147.517
119.226
92.6947
68.3029
46.2655
26.6372
9.32937
-5.86391
-19.2337
-31.1207
-41.8791
-51.8412
-61.2861
-70.4146
-79.3324
-88.0437
-96.4565
-104.398
-111.64
-117.933
-123.036
-126.755
-128.965
-129.632
-128.817
-126.669
-123.41
-119.308
-114.649
-109.703
-104.699
-99.8037
-95.108
-90.6276
-86.3091
-82.0453
-77.6955
-73.1077
-68.1388
-62.6725
-56.6295
-49.9732
-42.7076
-34.8702
-26.5197
-17.7202
-8.52076
1.06821
11.1022
21.7315
33.2277
46.0008
60.5975
77.6661
97.8806
121.816
149.78
181.621
216.544
252.98
288.543
320.133
344.175
357.005
355.347
336.818
300.388
246.703
178.21
99.0411
14.6731
-68.6249
-144.467
-207.07
-251.91
-276.235
-279.364
-262.724
-229.639
-184.893
-134.135
-83.2029
-37.4559
-1.20346
22.7095
33.1141
30.5134
16.8778
-4.72056
-30.5769
-56.8596
-80.0877
-97.522
-107.429
-109.198
-103.302
-91.1362
-74.7461
-56.5092
-38.7991
-23.6846
-12.6952
-6.67744
-5.75067
-9.35951
-16.4064
-25.4406
-34.8739
-43.1941
-49.1501
-51.8862
-51.0167
-46.6344
-39.2597
-29.7413
-19.1251
-8.50998
1.09077
8.86706
14.296
17.1856
17.6755
16.1989
13.4111
10.0971
7.06882
5.0652
4.66732
6.23691
9.88476
15.4707
22.6331
30.8428
39.4717
47.8684
55.4289
61.6542
66.1888
68.8365
69.554
68.4261
65.6298
61.3929
55.9563
49.5446
42.349
34.5232
26.1909
17.4615
8.4478
-0.715813
-9.86239
-18.7888
-27.2616
-35.0318
-41.8549
-47.5153
-51.8489
-54.7616
-56.2412
-56.359
-55.264
-53.1674
-50.3211
-46.9929
-43.441
-39.8911
-36.5188
-33.4385
-30.701
-28.2972
-26.1693
-24.2263
-22.362
-20.4732
-18.476
-16.3184
-13.9875
-11.5111
-8.95422
-6.4103
-3.98888
-1.80169
0.0515722
1.49609
2.49198
3.04084
3.18809
3.02112
2.66335
2.26478
1.98966
2.00256
2.45366
3.46486
5.11783
7.44524
10.4261
13.986
18.0017
22.3115
26.7277
31.0526
35.0956
38.6882
41.6982
44.0391
45.6753
46.6226
46.9432
46.7368
46.1285
45.2547
44.2494
43.2307
42.291
41.4909
40.8559
40.3792
40.0268
39.745
39.4701
39.1366
38.6842
38.0632
37.2365
36.1799
34.8808
33.3358
31.5488
29.5293
27.2914
24.8532
22.2364
19.4644
16.5596
13.5382
10.4049
7.14645
3.72812
0.0920071
-3.8398
-8.15772
-12.9528
-18.3017
-24.2499
-30.7953
-37.8752
-45.3574
-53.0393
-60.6554
-67.8931
-74.4165
-79.8961
-84.0399
-86.6236
-87.5157
-86.6927
-84.2445
-80.3666
-75.3417
-69.5108
-63.2406
-56.8871
-50.7631
-45.1117
-40.0877
-35.7491
-32.0569
-28.8811
-26.0089
-23.1516
-19.9452
-15.9441
-10.6075
-3.28499
6.78933
20.4804
38.699
62.2994
91.9255
127.815
169.588
216.059
265.121
313.755
358.182
394.185
417.56
424.653
412.904
381.305
330.701
263.859
185.3
100.877
17.1786
-59.1928
-122.349
-167.765
-192.767
-196.779
-181.331
-149.802
-106.968
-58.398
-9.79822
33.6274
67.7134
89.7106
98.4712
94.4316
79.4129
56.2759
28.4867
-0.347747
-26.9151
-48.5538
-63.4946
-70.969
-71.1846
-65.1842
-54.6173
-41.4623
-27.7375
-15.2394
-5.33736
1.156
4.02907
3.63467
0.784724
-3.40353
-7.68545
-10.8664
-11.9563
-10.2837
-5.55901
2.11567
12.2878
24.2352
37.0741
49.8768
61.7851
72.1044
80.3698
86.3773
90.1812
92.0593
92.4542
91.9005
90.9466
90.0834
89.6857
89.974
90.9992
92.6492
94.6749
96.7303
98.4207
99.3517
99.1744
97.6208
94.5278
89.8489
83.6533
76.1153
67.4968
58.1234
48.3597
38.5833
29.1601
20.4219
12.648
6.04929
0.75734
-3.18226
-5.81199
-7.25916
-7.72716
-7.48098
-6.82736
-6.09034
-5.58425
-5.58611
-6.31069
-7.89067
-10.3647
-13.6746
-17.6732
-22.1403
-26.8073
-31.3858
-35.5974
-39.2021
-42.0203
-43.9485
-44.9646
-45.1249
-44.5524
-43.4183
-41.9202
-40.2585
-38.6145
-37.133
-35.9104
-34.9892
-34.3593
-33.9658
-33.7205
-33.5164
-33.244
-32.8047
-32.1233
-31.1558
-29.8927
-28.358
-26.6043
-24.7045
-22.7419
-20.7997
-18.9508
-17.2506
-15.731
-14.3991
-13.2382
-12.212
-11.2711
-10.3613
-9.43148
-8.4416
-7.36831
-6.20852
-4.98004
-3.71929
-2.47662
-1.30977
-0.276442
0.573024
1.20193
1.59167
1.74387
1.67997
1.43851
1.07049
0.633455
0.185184
-0.222326
-0.547806
-0.764111
-0.859745
-0.838471
-0.717172
-0.522269
-0.28508
-0.0365246
0.198403
0.405878
0.587621
0.763734
0.97332
1.27236
1.72865
2.4139
3.39384
4.71721
6.40524
8.44318
10.7753
13.3046
15.8972
18.3927
20.6177
22.4019
23.5957
24.0854
23.8052
22.7447
20.9503
18.5214
15.6005
12.36
8.98689
5.66617
2.56591
-0.175045
-2.45563
-4.21676
-5.44111
-6.149
-6.3912
-6.2396
-5.77708
-5.08753
-4.24692
-3.31584
-2.33329
-1.3109
-0.225658
0.990847
2.46898
4.42459
7.18869
11.239
17.2251
25.9745
38.4647
55.7448
78.7987
108.349
144.621
187.095
234.304
283.725
331.818
374.24
406.238
423.19
421.218
397.789
352.208
285.906
202.47
107.394
7.56322
-89.4574
-176.244
-246.328
-294.903
-319.325
-319.35
-297.08
-256.64
-203.624
-144.407
-85.3943
-32.3227
10.3171
39.6679
54.673
56.0162
45.8639
27.4539
4.59691
-18.8421
-39.4167
-54.4723
-62.3843
-62.6446
-55.8016
-43.2747
-27.081
-9.5157
7.1686
21.0432
30.7149
35.4482
35.1918
30.5173
22.4852
12.464
1.9295
-7.72887
-15.3705
-20.2183
-21.9153
-20.524
-16.4718
-10.4575
-3.33265
4.02426
10.8238
16.4595
20.5689
23.0583
24.0917
24.0473
23.4525
22.9049
22.9926
24.2209
26.9557
31.3877
37.5187
45.1714
54.0173
63.6193
73.4817
83.1014
92.0142
99.8314
106.263
111.125
114.335
115.893
115.859
114.319
111.364
107.066
101.465
94.5735
86.3821
76.8812
66.0843
54.0547
40.9272
26.9225
12.35
-2.40192
-16.8893
-30.6461
-43.2246
-54.2377
-63.3969
-70.5422
-75.6575
-78.8723
-80.446
-80.74
-80.1783
-79.2027
-78.2284
-77.6034
-77.579
-78.2913
-79.7573
-81.8837
-84.4875
-87.3228
-90.1129
-92.5809
-94.4766
-95.5979
-95.8027
-95.0144
-93.2184
-90.4545
-86.8046
-82.3805
-77.3111
-71.7323
-65.78
-59.5846
-53.2691
-46.9479
-40.7269
-34.7033
-28.9656
-23.5926
-18.6515
-14.1956
-10.2609
-6.86155
-3.98602
-1.593
0.390883
2.07093
3.58043
5.07231
6.70614
8.6312
10.967
13.784
17.0864
20.802
24.7793
28.7949
32.5716
35.8052
38.1971
39.4901
39.5012
38.1482
35.4665
31.6132
26.8588
21.566
16.1603
11.0934
6.80511
3.68594
2.04499
2.08485
3.88584
7.40061
12.4592
18.7838
26.0125
33.7289
41.4957
48.8896
55.5332
61.1228
65.4468
68.3954
69.9587
70.2141
69.3047
67.4111
64.7208
61.3994
57.5667
53.2818
48.5399
43.2787
37.3969
30.7788
23.3231
14.9714
5.73142
-4.30634
-14.9625
-25.9729
-37.0032
-47.6718
-57.5792
-66.3407
-73.6182
-79.1494
-82.7704
-84.4296
-84.1926
-82.2366
-78.8349
-74.3327
-69.1159
-63.5746
-58.0646
-52.8663
-48.146
-43.917
-40.005
-36.0175
-31.3234
-25.0499
-16.1065
-3.24997
14.7999
39.1878
70.6998
109.511
154.942
205.275
257.677
308.288
352.487
385.33
402.131
399.091
373.909
326.247
257.982
173.191
77.8309
-20.8326
-114.994
-197.167
-261.029
-302.12
-318.326
-310.07
-280.197
-233.577
-176.476
-115.798
-58.2821
-9.76236
25.4165
44.7765
47.8365
35.999
12.2246
-19.4495
-54.4779
-88.3841
-117.278
-138.255
-149.638
-151.052
-143.331
-128.292
-108.408
-86.4453
-65.0891
-46.6303
-32.7275
-24.2735
-21.3702
-23.4024
-29.1929
-37.2089
-45.7906
-53.3708
-58.66
-60.7783
-59.3242
-54.3775
-46.445
-36.3596
-25.1502
-13.9017
-3.62146
4.87178
11.0264
14.5975
15.6475
14.5112
11.733
7.98688
3.98984
0.419236
-2.15607
-3.32492
-2.85988
-0.719816
2.96819
7.94281
13.8524
20.3024
26.9008
33.2963
39.2065
44.434
48.871
52.4928
55.3434
57.5149
59.1254
60.2965
61.135
61.7182
62.086
62.2382
62.1369
61.7135
60.8785
59.5333
57.5831
54.9504
51.5889
47.4955
42.7226
37.387
31.6761
25.8489
20.2304
15.1983
11.1596
8.51969
7.64267
8.80799
12.1667
17.7033
25.2086
34.27
44.2828
54.4864
64.0223
72.0122
77.6469
80.2751
79.4827
75.1489
67.4724
56.9608
44.3858
30.7059
16.9677
4.19747
-6.70455
-15.0535
-20.4427
-22.7733
-22.2487
-19.3346
-14.6931
-9.09831
-3.34524
1.83641
5.85444
8.30405
8.99141
7.93005
5.31286
1.46531
-3.21234
-8.30546
-13.4399
-18.3242
-22.7756
-26.726
-30.2114
-33.346
-36.2868
-39.1951
-42.2006
-45.3732
-48.7057
-52.111
-55.4312
-58.4582
-60.962
-62.7219
-63.5558
-63.3444
-62.0445
-59.6923
-56.3945
-52.3091
-47.62
-42.5084
-37.1256
-31.5709
-25.8769
-20.0059
-13.8552
-7.27276
-0.0807503
7.89486
16.7923
26.6824
37.5403
49.2241
61.4623
73.8522
85.8706
96.8964
106.246
113.22
117.152
117.472
113.753
105.768
93.5204
77.2704
57.5335
35.0641
10.8165
-14.1112
-38.5467
-61.3214
-81.3496
-97.7037
-109.676
-116.827
-119.01
-116.374
-109.344
-98.5841
-84.9354
-69.3514
-52.8225
-36.3036
-20.65
-6.56617
5.42913
15.0181
22.0831
26.6923
29.0784
29.6182
28.8176
27.3095
25.8613
25.3888
26.9651
31.806
41.2163
56.4792
78.6839
108.497
145.905
189.973
238.669
288.82
336.238
376.04
403.143
412.881
401.668
367.595
310.858
233.949
141.554
40.1505
-62.6398
-158.866
-241.128
-303.393
-341.654
-354.337
-342.413
-309.203
-259.928
-201.038
-139.451
-81.7637
-33.5641
1.10523
20.0579
23.0389
11.5692
-11.4017
-41.9767
-75.8562
-108.876
-137.471
-159.022
-172.05
-176.245
-172.362
-161.986
-147.233
-130.408
-113.692
-98.876
-87.1771
-79.1528
-74.7126
-73.213
-73.6174
-74.6899
-75.1969
-74.0874
-70.6303
-64.4964
-55.7783
-44.9515
-32.7875
-20.2334
-8.27669
2.18747
10.4684
16.1598
19.1793
19.7642
18.4269
15.8786
12.9312
10.3921
8.96496
9.16894
11.2847
15.3331
21.0867
28.1104
35.8243
43.5788
50.7329
56.7241
61.1237
63.6706
64.283
63.0475
60.191
56.0383
50.9656
45.3526
39.5412
33.8049
28.3301
23.2113
18.4581
14.0122
9.7706
5.6112
1.41712
-2.90313
-7.4022
-12.0881
-16.926
-21.846
-26.7552
-31.5519
-36.1372
-40.4253
-44.3471
-47.8506
-50.8953
-53.4447
-55.4577
-56.8814
-57.6476
-57.6744
-56.8738
-55.1638
-52.485
-48.8176
-44.1979
-38.7285
-32.5822
-25.9972
-19.2627
-12.6968
-6.61904
-1.32074
2.96322
6.07726
7.95982
8.64797
8.27144
7.03675
5.20368
3.05694
0.876497
-1.08982
-2.64853
-3.67518
-4.12037
-4.00693
-3.41937
-2.48737
-1.36573
-0.213457
0.825398
1.63725
2.14915
2.33308
2.20431
1.81484
1.243
0.581072
-0.077528
-0.649757
-1.07203
-1.306
-1.34061
-1.19078
-0.892911
-0.498445
-0.0660956
0.345953
0.687092
0.919759
1.02287
0.992928
0.842997
0.599666
0.298724
-0.0199534
-0.317553
-0.560874
-0.725702
-0.798542
-0.776427
-0.664711
-0.473121
-0.21065
0.119752
0.525574
1.02713
1.65718
2.45745
3.47242
4.74106
6.28778
8.11376
10.1899
12.4526
14.8028
17.109
19.2148
20.9489
22.1395
22.6284
22.2877
21.0335
18.8384
15.7399
11.8446
7.32659
2.4208
-2.58982
-7.39173
-11.6625
-15.0951
-17.4225
-18.4409
-18.0286
-16.159
-12.905
-8.43539
-3.0008
3.08707
9.48341
15.8421
21.849
27.2552
31.9088
35.7846
39.0128
41.9047
44.9766
48.9637
54.8206
63.6932
76.853
95.5799
120.991
153.819
194.171
241.289
293.384
347.578
400.004
446.089
481.001
500.218
500.149
478.702
435.714
373.155
295.072
207.246
116.617
30.5347
-44.05
-101.361
-137.426
-150.488
-141.148
-112.227
-68.3814
-15.5269
39.8598
91.4585
133.768
162.633
175.592
172.006
152.984
121.115
80.0604
34.0615
-12.5716
-55.9358
-92.9163
-121.442
-140.596
-150.577
-152.543
-148.345
-140.223
-130.473
-121.159
-113.876
-109.605
-108.664
-110.751
-115.06
-120.46
-125.696
-129.584
-131.182
-129.912
-125.615
-118.549
-109.332
-98.834
-88.0475
-77.9506
-69.3809
-62.9355
-58.9089
-57.2721
-57.6933
-59.5933
-62.2296
-64.7935
-66.5116
-66.7368
-65.0205
-61.1579
-55.2022
-47.448
-38.3884
-28.6506
-18.9204
-9.86348
-2.05468
4.07923
8.29603
10.552
10.9928
9.9249
7.77148
5.01919
2.16261
-0.347834
-2.14918
-2.99676
-2.78049
-1.52619
0.616817
3.3996
6.50571
9.58778
12.3047
14.3562
15.5109
15.627
14.6632
12.6793
9.82812
6.33906
2.49514
-1.39355
-5.01794
-8.09686
-10.4003
-11.767
-12.1153
-11.4455
-9.83534
-7.42789
-4.41479
-1.0158
2.54232
6.0458
9.31052
12.1942
14.603
16.4929
17.8656
18.7614
19.2482
19.4105
19.3382
19.117
18.8214
18.5098
18.2226
17.9832
17.7995
17.6674
17.5739
17.4995
17.4207
17.3104
17.1385
16.872
16.4748
15.9084
15.1342
14.1155
12.8211
11.2292
9.33102
7.13344
4.66093
1.95545
-0.925293
-3.9113
-6.92513
-9.88779
-12.7249
-15.3727
-17.7826
-19.9246
-21.7879
-23.3788
-24.7163
-25.8248
-26.7259
-27.4297
-27.9271
-28.1853
-28.1461
-27.7288
-26.8373
-25.37
-23.2314
-20.3447
-16.6626
-12.176
-6.91912
-0.971462
5.54409
12.4664
19.6036
26.7432
33.6627
40.1407
45.9679
50.9564
54.9477
57.8182
59.4828
59.8964
59.0541
56.9887
53.7683
49.4919
44.2846
38.2914
31.6718
24.5938
17.2279
9.74256
2.30005
-4.94701
-11.858
-18.3061
-24.1802
-29.3859
-33.8476
-37.5094
-40.3376
-42.3216
-43.4756
-43.8389
-43.4748
-42.4681
-40.9186
-38.9306
-36.5963
-33.9713
-31.0427
-27.6901
-23.6426
-18.4399
-11.4084
-1.66551
11.8316
30.1808
54.3705
85.0628
122.352
165.534
212.946
261.91
308.844
349.527
379.53
394.744
391.947
369.319
326.808
266.306
191.565
107.879
21.5523
-60.766
-132.8
-189.319
-226.683
-243.183
-239.16
-216.876
-180.179
-134.004
-83.7938
-34.8884
8.01502
41.2953
62.6831
71.3644
67.9162
54.0966
32.5306
6.3357
-21.2616
-47.2751
-69.2377
-85.3873
-94.7515
-97.1332
-93.0164
-83.4114
-69.6683
-53.2855
-35.7346
-18.3215
-2.09058
12.2221
24.1928
33.6781
40.759
45.6732
48.7476
50.3392
50.7923
50.4135
49.4652
48.1745
46.7509
45.4071
44.376
43.9183
44.3171
45.8593
48.8049
53.3513
59.5952
67.5026
76.8902
87.4228
98.6302
109.941
120.731
130.38
138.33
144.138
147.518
148.358
146.725
142.847
137.075
129.833
121.571
112.708
103.589
94.4633
85.47
76.6449
67.9421
59.2632
50.4886
41.5065
32.2347
22.6336
12.7109
2.52003
-7.84537
-18.2573
-28.5582
-38.5641
-48.065
-56.8257
-64.5883
-71.0793
-76.0212
-79.1516
-80.2466
-79.1465
-75.781
-70.1892
-62.531
-53.0882
-42.2522
-30.5011
-18.3665
-6.39387
4.89809
15.0565
23.7258
30.6689
35.7761
39.0613
40.6469
40.7394
39.6
37.5136
34.76
31.5912
28.2147
24.7857
21.4065
18.1321
14.9792
11.9375
8.98085
6.07558
3.18664
0.280272
-2.67593
-5.71455
-8.87022
-12.1806
-15.6856
-19.4238
-23.4271
-27.7133
-32.2778
-37.0863
-42.069
-47.1186
-52.0912
-56.8131
-61.0905
-64.7227
-67.5178
-69.3081
-69.9642
-69.4061
-67.6109
-64.6144
-60.5097
-55.4408
-49.5929
-43.1816
-36.4396
-29.6052
-22.9099
-16.5686
-10.7708
-5.67388
-1.3979
1.97778
4.41628
5.92349
6.54674
6.37208
5.51999
4.13963
2.40171
0.489973
-1.4083
-3.11246
-4.45875
-5.30996
-5.56363
-5.15824
-4.07642
-2.34509
-0.0321111
2.76024
5.90447
9.25918
12.6814
16.0391
19.2229
22.1559
24.8005
27.1617
29.2864
31.2567
33.18
35.1732
37.3451
39.7767
42.5027
45.496
48.6574
51.8129
54.7195
57.0804
58.5686
58.8573
57.6551
54.7421
50.0033
43.4572
35.2769
25.8036
15.554
5.22079
-4.33125
-12.0761
-16.849
-17.3892
-12.4129
-0.727065
18.6105
46.091
81.5344
123.883
171.058
219.929
266.435
305.881
333.402
344.531
335.824
305.421
253.458
182.257
96.2301
1.5089
-94.6737
-184.765
-261.737
-319.876
-355.415
-366.921
-355.393
-324.061
-277.922
-223.086
-166.011
-112.748
-68.2756
-36.0167
-17.5737
-12.7127
-19.5746
-35.0698
-55.3908
-76.5675
-94.9903
-107.835
-113.344
-110.944
-101.192
-85.5814
-66.2462
-45.6034
-25.996
-9.37869
2.91722
10.3135
13.0034
11.8645
8.28588
3.93959
0.529374
-0.447822
2.10213
8.73998
19.4405
33.6203
50.2367
67.9419
85.2689
100.823
113.454
122.389
127.311
128.369
126.138
121.517
115.599
109.517
104.302
100.753
99.3541
100.223
103.12
107.495
112.571
117.448
121.222
123.091
122.442
118.918
112.441
103.206
91.6429
78.3502
64.0192
49.3491
34.9718
21.391
8.94447
-2.20795
-12.0715
-20.7821
-28.5563
-35.634
-42.2213
-48.4414
-54.3
-59.6681
-64.2859
-67.7847
-69.727
-69.6573
-67.161
-61.9217
-53.7726
-42.735
-29.0388
-13.124
4.38002
22.6925
40.9361
58.2008
73.6122
86.3971
95.9407
101.83
103.88
102.144
96.899
88.6234
77.9529
65.6305
52.449
39.1928
26.5815
15.2207
5.56305
-2.11743
-7.73568
-11.3897
-13.339
-13.9687
-13.7444
-13.1599
-12.6852
-12.7191
-13.551
-15.3359
-18.0844
-21.6678
-25.8381
-30.2586
-34.5432
-38.2987
-41.1662
-42.8576
-43.1831
-42.0685
-39.5599
-35.816
-31.091
-25.7071
-20.0233
-14.4006
-9.17017
-4.6046
-0.897585
1.84808
3.62274
4.50278
4.63546
4.21772
3.4715
2.61841
1.85648
1.34142
1.17413
1.39547
1.98836
2.88649
3.98806
5.17264
6.31872
7.3198
8.097
8.60667
8.8423
8.83071
8.6232
8.28301
7.87096
7.43111
6.97848
6.49046
5.90287
5.11146
3.97842
2.34344
0.0380063
-3.0983
-7.20098
-12.3647
-18.6293
-25.97
-34.291
-43.4255
-53.1413
-63.1523
-73.1354
-82.7505
-91.6634
-99.5669
-106.199
-111.357
-114.905
-116.769
-116.941
-115.458
-112.396
-107.855
-101.945
-94.7798
-86.4728
-77.134
-66.8731
-55.8036
-44.045
-31.7228
-18.9613
-5.86918
7.48617
21.1127
35.1354
49.8383
65.6976
83.3909
103.768
127.769
156.277
189.916
228.809
272.325
318.887
365.869
409.657
445.882
469.838
477.043
463.864
428.122
369.573
290.174
194.073
87.3105
-22.7478
-128.176
-221.351
-295.793
-346.879
-372.329
-372.398
-349.772
-309.162
-256.691
-199.122
-143.062
-94.2297
-56.8672
-33.3791
-24.2123
-27.983
-41.8171
-61.8434
-83.7693
-103.46
-117.446
-123.313
-119.916
-107.424
-87.1998
-61.5344
-33.2931
-5.51847
18.9551
37.8294
49.5786
53.5704
50.0716
40.1445
25.4584
8.04783
-9.9513
-26.5507
-40.1179
-49.5228
-54.2097
-54.1973
-50.011
-42.5653
-33.0138
-22.588
-12.445
-3.53839
3.47392
8.28068
10.9249
11.7723
11.447
10.7457
10.5393
11.6755
14.8904
20.7398
29.5541
41.4219
56.1992
73.5435
92.9637
113.88
135.683
157.788
179.672
200.898
221.12
240.072
257.549
273.383
287.419
299.495
309.435
317.05
322.15
324.563
324.16
320.875
314.729
305.835
294.4
280.715
265.135
248.056
229.89
211.036
191.867
172.712
153.851
135.521
117.914
101.187
85.4692
70.8598
57.4321
45.2272
34.249
24.459
15.775
8.07367
1.19983
-5.019
-10.754
-16.1549
-21.3309
-26.3365
-31.1635
-35.7411
-39.9444
-43.6097
-46.5547
-48.6008
-49.5947
-49.4255
-48.0365
-45.4288
-41.6581
-36.8263
-31.0688
-24.5411
-17.4078
-9.83504
-1.98768
5.96909
13.8651
21.5198
28.7395
35.3176
41.0419
45.706
49.1269
51.1636
51.7364
50.8405
48.5557
45.0447
40.5451
35.3501
29.7845
24.1747
18.8188
13.9587
9.75805
6.28874
3.52773
1.36452
-0.381318
-1.93451
-3.53339
-5.39769
-7.69858
-10.5345
-13.9152
-17.7569
-21.8875
-26.0624
-29.9886
-33.3541
-35.8589
-37.2442
-37.317
-35.9676
-33.1781
-29.0236
-23.6641
-17.3322
-10.3158
-2.93993
4.45155
11.5119
17.906
23.3218
27.4818
30.1521
31.1523
30.3648
27.7433
23.3196
17.2081
9.60617
0.790689
-8.89067
-19.0326
-29.1897
-38.8986
-47.7024
-55.1777
-60.962
-64.7796
-66.464
-65.9745
-63.4049
-58.9818
-53.0538
-46.0681
-38.5404
-31.0157
-24.0269
-18.0522
-13.4753
-10.5511
-9.37778
-9.87556
-11.7714
-14.5881
-17.6386
-20.027
-20.6627
-18.2971
-11.5953
0.746299
19.8305
46.3436
80.3143
120.885
166.146
213.083
257.694
295.273
320.883
329.945
318.876
285.687
230.422
155.369
64.9955
-34.4216
-135.41
-230.096
-311.079
-372.249
-409.459
-420.956
-407.515
-372.275
-320.302
-257.947
-192.09
-129.363
-75.4579
-34.5828
-9.13187
0.414025
-4.63727
-21.505
-46.3876
-74.9861
-103.03
-126.747
-143.221
-150.62
-148.265
-136.567
-116.841
-91.0401
-61.4466
-30.366
0.142058
28.4661
53.5619
74.9842
92.8367
107.658
120.265
131.579
142.462
153.579
165.304
177.679
190.423
202.994
214.672
224.673
232.266
236.868
238.128
235.968
230.595
222.47
212.255
200.734
188.727
177
166.195
156.77
148.967
142.81
138.122
134.563
131.682
128.983
125.975
122.23
117.419
111.337
103.913
95.2046
85.3764
74.6757
63.3977
51.851
40.325
29.062
18.2386
7.95615
-1.75875
-10.944
-19.685
-28.0936
-36.2868
-44.3685
-52.4178
-60.4848
-68.5953
-76.7605
-84.9908
-93.3084
-101.755
-110.394
-119.297
-128.533
-138.133
-148.07
-158.225
-168.367
-178.146
-187.096
-194.661
-200.24
-203.24
-203.142
-199.561
-192.307
-181.425
-167.207
-150.19
-131.12
-110.896
-90.4923
-70.8822
-52.9486
-37.4131
-24.7785
-15.2949
-8.9517
-5.49551
-4.47152
-5.28214
-7.25642
-9.72194
-12.0713
-13.8165
-14.6258
-14.3407
-12.972
-10.6783
-7.72924
-4.46001
-1.22334
1.65609
3.91919
5.39864
6.03233
5.86442
5.03634
3.7711
2.35459
1.11705
0.41675
0.626731
2.12406
5.28029
10.4514
17.9661
28.1108
41.1129
57.1222
76.192
98.2636
123.155
150.558
180.041
211.067
243.013
275.204
306.947
337.564
366.427
392.978
416.742
437.333
454.447
467.841
477.323
482.727
483.909
480.74
473.126
461.028
444.505
423.745
399.113
371.167
340.666
308.547
275.88
243.789
213.362
185.551
161.071
140.326
123.354
109.815
99.0226
90.0132
81.6508
72.755
62.2379
49.233
33.2029
14.0112
-8.0486
-32.2723
-57.6105
-82.773
-106.36
-127.003
-143.5
-154.923
-160.685
-160.554
-154.619
-143.199
-126.733
-105.658
-80.3148
-50.9001
-17.5043
19.7754
60.6474
104.4
149.691
194.4
235.625
269.828
293.165
301.953
293.223
265.264
218.061
153.55
75.6192
-10.1627
-97.0649
-177.902
-245.833
-295.15
-321.937
-324.519
-303.643
-262.355
-205.613
-139.682
-71.3921
-7.36338
46.708
86.6181
110.016
116.524
107.621
86.3196
56.6855
23.2774
-9.42479
-37.5301
-58.1312
-69.5438
-71.3775
-64.4443
-50.5316
-32.0799
-11.8138
7.62373
23.9896
35.6776
41.8528
42.4779
38.2403
30.3984
20.5765
10.5375
1.96514
-3.72043
-5.4952
-2.80322
4.43234
15.8517
30.7421
48.1463
66.9809
86.148
104.631
121.564
136.278
148.314
157.421
163.529
166.717
167.172
165.15
160.943
154.848
147.147
138.096
127.919
116.815
104.96
92.521
79.66
66.5368
53.3055
40.1039
27.0394
14.1737
1.51132
-11.0042
-23.4837
-36.0746
-48.9326
-62.1882
-75.9107
-90.0793
-104.563
-119.115
-133.387
-146.952
-159.351
-170.13
-178.899
-185.364
-189.367
-190.894
-190.079
-187.181
-182.558
-176.617
-169.775
-162.411
-154.833
-147.248
-139.755
-132.344
-124.916
-117.303
-109.309
-100.741
-91.4483
-81.3482
-70.4502
-58.864
-46.7978
-34.5442
-22.4558
-10.9152
-0.300235
9.04902
16.8592
22.9452
27.2218
29.7052
30.5044
29.8041
27.8411
24.8782
21.1779
16.9791
12.4801
7.82831
3.11858
-1.60052
-6.3142
-11.0244
-15.7313
-20.4152
-25.0233
-29.461
-33.5916
-37.2425
-40.2191
-42.3238
-43.3788
-43.249
-41.863
-39.2285
-35.4404
-30.6804
-25.2059
-19.3313
-13.4019
-7.76365
-2.73235
1.43458
4.56009
6.56102
7.45188
7.3385
6.4032
4.88416
3.05291
1.19433
-0.406824
-1.47049
-1.71673
-0.854618
1.43059
5.48551
11.6856
20.4162
32.0359
46.8252
64.9265
86.2849
110.603
137.318
165.613
194.457
222.689
249.116
272.632
292.334
307.622
318.262
324.42
326.634
325.76
322.859
319.072
315.478
312.951
312.045
312.918
315.292
318.476
321.435
322.911
321.57
316.166
305.703
289.569
267.634
240.284
208.41
173.331
136.672
100.216
65.7396
34.86
8.91319
-11.127
-24.6798
-31.5416
-31.8378
-25.9598
-14.5118
1.71487
21.7295
44.2967
67.8784
90.592
110.225
124.329
130.42
126.256
110.183
81.4735
40.6067
-10.5792
-68.9059
-130.067
-189.02
-240.515
-279.696
-302.68
-307.047
-292.162
-259.275
-211.407
-153.005
-89.4397
-26.3973
30.7518
77.5306
110.809
129.084
132.563
123.042
103.62
78.2718
51.3489
27.0645
9.02041
-0.173712
0.848378
12.1081
32.3351
59.161
89.4284
119.575
146.049
165.708
176.16
176.003
164.956
143.846
114.489
79.4514
41.7501
4.5112
-29.3626
-57.4827
-78.1905
-90.6798
-95.0168
-92.0611
-83.3051
-70.6549
-56.1825
-41.8802
-29.4455
-20.1191
-14.5903
-12.975
-14.8626
-19.4191
-25.53
-31.9605
-37.5141
-41.17
-42.1859
-40.1584
-35.0387
-27.107
-16.9126
-5.19253
7.2216
19.4944
30.8656
40.7087
48.5656
54.1557
57.3642
58.2129
56.8227
53.3748
48.0764
41.1369
32.7563
23.1255
12.4345
0.886907
-11.287
-23.8216
-36.4157
-48.7413
-60.4623
-71.2594
-80.8568
-89.0483
-95.7156
-100.838
-104.49
-106.826
-108.056
-108.414
-108.125
-107.372
-106.267
-104.84
-103.036
-100.721
-97.7095
-93.794
-88.7829
-82.5372
-75.0015
-66.2244
-56.3658
-45.6884
-34.5351
-23.2945
-12.3581
-2.07634
7.28301
15.5668
22.7554
28.9656
34.4359
39.4968
44.5284
49.9106
55.9724
62.9456
70.9288
79.865
89.5369
99.5776
109.498
118.724
126.644
132.66
136.233
136.932
134.465
128.708
119.721
107.746
93.194
76.6249
58.7075
40.1759
21.7787
4.2272
-11.8544
-25.9704
-37.7844
-47.1361
-54.042
-58.6819
-61.3707
-62.521
-62.5988
-62.0776
-61.396
-60.9217
-60.9268
-61.5735
-62.9132
-64.8968
-67.3935
-70.216
-73.1477
-75.9691
-78.4787
-80.5084
-81.9299
-82.6539
-82.6227
-81.7984
-80.1494
-77.6385
-74.2149
-69.8123
-64.3553
-57.7719
-50.0139
-41.0785
-31.031
-20.0204
-8.28467
3.85729
16.0309
27.8454
38.9446
49.0617
58.0683
66.0088
73.1115
79.7707
86.5001
93.8625
102.384
112.466
124.309
137.858
152.782
168.491
184.184
198.927
211.76
221.802
228.358
231.01
229.689
224.713
216.8
207.047
196.883
187.997
182.236
181.482
187.497
201.745
225.185
258.055
299.671
348.266
400.931
453.68
501.683
539.668
562.467
565.647
546.148
502.823
436.792
351.53
252.657
147.438
44.0339
-49.3852
-125.568
-179.016
-206.611
-207.96
-185.4
-143.681
-89.3577
-29.9849
26.7844
74.0746
106.533
120.855
116.043
93.365
56.0555
8.79674
-42.934
-93.5645
-138.084
-172.581
-194.603
-203.314
-199.44
-185.038
-163.116
-137.187
-110.791
-87.0699
-68.4227
-56.2906
-51.0755
-52.1933
-58.2419
-67.2521
-76.9836
-85.2269
-90.0743
-90.1323
-84.6558
-73.5947
-57.5574
-37.7005
-15.5643
7.12292
28.6477
47.4972
62.509
72.9699
78.6581
79.8266
77.1352
71.5437
64.1802
56.2024
48.6671
42.4231
38.0359
35.7511
35.4959
36.9167
39.444
42.3751
44.9649
46.5112
46.4274
44.2935
39.883
33.1649
24.2842
13.5268
1.27549
-12.0351
-25.9602
-40.0771
-54.008
-67.4311
-80.0838
-91.758
-102.292
-111.56
-119.466
-125.928
-130.882
-134.269
-136.035
-136.129
-134.504
-131.119
-125.948
-118.985
-110.253
-99.8046
-87.7165
-74.0645
-58.89
-42.1557
-23.699
-3.19232
19.8766
46.1987
76.6035
111.985
153.199
200.935
255.592
317.145
385.058
458.219
534.939
612.997
689.753
762.303
827.67
883.022
925.884
954.334
967.166
963.993
945.298
912.414
867.436
813.08
752.479
688.955
625.764
565.845
511.602
464.719
426.052
395.591
372.515
355.315
341.998
330.331
318.105
303.398
284.785
261.496
233.482
201.398
166.503
130.481
95.2348
62.6457
34.3598
11.6073
-4.91731
-15.1058
-19.4163
-18.7908
-14.5256
-8.11211
-1.07121
5.20168
9.56295
11.2079
9.71198
5.02667
-2.56669
-12.5351
-24.1929
-36.8087
-49.7059
-62.3466
-74.3868
-85.7007
-96.3696
-106.64
-116.86
-127.397
-138.562
-150.535
-163.322
-176.728
-190.371
-203.714
-216.123
-226.947
-235.583
-241.557
-244.569
-244.531
-241.571
-236.017
-228.355
-219.173
-209.097
-198.72
-188.548
-178.951
-170.14
-162.153
-154.872
-148.045
-141.323
-134.305
-126.575
-117.747
-107.498
-95.5921
-81.9018
-66.4155
-49.2368
-30.5723
-10.7063
10.0378
31.3473
52.9776
74.8075
96.8798
119.414
142.774
167.381
193.576
221.432
250.553
279.898
307.672
331.325
347.705
353.358
344.944
319.751
276.188
214.209
135.574
43.8891
-55.5914
-156.396
-251.451
-333.795
-397.318
-437.404
-451.423
-438.983
-401.941
-344.155
-271.032
-188.919
-104.422
-23.739
47.924
106.79
150.755
179.433
194.002
196.899
191.398
181.137
169.66
160.01
154.432
154.198
159.573
169.893
183.761
199.294
214.414
227.126
235.757
239.131
236.669
228.405
214.925
197.252
176.686
154.633
132.433
111.224
91.833
74.7334
60.0374
47.5443
36.8207
27.3037
18.4097
9.63388
0.628017
-8.75135
-18.4283
-28.1249
-37.4047
-45.7343
-52.5537
-57.3456
-59.6951
-59.3352
-56.1728
-50.2962
-41.9638
-31.579
-19.6546
-6.77214
6.45833
19.4358
31.599
42.4495
51.5672
58.6204
63.3693
65.6688
65.4676
62.8087
57.8273
50.7477
41.8775
31.5965
20.3414
8.58475
-3.19015
-14.5174
-24.9767
-34.219
-41.9873
-48.1304
-52.6074
-55.4832
-56.9162
-57.1385
-56.4324
-55.1057
-53.4681
-51.8115
-50.3953
-49.437
-49.1076
-49.5304
-50.7814
-52.8886
-55.83
-59.5256
-63.8248
-68.4851
-73.1423
-77.2717
-80.1378
-80.7341
-77.7132
-69.3142
-53.3002
-26.931
12.9961
69.9936
147.583
248.823
375.69
528.359
704.506
898.776
1102.56
1304.21
1489.79
1644.25
1753.02
1803.77
1788.06
1702.7
1550.54
1340.54
1087.1
808.735
526.139
260.058
29.0885
-152.237
-274.853
-335.905
-338.749
-292.249
-209.478
-106.021
1.90452
99.2624
173.746
216.887
224.638
197.388
139.47
58.2606
-36.9891
-136.423
-230.785
-312.429
-376.027
-418.92
-441.109
-444.934
-434.492
-414.92
-391.626
-369.58
-352.74
-343.672
-343.39
-351.411
-365.99
-384.497
-403.855
-420.993
-433.248
-438.668
-436.2
-425.732
-408.025
-384.531
-357.145
-327.92
-298.787
-271.321
-246.565
-224.937
-206.229
-189.69
-174.165
-158.292
-140.7
-120.209
-95.9845
-67.6416
-35.283
0.528616
38.8567
78.5198
118.242
156.804
193.173
226.598
256.653
283.238
306.533
326.916
344.869
360.888
375.405
388.746
401.13
412.7
423.582
433.955
444.101
454.423
465.421
477.597
491.327
506.694
523.325
540.262
555.907
568.053
574.042
571.015
556.257
527.58
483.696
424.522
351.361
266.926
175.177
81.0056
-10.2353
-93.2643
-163.424
-217.174
-252.454
-268.889
-267.788
-251.954
-225.33
-192.517
-158.236
-126.802
-101.669
-85.091
-77.9601
-79.803
-88.9489
-102.829
-118.364
-118.364
-118.364
-118.364
-118.364
-118.364
-118.364
-118.364
-118.364
-118.364
-118.364
-118.364
-118.364
-118.364
-118.364
-118.364
-118.364
-118.364
-118.364
