-59.0395
-26.7106
4.0675
32.0301
56.2493
76.2755
92.2256
104.804
115.251
125.213
136.555
151.131
170.535
195.872
227.579
265.313
307.928
353.531
399.61
443.2
481.074
509.915
526.46
527.609
510.497
472.541
411.483
325.449
213.019
73.3331
-93.7821
-287.682
-506.778
-748.437
-1008.93
-1283.43
-1566.12
-1850.29
-2128.68
-2393.72
-2637.98
-2854.61
-3037.8
-3183.25
-3288.49
-3353.14
-3378.93
-3369.51
-3330.04
-3266.6
-3185.46
-3092.33
-2991.73
-2886.48
-2777.55
-2664.18
-2544.28
-2415.04
-2273.69
-2118.18
-1947.74
-1763.2
-1566.98
-1362.86
-1155.5
-949.808
-750.347
-560.856
-383.957
-221.141
-72.9944
60.384
178.873
281.855
367.883
434.582
478.835
497.232
486.745
445.527
373.71
274.069
152.43
17.7252
-118.356
-242.101
-338.847
-394.251
-395.644
-333.301
-201.478
0.883381
269.883
596.837
968.883
1369.96
1782.05
2186.53
2565.58
2903.39
3187.25
3408.29
3561.89
3647.82
3670
3636.02
3556.42
3443.79
3311.8
3174.14
3043.55
2930.85
2844.2
2788.52
2765.19
2771.96
2803.2
2850.42
2903.01
2949.16
2976.92
2975.26
2935.06
2849.99
2717.04
2536.86
2313.72
2055.14
1771.23
1473.82
1175.46
888.37
623.506
389.803
193.647
38.6266
-74.4559
-147.345
-183.925
-189.7
-171.229
-135.57
-89.773
-40.4504
6.5475
46.3616
75.2613
90.7086
91.3663
77.0664
48.7425
8.32563
-41.4057
-97.0286
-154.735
-210.639
-261.104
-303.071
-334.328
-353.705
-361.14
-357.63
-345.041
-325.831
-302.695
-278.217
-254.537
-233.126
-214.658
-199.027
-185.475
-172.835
-159.821
-145.342
-128.78
-110.193
-90.4193
-71.0604
-54.3589
-42.9795
-39.7304
-47.2611
-67.776
-102.799
-153.013
-218.193
-297.227
-388.221
-488.654
-595.57
-705.761
-815.93
-922.799
-1023.17
-1113.93
-1192.04
-1254.51
-1298.39
-1320.84
-1319.21
-1291.28
-1235.44
-1151.06
-1038.65
-900.184
-739.151
-560.559
-370.755
-177.088
12.5668
190.369
349.115
482.81
587.132
659.759
700.506
711.273
695.82
659.403
608.325
549.453
489.764
435.941
394.054
369.317
365.927
386.936
434.168
508.133
607.947
731.258
874.191
1031.35
1195.9
1359.74
1513.86
1648.78
1755.15
1824.4
1849.48
1825.49
1750.24
1624.61
1452.63
1241.36
1000.37
741.042
475.618
216.177
-26.4306
-243.522
-429.304
-581.299
-700.415
-790.655
-858.497
-912.024
-959.902
-1010.33
-1070.06
-1143.69
-1233.14
-1337.5
-1453.24
-1574.65
-1694.55
-1805.14
-1898.84
-1969.13
-2011.19
-2022.38
-2002.45
-1953.44
-1879.49
-1786.28
-1680.42
-1568.79
-1457.83
-1352.93
-1257.98
-1175.04
-1104.3
-1044.18
-991.647
-942.716
-892.996
-838.304
-775.233
-701.628
-616.893
-522.118
-419.985
-314.49
-210.497
-113.185
-27.4687
42.5557
94.0543
125.75
138.029
132.856
113.518
84.2246
49.6341
14.3503
-17.5398
-42.8397
-59.4902
-66.6702
-64.75
-55.1151
-39.8921
-21.6153
-2.88093
13.974
27.1309
35.4658
38.6293
37.0312
31.7399
24.3142
16.5925
10.4637
7.64684
9.5019
16.8903
30.097
48.82
72.2231
99.0452
127.749
156.69
184.291
209.191
230.364
247.191
259.478
267.424
271.545
272.575
271.342
268.66
265.228
261.567
257.989
254.608
251.376
248.149
244.762
241.097
237.144
233.032
229.037
225.546
223.015
221.881
222.485
224.984
229.28
234.972
241.34
247.368
251.807
253.265
250.338
241.738
226.427
203.74
173.462
135.875
91.7537
42.3124
-10.886
-66.0518
-121.306
-174.817
-224.927
-270.249
-309.738
-342.722
-368.897
-388.293
-401.199
-408.076
-409.442
-405.756
-397.306
-384.117
-365.9
-342.061
-311.781
-274.166
-228.473
-174.374
-112.23
-43.3279
29.976
104.246
175.124
237.657
286.784
317.917
327.56
313.865
277.053
219.602
146.175
63.271
-21.3858
-99.6303
-163.735
-207.261
-225.78
-217.37
-182.812
-125.491
-50.9886
33.5651
120.289
201.409
270.072
321.009
350.996
359.054
346.391
316.104
272.697
221.481
167.935
117.108
73.1213
38.8288
15.6517
3.59664
1.43397
7.00144
17.5837
30.3149
42.5539
52.1886
57.8388
58.9444
55.7372
49.1151
40.4413
31.3055
23.2789
17.6949
15.4818
17.0606
22.3157
30.6343
41.0042
52.1539
62.7146
71.3863
77.0866
79.0678
76.9906
70.9476
61.4381
49.2978
35.5943
21.5028
8.17558
-3.37804
-12.389
-18.393
-21.2574
-21.169
-18.5876
-14.1731
-8.69568
-2.9424
2.3708
6.67015
9.57248
10.9069
10.7099
9.19715
6.71681
3.69295
0.56565
-2.26401
-4.47832
-5.87229
-6.36603
-6.0005
-4.91892
-3.33766
-1.5112
0.303657
1.88004
3.046
3.69994
3.81562
3.43724
2.66618
1.64215
0.521496
-0.544224
-1.42672
-2.03458
-2.32077
-2.28378
-1.96292
-1.42899
-0.772015
-0.0878832
0.534368
1.023
1.33074
1.43813
1.353
1.10658
0.747041
0.33169
-0.0812609
-0.440093
-0.705401
-0.853738
-0.878872
-0.790733
-0.612453
-0.376069
-0.117601
0.127727
0.32944
0.464331
0.517208
0.479759
0.347819
0.117631
-0.218029
-0.672869
-1.26833
-2.03242
-2.99598
-4.18666
-5.62168
-7.30037
-9.19823
-11.2636
-13.4181
-15.5615
-17.5801
-19.3585
-20.7931
-21.8048
-22.3496
-22.4254
-22.0733
-21.3735
-20.4361
-19.3877
-18.3566
-17.4578
-16.7799
-16.3775
-16.2666
-16.4278
-16.8126
-17.3543
-17.9799
-18.6224
-19.2305
-19.7749
-20.2504
-20.6732
-21.0746
-21.4924
-21.9603
-22.4995
-23.1108
-23.7708
-24.4322
-25.0262
-25.4697
-25.6737
-25.5528
-25.0347
-24.0694
-22.6356
-20.7451
-18.4447
-15.8139
-12.9601
-10.0112
-7.10472
-4.37723
-1.9518
0.0730791
1.63346
2.70741
3.31922
3.53957
3.48099
3.28847
3.1255
3.1565
3.52727
4.34561
5.66457
7.4707
9.67941
12.1387
14.6412
16.9443
18.7953
19.9597
20.2485
19.5415
17.8039
15.0928
11.5552
7.41434
2.94944
-1.53159
-5.72164
-9.34365
-12.176
-14.0715
-14.9684
-14.8914
-13.9448
-12.2966
-10.1574
-7.75547
-5.31192
-3.01689
-1.01077
0.62888
1.89337
2.84165
3.59218
4.30875
5.18183
6.407
8.16264
10.589
13.7704
17.7231
22.3894
27.6397
33.2839
39.0928
44.8321
50.3098
55.4363
60.2942
65.21
70.8098
78.0408
88.1314
102.469
122.384
148.847
182.111
221.365
264.466
307.839
346.613
375.018
387.034
377.217
341.585
278.429
188.89
77.1929
-49.5303
-181.849
-308.992
-420.048
-505.234
-557.073
-571.299
-547.378
-488.571
-401.542
-295.555
-181.393
-70.1232
28.1168
105.174
155.65
177.312
171.11
140.841
92.4986
33.4272
-28.6097
-86.3365
-133.737
-166.611
-182.874
-182.582
-167.698
-141.667
-108.851
-73.9086
-41.2055
-14.3131
4.34678
13.6849
13.949
6.56705
-6.13582
-21.3012
-35.9293
-47.2505
-53.0336
-51.8011
-42.9345
-26.6687
-3.98679
23.5614
54.0876
85.6072
116.266
144.522
169.272
189.909
206.31
218.775
227.918
234.541
239.501
243.589
247.447
251.498
255.936
260.732
265.679
270.446
274.649
277.916
279.936
280.502
279.521
277.019
273.11
267.969
261.786
254.726
246.897
238.326
228.958
218.662
207.261
194.566
180.408
164.683
147.374
128.576
108.502
87.4828
65.9476
44.4043
23.406
3.51495
-14.7368
-30.8843
-44.5628
-55.5331
-63.6966
-69.0987
-71.92
-72.4557
-71.0866
-68.243
-64.3673
-59.878
-55.1393
-50.4398
-45.9807
-41.8758
-38.1599
-34.806
-31.7456
-28.8915
-26.1575
-23.474
-20.7977
-18.1145
-15.4365
-12.7945
-10.2282
-7.77537
-5.46352
-3.30349
-1.28673
0.614156
2.44243
4.25269
6.10614
8.06647
10.197
12.5586
15.2088
18.1994
21.5736
25.3613
29.5712
34.1836
39.1422
44.3475
49.6547
54.875
59.7831
64.1282
67.6503
70.098
71.2476
70.9221
69.0071
65.4647
60.3426
53.7776
45.9942
37.2956
28.0499
18.6686
9.58145
1.20769
-6.07275
-11.9464
-16.1885
-18.6793
-19.4123
-18.4959
-16.1474
-12.6808
-8.49004
-4.02582
0.230604
3.79804
6.2284
7.14059
6.25297
3.41153
-1.38929
-7.99587
-16.0971
-25.2395
-34.8568
-44.3109
-52.9426
-60.1271
-65.3299
-68.1556
-68.387
-66.008
-61.208
-54.3673
-46.0245
-36.8277
-27.4754
-18.6523
-10.9662
-4.89245
-0.732597
1.40977
1.6319
0.214254
-2.41596
-5.73533
-9.18307
-12.221
-14.3877
-15.3417
-14.8873
-12.9831
-9.7314
-5.351
-0.13838
5.57764
11.4809
17.3063
22.8657
28.0589
32.8672
37.3331
41.5284
45.5178
49.3235
52.898
56.1085
58.7372
60.4968
61.0601
60.1003
57.3352
52.5712
45.7394
36.9193
26.3459
14.3997
1.57898
-11.5418
-24.3622
-36.309
-46.8859
-55.715
-62.5641
-67.3597
-70.1835
-71.2547
-70.9002
-69.5166
-67.5279
-65.3441
-63.3229
-61.7382
-60.757
-60.4232
-60.6476
-61.2018
-61.7122
-61.655
-60.3517
-56.9704
-50.5418
-40.0006
-24.2686
-2.38837
26.286
61.8522
103.606
149.815
197.588
242.885
280.74
305.685
312.38
296.354
254.783
187.143
95.6473
-14.6563
-136.166
-259.387
-373.901
-469.523
-537.494
-571.539
-568.649
-529.47
-458.249
-362.346
-251.373
-136.082
-27.1513
65.9853
136.109
178.884
193.158
180.864
146.583
96.8165
39.1
-18.9415
-70.4672
-110.127
-134.533
-142.448
-134.713
-113.926
-83.9428
-49.2861
-14.5244
16.2848
40.0344
54.8468
60.1762
56.7403
46.3078
31.3829
14.8343
-0.480644
-12.0531
-17.9863
-17.1617
-9.30022
5.07877
24.7848
48.1469
73.2396
98.1143
121.01
140.522
155.712
166.158
171.938
173.567
171.885
167.927
162.788
157.493
152.892
149.585
147.885
147.817
149.149
151.446
154.139
156.597
158.196
158.377
156.687
152.807
146.568
137.95
127.081
114.223
99.7561
84.1574
67.9697
51.7668
36.11
21.5022
8.34198
-3.11475
-12.7811
-20.748
-27.2725
-32.7466
-37.6485
-42.483
-47.7187
-53.7293
-60.7481
-68.8408
-77.8994
-87.6593
-97.7346
-107.668
-116.988
-125.265
-132.157
-137.452
-141.079
-143.109
-143.741
-143.267
-142.033
-140.394
-138.676
-137.136
-135.942
-135.161
-134.759
-134.616
-134.544
-134.311
-133.675
-132.402
-130.293
-127.199
-123.025
-117.739
-111.366
-103.974
-95.6679
-86.5744
-76.8264
-66.5524
-55.8683
-44.8715
-33.6401
-22.2359
-10.7099
0.889598
12.5092
24.0833
35.5295
46.7483
57.6255
68.0393
77.8699
87.0103
95.3771
102.919
109.625
115.519
120.664
125.149
129.078
132.555
135.672
138.49
141.037
143.293
145.198
146.651
147.519
147.649
146.88
145.055
142.027
137.675
131.906
124.664
115.937
105.762
94.2314
81.4953
67.7647
53.3084
38.4458
23.5352
8.9551
-4.91716
-17.7306
-29.1852
-39.0546
-47.2022
-53.591
-58.2827
-61.4282
-63.2488
-64.0107
-63.9956
-63.4712
-62.6638
-61.7386
-60.7874
-59.8265
-58.8051
-57.621
-56.1432
-54.2376
-51.7918
-48.7363
-45.0593
-40.8129
-36.1109
-31.118
-26.0328
-21.066
-16.4183
-12.2598
-8.71391
-5.84725
-3.66746
-2.12757
-1.1366
-0.574493
-0.308944
-0.211932
-0.173765
-0.113041
0.0183926
0.235644
0.525574
0.855043
1.18107
1.46127
1.66301
1.7701
1.78641
1.73599
1.66043
1.61385
1.65686
1.85053
2.2517
2.91043
3.87083
5.17609
6.87923
9.06107
11.8568
15.4912
20.3194
26.8654
35.8456
48.1588
64.8228
86.8415
114.997
149.58
190.092
234.976
281.449
325.495
362.071
385.551
390.361
371.759
326.617
254.119
156.219
37.7677
-93.7301
-228.744
-356.657
-466.908
-550.189
-599.527
-611.13
-584.841
-524.182
-435.941
-329.389
-215.213
-104.308
-6.58007
70.086
120.581
142.964
138.466
111.116
67.0731
13.7427
-41.1803
-90.635
-128.966
-152.463
-159.62
-151.1
-129.441
-98.5544
-63.0979
-27.8105
3.1034
26.4691
40.4632
44.7361
40.3374
29.4681
15.1064
0.563922
-10.9662
-16.8108
-15.1223
-5.05513
13.1974
38.501
68.9899
102.35
136.137
168.079
196.335
219.671
237.541
250.075
257.98
262.376
264.598
265.988
267.712
270.618
275.148
281.321
288.766
296.81
304.588
311.177
315.717
317.514
316.109
311.31
303.192
292.05
278.35
262.642
245.497
227.43
208.863
190.091
171.29
152.538
133.854
115.25
96.7762
78.5619
60.8338
43.9171
28.2129
14.1579
2.17146
-7.40162
-14.3429
-18.5993
-20.3024
-19.7653
-17.4567
-13.9549
-9.88933
-5.87553
-2.45337
-0.0354761
1.12767
0.962398
-0.434497
-2.82114
-5.8505
-9.11885
-12.2164
-14.7734
-16.4973
-17.1971
-16.7936
-15.3162
-12.8885
-9.70514
-6.0051
-2.04357
1.933
5.70679
9.10176
11.9897
14.2901
15.9647
17.0099
17.4477
17.318
16.6724
15.5717
14.084
12.2855
10.2608
8.1029
5.91117
3.78771
1.83164
0.13217
-1.23863
-2.23228
-2.82851
-3.0373
-2.89776
-2.47404
-1.84851
-1.11313
-0.360103
0.327215
0.881981
1.25929
1.43883
1.42469
1.24239
0.933799
0.550653
0.147521
-0.22486
-0.525157
-0.725335
-0.812574
-0.789173
-0.670632
-0.482349
-0.255448
-0.0223552
0.187322
0.350133
0.451008
0.484215
0.453062
0.368508
0.246974
0.107708
-0.0299265
-0.148912
-0.236553
-0.285834
-0.296172
-0.273662
-0.230924
-0.186679
-0.165078
-0.194755
-0.307497
-0.53644
-0.913725
-1.46766
-2.21954
-3.18042
-4.3482
-5.70554
-7.21893
-8.83949
-10.5056
-12.1476
-13.693
-15.0736
-16.2305
-17.1186
-17.7074
-17.9798
-17.9272
-17.5439
-16.8207
-15.7401
-14.2759
-12.3964
-10.0746
-7.30296
-4.11202
-0.590726
3.09664
6.70028
9.88578
12.2485
13.3423
12.7205
9.98542
4.84184
-2.85435
-13.0571
-25.5086
-39.7393
-55.0923
-70.7718
-85.911
-99.653
-111.235
-120.066
-125.787
-128.307
-127.811
-124.734
-119.71
-113.502
-106.912
-100.702
-95.5108
-91.7964
-89.7971
-89.5168
-90.7334
-93.0222
-95.7862
-98.2867
-99.6657
-98.9604
-95.1166
-87.0121
-73.5117
-53.572
-26.4106
8.26384
49.9812
97.248
147.36
196.36
239.206
270.182
283.524
274.219
238.842
176.302
88.3522
-20.2471
-141.978
-267.226
-385.278
-485.526
-558.722
-598.093
-600.171
-565.22
-497.199
-403.281
-292.986
-177.062
-66.2496
29.8964
103.991
151.495
171.023
164.255
135.499
90.9854
37.9812
-16.1326
-64.7224
-102.595
-126.455
-135.093
-129.307
-111.59
-85.6431
-55.7967
-26.4092
-1.3266
16.5433
25.4985
25.1382
16.2903
0.795894
-18.8073
-39.658
-58.9483
-74.2603
-83.8254
-86.6815
-82.7174
-72.6086
-57.6614
-39.5898
-20.2603
-1.43692
15.439
29.4092
40.0821
47.6322
52.7229
56.3658
59.7416
64.0083
70.1243
78.7107
89.9679
103.657
119.14
135.481
151.57
166.277
178.589
187.727
193.232
194.99
193.224
188.437
181.327
172.687
163.297
153.83
144.783
136.433
128.826
121.806
115.057
108.173
100.74
92.4007
82.9241
72.2433
60.4728
47.8987
34.9447
22.1196
9.95448
-1.06186
-10.541
-18.238
-24.0761
-28.1491
-30.7035
-32.1033
-32.7826
-33.1925
-33.7493
-34.7889
-36.5342
-39.0765
-42.373
-46.2598
-50.4769
-54.7035
-58.5965
-61.8299
-64.1296
-65.3007
-65.2445
-63.9649
-61.5626
-58.221
-54.1834
-49.7262
-45.1306
-40.6558
-36.5164
-32.8666
-29.7913
-27.3059
-25.3623
-23.8618
-22.6713
-21.6421
-20.6281
-19.5024
-18.1697
-16.5754
-14.7084
-12.6003
-10.3191
-7.96002
-5.63389
-3.45426
-1.52521
0.0692522
1.27322
2.06341
2.45003
2.47411
2.20173
1.71602
1.10789
0.466659
-0.128436
-0.614984
-0.951749
-1.12038
-1.12448
-0.986406
-0.742358
-0.436439
-0.114521
0.181393
0.417714
0.572286
0.635704
0.61095
0.511575
0.35881
0.178061
-0.00470256
-0.166233
-0.28858
-0.360725
-0.379184
-0.347594
-0.275476
-0.176389
-0.0657898
0.0411122
0.131236
0.195037
0.227321
0.227429
0.198864
0.148534
0.0859746
0.023009
-0.0255874
-0.0400343
0.00786993
0.15889
0.469977
1.0158
1.8867
3.18214
4.99974
7.42095
10.4954
14.2267
18.5616
23.3867
28.5305
33.7752
38.8731
43.5682
47.6188
50.8187
53.0139
54.1136
54.0938
52.9942
50.9087
47.9713
44.3403
40.1817
35.6542
30.8986
26.0311
21.1415
16.2962
11.5446
6.92662
2.48142
-1.74616
-5.70139
-9.31903
-12.526
-15.247
-17.4115
-18.9611
-19.8553
-20.0742
-19.6164
-18.4916
-16.7068
-14.2456
-11.0409
-6.94169
-1.6772
5.17548
14.2099
26.1795
41.9405
62.3325
87.9912
119.103
155.134
194.588
234.859
272.239
302.143
319.54
319.587
298.36
253.595
185.296
96.0902
-8.74693
-121.65
-233.476
-334.486
-415.481
-468.916
-489.852
-476.595
-430.938
-357.971
-265.48
-163.023
-60.8127
31.452
105.654
156.089
179.972
177.568
151.96
108.491
53.9851
-4.15147
-58.83
-104.065
-135.564
-151.065
-150.399
-135.299
-108.995
-75.6699
-39.8477
-5.80239
22.9472
43.9992
56.2576
59.9388
56.4134
47.9156
37.171
26.9942
19.9112
17.8511
21.9402
32.4153
48.6573
69.3307
92.6012
116.399
138.691
157.723
172.213
181.466
185.406
184.539
179.835
172.574
164.161
155.952
149.087
144.379
142.239
142.669
145.295
149.441
154.238
158.734
162.01
163.273
161.928
157.62
150.25
139.961
127.106
112.208
95.9069
78.904
61.9146
45.6192
30.6241
17.4282
6.39931
-2.24154
-8.42526
-12.2304
-13.8688
-13.6628
-12.0148
-9.3723
-6.19057
-2.89703
0.140247
2.63681
4.40684
5.36796
5.53601
5.01069
3.95444
2.56702
1.05903
-0.372937
-1.56676
-2.40916
-2.8429
-2.86677
-2.52907
-1.91606
-1.13729
-0.309888
0.456133
1.0699
1.46793
1.61811
1.51952
1.19872
0.703498
0.0951721
-0.559402
-1.19528
-1.75563
-2.1963
-2.48876
-2.62124
-2.59851
-2.44014
-2.17764
-1.85042
-1.50101
-1.16975
-0.889569
-0.681543
-0.552169
-0.493235
-0.485048
-0.503211
-0.528427
-0.557926
-0.616429
-0.764142
-1.09944
-1.75453
-2.88356
-4.64388
-7.17284
-10.5632
-14.8413
-19.9515
-25.7506
-32.0126
-38.4459
-44.7188
-50.492
-55.4522
-59.3439
-61.9933
-63.3226
-63.3527
-62.1941
-60.0276
-57.0791
-53.5906
-49.7926
-45.881
-42.0012
-38.2404
-34.6283
-31.1452
-27.7355
-24.3229
-20.8277
-17.1807
-13.3339
-9.26696
-4.98847
-0.532222
4.04996
8.69836
13.3564
17.9811
22.5507
27.068
31.559
36.0657
40.6332
45.2931
50.0452
54.8384
59.5569
64.0124
67.9468
71.0461
72.9664
73.369
71.9615
68.5393
63.0209
55.4717
46.1123
35.307
23.5361
11.3509
-0.680124
-12.0295
-22.2654
-31.0965
-38.4006
-44.2361
-48.8333
-52.5688
-55.9262
-59.447
-63.6779
-69.118
-76.171
-85.1057
-96.0273
-108.862
-123.357
-139.09
-155.495
-171.903
-187.578
-201.773
-213.774
-222.951
-228.794
-230.948
-229.225
-223.616
-214.279
-201.523
-185.786
-167.602
-147.578
-126.356
-104.588
-82.9021
-61.8684
-41.9568
-23.4894
-6.58546
8.89715
23.4129
37.7583
53.0593
70.6956
92.1435
118.732
151.324
189.967
233.558
279.627
324.287
362.436
388.213
395.697
379.761
336.956
266.289
169.732
52.3728
-77.8739
-210.974
-335.823
-441.508
-518.6
-560.309
-563.33
-528.267
-459.578
-365.049
-254.869
-140.437
-33.0494
57.3561
123.254
160.256
167.429
147.194
104.837
47.7086
-15.7699
-77.1551
-128.964
-165.465
-183.207
-181.228
-160.955
-125.821
-80.6835
-31.1124
17.3355
59.779
92.532
113.431
121.949
119.105
107.197
89.4083
69.3484
50.5903
36.2554
28.6926
29.2794
38.3545
55.2761
78.5859
106.249
135.933
165.287
192.197
214.979
232.5
244.224
250.179
250.869
247.134
240
230.516
219.63
208.081
196.35
184.648
172.951
161.063
148.704
135.596
121.546
106.505
90.6065
74.1637
57.6497
41.6444
26.7706
13.6212
2.69108
-5.67888
-11.339
-14.3446
-14.9462
-13.5583
-10.7113
-6.99308
-2.98823
0.77813
3.88565
6.04792
7.12291
7.10413
6.09433
4.26599
1.81451
-1.08853
-4.33482
-7.90476
-11.8747
-16.4043
-21.7061
-28.0013
-35.4698
-44.2025
-54.1634
-65.1689
-76.8878
-88.863
-100.552
-111.385
-120.82
-128.412
-133.855
-137.02
-137.968
-136.941
-134.33
-130.633
-126.393
-122.146
-118.358
-115.386
-113.443
-112.592
-112.747
-113.698
-115.146
-116.742
-118.136
-119.011
-119.119
-118.298
-116.479
-113.682
-109.995
-105.555
-100.517
-95.0303
-89.2196
-83.1697
-76.9233
-70.4864
-63.8406
-56.9605
-49.8313
-42.4649
-34.9096
-27.2534
-19.6199
-12.1579
-5.02606
1.62357
7.66108
12.9911
17.5597
21.3564
24.4099
26.7804
28.549
29.8061
30.6415
31.1358
31.3554
31.3498
31.1531
30.786
30.2604
29.583
28.7596
27.7967
26.7028
25.4884
24.1637
22.7375
21.2149
19.5961
17.8753
16.042
14.0817
11.9789
9.71955
7.29471
4.70321
1.95397
-0.93276
-3.9255
-6.983
-10.0571
-13.0968
-16.0522
-18.88
-21.5463
-24.0293
-26.3194
-28.4171
-30.3283
-32.0577
-33.601
-34.9377
-36.0236
-36.7877
-37.1305
-36.9274
-36.036
-34.3077
-31.6027
-27.8064
-22.848
-16.7154
-9.46815
-1.24323
7.74641
17.2214
26.8533
36.2886
45.1764
53.1959
60.0824
65.6461
69.7832
72.4772
73.7912
73.8515
72.8267
70.9036
68.2649
65.0707
61.4456
57.4738
53.2005
48.6397
43.7861
38.6284
33.1635
27.4064
21.3981
15.2078
8.93002
2.6785
-3.42334
-9.25324
-14.7007
-19.6761
-24.1165
-27.9888
-31.2883
-34.0341
-36.2611
-38.0081
-39.302
-40.1352
-40.435
-40.0242
-38.5742
-35.5602
-30.2318
-21.6196
-8.60187
9.9532
34.9621
66.8354
105.161
148.424
193.843
237.378
273.987
298.101
304.322
288.218
247.127
180.804
91.8133
-14.4507
-130.137
-245.687
-350.867
-435.953
-492.909
-516.375
-504.354
-458.477
-383.824
-288.324
-181.822
-74.9291
22.1806
100.881
154.976
181.26
179.69
153.189
107.115
48.4742
-14.9853
-75.7108
-127.178
-164.536
-185.001
-187.978
-174.902
-148.872
-114.106
-75.3331
-37.1718
-3.59175
22.4951
39.4744
47.0879
46.3212
39.1521
28.2028
16.3475
6.32819
0.423507
0.206177
6.41011
18.9126
36.8231
58.6574
82.568
106.598
128.926
148.069
163.031
173.377
179.23
181.209
180.304
177.722
174.718
172.436
171.778
173.311
177.221
183.319
191.087
199.758
208.416
216.101
221.91
225.085
225.067
221.536
214.414
203.853
190.201
173.963
155.745
136.214
116.053
95.9229
76.4384
58.1419
41.4905
26.8435
14.4549
4.46859
-3.0833
-8.27783
-11.2945
-12.4033
-11.9475
-10.3224
-7.94878
-5.24634
-2.60546
-0.36214
1.22277
1.97792
1.82797
0.791826
-1.0272
-3.45816
-6.28429
-9.26772
-12.1743
-14.7961
-16.9699
-18.5889
-19.6089
-20.0459
-19.9694
-19.4885
-18.7369
-17.8545
-16.9712
-16.1917
-15.5853
-15.1802
-14.9621
-14.8794
-14.8511
-14.7788
-14.5599
-14.1008
-13.3285
-12.2
-10.707
-8.87773
-6.77359
-4.4829
-2.11155
0.22799
2.42799
4.39604
6.06369
7.39207
8.37416
9.0333
9.41815
9.59483
9.63717
9.61635
9.5912
9.60056
9.65854
9.75333
9.84955
9.89382
9.82251
9.57076
9.08137
8.31258
7.24381
5.87891
4.24659
2.3983
0.403721
-1.65545
-3.69293
-5.62571
-7.38174
-8.90652
-10.168
-11.159
-11.8968
-12.4189
-12.7768
-13.0264
-13.2181
-13.3871
-13.5471
-13.6873
-13.7753
-13.7646
-13.6065
-13.2626
-12.7158
-11.9768
-11.0836
-10.0948
-9.07538
-8.08082
-7.14051
-6.24518
-5.34091
-4.33122
-3.08724
-1.46455
0.676104
3.44744
6.91702
11.0943
15.9252
21.2947
27.0372
32.9535
38.8305
44.4637
49.6775
54.3429
58.3896
61.8124
64.6702
67.0794
69.1995
71.2159
73.3172
75.6739
78.4169
81.6206
85.2929
89.3715
93.728
98.1791
102.501
106.448
109.766
112.21
113.554
113.594
112.16
109.118
104.375
97.891
89.6892
79.867
68.6049
56.1711
42.9173
29.2658
15.6872
2.6703
-9.31367
-19.8468
-28.5972
-35.345
-39.9963
-42.5867
-43.2708
-42.3026
-40.0063
-36.7433
-32.8782
-28.748
-24.636
-20.7538
-17.2295
-14.102
-11.3164
-8.71819
-6.04156
-2.89156
1.27732
7.17699
15.6815
27.7836
44.4946
66.6749
94.7982
128.675
167.176
208.033
247.762
281.804
304.879
311.568
297.055
257.932
192.929
103.454
-6.19513
-128.993
-255.757
-376.055
-479.356
-556.257
-599.629
-605.513
-573.638
-507.493
-413.939
-302.411
-183.818
-69.3007
31.014
109.083
159.728
181.039
174.372
143.961
96.2182
38.827
-20.2433
-73.6822
-115.623
-142.193
-151.77
-144.953
-124.265
-93.6518
-57.8556
-21.7538
10.2547
34.745
49.5916
54.1032
48.9657
36.0212
17.926
-2.25871
-21.4845
-37.0904
-47.0913
-50.3529
-46.6423
-36.5624
-21.388
-2.83598
17.1949
36.8797
54.6856
69.531
80.8704
88.7041
93.5181
96.1694
97.7375
99.3624
102.091
106.751
113.86
123.583
135.737
149.83
165.137
180.797
195.908
209.618
221.208
230.134
236.057
238.84
238.525
235.29
229.408
221.198
210.985
199.077
185.744
171.22
155.714
139.424
122.56
105.363
88.1167
71.1501
54.8338
39.5605
25.7186
13.6599
3.66507
-4.08778
-9.54731
-12.8019
-14.0791
-13.7305
-12.2028
-9.99907
-7.63205
-5.57713
-4.22872
-3.86589
-4.6309
-6.52302
-9.40809
-13.0423
-17.1067
-21.2486
-25.1231
-28.4323
-30.9552
-32.5667
-33.2438
-33.0595
-32.1652
-30.7654
-29.0889
-27.3589
-25.7674
-24.4556
-23.5036
-22.9277
-22.6875
-22.6992
-22.8527
-23.0309
-23.1273
-23.0602
-22.7815
-22.2799
-21.5779
-20.7247
-19.7849
-18.8265
-17.9098
-17.0772
-16.3478
-15.7155
-15.1509
-14.6067
-14.026
-13.3512
-12.5329
-11.5379
-10.3547
-8.99568
-7.49701
-5.915
-4.32015
-2.78962
-1.3988
-0.2134
0.71739
1.36562
1.72688
1.81985
1.68351
1.3721
0.948921
0.479364
0.0243267
-0.36547
-0.653578
-0.820033
-0.861547
-0.789857
-0.628567
-0.408976
-0.165492
0.0688149
0.266008
0.406042
0.478273
0.481667
0.423827
0.319072
0.185912
0.0442917
-0.0870441
-0.19274
-0.262363
-0.291156
-0.280004
-0.234692
-0.164582
-0.0808422
0.0057553
0.0875092
0.163023
0.240904
0.343494
0.509803
0.796541
1.27618
2.03135
3.14568
4.69174
6.7179
9.23594
12.2115
15.5593
19.144
22.787
26.2791
29.3965
31.9198
33.6527
34.4386
34.1743
32.8176
30.3909
26.9781
22.718
17.7936
12.419
6.82624
1.25197
-4.07427
-8.93932
-13.1532
-16.5531
-19.0044
-20.4002
-20.6585
-19.7192
-17.5412
-14.1015
-9.39541
-3.44147
3.71218
11.9788
21.225
31.268
41.8816
52.8181
63.8468
74.8106
85.693
96.6807
108.203
120.924
135.661
153.221
174.159
198.49
225.398
253.022
278.381
297.507
305.794
298.565
271.785
222.808
151.05
58.4433
-50.4204
-168.527
-287.044
-396.237
-486.574
-549.875
-580.327
-575.242
-535.425
-465.117
-371.506
-263.9
-152.64
-47.9337
41.2601
108.156
148.762
162.14
150.292
117.717
70.7001
16.4546
-37.7757
-85.5418
-121.847
-143.57
-149.633
-140.901
-119.868
-90.1795
-56.0657
-21.7655
8.98751
33.3624
49.6754
57.4672
57.4235
51.1624
40.9324
29.2643
18.6264
11.1233
8.27074
10.8657
18.9572
31.9116
48.5534
67.3585
86.6689
104.903
120.734
133.222
141.885
146.706
148.088
146.759
143.653
139.772
136.061
133.299
132.023
132.486
134.658
138.257
142.81
147.725
152.377
156.179
158.639
159.405
158.269
155.158
150.112
143.245
134.714
124.694
113.367
100.929
87.5951
73.6235
59.3264
45.0756
31.2933
18.4265
6.90598
-2.9036
-10.7568
-16.5725
-20.4627
-22.738
-23.8857
-24.5225
-25.3263
-26.9569
-29.9771
-34.7852
-41.5701
-50.2957
-60.7158
-72.4191
-84.8946
-97.6087
-110.08
-121.944
-132.99
-143.175
-152.607
-161.502
-170.126
-178.728
-187.47
-196.382
-205.326
-213.994
-221.931
-228.574
-233.314
-235.566
-234.832
-230.759
-223.178
-212.126
-197.849
-180.781
-161.517
-140.765
-119.301
-97.9133
-77.3521
-58.2853
-41.2591
-26.6711
-14.7542
-5.5729
0.967109
5.09883
7.16411
7.57751
6.7872
5.23664
3.33032
1.40683
-0.279043
-1.56396
-2.37388
-2.71321
-2.64765
-2.28314
-1.74402
-1.15289
-0.614248
-0.203397
0.0389037
0.106223
0.0215741
-0.170779
-0.415248
-0.654981
-0.840671
-0.937087
-0.926729
-0.810492
-0.605622
-0.341575
-0.0546192
0.217956
0.443161
0.596509
0.664629
0.646129
0.550758
0.397169
0.209712
0.014792
-0.162701
-0.302417
-0.390701
-0.421674
-0.397216
-0.325966
-0.221557
-0.1004
0.0206639
0.126525
0.205531
0.250594
0.259615
0.235228
0.183986
0.115121
0.039113
-0.033761
-0.0946954
-0.137308
-0.158189
-0.157014
-0.136262
-0.100609
-0.0561097
-0.00928716
0.0337321
0.0679494
0.0900119
0.0985038
0.0940682
0.0795034
0.0600443
0.0440381
0.0441192
0.0787794
0.173963
0.364062
0.69156
1.20465
1.95246
2.97811
4.31029
5.9548
7.88753
10.0506
12.3527
14.6745
16.8789
18.8244
20.3814
21.4475
21.9615
21.912
21.3414
20.3426
19.0505
17.6272
16.2453
15.0694
14.2391
13.8563
13.9784
14.6178
15.7498
17.3262
19.2927
21.6075
24.2556
27.2582
30.6725
34.5852
39.1019
44.3388
50.4253
57.5203
65.847
75.7345
87.6541
102.223
120.151
142.114
168.542
199.36
233.709
269.733
304.498
334.095
353.983
359.534
346.723
312.867
257.284
181.723
90.496
-9.77154
-110.752
-203.321
-278.648
-329.299
-350.214
-339.394
-298.209
-231.276
-145.925
-51.3234
42.6141
126.384
191.971
233.704
248.793
237.497
202.911
150.43
86.9687
20.0601
-43.0646
-96.2827
-135.192
-157.464
-162.923
-153.349
-132.074
-103.421
-72.0824
-42.5047
-18.3754
-2.24605
4.66427
2.48197
-7.47563
-22.9866
-41.2937
-59.5032
-74.9604
-85.5576
-89.9441
-87.6215
-78.9236
-64.8957
-47.0962
-27.3547
-7.51837
10.7788
26.2977
38.3084
46.6274
51.5824
53.9126
54.6262
54.8365
55.5984
57.7703
61.913
68.2383
76.6089
86.5835
97.4988
108.574
119.021
128.148
135.44
140.616
143.646
144.736
144.292
142.855
141.024
139.377
138.403
138.436
139.618
141.876
144.923
148.283
151.332
153.361
153.645
151.522
146.473
138.188
126.619
112.003
94.8627
75.9696
56.2828
36.8618
18.7672
2.95919
-9.79504
-18.9929
-24.4391
-26.2554
-24.8555
-20.8907
-15.1718
-8.57821
-1.96554
3.91901
8.50285
11.4302
12.5769
12.0383
10.0937
7.15352
3.69679
0.207169
-2.88477
-5.24696
-6.6746
-7.10061
-6.58838
-5.30944
-3.51052
-1.47481
0.516848
2.22047
3.45502
4.11795
4.18937
3.72547
2.84324
1.69922
0.465693
-0.692577
-1.63815
-2.27515
-2.55682
-2.48606
-2.10972
-1.50802
-0.780879
-0.033254
0.638572
1.15816
1.4764
1.57476
1.46433
1.18131
0.779703
0.322709
-0.126259
-0.511555
-0.79147
-0.941998
-0.957983
-0.851807
-0.650073
-0.388988
-0.109215
0.149034
0.350044
0.465375
0.475225
0.368431
0.14138
-0.203857
-0.661788
-1.22586
-1.89066
-2.65373
-3.51685
-4.48658
-5.57393
-6.79299
-8.15855
-9.6829
-11.3721
-13.222
-15.2157
-17.3211
-19.491
-21.6659
-23.7773
-25.7544
-27.5309
-29.0523
-30.282
-31.2057
-31.8335
-32.1985
-32.3529
-32.3611
-32.2916
-32.2082
-32.1615
-32.1828
-32.2803
-32.4389
-32.6238
-32.7866
-32.8734
-32.8334
-32.626
-32.2244
-31.6162
-30.799
-29.7729
-28.5305
-27.0454
-25.264
-23.0981
-20.4253
-17.0934
-12.9327
-7.77435
-1.47287
6.06821
14.8723
24.87
35.8881
47.6487
59.782
71.85
83.3816
93.9129
103.029
110.403
115.822
119.208
120.612
120.206
118.248
115.048
110.924
106.155
100.955
95.4377
89.62
83.4237
76.7026
69.2769
60.9751
51.6743
41.3347
30.0224
17.9166
5.30091
-7.46069
-19.9595
-31.7853
-42.5701
-52.028
-59.9841
-66.3896
-71.3204
-74.9584
-77.5594
-79.4095
-80.7752
-81.8521
-82.7161
-83.2785
-83.2497
-82.1132
-79.1192
-73.3044
-63.555
-48.7219
-27.7979
-0.150333
34.2125
74.3808
118.345
162.922
203.858
236.14
254.511
254.144
231.386
184.461
114.004
23.3216
-81.6981
-193.041
-301.355
-396.978
-471.054
-516.604
-529.384
-508.42
-456.137
-378.075
-282.223
-178.078
-75.5402
16.1925
89.609
139.619
163.965
163.275
140.783
101.751
52.7115
0.609986
-48.0219
-87.7783
-114.894
-127.518
-125.737
-111.366
-87.5551
-58.2726
-27.7429
0.0931717
22.0337
35.9389
40.8972
37.2296
26.3461
10.4837
-7.63007
-25.1451
-39.439
-48.4122
-50.6965
-45.7607
-33.9091
-16.1813
5.82448
30.1803
54.8753
78.0521
98.2041
114.314
125.924
133.131
136.517
137.032
135.839
134.15
133.075
133.493
135.969
140.713
147.588
156.159
165.763
175.61
184.879
192.806
198.762
202.303
203.197
201.425
197.16
190.732
182.575
173.176
163.021
152.546
142.1
131.924
122.136
112.738
103.636
94.6629
85.6172
76.2996
66.5492
56.2737
45.4705
34.2346
22.7557
11.3012
0.190401
-10.2387
-19.6655
-27.821
-34.5167
-39.664
-43.2826
-45.4964
-46.5176
-46.6213
-46.1137
-45.2972
-44.4374
-43.7352
-43.3072
-43.1772
-43.2786
-43.4678
-43.547
-43.2917
-42.4819
-40.9312
-38.5101
-35.1626
-30.9124
-25.8592
-20.1664
-14.0412
-7.71133
-1.40096
4.69104
10.4074
15.6417
20.3405
24.4974
28.1427
31.3285
34.1137
36.5508
38.6753
40.5015
42.0218
43.212
44.0385
44.4684
44.4782
44.0612
43.2312
42.0224
40.4862
38.6838
36.6791
34.5294
32.2797
29.9579
27.5749
25.1274
22.6045
19.9953
17.2978
14.5259
11.7148
8.92111
6.22089
3.70265
1.45822
-0.428018
-1.88965
-2.88727
-3.41466
-3.50161
-3.21318
-2.64592
-1.92151
-1.17869
-0.564125
-0.222652
-0.28744
-0.870382
-2.05325
-3.88016
-6.35217
-9.4245
-13.0073
-16.9698
-21.1491
-25.3606
-29.4125
-33.1204
-36.3217
-38.8887
-40.7385
-41.8389
-42.21
-41.9213
-41.0835
-39.8383
-38.3439
-36.7607
-35.2371
-33.8965
-32.8278
-32.0792
-31.6558
-31.5213
-31.6029
-31.7991
-31.9887
-32.0417
-31.8296
-31.2359
-30.1647
-28.5488
-26.3541
-23.5833
-20.2757
-16.5044
-12.3703
-7.99421
-3.50585
0.967321
5.3122
9.4412
13.3019
16.8847
20.2282
23.422
26.6058
29.9648
33.7202
38.1131
43.3831
49.7407
57.3365
66.2281
76.3499
87.4888
99.2713
111.166
122.504
132.521
140.417
145.432
146.924
144.449
137.826
127.176
112.932
95.8171
76.7848
56.9355
37.4135
19.2982
3.50347
-9.3048
-18.762
-24.824
-27.7509
-28.0591
-26.4483
-23.7134
-20.6527
-17.9819
-16.2652
-15.8685
-16.9383
-19.4069
-23.0204
-27.3843
-32.0186
-36.4145
-40.0841
-42.5952
-43.5852
-42.7513
-39.8198
-34.5014
-26.4488
-15.2341
-0.367564
18.6223
42.0422
69.8256
101.294
134.931
168.243
197.754
219.199
227.925
219.475
190.29
138.414
64.0887
-29.8952
-138.173
-253.151
-365.699
-466.122
-545.267
-595.627
-612.281
-593.53
-541.145
-460.186
-358.434
-245.484
-131.663
-26.8721
60.4591
124.214
161.109
170.86
155.984
121.297
73.1772
18.7104
-35.1774
-82.4866
-118.731
-141.285
-149.479
-144.441
-128.749
-105.932
-79.9213
-54.5016
-32.8491
-17.1923
-8.63104
-7.11782
-11.5861
-20.195
-30.6466
-40.5286
-47.6368
-50.2387
-47.2523
-38.3259
-23.8195
-4.70105
17.6219
41.507
65.2901
87.4793
106.909
122.837
134.989
143.527
148.988
152.167
153.992
155.392
157.179
159.958
164.071
169.58
176.285
183.771
191.471
198.751
204.98
209.599
212.178
212.442
210.287
205.778
199.12
190.634
180.711
169.773
158.235
146.47
134.782
123.389
112.415
101.894
91.7861
81.9967
72.4057
62.8953
53.375
43.8
34.1794
24.5759
15.0956
5.87269
-2.94847
-11.23
-18.8528
-25.7222
-31.7687
-36.9419
-41.2034
-44.5187
-46.8516
-48.1636
-48.4176
-47.5863
-45.6644
-42.6805
-38.7081
-33.8721
-28.3497
-22.3643
-16.1729
-10.0488
-4.26056
0.950147
5.38821
8.92121
11.4895
13.1095
13.8691
13.9169
13.445
12.6687
11.8039
11.0455
10.5488
10.416
10.688
11.3448
12.3112
13.4694
14.6752
15.7774
16.6361
17.1388
17.2123
16.8284
16.0037
14.7934
13.2813
11.5673
9.75486
7.94061
6.20679
4.61767
3.2191
2.04067
1.09894
0.400834
-0.0540883
-0.272937
-0.270533
-0.0718932
0.284531
0.743811
1.23268
1.65978
1.91856
1.89309
1.46636
0.530388
-1.00308
-3.19258
-6.05882
-9.57979
-13.6893
-18.2799
-23.2084
-28.3057
-33.387
-38.2638
-42.7551
-46.6976
-49.954
-52.4193
-54.0248
-54.7396
-54.5709
-53.5613
-51.7857
-49.3456
-46.3634
-42.9748
-39.3216
-35.5439
-31.7736
-28.1276
-24.7036
-21.577
-18.7988
-16.3962
-14.3742
-12.7177
-11.3948
-10.3605
-9.56015
-8.93318
-8.41632
-7.94684
-7.46536
-6.91823
-6.25948
-5.45218
-4.46915
-3.29291
-1.91487
-0.333656
1.4472
3.42201
5.58579
7.93683
10.4785
13.2199
16.1752
19.3615
22.7954
26.4883
30.442
34.6444
39.0661
43.66
48.3615
53.0925
57.7659
62.2918
66.5832
70.5614
74.1596
77.3236
80.0117
82.191
83.8336
84.9119
85.3939
85.2402
84.4031
82.8279
80.4575
77.2407
73.1413
68.1498
62.294
55.6476
48.3338
40.525
32.4341
24.3015
16.3756
8.89181
2.04961
-4.00661
-9.20246
-13.5412
-17.1034
-20.0385
-22.5491
-24.8698
-27.2433
-29.8956
-33.0144
-36.7315
-41.1123
-46.1514
-51.7737
-57.8374
-64.1343
-70.3824
-76.2074
-81.1124
-84.4427
-85.3577
-82.8307
-75.6987
-62.7832
-43.0913
-16.0892
17.9866
57.8357
100.892
143.288
180.038
205.479
213.919
200.449
161.783
96.9869
7.97624
-100.352
-220.392
-342.51
-456.059
-550.587
-617.089
-649.11
-643.56
-601.105
-526.105
-426.093
-310.877
-191.394
-78.4608
18.4128
91.9988
138.009
155.372
146.109
114.866
68.1667
13.5088
-41.5807
-90.4088
-127.803
-150.551
-157.565
-149.776
-129.789
-101.383
-68.9074
-36.685
-8.47159
12.9508
26.0201
30.4641
27.2019
18.1094
5.68874
-7.30724
-18.2456
-24.9339
-25.8572
-20.3101
-8.41714
8.94993
30.3396
53.9443
77.8489
100.27
119.758
135.343
146.599
153.651
157.092
157.867
157.112
155.986
155.52
156.485
159.318
164.088
170.516
178.038
185.899
193.268
199.347
203.473
205.197
204.323
200.915
195.273
187.876
179.297
170.125
160.87
151.9
143.392
135.314
127.451
119.451
110.898
101.4
90.6709
78.5973
65.2817
51.0515
36.4334
22.0972
8.77666
-2.82081
-12.103
-18.6677
-22.353
-23.2576
-21.7283
-18.3172
-13.7157
-8.67436
-3.9184
-0.0712354
2.40679
3.25674
2.43395
0.0953412
-3.4353
-7.71835
-12.2584
-16.5652
-20.2088
-22.8627
-24.3302
-24.5547
-23.6114
-21.6863
-19.0436
-15.9883
-12.8276
-9.83675
-7.23155
-5.15125
-3.65168
-2.70881
-2.23127
-2.07932
-2.08748
-2.08802
-1.93221
-1.50736
-0.747941
0.359759
1.77914
3.43
5.19877
6.95064
8.54189
9.83106
10.6884
11.0029
10.6879
9.68429
7.96331
5.52891
2.41953
-1.29035
-5.4895
-10.0309
-14.7354
-19.3981
-23.7993
-27.7173
-30.9452
-33.307
-34.6737
-34.9762
-34.2131
-32.4531
-29.8301
-26.5326
-22.7873
-18.8393
-14.9312
-11.2821
-8.07049
-5.42169
-3.40083
-2.01273
-1.20752
-0.891434
-0.940952
-1.2186
-1.58843
-1.92937
-2.1453
-2.17069
-1.97171
-1.54294
-0.900323
-0.0718009
0.913126
2.03306
3.28205
4.6734
6.23908
8.02492
10.0822
12.4566
15.1779
18.2492
21.642
25.2938
29.1122
32.9831
36.7828
40.3917
43.7084
46.6609
49.2146
51.3762
53.1926
54.7452
56.1421
57.5053
58.957
60.6017
62.506
64.6752
67.0288
69.3775
71.4054
72.6616
72.5665
70.4372
65.5336
57.1257
44.578
27.442
5.54755
-20.9229
-51.3905
-84.8786
-120.063
-155.37
-189.123
-219.711
-245.765
-266.315
-280.904
-289.64
-293.181
-292.651
-289.498
-285.314
-281.642
-279.794
-280.712
-284.871
-292.256
-302.395
-314.445
-327.325
-339.856
-350.907
-359.515
-364.979
-366.9
-365.188
-360.026
-351.797
-340.998
-328.135
-313.621
-297.685
-280.292
-261.1
-239.455
-214.432
-184.953
-149.967
-108.711
-61.0063
-7.57431
49.7086
107.674
161.912
207.057
237.31
247.15
232.162
189.842
120.243
26.3394
-85.9784
-208.326
-330.614
-442.129
-532.744
-594.113
-620.668
-610.282
-564.522
-488.435
-389.931
-278.821
-165.674
-60.6195
27.7427
93.1905
132.4
145.092
133.808
103.375
60.1412
11.0983
-36.9903
-78.3549
-108.787
-125.959
-129.483
-120.719
-102.393
-78.0811
-51.6473
-26.7095
-6.19674
7.95347
14.9351
15.0502
9.54382
0.333781
-10.3185
-20.1468
-27.1838
-29.994
-27.8132
-20.5853
-8.90255
6.13388
23.1076
40.5038
56.9201
71.2425
82.7684
91.2641
96.9538
100.45
102.633
104.509
107.056
111.088
117.145
125.428
135.787
147.741
160.549
173.305
185.042
194.842
201.935
205.771
206.069
202.838
196.356
187.139
175.872
163.334
150.315
137.535
125.569
114.801
105.391
97.279
90.2101
83.7906
77.5565
71.0516
63.902
55.8765
46.9251
37.19
26.9878
16.7674
7.04819
-1.65008
-8.87699
-14.3105
-17.7975
-19.371
-19.2427
-17.7728
-15.422
-12.6934
-10.0716
-7.96741
-6.67538
-6.34777
-6.98813
-8.46345
-10.5322
-12.8834
-15.1809
-17.1076
-18.403
-18.8906
-18.4932
-17.2339
-15.2252
-12.6484
-9.72679
-6.69623
-3.77815
-1.15694
1.03529
2.72595
3.90126
4.59893
4.89617
4.89537
4.70949
4.44888
4.21062
4.07068
4.07893
4.25661
4.59603
5.06232
5.59733
6.12598
6.56503
6.8342
6.86854
6.63108
6.12352
5.39337
4.53548
3.68692
3.01475
2.69746
2.90172
3.75731
5.3335
7.62052
10.5195
13.8432
17.3287
20.6612
23.5063
25.5482
26.526
26.2664
24.706
21.9001
18.0181
13.3248
8.14993
2.85175
-2.22273
-6.7741
-10.5798
-13.5129
-15.548
-16.7553
-17.2832
-17.3332
-17.1304
-16.8938
-16.8105
-17.0159
-17.5831
-18.5213
-19.782
-21.2727
-22.8743
-24.46
-25.913
-27.1406
-28.0836
-28.7192
-29.059
-29.1421
-29.0247
-28.7687
-28.4295
-28.0472
-27.6389
-27.1967
-26.688
-26.0605
-25.2496
-24.187
-22.8108
-21.0736
-18.9491
-16.4352
-13.5541
-10.3493
-6.87932
-3.20923
0.598153
4.49142
8.43815
12.4304
16.4868
20.6515
24.9884
29.5711
34.4694
39.7314
45.3655
51.3219
57.478
63.6297
69.4919
74.7086
78.8754
81.5713
82.3991
81.0287
77.2406
70.9609
62.2856
51.4888
39.0117
25.4346
11.4316
-2.28518
-15.0282
-26.1949
-35.3205
-42.1169
-46.4927
-48.5544
-48.5855
-47.0101
-44.3419
-41.1274
-37.8877
-35.0663
-32.9881
-31.8337
-31.6307
-32.262
-33.4883
-34.98
-36.3525
-37.1957
-37.0915
-35.6137
-32.3077
-26.6572
-18.0494
-5.75923
11.0229
33.0996
61.0996
95.2412
135.058
179.14
224.951
268.804
306.032
331.386
339.632
326.28
288.345
225.008
138.066
32.0628
-85.9471
-207
-321.127
-418.451
-490.332
-530.399
-535.334
-505.292
-443.9
-357.84
-256.063
-148.751
-46.1556
42.5339
110.154
152.247
167.394
157.166
125.734
79.197
24.7318
-30.3194
-79.31
-116.996
-140.019
-147.114
-139.06
-118.377
-88.8463
-54.9217
-21.1128
8.57926
31.1099
44.6795
48.8397
44.4232
33.3199
18.1434
1.83742
-12.7232
-23.0865
-27.4939
-25.0406
-15.7164
-0.333386
19.6416
42.3192
65.6509
87.6891
106.812
121.888
132.371
138.309
140.286
139.301
136.605
133.524
131.277
130.834
132.8
137.364
144.289
152.969
162.52
171.897
180.033
185.962
188.932
188.479
184.464
177.068
166.751
154.176
140.122
125.384
110.687
96.6112
83.5478
71.6842
61.0151
51.3797
42.5141
34.1131
25.8894
17.6236
9.19948
0.618778
-8.00202
-16.4531
-24.4651
-31.7503
-38.0442
-43.1415
-46.9226
-49.3666
-50.5497
-50.6314
-49.8301
-48.3922
-46.5606
-44.5452
-42.5011
-40.5159
-38.6071
-36.7304
-34.7953
-32.6865
-30.2875
-27.5023
-24.2734
-20.5918
-16.5012
-12.0925
-7.49295
-2.85063
1.6836
5.97328
9.91068
13.4265
16.4941
19.1276
21.3752
23.3082
25.0086
26.5558
28.0152
29.429
30.8117
32.1489
33.4007
34.5077
35.4001
36.0067
36.265
36.1283
35.5719
34.5954
33.2227
31.4987
29.4834
27.2451
24.8519
22.3641
19.8279
17.2715
14.7032
12.1135
9.47915
6.76917
3.95271
1.00645
-2.07863
-5.29238
-8.60311
-11.9581
-15.2871
-18.508
-21.5347
-24.2855
-26.6914
-28.7038
-30.2991
-31.4822
-32.2858
-32.7676
-33.0046
-33.0851
-33.1003
-33.135
-33.26
-33.5261
-33.9604
-34.5659
-35.3239
-36.1988
-37.144
-38.109
-39.0437
-39.9024
-40.6437
-41.2287
-41.6173
-41.7643
-41.6166
-41.1132
-40.1882
-38.7773
-36.8275
-34.3078
-31.2197
-27.6059
-23.5543
-19.197
-14.7034
-10.2681
-6.09392
-2.37364
0.729136
3.09611
4.66608
5.4408
5.48425
4.91582
3.89856
2.6242
1.29712
0.118958
-0.724427
-1.07304
-0.799543
0.186882
1.939
4.47172
7.7635
11.7588
16.3716
21.4895
26.9797
32.6954
38.483
44.1896
49.6696
54.7898
59.4329
63.4983
66.9006
69.5678
71.4374
72.4549
72.5726
71.7513
69.964
67.2017
63.4797
58.8435
53.3733
47.1842
40.4246
33.2689
25.9081
18.5378
11.3454
4.49817
-1.8659
-7.64434
-12.7721
-17.2193
-20.9867
-24.0974
-26.5893
-28.5068
-29.8943
-30.7919
-31.232
-31.2388
-30.828
-30.0058
-28.7667
-27.0855
-24.903
-22.1006
-18.466
-13.6525
-7.14332
1.7631
13.9249
30.2657
51.6079
78.4336
110.6
147.058
185.646
223.029
254.835
276.034
281.521
266.849
229.005
167.089
82.7843
-19.5084
-132.898
-248.612
-356.904
-448.156
-514.015
-548.409
-548.305
-514.088
-449.533
-361.357
-258.422
-150.7
-48.1447
40.4058
108.134
150.871
167.383
159.29
130.671
87.3952
36.3157
-15.6003
-62.072
-98.1565
-120.683
-128.434
-122.082
-103.905
-77.3371
-46.4308
-15.2972
12.4006
33.8472
47.3288
52.3253
49.4469
40.2383
26.8885
11.8929
-2.28651
-13.5201
-20.2356
-21.5495
-17.2995
-7.9843
5.37078
21.3964
38.5825
55.4739
70.8352
83.7679
93.7718
100.748
104.955
106.919
107.332
106.933
106.406
106.29
106.93
108.447
110.751
113.574
116.529
119.167
121.048
121.794
121.13
118.906
115.105
109.826
103.256
95.6424
87.258
78.3699
69.2205
60.0169
50.9296
42.099
33.6459
25.6828
18.3217
11.6765
5.85996
0.973852
-2.90477
-5.73844
-7.54247
-8.39318
-8.42908
-7.84366
-6.87049
-5.76194
-4.76454
-4.09408
-3.914
-4.31977
-5.33136
-6.89463
-8.89107
-11.1546
-13.493
-15.7108
-17.6318
-19.1174
-20.0799
-20.4889
-20.371
-19.8033
-18.9017
-17.8061
-16.6634
-15.6125
-14.7704
-14.2224
-14.0165
-14.1625
-14.6352
-15.3808
-16.3258
-17.3869
-18.4802
-19.5289
-20.4696
-21.2548
-21.8535
-22.2494
-22.4373
-22.419
-22.1988
-21.7805
-21.1653
-20.3517
-19.3364
-18.1177
-16.6985
-15.0904
-13.3161
-11.4117
-9.42685
-7.42234
-5.4668
-3.63111
-1.98206
-0.575708
0.548686
1.37314
1.90327
2.16787
2.21582
2.11046
1.92233
1.72128
1.56909
1.51373
1.58617
1.79989
2.15297
2.63199
3.21666
3.88413
4.612
5.37966
6.16775
6.95629
7.72201
8.4359
9.06177
9.55644
9.87185
9.95914
9.77391
9.28218
8.46584
7.3269
5.88957
4.19994
2.32303
0.337677
-1.67023
-3.61507
-5.41856
-7.01553
-8.35784
-9.4161
-10.1791
-10.6514
-10.8499
-10.7989
-10.5264
-10.0598
-9.42334
-8.63604
-7.71112
-6.65575
-5.47148
-4.15472
-2.69744
-1.08788
0.688357
2.64678
4.80195
7.16484
9.73988
12.5219
15.4937
18.6243
21.869
25.1713
28.466
31.6854
34.7647
37.6493
40.3003
42.6988
44.8473
46.7687
48.502
50.096
51.6016
53.0645
54.5188
55.9836
57.4624
58.9437
60.4048
61.8145
63.1351
64.3233
65.3284
66.0897
66.5325
66.5658
66.0811
64.9545
63.0529
60.2435
56.4076
51.455
45.3402
38.0762
29.7441
20.4981
10.5618
0.218033
-10.21
-20.3826
-29.9707
-38.6839
-46.2944
-52.6542
-57.703
-61.467
-64.046
-65.5942
-66.2944
-66.332
-65.8692
-65.0251
-63.8588
-62.356
-60.4154
-57.8302
-54.2635
-49.2219
-42.0365
-31.8684
-17.7609
1.24254
25.9065
56.5463
92.74
133.064
174.928
214.569
247.27
267.807
271.094
252.949
210.865
144.643
56.7759
-47.522
-160.674
-273.462
-376.027
-459.016
-514.717
-538.014
-527.032
-483.384
-411.975
-320.409
-218.068
-115.007
-20.7939
56.5361
111.3
140.661
144.75
126.428
90.7443
44.1602
-6.32262
-54.0349
-93.3959
-120.47
-133.276
-131.822
-117.9
-94.6728
-66.1331
-36.511
-9.70772
11.1743
24.1559
28.5321
24.8474
14.7138
0.509446
-14.9933
-29.0166
-39.132
-43.5397
-41.2428
-32.1055
-16.7964
3.36253
26.6148
51.0212
74.7092
96.0881
114.006
127.838
137.492
143.357
146.187
146.961
146.727
146.455
146.924
148.64
151.809
156.34
161.901
167.986
174.006
179.373
183.581
186.252
187.173
186.297
183.714
179.622
174.268
167.905
160.745
152.933
144.532
135.537
125.89
115.516
104.361
92.4278
79.8058
66.6859
53.3615
40.2129
27.6768
16.2053
6.21924
-1.93756
-8.03828
-12.0014
-13.9048
-13.9832
-12.6105
-10.2665
-7.49386
-4.84756
-2.84305
-1.9079
-2.34204
-4.29082
-7.73349
-12.4884
-18.2339
-24.5428
-30.9259
-36.8805
-41.9374
-45.7036
-47.8944
-48.354
-47.0632
-44.1332
-39.7891
-34.3442
-28.1692
-21.6596
-15.2043
-9.15849
-3.82133
0.578705
3.89252
6.05273
7.07071
7.02945
6.07322
4.3949
2.22165
-0.200484
-2.62245
-4.80798
-6.54857
-7.67668
-8.07651
-7.6913
-6.52656
-4.64893
-2.18038
0.711689
3.82779
6.95206
9.86895
12.3793
14.3145
15.547
15.9971
15.6352
14.4805
12.5969
10.0879
7.09108
3.77318
0.324471
-3.0482
-6.13127
-8.71842
-10.6284
-11.7257
-11.9408
-11.2869
-9.86949
-7.88448
-5.60415
-3.35014
-1.4559
-0.223324
0.12059
-0.540181
-2.18818
-4.66831
-7.70383
-10.9312
-13.9488
-16.373
-17.8923
-18.3121
-17.5827
-15.807
-13.2263
-10.1868
-7.0924
-4.35006
-2.3157
-1.24854
-1.27935
-2.39638
-4.45023
-7.17602
-10.2292
-13.23
-15.8095
-17.6532
-18.5347
-18.3376
-17.0627
-14.8211
-11.8146
-8.30667
-4.58865
-0.944846
2.37885
5.19927
7.41112
8.99177
9.99603
10.5425
10.7935
10.9323
11.1394
11.5714
12.3449
13.5264
15.128
17.1109
19.3935
21.8639
24.395
26.86
29.1469
31.1703
32.8794
34.2621
35.3433
36.1802
36.8534
37.4557
38.0799
38.8059
39.6902
40.7565
41.9896
43.3326
44.6853
45.9055
46.8113
47.1851
46.78
45.3307
42.5701
38.2531
32.1863
24.2613
14.4871
3.01566
-9.84498
-23.6345
-37.764
-51.5581
-64.3129
-75.3616
-84.1415
-90.2517
-93.4955
-93.9001
-91.7116
-87.3658
-81.4383
-74.5807
-67.4501
-60.6391
-54.6131
-49.6578
-45.8368
-42.9604
-40.5646
-37.9045
-33.969
-27.5325
-17.2559
-1.85216
19.6821
47.7832
82.0215
120.844
161.428
199.71
230.65
248.716
248.579
225.915
178.201
105.361
10.1406
-101.879
-222.673
-342.532
-451.098
-538.557
-596.794
-620.386
-607.26
-558.961
-480.465
-379.59
-266.076
-150.463
-42.9162
47.8557
115.465
156.386
170.138
159.104
128.026
83.2713
31.9682
-18.8765
-63.1679
-96.3353
-115.708
-120.629
-112.319
-93.5209
-67.9993
-39.9576
-13.4576
8.08957
22.3061
28.0656
25.5343
16.0455
1.83526
-14.3157
-29.4815
-40.9783
-46.6903
-45.2979
-36.3867
-20.4321
1.32721
27.1014
54.8118
82.3654
107.903
129.993
147.753
160.884
169.634
174.691
177.035
177.776
177.991
178.587
180.211
183.194
187.555
193.036
199.168
205.352
210.947
215.343
218.026
218.624
216.93
212.905
206.674
198.491
188.716
177.764
166.069
154.037
142.01
130.234
118.847
107.878
97.2641
86.8774
76.5698
66.214
55.7438
45.183
34.6584
24.3954
14.6949
5.89684
-1.66596
-7.71465
-12.0661
-14.6626
-15.5855
-15.0508
-13.3873
-11.0012
-8.33169
-5.80393
-3.78505
-2.54918
-2.25477
-2.93654
-4.51181
-6.79957
-9.54897
-12.4732
-15.2842
-17.7243
-19.5911
-20.7537
-21.1592
-20.8296
-19.8504
-18.3539
-16.4987
-14.4488
-12.3556
-10.3427
-8.4972
-6.86616
-5.45866
-4.25248
-3.20368
-2.25756
-1.35928
-0.462734
0.463322
1.43227
2.43962
3.46536
4.47782
5.43797
6.30348
7.03174
7.58193
7.91591
7.99885
7.80001
7.29457
6.46717
5.31709
3.86475
2.15838
0.279266
-1.65598
-3.49781
-5.07157
-6.19102
-6.67665
-6.37711
-5.19114
-3.08692
-0.115875
3.58192
7.7823
12.192
16.4728
20.2732
23.2623
25.164
25.7859
25.0393
22.9489
19.6501
15.3738
10.4224
5.13818
-0.131463
-5.06744
-9.40784
-12.9688
-15.6556
-17.4628
-18.4645
-18.7966
-18.6334
-18.1616
-17.5567
-16.9616
-16.4737
-16.1375
-15.9461
-15.8491
-15.7651
-15.5976
-15.2507
-14.644
-13.7232
-12.4664
-10.8856
-9.0234
-6.94556
-4.73108
-2.46083
-0.206457
1.97952
4.07111
6.07331
8.02312
9.987
12.0551
14.3326
16.9292
19.9474
23.4705
27.5522
32.2073
37.4047
43.0634
49.051
55.1856
61.2402
66.9518
72.0327
76.186
79.1243
80.59
80.3775
78.3537
74.4758
68.8034
61.503
52.8429
43.1787
32.9298
22.5477
12.4814
3.14089
-5.1349
-12.1043
-17.6384
-21.7261
-24.4657
-26.0477
-26.7277
-26.7946
-26.5383
-26.2185
-26.0409
-26.1396
-26.5711
-27.3151
-28.2846
-29.3397
-30.3028
-30.9691
-31.1075
-30.4481
-28.6552
-25.2908
-19.7806
-11.4009
0.689081
17.3506
39.2906
66.8172
99.5562
136.183
174.243
210.122
239.245
256.483
256.786
235.929
191.282
122.462
31.7478
-75.8413
-192.85
-310.056
-417.43
-505.265
-565.331
-591.872
-582.341
-537.736
-462.522
-364.125
-252.08
-136.952
-29.1465
62.2079
130.197
170.755
182.935
168.81
133.026
82.0893
23.4895
-35.2211
-87.2842
-127.425
-152.307
-160.72
-153.492
-133.178
-103.569
-69.0994
-34.2466
-2.98105
21.6616
37.8496
45.0492
43.9494
36.245
24.318
10.868
-1.4585
-10.3948
-14.3002
-12.3042
-4.34174
8.91521
26.2099
45.9107
66.246
85.5345
102.381
115.817
125.378
131.103
133.48
133.33
131.669
129.546
127.902
127.447
128.577
131.345
135.474
140.416
145.445
149.767
152.635
153.451
151.844
147.708
141.209
132.747
122.891
112.292
101.59
91.3301
81.8943
73.4703
66.0478
59.4487
53.3816
47.5109
41.5278
35.2127
28.478
21.3871
14.1465
7.07459
0.55305
-5.03155
-9.34576
-12.1589
-13.3773
-13.0589
-11.4076
-8.74772
-5.4852
-2.05889
1.10909
3.65863
5.32637
5.96655
5.55626
4.18593
2.03771
-0.64427
-3.58713
-6.52154
-9.20923
-11.4633
-13.1599
-14.2413
-14.7116
-14.6272
-14.0828
-13.1978
-12.1017
-10.9223
-9.77734
-8.76745
-7.97357
-7.4556
-7.25292
-7.38571
-7.85662
-8.65243
-9.74563
-11.0958
-12.6512
-14.3502
-16.1233
-17.8953
-19.5881
-21.1239
-22.4282
-23.4343
-24.0862
-24.3424
-24.1788
-23.5909
-22.5944
-21.2249
-19.5359
-17.5956
-15.482
-13.2781
-11.0666
-8.92473
-6.91988
-5.10656
-3.52428
-2.19674
-1.13225
-0.325047
0.242546
0.597554
0.773455
0.80729
0.736932
0.598663
0.425203
0.244266
0.0777603
-0.0582255
-0.152541
-0.197109
-0.184225
-0.10339
0.0616347
0.334786
0.747888
1.33862
2.14619
3.2052
4.53849
6.15023
8.02036
10.1015
12.3189
14.5743
16.7521
18.7288
20.3834
21.608
22.3177
22.4581
22.0096
20.9888
19.4465
17.4616
15.1338
12.5741
9.89551
7.20418
4.59344
2.14019
-0.0955111
-2.06807
-3.74216
-5.08779
-6.07602
-6.67635
-6.85666
-6.58571
-5.83808
-4.60039
-2.87784
-0.699648
1.87771
4.77023
7.86949
11.049
14.173
17.1073
19.7303
21.9434
23.6798
24.9107
25.6476
25.9417
25.8791
25.5725
25.15
24.7401
24.4553
24.3736
24.5203
24.8504
25.2371
25.4659
25.2403
24.2003
21.9538
18.1192
12.377
4.52128
-5.49276
-17.5142
-31.18
-45.9224
-60.9997
-75.5519
-88.6743
-99.5034
-107.304
-111.547
-111.969
-108.609
-101.804
-92.1629
-80.5036
-67.7738
-54.9545
-42.9617
-32.5554
-24.261
-18.3104
-14.6025
-12.6864
-11.765
-10.7237
-8.1881
-2.61847
7.54834
23.7058
46.8366
77.2417
114.277
156.146
199.817
241.105
274.962
295.98
299.051
280.115
236.878
169.391
80.3544
-24.8944
-138.772
-252.162
-355.384
-439.281
-496.287
-521.324
-512.408
-470.885
-401.264
-310.68
-208.06
-103.101
-5.19885
77.5389
139.09
176.028
187.7
176.09
145.375
101.28
50.3023
-1.08729
-47.1636
-83.5152
-107.404
-117.891
-115.739
-103.122
-83.1886
-59.567
-35.8515
-15.1546
0.234289
9.05117
11.1085
7.2041
-1.08657
-11.6973
-22.3926
-31.0802
-36.0749
-36.285
-31.305
-21.411
-7.46861
9.22743
27.1551
44.7793
60.7486
74.053
84.1222
90.8593
94.6091
96.0714
96.1746
95.9302
96.2884
98.0136
101.595
107.203
114.683
123.607
133.337
143.128
152.22
159.937
165.755
169.352
170.62
169.66
166.736
162.228
156.562
150.149
143.326
136.316
129.209
121.952
114.373
106.217
97.1858
86.9996
75.4424
62.4087
47.9337
32.2077
15.5712
-1.50762
-18.4712
-34.7224
-49.6789
-62.8277
-73.7721
-82.2665
-88.2357
-91.7762
-93.1402
-92.7046
-90.9282
-88.3032
-85.306
-82.3521
-79.7618
-77.7372
-76.3544
-75.5706
-75.2424
-75.1547
-75.054
-74.6836
-73.8147
-72.2718
-69.9496
-66.8196
-62.9283
-58.387
-53.3562
-48.026
-42.5959
-37.2552
-32.1671
-27.4563
-23.2029
-19.4397
-16.1563
-13.3062
-10.8172
-8.60393
-6.58004
-4.66989
-2.81747
-0.992098
0.810036
2.56824
4.24327
5.78586
7.14632
8.28388
9.17413
9.81362
10.2206
10.432
10.4971
10.4687
10.394
10.3054
10.2142
10.108
9.95176
9.6931
9.27075
8.62497
7.70803
6.49329
4.98114
3.20091
1.20852
-0.919821
-3.09662
-5.23326
-7.24958
-9.08112
-10.6831
-12.0305
-13.1145
-13.9372
-14.504
-14.8185
-14.8778
-14.6728
-14.1899
-13.4172
-12.3507
-11.0019
-9.40284
-7.60881
-5.69734
-3.76337
-1.91118
-0.244156
1.14607
2.18975
2.84684
3.11146
3.01256
2.61062
1.99112
1.25554
0.511308
-0.13817
-0.602214
-0.809319
-0.710858
-0.281872
0.480823
1.56259
2.93618
4.56732
6.41982
8.45967
10.6578
12.9912
15.4438
18.0052
20.6705
23.4393
26.3153
29.3059
32.4211
35.6731
39.0735
42.63
46.3422
50.1963
54.1604
58.1809
62.1811
66.0634
69.7143
73.0131
75.8432
78.1039
79.7213
80.656
80.9069
80.5079
79.5209
78.0223
76.0889
73.7822
71.1349
68.1414
64.7524
60.8757
56.3821
51.1179
44.9217
37.6468
29.1861
19.496
8.61793
-3.30687
-16.0331
-29.2185
-42.4429
-55.2391
-67.1309
-77.676
-86.5068
-93.3656
-98.1287
-100.817
-101.593
-100.738
-98.625
-95.6746
-92.3099
-88.9083
-85.7526
-82.9839
-80.5554
-78.1883
-75.3347
-71.1566
-64.5356
-54.1344
-38.5262
-16.4061
13.1236
50.2199
93.9735
142.163
191.165
236.094
271.198
290.497
288.604
261.601
207.835
128.486
27.7798
-87.2196
-207.236
-321.766
-420.286
-493.523
-534.593
-539.865
-509.411
-446.989
-359.576
-256.492
-148.28
-45.4535
42.6864
109.044
149.402
162.703
150.947
118.723
72.4595
19.5259
-32.7175
-77.7827
-110.738
-128.644
-130.703
-118.14
-93.8484
-61.8623
-26.7458
7.02373
35.5993
56.1764
67.2352
68.6006
61.3322
47.4735
29.7075
10.9696
-5.93133
-18.6367
-25.4748
-25.5905
-18.9635
-6.32484
11.0069
31.3412
52.8522
73.8035
92.7378
108.61
120.852
129.378
134.521
136.93
137.44
136.932
136.209
135.895
136.371
137.755
139.919
142.535
145.151
147.265
148.409
148.208
146.419
142.949
137.843
131.255
123.405
114.539
104.896
94.6779
84.0517
73.1521
62.1018
51.0335
40.1101
29.536
19.5577
10.4499
2.49109
-4.06843
-9.041
-12.3312
-13.9562
-14.0516
-12.8627
-10.7203
-8.00524
-5.10698
-2.38094
-0.112025
1.5111
2.40738
2.59885
2.19136
1.34387
0.231595
-0.990808
-2.21972
-3.42163
-4.63768
-5.97281
-7.57175
-9.58574
-12.1359
-15.2797
-18.9859
-23.1233
-27.4646
-31.7062
-35.5
-38.4945
-40.3772
-40.9141
-39.9804
-37.5781
-33.8386
-29.0105
-23.4347
-17.5091
-11.6491
-6.24731
-1.63774
1.93186
4.31732
5.48364
5.49903
4.51909
2.76347
0.488383
-2.04149
-4.57825
-6.91026
-8.87418
-10.3588
-11.302
-11.6819
-11.5068
-10.8044
-9.61485
-7.98729
-5.98093
-3.66903
-1.14387
1.47952
4.06294
6.44933
8.47215
9.96913
10.7988
10.8574
10.094
8.52103
6.21818
3.32967
0.0535548
-3.3752
-6.70632
-9.69811
-12.1408
-13.8767
-14.8152
-14.9401
-14.309
-13.0453
-11.3226
-9.3441
-7.31937
-5.44141
-3.86641
-2.6989
-1.98389
-1.70661
-1.79959
-2.15575
-2.64531
-3.13409
-3.50044
-3.64868
-3.51743
-3.08228
-2.35335
-1.36891
-0.18685
1.12396
2.49112
3.84366
5.1145
6.24061
7.16192
7.82021
8.15924
8.12699
7.68068
6.79397
5.46575
3.72866
1.65592
-0.63532
-2.98536
-5.19858
-7.05546
-8.32914
-8.80521
-8.30267
-6.69372
-3.91997
-0.00284104
4.95349
10.7674
17.1933
23.9413
30.7025
37.1754
43.0913
48.2363
52.4672
55.7193
58.0072
59.4173
60.0941
60.2211
60
59.6284
59.2796
59.0858
59.1254
59.416
59.9123
60.5092
61.0491
61.3348
61.1448
60.2538
58.454
55.578
51.5192
46.2493
39.8275
32.4024
24.2038
15.5255
6.70009
-1.93091
-10.048
-17.3829
-23.741
-29.017
-33.199
-36.3645
-38.6656
-40.3091
-41.5299
-42.564
-43.6198
-44.852
-46.3368
-48.0501
-49.8468
-51.4413
-52.388
-52.0648
-49.6634
-44.1979
-34.5445
-19.53
1.91932
30.5637
66.5843
109.301
156.926
206.424
253.534
293.019
319.129
326.275
309.818
266.869
196.964
102.49
-11.2314
-136.272
-262.801
-380.102
-477.785
-547.002
-581.533
-578.557
-539.024
-467.55
-371.881
-261.966
-148.789
-43.1096
45.7309
110.787
148.152
157.209
140.478
103.094
52.0184
-4.91817
-59.9993
-106.516
-139.464
-155.978
-155.469
-139.471
-111.248
-75.2252
-36.3322
0.653558
31.6799
53.8504
65.6711
67.1004
59.4165
44.9342
26.6229
7.68086
-8.87622
-20.5631
-25.6727
-23.4025
-13.859
2.04934
22.8034
46.5158
71.1892
94.9566
116.276
134.062
147.746
157.268
163.005
165.66
166.128
165.351
164.197
163.359
163.291
164.19
166.001
168.468
171.194
173.711
175.552
176.312
175.688
173.501
169.702
164.351
157.594
149.629
140.665
130.9
120.496
109.579
98.2401
86.555
74.6082
62.5147
50.4394
38.6043
27.2842
16.788
7.4291
-0.511259
-6.82191
-11.3944
-14.2443
-15.5175
-15.4791
-14.4852
-12.9436
-11.2653
-9.81747
-8.88155
-8.62467
-9.08645
-10.1834
-11.7292
-13.4678
-15.1133
-16.3917
-17.078
-17.0245
-16.1769
-14.5764
-12.3496
-9.68745
-6.81777
-3.9744
-1.36831
0.836291
2.53792
3.70464
4.37145
4.62971
4.6105
4.46497
4.34433
4.38236
4.682
5.30723
6.27978
7.58009
9.15123
10.9048
12.7279
14.4913
16.0584
17.295
18.0801
18.3172
17.9443
16.9425
15.3412
13.2184
10.6969
7.93449
5.1107
2.40982
0.00325898
-1.96735
-3.40426
-4.26327
-4.55782
-4.35722
-3.77921
-2.97769
-2.1272
-1.40562
-0.977021
-0.976376
-1.4975
-2.58542
-4.23366
-6.38672
-8.94724
-11.7871
-14.7615
-17.7234
-20.5388
-23.0986
-25.3279
-27.1901
-28.6866
-29.8514
-30.7425
-31.4309
-31.9891
-32.4809
-32.954
-33.4357
-33.9332
-34.4361
-34.9214
-35.3594
-35.7186
-35.969
-36.0839
-36.0388
-35.8097
-35.3715
-34.6956
-33.7503
-32.5002
-30.9072
-28.9313
-26.5315
-23.6676
-20.302
-16.4039
-11.9549
-6.95501
-1.43041
4.56058
10.9234
17.5272
24.2086
30.7815
37.049
42.8194
47.9211
52.2166
55.6107
58.0551
59.5451
60.1128
59.8149
58.7203
56.8979
54.4071
51.2933
47.5885
43.3161
38.4994
33.1719
27.3866
21.2229
14.7895
8.22249
1.6782
-4.67758
-10.6834
-16.1969
-21.1083
-25.3514
-28.9104
-31.822
-34.1726
-36.09
-37.732
-39.2719
-40.8825
-42.7204
-44.9111
-47.5376
-50.631
-54.1649
-58.0526
-62.1449
-66.2273
-70.0133
-73.1304
-75.1005
-75.3141
-73.0082
-67.2584
-57.0035
-41.1209
-18.5661
11.4188
49.0428
93.6821
143.63
195.944
246.455
289.98
320.765
333.122
322.186
284.706
219.724
129.026
17.2723
-108.252
-238.262
-362.396
-470.341
-552.983
-603.461
-617.949
-596.08
-540.96
-458.767
-358.004
-248.502
-140.318
-42.6501
37.0815
93.9016
125.62
132.829
118.586
87.8398
46.6902
1.58505
-41.4439
-77.4184
-102.86
-116.011
-116.824
-106.747
-88.3576
-64.8989
-39.7883
-16.1672
3.46484
17.4913
25.2833
27.1687
24.2858
18.3532
11.392
5.43999
2.29225
3.29676
9.22323
20.2134
35.8106
55.0575
76.6446
99.0863
120.903
140.786
157.728
171.108
180.721
186.755
189.727
190.381
189.57
188.133
186.791
186.065
186.224
187.285
189.029
191.062
192.885
193.977
193.867
192.197
188.76
183.508
176.545
168.086
158.418
147.846
136.648
125.047
113.192
101.169
89.0144
76.7484
64.4057
52.0611
39.8442
27.9395
16.5719
5.98132
-3.60838
-12.0206
-19.1506
-24.9803
-29.5793
-33.094
-35.7262
-37.7049
-39.2564
-40.5764
-41.8092
-43.0358
-44.2711
-45.4721
-46.552
-47.4012
-47.908
-47.9793
-47.5561
-46.6241
-45.2166
-43.4112
-41.321
-39.0815
-36.8355
-34.7165
-32.8339
-31.2592
-30.0163
-29.0754
-28.3533
-27.7185
-27.003
-26.0195
-24.5812
-22.5243
-19.7287
-16.1348
-11.7551
-6.67745
-1.06072
4.87733
10.8785
16.667
21.9734
26.5581
30.2317
32.8684
34.4146
34.8893
34.3773
33.0182
30.9892
28.4878
25.7119
22.8434
20.0334
17.3927
14.9874
12.8392
10.9323
9.22307
7.65298
6.16282
4.70535
3.25562
1.81724
0.423804
-0.864395
-1.96821
-2.80078
-3.28054
-3.34455
-2.96012
-2.13331
-0.912968
0.610457
2.31119
4.03905
5.63361
6.94006
7.82482
8.18909
7.97874
7.18937
5.86605
4.09773
2.00719
-0.262402
-2.56253
-4.75443
-6.72249
-8.38461
-9.69855
-10.6639
-11.3193
-11.7365
-12.01
-12.2464
-12.5513
-13.0179
-13.7157
-14.6824
-15.9181
-17.3828
-18.9976
-20.6496
-22.2005
-23.4971
-24.3846
-24.7208
-24.3889
-23.3094
-21.4482
-18.8206
-15.4904
-11.5644
-7.18203
-2.50305
2.30716
7.09105
11.7103
16.0533
20.0383
23.612
26.7442
29.4193
31.6281
33.3591
34.5927
35.299
35.4391
34.9702
33.8538
32.0643
29.5978
26.4789
22.764
18.541
13.925
9.05071
4.06213
-0.898004
-5.69917
-10.2321
-14.4158
-18.2011
-21.5723
-24.5447
-27.1607
-29.4825
-31.5823
-33.5306
-35.3825
-37.1634
-38.8571
-40.3964
-41.6603
-42.4773
-42.6352
-41.8951
-40.0045
-36.7055
-31.7318
-24.7926
-15.547
-3.57636
11.627
30.6369
54.0157
82.1717
115.155
152.415
192.564
233.213
270.932
301.404
319.79
321.281
301.806
258.755
191.631
102.484
-3.9709
-120.601
-238.471
-347.77
-438.913
-503.687
-536.268
-533.961
-497.558
-431.27
-342.224
-239.614
-133.612
-34.1963
49.9623
112.399
149.453
160.486
147.738
115.838
71.0704
20.4968
-28.9432
-71.2424
-101.953
-118.57
-120.639
-109.608
-88.4518
-61.1456
-32.0587
-5.35385
15.5351
28.2889
31.9154
26.7772
14.4451
-2.59006
-21.3009
-38.5475
-51.4858
-57.9112
-56.4986
-46.917
-29.8122
-6.66915
20.4199
49.0475
76.8012
101.552
121.687
136.26
145.043
148.496
147.639
143.872
138.767
133.848
130.4
129.332
131.09
135.643
142.531
150.957
159.928
168.387
175.365
180.085
182.055
181.095
177.34
171.193
163.251
154.216
144.795
135.611
127.133
119.624
113.126
107.47
102.318
97.2143
91.6671
85.2167
77.5063
68.334
57.686
45.7435
32.8667
19.5571
6.40374
-5.97918
-17.0157
-26.2253
-33.2667
-37.9655
-40.3222
-40.5013
-38.8054
-35.6362
-31.4501
-26.7117
-21.8517
-17.2333
-13.1291
-9.70972
-7.04486
-5.11477
-3.8291
-3.0507
-2.62058
-2.38121
-2.19542
-1.95932
-1.60853
-1.11782
-0.495279
0.227532
1.00742
1.80157
2.57795
3.32283
4.04453
4.77338
5.55787
6.45803
7.53683
8.85069
10.4401
12.3211
14.4779
16.8583
19.3708
21.8853
24.2387
26.2439
27.7044
28.4313
28.2645
27.0918
24.8671
21.6226
17.4743
12.6184
7.31949
1.89103
-3.33001
-8.01151
-11.8545
-14.6184
-16.1416
-16.3544
-15.2851
-13.0583
-9.88645
-6.05484
-1.9019
2.20455
5.89351
8.81771
10.6795
11.2537
10.4051
8.09912
4.40431
-0.513701
-6.40642
-12.963
-19.835
-26.6616
-33.0944
-38.8179
-43.5651
-47.1289
-49.369
-50.2161
-49.6744
-47.8221
-44.8106
-40.8612
-36.2567
-31.329
-26.4398
-21.9563
-18.2222
-15.5275
-14.0799
-13.9817
-15.2151
-17.6391
-20.9988
-24.9468
-29.0754
-32.9551
-36.1765
-38.3903
-39.3404
-38.8875
-37.0189
-33.8451
-29.5828
-24.5257
-19.009
-13.3692
-7.90625
-2.85116
1.65627
5.57781
8.97395
11.9887
14.8246
17.711
20.8703
24.4865
28.6799
33.49
38.8697
44.6893
50.7496
56.8021
62.5726
67.7866
72.1916
75.577
77.787
78.7288
78.3737
76.7534
73.9519
70.094
65.3324
59.8345
53.7694
47.2979
40.5636
33.6876
26.7666
19.8728
13.0571
6.35406
-0.211852
-6.61965
-12.8452
-18.856
-24.607
-30.0392
-35.08
-39.6456
-43.6446
-46.9817
-49.5606
-51.2827
-52.0411
-51.7063
-50.1029
-46.9773
-41.9602
-34.5321
-24.0065
-9.54887
9.74755
34.7145
65.8881
103.232
145.848
191.735
237.666
279.26
311.274
328.135
324.653
296.835
242.662
162.704
60.4386
-57.809
-183.332
-305.881
-414.775
-500.136
-554.08
-571.695
-551.666
-496.46
-412.051
-307.215
-192.498
-79.0053
22.8511
104.464
159.887
186.333
184.278
157.179
110.861
52.678
-9.43957
-67.9313
-116.427
-150.358
-167.302
-167.045
-151.377
-123.675
-88.3367
-50.1528
-13.697
17.1951
39.8066
52.7459
55.9764
50.6815
39.0003
23.679
7.68544
-6.16114
-15.5063
-18.6902
-14.874
-4.05844
12.9943
34.9187
59.9552
86.1812
111.736
135.012
154.797
170.357
181.449
188.286
191.449
191.769
190.201
187.691
185.075
182.986
181.818
181.704
182.537
184.015
185.701
187.089
187.667
186.981
184.668
180.493
174.349
166.264
156.377
144.922
132.2
118.551
104.336
89.9142
75.6302
61.8035
48.7214
36.6332
25.7442
16.2096
8.12713
1.53122
-3.61169
-7.40332
-10.0086
-11.6447
-12.5634
-13.0298
-13.2972
-13.5832
-14.0488
-14.7831
-15.7972
-17.0257
-18.3388
-19.5607
-20.4941
-20.9464
-20.7555
-19.8103
-18.0655
-15.5471
-12.3497
-8.62605
-4.56992
-0.395381
3.68462
7.47807
10.8294
13.6292
15.8172
17.3789
18.3366
18.7371
18.6382
18.0967
17.1601
15.8637
14.2331
12.2924
10.0737
7.62929
5.03933
2.4161
-0.09859
-2.34253
-4.1481
-5.3611
-5.86081
-5.57822
-4.50969
-2.72374
-0.359821
2.38102
5.25253
7.98459
10.3072
11.9747
12.7877
12.6118
11.3918
9.16069
6.04141
2.24303
-1.95186
-6.20738
-10.1622
-13.4632
-15.8018
-16.9493
-16.7868
-15.3241
-12.7062
-9.20393
-5.18914
-1.09827
2.61329
5.51935
7.26817
7.61923
6.4671
3.85002
-0.0575501
-4.96677
-10.5078
-16.27
-21.8448
-26.866
-31.0427
-34.1839
-36.2096
-37.1509
-37.1369
-36.3727
-35.1092
-33.6098
-32.118
-30.8297
-29.8742
-29.306
-29.1078
-29.2038
-29.4805
-29.8106
-30.0762
-30.1869
-30.0908
-29.7752
-29.2599
-28.5824
-27.78
-26.8725
-25.8474
-24.6526
-23.1972
-21.36
-19.005
-16.002
-12.247
-7.68238
-2.30953
3.80412
10.5277
17.6779
25.0368
32.3749
39.4756
46.1585
52.2968
57.8287
62.7589
67.1511
71.1123
74.7707
78.2504
81.6463
85.0031
88.3003
91.4462
94.2812
96.5903
98.1234
98.6208
97.842
95.5928
91.7495
86.276
79.2323
70.7732
61.1375
50.6285
39.589
28.372
17.3132
6.70548
-3.21992
-12.3054
-20.4703
-27.706
-34.0646
-39.6418
-44.5565
-48.931
-52.8719
-56.4561
-59.7215
-62.6645
-65.2435
-67.3859
-68.9984
-69.9742
-70.1945
-69.5179
-67.7565
-64.6364
-59.7523
-52.5284
-42.2066
-27.8869
-8.64147
16.2899
47.2325
83.7744
124.489
166.759
206.764
239.706
260.254
263.206
244.266
200.827
132.621
42.1193
-65.4232
-182.311
-299.124
-405.718
-492.388
-551.032
-576.147
-565.525
-520.551
-446.046
-349.711
-241.21
-131.049
-29.3787
55.1111
116.085
150.131
156.958
139.212
101.961
51.9318
-3.39696
-56.7171
-101.722
-133.746
-150.161
-150.482
-136.216
-110.477
-77.4486
-41.7607
-7.8772
20.4407
40.5321
51.0609
52.0575
44.7888
31.4895
15.0005
-1.63304
-15.5529
-24.4205
-26.6579
-21.5767
-9.38869
8.89189
31.6324
56.8239
82.3464
106.224
126.841
143.095
154.475
161.063
163.462
162.669
159.907
156.451
153.459
151.83
152.115
154.469
158.672
164.181
170.235
175.967
180.529
183.206
183.492
181.151
176.22
168.99
159.942
149.67
138.792
127.862
117.306
107.374
98.1256
89.456
81.1346
72.8717
64.3882
55.4815
46.0754
36.2477
26.2303
16.3843
7.15228
-1.00124
-7.65523
-12.4913
-15.3394
-16.204
-15.267
-12.8684
-9.46776
-5.59125
-1.7729
1.50349
3.85408
5.03062
4.93857
3.63622
1.31621
-1.72735
-5.1411
-8.55838
-11.6431
-14.1263
-15.8314
-16.6865
-16.7222
-16.0576
-14.8767
-13.3982
-11.8449
-10.4149
-9.25862
-8.46505
-8.05674
-7.99461
-8.19059
-8.52585
-8.87169
-9.10993
-9.15014
-8.94149
-8.47793
-7.79663
-6.97016
-6.09407
-5.27185
-4.59965
-4.15273
-3.97569
-4.07727
-4.43034
-4.97653
-5.63463
-6.31128
-6.91234
-7.3536
-7.56948
-7.51897
-7.18843
-6.59128
-5.76503
-4.7662
-3.664
-2.53338
-1.44818
-0.474944
0.332371
0.936334
1.31857
1.48073
1.44375
1.2456
0.937459
0.578524
0.229972
-0.0516375
-0.220796
-0.248604
-0.126698
0.131114
0.489957
0.89782
1.292
1.60729
1.78496
1.78113
1.57345
1.16501
0.584844
-0.115085
-0.866078
-1.59118
-2.21478
-2.67204
-2.91675
-2.92672
-2.7058
-2.28246
-1.70489
-1.03347
-0.331226
0.346163
0.959889
1.49563
1.96831
2.42324
2.93336
3.59255
4.50575
5.77678
7.49543
9.72519
12.4936
15.7863
19.5461
23.6771
28.0542
32.536
36.9815
41.2662
45.2975
49.0274
52.459
55.6474
58.693
61.7284
64.8986
68.3377
72.1419
76.3456
80.8999
85.6606
90.387
94.7535
98.3756
100.847
101.782
100.864
97.8875
92.7848
85.6458
76.7141
66.3665
55.0768
43.3689
31.7634
20.7273
10.6307
1.71673
-5.91194
-12.2898
-17.5694
-21.9894
-25.835
-29.3959
-32.9256
-36.609
-40.5386
-44.7045
-48.9968
-53.2202
-57.1191
-60.4087
-62.8073
-64.0648
-63.9796
-62.3998
-59.2021
-54.2518
-47.3469
-38.1614
-26.2064
-10.835
8.68637
33.0255
62.5509
97.045
135.414
175.467
213.83
246.081
267.104
271.685
255.255
214.696
149.06
60.0744
-47.6826
-166.999
-288.646
-402.323
-497.817
-566.222
-601.033
-598.97
-560.419
-489.408
-393.146
-281.176
-164.263
-53.1677
42.5441
115.491
161.171
178.269
168.589
136.605
88.7493
32.5144
-24.4961
-75.4483
-114.991
-139.725
-148.401
-141.83
-122.56
-94.3768
-61.6933
-28.9357
0.0145758
22.2528
36.1172
41.2728
38.621
30.0632
18.1616
5.74894
-4.45873
-10.1995
-9.91544
-2.89207
10.7198
29.9922
53.3964
79.0384
104.919
129.181
150.318
167.322
179.75
187.716
191.823
193.026
192.481
191.37
190.752
191.437
193.906
198.281
204.343
211.586
219.309
226.715
233.011
237.502
239.652
239.122
235.775
229.658
220.963
209.972
197.018
182.435
166.538
149.613
131.923
113.728
95.3063
76.9761
59.1028
42.0943
26.3799
12.3746
0.435161
-9.18528
-16.3766
-21.1973
-23.8809
-24.8219
-24.5406
-23.6321
-22.7054
-22.3203
-22.9301
-24.838
-28.1707
-32.8729
-38.7233
-45.3665
-52.3594
-59.2237
-65.4983
-70.7866
-74.7925
-77.3428
-78.3947
-78.0279
-76.4253
-73.8447
-70.5845
-66.9506
-63.2245
-59.6391
-56.3615
-53.4858
-51.0339
-48.9648
-47.1888
-45.5855
-44.0233
-42.3773
-40.5442
-38.4532
-36.0719
-33.407
-30.5003
-27.4212
-24.257
-21.1019
-18.0468
-15.1705
-12.5337
-10.1754
-8.11298
-6.34434
-4.85187
-3.60774
-2.57915
-1.73296
-1.03908
-0.472353
-0.0128808
0.354955
0.644298
0.867913
1.03999
1.17715
1.29841
1.42382
1.57224
1.75833
1.98962
2.26402
2.5687
2.88039
3.16762
3.39439
3.52516
3.53018
3.39052
3.10187
2.6764
2.14225
1.54069
0.921123
0.334743
-0.172243
-0.5648
-0.823693
-0.947824
-0.953886
-0.873343
-0.747184
-0.619214
-0.528933
-0.505088
-0.560907
-0.691716
-0.875298
-1.07488
-1.24424
-1.33405
-1.29845
-1.10087
-0.718047
-0.14182
0.621787
1.55604
2.63926
3.85236
5.18725
6.65488
8.29168
10.1628
12.3609
14.9994
18.201
22.0812
26.7301
32.1933
38.4561
45.4324
52.9614
60.8111
68.6912
76.2715
83.2058
89.1559
93.8159
96.9308
98.31
97.8343
95.4571
91.202
85.1579
77.4736
68.3527
58.0484
46.8569
35.1106
23.1659
11.3899
0.141323
-10.2488
-19.4984
-27.3932
-33.8012
-38.6814
-42.084
-44.1437
-45.0642
-45.098
-44.5216
-43.6105
-42.6151
-41.7418
-41.1394
-40.8914
-41.0142
-41.4581
-42.1066
-42.7707
-43.1739
-42.9267
-41.4969
-38.1833
-32.1128
-22.2798
-7.64926
12.6665
39.1612
71.6463
108.973
148.831
187.698
220.995
243.479
249.855
235.528
197.398
134.568
48.8071
-55.2999
-170.608
-288.044
-397.554
-489.243
-554.55
-587.294
-584.436
-546.469
-477.358
-384.068
-275.734
-162.59
-54.8112
38.5994
110.724
157.354
177.261
172.101
145.987
104.814
55.4291
4.75422
-41.0102
-77.0288
-100.247
-109.551
-105.678
-90.9062
-68.5908
-42.6126
-16.8187
5.47504
21.8622
31.07
33.0139
28.6932
19.9537
9.16195
-1.16084
-8.69318
-11.6118
-8.80028
0.051286
14.4599
33.2647
54.8217
77.2457
98.6657
117.46
132.44
142.971
149.001
151.028
149.987
147.093
143.667
140.95
139.952
141.337
145.366
151.888
160.39
170.084
180.025
189.228
196.793
201.996
204.355
203.661
199.97
193.563
184.885
174.468
162.856
150.536
137.889
125.169
112.5
99.9061
87.3527
74.7947
62.2259
49.7156
37.4272
25.615
14.6007
4.73323
-3.66114
-10.3284
-15.1285
-18.062
-19.2768
-19.0538
-17.7754
-15.8798
-13.8097
-11.9618
-10.6445
-10.0486
-10.2351
-11.1389
-12.5891
-14.3397
-16.1083
-17.6153
-18.6206
-18.9516
-18.5217
-17.3364
-15.488
-13.1401
-10.505
-7.81581
-5.29891
-3.14757
-1.50103
-0.430352
0.0677742
0.0688932
-0.288989
-0.821504
-1.31843
-1.56642
-1.37162
-0.580279
0.904436
3.11057
5.99134
9.4254
13.2237
17.1427
20.9034
24.2144
26.7981
28.4161
28.893
28.1336
26.1337
22.9813
18.8489
13.9768
8.65019
3.17288
-2.16046
-7.08888
-11.4047
-14.9659
-17.7012
-19.6066
-20.7364
-21.1886
-21.0891
-20.5745
-19.7774
-18.8151
-17.7824
-16.7487
-15.7594
-14.8399
-14.0015
-13.2476
-12.5794
-11.9993
-11.5129
-11.1277
-10.8511
-10.6862
-10.6282
-10.6614
-10.7575
-10.8763
-10.9689
-10.9817
-10.8627
-10.5677
-10.0652
-9.34056
-8.39659
-7.25283
-5.94197
-4.50557
-2.98971
-1.44187
0.0902308
1.55766
2.90788
4.08199
5.0135
5.63003
5.85911
5.63805
4.92686
3.72197
2.06805
0.0650901
-2.1315
-4.31898
-6.26332
-7.7215
-8.4672
-8.31632
-7.14836
-4.92049
-1.67188
2.48275
7.36945
12.7794
18.4972
24.3299
30.1308
35.8159
41.3693
46.8374
52.3122
57.9079
63.7321
69.8593
76.3075
83.0237
89.8791
96.6742
103.153
109.024
113.986
117.75
120.063
120.722
119.585
116.572
111.664
104.897
96.3571
86.1801
74.5507
61.7092
47.9576
33.6641
19.262
5.2383
-7.88751
-19.5978
-29.4193
-36.9706
-42.0081
-44.4645
-44.4719
-42.3671
-38.6737
-34.0628
-29.2937
-25.1398
-22.3057
-21.3421
-22.5662
-25.9919
-31.2777
-37.696
-44.1334
-49.1296
-50.9668
-47.8199
-37.972
-20.0911
6.45438
41.2824
82.7443
127.799
172.08
210.185
236.211
244.465
230.293
190.877
125.891
37.8703
-67.7727
-183.136
-298.585
-403.794
-488.931
-545.837
-569.027
-556.372
-509.379
-433.016
-335.121
-225.47
-114.628
-12.7455
71.5568
132.071
165.557
171.909
153.947
116.873
67.4772
13.224
-38.6778
-82.0927
-112.578
-127.743
-127.327
-113.012
-88.0116
-56.5157
-23.0677
8.04178
33.2896
50.2898
57.9846
56.6528
47.7485
33.6093
17.0809
1.11208
-11.6253
-19.0485
-19.8738
-13.7093
-1.02736
16.967
38.5479
61.7266
84.518
105.184
122.421
135.48
144.197
148.953
150.566
150.133
148.857
147.87
148.085
150.084
154.062
159.82
166.813
174.234
181.13
186.527
189.548
189.52
186.044
179.031
168.706
155.564
140.313
123.78
106.829
90.2664
74.7699
60.8381
48.7653
38.6435
30.3882
23.781
18.5211
14.2786
10.7398
7.64108
4.78752
2.05604
-0.614035
-3.23889
-5.81163
-8.32221
-10.7721
-13.1814
-15.5875
-18.0367
-20.5706
-23.2108
-25.9445
-28.7143
-31.4146
-33.8958
-35.9747
-37.4529
-38.1385
-37.8699
-36.5382
-34.1067
-30.6221
-26.2192
-21.1151
-15.5933
-9.98065
-4.61604
0.183089
4.1539
7.11605
8.99024
9.80456
9.6873
8.84724
7.54405
6.05332
4.63139
3.48506
2.75047
2.4836
2.66328
3.20524
3.98426
4.86046
5.70519
6.42247
6.96267
7.32683
7.56118
7.74351
7.96396
8.30373
8.81552
9.50895
10.3435
11.2296
12.039
12.6201
12.8194
12.5027
11.5742
9.99161
7.77344
4.99924
1.80219
-1.64438
-5.14481
-8.50077
-11.5304
-14.0846
-16.0595
-17.4029
-18.1152
-18.2458
-17.8842
-17.1485
-16.1722
-15.0911
-14.0312
-13.0981
-12.3702
-11.8939
-11.683
-11.7199
-11.9602
-12.3391
-12.7785
-13.1957
-13.5111
-13.656
-13.5784
-13.2478
-12.6571
-11.8233
-10.7843
-9.59531
-8.32173
-7.03201
-5.78936
-4.64398
-3.6265
-2.7435
-1.97572
-1.27929
-0.589947
0.170118
1.08367
2.229
3.67086
5.45279
7.59176
10.0759
12.8653
15.8963
19.0884
22.3531
25.6038
28.7653
31.7818
34.6225
37.2839
39.7882
42.1784
44.5109
46.8463
49.2395
51.7312
54.341
57.0643
59.8714
62.7113
65.5163
68.2098
70.7133
72.9526
74.8624
76.3878
77.4827
78.1054
78.2125
77.7519
76.6574
74.8467
72.2242
68.6891
64.1496
58.54
51.8393
44.088
35.3985
25.9582
16.0226
5.89812
-4.08231
-13.5901
-22.3327
-30.0824
-36.6986
-42.1399
-46.4639
-49.8158
-52.4062
-54.4805
-56.2857
-58.0369
-59.8885
-61.9124
-64.085
-66.2818
-68.2788
-69.7551
-70.2946
-69.3837
-66.4055
-60.6358
-51.2523
-37.3729
-18.1389
7.14077
38.7864
76.5002
119.115
164.396
208.966
248.408
277.592
291.214
284.497
253.969
198.184
118.258
18.1033
-95.7133
-214.497
-328.297
-427.006
-501.547
-544.975
-553.343
-526.203
-466.679
-381.096
-278.232
-168.276
-61.6578
32.1161
105.468
153.476
174.248
168.925
141.316
97.2617
43.7971
-11.7516
-62.6303
-103.376
-130.316
-141.812
-138.229
-121.678
-95.5665
-64.0464
-31.4226
-1.60945
22.3088
38.3689
45.8509
45.2339
38.0076
26.379
12.9189
0.200397
-9.52791
-14.5948
-14.0636
-7.78197
3.66953
19.1156
36.9846
55.5379
73.0986
88.2514
99.9922
107.814
111.722
112.188
110.049
106.369
102.29
98.8817
97.0133
97.2628
99.8651
104.707
111.361
119.158
127.274
134.835
141.012
145.111
146.628
145.289
141.058
134.113
124.812
113.64
101.152
87.9167
74.4773
61.3109
48.809
37.2669
26.8819
17.7584
9.91706
3.30501
-2.19233
-6.73977
-10.5402
-13.8214
-16.8222
-19.7772
-22.9009
-26.3728
-30.3243
-34.8284
-39.8939
-45.465
-51.4263
-57.6121
-63.8205
-69.8302
-75.4184
-80.3784
-84.535
-87.757
-89.9645
-91.1321
-91.2867
-90.5009
-88.8844
-86.5724
-83.7158
-80.4716
-76.996
-73.4395
-69.9442
-66.641
-63.6476
-61.0641
-58.9678
-57.4058
-56.3873
-55.8762
-55.7857
-55.9783
-56.2697
-56.4401
-56.2513
-55.4684
-53.8844
-51.3453
-47.7714
-43.1724
-37.6537
-31.413
-24.7255
-17.9203
-11.3497
-5.35566
-0.235885
3.78521
6.57799
8.11902
8.49145
7.87435
6.52266
4.7403
2.8494
1.15933
-0.0614826
-0.608194
-0.354868
0.738396
2.62645
5.18727
8.23591
11.5422
14.8505
17.8995
20.4408
22.255
23.164
23.0411
21.8161
19.479
16.0811
11.7336
6.60583
0.920781
-5.05214
-11.0078
-16.6208
-21.5654
-25.5395
-28.2904
-29.6397
-29.5042
-27.909
-24.9911
-20.9915
-16.2349
-11.1017
-5.99112
-1.28417
2.69319
5.69959
7.59831
8.36551
8.08594
6.93718
5.1647
3.05128
0.884433
-1.074
-2.61287
-3.58868
-3.93315
-3.6512
-2.81041
-1.52402
0.0698716
1.83002
3.63173
5.3823
7.03054
8.5697
10.0341
11.4904
13.0252
14.7312
16.6939
18.9808
21.6346
24.671
28.081
31.8371
35.9013
40.2328
44.7944
49.555
54.4893
59.5736
64.7788
70.0629
75.3634
80.5906
85.6236
90.3077
94.4559
97.8524
100.262
101.44
101.157
99.2119
95.464
89.8528
82.4193
73.3184
62.82
51.2991
39.2115
27.0601
15.3526
4.55704
-4.93999
-12.868
-19.0947
-23.6335
-26.6358
-28.369
-29.1829
-29.4695
-29.6203
-29.9863
-30.8441
-32.3718
-34.6343
-37.5786
-41.0343
-44.7176
-48.2315
-51.0626
-52.5716
-51.9856
-48.401
-40.8149
-28.2011
-9.64705
15.4458
47.111
84.5509
125.911
168.161
207.147
237.858
254.913
253.23
228.792
179.398
105.271
9.3886
-102.525
-222.398
-340.561
-446.772
-531.378
-586.456
-606.78
-590.475
-539.269
-458.309
-355.567
-240.921
-125.032
-18.1616
70.9158
135.781
172.922
181.919
165.269
127.88
76.3368
18.0315
-39.7282
-90.5169
-129.417
-153.408
-161.501
-154.62
-135.277
-107.093
-74.2453
-40.9051
-10.745
13.4426
29.9765
38.3592
39.1987
34.0068
24.9127
14.3361
4.66272
-2.03777
-4.22461
-1.01242
7.7931
21.7431
39.8616
60.8082
83.0626
105.108
125.592
143.452
157.991
168.903
176.26
180.449
182.09
181.935
180.767
179.308
178.141
177.663
178.059
179.306
181.194
183.372
185.398
186.796
187.107
185.935
182.974
178.032
171.027
161.992
151.057
138.435
124.41
109.323
93.5591
77.5343
61.6851
46.4497
32.2469
19.4509
8.36272
-0.815729
-8.00365
-13.2529
-16.747
-18.7856
-19.7556
-20.0912
-20.2282
-20.5583
-21.3887
-22.9131
-25.1969
-28.1781
-31.6841
-35.4605
-39.2088
-42.6267
-45.4469
-47.4682
-48.5766
-48.7539
-48.0727
-46.6815
-44.7803
-42.5921
-40.3339
-38.1913
-36.2986
-34.7279
-33.4864
-32.5221
-31.7359
-30.9981
-30.1673
-29.1085
-27.7086
-25.8883
-23.6084
-20.8713
-17.7173
-14.218
-10.4653
-6.5609
-2.60487
-2.60487
-2.60487
-2.60487
-2.60487
-2.60487
-2.60487
-2.60487
-2.60487
-2.60487
-2.60487
-2.60487
-2.60487
-2.60487
-2.60487
-2.60487
-2.60487
-2.60487
-2.60487
-2.60487
-2.60487
-2.60487
-2.60487
