46.8389
92.8548
143.532
197.07
251.337
304.093
353.24
397.047
434.323
464.511
487.67
504.372
515.51
522.068
524.884
524.463
520.856
513.657
502.085
485.176
462.017
432.001
395.048
351.758
303.454
252.118
200.215
150.441
105.415
67.3775
37.9266
17.8339
6.9661
4.31981
8.16411
16.2688
26.1856
35.5441
42.323
45.0632
43
36.0999
25.0059
10.9032
-4.67196
-20.0517
-33.6542
-44.1727
-50.7144
-52.8758
-50.7512
-44.8791
-36.1384
-25.6137
-14.4474
-3.70005
5.76495
13.3606
18.8118
22.1472
23.6527
23.7947
23.1273
22.1974
21.46
21.2162
21.5804
22.4797
23.683
24.8528
25.6115
25.6097
24.5866
22.4137
19.1157
14.8676
9.96864
4.79903
-0.232721
-4.74455
-8.42893
-11.088
-12.6513
-13.1759
-12.8279
-11.8517
-10.5309
-9.14638
-7.93875
-7.07919
-6.65201
-6.65057
-6.98592
-7.50605
-8.02222
-8.33837
-8.27952
-7.71537
-6.57666
-4.86257
-2.63916
-0.029785
2.80055
5.66442
8.37202
10.7497
12.6549
13.9868
14.6913
14.7621
14.2364
13.1886
11.721
9.95435
8.01714
6.03628
4.12855
2.39353
0.908522
-0.274722
-1.13112
-1.66141
-1.88953
-1.85835
-1.62437
-1.25171
-0.805952
-0.348453
0.0685223
0.405359
0.637137
0.754077
0.760467
0.672302
0.513998
0.314594
0.103911
-0.0909328
-0.248287
-0.353797
-0.401185
-0.391997
-0.334465
-0.241722
-0.129623
-0.0145051
0.0888647
0.168913
0.218313
0.234402
0.218973
0.177554
0.118297
0.050667
-0.0158855
-0.0731238
-0.114988
-0.138293
-0.143194
-0.13351
-0.116967
-0.10541
-0.114936
-0.165841
-0.282265
-0.491401
-0.822228
-1.3038
-1.96325
-2.82364
-3.90204
-5.20794
-6.74227
-8.4972
-10.4566
-12.5975
-14.8914
-17.3076
-19.8144
-22.3827
-24.9873
-27.6088
-30.2343
-32.8571
-35.4754
-38.0906
-40.704
-43.3146
-45.9162
-48.4948
-51.0282
-53.4852
-55.8273
-58.01
-59.9859
-61.7072
-63.1285
-64.2088
-64.9133
-65.2143
-65.0916
-64.5329
-63.5338
-62.0981
-60.2377
-57.9726
-55.331
-52.3481
-49.0649
-45.5263
-41.7794
-37.8722
-33.8523
-29.7681
-25.6693
-21.6087
-17.6443
-13.8394
-10.2624
-6.98384
-4.07297
-1.5915
0.412281
1.90951
2.89549
3.3923
3.44878
3.13767
2.55005
1.78778
0.954663
0.147498
-0.551998
-1.08346
-1.41168
-1.52755
-1.44628
-1.20313
-0.847319
-0.435024
-0.0220976
0.342557
0.622475
0.797586
0.866451
0.846724
0.773827
0.697892
0.679103
0.781674
1.0669
1.58587
2.37269
3.43883
4.76971
6.3238
8.03472
9.81629
11.5701
13.1947
14.5956
15.6948
16.4388
16.8041
16.7997
16.4661
15.871
15.1029
14.2616
13.449
12.7591
12.2699
12.0372
12.0905
12.4329
13.0424
13.877
14.8801
15.9871
17.132
18.2522
19.2916
20.2011
20.9381
21.4628
21.7355
21.7131
21.3482
20.5896
19.3856
17.6901
15.4685
12.7053
9.40964
5.61946
1.40249
-3.14567
-7.90612
-12.7436
-17.5146
-22.076
-26.2932
-30.0459
-33.2315
-35.7638
-37.5663
-38.5596
-38.6432
-37.6731
-35.4423
-31.6661
-25.9832
-17.9752
-7.21068
6.68721
23.9551
44.5946
68.2842
94.3143
121.563
148.526
173.405
194.257
209.186
216.552
215.185
204.554
184.879
157.158
123.109
85.0231
45.545
7.41563
-26.8034
-54.9821
-75.6234
-87.9896
-92.1406
-88.8836
-79.6413
-66.2606
-50.7852
-35.2227
-21.3329
-10.4603
-3.42844
-0.502597
-1.42048
-5.48082
-11.6748
-18.8405
-25.8203
-31.6012
-35.4244
-36.8524
-35.791
-32.4669
-27.3696
-21.1659
-14.6019
-8.40471
-3.19578
0.574682
2.66628
3.05822
1.93164
-0.370465
-3.39898
-6.66177
-9.68596
-12.072
-13.5342
-13.9233
-13.2317
-11.5803
-9.19162
-6.35328
-3.37626
-0.554091
1.87274
3.7433
4.99129
5.64783
5.83256
5.73496
5.58874
5.64268
6.13153
7.25021
9.13399
11.8464
15.3759
19.6407
24.5014
29.7781
35.2723
40.7875
46.1501
51.224
55.9221
60.2092
64.0997
67.6492
70.9411
74.0718
77.1343
80.2042
83.3293
86.5233
89.7658
93.0061
96.1716
99.1785
101.943
104.39
106.461
108.113
109.322
110.069
110.338
110.099
109.303
107.878
105.721
102.711
98.7216
93.6344
87.3683
79.9005
71.2882
61.6828
51.3335
40.5793
29.8282
19.5258
10.1158
1.9986
-4.50881
-9.20449
-12.0221
-13.0371
-12.4572
-10.5999
-7.85805
-4.65936
-1.42382
1.47574
3.74571
5.19323
5.73544
5.39642
4.29319
2.61318
0.586548
-1.54292
-3.5452
-5.22663
-6.44596
-7.12282
-7.2388
-6.83187
-5.98589
-4.81678
-3.45738
-2.04264
-0.696407
0.479069
1.41038
2.05677
2.41043
2.49384
2.35437
2.0571
1.67637
1.28708
0.956332
0.736484
0.660059
0.737161
0.955603
1.28371
1.67541
2.07695
2.4343
2.70026
2.84034
2.83659
2.68906
2.41476
2.04439
1.6176
1.17732
0.764232
0.411934
0.143494
-0.030343
-0.111241
-0.111862
-0.0533639
0.0376805
0.132474
0.202896
0.223896
0.17531
0.04315
-0.179525
-0.492052
-0.885894
-1.34468
-1.84467
-2.35576
-2.84322
-3.27001
-3.59989
-3.80087
-3.84874
-3.73031
-3.44581
-3.01001
-2.45178
-1.81204
-1.13999
-0.488281
0.0925492
0.559479
0.881571
1.04303
1.04428
0.900961
0.641032
0.300413
-0.0820162
-0.469346
-0.830714
-1.14398
-1.3967
-1.58542
-1.7136
-1.78868
-1.81894
-1.81073
-1.76661
-1.68473
-1.55938
-1.38265
-1.14673
-0.846453
-0.481562
-0.0584048
0.409195
0.899942
1.38586
1.83367
2.20662
2.46646
2.57552
2.49881
2.20601
1.67341
0.885525
-0.163529
-1.46934
-3.01727
-4.78345
-6.73682
-8.84193
-11.0622
-13.3632
-15.7147
-18.0919
-20.4748
-22.8448
-25.1813
-27.4561
-29.6293
-31.6454
-33.433
-34.9066
-35.9717
-36.5325
-36.5006
-35.805
-34.3989
-32.2666
-29.4254
-25.9253
-21.8457
-17.2902
-12.3802
-7.24862
-2.03436
3.1221
8.08171
12.709
16.8735
20.4513
23.3262
25.392
26.555
26.7374
25.8819
23.957
20.9632
16.9385
11.9632
6.16236
-0.295432
-7.20251
-14.3208
-21.3927
-28.1535
-34.3411
-39.7015
-43.9864
-46.9424
-48.2915
-47.7096
-44.8074
-39.1259
-30.1554
-17.385
-0.384564
21.0844
46.9451
76.6877
109.284
143.158
176.236
206.079
230.101
245.843
251.279
245.104
226.96
197.567
158.722
113.174
64.3648
16.0878
-27.9127
-64.3359
-90.6696
-105.441
-108.345
-100.229
-82.9559
-59.1505
-31.874
-4.26753
20.7918
40.9808
54.7366
61.3589
61.0053
54.5874
43.5889
29.8341
15.2375
1.56872
-9.74247
-17.74
-22.0038
-22.6411
-20.2126
-15.6118
-9.91526
-4.22624
0.468548
3.41216
4.14982
2.5558
-1.18375
-6.62482
-13.1457
-20.0398
-26.6086
-32.2427
-36.4822
-39.052
-39.871
-39.0363
-36.7889
-33.4669
-29.4537
-25.128
-20.8211
-16.7866
-13.1833
-10.0712
-7.42057
-5.12907
-3.0445
-0.989181
1.21735
3.7398
6.71391
10.2389
14.3749
19.144
24.5333
30.499
36.9705
43.8539
51.035
58.3831
65.7552
73.0016
79.973
86.5288
92.5458
97.9271
102.609
106.564
109.806
112.383
114.372
115.875
116.998
117.848
118.518
119.076
119.561
119.981
120.312
120.507
120.495
120.196
119.522
118.384
116.694
114.361
111.292
107.395
102.576
96.7498
89.8512
81.8498
72.7654
62.6824
51.7583
40.225
28.3811
16.5753
5.18101
-5.43272
-14.9336
-23.0557
-29.6239
-34.5692
-37.934
-39.8662
-40.6017
-40.4396
-39.7104
-38.7428
-37.8314
-37.2091
-37.028
-37.3487
-38.141
-39.2936
-40.633
-41.9483
-43.0185
-43.6408
-43.6545
-42.9595
-41.5272
-39.4017
-36.693
-33.563
-30.2051
-26.8215
-23.6005
-20.6966
-18.2149
-16.2035
-14.6518
-13.4971
-12.6363
-11.9421
-11.2807
-10.5292
-9.59039
-8.40244
-6.94415
-5.23414
-3.32525
-1.2951
0.765601
2.76527
4.62257
6.27512
7.68493
8.84022
9.7538
10.4586
11.0012
11.4349
11.8123
12.18
12.5739
13.0172
13.5199
14.0798
14.6846
15.3147
15.9454
16.5503
17.1021
17.5754
17.9467
18.196
18.3073
18.2692
18.0759
17.7275
17.2304
16.5977
15.8475
15.0027
14.088
13.128
12.1444
11.1538
10.1656
9.18187
8.19749
7.20192
6.18202
5.1255
4.02448
2.87863
1.69727
0.500044
-0.684129
-1.81966
-2.86818
-3.79314
-4.56438
-5.16196
-5.57868
-5.8208
-5.90694
-5.86526
-5.72932
-5.53344
-5.30817
-5.07656
-4.85189
-4.63718
-4.42623
-4.20631
-3.96167
-3.67741
-3.34303
-2.95513
-2.51868
-2.047
-1.56011
-1.08221
-0.638305
-0.250967
0.0624469
0.291559
0.433437
0.491728
0.474643
0.392189
0.253151
0.0624334
-0.18073
-0.483261
-0.857232
-1.3174
-1.87764
-2.54673
-3.3243
-4.19756
-5.13946
-6.10869
-7.05168
-7.90638
-8.60748
-9.09239
-9.3072
-9.21198
-8.78464
-8.02297
-6.9447
-5.58545
-3.99518
-2.23339
-0.363829
1.55055
3.45198
5.29103
7.02826
8.63439
10.0892
11.3796
12.4968
13.4346
14.1872
14.7484
15.1117
15.2715
15.2249
14.9738
14.5275
13.9048
13.1356
12.2613
11.335
10.4204
9.59026
8.92655
8.52205
8.48665
8.95898
10.1233
12.229
15.6065
20.6717
27.9097
37.8296
50.8882
67.386
87.3487
110.414
135.745
162.005
187.397
209.792
226.927
236.665
237.271
227.671
207.653
177.968
140.322
97.241
51.8311
7.4594
-32.6017
-65.5217
-89.2067
-102.504
-105.293
-98.4551
-83.7327
-63.4929
-40.4369
-17.2877
3.50333
19.998
30.9361
35.8092
34.8425
28.8941
19.2909
7.62554
-4.45642
-15.4549
-24.1755
-29.8361
-32.1144
-31.1335
-27.3973
-21.6862
-14.931
-8.08331
-1.99666
2.66616
5.49293
6.34461
5.34224
2.82386
-0.720104
-4.72273
-8.61734
-11.9059
-14.2116
-15.3116
-15.1472
-13.8143
-11.5357
-8.62155
-5.4235
-2.28829
0.483738
2.67115
4.15223
4.913
5.04279
4.71892
4.18312
3.71272
3.58996
4.07267
5.36909
7.61917
10.8835
15.1405
20.2923
26.1769
32.5859
39.2868
46.0448
52.6446
58.9091
64.713
69.9907
74.7373
79.004
82.8871
86.5125
90.0181
93.5356
97.173
101.002
105.049
109.292
113.664
118.061
122.351
126.385
130.013
133.089
135.48
137.068
137.751
137.439
136.051
133.517
129.776
124.781
118.506
110.955
102.174
92.2501
81.3229
69.5789
57.2469
44.5877
31.8804
19.4072
7.43778
-3.78526
-14.0584
-23.2263
-31.1877
-37.8968
-43.3617
-47.6388
-50.825
-53.047
-54.4495
-55.1829
-55.3916
-55.2038
-54.7245
-54.0307
-53.1716
-52.1707
-51.0318
-49.7467
-48.3031
-46.6926
-44.9165
-42.9894
-40.9397
-38.8074
-36.6397
-34.4844
-32.3838
-30.3687
-28.4543
-26.6384
-24.9022
-23.2136
-21.533
-19.8195
-18.0378
-16.164
-14.1893
-12.1224
-9.98759
-7.8225
-5.67242
-3.58455
-1.60195
0.241584
1.92513
3.44215
4.79988
6.01685
7.11892
8.13465
9.09071
10.008
10.8992
11.7674
12.6071
13.406
14.148
14.8171
15.4002
15.8902
16.2874
16.5997
16.8414
17.0306
17.1864
17.3245
17.4548
17.5783
17.6861
17.7597
17.7724
17.6928
17.4884
17.1304
16.5975
15.8799
14.9807
13.9171
12.7187
11.4255
10.0833
8.73969
7.43926
6.21998
5.11022
4.12735
3.27767
2.55769
1.95623
1.45705
1.04162
0.691379
0.389576
0.12221
-0.121741
-0.350771
-0.571778
-0.791193
-1.01605
-1.25469
-1.51705
-1.81426
-2.15781
-2.55831
-3.02405
-3.55964
-4.16494
-4.83427
-5.55624
-6.31399
-7.086
-7.84724
-8.57062
-9.22857
-9.79469
-10.2452
-10.5601
-10.7246
-10.7293
-10.5711
-10.2531
-9.78492
-9.18186
-8.46463
-7.65832
-6.79127
-5.89371
-4.99621
-4.12806
-3.31565
-2.581
-1.94045
-1.40391
-0.974354
-0.647912
-0.414401
-0.258199
-0.159394
-0.0950845
-0.0406809
0.028844
0.137838
0.308996
0.562514
0.915374
1.38073
1.96746
2.67987
3.51773
4.47671
5.54913
6.72522
7.99433
9.34609
10.7708
12.2587
13.7983
15.373
16.9575
18.5137
19.9882
21.311
22.3978
23.154
23.4831
23.2961
22.5228
21.123
19.095
16.482
13.3738
9.9043
6.24353
2.58791
-0.851385
-3.85795
-6.21473
-7.7013
-8.08321
-7.09573
-4.42762
0.28663
7.45649
17.4986
30.7704
47.4764
67.5614
90.6065
115.755
141.687
166.665
188.652
205.497
215.177
216.05
207.096
188.104
159.769
123.687
82.2348
38.3499
-4.76236
-43.9637
-76.5121
-100.345
-114.284
-118.129
-112.644
-99.4326
-80.7205
-59.0852
-37.1577
-17.3394
-1.56401
8.86848
13.3745
12.0809
5.74024
-4.41735
-16.8708
-30.0094
-42.322
-52.5553
-59.823
-63.6618
-64.0303
-61.26
-55.9693
-48.9543
-41.0746
-33.1461
-25.8547
-19.6965
-14.9503
-11.6799
-9.76156
-8.93127
-8.8413
-9.11919
-9.42076
-9.47152
-9.09286
-8.21169
-6.85439
-5.12769
-3.19043
-1.22075
0.616865
2.20028
3.47099
4.44548
5.21576
5.93916
6.81888
8.07785
9.92927
12.5476
16.0436
20.4469
25.6984
31.6526
38.092
44.7482
51.3308
57.5582
63.1868
68.0365
72.0076
75.0892
77.3568
78.9605
80.1055
81.027
81.9628
83.1278
84.6912
86.7608
89.3752
92.5035
96.0529
99.8819
103.818
107.675
111.273
114.451
117.077
119.054
120.317
120.826
120.559
119.496
117.606
114.845
111.147
106.431
100.616
93.6393
85.4812
76.19
65.9012
54.848
43.3576
31.8346
20.7296
10.4975
1.55155
-5.78191
-11.3007
-14.9502
-16.8305
-17.1839
-16.3671
-14.8094
-12.964
-11.258
-10.0483
-9.58797
-10.0063
-11.3055
-13.3719
-15.9997
-18.9238
-21.8562
-24.5219
-26.6893
-28.193
-28.9463
-28.9432
-28.2507
-26.9935
-25.3339
-23.4497
-21.5122
-19.6683
-18.0269
-16.6514
-15.5583
-14.7208
-14.0772
-13.5422
-13.0191
-12.4122
-11.6381
-10.6338
-9.36262
-7.81697
-6.01736
-4.00927
-1.85743
0.361302
2.56583
4.67865
6.63282
8.37747
9.88125
11.1335
12.1431
12.9353
13.5467
14.0195
14.3953
14.7097
14.9877
15.2416
15.4697
15.6583
15.7846
15.8208
15.7395
15.5176
15.1411
14.6073
13.926
13.1188
12.2174
11.2598
10.2864
9.33573
8.44037
7.6241
6.89994
6.26986
5.72571
5.25137
4.82576
4.42612
4.03131
3.62466
3.19591
2.74236
2.26877
1.78652
1.31177
0.863262
0.459848
0.118088
-0.149721
-0.336938
-0.443254
-0.474606
-0.44243
-0.362408
-0.25292
-0.13345
-0.0231141
0.0605349
0.102382
0.0903063
0.0154673
-0.127604
-0.341047
-0.623805
-0.971825
-1.37834
-1.83421
-2.32841
-2.84844
-3.3809
-3.9118
-4.42693
-4.91203
-5.35283
-5.73526
-6.04566
-6.27136
-6.40151
-6.42824
-6.34806
-6.16322
-5.88285
-5.5236
-5.10947
-4.67068
-4.2416
-3.85771
-3.55213
-3.35193
-3.27497
-3.32756
-3.50344
-3.78439
-4.14221
-4.54215
-4.94712
-5.32217
-5.6386
-5.87707
-6.0292
-6.09736
-6.09275
-6.0318
-5.93165
-5.80514
-5.65639
-5.47743
-5.24668
-4.92955
-4.48122
-3.8515
-2.9913
-1.86007
-0.433401
1.29014
3.28404
5.49146
7.82625
10.1774
12.4169
14.4098
16.0268
17.1551
17.7105
17.6441
16.9482
15.6562
13.8396
11.6016
9.06773
6.37623
3.66779
1.07776
-1.2685
-3.25513
-4.76889
-5.68509
-5.84704
-5.04168
-2.97679
0.732709
6.55998
15.0349
26.6807
41.9203
60.9597
83.6671
109.469
137.289
165.548
192.247
215.12
231.863
240.395
239.131
227.224
204.732
172.694
133.082
88.643
42.6357
-1.49757
-40.4923
-71.6041
-92.8922
-103.407
-103.263
-93.5842
-76.3423
-54.1
-29.7027
-5.95482
14.6803
30.3207
39.8223
42.8388
39.785
31.7141
20.1326
6.77851
-6.60672
-18.4844
-27.68
-33.4848
-35.6905
-34.5592
-30.739
-25.1404
-18.7932
-12.7021
-7.72135
-4.45996
-3.22738
-4.02252
-6.563
-10.3473
-14.7386
-19.0587
-22.6777
-25.0904
-25.9703
-25.1964
-22.8532
-19.2043
-14.6477
-9.65754
-4.72259
-0.287349
3.29603
5.80111
7.14286
7.37589
6.67705
5.31656
3.62223
1.94225
0.610855
-0.0794664
0.102622
1.31672
3.648
7.1106
11.6551
17.1778
23.5312
30.5338
37.9801
45.6508
53.3228
60.781
67.83
74.3061
80.0886
85.1088
89.3549
92.8731
95.7624
98.1648
100.25
102.197
104.176
106.328
108.749
111.478
114.491
117.701
120.966
124.096
126.875
129.073
130.466
130.848
130.048
127.931
124.409
119.439
113.027
105.229
96.1502
85.949
74.835
63.067
50.9452
38.7994
26.9724
15.7998
5.58757
-3.4084
-11.0001
-17.079
-21.6209
-24.6829
-26.393
-26.9349
-26.5278
-25.4061
-23.799
-21.9133
-19.9213
-17.9527
-16.093
-14.3856
-12.8388
-11.4346
-10.1383
-8.90901
-7.70716
-6.50105
-5.27009
-4.00585
-2.71083
-1.39576
-0.0763065
1.23029
2.50775
3.74219
4.9224
6.03892
7.08239
8.04162
8.90178
9.64328
10.2417
10.669
10.8961
10.8971
10.6539
10.162
9.43554
8.5105
7.44647
6.32459
5.24226
4.3044
3.61211
3.24993
3.27357
3.69992
4.50116
5.60421
6.89605
8.23461
9.46399
10.4321
11.0088
11.1012
10.6654
9.71183
8.30465
6.554
4.6035
2.61375
0.744321
-0.863561
-2.10166
-2.905
-3.25684
-3.18806
-2.77132
-2.11108
-1.33077
-0.558963
0.0840645
0.497619
0.608773
0.376686
-0.207053
-1.12169
-2.32339
-3.75293
-5.34396
-7.03039
-8.75225
-10.4592
-12.1118
-13.6805
-15.1437
-16.4842
-17.6868
-18.7362
-19.6159
-20.3095
-20.8017
-21.0818
-21.1457
-20.9987
-20.6564
-20.1448
-19.4989
-18.7603
-17.9738
-17.1851
-16.4375
-15.7703
-15.2179
-14.8087
-14.565
-14.5019
-14.6252
-14.9292
-15.394
-15.9822
-16.6387
-17.2905
-17.8508
-18.2253
-18.3204
-18.0539
-17.3657
-16.2267
-14.6457
-12.6716
-10.3922
-7.92669
-5.41556
-3.00683
-0.84135
0.961355
2.31484
3.17378
3.53729
3.44731
2.98225
2.24703
1.36066
0.443113
-0.396986
-1.07239
-1.52387
-1.72293
-1.67065
-1.39302
-0.933864
-0.346371
0.315722
1.0062
1.69301
2.36292
3.02369
3.70364
4.44842
5.31515
6.36437
7.65039
9.21099
11.0577
13.168
15.4801
17.8929
20.269
22.4443
24.2402
25.4796
26.0044
25.6922
24.4709
22.3293
19.3217
15.5672
11.2422
6.56856
1.79822
-2.80157
-6.95996
-10.4073
-12.8712
-14.0637
-13.6624
-11.2927
-6.5194
1.14298
12.1912
27.0635
46.0409
69.1301
95.9475
125.626
156.771
187.488
215.49
238.292
253.469
258.958
253.348
236.125
207.822
170.048
125.375
77.1001
28.9066
-15.5357
-52.97
-80.9037
-97.8626
-103.518
-98.6746
-85.1208
-65.375
-42.3559
-19.0283
1.93333
18.4213
29.0826
33.4013
31.6739
24.8899
14.5402
2.38361
-9.79579
-20.4099
-28.241
-32.5535
-33.1336
-30.2627
-24.6309
-17.2119
-9.11465
-1.4353
4.8742
9.10677
10.8614
10.0626
6.93977
1.97444
-4.1762
-10.7677
-17.058
-22.3878
-26.2451
-28.3071
-28.4586
-26.7855
-23.5484
-19.1394
-14.0286
-8.70722
-3.63376
0.811519
4.35944
6.86952
8.33193
8.85489
8.64045
7.95248
7.08147
6.31076
5.88795
6.00453
6.78487
8.28467
10.4972
13.3655
16.7968
20.6784
24.8911
29.32
33.8619
38.4302
42.9564
47.3907
51.7014
55.8735
59.9067
63.8122
67.6089
71.3178
74.9551
78.5249
82.0123
85.3766
88.5486
91.4299
93.8971
95.8102
97.0239
97.4017
96.8293
95.226
92.5533
88.8178
84.0705
78.402
71.9362
64.8223
57.2287
49.3371
41.3383
33.4278
25.8019
18.6519
12.1566
6.47339
1.72804
-1.99551
-4.66379
-6.29948
-6.98289
-6.84831
-6.07525
-4.87495
-3.47347
-2.09302
-0.933546
-0.156503
0.127357
-0.135106
-0.93846
-2.22367
-3.88825
-5.80022
-7.81422
-9.78765
-11.5951
-13.1394
-14.3582
-15.226
-15.7504
-15.9662
-15.9252
-15.6867
-15.3072
-14.8332
-14.2964
-13.7126
-13.0827
-12.3976
-11.6437
-10.8084
-9.8861
-8.88132
-7.81064
-6.702
-5.5922
-4.5229
-3.53589
-2.66848
-1.94947
-1.39633
-1.01384
-0.794109
-0.717929
-0.757031
-0.876975
-1.04025
-1.20927
-1.34905
-1.42933
-1.42625
-1.32341
-1.11258
-0.793905
-0.375911
0.125011
0.685497
1.27666
1.8661
2.42048
2.90835
3.30314
3.58578
3.7467
3.78681
3.71737
3.55859
3.33719
3.08326
2.82671
2.59397
2.40522
2.27263
2.19973
2.18195
2.20837
2.26409
2.33322
2.40173
2.45995
2.50426
2.53784
2.57024
2.61621
2.69363
2.82113
3.01554
3.28935
3.64849
4.09032
4.60214
5.16016
5.72915
6.2629
6.70566
6.99468
7.06393
6.84917
6.29402
5.35692
4.01799
2.28524
0.198823
-2.16758
-4.70892
-7.2949
-9.77965
-12.0142
-13.8606
-15.2054
-15.9713
-16.1258
-15.6845
-14.7096
-13.3036
-11.5989
-9.74426
-7.89048
-6.17623
-4.71607
-3.59171
-2.84722
-2.48869
-2.48779
-2.78878
-3.31764
-3.99235
-4.73275
-5.46905
-6.14807
-6.73667
-7.22229
-7.61083
-7.92247
-8.1862
-8.43395
-8.69494
-8.99098
-9.33286
-9.71786
-10.1282
-10.5303
-10.8746
-11.0958
-11.1152
-10.8439
-10.1896
-9.06544
-7.40163
-5.15876
-2.34003
0.999056
4.7461
8.73389
12.7497
16.5516
19.8899
22.5309
24.2812
25.0073
24.6501
23.2311
20.8504
17.6764
13.9294
9.8602
5.72767
1.77658
-1.78135
-4.78173
-7.11584
-8.73291
-9.63604
-9.87244
-9.51803
-8.65651
-7.35293
-5.62232
-3.39555
-0.486996
3.42858
8.82005
16.2749
26.4378
39.9107
57.1233
78.1889
102.771
129.988
158.387
185.996
210.474
229.34
240.255
241.336
231.438
210.368
178.997
139.241
93.9077
46.425
0.481778
-40.3719
-73.1126
-95.5694
-106.647
-106.415
-96.0623
-77.7195
-54.1762
-28.5386
-3.86595
17.1659
32.5345
41.0471
42.4057
37.1641
26.587
12.4375
-3.27603
-18.56
-31.6704
-41.2963
-46.6739
-47.6242
-44.5156
-38.1653
-29.6938
-20.3587
-11.3869
-3.82743
1.55898
4.36451
4.54883
2.4072
-1.4995
-6.44041
-11.6217
-16.2911
-19.8264
-21.8002
-22.0141
-20.5018
-17.5035
-13.418
-8.74009
-3.99169
0.342863
3.87162
6.33345
7.61722
7.76143
6.93606
5.41078
3.51486
1.59479
-0.0246271
-1.07103
-1.34409
-0.723112
0.836553
3.31545
6.64705
10.7362
15.4755
20.7581
26.4852
32.5682
38.9278
45.4899
52.1819
58.9293
65.6554
72.2829
78.7374
84.9527
90.8745
96.4641
101.699
106.57
111.078
115.228
119.018
122.438
125.46
128.038
130.105
131.578
132.36
132.348
131.443
129.55
126.593
122.513
117.281
110.898
103.405
94.8848
85.468
75.3341
64.7097
53.8633
43.0945
32.7188
23.0487
14.3719
6.92967
0.896612
-3.63446
-6.66177
-8.27566
-8.65118
-8.03266
-6.71158
-5.00003
-3.2025
-1.58911
-0.37302
0.305529
0.38711
-0.107765
-1.08779
-2.40696
-3.88548
-5.33297
-6.57124
-7.45408
-7.88206
-7.81097
-7.25327
-6.273
-4.97508
-3.49075
-1.9611
-0.520912
0.715493
1.6647
2.28017
2.55342
2.5108
2.20675
1.71477
1.11749
0.497189
-0.0722314
-0.531136
-0.837572
-0.968381
-0.918333
-0.697852
-0.329856
0.153776
0.715757
1.31672
1.9182
2.48524
2.98855
3.40617
3.72464
3.93942
4.05462
4.08187
4.03843
3.94472
3.82145
3.6868
3.55395
3.42949
3.31279
3.19662
3.06882
2.91486
2.7208
2.47618
2.1765
1.82465
1.43135
1.01428
0.596194
0.202271
-0.142979
-0.41869
-0.610173
-0.710623
-0.72182
-0.653747
-0.523221
-0.351775
-0.163088
0.0196438
0.176014
0.290085
0.351205
0.353918
0.297067
0.182328
0.0124999
-0.210088
-0.484759
-0.813033
-1.1984
-1.64535
-2.15775
-2.73676
-3.37876
-4.07339
-4.80226
-5.53867
-6.24827
-6.89106
-7.42428
-7.80621
-8.00024
-7.97887
-7.72715
-7.24492
-6.54778
-5.66633
-4.64385
-3.53269
-2.38968
-1.27114
-0.228196
0.697235
1.4751
2.08846
2.53307
2.81576
2.95163
2.96091
2.86573
2.68749
2.44491
2.15316
1.82377
1.46534
1.08457
0.687471
0.280256
-0.130102
-0.535894
-0.929192
-1.30276
-1.65115
-1.97175
-2.26557
-2.53756
-2.79636
-3.05351
-3.32218
-3.61555
-3.94509
-4.31859
-4.73827
-5.19859
-5.68406
-6.16706
-6.6061
-6.94518
-7.115
-7.03674
-6.62881
-5.81654
-4.54398
-2.78631
-0.561032
2.06443
4.97046
7.98976
10.9191
13.5373
15.6283
17.0056
17.5358
17.1573
15.8915
13.845
11.2008
8.20058
5.11879
2.23231
-0.210894
-2.0195
-3.07833
-3.35544
-2.89356
-1.78415
-0.125231
2.03262
4.74359
8.21559
12.8371
19.1688
27.8911
39.7045
55.1928
74.6631
97.9921
124.507
152.932
181.419
207.679
229.198
243.52
248.565
242.917
226.067
198.539
161.907
118.665
71.9906
25.4142
-17.5595
-53.824
-80.9956
-97.6469
-103.424
-99.0373
-86.1285
-67.0406
-44.5199
-21.3905
-0.24277
16.829
28.4116
33.8646
33.3147
27.5618
17.9156
5.98786
-6.53056
-18.0793
-27.4013
-33.6609
-36.4991
-36.0238
-32.7447
-27.4652
-21.1488
-14.7797
-9.23527
-5.18434
-3.02265
-2.84874
-4.47991
-7.50228
-11.3453
-15.3694
-18.9537
-21.574
-22.8617
-22.6375
-20.9186
-17.9017
-13.9238
-9.41041
-4.81606
-0.567438
2.98587
5.60681
7.18972
7.7621
7.47075
6.55576
5.31672
4.07606
3.14393
2.78829
3.21265
4.54273
6.82226
10.017
14.0257
18.6961
23.8441
29.2736
34.7963
40.2482
45.5026
50.4781
55.142
59.507
63.6249
67.5754
71.4529
75.3532
79.3592
83.5306
87.8951
92.444
97.1316
101.878
106.576
111.098
115.304
119.054
122.214
124.658
126.276
126.971
126.659
125.261
122.708
118.933
113.88
107.512
99.8236
90.8586
80.7266
69.6148
57.7922
45.6032
33.4491
21.7585
10.9505
1.39348
-6.63273
-12.9671
-17.5848
-20.5995
-22.2483
-22.8638
-22.8341
-22.5576
-22.3988
-22.6493
-23.4992
-25.0225
-27.1766
-29.8153
-32.7141
-35.6017
-38.1957
-40.2372
-41.52
-41.9122
-41.3681
-39.9288
-37.714
-34.9051
-31.7225
-28.4009
-25.1643
-22.2042
-19.6632
-17.6254
-16.1136
-15.0935
-14.4839
-14.1708
-14.0238
-13.9124
-13.7206
-13.3584
-12.7689
-11.9311
-10.8579
-9.59105
-8.19318
-6.73857
-5.30373
-3.95903
-2.76197
-1.75278
-0.952399
-0.362752
0.031096
0.257341
0.352974
0.358971
0.315649
0.258583
0.215441
0.203952
0.231132
0.293772
0.380091
0.472318
0.549911
0.592996
0.585605
0.518288
0.389755
0.207324
-0.0138595
-0.252732
-0.485035
-0.686483
-0.835897
-0.9179
-0.924784
-0.857339
-0.724555
-0.542281
-0.331053
-0.113425
0.0888218
0.257207
0.378497
0.445845
0.459032
0.423842
0.350736
0.253065
0.145117
0.0402707
-0.0504968
-0.119602
-0.163277
-0.181439
-0.177114
-0.15554
-0.123132
-0.0864478
-0.0513067
-0.0221271
-0.00153589
0.00976869
0.0129421
0.0107678
0.00733685
0.00766982
0.0172914
0.0417487
0.0860626
0.154121
0.248052
0.367654
0.509978
0.669172
0.836671
1.0018
1.15274
1.27779
1.36675
1.41216
1.4102
1.36112
1.26898
1.14076
0.985102
0.810741
0.624996
0.432675
0.235562
0.0326924
-0.178622
-0.401147
-0.635787
-0.87976
-1.1253
-1.35921
-1.56353
-1.71717
-1.7984
-1.78784
-1.67132
-1.44225
-1.10305
-0.665255
-0.148344
0.422681
1.02061
1.61976
2.19947
2.74693
3.25865
3.74045
4.20589
4.67332
5.16207
5.68846
6.26212
6.88339
7.54211
8.21794
8.88221
9.50102
10.0389
10.4629
10.746
10.8696
10.8257
10.6164
10.2539
9.75794
9.15366
8.46874
7.73043
6.96296
6.18567
5.41237
4.65323
3.92018
3.23759
2.65911
2.2907
2.31797
3.03308
4.85394
8.32621
14.0983
22.862
35.256
51.7392
72.4483
97.0626
124.706
153.912
182.675
208.593
229.097
241.746
244.54
236.214
216.469
186.088
146.922
101.747
53.9917
7.3739
-34.496
-68.5097
-92.3918
-104.928
-106.066
-96.8713
-79.3661
-56.2518
-30.576
-5.37479
16.6594
33.4481
43.7057
47.0121
43.7784
35.1183
22.648
8.24523
-6.2004
-19.0138
-28.9135
-35.1246
-37.4192
-36.0851
-31.8338
-25.6647
-18.7066
-12.0585
-6.64904
-3.13248
-1.82926
-2.71572
-5.4595
-9.49177
-14.1037
-18.5524
-22.1619
-24.4068
-24.9691
-23.7633
-20.9303
-16.8022
-11.8467
-6.59843
-1.58789
2.72304
5.9919
8.02751
8.8009
8.43601
7.18337
5.38183
3.41413
1.66214
0.467088
0.0984892
0.734147
2.45205
5.23344
8.9752
13.5091
18.6248
24.0942
29.6937
35.2234
40.5213
45.472
50.0099
54.1175
57.8189
61.1711
64.2524
67.1509
69.9529
72.7337
75.5498
78.4352
81.3998
84.4321
87.5032
90.5729
93.5952
96.5227
99.3072
101.897
104.23
106.226
107.774
108.729
108.91
108.105
106.087
102.641
97.5918
90.8364
82.3756
72.3326
60.9606
48.634
35.8231
23.0552
10.8668
-0.247896
-9.88464
-17.7667
-23.7684
-27.9209
-30.401
-31.5034
-31.6024
-31.1058
-30.409
-29.8529
-29.6918
-30.0729
-31.0307
-32.4941
-34.3059
-36.2502
-38.0854
-39.5763
-40.5237
-40.7871
-40.2982
-39.065
-37.1661
-34.7376
-31.9535
-29.0038
-26.0721
-23.3161
-20.8526
-18.7492
-17.0221
-15.6408
-14.5378
-13.6224
-12.7956
-11.9649
-11.0571
-10.0266
-8.85956
-7.57343
-6.21171
-4.83567
-3.514
-2.31216
-1.28274
-0.458229
0.152989
0.56706
0.821601
0.969802
1.07264
1.19044
1.37496
1.6631
2.07306
2.60325
3.23395
3.93135
4.65311
5.35465
5.99519
6.54268
6.97718
7.29223
7.4943
7.60062
7.63581
7.62781
7.60377
7.58635
7.59071
7.62258
7.67745
7.74094
7.79032
7.79687
7.72907
7.55614
7.25157
6.79643
6.182
5.41149
4.5007
3.47741
2.37974
1.25337
0.148066
-0.886315
-1.80393
-2.56677
-3.14781
-3.53318
-3.72317
-3.73187
-3.5855
-3.3197
-2.97588
-2.59719
-2.2245
-1.89273
-1.6281
-1.44651
-1.35313
-1.34324
-1.4041
-1.51747
-1.66239
-1.81788
-1.96519
-2.08933
-2.17977
-2.23045
-2.239
-2.20571
-2.13222
-2.02048
-1.87191
-1.68709
-1.46586
-1.20766
-0.912268
-0.580452
-0.214586
0.180924
0.599443
1.03212
1.46801
1.89434
2.29663
2.65906
2.96473
3.19624
3.33647
3.36952
3.28196
3.06405
2.71089
2.22341
1.60906
0.881997
0.062965
-0.821303
-1.73902
-2.6545
-3.52946
-4.3243
-4.99931
-5.51581
-5.83724
-5.93026
-5.76598
-5.32147
-4.58151
-3.54064
-2.20536
-0.59611
1.25129
3.28524
5.43938
7.63537
9.78741
11.8082
13.6161
15.1418
16.3348
17.1681
17.6394
17.771
17.6052
17.1985
16.6126
15.9065
15.1277
14.3062
13.4512
12.5508
11.5762
10.4892
9.25351
7.84761
6.28087
4.61071
2.96144
1.54368
0.672458
0.779902
2.41651
6.23302
12.9352
23.2066
37.6012
56.4131
79.5433
106.386
135.765
165.935
194.679
219.49
237.825
247.407
246.531
234.328
210.94
177.583
136.477
90.645
43.6032
-1.00904
-39.8252
-70.1128
-90.0567
-98.9308
-97.1363
-86.1093
-68.1103
-45.9297
-22.5456
-0.781793
16.9963
29.1104
34.7024
33.7602
27.0426
15.9192
2.1511
-12.3554
-25.7903
-36.6479
-43.8785
-46.9699
-45.9573
-41.3637
-34.0885
-25.2596
-16.0729
-7.63946
-0.857509
3.67548
5.70556
5.31817
2.89257
-0.975407
-5.56953
-10.1545
-14.0695
-16.8028
-18.0406
-17.6868
-15.8529
-12.8244
-9.0077
-4.86778
-0.864573
2.60448
5.24856
6.9106
7.57565
7.3613
6.49322
5.2702
4.02395
3.07896
2.71702
3.15008
4.50356
6.81083
10.0183
13.9997
18.5763
23.5419
28.6881
33.8282
38.8166
43.5621
48.0324
52.2521
56.2909
60.2477
64.23
68.3332
72.6225
77.1203
81.8009
86.5936
91.3924
96.0724
100.509
104.595
108.256
111.458
114.209
116.547
118.523
120.185
121.548
122.574
123.161
123.133
122.25
120.229
116.78
111.644
104.641
95.7096
84.943
72.5999
59.1013
45.0019
30.9442
17.5955
5.57974
-4.58904
-12.5622
-18.1923
-21.5457
-22.8884
-22.6494
-21.3647
-19.6108
-17.9366
-16.8012
-16.5269
-17.2713
-19.0212
-21.6085
-24.7438
-28.0623
-31.1766
-33.7277
-35.4288
-36.0965
-35.6678
-34.1998
-31.8555
-28.8777
-25.5556
-22.188
-19.0494
-16.3613
-14.2726
-12.8497
-12.0782
-11.8721
-12.0916
-12.5637
-13.1055
-13.5451
-13.7392
-13.5852
-13.0275
-12.0581
-10.7116
-9.05663
-7.18457
-5.19781
-3.19811
-1.27689
0.492167
2.05748
3.39111
4.48754
5.36026
6.03677
6.55275
6.94615
7.2518
7.49719
7.69968
7.86557
7.99069
8.06269
8.06424
7.97691
7.78505
7.47907
7.05763
6.52856
5.9082
5.21944
4.48873
3.74258
3.00406
2.28987
1.6084
0.95908
0.333006
-0.285158
-0.914414
-1.57416
-2.28092
-3.04549
-3.87097
-4.75169
-5.6733
-6.6137
-7.54462
-8.43366
-9.24625
-9.94778
-10.5054
-10.8898
-11.0771
-11.0501
-10.8
-10.3276
-9.64449
-8.77274
-7.74501
-6.60307
-5.39569
-4.17571
-2.99654
-1.90841
-0.954647
-0.168457
0.429446
0.832153
1.0466
1.09234
0.999212
0.804073
0.547103
0.267946
0.0021733
-0.22159
-0.383617
-0.473955
-0.492214
-0.446373
-0.350815
-0.22389
-0.0852948
0.0463857
0.15574
0.23198
0.269686
0.268842
0.234221
0.174296
0.0998221
0.0223139
-0.0474188
-0.100514
-0.130965
-0.136123
-0.116781
-0.0768525
-0.0227208
0.0376655
0.095831
0.143834
0.175226
0.185815
0.174156
0.141759
0.0930516
0.0351687
-0.0223051
-0.0675526
-0.0866009
-0.0632074
0.0214553
0.189259
0.465582
0.879531
1.46359
2.25233
3.27986
4.57582
6.16007
8.03641
10.1862
12.5631
15.0899
17.6586
20.1354
22.3693
24.2045
25.4961
26.1256
26.0155
25.1403
23.5321
21.2802
18.5249
15.4445
12.2393
9.11258
6.25298
3.81822
1.92448
0.642379
0.0014434
0.0042931
0.650836
1.9713
4.0646
7.1358
11.5233
17.7048
26.2716
37.8632
53.0622
72.2572
95.4927
122.331
151.76
182.166
211.408
236.977
256.256
266.826
266.793
255.086
231.67
197.641
155.181
107.365
57.8596
10.5216
-31.0208
-63.7681
-85.67
-95.8284
-94.5576
-83.2998
-64.4101
-40.8442
-15.7917
7.69642
27.0403
40.3854
46.7527
46.0734
39.1135
27.3054
12.5149
-3.22273
-17.9623
-30.0734
-38.4054
-42.3779
-41.9935
-37.7775
-30.6607
-21.8237
-12.5271
-3.94933
2.94904
7.5191
9.46973
8.86446
6.07491
1.70104
-3.52811
-8.85903
-13.6099
-17.2472
-19.4363
-20.0602
-19.2107
-17.153
-14.2726
-11.0119
-7.80567
-5.02345
-2.92539
-1.63547
-1.13423
-1.27031
-1.78788
-2.36551
-2.66092
-2.35582
-1.1953
0.98275
4.23129
8.49223
13.6084
19.3473
25.4335
31.5841
37.5441
43.1155
48.1787
52.7016
56.7376
60.4123
63.9015
67.4031
71.1074
75.1696
79.6877
84.6885
90.1237
95.876
101.774
107.615
113.189
118.302
122.799
126.58
129.597
131.857
133.403
134.292
134.575
134.27
133.344
131.709
129.221
125.694
120.93
114.75
107.029
97.7361
86.955
74.9031
61.9293
48.4954
35.1429
22.4447
10.9509
1.13236
-6.6701
-12.2838
-15.7251
-17.199
-17.078
-15.86
-14.1127
-12.4089
-11.2611
-11.0646
-12.0541
-14.2814
-17.6148
-21.7619
-26.3106
-30.7844
-34.7035
-37.6446
-39.2911
-39.4686
-38.1613
-35.5084
-31.7819
-27.3494
-22.6273
-18.0317
-13.9317
-10.6117
-8.24675
-6.89205
-6.48825
-6.87935
-7.84067
-9.11233
-10.4337
-11.5744
-12.3583
-12.6787
-12.5025
-11.8658
-10.8602
-9.61478
-8.27425
-6.97839
-5.84393
-4.95156
-4.33897
-4.00018
-3.89059
-3.93637
-4.04674
-4.12702
-4.09099
-3.87097
-3.4247
-2.73852
-1.82695
-0.729018
0.497814
1.78527
3.06238
4.26329
5.33374
6.2359
6.95087
7.47884
7.83699
8.0554
8.1716
8.22452
8.24852
8.26838
8.29589
8.32845
8.34987
8.33322
8.24538
8.0526
7.72628
7.24812
6.61389
5.83536
4.94004
3.96901
2.97325
2.00925
1.13452
0.403828
-0.13372
-0.436763
-0.473341
-0.222668
0.322556
1.15328
2.24104
3.53556
4.96395
6.4325
7.83155
9.04355
9.95363
10.4616
10.4939
10.0132
9.02563
7.58229
5.77655
3.73601
1.61045
-0.442972
-2.2755
-3.76161
-4.81118
-5.37767
-5.46129
-5.10715
-4.3986
-3.44677
-2.3777
-1.31862
-0.384865
0.330901
0.766361
0.893292
0.717323
0.274006
-0.378042
-1.16592
-2.01193
-2.84261
-3.5962
-4.22779
-4.7117
-5.04101
-5.22468
-5.2829
-5.24159
-5.12721
-4.9627
-4.76526
-4.54619
-4.31254
-4.06997
-3.82579
-3.59128
-3.38235
-3.2181
-3.11741
-3.09384
-3.1501
-3.27305
-3.43061
-3.5713
-3.62723
-3.52014
-3.17023
-2.50647
-1.47706
-0.0586737
1.7371
3.86095
6.22735
8.72025
11.2025
13.5277
15.5539
17.156
18.2374
18.7384
18.64
17.9647
16.7724
15.1526
13.2159
11.0834
8.87762
6.71673
4.7122
2.9726
1.61373
0.775063
0.641258
1.46528
3.58767
7.44445
13.5549
22.4818
34.7589
50.7884
70.717
94.3094
120.844
149.056
177.157
202.935
223.948
237.781
242.345
236.178
218.686
190.31
152.56
107.921
59.6368
11.3766
-33.1449
-70.5691
-98.2539
-114.548
-118.946
-112.11
-95.7513
-72.4005
-45.0923
-17.0101
8.866
30.0643
44.8484
52.3421
52.5468
46.257
34.8912
20.2677
4.35511
-10.9703
-24.1306
-33.9962
-39.9661
-41.9763
-40.4429
-36.153
-30.1228
-23.4433
-17.1352
-12.0272
-8.67427
-7.31739
-7.88902
-10.0562
-13.2927
-16.9683
-20.4413
-23.1434
-24.6463
-24.7042
-23.2695
-20.4823
-16.6372
-12.1347
-7.42403
-2.94443
0.926864
3.91526
5.87397
6.79221
6.78687
6.08012
4.96665
3.77531
2.83007
2.41494
2.74661
3.9572
6.08836
9.09604
12.8645
17.2267
21.9885
26.9523
31.9394
36.8069
41.4591
45.8531
49.9979
53.9484
57.7946
61.6482
65.6261
69.8344
74.3528
79.2217
84.4341
89.9318
95.6079
101.315
106.878
112.111
116.831
120.877
124.124
126.486
127.921
128.426
128.026
126.758
124.661
121.756
118.038
113.476
108.016
101.595
94.1643
85.7085
76.272
65.9734
55.0126
43.665
32.263
21.1666
10.728
1.25475
-7.02187
-13.9686
-19.5587
-23.866
-27.0461
-29.3081
-30.8812
-31.982
-32.7882
-33.4197
-33.9325
-34.3222
-34.538
-34.5028
-34.1355
-33.3729
-32.1866
-30.5928
-28.6549
-26.4769
-24.192
-21.9459
-19.8794
-18.1125
-16.7311
-15.78
-15.2599
-15.1304
-15.3169
-15.7196
-16.2244
-16.7134
-17.0751
-17.2118
-17.047
-16.5295
-15.6364
-14.3739
-12.7767
-10.9053
-8.84162
-6.68288
-4.53453
-2.50216
-0.683297
0.840291
2.00895
2.78956
3.1776
3.19642
2.8942
2.3386
1.60995
0.793777
-0.0268079
-0.777804
-1.39974
-1.85127
-2.11077
-2.17594
-2.06155
-1.79578
-1.41565
-0.961985
-0.474626
0.0117593
0.470794
0.886231
1.25241
1.57336
1.86083
2.13137
2.40305
2.69212
3.00998
3.36096
3.74101
4.13761
4.53076
4.89496
5.20205
5.4243
5.53767
5.52468
5.37667
5.09509
4.69181
4.18834
3.614
3.00336
2.39309
1.81856
1.31067
0.893034
0.579959
0.375407
0.272984
0.257027
0.304643
0.388508
0.480134
0.553253
0.586945
0.568136
0.493145
0.368046
0.207761
0.0339536
-0.128034
-0.252826
-0.318787
-0.311443
-0.226114
-0.0693993
0.140753
0.376459
0.602737
0.781461
0.875989
0.855876
0.701035
0.404755
-0.024861
-0.565291
-1.18182
-1.83134
-2.46727
-3.04491
-3.52669
-3.88644
-4.11222
-4.20747
-4.19004
-4.08969
-3.94399
-3.79343
-3.67625
-3.62363
-3.65578
-3.77947
-3.98716
-4.25784
-4.55947
-4.85259
-5.0946
-5.24426
-5.26559
-5.13069
-4.82115
-4.32789
-3.64963
-2.79065
-1.75856
-0.562795
0.785706
2.27343
3.88221
5.58678
7.35263
9.13512
10.8802
12.5267
14.0108
15.2708
16.2526
16.9144
17.2301
17.1905
16.8033
16.0907
15.0858
13.8284
12.3606
10.7236
8.95463
7.08619
5.147
3.16417
1.16747
-0.80466
-2.69654
-4.42366
-5.85712
-6.80447
-6.98862
-6.02927
-3.43366
1.39439
9.11853
20.4009
35.7998
55.6424
79.8878
108.005
138.895
170.876
201.755
228.998
249.966
262.22
263.834
253.68
231.642
198.717
156.981
109.417
59.6291
11.4664
-31.39
-65.8229
-89.608
-101.635
-101.992
-91.9138
-73.5879
-49.8688
-23.923
1.14083
22.6121
38.4494
47.4541
49.3323
44.6448
34.6607
21.1401
6.07702
-8.56148
-21.0685
-30.177
-35.1679
-35.9021
-32.7771
-26.6233
-18.5565
-9.81101
-1.57443
5.1549
9.67245
11.6251
11.0195
8.18425
3.69718
-1.71187
-7.26651
-12.2444
-16.0609
-18.3269
-18.8772
-17.768
-15.2477
-11.7073
-7.61823
-3.46637
0.308866
3.36437
5.48689
6.60806
6.8011
6.26143
5.27497
4.17888
3.31994
3.01525
3.51938
5.00096
7.53035
11.0789
15.529
20.6924
26.3358
32.2082
38.0687
43.7112
48.9837
53.7994
58.1402
62.0528
65.6367
69.0277
72.3781
75.8366
79.5297
83.547
87.9315
92.6758
97.7234
102.976
108.303
113.554
118.57
123.196
127.286
130.71
133.356
135.125
135.928
135.684
134.314
131.742
127.892
122.703
116.134
108.182
98.8987
88.4032
76.8945
64.6528
52.0312
39.4369
27.302
16.0477
6.04626
-2.4146
-9.15847
-14.1353
-17.4216
-19.2067
-19.7657
-19.4245
-18.5207
-17.3662
-16.216
-15.2468
-14.5482
-14.125
-13.9116
-13.7938
-13.6354
-13.3055
-12.702
-11.7699
-10.5101
-8.98033
-7.28704
-5.57046
-3.9857
-2.68221
-1.78483
-1.37863
-1.49945
-2.13078
-3.2068
-4.62043
-6.23499
-7.89758
-9.45261
-10.7542
-11.6764
-12.1213
-12.0238
-11.3545
-10.1201
-8.3614
-6.1503
-3.58462
-0.78221
2.12604
5.00374
7.71681
10.1409
12.1683
13.7134
14.7163
15.1455
14.9977
14.297
13.0926
11.4557
9.47609
7.25852
4.91844
2.57734
0.357353
-1.62486
-3.26483
-4.47712
-5.20174
-5.4093
-5.10429
-4.32587
-3.14568
-1.66286
0.00360452
1.72449
3.37097
4.82526
5.99003
6.79575
7.20495
7.21323
6.84681
6.15725
5.21415
4.0969
2.88668
1.65964
0.481869
-0.593434
-1.52673
-2.29128
-2.87116
-3.25885
-3.45296
-3.45648
-3.27594
-2.92126
-2.40642
-1.75042
-0.978213
-0.121255
0.782679
1.69064
2.55659
3.33431
3.98081
4.45986
4.74529
4.82348
4.69483
4.37387
3.88797
3.27477
2.57853
1.84589
1.12149
0.443949
-0.157259
-0.663776
-1.06896
-1.37707
-1.60129
-1.76076
-1.87715
-1.97121
-2.05974
-2.15336
-2.25538
-2.3619
-2.46308
-2.54529
-2.59398
-2.59667
-2.54568
-2.44018
-2.28731
-2.10209
-1.90614
-1.72544
-1.58732
-1.51724
-1.53569
-1.65577
-1.88152
-2.20748
-2.61905
-3.09378
-3.60323
-4.11496
-4.59457
-5.00747
-5.32026
-5.50183
-5.52414
-5.36274
-4.99738
-4.41245
-3.59752
-2.54784
-1.26469
0.244297
1.96503
3.87676
5.95176
8.15477
10.4422
12.7611
15.0486
17.232
19.2294
20.9525
22.3104
23.2149
23.5866
23.3623
22.5016
20.9923
18.8547
16.1436
12.9477
9.3864
5.60504
1.7681
-1.94717
-5.35542
-8.26348
-10.4642
-11.7228
-11.7566
-10.2134
-6.65603
-0.563864
8.63858
21.5178
38.5319
59.9025
85.4768
114.604
146.055
178.018
208.178
233.901
252.498
261.546
259.219
244.584
217.806
180.231
134.316
83.4171
31.4558
-17.5006
-59.6808
-92.0207
-112.489
-120.286
-115.892
-100.965
-78.1039
-50.5133
-21.6134
5.35001
27.6515
43.347
51.424
51.8305
45.389
33.6149
18.4692
2.08114
-13.5219
-26.6461
-36.0986
-41.2769
-42.1758
-39.3208
-33.6417
-26.3094
-18.5597
-11.5276
-6.11178
-2.88334
-2.04592
-3.44702
-6.63396
-10.943
-15.6067
-19.8651
-23.0645
-24.734
-24.632
-22.7588
-19.3374
-14.7684
-9.56599
-4.28513
0.549541
4.50557
7.28783
8.76318
8.96354
8.06912
6.37581
4.25238
2.09378
0.276697
-0.877542
-1.12912
-0.333243
1.55872
4.50881
8.40956
13.1054
18.4146
24.1491
30.1303
36.1994
42.2237
48.0985
53.7464
59.1166
64.1827
68.942
73.4145
77.6415
81.682
85.6078
89.4953
93.4149
97.4202
101.536
105.748
110.001
114.193
118.182
121.798
124.855
127.164
128.553
128.88
128.039
125.972
122.662
118.137
112.462
105.729
98.0541
89.572
80.4316
70.7971
60.8483
50.7808
40.8047
31.1398
22.0065
13.6145
6.14741
-0.251181
-5.49137
-9.54589
-12.4538
-14.3174
-15.2925
-15.5733
-15.3727
-14.9012
-14.3467
-13.8578
-13.5318
-13.4096
-13.4782
-13.6783
-13.9186
-14.0918
-14.0927
-13.834
-13.259
-12.3498
-11.1288
-9.65631
-8.02194
-6.3334
-4.70331
-3.23603
-2.01627
-1.10074
-0.513771
-0.247028
-0.263242
-0.503012
-0.893659
-1.35879
-1.82724
-2.24032
-2.5564
-2.75267
-2.82382
-2.77844
-2.63372
-2.4095
-2.12273
-1.78299
-1.38996
-0.932772
-0.391312
0.260917
1.05279
2.01082
3.15415
4.48939
6.00592
7.67195
9.43203
11.2066
12.8946
14.3788
15.5351
16.2443
16.4058
15.9518
14.8593
13.1594
10.9396
8.34166
5.55095
2.781
0.253164
-1.82577
-3.28536
-4.01015
-3.95274
-3.13959
-1.66874
0.300364
2.56373
4.89446
7.06646
8.87758
10.1694
10.8416
10.8596
10.2541
9.1148
7.57664
5.80305
3.96663
2.23027
0.730559
-0.434588
-1.21328
-1.60129
-1.63836
-1.39996
-0.985867
-0.507171
-0.0732896
0.219395
0.296253
0.109849
-0.35796
-1.09686
-2.07114
-3.22417
-4.48357
-5.76655
-6.98514
-8.05147
-8.8831
-9.40858
-9.57321
-9.34467
-8.71788
-7.71816
-6.40223
-4.85596
-3.18907
-1.52667
0.00138516
1.27247
2.18293
2.65835
2.66107
2.19403
1.30054
0.0597912
-1.42111
-3.01797
-4.60173
-6.05088
-7.26264
-8.16166
-8.70548
-8.88629
-8.72895
-8.2857
-7.6284
-6.83921
-6.00093
-5.18794
-4.45885
-3.8513
-3.37941
-3.03385
-2.78427
-2.5836
-2.37353
-2.09058
-1.67194
-1.06065
-0.209598
0.915818
2.33651
4.05969
6.07967
8.37896
10.929
13.6904
16.6117
19.6276
22.6568
25.6005
28.342
30.7493
32.6806
33.9934
34.5564
34.2627
33.0435
30.8796
27.8091
23.9312
19.4029
14.4311
9.25954
4.1535
-0.616049
-4.78459
-8.09963
-10.3171
-11.188
-10.4385
-7.74876
-2.74019
5.01766
15.9721
30.5191
48.9043
71.1062
96.7204
124.87
154.171
182.764
208.434
228.807
241.601
244.914
237.492
218.95
189.896
151.945
107.609
60.0655
12.8418
-30.5533
-66.9998
-94.0934
-110.387
-115.517
-110.205
-96.1276
-75.6959
-51.7484
-27.2213
-4.82396
13.2369
25.4561
31.1347
30.383
24.0316
13.4678
0.421737
-13.2664
-25.8705
-35.9677
-42.574
-45.215
-43.9294
-39.2124
-31.9105
-23.0849
-13.8636
-5.30105
1.74006
6.67085
9.2175
9.42022
7.59443
4.26293
0.0701202
-4.30931
-8.25561
-11.2734
-13.0383
-13.4183
-12.4683
-10.4033
-7.55443
-4.31497
-1.08498
1.77957
4.00681
5.43453
6.01968
5.83231
5.03649
3.86222
2.57293
1.43332
0.681955
0.511235
1.05658
2.39447
4.54808
7.4979
11.1947
15.5722
20.5568
26.0743
32.0514
38.414
45.0838
51.9725
58.9791
65.9879
72.8709
79.4942
85.7277
91.4567
96.5951
101.096
104.96
108.236
111.014
113.42
115.591
117.655
119.712
121.806
123.915
125.941
127.712
128.991
129.506
128.969
127.111
123.714
118.636
111.831
103.362
93.3996
82.2173
70.171
57.676
45.1753
33.1065
21.8686
11.7921
3.11629
-4.0253
-9.60852
-13.7123
-16.5028
-18.2108
-19.1041
-19.4593
-19.5358
-19.5533
-19.6773
-20.0108
-20.5938
-21.4098
-22.3975
-23.4649
-24.5059
-25.4158
-26.104
-26.504
-26.579
-26.3232
-25.7599
-24.9356
-23.9128
-22.7616
-21.5514
-20.3433
-19.1855
-18.1091
-17.1278
-16.2391
-15.4269
-14.6664
-13.9283
-13.1843
-12.4105
-11.5912
-10.72
-9.80024
-8.84364
-7.86843
-6.89631
-5.94967
-5.04891
-4.21052
-3.44596
-2.76136
-2.15807
-1.63357
-1.18279
-0.79927
-0.476068
-0.206249
0.0170448
0.200888
0.353038
0.482369
0.599083
0.714519
0.840507
0.988261
1.16696
1.38219
1.63461
1.919
2.22397
2.53257
2.8235
3.07322
3.25827
3.35792
3.35647
3.24519
3.02356
2.69965
2.2898
1.81744
1.31137
0.803601
0.326887
-0.0877281
-0.413301
-0.629079
-0.722152
-0.688518
-0.533482
-0.271302
0.0758839
0.479818
0.908415
1.32842
1.70822
2.02049
2.24452
2.36793
2.38753
2.30936
2.14777
1.92365
1.66196
1.38888
1.12883
0.901739
0.720899
0.591554
0.510487
0.466596
0.442396
0.416308
0.365444
0.268597
0.109055
-0.123103
-0.429512
-0.803029
-1.22832
-1.6835
-2.14255
-2.57844
-2.96629
-3.28658
-3.52762
-3.68734
-3.77379
-3.80458
-3.80501
-3.80521
-3.83663
-3.92826
-4.10308
-4.37529
-4.7486
-5.21594
-5.76057
-6.35853
-6.98195
-7.6029
-8.1972
-8.74764
-9.24609
-9.69434
-10.1033
-10.4909
-10.8783
-11.2862
-11.7299
-12.2152
-12.7355
-13.2697
-13.7822
-14.2251
-14.5411
-14.669
-14.5487
-14.1272
-13.3628
-12.2282
-10.7121
-8.81927
-6.56844
-3.99112
-1.12979
1.96241
5.22076
8.56693
11.9066
15.1282
18.1032
20.6906
22.7443
24.124
24.7093
24.4134
23.1965
21.0754
18.1282
14.4928
10.3596
5.95888
1.54514
-2.61871
-6.27325
-9.1671
-11.0513
-11.6632
-10.7031
-7.81128
-2.55538
5.55922
17.0465
32.3601
51.7815
75.2907
102.443
132.277
163.287
193.472
220.474
241.793
255.066
258.364
250.468
231.089
200.981
161.937
116.654
68.4773
21.0611
-22.0169
-57.6384
-83.4729
-98.2117
-101.679
-94.8071
-79.4887
-58.319
-34.2738
-10.3593
10.7195
26.8344
36.6228
39.5744
36.0117
26.9758
14.0382
-0.932874
-16.0189
-29.4804
-39.9425
-46.5193
-48.8679
-47.171
-42.0597
-34.4896
-25.5919
-16.5186
-8.30232
-1.74602
2.64732
4.70066
4.54614
2.57254
-0.652847
-4.47532
-8.24427
-11.3938
-13.5038
-14.3358
-13.8429
-12.1537
-9.53745
-6.35387
-2.99782
0.155644
2.7987
4.72603
5.85514
6.23082
6.01453
5.46102
4.8856
4.62607
5.00364
6.28718
8.66436
12.2225
16.941
22.6949
29.2702
36.3867
43.7274
50.9703
57.818
64.025
69.4161
73.8988
77.4655
80.188
82.2052
83.7056
84.9067
86.034
87.3016
88.8954
90.9604
93.5927
96.8355
100.679
105.062
109.881
114.992
120.221
125.372
130.23
134.572
138.169
140.793
142.226
142.264
140.73
137.485
132.442
125.576
116.937
106.661
94.9709
82.1766
68.6659
54.8857
41.3167
28.4408
16.7052
6.4864
-1.94102
-8.4279
-12.9622
-15.6673
-16.7877
-16.6613
-15.6845
-14.2714
-12.8135
-11.6432
-11.006
-11.0434
-11.7879
-13.1702
-15.0367
-17.1747
-19.3421
-21.2976
-22.8283
-23.7719
-24.0314
-23.5812
-22.4646
-20.785
-18.6899
-16.3522
-13.9508
-11.6505
-9.58737
-7.85625
-6.50537
-5.53571
-4.90594
-4.5416
-4.34734
-4.2205
-4.06463
-3.80101
-3.3774
-2.77279
-1.99813
-1.09297
-0.118879
0.849707
1.73567
2.46942
2.99767
3.28994
3.34195
3.17554
2.83537
2.38276
1.88756
1.41916
1.0378
0.787333
0.690303
0.746083
0.932076
1.20782
1.5213
1.81654
2.0414
2.15446
2.13019
1.9617
1.66088
1.25604
0.78741
0.301376
-0.155855
-0.544168
-0.834291
-1.01083
-1.07324
-1.03482
-0.919915
-0.75993
-0.588671
-0.437792
-0.332876
-0.290642
-0.317548
-0.409854
-0.555005
-0.734035
-0.924562
-1.10392
-1.252
-1.35337
-1.3986
-1.38454
-1.31376
-1.19325
-1.03274
-0.84281
-0.633282
-0.411876
-0.183496
0.0499081
0.288899
0.535653
0.792778
1.06205
1.34327
1.63343
1.92632
2.21258
2.48034
2.71614
2.90631
3.03831
3.10211
3.09128
3.00361
2.84127
2.61034
2.31985
1.98052
1.6032
1.19758
0.771119
0.328497
-0.128251
-0.599065
-1.0847
-1.58539
-2.09953
-2.62281
-3.14794
-3.66506
-4.16289
-4.63029
-5.05804
-5.44032
-5.77569
-6.06705
-6.32088
-6.54545
-6.74855
-6.93509
-7.1049
-7.25128
-7.36055
-7.41262
-7.38259
-7.24294
-6.9661
-6.52677
-5.90388
-5.08198
-4.05197
-2.81162
-1.36568
0.273886
2.08773
4.0489
6.12275
8.26734
10.4344
12.5711
14.6224
16.5346
18.2578
19.7498
20.977
21.9163
22.554
22.8843
22.9065
22.6223
22.033
21.1378
19.9332
18.415
16.5819
14.4419
12.0199
9.36818
6.57907
3.79845
1.24105
-0.795191
-1.91801
-1.63729
0.625373
5.50817
13.6565
25.6446
41.8734
62.4556
87.1016
115.03
144.923
174.951
202.867
226.198
242.479
249.55
245.837
230.605
204.125
167.736
123.773
75.3725
26.1697
-20.0786
-59.8941
-90.4523
-109.882
-117.452
-113.623
-99.9562
-78.8969
-53.4639
-26.8834
-2.21863
17.9611
31.8317
38.4612
37.8406
30.8025
18.8457
3.89604
-11.9647
-26.7638
-38.8651
-47.1351
-51.0309
-50.6081
-46.4536
-39.5591
-31.1565
-22.5388
-14.8898
-9.14444
-5.89163
-5.33069
-7.27983
-11.232
-16.4466
-22.063
-27.2187
-31.1588
-33.3229
-33.4003
-31.3509
-27.3907
-21.9472
-15.5929
-8.96597
-2.68958
2.70083
6.8142
9.43874
10.5531
10.3143
9.02598
7.09281
4.96702
3.09471
1.86764
1.58568
2.43288
4.46854
7.63271
11.7639
16.6258
21.9395
27.4165
32.7897
37.8385
42.4069
46.4123
49.8467
52.7691
55.2927
57.5682
59.7652
62.0537
64.5887
67.4964
70.8651
74.7388
79.1145
83.9427
89.1297
94.5427
100.017
105.363
110.378
114.855
118.591
121.402
123.127
123.634
122.831
120.662
117.11
112.196
105.98
98.5543
90.0504
80.6349
70.5118
59.9214
49.1362
38.4532
28.1806
18.62
10.0462
2.68535
-3.3047
-7.84897
-10.9631
-12.7524
-13.4018
-13.1578
-12.3041
-11.1347
-9.92526
-8.90932
-8.25881
-8.07288
-8.37511
-9.11907
-10.201
-11.478
-12.7883
-13.9729
-14.8935
-15.4477
-15.5777
-15.2733
-14.5686
-13.5336
-12.2626
-10.8594
-9.42406
-8.04016
-6.76663
-5.63331
-4.64143
-3.76824
-2.97472
-2.21493
-1.44533
-0.632401
0.242453
1.18155
2.17292
3.19494
4.22252
5.23317
6.21184
7.15319
8.06117
8.94595
9.81892
10.6871
11.5478
12.3856
13.1708
13.8614
14.4074
14.757
14.8638
14.6937
14.2309
13.4811
12.4731
11.2564
9.89697
8.4709
7.05669
5.72758
4.54452
3.55082
2.76881
2.19912
1.82222
1.60218
1.49212
1.4405
1.3977
1.32194
1.18402
0.970095
0.682502
0.338377
-0.0336036
-0.397934
-0.717796
-0.960659
-1.1032
-1.13492
-1.05992
-0.89676
-0.676206
-0.437483
-0.223338
-0.074753
-0.0260056
-0.100806
-0.310049
-0.651492
-1.11134
-1.66746
-2.29355
-2.96367
-3.65605
-4.35581
-5.05576
-5.75542
-6.45828
-7.16786
-7.88345
-8.59627
-9.28687
-9.92432
-10.4675
-10.8682
-11.0763
-11.0457
-10.7412
-10.1447
-9.2614
-8.12305
-6.78978
-5.34844
-3.90781
-2.59061
-1.5227
-0.820371
-0.576835
-0.84966
-1.65064
-2.93977
-4.62455
-6.56514
-8.58548
-10.4893
-12.0799
-13.1807
-13.6558
-13.426
-12.4801
-10.879
-8.75157
-6.28319
-3.69789
-1.23534
0.874313
2.43519
3.30737
3.42278
2.79353
1.51163
-0.260095
-2.3047
-4.37359
-6.21226
-7.58642
-8.30574
-8.24275
-7.34499
-5.63907
-3.22637
-0.270931
3.01911
6.41412
9.6871
12.6364
15.1041
16.9891
18.2517
18.9121
19.041
18.7457
18.153
17.3906
16.5716
15.7809
15.0676
14.4426
13.8813
13.3313
12.7238
11.9858
11.0527
9.88095
8.45728
6.80891
5.01336
3.2108
1.61933
0.552083
0.43213
1.79834
5.29328
11.6245
21.4933
35.4921
53.9766
76.9322
103.855
133.676
164.755
194.95
221.789
242.706
255.336
257.817
249.069
228.984
198.516
159.63
115.133
68.3863
22.9451
-17.8232
-51.0999
-74.9028
-88.2678
-91.3038
-85.1194
-71.6364
-53.3202
-32.8645
-12.8723
4.42664
17.3916
25.0976
27.3656
24.7012
18.1568
9.14165
-0.793349
-10.166
-17.7439
-22.6768
-24.5674
-23.4782
-19.879
-14.5467
-8.43443
-2.5294
2.2823
5.3263
6.21441
4.87604
1.546
-3.28634
-8.95706
-14.7242
-19.8673
-23.7767
-26.0227
-26.396
-24.9183
-21.8229
-17.511
-12.4902
-7.30595
-2.4738
1.5794
4.55807
6.32173
6.8885
6.42031
5.19338
3.55891
1.89963
0.587284
-0.054311
0.222362
1.57071
4.0432
7.59483
12.0954
17.3486
23.1149
29.1369
35.164
40.9741
46.3914
51.2994
55.6466
59.4465
62.7712
65.7402
68.5047
71.2298
74.077
77.1871
80.6676
84.5831
88.9521
93.7473
98.9008
104.312
109.854
115.388
120.762
125.822
130.408
134.359
137.509
139.686
140.714
140.413
138.612
135.157
129.928
122.861
113.966
103.348
91.2171
77.8962
63.8115
49.4731
35.4431
22.2937
10.5604
0.694562
-6.97771
-12.2867
-15.2348
-15.9954
-14.8947
-12.3775
-8.9629
-5.19247
-1.57898
1.44015
3.53908
4.52622
4.35139
3.09777
0.960199
-1.7867
-4.82648
-7.84012
-10.5419
-12.7082
-14.1957
-14.9486
-14.9945
-14.4298
-13.3995
-12.0724
-10.6171
-9.18106
-7.87531
-6.76608
-5.87382
-5.17859
-4.63033
-4.16201
-3.70339
-3.1934
-2.58951
-1.87308
-1.05043
-0.149839
0.784491
1.70045
2.54653
3.2796
3.8708
4.30898
4.6012
4.77071
4.8527
4.88878
4.921
4.98634
5.11229
5.31421
5.59432
5.94254
6.33861
6.75504
7.16042
7.52251
7.81091
7.999
8.06524
7.99399
7.77586
7.40793
6.89368
6.24285
5.47098
4.59863
3.65022
2.65242
1.63231
0.615279
-0.376809
-1.32715
-2.22477
-3.06442
-3.84559
-4.57074
-5.24301
-5.86388
-6.43108
-6.93715
-7.36899
-7.70847
-7.93413
-8.02378
-7.95772
-7.722
-7.3115
-6.73206
-6.00162
-5.14991
-4.21693
-3.2502
-2.3013
-1.42209
-0.661086
-0.060441
0.346135
0.534433
0.489736
0.20593
-0.31593
-1.06911
-2.04216
-3.21883
-4.57663
-6.08427
-7.69837
-9.36075
-10.9971
-12.5185
-13.8255
-14.8161
-15.3952
-15.4861
-15.0407
-14.048
-12.5391
-10.5875
-8.30487
-5.83191
-3.32655
-0.949489
1.15047
2.84976
4.0607
4.73834
4.88294
4.53798
3.7842
2.73034
1.50178
0.228246
-0.968278
-1.98408
-2.74193
-3.19621
-3.33464
-3.17657
-2.76828
-2.17576
-1.47597
-0.747323
-0.0605559
0.529065
0.987394
1.30423
1.49301
1.5875
1.63586
1.69304
1.81234
2.03758
2.39658
2.89717
3.52584
4.24945
5.01939
5.77773
6.46442
7.02461
7.41509
7.60903
7.59856
7.39477
7.02524
6.52957
5.95345
5.34217
4.73437
4.15702
3.622
3.12501
2.6469
2.15776
1.62391
1.01849
0.335898
-0.38907
-1.05776
-1.48129
-1.35496
-0.239635
2.44148
7.38144
15.3359
27.0338
43.056
63.6935
88.8076
117.715
149.131
181.186
211.54
237.58
256.696
266.59
265.586
252.886
228.739
194.48
152.445
105.752
57.9787
12.7872
-26.4707
-57.1059
-77.3626
-86.5743
-85.1872
-74.6563
-57.2288
-35.6495
-12.8266
8.4992
26.0422
38.1854
44.0991
43.7584
37.8654
27.6933
14.8772
1.18336
-11.7161
-22.4338
-30.0047
-33.9583
-34.3234
-31.5713
-26.5094
-20.1449
-13.5369
-7.65681
-3.27394
-0.877136
-0.639499
-2.4259
-5.8383
-10.2897
-15.0946
-19.5637
-23.0906
-25.2203
-25.6937
-24.4643
-21.6872
-17.6861
-12.9012
-7.82855
-2.95809
1.28316
4.57508
6.73222
7.71344
7.61382
6.6415
5.08378
3.26745
1.51896
0.129128
-0.673508
-0.738454
0.00262668
1.54257
3.81391
6.70947
10.1049
13.8796
17.934
22.2004
26.6473
31.2772
36.1188
41.2149
46.6085
52.3287
58.3787
64.7265
71.3015
77.9955
84.6689
91.1624
97.3102
102.956
107.969
112.253
115.754
118.465
120.414
121.653
122.244
122.235
121.648
120.461
118.608
115.982
112.448
107.866
102.118
95.1316
86.9082
77.539
67.2139
56.2175
44.9145
33.7236
23.083
13.4109
5.06671
-1.68461
-6.69866
-9.96591
-11.6117
-11.8822
-11.1168
-9.71189
-8.07823
-6.59857
-5.58942
-5.2716
-5.75259
-7.0221
-8.96088
-11.3611
-13.9554
-16.4508
-18.5636
-20.0506
-20.735
-20.5219
-19.405
-17.4625
-14.8445
-11.7529
-8.41773
-5.07253
-1.9307
0.833249
3.09674
4.79524
5.92133
6.51764
6.66498
6.46782
6.03911
5.48684
4.90386
4.36203
3.9108
3.57973
3.38338
3.32715
3.41233
3.63925
4.00781
4.51547
5.15341
5.90203
6.72714
7.57797
8.38809
9.07935
9.56887
9.77806
9.64271
9.12254
8.20884
6.92901
5.34696
3.55934
1.6876
-0.133069
-1.7667
-3.08994
-4.00424
-4.44548
-4.39019
-3.85749
-2.90695
-1.63252
-0.153281
1.39782
2.88631
4.18824
5.20075
5.85034
6.09798
5.94076
5.41005
4.56651
3.49263
2.28363
1.03771
-0.153198
-1.21153
-2.08003
-2.72529
-3.13861
-3.33424
-3.34561
-3.21996
-3.01214
-2.77844
-2.57097
-2.43331
-2.3976
-2.48333
-2.69748
-3.03585
-3.48497
-4.02416
-4.62733
-5.26436
-5.90206
-6.50489
-7.0358
-7.45741
-7.73381
-7.83292
-7.72939
-7.40761
-6.86448
-6.11141
-5.17517
-4.09721
-2.93133
-1.73989
-0.588735
0.458416
1.34567
2.02993
2.48466
2.70192
2.6924
2.48364
2.1164
1.6399
1.10632
0.565374
0.0595256
-0.37953
-0.732843
-0.994446
-1.16998
-1.27397
-1.3263
-1.34828
-1.35905
-1.37263
-1.39611
-1.42907
-1.4642
-1.48892
-1.4875
-1.44344
-1.34139
-1.16856
-0.915267
-0.574663
-0.141945
0.386716
1.01499
1.74658
2.58465
3.53034
4.58085
5.72749
6.95417
8.2367
9.5431
10.8346
12.0677
13.1955
14.1704
14.9458
15.478
15.7283
15.6648
15.2653
14.5191
13.4298
12.0172
10.3193
8.3925
6.31169
4.16889
2.07106
0.138151
-1.49747
-2.68828
-3.2638
-3.01715
-1.68752
1.05646
5.62441
12.4933
22.1687
35.1135
51.6468
71.8237
95.3162
121.321
148.518
175.105
198.911
217.598
228.915
230.997
222.633
203.497
174.273
136.66
93.2531
47.2942
2.33721
-38.1382
-71.1104
-94.347
-106.64
-107.913
-99.1973
-82.4672
-60.3774
-35.9275
-12.1028
8.46265
23.7603
32.5887
34.6263
30.3921
21.11
8.49828
-5.48251
-18.8892
-30.0309
-37.6514
-41.043
-40.082
-35.1903
-27.2332
-17.3738
-6.90335
2.92629
11.0505
16.7021
19.4749
19.3372
16.5983
11.8377
5.80849
-0.670359
-6.8174
-11.9768
-15.6813
-17.6849
-17.9656
-16.7003
-14.2192
-10.9464
-7.33698
-3.81749
-0.736928
1.66667
3.2822
4.12382
4.314
4.05503
3.594
3.18643
3.06343
3.40633
4.33139
5.88564
8.05327
10.7706
13.9464
17.4842
21.3016
25.3453
29.5973
34.074
38.8173
43.8804
49.3108
55.1341
61.3413
67.8806
74.6569
81.5368
88.3599
94.9539
101.151
106.805
111.804
116.081
119.619
122.447
124.638
126.295
127.534
128.469
129.189
129.739
130.107
130.211
129.896
128.944
127.089
124.047
119.547
113.376
105.413
95.6616
84.273
71.5501
57.9352
43.9808
30.3037
17.5304
6.23759
-3.10267
-10.1677
-14.8126
-17.0797
-17.1875
-15.5026
-12.498
-8.70289
-4.6507
-0.830752
2.352
4.60542
5.7652
5.79617
4.78095
2.89854
0.395777
-2.44466
-5.33615
-8.01665
-10.2715
-11.9487
-12.9655
-13.3082
-13.0237
-12.2069
-10.9847
-9.49898
-7.89093
-6.28782
-4.7935
-3.4831
-2.40176
-1.56672
-0.971993
-0.594401
-0.39996
-0.349712
-0.404359
-0.527383
-0.68666
-0.854842
-1.00894
-1.1296
-1.20049
-1.20809
-1.14208
-0.996005
-0.76833
-0.463216
-0.0909034
0.332668
0.787106
1.24964
1.69774
2.1119
2.47811
2.78941
3.04641
3.2565
3.43195
3.58717
3.73571
3.88746
4.04644
4.20974
4.36748
4.50409
4.60038
4.63631
4.59377
4.45915
4.22498
3.89078
3.46269
2.95211
2.37373
1.74311
1.07436
0.378301
-0.338651
-1.0746
-1.83142
-2.61313
-3.42389
-4.26567
-5.13635
-6.02828
-6.9277
-7.81519
-8.667
-9.45718
-10.1602
-10.7535
-11.2205
-11.5518
-11.7465
-11.8124
-11.7645
-11.6238
-11.414
-11.1594
-10.8816
-10.5974
-10.3166
-10.0412
-9.76553
-9.47675
-9.15701
-8.78565
-8.34188
-7.80727
-7.16766
-6.41429
-5.5438
-4.55711
-3.45745
-2.24786
-0.928641
0.504536
2.06148
3.75677
5.60728
7.62781
9.825
12.1901
14.6914
17.2674
19.8224
22.2263
24.3193
25.9224
26.8533
26.9458
26.0713
24.1584
21.2084
17.3037
12.6076
7.35498
1.83473
-3.63418
-8.73017
-13.1567
-16.6671
-19.0836
-20.3091
-20.3305
-19.2143
-17.0945
-14.1568
-10.6187
-6.71053
-2.65655
1.33925
5.10402
8.50205
11.4363
13.8463
15.7032
17.0033
17.7614
18.0043
17.7659
17.0838
15.9976
14.548
12.7778
10.7322
8.45988
6.01329
3.44869
0.825637
-1.79381
-4.34592
-6.76573
-8.98642
-10.9368
-12.5354
-13.6813
-14.2387
-14.0191
-12.7612
-10.1144
-5.63331
1.20878
10.9801
24.2191
41.3333
62.4772
87.4256
115.468
145.347
175.269
203.006
226.073
241.997
248.617
244.391
228.657
201.799
165.298
121.633
74.0542
26.2546
-18.0336
-55.4454
-83.3499
-100.126
-105.313
-99.6224
-84.8042
-63.4057
-38.4425
-13.0346
9.94703
28.1817
40.1139
45.0616
43.2134
35.5228
23.5209
9.07816
-5.85308
-19.4799
-30.3678
-37.5762
-40.7201
-39.9577
-35.912
-29.5446
-21.9986
-14.4371
-7.8937
-3.15585
-0.689368
-0.611256
-2.70852
-6.49642
-11.3049
-16.3801
-20.9862
-24.4964
-26.4611
-26.6487
-25.0562
-21.8907
-17.5274
-12.4508
-7.18861
-2.24573
1.95325
5.10709
7.06292
7.8219
7.52664
6.43345
4.87394
3.21169
1.79923
0.940685
0.8639
1.70458
3.50319
6.21369
9.72187
13.87
18.4838
23.3983
28.479
33.6356
38.8268
44.057
49.3646
54.8054
60.4326
66.2792
72.3423
78.5752
84.8858
91.1429
97.1899
102.862
108.006
112.501
116.27
119.295
121.614
123.314
124.524
125.384
126.028
126.556
127.015
127.374
127.526
127.279
126.38
124.531
121.425
116.787
110.411
102.202
92.2015
80.604
67.7566
54.1406
40.3358
26.9721
14.6723
3.99369
-4.62623
-10.9113
-14.7723
-16.3127
-15.8136
-13.7009
-10.4974
-6.76669
-3.05523
0.161515
2.52182
3.80585
3.94646
3.0225
1.23638
-1.12047
-3.70932
-6.18802
-8.25134
-9.66375
-10.2811
-10.0596
-9.05201
-7.39292
-5.27514
-2.92169
-0.556711
1.6206
3.45626
4.85381
5.77805
6.25051
6.33837
6.13878
5.76145
5.31193
4.8778
4.51936
4.2655
4.11474
4.04062
4.00004
3.94317
3.82314
3.60422
3.26747
2.81334
2.26105
1.64533
1.011
0.406597
-0.122258
-0.538596
-0.818385
-0.952849
-0.948683
-0.826306
-0.616539
-0.356254
-0.0836405
0.1663
0.365472
0.495243
0.547617
0.525014
0.438824
0.307018
0.151213
-0.00639819
-0.145855
-0.251671
-0.314288
-0.330663
-0.304032
-0.242955
-0.159862
-0.0692979
0.013942
0.076585
0.108443
0.103626
0.0613056
-0.0140684
-0.113162
-0.222769
-0.327375
-0.411123
-0.45993
-0.46348
-0.416782
-0.321057
-0.183799
-0.0179918
0.159386
0.329318
0.472825
0.57278
0.615177
0.589683
0.489492
0.310698
0.0515127
-0.288304
-0.707496
-1.20273
-1.7674
-2.39017
-3.05352
-3.73288
-4.39658
-5.00712
-5.5237
-5.90586
-6.11798
-6.13404
-5.94189
-5.5465
-4.97144
-4.25838
-3.46422
-2.65639
-1.90639
-1.28266
-0.843333
-0.629978
-0.66305
-0.939656
-1.43396
-2.10019
-2.87788
-3.69869
-4.49384
-5.20132
-5.77189
-6.17305
-6.39081
-6.42883
-6.30545
-6.04898
-5.69201
-5.26569
-4.79451
-4.29246
-3.76083
-3.18768
-2.54896
-1.81062
-0.931437
0.133953
1.43204
3.00741
4.89954
7.13893
9.7423
12.7065
16.0016
19.5631
23.286
27.0204
30.5722
33.7098
36.1776
37.7159
38.0865
37.101
34.6476
30.7141
25.4013
18.9256
11.6086
3.85456
-3.88224
-11.1351
-17.4623
-22.4771
-25.8648
-27.3833
-26.8458
-24.0907
-18.947
-11.206
-0.613336
13.1092
30.2062
50.7981
74.7702
101.66
130.567
160.116
188.486
213.525
232.939
244.544
246.545
237.802
218.043
187.986
149.341
104.688
57.2412
10.526
-31.9932
-67.2797
-93.0444
-107.974
-111.845
-105.502
-90.725
-69.9821
-46.1271
-22.0638
-0.427953
16.6791
27.8752
32.5854
31.0294
24.1183
13.28
0.240587
-13.2089
-25.43
-35.1155
-41.4099
-43.9637
-42.9219
-38.8523
-32.6312
-25.3024
-17.9299
-11.4636
-6.63209
-3.874
-3.31164
-4.76667
-7.81138
-11.846
-16.1896
-20.1728
-23.22
-24.9125
-25.0268
-23.5454
-20.6423
-16.6458
-11.9867
-7.13913
-2.56042
1.36083
4.34484
6.24453
7.05212
6.88934
5.98388
4.63617
3.18123
1.95047
1.23786
1.27377
2.20866
4.10718
6.95199
10.6557
15.0782
20.0472
25.3785
30.8949
36.4412
41.8945
47.1699
52.2221
57.0422
61.6524
66.0991
70.4447
74.7593
79.1131
83.5696
88.1793
92.9752
97.9693
103.149
108.478
113.891
119.297
124.577
129.586
134.152
138.085
141.178
143.215
143.985
143.291
140.968
136.896
131.014
123.338
113.964
103.083
90.9684
77.9782
64.5327
51.0935
38.1352
26.1132
15.431
6.41055
-0.731896
-5.90192
-9.13229
-10.5775
-10.4975
-9.23252
-7.17049
-4.7121
-2.23535
-0.0642722
1.5554
2.47138
2.6296
2.06863
0.905012
-0.688174
-2.50686
-4.34224
-6.00485
-7.34377
-8.25933
-8.70826
-8.70169
-8.29684
-7.58423
-6.67242
-5.67259
-4.68484
-3.78773
-3.03215
-2.43959
-2.00465
-1.70084
-1.48842
-1.32306
-1.16388
-0.979773
-0.753463
-0.482743
-0.17916
0.135476
0.433994
0.689293
0.879391
0.991305
1.02321
0.984631
0.894823
0.779639
0.667584
0.585694
0.555925
0.592589
0.701153
0.878467
1.11425
1.39341
1.69878
2.01357
2.32328
2.61664
2.88567
3.12477
3.3294
3.49468
3.61423
3.67977
3.68153
3.6095
3.45517
3.21361
2.88512
2.47632
2.00019
1.47513
0.923072
0.367121
-0.170815
-0.671954
-1.12169
-1.50961
-1.82847
-2.0725
-2.23541
-2.30879
-2.28122
-2.13876
-1.86677
-1.45315
-0.892379
-0.18992
0.633984
1.54188
2.4788
3.3745
4.14844
4.71696
5.00209
4.94079
4.49343
3.65014
2.43414
0.901356
-0.863904
-2.75672
-4.66187
-6.46543
-8.06613
-9.38511
-10.3728
-11.0122
-11.3184
-11.3343
-11.1238
-10.7625
-10.3285
-9.89284
-9.51266
-9.22588
-9.04915
-8.97859
-8.99298
-9.05884
-9.13657
-9.18669
-9.17555
-9.07971
-8.88852
-8.60492
-8.2443
-7.83197
-7.39939
-6.98
-6.60489
-6.29893
-6.07769
-5.9454
-5.89418
-5.90453
-5.94708
-5.98549
-5.98005
-5.89178
-5.68657
-5.33877
-4.834
-4.17074
-3.36046
-2.4262
-1.3998
-0.317859
0.783077
1.87133
2.92431
3.93127
4.89385
5.82425
6.74097
7.66277
8.60189
9.55762
10.5117
11.4265
12.2465
12.9042
13.3276
13.4513
13.226
12.6269
11.6591
10.3571
8.78153
7.01222
5.14198
3.274
1.52675
0.0486136
-0.958216
-1.20839
-0.306231
2.26874
7.1521
15.0511
26.663
42.5579
63.0381
87.9949
116.789
148.181
180.342
210.952
237.39
256.999
267.401
266.806
254.29
229.975
195.097
151.939
103.624
53.8089
6.29722
-35.3615
-68.2492
-90.3768
-100.869
-100.014
-89.183
-70.6216
-47.1574
-21.8554
2.33165
22.8757
37.9149
46.3988
48.1281
43.6926
34.3229
21.6809
7.6194
-6.0561
-17.7974
-26.4706
-31.4474
-32.6261
-30.3861
-25.4889
-18.942
-11.8474
-5.25375
-0.0300242
3.22519
4.23194
3.03253
-0.0451833
-4.45635
-9.52782
-14.5539
-18.8868
-22.0107
-23.5932
-23.5081
-21.8327
-18.8193
-14.8499
-10.3789
-5.87406
-1.76053
1.62376
4.05888
5.45725
5.86194
5.43072
4.40953
3.09915
1.8197
0.876825
0.532749
0.984623
2.35123
4.66837
7.8924
11.9108
16.558
21.6351
26.9313
32.2449
37.4027
42.2764
46.7941
50.947
54.7903
58.4373
62.0487
65.8143
69.932
74.5827
79.9062
85.9793
92.8008
100.284
108.259
116.485
124.672
132.501
139.661
145.863
150.867
154.492
156.618
157.18
156.161
153.577
149.462
143.864
136.838
128.45
118.788
107.972
96.1694
83.603
70.5566
57.3689
44.4193
32.1041
20.8071
10.8663
2.54269
-4.00578
-8.74002
-11.744
-13.2158
-13.4467
-12.7903
-11.6261
-10.3216
-9.19703
-8.49788
-8.37692
-8.88808
-9.9918
-11.5704
-13.4507
-15.4305
-17.305
-18.8905
-20.0422
-20.6652
-20.7183
-20.2107
-19.1938
-17.7498
-15.9784
-13.9843
-11.8664
-9.70995
-7.58206
-5.53006
-3.58295
-1.75453
-0.0476143
1.54156
3.01944
4.39225
5.66431
6.83764
7.91249
8.8885
9.76611
10.5476
11.2379
11.8441
12.3749
12.8393
13.2449
13.5961
13.893
14.1302
14.2968
14.377
14.3509
14.1963
13.8906
13.4137
12.7503
11.8926
10.843
9.6161
8.23915
6.75208
5.20572
3.65902
2.17537
0.818609
-0.35096
-1.28013
-1.92595
-2.2584
-2.26286
-1.94236
-1.31937
-0.436893
0.641771
1.83516
3.04798
4.17761
5.12249
5.7914
6.11263
6.04182
5.56737
4.7127
3.53506
2.12092
0.578608
-0.971122
-2.40539
-3.60959
-4.48703
-4.967
-5.01107
-4.61676
-3.81846
-2.68527
-1.31552
0.171597
1.64685
2.98312
4.06777
4.8137
5.16784
5.11603
4.6835
3.931
2.94696
1.8365
0.708883
-0.33529
-1.21534
-1.87898
-2.30696
-2.51349
-2.54258
-2.46098
-2.34867
-2.28841
-2.35548
-2.60893
-3.08532
-3.79546
-4.72437
-5.83429
-7.0701
-8.3664
-9.65542
-10.8746
-11.9732
-12.9173
-13.6922
-14.3032
-14.7731
-15.1381
-15.4427
-15.7328
-16.0491
-16.4219
-16.8657
-17.3771
-17.9338
-18.496
-19.0101
-19.4134
-19.64
-19.6277
-19.3239
-18.6909
-17.7096
-16.3815
-14.7274
-12.7855
-10.6064
-8.24839
-5.77198
-3.23518
-0.69038
1.81719
4.24901
6.57118
8.7513
10.755
12.5432
14.0708
15.2878
16.1421
16.5851
16.578
16.0994
15.1518
13.7668
12.0071
9.96659
7.76753
5.55624
3.50014
1.78815
0.637128
0.304809
1.10735
3.43573
7.76212
14.6259
24.59
38.1638
55.6959
77.2487
102.478
130.541
160.06
189.164
215.609
236.981
250.957
255.586
249.564
232.447
204.774
168.082
124.793
77.9886
31.1075
-12.4165
-49.5116
-77.7855
-95.7597
-102.996
-100.097
-88.5961
-70.7353
-49.1849
-26.7253
-5.93821
11.0575
22.7979
28.5744
28.44
23.1257
13.8862
2.29845
-9.95781
-21.3102
-30.4694
-36.5533
-39.1488
-38.3104
-34.5025
-28.4976
-21.2474
-13.7465
-6.90442
-1.44295
2.17284
3.76396
3.42813
1.49688
-1.53202
-5.07554
-8.54846
-11.4377
-13.3595
-14.0945
-13.5978
-11.9871
-9.5103
-6.50177
-3.33117
-0.353992
2.13134
3.91493
4.89296
5.07093
4.55369
3.52495
2.22001
0.895233
-0.201548
-0.856653
-0.909662
-0.264543
1.10759
3.17352
5.84945
9.01708
12.5423
16.2941
20.1626
24.0732
27.9964
31.952
36.0068
40.2653
44.8556
49.9094
55.5408
61.8253
68.7813
76.358
84.4312
92.8077
101.239
109.441
117.124
124.013
129.881
134.565
137.977
140.108
141.023
140.842
139.722
137.839
135.362
132.44
129.19
125.688
121.967
118.017
113.792
109.212
104.173
98.5567
92.248
85.1485
77.1953
68.3792
58.758
48.4659
37.7139
26.782
16.0016
5.73096
-3.67509
-11.8966
-18.6779
-23.8508
-27.3496
-29.2144
-29.5853
-28.6849
-26.7947
-24.2266
-21.293
-18.2798
-15.4243
-12.9001
-10.8102
-9.18835
-8.00724
-7.19257
-6.64017
-6.23428
-5.86463
-5.44051
-4.90065
-4.21802
-3.3998
-2.48282
-1.52554
-0.597948
0.229404
0.89563
1.35794
1.59733
1.62092
1.46102
1.17095
0.81849
0.477683
0.220234
0.107467
0.18391
0.473252
0.977115
1.67671
2.53696
3.51232
4.55314
5.61155
6.64562
7.62151
8.51326
9.30089
9.96751
10.4964
10.8694
11.066
11.0654
10.8487
10.4033
9.72612
8.82761
7.73324
6.48379
5.13368
3.74736
2.39446
1.14392
0.0581134
-0.812775
-1.43514
-1.79489
-1.89847
-1.7719
-1.45788
-1.01132
-0.493722
0.0328807
0.511887
0.897231
1.15716
1.27628
1.25578
1.11179
0.872274
0.572691
0.251088
-0.0570105
-0.323326
-0.53072
-0.675812
-0.770007
-0.838704
-0.9187
-1.05398
-1.2904
-1.66981
-2.22455
-2.97296
-3.91663
-5.03983
-6.31114
-7.68715
-9.11752
-10.5507
-11.9393
-13.245
-14.4409
-15.513
-16.4593
-17.2875
-18.0118
-18.6499
-19.2194
-19.7354
-20.2094
-20.6471
-21.0483
-21.4057
-21.7037
-21.9182
-22.016
-21.9562
-21.6927
-21.179
-20.3746
-19.2531
-17.8101
-16.0709
-14.095
-11.9776
-9.84487
-7.84516
-6.13365
-4.85418
-4.11926
-3.99181
-4.47156
-5.48873
-6.90665
-8.53361
-10.1426
-11.4968
-12.3772
-12.6086
-12.0813
-10.765
-8.71258
-6.05517
-2.98728
0.255065
3.4207
6.27083
8.60446
10.2786
11.2208
11.4334
10.9886
10.0157
8.6827
7.17462
5.67114
4.32689
3.25613
2.52352
2.14174
2.07549
2.25115
2.57024
2.92492
3.21323
3.35241
3.28889
3.00463
2.52047
1.89847
1.24595
0.723792
0.560189
1.06821
2.66186
5.86204
11.2821
19.5839
31.3988
47.2178
67.2601
91.3413
118.766
148.273
178.052
205.849
229.162
245.504
252.706
249.222
234.383
208.557
173.191
130.713
84.2995
37.5459
-5.9282
-42.8789
-70.7921
-88.1445
-94.5389
-90.6997
-78.3338
-59.8815
-38.1932
-16.1775
3.53382
18.8629
28.4751
31.8639
29.3282
21.8554
10.9311
-1.69314
-14.2419
-25.1377
-33.1753
-37.6336
-38.3146
-35.5152
-29.9387
-22.5649
-14.4996
-6.82243
-0.454056
3.94363
6.02475
5.77127
3.46268
-0.388669
-5.12478
-10.0387
-14.4674
-17.8698
-19.8818
-20.343
-19.2957
-16.9591
-13.6838
-9.89504
-6.03322
-2.49866
0.392284
2.43597
3.55317
3.78442
3.27147
2.22921
0.91263
-0.416454
-1.51868
-2.19966
-2.32406
-1.82065
-0.679291
1.05919
3.31796
6.00201
9.01648
12.2831
15.7525
19.4111
23.2808
27.4122
31.8723
36.7281
42.0295
47.7942
53.998
60.5719
67.4078
74.3704
81.3163
88.1132
94.6582
100.89
106.795
112.395
117.738
122.874
127.826
132.57
137.016
141.001
144.295
146.616
147.661
147.134
144.789
140.46
134.088
125.734
115.586
103.943
91.1952
77.7906
64.1993
50.8766
38.2291
26.5881
16.192
7.17827
-0.413627
-6.6317
-11.5935
-15.4647
-18.4354
-20.6991
-22.4331
-23.7853
-24.8657
-25.7426
-26.4453
-26.9693
-27.2853
-27.3487
-27.1101
-26.5247
-25.5604
-24.2031
-22.4602
-20.3612
-17.9557
-15.3095
-12.4986
-9.6027
-6.69824
-3.85194
-1.11613
1.47387
3.89987
6.15844
8.25637
10.2047
12.0124
13.6806
15.199
16.5434
17.6777
18.5573
19.1352
19.3696
19.2315
18.7116
17.8248
16.6126
15.1415
13.4986
11.7843
10.1034
8.55483
7.22242
6.16697
5.4209
4.98612
4.83526
4.91613
5.1587
5.48367
5.81169
6.07188
6.20882
6.18714
5.9934
5.63525
5.13809
4.54004
3.88594
3.22134
2.58708
2.01532
1.52714
1.13194
0.828351
0.606414
0.450487
0.342385
0.264307
0.201154
0.14202
0.0807286
0.0154922
-0.0521694
-0.118972
-0.181564
-0.238057
-0.289097
-0.338286
-0.391845
-0.457566
-0.543213
-0.654629
-0.793897
-0.957902
-1.1376
-1.31819
-1.48027
-1.60182
-1.66082
-1.63811
-1.52011
-1.3011
-0.984555
-0.583728
-0.12109
0.373024
0.862501
1.30806
1.67014
1.91199
2.00265
1.91972
1.65169
1.19942
0.576646
-0.190975
-1.06824
-2.01421
-2.98699
-3.9489
-4.87118
-5.73726
-6.54395
-7.30004
-8.02247
-8.73051
-9.43912
-10.1526
-10.86
-11.533
-12.1278
-12.5894
-12.8591
-12.884
-12.6255
-12.0681
-11.2245
-10.1374
-8.87805
-7.54022
-6.23156
-5.06278
-4.1362
-3.5349
-3.31363
-3.49221
-4.05194
-4.93525
-6.04846
-7.26769
-8.4475
-9.43185
-10.0667
-10.2135
-9.76206
-8.64224
-6.83275
-4.36625
-1.32991
2.13897
5.86197
9.63271
13.2329
16.4496
19.0927
21.0094
22.0965
22.3071
21.6521
20.1977
18.0564
15.3756
12.3236
9.07518
5.79733
2.63841
-0.280012
-2.86712
-5.06243
-6.83083
-8.15278
-9.00916
-9.3605
-9.12097
-8.12937
-6.122
-2.71478
2.59574
10.4034
21.3289
35.9221
54.536
77.1917
103.454
132.346
162.331
191.371
217.076
236.933
248.595
250.177
240.545
219.523
188
147.911
102.084
53.9653
7.26312
-34.4464
-68.1066
-91.504
-103.49
-104.075
-94.3847
-76.4926
-53.1446
-27.4254
-2.40188
19.2091
35.3115
44.6108
46.6894
41.9764
31.6224
17.3016
0.972563
-15.3734
-29.9434
-41.3283
-48.6261
-51.4924
-50.1213
-45.1643
-37.6042
-28.6034
-19.3469
-10.9004
-4.09781
0.530634
2.78628
2.78656
0.913464
-2.26428
-6.08273
-9.8756
-13.0569
-15.1847
-16.0003
-15.44
-13.623
-10.8167
-7.38761
-3.74568
-0.287472
2.65308
4.84196
6.16695
6.6426
6.39934
5.65928
4.70292
3.83167
3.3314
3.44163
4.33375
6.10012
8.7541
12.2396
16.4473
21.2347
26.4469
31.9345
37.568
43.247
48.904
54.504
60.0398
65.5257
70.9889
76.461
81.9699
87.5316
93.1433
98.778
104.381
109.866
115.122
120.012
124.387
128.095
130.995
132.971
133.947
133.893
132.831
130.828
127.992
124.449
120.326
115.729
110.727
105.337
99.5249
93.2142
86.3063
78.7073
70.357
61.2559
51.4831
41.203
30.6582
20.1493
10.0057
0.550555
-7.93322
-15.2326
-21.224
-25.8822
-29.2761
-31.554
-32.9213
-33.6124
-33.8618
-33.8785
-33.8254
-33.8065
-33.8623
-33.9734
-34.0721
-34.0574
-33.8149
-33.2357
-32.2341
-30.7618
-28.816
-26.4424
-23.7321
-20.8124
-17.8339
-14.9554
-12.3273
-10.0768
-8.29586
-7.03299
-6.28964
-6.0217
-6.14539
-6.54687
-7.09429
-7.65119
-8.08942
-8.30069
-8.20531
-7.75768
-6.94806
-5.80078
-4.3695
-2.73004
-0.972053
0.809722
2.52356
4.08759
5.43492
6.51682
7.30415
7.78712
7.97378
7.8876
7.56446
7.0493
6.39269
5.64743
4.86527
4.09391
3.37424
2.73821
2.20731
1.79191
1.49167
1.29687
1.19075
1.15233
1.15967
1.19281
1.23629
1.28069
1.32326
1.36742
1.42146
1.49651
1.60437
1.75514
1.95535
2.20646
2.50406
2.83782
3.19207
3.54694
3.87991
4.16759
4.38755
4.52011
4.54988
4.46712
4.26876
3.95893
3.54905
3.05743
2.5081
1.92932
1.35144
0.80457
0.316079
-0.0917241
-0.403632
-0.613047
-0.722824
-0.745339
-0.701716
-0.620188
-0.533682
-0.47678
-0.482333
-0.578067
-0.783557
-1.10794
-1.54867
-2.0914
-2.7112
-3.37484
-4.04411
-4.67966
-5.24518
-5.71134
-6.05912
-6.28215
-6.38768
-6.39609
-6.33875
-6.25469
-6.18617
-6.17392
-6.25259
-6.44703
-6.76993
-7.22104
-7.78819
-8.4498
-9.17855
-9.94552
-10.7243
-11.4945
-12.243
-12.9654
-13.6633
-14.3425
-15.0084
-15.6618
-16.2956
-16.8912
-17.4182
-17.8342
-18.0882
-18.1241
-17.8861
-17.3243
-16.3998
-15.0891
-13.3875
-11.3103
-8.89339
-6.19181
-3.27718
-0.234709
2.84048
5.84698
8.68079
11.2391
13.4241
15.1476
16.3356
16.9337
16.9116
16.2682
15.0339
13.2715
11.0749
8.56463
5.88118
3.17676
0.606942
-1.67593
-3.52501
-4.79445
-5.32654
-4.93054
-3.35642
-0.269979
4.76105
12.259
22.7967
36.9207
55.0413
77.2984
103.427
132.648
163.61
194.409
222.704
245.908
261.47
267.182
261.49
243.754
214.418
175.048
128.239
77.382
26.3263
-21.0249
-61.1344
-91.2094
-109.492
-115.425
-109.675
-94.0148
-71.0769
-44.0269
-16.1868
9.33642
29.9745
43.9377
50.3475
49.2553
41.5509
28.783
12.9183
-3.92499
-19.7376
-32.8411
-42.0493
-46.7558
-46.9444
-43.1275
-36.2293
-27.4307
-18.0008
-9.13486
-1.81832
3.26894
5.80164
5.80959
3.63508
-0.143286
-4.80743
-9.60327
-13.8376
-16.9574
-18.6032
-18.6338
-17.1214
-14.3211
-10.6216
-6.48446
-2.38065
1.26768
4.13368
6.01624
6.85234
6.71173
5.77637
4.30877
2.61418
1.00202
-0.24854
-0.91491
-0.84679
0.0294907
1.7171
4.16293
7.27652
10.9502
15.0773
19.5655
24.3448
29.37
34.6174
40.0793
45.7557
51.6464
57.744
64.0285
70.4644
77.0001
83.5685
90.0908
96.4803
102.648
108.508
113.983
119.008
123.539
127.546
131.019
133.962
136.386
138.299
139.698
140.555
140.809
140.36
139.073
136.779
133.295
128.442
122.067
114.069
104.423
93.1969
80.5604
66.7887
52.2517
37.3954
22.7136
8.71353
-4.12287
-15.3763
-24.724
-31.9654
-37.0371
-40.0158
-41.107
-40.6233
-38.9525
-36.5194
-33.7465
-31.0164
-28.6408
-26.8389
-25.7264
-25.3163
-25.5303
-26.2187
-27.1853
-28.2156
-29.103
-29.6715
-29.7918
-29.3906
-28.4516
-27.0095
-25.1391
-22.9394
-20.5185
-17.9782
-15.4024
-12.8508
-10.3566
-7.93052
-5.56816
-3.25998
-1.00224
1.19359
3.29424
5.24256
6.96057
8.3576
9.34267
9.83945
9.80137
9.22446
8.15536
6.69301
4.98285
3.20418
1.55185
0.214704
-0.646335
-0.917638
-0.546994
0.449389
1.98799
3.92699
6.08211
8.2471
10.2164
11.807
12.8775
13.3406
13.1707
12.4021
11.1225
9.4598
7.56589
5.59884
3.70614
2.01071
0.601015
-0.473721
-1.20332
-1.61197
-1.75014
-1.68447
-1.48709
-1.22581
-0.956289
-0.716966
-0.527104
-0.387803
-0.285507
-0.197228
-0.0965391
0.040571
0.230819
0.480309
0.783118
1.12185
1.46994
1.79534
2.06498
2.24937
2.32682
2.28647
2.12993
1.87118
1.53469
1.15203
0.757494
0.383191
0.0545305
-0.213328
-0.417454
-0.567225
-0.682479
-0.789988
-0.91876
-1.09486
-1.33656
-1.65053
-2.02978
-2.45368
-2.89022
-3.30022
-3.64296
-3.8824
-3.99316
-3.96528
-3.80713
-3.54583
-3.22516
-2.90115
-2.63589
-2.4904
-2.51766
-2.75663
-3.22828
-3.93409
-4.85703
-5.96492
-7.21511
-8.55965
-9.94987
-11.3395
-12.6862
-13.9512
-15.0979
-16.0904
-16.892
-17.4651
-17.7719
-17.7768
-17.4496
-16.769
-15.725
-14.322
-12.5792
-10.5305
-8.2224
-5.71121
-3.05937
-0.331482
2.40934
5.10443
7.70155
10.1558
12.4296
14.4915
16.3148
17.8763
19.1541
20.1276
20.7765
21.082
21.0277
20.6015
19.7974
18.6174
17.073
15.1854
12.9861
10.516
7.82484
4.97082
2.02134
-0.944286
-3.82886
-6.50714
-8.81074
-10.5088
-11.2868
-10.7288
-8.31035
-3.41221
4.63757
16.4871
32.6514
53.3795
78.5178
107.393
138.746
170.734
201.03
227.007
246.002
255.633
254.114
240.54
215.084
179.064
134.882
85.8143
35.6814
-11.5535
-52.2193
-83.3384
-102.946
-110.285
-105.856
-91.3169
-69.2455
-42.8113
-15.3881
9.8349
30.1974
43.8281
49.7947
48.1321
39.7553
26.2739
9.74116
-7.6294
-23.7409
-36.8514
-45.7472
-49.8364
-49.1588
-44.317
-36.347
-26.5479
-16.2968
-6.87216
0.6924
5.70976
7.88766
7.32343
4.45098
-0.0485036
-5.35743
-10.6383
-15.1406
-18.2866
-19.7259
-19.3571
-17.3157
-13.9344
-9.68175
-5.09121
-0.688253
3.07435
5.86625
7.50974
7.98874
7.43741
6.11196
4.35041
2.52656
1.00403
0.095905
0.0341841
0.951535
2.87631
5.74008
9.3957
13.6432
18.26
23.0321
27.7822
32.3932
36.8221
41.1044
45.3485
49.7189
54.4117
59.6242
65.523
72.2142
79.7203
87.9667
96.7802
105.899
114.998
123.713
131.684
138.587
144.164
148.25
150.783
151.805
151.449
149.916
147.447
144.288
140.66
136.73
132.596
128.273
123.701
118.752
113.254
107.022
99.8871
91.7303
82.5134
72.2988
61.2602
49.6795
37.9285
26.4395
15.6646
6.03143
-2.10102
-8.48071
-12.9893
-15.6548
-16.6472
-16.2598
-14.8757
-12.926
-10.8434
-9.0178
-7.75773
-7.26298
-7.61056
-8.7552
-10.5436
-12.7399
-15.0592
-17.204
-18.8998
-19.9258
-20.1364
-19.474
-17.9698
-15.7356
-12.9468
-9.82021
-6.58931
-3.47947
-0.686724
1.63856
3.40157
4.56615
5.15151
5.22371
4.88337
4.25151
3.4552
2.61467
1.83293
1.18869
0.732844
0.488326
0.453029
0.604951
0.908833
1.32335
1.80798
2.32874
2.86225
3.39763
3.93628
4.48961
5.07509
5.7114
6.41313
7.18599
8.02299
8.90225
9.78678
10.6264
11.3615
11.9288
12.267
12.3244
12.0637
11.4676
10.5411
9.31251
7.83231
6.16976
4.40817
2.63893
0.95479
-0.556838
-1.82032
-2.77722
-3.39051
-3.64702
-3.55821
-3.15895
-2.50447
-1.6657
-0.723378
0.23871
1.14056
1.91242
2.50018
2.86921
3.00632
2.91963
2.63647
2.19954
1.66178
1.08053
0.511688
0.00430359
-0.403632
-0.688005
-0.839713
-0.86415
-0.779259
-0.612503
-0.397221
-0.168864
0.038424
0.194561
0.275386
0.263594
0.148847
-0.0727431
-0.399511
-0.825261
-1.34022
-1.93182
-2.58517
-3.2835
-4.00834
-4.73987
-5.45746
-6.14042
-6.7691
-7.32619
-7.79815
-8.17655
-8.45914
-8.65038
-8.76145
-8.80951
-8.81627
-8.80602
-8.80329
-8.83027
-8.90454
-9.0371
-9.23111
-9.48134
-9.77447
-10.0901
-10.4022
-10.6815
-10.8971
-11.0192
-11.0208
-10.8793
-10.578
-10.1067
-9.46232
-8.64878
-7.67655
-6.56174
-5.32479
-3.98876
-2.57738
-1.1131
0.384759
1.90122
3.42613
4.9536
6.48031
8.0029
9.51479
11.0028
12.4445
13.8068
15.046
16.11
16.943
17.4904
17.7058
17.7058
17.7058
17.7058
17.7058
17.7058
17.7058
17.7058
17.7058
17.7058
17.7058
17.7058
17.7058
17.7058
17.7058
17.7058
17.7058
17.7058
17.7058
17.7058
