-17.3186
-30.8296
-44.8547
-58.6827
-71.5334
-82.6296
-91.2745
-96.9251
-99.2529
-98.1834
-93.9094
-86.8752
-77.7341
-67.2838
-56.3859
-45.8811
-36.5084
-28.8382
-23.2259
-19.791
-18.4224
-18.8082
-20.4851
-22.901
-25.4815
-27.695
-29.1061
-29.415
-28.4784
-26.3107
-23.0683
-19.0193
-14.5034
-9.88826
-5.52545
-1.71355
1.33014
3.48573
4.73431
5.14948
4.8788
4.11827
3.08342
1.98081
0.983443
0.212959
-0.269605
-0.463847
-0.421423
-0.230594
0.00352277
0.179907
0.220681
0.0855173
-0.220509
-0.646495
-1.10244
-1.47175
-1.62737
-1.44878
-0.837399
0.272023
1.90531
4.04847
6.65237
9.64106
12.9216
16.3938
19.957
23.5147
26.9753
30.25
33.2498
35.8826
38.0524
39.661
40.6135
40.8259
40.2348
38.8071
36.548
33.5058
29.7737
25.4863
20.813
15.9476
11.0952
6.45905
2.22654
-1.44298
-4.42866
-6.65604
-8.10237
-8.79921
-8.83221
-8.3373
-7.4921
-6.50058
-5.56857
-4.8685
-4.49278
-4.39806
-4.34598
-3.84931
-2.13562
1.85795
9.44635
22.1059
41.3292
68.4339
104.341
149.354
202.962
263.718
329.202
396.109
460.45
517.863
564.014
595.019
607.865
600.766
573.396
526.987
464.261
389.203
306.705
222.106
140.704
67.2662
5.61637
-41.6701
-73.4315
-89.9314
-92.7249
-84.3999
-68.2319
-47.7941
-26.5692
-7.60629
6.74464
14.9956
16.5734
11.7663
1.58006
-12.4703
-28.603
-45.0146
-60.0987
-72.6159
-81.7983
-87.3849
-89.59
-89.0152
-86.5227
-83.089
-79.6593
-77.0219
-75.7143
-75.9724
-77.7232
-80.6188
-84.1036
-87.5032
-90.1214
-91.3335
-90.6627
-87.8336
-82.7958
-75.7192
-66.9617
-57.018
-46.4548
-35.8431
-25.6949
-16.4112
-8.24683
-1.2941
4.51384
9.38269
13.6225
17.6039
21.7104
26.291
31.6202
37.8665
45.0747
53.1623
61.9303
71.086
80.2761
89.1242
97.2695
104.401
110.285
114.782
117.848
119.532
119.957
119.296
117.746
115.499
112.721
109.531
105.998
102.133
97.9089
93.2669
88.1441
82.4932
76.3022
69.6091
62.5079
55.147
47.7184
40.4409
33.5382
27.2162
21.6417
16.9261
13.1148
10.1855
8.05294
6.58095
5.59989
4.92653
4.38465
3.8237
3.13363
2.25432
1.17877
-0.0500994
-1.34833
-2.60448
-3.69593
-4.5062
-4.9409
-4.94074
-4.48988
-3.61886
-2.40183
-0.948614
0.607369
2.1237
3.4643
4.51359
5.18785
5.44235
5.27359
4.71638
3.83636
2.71899
1.45663
0.135589
-1.17497
-2.43054
-3.61396
-4.73293
-5.81253
-6.88407
-7.97219
-9.08253
-10.1928
-11.249
-12.1688
-12.8513
-13.193
-13.106
-12.5372
-11.483
-9.99846
-8.19826
-6.24834
-4.35026
-2.71932
-1.55985
-1.04089
-1.27562
-2.30731
-4.10352
-6.55928
-9.50868
-12.7432
-16.0345
-19.1583
-21.9173
-24.1594
-25.7909
-26.7811
-27.1614
-27.0163
-26.47
-25.6696
-24.7663
-23.8983
-23.1753
-22.668
-22.4019
-22.3565
-22.4699
-22.6478
-22.776
-22.7347
-22.4135
-21.7253
-20.6171
-19.0773
-17.1374
-14.8698
-12.3798
-9.79474
-7.25071
-4.87815
-2.78845
-1.06249
0.257981
1.17521
1.73658
2.03167
2.1858
2.35015
2.6893
3.36685
4.5302
6.29575
8.73591
11.8693
15.6556
19.9953
24.7356
29.6816
34.6107
39.2915
43.502
47.0473
49.7749
51.5844
52.4338
52.3395
51.3712
49.6443
47.307
44.5276
41.4797
38.3284
35.2177
32.2603
29.53
27.0584
24.8348
22.8102
20.9047
19.0178
17.0401
14.8658
12.404
9.5894
6.3882
2.80252
-1.12953
-5.3365
-9.71844
-14.153
-18.5012
-22.6114
-26.3196
-29.4436
-31.7693
-33.0286
-32.8705
-30.829
-26.297
-18.5144
-6.58422
10.4754
33.6382
63.736
101.296
146.367
198.356
255.916
316.896
378.392
436.896
488.555
529.501
556.232
565.998
557.124
529.26
483.479
422.246
349.223
268.955
186.454
106.737
34.3721
-26.9238
-74.5832
-107.36
-125.357
-129.914
-123.372
-108.758
-89.421
-68.6562
-49.3818
-33.8786
-23.6275
-19.2519
-20.5618
-26.6859
-36.2668
-47.6907
-59.3216
-69.7108
-77.7599
-82.8211
-84.7301
-83.7725
-80.5952
-76.0796
-71.1943
-66.8503
-63.7759
-62.4264
-62.9375
-65.1243
-68.5243
-72.4731
-76.2018
-78.9412
-80.0192
-78.9379
-75.4239
-69.4462
-61.2025
-51.0791
-39.5913
-27.3144
-14.8146
-2.58936
8.97714
19.6388
29.292
37.9626
45.7771
52.927
59.629
66.0883
72.4688
78.8735
85.3365
91.8248
98.2505
104.488
110.397
115.838
120.695
124.885
128.361
131.114
133.164
134.548
135.308
135.474
135.056
134.03
132.341
129.899
126.596
122.315
116.958
110.456
102.802
94.0551
84.3566
73.9251
63.0479
52.0613
41.3246
31.1898
21.9708
13.9156
7.18478
1.83946
-2.16113
-4.95099
-6.73964
-7.78718
-8.37547
-8.77861
-9.23639
-9.93338
-10.9859
-12.4379
-14.2651
-16.3869
-18.6835
-21.0153
-23.2419
-25.2388
-26.9088
-28.188
-29.0463
-29.483
-29.5198
-29.1927
-28.5437
-27.6152
-26.4467
-25.0744
-23.532
-21.8536
-20.0763
-18.2419
-16.3969
-14.5914
-12.8754
-11.2947
-9.88631
-8.67413
-7.66643
-6.85491
-6.21596
-5.71393
-5.30576
-4.94642
-4.59414
-4.21483
-3.78503
-3.29314
-2.73891
-2.13152
-1.48674
-0.823822
-0.162613
0.478503
1.0837
1.63974
2.13514
2.55889
2.89923
3.14288
3.27521
3.2815
3.14921
2.87091
2.44744
1.89057
1.22455
0.48611
-0.277545
-1.01253
-1.66368
-2.18085
-2.5253
-2.67515
-2.62899
-2.40691
-2.04859
-1.60854
-1.14911
-0.732148
-0.410707
-0.22184
-0.181734
-0.28385
-0.500369
-0.786755
-1.08871
-1.35049
-1.52312
-1.57131
-1.47769
-1.24376
-0.887265
-0.436432
0.0778393
0.63052
1.2101
1.8239
2.50013
3.28617
4.24372
5.44141
6.9467
8.81807
11.099
13.8144
16.9693
20.5501
24.5267
28.8557
33.4826
38.3437
43.3663
48.4678
53.5548
58.5212
63.2482
67.6043
71.4485
74.6349
77.0191
78.4669
78.8637
78.1239
76.2002
73.0912
68.8462
63.5677
57.4098
50.5724
43.2918
35.8279
28.4481
21.4105
14.9462
9.24329
4.43432
0.587577
-2.29602
-4.28037
-5.48629
-6.07913
-6.25322
-6.21469
-6.16363
-6.27597
-6.68395
-7.45305
-8.55259
-9.81763
-10.9026
-11.2314
-9.95425
-5.92773
2.26275
16.2201
37.5813
67.7935
107.84
157.953
217.356
284.097
355.014
425.866
491.632
546.963
586.735
606.637
603.714
576.79
526.702
456.313
370.284
274.638
176.161
81.7136
-2.46104
-71.3437
-121.599
-151.826
-162.594
-156.244
-136.518
-108.05
-75.7936
-44.4653
-18.0496
0.562006
9.77745
9.34114
0.212575
-15.6846
-35.8009
-57.3381
-77.6155
-94.383
-106.048
-111.796
-111.608
-106.172
-96.7203
-84.8204
-72.143
-60.2455
-50.3928
-43.4337
-39.7426
-39.2258
-41.3851
-45.4238
-50.378
-55.2532
-59.1503
-61.3655
-61.4554
-59.263
-54.9059
-48.7314
-41.2483
-33.045
-24.7053
-16.7324
-9.48986
-3.1652
2.24039
6.89615
11.1036
15.2421
19.7056
24.8405
30.8922
37.9673
46.0163
54.8382
64.1049
73.4027
82.2829
90.3154
97.138
102.495
106.261
108.447
109.191
108.732
107.375
105.45
103.275
101.115
99.1592
97.5036
96.146
94.9923
93.8716
92.5597
90.8063
88.3656
85.0268
80.6409
75.1422
68.5616
61.0294
52.7685
44.0768
35.3017
26.8088
18.9481
12.0226
6.26161
1.80201
-1.32008
-3.16734
-3.88933
-3.70236
-2.86398
-1.64508
-0.303022
0.941513
1.92154
2.53336
2.73833
2.55734
2.05928
1.34556
0.532789
-0.264133
-0.946499
-1.44242
-1.71278
-1.75231
-1.58634
-1.26422
-0.850497
-0.415523
-0.0264947
0.259885
0.402487
0.378283
0.182407
-0.173842
-0.666463
-1.26301
-1.92703
-2.62218
-3.31568
-3.98103
-4.59981
-5.16275
-5.67002
-6.13095
-6.56309
-6.99066
-7.44237
-7.94863
-8.53818
-9.23451
-10.0522
-10.994
-12.0486
-13.1901
-14.3793
-15.5662
-16.6945
-17.7074
-18.5531
-19.1905
-19.5937
-19.7546
-19.6833
-19.4064
-18.9631
-18.3993
-17.7616
-17.0907
-16.4161
-15.7516
-15.0947
-14.4268
-13.717
-12.9283
-12.024
-10.9753
-9.76807
-8.40747
-6.92007
-5.35299
-3.77003
-2.24527
-0.855027
0.330753
1.25652
1.88749
2.21348
2.24991
2.03567
1.62848
1.0981
0.51862
-0.0394448
-0.516105
-0.867102
-1.06674
-1.10802
-1.00001
-0.762914
-0.421525
0.00209822
0.495464
1.06108
1.71961
2.51023
3.48812
4.71935
6.27357
8.21563
10.5968
13.4466
16.7666
20.5266
24.6637
29.0848
33.6722
38.291
42.7986
47.054
50.9264
54.3024
57.0897
59.2197
60.6465
61.3447
61.3057
60.5351
59.0499
56.8778
54.058
50.6429
46.7009
42.318
37.5986
32.6638
27.6473
22.6881
17.9218
13.47
9.43059
5.86876
2.81168
0.246571
-1.87666
-3.63869
-5.14075
-6.49276
-7.80125
-9.1591
-10.6381
-12.2846
-14.1173
-16.123
-18.2458
-20.3652
-22.2578
-23.5438
-23.6264
-21.6368
-16.4074
-6.49688
9.71399
33.8443
67.2609
110.779
164.358
226.856
295.895
367.885
438.237
501.744
553.105
587.517
601.254
592.15
559.919
506.254
434.702
350.315
259.132
167.564
81.7388
6.90868
-53.0238
-95.8099
-120.959
-129.647
-124.445
-108.922
-87.1687
-63.3051
-41.0361
-23.2932
-12.0026
-7.9928
-11.0389
-20.0248
-33.1925
-48.4399
-63.6259
-76.8452
-86.6433
-92.1505
-93.1283
-89.9305
-83.3938
-74.6785
-65.0841
-55.8674
-48.083
-42.4672
-39.3738
-38.765
-40.2545
-43.1903
-46.7642
-50.1308
-52.52
-53.3296
-52.188
-48.9815
-43.8471
-37.1342
-29.3429
-21.0497
-12.8301
-5.18795
1.50033
7.02171
11.3403
14.5894
17.0441
19.0801
21.1232
23.5966
26.8706
31.2216
36.8032
43.6312
51.5851
60.4241
69.8149
79.3691
88.684
97.3834
105.152
111.763
117.086
121.09
123.831
125.423
126.008
125.73
124.697
122.971
120.549
117.378
113.363
108.396
102.388
95.2984
87.1598
78.094
68.3146
58.1168
47.8544
37.9082
28.6495
20.4041
13.4214
7.8521
3.73774
1.01258
-0.483291
-0.981505
-0.756933
-0.0969876
0.727682
1.48787
2.01354
2.20319
2.02472
1.5086
0.734814
-0.184097
-1.12165
-1.95536
-2.58216
-2.9297
-2.96293
-2.68551
-2.13665
-1.384
-0.513947
0.379511
1.20577
1.88739
2.36764
2.61503
2.62476
2.41704
2.0328
1.52743
0.963521
0.403378
-0.0976835
-0.496692
-0.766464
-0.896943
-0.894475
-0.779289
-0.581667
-0.337352
-0.0828222
0.149018
0.332247
0.450144
0.496036
0.472806
0.391192
0.267128
0.118492
-0.0383193
-0.191526
-0.336337
-0.476199
-0.622698
-0.794121
-1.01289
-1.30227
-1.68288
-2.16955
-2.769
-3.47876
-4.28748
-5.17657
-6.123
-7.10269
-8.09394
-9.08029
-10.0523
-11.0077
-11.9506
-12.889
-13.8317
-14.7849
-15.7498
-16.7206
-17.6838
-18.6187
-19.499
-20.2945
-20.9734
-21.5043
-21.8581
-22.0098
-21.9405
-21.6388
-21.1033
-20.3441
-19.3846
-18.2625
-17.0293
-15.7489
-14.4942
-13.3419
-12.3659
-11.6288
-11.1735
-11.0155
-11.1371
-11.4855
-11.9748
-12.4931
-12.9145
-13.1127
-12.9771
-12.4267
-11.4208
-9.9639
-8.10442
-5.92712
-3.54016
-1.05894
1.41051
3.78625
6.02065
8.10479
10.0663
11.9611
13.8611
15.838
17.9486
20.2208
22.6443
25.1661
27.6922
30.0947
32.223
33.9197
35.0364
35.4507
35.0801
33.8925
31.9115
29.2165
25.937
22.2418
18.3245
14.387
10.6216
7.19571
4.23781
1.82905
-0.000931749
-1.27263
-2.05052
-2.43291
-2.53927
-2.49668
-2.42703
-2.43633
-2.60676
-2.99081
-3.60582
-4.42538
-5.36347
-6.24748
-6.77827
-6.47944
-4.644
-0.292874
7.83547
21.243
41.5611
70.3626
108.907
157.843
216.915
284.723
358.603
434.652
507.95
572.952
624.032
656.099
665.225
649.175
607.774
543.05
459.11
361.782
258.037
155.283
60.6096
-19.9236
-81.8643
-122.747
-142.234
-142.018
-125.495
-97.2779
-62.6021
-26.71
5.71591
31.0054
46.7969
52.1535
47.5035
34.4269
15.3299
-6.94332
-29.5078
-49.7953
-65.8321
-76.4129
-81.1585
-80.4658
-75.3653
-67.3155
-57.9663
-48.9245
-41.5506
-36.8085
-35.1821
-36.6613
-40.7919
-46.7753
-53.6016
-60.195
-65.5523
-68.8589
-69.5705
-67.4542
-62.5892
-55.3301
-46.2432
-36.0238
-25.4083
-15.0901
-5.64902
2.49978
9.13396
14.2287
17.9402
20.5708
22.5225
24.2427
26.1698
28.6835
32.0651
36.4706
41.9206
48.3053
55.404
62.9172
70.5043
77.8252
84.5771
90.5244
95.5168
99.4939
102.477
104.549
105.828
106.437
106.475
105.998
105.005
103.442
101.213
98.2005
94.2938
89.4173
83.5541
76.7625
69.1812
61.0239
52.5616
44.0976
35.9382
28.362
21.5937
15.7845
11.0021
7.23056
4.37957
2.30188
0.81548
-0.272023
-1.14021
-1.93644
-2.76241
-3.66764
-4.65026
-5.66427
-6.63174
-7.45811
-8.04817
-8.32077
-8.22049
-7.72503
-6.84768
-5.63502
-4.16051
-2.51507
-0.796363
0.901757
2.49795
3.92929
5.15371
6.14919
6.9103
7.44319
7.7602
7.87532
7.80123
7.54837
7.1259
6.54412
5.81742
4.96707
4.02284
3.02304
2.01261
1.03953
0.149879
-0.617586
-1.23655
-1.69708
-2.00772
-2.19546
-2.30331
-2.38598
-2.50398
-2.71672
-3.07548
-3.61671
-4.35653
-5.287
-6.37475
-7.56224
-8.7719
-9.91273
-10.889
-11.6096
-11.998
-12.0005
-11.5917
-10.778
-9.597
-8.11286
-6.40999
-4.58404
-2.73232
-0.944761
0.703626
2.15788
3.38543
4.37565
5.13685
5.69148
6.0703
6.30634
6.42956
6.46259
6.41818
6.29822
6.09447
5.79085
5.36704
4.80318
4.08511
3.20958
2.18853
1.05169
-0.153188
-1.36301
-2.50489
-3.50402
-4.29301
-4.82127
-5.06291
-5.02151
-4.73081
-4.25056
-3.6581
-3.03681
-2.46332
-1.99566
-1.66458
-1.46941
-1.37946
-1.34051
-1.28553
-1.14765
-0.873193
-0.432599
0.172821
0.909477
1.71579
2.51156
3.21078
3.73563
4.02928
4.06492
3.84977
3.42312
2.84905
2.20518
1.56954
1.0078
0.562988
0.249325
0.0508569
-0.0750482
-0.190179
-0.365272
-0.668795
-1.15642
-1.86272
-2.79612
-3.93775
-5.24414
-6.65326
-8.093
-9.49088
-10.7838
-11.9267
-12.899
-13.7088
-14.3931
-15.0161
-15.663
-16.4313
-17.4185
-18.7049
-20.3309
-22.2667
-24.373
-26.3538
-27.705
-27.6675
-25.1983
-18.9769
-7.46321
10.9796
37.8936
74.4784
121.313
178.09
243.411
314.69
388.215
459.361
522.973
573.865
607.375
619.915
609.428
575.692
520.429
447.185
361.015
267.987
174.581
87.0465
10.8001
-50.0703
-93.14
-117.787
-125.134
-117.797
-99.4981
-74.5798
-47.4874
-22.2845
-2.25172
10.3906
14.6137
10.5626
-0.595244
-16.9254
-36.0452
-55.4632
-72.8955
-86.5251
-95.1771
-98.3985
-96.4413
-90.1609
-80.8502
-70.0368
-59.2703
-49.9279
-43.0599
-39.2904
-38.7794
-41.2463
-46.0444
-52.2734
-58.912
-64.9524
-69.5202
-71.967
-71.9261
-69.3304
-64.3921
-57.5513
-49.4029
-40.6124
-31.8306
-23.6189
-16.3904
-10.3748
-5.60685
-1.93917
0.923886
3.3773
5.8575
8.78326
12.5023
17.2497
23.1229
30.0741
37.9218
46.3764
55.0783
63.64
71.6892
78.9054
85.0468
89.9636
93.5996
95.9806
97.1946
97.3678
96.64
95.1438
92.9903
90.2625
87.0157
83.2834
79.0875
74.4485
69.3953
63.9715
58.2389
52.277
46.1802
40.0522
34
28.1275
22.5297
17.2881
12.4669
8.11186
4.24886
0.884864
-1.99075
-4.40393
-6.39312
-8.00598
-9.29586
-10.3182
-11.1271
-11.772
-12.2952
-12.7298
-13.0991
-13.4154
-13.6815
-13.8914
-14.0324
-14.0866
-14.034
-13.8545
-13.5303
-13.0486
-12.4041
-11.6009
-10.6543
-9.59183
-8.45265
-7.28632
-6.14953
-5.10189
-4.20076
-3.49567
-3.02309
-2.80192
-2.83055
-3.08564
-3.52303
-4.08059
-4.68304
-5.24814
-5.69376
-5.9451
-5.94147
-5.6418
-5.02866
-4.1103
-2.92065
-1.51738
0.0217521
1.60405
3.1281
4.49061
5.59353
6.35097
6.69566
6.58457
6.00346
4.97003
3.53519
1.78201
-0.178099
-2.21218
-4.17537
-5.92283
-7.32286
-8.26971
-8.69468
-8.57376
-7.93083
-6.83575
-5.39729
-3.75174
-2.04834
-0.433231
0.966271
2.05525
2.78082
3.13637
3.15976
2.92517
2.52989
2.07777
1.66209
1.35079
1.17669
1.13428
1.18386
1.26205
1.29689
1.22476
1.00613
0.637127
0.15479
-0.365311
-0.81895
-1.08922
-1.06608
-0.666221
0.150075
1.36797
2.91505
4.66685
6.46042
8.11393
9.44963
10.3171
10.6132
10.2969
9.39582
8.00544
6.27935
4.41379
2.62756
1.14073
0.154556
-0.164652
0.303488
1.62829
3.82808
6.8742
10.6972
15.1938
20.2328
25.6599
31.3011
36.9647
42.4439
47.5209
51.9731
55.5834
58.1532
59.5185
59.5668
58.2521
55.6063
51.7435
46.8571
41.2073
35.1009
28.8638
22.8106
17.2126
12.2698
8.09092
4.68306
1.95539
-0.264839
-2.20451
-4.10918
-6.2051
-8.66424
-11.5782
-14.9451
-18.6714
-22.5886
-26.4816
-30.122
-33.2983
-35.8336
-37.5827
-38.4017
-38.091
-36.3178
-32.534
-25.9115
-15.3216
0.61652
23.4036
54.443
94.7589
144.689
203.606
269.729
340.069
410.554
476.329
532.211
573.239
595.26
595.449
572.71
527.879
463.711
384.644
296.361
205.219
117.603
39.287
-25.1168
-72.5678
-101.815
-113.413
-109.535
-93.6259
-69.9324
-42.9822
-17.0682
4.19903
18.2246
23.6184
20.2284
9.02741
-8.12197
-28.7851
-50.3115
-70.1831
-86.3125
-97.2601
-102.351
-101.683
-96.0435
-86.7415
-75.3935
-63.6913
-53.1818
-45.0863
-40.1786
-38.7307
-40.5277
-44.9423
-51.0539
-57.7933
-64.092
-69.0164
-71.8724
-72.2691
-70.1388
-65.7145
-59.4719
-52.0482
-44.147
-36.4462
-29.5158
-23.7578
-19.3706
-16.3413
-14.4643
-13.3804
-12.6315
-11.7231
-10.1868
-7.63626
-3.81042
1.39904
7.93891
15.6038
24.0614
32.8909
41.6289
49.8176
57.0506
63.0106
67.4958
70.4323
71.8714
71.9744
70.9843
69.1905
66.8903
64.351
61.7783
59.2936
56.9242
54.605
52.1936
49.4952
46.2947
42.3919
37.635
31.9489
25.3539
17.9727
10.0245
1.80728
-6.32998
-14.022
-20.9239
-26.7454
-31.2793
-34.4196
-36.1684
-36.6307
-35.9978
-34.5224
-32.4873
-30.1735
-27.8299
-25.6481
-23.7469
-22.1648
-20.8639
-19.7427
-18.6571
-17.4457
-15.9583
-14.0818
-11.7613
-9.01361
-5.9303
-2.67075
0.554509
3.5078
5.95235
7.68081
8.54027
8.4509
7.41568
5.52042
2.9244
-0.15691
-3.4745
-6.77101
-9.80525
-12.3736
-14.3258
-15.5748
-16.0985
-15.9364
-15.1798
-13.9582
-12.424
-10.7362
-9.04527
-7.48067
-6.14152
-5.09107
-4.35506
-3.9237
-3.75676
-3.79098
-3.94893
-4.14854
-4.31226
-4.37498
-4.2902
-4.03372
-3.6048
-3.02472
-2.33299
-1.58195
-0.830072
-0.135126
0.452306
0.894099
1.16816
1.27002
1.21225
1.02208
0.737429
0.402037
0.0602348
-0.24793
-0.490704
-0.647371
-0.709473
-0.680525
-0.574355
-0.412396
-0.220354
-0.024692
0.150635
0.286831
0.372067
0.402304
0.381161
0.318914
0.230842
0.13516
0.0508253
-0.00449045
-0.0160409
0.0269092
0.130588
0.296733
0.522958
0.803256
1.12845
1.48649
1.86251
2.23883
2.595
2.90824
3.15461
3.311
3.3583
3.28538
3.09353
2.80068
2.44453
2.08378
1.7968
1.67744
1.82812
2.35064
3.33584
4.85302
6.94075
9.60014
12.7916
16.4358
20.4192
24.6028
28.8343
32.9618
36.8465
40.3743
43.4635
46.0683
48.1781
49.812
51.0103
51.8239
52.3041
52.4924
52.4137
52.0721
51.4502
50.512
49.2078
47.4815
45.2792
42.557
39.2888
35.4723
31.1322
26.3203
21.1136
15.6084
9.91303
4.13926
-1.60632
-7.22983
-12.6554
-17.8278
-22.7116
-27.2874
-31.5451
-35.4752
-39.0573
-42.2463
-44.954
-47.025
-48.2042
-48.0974
-46.1275
-41.4978
-33.1747
-19.9095
-0.316731
26.9788
63.1278
108.791
163.859
227.207
296.544
368.395
438.273
501.013
551.275
584.131
595.673
583.554
547.367
488.816
411.637
321.266
224.303
127.831
38.6755
-37.2954
-95.7511
-134.283
-152.555
-152.215
-136.576
-110.137
-77.9925
-45.22
-16.3151
5.25648
17.3485
19.2424
11.576
-3.88287
-24.5755
-47.5538
-69.8876
-89.0292
-103.093
-111.023
-112.643
-108.591
-100.153
-89.038
-77.118
-66.1739
-57.677
-52.6308
-51.4878
-54.1433
-60.0009
-68.0939
-77.2411
-86.2148
-93.8976
-99.4094
-102.19
-102.03
-99.0595
-93.6841
-86.5013
-78.1992
-69.4579
-60.8655
-52.8607
-45.7034
-39.477
-34.115
-29.4462
-25.2486
-21.3025
-17.4354
-13.551
-9.64171
-5.78169
-2.10555
1.22414
4.05392
6.2744
7.84748
8.82104
9.32887
9.57563
9.80955
10.2868
11.2334
12.8105
15.0875
18.0287
21.4936
25.2517
29.0099
32.4472
35.254
37.1685
38.007
37.6838
36.2191
33.7343
30.4349
26.5861
22.4822
18.4149
14.6441
11.3743
8.73884
6.79325
5.51711
4.82419
4.57841
4.6136
4.75446
4.83641
4.72241
4.31508
3.56346
2.46409
1.05684
-0.58374
-2.35999
-4.16411
-5.89061
-7.44668
-8.7592
-9.77782
-10.4743
-10.8388
-10.8747
-10.5931
-10.0084
-9.13624
-7.99339
-6.60045
-4.98575
-3.18964
-1.26794
0.706844
2.64733
4.4565
6.03612
7.29735
8.17198
8.62273
8.65062
8.29806
7.64683
6.81074
5.92373
5.12462
4.54045
4.27055
4.37322
4.85693
5.67699
6.73804
7.90216
9.00146
9.85388
10.2806
10.1236
9.26094
7.62004
5.18571
2.00367
-1.82157
-6.1343
-10.7398
-15.4203
-19.9529
-24.1274
-27.763
-30.7211
-32.9138
-34.3063
-34.9148
-34.7982
-34.048
-32.7744
-31.0942
-29.1201
-26.9528
-24.678
-22.3667
-20.0772
-17.86
-15.7612
-13.8243
-12.0907
-10.5971
-9.37127
-8.42815
-7.76524
-7.36037
-7.17157
-7.13959
-7.19297
-7.25494
-7.25144
-7.11905
-6.8118
-6.30601
-5.60233
-4.72491
-3.71775
-2.63871
-1.55211
-0.52089
0.400678
1.17278
1.77366
2.20074
2.46925
2.60864
2.6576
2.65832
2.65081
2.66808
2.73255
2.85403
3.02928
3.24303
3.47014
3.6787
3.8336
3.90038
3.84916
3.65839
3.3185
2.83527
2.23282
1.5559
0.871243
0.267205
-0.148609
-0.254411
0.0779265
0.972402
2.53652
4.84819
7.94352
11.8071
16.3665
21.4917
27.0008
32.6707
38.2521
43.4874
48.1281
51.9517
54.7735
56.4546
56.9052
56.0845
53.9979
50.6939
46.2621
40.832
34.573
27.6948
20.4458
13.1081
5.98756
-0.602635
-6.36408
-11.0395
-14.4407
-16.4736
-17.1573
-16.6322
-15.156
-13.086
-10.8486
-8.89925
-7.67716
-7.55856
-8.8141
-11.5731
-15.7957
-21.2529
-27.5106
-33.9165
-39.59
-43.4172
-44.0621
-40.0058
-29.6289
-11.3472
16.197
53.901
101.952
159.605
225.024
295.248
366.295
433.42
491.51
535.586
561.337
565.632
546.933
505.55
443.698
365.342
275.84
181.426
88.5948
3.45872
-68.8445
-124.621
-161.916
-180.614
-182.317
-170.06
-147.867
-120.244
-91.6472
-66.0064
-46.3452
-34.5437
-31.2552
-35.974
-47.2344
-62.9026
-80.5191
-97.6435
-112.16
-122.512
-127.836
-128.001
-123.544
-115.533
-105.364
-94.5519
-84.5083
-76.3662
-70.8517
-68.2228
-68.2755
-70.4115
-73.7524
-77.2828
-79.9997
-81.0488
-79.8306
-76.0638
-69.8023
-61.4074
-51.4818
-40.7785
-30.0988
-20.1926
-11.6741
-4.96239
-0.250482
2.49597
3.51365
3.19685
2.04066
0.580517
-0.66463
-1.23952
-0.786534
0.935197
4.04486
8.54714
14.3482
21.277
29.1081
37.5836
46.432
55.3825
64.1752
72.5673
80.3356
87.2776
93.2115
97.9768
101.436
103.476
104.017
103.012
100.461
96.4068
90.9492
84.2396
76.4812
67.9221
58.8447
49.5514
40.3475
31.5224
23.3322
15.9831
9.61973
4.31779
0.082836
-3.14497
-5.48075
-7.08049
-8.12392
-8.79668
-9.27341
-9.7036
-10.2013
-10.8393
-11.6482
-12.6196
-13.7126
-14.8632
-15.9938
-17.0231
-17.8748
-18.484
-18.802
-18.7983
-18.4608
-17.795
-16.8207
-15.5702
-14.0845
-12.4109
-10.6008
-8.70742
-6.78463
-4.88575
-3.06247
-1.36388
0.164798
1.48371
2.56017
3.37063
3.90262
4.15646
4.14632
3.90038
3.45987
2.87678
2.21029
1.52213
0.871241
0.308344
-0.12904
-0.420318
-0.563755
-0.576127
-0.489934
-0.348398
-0.198851
-0.0855178
-0.0428626
-0.0906571
-0.231649
-0.452218
-0.725827
-1.01849
-1.2951
-1.52537
-1.68804
-1.77293
-1.78025
-1.71794
-1.59779
-1.43155
-1.22823
-0.993415
-0.730718
-0.445109
-0.146996
0.144221
0.398501
0.57643
0.633774
0.528895
0.23185
-0.26662
-0.948211
-1.76412
-2.63731
-3.47032
-4.15787
-4.60269
-4.73175
-4.51024
-3.95029
-3.11239
-2.09861
-1.03836
-0.0686894
0.687568
1.14209
1.25618
1.048
0.590767
0.00192483
-0.574619
-0.990491
-1.11546
-0.857182
-0.175196
0.912767
2.33275
3.96423
5.65579
7.24429
8.57483
9.51895
9.98878
9.94607
9.40544
8.43226
7.13592
5.65955
4.16749
2.83151
1.81685
1.26919
1.30323
1.99377
3.37004
5.41353
8.05972
11.2035
14.708
18.4151
22.1582
25.7743
29.1145
32.0532
34.4936
36.3707
37.6502
38.3267
38.4184
37.9617
37.0061
35.6084
33.8286
31.7264
29.3583
26.7755
24.0224
21.1346
18.1387
15.0512
11.8793
8.62231
5.27385
1.82546
-1.72969
-5.39282
-9.15626
-13.0011
-16.8966
-20.8005
-24.6613
-28.4214
-32.0202
-35.3974
-38.4952
-41.259
-43.6368
-45.5754
-47.0133
-47.8694
-48.0225
-47.2838
-45.358
-41.7997
-35.9701
-27.0085
-13.8344
4.8026
30.2116
63.5846
105.765
156.988
216.634
283.035
353.407
423.915
489.912
546.337
588.221
611.251
612.316
589.945
544.579
478.63
396.309
303.24
205.911
111.019
24.801
-47.5727
-102.472
-138.092
-154.526
-153.628
-138.686
-113.96
-84.1532
-53.8661
-27.1146
-6.9551
4.74732
7.39143
1.56015
-11.1883
-28.6209
-48.1782
-67.3226
-83.8459
-96.1039
-103.155
-104.8
-101.524
-94.3598
-84.7054
-74.1067
-64.0512
-55.7887
-50.1992
-47.7195
-48.3313
-51.6046
-56.7874
-62.9248
-68.9913
-74.0183
-77.2039
-77.9917
-76.1139
-71.5958
-64.7266
-56.002
-46.0488
-35.5426
-25.1289
-15.3563
-6.62894
0.818891
6.92614
11.7885
15.6271
18.7487
21.5022
24.2376
27.2707
30.8558
35.168
40.2938
46.2309
52.8938
60.1263
67.7166
75.4167
82.9617
90.0897
96.5602
102.17
106.765
110.248
112.581
113.782
113.918
113.091
111.422
109.035
106.036
102.501
98.4614
93.9078
88.7899
83.0333
76.5592
69.3099
61.2729
52.5022
43.1306
33.3724
23.5129
13.8882
4.85525
-3.24235
-10.1087
-15.5255
-19.3736
-21.6432
-22.4315
-21.9291
-20.3967
-18.1351
-15.4544
-12.6438
-9.94793
-7.55048
-5.56685
-4.04576
-2.97797
-2.31034
-1.96234
-1.8426
-1.86317
-1.94991
-2.04832
-2.12469
-2.16345
-2.16184
-2.12344
-2.05208
-1.94707
-1.80089
-1.59918
-1.32311
-0.953324
-0.474546
0.120029
0.825424
1.62322
2.48179
3.35834
4.20232
4.95976
5.57776
6.00868
6.21353
6.16444
5.84617
5.25662
4.40673
3.31976
2.03009
0.581548
-0.974703
-2.58279
-4.18526
-5.72657
-7.15669
-8.43424
-9.52893
-10.4225
-11.1084
-11.589
-11.873
-11.971
-11.8925
-11.6432
-11.2246
-10.6354
-9.87449
-8.94501
-7.85846
-6.63799
-5.32017
-3.95437
-2.60008
-1.32199
-0.18382
0.758364
1.46242
1.90493
2.08397
2.01933
1.75026
1.33098
0.824583
0.296174
-0.193973
-0.596314
-0.876388
-1.01716
-1.01925
-0.899059
-0.685323
-0.414483
-0.125579
0.144773
0.366769
0.520843
0.599894
0.610241
0.571357
0.514467
0.480168
0.515266
0.669047
0.989257
1.51807
2.28836
3.32063
4.62083
6.1795
7.97224
9.96177
12.1014
14.3392
16.6237
18.9079
21.1541
23.3363
25.4413
27.4675
29.4221
31.3169
33.1631
34.9662
36.7218
38.4129
40.0097
41.4716
42.7519
43.8044
44.5902
45.0855
45.2865
45.2127
44.9062
44.4278
43.8487
43.2411
42.6661
42.1624
41.7377
41.3617
40.9649
40.44
39.6501
38.4392
36.6479
34.1303
30.7727
26.5101
21.3398
15.3293
8.61763
1.40807
-6.04555
-13.4595
-20.5445
-27.0319
-32.6968
-37.3773
-40.9838
-43.4975
-44.9543
-45.4125
-44.9047
-43.3743
-40.6039
-36.1451
-29.2638
-18.9222
-3.81528
17.5209
46.5244
84.3536
131.594
187.971
252.114
321.447
392.228
459.77
518.839
564.181
591.122
596.155
577.433
535.086
471.316
390.251
297.553
199.858
104.083
16.7149
-56.84
-112.771
-149.173
-166.134
-165.585
-150.953
-126.672
-97.6082
-68.4815
-43.3576
-25.2555
-15.9157
-15.7413
-23.9032
-38.5822
-57.306
-77.3301
-96.0122
-111.134
-121.139
-125.257
-123.527
-116.705
-106.101
-93.3572
-80.2068
-68.2491
-58.7598
-52.5618
-49.9654
-50.7775
-54.3723
-59.8081
-65.9712
-71.7261
-76.0522
-78.1527
-77.5248
-73.9871
-67.6659
-58.9475
-48.4051
-36.7134
-24.5616
-12.5767
-1.26345
9.0328
18.14
26.0507
32.8966
38.9096
44.3785
49.6053
54.8664
60.3831
66.3015
72.6839
79.5098
86.6852
94.0584
101.439
108.618
115.389
121.563
126.984
131.536
135.148
137.791
139.472
140.226
140.102
139.148
137.401
134.872
131.55
127.396
122.358
116.383
109.438
101.526
92.7035
83.0898
72.8672
62.2745
51.59
41.1107
31.127
21.8977
13.6296
6.4619
0.459398
-4.38679
-8.15035
-10.9551
-12.9563
-14.3216
-15.2122
-15.7684
-16.0995
-16.2787
-16.3438
-16.3018
-16.1358
-15.8151
-15.305
-14.5759
-13.6116
-12.4149
-11.0111
-9.4482
-7.79512
-6.13679
-4.56766
-3.18385
-2.07492
-1.31599
-0.961048
-1.0381
-1.54647
-2.45648
-3.71161
-5.2327
-6.92403
-8.68061
-10.3961
-11.9707
-13.3183
-14.3723
-15.0891
-15.4507
-15.4632
-15.1544
-14.569
-13.7626
-12.7947
-11.7226
-10.5958
-9.45155
-8.31276
-7.18753
-6.07072
-4.94724
-3.79659
-2.59834
-1.33767
-0.0104787
1.37278
2.78501
4.18251
5.5072
6.69098
7.66169
8.3502
8.69778
8.66302
8.2275
7.3994
6.21484
4.73652
3.04976
1.25636
-0.533292
-2.20917
-3.67069
-4.83514
-5.64452
-6.07016
-6.11446
-5.80951
-5.21278
-4.4001
-3.45683
-2.46819
-1.51001
-0.64117
0.101233
0.703177
1.17135
1.52756
1.80094
2.0195
2.20278
2.35686
2.47307
2.53032
2.50094
2.35851
2.08641
1.68516
1.17719
0.607971
0.0432452
-0.437377
-0.749354
-0.813394
-0.56529
0.0360323
1.00342
2.32004
3.94179
5.80316
7.82569
9.92802
12.0361
14.092
16.0611
17.9352
19.7325
21.4933
23.2723
25.1282
27.1114
29.2524
31.5512
33.9705
36.433
38.8234
40.9959
42.7845
44.0177
44.5325
44.1904
42.8896
40.5758
37.2489
32.9656
27.8376
22.026
15.7311
9.17979
2.60936
-3.74882
-9.68613
-15.0316
-19.6635
-23.5167
-26.5845
-28.9151
-30.6028
-31.7754
-32.578
-33.1565
-33.6387
-34.1153
-34.6171
-35.0873
-35.3461
-35.0491
-33.6415
-30.3199
-24.0136
-13.4042
2.99917
26.7196
59.107
101.084
152.873
213.759
281.915
354.367
427.102
495.34
553.95
597.966
623.138
626.443
606.496
563.786
500.704
421.369
331.24
236.587
143.867
59.0903
-12.7573
-68.1576
-105.33
-124.299
-126.759
-115.768
-95.3067
-69.7706
-43.4575
-20.1076
-2.55069
7.50983
9.55948
4.18956
-7.10947
-22.2414
-38.8407
-54.607
-67.5965
-76.4389
-80.4602
-79.7047
-74.8638
-67.1276
-57.9859
-49.0078
-41.6284
-36.97
-35.7164
-38.0527
-43.6731
-51.8497
-61.5498
-71.5828
-80.757
-88.0243
-92.5976
-94.0267
-92.2271
-87.4618
-80.2809
-71.4305
-61.7442
-52.0321
-42.9828
-35.0881
-28.6014
-23.5297
-19.661
-16.618
-13.9304
-11.1143
-7.74721
-3.52714
1.68888
7.87323
14.8418
22.2902
29.8456
37.1261
43.797
49.6181
54.4736
58.3817
61.4832
64.0116
66.2479
68.469
70.8949
73.6429
76.6962
79.8908
82.9246
85.3871
86.8087
86.7211
84.7236
80.5442
74.0873
65.4622
54.9863
43.1624
30.634
18.1216
6.3506
-4.02265
-12.4751
-18.6662
-22.4647
-23.9523
-23.4036
-21.2464
-18.0079
-14.254
-10.5292
-7.30389
-4.93362
-3.6347
-3.47634
-4.38866
-6.18397
-8.58769
-11.2747
-13.9072
-16.1699
-17.7999
-18.6089
-18.4956
-17.4498
-15.5461
-12.9306
-9.80196
-6.38815
-2.92329
0.374569
3.32181
5.7825
7.67559
8.97589
9.7095
9.94458
9.77911
9.32725
8.70583
8.02259
7.36703
6.80449
6.3737
6.08738
5.9353
5.88915
5.90822
5.94537
5.95255
5.88556
5.70764
5.39187
4.92225
4.29358
3.51038
2.58481
1.53417
0.3779
-0.865228
-2.17961
-3.5544
-4.98381
-6.46589
-7.99976
-9.58149
-11.1995
-12.8305
-14.436
-15.9623
-17.3417
-18.4981
-19.354
-19.8392
-19.9005
-19.5093
-18.6675
-17.4098
-15.8019
-13.935
-11.9174
-9.86392
-7.8852
-6.07741
-4.51456
-3.24369
-2.28344
-1.62606
-1.24202
-1.08642
-1.10615
-1.24657
-1.45697
-1.6943
-1.92495
-2.12481
-2.27813
-2.37567
-2.41283
-2.38798
-2.30151
-2.15531
-1.95263
-1.69806
-1.39702
-1.05478
-0.674878
-0.257061
0.204758
0.724058
1.32228
2.02804
2.87491
3.89779
5.12862
6.59178
8.30032
10.2536
12.4366
14.8221
17.3735
20.05
22.8113
25.6222
28.4555
31.293
34.1239
36.9406
39.7334
42.4837
45.1575
47.7002
50.0349
52.0634
53.671
54.7353
55.1367
54.771
53.5611
51.4679
48.4975
44.7056
40.1966
35.1189
29.6555
24.0111
18.3969
13.0148
8.04079
3.6122
-0.182882
-3.31081
-5.79252
-7.69852
-9.13936
-10.2527
-11.1886
-12.093
-13.0907
-14.2656
-15.6364
-17.1235
-18.5075
-19.3773
-19.0765
-16.6593
-10.8745
-0.19864
17.0644
42.6069
77.8697
123.748
180.29
246.438
319.877
397.024
473.199
542.973
600.669
640.957
659.477
653.391
621.8
565.946
489.18
396.673
294.923
191.101
92.3247
4.94862
-66.0428
-117.471
-148.18
-159.022
-152.618
-132.942
-104.786
-73.1675
-42.7733
-17.4797
-0.0150529
8.21597
7.13591
-2.15687
-17.6628
-36.8335
-56.9523
-75.493
-90.416
-100.371
-104.789
-103.872
-98.4766
-89.9316
-79.8161
-69.7238
-61.0523
-54.838
-51.6537
-51.5764
-54.2212
-58.8313
-64.4082
-69.8598
-74.1476
-76.4146
-76.0781
-72.881
-66.8983
-58.5013
-48.29
-37.004
-25.4244
-14.2811
-4.17566
4.47359
11.4581
16.779
20.6231
23.3206
25.2922
26.9936
28.8633
31.2792
34.5274
38.7849
44.114
50.4687
57.7089
65.6204
73.9382
82.3697
90.6171
98.3972
105.457
111.586
116.622
120.456
123.03
124.333
124.394
123.272
121.052
117.829
113.707
108.789
103.176
96.9588
90.2261
83.0601
75.5422
67.7566
59.7941
51.7548
43.7496
35.8999
28.3349
21.1877
14.589
8.66079
3.50895
-0.784138
-4.16573
-6.61765
-8.15916
-8.84722
-8.77414
-8.06238
-6.85691
-5.31571
-3.59903
-1.85859
-0.227507
1.18796
2.3141
3.11228
3.57833
3.73868
3.64405
3.36135
2.9647
2.52673
2.11088
1.76565
1.52108
1.38783
1.35864
1.41175
1.51572
1.63487
1.73459
1.78593
1.76893
1.67444
1.50436
1.27041
0.991764
0.691892
0.395035
0.122783
-0.108896
-0.291844
-0.426893
-0.523923
-0.600784
-0.681233
-0.792133
-0.960278
-1.20926
-1.55682
-2.013
-2.57931
-3.24891
-4.00742
-4.83391
-5.70169
-6.57874
-7.42806
-8.20868
-8.878
-9.39603
-9.73136
-9.86817
-9.81276
-9.5979
-9.2834
-8.95185
-8.69937
-8.62243
-8.80255
-9.29149
-10.0994
-11.1882
-12.4717
-13.8228
-15.0866
-16.0983
-16.703
-16.7754
-16.235
-15.0577
-13.2792
-10.993
-8.34018
-5.49605
-2.65223
0.00158054
2.29487
4.09063
5.29544
5.86445
5.8013
5.15329
4.00281
2.4563
0.632264
-1.35
-3.37975
-5.36118
-7.21643
-8.88548
-10.3233
-11.4957
-12.374
-12.9313
-13.1394
-12.9676
-12.3838
-11.3569
-9.86021
-7.87575
-5.3976
-2.43523
0.98468
4.8174
9.00063
13.4558
18.0901
22.7982
27.4647
31.9665
36.175
39.9602
43.1957
45.765
47.5697
48.5372
48.629
47.8463
46.2333
43.8768
40.9015
37.4617
33.7293
29.8802
26.0795
22.468
19.1507
16.1892
13.5984
11.3479
9.36847
7.56215
5.81484
4.01039
2.04425
-0.164755
-2.66554
-5.46954
-8.54943
-11.8414
-15.2498
-18.6533
-21.9082
-24.8472
-27.2671
-28.9041
-29.3929
-28.2155
-24.6478
-17.7229
-6.22901
11.2329
36.1206
69.7462
113.012
166.121
228.308
297.648
371.002
444.121
511.941
569.033
610.177
630.966
628.379
601.223
550.372
478.779
391.233
293.9
193.698
97.5874
11.8699
-58.4267
-109.997
-141.5
-153.565
-148.587
-130.328
-103.411
-72.7385
-42.9448
-17.9161
-0.445245
7.95652
7.08124
-2.10783
-17.7314
-37.3301
-58.2324
-77.9075
-94.2614
-105.846
-111.966
-112.679
-108.702
-101.245
-91.8005
-81.9205
-73.0077
-66.1492
-62.0078
-60.7781
-62.2083
-65.6762
-70.3057
-75.1045
-79.1035
-81.4797
-81.6502
-79.326
-74.5252
-67.5465
-58.911
-49.2819
-39.3746
-29.869
-21.3337
-14.1696
-8.57693
-4.54734
-1.87891
-0.210402
0.930282
2.06926
3.72765
6.36596
10.3372
15.8527
22.9633
31.5575
41.3761
52.0415
63.098
74.0577
84.4482
93.8543
101.951
108.522
113.467
116.791
118.585
119
118.222
116.439
113.829
110.54
106.69
102.365
97.6262
92.5164
87.0672
81.3041
75.25
68.927
62.3587
55.5726
48.6044
41.5023
34.3329
27.1848
20.1702
13.4237
7.09532
1.34071
-3.69225
-7.87823
-11.1286
-13.4027
-14.715
-15.1356
-14.7853
-13.8241
-12.4355
-10.8081
-9.11645
-7.50492
-6.07489
-4.8782
-3.91693
-3.14948
-2.50196
-1.88308
-1.20043
-0.375811
0.642339
1.87098
3.28985
4.84422
6.45227
8.01591
9.4332
10.6107
11.4741
11.9752
12.0962
11.8486
11.2696
10.4161
9.35669
8.16459
6.91109
5.66077
4.46866
3.379
2.4252
1.63041
1.00821
0.563107
0.290784
0.178236
0.204131
0.339665
0.550137
0.797302
1.04235
1.2492
1.38763
1.43586
1.38213
1.22509
0.972985
0.641646
0.25178
-0.174221
-0.615421
-1.05503
-1.48229
-1.8933
-2.29079
-2.68277
-3.08057
-3.49634
-3.94075
-4.42111
-4.94026
-5.49658
-6.08484
-6.69782
-7.3282
-7.97039
-8.6216
-9.28215
-9.95475
-10.6429
-11.3485
-12.0703
-12.801
-13.5274
-14.2301
-14.8854
-15.4683
-15.9558
-16.3307
-16.5847
-16.72
-16.7499
-16.6963
-16.5868
-16.4497
-16.3084
-16.1761
-16.0514
-15.9155
-15.7315
-15.4469
-14.9977
-14.3155
-13.3361
-12.0077
-10.2995
-8.20778
-5.7593
-3.01096
-0.0459026
3.03391
6.11766
9.09698
11.877
14.3861
16.5824
18.4571
20.0338
21.3642
22.5214
23.5903
24.6583
25.805
27.0938
28.564
30.2252
32.0537
33.9908
35.9439
37.7892
39.3791
40.5502
41.1365
40.9835
39.9639
37.9932
35.0429
31.1492
26.4158
21.0099
15.1504
9.09032
3.09426
-2.58576
-7.73398
-12.1908
-15.8664
-18.7471
-20.8924
-22.424
-23.508
-24.3309
-25.0737
-25.885
-26.8552
-27.9918
-29.195
-30.2296
-30.6942
-29.9861
-27.2703
-21.4624
-11.2439
4.87348
28.4199
60.7725
102.906
155.118
216.772
286.112
360.192
434.965
505.532
566.556
612.78
639.609
643.663
623.237
578.591
512.032
427.76
331.502
229.956
130.13
38.646
-38.9062
-98.4907
-137.958
-157.162
-157.848
-143.341
-118.081
-87.0589
-55.2391
-27.0223
-5.82026
6.22248
8.33716
1.07038
-13.9235
-34.1998
-56.9032
-79.1583
-98.4236
-112.768
-121.048
-122.963
-119.011
-110.343
-98.5502
-85.4267
-72.7212
-61.9249
-54.1115
-49.8452
-49.1609
-51.6119
-56.3727
-62.3776
-68.4752
-73.5777
-76.7875
-77.4885
-75.3942
-70.5519
-63.307
-54.2373
-44.0659
-33.5678
-23.4796
-14.4223
-6.84512
-0.992483
3.10269
5.60276
6.82932
7.2133
7.2381
7.38262
8.07077
9.63254
12.28
16.0993
21.0579
27.0243
33.7956
41.1295
48.7737
56.4912
64.0765
71.3622
78.2169
84.5359
90.2279
95.2014
99.355
102.573
104.728
105.693
105.357
103.646
100.541
96.0937
90.4331
83.767
76.3688
68.5582
60.6736
53.0422
45.9501
39.6163
34.1759
29.6716
26.0575
23.2116
20.9575
19.0906
17.4055
15.7213
13.902
11.8685
9.60292
7.14496
4.58077
2.02791
-0.381932
-2.51975
-4.27362
-5.55926
-6.32638
-6.56087
-6.28353
-5.54618
-4.426
-3.0188
-1.43194
0.222972
1.83697
3.31025
4.55787
5.5144
6.13735
6.40905
6.33675
5.95106
5.30267
4.45751
3.49098
2.48144
1.50376
0.62337
-0.108499
-0.658145
-1.01086
-1.17057
-1.15769
-1.00559
-0.756073
-0.454353
-0.144219
0.136257
0.35796
0.502699
0.563778
0.545239
0.459953
0.326858
0.167679
0.00352234
-0.148308
-0.276911
-0.379554
-0.462393
-0.540058
-0.634143
-0.770718
-0.977166
-1.27867
-1.69478
-2.23657
-2.90463
-3.68836
-4.56657
-5.5093
-6.48079
-7.44299
-8.35935
-9.19825
-9.93575
-10.5573
-11.0583
-11.4431
-11.7237
-11.9164
-12.0394
-12.1093
-12.1386
-12.1336
-12.0931
-12.0088
-11.8659
-11.6454
-11.3264
-10.8901
-10.3226
-9.61812
-8.78148
-7.82923
-6.78945
-5.70028
-4.60686
-3.5573
-2.59784
-1.76794
-1.09569
-0.594307
-0.259973
-0.0715014
0.0082939
0.0296215
0.0515304
0.137043
0.348206
0.741653
1.36524
2.25607
3.44013
4.93318
6.74252
8.86904
11.3085
14.0523
17.086
20.3881
23.9264
27.6558
31.5155
35.4273
39.296
43.0104
46.4461
49.4704
51.9473
53.744
54.7389
54.8287
53.938
52.0269
49.0992
45.2078
40.4578
35.0055
29.0518
22.8322
16.6005
10.6111
5.09779
0.255244
-3.77822
-6.9322
-9.20992
-10.6872
-11.5055
-11.8592
-11.9803
-12.119
-12.5226
-13.4106
-14.9433
-17.182
-20.0386
-23.2153
-26.1413
-27.9183
-27.2924
-22.6745
-12.2275
5.96609
33.6596
72.1391
121.9
182.359
251.65
326.574
402.721
474.781
537.025
583.896
610.651
613.944
592.293
546.341
478.876
394.601
299.673
201.075
105.894
20.5935
-49.6214
-101.279
-132.9
-145.024
-140.002
-121.606
-94.4983
-63.645
-33.745
-8.73559
8.56723
16.6645
15.3973
5.80996
-10.1153
-29.8072
-50.489
-69.5448
-84.8291
-94.8849
-99.0547
-97.482
-91.0125
-81.019
-69.1768
-57.2247
-46.7398
-38.9549
-34.6356
-34.0279
-36.8752
-42.4962
-49.9085
-57.9783
-65.5737
-71.7037
-75.6262
-76.9136
-75.4734
-71.5241
-65.535
-58.1408
-50.0441
-41.9209
-34.3395
-27.7027
-22.2176
-17.8945
-14.5717
-11.9599
-9.69863
-7.41619
-4.7843
-1.56103
2.38258
7.05431
12.3502
18.079
23.996
29.8425
35.383
40.4359
44.8942
48.7326
52.0019
54.8115
57.3039
59.6251
61.895
64.1826
66.4889
68.7399
70.7893
72.4323
73.426
73.5163
72.4667
70.0868
66.2567
60.9461
54.2241
46.2609
37.3188
27.7348
17.8949
8.20373
-0.948342
-9.21673
-16.33
-22.11
-26.4827
-29.4788
-31.2249
-31.9251
-31.8367
-31.2421
-30.4202
-29.6198
-29.0378
-28.8054
-28.9804
-29.5488
-30.4327
-31.5046
-32.6047
-33.5597
-34.2012
-34.3814
-33.9851
-32.9382
-31.2115
-28.8214
-25.8272
-22.3265
-18.4479
-14.3438
-10.1813
-6.13273
-2.36534
0.96949
3.74763
5.88346
7.34
8.13636
8.35094
8.11874
7.62187
7.07349
6.69628
6.69786
7.24638
8.4495
10.3399
12.8697
15.9139
19.2845
22.7506
26.0649
28.9908
31.3283
32.9342
33.7356
33.734
33.0007
31.6648
29.8943
27.8748
25.7868
23.7855
21.9849
20.4476
19.1816
18.1436
17.2477
16.3792
15.4102
14.216
12.6907
10.7599
8.38966
5.59171
2.42356
-1.01516
-4.59045
-8.14474
-11.5098
-14.521
-17.0312
-18.9235
-20.1222
-20.5997
-20.38
-19.5378
-18.1928
-16.4999
-14.6361
-12.7854
-11.123
-9.7999
-8.93067
-8.58412
-8.7789
-9.48372
-10.6223
-12.0827
-13.729
-15.4155
-17.0001
-18.3574
-19.3877
-20.0234
-20.2315
-20.0112
-19.3889
-18.411
-17.1346
-15.6195
-13.9204
-12.0813
-10.1323
-8.08855
-5.95135
-3.71079
-1.3494
1.15369
3.81849
6.66025
9.68606
12.892
16.2608
19.7601
23.341
26.9373
30.4657
33.8269
36.9091
39.593
41.7594
43.2975
44.1153
44.1486
43.3697
41.7926
39.4751
36.5174
33.0554
29.2516
25.2826
21.3256
17.5442
14.0761
11.0233
8.44531
6.3569
4.72975
3.49798
2.56679
1.82287
1.1454
0.416118
-0.472739
-1.61288
-3.07617
-4.91011
-7.1288
-9.69425
-12.4837
-15.2407
-17.5138
-18.5918
-17.4541
-12.7576
-2.88501
13.9296
39.3917
74.8683
121.072
177.761
243.504
315.579
390.037
461.952
525.84
576.216
608.2
618.115
603.97
565.774
505.619
427.532
337.084
240.834
145.648
58.0046
-16.6534
-74.4207
-113.248
-133.035
-135.506
-123.884
-102.427
-75.8781
-48.9043
-25.593
-9.05696
-1.18724
-2.57068
-12.5671
-29.5229
-51.0826
-74.552
-97.265
-116.908
-131.769
-140.884
-144.081
-141.919
-135.542
-126.48
-116.418
-106.969
-99.4838
-94.9099
-93.7107
-95.8585
-100.885
-107.983
-116.137
-124.27
-131.378
-136.645
-139.52
-139.758
-137.412
-132.787
-126.374
-118.76
-110.531
-102.198
-94.1291
-86.5182
-79.3851
-72.6018
-65.9427
-59.1488
-51.992
-44.3317
-36.1515
-27.5724
-18.8396
-10.2875
-2.28782
4.80833
10.7255
15.3065
18.5358
20.5414
21.5743
21.971
22.1039
22.3285
22.9346
24.1089
25.9125
28.2771
31.0178
33.8607
36.4805
38.5428
39.7449
39.8519
38.7228
36.3252
32.7376
28.1398
22.7928
17.0111
11.1319
5.48176
0.347417
-4.04819
-7.56179
-10.1363
-11.7977
-12.6431
-12.8222
-12.5138
-11.9023
-11.1549
-10.4044
-9.73867
-9.19769
-8.77906
-8.44914
-8.15849
-7.85821
-7.51418
-7.11674
-6.68391
-6.25794
-5.8957
-5.65506
-5.57982
-5.68615
-5.95321
-6.31976
-6.68769
-6.932
-6.91597
-6.50918
-5.60574
-4.14013
-2.09836
0.477208
3.48993
6.79762
10.2267
13.5903
16.7068
19.4186
21.6061
23.1976
24.173
24.5608
24.43
23.8779
23.0151
21.9509
20.78
19.5727
18.3698
17.1822
15.9946
14.7738
13.4777
12.0662
10.51
8.79748
6.93794
4.96111
2.91315
0.850013
-1.1708
-3.09844
-4.89573
-6.54361
-8.04262
-9.41114
-10.6808
-11.8901
-13.0768
-14.2712
-15.4903
-16.7339
-17.9846
-19.2088
-20.3614
-21.3914
-22.2488
-22.8907
-23.2866
-23.4219
-23.2989
-22.9358
-22.3628
-21.6181
-20.7417
-19.7701
-18.7316
-17.6438
-16.512
-15.3313
-14.0889
-12.7695
-11.3601
-9.85516
-8.26063
-6.59606
-4.89467
-3.20103
-1.56688
-0.0456769
1.31322
2.46977
3.39705
4.08326
4.53167
4.75917
4.79399
4.67346
4.44284
4.15536
3.87368
3.67208
3.63844
3.87486
4.49559
5.62162
7.37161
9.84962
13.131
17.2482
22.178
27.8336
34.0616
40.646
47.3195
53.7807
59.7158
64.8241
68.8417
71.5637
72.8608
72.6887
71.0902
68.1885
64.1743
59.2862
53.7889
47.9495
42.016
36.1994
30.6609
25.506
20.7852
16.4994
12.6113
9.05843
5.76774
2.66842
-0.297197
-3.16656
-5.95388
-8.65106
-11.232
-13.659
-15.8902
-17.8845
-19.6021
-20.9959
-21.9913
-22.4497
-22.119
-20.5739
-17.1583
-10.9462
-0.741157
14.8658
37.3668
68.1357
108.17
157.805
216.458
282.437
352.88
423.848
490.592
547.965
590.947
615.211
617.658
596.838
553.207
489.16
408.854
317.817
222.399
129.134
44.0925
-27.7107
-82.764
-119.33
-137.509
-139.092
-127.246
-106.061
-80.0327
-53.5396
-30.3819
-13.424
-4.38035
-3.75371
-10.9216
-24.3452
-41.8658
-61.0423
-79.4876
-95.1616
-106.589
-112.987
-114.287
-111.071
-104.43
-95.7705
-86.6001
-78.3218
-72.0574
-68.5235
-67.9687
-70.1765
-74.5266
-80.1051
-85.8436
-90.6689
-93.6441
-94.0825
-91.6224
-86.2565
-78.3134
-68.3983
-57.3014
-45.8888
-34.9892
-25.2929
-17.2746
-11.1482
-6.85874
-4.10964
-2.41977
-1.20077
0.156943
2.2018
5.3531
9.85587
15.7628
22.9437
31.1184
39.9066
48.8855
57.6462
65.842
73.2204
79.6383
85.0591
89.5338
93.1726
96.1098
98.4707
100.343
101.759
102.688
103.039
102.678
101.442
99.1715
95.731
91.0334
85.0585
77.8643
69.5912
60.4577
50.7478
40.7929
30.9467
21.56
12.9528
5.39069
-0.934974
-5.91946
-9.54961
-11.9003
-13.1233
-13.4298
-13.0683
-12.3007
-11.3792
-10.5246
-9.9111
-9.65492
-9.81098
-10.375
-11.2914
-12.4654
-13.7774
-15.0989
-16.3069
-17.2959
-17.9871
-18.3329
-18.3179
-17.9553
-17.2816
-16.3484
-15.214
-13.9351
-12.5603
-11.1249
-9.6488
-8.13635
-6.57931
-4.96148
-3.2651
-1.47796
0.399549
2.34851
4.32756
6.27195
8.09601
9.69918
10.9751
11.8227
12.1585
11.9278
11.1133
9.7412
7.88177
5.64594
3.17725
0.640161
-1.79389
-3.96132
-5.72051
-6.96358
-7.62482
-7.68474
-7.16965
-6.14695
-4.71692
-3.00209
-1.13563
0.749977
2.5328
4.10902
5.39783
6.3434
6.91463
7.10285
6.91854
6.38774
5.54874
4.44949
3.14572
1.69971
0.179191
-1.34415
-2.79674
-4.10624
-5.20539
-6.03655
-6.55623
-6.7391
-6.58088
-6.09951
-5.33458
-4.34464
-3.20295
-1.99187
-0.796654
0.300889
1.22803
1.92572
2.35175
2.48218
2.31123
1.84963
1.12191
0.163155
-0.983894
-2.27082
-3.64389
-5.04258
-6.39691
-7.62427
-8.62751
-9.29551
-9.50766
-9.14247
-8.08989
-6.26574
-3.62609
-0.178911
4.00928
8.81346
14.0575
19.5281
24.994
30.2277
35.0258
39.2276
42.7261
45.4727
47.4741
48.7815
49.4757
49.6489
49.3881
48.7605
47.8055
46.5323
44.9241
42.9478
40.5664
37.7537
34.5062
30.8525
26.8574
22.6202
18.2682
13.9443
9.79236
5.94136
2.49028
-0.503457
-3.03071
-5.13124
-6.88816
-8.4167
-9.84886
-11.3158
-12.9303
-14.7711
-16.8706
-19.2072
-21.699
-24.1983
-26.4814
-28.2293
-28.9976
-28.1784
-24.9606
-18.3068
-6.96387
10.4716
35.42
69.116
112.353
165.21
226.799
295.104
366.942
438.087
503.569
558.124
596.746
615.28
610.956
582.812
531.905
461.309
375.856
281.669
185.541
94.2251
13.7447
-51.2072
-97.6963
-124.761
-133.39
-126.281
-107.419
-81.5314
-53.5013
-27.8063
-8.05151
3.35573
5.36009
-1.76183
-16.5789
-36.8044
-59.6692
-82.3166
-102.169
-117.225
-126.252
-128.869
-125.516
-117.315
-105.873
-93.0281
-80.6026
-70.1717
-62.8892
-59.3796
-59.7064
-63.4123
-69.6209
-77.1806
-84.8305
-91.3645
-95.7742
-97.3563
-95.7712
-91.0543
-83.579
-73.9832
-63.07
-51.6969
-40.67
-30.6527
-22.1014
-15.2317
-10.0175
-6.21882
-3.43386
-1.16494
1.10982
3.86898
7.49208
12.2214
18.1444
25.1959
33.1795
41.8009
50.7106
59.5464
67.9734
75.7139
82.5673
88.4165
93.2234
97.0151
99.8645
101.869
103.127
103.726
103.725
103.152
102.006
100.257
97.859
94.7609
90.9172
86.2993
80.9049
74.7643
67.9443
60.5488
52.7171
44.6185
36.4457
28.4055
20.7074
13.5522
7.1194
1.55536
-3.03626
-6.60188
-9.14147
-10.7079
-11.4022
-11.3641
-10.7603
-9.77011
-8.5703
-7.32121
-6.15479
-5.16611
-4.40898
-3.89606
-3.60317
-3.47713
-3.44613
-3.43131
-3.35824
-3.1669
-2.81921
-2.30322
-1.6338
-0.849817
-0.00842416
0.822621
1.57364
2.18154
2.59719
2.79075
2.75447
2.5027
2.06923
1.50237
0.858544
0.195302
-0.435399
-0.992746
-1.45085
-1.80038
-2.04795
-2.21347
-2.32604
-2.41878
-2.52368
-2.66686
-2.86513
-3.12393
-3.43717
-3.78852
-4.15417
-4.50637
-4.8173
-5.06272
-5.22478
-5.29382
-5.26882
-5.15665
-4.9703
-4.72647
-4.44286
-4.13575
-3.81805
-3.49821
-3.18004
-2.86343
-2.54569
-2.22328
-1.89364
-1.55664
-1.21558
-0.877374
-0.552137
-0.252039
0.0102311
0.223197
0.378228
0.47083
0.501404
0.475366
0.402637
0.296584
0.172607
0.0466023
-0.0664532
-0.15356
-0.204259
-0.210655
-0.166984
-0.0689248
0.0870665
0.304091
0.584565
0.929282
1.33582
1.79659
2.2968
2.81308
3.31288
3.75543
4.09403
4.27996
4.2675
4.01983
3.51521
2.75286
1.75794
0.584823
-0.681998
-1.93026
-3.02587
-3.82272
-4.17571
-3.95601
-3.06678
-1.45735
0.86623
3.83609
7.32397
11.1494
15.0943
18.9218
22.3975
25.3112
27.495
28.8373
29.2904
28.8712
27.6562
25.7698
23.3705
20.6339
17.7364
14.8399
12.0805
9.55937
7.33907
5.44271
3.85757
2.54133
1.43075
0.451624
-0.470892
-1.40254
-2.39175
-3.46375
-4.61743
-5.8252
-7.0355
-8.17692
-9.16197
-9.88752
-10.2281
-10.0183
-9.0213
-6.88442
-3.08646
3.11225
12.7001
26.9046
47.1236
74.7849
111.134
156.969
212.351
276.356
346.895
420.687
493.389
559.913
614.892
653.255
670.827
664.881
634.543
581.001
507.469
418.921
321.597
222.375
128.069
44.7405
-22.8809
-71.8115
-101.015
-111.38
-105.482
-87.1852
-61.1174
-32.1142
-4.6799
17.4646
31.7046
36.6982
32.3821
19.8307
0.998788
-21.6104
-45.3048
-67.5469
-86.2395
-99.9284
-107.904
-110.202
-107.513
-101.021
-92.2021
-82.606
-73.6542
-66.4767
-61.8029
-59.9149
-60.662
-63.5281
-67.7388
-72.3886
-76.5711
-79.4955
-80.5747
-79.478
-76.1449
-70.7619
-63.7106
-55.496
-46.6669
-37.7402
-29.1383
-21.1465
-13.894
-7.35817
-1.38816
4.25624
9.85867
15.6992
22.0127
28.9562
36.5901
44.8717
53.6619
62.7425
71.8416
80.6622
88.9119
96.3304
102.71
107.912
111.87
114.592
116.149
116.661
116.276
115.15
113.423
111.205
108.559
105.496
101.979
97.9337
93.2683
87.8943
81.7513
74.8282
67.1774
58.9217
50.2512
41.4114
32.6842
24.3634
16.7289
10.022
4.42444
0.0431936
-3.09739
-5.05625
-5.96901
-6.03494
-5.49886
-4.62948
-3.69585
-2.94391
-2.57501
-2.7281
-3.46752
-4.77749
-6.56432
-8.66643
-10.8716
-12.9401
-14.631
-15.7297
-16.0729
-15.5687
-14.209
-12.0731
-9.32138
-6.18028
-2.91991
0.17344
2.82668
4.80803
5.95081
6.17038
5.47221
3.95029
1.77626
-0.819741
-3.5739
-6.21659
-8.49991
-10.222
-11.2456
-11.5086
-11.0266
-9.88691
-8.23528
-6.25752
-4.15798
-2.13757
-0.373888
0.994726
1.87969
2.24649
2.11283
1.54144
0.628557
-0.509998
-1.75373
-2.99142
-4.13284
-5.11691
-5.91558
-6.53297
-6.99998
-7.36505
-7.68239
-7.99964
-8.34678
-8.72853
-9.12123
-9.47527
-9.72231
-9.78651
-9.59763
-9.10389
-8.2825
-7.14605
-5.74375
-4.15733
-2.49231
-0.865825
0.606922
1.82596
2.71758
3.2418
3.39548
3.21091
2.75039
2.09761
1.3473
0.594438
-0.075703
-0.595517
-0.920336
-1.03065
-0.931291
-0.647959
-0.221689
0.297926
0.859923
1.41873
1.93982
2.40383
2.80884
3.17091
3.52312
3.91344
4.40184
5.05703
5.95295
7.16508
8.76652
10.8236
13.3908
16.5052
20.1794
24.3951
29.0958
34.1817
39.5069
44.8809
50.0751
54.8354
58.8997
62.0187
63.9788
64.6227
63.8656
61.7034
58.2128
53.5425
47.8959
41.5099
34.6323
27.4999
20.3233
13.2774
6.50073
0.100942
-5.83379
-11.2217
-15.9757
-19.9966
-23.1738
-25.3948
-26.5636
-26.6253
-25.5914
-23.5619
-20.7328
-17.3849
-13.8441
-10.4125
-7.27184
-4.3697
-1.3078
2.74252
9.06858
19.3622
35.5672
59.6294
93.1709
137.131
191.432
254.735
324.339
396.271
465.559
526.698
574.222
603.336
610.51
593.957
553.915
492.706
414.542
325.107
230.967
138.884
55.1134
-15.2157
-68.5762
-103.313
-119.687
-119.701
-106.737
-85.0679
-59.3017
-33.8388
-12.4007
2.31687
8.83673
6.92912
-2.5102
-17.7037
-36.3154
-55.8066
-73.7765
-88.2487
-97.8736
-102.032
-100.835
-95.0382
-85.8775
-74.8702
-63.5966
-53.4983
-45.7134
-40.9666
-39.5211
-41.1928
-45.4184
-51.3626
-58.0492
-64.4941
-69.827
-73.3839
-74.7655
-73.8555
-70.801
-65.9631
-59.8451
-53.0111
-46.0053
-39.2823
-33.1553
-27.768
-23.0907
-18.9393
-15.0131
-10.9453
-6.35991
-0.92624
5.59383
13.3122
22.1974
32.0756
42.6489
53.5273
64.272
74.4419
83.6403
91.554
97.9825
102.852
106.216
108.237
109.163
109.286
108.905
108.287
107.63
107.046
106.547
106.053
105.404
104.39
102.78
100.359
96.9556
92.4655
86.8692
80.2351
72.7158
64.5336
55.9608
47.2953
38.836
30.8588
23.5979
17.2314
11.8744
7.57652
4.32653
2.05952
0.667597
0.0117806
-0.0658388
0.269512
0.855729
1.54275
2.19979
2.72075
3.0279
3.07377
2.84124
2.34196
1.61306
0.712374
-0.287551
-1.30627
-2.26259
-3.08143
-3.69991
-4.07211
-4.17218
-3.99565
-3.55882
-2.89661
-2.05893
-1.10613
-0.103873
0.882027
1.79043
2.56889
3.17655
3.58579
3.78256
3.7655
3.5442
3.13673
2.56704
1.8623
1.05059
0.159105
-0.787149
-1.76605
-2.75874
-3.74967
-4.7267
-5.68111
-6.60777
-7.50527
-8.37598
-9.2258
-10.0634
-10.899
-11.7422
-12.5996
-13.4727
-14.3546
-15.2293
-16.071
-16.8448
-17.5097
-18.0221
-18.3409
-18.4321
-18.2735
-17.8577
-17.1934
-16.3052
-15.2306
-14.0171
-12.7178
-11.3876
-10.0805
-8.84777
-7.7367
-6.79025
-6.0461
-5.53478
-5.27671
-5.27824
-5.52753
-5.99129
-6.61344
-7.31681
-8.00801
-8.58538
-8.94914
-9.01227
-8.71061
-8.01062
-6.91369
-5.4562
-3.70546
-1.75193
0.301206
2.34984
4.30075
6.08213
7.65182
9.00264
10.1643
11.2022
12.2123
13.3141
14.6395
16.3209
18.4763
21.1948
24.5219
28.4471
32.8962
37.7287
42.7428
47.6878
52.2839
56.2467
59.3151
61.277
61.992
61.4059
59.5564
56.5673
52.6342
48.0013
42.934
37.6908
32.4985
27.5329
22.909
18.6798
14.8439
11.3594
8.16206
5.18389
2.369
-0.315324
-2.87444
-5.28918
-7.52452
-9.54158
-11.3088
-12.8082
-14.0306
-14.9576
-15.5255
-15.574
-14.7835
-12.6124
-8.24842
-0.594996
11.69
30.0879
56.0406
90.7104
134.705
187.808
248.764
315.18
383.556
449.501
508.096
554.377
583.892
593.235
580.499
545.57
490.224
417.999
333.866
243.728
153.823
70.0865
-2.42269
-59.9896
-100.537
-123.724
-130.851
-124.579
-108.535
-86.8261
-63.5497
-42.3464
-26.0474
-16.4495
-14.2326
-19.0163
-29.5363
-43.9071
-59.9315
-75.4156
-88.4499
-97.6265
-102.172
-101.987
-97.5991
-90.0386
-80.6632
-70.9556
-62.3229
-55.9212
-52.5272
-52.4668
-55.6068
-61.4047
-69.006
-77.3722
-85.4217
-92.1645
-96.8134
-98.86
-98.1086
-94.6659
-88.8938
-81.333
-72.612
-63.3558
-54.1054
-45.2617
-37.0558
-29.5498
-22.6627
-16.215
-9.98293
-3.75172
2.6401
9.27223
16.1331
23.1289
30.1082
36.8958
43.3292
49.291
54.7304
59.6718
64.2087
68.4844
72.6638
76.9006
81.3061
85.9242
90.7158
95.5552
100.238
104.5
108.042
110.56
111.774
111.458
109.458
105.709
100.24
93.1761
84.7236
75.1611
64.8181
54.0531
43.2308
32.6992
22.7687
13.6943
5.6629
-1.21532
-6.90841
-11.459
-14.9749
-17.6148
-19.5712
-21.0512
-22.2581
-23.3743
-24.5489
-25.8893
-27.4584
-29.2766
-31.3281
-33.5699
-35.9419
-38.3763
-40.8052
-43.1652
-45.3982
-47.4508
-49.2697
-50.7985
-51.974
-52.7249
-52.9741
-52.6426
-51.6571
-49.9583
-47.5093
-44.3019
-40.3599
-35.7361
-30.5049
-24.7472
-18.5311
-11.8874
-4.78408
2.89816
11.3848
21.0174
32.2495
45.6271
61.7506
81.2204
104.569
132.185
164.244
200.644
240.974
284.5
330.204
376.842
423.048
467.446
508.777
546.013
578.437
605.692
627.774
644.976
657.78
666.731
672.278
674.638
673.69
668.915
659.418
644.018
621.416
590.411
550.146
500.341
441.47
374.858
302.672
227.783
153.541
83.4556
20.8495
-31.4893
-71.5965
-98.5308
-112.455
-114.593
-107.064
-92.6235
-74.3463
-55.2829
-38.144
-25.041
-17.3135
-15.4577
-19.1577
-27.4081
-38.7068
-51.2888
-63.3694
-73.3677
-80.0836
-82.8121
-81.3859
-76.1476
-67.8625
-57.5866
-46.5117
-35.8089
-26.489
-19.2971
-14.6501
-12.6208
-12.9663
-15.1922
-18.6409
-22.5912
-26.3543
-29.3555
-31.1925
-31.6655
-30.7776
-28.7102
-25.7771
-22.3671
-18.8827
-15.6835
-13.0419
-11.1146
-9.93379
-9.41606
-9.38708
-9.61654
-9.85794
-9.88712
-9.53417
-8.70487
-7.38934
-5.65759
-3.64339
-1.51953
0.531813
2.34887
3.81604
4.88205
5.56793
5.96407
6.21708
6.50857
7.02918
7.95171
9.40701
11.4656
14.1272
17.3188
20.9015
24.6837
28.4401
31.9338
34.9374
37.2544
38.7346
39.2855
38.8775
37.5424
35.3669
32.4809
29.0433
25.2264
21.2009
17.1224
13.1221
9.30004
5.72343
2.42759
-0.579473
-3.31047
-5.79083
-8.05018
-10.1143
-11.9983
-13.7016
-15.2062
-16.4769
-17.4652
-18.116
-18.3756
-18.2014
-17.5713
-16.4914
-15.0009
-13.1744
-11.1185
-8.96543
-6.86259
-4.9593
-3.39236
-2.27195
-1.66959
-1.60963
-2.0655
-2.96123
-4.17829
-5.5671
-6.962
-8.19814
-9.1283
-9.63802
-9.65706
-9.16607
-8.1977
-6.83205
-5.18698
-3.40469
-1.63597
-0.0240661
1.30993
2.27872
2.83611
2.97949
2.74731
2.21225
1.47091
0.631596
-0.198315
-0.924012
-1.47246
-1.79832
-1.8862
-1.74909
-1.42375
-0.963751
-0.431383
0.110342
0.604636
1.00601
1.28314
1.41961
1.4129
1.27246
1.01735
0.674236
0.276014
-0.139057
-0.527983
-0.844082
-1.03906
-1.06653
-0.886973
-0.473613
0.181746
1.06426
2.13425
3.32896
4.56828
5.76391
6.83079
7.69908
8.32463
8.69635
8.83882
8.80982
8.69285
8.58558
8.58602
8.77815
9.21928
9.93072
10.8932
12.0473
13.2998
14.5331
15.6191
16.4338
16.8721
16.8605
16.3675
15.4086
14.0469
12.3888
10.5745
8.76424
7.12227
5.79986
4.91883
4.55787
4.74301
5.44347
6.57358
8.00053
9.55758
11.0611
12.3295
13.2029
13.5595
13.3289
12.4991
11.1174
9.28438
7.14287
4.8617
2.61755
0.576413
-1.12307
-2.38253
-3.15169
-3.43057
-3.26595
-2.7431
-1.9739
-1.0832
-0.195023
0.57962
1.15209
1.46183
1.47809
1.19816
0.64247
-0.152071
-1.1397
-2.27312
-3.5097
-4.81602
-6.17034
-7.56291
-8.99427
-10.4718
-12.0049
-13.5995
-15.2524
-16.9465
-18.6477
-20.3039
-21.8472
-23.1987
-24.2765
-25.0058
-25.33
-25.2212
-24.6885
-23.7823
-22.5927
-21.2426
-19.8744
-18.633
-17.6463
-17.0073
-16.7587
-16.8846
-17.3094
-17.9043
-18.5019
-18.9154
-18.9608
-18.4791
-17.3555
-15.5325
-13.0171
-9.8788
-6.24151
-2.2686
1.85588
5.94745
9.84047
13.404
16.5521
19.2484
21.5036
23.3677
24.9172
26.2401
27.4209
28.5268
29.5972
30.6383
31.6225
32.4923
33.1682
33.5593
33.5749
33.1353
32.181
30.6786
28.6245
26.0439
22.9882
19.53
15.7569
11.7655
7.65512
3.52329
-0.538512
-4.44782
-8.13347
-11.5374
-14.6161
-17.3413
-19.6994
-21.6874
-23.3016
-24.5171
-25.2531
-25.3234
-24.3749
-21.8234
-16.8008
-8.1358
5.61085
26.0363
54.7041
92.8783
141.214
199.45
266.159
338.624
412.875
483.921
546.166
593.972
622.297
627.326
607.009
561.409
492.819
405.616
305.858
200.679
97.5574
3.54279
-75.4544
-135.228
-173.632
-190.682
-188.422
-170.557
-141.927
-107.895
-73.7137
-43.9626
-22.1045
-10.2138
-8.88776
-17.3367
-33.6275
-55.0355
-78.4548
-100.811
-119.432
-132.326
-138.361
-137.315
-129.819
-117.196
-101.241
-83.9588
-67.3022
-52.9419
-42.0909
-35.4007
-32.9355
-34.2209
-38.3544
-44.1588
-50.3547
-55.73
-59.285
-60.337
-58.5757
-54.0666
-47.2082
-38.6522
-29.2
-19.6908
-10.896
-3.42989
2.31171
6.18342
8.28999
8.95763
8.68261
8.06471
7.73412
8.28021
10.1894
13.7979
19.2633
26.5553
35.4668
45.6407
56.611
67.8505
78.8233
89.0337
98.0695
105.634
111.567
115.848
118.593
120.027
120.461
120.249
119.748
119.278
119.081
119.299
119.957
120.956
122.09
123.066
123.539
123.154
121.582
118.566
113.948
107.692
99.8916
90.7648
80.6368
69.9099
59.0278
48.436
38.5424
29.6843
22.103
15.9292
11.181
7.7723
5.53219
4.23033
3.60658
3.40039
3.37705
3.34795
3.18313
2.81558
2.23757
1.49047
0.649893
-0.191256
-0.939679
-1.5163
-1.86706
-1.96896
-1.8311
-1.49125
-1.00877
-0.455372
0.0948922
0.574881
0.931629
1.13074
1.15749
1.01479
0.718566
0.291581
-0.243128
-0.868058
-1.57528
-2.36807
-3.25991
-4.27109
-5.42337
-6.73379
-8.20855
-9.83807
-11.5941
-13.4296
-15.2812
-17.0744
-18.7308
-20.1762
-21.3483
-22.204
-22.7235
-22.912
-22.7986
-22.4319
-21.8736
-21.191
-20.4493
-19.7043
-18.9973
-18.3519
-17.773
-17.2489
-16.754
-16.2543
-15.7121
-15.091
-14.3601
-13.4968
-12.4877
-11.3289
-10.0245
-8.58471
-7.02345
-5.35655
-3.59981
-1.76777
0.127141
2.07518
4.06968
6.10728
8.18779
10.3134
12.487
14.7094
16.9755
19.2705
21.5658
23.8166
25.9608
27.9216
29.6115
30.9398
31.821
32.1842
31.9815
31.195
29.8399
27.965
25.6486
22.9911
20.1057
17.1061
14.0951
11.1535
8.33265
5.64897
3.08451
0.591142
-1.90095
-4.47171
-7.19819
-10.1417
-13.3367
-16.7832
-20.4429
-24.2399
-28.0659
-31.7878
-35.2575
-38.3223
-40.832
-42.6421
-43.6072
-43.5618
-42.2851
-39.4493
-34.5591
-26.8941
-15.4773
0.907044
23.6244
54.0175
93.1588
141.554
198.849
263.591
333.115
403.594
470.275
527.894
571.225
595.689
597.946
576.375
531.371
465.411
382.865
289.582
192.293
97.9139
12.8317
-57.7331
-110.212
-142.971
-156.361
-152.54
-135.111
-108.614
-77.9603
-47.8596
-22.331
-4.3298
4.46488
3.69431
-5.79366
-22.1877
-43.0433
-65.6512
-87.3961
-106.061
-120.048
-128.498
-131.299
-129.014
-122.717
-113.805
-103.78
-94.0554
-85.7942
-79.8025
-76.4797
-75.8249
-77.4916
-80.875
-85.217
-89.7148
-93.6174
-96.3026
-97.3286
-96.4569
-93.6506
-89.0513
-82.9398
-75.6887
-67.7124
-59.4205
-51.1795
-43.2851
-35.9467
-29.2831
-23.3289
-18.0481
-13.3529
-9.12394
-5.2309
-1.54961
2.02447
5.56793
9.12609
12.7143
16.3227
19.9238
23.4806
26.9553
30.3162
33.5428
36.6281
39.5771
42.4026
45.1178
47.7269
50.2153
52.5407
54.6276
56.3655
57.6136
58.2106
57.9908
56.803
54.5325
51.1202
46.5786
41.001
34.5614
27.5063
20.1374
12.7873
5.7913
-0.541693
-5.95631
-10.272
-13.3964
-15.3297
-16.1581
-16.0398
-15.1831
-13.8198
-12.1798
-10.466
-8.8366
-7.39423
-6.18375
-5.19837
-4.39225
-3.69731
-3.04134
-2.3645
-1.63182
-0.840061
-0.018443
0.776621
1.47137
1.98736
2.25484
2.22473
1.87747
1.22763
0.323927
-0.755392
-1.91068
-3.03156
-4.00851
-4.74408
-5.16229
-5.21527
-4.88678
-4.19225
-3.17603
-1.90626
-0.468364
1.04197
2.52577
3.88707
5.03822
5.9042
6.42587
6.56227
6.29222
5.61512
4.55122
3.14116
1.44477
-0.460975
-2.48497
-4.52592
-6.47719
-8.2324
-9.69149
-10.7671
-11.391
-11.5196
-11.1398
-10.2717
-8.97101
-7.32757
-5.4616
-3.51612
-1.64619
-0.00536201
1.2697
2.07479
2.3521
2.10056
1.38078
0.313429
-0.929423
-2.1394
-3.09207
-3.56999
-3.38602
-2.40382
-0.553164
2.1622
5.665
9.81316
14.4157
19.2538
24.1035
28.7589
33.0511
36.8618
40.13
42.8508
45.0669
46.8533
48.2994
49.488
50.4773
51.2868
51.8905
52.2168
52.1576
51.5834
50.3632
48.3858
45.58
41.9304
37.4865
32.3637
26.7367
20.8246
14.871
9.12033
3.79471
-0.927617
-4.92803
-8.15667
-10.6336
-12.4425
-13.717
-14.6234
-15.3398
-16.0348
-16.8477
-17.8683
-19.117
-20.5207
-21.8829
-22.847
-22.8545
-21.1066
-16.5424
-7.85041
6.46816
27.9711
58.0803
97.833
147.609
206.874
273.999
346.186
419.549
489.363
550.452
597.696
626.591
633.779
617.493
577.841
516.886
438.507
348.049
251.808
156.401
68.1101
-7.73113
-67.2305
-108.255
-130.543
-135.602
-126.418
-107.019
-81.949
-55.7243
-32.3377
-14.8636
-5.20511
-4.00273
-10.7001
-23.747
-40.9024
-59.5908
-77.2645
-91.7258
-101.374
-105.356
-103.601
-96.7663
-86.0853
-73.162
-59.7377
-47.4604
-37.6866
-31.3379
-28.8235
-30.034
-34.3995
-40.9999
-48.7074
-56.3431
-62.824
-67.286
-69.1683
-68.2524
-64.6555
-58.7826
-51.2459
-42.7664
-34.0694
-25.7897
-18.3971
-12.1512
-7.08847
-3.04097
0.318084
3.41008
6.67817
10.5161
15.2084
20.8891
27.5237
34.9155
42.7336
50.5595
57.9423
64.458
69.7628
73.6342
75.9964
76.9257
76.6378
75.4579
73.7803
72.0199
70.565
69.7335
69.7401
70.6749
72.4967
75.0384
78.0245
81.0971
83.8474
85.8505
86.7013
86.0481
83.6235
79.2695
72.9555
64.7879
55.0088
43.9853
32.1867
20.1535
8.45777
-2.33985
-11.7345
-19.3173
-24.8079
-28.0756
-29.1472
-28.1995
-25.5392
-21.57
-16.7534
-11.5643
-6.44961
-1.79094
2.12284
5.11193
7.10953
8.15406
8.37132
7.9496
7.11089
6.08176
5.0671
4.22921
3.67388
3.44447
3.52359
3.84196
4.29275
4.74979
5.08735
5.19917
5.01434
4.50815
3.70621
2.68142
1.5439
0.425347
-0.540131
-1.23582
-1.58004
-1.53902
-1.13299
-0.434804
0.438952
1.34272
2.12065
2.6264
2.74128
2.38841
1.54104
0.224298
-1.48945
-3.49082
-5.64737
-7.81933
-9.87496
-11.7037
-13.2256
-14.3958
-15.2052
-15.6753
-15.8516
-15.7938
-15.5662
-15.2286
-14.83
-14.404
-13.9677
-13.5228
-13.0587
-12.5571
-11.9966
-11.357
-10.6229
-9.7852
-8.84157
-7.79553
-6.65417
-5.42533
-4.11454
-2.72227
-1.24203
0.340334
2.04587
3.90009
5.92915
8.15505
10.5904
13.2335
16.0649
19.0454
22.1167
25.2038
28.2204
31.0749
33.6775
35.9469
37.8163
39.2372
40.1818
40.6437
40.6355
40.1864
39.338
38.1391
36.6416
34.8951
32.9438
30.8233
28.5596
26.1686
23.6579
21.0292
18.2815
15.4151
12.4346
9.35186
6.1871
2.96917
-0.266112
-3.47872
-6.62819
-9.67785
-12.5991
-15.3749
-18.0021
-20.4909
-22.8603
-25.1258
-27.278
-29.248
-30.8582
-31.7622
-31.3801
-28.8439
-22.9718
-12.2936
4.85351
30.1498
65.0419
110.441
166.41
231.9
304.581
380.838
455.944
524.418
580.547
618.995
635.442
627.147
593.357
535.501
457.14
363.651
261.707
158.6
61.495
-23.2937
-90.909
-138.381
-164.829
-171.418
-161.094
-138.139
-107.596
-74.6634
-44.1109
-19.7947
-4.31898
1.12786
-3.24223
-15.9951
-34.7789
-56.7083
-78.7731
-98.2221
-112.878
-121.348
-123.127
-118.569
-108.772
-95.3704
-80.2857
-65.4677
-52.6517
-43.1661
-37.8073
-36.7904
-39.7758
-45.9608
-54.2199
-63.271
-71.8447
-78.8363
-83.4208
-85.1219
-83.8291
-79.7663
-73.4208
-65.4469
-56.5587
-47.4294
-38.6094
-30.473
-23.197
-16.7719
-11.0383
-5.74119
-0.591508
4.67524
10.2519
16.23
22.5902
29.2127
35.9035
42.4306
48.5643
54.114
58.956
63.0481
66.4314
69.2168
71.5626
73.6446
75.6242
77.6198
79.6841
81.7918
83.838
85.648
86.9973
87.6387
87.333
85.8792
83.1406
79.0635
73.6867
67.141
59.6393
51.4589
42.918
34.349
26.0719
18.3697
11.4682
5.52247
0.60987
-3.26827
-6.1783
-8.23932
-9.60393
-10.4368
-10.8939
-11.1042
-11.1576
-11.098
-10.9254
-10.6029
-10.0715
-9.26608
-8.13417
-6.65139
-4.83328
-2.74068
-0.478074
1.8149
3.97759
5.84619
7.2727
8.14251
8.38816
7.99762
7.01604
5.54089
3.71137
1.69337
-0.337823
-2.21531
-3.79646
-4.9754
-5.69084
-5.92864
-5.71916
-5.13015
-4.25639
-3.20763
-2.09653
-1.02812
-0.0918902
0.642938
1.129
1.33975
1.26656
0.915076
0.301511
-0.550343
-1.61106
-2.84645
-4.21745
-5.67965
-7.18274
-8.67054
-10.082
-11.3535
-12.4222
-13.2309
-13.7323
-13.8947
-13.7049
-13.1714
-12.3241
-11.2127
-9.90295
-8.47037
-6.99407
-5.54955
-4.20229
-3.00259
-1.98215
-1.15282
-0.50739
-0.0222471
0.338517
0.618258
0.862808
1.11605
1.41658
1.79594
2.27842
2.88272
3.62476
4.52131
5.59342
6.86872
8.38179
10.1718
12.2778
14.7312
17.5481
20.7206
24.2105
27.9461
31.8218
35.7036
39.437
42.859
45.8115
48.1553
49.7819
50.6237
50.6592
49.9148
48.4613
46.4059
43.8815
41.0329
38.0034
34.92
31.8835
28.959
26.1734
23.5156
20.9423
18.3874
15.7748
13.0308
10.0978
6.94449
3.5724
0.0185661
-3.64711
-7.32868
-10.9144
-14.2889
-17.3459
-19.9983
-22.1843
-23.8646
-25.009
-25.5686
-25.4327
-24.3727
-21.9798
-17.6076
-10.3364
1.02108
17.8569
41.6341
73.6838
114.949
165.704
225.307
292.013
362.93
434.115
500.839
558.005
600.656
624.529
626.571
605.347
561.282
496.703
415.666
323.582
226.702
131.503
44.0547
-30.5485
-88.6412
-128.268
-149.271
-153.176
-142.912
-122.392
-96.0231
-68.1965
-42.828
-22.9882
-10.6633
-6.66026
-10.6563
-21.3714
-36.8338
-54.6968
-72.5657
-88.2937
-100.216
-107.301
-109.205
-106.244
-99.2789
-89.5584
-78.522
-67.607
-58.0751
-50.8795
-46.5835
-45.3352
-46.8941
-50.7008
-55.9769
-61.8367
-67.3997
-71.8863
-74.691
-75.4259
-73.9344
-70.2783
-64.7032
-57.5895
-49.396
-40.6039
-31.6655
-22.9638
-14.7846
-7.3026
-0.580833
5.41766
10.8093
15.7634
20.4725
25.1246
29.8773
34.8394
40.0594
45.5215
51.1509
56.8245
62.3884
67.6768
72.5322
76.8226
80.4543
83.3786
85.5913
87.1259
88.0413
88.4064
88.2845
87.7192
86.7254
85.2854
83.3529
80.8615
77.7394
73.9244
69.3805
64.1099
58.1609
51.6305
44.6601
37.4266
30.1304
22.9804
16.1801
9.91429
4.33816
-0.429839
-4.31252
-7.27512
-9.32369
-10.5013
-10.8826
-10.5671
-9.67245
-8.32676
-6.66247
-4.81018
-2.89381
-1.02676
0.690966
2.17482
3.35713
4.18808
4.63645
4.6901
4.3562
3.66113
2.65003
1.38556
-0.0539881
-1.57762
-3.08555
-4.47417
-5.6417
-6.4944
-6.95276
-6.95742
-6.47442
-5.49967
-4.06254
-2.22806
-0.0973794
2.1944
4.4837
6.58782
8.3181
9.49627
9.97254
9.64343
8.46698
6.47294
3.76611
0.521341
-3.02999
-6.62129
-9.97786
-12.8468
-15.0259
-16.3871
-16.8915
-16.5923
-15.6262
-14.1934
-12.529
-10.8712
-9.43004
-8.36171
-7.752
-7.61097
-7.87881
-8.44152
-9.15319
-9.86106
-10.4291
-10.7565
-10.7889
-10.5206
-9.98909
-9.26251
-8.42422
-7.55588
-6.72293
-5.96435
-5.28808
-4.67263
-4.07394
-3.43625
-2.70478
-1.83807
-0.817832
0.345298
1.61113
2.91465
4.1754
5.31038
6.24821
6.94262
7.38285
7.59927
7.66302
7.67966
7.77725
8.09065
8.74399
9.8339
11.4157
13.4947
16.0242
18.9098
22.0207
25.2058
28.3122
31.2038
33.7769
35.9696
37.7648
39.1844
40.2773
41.1016
41.7051
42.1076
42.2865
42.172
41.6492
40.572
38.7827
36.1389
32.5399
27.9512
22.4214
16.0891
9.17782
1.97982
-5.17047
-11.9289
-17.9768
-23.0531
-26.981
-29.6845
-31.1936
-31.6379
-31.2291
-30.2336
-28.9374
-27.6031
-26.4204
-25.4494
-24.5582
-23.361
-21.1625
-16.9276
-9.29015
3.37744
22.8212
50.6878
88.2462
136.081
193.809
259.867
331.435
404.524
474.243
535.23
582.2
610.539
616.869
599.5
558.702
496.759
417.786
327.341
231.861
138.011
52.0102
-20.9682
-77.2671
-115.027
-134.252
-136.674
-125.427
-104.594
-78.6832
-52.0981
-28.6695
-11.2931
-1.71144
-0.449034
-6.89762
-19.5246
-36.1692
-54.3815
-71.7603
-86.2483
-96.3539
-101.281
-100.958
-95.9782
-87.4556
-76.8381
-65.6908
-55.4867
-47.427
-42.3129
-40.4773
-41.782
-45.6742
-51.2893
-57.5849
-63.4851
-68.0175
-70.426
-70.2486
-67.3516
-61.9216
-54.4192
-45.5025
-35.9336
-26.4805
-17.8255
-10.4926
-4.79893
-0.833938
1.53269
2.61936
2.88227
2.85427
3.0809
4.06082
6.19694
9.76201
14.8806
21.527
29.537
38.6302
48.4396
58.544
68.5013
77.8795
86.2848
93.3849
98.9269
102.75
104.791
105.085
103.758
101.011
97.104
92.3279
86.9796
81.3324
75.6113
69.973
64.4952
59.1766
53.9476
48.6914
43.2716
37.5631
31.4814
25.0056
18.1917
11.1742
4.15571
-2.61369
-8.86527
-14.3432
-18.8353
-22.1985
-24.3753
-25.4
-25.3923
-24.5421
-23.0854
-21.2758
-19.3561
-17.5326
-15.9557
-14.7085
-13.8051
-13.1969
-12.7861
-12.4447
-12.0351
-11.4303
-10.5308
-9.27756
-7.65747
-5.70349
-3.48828
-1.11322
1.30572
3.65311
5.82823
7.75622
9.39488
10.7363
11.8032
12.6408
13.306
13.8545
14.3303
14.7572
15.1354
15.4434
15.6448
15.6979
15.568
15.2372
14.7118
14.024
13.2291
12.3976
11.6041
10.915
10.3773
10.011
9.80435
9.71603
9.68036
9.61711
9.44322
9.08486
8.48805
7.62627
6.50414
5.15672
3.64477
2.04678
0.44892
-1.06552
-2.42593
-3.58214
-4.50912
-5.20835
-5.70562
-6.04595
-6.28623
-6.48668
-6.70231
-6.9755
-7.33056
-7.77109
-8.28054
-8.82568
-9.36275
-9.84504
-10.2309
-10.4903
-10.6101
-10.5949
-10.4657
-10.2554
-10.0016
-9.73938
-9.49358
-9.27392
-9.07237
-8.86402
-8.61133
-8.27081
-7.8009
-7.16928
-6.35788
-5.36418
-4.19827
-2.87625
-1.41131
0.195213
1.96066
3.92357
6.14095
8.6799
11.6047
14.9612
18.7609
22.9677
27.4897
32.1781
36.8332
41.2187
45.0817
48.176
50.2867
51.2519
50.9799
49.4593
46.7603
43.028
38.4692
33.3319
27.8832
22.3854
17.0745
12.1419
7.7229
3.89014
0.6549
-2.02639
-4.24065
-6.1036
-7.74378
-9.28716
-10.8436
-12.4966
-14.2968
-16.2595
-18.3658
-20.5644
-22.7733
-24.8753
-26.7052
-28.0239
-28.4802
-27.5625
-24.5518
-18.4901
-8.18351
7.74158
30.7151
62.0329
102.612
152.726
211.755
278.014
348.693
419.948
487.145
545.255
589.345
615.115
619.41
600.635
559.018
496.677
417.473
326.676
230.461
135.312
47.3912
-28.0457
-87.1218
-127.65
-149.249
-153.264
-142.505
-120.845
-92.7298
-62.6715
-34.7649
-12.3
2.50388
8.61928
6.18515
-3.6477
-18.9708
-37.432
-56.5673
-74.1084
-88.2341
-97.7391
-102.111
-101.514
-96.6915
-88.8104
-79.2661
-69.4823
-60.7272
-53.9678
-49.7761
-48.2944
-49.2578
-52.0664
-55.8926
-59.8088
-62.9159
-64.4582
-63.9107
-61.0307
-55.8702
-48.7504
-40.2055
-30.9041
-21.5594
-12.8404
-5.2937
0.715667
5.03859
7.74886
9.12365
9.6008
9.71918
10.0498
11.1265
13.384
17.1109
22.4228
29.2563
37.3855
46.4553
56.028
65.6359
74.8326
83.2368
90.5631
96.6376
101.396
104.868
107.149
108.369
108.659
108.125
106.831
104.792
101.982
98.3505
93.8453
88.4354
82.1341
75.014
67.2125
58.9283
50.4071
41.9214
33.7449
26.1274
19.2728
13.3222
8.34581
4.3425
1.24734
-1.05474
-2.7113
-3.88356
-4.72845
-5.38372
-5.95747
-6.52252
-7.11576
-7.74172
-8.3793
-8.99058
-9.53011
-9.95369
-10.2256
-10.3233
-10.2401
-9.98453
-9.57845
-9.0527
-8.44255
-7.78289
-7.10407
-6.42894
-5.77133
-5.13598
-4.51972
-3.91338
-3.30403
-2.67714
-2.01825
-1.31404
-0.552916
0.274767
1.17638
2.15636
3.21495
4.34613
5.53522
6.75623
7.96986
9.12271
10.1482
10.9698
11.5058
11.6773
11.4157
10.672
9.42474
7.6862
5.50615
2.97152
0.202221
-2.657
-5.44819
-8.01398
-10.2122
-11.9293
-13.0918
-13.6724
-13.6929
-13.2202
-12.3581
-11.2357
-9.99242
-8.76284
-7.66322
-6.78031
-6.16444
-5.82728
-5.74413
-5.86032
-6.1006
-6.38011
-6.6156
-6.73545
-6.68742
-6.4433
-6.00041
-5.37971
-4.6215
-3.77907
-2.91156
-2.07673
-1.32465
-0.692898
-0.20367
0.136961
0.33786
0.42002
0.412711
0.34924
0.262999
0.184353
0.138786
0.146479
0.223239
0.382512
0.638032
1.0066
1.51048
2.17906
3.04932
4.16496
5.57397
7.32464
9.46007
12.0118
14.9928
18.3917
22.1678
26.2492
30.5338
34.8939
39.1834
43.248
46.9365
50.1112
52.658
54.4934
55.5679
55.8666
55.406
54.2289
52.3971
49.9843
47.0692
43.7301
40.0411
36.0707
31.8817
27.5317
23.0753
18.5653
14.0543
9.5963
5.24669
1.06344
-2.89301
-6.56003
-9.87418
-12.7739
-15.204
-17.1215
-18.5011
-19.337
-19.6371
-19.4046
-18.6023
-17.1001
-14.6086
-10.6104
-4.3059
5.40365
19.8741
40.5999
69.0156
106.232
152.737
208.119
270.855
338.23
406.423
470.762
526.144
567.561
590.679
592.375
571.164
527.453
463.581
383.634
293.058
198.118
105.269
20.5169
-51.1566
-106.236
-142.937
-161.274
-162.929
-150.945
-129.298
-102.398
-74.5787
-49.642
-30.4989
-18.9444
-15.581
-19.8869
-30.4094
-45.0485
-61.3903
-77.0449
-89.9474
-98.589
-102.157
-100.576
-94.4477
-84.9191
-73.4869
-61.7787
-51.3347
-43.4191
-38.8807
-38.0766
-40.8621
-46.6422
-54.4742
-63.2029
-71.6105
-78.5617
-83.1274
-84.6735
-82.9091
-77.8902
-69.9846
-59.8045
-48.1174
-35.7493
-23.49
-12.0134
-1.81799
6.80545
13.7803
19.2255
23.4174
26.7382
29.6186
32.4817
35.6934
39.5249
44.1298
49.536
55.6533
62.2924
69.1932
76.0582
82.586
88.5019
93.5814
97.6659
100.669
102.574
103.423
103.307
102.343
100.662
98.394
95.6568
92.5502
89.1534
85.5252
81.7053
77.7163
73.5652
69.2449
64.736
60.0106
55.0367
49.7861
44.243
38.4128
32.3309
26.0675
19.7295
13.4569
7.41496
1.78216
-3.26476
-7.56639
-10.9955
-13.4689
-14.9556
-15.4797
-15.1181
-13.9933
-12.2627
-10.1048
-7.70494
-5.24071
-2.8703
-0.722916
1.10692
2.56142
3.61806
4.28529
4.59623
4.60124
4.36058
3.93766
3.39363
2.78355
2.15398
1.54201
0.975162
0.471877
0.0422751
-0.311087
-0.59253
-0.812588
-0.987271
-1.13712
-1.28599
-1.45965
-1.68417
-1.98452
-2.38325
-2.89933
-3.54706
-4.33491
-5.26394
-6.32613
-7.50268
-8.76267
-10.0627
-11.3476
-12.5529
-13.6089
-14.4454
-14.9981
-15.2143
-15.0589
-14.5182
-13.603
-12.3488
-10.8137
-9.07435
-7.21999
-5.34451
-3.53863
-1.8821
-0.437389
0.754376
1.6746
2.32539
2.72499
2.90159
2.88677
2.71035
2.39814
1.97329
1.46115
0.896077
0.328058
-0.173853
-0.523482
-0.626193
-0.393806
0.236444
1.2826
2.70277
4.38806
6.16682
7.82086
9.11251
9.81871
9.76699
8.86737
7.13464
4.6969
1.78821
-1.27407
-4.12446
-6.39232
-7.74659
-7.93621
-6.82075
-4.38741
-0.752197
3.85434
9.11495
14.6633
20.1269
25.1698
29.5309
33.0517
35.6916
37.5278
38.7389
39.5751
40.3184
41.236
42.5366
44.3319
46.6114
49.233
51.9326
54.3508
56.0759
56.6958
55.8542
53.3028
48.9417
42.8434
35.2561
26.5852
17.3551
8.15682
-0.413995
-7.81832
-13.6288
-17.5708
-19.5462
-19.6365
-18.0887
-15.2841
-11.6978
-7.8497
-4.25397
-1.36603
0.471545
1.08571
0.532513
-0.842907
-2.35304
-2.93392
-1.14737
4.7617
16.738
36.713
66.3361
106.666
157.863
218.946
287.645
360.428
432.687
499.114
554.206
592.861
610.969
605.928
577.013
525.532
454.751
369.591
276.137
181.018
90.7275
10.9905
-53.7778
-100.837
-129.287
-140.023
-135.496
-119.317
-95.7702
-69.2872
-43.9562
-23.1148
-9.06955
-2.96115
-4.77933
-13.5093
-27.3796
-44.1714
-61.5452
-77.3453
-89.846
-97.9183
-101.104
-99.5982
-94.155
-85.9311
-76.2972
-66.6429
-58.1991
-51.8979
-48.2854
-47.4905
-49.2497
-52.9779
-57.8722
-63.0325
-67.5821
-70.7729
-72.065
-71.1722
-68.0725
-62.9855
-56.3224
-48.6189
-40.4597
-32.4043
-24.9234
-18.3504
-12.854
-8.43086
-4.92006
-2.03381
0.597968
3.37577
6.67729
10.8089
15.9678
22.2178
29.4834
37.5606
46.1433
54.8625
63.3321
71.1951
78.164
84.0503
88.7777
92.3781
94.9719
96.7347
97.8576
98.5057
98.7843
98.7157
98.233
97.1904
95.3898
92.6186
88.6934
83.5016
77.0346
69.4073
60.8596
51.7399
42.4729
33.5152
25.3062
18.2203
12.5266
8.36226
5.72143
4.46157
4.325
4.97265
6.02506
7.10551
7.87999
8.08975
7.57325
6.27609
4.24865
1.63288
-1.35961
-4.47512
-7.44767
-10.0281
-12.0091
-13.2446
-13.6611
-13.2609
-12.1169
-10.3609
-8.16529
-5.72217
-3.22146
-0.830697
1.3208
3.15185
4.63213
5.77789
6.6415
7.29658
7.8213
8.2823
8.72172
9.14934
9.5408
9.84208
9.97933
9.87218
9.44847
8.6579
7.4825
5.94266
4.09787
2.04232
-0.103622
-2.20506
-4.1256
-5.74054
-6.94874
-7.68249
-7.91443
-7.66113
-6.98315
-5.98116
-4.78861
-3.56106
-2.46307
-1.65357
-1.27112
-1.42024
-2.16052
-3.4995
-5.39028
-7.73433
-10.3893
-13.1813
-15.92
-18.4159
-20.497
-22.0241
-22.9028
-23.0906
-22.5993
-21.4913
-19.8721
-17.8783
-15.6632
-13.3824
-11.1794
-9.17448
-7.45627
-6.07797
-5.057
-4.37852
-4.00148
-3.86653
-3.90443
-4.0442
-4.22001
-4.37644
-4.47162
-4.4783
-4.38302
-4.18374
-3.88641
-3.501
-3.03751
-2.50235
-1.89536
-1.2077
-0.420649
0.494447
1.57501
2.86466
4.40916
6.2511
8.42352
10.9433
13.8053
16.9777
20.4003
23.9856
27.6232
31.1876
34.5481
37.5804
40.1772
42.259
43.7809
44.7361
45.1548
45.0991
44.6533
43.9114
42.9639
41.8846
40.7204
39.4859
38.1617
36.6999
35.0326
33.0849
30.7889
28.0969
24.9923
21.4964
17.67
13.6091
9.43684
5.29006
1.30464
-2.40065
-5.73876
-8.66611
-11.1894
-13.3659
-15.2958
-17.1036
-18.909
-20.7841
-22.6975
-24.4488
-25.5987
-25.4071
-22.796
-16.3554
-4.4143
14.8134
43.0042
81.4388
130.689
190.324
258.704
332.896
408.779
481.318
545.021
594.503
625.095
633.415
617.814
578.627
518.204
440.7
351.659
257.447
164.601
79.1739
6.16919
-50.8953
-90.231
-111.821
-117.27
-109.486
-92.2511
-69.7333
-46.0047
-24.6173
-8.28217
1.3208
3.59497
-1.05105
-11.3881
-25.6234
-41.692
-57.5433
-71.3908
-81.8989
-88.2935
-90.3919
-88.5581
-83.5963
-76.6041
-68.8046
-61.3817
-55.3362
-51.379
-49.8701
-50.8051
-53.8487
-58.4045
-63.7099
-68.9436
-73.3293
-76.2248
-77.1865
-76.0019
-72.6904
-67.4736
-60.7221
-52.8881
-44.4345
-35.7699
-27.1992
-18.8951
-10.8919
-3.10265
4.64676
12.5715
20.8777
29.7161
39.1458
49.1137
59.4513
69.8891
80.086
89.6693
98.2796
105.613
111.46
115.726
118.446
119.775
119.97
119.358
118.293
117.113
116.098
115.436
115.195
115.314
115.609
115.792
115.504
114.363
112.012
108.167
102.662
95.476
86.7466
76.7618
65.9359
54.7684
43.7928
33.522
24.3961
16.74
10.7352
6.40877
3.64048
2.18577
1.71186
1.84135
2.19805
2.44925
2.33973
1.71391
0.524348
-1.17341
-3.23802
-5.46843
-7.63504
-9.51163
-10.9041
-11.6727
-11.7466
-11.1286
-9.89199
-8.17022
-6.1415
-4.01055
-1.98935
-0.278645
0.948788
1.56214
1.48344
0.694836
-0.758199
-2.76804
-5.17102
-7.75874
-10.2944
-12.5333
-14.2463
-15.2438
-15.3967
-14.6536
-13.0488
-10.702
-7.80813
-4.61762
-1.41071
1.53247
3.96163
5.68251
6.57622
6.60955
5.83515
4.38182
2.4365
0.220354
-2.03766
-4.12648
-5.87468
-7.16586
-7.94615
-8.22358
-8.05987
-7.55651
-6.83726
-6.02973
-5.24865
-4.58268
-4.08649
-3.77835
-3.64315
-3.63974
-3.71099
-3.79483
-3.83458
-3.78703
-3.62751
-3.35152
-2.97316
-2.52099
-2.03239
-1.54721
-1.10198
-0.725221
-0.434476
-0.235117
-0.120853
-0.0755331
-0.0757414
-0.0936603
-0.0997543
-0.0649507
0.0378284
0.232776
0.540826
0.979606
1.56351
2.30377
3.20832
4.28167
5.52451
6.93353
8.50125
10.2161
12.0628
14.0231
16.0765
18.2017
20.3773
22.5835
24.8027
27.0201
29.2239
31.4047
33.5542
35.6639
37.7234
39.7185
41.6306
43.4363
45.1087
46.6189
47.9395
49.0469
49.9255
50.5687
50.9803
51.1733
51.1661
50.9781
50.623
50.1028
49.4009
48.4787
47.2724
45.695
43.64
40.9901
37.628
33.4504
28.3832
22.3961
15.515
7.83034
-0.500837
-9.25956
-18.1774
-26.9555
-35.2889
-42.8931
-49.53
-55.0311
-59.3134
-62.3876
-64.357
-65.4078
-65.7913
-65.7997
-65.7368
-65.8837
-66.4579
-67.5663
-69.1489
-70.9173
-72.2932
-72.3589
-69.8389
-63.1314
-50.4098
-29.803
0.349698
41.1906
93.0254
155.048
225.168
225.168
225.168
225.168
225.168
225.168
225.168
225.168
225.168
225.168
225.168
225.168
225.168
225.168
225.168
225.168
225.168
225.168
225.168
225.168
225.168
